File Path	chrom://chromeleon01/ikbm_chromeleon/2022/Rezex/Esteban/220612_chitin_4_7.seq/264.smp/UV_VIS_1.channel/UV_VIS_1.chm
Channel	UV_VIS_1

Injection Information:
Data Vault	ikbm_chromeleon
Injection	7_24h-ChiBS_3
Injection Number	13
Position	RB2
Comment	
Processing Method	New ProcMethod
Instrument Method	Short_Rezex_6min_194nm
Type	Unknown
Status	Finished
Injection Date	12.06.2022
Injection Time	18:31:48
Injection Volume (µl)	8,000
Dilution Factor	1,0000
Weight	1,0000

Chromatogram Data Information:
Time Min. (min)	0,000833
Time Max. (min)	6,000833
Data Points	3601
Detector	UV
Generating Data System	Chromeleon 7.2.9.11323
Exporting Data System	Chromeleon 7.2.9.0
Operator	Instrument Controller
Signal Quantity	Absorbance
Signal Unit	mAU
Signal Min.	-0,103462
Signal Max.	124,337408
Channel	UV_VIS_1
Driver Name	VWD3000.dll
Channel Type	Evaluation
Min. Step (s)	0,1
Max. Step (s)	0,1
Average Step (s)	0,1

Signal Parameter Information:
Signal Info	WVL:194 nm

Chromatogram Data:
Time (min)	Step (s)	Value (mAU)
0,000833	n.a.	-0,076440
0,002500	0,1	-0,033557
0,004167	0,1	-0,026711
0,005833	0,1	-0,036595
0,007500	0,1	-0,025945
0,009167	0,1	-0,017175
0,010833	0,1	-0,067500
0,012500	0,1	-0,046512
0,014167	0,1	-0,039832
0,015833	0,1	-0,047737
0,017500	0,1	-0,048429
0,019167	0,1	-0,058799
0,020833	0,1	-0,041584
0,022500	0,1	-0,013711
0,024167	0,1	-0,062348
0,025833	0,1	-0,062665
0,027500	0,1	-0,039587
0,029167	0,1	-0,068943
0,030833	0,1	-0,077251
0,032500	0,1	-0,076011
0,034167	0,1	-0,071809
0,035833	0,1	-0,081510
0,037500	0,1	-0,085195
0,039167	0,1	-0,071493
0,040833	0,1	-0,047213
0,042500	0,1	-0,075178
0,044167	0,1	-0,097677
0,045833	0,1	-0,096789
0,047500	0,1	-0,064831
0,049167	0,1	-0,039123
0,050833	0,1	-0,057103
0,052500	0,1	-0,042646
0,054167	0,1	-0,010840
0,055833	0,1	-0,069105
0,057500	0,1	-0,012430
0,059167	0,1	-0,009488
0,060833	0,1	-0,051819
0,062500	0,1	-0,039019
0,064167	0,1	-0,024431
0,065833	0,1	-0,044560
0,067500	0,1	-0,048428
0,069167	0,1	-0,052754
0,070833	0,1	-0,017047
0,072500	0,1	-0,079353
0,074167	0,1	-0,016183
0,075833	0,1	-0,035543
0,077500	0,1	-0,036009
0,079167	0,1	-0,062649
0,080833	0,1	-0,068992
0,082500	0,1	-0,054860
0,084167	0,1	-0,014528
0,085833	0,1	-0,036774
0,087500	0,1	-0,028870
0,089167	0,1	-0,020136
0,090833	0,1	-0,029566
0,092500	0,1	-0,043861
0,094167	0,1	-0,054054
0,095833	0,1	-0,034500
0,097500	0,1	-0,026192
0,099167	0,1	-0,025660
0,100833	0,1	-0,022767
0,102500	0,1	-0,024833
0,104167	0,1	-0,039804
0,105833	0,1	-0,077582
0,107500	0,1	-0,032404
0,109167	0,1	-0,053620
0,110833	0,1	-0,085132
0,112500	0,1	-0,061960
0,114167	0,1	-0,076571
0,115833	0,1	-0,036484
0,117500	0,1	-0,079277
0,119167	0,1	-0,062184
0,120833	0,1	-0,074030
0,122500	0,1	-0,031410
0,124167	0,1	-0,056727
0,125833	0,1	-0,076401
0,127500	0,1	-0,056242
0,129167	0,1	-0,065342
0,130833	0,1	-0,062656
0,132500	0,1	-0,041529
0,134167	0,1	-0,034487
0,135833	0,1	-0,103462
0,137500	0,1	-0,067859
0,139167	0,1	-0,057505
0,140833	0,1	-0,055863
0,142500	0,1	-0,025824
0,144167	0,1	-0,017163
0,145833	0,1	-0,041316
0,147500	0,1	-0,033322
0,149167	0,1	-0,069267
0,150833	0,1	-0,050366
0,152500	0,1	-0,064040
0,154167	0,1	-0,004689
0,155833	0,1	-0,045073
0,157500	0,1	-0,020151
0,159167	0,1	-0,046265
0,160833	0,1	-0,029924
0,162500	0,1	-0,046741
0,164167	0,1	-0,041854
0,165833	0,1	-0,035197
0,167500	0,1	-0,075357
0,169167	0,1	-0,046221
0,170833	0,1	-0,032500
0,172500	0,1	-0,022599
0,174167	0,1	-0,042163
0,175833	0,1	-0,070908
0,177500	0,1	-0,079996
0,179167	0,1	-0,049363
0,180833	0,1	-0,065294
0,182500	0,1	-0,081565
0,184167	0,1	-0,033049
0,185833	0,1	-0,037648
0,187500	0,1	-0,055135
0,189167	0,1	-0,051425
0,190833	0,1	-0,050598
0,192500	0,1	-0,057624
0,194167	0,1	-0,000248
0,195833	0,1	-0,066560
0,197500	0,1	-0,048590
0,199167	0,1	-0,035076
0,200833	0,1	-0,039377
0,202500	0,1	0,000854
0,204167	0,1	-0,039277
0,205833	0,1	-0,039525
0,207500	0,1	-0,041174
0,209167	0,1	-0,082677
0,210833	0,1	-0,048686
0,212500	0,1	-0,010019
0,214167	0,1	-0,034005
0,215833	0,1	-0,052525
0,217500	0,1	-0,051886
0,219167	0,1	-0,043932
0,220833	0,1	-0,044213
0,222500	0,1	-0,029280
0,224167	0,1	-0,039997
0,225833	0,1	-0,021021
0,227500	0,1	-0,071096
0,229167	0,1	-0,077965
0,230833	0,1	-0,041410
0,232500	0,1	-0,024363
0,234167	0,1	-0,015108
0,235833	0,1	-0,044388
0,237500	0,1	-0,016523
0,239167	0,1	-0,061898
0,240833	0,1	-0,016178
0,242500	0,1	-0,044907
0,244167	0,1	-0,043921
0,245833	0,1	-0,033662
0,247500	0,1	-0,012409
0,249167	0,1	-0,040467
0,250833	0,1	-0,036023
0,252500	0,1	-0,037772
0,254167	0,1	-0,051939
0,255833	0,1	-0,046724
0,257500	0,1	-0,055183
0,259167	0,1	-0,013183
0,260833	0,1	-0,023904
0,262500	0,1	-0,046322
0,264167	0,1	-0,044396
0,265833	0,1	-0,020274
0,267500	0,1	-0,001629
0,269167	0,1	-0,016095
0,270833	0,1	-0,011242
0,272500	0,1	-0,068505
0,274167	0,1	-0,092930
0,275833	0,1	-0,059443
0,277500	0,1	-0,051492
0,279167	0,1	-0,032445
0,280833	0,1	-0,093396
0,282500	0,1	-0,034261
0,284167	0,1	-0,081796
0,285833	0,1	0,006198
0,287500	0,1	-0,047285
0,289167	0,1	-0,019982
0,290833	0,1	-0,065502
0,292500	0,1	-0,056917
0,294167	0,1	-0,031101
0,295833	0,1	0,029280
0,297500	0,1	-0,051923
0,299167	0,1	-0,032976
0,300833	0,1	-0,019618
0,302500	0,1	-0,041034
0,304167	0,1	-0,040282
0,305833	0,1	-0,018037
0,307500	0,1	-0,018958
0,309167	0,1	0,005095
0,310833	0,1	-0,008244
0,312500	0,1	-0,067149
0,314167	0,1	-0,019975
0,315833	0,1	-0,019659
0,317500	0,1	-0,017152
0,319167	0,1	-0,047947
0,320833	0,1	-0,065576
0,322500	0,1	-0,023263
0,324167	0,1	-0,009956
0,325833	0,1	-0,038795
0,327500	0,1	-0,053691
0,329167	0,1	-0,035417
0,330833	0,1	-0,071494
0,332500	0,1	-0,041531
0,334167	0,1	-0,034544
0,335833	0,1	-0,003442
0,337500	0,1	-0,051592
0,339167	0,1	0,007076
0,340833	0,1	-0,049873
0,342500	0,1	-0,011713
0,344167	0,1	-0,036242
0,345833	0,1	-0,013188
0,347500	0,1	-0,041608
0,349167	0,1	-0,019912
0,350833	0,1	-0,058237
0,352500	0,1	-0,003874
0,354167	0,1	-0,054214
0,355833	0,1	-0,064990
0,357500	0,1	-0,041755
0,359167	0,1	-0,020681
0,360833	0,1	-0,020011
0,362500	0,1	-0,068587
0,364167	0,1	-0,031036
0,365833	0,1	-0,035060
0,367500	0,1	-0,036609
0,369167	0,1	-0,032837
0,370833	0,1	-0,027989
0,372500	0,1	-0,010318
0,374167	0,1	-0,048702
0,375833	0,1	-0,064683
0,377500	0,1	-0,026584
0,379167	0,1	-0,017323
0,380833	0,1	-0,038932
0,382500	0,1	-0,044268
0,384167	0,1	-0,025404
0,385833	0,1	-0,036594
0,387500	0,1	-0,052821
0,389167	0,1	-0,075530
0,390833	0,1	-0,042097
0,392500	0,1	-0,047240
0,394167	0,1	-0,024421
0,395833	0,1	-0,022496
0,397500	0,1	-0,064508
0,399167	0,1	-0,001109
0,400833	0,1	-0,037527
0,402500	0,1	-0,043445
0,404167	0,1	-0,020500
0,405833	0,1	-0,014395
0,407500	0,1	-0,018427
0,409167	0,1	-0,004905
0,410833	0,1	-0,061928
0,412500	0,1	-0,040818
0,414167	0,1	-0,038237
0,415833	0,1	-0,035774
0,417500	0,1	-0,028339
0,419167	0,1	-0,006794
0,420833	0,1	-0,012868
0,422500	0,1	0,014700
0,424167	0,1	0,000073
0,425833	0,1	-0,010356
0,427500	0,1	-0,041324
0,429167	0,1	-0,050834
0,430833	0,1	-0,003693
0,432500	0,1	-0,025633
0,434167	0,1	-0,032021
0,435833	0,1	-0,003802
0,437500	0,1	0,007910
0,439167	0,1	-0,022306
0,440833	0,1	-0,018554
0,442500	0,1	-0,034887
0,444167	0,1	-0,005970
0,445833	0,1	0,001368
0,447500	0,1	-0,054200
0,449167	0,1	0,003932
0,450833	0,1	-0,038645
0,452500	0,1	-0,005678
0,454167	0,1	-0,053026
0,455833	0,1	-0,036648
0,457500	0,1	-0,029740
0,459167	0,1	-0,056919
0,460833	0,1	-0,036297
0,462500	0,1	-0,037819
0,464167	0,1	-0,014694
0,465833	0,1	-0,037396
0,467500	0,1	-0,046608
0,469167	0,1	-0,050348
0,470833	0,1	-0,033912
0,472500	0,1	-0,062410
0,474167	0,1	-0,036254
0,475833	0,1	0,000583
0,477500	0,1	-0,025745
0,479167	0,1	-0,050704
0,480833	0,1	-0,030613
0,482500	0,1	-0,009654
0,484167	0,1	-0,038626
0,485833	0,1	-0,036711
0,487500	0,1	-0,011190
0,489167	0,1	-0,059410
0,490833	0,1	-0,038308
0,492500	0,1	0,010129
0,494167	0,1	-0,008469
0,495833	0,1	-0,024763
0,497500	0,1	-0,027931
0,499167	0,1	-0,078843
0,500833	0,1	-0,024193
0,502500	0,1	-0,052974
0,504167	0,1	-0,082543
0,505833	0,1	-0,027640
0,507500	0,1	-0,022419
0,509167	0,1	-0,069841
0,510833	0,1	0,006019
0,512500	0,1	-0,019370
0,514167	0,1	-0,037406
0,515833	0,1	-0,012875
0,517500	0,1	-0,038275
0,519167	0,1	0,000299
0,520833	0,1	-0,005431
0,522500	0,1	-0,058360
0,524167	0,1	-0,036366
0,525833	0,1	-0,028804
0,527500	0,1	-0,044966
0,529167	0,1	0,006272
0,530833	0,1	-0,007883
0,532500	0,1	-0,012358
0,534167	0,1	-0,033846
0,535833	0,1	-0,011595
0,537500	0,1	-0,015692
0,539167	0,1	-0,030030
0,540833	0,1	-0,003801
0,542500	0,1	-0,012799
0,544167	0,1	-0,009614
0,545833	0,1	-0,020957
0,547500	0,1	-0,053969
0,549167	0,1	-0,012348
0,550833	0,1	-0,004724
0,552500	0,1	-0,008246
0,554167	0,1	-0,063173
0,555833	0,1	-0,049551
0,557500	0,1	-0,062878
0,559167	0,1	-0,019908
0,560833	0,1	-0,027330
0,562500	0,1	-0,014417
0,564167	0,1	-0,052454
0,565833	0,1	-0,024649
0,567500	0,1	-0,007482
0,569167	0,1	0,006451
0,570833	0,1	0,005158
0,572500	0,1	-0,013044
0,574167	0,1	-0,020483
0,575833	0,1	-0,003447
0,577500	0,1	-0,027687
0,579167	0,1	-0,001111
0,580833	0,1	0,036315
0,582500	0,1	0,043579
0,584167	0,1	-0,015509
0,585833	0,1	-0,003154
0,587500	0,1	-0,046882
0,589167	0,1	-0,017224
0,590833	0,1	0,003354
0,592500	0,1	0,037490
0,594167	0,1	-0,038693
0,595833	0,1	0,022194
0,597500	0,1	-0,001582
0,599167	0,1	-0,007781
0,600833	0,1	0,009776
0,602500	0,1	-0,028262
0,604167	0,1	-0,010419
0,605833	0,1	-0,026762
0,607500	0,1	-0,057144
0,609167	0,1	0,010190
0,610833	0,1	0,023957
0,612500	0,1	0,028828
0,614167	0,1	-0,043790
0,615833	0,1	0,009832
0,617500	0,1	-0,009349
0,619167	0,1	0,046038
0,620833	0,1	-0,029607
0,622500	0,1	0,024015
0,624167	0,1	-0,040559
0,625833	0,1	0,056555
0,627500	0,1	0,033109
0,629167	0,1	0,011783
0,630833	0,1	-0,005723
0,632500	0,1	0,030867
0,634167	0,1	0,055170
0,635833	0,1	-0,003080
0,637500	0,1	-0,023531
0,639167	0,1	0,004041
0,640833	0,1	-0,002278
0,642500	0,1	-0,010717
0,644167	0,1	-0,004450
0,645833	0,1	-0,010774
0,647500	0,1	-0,011885
0,649167	0,1	0,047905
0,650833	0,1	0,038315
0,652500	0,1	0,017296
0,654167	0,1	-0,026338
0,655833	0,1	0,012347
0,657500	0,1	-0,001811
0,659167	0,1	-0,000980
0,660833	0,1	0,021625
0,662500	0,1	0,018921
0,664167	0,1	0,006752
0,665833	0,1	0,002117
0,667500	0,1	0,009551
0,669167	0,1	0,013880
0,670833	0,1	0,008853
0,672500	0,1	-0,001103
0,674167	0,1	0,043039
0,675833	0,1	0,011910
0,677500	0,1	0,003519
0,679167	0,1	0,034384
0,680833	0,1	0,040063
0,682500	0,1	0,026248
0,684167	0,1	0,018335
0,685833	0,1	0,043820
0,687500	0,1	0,034981
0,689167	0,1	0,056752
0,690833	0,1	0,059400
0,692500	0,1	0,040315
0,694167	0,1	0,047793
0,695833	0,1	0,024136
0,697500	0,1	0,040242
0,699167	0,1	0,020622
0,700833	0,1	0,021270
0,702500	0,1	0,036840
0,704167	0,1	0,040074
0,705833	0,1	0,036552
0,707500	0,1	0,046098
0,709167	0,1	0,073614
0,710833	0,1	0,083943
0,712500	0,1	0,027603
0,714167	0,1	0,056628
0,715833	0,1	0,075086
0,717500	0,1	0,093239
0,719167	0,1	0,118780
0,720833	0,1	0,098875
0,722500	0,1	0,071278
0,724167	0,1	0,115030
0,725833	0,1	0,102387
0,727500	0,1	0,100159
0,729167	0,1	0,104782
0,730833	0,1	0,084514
0,732500	0,1	0,031240
0,734167	0,1	0,105058
0,735833	0,1	0,106364
0,737500	0,1	0,089553
0,739167	0,1	0,080776
0,740833	0,1	0,133827
0,742500	0,1	0,095715
0,744167	0,1	0,091261
0,745833	0,1	0,126272
0,747500	0,1	0,093080
0,749167	0,1	0,058747
0,750833	0,1	0,092362
0,752500	0,1	0,073333
0,754167	0,1	0,111632
0,755833	0,1	0,102037
0,757500	0,1	0,109878
0,759167	0,1	0,071925
0,760833	0,1	0,111331
0,762500	0,1	0,083234
0,764167	0,1	0,101205
0,765833	0,1	0,096514
0,767500	0,1	0,095348
0,769167	0,1	0,099634
0,770833	0,1	0,076505
0,772500	0,1	0,066130
0,774167	0,1	0,066356
0,775833	0,1	0,085980
0,777500	0,1	0,086743
0,779167	0,1	0,107476
0,780833	0,1	0,099932
0,782500	0,1	0,064553
0,784167	0,1	0,093236
0,785833	0,1	0,083997
0,787500	0,1	0,089450
0,789167	0,1	0,102911
0,790833	0,1	0,069233
0,792500	0,1	0,062378
0,794167	0,1	0,081062
0,795833	0,1	0,063203
0,797500	0,1	0,056758
0,799167	0,1	0,091074
0,800833	0,1	0,071645
0,802500	0,1	0,088565
0,804167	0,1	0,065023
0,805833	0,1	0,107007
0,807500	0,1	0,065209
0,809167	0,1	0,088319
0,810833	0,1	0,063443
0,812500	0,1	0,063209
0,814167	0,1	0,053360
0,815833	0,1	0,050315
0,817500	0,1	0,070469
0,819167	0,1	0,051202
0,820833	0,1	0,070509
0,822500	0,1	0,063674
0,824167	0,1	0,029690
0,825833	0,1	0,066991
0,827500	0,1	0,065370
0,829167	0,1	0,108825
0,830833	0,1	0,083528
0,832500	0,1	0,044224
0,834167	0,1	0,093939
0,835833	0,1	0,086158
0,837500	0,1	0,091252
0,839167	0,1	0,082538
0,840833	0,1	0,104191
0,842500	0,1	0,085980
0,844167	0,1	0,040435
0,845833	0,1	0,086374
0,847500	0,1	0,090142
0,849167	0,1	0,080360
0,850833	0,1	0,087564
0,852500	0,1	0,050210
0,854167	0,1	0,087795
0,855833	0,1	0,104192
0,857500	0,1	0,061693
0,859167	0,1	0,059978
0,860833	0,1	0,102196
0,862500	0,1	0,084235
0,864167	0,1	0,061026
0,865833	0,1	0,080068
0,867500	0,1	0,094357
0,869167	0,1	0,060263
0,870833	0,1	0,087502
0,872500	0,1	0,073567
0,874167	0,1	0,061034
0,875833	0,1	0,054239
0,877500	0,1	0,124625
0,879167	0,1	0,084649
0,880833	0,1	0,080651
0,882500	0,1	0,042234
0,884167	0,1	0,047263
0,885833	0,1	0,083587
0,887500	0,1	0,101916
0,889167	0,1	0,078733
0,890833	0,1	0,092130
0,892500	0,1	0,085749
0,894167	0,1	0,078303
0,895833	0,1	0,061394
0,897500	0,1	0,074198
0,899167	0,1	0,103494
0,900833	0,1	0,048964
0,902500	0,1	0,068462
0,904167	0,1	0,056172
0,905833	0,1	0,073918
0,907500	0,1	0,073443
0,909167	0,1	0,096580
0,910833	0,1	0,065652
0,912500	0,1	0,080012
0,914167	0,1	0,076208
0,915833	0,1	0,061205
0,917500	0,1	0,073741
0,919167	0,1	0,126496
0,920833	0,1	0,118201
0,922500	0,1	0,086637
0,924167	0,1	0,125864
0,925833	0,1	0,107780
0,927500	0,1	0,060814
0,929167	0,1	0,112207
0,930833	0,1	0,103732
0,932500	0,1	0,119375
0,934167	0,1	0,119788
0,935833	0,1	0,118614
0,937500	0,1	0,098165
0,939167	0,1	0,135764
0,940833	0,1	0,111590
0,942500	0,1	0,134364
0,944167	0,1	0,110645
0,945833	0,1	0,155215
0,947500	0,1	0,155397
0,949167	0,1	0,104615
0,950833	0,1	0,137111
0,952500	0,1	0,151061
0,954167	0,1	0,153884
0,955833	0,1	0,108774
0,957500	0,1	0,142380
0,959167	0,1	0,139754
0,960833	0,1	0,154512
0,962500	0,1	0,106147
0,964167	0,1	0,183973
0,965833	0,1	0,162610
0,967500	0,1	0,176014
0,969167	0,1	0,113117
0,970833	0,1	0,139684
0,972500	0,1	0,191820
0,974167	0,1	0,222055
0,975833	0,1	0,136847
0,977500	0,1	0,168207
0,979167	0,1	0,155693
0,980833	0,1	0,190236
0,982500	0,1	0,157453
0,984167	0,1	0,205590
0,985833	0,1	0,232373
0,987500	0,1	0,179010
0,989167	0,1	0,198440
0,990833	0,1	0,199266
0,992500	0,1	0,208581
0,994167	0,1	0,226392
0,995833	0,1	0,216675
0,997500	0,1	0,235944
0,999167	0,1	0,232076
1,000833	0,1	0,265529
1,002500	0,1	0,240575
1,004167	0,1	0,252057
1,005833	0,1	0,264418
1,007500	0,1	0,265415
1,009167	0,1	0,264182
1,010833	0,1	0,302912
1,012500	0,1	0,285458
1,014167	0,1	0,293597
1,015833	0,1	0,306488
1,017500	0,1	0,353595
1,019167	0,1	0,367844
1,020833	0,1	0,322907
1,022500	0,1	0,389459
1,024167	0,1	0,420998
1,025833	0,1	0,397039
1,027500	0,1	0,411333
1,029167	0,1	0,423406
1,030833	0,1	0,411924
1,032500	0,1	0,436123
1,034167	0,1	0,428335
1,035833	0,1	0,443805
1,037500	0,1	0,488759
1,039167	0,1	0,477283
1,040833	0,1	0,486191
1,042500	0,1	0,508283
1,044167	0,1	0,480979
1,045833	0,1	0,507992
1,047500	0,1	0,536716
1,049167	0,1	0,565625
1,050833	0,1	0,612417
1,052500	0,1	0,658793
1,054167	0,1	0,657101
1,055833	0,1	0,708292
1,057500	0,1	0,779211
1,059167	0,1	0,888157
1,060833	0,1	0,971435
1,062500	0,1	1,188691
1,064167	0,1	1,361017
1,065833	0,1	1,588895
1,067500	0,1	1,891273
1,069167	0,1	2,319277
1,070833	0,1	2,768787
1,072500	0,1	3,420716
1,074167	0,1	4,079657
1,075833	0,1	4,952475
1,077500	0,1	5,940069
1,079167	0,1	7,079750
1,080833	0,1	8,382857
1,082500	0,1	9,771101
1,084167	0,1	11,337922
1,085833	0,1	13,126762
1,087500	0,1	14,979539
1,089167	0,1	16,982430
1,090833	0,1	19,045265
1,092500	0,1	21,143616
1,094167	0,1	23,280986
1,095833	0,1	25,396769
1,097500	0,1	27,496017
1,099167	0,1	29,538325
1,100833	0,1	31,445818
1,102500	0,1	33,212126
1,104167	0,1	34,874594
1,105833	0,1	36,356008
1,107500	0,1	37,598828
1,109167	0,1	38,702762
1,110833	0,1	39,531931
1,112500	0,1	40,226485
1,114167	0,1	40,684694
1,115833	0,1	40,976270
1,117500	0,1	41,058191
1,119167	0,1	40,929884
1,120833	0,1	40,759372
1,122500	0,1	40,405810
1,124167	0,1	39,868460
1,125833	0,1	39,268014
1,127500	0,1	38,586312
1,129167	0,1	37,819699
1,130833	0,1	36,993406
1,132500	0,1	36,058792
1,134167	0,1	35,139830
1,135833	0,1	34,236940
1,137500	0,1	33,280214
1,139167	0,1	32,337508
1,140833	0,1	31,388629
1,142500	0,1	30,491255
1,144167	0,1	29,610595
1,145833	0,1	28,837100
1,147500	0,1	28,032435
1,149167	0,1	27,307660
1,150833	0,1	26,628490
1,152500	0,1	26,000078
1,154167	0,1	25,415356
1,155833	0,1	24,933004
1,157500	0,1	24,505652
1,159167	0,1	24,110648
1,160833	0,1	23,782685
1,162500	0,1	23,488003
1,164167	0,1	23,260841
1,165833	0,1	23,018346
1,167500	0,1	22,793527
1,169167	0,1	22,649338
1,170833	0,1	22,501633
1,172500	0,1	22,400531
1,174167	0,1	22,261201
1,175833	0,1	22,181405
1,177500	0,1	22,065364
1,179167	0,1	22,001912
1,180833	0,1	21,938171
1,182500	0,1	21,888505
1,184167	0,1	21,837024
1,185833	0,1	21,810759
1,187500	0,1	21,781222
1,189167	0,1	21,842154
1,190833	0,1	21,898587
1,192500	0,1	22,113505
1,194167	0,1	22,346097
1,195833	0,1	22,717201
1,197500	0,1	23,188781
1,199167	0,1	23,820023
1,200833	0,1	24,640570
1,202500	0,1	25,605973
1,204167	0,1	26,865238
1,205833	0,1	28,342051
1,207500	0,1	30,060801
1,209167	0,1	32,104517
1,210833	0,1	34,420437
1,212500	0,1	37,023436
1,214167	0,1	39,918389
1,215833	0,1	43,083844
1,217500	0,1	46,543227
1,219167	0,1	50,249399
1,220833	0,1	54,201739
1,222500	0,1	58,334887
1,224167	0,1	62,653889
1,225833	0,1	67,118604
1,227500	0,1	71,609694
1,229167	0,1	76,091246
1,230833	0,1	80,674740
1,232500	0,1	85,086431
1,234167	0,1	89,424659
1,235833	0,1	93,661708
1,237500	0,1	97,663471
1,239167	0,1	101,475235
1,240833	0,1	105,031271
1,242500	0,1	108,317693
1,244167	0,1	111,250974
1,245833	0,1	113,987535
1,247500	0,1	116,430364
1,249167	0,1	118,482844
1,250833	0,1	120,259446
1,252500	0,1	121,700271
1,254167	0,1	122,854606
1,255833	0,1	123,670134
1,257500	0,1	124,168420
1,259167	0,1	124,329220
1,260833	0,1	124,337408
1,262500	0,1	123,898678
1,264167	0,1	123,333031
1,265833	0,1	122,462210
1,267500	0,1	121,310230
1,269167	0,1	119,978339
1,270833	0,1	118,448043
1,272500	0,1	116,643213
1,274167	0,1	114,717601
1,275833	0,1	112,600662
1,277500	0,1	110,418632
1,279167	0,1	108,075473
1,280833	0,1	105,645355
1,282500	0,1	103,148875
1,284167	0,1	100,464470
1,285833	0,1	97,865127
1,287500	0,1	95,201236
1,289167	0,1	92,512123
1,290833	0,1	89,790693
1,292500	0,1	87,129812
1,294167	0,1	84,530296
1,295833	0,1	81,863545
1,297500	0,1	79,321093
1,299167	0,1	76,776094
1,300833	0,1	74,371558
1,302500	0,1	71,972659
1,304167	0,1	69,662060
1,305833	0,1	67,419878
1,307500	0,1	65,257919
1,309167	0,1	63,168471
1,310833	0,1	61,155758
1,312500	0,1	59,271931
1,314167	0,1	57,472689
1,315833	0,1	55,664253
1,317500	0,1	53,997143
1,319167	0,1	52,369876
1,320833	0,1	50,833157
1,322500	0,1	49,314221
1,324167	0,1	47,933795
1,325833	0,1	46,556853
1,327500	0,1	45,273471
1,329167	0,1	44,005567
1,330833	0,1	42,809950
1,332500	0,1	41,660339
1,334167	0,1	40,588391
1,335833	0,1	39,512420
1,337500	0,1	38,511536
1,339167	0,1	37,518131
1,340833	0,1	36,614795
1,342500	0,1	35,642679
1,344167	0,1	34,788288
1,345833	0,1	33,887635
1,347500	0,1	33,102233
1,349167	0,1	32,283204
1,350833	0,1	31,523436
1,352500	0,1	30,777861
1,354167	0,1	30,014071
1,355833	0,1	29,296450
1,357500	0,1	28,609175
1,359167	0,1	27,960948
1,360833	0,1	27,259461
1,362500	0,1	26,668070
1,364167	0,1	26,003643
1,365833	0,1	25,421382
1,367500	0,1	24,808811
1,369167	0,1	24,255212
1,370833	0,1	23,721543
1,372500	0,1	23,126303
1,374167	0,1	22,641834
1,375833	0,1	22,103165
1,377500	0,1	21,631375
1,379167	0,1	21,134684
1,380833	0,1	20,676423
1,382500	0,1	20,228236
1,384167	0,1	19,765869
1,385833	0,1	19,320311
1,387500	0,1	18,944736
1,389167	0,1	18,525612
1,390833	0,1	18,128959
1,392500	0,1	17,746435
1,394167	0,1	17,384382
1,395833	0,1	17,012472
1,397500	0,1	16,663352
1,399167	0,1	16,330522
1,400833	0,1	16,019279
1,402500	0,1	15,695555
1,404167	0,1	15,462945
1,405833	0,1	15,089306
1,407500	0,1	14,863129
1,409167	0,1	14,581953
1,410833	0,1	14,315102
1,412500	0,1	14,037656
1,414167	0,1	13,832816
1,415833	0,1	13,575875
1,417500	0,1	13,328219
1,419167	0,1	13,105730
1,420833	0,1	12,920663
1,422500	0,1	12,691691
1,424167	0,1	12,510611
1,425833	0,1	12,307691
1,427500	0,1	12,113249
1,429167	0,1	11,928113
1,430833	0,1	11,720611
1,432500	0,1	11,591579
1,434167	0,1	11,407554
1,435833	0,1	11,171882
1,437500	0,1	11,038121
1,439167	0,1	10,871388
1,440833	0,1	10,720659
1,442500	0,1	10,550571
1,444167	0,1	10,425638
1,445833	0,1	10,268825
1,447500	0,1	10,128747
1,449167	0,1	9,998119
1,450833	0,1	9,815140
1,452500	0,1	9,686650
1,454167	0,1	9,585307
1,455833	0,1	9,406555
1,457500	0,1	9,305479
1,459167	0,1	9,200677
1,460833	0,1	9,055399
1,462500	0,1	8,952307
1,464167	0,1	8,802738
1,465833	0,1	8,703484
1,467500	0,1	8,607454
1,469167	0,1	8,504513
1,470833	0,1	8,405426
1,472500	0,1	8,350254
1,474167	0,1	8,247191
1,475833	0,1	8,182011
1,477500	0,1	8,066045
1,479167	0,1	8,002486
1,480833	0,1	7,964993
1,482500	0,1	7,845620
1,484167	0,1	7,790615
1,485833	0,1	7,751730
1,487500	0,1	7,691897
1,489167	0,1	7,685717
1,490833	0,1	7,584107
1,492500	0,1	7,571067
1,494167	0,1	7,533150
1,495833	0,1	7,479425
1,497500	0,1	7,440545
1,499167	0,1	7,414267
1,500833	0,1	7,394648
1,502500	0,1	7,321442
1,504167	0,1	7,297551
1,505833	0,1	7,302145
1,507500	0,1	7,255369
1,509167	0,1	7,241624
1,510833	0,1	7,225131
1,512500	0,1	7,211125
1,514167	0,1	7,188651
1,515833	0,1	7,153681
1,517500	0,1	7,127897
1,519167	0,1	7,138310
1,520833	0,1	7,104963
1,522500	0,1	7,062092
1,524167	0,1	7,073739
1,525833	0,1	7,040415
1,527500	0,1	7,002733
1,529167	0,1	6,977787
1,530833	0,1	6,967118
1,532500	0,1	6,964888
1,534167	0,1	6,922843
1,535833	0,1	6,881370
1,537500	0,1	6,874689
1,539167	0,1	6,818470
1,540833	0,1	6,822904
1,542500	0,1	6,802737
1,544167	0,1	6,786467
1,545833	0,1	6,734553
1,547500	0,1	6,727412
1,549167	0,1	6,727912
1,550833	0,1	6,661187
1,552500	0,1	6,666166
1,554167	0,1	6,641666
1,555833	0,1	6,602207
1,557500	0,1	6,566153
1,559167	0,1	6,555659
1,560833	0,1	6,532432
1,562500	0,1	6,498718
1,564167	0,1	6,476968
1,565833	0,1	6,469234
1,567500	0,1	6,399387
1,569167	0,1	6,422585
1,570833	0,1	6,363748
1,572500	0,1	6,376034
1,574167	0,1	6,325070
1,575833	0,1	6,287644
1,577500	0,1	6,296471
1,579167	0,1	6,234010
1,580833	0,1	6,235018
1,582500	0,1	6,168222
1,584167	0,1	6,145852
1,585833	0,1	6,108917
1,587500	0,1	6,094643
1,589167	0,1	6,050151
1,590833	0,1	6,006795
1,592500	0,1	5,983882
1,594167	0,1	5,951415
1,595833	0,1	5,940179
1,597500	0,1	5,892037
1,599167	0,1	5,815256
1,600833	0,1	5,816487
1,602500	0,1	5,719271
1,604167	0,1	5,714922
1,605833	0,1	5,661342
1,607500	0,1	5,625931
1,609167	0,1	5,636524
1,610833	0,1	5,594496
1,612500	0,1	5,516380
1,614167	0,1	5,511837
1,615833	0,1	5,439287
1,617500	0,1	5,397089
1,619167	0,1	5,348752
1,620833	0,1	5,325387
1,622500	0,1	5,303191
1,624167	0,1	5,250950
1,625833	0,1	5,212735
1,627500	0,1	5,198993
1,629167	0,1	5,102039
1,630833	0,1	5,094292
1,632500	0,1	5,066244
1,634167	0,1	5,015088
1,635833	0,1	4,938864
1,637500	0,1	4,915163
1,639167	0,1	4,887231
1,640833	0,1	4,886050
1,642500	0,1	4,834684
1,644167	0,1	4,777583
1,645833	0,1	4,725876
1,647500	0,1	4,699273
1,649167	0,1	4,697344
1,650833	0,1	4,634096
1,652500	0,1	4,580802
1,654167	0,1	4,635953
1,655833	0,1	4,549741
1,657500	0,1	4,544417
1,659167	0,1	4,536165
1,660833	0,1	4,465264
1,662500	0,1	4,456347
1,664167	0,1	4,442186
1,665833	0,1	4,431238
1,667500	0,1	4,444552
1,669167	0,1	4,389549
1,670833	0,1	4,379145
1,672500	0,1	4,382166
1,674167	0,1	4,374456
1,675833	0,1	4,336846
1,677500	0,1	4,330653
1,679167	0,1	4,361552
1,680833	0,1	4,340745
1,682500	0,1	4,410380
1,684167	0,1	4,399544
1,685833	0,1	4,413338
1,687500	0,1	4,383744
1,689167	0,1	4,426823
1,690833	0,1	4,415545
1,692500	0,1	4,444339
1,694167	0,1	4,431582
1,695833	0,1	4,387976
1,697500	0,1	4,464940
1,699167	0,1	4,531591
1,700833	0,1	4,554305
1,702500	0,1	4,570391
1,704167	0,1	4,567275
1,705833	0,1	4,576771
1,707500	0,1	4,606686
1,709167	0,1	4,638950
1,710833	0,1	4,608445
1,712500	0,1	4,658244
1,714167	0,1	4,693195
1,715833	0,1	4,682323
1,717500	0,1	4,683282
1,719167	0,1	4,684794
1,720833	0,1	4,707105
1,722500	0,1	4,767970
1,724167	0,1	4,782305
1,725833	0,1	4,720643
1,727500	0,1	4,745550
1,729167	0,1	4,764384
1,730833	0,1	4,759282
1,732500	0,1	4,757460
1,734167	0,1	4,744908
1,735833	0,1	4,741544
1,737500	0,1	4,724487
1,739167	0,1	4,701728
1,740833	0,1	4,683126
1,742500	0,1	4,709893
1,744167	0,1	4,686413
1,745833	0,1	4,704275
1,747500	0,1	4,623198
1,749167	0,1	4,642968
1,750833	0,1	4,585668
1,752500	0,1	4,547834
1,754167	0,1	4,557089
1,755833	0,1	4,537967
1,757500	0,1	4,441019
1,759167	0,1	4,466061
1,760833	0,1	4,412169
1,762500	0,1	4,371385
1,764167	0,1	4,333974
1,765833	0,1	4,347985
1,767500	0,1	4,319094
1,769167	0,1	4,244544
1,770833	0,1	4,177781
1,772500	0,1	4,159985
1,774167	0,1	4,066235
1,775833	0,1	4,060873
1,777500	0,1	4,032039
1,779167	0,1	3,971750
1,780833	0,1	3,885471
1,782500	0,1	3,889988
1,784167	0,1	3,858944
1,785833	0,1	3,804090
1,787500	0,1	3,726700
1,789167	0,1	3,725450
1,790833	0,1	3,667713
1,792500	0,1	3,601186
1,794167	0,1	3,551970
1,795833	0,1	3,536012
1,797500	0,1	3,476792
1,799167	0,1	3,413819
1,800833	0,1	3,386690
1,802500	0,1	3,369739
1,804167	0,1	3,315733
1,805833	0,1	3,279312
1,807500	0,1	3,223361
1,809167	0,1	3,160201
1,810833	0,1	3,138140
1,812500	0,1	3,085888
1,814167	0,1	3,063030
1,815833	0,1	3,043420
1,817500	0,1	2,983270
1,819167	0,1	2,910483
1,820833	0,1	2,884247
1,822500	0,1	2,834779
1,824167	0,1	2,762169
1,825833	0,1	2,756028
1,827500	0,1	2,779245
1,829167	0,1	2,713279
1,830833	0,1	2,675476
1,832500	0,1	2,684865
1,834167	0,1	2,647456
1,835833	0,1	2,638140
1,837500	0,1	2,636568
1,839167	0,1	2,647650
1,840833	0,1	2,641311
1,842500	0,1	2,669238
1,844167	0,1	2,660396
1,845833	0,1	2,634324
1,847500	0,1	2,701993
1,849167	0,1	2,719587
1,850833	0,1	2,789164
1,852500	0,1	2,802849
1,854167	0,1	2,844032
1,855833	0,1	2,880364
1,857500	0,1	2,910758
1,859167	0,1	3,002970
1,860833	0,1	3,016819
1,862500	0,1	3,091611
1,864167	0,1	3,151827
1,865833	0,1	3,157813
1,867500	0,1	3,217784
1,869167	0,1	3,254271
1,870833	0,1	3,347353
1,872500	0,1	3,385519
1,874167	0,1	3,435213
1,875833	0,1	3,462921
1,877500	0,1	3,515434
1,879167	0,1	3,590906
1,880833	0,1	3,658018
1,882500	0,1	3,665757
1,884167	0,1	3,711430
1,885833	0,1	3,735188
1,887500	0,1	3,768970
1,889167	0,1	3,801089
1,890833	0,1	3,859425
1,892500	0,1	3,892359
1,894167	0,1	3,925070
1,895833	0,1	3,940599
1,897500	0,1	3,964431
1,899167	0,1	4,002129
1,900833	0,1	4,019036
1,902500	0,1	4,066126
1,904167	0,1	4,061087
1,905833	0,1	4,097624
1,907500	0,1	4,120974
1,909167	0,1	4,159685
1,910833	0,1	4,156143
1,912500	0,1	4,170881
1,914167	0,1	4,144756
1,915833	0,1	4,173946
1,917500	0,1	4,197391
1,919167	0,1	4,181733
1,920833	0,1	4,201838
1,922500	0,1	4,172795
1,924167	0,1	4,171159
1,925833	0,1	4,218046
1,927500	0,1	4,168537
1,929167	0,1	4,159799
1,930833	0,1	4,146328
1,932500	0,1	4,090919
1,934167	0,1	4,107670
1,935833	0,1	4,084123
1,937500	0,1	4,084053
1,939167	0,1	4,086003
1,940833	0,1	4,030043
1,942500	0,1	4,015156
1,944167	0,1	3,993693
1,945833	0,1	3,997653
1,947500	0,1	3,952376
1,949167	0,1	3,922856
1,950833	0,1	3,890566
1,952500	0,1	3,847684
1,954167	0,1	3,853521
1,955833	0,1	3,806019
1,957500	0,1	3,811565
1,959167	0,1	3,803992
1,960833	0,1	3,771800
1,962500	0,1	3,743353
1,964167	0,1	3,714335
1,965833	0,1	3,700693
1,967500	0,1	3,657687
1,969167	0,1	3,613377
1,970833	0,1	3,620575
1,972500	0,1	3,567198
1,974167	0,1	3,572443
1,975833	0,1	3,511423
1,977500	0,1	3,472748
1,979167	0,1	3,502453
1,980833	0,1	3,477576
1,982500	0,1	3,437832
1,984167	0,1	3,437031
1,985833	0,1	3,413592
1,987500	0,1	3,343783
1,989167	0,1	3,366483
1,990833	0,1	3,310320
1,992500	0,1	3,339288
1,994167	0,1	3,309666
1,995833	0,1	3,279669
1,997500	0,1	3,252125
1,999167	0,1	3,220324
2,000833	0,1	3,226516
2,002500	0,1	3,237043
2,004167	0,1	3,211238
2,005833	0,1	3,191412
2,007500	0,1	3,218654
2,009167	0,1	3,182474
2,010833	0,1	3,200055
2,012500	0,1	3,171301
2,014167	0,1	3,182244
2,015833	0,1	3,165027
2,017500	0,1	3,146137
2,019167	0,1	3,150960
2,020833	0,1	3,181023
2,022500	0,1	3,176206
2,024167	0,1	3,145125
2,025833	0,1	3,153267
2,027500	0,1	3,193274
2,029167	0,1	3,171381
2,030833	0,1	3,146575
2,032500	0,1	3,181235
2,034167	0,1	3,158465
2,035833	0,1	3,181162
2,037500	0,1	3,193355
2,039167	0,1	3,204240
2,040833	0,1	3,245543
2,042500	0,1	3,212676
2,044167	0,1	3,264724
2,045833	0,1	3,213623
2,047500	0,1	3,255638
2,049167	0,1	3,292274
2,050833	0,1	3,288742
2,052500	0,1	3,341667
2,054167	0,1	3,307071
2,055833	0,1	3,356737
2,057500	0,1	3,347596
2,059167	0,1	3,370880
2,060833	0,1	3,397640
2,062500	0,1	3,417622
2,064167	0,1	3,405943
2,065833	0,1	3,443873
2,067500	0,1	3,449509
2,069167	0,1	3,433066
2,070833	0,1	3,494077
2,072500	0,1	3,500943
2,074167	0,1	3,529652
2,075833	0,1	3,518770
2,077500	0,1	3,538169
2,079167	0,1	3,593141
2,080833	0,1	3,566176
2,082500	0,1	3,600004
2,084167	0,1	3,630888
2,085833	0,1	3,615031
2,087500	0,1	3,629017
2,089167	0,1	3,627508
2,090833	0,1	3,665739
2,092500	0,1	3,703563
2,094167	0,1	3,652926
2,095833	0,1	3,725135
2,097500	0,1	3,726461
2,099167	0,1	3,723801
2,100833	0,1	3,732593
2,102500	0,1	3,742848
2,104167	0,1	3,768237
2,105833	0,1	3,797914
2,107500	0,1	3,800514
2,109167	0,1	3,826431
2,110833	0,1	3,781493
2,112500	0,1	3,827150
2,114167	0,1	3,849523
2,115833	0,1	3,847379
2,117500	0,1	3,834025
2,119167	0,1	3,836479
2,120833	0,1	3,877246
2,122500	0,1	3,851721
2,124167	0,1	3,828540
2,125833	0,1	3,817586
2,127500	0,1	3,854666
2,129167	0,1	3,892489
2,130833	0,1	3,904342
2,132500	0,1	3,864721
2,134167	0,1	3,915670
2,135833	0,1	3,862559
2,137500	0,1	3,885361
2,139167	0,1	3,887382
2,140833	0,1	3,913800
2,142500	0,1	3,914308
2,144167	0,1	3,859246
2,145833	0,1	3,918490
2,147500	0,1	3,920955
2,149167	0,1	3,921383
2,150833	0,1	3,911283
2,152500	0,1	3,878868
2,154167	0,1	3,885358
2,155833	0,1	3,882545
2,157500	0,1	3,900285
2,159167	0,1	3,903044
2,160833	0,1	3,907519
2,162500	0,1	3,917842
2,164167	0,1	3,862775
2,165833	0,1	3,849331
2,167500	0,1	3,863532
2,169167	0,1	3,862103
2,170833	0,1	3,913868
2,172500	0,1	3,837295
2,174167	0,1	3,869327
2,175833	0,1	3,860519
2,177500	0,1	3,866010
2,179167	0,1	3,875673
2,180833	0,1	3,817524
2,182500	0,1	3,871130
2,184167	0,1	3,825378
2,185833	0,1	3,865352
2,187500	0,1	3,846432
2,189167	0,1	3,817347
2,190833	0,1	3,827734
2,192500	0,1	3,826216
2,194167	0,1	3,805584
2,195833	0,1	3,817553
2,197500	0,1	3,822546
2,199167	0,1	3,810417
2,200833	0,1	3,863103
2,202500	0,1	3,826889
2,204167	0,1	3,854446
2,205833	0,1	3,861378
2,207500	0,1	3,870343
2,209167	0,1	3,888029
2,210833	0,1	3,864067
2,212500	0,1	3,883766
2,214167	0,1	3,886887
2,215833	0,1	3,915100
2,217500	0,1	3,917935
2,219167	0,1	3,934897
2,220833	0,1	3,928411
2,222500	0,1	4,036418
2,224167	0,1	4,013058
2,225833	0,1	3,999989
2,227500	0,1	4,071608
2,229167	0,1	4,076676
2,230833	0,1	4,102378
2,232500	0,1	4,117985
2,234167	0,1	4,144882
2,235833	0,1	4,165329
2,237500	0,1	4,190752
2,239167	0,1	4,179596
2,240833	0,1	4,296172
2,242500	0,1	4,273667
2,244167	0,1	4,311168
2,245833	0,1	4,336299
2,247500	0,1	4,330105
2,249167	0,1	4,388583
2,250833	0,1	4,405433
2,252500	0,1	4,480212
2,254167	0,1	4,444717
2,255833	0,1	4,518916
2,257500	0,1	4,515834
2,259167	0,1	4,501673
2,260833	0,1	4,534603
2,262500	0,1	4,544587
2,264167	0,1	4,572586
2,265833	0,1	4,578735
2,267500	0,1	4,588024
2,269167	0,1	4,585367
2,270833	0,1	4,572076
2,272500	0,1	4,585960
2,274167	0,1	4,601096
2,275833	0,1	4,629239
2,277500	0,1	4,592028
2,279167	0,1	4,574969
2,280833	0,1	4,592535
2,282500	0,1	4,602687
2,284167	0,1	4,554611
2,285833	0,1	4,588757
2,287500	0,1	4,569098
2,289167	0,1	4,570871
2,290833	0,1	4,559115
2,292500	0,1	4,520994
2,294167	0,1	4,545558
2,295833	0,1	4,558998
2,297500	0,1	4,518351
2,299167	0,1	4,480951
2,300833	0,1	4,460620
2,302500	0,1	4,454300
2,304167	0,1	4,442721
2,305833	0,1	4,423316
2,307500	0,1	4,399265
2,309167	0,1	4,390036
2,310833	0,1	4,341114
2,312500	0,1	4,321153
2,314167	0,1	4,309153
2,315833	0,1	4,282850
2,317500	0,1	4,291324
2,319167	0,1	4,262594
2,320833	0,1	4,190927
2,322500	0,1	4,215663
2,324167	0,1	4,178198
2,325833	0,1	4,160397
2,327500	0,1	4,095237
2,329167	0,1	4,076555
2,330833	0,1	4,064626
2,332500	0,1	4,031039
2,334167	0,1	3,980413
2,335833	0,1	3,951816
2,337500	0,1	3,935778
2,339167	0,1	3,920013
2,340833	0,1	3,898352
2,342500	0,1	3,862983
2,344167	0,1	3,789868
2,345833	0,1	3,850392
2,347500	0,1	3,786102
2,349167	0,1	3,731022
2,350833	0,1	3,723855
2,352500	0,1	3,670965
2,354167	0,1	3,711500
2,355833	0,1	3,629694
2,357500	0,1	3,605722
2,359167	0,1	3,557669
2,360833	0,1	3,607206
2,362500	0,1	3,569856
2,364167	0,1	3,530967
2,365833	0,1	3,477657
2,367500	0,1	3,478508
2,369167	0,1	3,491562
2,370833	0,1	3,450600
2,372500	0,1	3,438692
2,374167	0,1	3,473812
2,375833	0,1	3,435597
2,377500	0,1	3,415323
2,379167	0,1	3,458877
2,380833	0,1	3,341485
2,382500	0,1	3,404990
2,384167	0,1	3,393683
2,385833	0,1	3,403630
2,387500	0,1	3,395991
2,389167	0,1	3,358705
2,390833	0,1	3,420424
2,392500	0,1	3,408757
2,394167	0,1	3,445678
2,395833	0,1	3,451889
2,397500	0,1	3,457876
2,399167	0,1	3,485860
2,400833	0,1	3,524238
2,402500	0,1	3,463952
2,404167	0,1	3,522145
2,405833	0,1	3,570634
2,407500	0,1	3,626553
2,409167	0,1	3,650594
2,410833	0,1	3,696851
2,412500	0,1	3,752362
2,414167	0,1	3,809464
2,415833	0,1	3,867658
2,417500	0,1	3,911772
2,419167	0,1	3,971925
2,420833	0,1	4,056716
2,422500	0,1	4,078135
2,424167	0,1	4,172404
2,425833	0,1	4,237871
2,427500	0,1	4,350647
2,429167	0,1	4,434872
2,430833	0,1	4,520328
2,432500	0,1	4,600275
2,434167	0,1	4,684464
2,435833	0,1	4,797651
2,437500	0,1	4,883577
2,439167	0,1	4,951386
2,440833	0,1	5,062937
2,442500	0,1	5,187491
2,444167	0,1	5,201721
2,445833	0,1	5,326057
2,447500	0,1	5,474537
2,449167	0,1	5,513335
2,450833	0,1	5,619986
2,452500	0,1	5,718935
2,454167	0,1	5,850117
2,455833	0,1	5,899467
2,457500	0,1	6,015028
2,459167	0,1	6,096360
2,460833	0,1	6,234562
2,462500	0,1	6,333646
2,464167	0,1	6,429899
2,465833	0,1	6,514467
2,467500	0,1	6,653203
2,469167	0,1	6,758111
2,470833	0,1	6,887915
2,472500	0,1	6,975818
2,474167	0,1	7,115786
2,475833	0,1	7,248762
2,477500	0,1	7,463796
2,479167	0,1	7,559558
2,480833	0,1	7,752087
2,482500	0,1	7,939453
2,484167	0,1	8,117733
2,485833	0,1	8,392761
2,487500	0,1	8,579774
2,489167	0,1	8,856502
2,490833	0,1	9,109490
2,492500	0,1	9,400582
2,494167	0,1	9,727992
2,495833	0,1	10,097907
2,497500	0,1	10,466360
2,499167	0,1	10,836313
2,500833	0,1	11,261713
2,502500	0,1	11,738441
2,504167	0,1	12,304499
2,505833	0,1	12,790462
2,507500	0,1	13,331354
2,509167	0,1	13,910467
2,510833	0,1	14,609880
2,512500	0,1	15,293013
2,514167	0,1	16,012134
2,515833	0,1	16,769941
2,517500	0,1	17,604823
2,519167	0,1	18,433815
2,520833	0,1	19,301306
2,522500	0,1	20,190653
2,524167	0,1	21,169380
2,525833	0,1	22,178005
2,527500	0,1	23,256763
2,529167	0,1	24,306889
2,530833	0,1	25,396989
2,532500	0,1	26,542100
2,534167	0,1	27,703290
2,535833	0,1	28,871285
2,537500	0,1	30,111847
2,539167	0,1	31,281058
2,540833	0,1	32,551140
2,542500	0,1	33,849048
2,544167	0,1	35,095495
2,545833	0,1	36,380891
2,547500	0,1	37,692980
2,549167	0,1	39,001572
2,550833	0,1	40,313823
2,552500	0,1	41,610302
2,554167	0,1	42,819306
2,555833	0,1	44,094739
2,557500	0,1	45,371504
2,559167	0,1	46,571785
2,560833	0,1	47,783869
2,562500	0,1	48,943018
2,564167	0,1	50,150926
2,565833	0,1	51,291058
2,567500	0,1	52,324595
2,569167	0,1	53,420563
2,570833	0,1	54,489697
2,572500	0,1	55,403005
2,574167	0,1	56,391563
2,575833	0,1	57,293296
2,577500	0,1	58,101964
2,579167	0,1	58,961899
2,580833	0,1	59,699682
2,582500	0,1	60,447382
2,584167	0,1	61,111243
2,585833	0,1	61,713507
2,587500	0,1	62,330040
2,589167	0,1	62,815246
2,590833	0,1	63,312106
2,592500	0,1	63,800794
2,594167	0,1	64,155971
2,595833	0,1	64,529493
2,597500	0,1	64,866267
2,599167	0,1	65,104191
2,600833	0,1	65,372137
2,602500	0,1	65,510517
2,604167	0,1	65,649086
2,605833	0,1	65,762041
2,607500	0,1	65,766936
2,609167	0,1	65,792961
2,610833	0,1	65,828575
2,612500	0,1	65,814351
2,614167	0,1	65,677250
2,615833	0,1	65,568789
2,617500	0,1	65,393001
2,619167	0,1	65,212629
2,620833	0,1	65,015844
2,622500	0,1	64,775178
2,624167	0,1	64,496325
2,625833	0,1	64,197596
2,627500	0,1	63,829327
2,629167	0,1	63,481367
2,630833	0,1	63,089024
2,632500	0,1	62,683843
2,634167	0,1	62,271980
2,635833	0,1	61,850928
2,637500	0,1	61,335925
2,639167	0,1	60,809038
2,640833	0,1	60,293979
2,642500	0,1	59,738991
2,644167	0,1	59,231918
2,645833	0,1	58,657209
2,647500	0,1	58,048892
2,649167	0,1	57,446109
2,650833	0,1	56,832273
2,652500	0,1	56,198808
2,654167	0,1	55,547368
2,655833	0,1	54,942841
2,657500	0,1	54,226622
2,659167	0,1	53,566814
2,660833	0,1	52,860050
2,662500	0,1	52,154124
2,664167	0,1	51,440247
2,665833	0,1	50,744646
2,667500	0,1	50,072200
2,669167	0,1	49,331134
2,670833	0,1	48,629756
2,672500	0,1	47,885449
2,674167	0,1	47,089525
2,675833	0,1	46,417732
2,677500	0,1	45,654579
2,679167	0,1	44,924713
2,680833	0,1	44,196052
2,682500	0,1	43,482585
2,684167	0,1	42,740770
2,685833	0,1	42,012155
2,687500	0,1	41,275328
2,689167	0,1	40,539846
2,690833	0,1	39,873552
2,692500	0,1	39,166720
2,694167	0,1	38,451164
2,695833	0,1	37,707292
2,697500	0,1	37,019382
2,699167	0,1	36,370351
2,700833	0,1	35,728894
2,702500	0,1	35,011002
2,704167	0,1	34,337571
2,705833	0,1	33,683928
2,707500	0,1	33,039875
2,709167	0,1	32,407955
2,710833	0,1	31,811206
2,712500	0,1	31,204616
2,714167	0,1	30,557730
2,715833	0,1	29,987781
2,717500	0,1	29,410154
2,719167	0,1	28,799500
2,720833	0,1	28,225373
2,722500	0,1	27,697885
2,724167	0,1	27,116754
2,725833	0,1	26,613126
2,727500	0,1	26,104842
2,729167	0,1	25,545607
2,730833	0,1	25,056832
2,732500	0,1	24,584918
2,734167	0,1	24,092816
2,735833	0,1	23,619050
2,737500	0,1	23,198747
2,739167	0,1	22,724524
2,740833	0,1	22,243914
2,742500	0,1	21,806588
2,744167	0,1	21,431220
2,745833	0,1	21,034244
2,747500	0,1	20,652534
2,749167	0,1	20,239104
2,750833	0,1	19,808097
2,752500	0,1	19,448008
2,754167	0,1	19,089504
2,755833	0,1	18,722379
2,757500	0,1	18,363703
2,759167	0,1	18,057967
2,760833	0,1	17,657607
2,762500	0,1	17,426173
2,764167	0,1	17,045031
2,765833	0,1	16,807267
2,767500	0,1	16,500090
2,769167	0,1	16,186603
2,770833	0,1	15,879324
2,772500	0,1	15,561964
2,774167	0,1	15,339826
2,775833	0,1	15,036718
2,777500	0,1	14,792213
2,779167	0,1	14,525076
2,780833	0,1	14,284746
2,782500	0,1	14,030832
2,784167	0,1	13,831437
2,785833	0,1	13,555429
2,787500	0,1	13,318494
2,789167	0,1	13,057927
2,790833	0,1	12,848527
2,792500	0,1	12,634617
2,794167	0,1	12,384938
2,795833	0,1	12,210885
2,797500	0,1	12,012253
2,799167	0,1	11,789232
2,800833	0,1	11,611734
2,802500	0,1	11,407659
2,804167	0,1	11,194449
2,805833	0,1	10,993838
2,807500	0,1	10,846621
2,809167	0,1	10,709180
2,810833	0,1	10,462063
2,812500	0,1	10,309130
2,814167	0,1	10,179324
2,815833	0,1	9,987611
2,817500	0,1	9,867993
2,819167	0,1	9,721418
2,820833	0,1	9,525094
2,822500	0,1	9,381041
2,824167	0,1	9,233247
2,825833	0,1	9,078957
2,827500	0,1	8,944888
2,829167	0,1	8,806159
2,830833	0,1	8,644145
2,832500	0,1	8,507975
2,834167	0,1	8,415267
2,835833	0,1	8,263708
2,837500	0,1	8,133747
2,839167	0,1	8,043747
2,840833	0,1	7,896724
2,842500	0,1	7,795139
2,844167	0,1	7,654093
2,845833	0,1	7,524797
2,847500	0,1	7,463027
2,849167	0,1	7,317215
2,850833	0,1	7,238588
2,852500	0,1	7,141534
2,854167	0,1	7,014399
2,855833	0,1	6,914910
2,857500	0,1	6,816953
2,859167	0,1	6,753642
2,860833	0,1	6,631386
2,862500	0,1	6,554323
2,864167	0,1	6,470499
2,865833	0,1	6,394811
2,867500	0,1	6,305394
2,869167	0,1	6,201169
2,870833	0,1	6,119177
2,872500	0,1	6,030735
2,874167	0,1	5,957274
2,875833	0,1	5,908382
2,877500	0,1	5,834121
2,879167	0,1	5,750666
2,880833	0,1	5,699798
2,882500	0,1	5,609999
2,884167	0,1	5,544511
2,885833	0,1	5,482092
2,887500	0,1	5,435210
2,889167	0,1	5,359651
2,890833	0,1	5,304796
2,892500	0,1	5,197736
2,894167	0,1	5,127242
2,895833	0,1	5,133391
2,897500	0,1	5,077918
2,899167	0,1	4,998812
2,900833	0,1	4,986082
2,902500	0,1	4,902845
2,904167	0,1	4,856357
2,905833	0,1	4,795350
2,907500	0,1	4,760701
2,909167	0,1	4,701766
2,910833	0,1	4,633478
2,912500	0,1	4,621944
2,914167	0,1	4,566748
2,915833	0,1	4,476483
2,917500	0,1	4,503498
2,919167	0,1	4,432842
2,920833	0,1	4,399725
2,922500	0,1	4,373891
2,924167	0,1	4,299319
2,925833	0,1	4,279699
2,927500	0,1	4,256632
2,929167	0,1	4,245589
2,930833	0,1	4,172703
2,932500	0,1	4,174485
2,934167	0,1	4,107376
2,935833	0,1	4,062524
2,937500	0,1	4,035352
2,939167	0,1	4,005375
2,940833	0,1	3,950280
2,942500	0,1	3,938284
2,944167	0,1	3,920300
2,945833	0,1	3,858508
2,947500	0,1	3,842178
2,949167	0,1	3,807810
2,950833	0,1	3,812417
2,952500	0,1	3,753886
2,954167	0,1	3,711520
2,955833	0,1	3,704150
2,957500	0,1	3,635028
2,959167	0,1	3,644239
2,960833	0,1	3,640778
2,962500	0,1	3,637390
2,964167	0,1	3,571239
2,965833	0,1	3,532770
2,967500	0,1	3,506145
2,969167	0,1	3,480174
2,970833	0,1	3,470432
2,972500	0,1	3,460764
2,974167	0,1	3,469778
2,975833	0,1	3,413817
2,977500	0,1	3,406667
2,979167	0,1	3,374935
2,980833	0,1	3,344504
2,982500	0,1	3,361367
2,984167	0,1	3,316957
2,985833	0,1	3,267206
2,987500	0,1	3,279379
2,989167	0,1	3,290913
2,990833	0,1	3,256163
2,992500	0,1	3,216797
2,994167	0,1	3,197834
2,995833	0,1	3,198265
2,997500	0,1	3,219971
2,999167	0,1	3,157825
3,000833	0,1	3,125892
3,002500	0,1	3,133675
3,004167	0,1	3,090069
3,005833	0,1	3,096783
3,007500	0,1	3,094817
3,009167	0,1	3,067367
3,010833	0,1	3,106351
3,012500	0,1	3,045191
3,014167	0,1	3,041784
3,015833	0,1	2,970662
3,017500	0,1	3,008907
3,019167	0,1	2,951643
3,020833	0,1	2,968844
3,022500	0,1	2,961987
3,024167	0,1	2,946585
3,025833	0,1	2,964684
3,027500	0,1	2,924264
3,029167	0,1	2,922540
3,030833	0,1	2,906264
3,032500	0,1	2,886814
3,034167	0,1	2,879944
3,035833	0,1	2,916925
3,037500	0,1	2,829904
3,039167	0,1	2,836724
3,040833	0,1	2,865685
3,042500	0,1	2,795833
3,044167	0,1	2,814528
3,045833	0,1	2,796814
3,047500	0,1	2,779255
3,049167	0,1	2,791287
3,050833	0,1	2,773271
3,052500	0,1	2,723451
3,054167	0,1	2,730651
3,055833	0,1	2,729852
3,057500	0,1	2,703547
3,059167	0,1	2,742461
3,060833	0,1	2,706803
3,062500	0,1	2,692433
3,064167	0,1	2,684199
3,065833	0,1	2,675346
3,067500	0,1	2,603538
3,069167	0,1	2,682110
3,070833	0,1	2,635232
3,072500	0,1	2,594697
3,074167	0,1	2,601525
3,075833	0,1	2,610542
3,077500	0,1	2,614262
3,079167	0,1	2,582078
3,080833	0,1	2,588991
3,082500	0,1	2,584817
3,084167	0,1	2,577161
3,085833	0,1	2,560012
3,087500	0,1	2,535446
3,089167	0,1	2,546963
3,090833	0,1	2,503195
3,092500	0,1	2,535673
3,094167	0,1	2,508903
3,095833	0,1	2,511402
3,097500	0,1	2,476499
3,099167	0,1	2,536942
3,100833	0,1	2,499392
3,102500	0,1	2,500661
3,104167	0,1	2,522156
3,105833	0,1	2,507160
3,107500	0,1	2,512955
3,109167	0,1	2,541964
3,110833	0,1	2,518331
3,112500	0,1	2,504501
3,114167	0,1	2,523656
3,115833	0,1	2,516248
3,117500	0,1	2,541078
3,119167	0,1	2,485996
3,120833	0,1	2,472451
3,122500	0,1	2,493036
3,124167	0,1	2,524420
3,125833	0,1	2,532728
3,127500	0,1	2,536803
3,129167	0,1	2,553389
3,130833	0,1	2,540028
3,132500	0,1	2,519626
3,134167	0,1	2,599817
3,135833	0,1	2,545240
3,137500	0,1	2,608297
3,139167	0,1	2,560531
3,140833	0,1	2,582542
3,142500	0,1	2,595760
3,144167	0,1	2,585107
3,145833	0,1	2,619539
3,147500	0,1	2,607819
3,149167	0,1	2,623485
3,150833	0,1	2,607445
3,152500	0,1	2,572939
3,154167	0,1	2,643405
3,155833	0,1	2,624225
3,157500	0,1	2,638983
3,159167	0,1	2,683316
3,160833	0,1	2,641200
3,162500	0,1	2,677691
3,164167	0,1	2,694631
3,165833	0,1	2,680175
3,167500	0,1	2,680871
3,169167	0,1	2,633151
3,170833	0,1	2,677843
3,172500	0,1	2,650132
3,174167	0,1	2,697962
3,175833	0,1	2,654244
3,177500	0,1	2,670073
3,179167	0,1	2,706665
3,180833	0,1	2,678080
3,182500	0,1	2,671732
3,184167	0,1	2,691403
3,185833	0,1	2,693711
3,187500	0,1	2,721999
3,189167	0,1	2,685060
3,190833	0,1	2,632930
3,192500	0,1	2,647102
3,194167	0,1	2,701970
3,195833	0,1	2,650631
3,197500	0,1	2,711277
3,199167	0,1	2,657198
3,200833	0,1	2,647855
3,202500	0,1	2,639399
3,204167	0,1	2,640519
3,205833	0,1	2,653003
3,207500	0,1	2,615859
3,209167	0,1	2,637174
3,210833	0,1	2,596641
3,212500	0,1	2,573959
3,214167	0,1	2,531033
3,215833	0,1	2,584974
3,217500	0,1	2,544964
3,219167	0,1	2,553851
3,220833	0,1	2,556479
3,222500	0,1	2,520122
3,224167	0,1	2,495367
3,225833	0,1	2,490556
3,227500	0,1	2,495139
3,229167	0,1	2,458448
3,230833	0,1	2,487495
3,232500	0,1	2,435290
3,234167	0,1	2,395268
3,235833	0,1	2,416941
3,237500	0,1	2,389881
3,239167	0,1	2,388471
3,240833	0,1	2,386233
3,242500	0,1	2,349332
3,244167	0,1	2,371224
3,245833	0,1	2,329617
3,247500	0,1	2,354899
3,249167	0,1	2,293628
3,250833	0,1	2,284530
3,252500	0,1	2,288098
3,254167	0,1	2,240289
3,255833	0,1	2,260947
3,257500	0,1	2,241982
3,259167	0,1	2,216888
3,260833	0,1	2,172830
3,262500	0,1	2,178644
3,264167	0,1	2,176149
3,265833	0,1	2,115427
3,267500	0,1	2,135881
3,269167	0,1	2,123499
3,270833	0,1	2,085453
3,272500	0,1	2,084956
3,274167	0,1	2,033170
3,275833	0,1	2,054284
3,277500	0,1	2,023909
3,279167	0,1	2,013261
3,280833	0,1	1,958472
3,282500	0,1	1,978866
3,284167	0,1	1,991125
3,285833	0,1	1,942427
3,287500	0,1	1,930061
3,289167	0,1	1,957775
3,290833	0,1	1,917710
3,292500	0,1	1,905511
3,294167	0,1	1,884323
3,295833	0,1	1,837144
3,297500	0,1	1,858342
3,299167	0,1	1,836461
3,300833	0,1	1,799435
3,302500	0,1	1,830333
3,304167	0,1	1,812041
3,305833	0,1	1,739365
3,307500	0,1	1,772612
3,309167	0,1	1,772685
3,310833	0,1	1,740648
3,312500	0,1	1,751599
3,314167	0,1	1,737379
3,315833	0,1	1,713005
3,317500	0,1	1,710768
3,319167	0,1	1,695417
3,320833	0,1	1,655237
3,322500	0,1	1,688706
3,324167	0,1	1,621881
3,325833	0,1	1,662819
3,327500	0,1	1,633353
3,329167	0,1	1,636285
3,330833	0,1	1,635087
3,332500	0,1	1,583382
3,334167	0,1	1,575386
3,335833	0,1	1,596009
3,337500	0,1	1,585839
3,339167	0,1	1,585373
3,340833	0,1	1,561334
3,342500	0,1	1,574925
3,344167	0,1	1,541006
3,345833	0,1	1,550719
3,347500	0,1	1,543179
3,349167	0,1	1,547626
3,350833	0,1	1,526949
3,352500	0,1	1,551372
3,354167	0,1	1,529432
3,355833	0,1	1,514248
3,357500	0,1	1,500651
3,359167	0,1	1,512176
3,360833	0,1	1,502550
3,362500	0,1	1,515763
3,364167	0,1	1,484902
3,365833	0,1	1,478244
3,367500	0,1	1,477799
3,369167	0,1	1,518430
3,370833	0,1	1,496090
3,372500	0,1	1,478829
3,374167	0,1	1,466563
3,375833	0,1	1,476491
3,377500	0,1	1,475964
3,379167	0,1	1,475824
3,380833	0,1	1,439351
3,382500	0,1	1,495172
3,384167	0,1	1,404911
3,385833	0,1	1,483850
3,387500	0,1	1,444458
3,389167	0,1	1,453519
3,390833	0,1	1,452519
3,392500	0,1	1,411150
3,394167	0,1	1,453689
3,395833	0,1	1,462793
3,397500	0,1	1,439845
3,399167	0,1	1,474103
3,400833	0,1	1,434765
3,402500	0,1	1,425878
3,404167	0,1	1,447470
3,405833	0,1	1,437863
3,407500	0,1	1,467642
3,409167	0,1	1,406174
3,410833	0,1	1,413871
3,412500	0,1	1,418931
3,414167	0,1	1,413953
3,415833	0,1	1,425873
3,417500	0,1	1,431690
3,419167	0,1	1,413129
3,420833	0,1	1,426834
3,422500	0,1	1,425567
3,424167	0,1	1,415019
3,425833	0,1	1,445822
3,427500	0,1	1,454889
3,429167	0,1	1,455040
3,430833	0,1	1,448950
3,432500	0,1	1,474398
3,434167	0,1	1,493951
3,435833	0,1	1,459865
3,437500	0,1	1,476073
3,439167	0,1	1,502224
3,440833	0,1	1,470471
3,442500	0,1	1,525028
3,444167	0,1	1,527919
3,445833	0,1	1,517415
3,447500	0,1	1,535367
3,449167	0,1	1,528465
3,450833	0,1	1,568210
3,452500	0,1	1,533388
3,454167	0,1	1,560357
3,455833	0,1	1,598429
3,457500	0,1	1,640639
3,459167	0,1	1,615060
3,460833	0,1	1,594628
3,462500	0,1	1,603216
3,464167	0,1	1,623637
3,465833	0,1	1,707257
3,467500	0,1	1,722177
3,469167	0,1	1,753988
3,470833	0,1	1,768090
3,472500	0,1	1,782124
3,474167	0,1	1,770748
3,475833	0,1	1,791789
3,477500	0,1	1,798358
3,479167	0,1	1,794739
3,480833	0,1	1,873918
3,482500	0,1	1,885674
3,484167	0,1	1,935019
3,485833	0,1	1,956410
3,487500	0,1	1,944614
3,489167	0,1	1,973202
3,490833	0,1	2,036275
3,492500	0,1	2,025106
3,494167	0,1	2,113912
3,495833	0,1	2,091182
3,497500	0,1	2,115657
3,499167	0,1	2,139514
3,500833	0,1	2,148603
3,502500	0,1	2,199148
3,504167	0,1	2,197551
3,505833	0,1	2,268793
3,507500	0,1	2,284970
3,509167	0,1	2,281404
3,510833	0,1	2,254460
3,512500	0,1	2,310860
3,514167	0,1	2,354650
3,515833	0,1	2,398303
3,517500	0,1	2,398739
3,519167	0,1	2,412539
3,520833	0,1	2,412407
3,522500	0,1	2,471892
3,524167	0,1	2,438543
3,525833	0,1	2,450442
3,527500	0,1	2,485250
3,529167	0,1	2,520124
3,530833	0,1	2,546483
3,532500	0,1	2,541529
3,534167	0,1	2,541867
3,535833	0,1	2,565185
3,537500	0,1	2,575929
3,539167	0,1	2,587012
3,540833	0,1	2,606364
3,542500	0,1	2,647569
3,544167	0,1	2,634640
3,545833	0,1	2,614591
3,547500	0,1	2,639254
3,549167	0,1	2,612459
3,550833	0,1	2,666207
3,552500	0,1	2,651830
3,554167	0,1	2,630654
3,555833	0,1	2,608591
3,557500	0,1	2,643668
3,559167	0,1	2,649644
3,560833	0,1	2,627720
3,562500	0,1	2,707194
3,564167	0,1	2,654346
3,565833	0,1	2,657284
3,567500	0,1	2,673344
3,569167	0,1	2,614003
3,570833	0,1	2,618473
3,572500	0,1	2,655126
3,574167	0,1	2,609293
3,575833	0,1	2,609385
3,577500	0,1	2,592254
3,579167	0,1	2,605664
3,580833	0,1	2,596378
3,582500	0,1	2,636366
3,584167	0,1	2,546408
3,585833	0,1	2,553152
3,587500	0,1	2,541019
3,589167	0,1	2,547800
3,590833	0,1	2,532494
3,592500	0,1	2,549725
3,594167	0,1	2,479522
3,595833	0,1	2,488030
3,597500	0,1	2,478936
3,599167	0,1	2,469559
3,600833	0,1	2,495036
3,602500	0,1	2,454516
3,604167	0,1	2,473235
3,605833	0,1	2,462164
3,607500	0,1	2,410166
3,609167	0,1	2,396172
3,610833	0,1	2,411688
3,612500	0,1	2,351995
3,614167	0,1	2,350705
3,615833	0,1	2,333473
3,617500	0,1	2,343915
3,619167	0,1	2,353516
3,620833	0,1	2,290391
3,622500	0,1	2,282475
3,624167	0,1	2,251918
3,625833	0,1	2,258917
3,627500	0,1	2,233029
3,629167	0,1	2,213317
3,630833	0,1	2,185732
3,632500	0,1	2,146291
3,634167	0,1	2,147560
3,635833	0,1	2,147868
3,637500	0,1	2,146940
3,639167	0,1	2,084877
3,640833	0,1	2,121215
3,642500	0,1	2,069145
3,644167	0,1	2,074666
3,645833	0,1	2,084266
3,647500	0,1	2,038955
3,649167	0,1	2,059618
3,650833	0,1	1,972872
3,652500	0,1	1,970452
3,654167	0,1	1,990280
3,655833	0,1	1,980836
3,657500	0,1	1,941544
3,659167	0,1	1,912300
3,660833	0,1	1,913076
3,662500	0,1	1,899233
3,664167	0,1	1,931723
3,665833	0,1	1,838578
3,667500	0,1	1,845572
3,669167	0,1	1,859865
3,670833	0,1	1,859544
3,672500	0,1	1,809462
3,674167	0,1	1,821316
3,675833	0,1	1,803602
3,677500	0,1	1,788111
3,679167	0,1	1,734834
3,680833	0,1	1,812083
3,682500	0,1	1,765777
3,684167	0,1	1,698044
3,685833	0,1	1,723921
3,687500	0,1	1,742707
3,689167	0,1	1,685989
3,690833	0,1	1,722008
3,692500	0,1	1,696391
3,694167	0,1	1,681679
3,695833	0,1	1,698092
3,697500	0,1	1,650423
3,699167	0,1	1,639777
3,700833	0,1	1,643851
3,702500	0,1	1,616090
3,704167	0,1	1,638257
3,705833	0,1	1,624972
3,707500	0,1	1,568707
3,709167	0,1	1,613551
3,710833	0,1	1,613851
3,712500	0,1	1,595019
3,714167	0,1	1,538073
3,715833	0,1	1,567012
3,717500	0,1	1,587989
3,719167	0,1	1,568351
3,720833	0,1	1,567891
3,722500	0,1	1,563014
3,724167	0,1	1,546211
3,725833	0,1	1,516547
3,727500	0,1	1,496470
3,729167	0,1	1,540416
3,730833	0,1	1,561814
3,732500	0,1	1,531194
3,734167	0,1	1,513158
3,735833	0,1	1,534858
3,737500	0,1	1,511411
3,739167	0,1	1,513371
3,740833	0,1	1,550988
3,742500	0,1	1,520298
3,744167	0,1	1,480940
3,745833	0,1	1,492014
3,747500	0,1	1,486785
3,749167	0,1	1,449147
3,750833	0,1	1,475777
3,752500	0,1	1,515313
3,754167	0,1	1,466598
3,755833	0,1	1,501766
3,757500	0,1	1,436962
3,759167	0,1	1,509488
3,760833	0,1	1,461175
3,762500	0,1	1,474109
3,764167	0,1	1,483133
3,765833	0,1	1,441520
3,767500	0,1	1,481061
3,769167	0,1	1,497563
3,770833	0,1	1,477514
3,772500	0,1	1,453312
3,774167	0,1	1,476071
3,775833	0,1	1,536089
3,777500	0,1	1,458520
3,779167	0,1	1,447303
3,780833	0,1	1,449721
3,782500	0,1	1,463137
3,784167	0,1	1,468980
3,785833	0,1	1,422095
3,787500	0,1	1,463572
3,789167	0,1	1,463355
3,790833	0,1	1,472477
3,792500	0,1	1,481827
3,794167	0,1	1,471010
3,795833	0,1	1,468626
3,797500	0,1	1,471982
3,799167	0,1	1,468753
3,800833	0,1	1,432661
3,802500	0,1	1,506383
3,804167	0,1	1,447656
3,805833	0,1	1,468836
3,807500	0,1	1,461622
3,809167	0,1	1,472311
3,810833	0,1	1,472859
3,812500	0,1	1,419994
3,814167	0,1	1,468324
3,815833	0,1	1,435993
3,817500	0,1	1,463096
3,819167	0,1	1,448369
3,820833	0,1	1,454496
3,822500	0,1	1,437534
3,824167	0,1	1,460055
3,825833	0,1	1,465316
3,827500	0,1	1,464545
3,829167	0,1	1,435409
3,830833	0,1	1,408537
3,832500	0,1	1,483307
3,834167	0,1	1,495119
3,835833	0,1	1,412868
3,837500	0,1	1,442313
3,839167	0,1	1,443093
3,840833	0,1	1,438296
3,842500	0,1	1,460929
3,844167	0,1	1,439362
3,845833	0,1	1,490775
3,847500	0,1	1,446145
3,849167	0,1	1,459601
3,850833	0,1	1,431405
3,852500	0,1	1,435921
3,854167	0,1	1,456279
3,855833	0,1	1,418878
3,857500	0,1	1,418349
3,859167	0,1	1,398222
3,860833	0,1	1,423638
3,862500	0,1	1,409867
3,864167	0,1	1,377172
3,865833	0,1	1,379353
3,867500	0,1	1,423926
3,869167	0,1	1,392409
3,870833	0,1	1,393149
3,872500	0,1	1,410528
3,874167	0,1	1,411036
3,875833	0,1	1,413141
3,877500	0,1	1,390532
3,879167	0,1	1,392527
3,880833	0,1	1,409260
3,882500	0,1	1,385465
3,884167	0,1	1,347956
3,885833	0,1	1,359573
3,887500	0,1	1,430924
3,889167	0,1	1,386573
3,890833	0,1	1,360623
3,892500	0,1	1,409773
3,894167	0,1	1,299811
3,895833	0,1	1,349936
3,897500	0,1	1,363844
3,899167	0,1	1,343406
3,900833	0,1	1,317942
3,902500	0,1	1,333374
3,904167	0,1	1,333608
3,905833	0,1	1,339754
3,907500	0,1	1,315045
3,909167	0,1	1,300602
3,910833	0,1	1,292993
3,912500	0,1	1,285263
3,914167	0,1	1,272304
3,915833	0,1	1,317322
3,917500	0,1	1,257353
3,919167	0,1	1,271986
3,920833	0,1	1,272884
3,922500	0,1	1,310926
3,924167	0,1	1,276413
3,925833	0,1	1,251847
3,927500	0,1	1,259528
3,929167	0,1	1,250217
3,930833	0,1	1,217593
3,932500	0,1	1,247144
3,934167	0,1	1,221988
3,935833	0,1	1,223440
3,937500	0,1	1,236168
3,939167	0,1	1,274190
3,940833	0,1	1,189002
3,942500	0,1	1,229492
3,944167	0,1	1,204318
3,945833	0,1	1,268495
3,947500	0,1	1,200603
3,949167	0,1	1,199755
3,950833	0,1	1,165571
3,952500	0,1	1,166988
3,954167	0,1	1,213492
3,955833	0,1	1,189278
3,957500	0,1	1,204086
3,959167	0,1	1,143160
3,960833	0,1	1,166249
3,962500	0,1	1,157444
3,964167	0,1	1,162502
3,965833	0,1	1,184543
3,967500	0,1	1,164658
3,969167	0,1	1,134894
3,970833	0,1	1,161372
3,972500	0,1	1,134893
3,974167	0,1	1,144969
3,975833	0,1	1,163632
3,977500	0,1	1,105107
3,979167	0,1	1,138691
3,980833	0,1	1,119225
3,982500	0,1	1,146087
3,984167	0,1	1,129787
3,985833	0,1	1,108849
3,987500	0,1	1,157581
3,989167	0,1	1,118601
3,990833	0,1	1,129965
3,992500	0,1	1,110554
3,994167	0,1	1,085944
3,995833	0,1	1,121149
3,997500	0,1	1,113994
3,999167	0,1	1,124658
4,000833	0,1	1,091187
4,002500	0,1	1,108300
4,004167	0,1	1,095687
4,005833	0,1	1,064253
4,007500	0,1	1,088453
4,009167	0,1	1,096205
4,010833	0,1	1,089168
4,012500	0,1	1,083002
4,014167	0,1	1,101136
4,015833	0,1	1,096099
4,017500	0,1	1,083266
4,019167	0,1	1,058550
4,020833	0,1	1,095259
4,022500	0,1	1,113988
4,024167	0,1	1,107291
4,025833	0,1	1,148712
4,027500	0,1	1,108669
4,029167	0,1	1,071865
4,030833	0,1	1,079602
4,032500	0,1	1,095510
4,034167	0,1	1,136583
4,035833	0,1	1,111956
4,037500	0,1	1,104849
4,039167	0,1	1,129545
4,040833	0,1	1,138113
4,042500	0,1	1,084260
4,044167	0,1	1,091471
4,045833	0,1	1,111422
4,047500	0,1	1,109091
4,049167	0,1	1,111072
4,050833	0,1	1,123153
4,052500	0,1	1,121556
4,054167	0,1	1,155895
4,055833	0,1	1,176041
4,057500	0,1	1,148763
4,059167	0,1	1,148049
4,060833	0,1	1,152479
4,062500	0,1	1,163588
4,064167	0,1	1,167208
4,065833	0,1	1,184375
4,067500	0,1	1,197603
4,069167	0,1	1,165350
4,070833	0,1	1,184120
4,072500	0,1	1,175190
4,074167	0,1	1,193850
4,075833	0,1	1,256161
4,077500	0,1	1,218451
4,079167	0,1	1,232230
4,080833	0,1	1,233525
4,082500	0,1	1,225442
4,084167	0,1	1,307831
4,085833	0,1	1,309726
4,087500	0,1	1,267683
4,089167	0,1	1,275863
4,090833	0,1	1,301988
4,092500	0,1	1,293202
4,094167	0,1	1,303033
4,095833	0,1	1,362999
4,097500	0,1	1,322010
4,099167	0,1	1,365940
4,100833	0,1	1,353158
4,102500	0,1	1,323236
4,104167	0,1	1,382986
4,105833	0,1	1,344182
4,107500	0,1	1,449797
4,109167	0,1	1,391644
4,110833	0,1	1,421156
4,112500	0,1	1,457175
4,114167	0,1	1,424629
4,115833	0,1	1,469554
4,117500	0,1	1,484881
4,119167	0,1	1,470378
4,120833	0,1	1,498512
4,122500	0,1	1,503422
4,124167	0,1	1,496796
4,125833	0,1	1,525189
4,127500	0,1	1,539423
4,129167	0,1	1,537488
4,130833	0,1	1,555224
4,132500	0,1	1,605153
4,134167	0,1	1,541762
4,135833	0,1	1,577871
4,137500	0,1	1,626322
4,139167	0,1	1,609147
4,140833	0,1	1,633566
4,142500	0,1	1,629213
4,144167	0,1	1,659461
4,145833	0,1	1,670323
4,147500	0,1	1,712471
4,149167	0,1	1,680711
4,150833	0,1	1,705366
4,152500	0,1	1,709023
4,154167	0,1	1,716555
4,155833	0,1	1,712968
4,157500	0,1	1,720113
4,159167	0,1	1,708154
4,160833	0,1	1,729645
4,162500	0,1	1,703499
4,164167	0,1	1,725183
4,165833	0,1	1,742418
4,167500	0,1	1,764369
4,169167	0,1	1,818654
4,170833	0,1	1,785593
4,172500	0,1	1,800167
4,174167	0,1	1,798261
4,175833	0,1	1,809092
4,177500	0,1	1,807672
4,179167	0,1	1,800268
4,180833	0,1	1,814750
4,182500	0,1	1,838678
4,184167	0,1	1,853524
4,185833	0,1	1,853917
4,187500	0,1	1,882046
4,189167	0,1	1,821752
4,190833	0,1	1,866131
4,192500	0,1	1,855955
4,194167	0,1	1,826791
4,195833	0,1	1,861281
4,197500	0,1	1,876647
4,199167	0,1	1,894599
4,200833	0,1	1,856770
4,202500	0,1	1,874576
4,204167	0,1	1,881855
4,205833	0,1	1,865954
4,207500	0,1	1,922916
4,209167	0,1	1,913975
4,210833	0,1	1,864792
4,212500	0,1	1,895983
4,214167	0,1	1,927261
4,215833	0,1	1,915692
4,217500	0,1	1,866960
4,219167	0,1	1,864751
4,220833	0,1	1,905851
4,222500	0,1	1,891307
4,224167	0,1	1,901260
4,225833	0,1	1,913263
4,227500	0,1	1,912455
4,229167	0,1	1,902913
4,230833	0,1	1,907991
4,232500	0,1	1,909867
4,234167	0,1	1,914394
4,235833	0,1	1,881991
4,237500	0,1	1,931458
4,239167	0,1	1,923709
4,240833	0,1	1,904149
4,242500	0,1	1,881831
4,244167	0,1	1,876297
4,245833	0,1	1,921756
4,247500	0,1	1,902179
4,249167	0,1	1,901101
4,250833	0,1	1,864500
4,252500	0,1	1,853920
4,254167	0,1	1,893816
4,255833	0,1	1,886322
4,257500	0,1	1,856996
4,259167	0,1	1,908590
4,260833	0,1	1,882705
4,262500	0,1	1,863559
4,264167	0,1	1,888548
4,265833	0,1	1,842803
4,267500	0,1	1,813209
4,269167	0,1	1,838128
4,270833	0,1	1,838941
4,272500	0,1	1,849417
4,274167	0,1	1,836615
4,275833	0,1	1,848607
4,277500	0,1	1,814567
4,279167	0,1	1,858366
4,280833	0,1	1,823492
4,282500	0,1	1,810392
4,284167	0,1	1,804116
4,285833	0,1	1,817046
4,287500	0,1	1,794451
4,289167	0,1	1,781126
4,290833	0,1	1,820338
4,292500	0,1	1,773180
4,294167	0,1	1,795185
4,295833	0,1	1,775696
4,297500	0,1	1,792276
4,299167	0,1	1,751356
4,300833	0,1	1,744071
4,302500	0,1	1,760331
4,304167	0,1	1,725519
4,305833	0,1	1,754508
4,307500	0,1	1,734085
4,309167	0,1	1,728584
4,310833	0,1	1,743097
4,312500	0,1	1,720831
4,314167	0,1	1,737312
4,315833	0,1	1,694712
4,317500	0,1	1,728285
4,319167	0,1	1,719275
4,320833	0,1	1,695551
4,322500	0,1	1,663837
4,324167	0,1	1,671878
4,325833	0,1	1,679931
4,327500	0,1	1,651781
4,329167	0,1	1,660921
4,330833	0,1	1,659497
4,332500	0,1	1,639076
4,334167	0,1	1,641622
4,335833	0,1	1,654812
4,337500	0,1	1,613707
4,339167	0,1	1,610755
4,340833	0,1	1,607595
4,342500	0,1	1,632246
4,344167	0,1	1,592821
4,345833	0,1	1,601931
4,347500	0,1	1,554593
4,349167	0,1	1,570282
4,350833	0,1	1,570677
4,352500	0,1	1,553713
4,354167	0,1	1,569027
4,355833	0,1	1,536948
4,357500	0,1	1,533455
4,359167	0,1	1,526173
4,360833	0,1	1,501717
4,362500	0,1	1,545141
4,364167	0,1	1,512237
4,365833	0,1	1,486600
4,367500	0,1	1,423826
4,369167	0,1	1,478142
4,370833	0,1	1,488366
4,372500	0,1	1,466236
4,374167	0,1	1,501412
4,375833	0,1	1,455296
4,377500	0,1	1,492084
4,379167	0,1	1,423141
4,380833	0,1	1,445230
4,382500	0,1	1,443613
4,384167	0,1	1,414164
4,385833	0,1	1,380110
4,387500	0,1	1,427818
4,389167	0,1	1,403699
4,390833	0,1	1,421969
4,392500	0,1	1,388219
4,394167	0,1	1,389147
4,395833	0,1	1,373914
4,397500	0,1	1,346575
4,399167	0,1	1,333193
4,400833	0,1	1,348190
4,402500	0,1	1,337339
4,404167	0,1	1,292150
4,405833	0,1	1,343369
4,407500	0,1	1,330902
4,409167	0,1	1,306980
4,410833	0,1	1,311828
4,412500	0,1	1,296830
4,414167	0,1	1,286536
4,415833	0,1	1,353971
4,417500	0,1	1,273635
4,419167	0,1	1,254367
4,420833	0,1	1,249967
4,422500	0,1	1,260192
4,424167	0,1	1,250863
4,425833	0,1	1,232635
4,427500	0,1	1,225342
4,429167	0,1	1,236796
4,430833	0,1	1,233111
4,432500	0,1	1,221823
4,434167	0,1	1,196196
4,435833	0,1	1,164510
4,437500	0,1	1,190459
4,439167	0,1	1,156804
4,440833	0,1	1,167879
4,442500	0,1	1,157410
4,444167	0,1	1,167083
4,445833	0,1	1,130532
4,447500	0,1	1,153775
4,449167	0,1	1,152029
4,450833	0,1	1,097987
4,452500	0,1	1,088045
4,454167	0,1	1,151846
4,455833	0,1	1,137579
4,457500	0,1	1,090821
4,459167	0,1	1,074088
4,460833	0,1	1,122774
4,462500	0,1	1,084116
4,464167	0,1	1,079435
4,465833	0,1	1,082415
4,467500	0,1	1,069168
4,469167	0,1	1,088331
4,470833	0,1	1,014645
4,472500	0,1	1,057058
4,474167	0,1	0,993123
4,475833	0,1	1,017497
4,477500	0,1	1,001197
4,479167	0,1	0,951685
4,480833	0,1	1,015353
4,482500	0,1	1,018026
4,484167	0,1	0,971159
4,485833	0,1	1,016676
4,487500	0,1	0,999601
4,489167	0,1	0,991329
4,490833	0,1	0,985798
4,492500	0,1	0,942331
4,494167	0,1	0,950075
4,495833	0,1	0,986544
4,497500	0,1	0,935183
4,499167	0,1	0,941222
4,500833	0,1	0,920415
4,502500	0,1	0,939734
4,504167	0,1	0,891247
4,505833	0,1	0,887131
4,507500	0,1	0,901596
4,509167	0,1	0,903242
4,510833	0,1	0,893213
4,512500	0,1	0,897494
4,514167	0,1	0,901305
4,515833	0,1	0,919092
4,517500	0,1	0,868760
4,519167	0,1	0,889493
4,520833	0,1	0,838500
4,522500	0,1	0,881532
4,524167	0,1	0,872389
4,525833	0,1	0,864121
4,527500	0,1	0,821943
4,529167	0,1	0,877306
4,530833	0,1	0,812391
4,532500	0,1	0,831083
4,534167	0,1	0,850856
4,535833	0,1	0,796782
4,537500	0,1	0,803935
4,539167	0,1	0,770040
4,540833	0,1	0,784112
4,542500	0,1	0,809848
4,544167	0,1	0,807206
4,545833	0,1	0,811084
4,547500	0,1	0,806863
4,549167	0,1	0,772380
4,550833	0,1	0,801693
4,552500	0,1	0,808502
4,554167	0,1	0,811850
4,555833	0,1	0,786228
4,557500	0,1	0,756895
4,559167	0,1	0,747447
4,560833	0,1	0,760171
4,562500	0,1	0,775708
4,564167	0,1	0,691580
4,565833	0,1	0,762326
4,567500	0,1	0,725699
4,569167	0,1	0,730901
4,570833	0,1	0,711794
4,572500	0,1	0,736763
4,574167	0,1	0,698725
4,575833	0,1	0,697598
4,577500	0,1	0,716129
4,579167	0,1	0,684472
4,580833	0,1	0,717941
4,582500	0,1	0,730015
4,584167	0,1	0,711434
4,585833	0,1	0,674212
4,587500	0,1	0,704160
4,589167	0,1	0,653757
4,590833	0,1	0,664346
4,592500	0,1	0,697529
4,594167	0,1	0,678138
4,595833	0,1	0,671326
4,597500	0,1	0,671150
4,599167	0,1	0,683582
4,600833	0,1	0,646946
4,602500	0,1	0,670376
4,604167	0,1	0,670035
4,605833	0,1	0,661954
4,607500	0,1	0,658538
4,609167	0,1	0,656017
4,610833	0,1	0,673953
4,612500	0,1	0,652211
4,614167	0,1	0,644528
4,615833	0,1	0,644532
4,617500	0,1	0,633564
4,619167	0,1	0,611703
4,620833	0,1	0,674647
4,622500	0,1	0,631111
4,624167	0,1	0,639836
4,625833	0,1	0,629168
4,627500	0,1	0,631745
4,629167	0,1	0,631335
4,630833	0,1	0,619262
4,632500	0,1	0,610761
4,634167	0,1	0,612515
4,635833	0,1	0,626410
4,637500	0,1	0,599680
4,639167	0,1	0,635309
4,640833	0,1	0,606307
4,642500	0,1	0,566096
4,644167	0,1	0,587536
4,645833	0,1	0,590935
4,647500	0,1	0,572414
4,649167	0,1	0,607989
4,650833	0,1	0,598092
4,652500	0,1	0,571655
4,654167	0,1	0,584247
4,655833	0,1	0,605175
4,657500	0,1	0,558997
4,659167	0,1	0,573757
4,660833	0,1	0,562805
4,662500	0,1	0,571646
4,664167	0,1	0,547739
4,665833	0,1	0,581667
4,667500	0,1	0,528634
4,669167	0,1	0,550599
4,670833	0,1	0,543223
4,672500	0,1	0,547200
4,674167	0,1	0,538181
4,675833	0,1	0,560621
4,677500	0,1	0,563677
4,679167	0,1	0,534781
4,680833	0,1	0,531669
4,682500	0,1	0,544271
4,684167	0,1	0,536714
4,685833	0,1	0,531438
4,687500	0,1	0,563317
4,689167	0,1	0,547684
4,690833	0,1	0,525811
4,692500	0,1	0,510278
4,694167	0,1	0,546784
4,695833	0,1	0,598010
4,697500	0,1	0,538480
4,699167	0,1	0,529150
4,700833	0,1	0,527158
4,702500	0,1	0,516667
4,704167	0,1	0,539109
4,705833	0,1	0,504009
4,707500	0,1	0,497145
4,709167	0,1	0,514843
4,710833	0,1	0,526152
4,712500	0,1	0,476758
4,714167	0,1	0,536167
4,715833	0,1	0,530380
4,717500	0,1	0,509517
4,719167	0,1	0,498730
4,720833	0,1	0,519588
4,722500	0,1	0,481796
4,724167	0,1	0,514662
4,725833	0,1	0,505819
4,727500	0,1	0,506403
4,729167	0,1	0,443000
4,730833	0,1	0,495665
4,732500	0,1	0,503298
4,734167	0,1	0,473120
4,735833	0,1	0,480025
4,737500	0,1	0,481433
4,739167	0,1	0,498487
4,740833	0,1	0,480266
4,742500	0,1	0,478855
4,744167	0,1	0,485303
4,745833	0,1	0,530366
4,747500	0,1	0,435272
4,749167	0,1	0,475155
4,750833	0,1	0,488699
4,752500	0,1	0,494563
4,754167	0,1	0,465675
4,755833	0,1	0,494148
4,757500	0,1	0,494564
4,759167	0,1	0,442765
4,760833	0,1	0,482831
4,762500	0,1	0,476454
4,764167	0,1	0,478445
4,765833	0,1	0,454478
4,767500	0,1	0,460568
4,769167	0,1	0,471642
4,770833	0,1	0,456761
4,772500	0,1	0,493148
4,774167	0,1	0,478331
4,775833	0,1	0,473698
4,777500	0,1	0,457465
4,779167	0,1	0,487992
4,780833	0,1	0,479678
4,782500	0,1	0,468132
4,784167	0,1	0,446098
4,785833	0,1	0,444040
4,787500	0,1	0,421483
4,789167	0,1	0,455168
4,790833	0,1	0,443575
4,792500	0,1	0,430388
4,794167	0,1	0,440521
4,795833	0,1	0,485409
4,797500	0,1	0,455476
4,799167	0,1	0,471992
4,800833	0,1	0,432915
4,802500	0,1	0,473101
4,804167	0,1	0,458168
4,805833	0,1	0,437013
4,807500	0,1	0,467007
4,809167	0,1	0,426292
4,810833	0,1	0,464076
4,812500	0,1	0,444691
4,814167	0,1	0,449491
4,815833	0,1	0,449433
4,817500	0,1	0,459393
4,819167	0,1	0,446270
4,820833	0,1	0,446443
4,822500	0,1	0,427869
4,824167	0,1	0,427278
4,825833	0,1	0,481127
4,827500	0,1	0,458229
4,829167	0,1	0,504048
4,830833	0,1	0,466379
4,832500	0,1	0,414633
4,834167	0,1	0,452647
4,835833	0,1	0,411642
4,837500	0,1	0,446904
4,839167	0,1	0,493381
4,840833	0,1	0,470245
4,842500	0,1	0,452896
4,844167	0,1	0,462791
4,845833	0,1	0,466604
4,847500	0,1	0,485766
4,849167	0,1	0,451375
4,850833	0,1	0,437069
4,852500	0,1	0,439821
4,854167	0,1	0,465603
4,855833	0,1	0,471761
4,857500	0,1	0,446684
4,859167	0,1	0,489393
4,860833	0,1	0,427880
4,862500	0,1	0,480776
4,864167	0,1	0,449265
4,865833	0,1	0,425761
4,867500	0,1	0,479310
4,869167	0,1	0,437780
4,870833	0,1	0,438708
4,872500	0,1	0,464079
4,874167	0,1	0,455765
4,875833	0,1	0,480371
4,877500	0,1	0,489227
4,879167	0,1	0,472647
4,880833	0,1	0,460690
4,882500	0,1	0,468126
4,884167	0,1	0,443870
4,885833	0,1	0,430682
4,887500	0,1	0,476321
4,889167	0,1	0,456353
4,890833	0,1	0,471935
4,892500	0,1	0,490220
4,894167	0,1	0,449619
4,895833	0,1	0,494259
4,897500	0,1	0,461396
4,899167	0,1	0,477738
4,900833	0,1	0,476685
4,902500	0,1	0,476570
4,904167	0,1	0,478210
4,905833	0,1	0,453249
4,907500	0,1	0,456171
4,909167	0,1	0,481781
4,910833	0,1	0,486473
4,912500	0,1	0,472058
4,914167	0,1	0,450142
4,915833	0,1	0,500002
4,917500	0,1	0,479622
4,919167	0,1	0,515185
4,920833	0,1	0,469663
4,922500	0,1	0,460689
4,924167	0,1	0,458634
4,925833	0,1	0,445041
4,927500	0,1	0,484704
4,929167	0,1	0,500773
4,930833	0,1	0,457883
4,932500	0,1	0,457814
4,934167	0,1	0,478205
4,935833	0,1	0,440122
4,937500	0,1	0,487575
4,939167	0,1	0,468485
4,940833	0,1	0,478031
4,942500	0,1	0,463443
4,944167	0,1	0,502407
4,945833	0,1	0,485247
4,947500	0,1	0,467607
4,949167	0,1	0,436721
4,950833	0,1	0,488337
4,952500	0,1	0,533473
4,954167	0,1	0,463339
4,955833	0,1	0,517465
4,957500	0,1	0,477457
4,959167	0,1	0,461510
4,960833	0,1	0,495139
4,962500	0,1	0,536290
4,964167	0,1	0,483204
4,965833	0,1	0,492625
4,967500	0,1	0,499544
4,969167	0,1	0,476458
4,970833	0,1	0,543085
4,972500	0,1	0,480159
4,974167	0,1	0,446041
4,975833	0,1	0,495665
4,977500	0,1	0,519760
4,979167	0,1	0,490938
4,980833	0,1	0,531127
4,982500	0,1	0,483909
4,984167	0,1	0,507100
4,985833	0,1	0,552053
4,987500	0,1	0,517726
4,989167	0,1	0,530842
4,990833	0,1	0,481210
4,992500	0,1	0,572554
4,994167	0,1	0,536248
4,995833	0,1	0,530202
4,997500	0,1	0,538404
4,999167	0,1	0,525282
5,000833	0,1	0,547547
5,002500	0,1	0,529092
5,004167	0,1	0,506058
5,005833	0,1	0,533596
5,007500	0,1	0,545088
5,009167	0,1	0,507174
5,010833	0,1	0,526387
5,012500	0,1	0,567649
5,014167	0,1	0,551660
5,015833	0,1	0,553237
5,017500	0,1	0,533842
5,019167	0,1	0,569238
5,020833	0,1	0,568126
5,022500	0,1	0,556937
5,024167	0,1	0,593388
5,025833	0,1	0,565792
5,027500	0,1	0,603469
5,029167	0,1	0,572713
5,030833	0,1	0,613436
5,032500	0,1	0,576816
5,034167	0,1	0,595038
5,035833	0,1	0,581204
5,037500	0,1	0,612092
5,039167	0,1	0,646740
5,040833	0,1	0,609359
5,042500	0,1	0,627580
5,044167	0,1	0,632439
5,045833	0,1	0,653021
5,047500	0,1	0,627055
5,049167	0,1	0,644700
5,050833	0,1	0,654318
5,052500	0,1	0,645530
5,054167	0,1	0,688551
5,055833	0,1	0,668630
5,057500	0,1	0,663407
5,059167	0,1	0,683922
5,060833	0,1	0,689551
5,062500	0,1	0,670099
5,064167	0,1	0,716694
5,065833	0,1	0,675138
5,067500	0,1	0,671851
5,069167	0,1	0,703091
5,070833	0,1	0,705618
5,072500	0,1	0,741375
5,074167	0,1	0,713957
5,075833	0,1	0,698007
5,077500	0,1	0,699878
5,079167	0,1	0,702346
5,080833	0,1	0,736754
5,082500	0,1	0,723284
5,084167	0,1	0,711441
5,085833	0,1	0,729482
5,087500	0,1	0,736821
5,089167	0,1	0,742333
5,090833	0,1	0,743505
5,092500	0,1	0,796044
5,094167	0,1	0,762111
5,095833	0,1	0,743983
5,097500	0,1	0,721106
5,099167	0,1	0,783903
5,100833	0,1	0,778809
5,102500	0,1	0,740409
5,104167	0,1	0,733259
5,105833	0,1	0,761751
5,107500	0,1	0,779217
5,109167	0,1	0,781628
5,110833	0,1	0,803510
5,112500	0,1	0,779355
5,114167	0,1	0,785619
5,115833	0,1	0,758299
5,117500	0,1	0,804380
5,119167	0,1	0,790554
5,120833	0,1	0,779291
5,122500	0,1	0,790538
5,124167	0,1	0,769255
5,125833	0,1	0,819694
5,127500	0,1	0,799940
5,129167	0,1	0,809260
5,130833	0,1	0,807901
5,132500	0,1	0,797013
5,134167	0,1	0,803152
5,135833	0,1	0,762053
5,137500	0,1	0,789244
5,139167	0,1	0,775775
5,140833	0,1	0,795484
5,142500	0,1	0,803857
5,144167	0,1	0,806610
5,145833	0,1	0,787570
5,147500	0,1	0,785260
5,149167	0,1	0,758074
5,150833	0,1	0,786011
5,152500	0,1	0,742000
5,154167	0,1	0,781800
5,155833	0,1	0,769958
5,157500	0,1	0,800849
5,159167	0,1	0,804666
5,160833	0,1	0,767153
5,162500	0,1	0,772415
5,164167	0,1	0,799266
5,165833	0,1	0,774247
5,167500	0,1	0,745747
5,169167	0,1	0,744855
5,170833	0,1	0,750945
5,172500	0,1	0,749027
5,174167	0,1	0,731852
5,175833	0,1	0,734122
5,177500	0,1	0,710559
5,179167	0,1	0,778156
5,180833	0,1	0,745397
5,182500	0,1	0,723580
5,184167	0,1	0,743140
5,185833	0,1	0,680363
5,187500	0,1	0,697952
5,189167	0,1	0,718469
5,190833	0,1	0,692084
5,192500	0,1	0,707915
5,194167	0,1	0,709669
5,195833	0,1	0,696656
5,197500	0,1	0,702405
5,199167	0,1	0,694421
5,200833	0,1	0,709439
5,202500	0,1	0,732653
5,204167	0,1	0,690101
5,205833	0,1	0,697643
5,207500	0,1	0,670101
5,209167	0,1	0,660534
5,210833	0,1	0,663930
5,212500	0,1	0,693242
5,214167	0,1	0,667222
5,215833	0,1	0,625421
5,217500	0,1	0,659289
5,219167	0,1	0,692591
5,220833	0,1	0,647172
5,222500	0,1	0,618853
5,224167	0,1	0,649202
5,225833	0,1	0,626359
5,227500	0,1	0,588484
5,229167	0,1	0,618075
5,230833	0,1	0,657703
5,232500	0,1	0,583274
5,234167	0,1	0,651425
5,235833	0,1	0,547110
5,237500	0,1	0,592679
5,239167	0,1	0,580092
5,240833	0,1	0,603998
5,242500	0,1	0,581972
5,244167	0,1	0,631198
5,245833	0,1	0,557365
5,247500	0,1	0,546855
5,249167	0,1	0,587343
5,250833	0,1	0,627981
5,252500	0,1	0,582445
5,254167	0,1	0,620584
5,255833	0,1	0,573298
5,257500	0,1	0,572116
5,259167	0,1	0,586067
5,260833	0,1	0,554243
5,262500	0,1	0,572346
5,264167	0,1	0,533084
5,265833	0,1	0,563315
5,267500	0,1	0,550838
5,269167	0,1	0,510926
5,270833	0,1	0,485193
5,272500	0,1	0,494971
5,274167	0,1	0,448448
5,275833	0,1	0,517053
5,277500	0,1	0,477986
5,279167	0,1	0,518231
5,280833	0,1	0,513618
5,282500	0,1	0,496562
5,284167	0,1	0,472354
5,285833	0,1	0,498424
5,287500	0,1	0,480967
5,289167	0,1	0,482429
5,290833	0,1	0,454597
5,292500	0,1	0,460860
5,294167	0,1	0,443165
5,295833	0,1	0,469763
5,297500	0,1	0,499303
5,299167	0,1	0,451379
5,300833	0,1	0,464783
5,302500	0,1	0,515826
5,304167	0,1	0,454136
5,305833	0,1	0,474337
5,307500	0,1	0,486353
5,309167	0,1	0,450437
5,310833	0,1	0,461736
5,312500	0,1	0,461800
5,314167	0,1	0,450725
5,315833	0,1	0,441347
5,317500	0,1	0,447438
5,319167	0,1	0,410528
5,320833	0,1	0,415732
5,322500	0,1	0,408234
5,324167	0,1	0,442099
5,325833	0,1	0,405721
5,327500	0,1	0,435653
5,329167	0,1	0,398221
5,330833	0,1	0,401668
5,332500	0,1	0,399092
5,334167	0,1	0,414498
5,335833	0,1	0,400325
5,337500	0,1	0,422176
5,339167	0,1	0,382694
5,340833	0,1	0,382331
5,342500	0,1	0,363702
5,344167	0,1	0,359481
5,345833	0,1	0,373657
5,347500	0,1	0,380398
5,349167	0,1	0,391002
5,350833	0,1	0,364993
5,352500	0,1	0,396857
5,354167	0,1	0,383038
5,355833	0,1	0,356377
5,357500	0,1	0,374475
5,359167	0,1	0,343782
5,360833	0,1	0,366740
5,362500	0,1	0,358721
5,364167	0,1	0,380334
5,365833	0,1	0,382214
5,367500	0,1	0,377001
5,369167	0,1	0,359659
5,370833	0,1	0,334525
5,372500	0,1	0,340725
5,374167	0,1	0,315131
5,375833	0,1	0,345352
5,377500	0,1	0,319642
5,379167	0,1	0,328067
5,380833	0,1	0,344237
5,382500	0,1	0,378281
5,384167	0,1	0,294111
5,385833	0,1	0,291391
5,387500	0,1	0,306623
5,389167	0,1	0,317231
5,390833	0,1	0,307689
5,392500	0,1	0,325490
5,394167	0,1	0,308040
5,395833	0,1	0,317468
5,397500	0,1	0,325086
5,399167	0,1	0,324385
5,400833	0,1	0,313368
5,402500	0,1	0,336741
5,404167	0,1	0,261183
5,405833	0,1	0,273756
5,407500	0,1	0,297898
5,409167	0,1	0,298428
5,410833	0,1	0,287647
5,412500	0,1	0,281616
5,414167	0,1	0,308267
5,415833	0,1	0,276993
5,417500	0,1	0,292328
5,419167	0,1	0,295495
5,420833	0,1	0,286539
5,422500	0,1	0,265160
5,424167	0,1	0,260640
5,425833	0,1	0,305268
5,427500	0,1	0,260476
5,429167	0,1	0,303748
5,430833	0,1	0,289936
5,432500	0,1	0,259594
5,434167	0,1	0,260405
5,435833	0,1	0,258822
5,437500	0,1	0,247586
5,439167	0,1	0,258998
5,440833	0,1	0,257885
5,442500	0,1	0,252442
5,444167	0,1	0,265212
5,445833	0,1	0,249044
5,447500	0,1	0,279262
5,449167	0,1	0,257835
5,450833	0,1	0,209454
5,452500	0,1	0,229527
5,454167	0,1	0,225026
5,455833	0,1	0,237031
5,457500	0,1	0,242658
5,459167	0,1	0,280843
5,460833	0,1	0,245249
5,462500	0,1	0,256654
5,464167	0,1	0,247109
5,465833	0,1	0,242545
5,467500	0,1	0,206989
5,469167	0,1	0,249151
5,470833	0,1	0,239146
5,472500	0,1	0,226490
5,474167	0,1	0,222445
5,475833	0,1	0,204407
5,477500	0,1	0,253365
5,479167	0,1	0,237326
5,480833	0,1	0,233989
5,482500	0,1	0,206289
5,484167	0,1	0,235674
5,485833	0,1	0,250273
5,487500	0,1	0,259356
5,489167	0,1	0,252734
5,490833	0,1	0,197857
5,492500	0,1	0,213366
5,494167	0,1	0,214010
5,495833	0,1	0,210495
5,497500	0,1	0,212782
5,499167	0,1	0,214250
5,500833	0,1	0,235566
5,502500	0,1	0,207458
5,504167	0,1	0,210262
5,505833	0,1	0,221797
5,507500	0,1	0,235857
5,509167	0,1	0,217063
5,510833	0,1	0,203301
5,512500	0,1	0,228478
5,514167	0,1	0,200893
5,515833	0,1	0,180860
5,517500	0,1	0,202177
5,519167	0,1	0,183490
5,520833	0,1	0,198485
5,522500	0,1	0,221564
5,524167	0,1	0,182153
5,525833	0,1	0,170078
5,527500	0,1	0,201645
5,529167	0,1	0,180580
5,530833	0,1	0,226072
5,532500	0,1	0,182622
5,534167	0,1	0,185192
5,535833	0,1	0,218868
5,537500	0,1	0,203060
5,539167	0,1	0,182091
5,540833	0,1	0,204523
5,542500	0,1	0,251785
5,544167	0,1	0,182524
5,545833	0,1	0,164518
5,547500	0,1	0,165220
5,549167	0,1	0,210961
5,550833	0,1	0,195344
5,552500	0,1	0,182975
5,554167	0,1	0,168388
5,555833	0,1	0,191343
5,557500	0,1	0,164755
5,559167	0,1	0,182147
5,560833	0,1	0,196081
5,562500	0,1	0,212785
5,564167	0,1	0,204059
5,565833	0,1	0,200196
5,567500	0,1	0,166931
5,569167	0,1	0,167555
5,570833	0,1	0,163174
5,572500	0,1	0,189754
5,574167	0,1	0,174244
5,575833	0,1	0,191804
5,577500	0,1	0,190009
5,579167	0,1	0,199660
5,580833	0,1	0,155447
5,582500	0,1	0,194095
5,584167	0,1	0,151816
5,585833	0,1	0,152228
5,587500	0,1	0,174714
5,589167	0,1	0,168968
5,590833	0,1	0,172659
5,592500	0,1	0,195323
5,594167	0,1	0,184436
5,595833	0,1	0,170907
5,597500	0,1	0,179105
5,599167	0,1	0,182380
5,600833	0,1	0,207219
5,602500	0,1	0,157029
5,604167	0,1	0,189046
5,605833	0,1	0,193740
5,607500	0,1	0,170552
5,609167	0,1	0,142201
5,610833	0,1	0,166441
5,612500	0,1	0,153799
5,614167	0,1	0,177750
5,615833	0,1	0,171729
5,617500	0,1	0,171843
5,619167	0,1	0,187824
5,620833	0,1	0,182739
5,622500	0,1	0,162948
5,624167	0,1	0,144252
5,625833	0,1	0,154208
5,627500	0,1	0,179089
5,629167	0,1	0,169445
5,630833	0,1	0,136762
5,632500	0,1	0,154559
5,634167	0,1	0,183782
5,635833	0,1	0,167227
5,637500	0,1	0,216057
5,639167	0,1	0,186017
5,640833	0,1	0,157447
5,642500	0,1	0,205863
5,644167	0,1	0,144385
5,645833	0,1	0,212888
5,647500	0,1	0,167746
5,649167	0,1	0,204168
5,650833	0,1	0,164586
5,652500	0,1	0,157671
5,654167	0,1	0,180385
5,655833	0,1	0,200950
5,657500	0,1	0,221276
5,659167	0,1	0,200898
5,660833	0,1	0,168502
5,662500	0,1	0,201299
5,664167	0,1	0,168043
5,665833	0,1	0,194800
5,667500	0,1	0,182614
5,669167	0,1	0,182972
5,670833	0,1	0,169319
5,672500	0,1	0,236319
5,674167	0,1	0,180991
5,675833	0,1	0,168445
5,677500	0,1	0,229815
5,679167	0,1	0,177417
5,680833	0,1	0,176358
5,682500	0,1	0,186767
5,684167	0,1	0,177349
5,685833	0,1	0,199891
5,687500	0,1	0,189471
5,689167	0,1	0,192171
5,690833	0,1	0,197261
5,692500	0,1	0,155280
5,694167	0,1	0,225428
5,695833	0,1	0,203239
5,697500	0,1	0,169509
5,699167	0,1	0,203225
5,700833	0,1	0,178763
5,702500	0,1	0,185785
5,704167	0,1	0,169844
5,705833	0,1	0,217875
5,707500	0,1	0,197094
5,709167	0,1	0,195214
5,710833	0,1	0,199603
5,712500	0,1	0,203348
5,714167	0,1	0,221914
5,715833	0,1	0,164705
5,717500	0,1	0,183026
5,719167	0,1	0,206100
5,720833	0,1	0,176295
5,722500	0,1	0,188648
5,724167	0,1	0,215815
5,725833	0,1	0,198198
5,727500	0,1	0,209853
5,729167	0,1	0,200194
5,730833	0,1	0,213247
5,732500	0,1	0,207342
5,734167	0,1	0,193222
5,735833	0,1	0,182441
5,737500	0,1	0,174996
5,739167	0,1	0,197137
5,740833	0,1	0,221096
5,742500	0,1	0,201013
5,744167	0,1	0,199897
5,745833	0,1	0,233692
5,747500	0,1	0,226441
5,749167	0,1	0,179056
5,750833	0,1	0,200830
5,752500	0,1	0,188590
5,754167	0,1	0,208566
5,755833	0,1	0,221152
5,757500	0,1	0,211089
5,759167	0,1	0,193108
5,760833	0,1	0,216351
5,762500	0,1	0,235455
5,764167	0,1	0,176601
5,765833	0,1	0,226706
5,767500	0,1	0,169567
5,769167	0,1	0,207558
5,770833	0,1	0,196972
5,772500	0,1	0,224553
5,774167	0,1	0,168922
5,775833	0,1	0,188647
5,777500	0,1	0,250550
5,779167	0,1	0,243719
5,780833	0,1	0,213556
5,782500	0,1	0,230407
5,784167	0,1	0,216947
5,785833	0,1	0,226375
5,787500	0,1	0,191352
5,789167	0,1	0,223610
5,790833	0,1	0,202773
5,792500	0,1	0,219280
5,794167	0,1	0,209973
5,795833	0,1	0,261921
5,797500	0,1	0,195110
5,799167	0,1	0,182384
5,800833	0,1	0,235501
5,802500	0,1	0,226784
5,804167	0,1	0,193986
5,805833	0,1	0,233161
5,807500	0,1	0,169741
5,809167	0,1	0,237728
5,810833	0,1	0,239787
5,812500	0,1	0,190884
5,814167	0,1	0,213710
5,815833	0,1	0,203646
5,817500	0,1	0,237673
5,819167	0,1	0,191003
5,820833	0,1	0,186954
5,822500	0,1	0,227012
5,824167	0,1	0,204361
5,825833	0,1	0,238612
5,827500	0,1	0,242659
5,829167	0,1	0,238794
5,830833	0,1	0,185086
5,832500	0,1	0,209379
5,834167	0,1	0,196501
5,835833	0,1	0,181096
5,837500	0,1	0,216169
5,839167	0,1	0,203121
5,840833	0,1	0,217296
5,842500	0,1	0,197968
5,844167	0,1	0,219516
5,845833	0,1	0,206343
5,847500	0,1	0,230411
5,849167	0,1	0,225555
5,850833	0,1	0,212206
5,852500	0,1	0,208867
5,854167	0,1	0,177584
5,855833	0,1	0,169497
5,857500	0,1	0,244690
5,859167	0,1	0,183569
5,860833	0,1	0,213301
5,862500	0,1	0,192994
5,864167	0,1	0,192867
5,865833	0,1	0,188123
5,867500	0,1	0,187839
5,869167	0,1	0,207457
5,870833	0,1	0,193349
5,872500	0,1	0,213670
5,874167	0,1	0,212318
5,875833	0,1	0,204880
5,877500	0,1	0,212608
5,879167	0,1	0,184965
5,880833	0,1	0,181915
5,882500	0,1	0,185307
5,884167	0,1	0,218391
5,885833	0,1	0,175948
5,887500	0,1	0,164172
5,889167	0,1	0,187829
5,890833	0,1	0,164819
5,892500	0,1	0,223790
5,894167	0,1	0,172384
5,895833	0,1	0,213946
5,897500	0,1	0,183866
5,899167	0,1	0,196798
5,900833	0,1	0,161720
5,902500	0,1	0,164748
5,904167	0,1	0,147652
5,905833	0,1	0,180675
5,907500	0,1	0,156793
5,909167	0,1	0,163401
5,910833	0,1	0,161540
5,912500	0,1	0,188587
5,914167	0,1	0,202765
5,915833	0,1	0,169508
5,917500	0,1	0,186546
5,919167	0,1	0,134547
5,920833	0,1	0,224013
5,922500	0,1	0,195508
5,924167	0,1	0,141811
5,925833	0,1	0,163762
5,927500	0,1	0,164284
5,929167	0,1	0,163825
5,930833	0,1	0,152448
5,932500	0,1	0,167392
5,934167	0,1	0,162365
5,935833	0,1	0,160776
5,937500	0,1	0,155336
5,939167	0,1	0,135656
5,940833	0,1	0,173944
5,942500	0,1	0,190171
5,944167	0,1	0,152467
5,945833	0,1	0,169324
5,947500	0,1	0,159776
5,949167	0,1	0,145910
5,950833	0,1	0,156034
5,952500	0,1	0,132722
5,954167	0,1	0,132659
5,955833	0,1	0,157955
5,957500	0,1	0,135127
5,959167	0,1	0,150042
5,960833	0,1	0,180683
5,962500	0,1	0,162775
5,964167	0,1	0,154972
5,965833	0,1	0,144550
5,967500	0,1	0,136412
5,969167	0,1	0,130842
5,970833	0,1	0,164576
5,972500	0,1	0,155796
5,974167	0,1	0,174830
5,975833	0,1	0,125176
5,977500	0,1	0,176168
5,979167	0,1	0,121606
5,980833	0,1	0,143491
5,982500	0,1	0,154623
5,984167	0,1	0,127103
5,985833	0,1	0,142147
5,987500	0,1	0,147890
5,989167	0,1	0,144548
5,990833	0,1	0,160133
5,992500	0,1	0,145075
5,994167	0,1	0,134829
5,995833	0,1	0,156840
5,997500	0,1	0,153932
5,999167	0,1	0,129736
6,000833	0,1	0,150807
