File Path	chrom://chromeleon01/ikbm_chromeleon/2022/Rezex/Esteban/220612_chitin_4_7.seq/923.smp/UV_VIS_1.channel/UV_VIS_1.chm
Channel	UV_VIS_1

Injection Information:
Data Vault	ikbm_chromeleon
Injection	7_24h-NT_NA
Injection Number	28
Position	RC8
Comment	
Processing Method	New ProcMethod
Instrument Method	Short_Rezex_6min_194nm
Type	Unknown
Status	Finished
Injection Date	12.06.2022
Injection Time	20:09:06
Injection Volume (µl)	8,000
Dilution Factor	1,0000
Weight	1,0000

Chromatogram Data Information:
Time Min. (min)	0,000833
Time Max. (min)	6,000833
Data Points	3601
Detector	UV
Generating Data System	Chromeleon 7.2.9.11323
Exporting Data System	Chromeleon 7.2.9.0
Operator	Instrument Controller
Signal Quantity	Absorbance
Signal Unit	mAU
Signal Min.	-0,116354
Signal Max.	68,227296
Channel	UV_VIS_1
Driver Name	VWD3000.dll
Channel Type	Evaluation
Min. Step (s)	0,1
Max. Step (s)	0,1
Average Step (s)	0,1

Signal Parameter Information:
Signal Info	WVL:194 nm

Chromatogram Data:
Time (min)	Step (s)	Value (mAU)
0,000833	n.a.	-0,014724
0,002500	0,1	-0,009366
0,004167	0,1	-0,026191
0,005833	0,1	-0,021376
0,007500	0,1	0,008604
0,009167	0,1	-0,005163
0,010833	0,1	-0,016778
0,012500	0,1	-0,004734
0,014167	0,1	-0,012998
0,015833	0,1	0,005366
0,017500	0,1	-0,008966
0,019167	0,1	0,001544
0,020833	0,1	-0,028808
0,022500	0,1	-0,021376
0,024167	0,1	-0,046887
0,025833	0,1	-0,028571
0,027500	0,1	-0,030204
0,029167	0,1	-0,041509
0,030833	0,1	-0,012114
0,032500	0,1	-0,078440
0,034167	0,1	-0,065700
0,035833	0,1	-0,072323
0,037500	0,1	-0,064745
0,039167	0,1	-0,044756
0,040833	0,1	-0,038101
0,042500	0,1	-0,074231
0,044167	0,1	-0,046752
0,045833	0,1	-0,070052
0,047500	0,1	-0,061190
0,049167	0,1	-0,059442
0,050833	0,1	-0,074236
0,052500	0,1	-0,045694
0,054167	0,1	-0,027469
0,055833	0,1	-0,049402
0,057500	0,1	-0,051130
0,059167	0,1	-0,020635
0,060833	0,1	-0,027877
0,062500	0,1	-0,058315
0,064167	0,1	-0,015298
0,065833	0,1	-0,030576
0,067500	0,1	-0,001141
0,069167	0,1	-0,020020
0,070833	0,1	-0,029498
0,072500	0,1	0,017994
0,074167	0,1	-0,056372
0,075833	0,1	-0,013321
0,077500	0,1	0,008814
0,079167	0,1	-0,077332
0,080833	0,1	-0,037967
0,082500	0,1	-0,047493
0,084167	0,1	-0,004471
0,085833	0,1	-0,005500
0,087500	0,1	-0,018358
0,089167	0,1	-0,026588
0,090833	0,1	0,018556
0,092500	0,1	-0,008546
0,094167	0,1	0,002832
0,095833	0,1	0,023134
0,097500	0,1	0,007139
0,099167	0,1	0,021992
0,100833	0,1	0,005873
0,102500	0,1	-0,006804
0,104167	0,1	-0,037678
0,105833	0,1	-0,011012
0,107500	0,1	-0,025986
0,109167	0,1	0,013195
0,110833	0,1	-0,037839
0,112500	0,1	-0,058025
0,114167	0,1	-0,024914
0,115833	0,1	-0,011674
0,117500	0,1	-0,010424
0,119167	0,1	-0,028456
0,120833	0,1	-0,059479
0,122500	0,1	-0,021050
0,124167	0,1	-0,020441
0,125833	0,1	-0,020894
0,127500	0,1	-0,031638
0,129167	0,1	-0,089726
0,130833	0,1	-0,068633
0,132500	0,1	-0,046213
0,134167	0,1	-0,047351
0,135833	0,1	0,010010
0,137500	0,1	-0,053629
0,139167	0,1	-0,029359
0,140833	0,1	-0,070134
0,142500	0,1	-0,029572
0,144167	0,1	-0,010658
0,145833	0,1	0,016917
0,147500	0,1	0,000034
0,149167	0,1	-0,007574
0,150833	0,1	-0,025776
0,152500	0,1	0,011928
0,154167	0,1	-0,005639
0,155833	0,1	-0,038449
0,157500	0,1	0,009514
0,159167	0,1	0,011750
0,160833	0,1	-0,034601
0,162500	0,1	0,003656
0,164167	0,1	-0,019791
0,165833	0,1	-0,007641
0,167500	0,1	-0,011337
0,169167	0,1	0,007215
0,170833	0,1	-0,020101
0,172500	0,1	0,023106
0,174167	0,1	0,015658
0,175833	0,1	-0,023111
0,177500	0,1	0,037795
0,179167	0,1	0,000848
0,180833	0,1	-0,012374
0,182500	0,1	0,022174
0,184167	0,1	-0,027098
0,185833	0,1	0,003036
0,187500	0,1	0,011873
0,189167	0,1	-0,004164
0,190833	0,1	-0,040505
0,192500	0,1	0,010907
0,194167	0,1	-0,020348
0,195833	0,1	0,004907
0,197500	0,1	-0,001070
0,199167	0,1	0,017648
0,200833	0,1	0,002922
0,202500	0,1	0,020578
0,204167	0,1	-0,011601
0,205833	0,1	0,036966
0,207500	0,1	-0,029275
0,209167	0,1	-0,004009
0,210833	0,1	0,023505
0,212500	0,1	0,032840
0,214167	0,1	0,031327
0,215833	0,1	0,023887
0,217500	0,1	-0,002770
0,219167	0,1	0,008007
0,220833	0,1	-0,023610
0,222500	0,1	0,004325
0,224167	0,1	-0,007408
0,225833	0,1	-0,014931
0,227500	0,1	0,007277
0,229167	0,1	0,011168
0,230833	0,1	0,027498
0,232500	0,1	0,008429
0,234167	0,1	-0,002815
0,235833	0,1	-0,003442
0,237500	0,1	0,001025
0,239167	0,1	-0,006204
0,240833	0,1	-0,001073
0,242500	0,1	-0,025922
0,244167	0,1	-0,002014
0,245833	0,1	0,000985
0,247500	0,1	0,005992
0,249167	0,1	-0,021971
0,250833	0,1	-0,007726
0,252500	0,1	0,002166
0,254167	0,1	-0,005747
0,255833	0,1	0,034911
0,257500	0,1	-0,013695
0,259167	0,1	-0,007434
0,260833	0,1	0,030070
0,262500	0,1	-0,014611
0,264167	0,1	-0,016492
0,265833	0,1	-0,006022
0,267500	0,1	0,010978
0,269167	0,1	-0,017337
0,270833	0,1	-0,030910
0,272500	0,1	-0,025032
0,274167	0,1	-0,021978
0,275833	0,1	-0,004816
0,277500	0,1	0,014799
0,279167	0,1	0,008363
0,280833	0,1	0,011063
0,282500	0,1	-0,006034
0,284167	0,1	0,018249
0,285833	0,1	0,008137
0,287500	0,1	0,019706
0,289167	0,1	0,009923
0,290833	0,1	0,030219
0,292500	0,1	-0,026724
0,294167	0,1	-0,000704
0,295833	0,1	-0,006849
0,297500	0,1	0,008878
0,299167	0,1	0,022531
0,300833	0,1	0,000574
0,302500	0,1	0,029387
0,304167	0,1	0,013354
0,305833	0,1	0,030656
0,307500	0,1	0,016283
0,309167	0,1	0,014555
0,310833	0,1	0,011627
0,312500	0,1	0,040360
0,314167	0,1	0,001639
0,315833	0,1	0,019185
0,317500	0,1	0,045659
0,319167	0,1	0,023060
0,320833	0,1	0,014766
0,322500	0,1	-0,020326
0,324167	0,1	-0,013957
0,325833	0,1	0,031273
0,327500	0,1	0,003112
0,329167	0,1	0,011518
0,330833	0,1	0,007678
0,332500	0,1	0,000738
0,334167	0,1	-0,001320
0,335833	0,1	0,000422
0,337500	0,1	0,009586
0,339167	0,1	0,046114
0,340833	0,1	-0,013630
0,342500	0,1	0,015171
0,344167	0,1	-0,006783
0,345833	0,1	0,035035
0,347500	0,1	0,011152
0,349167	0,1	0,027290
0,350833	0,1	0,012293
0,352500	0,1	-0,012474
0,354167	0,1	-0,006040
0,355833	0,1	0,003725
0,357500	0,1	0,043371
0,359167	0,1	0,017907
0,360833	0,1	0,045202
0,362500	0,1	0,041551
0,364167	0,1	-0,009561
0,365833	0,1	0,006926
0,367500	0,1	0,015157
0,369167	0,1	0,033525
0,370833	0,1	0,016990
0,372500	0,1	0,030844
0,374167	0,1	0,058899
0,375833	0,1	0,016187
0,377500	0,1	0,044952
0,379167	0,1	0,036545
0,380833	0,1	0,021729
0,382500	0,1	0,026047
0,384167	0,1	0,042982
0,385833	0,1	0,020256
0,387500	0,1	0,028873
0,389167	0,1	-0,000566
0,390833	0,1	0,021428
0,392500	0,1	0,027273
0,394167	0,1	0,062307
0,395833	0,1	0,021465
0,397500	0,1	0,015596
0,399167	0,1	0,051748
0,400833	0,1	0,034780
0,402500	0,1	-0,011119
0,404167	0,1	0,039460
0,405833	0,1	0,009906
0,407500	0,1	0,073522
0,409167	0,1	0,048603
0,410833	0,1	0,055476
0,412500	0,1	0,040038
0,414167	0,1	0,017554
0,415833	0,1	-0,006055
0,417500	0,1	0,010602
0,419167	0,1	0,044619
0,420833	0,1	0,017285
0,422500	0,1	0,032320
0,424167	0,1	0,043628
0,425833	0,1	0,053812
0,427500	0,1	0,043673
0,429167	0,1	0,069997
0,430833	0,1	0,065869
0,432500	0,1	0,042368
0,434167	0,1	0,067401
0,435833	0,1	0,009934
0,437500	0,1	0,037096
0,439167	0,1	0,036708
0,440833	0,1	0,063386
0,442500	0,1	0,020945
0,444167	0,1	0,020437
0,445833	0,1	0,024032
0,447500	0,1	0,047468
0,449167	0,1	0,066797
0,450833	0,1	0,022256
0,452500	0,1	0,067521
0,454167	0,1	0,043511
0,455833	0,1	0,064470
0,457500	0,1	0,065618
0,459167	0,1	0,043116
0,460833	0,1	0,010906
0,462500	0,1	0,069947
0,464167	0,1	0,061754
0,465833	0,1	0,070853
0,467500	0,1	0,081618
0,469167	0,1	0,070837
0,470833	0,1	0,047252
0,472500	0,1	0,040348
0,474167	0,1	0,069977
0,475833	0,1	0,050055
0,477500	0,1	0,064388
0,479167	0,1	0,051634
0,480833	0,1	0,074009
0,482500	0,1	0,052570
0,484167	0,1	0,088512
0,485833	0,1	0,061365
0,487500	0,1	0,034555
0,489167	0,1	0,068333
0,490833	0,1	0,075137
0,492500	0,1	0,075947
0,494167	0,1	0,075116
0,495833	0,1	0,014029
0,497500	0,1	0,078447
0,499167	0,1	0,037487
0,500833	0,1	0,051046
0,502500	0,1	0,035029
0,504167	0,1	0,103512
0,505833	0,1	0,061389
0,507500	0,1	0,043779
0,509167	0,1	0,019880
0,510833	0,1	0,036891
0,512500	0,1	0,061227
0,514167	0,1	0,023480
0,515833	0,1	0,064882
0,517500	0,1	0,085774
0,519167	0,1	0,058808
0,520833	0,1	0,069252
0,522500	0,1	0,042286
0,524167	0,1	0,055327
0,525833	0,1	0,064265
0,527500	0,1	0,039127
0,529167	0,1	0,103969
0,530833	0,1	0,056692
0,532500	0,1	-0,001225
0,534167	0,1	0,050475
0,535833	0,1	0,076210
0,537500	0,1	0,098929
0,539167	0,1	0,048961
0,540833	0,1	0,055453
0,542500	0,1	0,069751
0,544167	0,1	0,087520
0,545833	0,1	0,076430
0,547500	0,1	0,074808
0,549167	0,1	0,087086
0,550833	0,1	0,083430
0,552500	0,1	0,081934
0,554167	0,1	0,033521
0,555833	0,1	0,051814
0,557500	0,1	0,087891
0,559167	0,1	0,053987
0,560833	0,1	0,075548
0,562500	0,1	0,063002
0,564167	0,1	0,076007
0,565833	0,1	0,116799
0,567500	0,1	0,069745
0,569167	0,1	0,059448
0,570833	0,1	0,093416
0,572500	0,1	0,095340
0,574167	0,1	0,074249
0,575833	0,1	0,083844
0,577500	0,1	0,071503
0,579167	0,1	0,091344
0,580833	0,1	0,126867
0,582500	0,1	0,101643
0,584167	0,1	0,081855
0,585833	0,1	0,132199
0,587500	0,1	0,098963
0,589167	0,1	0,071924
0,590833	0,1	0,136581
0,592500	0,1	0,061584
0,594167	0,1	0,085648
0,595833	0,1	0,050726
0,597500	0,1	0,095079
0,599167	0,1	0,075537
0,600833	0,1	0,142923
0,602500	0,1	0,122802
0,604167	0,1	0,130402
0,605833	0,1	0,101146
0,607500	0,1	0,103238
0,609167	0,1	0,100433
0,610833	0,1	0,106811
0,612500	0,1	0,078406
0,614167	0,1	0,110696
0,615833	0,1	0,128403
0,617500	0,1	0,082613
0,619167	0,1	0,113580
0,620833	0,1	0,081360
0,622500	0,1	0,112149
0,624167	0,1	0,109705
0,625833	0,1	0,088902
0,627500	0,1	0,126285
0,629167	0,1	0,152143
0,630833	0,1	0,143215
0,632500	0,1	0,090135
0,634167	0,1	0,097978
0,635833	0,1	0,122171
0,637500	0,1	0,139446
0,639167	0,1	0,108715
0,640833	0,1	0,117350
0,642500	0,1	0,162676
0,644167	0,1	0,114347
0,645833	0,1	0,144284
0,647500	0,1	0,141548
0,649167	0,1	0,133297
0,650833	0,1	0,163843
0,652500	0,1	0,123743
0,654167	0,1	0,143538
0,655833	0,1	0,110168
0,657500	0,1	0,162763
0,659167	0,1	0,135298
0,660833	0,1	0,134836
0,662500	0,1	0,127648
0,664167	0,1	0,148945
0,665833	0,1	0,134754
0,667500	0,1	0,147029
0,669167	0,1	0,186067
0,670833	0,1	0,188401
0,672500	0,1	0,132438
0,674167	0,1	0,181490
0,675833	0,1	0,149351
0,677500	0,1	0,161687
0,679167	0,1	0,176432
0,680833	0,1	0,183623
0,682500	0,1	0,183854
0,684167	0,1	0,166684
0,685833	0,1	0,195839
0,687500	0,1	0,150894
0,689167	0,1	0,156352
0,690833	0,1	0,191224
0,692500	0,1	0,198446
0,694167	0,1	0,175896
0,695833	0,1	0,192328
0,697500	0,1	0,192647
0,699167	0,1	0,197639
0,700833	0,1	0,215821
0,702500	0,1	0,193071
0,704167	0,1	0,163756
0,705833	0,1	0,205819
0,707500	0,1	0,217781
0,709167	0,1	0,226552
0,710833	0,1	0,213275
0,712500	0,1	0,189331
0,714167	0,1	0,229478
0,715833	0,1	0,246076
0,717500	0,1	0,227938
0,719167	0,1	0,272155
0,720833	0,1	0,191756
0,722500	0,1	0,212143
0,724167	0,1	0,221977
0,725833	0,1	0,200324
0,727500	0,1	0,254094
0,729167	0,1	0,254586
0,730833	0,1	0,225753
0,732500	0,1	0,241829
0,734167	0,1	0,236350
0,735833	0,1	0,218116
0,737500	0,1	0,243587
0,739167	0,1	0,273374
0,740833	0,1	0,240730
0,742500	0,1	0,249530
0,744167	0,1	0,246891
0,745833	0,1	0,290712
0,747500	0,1	0,242932
0,749167	0,1	0,235416
0,750833	0,1	0,265411
0,752500	0,1	0,276701
0,754167	0,1	0,297681
0,755833	0,1	0,294972
0,757500	0,1	0,292365
0,759167	0,1	0,313887
0,760833	0,1	0,319476
0,762500	0,1	0,281796
0,764167	0,1	0,325813
0,765833	0,1	0,338042
0,767500	0,1	0,315251
0,769167	0,1	0,306676
0,770833	0,1	0,334389
0,772500	0,1	0,309423
0,774167	0,1	0,326400
0,775833	0,1	0,327948
0,777500	0,1	0,326824
0,779167	0,1	0,319017
0,780833	0,1	0,354990
0,782500	0,1	0,298116
0,784167	0,1	0,339516
0,785833	0,1	0,329404
0,787500	0,1	0,307769
0,789167	0,1	0,316469
0,790833	0,1	0,326211
0,792500	0,1	0,354283
0,794167	0,1	0,254156
0,795833	0,1	0,319297
0,797500	0,1	0,338323
0,799167	0,1	0,307881
0,800833	0,1	0,320119
0,802500	0,1	0,315284
0,804167	0,1	0,283449
0,805833	0,1	0,319787
0,807500	0,1	0,335455
0,809167	0,1	0,332888
0,810833	0,1	0,322639
0,812500	0,1	0,281226
0,814167	0,1	0,333164
0,815833	0,1	0,336493
0,817500	0,1	0,322277
0,819167	0,1	0,326695
0,820833	0,1	0,340167
0,822500	0,1	0,287830
0,824167	0,1	0,306898
0,825833	0,1	0,320692
0,827500	0,1	0,323082
0,829167	0,1	0,332368
0,830833	0,1	0,322957
0,832500	0,1	0,323472
0,834167	0,1	0,343970
0,835833	0,1	0,343039
0,837500	0,1	0,338399
0,839167	0,1	0,327441
0,840833	0,1	0,313607
0,842500	0,1	0,328300
0,844167	0,1	0,342128
0,845833	0,1	0,313191
0,847500	0,1	0,336841
0,849167	0,1	0,379233
0,850833	0,1	0,320518
0,852500	0,1	0,338105
0,854167	0,1	0,356835
0,855833	0,1	0,316799
0,857500	0,1	0,316861
0,859167	0,1	0,305260
0,860833	0,1	0,303188
0,862500	0,1	0,354922
0,864167	0,1	0,293732
0,865833	0,1	0,329393
0,867500	0,1	0,303812
0,869167	0,1	0,330592
0,870833	0,1	0,344261
0,872500	0,1	0,341870
0,874167	0,1	0,339654
0,875833	0,1	0,399344
0,877500	0,1	0,349527
0,879167	0,1	0,366211
0,880833	0,1	0,340233
0,882500	0,1	0,355767
0,884167	0,1	0,323608
0,885833	0,1	0,360665
0,887500	0,1	0,324898
0,889167	0,1	0,358440
0,890833	0,1	0,349807
0,892500	0,1	0,361988
0,894167	0,1	0,346712
0,895833	0,1	0,371686
0,897500	0,1	0,360223
0,899167	0,1	0,330627
0,900833	0,1	0,345933
0,902500	0,1	0,384259
0,904167	0,1	0,351649
0,905833	0,1	0,320185
0,907500	0,1	0,372747
0,909167	0,1	0,376919
0,910833	0,1	0,353359
0,912500	0,1	0,394126
0,914167	0,1	0,340566
0,915833	0,1	0,371846
0,917500	0,1	0,367313
0,919167	0,1	0,396609
0,920833	0,1	0,384143
0,922500	0,1	0,338664
0,924167	0,1	0,391928
0,925833	0,1	0,351359
0,927500	0,1	0,391576
0,929167	0,1	0,388654
0,930833	0,1	0,428817
0,932500	0,1	0,376671
0,934167	0,1	0,364481
0,935833	0,1	0,424263
0,937500	0,1	0,365803
0,939167	0,1	0,397672
0,940833	0,1	0,371860
0,942500	0,1	0,390936
0,944167	0,1	0,391841
0,945833	0,1	0,436259
0,947500	0,1	0,395203
0,949167	0,1	0,394068
0,950833	0,1	0,414632
0,952500	0,1	0,392555
0,954167	0,1	0,404701
0,955833	0,1	0,384365
0,957500	0,1	0,439029
0,959167	0,1	0,422703
0,960833	0,1	0,406676
0,962500	0,1	0,426076
0,964167	0,1	0,430949
0,965833	0,1	0,428920
0,967500	0,1	0,415541
0,969167	0,1	0,447776
0,970833	0,1	0,472347
0,972500	0,1	0,450783
0,974167	0,1	0,491914
0,975833	0,1	0,449758
0,977500	0,1	0,442819
0,979167	0,1	0,457547
0,980833	0,1	0,473639
0,982500	0,1	0,489405
0,984167	0,1	0,474450
0,985833	0,1	0,515101
0,987500	0,1	0,494865
0,989167	0,1	0,492216
0,990833	0,1	0,549698
0,992500	0,1	0,511217
0,994167	0,1	0,545061
0,995833	0,1	0,541556
0,997500	0,1	0,534721
0,999167	0,1	0,537587
1,000833	0,1	0,554646
1,002500	0,1	0,554164
1,004167	0,1	0,602792
1,005833	0,1	0,566979
1,007500	0,1	0,559650
1,009167	0,1	0,603664
1,010833	0,1	0,627923
1,012500	0,1	0,608289
1,014167	0,1	0,616479
1,015833	0,1	0,650405
1,017500	0,1	0,609844
1,019167	0,1	0,669335
1,020833	0,1	0,654384
1,022500	0,1	0,687116
1,024167	0,1	0,683676
1,025833	0,1	0,699606
1,027500	0,1	0,707996
1,029167	0,1	0,718477
1,030833	0,1	0,705616
1,032500	0,1	0,727180
1,034167	0,1	0,735939
1,035833	0,1	0,680208
1,037500	0,1	0,721060
1,039167	0,1	0,735974
1,040833	0,1	0,721757
1,042500	0,1	0,764893
1,044167	0,1	0,820008
1,045833	0,1	0,802375
1,047500	0,1	0,800633
1,049167	0,1	0,764278
1,050833	0,1	0,824813
1,052500	0,1	0,834614
1,054167	0,1	0,891852
1,055833	0,1	0,921934
1,057500	0,1	0,952342
1,059167	0,1	0,971534
1,060833	0,1	1,059976
1,062500	0,1	1,140200
1,064167	0,1	1,220145
1,065833	0,1	1,352452
1,067500	0,1	1,575886
1,069167	0,1	1,792240
1,070833	0,1	2,025095
1,072500	0,1	2,325418
1,074167	0,1	2,729951
1,075833	0,1	3,156878
1,077500	0,1	3,691475
1,079167	0,1	4,295894
1,080833	0,1	4,916364
1,082500	0,1	5,636194
1,084167	0,1	6,453035
1,085833	0,1	7,319858
1,087500	0,1	8,217122
1,089167	0,1	9,203744
1,090833	0,1	10,203646
1,092500	0,1	11,170605
1,094167	0,1	12,198708
1,095833	0,1	13,162343
1,097500	0,1	14,113604
1,099167	0,1	14,993421
1,100833	0,1	15,854762
1,102500	0,1	16,598682
1,104167	0,1	17,258479
1,105833	0,1	17,818565
1,107500	0,1	18,303920
1,109167	0,1	18,625701
1,110833	0,1	18,891020
1,112500	0,1	19,012637
1,114167	0,1	19,012315
1,115833	0,1	18,909343
1,117500	0,1	18,782766
1,119167	0,1	18,502657
1,120833	0,1	18,127141
1,122500	0,1	17,721464
1,124167	0,1	17,178867
1,125833	0,1	16,650665
1,127500	0,1	16,046511
1,129167	0,1	15,381127
1,130833	0,1	14,729253
1,132500	0,1	14,042260
1,134167	0,1	13,357087
1,135833	0,1	12,692379
1,137500	0,1	12,009674
1,139167	0,1	11,313260
1,140833	0,1	10,652188
1,142500	0,1	9,958158
1,144167	0,1	9,350853
1,145833	0,1	8,737955
1,147500	0,1	8,188684
1,149167	0,1	7,739105
1,150833	0,1	7,185353
1,152500	0,1	6,745057
1,154167	0,1	6,323989
1,155833	0,1	5,952124
1,157500	0,1	5,599382
1,159167	0,1	5,238012
1,160833	0,1	4,954319
1,162500	0,1	4,706030
1,164167	0,1	4,477198
1,165833	0,1	4,274376
1,167500	0,1	4,108548
1,169167	0,1	3,925032
1,170833	0,1	3,787312
1,172500	0,1	3,658323
1,174167	0,1	3,583991
1,175833	0,1	3,474452
1,177500	0,1	3,430931
1,179167	0,1	3,368607
1,180833	0,1	3,305692
1,182500	0,1	3,246726
1,184167	0,1	3,203239
1,185833	0,1	3,183591
1,187500	0,1	3,134740
1,189167	0,1	3,153465
1,190833	0,1	3,103387
1,192500	0,1	3,076857
1,194167	0,1	3,068267
1,195833	0,1	3,057963
1,197500	0,1	3,075302
1,199167	0,1	3,082729
1,200833	0,1	3,103867
1,202500	0,1	3,091740
1,204167	0,1	3,056671
1,205833	0,1	3,058397
1,207500	0,1	3,052636
1,209167	0,1	3,059845
1,210833	0,1	3,086557
1,212500	0,1	3,095435
1,214167	0,1	3,075270
1,215833	0,1	3,145895
1,217500	0,1	3,119010
1,219167	0,1	3,126427
1,220833	0,1	3,158177
1,222500	0,1	3,159902
1,224167	0,1	3,176101
1,225833	0,1	3,187936
1,227500	0,1	3,199408
1,229167	0,1	3,140086
1,230833	0,1	3,219587
1,232500	0,1	3,225676
1,234167	0,1	3,234969
1,235833	0,1	3,244858
1,237500	0,1	3,212034
1,239167	0,1	3,299165
1,240833	0,1	3,299109
1,242500	0,1	3,290355
1,244167	0,1	3,299415
1,245833	0,1	3,288044
1,247500	0,1	3,267394
1,249167	0,1	3,299586
1,250833	0,1	3,331394
1,252500	0,1	3,291088
1,254167	0,1	3,301726
1,255833	0,1	3,342306
1,257500	0,1	3,348827
1,259167	0,1	3,289925
1,260833	0,1	3,342016
1,262500	0,1	3,297426
1,264167	0,1	3,299416
1,265833	0,1	3,274857
1,267500	0,1	3,301281
1,269167	0,1	3,297932
1,270833	0,1	3,271478
1,272500	0,1	3,273376
1,274167	0,1	3,273496
1,275833	0,1	3,284619
1,277500	0,1	3,269893
1,279167	0,1	3,240973
1,280833	0,1	3,278583
1,282500	0,1	3,225019
1,284167	0,1	3,199188
1,285833	0,1	3,200326
1,287500	0,1	3,154341
1,289167	0,1	3,212643
1,290833	0,1	3,171229
1,292500	0,1	3,170133
1,294167	0,1	3,143055
1,295833	0,1	3,157075
1,297500	0,1	3,120386
1,299167	0,1	3,115933
1,300833	0,1	3,112477
1,302500	0,1	3,109120
1,304167	0,1	3,081187
1,305833	0,1	3,070441
1,307500	0,1	3,024843
1,309167	0,1	3,030821
1,310833	0,1	2,996205
1,312500	0,1	3,024656
1,314167	0,1	2,980715
1,315833	0,1	2,979469
1,317500	0,1	3,000686
1,319167	0,1	2,939057
1,320833	0,1	2,962599
1,322500	0,1	2,947478
1,324167	0,1	2,956538
1,325833	0,1	2,896253
1,327500	0,1	2,873759
1,329167	0,1	2,894739
1,330833	0,1	2,851169
1,332500	0,1	2,890017
1,334167	0,1	2,898229
1,335833	0,1	2,859782
1,337500	0,1	2,840912
1,339167	0,1	2,875751
1,340833	0,1	2,835067
1,342500	0,1	2,841589
1,344167	0,1	2,789558
1,345833	0,1	2,853111
1,347500	0,1	2,803512
1,349167	0,1	2,800768
1,350833	0,1	2,778868
1,352500	0,1	2,788246
1,354167	0,1	2,751653
1,355833	0,1	2,834453
1,357500	0,1	2,798831
1,359167	0,1	2,762686
1,360833	0,1	2,789739
1,362500	0,1	2,731285
1,364167	0,1	2,759938
1,365833	0,1	2,759287
1,367500	0,1	2,722608
1,369167	0,1	2,771794
1,370833	0,1	2,729687
1,372500	0,1	2,771857
1,374167	0,1	2,730102
1,375833	0,1	2,745095
1,377500	0,1	2,734440
1,379167	0,1	2,718428
1,380833	0,1	2,737079
1,382500	0,1	2,731899
1,384167	0,1	2,748962
1,385833	0,1	2,694887
1,387500	0,1	2,727947
1,389167	0,1	2,700735
1,390833	0,1	2,724687
1,392500	0,1	2,732469
1,394167	0,1	2,702671
1,395833	0,1	2,725463
1,397500	0,1	2,726946
1,399167	0,1	2,713889
1,400833	0,1	2,692158
1,402500	0,1	2,707495
1,404167	0,1	2,730075
1,405833	0,1	2,670417
1,407500	0,1	2,673291
1,409167	0,1	2,675088
1,410833	0,1	2,695166
1,412500	0,1	2,626130
1,414167	0,1	2,645841
1,415833	0,1	2,643318
1,417500	0,1	2,647345
1,419167	0,1	2,648576
1,420833	0,1	2,630704
1,422500	0,1	2,610852
1,424167	0,1	2,620779
1,425833	0,1	2,625078
1,427500	0,1	2,610908
1,429167	0,1	2,638404
1,430833	0,1	2,561826
1,432500	0,1	2,607653
1,434167	0,1	2,574054
1,435833	0,1	2,573834
1,437500	0,1	2,569136
1,439167	0,1	2,588940
1,440833	0,1	2,558707
1,442500	0,1	2,562734
1,444167	0,1	2,555102
1,445833	0,1	2,485499
1,447500	0,1	2,520108
1,449167	0,1	2,492763
1,450833	0,1	2,489517
1,452500	0,1	2,474974
1,454167	0,1	2,492112
1,455833	0,1	2,485931
1,457500	0,1	2,468210
1,459167	0,1	2,471448
1,460833	0,1	2,460946
1,462500	0,1	2,490361
1,464167	0,1	2,435549
1,465833	0,1	2,425966
1,467500	0,1	2,422722
1,469167	0,1	2,419337
1,470833	0,1	2,438912
1,472500	0,1	2,462373
1,474167	0,1	2,408912
1,475833	0,1	2,416743
1,477500	0,1	2,434013
1,479167	0,1	2,405165
1,480833	0,1	2,406453
1,482500	0,1	2,378825
1,484167	0,1	2,377308
1,485833	0,1	2,393211
1,487500	0,1	2,415292
1,489167	0,1	2,392494
1,490833	0,1	2,371272
1,492500	0,1	2,355499
1,494167	0,1	2,408597
1,495833	0,1	2,375518
1,497500	0,1	2,394287
1,499167	0,1	2,393137
1,500833	0,1	2,390187
1,502500	0,1	2,352768
1,504167	0,1	2,362902
1,505833	0,1	2,383634
1,507500	0,1	2,370758
1,509167	0,1	2,414785
1,510833	0,1	2,354935
1,512500	0,1	2,367726
1,514167	0,1	2,365435
1,515833	0,1	2,383413
1,517500	0,1	2,416090
1,519167	0,1	2,350764
1,520833	0,1	2,375574
1,522500	0,1	2,381627
1,524167	0,1	2,392054
1,525833	0,1	2,401774
1,527500	0,1	2,362707
1,529167	0,1	2,408596
1,530833	0,1	2,395801
1,532500	0,1	2,375221
1,534167	0,1	2,390688
1,535833	0,1	2,391768
1,537500	0,1	2,393201
1,539167	0,1	2,362992
1,540833	0,1	2,383704
1,542500	0,1	2,353994
1,544167	0,1	2,397661
1,545833	0,1	2,371557
1,547500	0,1	2,376364
1,549167	0,1	2,379962
1,550833	0,1	2,349317
1,552500	0,1	2,377438
1,554167	0,1	2,390251
1,555833	0,1	2,366808
1,557500	0,1	2,369243
1,559167	0,1	2,377950
1,560833	0,1	2,369391
1,562500	0,1	2,365933
1,564167	0,1	2,386231
1,565833	0,1	2,381697
1,567500	0,1	2,327451
1,569167	0,1	2,407794
1,570833	0,1	2,421626
1,572500	0,1	2,342204
1,574167	0,1	2,364563
1,575833	0,1	2,328881
1,577500	0,1	2,395061
1,579167	0,1	2,394287
1,580833	0,1	2,376370
1,582500	0,1	2,386438
1,584167	0,1	2,327452
1,585833	0,1	2,375997
1,587500	0,1	2,365066
1,589167	0,1	2,367081
1,590833	0,1	2,393778
1,592500	0,1	2,371475
1,594167	0,1	2,414722
1,595833	0,1	2,360404
1,597500	0,1	2,401256
1,599167	0,1	2,416815
1,600833	0,1	2,400628
1,602500	0,1	2,378395
1,604167	0,1	2,412558
1,605833	0,1	2,373355
1,607500	0,1	2,378162
1,609167	0,1	2,365505
1,610833	0,1	2,425936
1,612500	0,1	2,399909
1,614167	0,1	2,399611
1,615833	0,1	2,381479
1,617500	0,1	2,421772
1,619167	0,1	2,413512
1,620833	0,1	2,438466
1,622500	0,1	2,404668
1,624167	0,1	2,417317
1,625833	0,1	2,437543
1,627500	0,1	2,447190
1,629167	0,1	2,457267
1,630833	0,1	2,482171
1,632500	0,1	2,470951
1,634167	0,1	2,420635
1,635833	0,1	2,475758
1,637500	0,1	2,476412
1,639167	0,1	2,465251
1,640833	0,1	2,454896
1,642500	0,1	2,456266
1,644167	0,1	2,472167
1,645833	0,1	2,485907
1,647500	0,1	2,461517
1,649167	0,1	2,483094
1,650833	0,1	2,472095
1,652500	0,1	2,474329
1,654167	0,1	2,506355
1,655833	0,1	2,461957
1,657500	0,1	2,468783
1,659167	0,1	2,430149
1,660833	0,1	2,522318
1,662500	0,1	2,467216
1,664167	0,1	2,415904
1,665833	0,1	2,503676
1,667500	0,1	2,479083
1,669167	0,1	2,482470
1,670833	0,1	2,487498
1,672500	0,1	2,461529
1,674167	0,1	2,500590
1,675833	0,1	2,504051
1,677500	0,1	2,474622
1,679167	0,1	2,477279
1,680833	0,1	2,473463
1,682500	0,1	2,460091
1,684167	0,1	2,454240
1,685833	0,1	2,466691
1,687500	0,1	2,447985
1,689167	0,1	2,467912
1,690833	0,1	2,429564
1,692500	0,1	2,466612
1,694167	0,1	2,424811
1,695833	0,1	2,430780
1,697500	0,1	2,461577
1,699167	0,1	2,452945
1,700833	0,1	2,433666
1,702500	0,1	2,420280
1,704167	0,1	2,389263
1,705833	0,1	2,413860
1,707500	0,1	2,412923
1,709167	0,1	2,408891
1,710833	0,1	2,418972
1,712500	0,1	2,382414
1,714167	0,1	2,379178
1,715833	0,1	2,347233
1,717500	0,1	2,367360
1,719167	0,1	2,364564
1,720833	0,1	2,369606
1,722500	0,1	2,348521
1,724167	0,1	2,357291
1,725833	0,1	2,297582
1,727500	0,1	2,310010
1,729167	0,1	2,316275
1,730833	0,1	2,320230
1,732500	0,1	2,305339
1,734167	0,1	2,281240
1,735833	0,1	2,325613
1,737500	0,1	2,256932
1,739167	0,1	2,252597
1,740833	0,1	2,254249
1,742500	0,1	2,195269
1,744167	0,1	2,218560
1,745833	0,1	2,182171
1,747500	0,1	2,210789
1,749167	0,1	2,135495
1,750833	0,1	2,104916
1,752500	0,1	2,152154
1,754167	0,1	2,110816
1,755833	0,1	2,096855
1,757500	0,1	2,100737
1,759167	0,1	2,052133
1,760833	0,1	2,067437
1,762500	0,1	2,029116
1,764167	0,1	2,059376
1,765833	0,1	2,006539
1,767500	0,1	1,975620
1,769167	0,1	1,950160
1,770833	0,1	1,972803
1,772500	0,1	1,940098
1,774167	0,1	1,888905
1,775833	0,1	1,875532
1,777500	0,1	1,847998
1,779167	0,1	1,829957
1,780833	0,1	1,793519
1,782500	0,1	1,797179
1,784167	0,1	1,795662
1,785833	0,1	1,772823
1,787500	0,1	1,734588
1,789167	0,1	1,742852
1,790833	0,1	1,713802
1,792500	0,1	1,714180
1,794167	0,1	1,721090
1,795833	0,1	1,606482
1,797500	0,1	1,647791
1,799167	0,1	1,639744
1,800833	0,1	1,633278
1,802500	0,1	1,595853
1,804167	0,1	1,543765
1,805833	0,1	1,519286
1,807500	0,1	1,532759
1,809167	0,1	1,512092
1,810833	0,1	1,481713
1,812500	0,1	1,481361
1,814167	0,1	1,454839
1,815833	0,1	1,410743
1,817500	0,1	1,400340
1,819167	0,1	1,374052
1,820833	0,1	1,372566
1,822500	0,1	1,321376
1,824167	0,1	1,338091
1,825833	0,1	1,336925
1,827500	0,1	1,284649
1,829167	0,1	1,277259
1,830833	0,1	1,261128
1,832500	0,1	1,221435
1,834167	0,1	1,268016
1,835833	0,1	1,173136
1,837500	0,1	1,226956
1,839167	0,1	1,217619
1,840833	0,1	1,225232
1,842500	0,1	1,225197
1,844167	0,1	1,205145
1,845833	0,1	1,233983
1,847500	0,1	1,215125
1,849167	0,1	1,284722
1,850833	0,1	1,285165
1,852500	0,1	1,346330
1,854167	0,1	1,378951
1,855833	0,1	1,377158
1,857500	0,1	1,439306
1,859167	0,1	1,476526
1,860833	0,1	1,522941
1,862500	0,1	1,512805
1,864167	0,1	1,552493
1,865833	0,1	1,576488
1,867500	0,1	1,636553
1,869167	0,1	1,644545
1,870833	0,1	1,705041
1,872500	0,1	1,735165
1,874167	0,1	1,723167
1,875833	0,1	1,762022
1,877500	0,1	1,799463
1,879167	0,1	1,880979
1,880833	0,1	1,869273
1,882500	0,1	1,882936
1,884167	0,1	1,913978
1,885833	0,1	1,945112
1,887500	0,1	1,974303
1,889167	0,1	2,026509
1,890833	0,1	2,011990
1,892500	0,1	2,068217
1,894167	0,1	2,086779
1,895833	0,1	2,153373
1,897500	0,1	2,153749
1,899167	0,1	2,202295
1,900833	0,1	2,231006
1,902500	0,1	2,272660
1,904167	0,1	2,279144
1,905833	0,1	2,290221
1,907500	0,1	2,263824
1,909167	0,1	2,313028
1,910833	0,1	2,345627
1,912500	0,1	2,389593
1,914167	0,1	2,399393
1,915833	0,1	2,388748
1,917500	0,1	2,436444
1,919167	0,1	2,458336
1,920833	0,1	2,481377
1,922500	0,1	2,488361
1,924167	0,1	2,496568
1,925833	0,1	2,518020
1,927500	0,1	2,477656
1,929167	0,1	2,528668
1,930833	0,1	2,510181
1,932500	0,1	2,578845
1,934167	0,1	2,545895
1,935833	0,1	2,548199
1,937500	0,1	2,545093
1,939167	0,1	2,572163
1,940833	0,1	2,552601
1,942500	0,1	2,542856
1,944167	0,1	2,615135
1,945833	0,1	2,612709
1,947500	0,1	2,587433
1,949167	0,1	2,611537
1,950833	0,1	2,593059
1,952500	0,1	2,586066
1,954167	0,1	2,599539
1,955833	0,1	2,636319
1,957500	0,1	2,643816
1,959167	0,1	2,628414
1,960833	0,1	2,653081
1,962500	0,1	2,681255
1,964167	0,1	2,650872
1,965833	0,1	2,671609
1,967500	0,1	2,700193
1,969167	0,1	2,724463
1,970833	0,1	2,690485
1,972500	0,1	2,692569
1,974167	0,1	2,755560
1,975833	0,1	2,693444
1,977500	0,1	2,739442
1,979167	0,1	2,803834
1,980833	0,1	2,763686
1,982500	0,1	2,749841
1,984167	0,1	2,765381
1,985833	0,1	2,796710
1,987500	0,1	2,778345
1,989167	0,1	2,806297
1,990833	0,1	2,806827
1,992500	0,1	2,778931
1,994167	0,1	2,824436
1,995833	0,1	2,843122
1,997500	0,1	2,872648
1,999167	0,1	2,845303
2,000833	0,1	2,843263
2,002500	0,1	2,861714
2,004167	0,1	2,874535
2,005833	0,1	2,893912
2,007500	0,1	2,921286
2,009167	0,1	2,937577
2,010833	0,1	2,961103
2,012500	0,1	2,956676
2,014167	0,1	3,000680
2,015833	0,1	2,963111
2,017500	0,1	3,005102
2,019167	0,1	3,003257
2,020833	0,1	3,036544
2,022500	0,1	3,005271
2,024167	0,1	3,063159
2,025833	0,1	3,069770
2,027500	0,1	3,110331
2,029167	0,1	3,086857
2,030833	0,1	3,148074
2,032500	0,1	3,090546
2,034167	0,1	3,126781
2,035833	0,1	3,152318
2,037500	0,1	3,171273
2,039167	0,1	3,163854
2,040833	0,1	3,216997
2,042500	0,1	3,228249
2,044167	0,1	3,232662
2,045833	0,1	3,267584
2,047500	0,1	3,312676
2,049167	0,1	3,318845
2,050833	0,1	3,281539
2,052500	0,1	3,344533
2,054167	0,1	3,362930
2,055833	0,1	3,334168
2,057500	0,1	3,338210
2,059167	0,1	3,372973
2,060833	0,1	3,424861
2,062500	0,1	3,376858
2,064167	0,1	3,421871
2,065833	0,1	3,414118
2,067500	0,1	3,482773
2,069167	0,1	3,469390
2,070833	0,1	3,467257
2,072500	0,1	3,436355
2,074167	0,1	3,508410
2,075833	0,1	3,473342
2,077500	0,1	3,532390
2,079167	0,1	3,530768
2,080833	0,1	3,529650
2,082500	0,1	3,510303
2,084167	0,1	3,562369
2,085833	0,1	3,545866
2,087500	0,1	3,554612
2,089167	0,1	3,552045
2,090833	0,1	3,584354
2,092500	0,1	3,560543
2,094167	0,1	3,597993
2,095833	0,1	3,575950
2,097500	0,1	3,610855
2,099167	0,1	3,564293
2,100833	0,1	3,576904
2,102500	0,1	3,558675
2,104167	0,1	3,602072
2,105833	0,1	3,585094
2,107500	0,1	3,609659
2,109167	0,1	3,595434
2,110833	0,1	3,602211
2,112500	0,1	3,647507
2,114167	0,1	3,557599
2,115833	0,1	3,641966
2,117500	0,1	3,607496
2,119167	0,1	3,580780
2,120833	0,1	3,569037
2,122500	0,1	3,572125
2,124167	0,1	3,552049
2,125833	0,1	3,604071
2,127500	0,1	3,564990
2,129167	0,1	3,551189
2,130833	0,1	3,600096
2,132500	0,1	3,552393
2,134167	0,1	3,545654
2,135833	0,1	3,563468
2,137500	0,1	3,553165
2,139167	0,1	3,585082
2,140833	0,1	3,534911
2,142500	0,1	3,521782
2,144167	0,1	3,571230
2,145833	0,1	3,529530
2,147500	0,1	3,519990
2,149167	0,1	3,473371
2,150833	0,1	3,487072
2,152500	0,1	3,547639
2,154167	0,1	3,482727
2,155833	0,1	3,492034
2,157500	0,1	3,468483
2,159167	0,1	3,447003
2,160833	0,1	3,432532
2,162500	0,1	3,476181
2,164167	0,1	3,430024
2,165833	0,1	3,393139
2,167500	0,1	3,460436
2,169167	0,1	3,393850
2,170833	0,1	3,379190
2,172500	0,1	3,387268
2,174167	0,1	3,377606
2,175833	0,1	3,367503
2,177500	0,1	3,397026
2,179167	0,1	3,337653
2,180833	0,1	3,368847
2,182500	0,1	3,331342
2,184167	0,1	3,300020
2,185833	0,1	3,278785
2,187500	0,1	3,258342
2,189167	0,1	3,305799
2,190833	0,1	3,292567
2,192500	0,1	3,293016
2,194167	0,1	3,251111
2,195833	0,1	3,239345
2,197500	0,1	3,240388
2,199167	0,1	3,223825
2,200833	0,1	3,262579
2,202500	0,1	3,203564
2,204167	0,1	3,233913
2,205833	0,1	3,164920
2,207500	0,1	3,155113
2,209167	0,1	3,186327
2,210833	0,1	3,178015
2,212500	0,1	3,171470
2,214167	0,1	3,146778
2,215833	0,1	3,175792
2,217500	0,1	3,138498
2,219167	0,1	3,144443
2,220833	0,1	3,113079
2,222500	0,1	3,134974
2,224167	0,1	3,125325
2,225833	0,1	3,148960
2,227500	0,1	3,110846
2,229167	0,1	3,104142
2,230833	0,1	3,105209
2,232500	0,1	3,088001
2,234167	0,1	3,064511
2,235833	0,1	3,049512
2,237500	0,1	3,043023
2,239167	0,1	3,082189
2,240833	0,1	3,079335
2,242500	0,1	3,079183
2,244167	0,1	3,039047
2,245833	0,1	3,079746
2,247500	0,1	3,027389
2,249167	0,1	3,046681
2,250833	0,1	3,019205
2,252500	0,1	3,027720
2,254167	0,1	3,006566
2,255833	0,1	3,016390
2,257500	0,1	3,020873
2,259167	0,1	3,030812
2,260833	0,1	3,011434
2,262500	0,1	3,016290
2,264167	0,1	2,964244
2,265833	0,1	2,988512
2,267500	0,1	2,950847
2,269167	0,1	2,960338
2,270833	0,1	2,956450
2,272500	0,1	2,961155
2,274167	0,1	2,966763
2,275833	0,1	2,959137
2,277500	0,1	2,929865
2,279167	0,1	2,933388
2,280833	0,1	2,917464
2,282500	0,1	2,956364
2,284167	0,1	2,934629
2,285833	0,1	2,918627
2,287500	0,1	2,908023
2,289167	0,1	2,892508
2,290833	0,1	2,892109
2,292500	0,1	2,898577
2,294167	0,1	2,920773
2,295833	0,1	2,910514
2,297500	0,1	2,909544
2,299167	0,1	2,910539
2,300833	0,1	2,891165
2,302500	0,1	2,931568
2,304167	0,1	2,876571
2,305833	0,1	2,898574
2,307500	0,1	2,917744
2,309167	0,1	2,898583
2,310833	0,1	2,896273
2,312500	0,1	2,895064
2,314167	0,1	2,898866
2,315833	0,1	2,889668
2,317500	0,1	2,880439
2,319167	0,1	2,893585
2,320833	0,1	2,915359
2,322500	0,1	2,878335
2,324167	0,1	2,828436
2,325833	0,1	2,906780
2,327500	0,1	2,873822
2,329167	0,1	2,889947
2,330833	0,1	2,862511
2,332500	0,1	2,890355
2,334167	0,1	2,885400
2,335833	0,1	2,936815
2,337500	0,1	2,871284
2,339167	0,1	2,916365
2,340833	0,1	2,895254
2,342500	0,1	2,870476
2,344167	0,1	2,903486
2,345833	0,1	2,879494
2,347500	0,1	2,928686
2,349167	0,1	2,890956
2,350833	0,1	2,902257
2,352500	0,1	2,933938
2,354167	0,1	2,943039
2,355833	0,1	2,917482
2,357500	0,1	2,935238
2,359167	0,1	2,914947
2,360833	0,1	2,955112
2,362500	0,1	2,951412
2,364167	0,1	2,930315
2,365833	0,1	2,945721
2,367500	0,1	2,942558
2,369167	0,1	2,936119
2,370833	0,1	2,989212
2,372500	0,1	2,973813
2,374167	0,1	2,969950
2,375833	0,1	2,969074
2,377500	0,1	2,934285
2,379167	0,1	3,003042
2,380833	0,1	3,042978
2,382500	0,1	3,000852
2,384167	0,1	3,023615
2,385833	0,1	3,027285
2,387500	0,1	3,056276
2,389167	0,1	3,032226
2,390833	0,1	3,061751
2,392500	0,1	3,063056
2,394167	0,1	3,105163
2,395833	0,1	3,084185
2,397500	0,1	3,080953
2,399167	0,1	3,121304
2,400833	0,1	3,148026
2,402500	0,1	3,149406
2,404167	0,1	3,169517
2,405833	0,1	3,160419
2,407500	0,1	3,194763
2,409167	0,1	3,227918
2,410833	0,1	3,223384
2,412500	0,1	3,214948
2,414167	0,1	3,232979
2,415833	0,1	3,222241
2,417500	0,1	3,234585
2,419167	0,1	3,285830
2,420833	0,1	3,280608
2,422500	0,1	3,302714
2,424167	0,1	3,310660
2,425833	0,1	3,345816
2,427500	0,1	3,310493
2,429167	0,1	3,329251
2,430833	0,1	3,367677
2,432500	0,1	3,364936
2,434167	0,1	3,374432
2,435833	0,1	3,389548
2,437500	0,1	3,410946
2,439167	0,1	3,431438
2,440833	0,1	3,446267
2,442500	0,1	3,444352
2,444167	0,1	3,458889
2,445833	0,1	3,490524
2,447500	0,1	3,512396
2,449167	0,1	3,515076
2,450833	0,1	3,544659
2,452500	0,1	3,536640
2,454167	0,1	3,582038
2,455833	0,1	3,609737
2,457500	0,1	3,642657
2,459167	0,1	3,696522
2,460833	0,1	3,683339
2,462500	0,1	3,768810
2,464167	0,1	3,813373
2,465833	0,1	3,831606
2,467500	0,1	3,924452
2,469167	0,1	3,983742
2,470833	0,1	4,064554
2,472500	0,1	4,148604
2,474167	0,1	4,297753
2,475833	0,1	4,391418
2,477500	0,1	4,483180
2,479167	0,1	4,642002
2,480833	0,1	4,789595
2,482500	0,1	4,922407
2,484167	0,1	5,132967
2,485833	0,1	5,342827
2,487500	0,1	5,580183
2,489167	0,1	5,780508
2,490833	0,1	6,056357
2,492500	0,1	6,389568
2,494167	0,1	6,717948
2,495833	0,1	7,050892
2,497500	0,1	7,427879
2,499167	0,1	7,825627
2,500833	0,1	8,283242
2,502500	0,1	8,762820
2,504167	0,1	9,323029
2,505833	0,1	9,899165
2,507500	0,1	10,470160
2,509167	0,1	11,129947
2,510833	0,1	11,786430
2,512500	0,1	12,544743
2,514167	0,1	13,287179
2,515833	0,1	14,094251
2,517500	0,1	14,923613
2,519167	0,1	15,832164
2,520833	0,1	16,798025
2,522500	0,1	17,724700
2,524167	0,1	18,784845
2,525833	0,1	19,816368
2,527500	0,1	20,943715
2,529167	0,1	22,069716
2,530833	0,1	23,236398
2,532500	0,1	24,449606
2,534167	0,1	25,684042
2,535833	0,1	26,949309
2,537500	0,1	28,248227
2,539167	0,1	29,574145
2,540833	0,1	30,952376
2,542500	0,1	32,312567
2,544167	0,1	33,669918
2,545833	0,1	35,068105
2,547500	0,1	36,443953
2,549167	0,1	37,843114
2,550833	0,1	39,244850
2,552500	0,1	40,617073
2,554167	0,1	41,997738
2,555833	0,1	43,342786
2,557500	0,1	44,761509
2,559167	0,1	46,077574
2,560833	0,1	47,386291
2,562500	0,1	48,665568
2,564167	0,1	49,969173
2,565833	0,1	51,171750
2,567500	0,1	52,429945
2,569167	0,1	53,605068
2,570833	0,1	54,734574
2,572500	0,1	55,776382
2,574167	0,1	56,847310
2,575833	0,1	57,852495
2,577500	0,1	58,839439
2,579167	0,1	59,714595
2,580833	0,1	60,614743
2,582500	0,1	61,403653
2,584167	0,1	62,207867
2,585833	0,1	62,958113
2,587500	0,1	63,622460
2,589167	0,1	64,257057
2,590833	0,1	64,833333
2,592500	0,1	65,411081
2,594167	0,1	65,846066
2,595833	0,1	66,295327
2,597500	0,1	66,654776
2,599167	0,1	67,044735
2,600833	0,1	67,323919
2,602500	0,1	67,583101
2,604167	0,1	67,782293
2,605833	0,1	67,978406
2,607500	0,1	68,084009
2,609167	0,1	68,212767
2,610833	0,1	68,201939
2,612500	0,1	68,227296
2,614167	0,1	68,182063
2,615833	0,1	68,118581
2,617500	0,1	67,995809
2,619167	0,1	67,840911
2,620833	0,1	67,683818
2,622500	0,1	67,439331
2,624167	0,1	67,243665
2,625833	0,1	66,922192
2,627500	0,1	66,590567
2,629167	0,1	66,271696
2,630833	0,1	65,961697
2,632500	0,1	65,553657
2,634167	0,1	65,115994
2,635833	0,1	64,683646
2,637500	0,1	64,185647
2,639167	0,1	63,710180
2,640833	0,1	63,181730
2,642500	0,1	62,692930
2,644167	0,1	62,079480
2,645833	0,1	61,514096
2,647500	0,1	60,958034
2,649167	0,1	60,334138
2,650833	0,1	59,707447
2,652500	0,1	59,102592
2,654167	0,1	58,407017
2,655833	0,1	57,713815
2,657500	0,1	57,029866
2,659167	0,1	56,356328
2,660833	0,1	55,620004
2,662500	0,1	54,882417
2,664167	0,1	54,170427
2,665833	0,1	53,436707
2,667500	0,1	52,681883
2,669167	0,1	51,936332
2,670833	0,1	51,221144
2,672500	0,1	50,442937
2,674167	0,1	49,680802
2,675833	0,1	48,930092
2,677500	0,1	48,097716
2,679167	0,1	47,381477
2,680833	0,1	46,604730
2,682500	0,1	45,834335
2,684167	0,1	45,099242
2,685833	0,1	44,285625
2,687500	0,1	43,531561
2,689167	0,1	42,790469
2,690833	0,1	42,033602
2,692500	0,1	41,279037
2,694167	0,1	40,545234
2,695833	0,1	39,780023
2,697500	0,1	39,031413
2,699167	0,1	38,349699
2,700833	0,1	37,621822
2,702500	0,1	36,932302
2,704167	0,1	36,239229
2,705833	0,1	35,527451
2,707500	0,1	34,873788
2,709167	0,1	34,169131
2,710833	0,1	33,522938
2,712500	0,1	32,860698
2,714167	0,1	32,206321
2,715833	0,1	31,590773
2,717500	0,1	30,936235
2,719167	0,1	30,391256
2,720833	0,1	29,758328
2,722500	0,1	29,169569
2,724167	0,1	28,577141
2,725833	0,1	27,963826
2,727500	0,1	27,426879
2,729167	0,1	26,886388
2,730833	0,1	26,332538
2,732500	0,1	25,873584
2,734167	0,1	25,369744
2,735833	0,1	24,854054
2,737500	0,1	24,311722
2,739167	0,1	23,879987
2,740833	0,1	23,407407
2,742500	0,1	22,935450
2,744167	0,1	22,494058
2,745833	0,1	22,038771
2,747500	0,1	21,573235
2,749167	0,1	21,219609
2,750833	0,1	20,770348
2,752500	0,1	20,371835
2,754167	0,1	19,985493
2,755833	0,1	19,629145
2,757500	0,1	19,234947
2,759167	0,1	18,846262
2,760833	0,1	18,516316
2,762500	0,1	18,139078
2,764167	0,1	17,857465
2,765833	0,1	17,478173
2,767500	0,1	17,196947
2,769167	0,1	16,832862
2,770833	0,1	16,523553
2,772500	0,1	16,225481
2,774167	0,1	15,970634
2,775833	0,1	15,701255
2,777500	0,1	15,405338
2,779167	0,1	15,104419
2,780833	0,1	14,830642
2,782500	0,1	14,585677
2,784167	0,1	14,322376
2,785833	0,1	14,069615
2,787500	0,1	13,813065
2,789167	0,1	13,576507
2,790833	0,1	13,356020
2,792500	0,1	13,089876
2,794167	0,1	12,881963
2,795833	0,1	12,652730
2,797500	0,1	12,452310
2,799167	0,1	12,230376
2,800833	0,1	12,020200
2,802500	0,1	11,860303
2,804167	0,1	11,628885
2,805833	0,1	11,401108
2,807500	0,1	11,229941
2,809167	0,1	11,046932
2,810833	0,1	10,846326
2,812500	0,1	10,666651
2,814167	0,1	10,499484
2,815833	0,1	10,289238
2,817500	0,1	10,117097
2,819167	0,1	10,017097
2,820833	0,1	9,841480
2,822500	0,1	9,673654
2,824167	0,1	9,526207
2,825833	0,1	9,368030
2,827500	0,1	9,203296
2,829167	0,1	9,071814
2,830833	0,1	8,950255
2,832500	0,1	8,769444
2,834167	0,1	8,638851
2,835833	0,1	8,530262
2,837500	0,1	8,341839
2,839167	0,1	8,233480
2,840833	0,1	8,149609
2,842500	0,1	8,016855
2,844167	0,1	7,907938
2,845833	0,1	7,762433
2,847500	0,1	7,653210
2,849167	0,1	7,509001
2,850833	0,1	7,451383
2,852500	0,1	7,353576
2,854167	0,1	7,248575
2,855833	0,1	7,103575
2,857500	0,1	7,056597
2,859167	0,1	6,952335
2,860833	0,1	6,843318
2,862500	0,1	6,787222
2,864167	0,1	6,647428
2,865833	0,1	6,530525
2,867500	0,1	6,470641
2,869167	0,1	6,446903
2,870833	0,1	6,298374
2,872500	0,1	6,212163
2,874167	0,1	6,114810
2,875833	0,1	6,054699
2,877500	0,1	6,005542
2,879167	0,1	5,927552
2,880833	0,1	5,855209
2,882500	0,1	5,776201
2,884167	0,1	5,699141
2,885833	0,1	5,645900
2,887500	0,1	5,572906
2,889167	0,1	5,512770
2,890833	0,1	5,475405
2,892500	0,1	5,394161
2,894167	0,1	5,340331
2,895833	0,1	5,246391
2,897500	0,1	5,238626
2,899167	0,1	5,161122
2,900833	0,1	5,111294
2,902500	0,1	5,051674
2,904167	0,1	4,981382
2,905833	0,1	4,977798
2,907500	0,1	4,885925
2,909167	0,1	4,856730
2,910833	0,1	4,840106
2,912500	0,1	4,752912
2,914167	0,1	4,704312
2,915833	0,1	4,679210
2,917500	0,1	4,651717
2,919167	0,1	4,598514
2,920833	0,1	4,549891
2,922500	0,1	4,509614
2,924167	0,1	4,478414
2,925833	0,1	4,462050
2,927500	0,1	4,391048
2,929167	0,1	4,369853
2,930833	0,1	4,309595
2,932500	0,1	4,289986
2,934167	0,1	4,244984
2,935833	0,1	4,221929
2,937500	0,1	4,173397
2,939167	0,1	4,149203
2,940833	0,1	4,109577
2,942500	0,1	4,090639
2,944167	0,1	4,030206
2,945833	0,1	4,018091
2,947500	0,1	3,997984
2,949167	0,1	3,922622
2,950833	0,1	3,907055
2,952500	0,1	3,900506
2,954167	0,1	3,853767
2,955833	0,1	3,830524
2,957500	0,1	3,791362
2,959167	0,1	3,795472
2,960833	0,1	3,713289
2,962500	0,1	3,721161
2,964167	0,1	3,697654
2,965833	0,1	3,657094
2,967500	0,1	3,654202
2,969167	0,1	3,627888
2,970833	0,1	3,612710
2,972500	0,1	3,576603
2,974167	0,1	3,611448
2,975833	0,1	3,550266
2,977500	0,1	3,503581
2,979167	0,1	3,481963
2,980833	0,1	3,456278
2,982500	0,1	3,461672
2,984167	0,1	3,403252
2,985833	0,1	3,440625
2,987500	0,1	3,381853
2,989167	0,1	3,374180
2,990833	0,1	3,352090
2,992500	0,1	3,312486
2,994167	0,1	3,319384
2,995833	0,1	3,277680
2,997500	0,1	3,287918
2,999167	0,1	3,243644
3,000833	0,1	3,205393
3,002500	0,1	3,225821
3,004167	0,1	3,203956
3,005833	0,1	3,194449
3,007500	0,1	3,182579
3,009167	0,1	3,186753
3,010833	0,1	3,167445
3,012500	0,1	3,156546
3,014167	0,1	3,102587
3,015833	0,1	3,115720
3,017500	0,1	3,064426
3,019167	0,1	3,115214
3,020833	0,1	3,093537
3,022500	0,1	3,036396
3,024167	0,1	3,024197
3,025833	0,1	3,069558
3,027500	0,1	3,016740
3,029167	0,1	2,977364
3,030833	0,1	3,021949
3,032500	0,1	2,951339
3,034167	0,1	2,985823
3,035833	0,1	2,933009
3,037500	0,1	2,947712
3,039167	0,1	2,907833
3,040833	0,1	2,921289
3,042500	0,1	2,891979
3,044167	0,1	2,860054
3,045833	0,1	2,886627
3,047500	0,1	2,865089
3,049167	0,1	2,835327
3,050833	0,1	2,815425
3,052500	0,1	2,791672
3,054167	0,1	2,832068
3,055833	0,1	2,799604
3,057500	0,1	2,805480
3,059167	0,1	2,776263
3,060833	0,1	2,725852
3,062500	0,1	2,731440
3,064167	0,1	2,737349
3,065833	0,1	2,742395
3,067500	0,1	2,739668
3,069167	0,1	2,717769
3,070833	0,1	2,705813
3,072500	0,1	2,656699
3,074167	0,1	2,709399
3,075833	0,1	2,663839
3,077500	0,1	2,678657
3,079167	0,1	2,608541
3,080833	0,1	2,607155
3,082500	0,1	2,645745
3,084167	0,1	2,597364
3,085833	0,1	2,628230
3,087500	0,1	2,585920
3,089167	0,1	2,590452
3,090833	0,1	2,598852
3,092500	0,1	2,595179
3,094167	0,1	2,580155
3,095833	0,1	2,568982
3,097500	0,1	2,548552
3,099167	0,1	2,565170
3,100833	0,1	2,550053
3,102500	0,1	2,554148
3,104167	0,1	2,513067
3,105833	0,1	2,577897
3,107500	0,1	2,593599
3,109167	0,1	2,539627
3,110833	0,1	2,538828
3,112500	0,1	2,533571
3,114167	0,1	2,571571
3,115833	0,1	2,581872
3,117500	0,1	2,546102
3,119167	0,1	2,590205
3,120833	0,1	2,548121
3,122500	0,1	2,576674
3,124167	0,1	2,575821
3,125833	0,1	2,607926
3,127500	0,1	2,591451
3,129167	0,1	2,599154
3,130833	0,1	2,627720
3,132500	0,1	2,592537
3,134167	0,1	2,605495
3,135833	0,1	2,633553
3,137500	0,1	2,602568
3,139167	0,1	2,677678
3,140833	0,1	2,629757
3,142500	0,1	2,618674
3,144167	0,1	2,632288
3,145833	0,1	2,643722
3,147500	0,1	2,678133
3,149167	0,1	2,684196
3,150833	0,1	2,694066
3,152500	0,1	2,722794
3,154167	0,1	2,701001
3,155833	0,1	2,679822
3,157500	0,1	2,672903
3,159167	0,1	2,742743
3,160833	0,1	2,719874
3,162500	0,1	2,760963
3,164167	0,1	2,742265
3,165833	0,1	2,731007
3,167500	0,1	2,739950
3,169167	0,1	2,746136
3,170833	0,1	2,728512
3,172500	0,1	2,766150
3,174167	0,1	2,793306
3,175833	0,1	2,742334
3,177500	0,1	2,792429
3,179167	0,1	2,758537
3,180833	0,1	2,800896
3,182500	0,1	2,733009
3,184167	0,1	2,763124
3,185833	0,1	2,758893
3,187500	0,1	2,766232
3,189167	0,1	2,735413
3,190833	0,1	2,756271
3,192500	0,1	2,756373
3,194167	0,1	2,726762
3,195833	0,1	2,764652
3,197500	0,1	2,741893
3,199167	0,1	2,738657
3,200833	0,1	2,743109
3,202500	0,1	2,734409
3,204167	0,1	2,707464
3,205833	0,1	2,661180
3,207500	0,1	2,707744
3,209167	0,1	2,705576
3,210833	0,1	2,698819
3,212500	0,1	2,644886
3,214167	0,1	2,639986
3,215833	0,1	2,637615
3,217500	0,1	2,618243
3,219167	0,1	2,669352
3,220833	0,1	2,654609
3,222500	0,1	2,635019
3,224167	0,1	2,581156
3,225833	0,1	2,579488
3,227500	0,1	2,547112
3,229167	0,1	2,590147
3,230833	0,1	2,570273
3,232500	0,1	2,521919
3,234167	0,1	2,511742
3,235833	0,1	2,506773
3,237500	0,1	2,496555
3,239167	0,1	2,441647
3,240833	0,1	2,437397
3,242500	0,1	2,428392
3,244167	0,1	2,429326
3,245833	0,1	2,420196
3,247500	0,1	2,408969
3,249167	0,1	2,364923
3,250833	0,1	2,337147
3,252500	0,1	2,306063
3,254167	0,1	2,291880
3,255833	0,1	2,243039
3,257500	0,1	2,259570
3,259167	0,1	2,289708
3,260833	0,1	2,250446
3,262500	0,1	2,207640
3,264167	0,1	2,242222
3,265833	0,1	2,183904
3,267500	0,1	2,175547
3,269167	0,1	2,169145
3,270833	0,1	2,128585
3,272500	0,1	2,116136
3,274167	0,1	2,054224
3,275833	0,1	2,076135
3,277500	0,1	2,096927
3,279167	0,1	2,054006
3,280833	0,1	2,037024
3,282500	0,1	2,044076
3,284167	0,1	1,994104
3,285833	0,1	2,028680
3,287500	0,1	1,950979
3,289167	0,1	1,950311
3,290833	0,1	1,950957
3,292500	0,1	1,903443
3,294167	0,1	1,928225
3,295833	0,1	1,883884
3,297500	0,1	1,882739
3,299167	0,1	1,880145
3,300833	0,1	1,822512
3,302500	0,1	1,856982
3,304167	0,1	1,825375
3,305833	0,1	1,760046
3,307500	0,1	1,772823
3,309167	0,1	1,811717
3,310833	0,1	1,778530
3,312500	0,1	1,740373
3,314167	0,1	1,759395
3,315833	0,1	1,726763
3,317500	0,1	1,707228
3,319167	0,1	1,652549
3,320833	0,1	1,655618
3,322500	0,1	1,662950
3,324167	0,1	1,657092
3,325833	0,1	1,674963
3,327500	0,1	1,620067
3,329167	0,1	1,641211
3,330833	0,1	1,577050
3,332500	0,1	1,616903
3,334167	0,1	1,584814
3,335833	0,1	1,601403
3,337500	0,1	1,582802
3,339167	0,1	1,556412
3,340833	0,1	1,544125
3,342500	0,1	1,526570
3,344167	0,1	1,527339
3,345833	0,1	1,551470
3,347500	0,1	1,492338
3,349167	0,1	1,527538
3,350833	0,1	1,473962
3,352500	0,1	1,532936
3,354167	0,1	1,485320
3,355833	0,1	1,487839
3,357500	0,1	1,479990
3,359167	0,1	1,473538
3,360833	0,1	1,460902
3,362500	0,1	1,434104
3,364167	0,1	1,476785
3,365833	0,1	1,463940
3,367500	0,1	1,453942
3,369167	0,1	1,417469
3,370833	0,1	1,421184
3,372500	0,1	1,412360
3,374167	0,1	1,415422
3,375833	0,1	1,452007
3,377500	0,1	1,398526
3,379167	0,1	1,393260
3,380833	0,1	1,385574
3,382500	0,1	1,370357
3,384167	0,1	1,391369
3,385833	0,1	1,371497
3,387500	0,1	1,353420
3,389167	0,1	1,341110
3,390833	0,1	1,332214
3,392500	0,1	1,337092
3,394167	0,1	1,355418
3,395833	0,1	1,332659
3,397500	0,1	1,336120
3,399167	0,1	1,306732
3,400833	0,1	1,361939
3,402500	0,1	1,358432
3,404167	0,1	1,352907
3,405833	0,1	1,380396
3,407500	0,1	1,322738
3,409167	0,1	1,338619
3,410833	0,1	1,346084
3,412500	0,1	1,304812
3,414167	0,1	1,347963
3,415833	0,1	1,307108
3,417500	0,1	1,311024
3,419167	0,1	1,324132
3,420833	0,1	1,315821
3,422500	0,1	1,338836
3,424167	0,1	1,344929
3,425833	0,1	1,299134
3,427500	0,1	1,347793
3,429167	0,1	1,327385
3,430833	0,1	1,311557
3,432500	0,1	1,336032
3,434167	0,1	1,332298
3,435833	0,1	1,329865
3,437500	0,1	1,359529
3,439167	0,1	1,329394
3,440833	0,1	1,373488
3,442500	0,1	1,363148
3,444167	0,1	1,383546
3,445833	0,1	1,382495
3,447500	0,1	1,378024
3,449167	0,1	1,370560
3,450833	0,1	1,420732
3,452500	0,1	1,401749
3,454167	0,1	1,423849
3,455833	0,1	1,408331
3,457500	0,1	1,409453
3,459167	0,1	1,439261
3,460833	0,1	1,451916
3,462500	0,1	1,509142
3,464167	0,1	1,536891
3,465833	0,1	1,538685
3,467500	0,1	1,557255
3,469167	0,1	1,570474
3,470833	0,1	1,580542
3,472500	0,1	1,593633
3,474167	0,1	1,592403
3,475833	0,1	1,667906
3,477500	0,1	1,649365
3,479167	0,1	1,652981
3,480833	0,1	1,702615
3,482500	0,1	1,722670
3,484167	0,1	1,709604
3,485833	0,1	1,756645
3,487500	0,1	1,787485
3,489167	0,1	1,802507
3,490833	0,1	1,814157
3,492500	0,1	1,849596
3,494167	0,1	1,887753
3,495833	0,1	1,917086
3,497500	0,1	1,874755
3,499167	0,1	1,932102
3,500833	0,1	1,936499
3,502500	0,1	2,000337
3,504167	0,1	1,987631
3,505833	0,1	2,019112
3,507500	0,1	2,015380
3,509167	0,1	2,096408
3,510833	0,1	2,092399
3,512500	0,1	2,060332
3,514167	0,1	2,116697
3,515833	0,1	2,149355
3,517500	0,1	2,169139
3,519167	0,1	2,147281
3,520833	0,1	2,179926
3,522500	0,1	2,196618
3,524167	0,1	2,208633
3,525833	0,1	2,216762
3,527500	0,1	2,240426
3,529167	0,1	2,287042
3,530833	0,1	2,268930
3,532500	0,1	2,315819
3,534167	0,1	2,286489
3,535833	0,1	2,264257
3,537500	0,1	2,295540
3,539167	0,1	2,282314
3,540833	0,1	2,327629
3,542500	0,1	2,318430
3,544167	0,1	2,334540
3,545833	0,1	2,321596
3,547500	0,1	2,354401
3,549167	0,1	2,336995
3,550833	0,1	2,400235
3,552500	0,1	2,342549
3,554167	0,1	2,355840
3,555833	0,1	2,361091
3,557500	0,1	2,370308
3,559167	0,1	2,380452
3,560833	0,1	2,401535
3,562500	0,1	2,387877
3,564167	0,1	2,367872
3,565833	0,1	2,333404
3,567500	0,1	2,377715
3,569167	0,1	2,363473
3,570833	0,1	2,345633
3,572500	0,1	2,318222
3,574167	0,1	2,356411
3,575833	0,1	2,335487
3,577500	0,1	2,338151
3,579167	0,1	2,311029
3,580833	0,1	2,328640
3,582500	0,1	2,351808
3,584167	0,1	2,310309
3,585833	0,1	2,256852
3,587500	0,1	2,280862
3,589167	0,1	2,266770
3,590833	0,1	2,256408
3,592500	0,1	2,233676
3,594167	0,1	2,234821
3,595833	0,1	2,218137
3,597500	0,1	2,201663
3,599167	0,1	2,214891
3,600833	0,1	2,236253
3,602500	0,1	2,152404
3,604167	0,1	2,198410
3,605833	0,1	2,147433
3,607500	0,1	2,144831
3,609167	0,1	2,127285
3,610833	0,1	2,117282
3,612500	0,1	2,166902
3,614167	0,1	2,082277
3,615833	0,1	2,052200
3,617500	0,1	2,055143
3,619167	0,1	2,056731
3,620833	0,1	2,024374
3,622500	0,1	2,047804
3,624167	0,1	2,005467
3,625833	0,1	1,988130
3,627500	0,1	1,987337
3,629167	0,1	1,948010
3,630833	0,1	1,922201
3,632500	0,1	1,950590
3,634167	0,1	1,912579
3,635833	0,1	1,900062
3,637500	0,1	1,907750
3,639167	0,1	1,855432
3,640833	0,1	1,863533
3,642500	0,1	1,878188
3,644167	0,1	1,809150
3,645833	0,1	1,827875
3,647500	0,1	1,810207
3,649167	0,1	1,767311
3,650833	0,1	1,778721
3,652500	0,1	1,732527
3,654167	0,1	1,747464
3,655833	0,1	1,739719
3,657500	0,1	1,739210
3,659167	0,1	1,731661
3,660833	0,1	1,719661
3,662500	0,1	1,687114
3,664167	0,1	1,655646
3,665833	0,1	1,656992
3,667500	0,1	1,678266
3,669167	0,1	1,626197
3,670833	0,1	1,608004
3,672500	0,1	1,580633
3,674167	0,1	1,564329
3,675833	0,1	1,597022
3,677500	0,1	1,552755
3,679167	0,1	1,576590
3,680833	0,1	1,541048
3,682500	0,1	1,505864
3,684167	0,1	1,553486
3,685833	0,1	1,485600
3,687500	0,1	1,484513
3,689167	0,1	1,492237
3,690833	0,1	1,472386
3,692500	0,1	1,472037
3,694167	0,1	1,453519
3,695833	0,1	1,467441
3,697500	0,1	1,413207
3,699167	0,1	1,421691
3,700833	0,1	1,380261
3,702500	0,1	1,395453
3,704167	0,1	1,421893
3,705833	0,1	1,396633
3,707500	0,1	1,356488
3,709167	0,1	1,376879
3,710833	0,1	1,348968
3,712500	0,1	1,359297
3,714167	0,1	1,315387
3,715833	0,1	1,324864
3,717500	0,1	1,350789
3,719167	0,1	1,305307
3,720833	0,1	1,340058
3,722500	0,1	1,305509
3,724167	0,1	1,266760
3,725833	0,1	1,264219
3,727500	0,1	1,282219
3,729167	0,1	1,234955
3,730833	0,1	1,249408
3,732500	0,1	1,299435
3,734167	0,1	1,281479
3,735833	0,1	1,245017
3,737500	0,1	1,234743
3,739167	0,1	1,254643
3,740833	0,1	1,235120
3,742500	0,1	1,196279
3,744167	0,1	1,223701
3,745833	0,1	1,246941
3,747500	0,1	1,213786
3,749167	0,1	1,216497
3,750833	0,1	1,185519
3,752500	0,1	1,201551
3,754167	0,1	1,224842
3,755833	0,1	1,198079
3,757500	0,1	1,180261
3,759167	0,1	1,176286
3,760833	0,1	1,168188
3,762500	0,1	1,210846
3,764167	0,1	1,139968
3,765833	0,1	1,170407
3,767500	0,1	1,177334
3,769167	0,1	1,172439
3,770833	0,1	1,188177
3,772500	0,1	1,159750
3,774167	0,1	1,124786
3,775833	0,1	1,155147
3,777500	0,1	1,185657
3,779167	0,1	1,130402
3,780833	0,1	1,137715
3,782500	0,1	1,128408
3,784167	0,1	1,109484
3,785833	0,1	1,180962
3,787500	0,1	1,165000
3,789167	0,1	1,138966
3,790833	0,1	1,128300
3,792500	0,1	1,167928
3,794167	0,1	1,125098
3,795833	0,1	1,129454
3,797500	0,1	1,130988
3,799167	0,1	1,151360
3,800833	0,1	1,123843
3,802500	0,1	1,161797
3,804167	0,1	1,111761
3,805833	0,1	1,133634
3,807500	0,1	1,090359
3,809167	0,1	1,095002
3,810833	0,1	1,089349
3,812500	0,1	1,092595
3,814167	0,1	1,075078
3,815833	0,1	1,095241
3,817500	0,1	1,109229
3,819167	0,1	1,043716
3,820833	0,1	1,059348
3,822500	0,1	1,062803
3,824167	0,1	1,076228
3,825833	0,1	1,086560
3,827500	0,1	1,061074
3,829167	0,1	1,038115
3,830833	0,1	1,086107
3,832500	0,1	1,081954
3,834167	0,1	1,088633
3,835833	0,1	1,077080
3,837500	0,1	1,057663
3,839167	0,1	1,039205
3,840833	0,1	0,986802
3,842500	0,1	1,048071
3,844167	0,1	1,032213
3,845833	0,1	1,053826
3,847500	0,1	1,019772
3,849167	0,1	1,016648
3,850833	0,1	1,013819
3,852500	0,1	0,995633
3,854167	0,1	0,990244
3,855833	0,1	1,000458
3,857500	0,1	0,998790
3,859167	0,1	0,994096
3,860833	0,1	1,020226
3,862500	0,1	0,982125
3,864167	0,1	1,007089
3,865833	0,1	0,988597
3,867500	0,1	0,980538
3,869167	0,1	0,992288
3,870833	0,1	0,978891
3,872500	0,1	0,960993
3,874167	0,1	0,956850
3,875833	0,1	0,923130
3,877500	0,1	0,932851
3,879167	0,1	0,960716
3,880833	0,1	0,922667
3,882500	0,1	0,929288
3,884167	0,1	0,957064
3,885833	0,1	0,963350
3,887500	0,1	0,943743
3,889167	0,1	0,956868
3,890833	0,1	0,920549
3,892500	0,1	0,909347
3,894167	0,1	0,913553
3,895833	0,1	0,920811
3,897500	0,1	0,927532
3,899167	0,1	0,899179
3,900833	0,1	0,870712
3,902500	0,1	0,901879
3,904167	0,1	0,879813
3,905833	0,1	0,875621
3,907500	0,1	0,927901
3,909167	0,1	0,878594
3,910833	0,1	0,875382
3,912500	0,1	0,883059
3,914167	0,1	0,853906
3,915833	0,1	0,845220
3,917500	0,1	0,873462
3,919167	0,1	0,846923
3,920833	0,1	0,826374
3,922500	0,1	0,861858
3,924167	0,1	0,845960
3,925833	0,1	0,854726
3,927500	0,1	0,854596
3,929167	0,1	0,839860
3,930833	0,1	0,831072
3,932500	0,1	0,824146
3,934167	0,1	0,810779
3,935833	0,1	0,772394
3,937500	0,1	0,793938
3,939167	0,1	0,768901
3,940833	0,1	0,822483
3,942500	0,1	0,837232
3,944167	0,1	0,828689
3,945833	0,1	0,805170
3,947500	0,1	0,821452
3,949167	0,1	0,773872
3,950833	0,1	0,783024
3,952500	0,1	0,845584
3,954167	0,1	0,778300
3,955833	0,1	0,768526
3,957500	0,1	0,832727
3,959167	0,1	0,769042
3,960833	0,1	0,836217
3,962500	0,1	0,795297
3,964167	0,1	0,783449
3,965833	0,1	0,769121
3,967500	0,1	0,767342
3,969167	0,1	0,792475
3,970833	0,1	0,745058
3,972500	0,1	0,750535
3,974167	0,1	0,763832
3,975833	0,1	0,791540
3,977500	0,1	0,784923
3,979167	0,1	0,731846
3,980833	0,1	0,768427
3,982500	0,1	0,802008
3,984167	0,1	0,758909
3,985833	0,1	0,799438
3,987500	0,1	0,777709
3,989167	0,1	0,781866
3,990833	0,1	0,734416
3,992500	0,1	0,773123
3,994167	0,1	0,765696
3,995833	0,1	0,765220
3,997500	0,1	0,738322
3,999167	0,1	0,768597
4,000833	0,1	0,726541
4,002500	0,1	0,762011
4,004167	0,1	0,754158
4,005833	0,1	0,767507
4,007500	0,1	0,775712
4,009167	0,1	0,786288
4,010833	0,1	0,793560
4,012500	0,1	0,754839
4,014167	0,1	0,729933
4,015833	0,1	0,753505
4,017500	0,1	0,789154
4,019167	0,1	0,727033
4,020833	0,1	0,766735
4,022500	0,1	0,792803
4,024167	0,1	0,755036
4,025833	0,1	0,807061
4,027500	0,1	0,768296
4,029167	0,1	0,790370
4,030833	0,1	0,789517
4,032500	0,1	0,796285
4,034167	0,1	0,789875
4,035833	0,1	0,833839
4,037500	0,1	0,824421
4,039167	0,1	0,840102
4,040833	0,1	0,787791
4,042500	0,1	0,852419
4,044167	0,1	0,855265
4,045833	0,1	0,818147
4,047500	0,1	0,824774
4,049167	0,1	0,892197
4,050833	0,1	0,888424
4,052500	0,1	0,845504
4,054167	0,1	0,893665
4,055833	0,1	0,883957
4,057500	0,1	0,901750
4,059167	0,1	0,934469
4,060833	0,1	0,896533
4,062500	0,1	0,895167
4,064167	0,1	0,908405
4,065833	0,1	0,940883
4,067500	0,1	0,971890
4,069167	0,1	0,974768
4,070833	0,1	0,987857
4,072500	0,1	1,005154
4,074167	0,1	1,007940
4,075833	0,1	1,021252
4,077500	0,1	0,990807
4,079167	0,1	0,991288
4,080833	0,1	1,060071
4,082500	0,1	1,015966
4,084167	0,1	1,065085
4,085833	0,1	1,058951
4,087500	0,1	1,065095
4,089167	0,1	1,064920
4,090833	0,1	1,108267
4,092500	0,1	1,148772
4,094167	0,1	1,152926
4,095833	0,1	1,162970
4,097500	0,1	1,165353
4,099167	0,1	1,211339
4,100833	0,1	1,210383
4,102500	0,1	1,227734
4,104167	0,1	1,176106
4,105833	0,1	1,235304
4,107500	0,1	1,270570
4,109167	0,1	1,289887
4,110833	0,1	1,334293
4,112500	0,1	1,291772
4,114167	0,1	1,369634
4,115833	0,1	1,365185
4,117500	0,1	1,346227
4,119167	0,1	1,405758
4,120833	0,1	1,362678
4,122500	0,1	1,382336
4,124167	0,1	1,417093
4,125833	0,1	1,459115
4,127500	0,1	1,457474
4,129167	0,1	1,470014
4,130833	0,1	1,463609
4,132500	0,1	1,504070
4,134167	0,1	1,510806
4,135833	0,1	1,558796
4,137500	0,1	1,548823
4,139167	0,1	1,558792
4,140833	0,1	1,563909
4,142500	0,1	1,601039
4,144167	0,1	1,647302
4,145833	0,1	1,640898
4,147500	0,1	1,642717
4,149167	0,1	1,661434
4,150833	0,1	1,660226
4,152500	0,1	1,729702
4,154167	0,1	1,696176
4,155833	0,1	1,692200
4,157500	0,1	1,726547
4,159167	0,1	1,720446
4,160833	0,1	1,762474
4,162500	0,1	1,773040
4,164167	0,1	1,798488
4,165833	0,1	1,823800
4,167500	0,1	1,815815
4,169167	0,1	1,832051
4,170833	0,1	1,838092
4,172500	0,1	1,809202
4,174167	0,1	1,845337
4,175833	0,1	1,859081
4,177500	0,1	1,891212
4,179167	0,1	1,918963
4,180833	0,1	1,893666
4,182500	0,1	1,874538
4,184167	0,1	1,921045
4,185833	0,1	1,906391
4,187500	0,1	1,902078
4,189167	0,1	1,919677
4,190833	0,1	1,922774
4,192500	0,1	1,935995
4,194167	0,1	1,931113
4,195833	0,1	1,972596
4,197500	0,1	1,945285
4,199167	0,1	1,960518
4,200833	0,1	1,980790
4,202500	0,1	1,956495
4,204167	0,1	1,967629
4,205833	0,1	1,980720
4,207500	0,1	1,989342
4,209167	0,1	1,990359
4,210833	0,1	1,938236
4,212500	0,1	2,027296
4,214167	0,1	2,032638
4,215833	0,1	1,979942
4,217500	0,1	1,982301
4,219167	0,1	1,989497
4,220833	0,1	1,952828
4,222500	0,1	1,983439
4,224167	0,1	1,983243
4,225833	0,1	1,954413
4,227500	0,1	2,001782
4,229167	0,1	1,976124
4,230833	0,1	1,967273
4,232500	0,1	1,994875
4,234167	0,1	1,985255
4,235833	0,1	1,976409
4,237500	0,1	1,983886
4,239167	0,1	1,972963
4,240833	0,1	1,968572
4,242500	0,1	1,990569
4,244167	0,1	1,973246
4,245833	0,1	1,962315
4,247500	0,1	1,975830
4,249167	0,1	1,942335
4,250833	0,1	1,953041
4,252500	0,1	1,938236
4,254167	0,1	1,951167
4,255833	0,1	1,948290
4,257500	0,1	1,979642
4,259167	0,1	1,938673
4,260833	0,1	1,881311
4,262500	0,1	1,932902
4,264167	0,1	1,891506
4,265833	0,1	1,898759
4,267500	0,1	1,902070
4,269167	0,1	1,882167
4,270833	0,1	1,893289
4,272500	0,1	1,864836
4,274167	0,1	1,854481
4,275833	0,1	1,827961
4,277500	0,1	1,873377
4,279167	0,1	1,849097
4,280833	0,1	1,873241
4,282500	0,1	1,813527
4,284167	0,1	1,813521
4,285833	0,1	1,801015
4,287500	0,1	1,779516
4,289167	0,1	1,816457
4,290833	0,1	1,762497
4,292500	0,1	1,795176
4,294167	0,1	1,774055
4,295833	0,1	1,753800
4,297500	0,1	1,763199
4,299167	0,1	1,738499
4,300833	0,1	1,742636
4,302500	0,1	1,687817
4,304167	0,1	1,741767
4,305833	0,1	1,711391
4,307500	0,1	1,712257
4,309167	0,1	1,701843
4,310833	0,1	1,651831
4,312500	0,1	1,670208
4,314167	0,1	1,656996
4,315833	0,1	1,683159
4,317500	0,1	1,649311
4,319167	0,1	1,642997
4,320833	0,1	1,649878
4,322500	0,1	1,639177
4,324167	0,1	1,657713
4,325833	0,1	1,619221
4,327500	0,1	1,623954
4,329167	0,1	1,639469
4,330833	0,1	1,583803
4,332500	0,1	1,584967
4,334167	0,1	1,547098
4,335833	0,1	1,543570
4,337500	0,1	1,581218
4,339167	0,1	1,577557
4,340833	0,1	1,540484
4,342500	0,1	1,558088
4,344167	0,1	1,477915
4,345833	0,1	1,549187
4,347500	0,1	1,523768
4,349167	0,1	1,476064
4,350833	0,1	1,514413
4,352500	0,1	1,488615
4,354167	0,1	1,448601
4,355833	0,1	1,461955
4,357500	0,1	1,452512
4,359167	0,1	1,420751
4,360833	0,1	1,457246
4,362500	0,1	1,400312
4,364167	0,1	1,390426
4,365833	0,1	1,400775
4,367500	0,1	1,422873
4,369167	0,1	1,384494
4,370833	0,1	1,358865
4,372500	0,1	1,382776
4,374167	0,1	1,371717
4,375833	0,1	1,381336
4,377500	0,1	1,377408
4,379167	0,1	1,365218
4,380833	0,1	1,342114
4,382500	0,1	1,362967
4,384167	0,1	1,262560
4,385833	0,1	1,301290
4,387500	0,1	1,285117
4,389167	0,1	1,284841
4,390833	0,1	1,297997
4,392500	0,1	1,291356
4,394167	0,1	1,249829
4,395833	0,1	1,252557
4,397500	0,1	1,209267
4,399167	0,1	1,245762
4,400833	0,1	1,248901
4,402500	0,1	1,210202
4,404167	0,1	1,249231
4,405833	0,1	1,200688
4,407500	0,1	1,248447
4,409167	0,1	1,172814
4,410833	0,1	1,192389
4,412500	0,1	1,181281
4,414167	0,1	1,135790
4,415833	0,1	1,167554
4,417500	0,1	1,138678
4,419167	0,1	1,180373
4,420833	0,1	1,156914
4,422500	0,1	1,151590
4,424167	0,1	1,128013
4,425833	0,1	1,094877
4,427500	0,1	1,128040
4,429167	0,1	1,071279
4,430833	0,1	1,088474
4,432500	0,1	1,053060
4,434167	0,1	1,057503
4,435833	0,1	1,062713
4,437500	0,1	1,038918
4,439167	0,1	1,049686
4,440833	0,1	1,026917
4,442500	0,1	1,022681
4,444167	0,1	1,055536
4,445833	0,1	0,976524
4,447500	0,1	0,968314
4,449167	0,1	1,013496
4,450833	0,1	0,998906
4,452500	0,1	1,003132
4,454167	0,1	1,015464
4,455833	0,1	0,980587
4,457500	0,1	0,972545
4,459167	0,1	0,969249
4,460833	0,1	0,945880
4,462500	0,1	0,934457
4,464167	0,1	0,950611
4,465833	0,1	0,929450
4,467500	0,1	0,898153
4,469167	0,1	0,943395
4,470833	0,1	0,874345
4,472500	0,1	0,890240
4,474167	0,1	0,865547
4,475833	0,1	0,899720
4,477500	0,1	0,869580
4,479167	0,1	0,878242
4,480833	0,1	0,835310
4,482500	0,1	0,865219
4,484167	0,1	0,837611
4,485833	0,1	0,856435
4,487500	0,1	0,836727
4,489167	0,1	0,822368
4,490833	0,1	0,853627
4,492500	0,1	0,847654
4,494167	0,1	0,806609
4,495833	0,1	0,819096
4,497500	0,1	0,790551
4,499167	0,1	0,822475
4,500833	0,1	0,743693
4,502500	0,1	0,769349
4,504167	0,1	0,756740
4,505833	0,1	0,756963
4,507500	0,1	0,757448
4,509167	0,1	0,777662
4,510833	0,1	0,746383
4,512500	0,1	0,751825
4,514167	0,1	0,738187
4,515833	0,1	0,689382
4,517500	0,1	0,745174
4,519167	0,1	0,699574
4,520833	0,1	0,688663
4,522500	0,1	0,706786
4,524167	0,1	0,702528
4,525833	0,1	0,699985
4,527500	0,1	0,706239
4,529167	0,1	0,639840
4,530833	0,1	0,643790
4,532500	0,1	0,646182
4,534167	0,1	0,669430
4,535833	0,1	0,652601
4,537500	0,1	0,644538
4,539167	0,1	0,638151
4,540833	0,1	0,646825
4,542500	0,1	0,652756
4,544167	0,1	0,654882
4,545833	0,1	0,650851
4,547500	0,1	0,651402
4,549167	0,1	0,604551
4,550833	0,1	0,597283
4,552500	0,1	0,569001
4,554167	0,1	0,597048
4,555833	0,1	0,592641
4,557500	0,1	0,580351
4,559167	0,1	0,540466
4,560833	0,1	0,594652
4,562500	0,1	0,562617
4,564167	0,1	0,559385
4,565833	0,1	0,547812
4,567500	0,1	0,612390
4,569167	0,1	0,544955
4,570833	0,1	0,517955
4,572500	0,1	0,567984
4,574167	0,1	0,523924
4,575833	0,1	0,553057
4,577500	0,1	0,496646
4,579167	0,1	0,533579
4,580833	0,1	0,566183
4,582500	0,1	0,501678
4,584167	0,1	0,520137
4,585833	0,1	0,450217
4,587500	0,1	0,514739
4,589167	0,1	0,462628
4,590833	0,1	0,531863
4,592500	0,1	0,511568
4,594167	0,1	0,439870
4,595833	0,1	0,508740
4,597500	0,1	0,493574
4,599167	0,1	0,493795
4,600833	0,1	0,482899
4,602500	0,1	0,440668
4,604167	0,1	0,429571
4,605833	0,1	0,449585
4,607500	0,1	0,420195
4,609167	0,1	0,440009
4,610833	0,1	0,412938
4,612500	0,1	0,451480
4,614167	0,1	0,489337
4,615833	0,1	0,465813
4,617500	0,1	0,436507
4,619167	0,1	0,396917
4,620833	0,1	0,456315
4,622500	0,1	0,424613
4,624167	0,1	0,462287
4,625833	0,1	0,435736
4,627500	0,1	0,423479
4,629167	0,1	0,366043
4,630833	0,1	0,411439
4,632500	0,1	0,400138
4,634167	0,1	0,387853
4,635833	0,1	0,413959
4,637500	0,1	0,374900
4,639167	0,1	0,440741
4,640833	0,1	0,400114
4,642500	0,1	0,410738
4,644167	0,1	0,411450
4,645833	0,1	0,381254
4,647500	0,1	0,377790
4,649167	0,1	0,357589
4,650833	0,1	0,389748
4,652500	0,1	0,417541
4,654167	0,1	0,357817
4,655833	0,1	0,361643
4,657500	0,1	0,383500
4,659167	0,1	0,342347
4,660833	0,1	0,345532
4,662500	0,1	0,380977
4,664167	0,1	0,326942
4,665833	0,1	0,347137
4,667500	0,1	0,382491
4,669167	0,1	0,339090
4,670833	0,1	0,333504
4,672500	0,1	0,339304
4,674167	0,1	0,360285
4,675833	0,1	0,346853
4,677500	0,1	0,333761
4,679167	0,1	0,315232
4,680833	0,1	0,327825
4,682500	0,1	0,331931
4,684167	0,1	0,356806
4,685833	0,1	0,312986
4,687500	0,1	0,330695
4,689167	0,1	0,288970
4,690833	0,1	0,298436
4,692500	0,1	0,323092
4,694167	0,1	0,285038
4,695833	0,1	0,343578
4,697500	0,1	0,289002
4,699167	0,1	0,285030
4,700833	0,1	0,313804
4,702500	0,1	0,333153
4,704167	0,1	0,305510
4,705833	0,1	0,353385
4,707500	0,1	0,255340
4,709167	0,1	0,267397
4,710833	0,1	0,311765
4,712500	0,1	0,289584
4,714167	0,1	0,290703
4,715833	0,1	0,292738
4,717500	0,1	0,286421
4,719167	0,1	0,269627
4,720833	0,1	0,267337
4,722500	0,1	0,271819
4,724167	0,1	0,273617
4,725833	0,1	0,273128
4,727500	0,1	0,310261
4,729167	0,1	0,266611
4,730833	0,1	0,283183
4,732500	0,1	0,273140
4,734167	0,1	0,248497
4,735833	0,1	0,267368
4,737500	0,1	0,280098
4,739167	0,1	0,269273
4,740833	0,1	0,259604
4,742500	0,1	0,252197
4,744167	0,1	0,216681
4,745833	0,1	0,242747
4,747500	0,1	0,221189
4,749167	0,1	0,249029
4,750833	0,1	0,261051
4,752500	0,1	0,230341
4,754167	0,1	0,278346
4,755833	0,1	0,253163
4,757500	0,1	0,249607
4,759167	0,1	0,219396
4,760833	0,1	0,241131
4,762500	0,1	0,220833
4,764167	0,1	0,229925
4,765833	0,1	0,223408
4,767500	0,1	0,256245
4,769167	0,1	0,264274
4,770833	0,1	0,219361
4,772500	0,1	0,226350
4,774167	0,1	0,217419
4,775833	0,1	0,208233
4,777500	0,1	0,230238
4,779167	0,1	0,238039
4,780833	0,1	0,243171
4,782500	0,1	0,238887
4,784167	0,1	0,251763
4,785833	0,1	0,223717
4,787500	0,1	0,225442
4,789167	0,1	0,242069
4,790833	0,1	0,221327
4,792500	0,1	0,228220
4,794167	0,1	0,193706
4,795833	0,1	0,225850
4,797500	0,1	0,230988
4,799167	0,1	0,201212
4,800833	0,1	0,208771
4,802500	0,1	0,205527
4,804167	0,1	0,215646
4,805833	0,1	0,210305
4,807500	0,1	0,171051
4,809167	0,1	0,223698
4,810833	0,1	0,214349
4,812500	0,1	0,195067
4,814167	0,1	0,232168
4,815833	0,1	0,160952
4,817500	0,1	0,178556
4,819167	0,1	0,167012
4,820833	0,1	0,217670
4,822500	0,1	0,185493
4,824167	0,1	0,218471
4,825833	0,1	0,199831
4,827500	0,1	0,199158
4,829167	0,1	0,154791
4,830833	0,1	0,178846
4,832500	0,1	0,173798
4,834167	0,1	0,180581
4,835833	0,1	0,197952
4,837500	0,1	0,192473
4,839167	0,1	0,182973
4,840833	0,1	0,166698
4,842500	0,1	0,211542
4,844167	0,1	0,168944
4,845833	0,1	0,179265
4,847500	0,1	0,208805
4,849167	0,1	0,163168
4,850833	0,1	0,214700
4,852500	0,1	0,173604
4,854167	0,1	0,189246
4,855833	0,1	0,174165
4,857500	0,1	0,141508
4,859167	0,1	0,163404
4,860833	0,1	0,194776
4,862500	0,1	0,162898
4,864167	0,1	0,177394
4,865833	0,1	0,151486
4,867500	0,1	0,169245
4,869167	0,1	0,148074
4,870833	0,1	0,155700
4,872500	0,1	0,163636
4,874167	0,1	0,169663
4,875833	0,1	0,117427
4,877500	0,1	0,128279
4,879167	0,1	0,153470
4,880833	0,1	0,149337
4,882500	0,1	0,164734
4,884167	0,1	0,185480
4,885833	0,1	0,145919
4,887500	0,1	0,154967
4,889167	0,1	0,201672
4,890833	0,1	0,170860
4,892500	0,1	0,164573
4,894167	0,1	0,164572
4,895833	0,1	0,169437
4,897500	0,1	0,146409
4,899167	0,1	0,171514
4,900833	0,1	0,163373
4,902500	0,1	0,175902
4,904167	0,1	0,155847
4,905833	0,1	0,143131
4,907500	0,1	0,215631
4,909167	0,1	0,152165
4,910833	0,1	0,167564
4,912500	0,1	0,176688
4,914167	0,1	0,106557
4,915833	0,1	0,159389
4,917500	0,1	0,152748
4,919167	0,1	0,183166
4,920833	0,1	0,153979
4,922500	0,1	0,190177
4,924167	0,1	0,172687
4,925833	0,1	0,179847
4,927500	0,1	0,151009
4,929167	0,1	0,156548
4,930833	0,1	0,135023
4,932500	0,1	0,148547
4,934167	0,1	0,164279
4,935833	0,1	0,173946
4,937500	0,1	0,161416
4,939167	0,1	0,154311
4,940833	0,1	0,161930
4,942500	0,1	0,197947
4,944167	0,1	0,187674
4,945833	0,1	0,242993
4,947500	0,1	0,153931
4,949167	0,1	0,173629
4,950833	0,1	0,173697
4,952500	0,1	0,208764
4,954167	0,1	0,225791
4,955833	0,1	0,194957
4,957500	0,1	0,202113
4,959167	0,1	0,159223
4,960833	0,1	0,193171
4,962500	0,1	0,244057
4,964167	0,1	0,232080
4,965833	0,1	0,237987
4,967500	0,1	0,226216
4,969167	0,1	0,221956
4,970833	0,1	0,187238
4,972500	0,1	0,229046
4,974167	0,1	0,223055
4,975833	0,1	0,253984
4,977500	0,1	0,226220
4,979167	0,1	0,222953
4,980833	0,1	0,242839
4,982500	0,1	0,236488
4,984167	0,1	0,249829
4,985833	0,1	0,284249
4,987500	0,1	0,247946
4,989167	0,1	0,277160
4,990833	0,1	0,273882
4,992500	0,1	0,202700
4,994167	0,1	0,232197
4,995833	0,1	0,285499
4,997500	0,1	0,235601
4,999167	0,1	0,276186
5,000833	0,1	0,245154
5,002500	0,1	0,272223
5,004167	0,1	0,288566
5,005833	0,1	0,321674
5,007500	0,1	0,297473
5,009167	0,1	0,316576
5,010833	0,1	0,301847
5,012500	0,1	0,369881
5,014167	0,1	0,335063
5,015833	0,1	0,335856
5,017500	0,1	0,339311
5,019167	0,1	0,346458
5,020833	0,1	0,353805
5,022500	0,1	0,365445
5,024167	0,1	0,380562
5,025833	0,1	0,368158
5,027500	0,1	0,358067
5,029167	0,1	0,392163
5,030833	0,1	0,373798
5,032500	0,1	0,404862
5,034167	0,1	0,370003
5,035833	0,1	0,434938
5,037500	0,1	0,422930
5,039167	0,1	0,438495
5,040833	0,1	0,415872
5,042500	0,1	0,419927
5,044167	0,1	0,484107
5,045833	0,1	0,467488
5,047500	0,1	0,462005
5,049167	0,1	0,477991
5,050833	0,1	0,450918
5,052500	0,1	0,449106
5,054167	0,1	0,445205
5,055833	0,1	0,508097
5,057500	0,1	0,492092
5,059167	0,1	0,515492
5,060833	0,1	0,492253
5,062500	0,1	0,512299
5,064167	0,1	0,524459
5,065833	0,1	0,529846
5,067500	0,1	0,547128
5,069167	0,1	0,513344
5,070833	0,1	0,520591
5,072500	0,1	0,569533
5,074167	0,1	0,577896
5,075833	0,1	0,563066
5,077500	0,1	0,543010
5,079167	0,1	0,584500
5,080833	0,1	0,590217
5,082500	0,1	0,571873
5,084167	0,1	0,594894
5,085833	0,1	0,609403
5,087500	0,1	0,615216
5,089167	0,1	0,580230
5,090833	0,1	0,635196
5,092500	0,1	0,573112
5,094167	0,1	0,614172
5,095833	0,1	0,592450
5,097500	0,1	0,633233
5,099167	0,1	0,640148
5,100833	0,1	0,634441
5,102500	0,1	0,647150
5,104167	0,1	0,638152
5,105833	0,1	0,653173
5,107500	0,1	0,622349
5,109167	0,1	0,642270
5,110833	0,1	0,617803
5,112500	0,1	0,654365
5,114167	0,1	0,657664
5,115833	0,1	0,681138
5,117500	0,1	0,671737
5,119167	0,1	0,654248
5,120833	0,1	0,660917
5,122500	0,1	0,655758
5,124167	0,1	0,672983
5,125833	0,1	0,647473
5,127500	0,1	0,662342
5,129167	0,1	0,670761
5,130833	0,1	0,675951
5,132500	0,1	0,669372
5,134167	0,1	0,657572
5,135833	0,1	0,697460
5,137500	0,1	0,664217
5,139167	0,1	0,693039
5,140833	0,1	0,666992
5,142500	0,1	0,689207
5,144167	0,1	0,657672
5,145833	0,1	0,707489
5,147500	0,1	0,676547
5,149167	0,1	0,712393
5,150833	0,1	0,611209
5,152500	0,1	0,685098
5,154167	0,1	0,651736
5,155833	0,1	0,630478
5,157500	0,1	0,626310
5,159167	0,1	0,636503
5,160833	0,1	0,661238
5,162500	0,1	0,667694
5,164167	0,1	0,687860
5,165833	0,1	0,634133
5,167500	0,1	0,611482
5,169167	0,1	0,613216
5,170833	0,1	0,663524
5,172500	0,1	0,644506
5,174167	0,1	0,626087
5,175833	0,1	0,606706
5,177500	0,1	0,654905
5,179167	0,1	0,629995
5,180833	0,1	0,621025
5,182500	0,1	0,591065
5,184167	0,1	0,577194
5,185833	0,1	0,616981
5,187500	0,1	0,589032
5,189167	0,1	0,608531
5,190833	0,1	0,574327
5,192500	0,1	0,594116
5,194167	0,1	0,553656
5,195833	0,1	0,545683
5,197500	0,1	0,564154
5,199167	0,1	0,560969
5,200833	0,1	0,549134
5,202500	0,1	0,567058
5,204167	0,1	0,544622
5,205833	0,1	0,544358
5,207500	0,1	0,534913
5,209167	0,1	0,537296
5,210833	0,1	0,520467
5,212500	0,1	0,561439
5,214167	0,1	0,535786
5,215833	0,1	0,570535
5,217500	0,1	0,524667
5,219167	0,1	0,520400
5,220833	0,1	0,509438
5,222500	0,1	0,484127
5,224167	0,1	0,482961
5,225833	0,1	0,474097
5,227500	0,1	0,486763
5,229167	0,1	0,482802
5,230833	0,1	0,453468
5,232500	0,1	0,499042
5,234167	0,1	0,475164
5,235833	0,1	0,446696
5,237500	0,1	0,428635
5,239167	0,1	0,423092
5,240833	0,1	0,489428
5,242500	0,1	0,434646
5,244167	0,1	0,425993
5,245833	0,1	0,427472
5,247500	0,1	0,451229
5,249167	0,1	0,434249
5,250833	0,1	0,391084
5,252500	0,1	0,426887
5,254167	0,1	0,431597
5,255833	0,1	0,404848
5,257500	0,1	0,382989
5,259167	0,1	0,418181
5,260833	0,1	0,370100
5,262500	0,1	0,389395
5,264167	0,1	0,380796
5,265833	0,1	0,402998
5,267500	0,1	0,327266
5,269167	0,1	0,340138
5,270833	0,1	0,295480
5,272500	0,1	0,344289
5,274167	0,1	0,354486
5,275833	0,1	0,365345
5,277500	0,1	0,346048
5,279167	0,1	0,320645
5,280833	0,1	0,323798
5,282500	0,1	0,324380
5,284167	0,1	0,331477
5,285833	0,1	0,289615
5,287500	0,1	0,259434
5,289167	0,1	0,324563
5,290833	0,1	0,266569
5,292500	0,1	0,288148
5,294167	0,1	0,263465
5,295833	0,1	0,273678
5,297500	0,1	0,256764
5,299167	0,1	0,273740
5,300833	0,1	0,283893
5,302500	0,1	0,267721
5,304167	0,1	0,279644
5,305833	0,1	0,226832
5,307500	0,1	0,252404
5,309167	0,1	0,240384
5,310833	0,1	0,219129
5,312500	0,1	0,259846
5,314167	0,1	0,200535
5,315833	0,1	0,219914
5,317500	0,1	0,238997
5,319167	0,1	0,234202
5,320833	0,1	0,226240
5,322500	0,1	0,251443
5,324167	0,1	0,225069
5,325833	0,1	0,221790
5,327500	0,1	0,200250
5,329167	0,1	0,200786
5,330833	0,1	0,218096
5,332500	0,1	0,204493
5,334167	0,1	0,211286
5,335833	0,1	0,176017
5,337500	0,1	0,194692
5,339167	0,1	0,199938
5,340833	0,1	0,156912
5,342500	0,1	0,201168
5,344167	0,1	0,164440
5,345833	0,1	0,169892
5,347500	0,1	0,152106
5,349167	0,1	0,164217
5,350833	0,1	0,143148
5,352500	0,1	0,188608
5,354167	0,1	0,153918
5,355833	0,1	0,152606
5,357500	0,1	0,120080
5,359167	0,1	0,146256
5,360833	0,1	0,150560
5,362500	0,1	0,177517
5,364167	0,1	0,124532
5,365833	0,1	0,144035
5,367500	0,1	0,150190
5,369167	0,1	0,126726
5,370833	0,1	0,150201
5,372500	0,1	0,146492
5,374167	0,1	0,104719
5,375833	0,1	0,140306
5,377500	0,1	0,110578
5,379167	0,1	0,080733
5,380833	0,1	0,116156
5,382500	0,1	0,111342
5,384167	0,1	0,109408
5,385833	0,1	0,094010
5,387500	0,1	0,105437
5,389167	0,1	0,079194
5,390833	0,1	0,097721
5,392500	0,1	0,085532
5,394167	0,1	0,092841
5,395833	0,1	0,085507
5,397500	0,1	0,080102
5,399167	0,1	0,106886
5,400833	0,1	0,043478
5,402500	0,1	0,064593
5,404167	0,1	0,106695
5,405833	0,1	0,055693
5,407500	0,1	0,068667
5,409167	0,1	0,088596
5,410833	0,1	0,029864
5,412500	0,1	0,055800
5,414167	0,1	0,036963
5,415833	0,1	0,069140
5,417500	0,1	0,050886
5,419167	0,1	0,090587
5,420833	0,1	0,052219
5,422500	0,1	0,088303
5,424167	0,1	0,014823
5,425833	0,1	0,047692
5,427500	0,1	0,020153
5,429167	0,1	0,073645
5,430833	0,1	0,054003
5,432500	0,1	0,052772
5,434167	0,1	0,038520
5,435833	0,1	0,037892
5,437500	0,1	0,035546
5,439167	0,1	0,041194
5,440833	0,1	0,003801
5,442500	0,1	0,047483
5,444167	0,1	0,012944
5,445833	0,1	0,047879
5,447500	0,1	0,085931
5,449167	0,1	0,028929
5,450833	0,1	-0,000190
5,452500	0,1	0,050557
5,454167	0,1	0,005776
5,455833	0,1	0,052448
5,457500	0,1	0,050278
5,459167	0,1	-0,026694
5,460833	0,1	-0,014934
5,462500	0,1	0,024771
5,464167	0,1	-0,011037
5,465833	0,1	0,047853
5,467500	0,1	-0,022520
5,469167	0,1	0,039685
5,470833	0,1	-0,003056
5,472500	0,1	0,015465
5,474167	0,1	0,021328
5,475833	0,1	-0,010953
5,477500	0,1	0,008649
5,479167	0,1	-0,036863
5,480833	0,1	-0,042522
5,482500	0,1	0,015124
5,484167	0,1	0,009237
5,485833	0,1	-0,011124
5,487500	0,1	0,005077
5,489167	0,1	-0,009274
5,490833	0,1	-0,014162
5,492500	0,1	-0,043576
5,494167	0,1	0,000041
5,495833	0,1	-0,000654
5,497500	0,1	-0,027661
5,499167	0,1	-0,045845
5,500833	0,1	-0,018656
5,502500	0,1	-0,007702
5,504167	0,1	-0,004355
5,505833	0,1	-0,012353
5,507500	0,1	-0,011129
5,509167	0,1	-0,072057
5,510833	0,1	-0,008630
5,512500	0,1	-0,020206
5,514167	0,1	-0,058826
5,515833	0,1	-0,016187
5,517500	0,1	-0,061067
5,519167	0,1	0,004461
5,520833	0,1	-0,039540
5,522500	0,1	-0,050498
5,524167	0,1	-0,032514
5,525833	0,1	-0,000662
5,527500	0,1	-0,015821
5,529167	0,1	-0,012250
5,530833	0,1	-0,026479
5,532500	0,1	-0,004005
5,534167	0,1	-0,041828
5,535833	0,1	-0,048215
5,537500	0,1	-0,000501
5,539167	0,1	-0,018771
5,540833	0,1	-0,024091
5,542500	0,1	-0,023906
5,544167	0,1	-0,029807
5,545833	0,1	-0,034335
5,547500	0,1	-0,067572
5,549167	0,1	-0,026203
5,550833	0,1	-0,087990
5,552500	0,1	-0,064490
5,554167	0,1	-0,012594
5,555833	0,1	-0,098828
5,557500	0,1	-0,065515
5,559167	0,1	-0,066998
5,560833	0,1	-0,062639
5,562500	0,1	-0,048802
5,564167	0,1	-0,039887
5,565833	0,1	-0,039303
5,567500	0,1	-0,088178
5,569167	0,1	-0,048684
5,570833	0,1	-0,091754
5,572500	0,1	-0,045111
5,574167	0,1	-0,061866
5,575833	0,1	-0,065878
5,577500	0,1	-0,037253
5,579167	0,1	-0,040528
5,580833	0,1	-0,060721
5,582500	0,1	-0,080167
5,584167	0,1	-0,033726
5,585833	0,1	-0,093354
5,587500	0,1	-0,071470
5,589167	0,1	-0,022816
5,590833	0,1	-0,069088
5,592500	0,1	-0,051297
5,594167	0,1	-0,074808
5,595833	0,1	-0,053230
5,597500	0,1	-0,041424
5,599167	0,1	-0,049024
5,600833	0,1	-0,044066
5,602500	0,1	-0,049421
5,604167	0,1	-0,059287
5,605833	0,1	-0,050006
5,607500	0,1	-0,028983
5,609167	0,1	-0,051473
5,610833	0,1	-0,050710
5,612500	0,1	-0,022229
5,614167	0,1	-0,067446
5,615833	0,1	-0,067642
5,617500	0,1	-0,036359
5,619167	0,1	-0,080991
5,620833	0,1	-0,095749
5,622500	0,1	-0,088254
5,624167	0,1	-0,050843
5,625833	0,1	-0,079167
5,627500	0,1	-0,069931
5,629167	0,1	-0,067415
5,630833	0,1	-0,082637
5,632500	0,1	-0,075232
5,634167	0,1	-0,039231
5,635833	0,1	-0,072601
5,637500	0,1	-0,084801
5,639167	0,1	-0,025271
5,640833	0,1	-0,047981
5,642500	0,1	-0,056629
5,644167	0,1	-0,066600
5,645833	0,1	-0,063427
5,647500	0,1	-0,076285
5,649167	0,1	-0,060878
5,650833	0,1	-0,048553
5,652500	0,1	-0,087598
5,654167	0,1	-0,063536
5,655833	0,1	-0,043482
5,657500	0,1	-0,100396
5,659167	0,1	-0,068648
5,660833	0,1	-0,083827
5,662500	0,1	-0,064513
5,664167	0,1	-0,079462
5,665833	0,1	-0,079280
5,667500	0,1	-0,056719
5,669167	0,1	-0,058211
5,670833	0,1	-0,073022
5,672500	0,1	-0,025311
5,674167	0,1	-0,047337
5,675833	0,1	-0,053491
5,677500	0,1	-0,054884
5,679167	0,1	-0,044750
5,680833	0,1	-0,052827
5,682500	0,1	-0,032243
5,684167	0,1	-0,045926
5,685833	0,1	-0,058271
5,687500	0,1	-0,024912
5,689167	0,1	-0,023368
5,690833	0,1	-0,064246
5,692500	0,1	-0,039267
5,694167	0,1	-0,062714
5,695833	0,1	-0,052021
5,697500	0,1	-0,067391
5,699167	0,1	-0,047639
5,700833	0,1	-0,060141
5,702500	0,1	-0,032744
5,704167	0,1	-0,040881
5,705833	0,1	-0,066682
5,707500	0,1	-0,043279
5,709167	0,1	-0,042567
5,710833	0,1	-0,020504
5,712500	0,1	-0,061836
5,714167	0,1	-0,051085
5,715833	0,1	-0,035380
5,717500	0,1	-0,046801
5,719167	0,1	0,000165
5,720833	0,1	-0,028514
5,722500	0,1	-0,039072
5,724167	0,1	-0,030122
5,725833	0,1	-0,044204
5,727500	0,1	-0,061656
5,729167	0,1	-0,022045
5,730833	0,1	-0,054815
5,732500	0,1	-0,065336
5,734167	0,1	-0,004453
5,735833	0,1	-0,027848
5,737500	0,1	-0,036644
5,739167	0,1	-0,037766
5,740833	0,1	-0,037952
5,742500	0,1	-0,017345
5,744167	0,1	-0,069376
5,745833	0,1	-0,022277
5,747500	0,1	-0,028705
5,749167	0,1	-0,024156
5,750833	0,1	-0,023115
5,752500	0,1	-0,025548
5,754167	0,1	-0,002530
5,755833	0,1	-0,020267
5,757500	0,1	-0,023305
5,759167	0,1	-0,021059
5,760833	0,1	-0,073203
5,762500	0,1	-0,014488
5,764167	0,1	-0,021785
5,765833	0,1	-0,043392
5,767500	0,1	0,007023
5,769167	0,1	-0,013700
5,770833	0,1	-0,052323
5,772500	0,1	-0,028255
5,774167	0,1	-0,038366
5,775833	0,1	-0,067969
5,777500	0,1	-0,032164
5,779167	0,1	-0,051226
5,780833	0,1	-0,058314
5,782500	0,1	-0,017870
5,784167	0,1	-0,014475
5,785833	0,1	-0,020123
5,787500	0,1	-0,020542
5,789167	0,1	-0,015720
5,790833	0,1	-0,009758
5,792500	0,1	-0,022490
5,794167	0,1	-0,031012
5,795833	0,1	-0,039549
5,797500	0,1	-0,024326
5,799167	0,1	-0,042749
5,800833	0,1	-0,044103
5,802500	0,1	-0,063421
5,804167	0,1	-0,025661
5,805833	0,1	-0,021206
5,807500	0,1	-0,018277
5,809167	0,1	-0,033732
5,810833	0,1	-0,023703
5,812500	0,1	-0,010755
5,814167	0,1	-0,004916
5,815833	0,1	-0,018168
5,817500	0,1	-0,023428
5,819167	0,1	-0,001180
5,820833	0,1	-0,047065
5,822500	0,1	-0,013878
5,824167	0,1	0,002500
5,825833	0,1	-0,006471
5,827500	0,1	-0,001216
5,829167	0,1	-0,047207
5,830833	0,1	-0,045892
5,832500	0,1	-0,053329
5,834167	0,1	-0,050463
5,835833	0,1	-0,008478
5,837500	0,1	-0,040169
5,839167	0,1	-0,062009
5,840833	0,1	-0,008814
5,842500	0,1	-0,009091
5,844167	0,1	-0,020828
5,845833	0,1	-0,068419
5,847500	0,1	-0,025142
5,849167	0,1	-0,024198
5,850833	0,1	-0,013126
5,852500	0,1	-0,040481
5,854167	0,1	-0,038721
5,855833	0,1	-0,044082
5,857500	0,1	-0,068015
5,859167	0,1	-0,049571
5,860833	0,1	-0,061991
5,862500	0,1	-0,032411
5,864167	0,1	-0,030681
5,865833	0,1	-0,020003
5,867500	0,1	-0,024197
5,869167	0,1	-0,041689
5,870833	0,1	-0,050498
5,872500	0,1	-0,021194
5,874167	0,1	-0,074115
5,875833	0,1	-0,058691
5,877500	0,1	-0,078693
5,879167	0,1	-0,046688
5,880833	0,1	-0,038660
5,882500	0,1	-0,062652
5,884167	0,1	-0,030355
5,885833	0,1	-0,057517
5,887500	0,1	-0,073145
5,889167	0,1	-0,051714
5,890833	0,1	-0,046723
5,892500	0,1	-0,071731
5,894167	0,1	-0,071841
5,895833	0,1	-0,048494
5,897500	0,1	-0,061904
5,899167	0,1	-0,039160
5,900833	0,1	-0,078731
5,902500	0,1	-0,080815
5,904167	0,1	-0,022218
5,905833	0,1	-0,095009
5,907500	0,1	-0,086384
5,909167	0,1	-0,056930
5,910833	0,1	-0,066186
5,912500	0,1	-0,080998
5,914167	0,1	-0,060001
5,915833	0,1	-0,063257
5,917500	0,1	-0,078509
5,919167	0,1	-0,076598
5,920833	0,1	-0,059397
5,922500	0,1	-0,057524
5,924167	0,1	-0,057382
5,925833	0,1	-0,053370
5,927500	0,1	-0,082530
5,929167	0,1	-0,017191
5,930833	0,1	-0,104790
5,932500	0,1	-0,092535
5,934167	0,1	-0,095839
5,935833	0,1	-0,023300
5,937500	0,1	-0,083650
5,939167	0,1	-0,062663
5,940833	0,1	-0,075455
5,942500	0,1	-0,064383
5,944167	0,1	-0,034739
5,945833	0,1	-0,065765
5,947500	0,1	-0,065544
5,949167	0,1	-0,084532
5,950833	0,1	-0,085993
5,952500	0,1	-0,095688
5,954167	0,1	-0,057119
5,955833	0,1	-0,072085
5,957500	0,1	-0,055471
5,959167	0,1	-0,087600
5,960833	0,1	-0,097724
5,962500	0,1	-0,081649
5,964167	0,1	-0,104242
5,965833	0,1	-0,045758
5,967500	0,1	-0,110734
5,969167	0,1	-0,068297
5,970833	0,1	-0,090285
5,972500	0,1	-0,072051
5,974167	0,1	-0,043236
5,975833	0,1	-0,099999
5,977500	0,1	-0,054172
5,979167	0,1	-0,089593
5,980833	0,1	-0,047562
5,982500	0,1	-0,101701
5,984167	0,1	-0,090541
5,985833	0,1	-0,116354
5,987500	0,1	-0,096648
5,989167	0,1	-0,107342
5,990833	0,1	-0,084579
5,992500	0,1	-0,093050
5,994167	0,1	-0,098662
5,995833	0,1	-0,100842
5,997500	0,1	-0,091078
5,999167	0,1	-0,091579
6,000833	0,1	-0,113717
