File Path	chrom://chromeleon01/ikbm_chromeleon/2022/Rezex/Esteban/220612_chitin_4_7.seq/110.smp/UV_VIS_1.channel/UV_VIS_1.chm
Channel	UV_VIS_1

Injection Information:
Data Vault	ikbm_chromeleon
Injection	7_24h-NT_2
Injection Number	26
Position	RC6
Comment	
Processing Method	New ProcMethod
Instrument Method	Short_Rezex_6min_194nm
Type	Unknown
Status	Finished
Injection Date	12.06.2022
Injection Time	19:56:08
Injection Volume (µl)	8,000
Dilution Factor	1,0000
Weight	1,0000

Chromatogram Data Information:
Time Min. (min)	0,000833
Time Max. (min)	6,000833
Data Points	3601
Detector	UV
Generating Data System	Chromeleon 7.2.9.11323
Exporting Data System	Chromeleon 7.2.9.0
Operator	Instrument Controller
Signal Quantity	Absorbance
Signal Unit	mAU
Signal Min.	-0,111165
Signal Max.	123,994562
Channel	UV_VIS_1
Driver Name	VWD3000.dll
Channel Type	Evaluation
Min. Step (s)	0,1
Max. Step (s)	0,1
Average Step (s)	0,1

Signal Parameter Information:
Signal Info	WVL:194 nm

Chromatogram Data:
Time (min)	Step (s)	Value (mAU)
0,000833	n.a.	-0,076035
0,002500	0,1	-0,068034
0,004167	0,1	-0,060408
0,005833	0,1	-0,044077
0,007500	0,1	-0,030318
0,009167	0,1	-0,074320
0,010833	0,1	-0,042396
0,012500	0,1	-0,013905
0,014167	0,1	-0,035631
0,015833	0,1	-0,047185
0,017500	0,1	-0,041770
0,019167	0,1	-0,082298
0,020833	0,1	-0,049921
0,022500	0,1	-0,051345
0,024167	0,1	-0,047295
0,025833	0,1	-0,064602
0,027500	0,1	-0,035203
0,029167	0,1	-0,048914
0,030833	0,1	-0,048996
0,032500	0,1	-0,062478
0,034167	0,1	-0,088391
0,035833	0,1	-0,101674
0,037500	0,1	-0,074294
0,039167	0,1	-0,092089
0,040833	0,1	-0,111165
0,042500	0,1	-0,069929
0,044167	0,1	-0,082490
0,045833	0,1	-0,083615
0,047500	0,1	-0,079045
0,049167	0,1	-0,060492
0,050833	0,1	-0,099735
0,052500	0,1	-0,035546
0,054167	0,1	-0,035592
0,055833	0,1	-0,063145
0,057500	0,1	-0,038757
0,059167	0,1	-0,070688
0,060833	0,1	-0,068075
0,062500	0,1	-0,062756
0,064167	0,1	-0,062797
0,065833	0,1	-0,042039
0,067500	0,1	-0,088598
0,069167	0,1	-0,068742
0,070833	0,1	-0,056774
0,072500	0,1	-0,046838
0,074167	0,1	-0,046588
0,075833	0,1	-0,064390
0,077500	0,1	-0,085233
0,079167	0,1	-0,071793
0,080833	0,1	-0,050458
0,082500	0,1	-0,029155
0,084167	0,1	-0,071135
0,085833	0,1	-0,002215
0,087500	0,1	-0,027256
0,089167	0,1	-0,012862
0,090833	0,1	-0,043649
0,092500	0,1	-0,044759
0,094167	0,1	-0,015028
0,095833	0,1	-0,048195
0,097500	0,1	-0,037448
0,099167	0,1	-0,038627
0,100833	0,1	-0,045860
0,102500	0,1	-0,094349
0,104167	0,1	-0,069368
0,105833	0,1	-0,039464
0,107500	0,1	-0,066216
0,109167	0,1	-0,062606
0,110833	0,1	-0,054506
0,112500	0,1	-0,100702
0,114167	0,1	-0,096568
0,115833	0,1	-0,080317
0,117500	0,1	-0,088288
0,119167	0,1	-0,071088
0,120833	0,1	-0,059244
0,122500	0,1	-0,065558
0,124167	0,1	-0,098862
0,125833	0,1	-0,078678
0,127500	0,1	-0,065290
0,129167	0,1	-0,050808
0,130833	0,1	-0,062231
0,132500	0,1	-0,091318
0,134167	0,1	-0,035977
0,135833	0,1	-0,071579
0,137500	0,1	-0,048254
0,139167	0,1	-0,039335
0,140833	0,1	-0,076335
0,142500	0,1	-0,042211
0,144167	0,1	-0,067778
0,145833	0,1	-0,078274
0,147500	0,1	-0,039115
0,149167	0,1	-0,074985
0,150833	0,1	-0,043771
0,152500	0,1	-0,068026
0,154167	0,1	-0,060382
0,155833	0,1	-0,051055
0,157500	0,1	-0,042329
0,159167	0,1	-0,012242
0,160833	0,1	-0,030478
0,162500	0,1	-0,056509
0,164167	0,1	-0,066494
0,165833	0,1	-0,038324
0,167500	0,1	-0,025704
0,169167	0,1	-0,045771
0,170833	0,1	-0,048351
0,172500	0,1	-0,021594
0,174167	0,1	-0,033991
0,175833	0,1	-0,072203
0,177500	0,1	-0,040320
0,179167	0,1	-0,034473
0,180833	0,1	-0,032082
0,182500	0,1	-0,035839
0,184167	0,1	-0,056494
0,185833	0,1	-0,049791
0,187500	0,1	-0,051114
0,189167	0,1	-0,043579
0,190833	0,1	-0,046711
0,192500	0,1	-0,017395
0,194167	0,1	-0,041429
0,195833	0,1	-0,050344
0,197500	0,1	-0,037156
0,199167	0,1	-0,055231
0,200833	0,1	-0,022654
0,202500	0,1	-0,005610
0,204167	0,1	-0,028042
0,205833	0,1	-0,064968
0,207500	0,1	0,000074
0,209167	0,1	-0,028023
0,210833	0,1	-0,052670
0,212500	0,1	-0,033002
0,214167	0,1	-0,047952
0,215833	0,1	-0,051803
0,217500	0,1	-0,053946
0,219167	0,1	-0,020597
0,220833	0,1	-0,063678
0,222500	0,1	-0,037011
0,224167	0,1	-0,055372
0,225833	0,1	-0,047524
0,227500	0,1	-0,043076
0,229167	0,1	-0,031836
0,230833	0,1	-0,023688
0,232500	0,1	-0,042012
0,234167	0,1	-0,059052
0,235833	0,1	0,017196
0,237500	0,1	-0,049545
0,239167	0,1	-0,024233
0,240833	0,1	-0,003158
0,242500	0,1	-0,060640
0,244167	0,1	-0,023423
0,245833	0,1	-0,017017
0,247500	0,1	-0,030728
0,249167	0,1	-0,023750
0,250833	0,1	0,007440
0,252500	0,1	-0,073289
0,254167	0,1	-0,028685
0,255833	0,1	-0,049284
0,257500	0,1	-0,041250
0,259167	0,1	-0,031129
0,260833	0,1	-0,026970
0,262500	0,1	-0,009351
0,264167	0,1	-0,047161
0,265833	0,1	-0,007238
0,267500	0,1	-0,018092
0,269167	0,1	-0,001056
0,270833	0,1	-0,073688
0,272500	0,1	-0,056069
0,274167	0,1	-0,043618
0,275833	0,1	-0,017728
0,277500	0,1	-0,040475
0,279167	0,1	0,018635
0,280833	0,1	-0,028081
0,282500	0,1	-0,043343
0,284167	0,1	-0,038628
0,285833	0,1	-0,034763
0,287500	0,1	-0,035716
0,289167	0,1	-0,009229
0,290833	0,1	-0,049217
0,292500	0,1	0,010072
0,294167	0,1	-0,025468
0,295833	0,1	-0,001974
0,297500	0,1	-0,031076
0,299167	0,1	-0,019241
0,300833	0,1	-0,004339
0,302500	0,1	-0,023014
0,304167	0,1	-0,026741
0,305833	0,1	-0,043257
0,307500	0,1	-0,012638
0,309167	0,1	-0,036857
0,310833	0,1	-0,039315
0,312500	0,1	-0,014259
0,314167	0,1	-0,024496
0,315833	0,1	-0,017724
0,317500	0,1	-0,026491
0,319167	0,1	-0,036506
0,320833	0,1	-0,010225
0,322500	0,1	-0,008202
0,324167	0,1	-0,013273
0,325833	0,1	-0,015393
0,327500	0,1	-0,023870
0,329167	0,1	-0,007543
0,330833	0,1	0,024294
0,332500	0,1	-0,025025
0,334167	0,1	0,014170
0,335833	0,1	-0,029284
0,337500	0,1	-0,062314
0,339167	0,1	-0,016197
0,340833	0,1	0,007856
0,342500	0,1	-0,030825
0,344167	0,1	-0,027596
0,345833	0,1	0,007147
0,347500	0,1	-0,044871
0,349167	0,1	-0,016086
0,350833	0,1	-0,017846
0,352500	0,1	-0,040327
0,354167	0,1	-0,000689
0,355833	0,1	-0,028171
0,357500	0,1	-0,017557
0,359167	0,1	0,002786
0,360833	0,1	-0,033051
0,362500	0,1	-0,045049
0,364167	0,1	-0,045713
0,365833	0,1	-0,001689
0,367500	0,1	0,000546
0,369167	0,1	-0,035942
0,370833	0,1	0,030541
0,372500	0,1	-0,017773
0,374167	0,1	-0,006586
0,375833	0,1	-0,006998
0,377500	0,1	0,008502
0,379167	0,1	-0,012687
0,380833	0,1	-0,013168
0,382500	0,1	0,014132
0,384167	0,1	-0,027207
0,385833	0,1	0,001704
0,387500	0,1	0,017898
0,389167	0,1	0,017775
0,390833	0,1	0,014100
0,392500	0,1	0,005059
0,394167	0,1	0,009814
0,395833	0,1	-0,010214
0,397500	0,1	0,050183
0,399167	0,1	0,016600
0,400833	0,1	-0,009359
0,402500	0,1	-0,023145
0,404167	0,1	0,006276
0,405833	0,1	0,020162
0,407500	0,1	-0,025108
0,409167	0,1	-0,002742
0,410833	0,1	0,030176
0,412500	0,1	-0,048209
0,414167	0,1	0,012210
0,415833	0,1	-0,007971
0,417500	0,1	-0,026010
0,419167	0,1	0,037089
0,420833	0,1	-0,005637
0,422500	0,1	0,023588
0,424167	0,1	0,008696
0,425833	0,1	0,008465
0,427500	0,1	-0,011961
0,429167	0,1	0,012014
0,430833	0,1	-0,000760
0,432500	0,1	-0,011029
0,434167	0,1	0,037468
0,435833	0,1	0,046517
0,437500	0,1	0,016431
0,439167	0,1	0,020413
0,440833	0,1	0,000197
0,442500	0,1	-0,002092
0,444167	0,1	0,005055
0,445833	0,1	0,011081
0,447500	0,1	0,035270
0,449167	0,1	0,024783
0,450833	0,1	-0,011747
0,452500	0,1	0,033852
0,454167	0,1	-0,017418
0,455833	0,1	0,055792
0,457500	0,1	0,040412
0,459167	0,1	-0,019224
0,460833	0,1	0,032957
0,462500	0,1	0,025903
0,464167	0,1	0,040676
0,465833	0,1	0,005438
0,467500	0,1	0,015882
0,469167	0,1	0,055468
0,470833	0,1	0,048454
0,472500	0,1	0,022478
0,474167	0,1	0,018899
0,475833	0,1	0,019894
0,477500	0,1	0,033091
0,479167	0,1	-0,021282
0,480833	0,1	0,001600
0,482500	0,1	0,065647
0,484167	0,1	0,041121
0,485833	0,1	-0,003246
0,487500	0,1	0,020452
0,489167	0,1	0,043936
0,490833	0,1	0,027713
0,492500	0,1	0,034506
0,494167	0,1	0,029021
0,495833	0,1	-0,000215
0,497500	0,1	0,059102
0,499167	0,1	0,059988
0,500833	0,1	0,065433
0,502500	0,1	0,031583
0,504167	0,1	0,064510
0,505833	0,1	0,051864
0,507500	0,1	-0,012509
0,509167	0,1	0,031483
0,510833	0,1	0,010941
0,512500	0,1	0,054263
0,514167	0,1	0,030772
0,515833	0,1	0,034796
0,517500	0,1	-0,007383
0,519167	0,1	0,033209
0,520833	0,1	-0,003248
0,522500	0,1	0,017999
0,524167	0,1	0,067833
0,525833	0,1	0,003158
0,527500	0,1	0,048504
0,529167	0,1	0,053273
0,530833	0,1	0,047560
0,532500	0,1	0,026426
0,534167	0,1	0,051503
0,535833	0,1	0,047394
0,537500	0,1	0,034529
0,539167	0,1	0,039328
0,540833	0,1	0,024346
0,542500	0,1	0,079743
0,544167	0,1	0,043992
0,545833	0,1	0,041263
0,547500	0,1	0,050675
0,549167	0,1	0,037524
0,550833	0,1	0,016033
0,552500	0,1	0,066357
0,554167	0,1	0,048749
0,555833	0,1	0,068235
0,557500	0,1	0,058244
0,559167	0,1	0,065952
0,560833	0,1	0,006546
0,562500	0,1	0,050272
0,564167	0,1	0,061586
0,565833	0,1	0,045442
0,567500	0,1	0,055954
0,569167	0,1	0,057722
0,570833	0,1	0,047271
0,572500	0,1	0,073493
0,574167	0,1	0,073936
0,575833	0,1	0,060595
0,577500	0,1	0,064208
0,579167	0,1	0,085838
0,580833	0,1	0,019580
0,582500	0,1	0,089674
0,584167	0,1	0,047466
0,585833	0,1	0,071186
0,587500	0,1	0,049062
0,589167	0,1	0,082555
0,590833	0,1	0,042268
0,592500	0,1	0,060752
0,594167	0,1	0,009722
0,595833	0,1	0,047634
0,597500	0,1	0,087623
0,599167	0,1	0,047798
0,600833	0,1	0,075488
0,602500	0,1	0,098167
0,604167	0,1	0,057588
0,605833	0,1	0,067740
0,607500	0,1	0,053527
0,609167	0,1	0,069567
0,610833	0,1	0,041331
0,612500	0,1	0,066303
0,614167	0,1	0,115873
0,615833	0,1	0,087600
0,617500	0,1	0,073752
0,619167	0,1	0,068576
0,620833	0,1	0,070402
0,622500	0,1	0,084118
0,624167	0,1	0,078948
0,625833	0,1	0,066934
0,627500	0,1	0,058599
0,629167	0,1	0,061236
0,630833	0,1	0,097251
0,632500	0,1	0,082356
0,634167	0,1	0,122006
0,635833	0,1	0,118401
0,637500	0,1	0,111414
0,639167	0,1	0,017340
0,640833	0,1	0,081528
0,642500	0,1	0,119137
0,644167	0,1	0,115447
0,645833	0,1	0,094956
0,647500	0,1	0,094037
0,649167	0,1	0,106216
0,650833	0,1	0,088949
0,652500	0,1	0,084787
0,654167	0,1	0,066790
0,655833	0,1	0,101950
0,657500	0,1	0,099381
0,659167	0,1	0,066170
0,660833	0,1	0,104297
0,662500	0,1	0,130802
0,664167	0,1	0,109297
0,665833	0,1	0,117918
0,667500	0,1	0,101088
0,669167	0,1	0,150422
0,670833	0,1	0,107142
0,672500	0,1	0,121117
0,674167	0,1	0,112522
0,675833	0,1	0,153087
0,677500	0,1	0,106086
0,679167	0,1	0,125112
0,680833	0,1	0,140040
0,682500	0,1	0,125367
0,684167	0,1	0,149413
0,685833	0,1	0,157418
0,687500	0,1	0,161553
0,689167	0,1	0,141668
0,690833	0,1	0,171743
0,692500	0,1	0,178309
0,694167	0,1	0,150463
0,695833	0,1	0,141209
0,697500	0,1	0,152946
0,699167	0,1	0,093490
0,700833	0,1	0,165907
0,702500	0,1	0,142690
0,704167	0,1	0,135408
0,705833	0,1	0,141181
0,707500	0,1	0,203977
0,709167	0,1	0,177532
0,710833	0,1	0,146990
0,712500	0,1	0,187639
0,714167	0,1	0,189167
0,715833	0,1	0,189608
0,717500	0,1	0,164185
0,719167	0,1	0,166860
0,720833	0,1	0,177878
0,722500	0,1	0,141237
0,724167	0,1	0,214121
0,725833	0,1	0,176600
0,727500	0,1	0,201494
0,729167	0,1	0,242341
0,730833	0,1	0,200347
0,732500	0,1	0,203825
0,734167	0,1	0,166744
0,735833	0,1	0,208872
0,737500	0,1	0,230212
0,739167	0,1	0,210794
0,740833	0,1	0,252678
0,742500	0,1	0,265289
0,744167	0,1	0,234002
0,745833	0,1	0,214080
0,747500	0,1	0,271243
0,749167	0,1	0,269995
0,750833	0,1	0,217753
0,752500	0,1	0,266569
0,754167	0,1	0,265937
0,755833	0,1	0,241281
0,757500	0,1	0,229094
0,759167	0,1	0,257866
0,760833	0,1	0,219394
0,762500	0,1	0,277108
0,764167	0,1	0,231099
0,765833	0,1	0,252066
0,767500	0,1	0,284649
0,769167	0,1	0,274256
0,770833	0,1	0,269932
0,772500	0,1	0,245567
0,774167	0,1	0,280020
0,775833	0,1	0,266774
0,777500	0,1	0,250785
0,779167	0,1	0,254787
0,780833	0,1	0,271759
0,782500	0,1	0,285083
0,784167	0,1	0,306737
0,785833	0,1	0,294823
0,787500	0,1	0,290699
0,789167	0,1	0,292758
0,790833	0,1	0,292949
0,792500	0,1	0,256857
0,794167	0,1	0,244275
0,795833	0,1	0,263998
0,797500	0,1	0,279570
0,799167	0,1	0,277186
0,800833	0,1	0,253821
0,802500	0,1	0,265870
0,804167	0,1	0,267969
0,805833	0,1	0,272445
0,807500	0,1	0,252594
0,809167	0,1	0,243591
0,810833	0,1	0,299319
0,812500	0,1	0,272161
0,814167	0,1	0,259620
0,815833	0,1	0,260906
0,817500	0,1	0,267070
0,819167	0,1	0,278408
0,820833	0,1	0,296584
0,822500	0,1	0,300557
0,824167	0,1	0,282639
0,825833	0,1	0,265233
0,827500	0,1	0,301157
0,829167	0,1	0,255859
0,830833	0,1	0,310051
0,832500	0,1	0,287607
0,834167	0,1	0,287855
0,835833	0,1	0,308417
0,837500	0,1	0,316963
0,839167	0,1	0,279899
0,840833	0,1	0,262971
0,842500	0,1	0,267566
0,844167	0,1	0,287914
0,845833	0,1	0,327271
0,847500	0,1	0,302915
0,849167	0,1	0,314349
0,850833	0,1	0,326307
0,852500	0,1	0,300311
0,854167	0,1	0,301657
0,855833	0,1	0,307938
0,857500	0,1	0,320513
0,859167	0,1	0,314226
0,860833	0,1	0,310738
0,862500	0,1	0,350647
0,864167	0,1	0,320352
0,865833	0,1	0,302141
0,867500	0,1	0,338941
0,869167	0,1	0,333992
0,870833	0,1	0,288955
0,872500	0,1	0,369752
0,874167	0,1	0,325322
0,875833	0,1	0,299374
0,877500	0,1	0,347065
0,879167	0,1	0,353459
0,880833	0,1	0,325963
0,882500	0,1	0,328734
0,884167	0,1	0,346003
0,885833	0,1	0,346270
0,887500	0,1	0,362923
0,889167	0,1	0,353392
0,890833	0,1	0,349848
0,892500	0,1	0,324419
0,894167	0,1	0,359086
0,895833	0,1	0,330439
0,897500	0,1	0,363507
0,899167	0,1	0,350262
0,900833	0,1	0,373345
0,902500	0,1	0,366713
0,904167	0,1	0,369828
0,905833	0,1	0,364487
0,907500	0,1	0,323515
0,909167	0,1	0,358731
0,910833	0,1	0,373892
0,912500	0,1	0,377827
0,914167	0,1	0,415772
0,915833	0,1	0,372072
0,917500	0,1	0,434432
0,919167	0,1	0,398988
0,920833	0,1	0,394397
0,922500	0,1	0,424639
0,924167	0,1	0,392308
0,925833	0,1	0,396110
0,927500	0,1	0,404103
0,929167	0,1	0,415001
0,930833	0,1	0,457846
0,932500	0,1	0,432455
0,934167	0,1	0,410075
0,935833	0,1	0,460783
0,937500	0,1	0,424847
0,939167	0,1	0,437119
0,940833	0,1	0,478809
0,942500	0,1	0,441034
0,944167	0,1	0,399729
0,945833	0,1	0,454234
0,947500	0,1	0,467980
0,949167	0,1	0,416270
0,950833	0,1	0,474868
0,952500	0,1	0,474981
0,954167	0,1	0,475950
0,955833	0,1	0,476595
0,957500	0,1	0,475980
0,959167	0,1	0,473951
0,960833	0,1	0,470369
0,962500	0,1	0,488682
0,964167	0,1	0,474663
0,965833	0,1	0,546948
0,967500	0,1	0,517073
0,969167	0,1	0,541669
0,970833	0,1	0,564635
0,972500	0,1	0,497216
0,974167	0,1	0,530960
0,975833	0,1	0,521165
0,977500	0,1	0,541993
0,979167	0,1	0,577886
0,980833	0,1	0,536040
0,982500	0,1	0,547285
0,984167	0,1	0,529197
0,985833	0,1	0,551024
0,987500	0,1	0,581663
0,989167	0,1	0,561226
0,990833	0,1	0,605234
0,992500	0,1	0,594157
0,994167	0,1	0,609926
0,995833	0,1	0,608575
0,997500	0,1	0,601188
0,999167	0,1	0,617282
1,000833	0,1	0,621992
1,002500	0,1	0,676728
1,004167	0,1	0,674191
1,005833	0,1	0,656872
1,007500	0,1	0,663214
1,009167	0,1	0,737439
1,010833	0,1	0,681597
1,012500	0,1	0,704709
1,014167	0,1	0,712998
1,015833	0,1	0,734496
1,017500	0,1	0,764584
1,019167	0,1	0,767667
1,020833	0,1	0,770344
1,022500	0,1	0,806228
1,024167	0,1	0,829140
1,025833	0,1	0,821664
1,027500	0,1	0,846502
1,029167	0,1	0,845349
1,030833	0,1	0,880382
1,032500	0,1	0,840483
1,034167	0,1	0,881225
1,035833	0,1	0,892825
1,037500	0,1	0,910504
1,039167	0,1	0,957538
1,040833	0,1	0,935090
1,042500	0,1	0,952115
1,044167	0,1	0,939806
1,045833	0,1	0,974016
1,047500	0,1	1,008999
1,049167	0,1	1,026793
1,050833	0,1	1,050799
1,052500	0,1	1,051584
1,054167	0,1	1,065455
1,055833	0,1	1,107027
1,057500	0,1	1,172509
1,059167	0,1	1,221121
1,060833	0,1	1,315651
1,062500	0,1	1,402764
1,064167	0,1	1,542177
1,065833	0,1	1,673934
1,067500	0,1	1,831631
1,069167	0,1	2,067032
1,070833	0,1	2,354602
1,072500	0,1	2,679818
1,074167	0,1	3,055589
1,075833	0,1	3,547557
1,077500	0,1	4,034043
1,079167	0,1	4,699259
1,080833	0,1	5,376084
1,082500	0,1	6,135888
1,084167	0,1	7,023568
1,085833	0,1	7,893021
1,087500	0,1	8,907827
1,089167	0,1	9,935823
1,090833	0,1	10,896620
1,092500	0,1	12,033635
1,094167	0,1	13,098395
1,095833	0,1	14,165817
1,097500	0,1	15,197469
1,099167	0,1	16,189643
1,100833	0,1	17,125365
1,102500	0,1	17,969530
1,104167	0,1	18,747928
1,105833	0,1	19,432812
1,107500	0,1	20,008849
1,109167	0,1	20,492073
1,110833	0,1	20,903740
1,112500	0,1	21,233536
1,114167	0,1	21,459745
1,115833	0,1	21,581664
1,117500	0,1	21,659351
1,119167	0,1	21,675169
1,120833	0,1	21,602995
1,122500	0,1	21,490584
1,124167	0,1	21,385015
1,125833	0,1	21,232817
1,127500	0,1	21,085097
1,129167	0,1	20,902595
1,130833	0,1	20,762198
1,132500	0,1	20,651271
1,134167	0,1	20,554976
1,135833	0,1	20,445408
1,137500	0,1	20,359690
1,139167	0,1	20,410930
1,140833	0,1	20,425220
1,142500	0,1	20,562918
1,144167	0,1	20,722774
1,145833	0,1	20,931674
1,147500	0,1	21,274885
1,149167	0,1	21,662763
1,150833	0,1	22,044643
1,152500	0,1	22,542730
1,154167	0,1	23,082701
1,155833	0,1	23,662447
1,157500	0,1	24,266729
1,159167	0,1	24,926802
1,160833	0,1	25,683307
1,162500	0,1	26,389845
1,164167	0,1	27,145894
1,165833	0,1	27,864102
1,167500	0,1	28,567424
1,169167	0,1	29,301512
1,170833	0,1	30,025471
1,172500	0,1	30,681768
1,174167	0,1	31,367496
1,175833	0,1	32,005032
1,177500	0,1	32,562273
1,179167	0,1	33,142248
1,180833	0,1	33,641272
1,182500	0,1	34,115507
1,184167	0,1	34,593203
1,185833	0,1	34,991508
1,187500	0,1	35,425404
1,189167	0,1	35,809809
1,190833	0,1	36,215511
1,192500	0,1	36,664864
1,194167	0,1	37,191860
1,195833	0,1	37,728427
1,197500	0,1	38,431163
1,199167	0,1	39,204173
1,200833	0,1	40,127468
1,202500	0,1	41,221997
1,204167	0,1	42,499014
1,205833	0,1	43,919534
1,207500	0,1	45,601951
1,209167	0,1	47,580112
1,210833	0,1	49,765908
1,212500	0,1	52,151286
1,214167	0,1	54,768623
1,215833	0,1	57,709909
1,217500	0,1	60,735820
1,219167	0,1	63,988426
1,220833	0,1	67,445172
1,222500	0,1	71,105304
1,224167	0,1	74,801274
1,225833	0,1	78,551113
1,227500	0,1	82,404221
1,229167	0,1	86,192466
1,230833	0,1	90,020742
1,232500	0,1	93,668966
1,234167	0,1	97,286351
1,235833	0,1	100,732706
1,237500	0,1	104,025200
1,239167	0,1	107,083209
1,240833	0,1	109,943723
1,242500	0,1	112,578107
1,244167	0,1	114,893294
1,245833	0,1	116,993773
1,247500	0,1	118,881206
1,249167	0,1	120,461992
1,250833	0,1	121,689084
1,252500	0,1	122,647013
1,254167	0,1	123,399285
1,255833	0,1	123,834788
1,257500	0,1	123,994562
1,259167	0,1	123,879566
1,260833	0,1	123,493246
1,262500	0,1	122,861684
1,264167	0,1	122,023155
1,265833	0,1	120,948948
1,267500	0,1	119,678305
1,269167	0,1	118,173695
1,270833	0,1	116,479360
1,272500	0,1	114,629234
1,274167	0,1	112,652693
1,275833	0,1	110,508129
1,277500	0,1	108,273952
1,279167	0,1	105,927808
1,280833	0,1	103,502733
1,282500	0,1	100,977013
1,284167	0,1	98,437000
1,285833	0,1	95,842882
1,287500	0,1	93,212992
1,289167	0,1	90,613773
1,290833	0,1	88,015597
1,292500	0,1	85,434537
1,294167	0,1	82,856035
1,295833	0,1	80,357631
1,297500	0,1	77,915059
1,299167	0,1	75,494054
1,300833	0,1	73,148387
1,302500	0,1	70,928648
1,304167	0,1	68,704299
1,305833	0,1	66,536897
1,307500	0,1	64,552971
1,309167	0,1	62,577542
1,310833	0,1	60,676096
1,312500	0,1	58,884247
1,314167	0,1	57,135435
1,315833	0,1	55,490118
1,317500	0,1	53,919963
1,319167	0,1	52,371074
1,320833	0,1	50,984424
1,322500	0,1	49,511558
1,324167	0,1	48,223809
1,325833	0,1	46,991613
1,327500	0,1	45,747611
1,329167	0,1	44,594138
1,330833	0,1	43,514203
1,332500	0,1	42,468123
1,334167	0,1	41,415271
1,335833	0,1	40,404786
1,337500	0,1	39,516157
1,339167	0,1	38,608735
1,340833	0,1	37,712806
1,342500	0,1	36,845607
1,344167	0,1	36,007177
1,345833	0,1	35,273586
1,347500	0,1	34,469580
1,349167	0,1	33,754444
1,350833	0,1	33,030261
1,352500	0,1	32,310002
1,354167	0,1	31,616196
1,355833	0,1	30,960930
1,357500	0,1	30,285240
1,359167	0,1	29,711701
1,360833	0,1	29,076820
1,362500	0,1	28,497307
1,364167	0,1	27,865361
1,365833	0,1	27,326229
1,367500	0,1	26,797713
1,369167	0,1	26,157968
1,370833	0,1	25,689391
1,372500	0,1	25,109926
1,374167	0,1	24,652550
1,375833	0,1	24,174865
1,377500	0,1	23,678949
1,379167	0,1	23,189863
1,380833	0,1	22,762852
1,382500	0,1	22,286096
1,384167	0,1	21,915547
1,385833	0,1	21,427587
1,387500	0,1	21,091214
1,389167	0,1	20,677331
1,390833	0,1	20,273207
1,392500	0,1	19,926558
1,394167	0,1	19,525122
1,395833	0,1	19,235761
1,397500	0,1	18,899046
1,399167	0,1	18,562789
1,400833	0,1	18,292267
1,402500	0,1	17,911119
1,404167	0,1	17,667296
1,405833	0,1	17,390985
1,407500	0,1	17,107494
1,409167	0,1	16,879150
1,410833	0,1	16,563952
1,412500	0,1	16,362255
1,414167	0,1	16,135255
1,415833	0,1	15,890065
1,417500	0,1	15,682678
1,419167	0,1	15,471923
1,420833	0,1	15,308243
1,422500	0,1	15,054179
1,424167	0,1	14,878763
1,425833	0,1	14,669898
1,427500	0,1	14,566122
1,429167	0,1	14,347531
1,430833	0,1	14,158454
1,432500	0,1	14,057399
1,434167	0,1	13,825480
1,435833	0,1	13,686791
1,437500	0,1	13,516009
1,439167	0,1	13,338887
1,440833	0,1	13,185863
1,442500	0,1	13,055803
1,444167	0,1	12,904912
1,445833	0,1	12,817003
1,447500	0,1	12,620279
1,449167	0,1	12,516619
1,450833	0,1	12,364385
1,452500	0,1	12,162431
1,454167	0,1	12,112550
1,455833	0,1	11,910730
1,457500	0,1	11,840985
1,459167	0,1	11,695940
1,460833	0,1	11,591216
1,462500	0,1	11,471953
1,464167	0,1	11,354175
1,465833	0,1	11,236797
1,467500	0,1	11,175349
1,469167	0,1	11,027647
1,470833	0,1	10,934040
1,472500	0,1	10,846124
1,474167	0,1	10,717727
1,475833	0,1	10,663012
1,477500	0,1	10,575489
1,479167	0,1	10,498859
1,480833	0,1	10,456129
1,482500	0,1	10,427858
1,484167	0,1	10,297836
1,485833	0,1	10,259228
1,487500	0,1	10,164814
1,489167	0,1	10,090185
1,490833	0,1	10,057637
1,492500	0,1	10,039494
1,494167	0,1	9,990945
1,495833	0,1	9,948248
1,497500	0,1	9,903338
1,499167	0,1	9,852188
1,500833	0,1	9,812411
1,502500	0,1	9,812594
1,504167	0,1	9,789789
1,505833	0,1	9,738914
1,507500	0,1	9,728680
1,509167	0,1	9,705794
1,510833	0,1	9,689600
1,512500	0,1	9,680506
1,514167	0,1	9,655174
1,515833	0,1	9,656235
1,517500	0,1	9,594176
1,519167	0,1	9,635502
1,520833	0,1	9,599360
1,522500	0,1	9,566533
1,524167	0,1	9,515789
1,525833	0,1	9,538993
1,527500	0,1	9,487549
1,529167	0,1	9,507212
1,530833	0,1	9,487362
1,532500	0,1	9,472081
1,534167	0,1	9,461509
1,535833	0,1	9,475022
1,537500	0,1	9,392019
1,539167	0,1	9,385829
1,540833	0,1	9,369823
1,542500	0,1	9,373736
1,544167	0,1	9,389811
1,545833	0,1	9,288291
1,547500	0,1	9,339006
1,549167	0,1	9,349306
1,550833	0,1	9,315955
1,552500	0,1	9,255859
1,554167	0,1	9,256574
1,555833	0,1	9,237872
1,557500	0,1	9,184369
1,559167	0,1	9,196198
1,560833	0,1	9,188930
1,562500	0,1	9,158353
1,564167	0,1	9,065538
1,565833	0,1	9,109273
1,567500	0,1	9,061815
1,569167	0,1	9,037440
1,570833	0,1	9,041874
1,572500	0,1	9,010268
1,574167	0,1	9,050005
1,575833	0,1	8,988786
1,577500	0,1	8,937646
1,579167	0,1	8,909042
1,580833	0,1	8,901511
1,582500	0,1	8,842152
1,584167	0,1	8,850656
1,585833	0,1	8,849972
1,587500	0,1	8,752824
1,589167	0,1	8,721053
1,590833	0,1	8,734060
1,592500	0,1	8,709192
1,594167	0,1	8,680627
1,595833	0,1	8,686787
1,597500	0,1	8,645645
1,599167	0,1	8,558204
1,600833	0,1	8,573795
1,602500	0,1	8,553820
1,604167	0,1	8,508091
1,605833	0,1	8,493218
1,607500	0,1	8,458481
1,609167	0,1	8,421838
1,610833	0,1	8,399697
1,612500	0,1	8,362205
1,614167	0,1	8,376401
1,615833	0,1	8,329986
1,617500	0,1	8,311550
1,619167	0,1	8,213111
1,620833	0,1	8,221089
1,622500	0,1	8,219960
1,624167	0,1	8,139577
1,625833	0,1	8,106531
1,627500	0,1	8,093005
1,629167	0,1	8,067049
1,630833	0,1	8,079099
1,632500	0,1	7,998694
1,634167	0,1	8,064187
1,635833	0,1	7,957669
1,637500	0,1	7,954975
1,639167	0,1	7,918143
1,640833	0,1	7,901275
1,642500	0,1	7,866790
1,644167	0,1	7,826982
1,645833	0,1	7,872687
1,647500	0,1	7,797754
1,649167	0,1	7,761790
1,650833	0,1	7,750053
1,652500	0,1	7,742460
1,654167	0,1	7,680096
1,655833	0,1	7,713421
1,657500	0,1	7,708819
1,659167	0,1	7,678680
1,660833	0,1	7,653471
1,662500	0,1	7,653562
1,664167	0,1	7,652165
1,665833	0,1	7,640624
1,667500	0,1	7,658976
1,669167	0,1	7,679883
1,670833	0,1	7,714164
1,672500	0,1	7,629417
1,674167	0,1	7,673966
1,675833	0,1	7,660122
1,677500	0,1	7,697844
1,679167	0,1	7,665083
1,680833	0,1	7,698715
1,682500	0,1	7,744489
1,684167	0,1	7,753776
1,685833	0,1	7,780408
1,687500	0,1	7,815157
1,689167	0,1	7,799246
1,690833	0,1	7,871466
1,692500	0,1	7,873563
1,694167	0,1	7,904571
1,695833	0,1	7,917139
1,697500	0,1	7,965408
1,699167	0,1	8,002075
1,700833	0,1	8,046029
1,702500	0,1	8,063641
1,704167	0,1	8,071536
1,705833	0,1	8,147777
1,707500	0,1	8,192292
1,709167	0,1	8,175174
1,710833	0,1	8,185474
1,712500	0,1	8,257843
1,714167	0,1	8,286386
1,715833	0,1	8,297735
1,717500	0,1	8,337986
1,719167	0,1	8,350789
1,720833	0,1	8,401712
1,722500	0,1	8,392431
1,724167	0,1	8,447849
1,725833	0,1	8,447785
1,727500	0,1	8,491088
1,729167	0,1	8,504913
1,730833	0,1	8,499817
1,732500	0,1	8,530177
1,734167	0,1	8,544079
1,735833	0,1	8,530187
1,737500	0,1	8,485263
1,739167	0,1	8,559101
1,740833	0,1	8,535446
1,742500	0,1	8,515913
1,744167	0,1	8,518335
1,745833	0,1	8,472324
1,747500	0,1	8,501247
1,749167	0,1	8,465251
1,750833	0,1	8,450417
1,752500	0,1	8,446372
1,754167	0,1	8,409415
1,755833	0,1	8,393926
1,757500	0,1	8,349669
1,759167	0,1	8,348603
1,760833	0,1	8,335869
1,762500	0,1	8,324942
1,764167	0,1	8,266270
1,765833	0,1	8,212526
1,767500	0,1	8,178955
1,769167	0,1	8,152461
1,770833	0,1	8,137952
1,772500	0,1	8,037697
1,774167	0,1	8,036950
1,775833	0,1	8,010343
1,777500	0,1	7,929183
1,779167	0,1	7,887265
1,780833	0,1	7,880196
1,782500	0,1	7,844707
1,784167	0,1	7,774990
1,785833	0,1	7,739381
1,787500	0,1	7,726237
1,789167	0,1	7,672216
1,790833	0,1	7,567418
1,792500	0,1	7,563275
1,794167	0,1	7,525229
1,795833	0,1	7,450922
1,797500	0,1	7,384347
1,799167	0,1	7,387779
1,800833	0,1	7,351834
1,802500	0,1	7,272862
1,804167	0,1	7,223257
1,805833	0,1	7,151965
1,807500	0,1	7,150544
1,809167	0,1	7,106486
1,810833	0,1	7,084025
1,812500	0,1	7,028846
1,814167	0,1	6,964965
1,815833	0,1	6,944472
1,817500	0,1	6,863695
1,819167	0,1	6,855354
1,820833	0,1	6,841991
1,822500	0,1	6,754499
1,824167	0,1	6,711865
1,825833	0,1	6,717370
1,827500	0,1	6,617948
1,829167	0,1	6,633064
1,830833	0,1	6,595429
1,832500	0,1	6,596161
1,834167	0,1	6,573449
1,835833	0,1	6,488542
1,837500	0,1	6,505435
1,839167	0,1	6,502915
1,840833	0,1	6,460884
1,842500	0,1	6,449552
1,844167	0,1	6,477753
1,845833	0,1	6,476742
1,847500	0,1	6,471794
1,849167	0,1	6,533272
1,850833	0,1	6,520189
1,852500	0,1	6,553808
1,854167	0,1	6,612787
1,855833	0,1	6,625020
1,857500	0,1	6,684352
1,859167	0,1	6,781566
1,860833	0,1	6,796546
1,862500	0,1	6,869455
1,864167	0,1	6,905743
1,865833	0,1	6,966992
1,867500	0,1	6,991037
1,869167	0,1	7,126087
1,870833	0,1	7,170083
1,872500	0,1	7,212106
1,874167	0,1	7,293409
1,875833	0,1	7,356783
1,877500	0,1	7,445913
1,879167	0,1	7,456397
1,880833	0,1	7,530472
1,882500	0,1	7,529729
1,884167	0,1	7,629172
1,885833	0,1	7,659178
1,887500	0,1	7,737192
1,889167	0,1	7,758571
1,890833	0,1	7,763799
1,892500	0,1	7,873803
1,894167	0,1	7,913462
1,895833	0,1	7,961749
1,897500	0,1	7,987891
1,899167	0,1	8,011658
1,900833	0,1	8,051559
1,902500	0,1	8,071253
1,904167	0,1	8,109975
1,905833	0,1	8,184174
1,907500	0,1	8,208792
1,909167	0,1	8,222062
1,910833	0,1	8,252737
1,912500	0,1	8,247475
1,914167	0,1	8,306477
1,915833	0,1	8,319225
1,917500	0,1	8,342108
1,919167	0,1	8,333201
1,920833	0,1	8,379480
1,922500	0,1	8,379530
1,924167	0,1	8,381799
1,925833	0,1	8,399871
1,927500	0,1	8,397841
1,929167	0,1	8,395735
1,930833	0,1	8,373128
1,932500	0,1	8,406072
1,934167	0,1	8,399256
1,935833	0,1	8,360254
1,937500	0,1	8,360783
1,939167	0,1	8,356106
1,940833	0,1	8,334617
1,942500	0,1	8,349157
1,944167	0,1	8,269935
1,945833	0,1	8,291403
1,947500	0,1	8,270936
1,949167	0,1	8,249367
1,950833	0,1	8,234263
1,952500	0,1	8,209873
1,954167	0,1	8,219776
1,955833	0,1	8,163466
1,957500	0,1	8,182039
1,959167	0,1	8,171281
1,960833	0,1	8,132869
1,962500	0,1	8,094061
1,964167	0,1	8,073298
1,965833	0,1	8,091947
1,967500	0,1	8,022988
1,969167	0,1	8,029124
1,970833	0,1	7,984695
1,972500	0,1	7,997081
1,974167	0,1	7,973186
1,975833	0,1	7,940395
1,977500	0,1	7,932500
1,979167	0,1	7,938222
1,980833	0,1	7,909432
1,982500	0,1	7,831889
1,984167	0,1	7,885430
1,985833	0,1	7,900275
1,987500	0,1	7,843847
1,989167	0,1	7,834580
1,990833	0,1	7,812741
1,992500	0,1	7,814315
1,994167	0,1	7,795224
1,995833	0,1	7,754941
1,997500	0,1	7,753049
1,999167	0,1	7,727220
2,000833	0,1	7,779636
2,002500	0,1	7,758849
2,004167	0,1	7,735820
2,005833	0,1	7,731794
2,007500	0,1	7,750785
2,009167	0,1	7,764840
2,010833	0,1	7,732263
2,012500	0,1	7,706481
2,014167	0,1	7,723640
2,015833	0,1	7,691035
2,017500	0,1	7,736095
2,019167	0,1	7,706126
2,020833	0,1	7,764659
2,022500	0,1	7,722880
2,024167	0,1	7,766982
2,025833	0,1	7,753975
2,027500	0,1	7,803457
2,029167	0,1	7,762812
2,030833	0,1	7,774034
2,032500	0,1	7,809534
2,034167	0,1	7,798575
2,035833	0,1	7,817045
2,037500	0,1	7,859848
2,039167	0,1	7,854637
2,040833	0,1	7,833940
2,042500	0,1	7,866436
2,044167	0,1	7,927878
2,045833	0,1	7,922380
2,047500	0,1	7,925839
2,049167	0,1	7,957998
2,050833	0,1	7,963714
2,052500	0,1	7,986187
2,054167	0,1	7,986696
2,055833	0,1	8,030556
2,057500	0,1	8,042640
2,059167	0,1	8,121469
2,060833	0,1	8,053834
2,062500	0,1	8,112300
2,064167	0,1	8,120371
2,065833	0,1	8,130198
2,067500	0,1	8,170612
2,069167	0,1	8,175430
2,070833	0,1	8,194007
2,072500	0,1	8,183691
2,074167	0,1	8,203973
2,075833	0,1	8,279251
2,077500	0,1	8,240736
2,079167	0,1	8,259883
2,080833	0,1	8,285830
2,082500	0,1	8,316933
2,084167	0,1	8,300407
2,085833	0,1	8,352052
2,087500	0,1	8,366690
2,089167	0,1	8,368941
2,090833	0,1	8,371332
2,092500	0,1	8,393637
2,094167	0,1	8,406219
2,095833	0,1	8,417186
2,097500	0,1	8,474761
2,099167	0,1	8,420866
2,100833	0,1	8,449192
2,102500	0,1	8,502632
2,104167	0,1	8,469928
2,105833	0,1	8,470934
2,107500	0,1	8,502436
2,109167	0,1	8,466921
2,110833	0,1	8,518679
2,112500	0,1	8,480918
2,114167	0,1	8,524540
2,115833	0,1	8,504164
2,117500	0,1	8,513379
2,119167	0,1	8,512168
2,120833	0,1	8,481774
2,122500	0,1	8,543744
2,124167	0,1	8,509268
2,125833	0,1	8,535179
2,127500	0,1	8,540038
2,129167	0,1	8,541253
2,130833	0,1	8,494005
2,132500	0,1	8,510950
2,134167	0,1	8,506989
2,135833	0,1	8,558001
2,137500	0,1	8,489545
2,139167	0,1	8,443319
2,140833	0,1	8,529916
2,142500	0,1	8,471493
2,144167	0,1	8,476333
2,145833	0,1	8,479217
2,147500	0,1	8,459335
2,149167	0,1	8,428963
2,150833	0,1	8,459123
2,152500	0,1	8,461300
2,154167	0,1	8,422576
2,155833	0,1	8,401330
2,157500	0,1	8,401781
2,159167	0,1	8,409504
2,160833	0,1	8,408193
2,162500	0,1	8,401107
2,164167	0,1	8,425579
2,165833	0,1	8,355088
2,167500	0,1	8,344267
2,169167	0,1	8,352800
2,170833	0,1	8,350991
2,172500	0,1	8,331333
2,174167	0,1	8,305524
2,175833	0,1	8,309794
2,177500	0,1	8,250412
2,179167	0,1	8,295597
2,180833	0,1	8,257332
2,182500	0,1	8,269676
2,184167	0,1	8,226572
2,185833	0,1	8,207704
2,187500	0,1	8,180951
2,189167	0,1	8,190944
2,190833	0,1	8,208273
2,192500	0,1	8,182939
2,194167	0,1	8,201077
2,195833	0,1	8,128480
2,197500	0,1	8,127476
2,199167	0,1	8,148674
2,200833	0,1	8,104448
2,202500	0,1	8,130607
2,204167	0,1	8,094684
2,205833	0,1	8,106699
2,207500	0,1	8,114084
2,209167	0,1	8,140419
2,210833	0,1	8,106907
2,212500	0,1	8,096384
2,214167	0,1	8,108274
2,215833	0,1	8,074679
2,217500	0,1	8,100970
2,219167	0,1	8,073711
2,220833	0,1	8,114831
2,222500	0,1	8,169277
2,224167	0,1	8,127683
2,225833	0,1	8,103294
2,227500	0,1	8,143057
2,229167	0,1	8,154061
2,230833	0,1	8,188553
2,232500	0,1	8,187133
2,234167	0,1	8,187608
2,235833	0,1	8,206402
2,237500	0,1	8,238613
2,239167	0,1	8,277290
2,240833	0,1	8,268109
2,242500	0,1	8,274035
2,244167	0,1	8,303342
2,245833	0,1	8,276588
2,247500	0,1	8,283208
2,249167	0,1	8,329525
2,250833	0,1	8,325359
2,252500	0,1	8,324105
2,254167	0,1	8,384889
2,255833	0,1	8,366975
2,257500	0,1	8,349740
2,259167	0,1	8,350950
2,260833	0,1	8,377155
2,262500	0,1	8,362617
2,264167	0,1	8,400559
2,265833	0,1	8,399734
2,267500	0,1	8,380948
2,269167	0,1	8,414990
2,270833	0,1	8,353913
2,272500	0,1	8,387323
2,274167	0,1	8,392807
2,275833	0,1	8,339699
2,277500	0,1	8,338332
2,279167	0,1	8,396435
2,280833	0,1	8,348593
2,282500	0,1	8,325243
2,284167	0,1	8,334190
2,285833	0,1	8,312190
2,287500	0,1	8,314015
2,289167	0,1	8,248642
2,290833	0,1	8,246797
2,292500	0,1	8,230307
2,294167	0,1	8,199928
2,295833	0,1	8,179996
2,297500	0,1	8,137105
2,299167	0,1	8,169875
2,300833	0,1	8,116382
2,302500	0,1	8,129001
2,304167	0,1	8,110907
2,305833	0,1	8,101044
2,307500	0,1	8,047938
2,309167	0,1	7,997472
2,310833	0,1	7,972379
2,312500	0,1	7,928838
2,314167	0,1	7,942533
2,315833	0,1	7,896997
2,317500	0,1	7,867554
2,319167	0,1	7,867828
2,320833	0,1	7,810150
2,322500	0,1	7,799026
2,324167	0,1	7,776836
2,325833	0,1	7,765951
2,327500	0,1	7,685326
2,329167	0,1	7,658535
2,330833	0,1	7,604601
2,332500	0,1	7,620187
2,334167	0,1	7,577017
2,335833	0,1	7,525264
2,337500	0,1	7,546191
2,339167	0,1	7,480497
2,340833	0,1	7,462707
2,342500	0,1	7,426179
2,344167	0,1	7,355526
2,345833	0,1	7,392739
2,347500	0,1	7,370575
2,349167	0,1	7,319558
2,350833	0,1	7,318515
2,352500	0,1	7,288298
2,354167	0,1	7,283223
2,355833	0,1	7,206892
2,357500	0,1	7,165803
2,359167	0,1	7,137358
2,360833	0,1	7,089276
2,362500	0,1	7,070463
2,364167	0,1	7,099544
2,365833	0,1	7,044466
2,367500	0,1	7,015089
2,369167	0,1	6,985532
2,370833	0,1	7,011053
2,372500	0,1	6,975152
2,374167	0,1	6,968693
2,375833	0,1	6,970748
2,377500	0,1	6,937372
2,379167	0,1	6,923900
2,380833	0,1	6,898843
2,382500	0,1	6,884344
2,384167	0,1	6,903414
2,385833	0,1	6,875746
2,387500	0,1	6,877047
2,389167	0,1	6,887053
2,390833	0,1	6,902854
2,392500	0,1	6,889019
2,394167	0,1	6,933892
2,395833	0,1	6,937452
2,397500	0,1	6,958866
2,399167	0,1	6,962331
2,400833	0,1	7,003474
2,402500	0,1	7,041452
2,404167	0,1	7,053616
2,405833	0,1	7,092432
2,407500	0,1	7,143139
2,409167	0,1	7,190204
2,410833	0,1	7,215284
2,412500	0,1	7,310629
2,414167	0,1	7,403306
2,415833	0,1	7,374608
2,417500	0,1	7,524346
2,419167	0,1	7,557998
2,420833	0,1	7,658667
2,422500	0,1	7,722015
2,424167	0,1	7,830785
2,425833	0,1	7,929572
2,427500	0,1	7,996493
2,429167	0,1	8,121572
2,430833	0,1	8,237919
2,432500	0,1	8,321975
2,434167	0,1	8,406858
2,435833	0,1	8,533764
2,437500	0,1	8,665826
2,439167	0,1	8,752955
2,440833	0,1	8,871754
2,442500	0,1	9,002891
2,444167	0,1	9,132731
2,445833	0,1	9,256509
2,447500	0,1	9,356284
2,449167	0,1	9,479360
2,450833	0,1	9,585400
2,452500	0,1	9,715941
2,454167	0,1	9,784796
2,455833	0,1	9,948323
2,457500	0,1	10,042259
2,459167	0,1	10,166574
2,460833	0,1	10,309480
2,462500	0,1	10,408577
2,464167	0,1	10,549801
2,465833	0,1	10,681894
2,467500	0,1	10,760103
2,469167	0,1	10,903312
2,470833	0,1	11,067223
2,472500	0,1	11,207693
2,474167	0,1	11,341739
2,475833	0,1	11,516001
2,477500	0,1	11,678208
2,479167	0,1	11,806196
2,480833	0,1	12,070467
2,482500	0,1	12,229733
2,484167	0,1	12,432034
2,485833	0,1	12,719929
2,487500	0,1	12,951764
2,489167	0,1	13,183508
2,490833	0,1	13,478556
2,492500	0,1	13,781648
2,494167	0,1	14,140729
2,495833	0,1	14,494408
2,497500	0,1	14,905090
2,499167	0,1	15,325323
2,500833	0,1	15,827874
2,502500	0,1	16,274307
2,504167	0,1	16,817867
2,505833	0,1	17,359469
2,507500	0,1	17,997685
2,509167	0,1	18,596739
2,510833	0,1	19,323893
2,512500	0,1	20,042197
2,514167	0,1	20,806996
2,515833	0,1	21,612681
2,517500	0,1	22,457064
2,519167	0,1	23,422096
2,520833	0,1	24,330098
2,522500	0,1	25,309011
2,524167	0,1	26,343812
2,525833	0,1	27,382671
2,527500	0,1	28,563319
2,529167	0,1	29,693412
2,530833	0,1	30,899117
2,532500	0,1	32,123370
2,534167	0,1	33,377791
2,535833	0,1	34,660496
2,537500	0,1	35,968645
2,539167	0,1	37,303738
2,540833	0,1	38,682379
2,542500	0,1	40,077087
2,544167	0,1	41,453921
2,545833	0,1	42,859040
2,547500	0,1	44,284776
2,549167	0,1	45,721035
2,550833	0,1	47,159005
2,552500	0,1	48,535937
2,554167	0,1	49,946064
2,555833	0,1	51,358152
2,557500	0,1	52,756588
2,559167	0,1	54,153726
2,560833	0,1	55,446504
2,562500	0,1	56,794460
2,564167	0,1	58,084780
2,565833	0,1	59,335200
2,567500	0,1	60,539718
2,569167	0,1	61,725816
2,570833	0,1	62,933609
2,572500	0,1	64,025764
2,574167	0,1	65,110581
2,575833	0,1	66,107925
2,577500	0,1	67,075203
2,579167	0,1	68,033915
2,580833	0,1	68,862563
2,582500	0,1	69,766151
2,584167	0,1	70,527908
2,585833	0,1	71,215270
2,587500	0,1	71,944241
2,589167	0,1	72,584873
2,590833	0,1	73,134205
2,592500	0,1	73,669368
2,594167	0,1	74,126793
2,595833	0,1	74,529860
2,597500	0,1	74,924966
2,599167	0,1	75,258212
2,600833	0,1	75,511042
2,602500	0,1	75,770410
2,604167	0,1	75,903234
2,605833	0,1	76,093116
2,607500	0,1	76,147055
2,609167	0,1	76,187050
2,610833	0,1	76,234512
2,612500	0,1	76,179423
2,614167	0,1	76,142348
2,615833	0,1	75,976109
2,617500	0,1	75,876700
2,619167	0,1	75,617655
2,620833	0,1	75,387328
2,622500	0,1	75,144805
2,624167	0,1	74,817973
2,625833	0,1	74,503596
2,627500	0,1	74,169762
2,629167	0,1	73,733071
2,630833	0,1	73,336382
2,632500	0,1	72,903220
2,634167	0,1	72,396936
2,635833	0,1	71,873785
2,637500	0,1	71,334492
2,639167	0,1	70,802569
2,640833	0,1	70,195494
2,642500	0,1	69,618715
2,644167	0,1	69,026443
2,645833	0,1	68,355735
2,647500	0,1	67,689753
2,649167	0,1	66,975642
2,650833	0,1	66,312983
2,652500	0,1	65,604898
2,654167	0,1	64,858117
2,655833	0,1	64,139324
2,657500	0,1	63,406081
2,659167	0,1	62,631488
2,660833	0,1	61,784920
2,662500	0,1	61,084978
2,664167	0,1	60,234205
2,665833	0,1	59,458458
2,667500	0,1	58,630785
2,669167	0,1	57,812714
2,670833	0,1	56,966976
2,672500	0,1	56,197615
2,674167	0,1	55,337449
2,675833	0,1	54,524189
2,677500	0,1	53,630046
2,679167	0,1	52,816672
2,680833	0,1	51,972365
2,682500	0,1	51,124373
2,684167	0,1	50,317286
2,685833	0,1	49,482967
2,687500	0,1	48,634552
2,689167	0,1	47,847127
2,690833	0,1	47,043306
2,692500	0,1	46,226096
2,694167	0,1	45,389202
2,695833	0,1	44,559375
2,697500	0,1	43,827664
2,699167	0,1	43,003876
2,700833	0,1	42,205094
2,702500	0,1	41,466251
2,704167	0,1	40,711474
2,705833	0,1	39,980226
2,707500	0,1	39,218889
2,709167	0,1	38,488049
2,710833	0,1	37,768537
2,712500	0,1	37,072380
2,714167	0,1	36,386929
2,715833	0,1	35,676204
2,717500	0,1	34,989200
2,719167	0,1	34,359779
2,720833	0,1	33,717909
2,722500	0,1	33,055031
2,724167	0,1	32,383804
2,725833	0,1	31,803705
2,727500	0,1	31,206423
2,729167	0,1	30,644849
2,730833	0,1	30,009318
2,732500	0,1	29,442598
2,734167	0,1	28,894638
2,735833	0,1	28,378074
2,737500	0,1	27,891723
2,739167	0,1	27,319253
2,740833	0,1	26,807857
2,742500	0,1	26,328067
2,744167	0,1	25,830512
2,745833	0,1	25,355503
2,747500	0,1	24,908272
2,749167	0,1	24,384741
2,750833	0,1	23,993280
2,752500	0,1	23,521384
2,754167	0,1	23,152728
2,755833	0,1	22,710358
2,757500	0,1	22,280961
2,759167	0,1	21,897898
2,760833	0,1	21,541388
2,762500	0,1	21,128807
2,764167	0,1	20,755702
2,765833	0,1	20,457508
2,767500	0,1	20,078386
2,769167	0,1	19,714211
2,770833	0,1	19,407527
2,772500	0,1	19,075003
2,774167	0,1	18,746963
2,775833	0,1	18,442675
2,777500	0,1	18,118709
2,779167	0,1	17,842406
2,780833	0,1	17,514106
2,782500	0,1	17,240373
2,784167	0,1	17,002889
2,785833	0,1	16,754157
2,787500	0,1	16,409901
2,789167	0,1	16,182318
2,790833	0,1	15,920541
2,792500	0,1	15,638475
2,794167	0,1	15,394359
2,795833	0,1	15,157200
2,797500	0,1	14,912045
2,799167	0,1	14,657543
2,800833	0,1	14,494460
2,802500	0,1	14,207808
2,804167	0,1	14,047613
2,805833	0,1	13,803018
2,807500	0,1	13,595952
2,809167	0,1	13,391309
2,810833	0,1	13,227518
2,812500	0,1	12,998701
2,814167	0,1	12,801194
2,815833	0,1	12,621535
2,817500	0,1	12,435240
2,819167	0,1	12,271834
2,820833	0,1	12,085774
2,822500	0,1	11,898616
2,824167	0,1	11,728662
2,825833	0,1	11,536779
2,827500	0,1	11,392955
2,829167	0,1	11,243012
2,830833	0,1	11,069062
2,832500	0,1	10,907740
2,834167	0,1	10,779467
2,835833	0,1	10,585197
2,837500	0,1	10,484625
2,839167	0,1	10,345291
2,840833	0,1	10,188776
2,842500	0,1	10,053828
2,844167	0,1	9,945841
2,845833	0,1	9,796665
2,847500	0,1	9,634102
2,849167	0,1	9,525510
2,850833	0,1	9,410945
2,852500	0,1	9,323416
2,854167	0,1	9,183491
2,855833	0,1	9,080814
2,857500	0,1	8,986707
2,859167	0,1	8,840348
2,860833	0,1	8,772307
2,862500	0,1	8,661334
2,864167	0,1	8,503920
2,865833	0,1	8,485768
2,867500	0,1	8,332240
2,869167	0,1	8,232198
2,870833	0,1	8,181020
2,872500	0,1	8,059080
2,874167	0,1	7,976301
2,875833	0,1	7,869275
2,877500	0,1	7,796987
2,879167	0,1	7,708926
2,880833	0,1	7,666774
2,882500	0,1	7,561011
2,884167	0,1	7,485838
2,885833	0,1	7,395493
2,887500	0,1	7,314789
2,889167	0,1	7,271635
2,890833	0,1	7,145331
2,892500	0,1	7,129586
2,894167	0,1	7,027734
2,895833	0,1	6,964122
2,897500	0,1	6,913340
2,899167	0,1	6,834711
2,900833	0,1	6,775529
2,902500	0,1	6,757951
2,904167	0,1	6,651415
2,905833	0,1	6,575615
2,907500	0,1	6,574681
2,909167	0,1	6,480977
2,910833	0,1	6,417270
2,912500	0,1	6,394478
2,914167	0,1	6,325272
2,915833	0,1	6,300343
2,917500	0,1	6,284009
2,919167	0,1	6,196451
2,920833	0,1	6,133524
2,922500	0,1	6,068905
2,924167	0,1	6,037017
2,925833	0,1	6,007786
2,927500	0,1	5,916222
2,929167	0,1	5,885546
2,930833	0,1	5,899267
2,932500	0,1	5,805617
2,934167	0,1	5,785464
2,935833	0,1	5,736458
2,937500	0,1	5,724594
2,939167	0,1	5,626976
2,940833	0,1	5,608201
2,942500	0,1	5,564765
2,944167	0,1	5,520481
2,945833	0,1	5,504642
2,947500	0,1	5,475743
2,949167	0,1	5,452821
2,950833	0,1	5,410116
2,952500	0,1	5,360604
2,954167	0,1	5,344426
2,955833	0,1	5,285407
2,957500	0,1	5,276427
2,959167	0,1	5,215060
2,960833	0,1	5,165169
2,962500	0,1	5,193807
2,964167	0,1	5,128861
2,965833	0,1	5,121026
2,967500	0,1	5,103229
2,969167	0,1	5,043500
2,970833	0,1	5,009403
2,972500	0,1	4,963159
2,974167	0,1	4,977059
2,975833	0,1	4,929559
2,977500	0,1	4,901964
2,979167	0,1	4,836106
2,980833	0,1	4,868554
2,982500	0,1	4,843296
2,984167	0,1	4,810990
2,985833	0,1	4,821468
2,987500	0,1	4,749822
2,989167	0,1	4,729666
2,990833	0,1	4,729932
2,992500	0,1	4,675074
2,994167	0,1	4,626329
2,995833	0,1	4,665234
2,997500	0,1	4,613461
2,999167	0,1	4,576117
3,000833	0,1	4,588326
3,002500	0,1	4,548607
3,004167	0,1	4,537725
3,005833	0,1	4,490459
3,007500	0,1	4,489708
3,009167	0,1	4,491825
3,010833	0,1	4,451971
3,012500	0,1	4,434437
3,014167	0,1	4,402463
3,015833	0,1	4,412171
3,017500	0,1	4,407499
3,019167	0,1	4,387935
3,020833	0,1	4,317022
3,022500	0,1	4,292002
3,024167	0,1	4,281100
3,025833	0,1	4,258413
3,027500	0,1	4,293451
3,029167	0,1	4,238253
3,030833	0,1	4,212998
3,032500	0,1	4,199456
3,034167	0,1	4,201846
3,035833	0,1	4,189332
3,037500	0,1	4,166531
3,039167	0,1	4,120266
3,040833	0,1	4,143917
3,042500	0,1	4,128311
3,044167	0,1	4,083282
3,045833	0,1	4,090297
3,047500	0,1	4,068720
3,049167	0,1	4,050313
3,050833	0,1	4,034253
3,052500	0,1	4,039290
3,054167	0,1	3,986849
3,055833	0,1	3,972605
3,057500	0,1	3,977403
3,059167	0,1	3,905373
3,060833	0,1	3,949153
3,062500	0,1	3,899928
3,064167	0,1	3,892926
3,065833	0,1	3,882115
3,067500	0,1	3,841251
3,069167	0,1	3,882528
3,070833	0,1	3,803767
3,072500	0,1	3,798520
3,074167	0,1	3,816300
3,075833	0,1	3,767731
3,077500	0,1	3,775376
3,079167	0,1	3,788688
3,080833	0,1	3,762782
3,082500	0,1	3,737006
3,084167	0,1	3,711731
3,085833	0,1	3,748912
3,087500	0,1	3,748971
3,089167	0,1	3,684844
3,090833	0,1	3,686336
3,092500	0,1	3,669653
3,094167	0,1	3,672975
3,095833	0,1	3,658502
3,097500	0,1	3,651253
3,099167	0,1	3,665276
3,100833	0,1	3,662475
3,102500	0,1	3,639977
3,104167	0,1	3,651741
3,105833	0,1	3,635634
3,107500	0,1	3,648250
3,109167	0,1	3,663484
3,110833	0,1	3,613817
3,112500	0,1	3,612556
3,114167	0,1	3,626247
3,115833	0,1	3,603545
3,117500	0,1	3,592190
3,119167	0,1	3,620759
3,120833	0,1	3,560447
3,122500	0,1	3,573733
3,124167	0,1	3,608650
3,125833	0,1	3,623776
3,127500	0,1	3,615287
3,129167	0,1	3,644713
3,130833	0,1	3,608046
3,132500	0,1	3,645081
3,134167	0,1	3,629502
3,135833	0,1	3,648775
3,137500	0,1	3,632258
3,139167	0,1	3,675773
3,140833	0,1	3,645539
3,142500	0,1	3,657851
3,144167	0,1	3,655900
3,145833	0,1	3,678141
3,147500	0,1	3,650971
3,149167	0,1	3,662864
3,150833	0,1	3,730937
3,152500	0,1	3,680292
3,154167	0,1	3,715016
3,155833	0,1	3,711756
3,157500	0,1	3,691744
3,159167	0,1	3,684645
3,160833	0,1	3,695016
3,162500	0,1	3,729517
3,164167	0,1	3,764843
3,165833	0,1	3,681886
3,167500	0,1	3,735754
3,169167	0,1	3,745562
3,170833	0,1	3,704775
3,172500	0,1	3,726074
3,174167	0,1	3,740599
3,175833	0,1	3,734913
3,177500	0,1	3,746811
3,179167	0,1	3,735978
3,180833	0,1	3,713601
3,182500	0,1	3,705052
3,184167	0,1	3,713200
3,185833	0,1	3,730044
3,187500	0,1	3,716307
3,189167	0,1	3,666412
3,190833	0,1	3,716419
3,192500	0,1	3,721155
3,194167	0,1	3,688755
3,195833	0,1	3,679527
3,197500	0,1	3,662428
3,199167	0,1	3,681989
3,200833	0,1	3,667960
3,202500	0,1	3,646858
3,204167	0,1	3,629245
3,205833	0,1	3,596323
3,207500	0,1	3,600914
3,209167	0,1	3,623669
3,210833	0,1	3,586346
3,212500	0,1	3,579505
3,214167	0,1	3,593219
3,215833	0,1	3,509922
3,217500	0,1	3,507173
3,219167	0,1	3,560394
3,220833	0,1	3,486979
3,222500	0,1	3,512260
3,224167	0,1	3,473904
3,225833	0,1	3,441798
3,227500	0,1	3,482227
3,229167	0,1	3,469536
3,230833	0,1	3,404871
3,232500	0,1	3,380550
3,234167	0,1	3,422662
3,235833	0,1	3,367263
3,237500	0,1	3,347229
3,239167	0,1	3,258865
3,240833	0,1	3,294608
3,242500	0,1	3,300688
3,244167	0,1	3,266294
3,245833	0,1	3,249471
3,247500	0,1	3,270022
3,249167	0,1	3,190996
3,250833	0,1	3,175576
3,252500	0,1	3,143076
3,254167	0,1	3,179000
3,255833	0,1	3,134395
3,257500	0,1	3,127880
3,259167	0,1	3,089563
3,260833	0,1	3,064659
3,262500	0,1	3,051108
3,264167	0,1	3,036550
3,265833	0,1	3,009591
3,267500	0,1	2,970552
3,269167	0,1	2,993303
3,270833	0,1	2,933149
3,272500	0,1	2,919216
3,274167	0,1	2,929450
3,275833	0,1	2,875710
3,277500	0,1	2,863753
3,279167	0,1	2,835561
3,280833	0,1	2,809847
3,282500	0,1	2,785155
3,284167	0,1	2,767051
3,285833	0,1	2,754442
3,287500	0,1	2,769986
3,289167	0,1	2,746165
3,290833	0,1	2,659526
3,292500	0,1	2,705371
3,294167	0,1	2,646063
3,295833	0,1	2,680081
3,297500	0,1	2,655400
3,299167	0,1	2,595352
3,300833	0,1	2,597199
3,302500	0,1	2,605991
3,304167	0,1	2,568045
3,305833	0,1	2,527021
3,307500	0,1	2,501664
3,309167	0,1	2,554267
3,310833	0,1	2,488136
3,312500	0,1	2,467176
3,314167	0,1	2,464360
3,315833	0,1	2,438311
3,317500	0,1	2,431390
3,319167	0,1	2,396204
3,320833	0,1	2,404396
3,322500	0,1	2,367697
3,324167	0,1	2,379352
3,325833	0,1	2,356469
3,327500	0,1	2,358983
3,329167	0,1	2,323801
3,330833	0,1	2,302207
3,332500	0,1	2,321551
3,334167	0,1	2,236596
3,335833	0,1	2,247367
3,337500	0,1	2,260319
3,339167	0,1	2,265285
3,340833	0,1	2,257589
3,342500	0,1	2,247084
3,344167	0,1	2,254129
3,345833	0,1	2,206226
3,347500	0,1	2,218225
3,349167	0,1	2,187083
3,350833	0,1	2,185997
3,352500	0,1	2,153199
3,354167	0,1	2,179804
3,355833	0,1	2,143488
3,357500	0,1	2,139598
3,359167	0,1	2,131756
3,360833	0,1	2,142399
3,362500	0,1	2,123632
3,364167	0,1	2,072137
3,365833	0,1	2,128360
3,367500	0,1	2,116147
3,369167	0,1	2,089612
3,370833	0,1	2,111536
3,372500	0,1	2,087019
3,374167	0,1	2,059832
3,375833	0,1	2,048248
3,377500	0,1	2,053565
3,379167	0,1	2,053929
3,380833	0,1	2,015818
3,382500	0,1	2,050326
3,384167	0,1	2,016182
3,385833	0,1	2,001000
3,387500	0,1	1,999773
3,389167	0,1	1,978497
3,390833	0,1	2,024286
3,392500	0,1	1,980160
3,394167	0,1	1,954112
3,395833	0,1	1,988696
3,397500	0,1	2,024008
3,399167	0,1	1,977566
3,400833	0,1	1,984743
3,402500	0,1	1,960448
3,404167	0,1	1,980933
3,405833	0,1	1,971307
3,407500	0,1	1,955764
3,409167	0,1	1,959652
3,410833	0,1	1,940021
3,412500	0,1	1,946770
3,414167	0,1	1,948004
3,415833	0,1	1,948726
3,417500	0,1	1,969704
3,419167	0,1	1,938086
3,420833	0,1	1,951024
3,422500	0,1	1,981005
3,424167	0,1	1,944121
3,425833	0,1	1,911693
3,427500	0,1	1,961718
3,429167	0,1	2,017384
3,430833	0,1	1,999138
3,432500	0,1	1,958504
3,434167	0,1	1,987119
3,435833	0,1	2,005593
3,437500	0,1	1,987264
3,439167	0,1	2,018397
3,440833	0,1	1,990718
3,442500	0,1	2,023646
3,444167	0,1	1,997985
3,445833	0,1	2,043923
3,447500	0,1	2,026318
3,449167	0,1	2,050758
3,450833	0,1	2,041633
3,452500	0,1	2,085279
3,454167	0,1	2,085218
3,455833	0,1	2,100536
3,457500	0,1	2,127147
3,459167	0,1	2,136716
3,460833	0,1	2,114927
3,462500	0,1	2,162102
3,464167	0,1	2,152906
3,465833	0,1	2,210300
3,467500	0,1	2,204703
3,469167	0,1	2,194201
3,470833	0,1	2,261454
3,472500	0,1	2,224138
3,474167	0,1	2,296210
3,475833	0,1	2,288389
3,477500	0,1	2,309610
3,479167	0,1	2,325876
3,480833	0,1	2,411142
3,482500	0,1	2,385342
3,484167	0,1	2,423468
3,485833	0,1	2,482922
3,487500	0,1	2,465238
3,489167	0,1	2,466038
3,490833	0,1	2,505525
3,492500	0,1	2,552112
3,494167	0,1	2,548590
3,495833	0,1	2,654999
3,497500	0,1	2,643008
3,499167	0,1	2,671082
3,500833	0,1	2,664904
3,502500	0,1	2,734538
3,504167	0,1	2,724916
3,505833	0,1	2,758396
3,507500	0,1	2,783749
3,509167	0,1	2,850888
3,510833	0,1	2,796610
3,512500	0,1	2,861339
3,514167	0,1	2,840472
3,515833	0,1	2,910401
3,517500	0,1	2,920508
3,519167	0,1	2,913362
3,520833	0,1	2,995520
3,522500	0,1	2,998044
3,524167	0,1	2,980037
3,525833	0,1	3,036591
3,527500	0,1	3,003740
3,529167	0,1	3,005075
3,530833	0,1	3,045602
3,532500	0,1	3,049251
3,534167	0,1	3,068711
3,535833	0,1	3,124829
3,537500	0,1	3,096126
3,539167	0,1	3,111501
3,540833	0,1	3,128119
3,542500	0,1	3,116237
3,544167	0,1	3,167887
3,545833	0,1	3,134147
3,547500	0,1	3,143811
3,549167	0,1	3,150320
3,550833	0,1	3,188581
3,552500	0,1	3,143403
3,554167	0,1	3,142552
3,555833	0,1	3,182625
3,557500	0,1	3,137371
3,559167	0,1	3,155777
3,560833	0,1	3,167782
3,562500	0,1	3,148016
3,564167	0,1	3,124715
3,565833	0,1	3,154476
3,567500	0,1	3,134044
3,569167	0,1	3,174533
3,570833	0,1	3,102701
3,572500	0,1	3,084653
3,574167	0,1	3,094211
3,575833	0,1	3,085948
3,577500	0,1	3,088146
3,579167	0,1	3,107968
3,580833	0,1	3,108773
3,582500	0,1	3,062542
3,584167	0,1	3,046794
3,585833	0,1	3,036852
3,587500	0,1	3,021207
3,589167	0,1	3,022771
3,590833	0,1	2,987736
3,592500	0,1	3,000215
3,594167	0,1	2,977595
3,595833	0,1	2,936584
3,597500	0,1	2,947598
3,599167	0,1	2,960780
3,600833	0,1	2,920683
3,602500	0,1	2,835361
3,604167	0,1	2,870077
3,605833	0,1	2,883026
3,607500	0,1	2,850188
3,609167	0,1	2,823464
3,610833	0,1	2,790957
3,612500	0,1	2,804912
3,614167	0,1	2,766320
3,615833	0,1	2,752572
3,617500	0,1	2,712160
3,619167	0,1	2,717252
3,620833	0,1	2,701348
3,622500	0,1	2,659219
3,624167	0,1	2,621567
3,625833	0,1	2,663441
3,627500	0,1	2,603246
3,629167	0,1	2,612408
3,630833	0,1	2,555029
3,632500	0,1	2,553641
3,634167	0,1	2,554936
3,635833	0,1	2,507856
3,637500	0,1	2,488772
3,639167	0,1	2,511869
3,640833	0,1	2,442568
3,642500	0,1	2,445640
3,644167	0,1	2,451108
3,645833	0,1	2,413339
3,647500	0,1	2,398858
3,649167	0,1	2,356189
3,650833	0,1	2,343729
3,652500	0,1	2,319333
3,654167	0,1	2,303501
3,655833	0,1	2,290471
3,657500	0,1	2,254575
3,659167	0,1	2,271542
3,660833	0,1	2,229032
3,662500	0,1	2,244774
3,664167	0,1	2,207517
3,665833	0,1	2,180895
3,667500	0,1	2,175135
3,669167	0,1	2,152408
3,670833	0,1	2,152833
3,672500	0,1	2,134709
3,674167	0,1	2,112194
3,675833	0,1	2,084791
3,677500	0,1	2,088954
3,679167	0,1	2,075440
3,680833	0,1	2,046744
3,682500	0,1	2,049540
3,684167	0,1	2,035884
3,685833	0,1	2,017400
3,687500	0,1	2,012659
3,689167	0,1	1,977782
3,690833	0,1	1,965055
3,692500	0,1	1,971087
3,694167	0,1	1,918102
3,695833	0,1	1,930964
3,697500	0,1	1,924784
3,699167	0,1	1,893151
3,700833	0,1	1,910175
3,702500	0,1	1,864562
3,704167	0,1	1,888255
3,705833	0,1	1,873453
3,707500	0,1	1,862093
3,709167	0,1	1,845998
3,710833	0,1	1,829957
3,712500	0,1	1,766484
3,714167	0,1	1,782437
3,715833	0,1	1,788478
3,717500	0,1	1,815222
3,719167	0,1	1,767651
3,720833	0,1	1,777910
3,722500	0,1	1,755854
3,724167	0,1	1,728549
3,725833	0,1	1,741833
3,727500	0,1	1,739966
3,729167	0,1	1,726257
3,730833	0,1	1,678963
3,732500	0,1	1,707987
3,734167	0,1	1,700663
3,735833	0,1	1,658025
3,737500	0,1	1,670251
3,739167	0,1	1,703040
3,740833	0,1	1,700523
3,742500	0,1	1,666164
3,744167	0,1	1,644252
3,745833	0,1	1,696927
3,747500	0,1	1,651592
3,749167	0,1	1,644617
3,750833	0,1	1,688015
3,752500	0,1	1,653837
3,754167	0,1	1,612479
3,755833	0,1	1,619962
3,757500	0,1	1,629649
3,759167	0,1	1,606239
3,760833	0,1	1,599145
3,762500	0,1	1,624125
3,764167	0,1	1,614354
3,765833	0,1	1,613012
3,767500	0,1	1,609918
3,769167	0,1	1,613507
3,770833	0,1	1,578645
3,772500	0,1	1,585771
3,774167	0,1	1,543387
3,775833	0,1	1,564777
3,777500	0,1	1,574063
3,779167	0,1	1,579088
3,780833	0,1	1,568332
3,782500	0,1	1,569622
3,784167	0,1	1,563366
3,785833	0,1	1,550053
3,787500	0,1	1,537067
3,789167	0,1	1,527217
3,790833	0,1	1,561472
3,792500	0,1	1,526645
3,794167	0,1	1,553151
3,795833	0,1	1,511283
3,797500	0,1	1,500065
3,799167	0,1	1,508973
3,800833	0,1	1,471187
3,802500	0,1	1,500854
3,804167	0,1	1,499706
3,805833	0,1	1,496474
3,807500	0,1	1,498137
3,809167	0,1	1,491522
3,810833	0,1	1,482763
3,812500	0,1	1,498986
3,814167	0,1	1,497641
3,815833	0,1	1,504436
3,817500	0,1	1,467406
3,819167	0,1	1,454541
3,820833	0,1	1,490880
3,822500	0,1	1,427239
3,824167	0,1	1,416019
3,825833	0,1	1,408686
3,827500	0,1	1,426710
3,829167	0,1	1,424061
3,830833	0,1	1,425917
3,832500	0,1	1,406271
3,834167	0,1	1,389162
3,835833	0,1	1,388412
3,837500	0,1	1,394700
3,839167	0,1	1,377173
3,840833	0,1	1,401586
3,842500	0,1	1,383141
3,844167	0,1	1,378904
3,845833	0,1	1,394219
3,847500	0,1	1,345970
3,849167	0,1	1,323808
3,850833	0,1	1,352704
3,852500	0,1	1,336832
3,854167	0,1	1,330810
3,855833	0,1	1,363417
3,857500	0,1	1,276312
3,859167	0,1	1,261263
3,860833	0,1	1,327051
3,862500	0,1	1,277460
3,864167	0,1	1,278808
3,865833	0,1	1,306961
3,867500	0,1	1,302513
3,869167	0,1	1,279731
3,870833	0,1	1,263680
3,872500	0,1	1,287951
3,874167	0,1	1,239049
3,875833	0,1	1,220576
3,877500	0,1	1,278898
3,879167	0,1	1,247193
3,880833	0,1	1,221976
3,882500	0,1	1,241752
3,884167	0,1	1,200537
3,885833	0,1	1,210195
3,887500	0,1	1,214149
3,889167	0,1	1,214863
3,890833	0,1	1,181598
3,892500	0,1	1,178804
3,894167	0,1	1,195461
3,895833	0,1	1,186558
3,897500	0,1	1,187422
3,899167	0,1	1,183586
3,900833	0,1	1,133995
3,902500	0,1	1,113546
3,904167	0,1	1,131462
3,905833	0,1	1,163445
3,907500	0,1	1,103598
3,909167	0,1	1,139902
3,910833	0,1	1,117598
3,912500	0,1	1,120843
3,914167	0,1	1,133717
3,915833	0,1	1,138861
3,917500	0,1	1,065229
3,919167	0,1	1,090616
3,920833	0,1	1,123020
3,922500	0,1	1,107863
3,924167	0,1	1,063619
3,925833	0,1	1,116176
3,927500	0,1	1,076066
3,929167	0,1	1,060249
3,930833	0,1	1,056016
3,932500	0,1	1,100299
3,934167	0,1	1,043692
3,935833	0,1	1,031478
3,937500	0,1	1,055763
3,939167	0,1	1,038049
3,940833	0,1	1,043831
3,942500	0,1	1,051871
3,944167	0,1	1,070597
3,945833	0,1	1,029281
3,947500	0,1	1,032766
3,949167	0,1	1,018297
3,950833	0,1	1,014286
3,952500	0,1	1,028043
3,954167	0,1	1,003802
3,955833	0,1	1,027261
3,957500	0,1	1,019920
3,959167	0,1	1,021588
3,960833	0,1	1,005183
3,962500	0,1	1,000460
3,964167	0,1	1,028194
3,965833	0,1	1,032386
3,967500	0,1	0,969187
3,969167	0,1	0,997665
3,970833	0,1	1,054797
3,972500	0,1	0,975224
3,974167	0,1	1,012827
3,975833	0,1	0,978267
3,977500	0,1	0,960982
3,979167	0,1	0,996552
3,980833	0,1	0,967265
3,982500	0,1	0,987156
3,984167	0,1	0,941088
3,985833	0,1	1,004384
3,987500	0,1	0,957831
3,989167	0,1	1,007570
3,990833	0,1	0,958543
3,992500	0,1	0,989295
3,994167	0,1	1,012143
3,995833	0,1	0,992023
3,997500	0,1	1,007534
3,999167	0,1	0,973035
4,000833	0,1	0,944692
4,002500	0,1	0,970751
4,004167	0,1	0,995687
4,005833	0,1	0,982178
4,007500	0,1	0,997981
4,009167	0,1	0,996918
4,010833	0,1	0,974011
4,012500	0,1	0,951833
4,014167	0,1	1,004942
4,015833	0,1	0,948299
4,017500	0,1	1,026669
4,019167	0,1	0,997371
4,020833	0,1	0,991441
4,022500	0,1	1,019311
4,024167	0,1	1,020051
4,025833	0,1	1,037416
4,027500	0,1	1,041539
4,029167	0,1	0,996037
4,030833	0,1	1,030999
4,032500	0,1	1,009413
4,034167	0,1	1,002952
4,035833	0,1	1,063861
4,037500	0,1	1,052277
4,039167	0,1	1,005565
4,040833	0,1	0,998965
4,042500	0,1	1,080356
4,044167	0,1	1,038877
4,045833	0,1	1,060196
4,047500	0,1	1,070241
4,049167	0,1	1,078326
4,050833	0,1	1,078639
4,052500	0,1	1,078372
4,054167	0,1	1,106203
4,055833	0,1	1,132019
4,057500	0,1	1,126233
4,059167	0,1	1,098801
4,060833	0,1	1,094255
4,062500	0,1	1,143969
4,064167	0,1	1,108203
4,065833	0,1	1,146071
4,067500	0,1	1,187249
4,069167	0,1	1,180761
4,070833	0,1	1,207733
4,072500	0,1	1,175446
4,074167	0,1	1,200240
4,075833	0,1	1,202840
4,077500	0,1	1,185556
4,079167	0,1	1,235727
4,080833	0,1	1,237745
4,082500	0,1	1,231219
4,084167	0,1	1,265144
4,085833	0,1	1,272210
4,087500	0,1	1,263013
4,089167	0,1	1,294921
4,090833	0,1	1,307048
4,092500	0,1	1,346154
4,094167	0,1	1,366651
4,095833	0,1	1,373085
4,097500	0,1	1,378952
4,099167	0,1	1,417467
4,100833	0,1	1,450461
4,102500	0,1	1,420685
4,104167	0,1	1,453018
4,105833	0,1	1,476084
4,107500	0,1	1,469902
4,109167	0,1	1,485052
4,110833	0,1	1,489870
4,112500	0,1	1,524979
4,114167	0,1	1,511043
4,115833	0,1	1,536989
4,117500	0,1	1,570386
4,119167	0,1	1,561137
4,120833	0,1	1,538762
4,122500	0,1	1,599752
4,124167	0,1	1,641801
4,125833	0,1	1,651796
4,127500	0,1	1,701077
4,129167	0,1	1,714597
4,130833	0,1	1,688310
4,132500	0,1	1,720833
4,134167	0,1	1,717548
4,135833	0,1	1,746514
4,137500	0,1	1,785042
4,139167	0,1	1,787255
4,140833	0,1	1,813431
4,142500	0,1	1,797253
4,144167	0,1	1,802930
4,145833	0,1	1,853021
4,147500	0,1	1,895874
4,149167	0,1	1,888985
4,150833	0,1	1,875316
4,152500	0,1	1,926924
4,154167	0,1	1,915440
4,155833	0,1	1,971155
4,157500	0,1	1,921990
4,159167	0,1	1,952592
4,160833	0,1	1,973675
4,162500	0,1	1,979217
4,164167	0,1	1,979000
4,165833	0,1	2,050247
4,167500	0,1	2,018770
4,169167	0,1	2,014302
4,170833	0,1	2,078733
4,172500	0,1	2,048328
4,174167	0,1	2,030991
4,175833	0,1	2,054285
4,177500	0,1	2,075285
4,179167	0,1	2,092621
4,180833	0,1	2,113482
4,182500	0,1	2,099538
4,184167	0,1	2,106364
4,185833	0,1	2,095149
4,187500	0,1	2,153898
4,189167	0,1	2,121475
4,190833	0,1	2,125282
4,192500	0,1	2,161888
4,194167	0,1	2,138740
4,195833	0,1	2,163546
4,197500	0,1	2,148808
4,199167	0,1	2,156213
4,200833	0,1	2,185703
4,202500	0,1	2,220162
4,204167	0,1	2,188739
4,205833	0,1	2,153201
4,207500	0,1	2,224327
4,209167	0,1	2,198737
4,210833	0,1	2,225920
4,212500	0,1	2,156088
4,214167	0,1	2,201813
4,215833	0,1	2,212829
4,217500	0,1	2,187082
4,219167	0,1	2,222178
4,220833	0,1	2,197370
4,222500	0,1	2,217000
4,224167	0,1	2,198159
4,225833	0,1	2,185424
4,227500	0,1	2,172259
4,229167	0,1	2,202249
4,230833	0,1	2,226280
4,232500	0,1	2,206435
4,234167	0,1	2,219234
4,235833	0,1	2,236067
4,237500	0,1	2,219384
4,239167	0,1	2,194925
4,240833	0,1	2,217647
4,242500	0,1	2,202116
4,244167	0,1	2,218800
4,245833	0,1	2,163637
4,247500	0,1	2,154418
4,249167	0,1	2,196060
4,250833	0,1	2,205060
4,252500	0,1	2,169172
4,254167	0,1	2,171034
4,255833	0,1	2,188368
4,257500	0,1	2,184847
4,259167	0,1	2,164995
4,260833	0,1	2,147297
4,262500	0,1	2,174480
4,264167	0,1	2,160103
4,265833	0,1	2,149098
4,267500	0,1	2,122699
4,269167	0,1	2,162105
4,270833	0,1	2,122560
4,272500	0,1	2,111905
4,274167	0,1	2,099749
4,275833	0,1	2,113337
4,277500	0,1	2,097740
4,279167	0,1	2,065802
4,280833	0,1	2,101682
4,282500	0,1	2,051136
4,284167	0,1	2,067237
4,285833	0,1	2,069320
4,287500	0,1	2,039631
4,289167	0,1	2,040413
4,290833	0,1	2,023380
4,292500	0,1	2,069604
4,294167	0,1	2,030785
4,295833	0,1	1,991731
4,297500	0,1	2,014589
4,299167	0,1	2,005392
4,300833	0,1	1,968793
4,302500	0,1	1,990854
4,304167	0,1	1,958215
4,305833	0,1	1,981875
4,307500	0,1	1,953980
4,309167	0,1	1,937300
4,310833	0,1	1,965479
4,312500	0,1	1,929317
4,314167	0,1	1,974393
4,315833	0,1	1,919121
4,317500	0,1	1,940678
4,319167	0,1	1,914942
4,320833	0,1	1,919464
4,322500	0,1	1,867926
4,324167	0,1	1,909968
4,325833	0,1	1,860879
4,327500	0,1	1,897386
4,329167	0,1	1,800934
4,330833	0,1	1,824429
4,332500	0,1	1,837004
4,334167	0,1	1,829893
4,335833	0,1	1,792800
4,337500	0,1	1,764492
4,339167	0,1	1,769518
4,340833	0,1	1,766417
4,342500	0,1	1,760962
4,344167	0,1	1,708068
4,345833	0,1	1,720778
4,347500	0,1	1,755858
4,349167	0,1	1,780080
4,350833	0,1	1,745508
4,352500	0,1	1,695648
4,354167	0,1	1,731059
4,355833	0,1	1,701404
4,357500	0,1	1,647505
4,359167	0,1	1,671344
4,360833	0,1	1,665818
4,362500	0,1	1,634475
4,364167	0,1	1,612417
4,365833	0,1	1,612412
4,367500	0,1	1,572481
4,369167	0,1	1,595397
4,370833	0,1	1,601498
4,372500	0,1	1,601304
4,374167	0,1	1,614371
4,375833	0,1	1,585641
4,377500	0,1	1,557746
4,379167	0,1	1,543311
4,380833	0,1	1,555095
4,382500	0,1	1,516825
4,384167	0,1	1,527884
4,385833	0,1	1,517465
4,387500	0,1	1,492257
4,389167	0,1	1,474980
4,390833	0,1	1,486636
4,392500	0,1	1,453171
4,394167	0,1	1,459501
4,395833	0,1	1,444186
4,397500	0,1	1,432564
4,399167	0,1	1,422937
4,400833	0,1	1,395423
4,402500	0,1	1,418558
4,404167	0,1	1,395644
4,405833	0,1	1,402897
4,407500	0,1	1,365287
4,409167	0,1	1,362388
4,410833	0,1	1,358902
4,412500	0,1	1,377925
4,414167	0,1	1,317030
4,415833	0,1	1,364247
4,417500	0,1	1,277537
4,419167	0,1	1,312196
4,420833	0,1	1,339116
4,422500	0,1	1,293613
4,424167	0,1	1,301796
4,425833	0,1	1,298772
4,427500	0,1	1,234107
4,429167	0,1	1,275025
4,430833	0,1	1,303050
4,432500	0,1	1,273239
4,434167	0,1	1,199107
4,435833	0,1	1,183173
4,437500	0,1	1,150119
4,439167	0,1	1,195251
4,440833	0,1	1,205528
4,442500	0,1	1,203526
4,444167	0,1	1,213539
4,445833	0,1	1,190253
4,447500	0,1	1,165532
4,449167	0,1	1,176565
4,450833	0,1	1,158667
4,452500	0,1	1,164119
4,454167	0,1	1,142877
4,455833	0,1	1,147788
4,457500	0,1	1,098317
4,459167	0,1	1,121059
4,460833	0,1	1,102205
4,462500	0,1	1,097082
4,464167	0,1	1,081604
4,465833	0,1	1,076837
4,467500	0,1	1,061985
4,469167	0,1	1,082954
4,470833	0,1	1,061719
4,472500	0,1	1,073958
4,474167	0,1	1,032085
4,475833	0,1	1,019854
4,477500	0,1	1,017736
4,479167	0,1	1,023100
4,480833	0,1	1,023102
4,482500	0,1	0,992380
4,484167	0,1	1,052659
4,485833	0,1	0,983289
4,487500	0,1	0,983513
4,489167	0,1	0,960566
4,490833	0,1	0,990409
4,492500	0,1	0,969133
4,494167	0,1	0,981731
4,495833	0,1	0,956892
4,497500	0,1	0,934516
4,499167	0,1	0,929770
4,500833	0,1	0,966584
4,502500	0,1	0,940486
4,504167	0,1	0,910879
4,505833	0,1	0,918816
4,507500	0,1	0,935219
4,509167	0,1	0,894852
4,510833	0,1	0,923843
4,512500	0,1	0,839612
4,514167	0,1	0,882143
4,515833	0,1	0,875384
4,517500	0,1	0,833147
4,519167	0,1	0,859620
4,520833	0,1	0,847299
4,522500	0,1	0,843951
4,524167	0,1	0,820719
4,525833	0,1	0,829051
4,527500	0,1	0,822125
4,529167	0,1	0,835674
4,530833	0,1	0,844174
4,532500	0,1	0,817521
4,534167	0,1	0,819225
4,535833	0,1	0,838308
4,537500	0,1	0,826907
4,539167	0,1	0,766316
4,540833	0,1	0,808362
4,542500	0,1	0,753053
4,544167	0,1	0,820396
4,545833	0,1	0,764342
4,547500	0,1	0,799039
4,549167	0,1	0,761046
4,550833	0,1	0,739782
4,552500	0,1	0,767454
4,554167	0,1	0,754848
4,555833	0,1	0,754937
4,557500	0,1	0,745747
4,559167	0,1	0,744294
4,560833	0,1	0,734066
4,562500	0,1	0,718093
4,564167	0,1	0,683741
4,565833	0,1	0,714436
4,567500	0,1	0,695386
4,569167	0,1	0,698964
4,570833	0,1	0,661968
4,572500	0,1	0,697048
4,574167	0,1	0,673254
4,575833	0,1	0,693050
4,577500	0,1	0,696180
4,579167	0,1	0,686830
4,580833	0,1	0,659894
4,582500	0,1	0,669765
4,584167	0,1	0,673436
4,585833	0,1	0,662248
4,587500	0,1	0,661823
4,589167	0,1	0,628964
4,590833	0,1	0,629471
4,592500	0,1	0,651857
4,594167	0,1	0,665366
4,595833	0,1	0,615935
4,597500	0,1	0,622568
4,599167	0,1	0,627924
4,600833	0,1	0,626891
4,602500	0,1	0,603866
4,604167	0,1	0,631239
4,605833	0,1	0,630920
4,607500	0,1	0,609960
4,609167	0,1	0,618535
4,610833	0,1	0,616702
4,612500	0,1	0,604732
4,614167	0,1	0,562585
4,615833	0,1	0,639260
4,617500	0,1	0,597319
4,619167	0,1	0,611339
4,620833	0,1	0,584128
4,622500	0,1	0,570607
4,624167	0,1	0,545615
4,625833	0,1	0,600586
4,627500	0,1	0,574257
4,629167	0,1	0,563060
4,630833	0,1	0,528460
4,632500	0,1	0,558341
4,634167	0,1	0,580210
4,635833	0,1	0,558774
4,637500	0,1	0,570666
4,639167	0,1	0,546454
4,640833	0,1	0,591654
4,642500	0,1	0,545007
4,644167	0,1	0,571017
4,645833	0,1	0,558028
4,647500	0,1	0,520657
4,649167	0,1	0,505718
4,650833	0,1	0,529574
4,652500	0,1	0,546217
4,654167	0,1	0,512817
4,655833	0,1	0,495206
4,657500	0,1	0,518028
4,659167	0,1	0,519938
4,660833	0,1	0,523129
4,662500	0,1	0,480248
4,664167	0,1	0,483560
4,665833	0,1	0,508611
4,667500	0,1	0,518968
4,669167	0,1	0,494145
4,670833	0,1	0,493171
4,672500	0,1	0,460546
4,674167	0,1	0,516279
4,675833	0,1	0,463580
4,677500	0,1	0,477883
4,679167	0,1	0,483883
4,680833	0,1	0,459899
4,682500	0,1	0,471917
4,684167	0,1	0,509447
4,685833	0,1	0,496366
4,687500	0,1	0,450132
4,689167	0,1	0,476976
4,690833	0,1	0,464796
4,692500	0,1	0,455058
4,694167	0,1	0,463533
4,695833	0,1	0,490359
4,697500	0,1	0,455997
4,699167	0,1	0,472207
4,700833	0,1	0,405672
4,702500	0,1	0,475256
4,704167	0,1	0,463731
4,705833	0,1	0,428784
4,707500	0,1	0,463075
4,709167	0,1	0,468372
4,710833	0,1	0,451094
4,712500	0,1	0,461727
4,714167	0,1	0,431846
4,715833	0,1	0,440737
4,717500	0,1	0,459953
4,719167	0,1	0,437421
4,720833	0,1	0,441191
4,722500	0,1	0,417046
4,724167	0,1	0,478742
4,725833	0,1	0,432139
4,727500	0,1	0,390223
4,729167	0,1	0,437536
4,730833	0,1	0,444286
4,732500	0,1	0,390646
4,734167	0,1	0,456785
4,735833	0,1	0,428074
4,737500	0,1	0,397280
4,739167	0,1	0,448597
4,740833	0,1	0,421881
4,742500	0,1	0,404212
4,744167	0,1	0,446370
4,745833	0,1	0,437353
4,747500	0,1	0,416495
4,749167	0,1	0,415106
4,750833	0,1	0,417881
4,752500	0,1	0,396411
4,754167	0,1	0,415132
4,755833	0,1	0,422714
4,757500	0,1	0,426098
4,759167	0,1	0,421202
4,760833	0,1	0,390221
4,762500	0,1	0,389733
4,764167	0,1	0,416128
4,765833	0,1	0,425329
4,767500	0,1	0,457079
4,769167	0,1	0,426592
4,770833	0,1	0,412466
4,772500	0,1	0,420971
4,774167	0,1	0,399315
4,775833	0,1	0,398085
4,777500	0,1	0,436732
4,779167	0,1	0,418202
4,780833	0,1	0,405308
4,782500	0,1	0,422807
4,784167	0,1	0,360088
4,785833	0,1	0,410807
4,787500	0,1	0,419618
4,789167	0,1	0,401888
4,790833	0,1	0,418426
4,792500	0,1	0,395250
4,794167	0,1	0,380806
4,795833	0,1	0,373870
4,797500	0,1	0,393922
4,799167	0,1	0,408073
4,800833	0,1	0,402822
4,802500	0,1	0,358629
4,804167	0,1	0,438401
4,805833	0,1	0,406406
4,807500	0,1	0,438637
4,809167	0,1	0,403991
4,810833	0,1	0,372586
4,812500	0,1	0,383735
4,814167	0,1	0,395858
4,815833	0,1	0,394989
4,817500	0,1	0,386155
4,819167	0,1	0,354758
4,820833	0,1	0,404162
4,822500	0,1	0,385832
4,824167	0,1	0,381096
4,825833	0,1	0,385218
4,827500	0,1	0,413356
4,829167	0,1	0,421292
4,830833	0,1	0,390385
4,832500	0,1	0,380063
4,834167	0,1	0,433021
4,835833	0,1	0,387228
4,837500	0,1	0,387506
4,839167	0,1	0,367395
4,840833	0,1	0,427215
4,842500	0,1	0,405666
4,844167	0,1	0,395410
4,845833	0,1	0,411494
4,847500	0,1	0,408077
4,849167	0,1	0,388837
4,850833	0,1	0,411881
4,852500	0,1	0,389413
4,854167	0,1	0,429411
4,855833	0,1	0,395027
4,857500	0,1	0,395308
4,859167	0,1	0,414328
4,860833	0,1	0,450565
4,862500	0,1	0,449059
4,864167	0,1	0,414469
4,865833	0,1	0,446764
4,867500	0,1	0,406413
4,869167	0,1	0,449790
4,870833	0,1	0,382656
4,872500	0,1	0,422770
4,874167	0,1	0,404724
4,875833	0,1	0,420905
4,877500	0,1	0,439833
4,879167	0,1	0,423689
4,880833	0,1	0,431417
4,882500	0,1	0,426458
4,884167	0,1	0,434253
4,885833	0,1	0,399249
4,887500	0,1	0,430093
4,889167	0,1	0,433196
4,890833	0,1	0,401219
4,892500	0,1	0,404301
4,894167	0,1	0,404980
4,895833	0,1	0,418711
4,897500	0,1	0,437347
4,899167	0,1	0,410406
4,900833	0,1	0,387414
4,902500	0,1	0,441724
4,904167	0,1	0,440572
4,905833	0,1	0,414887
4,907500	0,1	0,425805
4,909167	0,1	0,368723
4,910833	0,1	0,426799
4,912500	0,1	0,424357
4,914167	0,1	0,402278
4,915833	0,1	0,395437
4,917500	0,1	0,442858
4,919167	0,1	0,475203
4,920833	0,1	0,411380
4,922500	0,1	0,423998
4,924167	0,1	0,413691
4,925833	0,1	0,458946
4,927500	0,1	0,464503
4,929167	0,1	0,410669
4,930833	0,1	0,441666
4,932500	0,1	0,403311
4,934167	0,1	0,444182
4,935833	0,1	0,424105
4,937500	0,1	0,436835
4,939167	0,1	0,416981
4,940833	0,1	0,415554
4,942500	0,1	0,414909
4,944167	0,1	0,430866
4,945833	0,1	0,452503
4,947500	0,1	0,428556
4,949167	0,1	0,464688
4,950833	0,1	0,461569
4,952500	0,1	0,470017
4,954167	0,1	0,443517
4,955833	0,1	0,429135
4,957500	0,1	0,482420
4,959167	0,1	0,435304
4,960833	0,1	0,433133
4,962500	0,1	0,438900
4,964167	0,1	0,430940
4,965833	0,1	0,439868
4,967500	0,1	0,427233
4,969167	0,1	0,472037
4,970833	0,1	0,494714
4,972500	0,1	0,470700
4,974167	0,1	0,476981
4,975833	0,1	0,483334
4,977500	0,1	0,437978
4,979167	0,1	0,471847
4,980833	0,1	0,482592
4,982500	0,1	0,480015
4,984167	0,1	0,514835
4,985833	0,1	0,483986
4,987500	0,1	0,486624
4,989167	0,1	0,476372
4,990833	0,1	0,479369
4,992500	0,1	0,496392
4,994167	0,1	0,474796
4,995833	0,1	0,519829
4,997500	0,1	0,522517
4,999167	0,1	0,515972
5,000833	0,1	0,525225
5,002500	0,1	0,513071
5,004167	0,1	0,490112
5,005833	0,1	0,537084
5,007500	0,1	0,507818
5,009167	0,1	0,539023
5,010833	0,1	0,523456
5,012500	0,1	0,536349
5,014167	0,1	0,572466
5,015833	0,1	0,566962
5,017500	0,1	0,585534
5,019167	0,1	0,513634
5,020833	0,1	0,583845
5,022500	0,1	0,527078
5,024167	0,1	0,551022
5,025833	0,1	0,556735
5,027500	0,1	0,582854
5,029167	0,1	0,577442
5,030833	0,1	0,583696
5,032500	0,1	0,576382
5,034167	0,1	0,569544
5,035833	0,1	0,582053
5,037500	0,1	0,598210
5,039167	0,1	0,608277
5,040833	0,1	0,629370
5,042500	0,1	0,634080
5,044167	0,1	0,607255
5,045833	0,1	0,642626
5,047500	0,1	0,610640
5,049167	0,1	0,658492
5,050833	0,1	0,632351
5,052500	0,1	0,689235
5,054167	0,1	0,700534
5,055833	0,1	0,678995
5,057500	0,1	0,678925
5,059167	0,1	0,717500
5,060833	0,1	0,673578
5,062500	0,1	0,682018
5,064167	0,1	0,672989
5,065833	0,1	0,714461
5,067500	0,1	0,648977
5,069167	0,1	0,690014
5,070833	0,1	0,654452
5,072500	0,1	0,718300
5,074167	0,1	0,730638
5,075833	0,1	0,707068
5,077500	0,1	0,693994
5,079167	0,1	0,735241
5,080833	0,1	0,725873
5,082500	0,1	0,717773
5,084167	0,1	0,721707
5,085833	0,1	0,777828
5,087500	0,1	0,752886
5,089167	0,1	0,746130
5,090833	0,1	0,735131
5,092500	0,1	0,725900
5,094167	0,1	0,787165
5,095833	0,1	0,789563
5,097500	0,1	0,765691
5,099167	0,1	0,747106
5,100833	0,1	0,760293
5,102500	0,1	0,769752
5,104167	0,1	0,759971
5,105833	0,1	0,783907
5,107500	0,1	0,778594
5,109167	0,1	0,781501
5,110833	0,1	0,777854
5,112500	0,1	0,760133
5,114167	0,1	0,788923
5,115833	0,1	0,800085
5,117500	0,1	0,782112
5,119167	0,1	0,737563
5,120833	0,1	0,805683
5,122500	0,1	0,790699
5,124167	0,1	0,805273
5,125833	0,1	0,801853
5,127500	0,1	0,778635
5,129167	0,1	0,796976
5,130833	0,1	0,815664
5,132500	0,1	0,757926
5,134167	0,1	0,788423
5,135833	0,1	0,811054
5,137500	0,1	0,797115
5,139167	0,1	0,784889
5,140833	0,1	0,772693
5,142500	0,1	0,779444
5,144167	0,1	0,776038
5,145833	0,1	0,784344
5,147500	0,1	0,775842
5,149167	0,1	0,782106
5,150833	0,1	0,802850
5,152500	0,1	0,791372
5,154167	0,1	0,802561
5,155833	0,1	0,816508
5,157500	0,1	0,793627
5,159167	0,1	0,810752
5,160833	0,1	0,756467
5,162500	0,1	0,816907
5,164167	0,1	0,791915
5,165833	0,1	0,768721
5,167500	0,1	0,796657
5,169167	0,1	0,761756
5,170833	0,1	0,741587
5,172500	0,1	0,780611
5,174167	0,1	0,763648
5,175833	0,1	0,744010
5,177500	0,1	0,764445
5,179167	0,1	0,762459
5,180833	0,1	0,741643
5,182500	0,1	0,747287
5,184167	0,1	0,724352
5,185833	0,1	0,741289
5,187500	0,1	0,731036
5,189167	0,1	0,747873
5,190833	0,1	0,755132
5,192500	0,1	0,723325
5,194167	0,1	0,719128
5,195833	0,1	0,706580
5,197500	0,1	0,679933
5,199167	0,1	0,683505
5,200833	0,1	0,711406
5,202500	0,1	0,717995
5,204167	0,1	0,719475
5,205833	0,1	0,645202
5,207500	0,1	0,698111
5,209167	0,1	0,691339
5,210833	0,1	0,661737
5,212500	0,1	0,648218
5,214167	0,1	0,665402
5,215833	0,1	0,663505
5,217500	0,1	0,628449
5,219167	0,1	0,632409
5,220833	0,1	0,661723
5,222500	0,1	0,613289
5,224167	0,1	0,631241
5,225833	0,1	0,636595
5,227500	0,1	0,650077
5,229167	0,1	0,652501
5,230833	0,1	0,631412
5,232500	0,1	0,591872
5,234167	0,1	0,608888
5,235833	0,1	0,611306
5,237500	0,1	0,599733
5,239167	0,1	0,609438
5,240833	0,1	0,592992
5,242500	0,1	0,614307
5,244167	0,1	0,574482
5,245833	0,1	0,575055
5,247500	0,1	0,569702
5,249167	0,1	0,580502
5,250833	0,1	0,586665
5,252500	0,1	0,559291
5,254167	0,1	0,532909
5,255833	0,1	0,569950
5,257500	0,1	0,551773
5,259167	0,1	0,553446
5,260833	0,1	0,596106
5,262500	0,1	0,522309
5,264167	0,1	0,571011
5,265833	0,1	0,527946
5,267500	0,1	0,550601
5,269167	0,1	0,526102
5,270833	0,1	0,553343
5,272500	0,1	0,523751
5,274167	0,1	0,461680
5,275833	0,1	0,488457
5,277500	0,1	0,454772
5,279167	0,1	0,507865
5,280833	0,1	0,509971
5,282500	0,1	0,478119
5,284167	0,1	0,461088
5,285833	0,1	0,476270
5,287500	0,1	0,452706
5,289167	0,1	0,494934
5,290833	0,1	0,481854
5,292500	0,1	0,500744
5,294167	0,1	0,426250
5,295833	0,1	0,438702
5,297500	0,1	0,450346
5,299167	0,1	0,456183
5,300833	0,1	0,478106
5,302500	0,1	0,404545
5,304167	0,1	0,431801
5,305833	0,1	0,470074
5,307500	0,1	0,416247
5,309167	0,1	0,432480
5,310833	0,1	0,423394
5,312500	0,1	0,411628
5,314167	0,1	0,424422
5,315833	0,1	0,410792
5,317500	0,1	0,419942
5,319167	0,1	0,406401
5,320833	0,1	0,408240
5,322500	0,1	0,386094
5,324167	0,1	0,417422
5,325833	0,1	0,375883
5,327500	0,1	0,367557
5,329167	0,1	0,383117
5,330833	0,1	0,392571
5,332500	0,1	0,383321
5,334167	0,1	0,372517
5,335833	0,1	0,380093
5,337500	0,1	0,375995
5,339167	0,1	0,405979
5,340833	0,1	0,362669
5,342500	0,1	0,358556
5,344167	0,1	0,374643
5,345833	0,1	0,368909
5,347500	0,1	0,352310
5,349167	0,1	0,340895
5,350833	0,1	0,345659
5,352500	0,1	0,336254
5,354167	0,1	0,348400
5,355833	0,1	0,378834
5,357500	0,1	0,321920
5,359167	0,1	0,364093
5,360833	0,1	0,348089
5,362500	0,1	0,356202
5,364167	0,1	0,333415
5,365833	0,1	0,313984
5,367500	0,1	0,340368
5,369167	0,1	0,347338
5,370833	0,1	0,302539
5,372500	0,1	0,334148
5,374167	0,1	0,300059
5,375833	0,1	0,316745
5,377500	0,1	0,302706
5,379167	0,1	0,318742
5,380833	0,1	0,343919
5,382500	0,1	0,316718
5,384167	0,1	0,347433
5,385833	0,1	0,290585
5,387500	0,1	0,296788
5,389167	0,1	0,309527
5,390833	0,1	0,286127
5,392500	0,1	0,273232
5,394167	0,1	0,292247
5,395833	0,1	0,244232
5,397500	0,1	0,281738
5,399167	0,1	0,275591
5,400833	0,1	0,249547
5,402500	0,1	0,270681
5,404167	0,1	0,291855
5,405833	0,1	0,287032
5,407500	0,1	0,253582
5,409167	0,1	0,276356
5,410833	0,1	0,281999
5,412500	0,1	0,275971
5,414167	0,1	0,254085
5,415833	0,1	0,250213
5,417500	0,1	0,273097
5,419167	0,1	0,257153
5,420833	0,1	0,276130
5,422500	0,1	0,242624
5,424167	0,1	0,245862
5,425833	0,1	0,250702
5,427500	0,1	0,226923
5,429167	0,1	0,226007
5,430833	0,1	0,265495
5,432500	0,1	0,253095
5,434167	0,1	0,231019
5,435833	0,1	0,253050
5,437500	0,1	0,216676
5,439167	0,1	0,270356
5,440833	0,1	0,220775
5,442500	0,1	0,258757
5,444167	0,1	0,264594
5,445833	0,1	0,227029
5,447500	0,1	0,204719
5,449167	0,1	0,234747
5,450833	0,1	0,237748
5,452500	0,1	0,211643
5,454167	0,1	0,224956
5,455833	0,1	0,230859
5,457500	0,1	0,170632
5,459167	0,1	0,229797
5,460833	0,1	0,175394
5,462500	0,1	0,195482
5,464167	0,1	0,234871
5,465833	0,1	0,223950
5,467500	0,1	0,241548
5,469167	0,1	0,205985
5,470833	0,1	0,213153
5,472500	0,1	0,200872
5,474167	0,1	0,198306
5,475833	0,1	0,238067
5,477500	0,1	0,157455
5,479167	0,1	0,184372
5,480833	0,1	0,169229
5,482500	0,1	0,218008
5,484167	0,1	0,233461
5,485833	0,1	0,198781
5,487500	0,1	0,182866
5,489167	0,1	0,144204
5,490833	0,1	0,196777
5,492500	0,1	0,207163
5,494167	0,1	0,231360
5,495833	0,1	0,168636
5,497500	0,1	0,148192
5,499167	0,1	0,163107
5,500833	0,1	0,216024
5,502500	0,1	0,184615
5,504167	0,1	0,200046
5,505833	0,1	0,155224
5,507500	0,1	0,209438
5,509167	0,1	0,206369
5,510833	0,1	0,198699
5,512500	0,1	0,203460
5,514167	0,1	0,163890
5,515833	0,1	0,174215
5,517500	0,1	0,186790
5,519167	0,1	0,188448
5,520833	0,1	0,202727
5,522500	0,1	0,182930
5,524167	0,1	0,174964
5,525833	0,1	0,181736
5,527500	0,1	0,151998
5,529167	0,1	0,211410
5,530833	0,1	0,145436
5,532500	0,1	0,143652
5,534167	0,1	0,124180
5,535833	0,1	0,175358
5,537500	0,1	0,168205
5,539167	0,1	0,170717
5,540833	0,1	0,127802
5,542500	0,1	0,152149
5,544167	0,1	0,199623
5,545833	0,1	0,146116
5,547500	0,1	0,151446
5,549167	0,1	0,140786
5,550833	0,1	0,157118
5,552500	0,1	0,125096
5,554167	0,1	0,132074
5,555833	0,1	0,197645
5,557500	0,1	0,148780
5,559167	0,1	0,147911
5,560833	0,1	0,162337
5,562500	0,1	0,119550
5,564167	0,1	0,145414
5,565833	0,1	0,126691
5,567500	0,1	0,154955
5,569167	0,1	0,160987
5,570833	0,1	0,164398
5,572500	0,1	0,178778
5,574167	0,1	0,145655
5,575833	0,1	0,151926
5,577500	0,1	0,116138
5,579167	0,1	0,116836
5,580833	0,1	0,128993
5,582500	0,1	0,146932
5,584167	0,1	0,151902
5,585833	0,1	0,135821
5,587500	0,1	0,151217
5,589167	0,1	0,177801
5,590833	0,1	0,160184
5,592500	0,1	0,119403
5,594167	0,1	0,149154
5,595833	0,1	0,160240
5,597500	0,1	0,169301
5,599167	0,1	0,166233
5,600833	0,1	0,180382
5,602500	0,1	0,150559
5,604167	0,1	0,124412
5,605833	0,1	0,150130
5,607500	0,1	0,151865
5,609167	0,1	0,128128
5,610833	0,1	0,176962
5,612500	0,1	0,144612
5,614167	0,1	0,133054
5,615833	0,1	0,129829
5,617500	0,1	0,133089
5,619167	0,1	0,102936
5,620833	0,1	0,138173
5,622500	0,1	0,119750
5,624167	0,1	0,142796
5,625833	0,1	0,156122
5,627500	0,1	0,138524
5,629167	0,1	0,147060
5,630833	0,1	0,134883
5,632500	0,1	0,125571
5,634167	0,1	0,139405
5,635833	0,1	0,117754
5,637500	0,1	0,170416
5,639167	0,1	0,158894
5,640833	0,1	0,148746
5,642500	0,1	0,127838
5,644167	0,1	0,138517
5,645833	0,1	0,119231
5,647500	0,1	0,162370
5,649167	0,1	0,134949
5,650833	0,1	0,187917
5,652500	0,1	0,161309
5,654167	0,1	0,155686
5,655833	0,1	0,145273
5,657500	0,1	0,154959
5,659167	0,1	0,170903
5,660833	0,1	0,125869
5,662500	0,1	0,132735
5,664167	0,1	0,173908
5,665833	0,1	0,129673
5,667500	0,1	0,123118
5,669167	0,1	0,105015
5,670833	0,1	0,127827
5,672500	0,1	0,158239
5,674167	0,1	0,144927
5,675833	0,1	0,160129
5,677500	0,1	0,134990
5,679167	0,1	0,161855
5,680833	0,1	0,160140
5,682500	0,1	0,136341
5,684167	0,1	0,124157
5,685833	0,1	0,135375
5,687500	0,1	0,185821
5,689167	0,1	0,113861
5,690833	0,1	0,172637
5,692500	0,1	0,168911
5,694167	0,1	0,169973
5,695833	0,1	0,161195
5,697500	0,1	0,173711
5,699167	0,1	0,142307
5,700833	0,1	0,160214
5,702500	0,1	0,154711
5,704167	0,1	0,156932
5,705833	0,1	0,161908
5,707500	0,1	0,169986
5,709167	0,1	0,167166
5,710833	0,1	0,181900
5,712500	0,1	0,173031
5,714167	0,1	0,166108
5,715833	0,1	0,145778
5,717500	0,1	0,126155
5,719167	0,1	0,150696
5,720833	0,1	0,158575
5,722500	0,1	0,188379
5,724167	0,1	0,161183
5,725833	0,1	0,168368
5,727500	0,1	0,182607
5,729167	0,1	0,141460
5,730833	0,1	0,189915
5,732500	0,1	0,204065
5,734167	0,1	0,201984
5,735833	0,1	0,202842
5,737500	0,1	0,171103
5,739167	0,1	0,187015
5,740833	0,1	0,189219
5,742500	0,1	0,191671
5,744167	0,1	0,167856
5,745833	0,1	0,160408
5,747500	0,1	0,187697
5,749167	0,1	0,137219
5,750833	0,1	0,153251
5,752500	0,1	0,162715
5,754167	0,1	0,152424
5,755833	0,1	0,185281
5,757500	0,1	0,193817
5,759167	0,1	0,160062
5,760833	0,1	0,184120
5,762500	0,1	0,183215
5,764167	0,1	0,176520
5,765833	0,1	0,205591
5,767500	0,1	0,170585
5,769167	0,1	0,180612
5,770833	0,1	0,176456
5,772500	0,1	0,181069
5,774167	0,1	0,165591
5,775833	0,1	0,183377
5,777500	0,1	0,157254
5,779167	0,1	0,180105
5,780833	0,1	0,144408
5,782500	0,1	0,199910
5,784167	0,1	0,174490
5,785833	0,1	0,183998
5,787500	0,1	0,191795
5,789167	0,1	0,186565
5,790833	0,1	0,183649
5,792500	0,1	0,128553
5,794167	0,1	0,160691
5,795833	0,1	0,191956
5,797500	0,1	0,204521
5,799167	0,1	0,150816
5,800833	0,1	0,198168
5,802500	0,1	0,180619
5,804167	0,1	0,180222
5,805833	0,1	0,156303
5,807500	0,1	0,168618
5,809167	0,1	0,176431
5,810833	0,1	0,187927
5,812500	0,1	0,175603
5,814167	0,1	0,176848
5,815833	0,1	0,212665
5,817500	0,1	0,174405
5,819167	0,1	0,187764
5,820833	0,1	0,158128
5,822500	0,1	0,160862
5,824167	0,1	0,193015
5,825833	0,1	0,145077
5,827500	0,1	0,158699
5,829167	0,1	0,197817
5,830833	0,1	0,146823
5,832500	0,1	0,177903
5,834167	0,1	0,194082
5,835833	0,1	0,163243
5,837500	0,1	0,165539
5,839167	0,1	0,163252
5,840833	0,1	0,169327
5,842500	0,1	0,157416
5,844167	0,1	0,161594
5,845833	0,1	0,151261
5,847500	0,1	0,180771
5,849167	0,1	0,162118
5,850833	0,1	0,154215
5,852500	0,1	0,149540
5,854167	0,1	0,161340
5,855833	0,1	0,155771
5,857500	0,1	0,170551
5,859167	0,1	0,155883
5,860833	0,1	0,180505
5,862500	0,1	0,141602
5,864167	0,1	0,169274
5,865833	0,1	0,159617
5,867500	0,1	0,146751
5,869167	0,1	0,135025
5,870833	0,1	0,171291
5,872500	0,1	0,150933
5,874167	0,1	0,139787
5,875833	0,1	0,123120
5,877500	0,1	0,145391
5,879167	0,1	0,154645
5,880833	0,1	0,137503
5,882500	0,1	0,135337
5,884167	0,1	0,129391
5,885833	0,1	0,149588
5,887500	0,1	0,133926
5,889167	0,1	0,159404
5,890833	0,1	0,129129
5,892500	0,1	0,158381
5,894167	0,1	0,153256
5,895833	0,1	0,145753
5,897500	0,1	0,147353
5,899167	0,1	0,143401
5,900833	0,1	0,130452
5,902500	0,1	0,184191
5,904167	0,1	0,143661
5,905833	0,1	0,116780
5,907500	0,1	0,075067
5,909167	0,1	0,118881
5,910833	0,1	0,145971
5,912500	0,1	0,128315
5,914167	0,1	0,133419
5,915833	0,1	0,108277
5,917500	0,1	0,128866
5,919167	0,1	0,143107
5,920833	0,1	0,126360
5,922500	0,1	0,142353
5,924167	0,1	0,146747
5,925833	0,1	0,107180
5,927500	0,1	0,119971
5,929167	0,1	0,151104
5,930833	0,1	0,112815
5,932500	0,1	0,109271
5,934167	0,1	0,132046
5,935833	0,1	0,115883
5,937500	0,1	0,132692
5,939167	0,1	0,148513
5,940833	0,1	0,114953
5,942500	0,1	0,123672
5,944167	0,1	0,091400
5,945833	0,1	0,135618
5,947500	0,1	0,155199
5,949167	0,1	0,135131
5,950833	0,1	0,148678
5,952500	0,1	0,066865
5,954167	0,1	0,115285
5,955833	0,1	0,145681
5,957500	0,1	0,145044
5,959167	0,1	0,120750
5,960833	0,1	0,097096
5,962500	0,1	0,131691
5,964167	0,1	0,137309
5,965833	0,1	0,074428
5,967500	0,1	0,090163
5,969167	0,1	0,133371
5,970833	0,1	0,088080
5,972500	0,1	0,140520
5,974167	0,1	0,098366
5,975833	0,1	0,100249
5,977500	0,1	0,113214
5,979167	0,1	0,099710
5,980833	0,1	0,077640
5,982500	0,1	0,075452
5,984167	0,1	0,048460
5,985833	0,1	0,115054
5,987500	0,1	0,077518
5,989167	0,1	0,103921
5,990833	0,1	0,088861
5,992500	0,1	0,088046
5,994167	0,1	0,081377
5,995833	0,1	0,101760
5,997500	0,1	0,108705
5,999167	0,1	0,125621
6,000833	0,1	0,088347
