File Path	chrom://chromeleon01/ikbm_chromeleon/2022/Rezex/Esteban/220612_chitin_4_7.seq/489.smp/UV_VIS_1.channel/UV_VIS_1.chm
Channel	UV_VIS_1

Injection Information:
Data Vault	ikbm_chromeleon
Injection	7_24h-ChiBS_NA
Injection Number	14
Position	RB3
Comment	
Processing Method	New ProcMethod
Instrument Method	Short_Rezex_6min_194nm
Type	Unknown
Status	Finished
Injection Date	12.06.2022
Injection Time	18:38:18
Injection Volume (µl)	8,000
Dilution Factor	1,0000
Weight	1,0000

Chromatogram Data Information:
Time Min. (min)	0,000833
Time Max. (min)	6,000833
Data Points	3601
Detector	UV
Generating Data System	Chromeleon 7.2.9.11323
Exporting Data System	Chromeleon 7.2.9.0
Operator	Instrument Controller
Signal Quantity	Absorbance
Signal Unit	mAU
Signal Min.	-0,085842
Signal Max.	65,917144
Channel	UV_VIS_1
Driver Name	VWD3000.dll
Channel Type	Evaluation
Min. Step (s)	0,1
Max. Step (s)	0,1
Average Step (s)	0,1

Signal Parameter Information:
Signal Info	WVL:194 nm

Chromatogram Data:
Time (min)	Step (s)	Value (mAU)
0,000833	n.a.	0,006452
0,002500	0,1	0,005051
0,004167	0,1	0,024019
0,005833	0,1	-0,009516
0,007500	0,1	0,008570
0,009167	0,1	0,043223
0,010833	0,1	0,025618
0,012500	0,1	0,018115
0,014167	0,1	0,037722
0,015833	0,1	0,065832
0,017500	0,1	0,047574
0,019167	0,1	0,006303
0,020833	0,1	-0,007410
0,022500	0,1	0,001715
0,024167	0,1	0,046857
0,025833	0,1	0,010279
0,027500	0,1	0,000791
0,029167	0,1	-0,044583
0,030833	0,1	-0,001446
0,032500	0,1	-0,085842
0,034167	0,1	-0,019248
0,035833	0,1	-0,037032
0,037500	0,1	-0,048568
0,039167	0,1	-0,037919
0,040833	0,1	0,003601
0,042500	0,1	0,010685
0,044167	0,1	-0,055931
0,045833	0,1	-0,045816
0,047500	0,1	-0,037796
0,049167	0,1	-0,027955
0,050833	0,1	-0,023410
0,052500	0,1	-0,021003
0,054167	0,1	0,001200
0,055833	0,1	-0,013262
0,057500	0,1	-0,011107
0,059167	0,1	0,003494
0,060833	0,1	-0,014493
0,062500	0,1	-0,009687
0,064167	0,1	-0,018898
0,065833	0,1	0,004923
0,067500	0,1	0,019341
0,069167	0,1	0,003369
0,070833	0,1	-0,026905
0,072500	0,1	0,004524
0,074167	0,1	0,014841
0,075833	0,1	-0,002833
0,077500	0,1	-0,012336
0,079167	0,1	-0,008521
0,080833	0,1	-0,027542
0,082500	0,1	0,007259
0,084167	0,1	0,036026
0,085833	0,1	0,037965
0,087500	0,1	0,028192
0,089167	0,1	0,022868
0,090833	0,1	-0,022157
0,092500	0,1	0,010566
0,094167	0,1	0,001018
0,095833	0,1	0,018685
0,097500	0,1	0,010565
0,099167	0,1	0,059501
0,100833	0,1	0,021285
0,102500	0,1	0,010906
0,104167	0,1	-0,001186
0,105833	0,1	-0,000792
0,107500	0,1	-0,005347
0,109167	0,1	-0,013082
0,110833	0,1	-0,004734
0,112500	0,1	0,009215
0,114167	0,1	-0,032924
0,115833	0,1	-0,011092
0,117500	0,1	-0,017611
0,119167	0,1	-0,035744
0,120833	0,1	-0,054193
0,122500	0,1	-0,010519
0,124167	0,1	-0,017117
0,125833	0,1	-0,018000
0,127500	0,1	-0,008930
0,129167	0,1	-0,014135
0,130833	0,1	-0,040012
0,132500	0,1	-0,057582
0,134167	0,1	-0,008826
0,135833	0,1	0,001555
0,137500	0,1	-0,016944
0,139167	0,1	-0,025196
0,140833	0,1	-0,053129
0,142500	0,1	-0,035562
0,144167	0,1	-0,009749
0,145833	0,1	-0,038261
0,147500	0,1	-0,000043
0,149167	0,1	-0,009116
0,150833	0,1	-0,024040
0,152500	0,1	0,008566
0,154167	0,1	0,015600
0,155833	0,1	-0,002075
0,157500	0,1	-0,013623
0,159167	0,1	0,029646
0,160833	0,1	0,007984
0,162500	0,1	0,015724
0,164167	0,1	-0,014612
0,165833	0,1	-0,003495
0,167500	0,1	-0,051315
0,169167	0,1	0,008154
0,170833	0,1	0,021046
0,172500	0,1	-0,026021
0,174167	0,1	0,017458
0,175833	0,1	0,019400
0,177500	0,1	0,036559
0,179167	0,1	0,002009
0,180833	0,1	0,042870
0,182500	0,1	-0,003243
0,184167	0,1	-0,015961
0,185833	0,1	0,030111
0,187500	0,1	-0,004477
0,189167	0,1	-0,009466
0,190833	0,1	0,025311
0,192500	0,1	0,001609
0,194167	0,1	0,007769
0,195833	0,1	0,015713
0,197500	0,1	0,004591
0,199167	0,1	0,015845
0,200833	0,1	0,013965
0,202500	0,1	-0,011024
0,204167	0,1	0,007812
0,205833	0,1	-0,023741
0,207500	0,1	0,020327
0,209167	0,1	-0,003884
0,210833	0,1	0,029574
0,212500	0,1	-0,025194
0,214167	0,1	0,046036
0,215833	0,1	0,010874
0,217500	0,1	0,023138
0,219167	0,1	-0,000729
0,220833	0,1	-0,005934
0,222500	0,1	0,017471
0,224167	0,1	-0,007994
0,225833	0,1	0,019110
0,227500	0,1	-0,008172
0,229167	0,1	0,020462
0,230833	0,1	0,012156
0,232500	0,1	0,005934
0,234167	0,1	0,044632
0,235833	0,1	0,009711
0,237500	0,1	0,044813
0,239167	0,1	0,037910
0,240833	0,1	-0,013602
0,242500	0,1	0,002368
0,244167	0,1	0,043182
0,245833	0,1	-0,002713
0,247500	0,1	-0,013025
0,249167	0,1	0,000967
0,250833	0,1	-0,001208
0,252500	0,1	0,001243
0,254167	0,1	0,025836
0,255833	0,1	-0,007754
0,257500	0,1	0,019224
0,259167	0,1	0,043055
0,260833	0,1	0,036441
0,262500	0,1	-0,001483
0,264167	0,1	0,052072
0,265833	0,1	-0,007161
0,267500	0,1	0,042519
0,269167	0,1	0,029880
0,270833	0,1	0,024081
0,272500	0,1	0,028719
0,274167	0,1	0,024668
0,275833	0,1	-0,019355
0,277500	0,1	0,016180
0,279167	0,1	0,013784
0,280833	0,1	0,008984
0,282500	0,1	0,058799
0,284167	0,1	-0,000655
0,285833	0,1	0,000193
0,287500	0,1	0,013658
0,289167	0,1	0,030638
0,290833	0,1	0,012840
0,292500	0,1	0,024256
0,294167	0,1	0,041000
0,295833	0,1	0,022227
0,297500	0,1	0,049388
0,299167	0,1	0,061035
0,300833	0,1	0,061974
0,302500	0,1	-0,008571
0,304167	0,1	0,032867
0,305833	0,1	0,055538
0,307500	0,1	0,059357
0,309167	0,1	0,033879
0,310833	0,1	0,038209
0,312500	0,1	0,027378
0,314167	0,1	0,023747
0,315833	0,1	0,018880
0,317500	0,1	0,062967
0,319167	0,1	0,021816
0,320833	0,1	0,058346
0,322500	0,1	0,043896
0,324167	0,1	0,027956
0,325833	0,1	0,019119
0,327500	0,1	0,016246
0,329167	0,1	0,032695
0,330833	0,1	0,058634
0,332500	0,1	-0,014071
0,334167	0,1	0,024676
0,335833	0,1	0,018360
0,337500	0,1	0,026313
0,339167	0,1	0,076729
0,340833	0,1	0,044005
0,342500	0,1	0,050966
0,344167	0,1	0,006236
0,345833	0,1	0,046687
0,347500	0,1	0,036149
0,349167	0,1	0,038975
0,350833	0,1	0,022519
0,352500	0,1	0,055519
0,354167	0,1	0,078903
0,355833	0,1	-0,017921
0,357500	0,1	0,071265
0,359167	0,1	0,027660
0,360833	0,1	0,059806
0,362500	0,1	0,036672
0,364167	0,1	0,048218
0,365833	0,1	0,009162
0,367500	0,1	-0,019472
0,369167	0,1	0,038773
0,370833	0,1	0,048087
0,372500	0,1	0,001974
0,374167	0,1	0,025125
0,375833	0,1	0,046853
0,377500	0,1	0,053600
0,379167	0,1	0,025052
0,380833	0,1	0,027186
0,382500	0,1	0,049030
0,384167	0,1	0,042304
0,385833	0,1	0,070595
0,387500	0,1	0,024857
0,389167	0,1	-0,008636
0,390833	0,1	0,030992
0,392500	0,1	0,015246
0,394167	0,1	0,067296
0,395833	0,1	0,070005
0,397500	0,1	0,056435
0,399167	0,1	0,080949
0,400833	0,1	0,042946
0,402500	0,1	0,059860
0,404167	0,1	0,062856
0,405833	0,1	0,054019
0,407500	0,1	0,067296
0,409167	0,1	0,041477
0,410833	0,1	0,092588
0,412500	0,1	0,040732
0,414167	0,1	0,033750
0,415833	0,1	0,029316
0,417500	0,1	0,015889
0,419167	0,1	0,048792
0,420833	0,1	0,083517
0,422500	0,1	0,051914
0,424167	0,1	0,065021
0,425833	0,1	0,042764
0,427500	0,1	0,062557
0,429167	0,1	0,071520
0,430833	0,1	0,062027
0,432500	0,1	0,084694
0,434167	0,1	0,061393
0,435833	0,1	0,045168
0,437500	0,1	0,030116
0,439167	0,1	0,054306
0,440833	0,1	0,062039
0,442500	0,1	0,045631
0,444167	0,1	0,067702
0,445833	0,1	0,067886
0,447500	0,1	0,055879
0,449167	0,1	0,048621
0,450833	0,1	0,072627
0,452500	0,1	0,034687
0,454167	0,1	0,074555
0,455833	0,1	0,090556
0,457500	0,1	0,058158
0,459167	0,1	0,065716
0,460833	0,1	0,017072
0,462500	0,1	0,056862
0,464167	0,1	0,031406
0,465833	0,1	0,018874
0,467500	0,1	0,078822
0,469167	0,1	0,064970
0,470833	0,1	0,044941
0,472500	0,1	0,069698
0,474167	0,1	0,054715
0,475833	0,1	0,091361
0,477500	0,1	0,087325
0,479167	0,1	0,052958
0,480833	0,1	0,081935
0,482500	0,1	0,058826
0,484167	0,1	0,099969
0,485833	0,1	0,046653
0,487500	0,1	0,078479
0,489167	0,1	0,065322
0,490833	0,1	0,054892
0,492500	0,1	0,052665
0,494167	0,1	0,085564
0,495833	0,1	0,089728
0,497500	0,1	0,091676
0,499167	0,1	0,074975
0,500833	0,1	0,089391
0,502500	0,1	0,077436
0,504167	0,1	0,061506
0,505833	0,1	0,054891
0,507500	0,1	0,054946
0,509167	0,1	0,038489
0,510833	0,1	0,062908
0,512500	0,1	0,077953
0,514167	0,1	0,084102
0,515833	0,1	0,119361
0,517500	0,1	0,077142
0,519167	0,1	0,081992
0,520833	0,1	0,086631
0,522500	0,1	0,086632
0,524167	0,1	0,065022
0,525833	0,1	0,095356
0,527500	0,1	0,092315
0,529167	0,1	0,086338
0,530833	0,1	0,096526
0,532500	0,1	0,089502
0,534167	0,1	0,089729
0,535833	0,1	0,074096
0,537500	0,1	0,087736
0,539167	0,1	0,087267
0,540833	0,1	0,056584
0,542500	0,1	0,082532
0,544167	0,1	0,036802
0,545833	0,1	0,049197
0,547500	0,1	0,086451
0,549167	0,1	0,082295
0,550833	0,1	0,102608
0,552500	0,1	0,076805
0,554167	0,1	0,117247
0,555833	0,1	0,093136
0,557500	0,1	0,073982
0,559167	0,1	0,096460
0,560833	0,1	0,068073
0,562500	0,1	0,062328
0,564167	0,1	0,101538
0,565833	0,1	0,104601
0,567500	0,1	0,092074
0,569167	0,1	0,085637
0,570833	0,1	0,115254
0,572500	0,1	0,103611
0,574167	0,1	0,092895
0,575833	0,1	0,111455
0,577500	0,1	0,109178
0,579167	0,1	0,074973
0,580833	0,1	0,116188
0,582500	0,1	0,109872
0,584167	0,1	0,120418
0,585833	0,1	0,092613
0,587500	0,1	0,121409
0,589167	0,1	0,122052
0,590833	0,1	0,105373
0,592500	0,1	0,096059
0,594167	0,1	0,105659
0,595833	0,1	0,114449
0,597500	0,1	0,083232
0,599167	0,1	0,110802
0,600833	0,1	0,111167
0,602500	0,1	0,169489
0,604167	0,1	0,105019
0,605833	0,1	0,135224
0,607500	0,1	0,116617
0,609167	0,1	0,110759
0,610833	0,1	0,137572
0,612500	0,1	0,111337
0,614167	0,1	0,094122
0,615833	0,1	0,148695
0,617500	0,1	0,152096
0,619167	0,1	0,155322
0,620833	0,1	0,149993
0,622500	0,1	0,130797
0,624167	0,1	0,124287
0,625833	0,1	0,116729
0,627500	0,1	0,139154
0,629167	0,1	0,148119
0,630833	0,1	0,154040
0,632500	0,1	0,138162
0,634167	0,1	0,083587
0,635833	0,1	0,135868
0,637500	0,1	0,172536
0,639167	0,1	0,144315
0,640833	0,1	0,167558
0,642500	0,1	0,162882
0,644167	0,1	0,132605
0,645833	0,1	0,175111
0,647500	0,1	0,175589
0,649167	0,1	0,165345
0,650833	0,1	0,167156
0,652500	0,1	0,143612
0,654167	0,1	0,198184
0,655833	0,1	0,205574
0,657500	0,1	0,151827
0,659167	0,1	0,158250
0,660833	0,1	0,144082
0,662500	0,1	0,167316
0,664167	0,1	0,165044
0,665833	0,1	0,172078
0,667500	0,1	0,182789
0,669167	0,1	0,203346
0,670833	0,1	0,170907
0,672500	0,1	0,150399
0,674167	0,1	0,166968
0,675833	0,1	0,179567
0,677500	0,1	0,163518
0,679167	0,1	0,160351
0,680833	0,1	0,146122
0,682500	0,1	0,177158
0,684167	0,1	0,212430
0,685833	0,1	0,184908
0,687500	0,1	0,205635
0,689167	0,1	0,209912
0,690833	0,1	0,212894
0,692500	0,1	0,199838
0,694167	0,1	0,192986
0,695833	0,1	0,168566
0,697500	0,1	0,202112
0,699167	0,1	0,178752
0,700833	0,1	0,202403
0,702500	0,1	0,218401
0,704167	0,1	0,245106
0,705833	0,1	0,218758
0,707500	0,1	0,230174
0,709167	0,1	0,196737
0,710833	0,1	0,210439
0,712500	0,1	0,230114
0,714167	0,1	0,251320
0,715833	0,1	0,229942
0,717500	0,1	0,203002
0,719167	0,1	0,260571
0,720833	0,1	0,258298
0,722500	0,1	0,276277
0,724167	0,1	0,240726
0,725833	0,1	0,259934
0,727500	0,1	0,219816
0,729167	0,1	0,266191
0,730833	0,1	0,260587
0,732500	0,1	0,258819
0,734167	0,1	0,310425
0,735833	0,1	0,299543
0,737500	0,1	0,280500
0,739167	0,1	0,296077
0,740833	0,1	0,287006
0,742500	0,1	0,278920
0,744167	0,1	0,324489
0,745833	0,1	0,285312
0,747500	0,1	0,300354
0,749167	0,1	0,285186
0,750833	0,1	0,306445
0,752500	0,1	0,296849
0,754167	0,1	0,267614
0,755833	0,1	0,323372
0,757500	0,1	0,324382
0,759167	0,1	0,309268
0,760833	0,1	0,305341
0,762500	0,1	0,319868
0,764167	0,1	0,315241
0,765833	0,1	0,272779
0,767500	0,1	0,299238
0,769167	0,1	0,300125
0,770833	0,1	0,302229
0,772500	0,1	0,294443
0,774167	0,1	0,308384
0,775833	0,1	0,258191
0,777500	0,1	0,320617
0,779167	0,1	0,335103
0,780833	0,1	0,295509
0,782500	0,1	0,333160
0,784167	0,1	0,262818
0,785833	0,1	0,348678
0,787500	0,1	0,314428
0,789167	0,1	0,303642
0,790833	0,1	0,340953
0,792500	0,1	0,342017
0,794167	0,1	0,278225
0,795833	0,1	0,304278
0,797500	0,1	0,298019
0,799167	0,1	0,309203
0,800833	0,1	0,339963
0,802500	0,1	0,298376
0,804167	0,1	0,315589
0,805833	0,1	0,317409
0,807500	0,1	0,297902
0,809167	0,1	0,302470
0,810833	0,1	0,305750
0,812500	0,1	0,295206
0,814167	0,1	0,322676
0,815833	0,1	0,323735
0,817500	0,1	0,266628
0,819167	0,1	0,259291
0,820833	0,1	0,305977
0,822500	0,1	0,312839
0,824167	0,1	0,330998
0,825833	0,1	0,317471
0,827500	0,1	0,309504
0,829167	0,1	0,313248
0,830833	0,1	0,318989
0,832500	0,1	0,298838
0,834167	0,1	0,328942
0,835833	0,1	0,297145
0,837500	0,1	0,335272
0,839167	0,1	0,342602
0,840833	0,1	0,306230
0,842500	0,1	0,323323
0,844167	0,1	0,305814
0,845833	0,1	0,288646
0,847500	0,1	0,307443
0,849167	0,1	0,305752
0,850833	0,1	0,309497
0,852500	0,1	0,300772
0,854167	0,1	0,300534
0,855833	0,1	0,324902
0,857500	0,1	0,325552
0,859167	0,1	0,299487
0,860833	0,1	0,258655
0,862500	0,1	0,332860
0,864167	0,1	0,327487
0,865833	0,1	0,368844
0,867500	0,1	0,333414
0,869167	0,1	0,308448
0,870833	0,1	0,330120
0,872500	0,1	0,311906
0,874167	0,1	0,293861
0,875833	0,1	0,347572
0,877500	0,1	0,311913
0,879167	0,1	0,308916
0,880833	0,1	0,331464
0,882500	0,1	0,285192
0,884167	0,1	0,315058
0,885833	0,1	0,335393
0,887500	0,1	0,344477
0,889167	0,1	0,307108
0,890833	0,1	0,298722
0,892500	0,1	0,379968
0,894167	0,1	0,306409
0,895833	0,1	0,335857
0,897500	0,1	0,338619
0,899167	0,1	0,325027
0,900833	0,1	0,328188
0,902500	0,1	0,329243
0,904167	0,1	0,288357
0,905833	0,1	0,324022
0,907500	0,1	0,342483
0,909167	0,1	0,356838
0,910833	0,1	0,311442
0,912500	0,1	0,283963
0,914167	0,1	0,336613
0,915833	0,1	0,346119
0,917500	0,1	0,349576
0,919167	0,1	0,347877
0,920833	0,1	0,328254
0,922500	0,1	0,337970
0,924167	0,1	0,340786
0,925833	0,1	0,370722
0,927500	0,1	0,346124
0,929167	0,1	0,338327
0,930833	0,1	0,349163
0,932500	0,1	0,348169
0,934167	0,1	0,361117
0,935833	0,1	0,385021
0,937500	0,1	0,349113
0,939167	0,1	0,382791
0,940833	0,1	0,376003
0,942500	0,1	0,358369
0,944167	0,1	0,365749
0,945833	0,1	0,412499
0,947500	0,1	0,392299
0,949167	0,1	0,369563
0,950833	0,1	0,370436
0,952500	0,1	0,378988
0,954167	0,1	0,397680
0,955833	0,1	0,396455
0,957500	0,1	0,380461
0,959167	0,1	0,403305
0,960833	0,1	0,402900
0,962500	0,1	0,420242
0,964167	0,1	0,430322
0,965833	0,1	0,374316
0,967500	0,1	0,383793
0,969167	0,1	0,435117
0,970833	0,1	0,417145
0,972500	0,1	0,405832
0,974167	0,1	0,447368
0,975833	0,1	0,398633
0,977500	0,1	0,411041
0,979167	0,1	0,471981
0,980833	0,1	0,443401
0,982500	0,1	0,398984
0,984167	0,1	0,441509
0,985833	0,1	0,404197
0,987500	0,1	0,500342
0,989167	0,1	0,483193
0,990833	0,1	0,447094
0,992500	0,1	0,464838
0,994167	0,1	0,450957
0,995833	0,1	0,479725
0,997500	0,1	0,489692
0,999167	0,1	0,498196
1,000833	0,1	0,465147
1,002500	0,1	0,471114
1,004167	0,1	0,515238
1,005833	0,1	0,509096
1,007500	0,1	0,509913
1,009167	0,1	0,490229
1,010833	0,1	0,490166
1,012500	0,1	0,498664
1,014167	0,1	0,545895
1,015833	0,1	0,537059
1,017500	0,1	0,527736
1,019167	0,1	0,555283
1,020833	0,1	0,555522
1,022500	0,1	0,527628
1,024167	0,1	0,573626
1,025833	0,1	0,599601
1,027500	0,1	0,602239
1,029167	0,1	0,594500
1,030833	0,1	0,582783
1,032500	0,1	0,591043
1,034167	0,1	0,567075
1,035833	0,1	0,631312
1,037500	0,1	0,639237
1,039167	0,1	0,648023
1,040833	0,1	0,628752
1,042500	0,1	0,628628
1,044167	0,1	0,658760
1,045833	0,1	0,668208
1,047500	0,1	0,672771
1,049167	0,1	0,732221
1,050833	0,1	0,717288
1,052500	0,1	0,729547
1,054167	0,1	0,771524
1,055833	0,1	0,775765
1,057500	0,1	0,899969
1,059167	0,1	0,912271
1,060833	0,1	1,008591
1,062500	0,1	1,187982
1,064167	0,1	1,282459
1,065833	0,1	1,506703
1,067500	0,1	1,748527
1,069167	0,1	2,120191
1,070833	0,1	2,498920
1,072500	0,1	2,999751
1,074167	0,1	3,584167
1,075833	0,1	4,295605
1,077500	0,1	5,121732
1,079167	0,1	6,095128
1,080833	0,1	7,190531
1,082500	0,1	8,384096
1,084167	0,1	9,734006
1,085833	0,1	11,229536
1,087500	0,1	12,870756
1,089167	0,1	14,563874
1,090833	0,1	16,353408
1,092500	0,1	18,282091
1,094167	0,1	20,130436
1,095833	0,1	21,989639
1,097500	0,1	23,953305
1,099167	0,1	25,712691
1,100833	0,1	27,471079
1,102500	0,1	29,134324
1,104167	0,1	30,688829
1,105833	0,1	31,989539
1,107500	0,1	33,263955
1,109167	0,1	34,282553
1,110833	0,1	35,111623
1,112500	0,1	35,743086
1,114167	0,1	36,262804
1,115833	0,1	36,515454
1,117500	0,1	36,627839
1,119167	0,1	36,497267
1,120833	0,1	36,290032
1,122500	0,1	35,922195
1,124167	0,1	35,380272
1,125833	0,1	34,710266
1,127500	0,1	33,937163
1,129167	0,1	33,130178
1,130833	0,1	32,144142
1,132500	0,1	31,175000
1,134167	0,1	30,100743
1,135833	0,1	29,006936
1,137500	0,1	27,918093
1,139167	0,1	26,748791
1,140833	0,1	25,625408
1,142500	0,1	24,472326
1,144167	0,1	23,346572
1,145833	0,1	22,257770
1,147500	0,1	21,188849
1,149167	0,1	20,156547
1,150833	0,1	19,097879
1,152500	0,1	18,172215
1,154167	0,1	17,280947
1,155833	0,1	16,410761
1,157500	0,1	15,515973
1,159167	0,1	14,781495
1,160833	0,1	14,027869
1,162500	0,1	13,338323
1,164167	0,1	12,680387
1,165833	0,1	12,095481
1,167500	0,1	11,492641
1,169167	0,1	10,996320
1,170833	0,1	10,523247
1,172500	0,1	10,045395
1,174167	0,1	9,591503
1,175833	0,1	9,211583
1,177500	0,1	8,870413
1,179167	0,1	8,507745
1,180833	0,1	8,209188
1,182500	0,1	7,859988
1,184167	0,1	7,586124
1,185833	0,1	7,347111
1,187500	0,1	7,083594
1,189167	0,1	6,879024
1,190833	0,1	6,614934
1,192500	0,1	6,446662
1,194167	0,1	6,263373
1,195833	0,1	6,065734
1,197500	0,1	5,852735
1,199167	0,1	5,728369
1,200833	0,1	5,567474
1,202500	0,1	5,482909
1,204167	0,1	5,320400
1,205833	0,1	5,207252
1,207500	0,1	5,064782
1,209167	0,1	4,999947
1,210833	0,1	4,877137
1,212500	0,1	4,736228
1,214167	0,1	4,671370
1,215833	0,1	4,616117
1,217500	0,1	4,531231
1,219167	0,1	4,475128
1,220833	0,1	4,379077
1,222500	0,1	4,296234
1,224167	0,1	4,282559
1,225833	0,1	4,220003
1,227500	0,1	4,171578
1,229167	0,1	4,130737
1,230833	0,1	4,019116
1,232500	0,1	4,022391
1,234167	0,1	3,976041
1,235833	0,1	3,929676
1,237500	0,1	3,901313
1,239167	0,1	3,863331
1,240833	0,1	3,880212
1,242500	0,1	3,825798
1,244167	0,1	3,760333
1,245833	0,1	3,750127
1,247500	0,1	3,676327
1,249167	0,1	3,698603
1,250833	0,1	3,644219
1,252500	0,1	3,605600
1,254167	0,1	3,580994
1,255833	0,1	3,587330
1,257500	0,1	3,572836
1,259167	0,1	3,501865
1,260833	0,1	3,462113
1,262500	0,1	3,445373
1,264167	0,1	3,431667
1,265833	0,1	3,415873
1,267500	0,1	3,440673
1,269167	0,1	3,349544
1,270833	0,1	3,343467
1,272500	0,1	3,333806
1,274167	0,1	3,311096
1,275833	0,1	3,251262
1,277500	0,1	3,278353
1,279167	0,1	3,188264
1,280833	0,1	3,223695
1,282500	0,1	3,207203
1,284167	0,1	3,170020
1,285833	0,1	3,116816
1,287500	0,1	3,144776
1,289167	0,1	3,122451
1,290833	0,1	3,061276
1,292500	0,1	3,033443
1,294167	0,1	3,037898
1,295833	0,1	3,019541
1,297500	0,1	2,993597
1,299167	0,1	2,978540
1,300833	0,1	2,946831
1,302500	0,1	2,937479
1,304167	0,1	2,917383
1,305833	0,1	2,909449
1,307500	0,1	2,878188
1,309167	0,1	2,847719
1,310833	0,1	2,849388
1,312500	0,1	2,861461
1,314167	0,1	2,837577
1,315833	0,1	2,829019
1,317500	0,1	2,770592
1,319167	0,1	2,776548
1,320833	0,1	2,725926
1,322500	0,1	2,758751
1,324167	0,1	2,737875
1,325833	0,1	2,723490
1,327500	0,1	2,744427
1,329167	0,1	2,720459
1,330833	0,1	2,709661
1,332500	0,1	2,668677
1,334167	0,1	2,671052
1,335833	0,1	2,635338
1,337500	0,1	2,642335
1,339167	0,1	2,611633
1,340833	0,1	2,646984
1,342500	0,1	2,619544
1,344167	0,1	2,632172
1,345833	0,1	2,650701
1,347500	0,1	2,628339
1,349167	0,1	2,578769
1,350833	0,1	2,612762
1,352500	0,1	2,595044
1,354167	0,1	2,589790
1,355833	0,1	2,610242
1,357500	0,1	2,599678
1,359167	0,1	2,577826
1,360833	0,1	2,611855
1,362500	0,1	2,572375
1,364167	0,1	2,578040
1,365833	0,1	2,495232
1,367500	0,1	2,595168
1,369167	0,1	2,569932
1,370833	0,1	2,563979
1,372500	0,1	2,553888
1,374167	0,1	2,531064
1,375833	0,1	2,514068
1,377500	0,1	2,550994
1,379167	0,1	2,570875
1,380833	0,1	2,567404
1,382500	0,1	2,540288
1,384167	0,1	2,567566
1,385833	0,1	2,561369
1,387500	0,1	2,567538
1,389167	0,1	2,500034
1,390833	0,1	2,523211
1,392500	0,1	2,549633
1,394167	0,1	2,521743
1,395833	0,1	2,533783
1,397500	0,1	2,540262
1,399167	0,1	2,517393
1,400833	0,1	2,546530
1,402500	0,1	2,502347
1,404167	0,1	2,511488
1,405833	0,1	2,487550
1,407500	0,1	2,490762
1,409167	0,1	2,495519
1,410833	0,1	2,484560
1,412500	0,1	2,445842
1,414167	0,1	2,468621
1,415833	0,1	2,481489
1,417500	0,1	2,453458
1,419167	0,1	2,425183
1,420833	0,1	2,414614
1,422500	0,1	2,392262
1,424167	0,1	2,418085
1,425833	0,1	2,432268
1,427500	0,1	2,422096
1,429167	0,1	2,393270
1,430833	0,1	2,382789
1,432500	0,1	2,381316
1,434167	0,1	2,379037
1,435833	0,1	2,364484
1,437500	0,1	2,338365
1,439167	0,1	2,380523
1,440833	0,1	2,329887
1,442500	0,1	2,324183
1,444167	0,1	2,310656
1,445833	0,1	2,278870
1,447500	0,1	2,273259
1,449167	0,1	2,282899
1,450833	0,1	2,286785
1,452500	0,1	2,233673
1,454167	0,1	2,219218
1,455833	0,1	2,278333
1,457500	0,1	2,174644
1,459167	0,1	2,213113
1,460833	0,1	2,218191
1,462500	0,1	2,194135
1,464167	0,1	2,204730
1,465833	0,1	2,137794
1,467500	0,1	2,160533
1,469167	0,1	2,107191
1,470833	0,1	2,136294
1,472500	0,1	2,148106
1,474167	0,1	2,139854
1,475833	0,1	2,125528
1,477500	0,1	2,090837
1,479167	0,1	2,093654
1,480833	0,1	2,083978
1,482500	0,1	2,106842
1,484167	0,1	2,082910
1,485833	0,1	2,095711
1,487500	0,1	2,066615
1,489167	0,1	2,121718
1,490833	0,1	2,069369
1,492500	0,1	2,065566
1,494167	0,1	2,052112
1,495833	0,1	2,060217
1,497500	0,1	2,055122
1,499167	0,1	2,057536
1,500833	0,1	2,036256
1,502500	0,1	2,044832
1,504167	0,1	2,042378
1,505833	0,1	2,014036
1,507500	0,1	2,038054
1,509167	0,1	2,015263
1,510833	0,1	2,025633
1,512500	0,1	2,018428
1,514167	0,1	2,011863
1,515833	0,1	2,019558
1,517500	0,1	2,029975
1,519167	0,1	2,027774
1,520833	0,1	2,028975
1,522500	0,1	2,042202
1,524167	0,1	2,014693
1,525833	0,1	2,046146
1,527500	0,1	2,024741
1,529167	0,1	2,007271
1,530833	0,1	2,018132
1,532500	0,1	2,042887
1,534167	0,1	1,990206
1,535833	0,1	2,039119
1,537500	0,1	2,001979
1,539167	0,1	2,016321
1,540833	0,1	2,036801
1,542500	0,1	2,046613
1,544167	0,1	2,072347
1,545833	0,1	2,042624
1,547500	0,1	2,030299
1,549167	0,1	2,026257
1,550833	0,1	2,014650
1,552500	0,1	2,010953
1,554167	0,1	2,000905
1,555833	0,1	2,031293
1,557500	0,1	2,013134
1,559167	0,1	2,043125
1,560833	0,1	1,981403
1,562500	0,1	1,986864
1,564167	0,1	2,008135
1,565833	0,1	1,988772
1,567500	0,1	2,009137
1,569167	0,1	2,021340
1,570833	0,1	1,988457
1,572500	0,1	1,993512
1,574167	0,1	2,003120
1,575833	0,1	1,985829
1,577500	0,1	2,000137
1,579167	0,1	1,963742
1,580833	0,1	2,006862
1,582500	0,1	1,972632
1,584167	0,1	1,961852
1,585833	0,1	1,987205
1,587500	0,1	2,004609
1,589167	0,1	1,990581
1,590833	0,1	1,983716
1,592500	0,1	1,956326
1,594167	0,1	1,975693
1,595833	0,1	1,963758
1,597500	0,1	1,986296
1,599167	0,1	1,978353
1,600833	0,1	1,953222
1,602500	0,1	1,976884
1,604167	0,1	1,986562
1,605833	0,1	1,983133
1,607500	0,1	1,989377
1,609167	0,1	1,948152
1,610833	0,1	1,994832
1,612500	0,1	1,968399
1,614167	0,1	1,985305
1,615833	0,1	1,976150
1,617500	0,1	2,016936
1,619167	0,1	1,995374
1,620833	0,1	1,995622
1,622500	0,1	1,980972
1,624167	0,1	2,004121
1,625833	0,1	1,967522
1,627500	0,1	1,971815
1,629167	0,1	2,007577
1,630833	0,1	2,009076
1,632500	0,1	2,010052
1,634167	0,1	1,989420
1,635833	0,1	1,985048
1,637500	0,1	2,008753
1,639167	0,1	2,026383
1,640833	0,1	1,977876
1,642500	0,1	1,945600
1,644167	0,1	2,004957
1,645833	0,1	2,004351
1,647500	0,1	1,985370
1,649167	0,1	1,990445
1,650833	0,1	1,990410
1,652500	0,1	1,952513
1,654167	0,1	1,999361
1,655833	0,1	1,966424
1,657500	0,1	1,951737
1,659167	0,1	1,977596
1,660833	0,1	1,949311
1,662500	0,1	1,936277
1,664167	0,1	1,936432
1,665833	0,1	1,925438
1,667500	0,1	1,933161
1,669167	0,1	1,979043
1,670833	0,1	1,948761
1,672500	0,1	1,909012
1,674167	0,1	1,911816
1,675833	0,1	1,942632
1,677500	0,1	1,927286
1,679167	0,1	1,926788
1,680833	0,1	1,917479
1,682500	0,1	1,906999
1,684167	0,1	1,908937
1,685833	0,1	1,893548
1,687500	0,1	1,836287
1,689167	0,1	1,895405
1,690833	0,1	1,880997
1,692500	0,1	1,863701
1,694167	0,1	1,867703
1,695833	0,1	1,866765
1,697500	0,1	1,880735
1,699167	0,1	1,825841
1,700833	0,1	1,890586
1,702500	0,1	1,830789
1,704167	0,1	1,808824
1,705833	0,1	1,818485
1,707500	0,1	1,834102
1,709167	0,1	1,804624
1,710833	0,1	1,807331
1,712500	0,1	1,794047
1,714167	0,1	1,788936
1,715833	0,1	1,749500
1,717500	0,1	1,786404
1,719167	0,1	1,781983
1,720833	0,1	1,737958
1,722500	0,1	1,710637
1,724167	0,1	1,735906
1,725833	0,1	1,720139
1,727500	0,1	1,711670
1,729167	0,1	1,690984
1,730833	0,1	1,678728
1,732500	0,1	1,690909
1,734167	0,1	1,673525
1,735833	0,1	1,644954
1,737500	0,1	1,646048
1,739167	0,1	1,612570
1,740833	0,1	1,617214
1,742500	0,1	1,591629
1,744167	0,1	1,561898
1,745833	0,1	1,587738
1,747500	0,1	1,530845
1,749167	0,1	1,558679
1,750833	0,1	1,537563
1,752500	0,1	1,472432
1,754167	0,1	1,441395
1,755833	0,1	1,442756
1,757500	0,1	1,462263
1,759167	0,1	1,423486
1,760833	0,1	1,411976
1,762500	0,1	1,394864
1,764167	0,1	1,382509
1,765833	0,1	1,327961
1,767500	0,1	1,351365
1,769167	0,1	1,323788
1,770833	0,1	1,296345
1,772500	0,1	1,272590
1,774167	0,1	1,241237
1,775833	0,1	1,233606
1,777500	0,1	1,217107
1,779167	0,1	1,174827
1,780833	0,1	1,163551
1,782500	0,1	1,173294
1,784167	0,1	1,132271
1,785833	0,1	1,154546
1,787500	0,1	1,093598
1,789167	0,1	1,055857
1,790833	0,1	1,030400
1,792500	0,1	1,044747
1,794167	0,1	1,002909
1,795833	0,1	1,023611
1,797500	0,1	0,958820
1,799167	0,1	0,939202
1,800833	0,1	0,959126
1,802500	0,1	0,894439
1,804167	0,1	0,892025
1,805833	0,1	0,851792
1,807500	0,1	0,819640
1,809167	0,1	0,819975
1,810833	0,1	0,803393
1,812500	0,1	0,777226
1,814167	0,1	0,756349
1,815833	0,1	0,759974
1,817500	0,1	0,695548
1,819167	0,1	0,681345
1,820833	0,1	0,676004
1,822500	0,1	0,649512
1,824167	0,1	0,638071
1,825833	0,1	0,611926
1,827500	0,1	0,581264
1,829167	0,1	0,566077
1,830833	0,1	0,591152
1,832500	0,1	0,556471
1,834167	0,1	0,556515
1,835833	0,1	0,523520
1,837500	0,1	0,533422
1,839167	0,1	0,493163
1,840833	0,1	0,535520
1,842500	0,1	0,570633
1,844167	0,1	0,509233
1,845833	0,1	0,568342
1,847500	0,1	0,583595
1,849167	0,1	0,627906
1,850833	0,1	0,593110
1,852500	0,1	0,624636
1,854167	0,1	0,665434
1,855833	0,1	0,664507
1,857500	0,1	0,737619
1,859167	0,1	0,778277
1,860833	0,1	0,782674
1,862500	0,1	0,804735
1,864167	0,1	0,850350
1,865833	0,1	0,936936
1,867500	0,1	0,914922
1,869167	0,1	0,940164
1,870833	0,1	0,940256
1,872500	0,1	1,017972
1,874167	0,1	1,030436
1,875833	0,1	1,041934
1,877500	0,1	1,107587
1,879167	0,1	1,146395
1,880833	0,1	1,180081
1,882500	0,1	1,242195
1,884167	0,1	1,246917
1,885833	0,1	1,256978
1,887500	0,1	1,284600
1,889167	0,1	1,338168
1,890833	0,1	1,334408
1,892500	0,1	1,330430
1,894167	0,1	1,360847
1,895833	0,1	1,438026
1,897500	0,1	1,481124
1,899167	0,1	1,472699
1,900833	0,1	1,467502
1,902500	0,1	1,562996
1,904167	0,1	1,556140
1,905833	0,1	1,599951
1,907500	0,1	1,611102
1,909167	0,1	1,628980
1,910833	0,1	1,635896
1,912500	0,1	1,666692
1,914167	0,1	1,735833
1,915833	0,1	1,731776
1,917500	0,1	1,745509
1,919167	0,1	1,729353
1,920833	0,1	1,759149
1,922500	0,1	1,831112
1,924167	0,1	1,783223
1,925833	0,1	1,848896
1,927500	0,1	1,816750
1,929167	0,1	1,827668
1,930833	0,1	1,852497
1,932500	0,1	1,817592
1,934167	0,1	1,847131
1,935833	0,1	1,893141
1,937500	0,1	1,883002
1,939167	0,1	1,902144
1,940833	0,1	1,899301
1,942500	0,1	1,913788
1,944167	0,1	1,931923
1,945833	0,1	1,940276
1,947500	0,1	1,941149
1,949167	0,1	1,937946
1,950833	0,1	1,977170
1,952500	0,1	1,987987
1,954167	0,1	1,989020
1,955833	0,1	1,977379
1,957500	0,1	1,997193
1,959167	0,1	1,980588
1,960833	0,1	1,987406
1,962500	0,1	2,042089
1,964167	0,1	2,032502
1,965833	0,1	2,024383
1,967500	0,1	2,080949
1,969167	0,1	2,068448
1,970833	0,1	2,072129
1,972500	0,1	2,058743
1,974167	0,1	2,112884
1,975833	0,1	2,124410
1,977500	0,1	2,111290
1,979167	0,1	2,120278
1,980833	0,1	2,134515
1,982500	0,1	2,172495
1,984167	0,1	2,178908
1,985833	0,1	2,214567
1,987500	0,1	2,195095
1,989167	0,1	2,214012
1,990833	0,1	2,224482
1,992500	0,1	2,219041
1,994167	0,1	2,290697
1,995833	0,1	2,262259
1,997500	0,1	2,288989
1,999167	0,1	2,298370
2,000833	0,1	2,321204
2,002500	0,1	2,283692
2,004167	0,1	2,366249
2,005833	0,1	2,371245
2,007500	0,1	2,384591
2,009167	0,1	2,418983
2,010833	0,1	2,380793
2,012500	0,1	2,398215
2,014167	0,1	2,458229
2,015833	0,1	2,441100
2,017500	0,1	2,471867
2,019167	0,1	2,517327
2,020833	0,1	2,516963
2,022500	0,1	2,542219
2,024167	0,1	2,539703
2,025833	0,1	2,553420
2,027500	0,1	2,596819
2,029167	0,1	2,647484
2,030833	0,1	2,643496
2,032500	0,1	2,654371
2,034167	0,1	2,669728
2,035833	0,1	2,667843
2,037500	0,1	2,679213
2,039167	0,1	2,735429
2,040833	0,1	2,763744
2,042500	0,1	2,767141
2,044167	0,1	2,785135
2,045833	0,1	2,778507
2,047500	0,1	2,774618
2,049167	0,1	2,823369
2,050833	0,1	2,835555
2,052500	0,1	2,880554
2,054167	0,1	2,912254
2,055833	0,1	2,913985
2,057500	0,1	2,929045
2,059167	0,1	2,907798
2,060833	0,1	2,926878
2,062500	0,1	2,976439
2,064167	0,1	3,025869
2,065833	0,1	2,958871
2,067500	0,1	3,034427
2,069167	0,1	3,026883
2,070833	0,1	3,013767
2,072500	0,1	3,048133
2,074167	0,1	3,057641
2,075833	0,1	3,038552
2,077500	0,1	3,095481
2,079167	0,1	3,124970
2,080833	0,1	3,109825
2,082500	0,1	3,135990
2,084167	0,1	3,124182
2,085833	0,1	3,137644
2,087500	0,1	3,127201
2,089167	0,1	3,153858
2,090833	0,1	3,202943
2,092500	0,1	3,140406
2,094167	0,1	3,202220
2,095833	0,1	3,186026
2,097500	0,1	3,122814
2,099167	0,1	3,186427
2,100833	0,1	3,235310
2,102500	0,1	3,187467
2,104167	0,1	3,201360
2,105833	0,1	3,230051
2,107500	0,1	3,174491
2,109167	0,1	3,188740
2,110833	0,1	3,206475
2,112500	0,1	3,194523
2,114167	0,1	3,164899
2,115833	0,1	3,211883
2,117500	0,1	3,221695
2,119167	0,1	3,239643
2,120833	0,1	3,199717
2,122500	0,1	3,216645
2,124167	0,1	3,214197
2,125833	0,1	3,204686
2,127500	0,1	3,191990
2,129167	0,1	3,205543
2,130833	0,1	3,193591
2,132500	0,1	3,166561
2,134167	0,1	3,191784
2,135833	0,1	3,164179
2,137500	0,1	3,143066
2,139167	0,1	3,129733
2,140833	0,1	3,122443
2,142500	0,1	3,149607
2,144167	0,1	3,149547
2,145833	0,1	3,165898
2,147500	0,1	3,078215
2,149167	0,1	3,131945
2,150833	0,1	3,102058
2,152500	0,1	3,042037
2,154167	0,1	3,059951
2,155833	0,1	3,033366
2,157500	0,1	3,043529
2,159167	0,1	3,026019
2,160833	0,1	3,023578
2,162500	0,1	3,049658
2,164167	0,1	2,997634
2,165833	0,1	3,012978
2,167500	0,1	2,981863
2,169167	0,1	2,956784
2,170833	0,1	2,976236
2,172500	0,1	2,972929
2,174167	0,1	2,927402
2,175833	0,1	2,949371
2,177500	0,1	2,945705
2,179167	0,1	2,881864
2,180833	0,1	2,859326
2,182500	0,1	2,885396
2,184167	0,1	2,889001
2,185833	0,1	2,840534
2,187500	0,1	2,850405
2,189167	0,1	2,848741
2,190833	0,1	2,845999
2,192500	0,1	2,809847
2,194167	0,1	2,790686
2,195833	0,1	2,743534
2,197500	0,1	2,784991
2,199167	0,1	2,770098
2,200833	0,1	2,741199
2,202500	0,1	2,749050
2,204167	0,1	2,716450
2,205833	0,1	2,693339
2,207500	0,1	2,671926
2,209167	0,1	2,661929
2,210833	0,1	2,678770
2,212500	0,1	2,690091
2,214167	0,1	2,669942
2,215833	0,1	2,604943
2,217500	0,1	2,616280
2,219167	0,1	2,616672
2,220833	0,1	2,589742
2,222500	0,1	2,606234
2,224167	0,1	2,614726
2,225833	0,1	2,578238
2,227500	0,1	2,580392
2,229167	0,1	2,583547
2,230833	0,1	2,576355
2,232500	0,1	2,534819
2,234167	0,1	2,557066
2,235833	0,1	2,546046
2,237500	0,1	2,511362
2,239167	0,1	2,547517
2,240833	0,1	2,514225
2,242500	0,1	2,521512
2,244167	0,1	2,499768
2,245833	0,1	2,468237
2,247500	0,1	2,487180
2,249167	0,1	2,458474
2,250833	0,1	2,416497
2,252500	0,1	2,437603
2,254167	0,1	2,453533
2,255833	0,1	2,440249
2,257500	0,1	2,442294
2,259167	0,1	2,419616
2,260833	0,1	2,399271
2,262500	0,1	2,400521
2,264167	0,1	2,363059
2,265833	0,1	2,364906
2,267500	0,1	2,364993
2,269167	0,1	2,400175
2,270833	0,1	2,381477
2,272500	0,1	2,361154
2,274167	0,1	2,342963
2,275833	0,1	2,337645
2,277500	0,1	2,377712
2,279167	0,1	2,327897
2,280833	0,1	2,332172
2,282500	0,1	2,297488
2,284167	0,1	2,359955
2,285833	0,1	2,366866
2,287500	0,1	2,316579
2,289167	0,1	2,329493
2,290833	0,1	2,324716
2,292500	0,1	2,273069
2,294167	0,1	2,297363
2,295833	0,1	2,266101
2,297500	0,1	2,254487
2,299167	0,1	2,284101
2,300833	0,1	2,276229
2,302500	0,1	2,306446
2,304167	0,1	2,269205
2,305833	0,1	2,230409
2,307500	0,1	2,247940
2,309167	0,1	2,257251
2,310833	0,1	2,261024
2,312500	0,1	2,248014
2,314167	0,1	2,225046
2,315833	0,1	2,273649
2,317500	0,1	2,256008
2,319167	0,1	2,266960
2,320833	0,1	2,256429
2,322500	0,1	2,262230
2,324167	0,1	2,221147
2,325833	0,1	2,272555
2,327500	0,1	2,225099
2,329167	0,1	2,240039
2,330833	0,1	2,264213
2,332500	0,1	2,280912
2,334167	0,1	2,248019
2,335833	0,1	2,284479
2,337500	0,1	2,258866
2,339167	0,1	2,287517
2,340833	0,1	2,285335
2,342500	0,1	2,256725
2,344167	0,1	2,299120
2,345833	0,1	2,254899
2,347500	0,1	2,269482
2,349167	0,1	2,266004
2,350833	0,1	2,256675
2,352500	0,1	2,276000
2,354167	0,1	2,281830
2,355833	0,1	2,277501
2,357500	0,1	2,314773
2,359167	0,1	2,276102
2,360833	0,1	2,295690
2,362500	0,1	2,304465
2,364167	0,1	2,302569
2,365833	0,1	2,327902
2,367500	0,1	2,317797
2,369167	0,1	2,306301
2,370833	0,1	2,382614
2,372500	0,1	2,316562
2,374167	0,1	2,353531
2,375833	0,1	2,370704
2,377500	0,1	2,342385
2,379167	0,1	2,360591
2,380833	0,1	2,410088
2,382500	0,1	2,417733
2,384167	0,1	2,422402
2,385833	0,1	2,429390
2,387500	0,1	2,450467
2,389167	0,1	2,438287
2,390833	0,1	2,438594
2,392500	0,1	2,516160
2,394167	0,1	2,521648
2,395833	0,1	2,533222
2,397500	0,1	2,588649
2,399167	0,1	2,533594
2,400833	0,1	2,598210
2,402500	0,1	2,589586
2,404167	0,1	2,616597
2,405833	0,1	2,648702
2,407500	0,1	2,642215
2,409167	0,1	2,665190
2,410833	0,1	2,700234
2,412500	0,1	2,720050
2,414167	0,1	2,760237
2,415833	0,1	2,751302
2,417500	0,1	2,753657
2,419167	0,1	2,773895
2,420833	0,1	2,799046
2,422500	0,1	2,824255
2,424167	0,1	2,803650
2,425833	0,1	2,820794
2,427500	0,1	2,865562
2,429167	0,1	2,844185
2,430833	0,1	2,933066
2,432500	0,1	2,917751
2,434167	0,1	2,928915
2,435833	0,1	2,964981
2,437500	0,1	2,919692
2,439167	0,1	3,019005
2,440833	0,1	2,997283
2,442500	0,1	3,030703
2,444167	0,1	3,030280
2,445833	0,1	3,067456
2,447500	0,1	3,083027
2,449167	0,1	3,097366
2,450833	0,1	3,128995
2,452500	0,1	3,165025
2,454167	0,1	3,165835
2,455833	0,1	3,196531
2,457500	0,1	3,226445
2,459167	0,1	3,270205
2,460833	0,1	3,309572
2,462500	0,1	3,354850
2,464167	0,1	3,389827
2,465833	0,1	3,470302
2,467500	0,1	3,488930
2,469167	0,1	3,594158
2,470833	0,1	3,650524
2,472500	0,1	3,738705
2,474167	0,1	3,817305
2,475833	0,1	3,928424
2,477500	0,1	4,020143
2,479167	0,1	4,188462
2,480833	0,1	4,310958
2,482500	0,1	4,465412
2,484167	0,1	4,614667
2,485833	0,1	4,828630
2,487500	0,1	5,047977
2,489167	0,1	5,297338
2,490833	0,1	5,529385
2,492500	0,1	5,803727
2,494167	0,1	6,165340
2,495833	0,1	6,435103
2,497500	0,1	6,816512
2,499167	0,1	7,216533
2,500833	0,1	7,630290
2,502500	0,1	8,051912
2,504167	0,1	8,575540
2,505833	0,1	9,100379
2,507500	0,1	9,680302
2,509167	0,1	10,319780
2,510833	0,1	10,946961
2,512500	0,1	11,638285
2,514167	0,1	12,366566
2,515833	0,1	13,130093
2,517500	0,1	13,921871
2,519167	0,1	14,784564
2,520833	0,1	15,708173
2,522500	0,1	16,617848
2,524167	0,1	17,619295
2,525833	0,1	18,649756
2,527500	0,1	19,727794
2,529167	0,1	20,775161
2,530833	0,1	21,967849
2,532500	0,1	23,100342
2,534167	0,1	24,319030
2,535833	0,1	25,512908
2,537500	0,1	26,795615
2,539167	0,1	28,062095
2,540833	0,1	29,342887
2,542500	0,1	30,698157
2,544167	0,1	31,975917
2,545833	0,1	33,339220
2,547500	0,1	34,654971
2,549167	0,1	36,064749
2,550833	0,1	37,409209
2,552500	0,1	38,810617
2,554167	0,1	40,111353
2,555833	0,1	41,490259
2,557500	0,1	42,762543
2,559167	0,1	44,073366
2,560833	0,1	45,360678
2,562500	0,1	46,692188
2,564167	0,1	47,888162
2,565833	0,1	49,116354
2,567500	0,1	50,266515
2,569167	0,1	51,409166
2,570833	0,1	52,527929
2,572500	0,1	53,648424
2,574167	0,1	54,599573
2,575833	0,1	55,611965
2,577500	0,1	56,568220
2,579167	0,1	57,503962
2,580833	0,1	58,321773
2,582500	0,1	59,129367
2,584167	0,1	59,926528
2,585833	0,1	60,632979
2,587500	0,1	61,322338
2,589167	0,1	61,929122
2,590833	0,1	62,499495
2,592500	0,1	63,034385
2,594167	0,1	63,506831
2,595833	0,1	64,000233
2,597500	0,1	64,327936
2,599167	0,1	64,702100
2,600833	0,1	65,033346
2,602500	0,1	65,270747
2,604167	0,1	65,465377
2,605833	0,1	65,612694
2,607500	0,1	65,771345
2,609167	0,1	65,822495
2,610833	0,1	65,903063
2,612500	0,1	65,917144
2,614167	0,1	65,824032
2,615833	0,1	65,818964
2,617500	0,1	65,742166
2,619167	0,1	65,626807
2,620833	0,1	65,385545
2,622500	0,1	65,206821
2,624167	0,1	64,985398
2,625833	0,1	64,725220
2,627500	0,1	64,434017
2,629167	0,1	64,096648
2,630833	0,1	63,768307
2,632500	0,1	63,360996
2,634167	0,1	63,025468
2,635833	0,1	62,601464
2,637500	0,1	62,110284
2,639167	0,1	61,639164
2,640833	0,1	61,167147
2,642500	0,1	60,677842
2,644167	0,1	60,151352
2,645833	0,1	59,624417
2,647500	0,1	59,052976
2,649167	0,1	58,486724
2,650833	0,1	57,840104
2,652500	0,1	57,225273
2,654167	0,1	56,606830
2,655833	0,1	55,957293
2,657500	0,1	55,313386
2,659167	0,1	54,627923
2,660833	0,1	53,993951
2,662500	0,1	53,252428
2,664167	0,1	52,549466
2,665833	0,1	51,865915
2,667500	0,1	51,140501
2,669167	0,1	50,452968
2,670833	0,1	49,731271
2,672500	0,1	49,029074
2,674167	0,1	48,284370
2,675833	0,1	47,536465
2,677500	0,1	46,824698
2,679167	0,1	46,055193
2,680833	0,1	45,374196
2,682500	0,1	44,612542
2,684167	0,1	43,862561
2,685833	0,1	43,101952
2,687500	0,1	42,366667
2,689167	0,1	41,693232
2,690833	0,1	40,935712
2,692500	0,1	40,190713
2,694167	0,1	39,456219
2,695833	0,1	38,830574
2,697500	0,1	38,093937
2,699167	0,1	37,411115
2,700833	0,1	36,710719
2,702500	0,1	36,045475
2,704167	0,1	35,405557
2,705833	0,1	34,650345
2,707500	0,1	34,022421
2,709167	0,1	33,353911
2,710833	0,1	32,682801
2,712500	0,1	32,065324
2,714167	0,1	31,450661
2,715833	0,1	30,847545
2,717500	0,1	30,204094
2,719167	0,1	29,614372
2,720833	0,1	29,066548
2,722500	0,1	28,471607
2,724167	0,1	27,941399
2,725833	0,1	27,401299
2,727500	0,1	26,823496
2,729167	0,1	26,316986
2,730833	0,1	25,785041
2,732500	0,1	25,287701
2,734167	0,1	24,771991
2,735833	0,1	24,301632
2,737500	0,1	23,767684
2,739167	0,1	23,280353
2,740833	0,1	22,838283
2,742500	0,1	22,369500
2,744167	0,1	21,968183
2,745833	0,1	21,553665
2,747500	0,1	21,146562
2,749167	0,1	20,707324
2,750833	0,1	20,282908
2,752500	0,1	19,920711
2,754167	0,1	19,500805
2,755833	0,1	19,126374
2,757500	0,1	18,780308
2,759167	0,1	18,421955
2,760833	0,1	18,053078
2,762500	0,1	17,744100
2,764167	0,1	17,395413
2,765833	0,1	17,094006
2,767500	0,1	16,751601
2,769167	0,1	16,425632
2,770833	0,1	16,144567
2,772500	0,1	15,818118
2,774167	0,1	15,527399
2,775833	0,1	15,223395
2,777500	0,1	14,950974
2,779167	0,1	14,698692
2,780833	0,1	14,413951
2,782500	0,1	14,165426
2,784167	0,1	13,906450
2,785833	0,1	13,679367
2,787500	0,1	13,390342
2,789167	0,1	13,143104
2,790833	0,1	12,925481
2,792500	0,1	12,773930
2,794167	0,1	12,544661
2,795833	0,1	12,273616
2,797500	0,1	12,041697
2,799167	0,1	11,847907
2,800833	0,1	11,636249
2,802500	0,1	11,430787
2,804167	0,1	11,241316
2,805833	0,1	11,024361
2,807500	0,1	10,863677
2,809167	0,1	10,663732
2,810833	0,1	10,468490
2,812500	0,1	10,311821
2,814167	0,1	10,092937
2,815833	0,1	9,929185
2,817500	0,1	9,770020
2,819167	0,1	9,606793
2,820833	0,1	9,455408
2,822500	0,1	9,252326
2,824167	0,1	9,122506
2,825833	0,1	9,001114
2,827500	0,1	8,831749
2,829167	0,1	8,677991
2,830833	0,1	8,540041
2,832500	0,1	8,390602
2,834167	0,1	8,286120
2,835833	0,1	8,148024
2,837500	0,1	8,008387
2,839167	0,1	7,844705
2,840833	0,1	7,773774
2,842500	0,1	7,650474
2,844167	0,1	7,554809
2,845833	0,1	7,356720
2,847500	0,1	7,268292
2,849167	0,1	7,147288
2,850833	0,1	7,076417
2,852500	0,1	6,973870
2,854167	0,1	6,870752
2,855833	0,1	6,769095
2,857500	0,1	6,653727
2,859167	0,1	6,577201
2,860833	0,1	6,421479
2,862500	0,1	6,387009
2,864167	0,1	6,255640
2,865833	0,1	6,158413
2,867500	0,1	6,103392
2,869167	0,1	6,000998
2,870833	0,1	5,919667
2,872500	0,1	5,820907
2,874167	0,1	5,759551
2,875833	0,1	5,683576
2,877500	0,1	5,634798
2,879167	0,1	5,542019
2,880833	0,1	5,458495
2,882500	0,1	5,381262
2,884167	0,1	5,325597
2,885833	0,1	5,284569
2,887500	0,1	5,254752
2,889167	0,1	5,151373
2,890833	0,1	5,068455
2,892500	0,1	5,030052
2,894167	0,1	4,988519
2,895833	0,1	4,872864
2,897500	0,1	4,836008
2,899167	0,1	4,817355
2,900833	0,1	4,735071
2,902500	0,1	4,677855
2,904167	0,1	4,635904
2,905833	0,1	4,584179
2,907500	0,1	4,534588
2,909167	0,1	4,482302
2,910833	0,1	4,438190
2,912500	0,1	4,405871
2,914167	0,1	4,355154
2,915833	0,1	4,302393
2,917500	0,1	4,220279
2,919167	0,1	4,261019
2,920833	0,1	4,169245
2,922500	0,1	4,096225
2,924167	0,1	4,106295
2,925833	0,1	4,052131
2,927500	0,1	4,028660
2,929167	0,1	3,947861
2,930833	0,1	3,951880
2,932500	0,1	3,906264
2,934167	0,1	3,866991
2,935833	0,1	3,804922
2,937500	0,1	3,774382
2,939167	0,1	3,776757
2,940833	0,1	3,730146
2,942500	0,1	3,725512
2,944167	0,1	3,695508
2,945833	0,1	3,654728
2,947500	0,1	3,622979
2,949167	0,1	3,592526
2,950833	0,1	3,555092
2,952500	0,1	3,532941
2,954167	0,1	3,521539
2,955833	0,1	3,478051
2,957500	0,1	3,444221
2,959167	0,1	3,424529
2,960833	0,1	3,411259
2,962500	0,1	3,399719
2,964167	0,1	3,343702
2,965833	0,1	3,350030
2,967500	0,1	3,322137
2,969167	0,1	3,286809
2,970833	0,1	3,244634
2,972500	0,1	3,230718
2,974167	0,1	3,167725
2,975833	0,1	3,188464
2,977500	0,1	3,134931
2,979167	0,1	3,134699
2,980833	0,1	3,128497
2,982500	0,1	3,115256
2,984167	0,1	3,073312
2,985833	0,1	3,069206
2,987500	0,1	3,037054
2,989167	0,1	3,045554
2,990833	0,1	3,007953
2,992500	0,1	3,010684
2,994167	0,1	2,994838
2,995833	0,1	2,955571
2,997500	0,1	2,918196
2,999167	0,1	2,967351
3,000833	0,1	2,923015
3,002500	0,1	2,905931
3,004167	0,1	2,916100
3,005833	0,1	2,916460
3,007500	0,1	2,868847
3,009167	0,1	2,863882
3,010833	0,1	2,874240
3,012500	0,1	2,791953
3,014167	0,1	2,794224
3,015833	0,1	2,797974
3,017500	0,1	2,787898
3,019167	0,1	2,775144
3,020833	0,1	2,781784
3,022500	0,1	2,756433
3,024167	0,1	2,752554
3,025833	0,1	2,743165
3,027500	0,1	2,730949
3,029167	0,1	2,685143
3,030833	0,1	2,739633
3,032500	0,1	2,667006
3,034167	0,1	2,684768
3,035833	0,1	2,638985
3,037500	0,1	2,652402
3,039167	0,1	2,654112
3,040833	0,1	2,625612
3,042500	0,1	2,630139
3,044167	0,1	2,593937
3,045833	0,1	2,621574
3,047500	0,1	2,574778
3,049167	0,1	2,596021
3,050833	0,1	2,562432
3,052500	0,1	2,532823
3,054167	0,1	2,555210
3,055833	0,1	2,562339
3,057500	0,1	2,539111
3,059167	0,1	2,506915
3,060833	0,1	2,508898
3,062500	0,1	2,483509
3,064167	0,1	2,424959
3,065833	0,1	2,458680
3,067500	0,1	2,459423
3,069167	0,1	2,487438
3,070833	0,1	2,452665
3,072500	0,1	2,401914
3,074167	0,1	2,380938
3,075833	0,1	2,394797
3,077500	0,1	2,397768
3,079167	0,1	2,396250
3,080833	0,1	2,394442
3,082500	0,1	2,353059
3,084167	0,1	2,386596
3,085833	0,1	2,368276
3,087500	0,1	2,366910
3,089167	0,1	2,298234
3,090833	0,1	2,379462
3,092500	0,1	2,333502
3,094167	0,1	2,290704
3,095833	0,1	2,315578
3,097500	0,1	2,311858
3,099167	0,1	2,320472
3,100833	0,1	2,310786
3,102500	0,1	2,284226
3,104167	0,1	2,326379
3,105833	0,1	2,318400
3,107500	0,1	2,298779
3,109167	0,1	2,292101
3,110833	0,1	2,333792
3,112500	0,1	2,297130
3,114167	0,1	2,337318
3,115833	0,1	2,305166
3,117500	0,1	2,319911
3,119167	0,1	2,320719
3,120833	0,1	2,325050
3,122500	0,1	2,344804
3,124167	0,1	2,344607
3,125833	0,1	2,362616
3,127500	0,1	2,355170
3,129167	0,1	2,344831
3,130833	0,1	2,356797
3,132500	0,1	2,354566
3,134167	0,1	2,355883
3,135833	0,1	2,379206
3,137500	0,1	2,407116
3,139167	0,1	2,428960
3,140833	0,1	2,423469
3,142500	0,1	2,403938
3,144167	0,1	2,428042
3,145833	0,1	2,444254
3,147500	0,1	2,467634
3,149167	0,1	2,459202
3,150833	0,1	2,425756
3,152500	0,1	2,474528
3,154167	0,1	2,423643
3,155833	0,1	2,479691
3,157500	0,1	2,444295
3,159167	0,1	2,487570
3,160833	0,1	2,514365
3,162500	0,1	2,480445
3,164167	0,1	2,520567
3,165833	0,1	2,505460
3,167500	0,1	2,501675
3,169167	0,1	2,523383
3,170833	0,1	2,507847
3,172500	0,1	2,510569
3,174167	0,1	2,547926
3,175833	0,1	2,513392
3,177500	0,1	2,519229
3,179167	0,1	2,521956
3,180833	0,1	2,545134
3,182500	0,1	2,572577
3,184167	0,1	2,546016
3,185833	0,1	2,506065
3,187500	0,1	2,549682
3,189167	0,1	2,568609
3,190833	0,1	2,506070
3,192500	0,1	2,528516
3,194167	0,1	2,525011
3,195833	0,1	2,536955
3,197500	0,1	2,475290
3,199167	0,1	2,518468
3,200833	0,1	2,505343
3,202500	0,1	2,482165
3,204167	0,1	2,473297
3,205833	0,1	2,520822
3,207500	0,1	2,468965
3,209167	0,1	2,475081
3,210833	0,1	2,453715
3,212500	0,1	2,460291
3,214167	0,1	2,425824
3,215833	0,1	2,421149
3,217500	0,1	2,467571
3,219167	0,1	2,486397
3,220833	0,1	2,415073
3,222500	0,1	2,393395
3,224167	0,1	2,332790
3,225833	0,1	2,342169
3,227500	0,1	2,336192
3,229167	0,1	2,302087
3,230833	0,1	2,295740
3,232500	0,1	2,294287
3,234167	0,1	2,282882
3,235833	0,1	2,284575
3,237500	0,1	2,275405
3,239167	0,1	2,258509
3,240833	0,1	2,246743
3,242500	0,1	2,213492
3,244167	0,1	2,225376
3,245833	0,1	2,214625
3,247500	0,1	2,160087
3,249167	0,1	2,116525
3,250833	0,1	2,121940
3,252500	0,1	2,115671
3,254167	0,1	2,093976
3,255833	0,1	2,115571
3,257500	0,1	2,117370
3,259167	0,1	2,098425
3,260833	0,1	2,060426
3,262500	0,1	2,077355
3,264167	0,1	1,980401
3,265833	0,1	2,002817
3,267500	0,1	1,992727
3,269167	0,1	1,976011
3,270833	0,1	1,949172
3,272500	0,1	1,942052
3,274167	0,1	1,921291
3,275833	0,1	1,916339
3,277500	0,1	1,900912
3,279167	0,1	1,866740
3,280833	0,1	1,874425
3,282500	0,1	1,839317
3,284167	0,1	1,859738
3,285833	0,1	1,820564
3,287500	0,1	1,821718
3,289167	0,1	1,784353
3,290833	0,1	1,789675
3,292500	0,1	1,788771
3,294167	0,1	1,770704
3,295833	0,1	1,751208
3,297500	0,1	1,756926
3,299167	0,1	1,705054
3,300833	0,1	1,683616
3,302500	0,1	1,706815
3,304167	0,1	1,645450
3,305833	0,1	1,641942
3,307500	0,1	1,655105
3,309167	0,1	1,599527
3,310833	0,1	1,613502
3,312500	0,1	1,598544
3,314167	0,1	1,602290
3,315833	0,1	1,567916
3,317500	0,1	1,585963
3,319167	0,1	1,548427
3,320833	0,1	1,573753
3,322500	0,1	1,543229
3,324167	0,1	1,537015
3,325833	0,1	1,546833
3,327500	0,1	1,479783
3,329167	0,1	1,547147
3,330833	0,1	1,478491
3,332500	0,1	1,488125
3,334167	0,1	1,472130
3,335833	0,1	1,474431
3,337500	0,1	1,472140
3,339167	0,1	1,459636
3,340833	0,1	1,433757
3,342500	0,1	1,426227
3,344167	0,1	1,431938
3,345833	0,1	1,453496
3,347500	0,1	1,443003
3,349167	0,1	1,427813
3,350833	0,1	1,384225
3,352500	0,1	1,380208
3,354167	0,1	1,407371
3,355833	0,1	1,421093
3,357500	0,1	1,373427
3,359167	0,1	1,328709
3,360833	0,1	1,380509
3,362500	0,1	1,348857
3,364167	0,1	1,368201
3,365833	0,1	1,361143
3,367500	0,1	1,344538
3,369167	0,1	1,371533
3,370833	0,1	1,321187
3,372500	0,1	1,331819
3,374167	0,1	1,345903
3,375833	0,1	1,326577
3,377500	0,1	1,338422
3,379167	0,1	1,345531
3,380833	0,1	1,330847
3,382500	0,1	1,277308
3,384167	0,1	1,297686
3,385833	0,1	1,326961
3,387500	0,1	1,293575
3,389167	0,1	1,303294
3,390833	0,1	1,274656
3,392500	0,1	1,289313
3,394167	0,1	1,270925
3,395833	0,1	1,273482
3,397500	0,1	1,315519
3,399167	0,1	1,252830
3,400833	0,1	1,314097
3,402500	0,1	1,285240
3,404167	0,1	1,244532
3,405833	0,1	1,244878
3,407500	0,1	1,236129
3,409167	0,1	1,275180
3,410833	0,1	1,296769
3,412500	0,1	1,270197
3,414167	0,1	1,242862
3,415833	0,1	1,267205
3,417500	0,1	1,255985
3,419167	0,1	1,271769
3,420833	0,1	1,234718
3,422500	0,1	1,277117
3,424167	0,1	1,257403
3,425833	0,1	1,250795
3,427500	0,1	1,277497
3,429167	0,1	1,252946
3,430833	0,1	1,320555
3,432500	0,1	1,272618
3,434167	0,1	1,272961
3,435833	0,1	1,274752
3,437500	0,1	1,251467
3,439167	0,1	1,315325
3,440833	0,1	1,299655
3,442500	0,1	1,274593
3,444167	0,1	1,300706
3,445833	0,1	1,312774
3,447500	0,1	1,320797
3,449167	0,1	1,325342
3,450833	0,1	1,345008
3,452500	0,1	1,326804
3,454167	0,1	1,335716
3,455833	0,1	1,360968
3,457500	0,1	1,382367
3,459167	0,1	1,408358
3,460833	0,1	1,411758
3,462500	0,1	1,440409
3,464167	0,1	1,413829
3,465833	0,1	1,463232
3,467500	0,1	1,484665
3,469167	0,1	1,514678
3,470833	0,1	1,505387
3,472500	0,1	1,479151
3,474167	0,1	1,511474
3,475833	0,1	1,564791
3,477500	0,1	1,535856
3,479167	0,1	1,551619
3,480833	0,1	1,632749
3,482500	0,1	1,605593
3,484167	0,1	1,663393
3,485833	0,1	1,638528
3,487500	0,1	1,670382
3,489167	0,1	1,679827
3,490833	0,1	1,749280
3,492500	0,1	1,754598
3,494167	0,1	1,777225
3,495833	0,1	1,800827
3,497500	0,1	1,768152
3,499167	0,1	1,875625
3,500833	0,1	1,872391
3,502500	0,1	1,870255
3,504167	0,1	1,897900
3,505833	0,1	1,901526
3,507500	0,1	1,933925
3,509167	0,1	1,962323
3,510833	0,1	1,978433
3,512500	0,1	2,003792
3,514167	0,1	1,997330
3,515833	0,1	1,996682
3,517500	0,1	2,039953
3,519167	0,1	2,082049
3,520833	0,1	2,041531
3,522500	0,1	2,081047
3,524167	0,1	2,082640
3,525833	0,1	2,080793
3,527500	0,1	2,149859
3,529167	0,1	2,125804
3,530833	0,1	2,173437
3,532500	0,1	2,180916
3,534167	0,1	2,210174
3,535833	0,1	2,208931
3,537500	0,1	2,225978
3,539167	0,1	2,234081
3,540833	0,1	2,209203
3,542500	0,1	2,232607
3,544167	0,1	2,215249
3,545833	0,1	2,307524
3,547500	0,1	2,246576
3,549167	0,1	2,253547
3,550833	0,1	2,280685
3,552500	0,1	2,246703
3,554167	0,1	2,275238
3,555833	0,1	2,262526
3,557500	0,1	2,279660
3,559167	0,1	2,265158
3,560833	0,1	2,248528
3,562500	0,1	2,242991
3,564167	0,1	2,263120
3,565833	0,1	2,251810
3,567500	0,1	2,267564
3,569167	0,1	2,276270
3,570833	0,1	2,298277
3,572500	0,1	2,255054
3,574167	0,1	2,298117
3,575833	0,1	2,228721
3,577500	0,1	2,217570
3,579167	0,1	2,240350
3,580833	0,1	2,196285
3,582500	0,1	2,200316
3,584167	0,1	2,225909
3,585833	0,1	2,221810
3,587500	0,1	2,195078
3,589167	0,1	2,175727
3,590833	0,1	2,200019
3,592500	0,1	2,177311
3,594167	0,1	2,144971
3,595833	0,1	2,183528
3,597500	0,1	2,133403
3,599167	0,1	2,091247
3,600833	0,1	2,106197
3,602500	0,1	2,109817
3,604167	0,1	2,085881
3,605833	0,1	2,093308
3,607500	0,1	2,071871
3,609167	0,1	2,055072
3,610833	0,1	2,009698
3,612500	0,1	1,965095
3,614167	0,1	2,024936
3,615833	0,1	2,036422
3,617500	0,1	1,958664
3,619167	0,1	2,000196
3,620833	0,1	1,983813
3,622500	0,1	1,954640
3,624167	0,1	1,951230
3,625833	0,1	1,927470
3,627500	0,1	1,943914
3,629167	0,1	1,898945
3,630833	0,1	1,887425
3,632500	0,1	1,827585
3,634167	0,1	1,868305
3,635833	0,1	1,817623
3,637500	0,1	1,834586
3,639167	0,1	1,839048
3,640833	0,1	1,792244
3,642500	0,1	1,762883
3,644167	0,1	1,796039
3,645833	0,1	1,773873
3,647500	0,1	1,722285
3,649167	0,1	1,753265
3,650833	0,1	1,698236
3,652500	0,1	1,690981
3,654167	0,1	1,677989
3,655833	0,1	1,666549
3,657500	0,1	1,664607
3,659167	0,1	1,684478
3,660833	0,1	1,649550
3,662500	0,1	1,636650
3,664167	0,1	1,655291
3,665833	0,1	1,641857
3,667500	0,1	1,594580
3,669167	0,1	1,593021
3,670833	0,1	1,570916
3,672500	0,1	1,572304
3,674167	0,1	1,554375
3,675833	0,1	1,537244
3,677500	0,1	1,489851
3,679167	0,1	1,507965
3,680833	0,1	1,498761
3,682500	0,1	1,474983
3,684167	0,1	1,469719
3,685833	0,1	1,419029
3,687500	0,1	1,452974
3,689167	0,1	1,447091
3,690833	0,1	1,429626
3,692500	0,1	1,402241
3,694167	0,1	1,402462
3,695833	0,1	1,396863
3,697500	0,1	1,392252
3,699167	0,1	1,340545
3,700833	0,1	1,376532
3,702500	0,1	1,354914
3,704167	0,1	1,331432
3,705833	0,1	1,332300
3,707500	0,1	1,347321
3,709167	0,1	1,330659
3,710833	0,1	1,331157
3,712500	0,1	1,295867
3,714167	0,1	1,307752
3,715833	0,1	1,291967
3,717500	0,1	1,240326
3,719167	0,1	1,275287
3,720833	0,1	1,284398
3,722500	0,1	1,263466
3,724167	0,1	1,238258
3,725833	0,1	1,246917
3,727500	0,1	1,247524
3,729167	0,1	1,250316
3,730833	0,1	1,242818
3,732500	0,1	1,244981
3,734167	0,1	1,218362
3,735833	0,1	1,244498
3,737500	0,1	1,184748
3,739167	0,1	1,194336
3,740833	0,1	1,238036
3,742500	0,1	1,239150
3,744167	0,1	1,208304
3,745833	0,1	1,181599
3,747500	0,1	1,193734
3,749167	0,1	1,176704
3,750833	0,1	1,196961
3,752500	0,1	1,153482
3,754167	0,1	1,194080
3,755833	0,1	1,144073
3,757500	0,1	1,190452
3,759167	0,1	1,171830
3,760833	0,1	1,152371
3,762500	0,1	1,156161
3,764167	0,1	1,127362
3,765833	0,1	1,166898
3,767500	0,1	1,136630
3,769167	0,1	1,123759
3,770833	0,1	1,138247
3,772500	0,1	1,112573
3,774167	0,1	1,148529
3,775833	0,1	1,138210
3,777500	0,1	1,143909
3,779167	0,1	1,144061
3,780833	0,1	1,125713
3,782500	0,1	1,159904
3,784167	0,1	1,109042
3,785833	0,1	1,112044
3,787500	0,1	1,094908
3,789167	0,1	1,129238
3,790833	0,1	1,123958
3,792500	0,1	1,129290
3,794167	0,1	1,107361
3,795833	0,1	1,121247
3,797500	0,1	1,135285
3,799167	0,1	1,119089
3,800833	0,1	1,096353
3,802500	0,1	1,107736
3,804167	0,1	1,098119
3,805833	0,1	1,075357
3,807500	0,1	1,080286
3,809167	0,1	1,110898
3,810833	0,1	1,120587
3,812500	0,1	1,103268
3,814167	0,1	1,054982
3,815833	0,1	1,116930
3,817500	0,1	1,066557
3,819167	0,1	1,098755
3,820833	0,1	1,030058
3,822500	0,1	1,039260
3,824167	0,1	1,105971
3,825833	0,1	1,023500
3,827500	0,1	1,036325
3,829167	0,1	1,075342
3,830833	0,1	1,006788
3,832500	0,1	1,042191
3,834167	0,1	1,034684
3,835833	0,1	1,034176
3,837500	0,1	1,059483
3,839167	0,1	1,034582
3,840833	0,1	1,010805
3,842500	0,1	1,021541
3,844167	0,1	1,024463
3,845833	0,1	1,041195
3,847500	0,1	1,025988
3,849167	0,1	1,031931
3,850833	0,1	1,012250
3,852500	0,1	1,013381
3,854167	0,1	0,983285
3,855833	0,1	0,986394
3,857500	0,1	1,013591
3,859167	0,1	1,036661
3,860833	0,1	0,974269
3,862500	0,1	0,973230
3,864167	0,1	0,997545
3,865833	0,1	0,968161
3,867500	0,1	0,980800
3,869167	0,1	0,915722
3,870833	0,1	0,962320
3,872500	0,1	0,946458
3,874167	0,1	0,967599
3,875833	0,1	0,934759
3,877500	0,1	0,960682
3,879167	0,1	0,918166
3,880833	0,1	0,944254
3,882500	0,1	0,924564
3,884167	0,1	0,876162
3,885833	0,1	0,913568
3,887500	0,1	0,931703
3,889167	0,1	0,930819
3,890833	0,1	0,903661
3,892500	0,1	0,907245
3,894167	0,1	0,898555
3,895833	0,1	0,916384
3,897500	0,1	0,902793
3,899167	0,1	0,880855
3,900833	0,1	0,936259
3,902500	0,1	0,899268
3,904167	0,1	0,903846
3,905833	0,1	0,854224
3,907500	0,1	0,888524
3,909167	0,1	0,859160
3,910833	0,1	0,860089
3,912500	0,1	0,887417
3,914167	0,1	0,858675
3,915833	0,1	0,806963
3,917500	0,1	0,833728
3,919167	0,1	0,866754
3,920833	0,1	0,851453
3,922500	0,1	0,834980
3,924167	0,1	0,843532
3,925833	0,1	0,830048
3,927500	0,1	0,865939
3,929167	0,1	0,829066
3,930833	0,1	0,818486
3,932500	0,1	0,821254
3,934167	0,1	0,842299
3,935833	0,1	0,812624
3,937500	0,1	0,829456
3,939167	0,1	0,823364
3,940833	0,1	0,827121
3,942500	0,1	0,824300
3,944167	0,1	0,788419
3,945833	0,1	0,792383
3,947500	0,1	0,819767
3,949167	0,1	0,797731
3,950833	0,1	0,836539
3,952500	0,1	0,789592
3,954167	0,1	0,807572
3,955833	0,1	0,789053
3,957500	0,1	0,769061
3,959167	0,1	0,776849
3,960833	0,1	0,810783
3,962500	0,1	0,749367
3,964167	0,1	0,761837
3,965833	0,1	0,759020
3,967500	0,1	0,785402
3,969167	0,1	0,792977
3,970833	0,1	0,785059
3,972500	0,1	0,818012
3,974167	0,1	0,784608
3,975833	0,1	0,800827
3,977500	0,1	0,781191
3,979167	0,1	0,777901
3,980833	0,1	0,749988
3,982500	0,1	0,786509
3,984167	0,1	0,802944
3,985833	0,1	0,745907
3,987500	0,1	0,762601
3,989167	0,1	0,810074
3,990833	0,1	0,779025
3,992500	0,1	0,757727
3,994167	0,1	0,794321
3,995833	0,1	0,774456
3,997500	0,1	0,787160
3,999167	0,1	0,771513
4,000833	0,1	0,775670
4,002500	0,1	0,739271
4,004167	0,1	0,758129
4,005833	0,1	0,782056
4,007500	0,1	0,767883
4,009167	0,1	0,770105
4,010833	0,1	0,764010
4,012500	0,1	0,804571
4,014167	0,1	0,760500
4,015833	0,1	0,783761
4,017500	0,1	0,777618
4,019167	0,1	0,831032
4,020833	0,1	0,800083
4,022500	0,1	0,751590
4,024167	0,1	0,766061
4,025833	0,1	0,775619
4,027500	0,1	0,790746
4,029167	0,1	0,773105
4,030833	0,1	0,804928
4,032500	0,1	0,762315
4,034167	0,1	0,773733
4,035833	0,1	0,820356
4,037500	0,1	0,771167
4,039167	0,1	0,796773
4,040833	0,1	0,814186
4,042500	0,1	0,802882
4,044167	0,1	0,770294
4,045833	0,1	0,812656
4,047500	0,1	0,807215
4,049167	0,1	0,792235
4,050833	0,1	0,780130
4,052500	0,1	0,811388
4,054167	0,1	0,786120
4,055833	0,1	0,835065
4,057500	0,1	0,819253
4,059167	0,1	0,840254
4,060833	0,1	0,838203
4,062500	0,1	0,803231
4,064167	0,1	0,812856
4,065833	0,1	0,789416
4,067500	0,1	0,795739
4,069167	0,1	0,856133
4,070833	0,1	0,806246
4,072500	0,1	0,839646
4,074167	0,1	0,845117
4,075833	0,1	0,828347
4,077500	0,1	0,810222
4,079167	0,1	0,861709
4,080833	0,1	0,883655
4,082500	0,1	0,859207
4,084167	0,1	0,822968
4,085833	0,1	0,863063
4,087500	0,1	0,878204
4,089167	0,1	0,879718
4,090833	0,1	0,885828
4,092500	0,1	0,901130
4,094167	0,1	0,900621
4,095833	0,1	0,887427
4,097500	0,1	0,912159
4,099167	0,1	0,898043
4,100833	0,1	0,945589
4,102500	0,1	0,920158
4,104167	0,1	0,917085
4,105833	0,1	0,948953
4,107500	0,1	0,938687
4,109167	0,1	0,946549
4,110833	0,1	0,963679
4,112500	0,1	0,933346
4,114167	0,1	0,960499
4,115833	0,1	0,929718
4,117500	0,1	0,982558
4,119167	0,1	0,990666
4,120833	0,1	0,980683
4,122500	0,1	0,971758
4,124167	0,1	0,989633
4,125833	0,1	0,961509
4,127500	0,1	1,022022
4,129167	0,1	1,032253
4,130833	0,1	1,023927
4,132500	0,1	1,030901
4,134167	0,1	1,011327
4,135833	0,1	1,044036
4,137500	0,1	1,034610
4,139167	0,1	1,058623
4,140833	0,1	1,041512
4,142500	0,1	1,022316
4,144167	0,1	1,067826
4,145833	0,1	1,082742
4,147500	0,1	1,062953
4,149167	0,1	1,060135
4,150833	0,1	1,053927
4,152500	0,1	1,073703
4,154167	0,1	1,087244
4,155833	0,1	1,090261
4,157500	0,1	1,115002
4,159167	0,1	1,099118
4,160833	0,1	1,113423
4,162500	0,1	1,117589
4,164167	0,1	1,128103
4,165833	0,1	1,100598
4,167500	0,1	1,123874
4,169167	0,1	1,109263
4,170833	0,1	1,110488
4,172500	0,1	1,103744
4,174167	0,1	1,113210
4,175833	0,1	1,164332
4,177500	0,1	1,119769
4,179167	0,1	1,138308
4,180833	0,1	1,114111
4,182500	0,1	1,124751
4,184167	0,1	1,099936
4,185833	0,1	1,125041
4,187500	0,1	1,168189
4,189167	0,1	1,147816
4,190833	0,1	1,112082
4,192500	0,1	1,113626
4,194167	0,1	1,145407
4,195833	0,1	1,134441
4,197500	0,1	1,149099
4,199167	0,1	1,184519
4,200833	0,1	1,184573
4,202500	0,1	1,119959
4,204167	0,1	1,171584
4,205833	0,1	1,148586
4,207500	0,1	1,148723
4,209167	0,1	1,179027
4,210833	0,1	1,140382
4,212500	0,1	1,134873
4,214167	0,1	1,119487
4,215833	0,1	1,132853
4,217500	0,1	1,155678
4,219167	0,1	1,158956
4,220833	0,1	1,190066
4,222500	0,1	1,140076
4,224167	0,1	1,129418
4,225833	0,1	1,153678
4,227500	0,1	1,143066
4,229167	0,1	1,133211
4,230833	0,1	1,171649
4,232500	0,1	1,126241
4,234167	0,1	1,143968
4,235833	0,1	1,154682
4,237500	0,1	1,196310
4,239167	0,1	1,157382
4,240833	0,1	1,171176
4,242500	0,1	1,198665
4,244167	0,1	1,119441
4,245833	0,1	1,173811
4,247500	0,1	1,181658
4,249167	0,1	1,167788
4,250833	0,1	1,162222
4,252500	0,1	1,184920
4,254167	0,1	1,137554
4,255833	0,1	1,137376
4,257500	0,1	1,137056
4,259167	0,1	1,197328
4,260833	0,1	1,152899
4,262500	0,1	1,140128
4,264167	0,1	1,155017
4,265833	0,1	1,156638
4,267500	0,1	1,193666
4,269167	0,1	1,111296
4,270833	0,1	1,190489
4,272500	0,1	1,126326
4,274167	0,1	1,169339
4,275833	0,1	1,162558
4,277500	0,1	1,145790
4,279167	0,1	1,189020
4,280833	0,1	1,153588
4,282500	0,1	1,106166
4,284167	0,1	1,126624
4,285833	0,1	1,170506
4,287500	0,1	1,154291
4,289167	0,1	1,154913
4,290833	0,1	1,128007
4,292500	0,1	1,140246
4,294167	0,1	1,153514
4,295833	0,1	1,109933
4,297500	0,1	1,135124
4,299167	0,1	1,118382
4,300833	0,1	1,085812
4,302500	0,1	1,093701
4,304167	0,1	1,139426
4,305833	0,1	1,077658
4,307500	0,1	1,066917
4,309167	0,1	1,117488
4,310833	0,1	1,092682
4,312500	0,1	1,085559
4,314167	0,1	1,100634
4,315833	0,1	1,127438
4,317500	0,1	1,104853
4,319167	0,1	1,086606
4,320833	0,1	1,096530
4,322500	0,1	1,112715
4,324167	0,1	1,099473
4,325833	0,1	1,112944
4,327500	0,1	1,091957
4,329167	0,1	1,098391
4,330833	0,1	1,061021
4,332500	0,1	1,103500
4,334167	0,1	1,059977
4,335833	0,1	1,085660
4,337500	0,1	1,075155
4,339167	0,1	1,082143
4,340833	0,1	1,076045
4,342500	0,1	1,063888
4,344167	0,1	1,027223
4,345833	0,1	1,070746
4,347500	0,1	1,045478
4,349167	0,1	1,035778
4,350833	0,1	1,052801
4,352500	0,1	1,077098
4,354167	0,1	1,031466
4,355833	0,1	1,035682
4,357500	0,1	1,043304
4,359167	0,1	0,975610
4,360833	0,1	1,008258
4,362500	0,1	1,057879
4,364167	0,1	1,043016
4,365833	0,1	1,067400
4,367500	0,1	1,023306
4,369167	0,1	1,067671
4,370833	0,1	1,024765
4,372500	0,1	1,024525
4,374167	0,1	1,031072
4,375833	0,1	1,007103
4,377500	0,1	1,039180
4,379167	0,1	1,025342
4,380833	0,1	1,020515
4,382500	0,1	0,967079
4,384167	0,1	1,019872
4,385833	0,1	1,035711
4,387500	0,1	0,979880
4,389167	0,1	0,961507
4,390833	0,1	0,994961
4,392500	0,1	0,974633
4,394167	0,1	0,977624
4,395833	0,1	0,976102
4,397500	0,1	1,002096
4,399167	0,1	0,954830
4,400833	0,1	0,967186
4,402500	0,1	0,970151
4,404167	0,1	0,986440
4,405833	0,1	0,984664
4,407500	0,1	0,948787
4,409167	0,1	0,988477
4,410833	0,1	0,918682
4,412500	0,1	0,903256
4,414167	0,1	0,953150
4,415833	0,1	0,944725
4,417500	0,1	0,924016
4,419167	0,1	0,929050
4,420833	0,1	0,941650
4,422500	0,1	0,926900
4,424167	0,1	0,904839
4,425833	0,1	0,910106
4,427500	0,1	0,914502
4,429167	0,1	0,901854
4,430833	0,1	0,904421
4,432500	0,1	0,886578
4,434167	0,1	0,889116
4,435833	0,1	0,883834
4,437500	0,1	0,891926
4,439167	0,1	0,912731
4,440833	0,1	0,839913
4,442500	0,1	0,865284
4,444167	0,1	0,864342
4,445833	0,1	0,870645
4,447500	0,1	0,876500
4,449167	0,1	0,870405
4,450833	0,1	0,845757
4,452500	0,1	0,886442
4,454167	0,1	0,834041
4,455833	0,1	0,876773
4,457500	0,1	0,837606
4,459167	0,1	0,792809
4,460833	0,1	0,838059
4,462500	0,1	0,811745
4,464167	0,1	0,837942
4,465833	0,1	0,819476
4,467500	0,1	0,852913
4,469167	0,1	0,806135
4,470833	0,1	0,823580
4,472500	0,1	0,824451
4,474167	0,1	0,797785
4,475833	0,1	0,780605
4,477500	0,1	0,786165
4,479167	0,1	0,772923
4,480833	0,1	0,779016
4,482500	0,1	0,795899
4,484167	0,1	0,786753
4,485833	0,1	0,764763
4,487500	0,1	0,777837
4,489167	0,1	0,772971
4,490833	0,1	0,777013
4,492500	0,1	0,735800
4,494167	0,1	0,737851
4,495833	0,1	0,745470
4,497500	0,1	0,728294
4,499167	0,1	0,752031
4,500833	0,1	0,708070
4,502500	0,1	0,727984
4,504167	0,1	0,707713
4,505833	0,1	0,747856
4,507500	0,1	0,724716
4,509167	0,1	0,742056
4,510833	0,1	0,714862
4,512500	0,1	0,708826
4,514167	0,1	0,705309
4,515833	0,1	0,700794
4,517500	0,1	0,680210
4,519167	0,1	0,678804
4,520833	0,1	0,689173
4,522500	0,1	0,700151
4,524167	0,1	0,690813
4,525833	0,1	0,686019
4,527500	0,1	0,667311
4,529167	0,1	0,649021
4,530833	0,1	0,689810
4,532500	0,1	0,681372
4,534167	0,1	0,642044
4,535833	0,1	0,706029
4,537500	0,1	0,641233
4,539167	0,1	0,669175
4,540833	0,1	0,642913
4,542500	0,1	0,667539
4,544167	0,1	0,626924
4,545833	0,1	0,607682
4,547500	0,1	0,612954
4,549167	0,1	0,630657
4,550833	0,1	0,666008
4,552500	0,1	0,617666
4,554167	0,1	0,617172
4,555833	0,1	0,625321
4,557500	0,1	0,638043
4,559167	0,1	0,608445
4,560833	0,1	0,587523
4,562500	0,1	0,617819
4,564167	0,1	0,577030
4,565833	0,1	0,610606
4,567500	0,1	0,614651
4,569167	0,1	0,566952
4,570833	0,1	0,649634
4,572500	0,1	0,576048
4,574167	0,1	0,587685
4,575833	0,1	0,572162
4,577500	0,1	0,570046
4,579167	0,1	0,623022
4,580833	0,1	0,581611
4,582500	0,1	0,542858
4,584167	0,1	0,558616
4,585833	0,1	0,561196
4,587500	0,1	0,594193
4,589167	0,1	0,563193
4,590833	0,1	0,570395
4,592500	0,1	0,558326
4,594167	0,1	0,559316
4,595833	0,1	0,514495
4,597500	0,1	0,542020
4,599167	0,1	0,546420
4,600833	0,1	0,548362
4,602500	0,1	0,509391
4,604167	0,1	0,553271
4,605833	0,1	0,530721
4,607500	0,1	0,526672
4,609167	0,1	0,514365
4,610833	0,1	0,528779
4,612500	0,1	0,541903
4,614167	0,1	0,540323
4,615833	0,1	0,529016
4,617500	0,1	0,522862
4,619167	0,1	0,505513
4,620833	0,1	0,505866
4,622500	0,1	0,496077
4,624167	0,1	0,518166
4,625833	0,1	0,519583
4,627500	0,1	0,505576
4,629167	0,1	0,505630
4,630833	0,1	0,483072
4,632500	0,1	0,511191
4,634167	0,1	0,479147
4,635833	0,1	0,525548
4,637500	0,1	0,535983
4,639167	0,1	0,462161
4,640833	0,1	0,458570
4,642500	0,1	0,473158
4,644167	0,1	0,432970
4,645833	0,1	0,501565
4,647500	0,1	0,473577
4,649167	0,1	0,499236
4,650833	0,1	0,494727
4,652500	0,1	0,458931
4,654167	0,1	0,451539
4,655833	0,1	0,471399
4,657500	0,1	0,475094
4,659167	0,1	0,464489
4,660833	0,1	0,476908
4,662500	0,1	0,438008
4,664167	0,1	0,444737
4,665833	0,1	0,453761
4,667500	0,1	0,458216
4,669167	0,1	0,438297
4,670833	0,1	0,469521
4,672500	0,1	0,470817
4,674167	0,1	0,466189
4,675833	0,1	0,397057
4,677500	0,1	0,433187
4,679167	0,1	0,440459
4,680833	0,1	0,445676
4,682500	0,1	0,391956
4,684167	0,1	0,447715
4,685833	0,1	0,444036
4,687500	0,1	0,411991
4,689167	0,1	0,477772
4,690833	0,1	0,428168
4,692500	0,1	0,458033
4,694167	0,1	0,403030
4,695833	0,1	0,446954
4,697500	0,1	0,405957
4,699167	0,1	0,398389
4,700833	0,1	0,404070
4,702500	0,1	0,417371
4,704167	0,1	0,415381
4,705833	0,1	0,396284
4,707500	0,1	0,401667
4,709167	0,1	0,438869
4,710833	0,1	0,401913
4,712500	0,1	0,381400
4,714167	0,1	0,448004
4,715833	0,1	0,426168
4,717500	0,1	0,400093
4,719167	0,1	0,392061
4,720833	0,1	0,368042
4,722500	0,1	0,404941
4,724167	0,1	0,367695
4,725833	0,1	0,410215
4,727500	0,1	0,396107
4,729167	0,1	0,424340
4,730833	0,1	0,405248
4,732500	0,1	0,388783
4,734167	0,1	0,401021
4,735833	0,1	0,367225
4,737500	0,1	0,406934
4,739167	0,1	0,372381
4,740833	0,1	0,347127
4,742500	0,1	0,397321
4,744167	0,1	0,363533
4,745833	0,1	0,382855
4,747500	0,1	0,353631
4,749167	0,1	0,375648
4,750833	0,1	0,421405
4,752500	0,1	0,376016
4,754167	0,1	0,334180
4,755833	0,1	0,387302
4,757500	0,1	0,346195
4,759167	0,1	0,328844
4,760833	0,1	0,389995
4,762500	0,1	0,373901
4,764167	0,1	0,347888
4,765833	0,1	0,401247
4,767500	0,1	0,362948
4,769167	0,1	0,359308
4,770833	0,1	0,363347
4,772500	0,1	0,367510
4,774167	0,1	0,328205
4,775833	0,1	0,322105
4,777500	0,1	0,361699
4,779167	0,1	0,364989
4,780833	0,1	0,345953
4,782500	0,1	0,365103
4,784167	0,1	0,339394
4,785833	0,1	0,329781
4,787500	0,1	0,337100
4,789167	0,1	0,342136
4,790833	0,1	0,333179
4,792500	0,1	0,365100
4,794167	0,1	0,346248
4,795833	0,1	0,308875
4,797500	0,1	0,390926
4,799167	0,1	0,345668
4,800833	0,1	0,344132
4,802500	0,1	0,322754
4,804167	0,1	0,325911
4,805833	0,1	0,318473
4,807500	0,1	0,335633
4,809167	0,1	0,352506
4,810833	0,1	0,336403
4,812500	0,1	0,370255
4,814167	0,1	0,364231
4,815833	0,1	0,345484
4,817500	0,1	0,289015
4,819167	0,1	0,328423
4,820833	0,1	0,354554
4,822500	0,1	0,346129
4,824167	0,1	0,326445
4,825833	0,1	0,386479
4,827500	0,1	0,352285
4,829167	0,1	0,344192
4,830833	0,1	0,320883
4,832500	0,1	0,334174
4,834167	0,1	0,331247
4,835833	0,1	0,288077
4,837500	0,1	0,351970
4,839167	0,1	0,303893
4,840833	0,1	0,325322
4,842500	0,1	0,309922
4,844167	0,1	0,339028
4,845833	0,1	0,312972
4,847500	0,1	0,283912
4,849167	0,1	0,348042
4,850833	0,1	0,310281
4,852500	0,1	0,356835
4,854167	0,1	0,308229
4,855833	0,1	0,304705
4,857500	0,1	0,340376
4,859167	0,1	0,278415
4,860833	0,1	0,311374
4,862500	0,1	0,324737
4,864167	0,1	0,336399
4,865833	0,1	0,301200
4,867500	0,1	0,327308
4,869167	0,1	0,306701
4,870833	0,1	0,345356
4,872500	0,1	0,318303
4,874167	0,1	0,329307
4,875833	0,1	0,306115
4,877500	0,1	0,308280
4,879167	0,1	0,302249
4,880833	0,1	0,305348
4,882500	0,1	0,319232
4,884167	0,1	0,308515
4,885833	0,1	0,306347
4,887500	0,1	0,291118
4,889167	0,1	0,288771
4,890833	0,1	0,323912
4,892500	0,1	0,313085
4,894167	0,1	0,302247
4,895833	0,1	0,315424
4,897500	0,1	0,308104
4,899167	0,1	0,312437
4,900833	0,1	0,324970
4,902500	0,1	0,333414
4,904167	0,1	0,274200
4,905833	0,1	0,329533
4,907500	0,1	0,317360
4,909167	0,1	0,324972
4,910833	0,1	0,331478
4,912500	0,1	0,327555
4,914167	0,1	0,370137
4,915833	0,1	0,302788
4,917500	0,1	0,335691
4,919167	0,1	0,338567
4,920833	0,1	0,321992
4,922500	0,1	0,312323
4,924167	0,1	0,326495
4,925833	0,1	0,336513
4,927500	0,1	0,324452
4,929167	0,1	0,326440
4,930833	0,1	0,336043
4,932500	0,1	0,315311
4,934167	0,1	0,362518
4,935833	0,1	0,326449
4,937500	0,1	0,315957
4,939167	0,1	0,319584
4,940833	0,1	0,371657
4,942500	0,1	0,328268
4,944167	0,1	0,330073
4,945833	0,1	0,375407
4,947500	0,1	0,339749
4,949167	0,1	0,326618
4,950833	0,1	0,305412
4,952500	0,1	0,367846
4,954167	0,1	0,344957
4,955833	0,1	0,341905
4,957500	0,1	0,349875
4,959167	0,1	0,314376
4,960833	0,1	0,360350
4,962500	0,1	0,340506
4,964167	0,1	0,358481
4,965833	0,1	0,368211
4,967500	0,1	0,361593
4,969167	0,1	0,350638
4,970833	0,1	0,339329
4,972500	0,1	0,396440
4,974167	0,1	0,333366
4,975833	0,1	0,377224
4,977500	0,1	0,367336
4,979167	0,1	0,389125
4,980833	0,1	0,412562
4,982500	0,1	0,388785
4,984167	0,1	0,406939
4,985833	0,1	0,366288
4,987500	0,1	0,406992
4,989167	0,1	0,422175
4,990833	0,1	0,489025
4,992500	0,1	0,416277
4,994167	0,1	0,395815
4,995833	0,1	0,426623
4,997500	0,1	0,440517
4,999167	0,1	0,435656
5,000833	0,1	0,420540
5,002500	0,1	0,436708
5,004167	0,1	0,447432
5,005833	0,1	0,404551
5,007500	0,1	0,425981
5,009167	0,1	0,470748
5,010833	0,1	0,455524
5,012500	0,1	0,455579
5,014167	0,1	0,463957
5,015833	0,1	0,504328
5,017500	0,1	0,469946
5,019167	0,1	0,545467
5,020833	0,1	0,511382
5,022500	0,1	0,533111
5,024167	0,1	0,537629
5,025833	0,1	0,544135
5,027500	0,1	0,514314
5,029167	0,1	0,544129
5,030833	0,1	0,531540
5,032500	0,1	0,569098
5,034167	0,1	0,592956
5,035833	0,1	0,557455
5,037500	0,1	0,571157
5,039167	0,1	0,575147
5,040833	0,1	0,599467
5,042500	0,1	0,588163
5,044167	0,1	0,564370
5,045833	0,1	0,609363
5,047500	0,1	0,606329
5,049167	0,1	0,580787
5,050833	0,1	0,598057
5,052500	0,1	0,603109
5,054167	0,1	0,597887
5,055833	0,1	0,612016
5,057500	0,1	0,591799
5,059167	0,1	0,643546
5,060833	0,1	0,635941
5,062500	0,1	0,644094
5,064167	0,1	0,653820
5,065833	0,1	0,685404
5,067500	0,1	0,642749
5,069167	0,1	0,657927
5,070833	0,1	0,635591
5,072500	0,1	0,708733
5,074167	0,1	0,704430
5,075833	0,1	0,669889
5,077500	0,1	0,694103
5,079167	0,1	0,700732
5,080833	0,1	0,736958
5,082500	0,1	0,702023
5,084167	0,1	0,737596
5,085833	0,1	0,721363
5,087500	0,1	0,721659
5,089167	0,1	0,739602
5,090833	0,1	0,787495
5,092500	0,1	0,774798
5,094167	0,1	0,799173
5,095833	0,1	0,747009
5,097500	0,1	0,787394
5,099167	0,1	0,790448
5,100833	0,1	0,801817
5,102500	0,1	0,819114
5,104167	0,1	0,853134
5,105833	0,1	0,790222
5,107500	0,1	0,794733
5,109167	0,1	0,800195
5,110833	0,1	0,777037
5,112500	0,1	0,843255
5,114167	0,1	0,808532
5,115833	0,1	0,824105
5,117500	0,1	0,811903
5,119167	0,1	0,828036
5,120833	0,1	0,861571
5,122500	0,1	0,816084
5,124167	0,1	0,817959
5,125833	0,1	0,819197
5,127500	0,1	0,850260
5,129167	0,1	0,807587
5,130833	0,1	0,819598
5,132500	0,1	0,828381
5,134167	0,1	0,849084
5,135833	0,1	0,827461
5,137500	0,1	0,831507
5,139167	0,1	0,833916
5,140833	0,1	0,828525
5,142500	0,1	0,865575
5,144167	0,1	0,814916
5,145833	0,1	0,822059
5,147500	0,1	0,808535
5,149167	0,1	0,832499
5,150833	0,1	0,829916
5,152500	0,1	0,818758
5,154167	0,1	0,818947
5,155833	0,1	0,804868
5,157500	0,1	0,822057
5,159167	0,1	0,824399
5,160833	0,1	0,842291
5,162500	0,1	0,811746
5,164167	0,1	0,815548
5,165833	0,1	0,840120
5,167500	0,1	0,833445
5,169167	0,1	0,810102
5,170833	0,1	0,792852
5,172500	0,1	0,812431
5,174167	0,1	0,820184
5,175833	0,1	0,792210
5,177500	0,1	0,822569
5,179167	0,1	0,789400
5,180833	0,1	0,803348
5,182500	0,1	0,823580
5,184167	0,1	0,782777
5,185833	0,1	0,783816
5,187500	0,1	0,798782
5,189167	0,1	0,781240
5,190833	0,1	0,803870
5,192500	0,1	0,784235
5,194167	0,1	0,768933
5,195833	0,1	0,772618
5,197500	0,1	0,721678
5,199167	0,1	0,708183
5,200833	0,1	0,742817
5,202500	0,1	0,778175
5,204167	0,1	0,762592
5,205833	0,1	0,730997
5,207500	0,1	0,715324
5,209167	0,1	0,703196
5,210833	0,1	0,757003
5,212500	0,1	0,745108
5,214167	0,1	0,731218
5,215833	0,1	0,703725
5,217500	0,1	0,709109
5,219167	0,1	0,706465
5,220833	0,1	0,692518
5,222500	0,1	0,670890
5,224167	0,1	0,701423
5,225833	0,1	0,660508
5,227500	0,1	0,674158
5,229167	0,1	0,651546
5,230833	0,1	0,697304
5,232500	0,1	0,642927
5,234167	0,1	0,642739
5,235833	0,1	0,682770
5,237500	0,1	0,667472
5,239167	0,1	0,638053
5,240833	0,1	0,641855
5,242500	0,1	0,645366
5,244167	0,1	0,664244
5,245833	0,1	0,642740
5,247500	0,1	0,639343
5,249167	0,1	0,606931
5,250833	0,1	0,644009
5,252500	0,1	0,627321
5,254167	0,1	0,627500
5,255833	0,1	0,565787
5,257500	0,1	0,640078
5,259167	0,1	0,552428
5,260833	0,1	0,615873
5,262500	0,1	0,614301
5,264167	0,1	0,573927
5,265833	0,1	0,569694
5,267500	0,1	0,551589
5,269167	0,1	0,561664
5,270833	0,1	0,575023
5,272500	0,1	0,512212
5,274167	0,1	0,571788
5,275833	0,1	0,567527
5,277500	0,1	0,551996
5,279167	0,1	0,534879
5,280833	0,1	0,527848
5,282500	0,1	0,559309
5,284167	0,1	0,528374
5,285833	0,1	0,505754
5,287500	0,1	0,500765
5,289167	0,1	0,505453
5,290833	0,1	0,519516
5,292500	0,1	0,518344
5,294167	0,1	0,455362
5,295833	0,1	0,491792
5,297500	0,1	0,479257
5,299167	0,1	0,483003
5,300833	0,1	0,494722
5,302500	0,1	0,470588
5,304167	0,1	0,485638
5,305833	0,1	0,452599
5,307500	0,1	0,465714
5,309167	0,1	0,458804
5,310833	0,1	0,424647
5,312500	0,1	0,483049
5,314167	0,1	0,433793
5,315833	0,1	0,464126
5,317500	0,1	0,467709
5,319167	0,1	0,406957
5,320833	0,1	0,445842
5,322500	0,1	0,433960
5,324167	0,1	0,423704
5,325833	0,1	0,432080
5,327500	0,1	0,444267
5,329167	0,1	0,412752
5,330833	0,1	0,411396
5,332500	0,1	0,407178
5,334167	0,1	0,433539
5,335833	0,1	0,419662
5,337500	0,1	0,382283
5,339167	0,1	0,386317
5,340833	0,1	0,392937
5,342500	0,1	0,391885
5,344167	0,1	0,366226
5,345833	0,1	0,324633
5,347500	0,1	0,376578
5,349167	0,1	0,361891
5,350833	0,1	0,382094
5,352500	0,1	0,385848
5,354167	0,1	0,392880
5,355833	0,1	0,338870
5,357500	0,1	0,362877
5,359167	0,1	0,325627
5,360833	0,1	0,364748
5,362500	0,1	0,358018
5,364167	0,1	0,351340
5,365833	0,1	0,315668
5,367500	0,1	0,368787
5,369167	0,1	0,341327
5,370833	0,1	0,346300
5,372500	0,1	0,356375
5,374167	0,1	0,318774
5,375833	0,1	0,350511
5,377500	0,1	0,303133
5,379167	0,1	0,329128
5,380833	0,1	0,293056
5,382500	0,1	0,387115
5,384167	0,1	0,296402
5,385833	0,1	0,327132
5,387500	0,1	0,301842
5,389167	0,1	0,320403
5,390833	0,1	0,287726
5,392500	0,1	0,313604
5,394167	0,1	0,350276
5,395833	0,1	0,305419
5,397500	0,1	0,305757
5,399167	0,1	0,307283
5,400833	0,1	0,319232
5,402500	0,1	0,298323
5,404167	0,1	0,320752
5,405833	0,1	0,299496
5,407500	0,1	0,299026
5,409167	0,1	0,272549
5,410833	0,1	0,324903
5,412500	0,1	0,277241
5,414167	0,1	0,277350
5,415833	0,1	0,273072
5,417500	0,1	0,259777
5,419167	0,1	0,259482
5,420833	0,1	0,251161
5,422500	0,1	0,264691
5,424167	0,1	0,258897
5,425833	0,1	0,284490
5,427500	0,1	0,295918
5,429167	0,1	0,263646
5,430833	0,1	0,230438
5,432500	0,1	0,276868
5,434167	0,1	0,246900
5,435833	0,1	0,280153
5,437500	0,1	0,261716
5,439167	0,1	0,267509
5,440833	0,1	0,260251
5,442500	0,1	0,258717
5,444167	0,1	0,274711
5,445833	0,1	0,259546
5,447500	0,1	0,261711
5,449167	0,1	0,247004
5,450833	0,1	0,223112
5,452500	0,1	0,238513
5,454167	0,1	0,256902
5,455833	0,1	0,238340
5,457500	0,1	0,239747
5,459167	0,1	0,237865
5,460833	0,1	0,210813
5,462500	0,1	0,258126
5,464167	0,1	0,219365
5,465833	0,1	0,222698
5,467500	0,1	0,219596
5,469167	0,1	0,258483
5,470833	0,1	0,224351
5,472500	0,1	0,213095
5,474167	0,1	0,209574
5,475833	0,1	0,223339
5,477500	0,1	0,251919
5,479167	0,1	0,234539
5,480833	0,1	0,176557
5,482500	0,1	0,243707
5,484167	0,1	0,191482
5,485833	0,1	0,204659
5,487500	0,1	0,217891
5,489167	0,1	0,221470
5,490833	0,1	0,202385
5,492500	0,1	0,234412
5,494167	0,1	0,222643
5,495833	0,1	0,191253
5,497500	0,1	0,200906
5,499167	0,1	0,199861
5,500833	0,1	0,245298
5,502500	0,1	0,203499
5,504167	0,1	0,186618
5,505833	0,1	0,191542
5,507500	0,1	0,214788
5,509167	0,1	0,247058
5,510833	0,1	0,177618
5,512500	0,1	0,199913
5,514167	0,1	0,210753
5,515833	0,1	0,168650
5,517500	0,1	0,224618
5,519167	0,1	0,219828
5,520833	0,1	0,202673
5,522500	0,1	0,199621
5,524167	0,1	0,211977
5,525833	0,1	0,209583
5,527500	0,1	0,171053
5,529167	0,1	0,210153
5,530833	0,1	0,201501
5,532500	0,1	0,148395
5,534167	0,1	0,180987
5,535833	0,1	0,179182
5,537500	0,1	0,161378
5,539167	0,1	0,174550
5,540833	0,1	0,173977
5,542500	0,1	0,180180
5,544167	0,1	0,175087
5,545833	0,1	0,162608
5,547500	0,1	0,171628
5,549167	0,1	0,194701
5,550833	0,1	0,181002
5,552500	0,1	0,177487
5,554167	0,1	0,192472
5,555833	0,1	0,188202
5,557500	0,1	0,162266
5,559167	0,1	0,200961
5,560833	0,1	0,154720
5,562500	0,1	0,160855
5,564167	0,1	0,203014
5,565833	0,1	0,164489
5,567500	0,1	0,178304
5,569167	0,1	0,183344
5,570833	0,1	0,120749
5,572500	0,1	0,149771
5,574167	0,1	0,128125
5,575833	0,1	0,176248
5,577500	0,1	0,202839
5,579167	0,1	0,176967
5,580833	0,1	0,164839
5,582500	0,1	0,172330
5,584167	0,1	0,182936
5,585833	0,1	0,169172
5,587500	0,1	0,155287
5,589167	0,1	0,130525
5,590833	0,1	0,166583
5,592500	0,1	0,130634
5,594167	0,1	0,132800
5,595833	0,1	0,145209
5,597500	0,1	0,121564
5,599167	0,1	0,142925
5,600833	0,1	0,140768
5,602500	0,1	0,186555
5,604167	0,1	0,143819
5,605833	0,1	0,144690
5,607500	0,1	0,112362
5,609167	0,1	0,159200
5,610833	0,1	0,136601
5,612500	0,1	0,168586
5,614167	0,1	0,188674
5,615833	0,1	0,176902
5,617500	0,1	0,169646
5,619167	0,1	0,182698
5,620833	0,1	0,155061
5,622500	0,1	0,193345
5,624167	0,1	0,173269
5,625833	0,1	0,146921
5,627500	0,1	0,134386
5,629167	0,1	0,191414
5,630833	0,1	0,120751
5,632500	0,1	0,171094
5,634167	0,1	0,163021
5,635833	0,1	0,159971
5,637500	0,1	0,149431
5,639167	0,1	0,113600
5,640833	0,1	0,144038
5,642500	0,1	0,140297
5,644167	0,1	0,144344
5,645833	0,1	0,178064
5,647500	0,1	0,167945
5,649167	0,1	0,145689
5,650833	0,1	0,139596
5,652500	0,1	0,175901
5,654167	0,1	0,192832
5,655833	0,1	0,160100
5,657500	0,1	0,155182
5,659167	0,1	0,170861
5,660833	0,1	0,169587
5,662500	0,1	0,163614
5,664167	0,1	0,158104
5,665833	0,1	0,156762
5,667500	0,1	0,144628
5,669167	0,1	0,190478
5,670833	0,1	0,177723
5,672500	0,1	0,179947
5,674167	0,1	0,189493
5,675833	0,1	0,199916
5,677500	0,1	0,183936
5,679167	0,1	0,184518
5,680833	0,1	0,158458
5,682500	0,1	0,184214
5,684167	0,1	0,185687
5,685833	0,1	0,135746
5,687500	0,1	0,173144
5,689167	0,1	0,178773
5,690833	0,1	0,138550
5,692500	0,1	0,146383
5,694167	0,1	0,205408
5,695833	0,1	0,176377
5,697500	0,1	0,176662
5,699167	0,1	0,201614
5,700833	0,1	0,166899
5,702500	0,1	0,195056
5,704167	0,1	0,165890
5,705833	0,1	0,170226
5,707500	0,1	0,164079
5,709167	0,1	0,182812
5,710833	0,1	0,153658
5,712500	0,1	0,186260
5,714167	0,1	0,163319
5,715833	0,1	0,196459
5,717500	0,1	0,202436
5,719167	0,1	0,162564
5,720833	0,1	0,178724
5,722500	0,1	0,174914
5,724167	0,1	0,164420
5,725833	0,1	0,150019
5,727500	0,1	0,239784
5,729167	0,1	0,174925
5,730833	0,1	0,170584
5,732500	0,1	0,196166
5,734167	0,1	0,184816
5,735833	0,1	0,177377
5,737500	0,1	0,173500
5,739167	0,1	0,207526
5,740833	0,1	0,189321
5,742500	0,1	0,165608
5,744167	0,1	0,196171
5,745833	0,1	0,193294
5,747500	0,1	0,207880
5,749167	0,1	0,197348
5,750833	0,1	0,171809
5,752500	0,1	0,191952
5,754167	0,1	0,162669
5,755833	0,1	0,177015
5,757500	0,1	0,189083
5,759167	0,1	0,180357
5,760833	0,1	0,159109
5,762500	0,1	0,167004
5,764167	0,1	0,245824
5,765833	0,1	0,233596
5,767500	0,1	0,172703
5,769167	0,1	0,158571
5,770833	0,1	0,196278
5,772500	0,1	0,224211
5,774167	0,1	0,212809
5,775833	0,1	0,209231
5,777500	0,1	0,195239
5,779167	0,1	0,228084
5,780833	0,1	0,211571
5,782500	0,1	0,165372
5,784167	0,1	0,249857
5,785833	0,1	0,215161
5,787500	0,1	0,213682
5,789167	0,1	0,201204
5,790833	0,1	0,214909
5,792500	0,1	0,199156
5,794167	0,1	0,185922
5,795833	0,1	0,226910
5,797500	0,1	0,194311
5,799167	0,1	0,162739
5,800833	0,1	0,195981
5,802500	0,1	0,190555
5,804167	0,1	0,194171
5,805833	0,1	0,222637
5,807500	0,1	0,179134
5,809167	0,1	0,223451
5,810833	0,1	0,224163
5,812500	0,1	0,213338
5,814167	0,1	0,161800
5,815833	0,1	0,174917
5,817500	0,1	0,216778
5,819167	0,1	0,204085
5,820833	0,1	0,192598
5,822500	0,1	0,178541
5,824167	0,1	0,217307
5,825833	0,1	0,154897
5,827500	0,1	0,164420
5,829167	0,1	0,167758
5,830833	0,1	0,156575
5,832500	0,1	0,206295
5,834167	0,1	0,178026
5,835833	0,1	0,189838
5,837500	0,1	0,163370
5,839167	0,1	0,223684
5,840833	0,1	0,212396
5,842500	0,1	0,208708
5,844167	0,1	0,215027
5,845833	0,1	0,212688
5,847500	0,1	0,179725
5,849167	0,1	0,222402
5,850833	0,1	0,188446
5,852500	0,1	0,181007
5,854167	0,1	0,196636
5,855833	0,1	0,187443
5,857500	0,1	0,162266
5,859167	0,1	0,201730
5,860833	0,1	0,211507
5,862500	0,1	0,190962
5,864167	0,1	0,189784
5,865833	0,1	0,182818
5,867500	0,1	0,230306
5,869167	0,1	0,195302
5,870833	0,1	0,183751
5,872500	0,1	0,159804
5,874167	0,1	0,152893
5,875833	0,1	0,181579
5,877500	0,1	0,205013
5,879167	0,1	0,206716
5,880833	0,1	0,168527
5,882500	0,1	0,215427
5,884167	0,1	0,197519
5,885833	0,1	0,204311
5,887500	0,1	0,204191
5,889167	0,1	0,151903
5,890833	0,1	0,169871
5,892500	0,1	0,200027
5,894167	0,1	0,179895
5,895833	0,1	0,139022
5,897500	0,1	0,158792
5,899167	0,1	0,156872
5,900833	0,1	0,179183
5,902500	0,1	0,185341
5,904167	0,1	0,171282
5,905833	0,1	0,192298
5,907500	0,1	0,192249
5,909167	0,1	0,137552
5,910833	0,1	0,141588
5,912500	0,1	0,178179
5,914167	0,1	0,173730
5,915833	0,1	0,162730
5,917500	0,1	0,167465
5,919167	0,1	0,159800
5,920833	0,1	0,144584
5,922500	0,1	0,231411
5,924167	0,1	0,158707
5,925833	0,1	0,167296
5,927500	0,1	0,199680
5,929167	0,1	0,149273
5,930833	0,1	0,167232
5,932500	0,1	0,170633
5,934167	0,1	0,157933
5,935833	0,1	0,178245
5,937500	0,1	0,156996
5,939167	0,1	0,159855
5,940833	0,1	0,204062
5,942500	0,1	0,193777
5,944167	0,1	0,157932
5,945833	0,1	0,167763
5,947500	0,1	0,155706
5,949167	0,1	0,167238
5,950833	0,1	0,172871
5,952500	0,1	0,126084
5,954167	0,1	0,177243
5,955833	0,1	0,156773
5,957500	0,1	0,160913
5,959167	0,1	0,122446
5,960833	0,1	0,160199
5,962500	0,1	0,131699
5,964167	0,1	0,142760
5,965833	0,1	0,181871
5,967500	0,1	0,155774
5,969167	0,1	0,148262
5,970833	0,1	0,162666
5,972500	0,1	0,166837
5,974167	0,1	0,165833
5,975833	0,1	0,147156
5,977500	0,1	0,165012
5,979167	0,1	0,120452
5,980833	0,1	0,167873
5,982500	0,1	0,108332
5,984167	0,1	0,151241
5,985833	0,1	0,149377
5,987500	0,1	0,150040
5,989167	0,1	0,164074
5,990833	0,1	0,139900
5,992500	0,1	0,136264
5,994167	0,1	0,134970
5,995833	0,1	0,118871
5,997500	0,1	0,152876
5,999167	0,1	0,125544
6,000833	0,1	0,141700
