File Path	chrom://chromeleon01/ikbm_chromeleon/2022/Rezex/Esteban/220612_chitin_4_7.seq/738.smp/UV_VIS_1.channel/UV_VIS_1.chm
Channel	UV_VIS_1

Injection Information:
Data Vault	ikbm_chromeleon
Injection	A2ox 50
Injection Number	128
Position	RA3
Comment	
Processing Method	New ProcMethod
Instrument Method	Short_Rezex_6min_194nm
Type	Calibration Standard
Status	Finished
Injection Date	13.06.2022
Injection Time	06:55:55
Injection Volume (µl)	8,000
Dilution Factor	1,0000
Weight	1,0000

Chromatogram Data Information:
Time Min. (min)	0,000833
Time Max. (min)	6,000833
Data Points	3601
Detector	UV
Generating Data System	Chromeleon 7.2.9.11323
Exporting Data System	Chromeleon 7.2.9.0
Operator	Instrument Controller
Signal Quantity	Absorbance
Signal Unit	mAU
Signal Min.	-0,170293
Signal Max.	28,758105
Channel	UV_VIS_1
Driver Name	VWD3000.dll
Channel Type	Evaluation
Min. Step (s)	0,1
Max. Step (s)	0,1
Average Step (s)	0,1

Signal Parameter Information:
Signal Info	WVL:194 nm

Chromatogram Data:
Time (min)	Step (s)	Value (mAU)
0,000833	n.a.	-0,109754
0,002500	0,1	-0,109514
0,004167	0,1	-0,100949
0,005833	0,1	-0,097509
0,007500	0,1	-0,091918
0,009167	0,1	-0,100653
0,010833	0,1	-0,057404
0,012500	0,1	-0,033918
0,014167	0,1	-0,058779
0,015833	0,1	-0,055419
0,017500	0,1	-0,063754
0,019167	0,1	-0,080139
0,020833	0,1	-0,037301
0,022500	0,1	-0,105949
0,024167	0,1	-0,096829
0,025833	0,1	-0,084163
0,027500	0,1	-0,055657
0,029167	0,1	-0,041130
0,030833	0,1	-0,061297
0,032500	0,1	-0,089095
0,034167	0,1	-0,049896
0,035833	0,1	-0,116091
0,037500	0,1	-0,090290
0,039167	0,1	-0,085384
0,040833	0,1	-0,095413
0,042500	0,1	-0,076820
0,044167	0,1	-0,042078
0,045833	0,1	-0,042180
0,047500	0,1	-0,070464
0,049167	0,1	-0,045974
0,050833	0,1	-0,073151
0,052500	0,1	-0,064740
0,054167	0,1	-0,082884
0,055833	0,1	-0,063412
0,057500	0,1	-0,098553
0,059167	0,1	-0,057063
0,060833	0,1	-0,070808
0,062500	0,1	-0,074830
0,064167	0,1	-0,061908
0,065833	0,1	-0,060369
0,067500	0,1	-0,066742
0,069167	0,1	-0,050802
0,070833	0,1	-0,094712
0,072500	0,1	-0,097507
0,074167	0,1	-0,054158
0,075833	0,1	-0,100695
0,077500	0,1	-0,082773
0,079167	0,1	-0,108866
0,080833	0,1	-0,089287
0,082500	0,1	-0,118305
0,084167	0,1	-0,049021
0,085833	0,1	-0,106533
0,087500	0,1	-0,052998
0,089167	0,1	-0,074085
0,090833	0,1	-0,124424
0,092500	0,1	-0,121470
0,094167	0,1	-0,069472
0,095833	0,1	-0,089738
0,097500	0,1	-0,077809
0,099167	0,1	-0,079982
0,100833	0,1	-0,118543
0,102500	0,1	-0,050776
0,104167	0,1	-0,090555
0,105833	0,1	-0,087018
0,107500	0,1	-0,068371
0,109167	0,1	-0,078265
0,110833	0,1	-0,135452
0,112500	0,1	-0,073853
0,114167	0,1	-0,091222
0,115833	0,1	-0,103790
0,117500	0,1	-0,065169
0,119167	0,1	-0,113590
0,120833	0,1	-0,091572
0,122500	0,1	-0,100653
0,124167	0,1	-0,087310
0,125833	0,1	-0,068471
0,127500	0,1	-0,136443
0,129167	0,1	-0,087550
0,130833	0,1	-0,084622
0,132500	0,1	-0,085855
0,134167	0,1	-0,115518
0,135833	0,1	-0,064591
0,137500	0,1	-0,146049
0,139167	0,1	-0,079566
0,140833	0,1	-0,056547
0,142500	0,1	-0,103329
0,144167	0,1	-0,091859
0,145833	0,1	-0,114297
0,147500	0,1	-0,072505
0,149167	0,1	-0,170293
0,150833	0,1	-0,128534
0,152500	0,1	-0,072048
0,154167	0,1	-0,094116
0,155833	0,1	-0,100364
0,157500	0,1	-0,083062
0,159167	0,1	-0,077278
0,160833	0,1	-0,094048
0,162500	0,1	-0,081598
0,164167	0,1	-0,102233
0,165833	0,1	-0,091157
0,167500	0,1	-0,079203
0,169167	0,1	-0,075061
0,170833	0,1	-0,081994
0,172500	0,1	-0,111190
0,174167	0,1	-0,073507
0,175833	0,1	-0,124210
0,177500	0,1	-0,081665
0,179167	0,1	-0,082997
0,180833	0,1	-0,103447
0,182500	0,1	-0,103681
0,184167	0,1	-0,090236
0,185833	0,1	-0,086786
0,187500	0,1	-0,047851
0,189167	0,1	-0,098950
0,190833	0,1	-0,097809
0,192500	0,1	-0,083754
0,194167	0,1	-0,107584
0,195833	0,1	-0,088425
0,197500	0,1	-0,070575
0,199167	0,1	-0,097974
0,200833	0,1	-0,101066
0,202500	0,1	-0,101187
0,204167	0,1	-0,086319
0,205833	0,1	-0,091454
0,207500	0,1	-0,090694
0,209167	0,1	-0,086377
0,210833	0,1	-0,081006
0,212500	0,1	-0,136615
0,214167	0,1	-0,091406
0,215833	0,1	-0,099722
0,217500	0,1	-0,099784
0,219167	0,1	-0,120140
0,220833	0,1	-0,079631
0,222500	0,1	-0,100890
0,224167	0,1	-0,077683
0,225833	0,1	-0,094418
0,227500	0,1	-0,124676
0,229167	0,1	-0,073221
0,230833	0,1	-0,119954
0,232500	0,1	-0,074261
0,234167	0,1	-0,055604
0,235833	0,1	-0,074486
0,237500	0,1	-0,097964
0,239167	0,1	-0,089012
0,240833	0,1	-0,117964
0,242500	0,1	-0,082244
0,244167	0,1	-0,118082
0,245833	0,1	-0,100831
0,247500	0,1	-0,112376
0,249167	0,1	-0,099326
0,250833	0,1	-0,092210
0,252500	0,1	-0,056370
0,254167	0,1	-0,063866
0,255833	0,1	-0,080308
0,257500	0,1	-0,125127
0,259167	0,1	-0,062949
0,260833	0,1	-0,046976
0,262500	0,1	-0,106644
0,264167	0,1	-0,091170
0,265833	0,1	-0,094011
0,267500	0,1	-0,086487
0,269167	0,1	-0,089642
0,270833	0,1	-0,049607
0,272500	0,1	-0,061309
0,274167	0,1	-0,074828
0,275833	0,1	-0,080792
0,277500	0,1	-0,090571
0,279167	0,1	-0,096985
0,280833	0,1	-0,039047
0,282500	0,1	-0,077336
0,284167	0,1	-0,095640
0,285833	0,1	-0,072091
0,287500	0,1	-0,085090
0,289167	0,1	-0,071227
0,290833	0,1	-0,081182
0,292500	0,1	-0,068671
0,294167	0,1	-0,067656
0,295833	0,1	-0,083855
0,297500	0,1	-0,074081
0,299167	0,1	-0,066164
0,300833	0,1	-0,071102
0,302500	0,1	-0,094187
0,304167	0,1	-0,079153
0,305833	0,1	-0,047380
0,307500	0,1	-0,076977
0,309167	0,1	-0,062248
0,310833	0,1	-0,068765
0,312500	0,1	-0,074117
0,314167	0,1	-0,074079
0,315833	0,1	-0,099767
0,317500	0,1	-0,080256
0,319167	0,1	-0,074641
0,320833	0,1	-0,055254
0,322500	0,1	-0,063345
0,324167	0,1	-0,029890
0,325833	0,1	-0,082744
0,327500	0,1	-0,046727
0,329167	0,1	-0,072380
0,330833	0,1	-0,057939
0,332500	0,1	-0,014317
0,334167	0,1	-0,066430
0,335833	0,1	-0,045694
0,337500	0,1	-0,052080
0,339167	0,1	-0,058904
0,340833	0,1	-0,055819
0,342500	0,1	-0,076739
0,344167	0,1	-0,057217
0,345833	0,1	-0,044289
0,347500	0,1	-0,056689
0,349167	0,1	-0,084445
0,350833	0,1	-0,054724
0,352500	0,1	-0,055780
0,354167	0,1	-0,064275
0,355833	0,1	-0,028100
0,357500	0,1	-0,069278
0,359167	0,1	-0,066494
0,360833	0,1	-0,074237
0,362500	0,1	-0,079720
0,364167	0,1	-0,072617
0,365833	0,1	-0,081283
0,367500	0,1	-0,025504
0,369167	0,1	-0,063386
0,370833	0,1	-0,041785
0,372500	0,1	-0,016358
0,374167	0,1	-0,044727
0,375833	0,1	-0,059423
0,377500	0,1	-0,044956
0,379167	0,1	-0,065326
0,380833	0,1	-0,060671
0,382500	0,1	-0,046321
0,384167	0,1	-0,057550
0,385833	0,1	-0,057514
0,387500	0,1	-0,050349
0,389167	0,1	-0,041068
0,390833	0,1	-0,022821
0,392500	0,1	-0,023276
0,394167	0,1	-0,057045
0,395833	0,1	-0,040489
0,397500	0,1	-0,038621
0,399167	0,1	0,002301
0,400833	0,1	-0,055614
0,402500	0,1	-0,007735
0,404167	0,1	-0,035528
0,405833	0,1	-0,039433
0,407500	0,1	-0,051386
0,409167	0,1	-0,039097
0,410833	0,1	-0,055766
0,412500	0,1	0,013211
0,414167	0,1	-0,055814
0,415833	0,1	-0,016422
0,417500	0,1	-0,054587
0,419167	0,1	-0,043285
0,420833	0,1	-0,019504
0,422500	0,1	-0,042054
0,424167	0,1	-0,031558
0,425833	0,1	-0,042527
0,427500	0,1	-0,025336
0,429167	0,1	-0,047246
0,430833	0,1	0,006618
0,432500	0,1	-0,022108
0,434167	0,1	-0,062563
0,435833	0,1	-0,046903
0,437500	0,1	-0,079934
0,439167	0,1	-0,034253
0,440833	0,1	-0,048712
0,442500	0,1	-0,026560
0,444167	0,1	-0,036164
0,445833	0,1	-0,058309
0,447500	0,1	-0,026612
0,449167	0,1	-0,029059
0,450833	0,1	-0,059079
0,452500	0,1	-0,031562
0,454167	0,1	-0,041355
0,455833	0,1	-0,020326
0,457500	0,1	-0,013788
0,459167	0,1	-0,026551
0,460833	0,1	-0,029036
0,462500	0,1	-0,038548
0,464167	0,1	-0,087054
0,465833	0,1	-0,032270
0,467500	0,1	-0,048118
0,469167	0,1	-0,044966
0,470833	0,1	-0,005809
0,472500	0,1	-0,028245
0,474167	0,1	-0,061996
0,475833	0,1	-0,066902
0,477500	0,1	-0,026443
0,479167	0,1	-0,044910
0,480833	0,1	-0,042000
0,482500	0,1	-0,056698
0,484167	0,1	-0,013967
0,485833	0,1	-0,038786
0,487500	0,1	-0,079300
0,489167	0,1	-0,064040
0,490833	0,1	-0,025633
0,492500	0,1	-0,047415
0,494167	0,1	-0,048775
0,495833	0,1	-0,078793
0,497500	0,1	-0,016598
0,499167	0,1	-0,047123
0,500833	0,1	-0,060305
0,502500	0,1	-0,067362
0,504167	0,1	-0,036063
0,505833	0,1	-0,044331
0,507500	0,1	-0,033734
0,509167	0,1	-0,055003
0,510833	0,1	-0,000378
0,512500	0,1	-0,035395
0,514167	0,1	-0,042627
0,515833	0,1	-0,034872
0,517500	0,1	-0,053851
0,519167	0,1	-0,033847
0,520833	0,1	0,002823
0,522500	0,1	-0,051728
0,524167	0,1	-0,058865
0,525833	0,1	-0,020331
0,527500	0,1	-0,045972
0,529167	0,1	-0,049404
0,530833	0,1	-0,053144
0,532500	0,1	-0,043875
0,534167	0,1	-0,006097
0,535833	0,1	-0,046781
0,537500	0,1	-0,066778
0,539167	0,1	-0,054009
0,540833	0,1	-0,062122
0,542500	0,1	-0,033705
0,544167	0,1	-0,014385
0,545833	0,1	-0,044739
0,547500	0,1	-0,033915
0,549167	0,1	-0,064842
0,550833	0,1	-0,074007
0,552500	0,1	-0,021134
0,554167	0,1	-0,043458
0,555833	0,1	-0,043123
0,557500	0,1	-0,025917
0,559167	0,1	-0,014081
0,560833	0,1	-0,036110
0,562500	0,1	-0,056976
0,564167	0,1	-0,071200
0,565833	0,1	-0,088396
0,567500	0,1	-0,044043
0,569167	0,1	-0,039955
0,570833	0,1	-0,069621
0,572500	0,1	-0,069228
0,574167	0,1	-0,081531
0,575833	0,1	-0,016599
0,577500	0,1	-0,012675
0,579167	0,1	-0,029227
0,580833	0,1	-0,071542
0,582500	0,1	-0,049410
0,584167	0,1	-0,054525
0,585833	0,1	-0,040320
0,587500	0,1	-0,090733
0,589167	0,1	-0,078201
0,590833	0,1	-0,066605
0,592500	0,1	-0,045561
0,594167	0,1	-0,050216
0,595833	0,1	-0,070626
0,597500	0,1	-0,041086
0,599167	0,1	-0,053009
0,600833	0,1	0,003859
0,602500	0,1	-0,038792
0,604167	0,1	-0,021658
0,605833	0,1	-0,081219
0,607500	0,1	-0,062589
0,609167	0,1	-0,067594
0,610833	0,1	-0,065220
0,612500	0,1	-0,041764
0,614167	0,1	-0,053672
0,615833	0,1	-0,059666
0,617500	0,1	-0,070740
0,619167	0,1	-0,064219
0,620833	0,1	-0,076512
0,622500	0,1	-0,052135
0,624167	0,1	-0,063853
0,625833	0,1	-0,061303
0,627500	0,1	-0,041785
0,629167	0,1	-0,071196
0,630833	0,1	-0,030692
0,632500	0,1	-0,070552
0,634167	0,1	-0,020914
0,635833	0,1	-0,102431
0,637500	0,1	-0,072674
0,639167	0,1	-0,058279
0,640833	0,1	-0,042644
0,642500	0,1	-0,040958
0,644167	0,1	-0,002188
0,645833	0,1	-0,037161
0,647500	0,1	-0,029001
0,649167	0,1	-0,046895
0,650833	0,1	-0,064625
0,652500	0,1	-0,066132
0,654167	0,1	-0,025221
0,655833	0,1	-0,024341
0,657500	0,1	-0,073125
0,659167	0,1	-0,039804
0,660833	0,1	-0,091955
0,662500	0,1	-0,057462
0,664167	0,1	-0,049238
0,665833	0,1	-0,043332
0,667500	0,1	-0,058441
0,669167	0,1	-0,015734
0,670833	0,1	-0,027364
0,672500	0,1	-0,048577
0,674167	0,1	-0,029115
0,675833	0,1	-0,019091
0,677500	0,1	-0,059356
0,679167	0,1	-0,005752
0,680833	0,1	-0,059435
0,682500	0,1	-0,031501
0,684167	0,1	-0,040362
0,685833	0,1	-0,026377
0,687500	0,1	-0,048068
0,689167	0,1	-0,037001
0,690833	0,1	-0,045725
0,692500	0,1	-0,021539
0,694167	0,1	-0,042163
0,695833	0,1	-0,032320
0,697500	0,1	-0,036454
0,699167	0,1	-0,056347
0,700833	0,1	-0,041711
0,702500	0,1	0,007734
0,704167	0,1	-0,024310
0,705833	0,1	-0,054541
0,707500	0,1	-0,026320
0,709167	0,1	-0,026532
0,710833	0,1	-0,015763
0,712500	0,1	0,008660
0,714167	0,1	0,002021
0,715833	0,1	-0,004042
0,717500	0,1	0,002442
0,719167	0,1	-0,028401
0,720833	0,1	-0,001594
0,722500	0,1	-0,009331
0,724167	0,1	-0,051439
0,725833	0,1	-0,006790
0,727500	0,1	0,004657
0,729167	0,1	0,038335
0,730833	0,1	0,025420
0,732500	0,1	-0,020119
0,734167	0,1	0,013608
0,735833	0,1	0,032747
0,737500	0,1	-0,018072
0,739167	0,1	0,013790
0,740833	0,1	0,018191
0,742500	0,1	-0,002235
0,744167	0,1	0,017532
0,745833	0,1	0,028223
0,747500	0,1	0,020044
0,749167	0,1	0,041606
0,750833	0,1	0,041395
0,752500	0,1	0,032935
0,754167	0,1	-0,001337
0,755833	0,1	0,021394
0,757500	0,1	0,018289
0,759167	0,1	-0,000952
0,760833	0,1	0,006387
0,762500	0,1	0,021431
0,764167	0,1	-0,007995
0,765833	0,1	-0,028004
0,767500	0,1	0,032216
0,769167	0,1	0,011080
0,770833	0,1	-0,015983
0,772500	0,1	0,027851
0,774167	0,1	-0,030366
0,775833	0,1	-0,016996
0,777500	0,1	0,026955
0,779167	0,1	0,007230
0,780833	0,1	0,019508
0,782500	0,1	-0,015329
0,784167	0,1	0,002681
0,785833	0,1	-0,020245
0,787500	0,1	-0,003224
0,789167	0,1	-0,047070
0,790833	0,1	-0,037340
0,792500	0,1	-0,032510
0,794167	0,1	-0,017699
0,795833	0,1	-0,025307
0,797500	0,1	-0,055390
0,799167	0,1	-0,027180
0,800833	0,1	-0,022405
0,802500	0,1	-0,045261
0,804167	0,1	-0,013031
0,805833	0,1	-0,025450
0,807500	0,1	-0,070852
0,809167	0,1	-0,041086
0,810833	0,1	-0,044745
0,812500	0,1	-0,062580
0,814167	0,1	-0,048318
0,815833	0,1	-0,047772
0,817500	0,1	-0,052842
0,819167	0,1	-0,040319
0,820833	0,1	-0,077328
0,822500	0,1	-0,047659
0,824167	0,1	-0,089332
0,825833	0,1	-0,065578
0,827500	0,1	-0,030193
0,829167	0,1	-0,078897
0,830833	0,1	-0,066906
0,832500	0,1	-0,023056
0,834167	0,1	-0,058848
0,835833	0,1	-0,108680
0,837500	0,1	-0,067494
0,839167	0,1	-0,075871
0,840833	0,1	-0,136606
0,842500	0,1	-0,047333
0,844167	0,1	-0,078031
0,845833	0,1	-0,055716
0,847500	0,1	-0,086128
0,849167	0,1	-0,064924
0,850833	0,1	-0,041773
0,852500	0,1	-0,079553
0,854167	0,1	-0,056646
0,855833	0,1	-0,123325
0,857500	0,1	-0,069192
0,859167	0,1	-0,092203
0,860833	0,1	-0,065097
0,862500	0,1	-0,093544
0,864167	0,1	-0,078451
0,865833	0,1	-0,035145
0,867500	0,1	-0,094819
0,869167	0,1	-0,069285
0,870833	0,1	-0,049590
0,872500	0,1	-0,071047
0,874167	0,1	-0,056295
0,875833	0,1	-0,035069
0,877500	0,1	-0,063159
0,879167	0,1	-0,077102
0,880833	0,1	-0,078198
0,882500	0,1	-0,087825
0,884167	0,1	-0,080133
0,885833	0,1	-0,046739
0,887500	0,1	-0,045048
0,889167	0,1	-0,087648
0,890833	0,1	-0,093118
0,892500	0,1	-0,057122
0,894167	0,1	-0,077922
0,895833	0,1	-0,071987
0,897500	0,1	-0,109095
0,899167	0,1	-0,029298
0,900833	0,1	-0,029352
0,902500	0,1	-0,072376
0,904167	0,1	-0,094236
0,905833	0,1	-0,082760
0,907500	0,1	-0,077907
0,909167	0,1	-0,053259
0,910833	0,1	-0,051790
0,912500	0,1	-0,031993
0,914167	0,1	-0,075522
0,915833	0,1	-0,050985
0,917500	0,1	-0,083742
0,919167	0,1	-0,023882
0,920833	0,1	-0,099995
0,922500	0,1	-0,050179
0,924167	0,1	-0,069563
0,925833	0,1	-0,044050
0,927500	0,1	-0,029124
0,929167	0,1	-0,061996
0,930833	0,1	-0,063915
0,932500	0,1	-0,034671
0,934167	0,1	-0,070372
0,935833	0,1	-0,076333
0,937500	0,1	-0,057726
0,939167	0,1	-0,019605
0,940833	0,1	-0,053585
0,942500	0,1	-0,050507
0,944167	0,1	-0,070786
0,945833	0,1	-0,009770
0,947500	0,1	-0,043734
0,949167	0,1	-0,015586
0,950833	0,1	-0,044146
0,952500	0,1	-0,077958
0,954167	0,1	-0,032316
0,955833	0,1	-0,051095
0,957500	0,1	-0,043053
0,959167	0,1	-0,000653
0,960833	0,1	-0,002531
0,962500	0,1	-0,022351
0,964167	0,1	-0,020432
0,965833	0,1	-0,037093
0,967500	0,1	-0,046728
0,969167	0,1	-0,015684
0,970833	0,1	-0,041339
0,972500	0,1	-0,046136
0,974167	0,1	-0,032962
0,975833	0,1	-0,011927
0,977500	0,1	0,005115
0,979167	0,1	-0,016286
0,980833	0,1	-0,025719
0,982500	0,1	0,000573
0,984167	0,1	-0,008870
0,985833	0,1	0,022978
0,987500	0,1	0,007169
0,989167	0,1	-0,030673
0,990833	0,1	0,012347
0,992500	0,1	0,005944
0,994167	0,1	0,017655
0,995833	0,1	0,021966
0,997500	0,1	0,026990
0,999167	0,1	0,019234
1,000833	0,1	0,023601
1,002500	0,1	0,055900
1,004167	0,1	0,048271
1,005833	0,1	0,065603
1,007500	0,1	0,069854
1,009167	0,1	0,062252
1,010833	0,1	0,081858
1,012500	0,1	0,058494
1,014167	0,1	0,064781
1,015833	0,1	0,058961
1,017500	0,1	0,077455
1,019167	0,1	0,132308
1,020833	0,1	0,133207
1,022500	0,1	0,145671
1,024167	0,1	0,126917
1,025833	0,1	0,143226
1,027500	0,1	0,143247
1,029167	0,1	0,113445
1,030833	0,1	0,142415
1,032500	0,1	0,145568
1,034167	0,1	0,160080
1,035833	0,1	0,174595
1,037500	0,1	0,147790
1,039167	0,1	0,157240
1,040833	0,1	0,160617
1,042500	0,1	0,167188
1,044167	0,1	0,164302
1,045833	0,1	0,173115
1,047500	0,1	0,186056
1,049167	0,1	0,151947
1,050833	0,1	0,198654
1,052500	0,1	0,144649
1,054167	0,1	0,169703
1,055833	0,1	0,192242
1,057500	0,1	0,189576
1,059167	0,1	0,266620
1,060833	0,1	0,301066
1,062500	0,1	0,299729
1,064167	0,1	0,327366
1,065833	0,1	0,455488
1,067500	0,1	0,548068
1,069167	0,1	0,735973
1,070833	0,1	0,864486
1,072500	0,1	1,053494
1,074167	0,1	1,314779
1,075833	0,1	1,583168
1,077500	0,1	1,918483
1,079167	0,1	2,294142
1,080833	0,1	2,678165
1,082500	0,1	3,134157
1,084167	0,1	3,597437
1,085833	0,1	4,096469
1,087500	0,1	4,548650
1,089167	0,1	5,039561
1,090833	0,1	5,564899
1,092500	0,1	6,041017
1,094167	0,1	6,459204
1,095833	0,1	6,881866
1,097500	0,1	7,315864
1,099167	0,1	7,605564
1,100833	0,1	7,917710
1,102500	0,1	8,161494
1,104167	0,1	8,333447
1,105833	0,1	8,465323
1,107500	0,1	8,627632
1,109167	0,1	8,702655
1,110833	0,1	8,688336
1,112500	0,1	8,670549
1,114167	0,1	8,626175
1,115833	0,1	8,562514
1,117500	0,1	8,434953
1,119167	0,1	8,228659
1,120833	0,1	8,026870
1,122500	0,1	7,837126
1,124167	0,1	7,656793
1,125833	0,1	7,456398
1,127500	0,1	7,191163
1,129167	0,1	6,957077
1,130833	0,1	6,711130
1,132500	0,1	6,451744
1,134167	0,1	6,165071
1,135833	0,1	5,928240
1,137500	0,1	5,670620
1,139167	0,1	5,440343
1,140833	0,1	5,217256
1,142500	0,1	4,965762
1,144167	0,1	4,739076
1,145833	0,1	4,572621
1,147500	0,1	4,302884
1,149167	0,1	4,108529
1,150833	0,1	3,954724
1,152500	0,1	3,757822
1,154167	0,1	3,599228
1,155833	0,1	3,429125
1,157500	0,1	3,317400
1,159167	0,1	3,108534
1,160833	0,1	3,028764
1,162500	0,1	2,937748
1,164167	0,1	2,805743
1,165833	0,1	2,711983
1,167500	0,1	2,574239
1,169167	0,1	2,494283
1,170833	0,1	2,411065
1,172500	0,1	2,294331
1,174167	0,1	2,221313
1,175833	0,1	2,131919
1,177500	0,1	2,047906
1,179167	0,1	2,007292
1,180833	0,1	1,869203
1,182500	0,1	1,875256
1,184167	0,1	1,807411
1,185833	0,1	1,703130
1,187500	0,1	1,700189
1,189167	0,1	1,604467
1,190833	0,1	1,602903
1,192500	0,1	1,499837
1,194167	0,1	1,502521
1,195833	0,1	1,430359
1,197500	0,1	1,433381
1,199167	0,1	1,360455
1,200833	0,1	1,357133
1,202500	0,1	1,332773
1,204167	0,1	1,226364
1,205833	0,1	1,201031
1,207500	0,1	1,186771
1,209167	0,1	1,210168
1,210833	0,1	1,179724
1,212500	0,1	1,135281
1,214167	0,1	1,093160
1,215833	0,1	1,111273
1,217500	0,1	1,087080
1,219167	0,1	1,015264
1,220833	0,1	1,013123
1,222500	0,1	0,986767
1,224167	0,1	0,978049
1,225833	0,1	0,994117
1,227500	0,1	0,961528
1,229167	0,1	0,907532
1,230833	0,1	0,934900
1,232500	0,1	0,882690
1,234167	0,1	0,889392
1,235833	0,1	0,848907
1,237500	0,1	0,888034
1,239167	0,1	0,864586
1,240833	0,1	0,822749
1,242500	0,1	0,820619
1,244167	0,1	0,777631
1,245833	0,1	0,819708
1,247500	0,1	0,815254
1,249167	0,1	0,804296
1,250833	0,1	0,769790
1,252500	0,1	0,733416
1,254167	0,1	0,733667
1,255833	0,1	0,744173
1,257500	0,1	0,742345
1,259167	0,1	0,720406
1,260833	0,1	0,710313
1,262500	0,1	0,724286
1,264167	0,1	0,688664
1,265833	0,1	0,657180
1,267500	0,1	0,703683
1,269167	0,1	0,651656
1,270833	0,1	0,662571
1,272500	0,1	0,642599
1,274167	0,1	0,645869
1,275833	0,1	0,635113
1,277500	0,1	0,632731
1,279167	0,1	0,616259
1,280833	0,1	0,604053
1,282500	0,1	0,559864
1,284167	0,1	0,635962
1,285833	0,1	0,597951
1,287500	0,1	0,572391
1,289167	0,1	0,565837
1,290833	0,1	0,513684
1,292500	0,1	0,538840
1,294167	0,1	0,491744
1,295833	0,1	0,570601
1,297500	0,1	0,526918
1,299167	0,1	0,542306
1,300833	0,1	0,517428
1,302500	0,1	0,511455
1,304167	0,1	0,547075
1,305833	0,1	0,516222
1,307500	0,1	0,492584
1,309167	0,1	0,471453
1,310833	0,1	0,467158
1,312500	0,1	0,481907
1,314167	0,1	0,440634
1,315833	0,1	0,471111
1,317500	0,1	0,451211
1,319167	0,1	0,479351
1,320833	0,1	0,433634
1,322500	0,1	0,452407
1,324167	0,1	0,439155
1,325833	0,1	0,416190
1,327500	0,1	0,446209
1,329167	0,1	0,392024
1,330833	0,1	0,399756
1,332500	0,1	0,387044
1,334167	0,1	0,444213
1,335833	0,1	0,421945
1,337500	0,1	0,389554
1,339167	0,1	0,365816
1,340833	0,1	0,337568
1,342500	0,1	0,346631
1,344167	0,1	0,374295
1,345833	0,1	0,352271
1,347500	0,1	0,346222
1,349167	0,1	0,370112
1,350833	0,1	0,382272
1,352500	0,1	0,368425
1,354167	0,1	0,349330
1,355833	0,1	0,369245
1,357500	0,1	0,306596
1,359167	0,1	0,318569
1,360833	0,1	0,297622
1,362500	0,1	0,349024
1,364167	0,1	0,294459
1,365833	0,1	0,332996
1,367500	0,1	0,338906
1,369167	0,1	0,288557
1,370833	0,1	0,311982
1,372500	0,1	0,309815
1,374167	0,1	0,274929
1,375833	0,1	0,300303
1,377500	0,1	0,279834
1,379167	0,1	0,288831
1,380833	0,1	0,276973
1,382500	0,1	0,290073
1,384167	0,1	0,265318
1,385833	0,1	0,265478
1,387500	0,1	0,269143
1,389167	0,1	0,279659
1,390833	0,1	0,271133
1,392500	0,1	0,276556
1,394167	0,1	0,254344
1,395833	0,1	0,292676
1,397500	0,1	0,239939
1,399167	0,1	0,259987
1,400833	0,1	0,243324
1,402500	0,1	0,272675
1,404167	0,1	0,254492
1,405833	0,1	0,247490
1,407500	0,1	0,244834
1,409167	0,1	0,247154
1,410833	0,1	0,231858
1,412500	0,1	0,253277
1,414167	0,1	0,254442
1,415833	0,1	0,258066
1,417500	0,1	0,253179
1,419167	0,1	0,248044
1,420833	0,1	0,216766
1,422500	0,1	0,220090
1,424167	0,1	0,239263
1,425833	0,1	0,218523
1,427500	0,1	0,220347
1,429167	0,1	0,191446
1,430833	0,1	0,230869
1,432500	0,1	0,197039
1,434167	0,1	0,172711
1,435833	0,1	0,234057
1,437500	0,1	0,182085
1,439167	0,1	0,180194
1,440833	0,1	0,203689
1,442500	0,1	0,206673
1,444167	0,1	0,207238
1,445833	0,1	0,230688
1,447500	0,1	0,196185
1,449167	0,1	0,209115
1,450833	0,1	0,173143
1,452500	0,1	0,207503
1,454167	0,1	0,231453
1,455833	0,1	0,198111
1,457500	0,1	0,190965
1,459167	0,1	0,205583
1,460833	0,1	0,213593
1,462500	0,1	0,194591
1,464167	0,1	0,192521
1,465833	0,1	0,217640
1,467500	0,1	0,206431
1,469167	0,1	0,195581
1,470833	0,1	0,186412
1,472500	0,1	0,218018
1,474167	0,1	0,131670
1,475833	0,1	0,186519
1,477500	0,1	0,176864
1,479167	0,1	0,205260
1,480833	0,1	0,190098
1,482500	0,1	0,182211
1,484167	0,1	0,189573
1,485833	0,1	0,189557
1,487500	0,1	0,174404
1,489167	0,1	0,185174
1,490833	0,1	0,208866
1,492500	0,1	0,188480
1,494167	0,1	0,196237
1,495833	0,1	0,195121
1,497500	0,1	0,186123
1,499167	0,1	0,201458
1,500833	0,1	0,160933
1,502500	0,1	0,193461
1,504167	0,1	0,171121
1,505833	0,1	0,187505
1,507500	0,1	0,183890
1,509167	0,1	0,154224
1,510833	0,1	0,180689
1,512500	0,1	0,188931
1,514167	0,1	0,177507
1,515833	0,1	0,163572
1,517500	0,1	0,116138
1,519167	0,1	0,173485
1,520833	0,1	0,181994
1,522500	0,1	0,166519
1,524167	0,1	0,170030
1,525833	0,1	0,156557
1,527500	0,1	0,176778
1,529167	0,1	0,147454
1,530833	0,1	0,165411
1,532500	0,1	0,205776
1,534167	0,1	0,168619
1,535833	0,1	0,166227
1,537500	0,1	0,170304
1,539167	0,1	0,184560
1,540833	0,1	0,164656
1,542500	0,1	0,152462
1,544167	0,1	0,165062
1,545833	0,1	0,164223
1,547500	0,1	0,183120
1,549167	0,1	0,180880
1,550833	0,1	0,168108
1,552500	0,1	0,149210
1,554167	0,1	0,163426
1,555833	0,1	0,146795
1,557500	0,1	0,137182
1,559167	0,1	0,094442
1,560833	0,1	0,104009
1,562500	0,1	0,151455
1,564167	0,1	0,135550
1,565833	0,1	0,128900
1,567500	0,1	0,115427
1,569167	0,1	0,135006
1,570833	0,1	0,125234
1,572500	0,1	0,118695
1,574167	0,1	0,108415
1,575833	0,1	0,110398
1,577500	0,1	0,159736
1,579167	0,1	0,111707
1,580833	0,1	0,145881
1,582500	0,1	0,146974
1,584167	0,1	0,129622
1,585833	0,1	0,094899
1,587500	0,1	0,135428
1,589167	0,1	0,144834
1,590833	0,1	0,160156
1,592500	0,1	0,136958
1,594167	0,1	0,101851
1,595833	0,1	0,070300
1,597500	0,1	0,145948
1,599167	0,1	0,106344
1,600833	0,1	0,104760
1,602500	0,1	0,140885
1,604167	0,1	0,094962
1,605833	0,1	0,107034
1,607500	0,1	0,104913
1,609167	0,1	0,133523
1,610833	0,1	0,138234
1,612500	0,1	0,135089
1,614167	0,1	0,133758
1,615833	0,1	0,093861
1,617500	0,1	0,145557
1,619167	0,1	0,169199
1,620833	0,1	0,141556
1,622500	0,1	0,151922
1,624167	0,1	0,147906
1,625833	0,1	0,230262
1,627500	0,1	0,177791
1,629167	0,1	0,206590
1,630833	0,1	0,180964
1,632500	0,1	0,213771
1,634167	0,1	0,246628
1,635833	0,1	0,300876
1,637500	0,1	0,302667
1,639167	0,1	0,323870
1,640833	0,1	0,368224
1,642500	0,1	0,402463
1,644167	0,1	0,460079
1,645833	0,1	0,496636
1,647500	0,1	0,509815
1,649167	0,1	0,633127
1,650833	0,1	0,631094
1,652500	0,1	0,703670
1,654167	0,1	0,816927
1,655833	0,1	0,900783
1,657500	0,1	1,007245
1,659167	0,1	1,066546
1,660833	0,1	1,218698
1,662500	0,1	1,339240
1,664167	0,1	1,519541
1,665833	0,1	1,626243
1,667500	0,1	1,781591
1,669167	0,1	1,995342
1,670833	0,1	2,180120
1,672500	0,1	2,401097
1,674167	0,1	2,581475
1,675833	0,1	2,820727
1,677500	0,1	3,083310
1,679167	0,1	3,419286
1,680833	0,1	3,660797
1,682500	0,1	4,002726
1,684167	0,1	4,381813
1,685833	0,1	4,673980
1,687500	0,1	5,016118
1,689167	0,1	5,443122
1,690833	0,1	5,827129
1,692500	0,1	6,260244
1,694167	0,1	6,694020
1,695833	0,1	7,163312
1,697500	0,1	7,650847
1,699167	0,1	8,134917
1,700833	0,1	8,629219
1,702500	0,1	9,149241
1,704167	0,1	9,698267
1,705833	0,1	10,303987
1,707500	0,1	10,823199
1,709167	0,1	11,394767
1,710833	0,1	11,972894
1,712500	0,1	12,594801
1,714167	0,1	13,165808
1,715833	0,1	13,825589
1,717500	0,1	14,442812
1,719167	0,1	15,075235
1,720833	0,1	15,704920
1,722500	0,1	16,315524
1,724167	0,1	16,897964
1,725833	0,1	17,529799
1,727500	0,1	18,150652
1,729167	0,1	18,771899
1,730833	0,1	19,411974
1,732500	0,1	20,025435
1,734167	0,1	20,594236
1,735833	0,1	21,183672
1,737500	0,1	21,728954
1,739167	0,1	22,274160
1,740833	0,1	22,795596
1,742500	0,1	23,326886
1,744167	0,1	23,800326
1,745833	0,1	24,287556
1,747500	0,1	24,734212
1,749167	0,1	25,212972
1,750833	0,1	25,616462
1,752500	0,1	26,015709
1,754167	0,1	26,397667
1,755833	0,1	26,717642
1,757500	0,1	27,064173
1,759167	0,1	27,343282
1,760833	0,1	27,675730
1,762500	0,1	27,796691
1,764167	0,1	28,059423
1,765833	0,1	28,246476
1,767500	0,1	28,405625
1,769167	0,1	28,553732
1,770833	0,1	28,645476
1,772500	0,1	28,677232
1,774167	0,1	28,729696
1,775833	0,1	28,758105
1,777500	0,1	28,752027
1,779167	0,1	28,756491
1,780833	0,1	28,748736
1,782500	0,1	28,654974
1,784167	0,1	28,547923
1,785833	0,1	28,409616
1,787500	0,1	28,246865
1,789167	0,1	28,142439
1,790833	0,1	27,951850
1,792500	0,1	27,766240
1,794167	0,1	27,497031
1,795833	0,1	27,279182
1,797500	0,1	26,971485
1,799167	0,1	26,698413
1,800833	0,1	26,410962
1,802500	0,1	26,113789
1,804167	0,1	25,818188
1,805833	0,1	25,434012
1,807500	0,1	25,114556
1,809167	0,1	24,747884
1,810833	0,1	24,430839
1,812500	0,1	23,994817
1,814167	0,1	23,700657
1,815833	0,1	23,261143
1,817500	0,1	22,894474
1,819167	0,1	22,474203
1,820833	0,1	22,036223
1,822500	0,1	21,671949
1,824167	0,1	21,238276
1,825833	0,1	20,825990
1,827500	0,1	20,397550
1,829167	0,1	19,977100
1,830833	0,1	19,611829
1,832500	0,1	19,163121
1,834167	0,1	18,726288
1,835833	0,1	18,342258
1,837500	0,1	17,924898
1,839167	0,1	17,474782
1,840833	0,1	17,105737
1,842500	0,1	16,665328
1,844167	0,1	16,284058
1,845833	0,1	15,914846
1,847500	0,1	15,519495
1,849167	0,1	15,158469
1,850833	0,1	14,745286
1,852500	0,1	14,385569
1,854167	0,1	14,020727
1,855833	0,1	13,608652
1,857500	0,1	13,282842
1,859167	0,1	12,955438
1,860833	0,1	12,584357
1,862500	0,1	12,278473
1,864167	0,1	11,973080
1,865833	0,1	11,602812
1,867500	0,1	11,310909
1,869167	0,1	10,987083
1,870833	0,1	10,716366
1,872500	0,1	10,391891
1,874167	0,1	10,105362
1,875833	0,1	9,830201
1,877500	0,1	9,569975
1,879167	0,1	9,290258
1,880833	0,1	8,977117
1,882500	0,1	8,770675
1,884167	0,1	8,514723
1,885833	0,1	8,311191
1,887500	0,1	8,036154
1,889167	0,1	7,818558
1,890833	0,1	7,571377
1,892500	0,1	7,395517
1,894167	0,1	7,184910
1,895833	0,1	6,984163
1,897500	0,1	6,776257
1,899167	0,1	6,560917
1,900833	0,1	6,397362
1,902500	0,1	6,201013
1,904167	0,1	6,012364
1,905833	0,1	5,844927
1,907500	0,1	5,687607
1,909167	0,1	5,535234
1,910833	0,1	5,371165
1,912500	0,1	5,236001
1,914167	0,1	5,074634
1,915833	0,1	4,928824
1,917500	0,1	4,829565
1,919167	0,1	4,655815
1,920833	0,1	4,509780
1,922500	0,1	4,362012
1,924167	0,1	4,292664
1,925833	0,1	4,133620
1,927500	0,1	4,018600
1,929167	0,1	3,914112
1,930833	0,1	3,797254
1,932500	0,1	3,691287
1,934167	0,1	3,596265
1,935833	0,1	3,519272
1,937500	0,1	3,413819
1,939167	0,1	3,329600
1,940833	0,1	3,228815
1,942500	0,1	3,152239
1,944167	0,1	3,036959
1,945833	0,1	2,963956
1,947500	0,1	2,886096
1,949167	0,1	2,827110
1,950833	0,1	2,720811
1,952500	0,1	2,673320
1,954167	0,1	2,591576
1,955833	0,1	2,507476
1,957500	0,1	2,456787
1,959167	0,1	2,357017
1,960833	0,1	2,329709
1,962500	0,1	2,262429
1,964167	0,1	2,209058
1,965833	0,1	2,168507
1,967500	0,1	2,095730
1,969167	0,1	2,089208
1,970833	0,1	1,996488
1,972500	0,1	1,946905
1,974167	0,1	1,922274
1,975833	0,1	1,862948
1,977500	0,1	1,851354
1,979167	0,1	1,787743
1,980833	0,1	1,748433
1,982500	0,1	1,710789
1,984167	0,1	1,663203
1,985833	0,1	1,615808
1,987500	0,1	1,563366
1,989167	0,1	1,542978
1,990833	0,1	1,504020
1,992500	0,1	1,492158
1,994167	0,1	1,446176
1,995833	0,1	1,421605
1,997500	0,1	1,395374
1,999167	0,1	1,369942
2,000833	0,1	1,356779
2,002500	0,1	1,328801
2,004167	0,1	1,259876
2,005833	0,1	1,260146
2,007500	0,1	1,279667
2,009167	0,1	1,205522
2,010833	0,1	1,178765
2,012500	0,1	1,169731
2,014167	0,1	1,154098
2,015833	0,1	1,150932
2,017500	0,1	1,110720
2,019167	0,1	1,126683
2,020833	0,1	1,127367
2,022500	0,1	1,052691
2,024167	0,1	1,067935
2,025833	0,1	1,022331
2,027500	0,1	1,040378
2,029167	0,1	1,029301
2,030833	0,1	0,992331
2,032500	0,1	0,961693
2,034167	0,1	0,943333
2,035833	0,1	0,947060
2,037500	0,1	0,915534
2,039167	0,1	0,944510
2,040833	0,1	0,917911
2,042500	0,1	0,944510
2,044167	0,1	0,945034
2,045833	0,1	0,904866
2,047500	0,1	0,912889
2,049167	0,1	0,893191
2,050833	0,1	0,884317
2,052500	0,1	0,863558
2,054167	0,1	0,860823
2,055833	0,1	0,860501
2,057500	0,1	0,855167
2,059167	0,1	0,839872
2,060833	0,1	0,863547
2,062500	0,1	0,772214
2,064167	0,1	0,851997
2,065833	0,1	0,841349
2,067500	0,1	0,850921
2,069167	0,1	0,833219
2,070833	0,1	0,790741
2,072500	0,1	0,797606
2,074167	0,1	0,803167
2,075833	0,1	0,785724
2,077500	0,1	0,789575
2,079167	0,1	0,776789
2,080833	0,1	0,766507
2,082500	0,1	0,808043
2,084167	0,1	0,781131
2,085833	0,1	0,766028
2,087500	0,1	0,760913
2,089167	0,1	0,804733
2,090833	0,1	0,748041
2,092500	0,1	0,800264
2,094167	0,1	0,752633
2,095833	0,1	0,775882
2,097500	0,1	0,772417
2,099167	0,1	0,755133
2,100833	0,1	0,771705
2,102500	0,1	0,727283
2,104167	0,1	0,754479
2,105833	0,1	0,741382
2,107500	0,1	0,751110
2,109167	0,1	0,708648
2,110833	0,1	0,743137
2,112500	0,1	0,739707
2,114167	0,1	0,745264
2,115833	0,1	0,683911
2,117500	0,1	0,695268
2,119167	0,1	0,749783
2,120833	0,1	0,692136
2,122500	0,1	0,699158
2,124167	0,1	0,713484
2,125833	0,1	0,729744
2,127500	0,1	0,715067
2,129167	0,1	0,746963
2,130833	0,1	0,650345
2,132500	0,1	0,722565
2,134167	0,1	0,697529
2,135833	0,1	0,688269
2,137500	0,1	0,696912
2,139167	0,1	0,651047
2,140833	0,1	0,680359
2,142500	0,1	0,679596
2,144167	0,1	0,628337
2,145833	0,1	0,671458
2,147500	0,1	0,668801
2,149167	0,1	0,685345
2,150833	0,1	0,626348
2,152500	0,1	0,662917
2,154167	0,1	0,638483
2,155833	0,1	0,634497
2,157500	0,1	0,632921
2,159167	0,1	0,626662
2,160833	0,1	0,631634
2,162500	0,1	0,613725
2,164167	0,1	0,595629
2,165833	0,1	0,588332
2,167500	0,1	0,654920
2,169167	0,1	0,653643
2,170833	0,1	0,627335
2,172500	0,1	0,603855
2,174167	0,1	0,538282
2,175833	0,1	0,574607
2,177500	0,1	0,589208
2,179167	0,1	0,586316
2,180833	0,1	0,608250
2,182500	0,1	0,614352
2,184167	0,1	0,584333
2,185833	0,1	0,570638
2,187500	0,1	0,584575
2,189167	0,1	0,574819
2,190833	0,1	0,559050
2,192500	0,1	0,569159
2,194167	0,1	0,534875
2,195833	0,1	0,534287
2,197500	0,1	0,571557
2,199167	0,1	0,523177
2,200833	0,1	0,572914
2,202500	0,1	0,535290
2,204167	0,1	0,556058
2,205833	0,1	0,545951
2,207500	0,1	0,536819
2,209167	0,1	0,478096
2,210833	0,1	0,523709
2,212500	0,1	0,498249
2,214167	0,1	0,511513
2,215833	0,1	0,474213
2,217500	0,1	0,494713
2,219167	0,1	0,523236
2,220833	0,1	0,463990
2,222500	0,1	0,526313
2,224167	0,1	0,485445
2,225833	0,1	0,480753
2,227500	0,1	0,474660
2,229167	0,1	0,487071
2,230833	0,1	0,474828
2,232500	0,1	0,447552
2,234167	0,1	0,495160
2,235833	0,1	0,480921
2,237500	0,1	0,461781
2,239167	0,1	0,444276
2,240833	0,1	0,423645
2,242500	0,1	0,419396
2,244167	0,1	0,449193
2,245833	0,1	0,442246
2,247500	0,1	0,403247
2,249167	0,1	0,426016
2,250833	0,1	0,432753
2,252500	0,1	0,415795
2,254167	0,1	0,405395
2,255833	0,1	0,423947
2,257500	0,1	0,435154
2,259167	0,1	0,424885
2,260833	0,1	0,421072
2,262500	0,1	0,387547
2,264167	0,1	0,381614
2,265833	0,1	0,367802
2,267500	0,1	0,415196
2,269167	0,1	0,393385
2,270833	0,1	0,438437
2,272500	0,1	0,381502
2,274167	0,1	0,396046
2,275833	0,1	0,376959
2,277500	0,1	0,343701
2,279167	0,1	0,377650
2,280833	0,1	0,377390
2,282500	0,1	0,346681
2,284167	0,1	0,377671
2,285833	0,1	0,343472
2,287500	0,1	0,326363
2,289167	0,1	0,365471
2,290833	0,1	0,369082
2,292500	0,1	0,391487
2,294167	0,1	0,367578
2,295833	0,1	0,355354
2,297500	0,1	0,329554
2,299167	0,1	0,323107
2,300833	0,1	0,328448
2,302500	0,1	0,318781
2,304167	0,1	0,297846
2,305833	0,1	0,298754
2,307500	0,1	0,308422
2,309167	0,1	0,329356
2,310833	0,1	0,316294
2,312500	0,1	0,332713
2,314167	0,1	0,277996
2,315833	0,1	0,304796
2,317500	0,1	0,288363
2,319167	0,1	0,277676
2,320833	0,1	0,300259
2,322500	0,1	0,275877
2,324167	0,1	0,308314
2,325833	0,1	0,305339
2,327500	0,1	0,259650
2,329167	0,1	0,267359
2,330833	0,1	0,284792
2,332500	0,1	0,270389
2,334167	0,1	0,292477
2,335833	0,1	0,263682
2,337500	0,1	0,247571
2,339167	0,1	0,263136
2,340833	0,1	0,276616
2,342500	0,1	0,268417
2,344167	0,1	0,275043
2,345833	0,1	0,257902
2,347500	0,1	0,241794
2,349167	0,1	0,221898
2,350833	0,1	0,234499
2,352500	0,1	0,245058
2,354167	0,1	0,260050
2,355833	0,1	0,276430
2,357500	0,1	0,205803
2,359167	0,1	0,237746
2,360833	0,1	0,245270
2,362500	0,1	0,223807
2,364167	0,1	0,245742
2,365833	0,1	0,213207
2,367500	0,1	0,232511
2,369167	0,1	0,227547
2,370833	0,1	0,220841
2,372500	0,1	0,221542
2,374167	0,1	0,207822
2,375833	0,1	0,208829
2,377500	0,1	0,226761
2,379167	0,1	0,227300
2,380833	0,1	0,211354
2,382500	0,1	0,236237
2,384167	0,1	0,203104
2,385833	0,1	0,225907
2,387500	0,1	0,187429
2,389167	0,1	0,237269
2,390833	0,1	0,201839
2,392500	0,1	0,224086
2,394167	0,1	0,190286
2,395833	0,1	0,208947
2,397500	0,1	0,186891
2,399167	0,1	0,244265
2,400833	0,1	0,205918
2,402500	0,1	0,219552
2,404167	0,1	0,201236
2,405833	0,1	0,202991
2,407500	0,1	0,222971
2,409167	0,1	0,159258
2,410833	0,1	0,185762
2,412500	0,1	0,192307
2,414167	0,1	0,181296
2,415833	0,1	0,200190
2,417500	0,1	0,192786
2,419167	0,1	0,158242
2,420833	0,1	0,172734
2,422500	0,1	0,159873
2,424167	0,1	0,180127
2,425833	0,1	0,190276
2,427500	0,1	0,190156
2,429167	0,1	0,191482
2,430833	0,1	0,207981
2,432500	0,1	0,207404
2,434167	0,1	0,145676
2,435833	0,1	0,178823
2,437500	0,1	0,189969
2,439167	0,1	0,136184
2,440833	0,1	0,180501
2,442500	0,1	0,160225
2,444167	0,1	0,169538
2,445833	0,1	0,148569
2,447500	0,1	0,109382
2,449167	0,1	0,200279
2,450833	0,1	0,147002
2,452500	0,1	0,185989
2,454167	0,1	0,165482
2,455833	0,1	0,161674
2,457500	0,1	0,157716
2,459167	0,1	0,177298
2,460833	0,1	0,141191
2,462500	0,1	0,158215
2,464167	0,1	0,149879
2,465833	0,1	0,166969
2,467500	0,1	0,146124
2,469167	0,1	0,178228
2,470833	0,1	0,161447
2,472500	0,1	0,128557
2,474167	0,1	0,157235
2,475833	0,1	0,130464
2,477500	0,1	0,170234
2,479167	0,1	0,131705
2,480833	0,1	0,159313
2,482500	0,1	0,128081
2,484167	0,1	0,163543
2,485833	0,1	0,141677
2,487500	0,1	0,121831
2,489167	0,1	0,118100
2,490833	0,1	0,130349
2,492500	0,1	0,140416
2,494167	0,1	0,141030
2,495833	0,1	0,120898
2,497500	0,1	0,081839
2,499167	0,1	0,145446
2,500833	0,1	0,095483
2,502500	0,1	0,105216
2,504167	0,1	0,165203
2,505833	0,1	0,115178
2,507500	0,1	0,124055
2,509167	0,1	0,098564
2,510833	0,1	0,114916
2,512500	0,1	0,114721
2,514167	0,1	0,133386
2,515833	0,1	0,115231
2,517500	0,1	0,140657
2,519167	0,1	0,130660
2,520833	0,1	0,102475
2,522500	0,1	0,119728
2,524167	0,1	0,131524
2,525833	0,1	0,133162
2,527500	0,1	0,150407
2,529167	0,1	0,101610
2,530833	0,1	0,137799
2,532500	0,1	0,168357
2,534167	0,1	0,101506
2,535833	0,1	0,139157
2,537500	0,1	0,103943
2,539167	0,1	0,104454
2,540833	0,1	0,139097
2,542500	0,1	0,124855
2,544167	0,1	0,119794
2,545833	0,1	0,137192
2,547500	0,1	0,118592
2,549167	0,1	0,155719
2,550833	0,1	0,155256
2,552500	0,1	0,099443
2,554167	0,1	0,084217
2,555833	0,1	0,151573
2,557500	0,1	0,146854
2,559167	0,1	0,119572
2,560833	0,1	0,108201
2,562500	0,1	0,127183
2,564167	0,1	0,101605
2,565833	0,1	0,155013
2,567500	0,1	0,100267
2,569167	0,1	0,132636
2,570833	0,1	0,134246
2,572500	0,1	0,130536
2,574167	0,1	0,117521
2,575833	0,1	0,144096
2,577500	0,1	0,118455
2,579167	0,1	0,091169
2,580833	0,1	0,123102
2,582500	0,1	0,136474
2,584167	0,1	0,130306
2,585833	0,1	0,167667
2,587500	0,1	0,143955
2,589167	0,1	0,117341
2,590833	0,1	0,130746
2,592500	0,1	0,110112
2,594167	0,1	0,185566
2,595833	0,1	0,107729
2,597500	0,1	0,158161
2,599167	0,1	0,106744
2,600833	0,1	0,136639
2,602500	0,1	0,139274
2,604167	0,1	0,170358
2,605833	0,1	0,151180
2,607500	0,1	0,116776
2,609167	0,1	0,116309
2,610833	0,1	0,128560
2,612500	0,1	0,156821
2,614167	0,1	0,164880
2,615833	0,1	0,124417
2,617500	0,1	0,134536
2,619167	0,1	0,164539
2,620833	0,1	0,132635
2,622500	0,1	0,135651
2,624167	0,1	0,151294
2,625833	0,1	0,177480
2,627500	0,1	0,142902
2,629167	0,1	0,144011
2,630833	0,1	0,153909
2,632500	0,1	0,167049
2,634167	0,1	0,172369
2,635833	0,1	0,167298
2,637500	0,1	0,146749
2,639167	0,1	0,120685
2,640833	0,1	0,140797
2,642500	0,1	0,153464
2,644167	0,1	0,166422
2,645833	0,1	0,140334
2,647500	0,1	0,107320
2,649167	0,1	0,146904
2,650833	0,1	0,123802
2,652500	0,1	0,148955
2,654167	0,1	0,121786
2,655833	0,1	0,155568
2,657500	0,1	0,163902
2,659167	0,1	0,132529
2,660833	0,1	0,148193
2,662500	0,1	0,128628
2,664167	0,1	0,155311
2,665833	0,1	0,165399
2,667500	0,1	0,183777
2,669167	0,1	0,142493
2,670833	0,1	0,128491
2,672500	0,1	0,120667
2,674167	0,1	0,108294
2,675833	0,1	0,142886
2,677500	0,1	0,158338
2,679167	0,1	0,128739
2,680833	0,1	0,123233
2,682500	0,1	0,102351
2,684167	0,1	0,125457
2,685833	0,1	0,115365
2,687500	0,1	0,155290
2,689167	0,1	0,127439
2,690833	0,1	0,124652
2,692500	0,1	0,132061
2,694167	0,1	0,152393
2,695833	0,1	0,097518
2,697500	0,1	0,091671
2,699167	0,1	0,131273
2,700833	0,1	0,132138
2,702500	0,1	0,125678
2,704167	0,1	0,122422
2,705833	0,1	0,137329
2,707500	0,1	0,105854
2,709167	0,1	0,156833
2,710833	0,1	0,117939
2,712500	0,1	0,113425
2,714167	0,1	0,151318
2,715833	0,1	0,100145
2,717500	0,1	0,124615
2,719167	0,1	0,138232
2,720833	0,1	0,118056
2,722500	0,1	0,120848
2,724167	0,1	0,133204
2,725833	0,1	0,108938
2,727500	0,1	0,096805
2,729167	0,1	0,138575
2,730833	0,1	0,123419
2,732500	0,1	0,115717
2,734167	0,1	0,143926
2,735833	0,1	0,149876
2,737500	0,1	0,130815
2,739167	0,1	0,113900
2,740833	0,1	0,105496
2,742500	0,1	0,120264
2,744167	0,1	0,104917
2,745833	0,1	0,102517
2,747500	0,1	0,139082
2,749167	0,1	0,136128
2,750833	0,1	0,081904
2,752500	0,1	0,127530
2,754167	0,1	0,159662
2,755833	0,1	0,114962
2,757500	0,1	0,145378
2,759167	0,1	0,130766
2,760833	0,1	0,168951
2,762500	0,1	0,135752
2,764167	0,1	0,167485
2,765833	0,1	0,126190
2,767500	0,1	0,123935
2,769167	0,1	0,155248
2,770833	0,1	0,108729
2,772500	0,1	0,140825
2,774167	0,1	0,165395
2,775833	0,1	0,136959
2,777500	0,1	0,176943
2,779167	0,1	0,176416
2,780833	0,1	0,173622
2,782500	0,1	0,153930
2,784167	0,1	0,143019
2,785833	0,1	0,176653
2,787500	0,1	0,186804
2,789167	0,1	0,183353
2,790833	0,1	0,217603
2,792500	0,1	0,166819
2,794167	0,1	0,169723
2,795833	0,1	0,169969
2,797500	0,1	0,170059
2,799167	0,1	0,179806
2,800833	0,1	0,190196
2,802500	0,1	0,205521
2,804167	0,1	0,207158
2,805833	0,1	0,190282
2,807500	0,1	0,201152
2,809167	0,1	0,196679
2,810833	0,1	0,216719
2,812500	0,1	0,212724
2,814167	0,1	0,176442
2,815833	0,1	0,167159
2,817500	0,1	0,188938
2,819167	0,1	0,189434
2,820833	0,1	0,208533
2,822500	0,1	0,229723
2,824167	0,1	0,198506
2,825833	0,1	0,171962
2,827500	0,1	0,224140
2,829167	0,1	0,180890
2,830833	0,1	0,205949
2,832500	0,1	0,183224
2,834167	0,1	0,228388
2,835833	0,1	0,210283
2,837500	0,1	0,217883
2,839167	0,1	0,207364
2,840833	0,1	0,199705
2,842500	0,1	0,218663
2,844167	0,1	0,176610
2,845833	0,1	0,195681
2,847500	0,1	0,184901
2,849167	0,1	0,188045
2,850833	0,1	0,199912
2,852500	0,1	0,185879
2,854167	0,1	0,189145
2,855833	0,1	0,220233
2,857500	0,1	0,226518
2,859167	0,1	0,192301
2,860833	0,1	0,208534
2,862500	0,1	0,212583
2,864167	0,1	0,186707
2,865833	0,1	0,225331
2,867500	0,1	0,176841
2,869167	0,1	0,161371
2,870833	0,1	0,175849
2,872500	0,1	0,204004
2,874167	0,1	0,151357
2,875833	0,1	0,176488
2,877500	0,1	0,166229
2,879167	0,1	0,146413
2,880833	0,1	0,170144
2,882500	0,1	0,171328
2,884167	0,1	0,170885
2,885833	0,1	0,190759
2,887500	0,1	0,134321
2,889167	0,1	0,173962
2,890833	0,1	0,149347
2,892500	0,1	0,155543
2,894167	0,1	0,162754
2,895833	0,1	0,131093
2,897500	0,1	0,130413
2,899167	0,1	0,110632
2,900833	0,1	0,148646
2,902500	0,1	0,151388
2,904167	0,1	0,135184
2,905833	0,1	0,142053
2,907500	0,1	0,159971
2,909167	0,1	0,157103
2,910833	0,1	0,140239
2,912500	0,1	0,135120
2,914167	0,1	0,080714
2,915833	0,1	0,121708
2,917500	0,1	0,155505
2,919167	0,1	0,105095
2,920833	0,1	0,102671
2,922500	0,1	0,127749
2,924167	0,1	0,136750
2,925833	0,1	0,114408
2,927500	0,1	0,093477
2,929167	0,1	0,041239
2,930833	0,1	0,135446
2,932500	0,1	0,116743
2,934167	0,1	0,105070
2,935833	0,1	0,110045
2,937500	0,1	0,137632
2,939167	0,1	0,096264
2,940833	0,1	0,097995
2,942500	0,1	0,118536
2,944167	0,1	0,076907
2,945833	0,1	0,075399
2,947500	0,1	0,095803
2,949167	0,1	0,123623
2,950833	0,1	0,060428
2,952500	0,1	0,074586
2,954167	0,1	0,125007
2,955833	0,1	0,093006
2,957500	0,1	0,080793
2,959167	0,1	0,065489
2,960833	0,1	0,063655
2,962500	0,1	0,079934
2,964167	0,1	0,047176
2,965833	0,1	0,079821
2,967500	0,1	0,104631
2,969167	0,1	0,075649
2,970833	0,1	0,076925
2,972500	0,1	0,089389
2,974167	0,1	0,102282
2,975833	0,1	0,063616
2,977500	0,1	0,102918
2,979167	0,1	0,073313
2,980833	0,1	0,081171
2,982500	0,1	0,083373
2,984167	0,1	0,058385
2,985833	0,1	0,084314
2,987500	0,1	0,095408
2,989167	0,1	0,093303
2,990833	0,1	0,092324
2,992500	0,1	0,109737
2,994167	0,1	0,077318
2,995833	0,1	0,145017
2,997500	0,1	0,098325
2,999167	0,1	0,125532
3,000833	0,1	0,148113
3,002500	0,1	0,128293
3,004167	0,1	0,123156
3,005833	0,1	0,140645
3,007500	0,1	0,135287
3,009167	0,1	0,097973
3,010833	0,1	0,120813
3,012500	0,1	0,109057
3,014167	0,1	0,142230
3,015833	0,1	0,110223
3,017500	0,1	0,107528
3,019167	0,1	0,144627
3,020833	0,1	0,116456
3,022500	0,1	0,181887
3,024167	0,1	0,149165
3,025833	0,1	0,147783
3,027500	0,1	0,138496
3,029167	0,1	0,174193
3,030833	0,1	0,166943
3,032500	0,1	0,174366
3,034167	0,1	0,155199
3,035833	0,1	0,183774
3,037500	0,1	0,144112
3,039167	0,1	0,172331
3,040833	0,1	0,197483
3,042500	0,1	0,158780
3,044167	0,1	0,148261
3,045833	0,1	0,158048
3,047500	0,1	0,166146
3,049167	0,1	0,170901
3,050833	0,1	0,184816
3,052500	0,1	0,168690
3,054167	0,1	0,168196
3,055833	0,1	0,136760
3,057500	0,1	0,143703
3,059167	0,1	0,197353
3,060833	0,1	0,171594
3,062500	0,1	0,214622
3,064167	0,1	0,158142
3,065833	0,1	0,191564
3,067500	0,1	0,173809
3,069167	0,1	0,180924
3,070833	0,1	0,148083
3,072500	0,1	0,159576
3,074167	0,1	0,145267
3,075833	0,1	0,144683
3,077500	0,1	0,168085
3,079167	0,1	0,197341
3,080833	0,1	0,188611
3,082500	0,1	0,209325
3,084167	0,1	0,212995
3,085833	0,1	0,166984
3,087500	0,1	0,164468
3,089167	0,1	0,184464
3,090833	0,1	0,162731
3,092500	0,1	0,174231
3,094167	0,1	0,188148
3,095833	0,1	0,149015
3,097500	0,1	0,165826
3,099167	0,1	0,151423
3,100833	0,1	0,163945
3,102500	0,1	0,148781
3,104167	0,1	0,139168
3,105833	0,1	0,183633
3,107500	0,1	0,154971
3,109167	0,1	0,161135
3,110833	0,1	0,139721
3,112500	0,1	0,166617
3,114167	0,1	0,147543
3,115833	0,1	0,166511
3,117500	0,1	0,146901
3,119167	0,1	0,143889
3,120833	0,1	0,137029
3,122500	0,1	0,128076
3,124167	0,1	0,133101
3,125833	0,1	0,150576
3,127500	0,1	0,184980
3,129167	0,1	0,119000
3,130833	0,1	0,139086
3,132500	0,1	0,105213
3,134167	0,1	0,162223
3,135833	0,1	0,153896
3,137500	0,1	0,089760
3,139167	0,1	0,140529
3,140833	0,1	0,101807
3,142500	0,1	0,130787
3,144167	0,1	0,129344
3,145833	0,1	0,112786
3,147500	0,1	0,106503
3,149167	0,1	0,112139
3,150833	0,1	0,087184
3,152500	0,1	0,119650
3,154167	0,1	0,099191
3,155833	0,1	0,105174
3,157500	0,1	0,074062
3,159167	0,1	0,113460
3,160833	0,1	0,073638
3,162500	0,1	0,110451
3,164167	0,1	0,081471
3,165833	0,1	0,094537
3,167500	0,1	0,067234
3,169167	0,1	0,075059
3,170833	0,1	0,130383
3,172500	0,1	0,111657
3,174167	0,1	0,123382
3,175833	0,1	0,083810
3,177500	0,1	0,078534
3,179167	0,1	0,096904
3,180833	0,1	0,124754
3,182500	0,1	0,073595
3,184167	0,1	0,100097
3,185833	0,1	0,055265
3,187500	0,1	0,077703
3,189167	0,1	0,064239
3,190833	0,1	0,047039
3,192500	0,1	0,071010
3,194167	0,1	0,084317
3,195833	0,1	0,073187
3,197500	0,1	0,084654
3,199167	0,1	0,062161
3,200833	0,1	0,086454
3,202500	0,1	0,069859
3,204167	0,1	0,068268
3,205833	0,1	0,049375
3,207500	0,1	0,064305
3,209167	0,1	0,059469
3,210833	0,1	0,075503
3,212500	0,1	0,045482
3,214167	0,1	0,083884
3,215833	0,1	0,074974
3,217500	0,1	0,069032
3,219167	0,1	0,093499
3,220833	0,1	0,034158
3,222500	0,1	0,045059
3,224167	0,1	0,021804
3,225833	0,1	0,054206
3,227500	0,1	0,029549
3,229167	0,1	0,056652
3,230833	0,1	0,064538
3,232500	0,1	0,042610
3,234167	0,1	0,062272
3,235833	0,1	0,056261
3,237500	0,1	0,025413
3,239167	0,1	0,039987
3,240833	0,1	0,052454
3,242500	0,1	0,088209
3,244167	0,1	0,014407
3,245833	0,1	0,023201
3,247500	0,1	0,044476
3,249167	0,1	0,025421
3,250833	0,1	0,036309
3,252500	0,1	0,019696
3,254167	0,1	0,044171
3,255833	0,1	0,037293
3,257500	0,1	0,038308
3,259167	0,1	-0,037780
3,260833	0,1	0,044909
3,262500	0,1	0,018754
3,264167	0,1	0,076579
3,265833	0,1	0,005305
3,267500	0,1	0,062127
3,269167	0,1	0,068616
3,270833	0,1	0,052946
3,272500	0,1	0,062139
3,274167	0,1	0,051480
3,275833	0,1	0,043491
3,277500	0,1	-0,000657
3,279167	0,1	0,020147
3,280833	0,1	0,023648
3,282500	0,1	0,031163
3,284167	0,1	0,019222
3,285833	0,1	0,022087
3,287500	0,1	0,016836
3,289167	0,1	0,038000
3,290833	0,1	0,047383
3,292500	0,1	-0,014812
3,294167	0,1	0,014044
3,295833	0,1	0,008849
3,297500	0,1	0,016543
3,299167	0,1	0,023600
3,300833	0,1	-0,014408
3,302500	0,1	0,038391
3,304167	0,1	-0,007652
3,305833	0,1	0,028968
3,307500	0,1	0,007388
3,309167	0,1	0,013917
3,310833	0,1	0,002738
3,312500	0,1	0,022834
3,314167	0,1	0,014466
3,315833	0,1	0,047912
3,317500	0,1	0,029609
3,319167	0,1	0,012579
3,320833	0,1	0,066984
3,322500	0,1	0,011377
3,324167	0,1	0,035083
3,325833	0,1	0,039287
3,327500	0,1	0,040524
3,329167	0,1	-0,010905
3,330833	0,1	0,039385
3,332500	0,1	-0,005087
3,334167	0,1	0,061085
3,335833	0,1	0,024324
3,337500	0,1	0,022380
3,339167	0,1	0,057197
3,340833	0,1	-0,009861
3,342500	0,1	-0,016871
3,344167	0,1	0,039965
3,345833	0,1	-0,015056
3,347500	0,1	0,034083
3,349167	0,1	0,025407
3,350833	0,1	-0,006711
3,352500	0,1	0,046840
3,354167	0,1	0,059875
3,355833	0,1	0,051069
3,357500	0,1	0,022554
3,359167	0,1	0,010315
3,360833	0,1	0,038108
3,362500	0,1	0,063998
3,364167	0,1	-0,019589
3,365833	0,1	0,052743
3,367500	0,1	0,010127
3,369167	0,1	0,044412
3,370833	0,1	0,031338
3,372500	0,1	0,015049
3,374167	0,1	0,019449
3,375833	0,1	0,056540
3,377500	0,1	0,030893
3,379167	0,1	0,050299
3,380833	0,1	0,006061
3,382500	0,1	0,042441
3,384167	0,1	0,040222
3,385833	0,1	0,046526
3,387500	0,1	0,007342
3,389167	0,1	0,019411
3,390833	0,1	0,046751
3,392500	0,1	0,029790
3,394167	0,1	0,040340
3,395833	0,1	0,031484
3,397500	0,1	0,044527
3,399167	0,1	0,002913
3,400833	0,1	0,052000
3,402500	0,1	0,030095
3,404167	0,1	0,059446
3,405833	0,1	0,065989
3,407500	0,1	0,062446
3,409167	0,1	0,067409
3,410833	0,1	0,042793
3,412500	0,1	0,071055
3,414167	0,1	0,061152
3,415833	0,1	0,053392
3,417500	0,1	0,062457
3,419167	0,1	0,033642
3,420833	0,1	0,042216
3,422500	0,1	0,046878
3,424167	0,1	0,056318
3,425833	0,1	0,051831
3,427500	0,1	0,025715
3,429167	0,1	0,027814
3,430833	0,1	0,065570
3,432500	0,1	0,062783
3,434167	0,1	0,037236
3,435833	0,1	0,033515
3,437500	0,1	0,042338
3,439167	0,1	0,069252
3,440833	0,1	0,031188
3,442500	0,1	0,018605
3,444167	0,1	0,040979
3,445833	0,1	0,051873
3,447500	0,1	0,086224
3,449167	0,1	0,075738
3,450833	0,1	0,094507
3,452500	0,1	0,058422
3,454167	0,1	0,077643
3,455833	0,1	0,017152
3,457500	0,1	0,072806
3,459167	0,1	0,033064
3,460833	0,1	0,033514
3,462500	0,1	0,071770
3,464167	0,1	0,077720
3,465833	0,1	0,073751
3,467500	0,1	0,033064
3,469167	0,1	0,028842
3,470833	0,1	0,060284
3,472500	0,1	0,037201
3,474167	0,1	0,040327
3,475833	0,1	0,068443
3,477500	0,1	0,041025
3,479167	0,1	0,074155
3,480833	0,1	0,088917
3,482500	0,1	0,076976
3,484167	0,1	0,080989
3,485833	0,1	0,074226
3,487500	0,1	0,055927
3,489167	0,1	0,041979
3,490833	0,1	0,041395
3,492500	0,1	0,063373
3,494167	0,1	0,051636
3,495833	0,1	0,072644
3,497500	0,1	0,056845
3,499167	0,1	0,046457
3,500833	0,1	0,072509
3,502500	0,1	0,064432
3,504167	0,1	0,053878
3,505833	0,1	0,050946
3,507500	0,1	0,043613
3,509167	0,1	0,027345
3,510833	0,1	0,054618
3,512500	0,1	0,066966
3,514167	0,1	0,056430
3,515833	0,1	0,068614
3,517500	0,1	0,038896
3,519167	0,1	0,066929
3,520833	0,1	0,087632
3,522500	0,1	0,051270
3,524167	0,1	0,089902
3,525833	0,1	0,022517
3,527500	0,1	0,019861
3,529167	0,1	0,046171
3,530833	0,1	0,059066
3,532500	0,1	0,104279
3,534167	0,1	0,045428
3,535833	0,1	0,060024
3,537500	0,1	0,038085
3,539167	0,1	0,087792
3,540833	0,1	0,043318
3,542500	0,1	0,041721
3,544167	0,1	0,077058
3,545833	0,1	0,017672
3,547500	0,1	0,092049
3,549167	0,1	0,068273
3,550833	0,1	0,079476
3,552500	0,1	0,038185
3,554167	0,1	0,064013
3,555833	0,1	0,035096
3,557500	0,1	0,042170
3,559167	0,1	0,036662
3,560833	0,1	0,041818
3,562500	0,1	0,100042
3,564167	0,1	0,077559
3,565833	0,1	0,026712
3,567500	0,1	0,063065
3,569167	0,1	0,062749
3,570833	0,1	0,060326
3,572500	0,1	0,035398
3,574167	0,1	0,059462
3,575833	0,1	0,075902
3,577500	0,1	0,010556
3,579167	0,1	0,079280
3,580833	0,1	0,037665
3,582500	0,1	0,103357
3,584167	0,1	0,053064
3,585833	0,1	0,056973
3,587500	0,1	0,092624
3,589167	0,1	0,054804
3,590833	0,1	0,095022
3,592500	0,1	0,092466
3,594167	0,1	0,093626
3,595833	0,1	0,069678
3,597500	0,1	0,011959
3,599167	0,1	0,076057
3,600833	0,1	0,070145
3,602500	0,1	0,057133
3,604167	0,1	0,052533
3,605833	0,1	0,058366
3,607500	0,1	0,046807
3,609167	0,1	0,042390
3,610833	0,1	0,042328
3,612500	0,1	0,010331
3,614167	0,1	0,052932
3,615833	0,1	0,089322
3,617500	0,1	0,063309
3,619167	0,1	0,061101
3,620833	0,1	0,055969
3,622500	0,1	0,099128
3,624167	0,1	0,056452
3,625833	0,1	0,041906
3,627500	0,1	0,053338
3,629167	0,1	0,061667
3,630833	0,1	0,077717
3,632500	0,1	0,048048
3,634167	0,1	0,072920
3,635833	0,1	0,033720
3,637500	0,1	0,053750
3,639167	0,1	0,026125
3,640833	0,1	0,035849
3,642500	0,1	0,041029
3,644167	0,1	0,057539
3,645833	0,1	0,054409
3,647500	0,1	0,063084
3,649167	0,1	0,057131
3,650833	0,1	0,063775
3,652500	0,1	0,041267
3,654167	0,1	0,052238
3,655833	0,1	0,029502
3,657500	0,1	0,049319
3,659167	0,1	0,020523
3,660833	0,1	0,065657
3,662500	0,1	0,039126
3,664167	0,1	0,056329
3,665833	0,1	0,089493
3,667500	0,1	0,046005
3,669167	0,1	0,062854
3,670833	0,1	0,021410
3,672500	0,1	0,034626
3,674167	0,1	0,074443
3,675833	0,1	0,052367
3,677500	0,1	0,043734
3,679167	0,1	0,081975
3,680833	0,1	0,080884
3,682500	0,1	0,050046
3,684167	0,1	0,089491
3,685833	0,1	0,023725
3,687500	0,1	0,060620
3,689167	0,1	0,052580
3,690833	0,1	0,046300
3,692500	0,1	0,043854
3,694167	0,1	0,092056
3,695833	0,1	0,052542
3,697500	0,1	0,067635
3,699167	0,1	0,113871
3,700833	0,1	0,066488
3,702500	0,1	0,104769
3,704167	0,1	0,058074
3,705833	0,1	0,100061
3,707500	0,1	0,091319
3,709167	0,1	0,120337
3,710833	0,1	0,113532
3,712500	0,1	0,087245
3,714167	0,1	0,122857
3,715833	0,1	0,069287
3,717500	0,1	0,092001
3,719167	0,1	0,097610
3,720833	0,1	0,117820
3,722500	0,1	0,105650
3,724167	0,1	0,140716
3,725833	0,1	0,148837
3,727500	0,1	0,111431
3,729167	0,1	0,142764
3,730833	0,1	0,103626
3,732500	0,1	0,156448
3,734167	0,1	0,128494
3,735833	0,1	0,170846
3,737500	0,1	0,152845
3,739167	0,1	0,174531
3,740833	0,1	0,148553
3,742500	0,1	0,161303
3,744167	0,1	0,158357
3,745833	0,1	0,185728
3,747500	0,1	0,157952
3,749167	0,1	0,198410
3,750833	0,1	0,181113
3,752500	0,1	0,204358
3,754167	0,1	0,131025
3,755833	0,1	0,207447
3,757500	0,1	0,217443
3,759167	0,1	0,210387
3,760833	0,1	0,205498
3,762500	0,1	0,240524
3,764167	0,1	0,242457
3,765833	0,1	0,222769
3,767500	0,1	0,268096
3,769167	0,1	0,260512
3,770833	0,1	0,276825
3,772500	0,1	0,280907
3,774167	0,1	0,341566
3,775833	0,1	0,272168
3,777500	0,1	0,313241
3,779167	0,1	0,314928
3,780833	0,1	0,253983
3,782500	0,1	0,331374
3,784167	0,1	0,340667
3,785833	0,1	0,313402
3,787500	0,1	0,337763
3,789167	0,1	0,333524
3,790833	0,1	0,339675
3,792500	0,1	0,332387
3,794167	0,1	0,298971
3,795833	0,1	0,366624
3,797500	0,1	0,346929
3,799167	0,1	0,404775
3,800833	0,1	0,355406
3,802500	0,1	0,353593
3,804167	0,1	0,394775
3,805833	0,1	0,372030
3,807500	0,1	0,388010
3,809167	0,1	0,361303
3,810833	0,1	0,400122
3,812500	0,1	0,356109
3,814167	0,1	0,380965
3,815833	0,1	0,386064
3,817500	0,1	0,409360
3,819167	0,1	0,405101
3,820833	0,1	0,410753
3,822500	0,1	0,402970
3,824167	0,1	0,396486
3,825833	0,1	0,416260
3,827500	0,1	0,391829
3,829167	0,1	0,406568
3,830833	0,1	0,383109
3,832500	0,1	0,360121
3,834167	0,1	0,411882
3,835833	0,1	0,441669
3,837500	0,1	0,440954
3,839167	0,1	0,376699
3,840833	0,1	0,402172
3,842500	0,1	0,390129
3,844167	0,1	0,400499
3,845833	0,1	0,442148
3,847500	0,1	0,422462
3,849167	0,1	0,374438
3,850833	0,1	0,395547
3,852500	0,1	0,424644
3,854167	0,1	0,418606
3,855833	0,1	0,374335
3,857500	0,1	0,414680
3,859167	0,1	0,433056
3,860833	0,1	0,383633
3,862500	0,1	0,421393
3,864167	0,1	0,368909
3,865833	0,1	0,380926
3,867500	0,1	0,400208
3,869167	0,1	0,377933
3,870833	0,1	0,381779
3,872500	0,1	0,375423
3,874167	0,1	0,375917
3,875833	0,1	0,354280
3,877500	0,1	0,395397
3,879167	0,1	0,374225
3,880833	0,1	0,386311
3,882500	0,1	0,372379
3,884167	0,1	0,324879
3,885833	0,1	0,371641
3,887500	0,1	0,389873
3,889167	0,1	0,351303
3,890833	0,1	0,382909
3,892500	0,1	0,367286
3,894167	0,1	0,341546
3,895833	0,1	0,343423
3,897500	0,1	0,332741
3,899167	0,1	0,353857
3,900833	0,1	0,320444
3,902500	0,1	0,345386
3,904167	0,1	0,352430
3,905833	0,1	0,338746
3,907500	0,1	0,291436
3,909167	0,1	0,272649
3,910833	0,1	0,324443
3,912500	0,1	0,296776
3,914167	0,1	0,330495
3,915833	0,1	0,291496
3,917500	0,1	0,277289
3,919167	0,1	0,256065
3,920833	0,1	0,301087
3,922500	0,1	0,259341
3,924167	0,1	0,275954
3,925833	0,1	0,247722
3,927500	0,1	0,247654
3,929167	0,1	0,261421
3,930833	0,1	0,299681
3,932500	0,1	0,281018
3,934167	0,1	0,270290
3,935833	0,1	0,249831
3,937500	0,1	0,287214
3,939167	0,1	0,252816
3,940833	0,1	0,290633
3,942500	0,1	0,205211
3,944167	0,1	0,272029
3,945833	0,1	0,255405
3,947500	0,1	0,244175
3,949167	0,1	0,238566
3,950833	0,1	0,277795
3,952500	0,1	0,220465
3,954167	0,1	0,194041
3,955833	0,1	0,231706
3,957500	0,1	0,214803
3,959167	0,1	0,208523
3,960833	0,1	0,209480
3,962500	0,1	0,182320
3,964167	0,1	0,230770
3,965833	0,1	0,200152
3,967500	0,1	0,180685
3,969167	0,1	0,224292
3,970833	0,1	0,222819
3,972500	0,1	0,194057
3,974167	0,1	0,169943
3,975833	0,1	0,154723
3,977500	0,1	0,165259
3,979167	0,1	0,203160
3,980833	0,1	0,174039
3,982500	0,1	0,178112
3,984167	0,1	0,176019
3,985833	0,1	0,173989
3,987500	0,1	0,169113
3,989167	0,1	0,194133
3,990833	0,1	0,161314
3,992500	0,1	0,187777
3,994167	0,1	0,176725
3,995833	0,1	0,207179
3,997500	0,1	0,187391
3,999167	0,1	0,203199
4,000833	0,1	0,206807
4,002500	0,1	0,194679
4,004167	0,1	0,202956
4,005833	0,1	0,204011
4,007500	0,1	0,206009
4,009167	0,1	0,182777
4,010833	0,1	0,173713
4,012500	0,1	0,186637
4,014167	0,1	0,166978
4,015833	0,1	0,198976
4,017500	0,1	0,169028
4,019167	0,1	0,209304
4,020833	0,1	0,146501
4,022500	0,1	0,148013
4,024167	0,1	0,191853
4,025833	0,1	0,214670
4,027500	0,1	0,173491
4,029167	0,1	0,212987
4,030833	0,1	0,220300
4,032500	0,1	0,180917
4,034167	0,1	0,199621
4,035833	0,1	0,195564
4,037500	0,1	0,197286
4,039167	0,1	0,178133
4,040833	0,1	0,198933
4,042500	0,1	0,211191
4,044167	0,1	0,198837
4,045833	0,1	0,234106
4,047500	0,1	0,205409
4,049167	0,1	0,204530
4,050833	0,1	0,252592
4,052500	0,1	0,293594
4,054167	0,1	0,243296
4,055833	0,1	0,236041
4,057500	0,1	0,296775
4,059167	0,1	0,257064
4,060833	0,1	0,280095
4,062500	0,1	0,337507
4,064167	0,1	0,330381
4,065833	0,1	0,352613
4,067500	0,1	0,327423
4,069167	0,1	0,361641
4,070833	0,1	0,375376
4,072500	0,1	0,339580
4,074167	0,1	0,366529
4,075833	0,1	0,386702
4,077500	0,1	0,380475
4,079167	0,1	0,420727
4,080833	0,1	0,413469
4,082500	0,1	0,412059
4,084167	0,1	0,428853
4,085833	0,1	0,422812
4,087500	0,1	0,438173
4,089167	0,1	0,475395
4,090833	0,1	0,467675
4,092500	0,1	0,509243
4,094167	0,1	0,499434
4,095833	0,1	0,521513
4,097500	0,1	0,546825
4,099167	0,1	0,576847
4,100833	0,1	0,580719
4,102500	0,1	0,571265
4,104167	0,1	0,600262
4,105833	0,1	0,602133
4,107500	0,1	0,671657
4,109167	0,1	0,663092
4,110833	0,1	0,652974
4,112500	0,1	0,667491
4,114167	0,1	0,677674
4,115833	0,1	0,705876
4,117500	0,1	0,707652
4,119167	0,1	0,789465
4,120833	0,1	0,753317
4,122500	0,1	0,773862
4,124167	0,1	0,756325
4,125833	0,1	0,812348
4,127500	0,1	0,776734
4,129167	0,1	0,833009
4,130833	0,1	0,873955
4,132500	0,1	0,857033
4,134167	0,1	0,897257
4,135833	0,1	0,892669
4,137500	0,1	0,879432
4,139167	0,1	0,915542
4,140833	0,1	0,942097
4,142500	0,1	0,937411
4,144167	0,1	0,974429
4,145833	0,1	0,977203
4,147500	0,1	0,976431
4,149167	0,1	1,001471
4,150833	0,1	1,005622
4,152500	0,1	1,015330
4,154167	0,1	1,054220
4,155833	0,1	1,055450
4,157500	0,1	1,075680
4,159167	0,1	1,044109
4,160833	0,1	1,049570
4,162500	0,1	1,151471
4,164167	0,1	1,093705
4,165833	0,1	1,113060
4,167500	0,1	1,135580
4,169167	0,1	1,177856
4,170833	0,1	1,128969
4,172500	0,1	1,135715
4,174167	0,1	1,169586
4,175833	0,1	1,166040
4,177500	0,1	1,170513
4,179167	0,1	1,196892
4,180833	0,1	1,204170
4,182500	0,1	1,199868
4,184167	0,1	1,185982
4,185833	0,1	1,217540
4,187500	0,1	1,221380
4,189167	0,1	1,212865
4,190833	0,1	1,254642
4,192500	0,1	1,241682
4,194167	0,1	1,242833
4,195833	0,1	1,246601
4,197500	0,1	1,185060
4,199167	0,1	1,286111
4,200833	0,1	1,251667
4,202500	0,1	1,228347
4,204167	0,1	1,244272
4,205833	0,1	1,260644
4,207500	0,1	1,246737
4,209167	0,1	1,205259
4,210833	0,1	1,291350
4,212500	0,1	1,245722
4,214167	0,1	1,236601
4,215833	0,1	1,235880
4,217500	0,1	1,292555
4,219167	0,1	1,252237
4,220833	0,1	1,226312
4,222500	0,1	1,287918
4,224167	0,1	1,250867
4,225833	0,1	1,271333
4,227500	0,1	1,256717
4,229167	0,1	1,266410
4,230833	0,1	1,268985
4,232500	0,1	1,242320
4,234167	0,1	1,226508
4,235833	0,1	1,243028
4,237500	0,1	1,254789
4,239167	0,1	1,255303
4,240833	0,1	1,223361
4,242500	0,1	1,266137
4,244167	0,1	1,242104
4,245833	0,1	1,288455
4,247500	0,1	1,251427
4,249167	0,1	1,223829
4,250833	0,1	1,187693
4,252500	0,1	1,247322
4,254167	0,1	1,182764
4,255833	0,1	1,174849
4,257500	0,1	1,186907
4,259167	0,1	1,163694
4,260833	0,1	1,209950
4,262500	0,1	1,164093
4,264167	0,1	1,166458
4,265833	0,1	1,154424
4,267500	0,1	1,154777
4,269167	0,1	1,144305
4,270833	0,1	1,153461
4,272500	0,1	1,163371
4,274167	0,1	1,155578
4,275833	0,1	1,137376
4,277500	0,1	1,118737
4,279167	0,1	1,116869
4,280833	0,1	1,106898
4,282500	0,1	1,107065
4,284167	0,1	1,127220
4,285833	0,1	1,108567
4,287500	0,1	1,062535
4,289167	0,1	1,084160
4,290833	0,1	1,058541
4,292500	0,1	1,090000
4,294167	0,1	1,065653
4,295833	0,1	1,072680
4,297500	0,1	1,038518
4,299167	0,1	1,057153
4,300833	0,1	1,052462
4,302500	0,1	1,028358
4,304167	0,1	1,050014
4,305833	0,1	0,988503
4,307500	0,1	1,011982
4,309167	0,1	1,014299
4,310833	0,1	0,983705
4,312500	0,1	0,968308
4,314167	0,1	0,991250
4,315833	0,1	0,992794
4,317500	0,1	1,024804
4,319167	0,1	1,008872
4,320833	0,1	0,973840
4,322500	0,1	0,980707
4,324167	0,1	0,973926
4,325833	0,1	0,973124
4,327500	0,1	0,948057
4,329167	0,1	0,959006
4,330833	0,1	0,911194
4,332500	0,1	0,930269
4,334167	0,1	0,931882
4,335833	0,1	0,956786
4,337500	0,1	0,937123
4,339167	0,1	0,935772
4,340833	0,1	0,907588
4,342500	0,1	0,910539
4,344167	0,1	0,876770
4,345833	0,1	0,886754
4,347500	0,1	0,919916
4,349167	0,1	0,891389
4,350833	0,1	0,892317
4,352500	0,1	0,877215
4,354167	0,1	0,868953
4,355833	0,1	0,832165
4,357500	0,1	0,842180
4,359167	0,1	0,885428
4,360833	0,1	0,843221
4,362500	0,1	0,820015
4,364167	0,1	0,857920
4,365833	0,1	0,855166
4,367500	0,1	0,823872
4,369167	0,1	0,829070
4,370833	0,1	0,828365
4,372500	0,1	0,852974
4,374167	0,1	0,816258
4,375833	0,1	0,801472
4,377500	0,1	0,787653
4,379167	0,1	0,797480
4,380833	0,1	0,821739
4,382500	0,1	0,833727
4,384167	0,1	0,810952
4,385833	0,1	0,745318
4,387500	0,1	0,752013
4,389167	0,1	0,763519
4,390833	0,1	0,739848
4,392500	0,1	0,738813
4,394167	0,1	0,747487
4,395833	0,1	0,751153
4,397500	0,1	0,690638
4,399167	0,1	0,739607
4,400833	0,1	0,706439
4,402500	0,1	0,734377
4,404167	0,1	0,703708
4,405833	0,1	0,688763
4,407500	0,1	0,742048
4,409167	0,1	0,715399
4,410833	0,1	0,707042
4,412500	0,1	0,679129
4,414167	0,1	0,693641
4,415833	0,1	0,700075
4,417500	0,1	0,669593
4,419167	0,1	0,668039
4,420833	0,1	0,690039
4,422500	0,1	0,668115
4,424167	0,1	0,622836
4,425833	0,1	0,652875
4,427500	0,1	0,644786
4,429167	0,1	0,649822
4,430833	0,1	0,600671
4,432500	0,1	0,637844
4,434167	0,1	0,645975
4,435833	0,1	0,644531
4,437500	0,1	0,608727
4,439167	0,1	0,614425
4,440833	0,1	0,603220
4,442500	0,1	0,595220
4,444167	0,1	0,621661
4,445833	0,1	0,593284
4,447500	0,1	0,580522
4,449167	0,1	0,597317
4,450833	0,1	0,563614
4,452500	0,1	0,581421
4,454167	0,1	0,541740
4,455833	0,1	0,557683
4,457500	0,1	0,540953
4,459167	0,1	0,547862
4,460833	0,1	0,510170
4,462500	0,1	0,512501
4,464167	0,1	0,494298
4,465833	0,1	0,528814
4,467500	0,1	0,493823
4,469167	0,1	0,541530
4,470833	0,1	0,455164
4,472500	0,1	0,477075
4,474167	0,1	0,480203
4,475833	0,1	0,462682
4,477500	0,1	0,466326
4,479167	0,1	0,460345
4,480833	0,1	0,453940
4,482500	0,1	0,479972
4,484167	0,1	0,446036
4,485833	0,1	0,459301
4,487500	0,1	0,410828
4,489167	0,1	0,452644
4,490833	0,1	0,421802
4,492500	0,1	0,453125
4,494167	0,1	0,432857
4,495833	0,1	0,432250
4,497500	0,1	0,407301
4,499167	0,1	0,422763
4,500833	0,1	0,401646
4,502500	0,1	0,403917
4,504167	0,1	0,428329
4,505833	0,1	0,411980
4,507500	0,1	0,353274
4,509167	0,1	0,424177
4,510833	0,1	0,376757
4,512500	0,1	0,386394
4,514167	0,1	0,338922
4,515833	0,1	0,367917
4,517500	0,1	0,365914
4,519167	0,1	0,324465
4,520833	0,1	0,341598
4,522500	0,1	0,331209
4,524167	0,1	0,331557
4,525833	0,1	0,343482
4,527500	0,1	0,323093
4,529167	0,1	0,325265
4,530833	0,1	0,299882
4,532500	0,1	0,336560
4,534167	0,1	0,309305
4,535833	0,1	0,318136
4,537500	0,1	0,308494
4,539167	0,1	0,321451
4,540833	0,1	0,310770
4,542500	0,1	0,318574
4,544167	0,1	0,308906
4,545833	0,1	0,285698
4,547500	0,1	0,254310
4,549167	0,1	0,285726
4,550833	0,1	0,281595
4,552500	0,1	0,266464
4,554167	0,1	0,250805
4,555833	0,1	0,291192
4,557500	0,1	0,283106
4,559167	0,1	0,275177
4,560833	0,1	0,185757
4,562500	0,1	0,246919
4,564167	0,1	0,223712
4,565833	0,1	0,271206
4,567500	0,1	0,246878
4,569167	0,1	0,230909
4,570833	0,1	0,246139
4,572500	0,1	0,243541
4,574167	0,1	0,210756
4,575833	0,1	0,246345
4,577500	0,1	0,268689
4,579167	0,1	0,241287
4,580833	0,1	0,211167
4,582500	0,1	0,188080
4,584167	0,1	0,209413
4,585833	0,1	0,203979
4,587500	0,1	0,229123
4,589167	0,1	0,224656
4,590833	0,1	0,191764
4,592500	0,1	0,202479
4,594167	0,1	0,232665
4,595833	0,1	0,173556
4,597500	0,1	0,186954
4,599167	0,1	0,204738
4,600833	0,1	0,184715
4,602500	0,1	0,189981
4,604167	0,1	0,209644
4,605833	0,1	0,176575
4,607500	0,1	0,167509
4,609167	0,1	0,207284
4,610833	0,1	0,161941
4,612500	0,1	0,130099
4,614167	0,1	0,155110
4,615833	0,1	0,178778
4,617500	0,1	0,178370
4,619167	0,1	0,144202
4,620833	0,1	0,172421
4,622500	0,1	0,122236
4,624167	0,1	0,169392
4,625833	0,1	0,185806
4,627500	0,1	0,144631
4,629167	0,1	0,145888
4,630833	0,1	0,139123
4,632500	0,1	0,211811
4,634167	0,1	0,159790
4,635833	0,1	0,090050
4,637500	0,1	0,149235
4,639167	0,1	0,130462
4,640833	0,1	0,144357
4,642500	0,1	0,170205
4,644167	0,1	0,125657
4,645833	0,1	0,143714
4,647500	0,1	0,118258
4,649167	0,1	0,137070
4,650833	0,1	0,061107
4,652500	0,1	0,178052
4,654167	0,1	0,146493
4,655833	0,1	0,157544
4,657500	0,1	0,124249
4,659167	0,1	0,112236
4,660833	0,1	0,117532
4,662500	0,1	0,120894
4,664167	0,1	0,122146
4,665833	0,1	0,090256
4,667500	0,1	0,094097
4,669167	0,1	0,093290
4,670833	0,1	0,123179
4,672500	0,1	0,116374
4,674167	0,1	0,118588
4,675833	0,1	0,103117
4,677500	0,1	0,111818
4,679167	0,1	0,058414
4,680833	0,1	0,097864
4,682500	0,1	0,059523
4,684167	0,1	0,103516
4,685833	0,1	0,084312
4,687500	0,1	0,113968
4,689167	0,1	0,109437
4,690833	0,1	0,134685
4,692500	0,1	0,112819
4,694167	0,1	0,097419
4,695833	0,1	0,107403
4,697500	0,1	0,142671
4,699167	0,1	0,099303
4,700833	0,1	0,123563
4,702500	0,1	0,084654
4,704167	0,1	0,107736
4,705833	0,1	0,077120
4,707500	0,1	0,100374
4,709167	0,1	0,122203
4,710833	0,1	0,123538
4,712500	0,1	0,096428
4,714167	0,1	0,103127
4,715833	0,1	0,086066
4,717500	0,1	0,093455
4,719167	0,1	0,090647
4,720833	0,1	0,105493
4,722500	0,1	0,086923
4,724167	0,1	0,098404
4,725833	0,1	0,118584
4,727500	0,1	0,108905
4,729167	0,1	0,039183
4,730833	0,1	0,093094
4,732500	0,1	0,077834
4,734167	0,1	0,112453
4,735833	0,1	0,074279
4,737500	0,1	0,103580
4,739167	0,1	0,056947
4,740833	0,1	0,070174
4,742500	0,1	0,103701
4,744167	0,1	0,061679
4,745833	0,1	0,077400
4,747500	0,1	0,120028
4,749167	0,1	0,061744
4,750833	0,1	0,087493
4,752500	0,1	0,098465
4,754167	0,1	0,116980
4,755833	0,1	0,066476
4,757500	0,1	0,110923
4,759167	0,1	0,044026
4,760833	0,1	0,095019
4,762500	0,1	0,080190
4,764167	0,1	0,109599
4,765833	0,1	0,100106
4,767500	0,1	0,083669
4,769167	0,1	0,112197
4,770833	0,1	0,094744
4,772500	0,1	0,076308
4,774167	0,1	0,066391
4,775833	0,1	0,087603
4,777500	0,1	0,087454
4,779167	0,1	0,095334
4,780833	0,1	0,103095
4,782500	0,1	0,057418
4,784167	0,1	0,069897
4,785833	0,1	0,086428
4,787500	0,1	0,051945
4,789167	0,1	0,076878
4,790833	0,1	0,048311
4,792500	0,1	0,072725
4,794167	0,1	0,084796
4,795833	0,1	0,043762
4,797500	0,1	0,052166
4,799167	0,1	0,076128
4,800833	0,1	0,059335
4,802500	0,1	0,063715
4,804167	0,1	0,030011
4,805833	0,1	0,082354
4,807500	0,1	0,062133
4,809167	0,1	0,084867
4,810833	0,1	0,081637
4,812500	0,1	0,033575
4,814167	0,1	0,062134
4,815833	0,1	0,100659
4,817500	0,1	0,095735
4,819167	0,1	0,075591
4,820833	0,1	0,004724
4,822500	0,1	0,089221
4,824167	0,1	0,055262
4,825833	0,1	0,050643
4,827500	0,1	0,082468
4,829167	0,1	0,051303
4,830833	0,1	0,035830
4,832500	0,1	0,096406
4,834167	0,1	0,068597
4,835833	0,1	0,125494
4,837500	0,1	0,085187
4,839167	0,1	0,093137
4,840833	0,1	-0,021469
4,842500	0,1	0,064154
4,844167	0,1	0,087022
4,845833	0,1	0,053337
4,847500	0,1	0,045633
4,849167	0,1	0,052045
4,850833	0,1	0,066905
4,852500	0,1	0,110269
4,854167	0,1	0,083839
4,855833	0,1	0,047564
4,857500	0,1	0,056413
4,859167	0,1	0,032901
4,860833	0,1	0,049874
4,862500	0,1	0,036820
4,864167	0,1	0,055830
4,865833	0,1	0,096398
4,867500	0,1	0,059328
4,869167	0,1	0,092977
4,870833	0,1	0,071344
4,872500	0,1	0,028961
4,874167	0,1	0,058804
4,875833	0,1	0,076758
4,877500	0,1	0,091820
4,879167	0,1	0,068489
4,880833	0,1	0,046324
4,882500	0,1	0,082744
4,884167	0,1	0,055720
4,885833	0,1	0,075138
4,887500	0,1	0,058769
4,889167	0,1	0,033096
4,890833	0,1	0,065848
4,892500	0,1	0,100904
4,894167	0,1	0,041781
4,895833	0,1	0,065452
4,897500	0,1	0,101715
4,899167	0,1	0,073103
4,900833	0,1	0,061380
4,902500	0,1	0,068205
4,904167	0,1	0,046460
4,905833	0,1	0,048500
4,907500	0,1	0,033844
4,909167	0,1	0,062073
4,910833	0,1	0,026333
4,912500	0,1	0,072200
4,914167	0,1	0,013677
4,915833	0,1	0,031802
4,917500	0,1	0,067252
4,919167	0,1	0,027158
4,920833	0,1	0,040313
4,922500	0,1	0,070462
4,924167	0,1	0,066876
4,925833	0,1	0,018820
4,927500	0,1	0,056236
4,929167	0,1	0,064280
4,930833	0,1	0,038883
4,932500	0,1	0,062534
4,934167	0,1	0,061594
4,935833	0,1	0,069075
4,937500	0,1	0,064100
4,939167	0,1	0,082119
4,940833	0,1	0,050892
4,942500	0,1	0,046866
4,944167	0,1	0,068904
4,945833	0,1	0,060279
4,947500	0,1	0,055666
4,949167	0,1	0,086744
4,950833	0,1	0,055307
4,952500	0,1	0,060723
4,954167	0,1	0,059028
4,955833	0,1	0,039449
4,957500	0,1	0,087764
4,959167	0,1	0,031773
4,960833	0,1	0,076460
4,962500	0,1	0,058344
4,964167	0,1	0,052568
4,965833	0,1	0,075629
4,967500	0,1	0,050660
4,969167	0,1	0,053882
4,970833	0,1	0,064401
4,972500	0,1	0,064956
4,974167	0,1	0,047560
4,975833	0,1	0,059389
4,977500	0,1	0,081951
4,979167	0,1	0,068183
4,980833	0,1	0,062434
4,982500	0,1	0,017123
4,984167	0,1	0,051746
4,985833	0,1	0,086898
4,987500	0,1	0,013997
4,989167	0,1	0,027494
4,990833	0,1	0,048819
4,992500	0,1	0,066688
4,994167	0,1	0,022376
4,995833	0,1	0,062639
4,997500	0,1	0,068467
4,999167	0,1	0,042415
5,000833	0,1	0,019866
5,002500	0,1	0,085148
5,004167	0,1	0,060426
5,005833	0,1	0,039631
5,007500	0,1	0,001497
5,009167	0,1	0,068467
5,010833	0,1	0,021493
5,012500	0,1	0,064730
5,014167	0,1	0,028608
5,015833	0,1	0,057461
5,017500	0,1	0,023428
5,019167	0,1	0,057459
5,020833	0,1	0,051224
5,022500	0,1	0,065576
5,024167	0,1	0,022425
5,025833	0,1	0,042369
5,027500	0,1	0,024465
5,029167	0,1	0,055900
5,030833	0,1	0,004295
5,032500	0,1	0,067583
5,034167	0,1	0,043602
5,035833	0,1	0,061179
5,037500	0,1	0,054842
5,039167	0,1	0,048476
5,040833	0,1	0,008020
5,042500	0,1	0,009475
5,044167	0,1	0,031038
5,045833	0,1	0,020892
5,047500	0,1	0,050331
5,049167	0,1	0,046198
5,050833	0,1	0,048546
5,052500	0,1	0,066770
5,054167	0,1	0,038809
5,055833	0,1	0,034604
5,057500	0,1	0,071959
5,059167	0,1	0,037603
5,060833	0,1	0,057463
5,062500	0,1	0,041251
5,064167	0,1	0,036928
5,065833	0,1	0,055128
5,067500	0,1	0,047193
5,069167	0,1	0,040728
5,070833	0,1	0,047493
5,072500	0,1	0,048121
5,074167	0,1	0,055711
5,075833	0,1	0,068359
5,077500	0,1	0,067477
5,079167	0,1	0,039971
5,080833	0,1	-0,002037
5,082500	0,1	0,038550
5,084167	0,1	0,025105
5,085833	0,1	0,050257
5,087500	0,1	0,062524
5,089167	0,1	0,033570
5,090833	0,1	0,044440
5,092500	0,1	0,023229
5,094167	0,1	0,012165
5,095833	0,1	0,052447
5,097500	0,1	0,033966
5,099167	0,1	0,054653
5,100833	0,1	0,067547
5,102500	0,1	0,036885
5,104167	0,1	0,068366
5,105833	0,1	0,030810
5,107500	0,1	0,038511
5,109167	0,1	0,052779
5,110833	0,1	0,000108
5,112500	0,1	0,014895
5,114167	0,1	0,051551
5,115833	0,1	0,076696
5,117500	0,1	0,020732
5,119167	0,1	0,048419
5,120833	0,1	0,076769
5,122500	0,1	0,057399
5,124167	0,1	-0,003992
5,125833	0,1	0,046887
5,127500	0,1	0,026789
5,129167	0,1	0,080368
5,130833	0,1	0,032110
5,132500	0,1	0,018217
5,134167	0,1	0,001371
5,135833	0,1	-0,000375
5,137500	0,1	0,049878
5,139167	0,1	0,030129
5,140833	0,1	0,050041
5,142500	0,1	0,019977
5,144167	0,1	0,000499
5,145833	0,1	0,029450
5,147500	0,1	-0,012083
5,149167	0,1	0,042627
5,150833	0,1	0,029183
5,152500	0,1	0,099721
5,154167	0,1	0,020677
5,155833	0,1	0,055690
5,157500	0,1	0,013854
5,159167	0,1	0,020549
5,160833	0,1	0,014765
5,162500	0,1	0,055567
5,164167	0,1	0,026028
5,165833	0,1	0,000671
5,167500	0,1	0,017508
5,169167	0,1	0,041290
5,170833	0,1	0,027380
5,172500	0,1	0,039031
5,174167	0,1	0,021945
5,175833	0,1	0,029530
5,177500	0,1	-0,021531
5,179167	0,1	0,009927
5,180833	0,1	0,025194
5,182500	0,1	0,036621
5,184167	0,1	-0,001663
5,185833	0,1	0,051149
5,187500	0,1	-0,007068
5,189167	0,1	0,027478
5,190833	0,1	0,025089
5,192500	0,1	0,046192
5,194167	0,1	-0,008181
5,195833	0,1	0,002416
5,197500	0,1	0,032839
5,199167	0,1	0,040375
5,200833	0,1	-0,011087
5,202500	0,1	0,049572
5,204167	0,1	-0,001126
5,205833	0,1	0,005104
5,207500	0,1	0,009934
5,209167	0,1	0,027144
5,210833	0,1	0,048697
5,212500	0,1	0,017291
5,214167	0,1	-0,001194
5,215833	0,1	0,035768
5,217500	0,1	-0,013545
5,219167	0,1	0,059314
5,220833	0,1	0,049517
5,222500	0,1	0,016237
5,224167	0,1	0,054926
5,225833	0,1	0,006813
5,227500	0,1	0,010878
5,229167	0,1	0,002011
5,230833	0,1	0,031218
5,232500	0,1	0,001482
5,234167	0,1	0,008372
5,235833	0,1	0,035880
5,237500	0,1	0,043811
5,239167	0,1	0,003772
5,240833	0,1	0,009523
5,242500	0,1	0,023160
5,244167	0,1	0,005727
5,245833	0,1	0,021068
5,247500	0,1	0,010992
5,249167	0,1	0,044582
5,250833	0,1	0,011578
5,252500	0,1	0,028257
5,254167	0,1	0,024800
5,255833	0,1	-0,012917
5,257500	0,1	-0,009720
5,259167	0,1	0,018268
5,260833	0,1	0,020611
5,262500	0,1	0,027182
5,264167	0,1	0,032314
5,265833	0,1	0,015701
5,267500	0,1	0,022738
5,269167	0,1	0,001034
5,270833	0,1	0,004174
5,272500	0,1	0,051014
5,274167	0,1	0,017448
5,275833	0,1	-0,000734
5,277500	0,1	-0,013044
5,279167	0,1	0,024776
5,280833	0,1	0,041304
5,282500	0,1	0,022648
5,284167	0,1	0,021834
5,285833	0,1	0,030207
5,287500	0,1	-0,004326
5,289167	0,1	-0,029248
5,290833	0,1	-0,019853
5,292500	0,1	-0,020600
5,294167	0,1	0,018023
5,295833	0,1	0,009755
5,297500	0,1	-0,037098
5,299167	0,1	0,037065
5,300833	0,1	-0,028174
5,302500	0,1	0,007881
5,304167	0,1	0,006439
5,305833	0,1	0,006243
5,307500	0,1	0,011096
5,309167	0,1	0,027468
5,310833	0,1	0,032967
5,312500	0,1	-0,021071
5,314167	0,1	-0,004930
5,315833	0,1	-0,004926
5,317500	0,1	0,051911
5,319167	0,1	-0,002989
5,320833	0,1	-0,018937
5,322500	0,1	0,042746
5,324167	0,1	-0,009078
5,325833	0,1	0,011830
5,327500	0,1	-0,021596
5,329167	0,1	0,012143
5,330833	0,1	0,004805
5,332500	0,1	-0,019976
5,334167	0,1	0,002910
5,335833	0,1	0,019542
5,337500	0,1	0,054084
5,339167	0,1	-0,006970
5,340833	0,1	-0,011921
5,342500	0,1	0,009107
5,344167	0,1	-0,002710
5,345833	0,1	-0,002542
5,347500	0,1	-0,018927
5,349167	0,1	0,036913
5,350833	0,1	-0,043685
5,352500	0,1	0,003982
5,354167	0,1	-0,007503
5,355833	0,1	0,053941
5,357500	0,1	-0,048871
5,359167	0,1	-0,014207
5,360833	0,1	0,003626
5,362500	0,1	0,016903
5,364167	0,1	-0,027827
5,365833	0,1	-0,015932
5,367500	0,1	-0,005644
5,369167	0,1	-0,028886
5,370833	0,1	0,040528
5,372500	0,1	-0,029745
5,374167	0,1	-0,051517
5,375833	0,1	-0,007624
5,377500	0,1	-0,012223
5,379167	0,1	0,020650
5,380833	0,1	-0,020143
5,382500	0,1	-0,038689
5,384167	0,1	0,049843
5,385833	0,1	-0,020475
5,387500	0,1	-0,025754
5,389167	0,1	0,008922
5,390833	0,1	-0,018743
5,392500	0,1	0,003625
5,394167	0,1	-0,036528
5,395833	0,1	-0,007039
5,397500	0,1	0,006785
5,399167	0,1	0,002651
5,400833	0,1	-0,012113
5,402500	0,1	-0,008437
5,404167	0,1	-0,004360
5,405833	0,1	0,020303
5,407500	0,1	-0,023629
5,409167	0,1	0,003332
5,410833	0,1	0,010165
5,412500	0,1	-0,033841
5,414167	0,1	0,003621
5,415833	0,1	0,002408
5,417500	0,1	0,001307
5,419167	0,1	0,011108
5,420833	0,1	-0,041657
5,422500	0,1	-0,008746
5,424167	0,1	0,026822
5,425833	0,1	-0,006336
5,427500	0,1	0,000553
5,429167	0,1	-0,012463
5,430833	0,1	-0,019423
5,432500	0,1	-0,010423
5,434167	0,1	0,015000
5,435833	0,1	0,009077
5,437500	0,1	-0,021489
5,439167	0,1	0,001929
5,440833	0,1	-0,006268
5,442500	0,1	-0,019690
5,444167	0,1	-0,014731
5,445833	0,1	-0,024470
5,447500	0,1	-0,006190
5,449167	0,1	0,021863
5,450833	0,1	-0,016124
5,452500	0,1	-0,012178
5,454167	0,1	-0,027917
5,455833	0,1	-0,011466
5,457500	0,1	-0,024529
5,459167	0,1	0,033838
5,460833	0,1	-0,012626
5,462500	0,1	0,001532
5,464167	0,1	0,010987
5,465833	0,1	-0,016019
5,467500	0,1	-0,010822
5,469167	0,1	-0,012056
5,470833	0,1	-0,048135
5,472500	0,1	0,024369
5,474167	0,1	0,041460
5,475833	0,1	-0,028062
5,477500	0,1	-0,015327
5,479167	0,1	0,002985
5,480833	0,1	-0,005180
5,482500	0,1	-0,035429
5,484167	0,1	0,024300
5,485833	0,1	0,018906
5,487500	0,1	0,003029
5,489167	0,1	-0,009776
5,490833	0,1	0,003409
5,492500	0,1	0,010696
5,494167	0,1	0,010915
5,495833	0,1	0,033942
5,497500	0,1	-0,022293
5,499167	0,1	-0,004071
5,500833	0,1	-0,024517
5,502500	0,1	-0,011539
5,504167	0,1	-0,015951
5,505833	0,1	-0,004530
5,507500	0,1	0,010331
5,509167	0,1	0,020873
5,510833	0,1	0,016169
5,512500	0,1	-0,000809
5,514167	0,1	-0,005567
5,515833	0,1	0,016223
5,517500	0,1	0,019531
5,519167	0,1	-0,007596
5,520833	0,1	0,001401
5,522500	0,1	0,015754
5,524167	0,1	0,015188
5,525833	0,1	0,011728
5,527500	0,1	0,021601
5,529167	0,1	-0,011175
5,530833	0,1	-0,010894
5,532500	0,1	0,000481
5,534167	0,1	-0,044735
5,535833	0,1	0,049032
5,537500	0,1	-0,003765
5,539167	0,1	0,003397
5,540833	0,1	0,012088
5,542500	0,1	-0,001038
5,544167	0,1	0,003629
5,545833	0,1	0,014073
5,547500	0,1	-0,016297
5,549167	0,1	-0,040320
5,550833	0,1	0,007831
5,552500	0,1	-0,032959
5,554167	0,1	0,000778
5,555833	0,1	-0,007963
5,557500	0,1	0,035740
5,559167	0,1	0,017879
5,560833	0,1	-0,025224
5,562500	0,1	0,017914
5,564167	0,1	0,001757
5,565833	0,1	-0,001440
5,567500	0,1	0,001474
5,569167	0,1	0,001186
5,570833	0,1	0,006061
5,572500	0,1	0,007671
5,574167	0,1	0,021514
5,575833	0,1	0,001141
5,577500	0,1	-0,023415
5,579167	0,1	0,002644
5,580833	0,1	-0,032017
5,582500	0,1	-0,011309
5,584167	0,1	-0,003125
5,585833	0,1	-0,013626
5,587500	0,1	0,020069
5,589167	0,1	-0,014093
5,590833	0,1	-0,020901
5,592500	0,1	0,040071
5,594167	0,1	0,060381
5,595833	0,1	0,025206
5,597500	0,1	0,010751
5,599167	0,1	-0,002019
5,600833	0,1	0,013031
5,602500	0,1	-0,002552
5,604167	0,1	-0,023923
5,605833	0,1	0,019825
5,607500	0,1	0,016532
5,609167	0,1	0,015587
5,610833	0,1	0,041992
5,612500	0,1	0,029015
5,614167	0,1	0,025912
5,615833	0,1	0,043904
5,617500	0,1	0,034410
5,619167	0,1	-0,010121
5,620833	0,1	0,034362
5,622500	0,1	0,042941
5,624167	0,1	0,010463
5,625833	0,1	0,025099
5,627500	0,1	0,028052
5,629167	0,1	0,006854
5,630833	0,1	0,038491
5,632500	0,1	0,027622
5,634167	0,1	0,018276
5,635833	0,1	0,063109
5,637500	0,1	0,004528
5,639167	0,1	0,033785
5,640833	0,1	0,035245
5,642500	0,1	0,031518
5,644167	0,1	-0,003285
5,645833	0,1	0,027647
5,647500	0,1	0,031950
5,649167	0,1	0,038052
5,650833	0,1	0,074294
5,652500	0,1	0,037820
5,654167	0,1	0,100547
5,655833	0,1	0,057067
5,657500	0,1	0,035999
5,659167	0,1	0,064505
5,660833	0,1	0,031754
5,662500	0,1	0,058346
5,664167	0,1	0,017934
5,665833	0,1	0,042983
5,667500	0,1	0,052260
5,669167	0,1	0,034897
5,670833	0,1	0,091810
5,672500	0,1	0,022842
5,674167	0,1	0,073588
5,675833	0,1	0,087423
5,677500	0,1	0,121131
5,679167	0,1	0,073795
5,680833	0,1	0,050526
5,682500	0,1	0,090913
5,684167	0,1	0,065875
5,685833	0,1	0,067765
5,687500	0,1	0,114070
5,689167	0,1	0,098397
5,690833	0,1	0,062764
5,692500	0,1	0,107074
5,694167	0,1	0,066122
5,695833	0,1	0,099852
5,697500	0,1	0,084295
5,699167	0,1	0,111752
5,700833	0,1	0,092165
5,702500	0,1	0,105631
5,704167	0,1	0,073332
5,705833	0,1	0,110527
5,707500	0,1	0,104779
5,709167	0,1	0,097722
5,710833	0,1	0,113971
5,712500	0,1	0,090133
5,714167	0,1	0,087224
5,715833	0,1	0,079972
5,717500	0,1	0,120610
5,719167	0,1	0,090028
5,720833	0,1	0,132861
5,722500	0,1	0,124654
5,724167	0,1	0,108798
5,725833	0,1	0,150539
5,727500	0,1	0,122964
5,729167	0,1	0,116360
5,730833	0,1	0,135572
5,732500	0,1	0,126840
5,734167	0,1	0,111473
5,735833	0,1	0,138701
5,737500	0,1	0,146178
5,739167	0,1	0,123024
5,740833	0,1	0,132244
5,742500	0,1	0,131191
5,744167	0,1	0,120408
5,745833	0,1	0,166396
5,747500	0,1	0,148689
5,749167	0,1	0,161761
5,750833	0,1	0,135261
5,752500	0,1	0,158594
5,754167	0,1	0,132069
5,755833	0,1	0,154286
5,757500	0,1	0,139933
5,759167	0,1	0,163972
5,760833	0,1	0,150261
5,762500	0,1	0,129196
5,764167	0,1	0,161677
5,765833	0,1	0,166237
5,767500	0,1	0,112474
5,769167	0,1	0,163828
5,770833	0,1	0,177346
5,772500	0,1	0,153856
5,774167	0,1	0,165471
5,775833	0,1	0,174243
5,777500	0,1	0,189549
5,779167	0,1	0,190807
5,780833	0,1	0,151719
5,782500	0,1	0,190019
5,784167	0,1	0,193816
5,785833	0,1	0,201120
5,787500	0,1	0,176695
5,789167	0,1	0,169740
5,790833	0,1	0,180555
5,792500	0,1	0,156269
5,794167	0,1	0,204396
5,795833	0,1	0,154455
5,797500	0,1	0,186293
5,799167	0,1	0,155812
5,800833	0,1	0,215760
5,802500	0,1	0,192081
5,804167	0,1	0,181537
5,805833	0,1	0,167893
5,807500	0,1	0,161442
5,809167	0,1	0,143509
5,810833	0,1	0,217252
5,812500	0,1	0,175935
5,814167	0,1	0,222085
5,815833	0,1	0,164100
5,817500	0,1	0,190328
5,819167	0,1	0,162625
5,820833	0,1	0,181285
5,822500	0,1	0,214483
5,824167	0,1	0,192219
5,825833	0,1	0,186468
5,827500	0,1	0,183565
5,829167	0,1	0,203042
5,830833	0,1	0,145841
5,832500	0,1	0,149265
5,834167	0,1	0,212719
5,835833	0,1	0,167503
5,837500	0,1	0,201816
5,839167	0,1	0,157283
5,840833	0,1	0,177907
5,842500	0,1	0,206494
5,844167	0,1	0,209218
5,845833	0,1	0,163607
5,847500	0,1	0,180748
5,849167	0,1	0,199999
5,850833	0,1	0,195559
5,852500	0,1	0,154654
5,854167	0,1	0,184015
5,855833	0,1	0,194287
5,857500	0,1	0,197682
5,859167	0,1	0,215586
5,860833	0,1	0,166603
5,862500	0,1	0,174975
5,864167	0,1	0,138427
5,865833	0,1	0,144939
5,867500	0,1	0,153341
5,869167	0,1	0,172697
5,870833	0,1	0,148277
5,872500	0,1	0,161285
5,874167	0,1	0,169949
5,875833	0,1	0,149271
5,877500	0,1	0,190033
5,879167	0,1	0,175165
5,880833	0,1	0,159122
5,882500	0,1	0,177496
5,884167	0,1	0,159887
5,885833	0,1	0,158830
5,887500	0,1	0,125943
5,889167	0,1	0,120040
5,890833	0,1	0,162775
5,892500	0,1	0,157853
5,894167	0,1	0,150032
5,895833	0,1	0,160583
5,897500	0,1	0,150657
5,899167	0,1	0,146531
5,900833	0,1	0,147690
5,902500	0,1	0,126735
5,904167	0,1	0,189159
5,905833	0,1	0,157262
5,907500	0,1	0,188614
5,909167	0,1	0,142341
5,910833	0,1	0,147934
5,912500	0,1	0,161437
5,914167	0,1	0,136225
5,915833	0,1	0,125710
5,917500	0,1	0,154101
5,919167	0,1	0,102743
5,920833	0,1	0,157259
5,922500	0,1	0,141234
5,924167	0,1	0,146528
5,925833	0,1	0,146760
5,927500	0,1	0,127637
5,929167	0,1	0,139057
5,930833	0,1	0,117738
5,932500	0,1	0,136197
5,934167	0,1	0,128321
5,935833	0,1	0,147091
5,937500	0,1	0,118884
5,939167	0,1	0,127156
5,940833	0,1	0,112725
5,942500	0,1	0,122328
5,944167	0,1	0,123660
5,945833	0,1	0,118603
5,947500	0,1	0,134381
5,949167	0,1	0,109612
5,950833	0,1	0,104291
5,952500	0,1	0,101554
5,954167	0,1	0,134605
5,955833	0,1	0,112636
5,957500	0,1	0,119504
5,959167	0,1	0,069839
5,960833	0,1	0,103640
5,962500	0,1	0,131904
5,964167	0,1	0,107090
5,965833	0,1	0,117745
5,967500	0,1	0,119291
5,969167	0,1	0,105285
5,970833	0,1	0,089091
5,972500	0,1	0,097109
5,974167	0,1	0,100911
5,975833	0,1	0,125532
5,977500	0,1	0,104337
5,979167	0,1	0,062443
5,980833	0,1	0,110281
5,982500	0,1	0,104702
5,984167	0,1	0,062321
5,985833	0,1	0,063013
5,987500	0,1	0,073215
5,989167	0,1	0,100158
5,990833	0,1	0,103478
5,992500	0,1	0,086114
5,994167	0,1	0,058407
5,995833	0,1	0,067548
5,997500	0,1	0,071398
5,999167	0,1	0,105228
6,000833	0,1	0,061051
