File Path	chrom://chromeleon01/ikbm_chromeleon/2022/Rezex/Esteban/220612_chitin_4_7.seq/313.smp/UV_VIS_1.channel/UV_VIS_1.chm
Channel	UV_VIS_1

Injection Information:
Data Vault	ikbm_chromeleon
Injection	A2ox 800
Injection Number	10
Position	RA7
Comment	
Processing Method	New ProcMethod
Instrument Method	Short_Rezex_6min_194nm
Type	Calibration Standard
Status	Finished
Injection Date	12.06.2022
Injection Time	18:12:20
Injection Volume (µl)	8,000
Dilution Factor	1,0000
Weight	1,0000

Chromatogram Data Information:
Time Min. (min)	0,000833
Time Max. (min)	6,000833
Data Points	3601
Detector	UV
Generating Data System	Chromeleon 7.2.9.11323
Exporting Data System	Chromeleon 7.2.9.0
Operator	Instrument Controller
Signal Quantity	Absorbance
Signal Unit	mAU
Signal Min.	-0,094986
Signal Max.	367,649158
Channel	UV_VIS_1
Driver Name	VWD3000.dll
Channel Type	Evaluation
Min. Step (s)	0,1
Max. Step (s)	0,1
Average Step (s)	0,1

Signal Parameter Information:
Signal Info	WVL:194 nm

Chromatogram Data:
Time (min)	Step (s)	Value (mAU)
0,000833	n.a.	-0,001744
0,002500	0,1	-0,032152
0,004167	0,1	-0,024251
0,005833	0,1	-0,070993
0,007500	0,1	-0,004335
0,009167	0,1	-0,053798
0,010833	0,1	0,017150
0,012500	0,1	-0,053577
0,014167	0,1	-0,042464
0,015833	0,1	-0,030690
0,017500	0,1	-0,039699
0,019167	0,1	-0,039513
0,020833	0,1	-0,024307
0,022500	0,1	-0,029536
0,024167	0,1	-0,005909
0,025833	0,1	-0,029843
0,027500	0,1	-0,060372
0,029167	0,1	-0,010715
0,030833	0,1	-0,025508
0,032500	0,1	-0,029825
0,034167	0,1	-0,014758
0,035833	0,1	-0,046131
0,037500	0,1	-0,015644
0,039167	0,1	-0,021726
0,040833	0,1	-0,068925
0,042500	0,1	-0,048936
0,044167	0,1	-0,047768
0,045833	0,1	-0,024417
0,047500	0,1	-0,037231
0,049167	0,1	-0,039002
0,050833	0,1	-0,052488
0,052500	0,1	-0,049359
0,054167	0,1	-0,035220
0,055833	0,1	-0,001559
0,057500	0,1	-0,029097
0,059167	0,1	-0,052221
0,060833	0,1	0,011466
0,062500	0,1	-0,009411
0,064167	0,1	-0,036179
0,065833	0,1	-0,059064
0,067500	0,1	-0,039464
0,069167	0,1	-0,053721
0,070833	0,1	-0,018788
0,072500	0,1	-0,028435
0,074167	0,1	-0,002712
0,075833	0,1	-0,015178
0,077500	0,1	-0,019369
0,079167	0,1	-0,024946
0,080833	0,1	-0,074773
0,082500	0,1	-0,065857
0,084167	0,1	-0,022863
0,085833	0,1	-0,053484
0,087500	0,1	-0,036811
0,089167	0,1	-0,040800
0,090833	0,1	-0,080219
0,092500	0,1	-0,030001
0,094167	0,1	-0,037124
0,095833	0,1	-0,034790
0,097500	0,1	-0,032409
0,099167	0,1	-0,041605
0,100833	0,1	-0,070084
0,102500	0,1	-0,020102
0,104167	0,1	-0,039935
0,105833	0,1	0,002272
0,107500	0,1	-0,046988
0,109167	0,1	-0,065742
0,110833	0,1	-0,036836
0,112500	0,1	-0,020979
0,114167	0,1	-0,069515
0,115833	0,1	-0,010370
0,117500	0,1	-0,027222
0,119167	0,1	-0,028351
0,120833	0,1	-0,052415
0,122500	0,1	-0,079421
0,124167	0,1	-0,037833
0,125833	0,1	-0,009238
0,127500	0,1	-0,025587
0,129167	0,1	-0,018804
0,130833	0,1	-0,050319
0,132500	0,1	-0,045790
0,134167	0,1	-0,013930
0,135833	0,1	-0,024757
0,137500	0,1	-0,067667
0,139167	0,1	-0,042149
0,140833	0,1	-0,042384
0,142500	0,1	-0,068261
0,144167	0,1	-0,054836
0,145833	0,1	-0,078106
0,147500	0,1	-0,018686
0,149167	0,1	-0,034948
0,150833	0,1	-0,001024
0,152500	0,1	-0,021397
0,154167	0,1	-0,051149
0,155833	0,1	-0,010931
0,157500	0,1	-0,031218
0,159167	0,1	-0,033526
0,160833	0,1	-0,062731
0,162500	0,1	-0,031013
0,164167	0,1	-0,038357
0,165833	0,1	-0,028733
0,167500	0,1	-0,060107
0,169167	0,1	-0,021177
0,170833	0,1	-0,035592
0,172500	0,1	-0,023048
0,174167	0,1	-0,061820
0,175833	0,1	-0,040567
0,177500	0,1	-0,068531
0,179167	0,1	-0,018279
0,180833	0,1	-0,040664
0,182500	0,1	-0,013147
0,184167	0,1	-0,023610
0,185833	0,1	-0,052918
0,187500	0,1	-0,060167
0,189167	0,1	-0,018627
0,190833	0,1	-0,034196
0,192500	0,1	-0,019482
0,194167	0,1	-0,039081
0,195833	0,1	-0,019024
0,197500	0,1	-0,064448
0,199167	0,1	0,003902
0,200833	0,1	-0,047522
0,202500	0,1	-0,005696
0,204167	0,1	-0,022234
0,205833	0,1	-0,057212
0,207500	0,1	-0,024015
0,209167	0,1	-0,025536
0,210833	0,1	-0,009691
0,212500	0,1	0,005628
0,214167	0,1	-0,017997
0,215833	0,1	-0,030420
0,217500	0,1	-0,007196
0,219167	0,1	-0,060746
0,220833	0,1	-0,031957
0,222500	0,1	-0,010119
0,224167	0,1	-0,041762
0,225833	0,1	-0,018381
0,227500	0,1	0,001710
0,229167	0,1	-0,067259
0,230833	0,1	0,001698
0,232500	0,1	-0,020619
0,234167	0,1	-0,030226
0,235833	0,1	-0,007686
0,237500	0,1	-0,045244
0,239167	0,1	-0,034234
0,240833	0,1	-0,013689
0,242500	0,1	-0,027169
0,244167	0,1	-0,039915
0,245833	0,1	-0,047020
0,247500	0,1	-0,034553
0,249167	0,1	-0,030229
0,250833	0,1	0,021127
0,252500	0,1	-0,049959
0,254167	0,1	-0,007682
0,255833	0,1	-0,008478
0,257500	0,1	-0,021537
0,259167	0,1	-0,000507
0,260833	0,1	-0,040660
0,262500	0,1	-0,069790
0,264167	0,1	-0,015093
0,265833	0,1	-0,024168
0,267500	0,1	-0,016391
0,269167	0,1	-0,006734
0,270833	0,1	0,004876
0,272500	0,1	-0,035828
0,274167	0,1	-0,013200
0,275833	0,1	-0,060374
0,277500	0,1	-0,033106
0,279167	0,1	0,017506
0,280833	0,1	-0,050148
0,282500	0,1	-0,007791
0,284167	0,1	-0,036070
0,285833	0,1	-0,005212
0,287500	0,1	0,004429
0,289167	0,1	-0,039263
0,290833	0,1	-0,035032
0,292500	0,1	-0,020552
0,294167	0,1	-0,045062
0,295833	0,1	-0,019484
0,297500	0,1	-0,012800
0,299167	0,1	-0,031566
0,300833	0,1	0,003801
0,302500	0,1	0,023601
0,304167	0,1	-0,008897
0,305833	0,1	-0,017273
0,307500	0,1	0,016406
0,309167	0,1	-0,038346
0,310833	0,1	-0,017071
0,312500	0,1	-0,014676
0,314167	0,1	0,013484
0,315833	0,1	-0,033251
0,317500	0,1	-0,032276
0,319167	0,1	-0,046381
0,320833	0,1	-0,023741
0,322500	0,1	-0,039292
0,324167	0,1	-0,019668
0,325833	0,1	0,009117
0,327500	0,1	-0,000850
0,329167	0,1	-0,005125
0,330833	0,1	0,011532
0,332500	0,1	0,009529
0,334167	0,1	-0,020487
0,335833	0,1	-0,000670
0,337500	0,1	0,018886
0,339167	0,1	-0,030621
0,340833	0,1	-0,018511
0,342500	0,1	-0,033607
0,344167	0,1	0,016218
0,345833	0,1	-0,002942
0,347500	0,1	0,001683
0,349167	0,1	0,020754
0,350833	0,1	-0,005579
0,352500	0,1	0,010561
0,354167	0,1	-0,008528
0,355833	0,1	0,029283
0,357500	0,1	0,008693
0,359167	0,1	-0,012793
0,360833	0,1	0,007133
0,362500	0,1	0,015179
0,364167	0,1	-0,012816
0,365833	0,1	-0,030256
0,367500	0,1	0,007642
0,369167	0,1	-0,012141
0,370833	0,1	0,037041
0,372500	0,1	-0,001463
0,374167	0,1	-0,002442
0,375833	0,1	-0,015930
0,377500	0,1	-0,019771
0,379167	0,1	0,012816
0,380833	0,1	-0,009652
0,382500	0,1	0,012709
0,384167	0,1	-0,008495
0,385833	0,1	-0,000917
0,387500	0,1	-0,004745
0,389167	0,1	0,033419
0,390833	0,1	0,011749
0,392500	0,1	-0,012925
0,394167	0,1	0,008366
0,395833	0,1	0,029451
0,397500	0,1	0,013263
0,399167	0,1	0,023791
0,400833	0,1	0,017005
0,402500	0,1	-0,006454
0,404167	0,1	0,056672
0,405833	0,1	0,007980
0,407500	0,1	0,020820
0,409167	0,1	0,037179
0,410833	0,1	0,015994
0,412500	0,1	-0,004586
0,414167	0,1	-0,006087
0,415833	0,1	0,017141
0,417500	0,1	0,043288
0,419167	0,1	0,026056
0,420833	0,1	0,027261
0,422500	0,1	0,011464
0,424167	0,1	0,009093
0,425833	0,1	0,048065
0,427500	0,1	0,037328
0,429167	0,1	0,064681
0,430833	0,1	0,040649
0,432500	0,1	0,068381
0,434167	0,1	-0,017254
0,435833	0,1	0,041765
0,437500	0,1	0,020425
0,439167	0,1	0,033830
0,440833	0,1	0,024068
0,442500	0,1	0,015751
0,444167	0,1	-0,005385
0,445833	0,1	-0,001527
0,447500	0,1	-0,009221
0,449167	0,1	0,056410
0,450833	0,1	0,062481
0,452500	0,1	0,031265
0,454167	0,1	-0,003746
0,455833	0,1	-0,004506
0,457500	0,1	0,022911
0,459167	0,1	0,029454
0,460833	0,1	-0,020132
0,462500	0,1	0,034539
0,464167	0,1	0,048586
0,465833	0,1	0,002294
0,467500	0,1	0,014916
0,469167	0,1	0,022939
0,470833	0,1	0,029236
0,472500	0,1	0,030852
0,474167	0,1	0,036756
0,475833	0,1	0,025868
0,477500	0,1	0,044468
0,479167	0,1	0,011414
0,480833	0,1	-0,003346
0,482500	0,1	0,018374
0,484167	0,1	-0,008898
0,485833	0,1	-0,001102
0,487500	0,1	0,006842
0,489167	0,1	0,045435
0,490833	0,1	0,007062
0,492500	0,1	0,027706
0,494167	0,1	0,047481
0,495833	0,1	0,010257
0,497500	0,1	0,002523
0,499167	0,1	-0,014082
0,500833	0,1	-0,010302
0,502500	0,1	0,023336
0,504167	0,1	0,012989
0,505833	0,1	0,034734
0,507500	0,1	0,030963
0,509167	0,1	0,009936
0,510833	0,1	-0,003270
0,512500	0,1	0,011478
0,514167	0,1	0,016719
0,515833	0,1	0,013120
0,517500	0,1	-0,016407
0,519167	0,1	-0,015474
0,520833	0,1	0,021185
0,522500	0,1	0,005001
0,524167	0,1	0,022958
0,525833	0,1	0,009794
0,527500	0,1	0,024727
0,529167	0,1	0,018644
0,530833	0,1	0,008724
0,532500	0,1	0,003191
0,534167	0,1	0,043373
0,535833	0,1	0,051347
0,537500	0,1	0,020962
0,539167	0,1	0,029454
0,540833	0,1	-0,018953
0,542500	0,1	0,028933
0,544167	0,1	0,006151
0,545833	0,1	0,035462
0,547500	0,1	0,001166
0,549167	0,1	0,015287
0,550833	0,1	-0,032180
0,552500	0,1	0,023299
0,554167	0,1	-0,002786
0,555833	0,1	0,007189
0,557500	0,1	0,008558
0,559167	0,1	0,009954
0,560833	0,1	0,016041
0,562500	0,1	-0,007775
0,564167	0,1	-0,030790
0,565833	0,1	-0,008756
0,567500	0,1	-0,019150
0,569167	0,1	-0,000026
0,570833	0,1	0,001070
0,572500	0,1	-0,003457
0,574167	0,1	-0,014075
0,575833	0,1	0,021482
0,577500	0,1	0,008026
0,579167	0,1	0,012475
0,580833	0,1	-0,020888
0,582500	0,1	0,002703
0,584167	0,1	-0,028430
0,585833	0,1	-0,035301
0,587500	0,1	0,034297
0,589167	0,1	0,064778
0,590833	0,1	0,040190
0,592500	0,1	0,011107
0,594167	0,1	0,018617
0,595833	0,1	0,030284
0,597500	0,1	0,041044
0,599167	0,1	0,013900
0,600833	0,1	0,036622
0,602500	0,1	0,032720
0,604167	0,1	0,028278
0,605833	0,1	0,034203
0,607500	0,1	0,003762
0,609167	0,1	0,011534
0,610833	0,1	0,009713
0,612500	0,1	0,011450
0,614167	0,1	0,006682
0,615833	0,1	0,030444
0,617500	0,1	-0,027802
0,619167	0,1	-0,009980
0,620833	0,1	0,016146
0,622500	0,1	-0,001074
0,624167	0,1	0,027060
0,625833	0,1	0,026291
0,627500	0,1	0,020040
0,629167	0,1	-0,006299
0,630833	0,1	-0,010648
0,632500	0,1	0,038056
0,634167	0,1	0,025728
0,635833	0,1	-0,032984
0,637500	0,1	0,038902
0,639167	0,1	-0,008087
0,640833	0,1	0,047199
0,642500	0,1	0,027474
0,644167	0,1	-0,007313
0,645833	0,1	-0,017055
0,647500	0,1	0,007047
0,649167	0,1	0,042860
0,650833	0,1	0,013389
0,652500	0,1	0,014397
0,654167	0,1	0,020845
0,655833	0,1	-0,019010
0,657500	0,1	0,021665
0,659167	0,1	0,026126
0,660833	0,1	0,007918
0,662500	0,1	0,062360
0,664167	0,1	0,048963
0,665833	0,1	-0,003578
0,667500	0,1	-0,007407
0,669167	0,1	-0,004909
0,670833	0,1	0,027353
0,672500	0,1	0,059330
0,674167	0,1	0,018519
0,675833	0,1	0,007403
0,677500	0,1	0,026286
0,679167	0,1	0,001264
0,680833	0,1	0,055789
0,682500	0,1	0,017766
0,684167	0,1	-0,021509
0,685833	0,1	-0,016499
0,687500	0,1	0,006349
0,689167	0,1	0,010543
0,690833	0,1	-0,023355
0,692500	0,1	0,009651
0,694167	0,1	0,012659
0,695833	0,1	-0,017561
0,697500	0,1	0,000718
0,699167	0,1	-0,012928
0,700833	0,1	-0,021220
0,702500	0,1	0,008200
0,704167	0,1	0,020462
0,705833	0,1	0,020465
0,707500	0,1	0,023258
0,709167	0,1	-0,019544
0,710833	0,1	0,036767
0,712500	0,1	-0,000743
0,714167	0,1	0,005872
0,715833	0,1	-0,022875
0,717500	0,1	-0,029373
0,719167	0,1	-0,006498
0,720833	0,1	0,030921
0,722500	0,1	0,020948
0,724167	0,1	0,008156
0,725833	0,1	-0,025427
0,727500	0,1	0,023138
0,729167	0,1	0,058872
0,730833	0,1	0,017821
0,732500	0,1	0,054965
0,734167	0,1	0,017210
0,735833	0,1	0,013655
0,737500	0,1	-0,006116
0,739167	0,1	0,019171
0,740833	0,1	0,020682
0,742500	0,1	0,036109
0,744167	0,1	0,024362
0,745833	0,1	0,010895
0,747500	0,1	0,048951
0,749167	0,1	0,042390
0,750833	0,1	0,016182
0,752500	0,1	0,058718
0,754167	0,1	0,053598
0,755833	0,1	0,038454
0,757500	0,1	0,041580
0,759167	0,1	0,052907
0,760833	0,1	0,053893
0,762500	0,1	0,044748
0,764167	0,1	0,006820
0,765833	0,1	0,062599
0,767500	0,1	0,063072
0,769167	0,1	0,064228
0,770833	0,1	0,027206
0,772500	0,1	0,056571
0,774167	0,1	0,088691
0,775833	0,1	0,060448
0,777500	0,1	0,042580
0,779167	0,1	0,024823
0,780833	0,1	0,054179
0,782500	0,1	0,025391
0,784167	0,1	0,057858
0,785833	0,1	0,041050
0,787500	0,1	0,009874
0,789167	0,1	0,029233
0,790833	0,1	0,061351
0,792500	0,1	0,036841
0,794167	0,1	0,006906
0,795833	0,1	0,023036
0,797500	0,1	0,021228
0,799167	0,1	0,037638
0,800833	0,1	0,044396
0,802500	0,1	0,049068
0,804167	0,1	0,021572
0,805833	0,1	0,050023
0,807500	0,1	-0,006183
0,809167	0,1	0,048248
0,810833	0,1	0,065479
0,812500	0,1	0,042012
0,814167	0,1	0,010116
0,815833	0,1	0,009791
0,817500	0,1	0,033314
0,819167	0,1	-0,036465
0,820833	0,1	0,003854
0,822500	0,1	0,004803
0,824167	0,1	0,022369
0,825833	0,1	0,019396
0,827500	0,1	0,025669
0,829167	0,1	-0,013248
0,830833	0,1	-0,014001
0,832500	0,1	0,024077
0,834167	0,1	0,034757
0,835833	0,1	0,021166
0,837500	0,1	0,010731
0,839167	0,1	-0,026038
0,840833	0,1	-0,012538
0,842500	0,1	-0,014436
0,844167	0,1	0,010756
0,845833	0,1	-0,094986
0,847500	0,1	-0,028212
0,849167	0,1	-0,005047
0,850833	0,1	0,013834
0,852500	0,1	-0,036445
0,854167	0,1	-0,012804
0,855833	0,1	-0,046618
0,857500	0,1	-0,007681
0,859167	0,1	-0,000328
0,860833	0,1	-0,009903
0,862500	0,1	-0,007485
0,864167	0,1	-0,013093
0,865833	0,1	0,019976
0,867500	0,1	-0,017459
0,869167	0,1	-0,000089
0,870833	0,1	-0,035348
0,872500	0,1	0,062939
0,874167	0,1	-0,039629
0,875833	0,1	-0,064994
0,877500	0,1	-0,007748
0,879167	0,1	-0,032830
0,880833	0,1	-0,037045
0,882500	0,1	0,018551
0,884167	0,1	-0,000485
0,885833	0,1	-0,025538
0,887500	0,1	0,047545
0,889167	0,1	-0,011551
0,890833	0,1	0,008063
0,892500	0,1	-0,034865
0,894167	0,1	-0,009911
0,895833	0,1	-0,009579
0,897500	0,1	0,008520
0,899167	0,1	-0,041729
0,900833	0,1	-0,005377
0,902500	0,1	-0,046935
0,904167	0,1	-0,025278
0,905833	0,1	-0,059252
0,907500	0,1	0,011781
0,909167	0,1	0,030064
0,910833	0,1	-0,022630
0,912500	0,1	0,011953
0,914167	0,1	0,009946
0,915833	0,1	-0,007776
0,917500	0,1	-0,001506
0,919167	0,1	-0,032510
0,920833	0,1	-0,031306
0,922500	0,1	-0,006453
0,924167	0,1	-0,012099
0,925833	0,1	0,006939
0,927500	0,1	-0,017408
0,929167	0,1	-0,023821
0,930833	0,1	-0,019020
0,932500	0,1	-0,003595
0,934167	0,1	0,007367
0,935833	0,1	-0,015151
0,937500	0,1	0,002596
0,939167	0,1	-0,013362
0,940833	0,1	0,015392
0,942500	0,1	-0,014592
0,944167	0,1	0,012895
0,945833	0,1	0,006595
0,947500	0,1	0,034699
0,949167	0,1	-0,011934
0,950833	0,1	0,035927
0,952500	0,1	0,003995
0,954167	0,1	0,009603
0,955833	0,1	0,018290
0,957500	0,1	-0,019119
0,959167	0,1	0,020292
0,960833	0,1	-0,013086
0,962500	0,1	-0,051201
0,964167	0,1	0,015778
0,965833	0,1	0,016874
0,967500	0,1	0,009116
0,969167	0,1	0,038998
0,970833	0,1	0,045061
0,972500	0,1	0,009364
0,974167	0,1	0,025404
0,975833	0,1	0,010656
0,977500	0,1	0,009039
0,979167	0,1	0,044007
0,980833	0,1	0,015811
0,982500	0,1	0,013383
0,984167	0,1	0,044554
0,985833	0,1	0,020416
0,987500	0,1	0,055172
0,989167	0,1	0,022350
0,990833	0,1	0,030230
0,992500	0,1	0,029272
0,994167	0,1	0,066685
0,995833	0,1	0,054540
0,997500	0,1	0,053106
0,999167	0,1	0,061673
1,000833	0,1	0,041586
1,002500	0,1	0,072286
1,004167	0,1	0,056746
1,005833	0,1	0,114302
1,007500	0,1	0,046105
1,009167	0,1	0,078278
1,010833	0,1	0,105162
1,012500	0,1	0,068767
1,014167	0,1	0,090448
1,015833	0,1	0,100274
1,017500	0,1	0,072039
1,019167	0,1	0,122307
1,020833	0,1	0,120332
1,022500	0,1	0,157916
1,024167	0,1	0,112999
1,025833	0,1	0,122186
1,027500	0,1	0,177199
1,029167	0,1	0,179089
1,030833	0,1	0,180598
1,032500	0,1	0,196164
1,034167	0,1	0,181981
1,035833	0,1	0,169374
1,037500	0,1	0,216603
1,039167	0,1	0,166072
1,040833	0,1	0,179104
1,042500	0,1	0,178278
1,044167	0,1	0,241426
1,045833	0,1	0,262124
1,047500	0,1	0,233939
1,049167	0,1	0,308076
1,050833	0,1	0,372020
1,052500	0,1	0,449715
1,054167	0,1	0,579040
1,055833	0,1	0,726460
1,057500	0,1	0,974679
1,059167	0,1	1,317269
1,060833	0,1	1,810847
1,062500	0,1	2,449448
1,064167	0,1	3,287224
1,065833	0,1	4,438753
1,067500	0,1	5,881981
1,069167	0,1	7,627523
1,070833	0,1	9,860656
1,072500	0,1	12,524030
1,074167	0,1	15,708003
1,075833	0,1	19,357891
1,077500	0,1	23,547075
1,079167	0,1	28,282646
1,080833	0,1	33,584359
1,082500	0,1	39,284443
1,084167	0,1	45,432523
1,085833	0,1	52,026674
1,087500	0,1	58,847008
1,089167	0,1	65,917520
1,090833	0,1	73,161039
1,092500	0,1	80,417984
1,094167	0,1	87,631757
1,095833	0,1	94,731581
1,097500	0,1	101,602109
1,099167	0,1	108,235172
1,100833	0,1	114,423458
1,102500	0,1	120,309221
1,104167	0,1	125,722175
1,105833	0,1	130,619204
1,107500	0,1	134,943960
1,109167	0,1	138,757000
1,110833	0,1	142,105248
1,112500	0,1	144,772969
1,114167	0,1	146,894777
1,115833	0,1	148,545753
1,117500	0,1	149,586730
1,119167	0,1	150,081144
1,120833	0,1	150,063252
1,122500	0,1	149,573225
1,124167	0,1	148,633461
1,125833	0,1	147,322663
1,127500	0,1	145,515690
1,129167	0,1	143,393459
1,130833	0,1	140,949085
1,132500	0,1	138,148032
1,134167	0,1	135,198020
1,135833	0,1	131,910072
1,137500	0,1	128,503064
1,139167	0,1	124,846139
1,140833	0,1	121,149646
1,142500	0,1	117,239405
1,144167	0,1	113,311075
1,145833	0,1	109,346498
1,147500	0,1	105,344845
1,149167	0,1	101,347846
1,150833	0,1	97,295427
1,152500	0,1	93,410335
1,154167	0,1	89,482512
1,155833	0,1	85,650007
1,157500	0,1	81,900889
1,159167	0,1	78,213457
1,160833	0,1	74,675092
1,162500	0,1	71,196600
1,164167	0,1	67,812952
1,165833	0,1	64,559872
1,167500	0,1	61,481111
1,169167	0,1	58,484714
1,170833	0,1	55,574203
1,172500	0,1	52,810354
1,174167	0,1	50,168122
1,175833	0,1	47,653970
1,177500	0,1	45,097862
1,179167	0,1	42,834951
1,180833	0,1	40,584188
1,182500	0,1	38,516395
1,184167	0,1	36,422602
1,185833	0,1	34,509289
1,187500	0,1	32,658768
1,189167	0,1	30,899556
1,190833	0,1	29,302993
1,192500	0,1	27,746878
1,194167	0,1	26,240034
1,195833	0,1	24,826970
1,197500	0,1	23,498107
1,199167	0,1	22,216994
1,200833	0,1	21,074653
1,202500	0,1	19,919189
1,204167	0,1	18,900798
1,205833	0,1	17,882794
1,207500	0,1	16,936750
1,209167	0,1	16,078398
1,210833	0,1	15,277442
1,212500	0,1	14,459103
1,214167	0,1	13,733479
1,215833	0,1	13,011027
1,217500	0,1	12,389045
1,219167	0,1	11,777562
1,220833	0,1	11,207567
1,222500	0,1	10,624259
1,224167	0,1	10,158214
1,225833	0,1	9,631318
1,227500	0,1	9,216866
1,229167	0,1	8,841204
1,230833	0,1	8,404107
1,232500	0,1	8,016765
1,234167	0,1	7,658950
1,235833	0,1	7,326053
1,237500	0,1	7,015239
1,239167	0,1	6,703039
1,240833	0,1	6,434790
1,242500	0,1	6,173923
1,244167	0,1	5,900784
1,245833	0,1	5,662587
1,247500	0,1	5,472147
1,249167	0,1	5,261550
1,250833	0,1	5,030032
1,252500	0,1	4,860091
1,254167	0,1	4,675682
1,255833	0,1	4,519807
1,257500	0,1	4,313988
1,259167	0,1	4,175127
1,260833	0,1	4,024485
1,262500	0,1	3,866746
1,264167	0,1	3,723342
1,265833	0,1	3,638997
1,267500	0,1	3,525538
1,269167	0,1	3,421505
1,270833	0,1	3,302610
1,272500	0,1	3,176634
1,274167	0,1	3,103614
1,275833	0,1	3,012147
1,277500	0,1	2,916033
1,279167	0,1	2,790219
1,280833	0,1	2,762671
1,282500	0,1	2,691255
1,284167	0,1	2,588280
1,285833	0,1	2,503209
1,287500	0,1	2,486152
1,289167	0,1	2,414231
1,290833	0,1	2,323930
1,292500	0,1	2,281166
1,294167	0,1	2,202963
1,295833	0,1	2,210420
1,297500	0,1	2,139164
1,299167	0,1	2,088367
1,300833	0,1	2,064131
1,302500	0,1	1,989171
1,304167	0,1	1,915403
1,305833	0,1	1,921347
1,307500	0,1	1,889230
1,309167	0,1	1,858944
1,310833	0,1	1,793107
1,312500	0,1	1,795637
1,314167	0,1	1,747372
1,315833	0,1	1,700433
1,317500	0,1	1,659465
1,319167	0,1	1,656286
1,320833	0,1	1,621040
1,322500	0,1	1,598712
1,324167	0,1	1,583602
1,325833	0,1	1,533469
1,327500	0,1	1,530861
1,329167	0,1	1,484024
1,330833	0,1	1,539415
1,332500	0,1	1,453463
1,334167	0,1	1,460266
1,335833	0,1	1,508479
1,337500	0,1	1,418009
1,339167	0,1	1,419986
1,340833	0,1	1,398906
1,342500	0,1	1,396318
1,344167	0,1	1,363335
1,345833	0,1	1,345247
1,347500	0,1	1,366430
1,349167	0,1	1,326928
1,350833	0,1	1,406684
1,352500	0,1	1,332344
1,354167	0,1	1,376154
1,355833	0,1	1,382691
1,357500	0,1	1,345071
1,359167	0,1	1,341358
1,360833	0,1	1,319940
1,362500	0,1	1,331135
1,364167	0,1	1,350919
1,365833	0,1	1,390474
1,367500	0,1	1,318884
1,369167	0,1	1,346932
1,370833	0,1	1,309136
1,372500	0,1	1,317513
1,374167	0,1	1,341937
1,375833	0,1	1,320111
1,377500	0,1	1,313649
1,379167	0,1	1,333311
1,380833	0,1	1,352211
1,382500	0,1	1,309836
1,384167	0,1	1,347395
1,385833	0,1	1,322584
1,387500	0,1	1,327098
1,389167	0,1	1,321168
1,390833	0,1	1,362902
1,392500	0,1	1,341725
1,394167	0,1	1,329565
1,395833	0,1	1,365589
1,397500	0,1	1,358212
1,399167	0,1	1,319298
1,400833	0,1	1,377563
1,402500	0,1	1,382440
1,404167	0,1	1,340128
1,405833	0,1	1,311125
1,407500	0,1	1,351733
1,409167	0,1	1,319280
1,410833	0,1	1,321450
1,412500	0,1	1,323267
1,414167	0,1	1,364719
1,415833	0,1	1,312542
1,417500	0,1	1,342883
1,419167	0,1	1,311186
1,420833	0,1	1,316049
1,422500	0,1	1,317161
1,424167	0,1	1,306780
1,425833	0,1	1,316402
1,427500	0,1	1,308011
1,429167	0,1	1,333481
1,430833	0,1	1,324036
1,432500	0,1	1,329146
1,434167	0,1	1,323741
1,435833	0,1	1,331841
1,437500	0,1	1,285545
1,439167	0,1	1,303019
1,440833	0,1	1,310236
1,442500	0,1	1,325269
1,444167	0,1	1,335017
1,445833	0,1	1,270286
1,447500	0,1	1,342624
1,449167	0,1	1,302214
1,450833	0,1	1,329545
1,452500	0,1	1,294396
1,454167	0,1	1,308652
1,455833	0,1	1,320216
1,457500	0,1	1,294170
1,459167	0,1	1,316640
1,460833	0,1	1,335472
1,462500	0,1	1,316951
1,464167	0,1	1,325383
1,465833	0,1	1,347036
1,467500	0,1	1,310481
1,469167	0,1	1,361358
1,470833	0,1	1,293414
1,472500	0,1	1,339107
1,474167	0,1	1,354565
1,475833	0,1	1,340413
1,477500	0,1	1,354373
1,479167	0,1	1,389486
1,480833	0,1	1,400645
1,482500	0,1	1,382576
1,484167	0,1	1,403821
1,485833	0,1	1,413685
1,487500	0,1	1,405474
1,489167	0,1	1,428951
1,490833	0,1	1,455972
1,492500	0,1	1,402962
1,494167	0,1	1,441917
1,495833	0,1	1,412351
1,497500	0,1	1,428479
1,499167	0,1	1,442774
1,500833	0,1	1,468050
1,502500	0,1	1,440188
1,504167	0,1	1,459265
1,505833	0,1	1,488442
1,507500	0,1	1,498894
1,509167	0,1	1,445483
1,510833	0,1	1,476289
1,512500	0,1	1,468326
1,514167	0,1	1,453848
1,515833	0,1	1,469125
1,517500	0,1	1,481231
1,519167	0,1	1,536940
1,520833	0,1	1,493276
1,522500	0,1	1,512459
1,524167	0,1	1,464730
1,525833	0,1	1,497364
1,527500	0,1	1,486064
1,529167	0,1	1,513348
1,530833	0,1	1,453067
1,532500	0,1	1,492011
1,534167	0,1	1,462080
1,535833	0,1	1,476878
1,537500	0,1	1,467437
1,539167	0,1	1,448864
1,540833	0,1	1,437296
1,542500	0,1	1,408123
1,544167	0,1	1,410466
1,545833	0,1	1,419680
1,547500	0,1	1,374085
1,549167	0,1	1,412325
1,550833	0,1	1,391861
1,552500	0,1	1,397316
1,554167	0,1	1,370771
1,555833	0,1	1,350517
1,557500	0,1	1,352732
1,559167	0,1	1,344762
1,560833	0,1	1,328558
1,562500	0,1	1,319686
1,564167	0,1	1,311705
1,565833	0,1	1,302551
1,567500	0,1	1,308239
1,569167	0,1	1,271262
1,570833	0,1	1,265683
1,572500	0,1	1,284463
1,574167	0,1	1,251418
1,575833	0,1	1,202657
1,577500	0,1	1,237203
1,579167	0,1	1,263147
1,580833	0,1	1,180423
1,582500	0,1	1,204811
1,584167	0,1	1,222472
1,585833	0,1	1,185629
1,587500	0,1	1,145313
1,589167	0,1	1,180156
1,590833	0,1	1,176106
1,592500	0,1	1,168307
1,594167	0,1	1,152051
1,595833	0,1	1,170188
1,597500	0,1	1,183329
1,599167	0,1	1,219005
1,600833	0,1	1,203290
1,602500	0,1	1,206334
1,604167	0,1	1,168844
1,605833	0,1	1,234967
1,607500	0,1	1,254520
1,609167	0,1	1,242080
1,610833	0,1	1,294142
1,612500	0,1	1,307722
1,614167	0,1	1,363182
1,615833	0,1	1,438397
1,617500	0,1	1,489560
1,619167	0,1	1,539186
1,620833	0,1	1,632227
1,622500	0,1	1,756630
1,624167	0,1	1,836370
1,625833	0,1	1,979788
1,627500	0,1	2,103632
1,629167	0,1	2,319291
1,630833	0,1	2,490740
1,632500	0,1	2,742852
1,634167	0,1	3,007029
1,635833	0,1	3,298522
1,637500	0,1	3,654835
1,639167	0,1	4,043705
1,640833	0,1	4,486551
1,642500	0,1	4,991388
1,644167	0,1	5,564894
1,645833	0,1	6,230725
1,647500	0,1	6,930711
1,649167	0,1	7,755076
1,650833	0,1	8,611275
1,652500	0,1	9,617843
1,654167	0,1	10,761118
1,655833	0,1	11,964059
1,657500	0,1	13,283109
1,659167	0,1	14,771267
1,660833	0,1	16,386744
1,662500	0,1	18,214046
1,664167	0,1	20,082458
1,665833	0,1	22,239418
1,667500	0,1	24,527091
1,669167	0,1	26,997908
1,670833	0,1	29,673347
1,672500	0,1	32,570006
1,674167	0,1	35,648102
1,675833	0,1	38,933697
1,677500	0,1	42,460382
1,679167	0,1	46,205600
1,680833	0,1	50,225218
1,682500	0,1	54,432084
1,684167	0,1	58,880691
1,685833	0,1	63,620299
1,687500	0,1	68,509394
1,689167	0,1	73,733690
1,690833	0,1	79,160025
1,692500	0,1	84,856083
1,694167	0,1	90,715914
1,695833	0,1	96,843599
1,697500	0,1	103,204778
1,699167	0,1	109,707918
1,700833	0,1	116,478717
1,702500	0,1	123,386005
1,704167	0,1	130,565771
1,705833	0,1	137,868288
1,707500	0,1	145,260854
1,709167	0,1	152,826301
1,710833	0,1	160,558340
1,712500	0,1	168,340224
1,714167	0,1	176,215132
1,715833	0,1	184,155524
1,717500	0,1	192,157972
1,719167	0,1	200,213800
1,720833	0,1	208,170772
1,722500	0,1	216,149808
1,724167	0,1	224,174418
1,725833	0,1	232,064271
1,727500	0,1	239,960269
1,729167	0,1	247,700827
1,730833	0,1	255,344860
1,732500	0,1	262,882220
1,734167	0,1	270,208110
1,735833	0,1	277,477146
1,737500	0,1	284,423515
1,739167	0,1	291,194650
1,740833	0,1	297,758838
1,742500	0,1	304,173063
1,744167	0,1	310,266698
1,745833	0,1	316,035451
1,747500	0,1	321,639218
1,749167	0,1	326,859971
1,750833	0,1	331,799121
1,752500	0,1	336,522127
1,754167	0,1	340,832785
1,755833	0,1	344,895045
1,757500	0,1	348,612299
1,759167	0,1	352,025918
1,760833	0,1	355,115573
1,762500	0,1	357,878570
1,764167	0,1	360,221130
1,765833	0,1	362,299156
1,767500	0,1	363,986865
1,769167	0,1	365,357616
1,770833	0,1	366,476862
1,772500	0,1	367,158305
1,774167	0,1	367,515523
1,775833	0,1	367,649158
1,777500	0,1	367,471394
1,779167	0,1	366,943798
1,780833	0,1	366,071865
1,782500	0,1	364,984767
1,784167	0,1	363,619457
1,785833	0,1	361,895223
1,787500	0,1	359,876047
1,789167	0,1	357,744210
1,790833	0,1	355,293988
1,792500	0,1	352,581202
1,794167	0,1	349,620360
1,795833	0,1	346,486525
1,797500	0,1	343,088577
1,799167	0,1	339,581862
1,800833	0,1	335,835239
1,802500	0,1	331,917922
1,804167	0,1	327,836288
1,805833	0,1	323,633880
1,807500	0,1	319,210214
1,809167	0,1	314,716016
1,810833	0,1	310,054367
1,812500	0,1	305,364500
1,814167	0,1	300,498306
1,815833	0,1	295,598318
1,817500	0,1	290,600809
1,819167	0,1	285,506893
1,820833	0,1	280,445824
1,822500	0,1	275,242127
1,824167	0,1	270,002382
1,825833	0,1	264,761785
1,827500	0,1	259,486486
1,829167	0,1	254,279728
1,830833	0,1	248,894068
1,832500	0,1	243,682879
1,834167	0,1	238,459398
1,835833	0,1	233,200214
1,837500	0,1	228,015514
1,839167	0,1	222,801337
1,840833	0,1	217,635882
1,842500	0,1	212,528756
1,844167	0,1	207,488053
1,845833	0,1	202,501252
1,847500	0,1	197,531830
1,849167	0,1	192,696887
1,850833	0,1	187,868808
1,852500	0,1	183,109310
1,854167	0,1	178,422303
1,855833	0,1	173,837206
1,857500	0,1	169,329172
1,859167	0,1	164,878395
1,860833	0,1	160,473740
1,862500	0,1	156,198299
1,864167	0,1	152,029327
1,865833	0,1	147,902294
1,867500	0,1	143,861729
1,869167	0,1	139,952786
1,870833	0,1	136,114727
1,872500	0,1	132,404846
1,874167	0,1	128,655224
1,875833	0,1	125,044620
1,877500	0,1	121,577339
1,879167	0,1	118,171091
1,880833	0,1	114,811642
1,882500	0,1	111,607390
1,884167	0,1	108,410328
1,885833	0,1	105,352130
1,887500	0,1	102,376510
1,889167	0,1	99,443031
1,890833	0,1	96,603206
1,892500	0,1	93,854567
1,894167	0,1	91,174702
1,895833	0,1	88,586960
1,897500	0,1	86,055925
1,899167	0,1	83,595295
1,900833	0,1	81,186939
1,902500	0,1	78,810981
1,904167	0,1	76,558141
1,905833	0,1	74,424267
1,907500	0,1	72,248423
1,909167	0,1	70,203823
1,910833	0,1	68,160315
1,912500	0,1	66,233836
1,914167	0,1	64,378637
1,915833	0,1	62,495249
1,917500	0,1	60,748856
1,919167	0,1	59,013173
1,920833	0,1	57,337077
1,922500	0,1	55,746496
1,924167	0,1	54,175310
1,925833	0,1	52,683188
1,927500	0,1	51,185888
1,929167	0,1	49,755756
1,930833	0,1	48,407526
1,932500	0,1	47,008960
1,934167	0,1	45,727944
1,935833	0,1	44,476733
1,937500	0,1	43,210005
1,939167	0,1	42,112723
1,940833	0,1	40,898277
1,942500	0,1	39,827918
1,944167	0,1	38,775612
1,945833	0,1	37,719540
1,947500	0,1	36,715616
1,949167	0,1	35,761710
1,950833	0,1	34,863060
1,952500	0,1	33,971116
1,954167	0,1	33,061062
1,955833	0,1	32,250732
1,957500	0,1	31,375614
1,959167	0,1	30,588039
1,960833	0,1	29,853105
1,962500	0,1	29,134936
1,964167	0,1	28,379325
1,965833	0,1	27,732317
1,967500	0,1	27,059867
1,969167	0,1	26,432083
1,970833	0,1	25,790855
1,972500	0,1	25,238978
1,974167	0,1	24,612210
1,975833	0,1	24,078218
1,977500	0,1	23,546106
1,979167	0,1	23,037183
1,980833	0,1	22,543228
1,982500	0,1	22,098239
1,984167	0,1	21,600310
1,985833	0,1	21,176392
1,987500	0,1	20,732464
1,989167	0,1	20,365183
1,990833	0,1	19,949556
1,992500	0,1	19,573903
1,994167	0,1	19,215153
1,995833	0,1	18,838726
1,997500	0,1	18,539763
1,999167	0,1	18,198049
2,000833	0,1	17,878315
2,002500	0,1	17,560575
2,004167	0,1	17,288340
2,005833	0,1	16,978787
2,007500	0,1	16,729399
2,009167	0,1	16,487787
2,010833	0,1	16,224931
2,012500	0,1	16,007802
2,014167	0,1	15,802051
2,015833	0,1	15,605295
2,017500	0,1	15,355760
2,019167	0,1	15,191838
2,020833	0,1	14,980601
2,022500	0,1	14,832368
2,024167	0,1	14,615625
2,025833	0,1	14,493169
2,027500	0,1	14,331897
2,029167	0,1	14,177388
2,030833	0,1	14,086562
2,032500	0,1	13,916403
2,034167	0,1	13,770404
2,035833	0,1	13,692525
2,037500	0,1	13,547457
2,039167	0,1	13,407384
2,040833	0,1	13,379694
2,042500	0,1	13,228186
2,044167	0,1	13,143657
2,045833	0,1	13,037225
2,047500	0,1	12,998618
2,049167	0,1	12,864069
2,050833	0,1	12,839761
2,052500	0,1	12,776931
2,054167	0,1	12,723460
2,055833	0,1	12,646231
2,057500	0,1	12,550589
2,059167	0,1	12,492432
2,060833	0,1	12,467576
2,062500	0,1	12,405089
2,064167	0,1	12,323338
2,065833	0,1	12,306159
2,067500	0,1	12,270952
2,069167	0,1	12,200713
2,070833	0,1	12,186576
2,072500	0,1	12,170294
2,074167	0,1	12,109839
2,075833	0,1	12,133317
2,077500	0,1	12,070278
2,079167	0,1	12,058411
2,080833	0,1	12,010426
2,082500	0,1	11,993763
2,084167	0,1	11,933946
2,085833	0,1	11,886732
2,087500	0,1	11,892458
2,089167	0,1	11,866107
2,090833	0,1	11,847810
2,092500	0,1	11,821611
2,094167	0,1	11,771615
2,095833	0,1	11,765821
2,097500	0,1	11,754085
2,099167	0,1	11,752144
2,100833	0,1	11,698194
2,102500	0,1	11,683339
2,104167	0,1	11,625768
2,105833	0,1	11,650130
2,107500	0,1	11,598676
2,109167	0,1	11,595465
2,110833	0,1	11,546082
2,112500	0,1	11,534126
2,114167	0,1	11,500225
2,115833	0,1	11,474099
2,117500	0,1	11,460940
2,119167	0,1	11,392914
2,120833	0,1	11,381981
2,122500	0,1	11,327894
2,124167	0,1	11,319158
2,125833	0,1	11,281990
2,127500	0,1	11,277282
2,129167	0,1	11,225794
2,130833	0,1	11,134052
2,132500	0,1	11,134552
2,134167	0,1	11,109597
2,135833	0,1	11,069103
2,137500	0,1	11,035944
2,139167	0,1	10,994032
2,140833	0,1	10,950382
2,142500	0,1	10,885411
2,144167	0,1	10,890746
2,145833	0,1	10,819268
2,147500	0,1	10,798929
2,149167	0,1	10,736520
2,150833	0,1	10,668277
2,152500	0,1	10,653953
2,154167	0,1	10,615616
2,155833	0,1	10,557363
2,157500	0,1	10,528991
2,159167	0,1	10,504258
2,160833	0,1	10,460275
2,162500	0,1	10,421186
2,164167	0,1	10,371456
2,165833	0,1	10,328720
2,167500	0,1	10,306656
2,169167	0,1	10,210353
2,170833	0,1	10,214283
2,172500	0,1	10,173846
2,174167	0,1	10,089545
2,175833	0,1	10,055630
2,177500	0,1	9,990889
2,179167	0,1	9,953055
2,180833	0,1	9,904394
2,182500	0,1	9,836034
2,184167	0,1	9,820104
2,185833	0,1	9,789982
2,187500	0,1	9,736499
2,189167	0,1	9,681451
2,190833	0,1	9,616296
2,192500	0,1	9,608846
2,194167	0,1	9,578867
2,195833	0,1	9,468618
2,197500	0,1	9,470924
2,199167	0,1	9,420263
2,200833	0,1	9,362179
2,202500	0,1	9,339831
2,204167	0,1	9,277900
2,205833	0,1	9,248960
2,207500	0,1	9,204711
2,209167	0,1	9,155300
2,210833	0,1	9,106180
2,212500	0,1	9,061749
2,214167	0,1	8,966555
2,215833	0,1	8,944940
2,217500	0,1	8,884117
2,219167	0,1	8,846095
2,220833	0,1	8,826192
2,222500	0,1	8,764822
2,224167	0,1	8,718461
2,225833	0,1	8,675671
2,227500	0,1	8,631672
2,229167	0,1	8,565621
2,230833	0,1	8,586911
2,232500	0,1	8,463400
2,234167	0,1	8,443589
2,235833	0,1	8,379000
2,237500	0,1	8,339234
2,239167	0,1	8,307190
2,240833	0,1	8,229267
2,242500	0,1	8,202652
2,244167	0,1	8,159357
2,245833	0,1	8,101060
2,247500	0,1	8,066300
2,249167	0,1	8,033303
2,250833	0,1	7,974697
2,252500	0,1	7,908476
2,254167	0,1	7,911931
2,255833	0,1	7,849533
2,257500	0,1	7,798326
2,259167	0,1	7,757776
2,260833	0,1	7,715476
2,262500	0,1	7,703639
2,264167	0,1	7,579169
2,265833	0,1	7,584006
2,267500	0,1	7,514104
2,269167	0,1	7,510285
2,270833	0,1	7,470122
2,272500	0,1	7,411311
2,274167	0,1	7,371470
2,275833	0,1	7,344467
2,277500	0,1	7,285702
2,279167	0,1	7,246874
2,280833	0,1	7,221319
2,282500	0,1	7,190751
2,284167	0,1	7,138395
2,285833	0,1	7,106322
2,287500	0,1	7,093142
2,289167	0,1	7,068761
2,290833	0,1	7,003764
2,292500	0,1	6,987996
2,294167	0,1	6,955915
2,295833	0,1	6,893807
2,297500	0,1	6,877045
2,299167	0,1	6,821690
2,300833	0,1	6,786965
2,302500	0,1	6,765443
2,304167	0,1	6,780813
2,305833	0,1	6,714104
2,307500	0,1	6,648272
2,309167	0,1	6,632453
2,310833	0,1	6,578241
2,312500	0,1	6,606593
2,314167	0,1	6,529545
2,315833	0,1	6,534400
2,317500	0,1	6,481477
2,319167	0,1	6,437896
2,320833	0,1	6,432860
2,322500	0,1	6,433500
2,324167	0,1	6,371007
2,325833	0,1	6,337957
2,327500	0,1	6,351298
2,329167	0,1	6,307911
2,330833	0,1	6,285992
2,332500	0,1	6,271168
2,334167	0,1	6,248679
2,335833	0,1	6,199950
2,337500	0,1	6,193898
2,339167	0,1	6,122411
2,340833	0,1	6,117619
2,342500	0,1	6,104930
2,344167	0,1	6,069435
2,345833	0,1	6,080807
2,347500	0,1	6,032063
2,349167	0,1	6,078066
2,350833	0,1	5,962234
2,352500	0,1	5,982717
2,354167	0,1	5,957280
2,355833	0,1	5,937328
2,357500	0,1	5,837751
2,359167	0,1	5,839917
2,360833	0,1	5,847102
2,362500	0,1	5,843681
2,364167	0,1	5,805836
2,365833	0,1	5,804405
2,367500	0,1	5,803180
2,369167	0,1	5,737702
2,370833	0,1	5,726886
2,372500	0,1	5,748659
2,374167	0,1	5,688185
2,375833	0,1	5,663775
2,377500	0,1	5,633978
2,379167	0,1	5,645184
2,380833	0,1	5,620823
2,382500	0,1	5,610431
2,384167	0,1	5,563756
2,385833	0,1	5,594802
2,387500	0,1	5,520489
2,389167	0,1	5,542208
2,390833	0,1	5,516565
2,392500	0,1	5,463135
2,394167	0,1	5,470629
2,395833	0,1	5,429778
2,397500	0,1	5,449606
2,399167	0,1	5,449453
2,400833	0,1	5,398231
2,402500	0,1	5,379370
2,404167	0,1	5,413643
2,405833	0,1	5,309806
2,407500	0,1	5,363160
2,409167	0,1	5,326867
2,410833	0,1	5,311377
2,412500	0,1	5,269674
2,414167	0,1	5,250275
2,415833	0,1	5,286549
2,417500	0,1	5,268729
2,419167	0,1	5,223827
2,420833	0,1	5,177877
2,422500	0,1	5,201968
2,424167	0,1	5,173467
2,425833	0,1	5,194932
2,427500	0,1	5,129195
2,429167	0,1	5,119907
2,430833	0,1	5,112985
2,432500	0,1	5,094328
2,434167	0,1	5,061285
2,435833	0,1	5,055872
2,437500	0,1	5,067383
2,439167	0,1	5,030632
2,440833	0,1	5,058184
2,442500	0,1	5,018660
2,444167	0,1	5,038127
2,445833	0,1	5,003622
2,447500	0,1	4,977400
2,449167	0,1	4,982429
2,450833	0,1	4,938657
2,452500	0,1	4,965704
2,454167	0,1	4,947844
2,455833	0,1	4,885769
2,457500	0,1	4,942387
2,459167	0,1	4,898535
2,460833	0,1	4,881007
2,462500	0,1	4,888029
2,464167	0,1	4,879610
2,465833	0,1	4,808090
2,467500	0,1	4,790320
2,469167	0,1	4,870398
2,470833	0,1	4,793437
2,472500	0,1	4,771368
2,474167	0,1	4,807276
2,475833	0,1	4,794438
2,477500	0,1	4,727768
2,479167	0,1	4,802001
2,480833	0,1	4,767603
2,482500	0,1	4,741276
2,484167	0,1	4,739893
2,485833	0,1	4,656773
2,487500	0,1	4,764708
2,489167	0,1	4,714719
2,490833	0,1	4,755490
2,492500	0,1	4,720013
2,494167	0,1	4,692026
2,495833	0,1	4,697272
2,497500	0,1	4,649780
2,499167	0,1	4,687982
2,500833	0,1	4,650515
2,502500	0,1	4,690708
2,504167	0,1	4,658112
2,505833	0,1	4,606584
2,507500	0,1	4,651221
2,509167	0,1	4,627025
2,510833	0,1	4,661609
2,512500	0,1	4,595588
2,514167	0,1	4,589857
2,515833	0,1	4,629523
2,517500	0,1	4,643408
2,519167	0,1	4,611761
2,520833	0,1	4,611464
2,522500	0,1	4,603821
2,524167	0,1	4,597301
2,525833	0,1	4,594196
2,527500	0,1	4,581699
2,529167	0,1	4,589905
2,530833	0,1	4,599439
2,532500	0,1	4,587669
2,534167	0,1	4,587903
2,535833	0,1	4,554366
2,537500	0,1	4,588747
2,539167	0,1	4,550977
2,540833	0,1	4,542213
2,542500	0,1	4,563100
2,544167	0,1	4,564481
2,545833	0,1	4,561633
2,547500	0,1	4,551748
2,549167	0,1	4,572560
2,550833	0,1	4,506009
2,552500	0,1	4,524928
2,554167	0,1	4,550800
2,555833	0,1	4,529918
2,557500	0,1	4,543497
2,559167	0,1	4,544673
2,560833	0,1	4,560274
2,562500	0,1	4,577850
2,564167	0,1	4,541355
2,565833	0,1	4,550452
2,567500	0,1	4,590034
2,569167	0,1	4,582976
2,570833	0,1	4,572717
2,572500	0,1	4,563907
2,574167	0,1	4,565193
2,575833	0,1	4,590613
2,577500	0,1	4,559411
2,579167	0,1	4,575313
2,580833	0,1	4,602399
2,582500	0,1	4,603356
2,584167	0,1	4,582928
2,585833	0,1	4,555942
2,587500	0,1	4,611865
2,589167	0,1	4,609063
2,590833	0,1	4,612328
2,592500	0,1	4,632495
2,594167	0,1	4,626782
2,595833	0,1	4,636914
2,597500	0,1	4,619477
2,599167	0,1	4,669915
2,600833	0,1	4,662496
2,602500	0,1	4,613792
2,604167	0,1	4,630905
2,605833	0,1	4,612595
2,607500	0,1	4,636810
2,609167	0,1	4,650428
2,610833	0,1	4,662642
2,612500	0,1	4,639675
2,614167	0,1	4,604264
2,615833	0,1	4,674055
2,617500	0,1	4,690988
2,619167	0,1	4,650579
2,620833	0,1	4,665232
2,622500	0,1	4,630217
2,624167	0,1	4,672095
2,625833	0,1	4,646608
2,627500	0,1	4,660527
2,629167	0,1	4,658741
2,630833	0,1	4,612626
2,632500	0,1	4,635323
2,634167	0,1	4,631350
2,635833	0,1	4,665239
2,637500	0,1	4,634660
2,639167	0,1	4,630385
2,640833	0,1	4,623242
2,642500	0,1	4,615659
2,644167	0,1	4,603509
2,645833	0,1	4,605107
2,647500	0,1	4,612488
2,649167	0,1	4,599094
2,650833	0,1	4,562089
2,652500	0,1	4,576326
2,654167	0,1	4,622565
2,655833	0,1	4,614995
2,657500	0,1	4,528207
2,659167	0,1	4,560771
2,660833	0,1	4,569885
2,662500	0,1	4,522056
2,664167	0,1	4,523408
2,665833	0,1	4,535040
2,667500	0,1	4,530278
2,669167	0,1	4,474719
2,670833	0,1	4,455420
2,672500	0,1	4,493690
2,674167	0,1	4,435676
2,675833	0,1	4,461606
2,677500	0,1	4,437117
2,679167	0,1	4,418699
2,680833	0,1	4,386471
2,682500	0,1	4,359497
2,684167	0,1	4,353446
2,685833	0,1	4,382835
2,687500	0,1	4,308300
2,689167	0,1	4,322652
2,690833	0,1	4,317529
2,692500	0,1	4,277739
2,694167	0,1	4,301340
2,695833	0,1	4,260112
2,697500	0,1	4,324154
2,699167	0,1	4,238305
2,700833	0,1	4,221596
2,702500	0,1	4,262822
2,704167	0,1	4,242683
2,705833	0,1	4,203903
2,707500	0,1	4,151983
2,709167	0,1	4,171393
2,710833	0,1	4,181571
2,712500	0,1	4,158976
2,714167	0,1	4,149660
2,715833	0,1	4,118399
2,717500	0,1	4,108137
2,719167	0,1	4,107411
2,720833	0,1	4,104163
2,722500	0,1	4,065468
2,724167	0,1	4,080472
2,725833	0,1	4,071745
2,727500	0,1	4,012187
2,729167	0,1	4,033033
2,730833	0,1	4,014199
2,732500	0,1	3,977673
2,734167	0,1	3,991450
2,735833	0,1	3,994702
2,737500	0,1	3,962008
2,739167	0,1	3,971383
2,740833	0,1	3,964962
2,742500	0,1	3,937392
2,744167	0,1	3,959612
2,745833	0,1	3,912423
2,747500	0,1	3,919843
2,749167	0,1	3,928719
2,750833	0,1	3,930454
2,752500	0,1	3,916166
2,754167	0,1	3,903173
2,755833	0,1	3,897687
2,757500	0,1	3,923015
2,759167	0,1	3,930165
2,760833	0,1	3,857430
2,762500	0,1	3,853876
2,764167	0,1	3,892696
2,765833	0,1	3,890401
2,767500	0,1	3,864995
2,769167	0,1	3,866794
2,770833	0,1	3,870041
2,772500	0,1	3,832234
2,774167	0,1	3,841750
2,775833	0,1	3,838577
2,777500	0,1	3,860006
2,779167	0,1	3,800196
2,780833	0,1	3,853068
2,782500	0,1	3,852580
2,784167	0,1	3,809284
2,785833	0,1	3,835325
2,787500	0,1	3,851708
2,789167	0,1	3,851420
2,790833	0,1	3,858134
2,792500	0,1	3,840531
2,794167	0,1	3,809502
2,795833	0,1	3,823845
2,797500	0,1	3,848816
2,799167	0,1	3,778695
2,800833	0,1	3,765983
2,802500	0,1	3,862877
2,804167	0,1	3,805324
2,805833	0,1	3,783887
2,807500	0,1	3,792897
2,809167	0,1	3,773994
2,810833	0,1	3,819804
2,812500	0,1	3,744420
2,814167	0,1	3,765320
2,815833	0,1	3,771035
2,817500	0,1	3,773135
2,819167	0,1	3,760142
2,820833	0,1	3,798086
2,822500	0,1	3,747742
2,824167	0,1	3,720230
2,825833	0,1	3,698882
2,827500	0,1	3,736255
2,829167	0,1	3,705467
2,830833	0,1	3,676816
2,832500	0,1	3,630434
2,834167	0,1	3,636992
2,835833	0,1	3,626319
2,837500	0,1	3,657188
2,839167	0,1	3,630796
2,840833	0,1	3,570786
2,842500	0,1	3,628611
2,844167	0,1	3,576118
2,845833	0,1	3,535373
2,847500	0,1	3,506451
2,849167	0,1	3,516188
2,850833	0,1	3,511051
2,852500	0,1	3,509130
2,854167	0,1	3,429008
2,855833	0,1	3,481191
2,857500	0,1	3,456122
2,859167	0,1	3,403068
2,860833	0,1	3,376877
2,862500	0,1	3,363318
2,864167	0,1	3,392726
2,865833	0,1	3,400958
2,867500	0,1	3,335061
2,869167	0,1	3,310217
2,870833	0,1	3,303714
2,872500	0,1	3,290231
2,874167	0,1	3,289372
2,875833	0,1	3,218328
2,877500	0,1	3,233363
2,879167	0,1	3,202959
2,880833	0,1	3,183723
2,882500	0,1	3,161757
2,884167	0,1	3,167467
2,885833	0,1	3,163784
2,887500	0,1	3,124697
2,889167	0,1	3,096130
2,890833	0,1	3,073981
2,892500	0,1	3,047419
2,894167	0,1	3,001154
2,895833	0,1	2,994921
2,897500	0,1	3,016201
2,899167	0,1	2,970280
2,900833	0,1	2,968190
2,902500	0,1	2,926001
2,904167	0,1	2,904339
2,905833	0,1	2,888405
2,907500	0,1	2,858978
2,909167	0,1	2,839444
2,910833	0,1	2,823357
2,912500	0,1	2,810329
2,914167	0,1	2,805256
2,915833	0,1	2,756382
2,917500	0,1	2,719270
2,919167	0,1	2,743044
2,920833	0,1	2,680209
2,922500	0,1	2,686670
2,924167	0,1	2,683659
2,925833	0,1	2,634575
2,927500	0,1	2,639385
2,929167	0,1	2,611411
2,930833	0,1	2,630314
2,932500	0,1	2,554816
2,934167	0,1	2,536128
2,935833	0,1	2,530193
2,937500	0,1	2,500779
2,939167	0,1	2,489344
2,940833	0,1	2,475131
2,942500	0,1	2,451765
2,944167	0,1	2,439229
2,945833	0,1	2,426994
2,947500	0,1	2,381592
2,949167	0,1	2,390964
2,950833	0,1	2,361262
2,952500	0,1	2,356079
2,954167	0,1	2,354652
2,955833	0,1	2,317734
2,957500	0,1	2,328531
2,959167	0,1	2,294951
2,960833	0,1	2,261879
2,962500	0,1	2,282741
2,964167	0,1	2,229172
2,965833	0,1	2,255202
2,967500	0,1	2,244503
2,969167	0,1	2,198564
2,970833	0,1	2,180083
2,972500	0,1	2,169957
2,974167	0,1	2,114975
2,975833	0,1	2,174958
2,977500	0,1	2,135802
2,979167	0,1	2,139253
2,980833	0,1	2,132338
2,982500	0,1	2,087219
2,984167	0,1	2,067160
2,985833	0,1	2,069524
2,987500	0,1	2,056237
2,989167	0,1	2,072754
2,990833	0,1	2,033858
2,992500	0,1	2,029220
2,994167	0,1	2,017099
2,995833	0,1	2,007750
2,997500	0,1	1,952499
2,999167	0,1	1,988693
3,000833	0,1	2,027955
3,002500	0,1	1,972570
3,004167	0,1	1,944938
3,005833	0,1	1,911507
3,007500	0,1	1,964593
3,009167	0,1	1,900500
3,010833	0,1	1,923024
3,012500	0,1	1,919507
3,014167	0,1	1,918898
3,015833	0,1	1,873150
3,017500	0,1	1,871595
3,019167	0,1	1,891673
3,020833	0,1	1,895099
3,022500	0,1	1,879001
3,024167	0,1	1,778064
3,025833	0,1	1,806227
3,027500	0,1	1,822851
3,029167	0,1	1,840431
3,030833	0,1	1,849254
3,032500	0,1	1,796047
3,034167	0,1	1,797433
3,035833	0,1	1,827039
3,037500	0,1	1,775422
3,039167	0,1	1,814879
3,040833	0,1	1,765165
3,042500	0,1	1,750372
3,044167	0,1	1,774111
3,045833	0,1	1,739157
3,047500	0,1	1,795731
3,049167	0,1	1,740480
3,050833	0,1	1,716851
3,052500	0,1	1,720863
3,054167	0,1	1,735834
3,055833	0,1	1,696084
3,057500	0,1	1,678858
3,059167	0,1	1,705558
3,060833	0,1	1,696766
3,062500	0,1	1,696454
3,064167	0,1	1,650429
3,065833	0,1	1,667216
3,067500	0,1	1,667205
3,069167	0,1	1,671452
3,070833	0,1	1,617104
3,072500	0,1	1,631659
3,074167	0,1	1,628309
3,075833	0,1	1,616864
3,077500	0,1	1,645687
3,079167	0,1	1,592689
3,080833	0,1	1,576879
3,082500	0,1	1,548269
3,084167	0,1	1,609616
3,085833	0,1	1,534639
3,087500	0,1	1,551598
3,089167	0,1	1,549616
3,090833	0,1	1,532393
3,092500	0,1	1,575159
3,094167	0,1	1,567695
3,095833	0,1	1,526061
3,097500	0,1	1,522882
3,099167	0,1	1,493111
3,100833	0,1	1,516477
3,102500	0,1	1,490174
3,104167	0,1	1,479651
3,105833	0,1	1,476359
3,107500	0,1	1,496745
3,109167	0,1	1,469733
3,110833	0,1	1,452767
3,112500	0,1	1,474645
3,114167	0,1	1,424840
3,115833	0,1	1,465428
3,117500	0,1	1,436267
3,119167	0,1	1,467196
3,120833	0,1	1,410277
3,122500	0,1	1,446464
3,124167	0,1	1,420825
3,125833	0,1	1,465792
3,127500	0,1	1,440777
3,129167	0,1	1,396447
3,130833	0,1	1,416587
3,132500	0,1	1,394222
3,134167	0,1	1,377965
3,135833	0,1	1,370606
3,137500	0,1	1,361334
3,139167	0,1	1,380944
3,140833	0,1	1,340152
3,142500	0,1	1,333754
3,144167	0,1	1,359276
3,145833	0,1	1,343435
3,147500	0,1	1,331286
3,149167	0,1	1,306698
3,150833	0,1	1,319295
3,152500	0,1	1,369765
3,154167	0,1	1,318388
3,155833	0,1	1,340954
3,157500	0,1	1,284925
3,159167	0,1	1,326398
3,160833	0,1	1,283456
3,162500	0,1	1,298872
3,164167	0,1	1,280988
3,165833	0,1	1,296935
3,167500	0,1	1,263266
3,169167	0,1	1,279793
3,170833	0,1	1,273642
3,172500	0,1	1,260025
3,174167	0,1	1,272226
3,175833	0,1	1,236030
3,177500	0,1	1,232794
3,179167	0,1	1,279614
3,180833	0,1	1,235207
3,182500	0,1	1,226279
3,184167	0,1	1,227269
3,185833	0,1	1,225804
3,187500	0,1	1,231847
3,189167	0,1	1,209143
3,190833	0,1	1,220217
3,192500	0,1	1,215016
3,194167	0,1	1,202393
3,195833	0,1	1,211068
3,197500	0,1	1,174525
3,199167	0,1	1,220628
3,200833	0,1	1,193531
3,202500	0,1	1,197512
3,204167	0,1	1,213529
3,205833	0,1	1,174347
3,207500	0,1	1,164478
3,209167	0,1	1,205541
3,210833	0,1	1,168413
3,212500	0,1	1,188351
3,214167	0,1	1,130989
3,215833	0,1	1,189756
3,217500	0,1	1,202089
3,219167	0,1	1,167652
3,220833	0,1	1,161187
3,222500	0,1	1,158190
3,224167	0,1	1,128981
3,225833	0,1	1,179545
3,227500	0,1	1,131097
3,229167	0,1	1,158888
3,230833	0,1	1,148100
3,232500	0,1	1,164521
3,234167	0,1	1,127044
3,235833	0,1	1,162233
3,237500	0,1	1,116892
3,239167	0,1	1,114186
3,240833	0,1	1,066148
3,242500	0,1	1,083670
3,244167	0,1	1,120455
3,245833	0,1	1,117527
3,247500	0,1	1,092426
3,249167	0,1	1,132948
3,250833	0,1	1,090553
3,252500	0,1	1,101104
3,254167	0,1	1,095768
3,255833	0,1	1,077167
3,257500	0,1	1,099219
3,259167	0,1	1,081103
3,260833	0,1	1,097460
3,262500	0,1	1,118231
3,264167	0,1	1,100695
3,265833	0,1	1,089722
3,267500	0,1	1,090307
3,269167	0,1	1,080568
3,270833	0,1	1,071416
3,272500	0,1	1,064494
3,274167	0,1	1,079449
3,275833	0,1	1,075995
3,277500	0,1	1,078043
3,279167	0,1	1,066313
3,280833	0,1	1,049299
3,282500	0,1	1,060439
3,284167	0,1	1,070184
3,285833	0,1	1,087134
3,287500	0,1	1,069776
3,289167	0,1	1,056278
3,290833	0,1	1,078506
3,292500	0,1	1,048133
3,294167	0,1	1,058739
3,295833	0,1	1,069242
3,297500	0,1	1,076628
3,299167	0,1	1,012881
3,300833	0,1	1,058023
3,302500	0,1	1,073054
3,304167	0,1	1,071004
3,305833	0,1	1,029009
3,307500	0,1	1,056328
3,309167	0,1	1,085893
3,310833	0,1	1,075993
3,312500	0,1	1,037865
3,314167	0,1	1,092815
3,315833	0,1	1,010305
3,317500	0,1	1,008058
3,319167	0,1	1,034858
3,320833	0,1	1,030994
3,322500	0,1	1,036214
3,324167	0,1	1,053458
3,325833	0,1	1,045778
3,327500	0,1	1,084312
3,329167	0,1	1,031006
3,330833	0,1	1,031638
3,332500	0,1	1,063074
3,334167	0,1	1,023026
3,335833	0,1	1,076503
3,337500	0,1	1,025961
3,339167	0,1	1,032164
3,340833	0,1	1,073865
3,342500	0,1	1,027660
3,344167	0,1	1,035564
3,345833	0,1	1,018795
3,347500	0,1	1,051226
3,349167	0,1	1,041265
3,350833	0,1	1,060911
3,352500	0,1	1,065196
3,354167	0,1	1,035046
3,355833	0,1	0,996275
3,357500	0,1	1,060722
3,359167	0,1	1,028538
3,360833	0,1	1,018732
3,362500	0,1	1,024480
3,364167	0,1	1,044949
3,365833	0,1	1,016450
3,367500	0,1	1,045710
3,369167	0,1	1,033515
3,370833	0,1	1,008004
3,372500	0,1	1,033156
3,374167	0,1	1,065774
3,375833	0,1	1,058507
3,377500	0,1	1,022204
3,379167	0,1	1,025417
3,380833	0,1	1,058730
3,382500	0,1	1,022554
3,384167	0,1	1,034509
3,385833	0,1	1,071871
3,387500	0,1	1,028949
3,389167	0,1	1,019675
3,390833	0,1	1,054098
3,392500	0,1	1,017097
3,394167	0,1	1,038732
3,395833	0,1	1,062018
3,397500	0,1	1,059384
3,399167	0,1	1,042204
3,400833	0,1	1,034398
3,402500	0,1	1,041143
3,404167	0,1	1,047825
3,405833	0,1	1,043137
3,407500	0,1	1,033105
3,409167	0,1	1,012402
3,410833	0,1	0,981021
3,412500	0,1	1,044703
3,414167	0,1	1,068062
3,415833	0,1	1,025370
3,417500	0,1	1,047117
3,419167	0,1	1,021611
3,420833	0,1	1,025302
3,422500	0,1	1,066650
3,424167	0,1	1,034578
3,425833	0,1	1,015040
3,427500	0,1	1,043011
3,429167	0,1	1,049643
3,430833	0,1	1,033048
3,432500	0,1	1,016332
3,434167	0,1	1,054624
3,435833	0,1	1,033576
3,437500	0,1	1,030054
3,439167	0,1	1,049643
3,440833	0,1	1,050935
3,442500	0,1	1,047828
3,444167	0,1	1,024661
3,445833	0,1	1,035213
3,447500	0,1	1,028178
3,449167	0,1	1,040847
3,450833	0,1	1,042608
3,452500	0,1	1,005718
3,454167	0,1	1,012514
3,455833	0,1	1,021485
3,457500	0,1	1,036211
3,459167	0,1	1,024952
3,460833	0,1	1,021662
3,462500	0,1	1,016268
3,464167	0,1	1,067001
3,465833	0,1	1,025546
3,467500	0,1	1,033454
3,469167	0,1	1,029703
3,470833	0,1	1,011695
3,472500	0,1	1,046590
3,474167	0,1	1,051816
3,475833	0,1	1,032226
3,477500	0,1	1,018149
3,479167	0,1	0,991343
3,480833	0,1	1,027932
3,482500	0,1	1,027881
3,484167	0,1	1,046945
3,485833	0,1	1,053515
3,487500	0,1	1,057683
3,489167	0,1	0,997981
3,490833	0,1	1,005590
3,492500	0,1	1,057671
3,494167	0,1	1,066656
3,495833	0,1	1,045663
3,497500	0,1	1,025600
3,499167	0,1	1,055921
3,500833	0,1	1,047066
3,502500	0,1	1,011113
3,504167	0,1	1,052628
3,505833	0,1	1,072816
3,507500	0,1	1,045547
3,509167	0,1	1,054101
3,510833	0,1	1,094168
3,512500	0,1	1,068606
3,514167	0,1	1,069650
3,515833	0,1	1,065660
3,517500	0,1	1,038099
3,519167	0,1	1,083132
3,520833	0,1	1,074636
3,522500	0,1	1,045312
3,524167	0,1	1,059207
3,525833	0,1	1,072637
3,527500	0,1	1,047601
3,529167	0,1	1,095629
3,530833	0,1	1,046961
3,532500	0,1	1,034865
3,534167	0,1	1,086711
3,535833	0,1	1,030476
3,537500	0,1	1,034275
3,539167	0,1	1,054275
3,540833	0,1	1,030645
3,542500	0,1	1,034392
3,544167	0,1	1,031753
3,545833	0,1	1,057323
3,547500	0,1	1,054808
3,549167	0,1	1,064780
3,550833	0,1	1,042732
3,552500	0,1	1,078794
3,554167	0,1	1,069243
3,555833	0,1	1,070999
3,557500	0,1	1,042439
3,559167	0,1	0,991643
3,560833	0,1	1,043474
3,562500	0,1	1,018326
3,564167	0,1	1,027646
3,565833	0,1	1,051811
3,567500	0,1	1,024367
3,569167	0,1	1,040197
3,570833	0,1	1,031873
3,572500	0,1	1,067469
3,574167	0,1	1,050644
3,575833	0,1	1,009355
3,577500	0,1	1,056381
3,579167	0,1	1,024076
3,580833	0,1	0,989116
3,582500	0,1	1,009927
3,584167	0,1	1,006824
3,585833	0,1	1,018199
3,587500	0,1	0,980144
3,589167	0,1	1,014440
3,590833	0,1	1,001076
3,592500	0,1	0,989345
3,594167	0,1	1,023592
3,595833	0,1	1,011868
3,597500	0,1	1,023361
3,599167	0,1	1,003131
3,600833	0,1	0,985650
3,602500	0,1	0,979549
3,604167	0,1	1,021769
3,605833	0,1	0,956628
3,607500	0,1	1,009624
3,609167	0,1	0,944956
3,610833	0,1	0,961654
3,612500	0,1	0,962595
3,614167	0,1	0,953506
3,615833	0,1	0,934037
3,617500	0,1	1,001819
3,619167	0,1	0,963016
3,620833	0,1	0,922956
3,622500	0,1	0,959419
3,624167	0,1	0,918031
3,625833	0,1	0,948511
3,627500	0,1	0,940838
3,629167	0,1	0,958252
3,630833	0,1	0,952392
3,632500	0,1	0,926531
3,634167	0,1	0,944292
3,635833	0,1	0,966343
3,637500	0,1	0,919734
3,639167	0,1	0,922008
3,640833	0,1	0,903716
3,642500	0,1	0,909986
3,644167	0,1	0,883776
3,645833	0,1	0,927103
3,647500	0,1	0,930806
3,649167	0,1	0,890703
3,650833	0,1	0,910041
3,652500	0,1	0,938541
3,654167	0,1	0,879330
3,655833	0,1	0,863784
3,657500	0,1	0,893795
3,659167	0,1	0,896790
3,660833	0,1	0,919014
3,662500	0,1	0,889994
3,664167	0,1	0,884186
3,665833	0,1	0,868058
3,667500	0,1	0,880719
3,669167	0,1	0,874685
3,670833	0,1	0,891159
3,672500	0,1	0,889226
3,674167	0,1	0,879143
3,675833	0,1	0,855163
3,677500	0,1	0,896606
3,679167	0,1	0,882370
3,680833	0,1	0,902945
3,682500	0,1	0,862200
3,684167	0,1	0,863834
3,685833	0,1	0,878787
3,687500	0,1	0,870053
3,689167	0,1	0,877262
3,690833	0,1	0,844782
3,692500	0,1	0,869634
3,694167	0,1	0,814415
3,695833	0,1	0,877602
3,697500	0,1	0,875741
3,699167	0,1	0,829073
3,700833	0,1	0,829002
3,702500	0,1	0,881883
3,704167	0,1	0,849768
3,705833	0,1	0,832349
3,707500	0,1	0,890151
3,709167	0,1	0,861963
3,710833	0,1	0,865889
3,712500	0,1	0,856451
3,714167	0,1	0,843550
3,715833	0,1	0,852164
3,717500	0,1	0,829068
3,719167	0,1	0,846651
3,720833	0,1	0,851282
3,722500	0,1	0,838738
3,724167	0,1	0,889978
3,725833	0,1	0,880550
3,727500	0,1	0,836579
3,729167	0,1	0,863769
3,730833	0,1	0,847072
3,732500	0,1	0,893146
3,734167	0,1	0,861791
3,735833	0,1	0,883592
3,737500	0,1	0,884068
3,739167	0,1	0,859325
3,740833	0,1	0,844079
3,742500	0,1	0,874384
3,744167	0,1	0,895674
3,745833	0,1	0,870349
3,747500	0,1	0,870463
3,749167	0,1	0,884239
3,750833	0,1	0,937130
3,752500	0,1	0,881089
3,754167	0,1	0,892448
3,755833	0,1	0,873398
3,757500	0,1	0,877146
3,759167	0,1	0,885589
3,760833	0,1	0,861905
3,762500	0,1	0,884941
3,764167	0,1	0,946393
3,765833	0,1	0,901495
3,767500	0,1	0,912388
3,769167	0,1	0,876865
3,770833	0,1	0,921530
3,772500	0,1	0,902251
3,774167	0,1	0,880494
3,775833	0,1	0,925810
3,777500	0,1	0,894980
3,779167	0,1	0,926166
3,780833	0,1	0,887594
3,782500	0,1	0,925342
3,784167	0,1	0,935203
3,785833	0,1	0,937258
3,787500	0,1	0,941304
3,789167	0,1	0,961769
3,790833	0,1	0,936796
3,792500	0,1	0,957077
3,794167	0,1	0,950398
3,795833	0,1	0,921139
3,797500	0,1	0,921656
3,799167	0,1	0,929103
3,800833	0,1	0,980239
3,802500	0,1	0,967233
3,804167	0,1	0,912228
3,805833	0,1	0,926933
3,807500	0,1	0,922538
3,809167	0,1	0,913741
3,810833	0,1	0,964401
3,812500	0,1	0,955501
3,814167	0,1	0,918969
3,815833	0,1	0,908875
3,817500	0,1	0,951677
3,819167	0,1	0,952858
3,820833	0,1	0,949459
3,822500	0,1	0,934856
3,824167	0,1	0,946582
3,825833	0,1	0,952447
3,827500	0,1	0,920611
3,829167	0,1	0,919428
3,830833	0,1	0,920777
3,832500	0,1	0,940832
3,834167	0,1	0,940602
3,835833	0,1	0,941306
3,837500	0,1	0,937905
3,839167	0,1	0,958308
3,840833	0,1	0,912754
3,842500	0,1	0,955372
3,844167	0,1	0,907066
3,845833	0,1	0,932619
3,847500	0,1	0,953617
3,849167	0,1	0,891234
3,850833	0,1	0,942701
3,852500	0,1	0,915214
3,854167	0,1	0,929573
3,855833	0,1	0,891934
3,857500	0,1	0,929449
3,859167	0,1	0,928756
3,860833	0,1	0,909815
3,862500	0,1	0,900080
3,864167	0,1	0,887999
3,865833	0,1	0,896322
3,867500	0,1	0,897556
3,869167	0,1	0,888352
3,870833	0,1	0,888878
3,872500	0,1	0,917018
3,874167	0,1	0,854232
3,875833	0,1	0,828952
3,877500	0,1	0,917941
3,879167	0,1	0,875692
3,880833	0,1	0,884769
3,882500	0,1	0,856396
3,884167	0,1	0,880250
3,885833	0,1	0,890927
3,887500	0,1	0,880903
3,889167	0,1	0,853346
3,890833	0,1	0,874325
3,892500	0,1	0,842619
3,894167	0,1	0,850990
3,895833	0,1	0,856858
3,897500	0,1	0,863720
3,899167	0,1	0,841677
3,900833	0,1	0,799809
3,902500	0,1	0,812939
3,904167	0,1	0,813815
3,905833	0,1	0,851574
3,907500	0,1	0,827196
3,909167	0,1	0,827951
3,910833	0,1	0,815525
3,912500	0,1	0,813001
3,914167	0,1	0,779233
3,915833	0,1	0,833098
3,917500	0,1	0,778064
3,919167	0,1	0,768792
3,920833	0,1	0,794344
3,922500	0,1	0,793068
3,924167	0,1	0,786320
3,925833	0,1	0,742707
3,927500	0,1	0,744692
3,929167	0,1	0,777580
3,930833	0,1	0,754435
3,932500	0,1	0,728462
3,934167	0,1	0,757762
3,935833	0,1	0,777227
3,937500	0,1	0,778351
3,939167	0,1	0,733978
3,940833	0,1	0,762700
3,942500	0,1	0,766566
3,944167	0,1	0,738665
3,945833	0,1	0,758297
3,947500	0,1	0,724947
3,949167	0,1	0,729399
3,950833	0,1	0,727707
3,952500	0,1	0,714211
3,954167	0,1	0,717090
3,955833	0,1	0,712574
3,957500	0,1	0,709234
3,959167	0,1	0,699741
3,960833	0,1	0,697103
3,962500	0,1	0,716142
3,964167	0,1	0,722715
3,965833	0,1	0,690420
3,967500	0,1	0,689003
3,969167	0,1	0,692698
3,970833	0,1	0,705182
3,972500	0,1	0,700565
3,974167	0,1	0,694462
3,975833	0,1	0,642005
3,977500	0,1	0,725752
3,979167	0,1	0,699395
3,980833	0,1	0,687963
3,982500	0,1	0,691121
3,984167	0,1	0,652495
3,985833	0,1	0,630752
3,987500	0,1	0,688119
3,989167	0,1	0,652145
3,990833	0,1	0,664154
3,992500	0,1	0,674356
3,994167	0,1	0,618518
3,995833	0,1	0,648978
3,997500	0,1	0,651955
3,999167	0,1	0,672304
4,000833	0,1	0,669029
4,002500	0,1	0,633798
4,004167	0,1	0,674239
4,005833	0,1	0,670969
4,007500	0,1	0,622793
4,009167	0,1	0,653949
4,010833	0,1	0,673356
4,012500	0,1	0,649398
4,014167	0,1	0,622436
4,015833	0,1	0,645626
4,017500	0,1	0,639659
4,019167	0,1	0,651896
4,020833	0,1	0,628882
4,022500	0,1	0,629098
4,024167	0,1	0,651959
4,025833	0,1	0,664389
4,027500	0,1	0,685019
4,029167	0,1	0,610665
4,030833	0,1	0,651144
4,032500	0,1	0,643462
4,034167	0,1	0,649505
4,035833	0,1	0,657943
4,037500	0,1	0,682324
4,039167	0,1	0,642954
4,040833	0,1	0,714087
4,042500	0,1	0,655732
4,044167	0,1	0,633689
4,045833	0,1	0,686716
4,047500	0,1	0,674891
4,049167	0,1	0,646455
4,050833	0,1	0,695151
4,052500	0,1	0,702554
4,054167	0,1	0,683797
4,055833	0,1	0,670255
4,057500	0,1	0,666098
4,059167	0,1	0,704181
4,060833	0,1	0,697571
4,062500	0,1	0,767660
4,064167	0,1	0,766743
4,065833	0,1	0,756197
4,067500	0,1	0,754430
4,069167	0,1	0,742421
4,070833	0,1	0,761518
4,072500	0,1	0,806955
4,074167	0,1	0,775548
4,075833	0,1	0,808944
4,077500	0,1	0,795590
4,079167	0,1	0,795827
4,080833	0,1	0,788671
4,082500	0,1	0,817272
4,084167	0,1	0,852802
4,085833	0,1	0,824268
4,087500	0,1	0,828358
4,089167	0,1	0,853392
4,090833	0,1	0,882009
4,092500	0,1	0,851412
4,094167	0,1	0,895668
4,095833	0,1	0,905998
4,097500	0,1	0,955017
4,099167	0,1	0,969279
4,100833	0,1	0,937150
4,102500	0,1	0,909585
4,104167	0,1	0,970910
4,105833	0,1	0,977843
4,107500	0,1	0,975792
4,109167	0,1	0,988401
4,110833	0,1	0,993505
4,112500	0,1	1,020894
4,114167	0,1	1,083943
4,115833	0,1	1,052583
4,117500	0,1	1,048531
4,119167	0,1	1,040026
4,120833	0,1	1,099373
4,122500	0,1	1,117809
4,124167	0,1	1,104909
4,125833	0,1	1,139454
4,127500	0,1	1,089431
4,129167	0,1	1,146554
4,130833	0,1	1,138230
4,132500	0,1	1,182350
4,134167	0,1	1,183294
4,135833	0,1	1,198375
4,137500	0,1	1,193391
4,139167	0,1	1,217507
4,140833	0,1	1,258746
4,142500	0,1	1,242460
4,144167	0,1	1,272381
4,145833	0,1	1,274736
4,147500	0,1	1,271098
4,149167	0,1	1,278242
4,150833	0,1	1,244521
4,152500	0,1	1,315329
4,154167	0,1	1,284077
4,155833	0,1	1,319634
4,157500	0,1	1,346161
4,159167	0,1	1,312013
4,160833	0,1	1,319002
4,162500	0,1	1,316595
4,164167	0,1	1,333972
4,165833	0,1	1,364120
4,167500	0,1	1,423478
4,169167	0,1	1,341779
4,170833	0,1	1,415833
4,172500	0,1	1,396190
4,174167	0,1	1,397364
4,175833	0,1	1,417381
4,177500	0,1	1,453948
4,179167	0,1	1,444869
4,180833	0,1	1,452615
4,182500	0,1	1,433830
4,184167	0,1	1,396446
4,185833	0,1	1,443844
4,187500	0,1	1,434704
4,189167	0,1	1,443208
4,190833	0,1	1,434180
4,192500	0,1	1,467648
4,194167	0,1	1,417835
4,195833	0,1	1,471860
4,197500	0,1	1,458092
4,199167	0,1	1,487598
4,200833	0,1	1,448921
4,202500	0,1	1,466468
4,204167	0,1	1,469860
4,205833	0,1	1,469118
4,207500	0,1	1,491318
4,209167	0,1	1,453857
4,210833	0,1	1,442235
4,212500	0,1	1,423922
4,214167	0,1	1,457533
4,215833	0,1	1,449779
4,217500	0,1	1,461827
4,219167	0,1	1,493778
4,220833	0,1	1,438287
4,222500	0,1	1,454903
4,224167	0,1	1,516063
4,225833	0,1	1,461721
4,227500	0,1	1,426397
4,229167	0,1	1,401782
4,230833	0,1	1,460452
4,232500	0,1	1,467921
4,234167	0,1	1,451390
4,235833	0,1	1,403613
4,237500	0,1	1,451886
4,239167	0,1	1,432539
4,240833	0,1	1,449151
4,242500	0,1	1,425384
4,244167	0,1	1,423905
4,245833	0,1	1,451002
4,247500	0,1	1,412874
4,249167	0,1	1,408445
4,250833	0,1	1,413730
4,252500	0,1	1,427182
4,254167	0,1	1,418973
4,255833	0,1	1,395494
4,257500	0,1	1,384915
4,259167	0,1	1,393963
4,260833	0,1	1,407452
4,262500	0,1	1,380935
4,264167	0,1	1,379980
4,265833	0,1	1,362092
4,267500	0,1	1,379984
4,269167	0,1	1,365079
4,270833	0,1	1,383547
4,272500	0,1	1,331863
4,274167	0,1	1,340715
4,275833	0,1	1,333212
4,277500	0,1	1,326031
4,279167	0,1	1,341171
4,280833	0,1	1,316377
4,282500	0,1	1,270994
4,284167	0,1	1,346692
4,285833	0,1	1,316301
4,287500	0,1	1,300697
4,289167	0,1	1,318337
4,290833	0,1	1,277269
4,292500	0,1	1,287115
4,294167	0,1	1,281954
4,295833	0,1	1,290179
4,297500	0,1	1,326124
4,299167	0,1	1,260369
4,300833	0,1	1,258771
4,302500	0,1	1,228081
4,304167	0,1	1,296726
4,305833	0,1	1,271569
4,307500	0,1	1,247912
4,309167	0,1	1,279534
4,310833	0,1	1,240643
4,312500	0,1	1,298476
4,314167	0,1	1,244572
4,315833	0,1	1,174112
4,317500	0,1	1,187875
4,319167	0,1	1,229948
4,320833	0,1	1,201728
4,322500	0,1	1,172973
4,324167	0,1	1,223077
4,325833	0,1	1,173515
4,327500	0,1	1,176080
4,329167	0,1	1,148267
4,330833	0,1	1,174132
4,332500	0,1	1,192207
4,334167	0,1	1,151209
4,335833	0,1	1,183525
4,337500	0,1	1,155492
4,339167	0,1	1,159937
4,340833	0,1	1,183582
4,342500	0,1	1,131374
4,344167	0,1	1,135657
4,345833	0,1	1,175360
4,347500	0,1	1,157241
4,349167	0,1	1,103687
4,350833	0,1	1,109303
4,352500	0,1	1,060568
4,354167	0,1	1,090878
4,355833	0,1	1,105021
4,357500	0,1	1,096520
4,359167	0,1	1,113175
4,360833	0,1	1,088837
4,362500	0,1	1,088133
4,364167	0,1	1,054288
4,365833	0,1	1,088120
4,367500	0,1	1,060090
4,369167	0,1	1,068884
4,370833	0,1	1,049999
4,372500	0,1	1,057090
4,374167	0,1	1,048533
4,375833	0,1	1,027356
4,377500	0,1	1,103597
4,379167	0,1	1,070706
4,380833	0,1	0,983731
4,382500	0,1	1,003357
4,384167	0,1	1,021952
4,385833	0,1	1,033100
4,387500	0,1	1,020960
4,389167	0,1	0,984775
4,390833	0,1	1,023473
4,392500	0,1	0,961614
4,394167	0,1	0,968107
4,395833	0,1	0,984352
4,397500	0,1	0,965650
4,399167	0,1	1,004699
4,400833	0,1	0,987528
4,402500	0,1	0,985998
4,404167	0,1	0,960549
4,405833	0,1	0,948230
4,407500	0,1	0,961772
4,409167	0,1	0,938027
4,410833	0,1	0,937669
4,412500	0,1	0,931396
4,414167	0,1	0,928170
4,415833	0,1	0,905244
4,417500	0,1	0,988910
4,419167	0,1	0,938443
4,420833	0,1	0,904365
4,422500	0,1	0,924471
4,424167	0,1	0,879738
4,425833	0,1	0,872633
4,427500	0,1	0,908927
4,429167	0,1	0,900605
4,430833	0,1	0,865191
4,432500	0,1	0,880722
4,434167	0,1	0,862432
4,435833	0,1	0,850708
4,437500	0,1	0,850055
4,439167	0,1	0,824966
4,440833	0,1	0,869280
4,442500	0,1	0,860030
4,444167	0,1	0,877497
4,445833	0,1	0,820464
4,447500	0,1	0,868052
4,449167	0,1	0,814595
4,450833	0,1	0,790139
4,452500	0,1	0,802910
4,454167	0,1	0,791657
4,455833	0,1	0,806960
4,457500	0,1	0,821678
4,459167	0,1	0,795659
4,460833	0,1	0,821147
4,462500	0,1	0,763645
4,464167	0,1	0,751789
4,465833	0,1	0,748515
4,467500	0,1	0,776531
4,469167	0,1	0,762348
4,470833	0,1	0,755195
4,472500	0,1	0,755193
4,474167	0,1	0,757595
4,475833	0,1	0,719559
4,477500	0,1	0,731987
4,479167	0,1	0,740482
4,480833	0,1	0,722138
4,482500	0,1	0,748681
4,484167	0,1	0,731281
4,485833	0,1	0,701515
4,487500	0,1	0,666450
4,489167	0,1	0,720129
4,490833	0,1	0,686087
4,492500	0,1	0,697572
4,494167	0,1	0,702387
4,495833	0,1	0,657025
4,497500	0,1	0,710342
4,499167	0,1	0,660665
4,500833	0,1	0,625842
4,502500	0,1	0,725161
4,504167	0,1	0,661493
4,505833	0,1	0,692991
4,507500	0,1	0,644068
4,509167	0,1	0,651553
4,510833	0,1	0,635793
4,512500	0,1	0,667974
4,514167	0,1	0,634222
4,515833	0,1	0,659529
4,517500	0,1	0,621851
4,519167	0,1	0,617918
4,520833	0,1	0,632211
4,522500	0,1	0,605742
4,524167	0,1	0,622019
4,525833	0,1	0,624550
4,527500	0,1	0,642247
4,529167	0,1	0,625200
4,530833	0,1	0,615055
4,532500	0,1	0,572340
4,534167	0,1	0,598514
4,535833	0,1	0,644060
4,537500	0,1	0,531863
4,539167	0,1	0,618493
4,540833	0,1	0,604685
4,542500	0,1	0,581481
4,544167	0,1	0,584993
4,545833	0,1	0,575915
4,547500	0,1	0,580659
4,549167	0,1	0,542698
4,550833	0,1	0,599454
4,552500	0,1	0,552890
4,554167	0,1	0,577556
4,555833	0,1	0,559091
4,557500	0,1	0,529513
4,559167	0,1	0,546191
4,560833	0,1	0,572323
4,562500	0,1	0,554210
4,564167	0,1	0,497509
4,565833	0,1	0,516903
4,567500	0,1	0,558784
4,569167	0,1	0,555466
4,570833	0,1	0,542274
4,572500	0,1	0,517502
4,574167	0,1	0,536894
4,575833	0,1	0,560085
4,577500	0,1	0,553241
4,579167	0,1	0,530221
4,580833	0,1	0,494351
4,582500	0,1	0,549651
4,584167	0,1	0,527046
4,585833	0,1	0,486867
4,587500	0,1	0,510087
4,589167	0,1	0,538826
4,590833	0,1	0,505724
4,592500	0,1	0,502721
4,594167	0,1	0,528219
4,595833	0,1	0,535758
4,597500	0,1	0,488145
4,599167	0,1	0,496273
4,600833	0,1	0,518487
4,602500	0,1	0,517204
4,604167	0,1	0,480930
4,605833	0,1	0,472137
4,607500	0,1	0,504476
4,609167	0,1	0,488612
4,610833	0,1	0,486665
4,612500	0,1	0,499155
4,614167	0,1	0,494353
4,615833	0,1	0,484100
4,617500	0,1	0,469099
4,619167	0,1	0,482861
4,620833	0,1	0,478232
4,622500	0,1	0,462247
4,624167	0,1	0,479877
4,625833	0,1	0,484956
4,627500	0,1	0,477349
4,629167	0,1	0,484142
4,630833	0,1	0,475259
4,632500	0,1	0,451589
4,634167	0,1	0,456611
4,635833	0,1	0,459485
4,637500	0,1	0,468041
4,639167	0,1	0,446828
4,640833	0,1	0,445658
4,642500	0,1	0,464059
4,644167	0,1	0,447232
4,645833	0,1	0,445422
4,647500	0,1	0,424806
4,649167	0,1	0,438816
4,650833	0,1	0,434693
4,652500	0,1	0,486618
4,654167	0,1	0,474739
4,655833	0,1	0,422880
4,657500	0,1	0,421172
4,659167	0,1	0,464993
4,660833	0,1	0,424009
4,662500	0,1	0,435890
4,664167	0,1	0,415754
4,665833	0,1	0,453607
4,667500	0,1	0,426921
4,669167	0,1	0,471978
4,670833	0,1	0,391678
4,672500	0,1	0,429778
4,674167	0,1	0,443077
4,675833	0,1	0,400563
4,677500	0,1	0,408339
4,679167	0,1	0,420299
4,680833	0,1	0,433605
4,682500	0,1	0,412339
4,684167	0,1	0,418117
4,685833	0,1	0,375702
4,687500	0,1	0,416946
4,689167	0,1	0,423930
4,690833	0,1	0,419771
4,692500	0,1	0,444095
4,694167	0,1	0,435431
4,695833	0,1	0,427924
4,697500	0,1	0,443903
4,699167	0,1	0,443443
4,700833	0,1	0,406738
4,702500	0,1	0,415621
4,704167	0,1	0,418439
4,705833	0,1	0,399732
4,707500	0,1	0,439873
4,709167	0,1	0,401501
4,710833	0,1	0,440518
4,712500	0,1	0,420883
4,714167	0,1	0,425388
4,715833	0,1	0,397338
4,717500	0,1	0,416263
4,719167	0,1	0,379090
4,720833	0,1	0,405952
4,722500	0,1	0,372379
4,724167	0,1	0,421579
4,725833	0,1	0,415400
4,727500	0,1	0,403271
4,729167	0,1	0,417679
4,730833	0,1	0,386036
4,732500	0,1	0,448008
4,734167	0,1	0,399275
4,735833	0,1	0,407008
4,737500	0,1	0,413283
4,739167	0,1	0,389451
4,740833	0,1	0,397568
4,742500	0,1	0,412300
4,744167	0,1	0,364959
4,745833	0,1	0,431648
4,747500	0,1	0,417728
4,749167	0,1	0,448942
4,750833	0,1	0,404317
4,752500	0,1	0,434822
4,754167	0,1	0,407268
4,755833	0,1	0,389686
4,757500	0,1	0,379644
4,759167	0,1	0,354829
4,760833	0,1	0,389130
4,762500	0,1	0,353655
4,764167	0,1	0,411870
4,765833	0,1	0,366907
4,767500	0,1	0,418776
4,769167	0,1	0,429922
4,770833	0,1	0,373632
4,772500	0,1	0,366001
4,774167	0,1	0,349085
4,775833	0,1	0,373501
4,777500	0,1	0,396149
4,779167	0,1	0,435757
4,780833	0,1	0,406190
4,782500	0,1	0,353659
4,784167	0,1	0,431850
4,785833	0,1	0,385576
4,787500	0,1	0,421233
4,789167	0,1	0,373979
4,790833	0,1	0,364237
4,792500	0,1	0,356926
4,794167	0,1	0,360493
4,795833	0,1	0,380477
4,797500	0,1	0,415041
4,799167	0,1	0,393961
4,800833	0,1	0,392248
4,802500	0,1	0,333689
4,804167	0,1	0,393533
4,805833	0,1	0,383690
4,807500	0,1	0,376854
4,809167	0,1	0,403194
4,810833	0,1	0,381468
4,812500	0,1	0,382050
4,814167	0,1	0,380762
4,815833	0,1	0,423933
4,817500	0,1	0,355300
4,819167	0,1	0,375532
4,820833	0,1	0,384597
4,822500	0,1	0,365528
4,824167	0,1	0,407644
4,825833	0,1	0,383877
4,827500	0,1	0,404904
4,829167	0,1	0,394939
4,830833	0,1	0,371691
4,832500	0,1	0,346957
4,834167	0,1	0,418504
4,835833	0,1	0,339309
4,837500	0,1	0,387613
4,839167	0,1	0,387205
4,840833	0,1	0,373398
4,842500	0,1	0,353468
4,844167	0,1	0,396998
4,845833	0,1	0,349148
4,847500	0,1	0,403031
4,849167	0,1	0,369578
4,850833	0,1	0,352123
4,852500	0,1	0,373682
4,854167	0,1	0,388124
4,855833	0,1	0,387049
4,857500	0,1	0,396643
4,859167	0,1	0,374324
4,860833	0,1	0,401932
4,862500	0,1	0,368557
4,864167	0,1	0,363732
4,865833	0,1	0,377089
4,867500	0,1	0,355177
4,869167	0,1	0,326063
4,870833	0,1	0,356748
4,872500	0,1	0,411043
4,874167	0,1	0,374748
4,875833	0,1	0,397508
4,877500	0,1	0,363611
4,879167	0,1	0,354194
4,880833	0,1	0,396522
4,882500	0,1	0,346404
4,884167	0,1	0,385751
4,885833	0,1	0,357183
4,887500	0,1	0,368686
4,889167	0,1	0,331233
4,890833	0,1	0,413377
4,892500	0,1	0,349740
4,894167	0,1	0,320266
4,895833	0,1	0,371294
4,897500	0,1	0,383644
4,899167	0,1	0,351258
4,900833	0,1	0,355115
4,902500	0,1	0,362313
4,904167	0,1	0,335822
4,905833	0,1	0,362673
4,907500	0,1	0,356238
4,909167	0,1	0,351364
4,910833	0,1	0,357971
4,912500	0,1	0,344322
4,914167	0,1	0,333494
4,915833	0,1	0,373678
4,917500	0,1	0,374388
4,919167	0,1	0,394595
4,920833	0,1	0,375317
4,922500	0,1	0,368802
4,924167	0,1	0,392605
4,925833	0,1	0,369575
4,927500	0,1	0,372678
4,929167	0,1	0,367485
4,930833	0,1	0,355050
4,932500	0,1	0,376079
4,934167	0,1	0,351776
4,935833	0,1	0,356459
4,937500	0,1	0,386441
4,939167	0,1	0,327136
4,940833	0,1	0,380173
4,942500	0,1	0,343220
4,944167	0,1	0,331227
4,945833	0,1	0,327487
4,947500	0,1	0,371451
4,949167	0,1	0,316000
4,950833	0,1	0,377133
4,952500	0,1	0,352545
4,954167	0,1	0,357511
4,955833	0,1	0,341114
4,957500	0,1	0,372519
4,959167	0,1	0,297897
4,960833	0,1	0,335543
4,962500	0,1	0,350435
4,964167	0,1	0,375866
4,965833	0,1	0,341947
4,967500	0,1	0,344906
4,969167	0,1	0,361486
4,970833	0,1	0,340346
4,972500	0,1	0,331338
4,974167	0,1	0,375834
4,975833	0,1	0,345292
4,977500	0,1	0,349024
4,979167	0,1	0,353225
4,980833	0,1	0,300413
4,982500	0,1	0,362371
4,984167	0,1	0,384118
4,985833	0,1	0,346162
4,987500	0,1	0,338719
4,989167	0,1	0,322251
4,990833	0,1	0,366633
4,992500	0,1	0,352894
4,994167	0,1	0,350090
4,995833	0,1	0,328136
4,997500	0,1	0,332511
4,999167	0,1	0,365360
5,000833	0,1	0,354727
5,002500	0,1	0,292740
5,004167	0,1	0,327448
5,005833	0,1	0,343223
5,007500	0,1	0,335695
5,009167	0,1	0,378019
5,010833	0,1	0,399300
5,012500	0,1	0,312421
5,014167	0,1	0,327578
5,015833	0,1	0,314717
5,017500	0,1	0,324079
5,019167	0,1	0,315400
5,020833	0,1	0,329176
5,022500	0,1	0,318384
5,024167	0,1	0,331263
5,025833	0,1	0,328999
5,027500	0,1	0,317054
5,029167	0,1	0,334973
5,030833	0,1	0,292075
5,032500	0,1	0,348101
5,034167	0,1	0,342528
5,035833	0,1	0,341127
5,037500	0,1	0,308504
5,039167	0,1	0,353873
5,040833	0,1	0,336690
5,042500	0,1	0,343058
5,044167	0,1	0,327881
5,045833	0,1	0,345576
5,047500	0,1	0,333511
5,049167	0,1	0,319799
5,050833	0,1	0,330731
5,052500	0,1	0,307871
5,054167	0,1	0,338430
5,055833	0,1	0,342930
5,057500	0,1	0,314189
5,059167	0,1	0,350725
5,060833	0,1	0,313268
5,062500	0,1	0,292522
5,064167	0,1	0,361305
5,065833	0,1	0,348860
5,067500	0,1	0,363684
5,069167	0,1	0,330015
5,070833	0,1	0,305208
5,072500	0,1	0,355567
5,074167	0,1	0,302248
5,075833	0,1	0,352710
5,077500	0,1	0,328892
5,079167	0,1	0,336543
5,080833	0,1	0,305394
5,082500	0,1	0,291678
5,084167	0,1	0,326525
5,085833	0,1	0,359674
5,087500	0,1	0,296565
5,089167	0,1	0,322915
5,090833	0,1	0,302773
5,092500	0,1	0,331440
5,094167	0,1	0,339373
5,095833	0,1	0,317280
5,097500	0,1	0,281450
5,099167	0,1	0,295243
5,100833	0,1	0,271252
5,102500	0,1	0,377543
5,104167	0,1	0,330003
5,105833	0,1	0,316522
5,107500	0,1	0,353007
5,109167	0,1	0,287491
5,110833	0,1	0,295499
5,112500	0,1	0,329871
5,114167	0,1	0,323327
5,115833	0,1	0,271074
5,117500	0,1	0,303644
5,119167	0,1	0,280158
5,120833	0,1	0,306627
5,122500	0,1	0,316461
5,124167	0,1	0,300602
5,125833	0,1	0,348550
5,127500	0,1	0,290933
5,129167	0,1	0,292795
5,130833	0,1	0,310758
5,132500	0,1	0,280748
5,134167	0,1	0,297022
5,135833	0,1	0,326359
5,137500	0,1	0,266822
5,139167	0,1	0,326686
5,140833	0,1	0,350265
5,142500	0,1	0,313195
5,144167	0,1	0,301834
5,145833	0,1	0,315815
5,147500	0,1	0,242994
5,149167	0,1	0,330391
5,150833	0,1	0,302370
5,152500	0,1	0,344686
5,154167	0,1	0,315589
5,155833	0,1	0,308567
5,157500	0,1	0,285256
5,159167	0,1	0,287809
5,160833	0,1	0,286539
5,162500	0,1	0,282508
5,164167	0,1	0,274779
5,165833	0,1	0,324632
5,167500	0,1	0,278723
5,169167	0,1	0,323848
5,170833	0,1	0,301359
5,172500	0,1	0,297967
5,174167	0,1	0,287844
5,175833	0,1	0,280281
5,177500	0,1	0,304068
5,179167	0,1	0,297839
5,180833	0,1	0,301186
5,182500	0,1	0,301020
5,184167	0,1	0,264351
5,185833	0,1	0,293711
5,187500	0,1	0,329368
5,189167	0,1	0,320291
5,190833	0,1	0,275210
5,192500	0,1	0,296251
5,194167	0,1	0,292925
5,195833	0,1	0,293544
5,197500	0,1	0,290164
5,199167	0,1	0,264715
5,200833	0,1	0,323496
5,202500	0,1	0,321226
5,204167	0,1	0,270629
5,205833	0,1	0,271039
5,207500	0,1	0,287767
5,209167	0,1	0,273785
5,210833	0,1	0,253398
5,212500	0,1	0,304800
5,214167	0,1	0,290995
5,215833	0,1	0,249190
5,217500	0,1	0,283658
5,219167	0,1	0,303870
5,220833	0,1	0,314249
5,222500	0,1	0,276552
5,224167	0,1	0,281932
5,225833	0,1	0,273236
5,227500	0,1	0,286327
5,229167	0,1	0,304529
5,230833	0,1	0,307277
5,232500	0,1	0,281629
5,234167	0,1	0,218316
5,235833	0,1	0,282085
5,237500	0,1	0,258147
5,239167	0,1	0,302687
5,240833	0,1	0,313479
5,242500	0,1	0,294232
5,244167	0,1	0,283631
5,245833	0,1	0,250069
5,247500	0,1	0,275287
5,249167	0,1	0,262176
5,250833	0,1	0,261011
5,252500	0,1	0,292875
5,254167	0,1	0,286961
5,255833	0,1	0,279270
5,257500	0,1	0,297485
5,259167	0,1	0,263724
5,260833	0,1	0,277588
5,262500	0,1	0,286885
5,264167	0,1	0,276894
5,265833	0,1	0,251818
5,267500	0,1	0,285664
5,269167	0,1	0,230385
5,270833	0,1	0,271014
5,272500	0,1	0,288888
5,274167	0,1	0,291691
5,275833	0,1	0,328654
5,277500	0,1	0,259224
5,279167	0,1	0,306217
5,280833	0,1	0,293363
5,282500	0,1	0,254635
5,284167	0,1	0,293208
5,285833	0,1	0,268047
5,287500	0,1	0,242449
5,289167	0,1	0,260602
5,290833	0,1	0,278248
5,292500	0,1	0,250142
5,294167	0,1	0,277991
5,295833	0,1	0,258273
5,297500	0,1	0,276243
5,299167	0,1	0,244956
5,300833	0,1	0,243510
5,302500	0,1	0,264759
5,304167	0,1	0,226129
5,305833	0,1	0,273715
5,307500	0,1	0,252643
5,309167	0,1	0,256464
5,310833	0,1	0,242909
5,312500	0,1	0,264981
5,314167	0,1	0,232513
5,315833	0,1	0,242404
5,317500	0,1	0,247668
5,319167	0,1	0,233319
5,320833	0,1	0,259312
5,322500	0,1	0,270248
5,324167	0,1	0,252220
5,325833	0,1	0,237278
5,327500	0,1	0,258429
5,329167	0,1	0,287541
5,330833	0,1	0,228710
5,332500	0,1	0,222719
5,334167	0,1	0,252282
5,335833	0,1	0,240698
5,337500	0,1	0,272082
5,339167	0,1	0,249312
5,340833	0,1	0,236301
5,342500	0,1	0,220549
5,344167	0,1	0,215394
5,345833	0,1	0,253917
5,347500	0,1	0,217112
5,349167	0,1	0,243543
5,350833	0,1	0,268552
5,352500	0,1	0,208745
5,354167	0,1	0,260705
5,355833	0,1	0,235953
5,357500	0,1	0,209476
5,359167	0,1	0,265857
5,360833	0,1	0,237759
5,362500	0,1	0,263526
5,364167	0,1	0,247433
5,365833	0,1	0,279112
5,367500	0,1	0,230292
5,369167	0,1	0,237123
5,370833	0,1	0,259402
5,372500	0,1	0,238658
5,374167	0,1	0,240529
5,375833	0,1	0,254567
5,377500	0,1	0,248775
5,379167	0,1	0,246308
5,380833	0,1	0,292468
5,382500	0,1	0,275186
5,384167	0,1	0,272073
5,385833	0,1	0,305058
5,387500	0,1	0,246873
5,389167	0,1	0,231975
5,390833	0,1	0,229325
5,392500	0,1	0,250956
5,394167	0,1	0,254070
5,395833	0,1	0,248981
5,397500	0,1	0,262018
5,399167	0,1	0,219524
5,400833	0,1	0,223104
5,402500	0,1	0,216939
5,404167	0,1	0,249172
5,405833	0,1	0,236246
5,407500	0,1	0,264003
5,409167	0,1	0,233286
5,410833	0,1	0,226655
5,412500	0,1	0,228751
5,414167	0,1	0,237122
5,415833	0,1	0,229915
5,417500	0,1	0,249357
5,419167	0,1	0,258854
5,420833	0,1	0,249841
5,422500	0,1	0,228574
5,424167	0,1	0,216518
5,425833	0,1	0,243703
5,427500	0,1	0,229750
5,429167	0,1	0,258849
5,430833	0,1	0,281927
5,432500	0,1	0,244274
5,434167	0,1	0,266653
5,435833	0,1	0,275952
5,437500	0,1	0,210074
5,439167	0,1	0,216347
5,440833	0,1	0,245730
5,442500	0,1	0,267353
5,444167	0,1	0,201168
5,445833	0,1	0,210423
5,447500	0,1	0,249297
5,449167	0,1	0,241875
5,450833	0,1	0,246103
5,452500	0,1	0,232508
5,454167	0,1	0,239277
5,455833	0,1	0,211590
5,457500	0,1	0,219239
5,459167	0,1	0,232154
5,460833	0,1	0,245472
5,462500	0,1	0,215052
5,464167	0,1	0,238481
5,465833	0,1	0,239774
5,467500	0,1	0,274895
5,469167	0,1	0,243884
5,470833	0,1	0,232381
5,472500	0,1	0,224209
5,474167	0,1	0,239531
5,475833	0,1	0,252930
5,477500	0,1	0,262903
5,479167	0,1	0,227950
5,480833	0,1	0,270862
5,482500	0,1	0,207864
5,484167	0,1	0,220028
5,485833	0,1	0,232265
5,487500	0,1	0,263080
5,489167	0,1	0,219635
5,490833	0,1	0,255556
5,492500	0,1	0,206352
5,494167	0,1	0,245672
5,495833	0,1	0,257050
5,497500	0,1	0,253778
5,499167	0,1	0,248109
5,500833	0,1	0,226919
5,502500	0,1	0,249430
5,504167	0,1	0,198329
5,505833	0,1	0,236711
5,507500	0,1	0,228809
5,509167	0,1	0,210098
5,510833	0,1	0,233938
5,512500	0,1	0,211257
5,514167	0,1	0,248471
5,515833	0,1	0,239959
5,517500	0,1	0,254067
5,519167	0,1	0,242742
5,520833	0,1	0,229288
5,522500	0,1	0,215819
5,524167	0,1	0,213351
5,525833	0,1	0,219200
5,527500	0,1	0,226525
5,529167	0,1	0,238776
5,530833	0,1	0,248127
5,532500	0,1	0,233575
5,534167	0,1	0,239440
5,535833	0,1	0,208739
5,537500	0,1	0,251835
5,539167	0,1	0,225632
5,540833	0,1	0,263611
5,542500	0,1	0,244177
5,544167	0,1	0,257050
5,545833	0,1	0,244286
5,547500	0,1	0,248091
5,549167	0,1	0,242740
5,550833	0,1	0,266065
5,552500	0,1	0,225027
5,554167	0,1	0,278017
5,555833	0,1	0,254594
5,557500	0,1	0,242187
5,559167	0,1	0,232270
5,560833	0,1	0,250701
5,562500	0,1	0,246786
5,564167	0,1	0,204454
5,565833	0,1	0,235591
5,567500	0,1	0,211186
5,569167	0,1	0,228344
5,570833	0,1	0,254542
5,572500	0,1	0,219688
5,574167	0,1	0,248766
5,575833	0,1	0,213836
5,577500	0,1	0,208843
5,579167	0,1	0,261915
5,580833	0,1	0,247744
5,582500	0,1	0,249028
5,584167	0,1	0,257144
5,585833	0,1	0,258730
5,587500	0,1	0,275710
5,589167	0,1	0,231468
5,590833	0,1	0,258683
5,592500	0,1	0,211448
5,594167	0,1	0,289588
5,595833	0,1	0,249849
5,597500	0,1	0,240387
5,599167	0,1	0,219519
5,600833	0,1	0,244499
5,602500	0,1	0,282790
5,604167	0,1	0,240062
5,605833	0,1	0,238708
5,607500	0,1	0,217053
5,609167	0,1	0,250309
5,610833	0,1	0,266859
5,612500	0,1	0,261156
5,614167	0,1	0,265130
5,615833	0,1	0,280585
5,617500	0,1	0,255753
5,619167	0,1	0,241193
5,620833	0,1	0,240918
5,622500	0,1	0,229177
5,624167	0,1	0,236734
5,625833	0,1	0,242349
5,627500	0,1	0,267113
5,629167	0,1	0,247490
5,630833	0,1	0,244798
5,632500	0,1	0,278356
5,634167	0,1	0,261048
5,635833	0,1	0,256743
5,637500	0,1	0,250907
5,639167	0,1	0,237901
5,640833	0,1	0,241888
5,642500	0,1	0,263799
5,644167	0,1	0,302020
5,645833	0,1	0,271930
5,647500	0,1	0,243257
5,649167	0,1	0,271749
5,650833	0,1	0,237317
5,652500	0,1	0,260472
5,654167	0,1	0,287009
5,655833	0,1	0,266886
5,657500	0,1	0,243127
5,659167	0,1	0,300585
5,660833	0,1	0,330237
5,662500	0,1	0,280785
5,664167	0,1	0,275183
5,665833	0,1	0,258383
5,667500	0,1	0,272745
5,669167	0,1	0,260148
5,670833	0,1	0,227361
5,672500	0,1	0,306812
5,674167	0,1	0,302212
5,675833	0,1	0,254415
5,677500	0,1	0,289949
5,679167	0,1	0,232704
5,680833	0,1	0,287003
5,682500	0,1	0,274169
5,684167	0,1	0,313026
5,685833	0,1	0,283158
5,687500	0,1	0,311685
5,689167	0,1	0,272210
5,690833	0,1	0,278178
5,692500	0,1	0,256048
5,694167	0,1	0,253227
5,695833	0,1	0,285567
5,697500	0,1	0,280113
5,699167	0,1	0,288062
5,700833	0,1	0,294870
5,702500	0,1	0,294523
5,704167	0,1	0,298902
5,705833	0,1	0,312165
5,707500	0,1	0,310864
5,709167	0,1	0,284516
5,710833	0,1	0,295457
5,712500	0,1	0,282659
5,714167	0,1	0,302429
5,715833	0,1	0,331512
5,717500	0,1	0,309455
5,719167	0,1	0,304551
5,720833	0,1	0,313845
5,722500	0,1	0,292508
5,724167	0,1	0,301255
5,725833	0,1	0,347656
5,727500	0,1	0,308575
5,729167	0,1	0,300743
5,730833	0,1	0,336987
5,732500	0,1	0,337974
5,734167	0,1	0,326550
5,735833	0,1	0,249032
5,737500	0,1	0,348833
5,739167	0,1	0,339084
5,740833	0,1	0,343676
5,742500	0,1	0,325263
5,744167	0,1	0,324266
5,745833	0,1	0,344300
5,747500	0,1	0,341771
5,749167	0,1	0,347301
5,750833	0,1	0,350214
5,752500	0,1	0,325671
5,754167	0,1	0,356146
5,755833	0,1	0,326317
5,757500	0,1	0,330467
5,759167	0,1	0,322825
5,760833	0,1	0,355097
5,762500	0,1	0,315996
5,764167	0,1	0,321924
5,765833	0,1	0,336262
5,767500	0,1	0,358528
5,769167	0,1	0,345008
5,770833	0,1	0,325796
5,772500	0,1	0,347829
5,774167	0,1	0,366891
5,775833	0,1	0,354322
5,777500	0,1	0,370490
5,779167	0,1	0,351508
5,780833	0,1	0,356376
5,782500	0,1	0,342951
5,784167	0,1	0,362046
5,785833	0,1	0,342433
5,787500	0,1	0,361694
5,789167	0,1	0,348748
5,790833	0,1	0,353799
5,792500	0,1	0,340863
5,794167	0,1	0,344416
5,795833	0,1	0,330192
5,797500	0,1	0,362154
5,799167	0,1	0,373756
5,800833	0,1	0,338979
5,802500	0,1	0,356905
5,804167	0,1	0,337812
5,805833	0,1	0,371062
5,807500	0,1	0,353608
5,809167	0,1	0,363224
5,810833	0,1	0,366503
5,812500	0,1	0,365860
5,814167	0,1	0,330953
5,815833	0,1	0,385999
5,817500	0,1	0,356972
5,819167	0,1	0,358576
5,820833	0,1	0,356588
5,822500	0,1	0,397250
5,824167	0,1	0,380750
5,825833	0,1	0,372220
5,827500	0,1	0,356620
5,829167	0,1	0,374706
5,830833	0,1	0,364586
5,832500	0,1	0,341734
5,834167	0,1	0,346181
5,835833	0,1	0,346797
5,837500	0,1	0,325615
5,839167	0,1	0,364562
5,840833	0,1	0,314431
5,842500	0,1	0,321854
5,844167	0,1	0,378451
5,845833	0,1	0,325413
5,847500	0,1	0,344300
5,849167	0,1	0,345356
5,850833	0,1	0,363543
5,852500	0,1	0,367595
5,854167	0,1	0,350235
5,855833	0,1	0,354555
5,857500	0,1	0,362229
5,859167	0,1	0,345653
5,860833	0,1	0,366219
5,862500	0,1	0,349982
5,864167	0,1	0,317201
5,865833	0,1	0,387354
5,867500	0,1	0,315153
5,869167	0,1	0,316884
5,870833	0,1	0,333645
5,872500	0,1	0,334937
5,874167	0,1	0,367853
5,875833	0,1	0,333937
5,877500	0,1	0,361064
5,879167	0,1	0,341328
5,880833	0,1	0,342023
5,882500	0,1	0,344291
5,884167	0,1	0,345441
5,885833	0,1	0,362802
5,887500	0,1	0,373000
5,889167	0,1	0,311118
5,890833	0,1	0,293110
5,892500	0,1	0,335851
5,894167	0,1	0,319593
5,895833	0,1	0,314141
5,897500	0,1	0,331838
5,899167	0,1	0,339402
5,900833	0,1	0,322239
5,902500	0,1	0,320638
5,904167	0,1	0,307479
5,905833	0,1	0,327902
5,907500	0,1	0,312967
5,909167	0,1	0,339020
5,910833	0,1	0,296225
5,912500	0,1	0,345709
5,914167	0,1	0,293540
5,915833	0,1	0,290753
5,917500	0,1	0,300739
5,919167	0,1	0,323616
5,920833	0,1	0,273794
5,922500	0,1	0,291169
5,924167	0,1	0,333932
5,925833	0,1	0,314161
5,927500	0,1	0,312629
5,929167	0,1	0,322919
5,930833	0,1	0,302272
5,932500	0,1	0,331891
5,934167	0,1	0,342314
5,935833	0,1	0,282943
5,937500	0,1	0,288095
5,939167	0,1	0,291245
5,940833	0,1	0,319384
5,942500	0,1	0,300801
5,944167	0,1	0,309559
5,945833	0,1	0,298460
5,947500	0,1	0,329481
5,949167	0,1	0,308824
5,950833	0,1	0,301777
5,952500	0,1	0,329077
5,954167	0,1	0,302624
5,955833	0,1	0,336931
5,957500	0,1	0,312620
5,959167	0,1	0,310825
5,960833	0,1	0,294526
5,962500	0,1	0,330712
5,964167	0,1	0,280601
5,965833	0,1	0,276614
5,967500	0,1	0,265078
5,969167	0,1	0,279848
5,970833	0,1	0,319482
5,972500	0,1	0,291546
5,974167	0,1	0,289806
5,975833	0,1	0,282634
5,977500	0,1	0,283587
5,979167	0,1	0,247290
5,980833	0,1	0,231110
5,982500	0,1	0,280507
5,984167	0,1	0,266662
5,985833	0,1	0,278027
5,987500	0,1	0,304583
5,989167	0,1	0,275443
5,990833	0,1	0,253139
5,992500	0,1	0,280527
5,994167	0,1	0,268061
5,995833	0,1	0,315949
5,997500	0,1	0,302970
5,999167	0,1	0,264203
6,000833	0,1	0,241728
