File Path	chrom://chromeleon01/ikbm_chromeleon/2022/Rezex/Esteban/220612_chitin_4_7.seq/759.smp/UV_VIS_1.channel/UV_VIS_1.chm
Channel	UV_VIS_1

Injection Information:
Data Vault	ikbm_chromeleon
Injection	A2ox 25
Injection Number	5
Position	RA2
Comment	
Processing Method	New ProcMethod
Instrument Method	Short_Rezex_6min_194nm
Type	Calibration Standard
Status	Finished
Injection Date	12.06.2022
Injection Time	17:39:45
Injection Volume (µl)	8,000
Dilution Factor	1,0000
Weight	1,0000

Chromatogram Data Information:
Time Min. (min)	0,000833
Time Max. (min)	6,000833
Data Points	3601
Detector	UV
Generating Data System	Chromeleon 7.2.9.11323
Exporting Data System	Chromeleon 7.2.9.0
Operator	Instrument Controller
Signal Quantity	Absorbance
Signal Unit	mAU
Signal Min.	-0,125270
Signal Max.	25,189233
Channel	UV_VIS_1
Driver Name	VWD3000.dll
Channel Type	Evaluation
Min. Step (s)	0,1
Max. Step (s)	0,1
Average Step (s)	0,1

Signal Parameter Information:
Signal Info	WVL:194 nm

Chromatogram Data:
Time (min)	Step (s)	Value (mAU)
0,000833	n.a.	-0,057944
0,002500	0,1	-0,062206
0,004167	0,1	-0,089997
0,005833	0,1	-0,067959
0,007500	0,1	-0,053093
0,009167	0,1	-0,053385
0,010833	0,1	-0,069190
0,012500	0,1	-0,034466
0,014167	0,1	-0,058039
0,015833	0,1	-0,077958
0,017500	0,1	-0,030454
0,019167	0,1	-0,071265
0,020833	0,1	-0,062208
0,022500	0,1	-0,061561
0,024167	0,1	-0,035404
0,025833	0,1	-0,106487
0,027500	0,1	-0,021146
0,029167	0,1	-0,016520
0,030833	0,1	-0,076463
0,032500	0,1	-0,056909
0,034167	0,1	-0,059678
0,035833	0,1	-0,067407
0,037500	0,1	-0,058343
0,039167	0,1	-0,054329
0,040833	0,1	-0,067208
0,042500	0,1	-0,079198
0,044167	0,1	-0,053639
0,045833	0,1	-0,064185
0,047500	0,1	-0,025892
0,049167	0,1	-0,055112
0,050833	0,1	-0,032776
0,052500	0,1	-0,092319
0,054167	0,1	-0,084208
0,055833	0,1	-0,090646
0,057500	0,1	-0,055229
0,059167	0,1	-0,072211
0,060833	0,1	-0,066271
0,062500	0,1	-0,040112
0,064167	0,1	-0,050510
0,065833	0,1	-0,047043
0,067500	0,1	-0,048380
0,069167	0,1	-0,034212
0,070833	0,1	-0,006019
0,072500	0,1	-0,060210
0,074167	0,1	-0,022970
0,075833	0,1	-0,072649
0,077500	0,1	-0,047247
0,079167	0,1	-0,019152
0,080833	0,1	-0,093453
0,082500	0,1	-0,045766
0,084167	0,1	-0,067353
0,085833	0,1	-0,022723
0,087500	0,1	-0,059124
0,089167	0,1	-0,068002
0,090833	0,1	-0,084995
0,092500	0,1	-0,051659
0,094167	0,1	-0,053287
0,095833	0,1	-0,108869
0,097500	0,1	-0,071729
0,099167	0,1	-0,050219
0,100833	0,1	-0,057447
0,102500	0,1	-0,070429
0,104167	0,1	-0,096093
0,105833	0,1	-0,049335
0,107500	0,1	-0,077807
0,109167	0,1	-0,066768
0,110833	0,1	-0,077763
0,112500	0,1	-0,125270
0,114167	0,1	-0,070941
0,115833	0,1	-0,119424
0,117500	0,1	-0,054293
0,119167	0,1	-0,039614
0,120833	0,1	-0,067799
0,122500	0,1	-0,070828
0,124167	0,1	-0,074693
0,125833	0,1	-0,071176
0,127500	0,1	-0,078902
0,129167	0,1	-0,097233
0,130833	0,1	-0,060133
0,132500	0,1	-0,053685
0,134167	0,1	-0,055071
0,135833	0,1	-0,084299
0,137500	0,1	-0,054732
0,139167	0,1	-0,083407
0,140833	0,1	-0,056217
0,142500	0,1	-0,085932
0,144167	0,1	-0,078907
0,145833	0,1	-0,089754
0,147500	0,1	-0,073408
0,149167	0,1	-0,090000
0,150833	0,1	-0,042693
0,152500	0,1	-0,036739
0,154167	0,1	-0,067748
0,155833	0,1	-0,055123
0,157500	0,1	-0,068892
0,159167	0,1	-0,060572
0,160833	0,1	-0,048532
0,162500	0,1	-0,031884
0,164167	0,1	-0,056055
0,165833	0,1	-0,055268
0,167500	0,1	-0,073500
0,169167	0,1	-0,082025
0,170833	0,1	-0,073902
0,172500	0,1	-0,057849
0,174167	0,1	-0,080287
0,175833	0,1	-0,054234
0,177500	0,1	-0,022819
0,179167	0,1	-0,059422
0,180833	0,1	-0,070578
0,182500	0,1	-0,055917
0,184167	0,1	-0,034659
0,185833	0,1	-0,044712
0,187500	0,1	-0,030844
0,189167	0,1	-0,041639
0,190833	0,1	-0,071020
0,192500	0,1	-0,036348
0,194167	0,1	-0,033815
0,195833	0,1	-0,050359
0,197500	0,1	-0,051404
0,199167	0,1	-0,055961
0,200833	0,1	-0,060470
0,202500	0,1	-0,063245
0,204167	0,1	-0,035354
0,205833	0,1	-0,034755
0,207500	0,1	-0,061951
0,209167	0,1	-0,059086
0,210833	0,1	-0,019998
0,212500	0,1	-0,061850
0,214167	0,1	-0,030798
0,215833	0,1	-0,050904
0,217500	0,1	-0,084396
0,219167	0,1	-0,033032
0,220833	0,1	-0,084046
0,222500	0,1	-0,046507
0,224167	0,1	-0,070276
0,225833	0,1	-0,036597
0,227500	0,1	-0,057098
0,229167	0,1	-0,043282
0,230833	0,1	-0,062300
0,232500	0,1	-0,039071
0,234167	0,1	-0,056108
0,235833	0,1	-0,028516
0,237500	0,1	-0,020980
0,239167	0,1	-0,055261
0,240833	0,1	-0,053683
0,242500	0,1	-0,021929
0,244167	0,1	-0,069726
0,245833	0,1	-0,049178
0,247500	0,1	-0,020391
0,249167	0,1	-0,030243
0,250833	0,1	-0,062842
0,252500	0,1	-0,035802
0,254167	0,1	-0,028066
0,255833	0,1	-0,009141
0,257500	0,1	0,000724
0,259167	0,1	-0,064520
0,260833	0,1	-0,045364
0,262500	0,1	-0,041295
0,264167	0,1	-0,039166
0,265833	0,1	-0,037133
0,267500	0,1	-0,050359
0,269167	0,1	-0,039267
0,270833	0,1	-0,062895
0,272500	0,1	-0,067605
0,274167	0,1	-0,030551
0,275833	0,1	-0,028214
0,277500	0,1	-0,009981
0,279167	0,1	-0,044507
0,280833	0,1	-0,073992
0,282500	0,1	-0,036995
0,284167	0,1	0,017315
0,285833	0,1	-0,003532
0,287500	0,1	-0,007402
0,289167	0,1	-0,035691
0,290833	0,1	-0,077160
0,292500	0,1	-0,010836
0,294167	0,1	-0,055407
0,295833	0,1	-0,018609
0,297500	0,1	-0,069477
0,299167	0,1	-0,005236
0,300833	0,1	-0,030190
0,302500	0,1	-0,057145
0,304167	0,1	-0,011030
0,305833	0,1	-0,074726
0,307500	0,1	-0,053640
0,309167	0,1	-0,018509
0,310833	0,1	-0,044906
0,312500	0,1	-0,036888
0,314167	0,1	-0,015780
0,315833	0,1	-0,039507
0,317500	0,1	-0,032822
0,319167	0,1	0,008793
0,320833	0,1	0,007863
0,322500	0,1	-0,006360
0,324167	0,1	-0,038364
0,325833	0,1	-0,054917
0,327500	0,1	0,009485
0,329167	0,1	-0,023251
0,330833	0,1	-0,026280
0,332500	0,1	-0,011617
0,334167	0,1	-0,026031
0,335833	0,1	0,004730
0,337500	0,1	-0,056841
0,339167	0,1	0,006260
0,340833	0,1	-0,003336
0,342500	0,1	0,029311
0,344167	0,1	0,007619
0,345833	0,1	0,007268
0,347500	0,1	-0,005613
0,349167	0,1	-0,005172
0,350833	0,1	0,005184
0,352500	0,1	0,026091
0,354167	0,1	0,022727
0,355833	0,1	0,017030
0,357500	0,1	-0,001597
0,359167	0,1	0,011825
0,360833	0,1	-0,014134
0,362500	0,1	0,013850
0,364167	0,1	0,014401
0,365833	0,1	0,019604
0,367500	0,1	-0,010169
0,369167	0,1	0,001418
0,370833	0,1	-0,028107
0,372500	0,1	-0,034704
0,374167	0,1	-0,006022
0,375833	0,1	0,033025
0,377500	0,1	0,002268
0,379167	0,1	-0,003088
0,380833	0,1	0,021631
0,382500	0,1	0,018467
0,384167	0,1	-0,006650
0,385833	0,1	-0,018053
0,387500	0,1	-0,007256
0,389167	0,1	0,033523
0,390833	0,1	0,003606
0,392500	0,1	0,051063
0,394167	0,1	0,030812
0,395833	0,1	0,001029
0,397500	0,1	0,012665
0,399167	0,1	0,002067
0,400833	0,1	-0,031971
0,402500	0,1	0,017660
0,404167	0,1	0,013164
0,405833	0,1	0,018515
0,407500	0,1	0,014701
0,409167	0,1	-0,008337
0,410833	0,1	0,017670
0,412500	0,1	0,060383
0,414167	0,1	0,002125
0,415833	0,1	0,006474
0,417500	0,1	0,037787
0,419167	0,1	0,012774
0,420833	0,1	-0,000410
0,422500	0,1	0,027479
0,424167	0,1	-0,019629
0,425833	0,1	-0,006463
0,427500	0,1	0,041199
0,429167	0,1	0,017279
0,430833	0,1	-0,007198
0,432500	0,1	0,016129
0,434167	0,1	0,010985
0,435833	0,1	-0,007597
0,437500	0,1	0,032135
0,439167	0,1	-0,004073
0,440833	0,1	-0,016220
0,442500	0,1	0,009939
0,444167	0,1	0,011773
0,445833	0,1	-0,006953
0,447500	0,1	0,008948
0,449167	0,1	0,051212
0,450833	0,1	0,005343
0,452500	0,1	0,034465
0,454167	0,1	0,043885
0,455833	0,1	0,016639
0,457500	0,1	0,027632
0,459167	0,1	0,027536
0,460833	0,1	0,037890
0,462500	0,1	0,039381
0,464167	0,1	0,027139
0,465833	0,1	0,016041
0,467500	0,1	-0,007248
0,469167	0,1	-0,001357
0,470833	0,1	0,046897
0,472500	0,1	0,009506
0,474167	0,1	-0,001453
0,475833	0,1	0,028222
0,477500	0,1	0,005786
0,479167	0,1	0,018168
0,480833	0,1	-0,002194
0,482500	0,1	-0,011562
0,484167	0,1	0,050513
0,485833	0,1	0,029474
0,487500	0,1	0,035065
0,489167	0,1	0,022978
0,490833	0,1	0,030256
0,492500	0,1	0,055727
0,494167	0,1	0,054888
0,495833	0,1	0,023477
0,497500	0,1	0,021044
0,499167	0,1	0,042542
0,500833	0,1	0,017083
0,502500	0,1	0,009644
0,504167	0,1	0,029957
0,505833	0,1	0,013512
0,507500	0,1	0,050965
0,509167	0,1	0,040074
0,510833	0,1	0,024222
0,512500	0,1	0,020495
0,514167	0,1	0,007717
0,515833	0,1	0,020890
0,517500	0,1	0,031892
0,519167	0,1	0,042056
0,520833	0,1	0,032543
0,522500	0,1	0,010196
0,524167	0,1	0,006422
0,525833	0,1	0,058247
0,527500	0,1	0,024866
0,529167	0,1	-0,019383
0,530833	0,1	0,026036
0,532500	0,1	0,021887
0,534167	0,1	-0,019135
0,535833	0,1	0,028812
0,537500	0,1	-0,010960
0,539167	0,1	-0,043914
0,540833	0,1	0,030938
0,542500	0,1	0,013661
0,544167	0,1	0,044524
0,545833	0,1	0,035618
0,547500	0,1	-0,006748
0,549167	0,1	0,012912
0,550833	0,1	0,028869
0,552500	0,1	-0,015617
0,554167	0,1	0,034361
0,555833	0,1	-0,011008
0,557500	0,1	0,024401
0,559167	0,1	0,040762
0,560833	0,1	0,054391
0,562500	0,1	0,053606
0,564167	0,1	0,001778
0,565833	0,1	0,038130
0,567500	0,1	0,021193
0,569167	0,1	0,023470
0,570833	0,1	0,032138
0,572500	0,1	0,036204
0,574167	0,1	0,004397
0,575833	0,1	0,032039
0,577500	0,1	0,022183
0,579167	0,1	0,006329
0,580833	0,1	-0,007795
0,582500	0,1	0,016527
0,584167	0,1	0,055819
0,585833	0,1	0,012774
0,587500	0,1	0,045912
0,589167	0,1	0,048395
0,590833	0,1	0,029372
0,592500	0,1	0,015494
0,594167	0,1	0,034223
0,595833	0,1	0,048048
0,597500	0,1	-0,001839
0,599167	0,1	0,026291
0,600833	0,1	0,009500
0,602500	0,1	0,026092
0,604167	0,1	0,030901
0,605833	0,1	0,020796
0,607500	0,1	-0,010616
0,609167	0,1	0,006171
0,610833	0,1	0,014250
0,612500	0,1	0,061866
0,614167	0,1	0,023579
0,615833	0,1	0,025997
0,617500	0,1	0,027979
0,619167	0,1	0,072719
0,620833	0,1	0,015358
0,622500	0,1	0,049778
0,624167	0,1	0,062666
0,625833	0,1	0,042552
0,627500	0,1	0,014308
0,629167	0,1	-0,007447
0,630833	0,1	0,033768
0,632500	0,1	0,065783
0,634167	0,1	0,034675
0,635833	0,1	0,019609
0,637500	0,1	0,036646
0,639167	0,1	0,036850
0,640833	0,1	0,034818
0,642500	0,1	0,026444
0,644167	0,1	0,032089
0,645833	0,1	0,095907
0,647500	0,1	0,031266
0,649167	0,1	0,047897
0,650833	0,1	0,002321
0,652500	0,1	0,028023
0,654167	0,1	0,021934
0,655833	0,1	0,063010
0,657500	0,1	0,025113
0,659167	0,1	0,027979
0,660833	0,1	0,062511
0,662500	0,1	0,046318
0,664167	0,1	0,034425
0,665833	0,1	0,041558
0,667500	0,1	0,021393
0,669167	0,1	0,082179
0,670833	0,1	0,076890
0,672500	0,1	0,016747
0,674167	0,1	0,036350
0,675833	0,1	0,017032
0,677500	0,1	0,034567
0,679167	0,1	0,029465
0,680833	0,1	0,056666
0,682500	0,1	0,068465
0,684167	0,1	0,066979
0,685833	0,1	0,060244
0,687500	0,1	0,054889
0,689167	0,1	0,039431
0,690833	0,1	0,084459
0,692500	0,1	0,047562
0,694167	0,1	0,026152
0,695833	0,1	0,054981
0,697500	0,1	0,049487
0,699167	0,1	0,065000
0,700833	0,1	0,037845
0,702500	0,1	0,075248
0,704167	0,1	0,039684
0,705833	0,1	0,079462
0,707500	0,1	0,039187
0,709167	0,1	0,059939
0,710833	0,1	0,065990
0,712500	0,1	0,110383
0,714167	0,1	0,030277
0,715833	0,1	0,057955
0,717500	0,1	0,086151
0,719167	0,1	0,062332
0,720833	0,1	0,097800
0,722500	0,1	0,061635
0,724167	0,1	0,070499
0,725833	0,1	0,121594
0,727500	0,1	0,116446
0,729167	0,1	0,067585
0,730833	0,1	0,103002
0,732500	0,1	0,101037
0,734167	0,1	0,154749
0,735833	0,1	0,100154
0,737500	0,1	0,137499
0,739167	0,1	0,104210
0,740833	0,1	0,134627
0,742500	0,1	0,125917
0,744167	0,1	0,135230
0,745833	0,1	0,111990
0,747500	0,1	0,150987
0,749167	0,1	0,089347
0,750833	0,1	0,107520
0,752500	0,1	0,132397
0,754167	0,1	0,109258
0,755833	0,1	0,137209
0,757500	0,1	0,127844
0,759167	0,1	0,128241
0,760833	0,1	0,110448
0,762500	0,1	0,118869
0,764167	0,1	0,059312
0,765833	0,1	0,152895
0,767500	0,1	0,124425
0,769167	0,1	0,106240
0,770833	0,1	0,097615
0,772500	0,1	0,120557
0,774167	0,1	0,141470
0,775833	0,1	0,092169
0,777500	0,1	0,085916
0,779167	0,1	0,095329
0,780833	0,1	0,051877
0,782500	0,1	0,103099
0,784167	0,1	0,109848
0,785833	0,1	0,096378
0,787500	0,1	0,113662
0,789167	0,1	0,084575
0,790833	0,1	0,067973
0,792500	0,1	0,090118
0,794167	0,1	0,116435
0,795833	0,1	0,076899
0,797500	0,1	0,129611
0,799167	0,1	0,068134
0,800833	0,1	0,124804
0,802500	0,1	0,081214
0,804167	0,1	0,058759
0,805833	0,1	0,071932
0,807500	0,1	0,028086
0,809167	0,1	0,072968
0,810833	0,1	0,058757
0,812500	0,1	0,114347
0,814167	0,1	0,055992
0,815833	0,1	0,071335
0,817500	0,1	0,074610
0,819167	0,1	0,054249
0,820833	0,1	0,046959
0,822500	0,1	0,092492
0,824167	0,1	0,048452
0,825833	0,1	0,021445
0,827500	0,1	0,085648
0,829167	0,1	0,050833
0,830833	0,1	0,077326
0,832500	0,1	0,068909
0,834167	0,1	0,059500
0,835833	0,1	0,014757
0,837500	0,1	0,008205
0,839167	0,1	0,015089
0,840833	0,1	0,079401
0,842500	0,1	0,079271
0,844167	0,1	0,045626
0,845833	0,1	0,038335
0,847500	0,1	0,053197
0,849167	0,1	0,021295
0,850833	0,1	0,056958
0,852500	0,1	0,037348
0,854167	0,1	0,012623
0,855833	0,1	0,069886
0,857500	0,1	0,059794
0,859167	0,1	0,039282
0,860833	0,1	0,069594
0,862500	0,1	0,071484
0,864167	0,1	0,051965
0,865833	0,1	0,081242
0,867500	0,1	0,054389
0,869167	0,1	0,052705
0,870833	0,1	0,053251
0,872500	0,1	0,074257
0,874167	0,1	0,103299
0,875833	0,1	0,057720
0,877500	0,1	0,007476
0,879167	0,1	0,106696
0,880833	0,1	0,090323
0,882500	0,1	0,066834
0,884167	0,1	0,092000
0,885833	0,1	0,039438
0,887500	0,1	0,088179
0,889167	0,1	0,082686
0,890833	0,1	0,041220
0,892500	0,1	0,049333
0,894167	0,1	0,072872
0,895833	0,1	0,058557
0,897500	0,1	0,058553
0,899167	0,1	0,067173
0,900833	0,1	0,044235
0,902500	0,1	0,027830
0,904167	0,1	0,061518
0,905833	0,1	0,098435
0,907500	0,1	0,034881
0,909167	0,1	0,100411
0,910833	0,1	0,097354
0,912500	0,1	0,058262
0,914167	0,1	0,051618
0,915833	0,1	0,080001
0,917500	0,1	0,092447
0,919167	0,1	0,073519
0,920833	0,1	0,108399
0,922500	0,1	0,117274
0,924167	0,1	0,111633
0,925833	0,1	0,130069
0,927500	0,1	0,114858
0,929167	0,1	0,082893
0,930833	0,1	0,093095
0,932500	0,1	0,092746
0,934167	0,1	0,083633
0,935833	0,1	0,111279
0,937500	0,1	0,129021
0,939167	0,1	0,097222
0,940833	0,1	0,117819
0,942500	0,1	0,145575
0,944167	0,1	0,105198
0,945833	0,1	0,108108
0,947500	0,1	0,098195
0,949167	0,1	0,099791
0,950833	0,1	0,122033
0,952500	0,1	0,112027
0,954167	0,1	0,111632
0,955833	0,1	0,130264
0,957500	0,1	0,115451
0,959167	0,1	0,114009
0,960833	0,1	0,133827
0,962500	0,1	0,095882
0,964167	0,1	0,145123
0,965833	0,1	0,147168
0,967500	0,1	0,137405
0,969167	0,1	0,149844
0,970833	0,1	0,116745
0,972500	0,1	0,150231
0,974167	0,1	0,196778
0,975833	0,1	0,136385
0,977500	0,1	0,140628
0,979167	0,1	0,147218
0,980833	0,1	0,129534
0,982500	0,1	0,149148
0,984167	0,1	0,174031
0,985833	0,1	0,146682
0,987500	0,1	0,160854
0,989167	0,1	0,180375
0,990833	0,1	0,166605
0,992500	0,1	0,179732
0,994167	0,1	0,180981
0,995833	0,1	0,218293
0,997500	0,1	0,182170
0,999167	0,1	0,218591
1,000833	0,1	0,225399
1,002500	0,1	0,183815
1,004167	0,1	0,226815
1,005833	0,1	0,212463
1,007500	0,1	0,286605
1,009167	0,1	0,279042
1,010833	0,1	0,292074
1,012500	0,1	0,283023
1,014167	0,1	0,300657
1,015833	0,1	0,288672
1,017500	0,1	0,319153
1,019167	0,1	0,344296
1,020833	0,1	0,326144
1,022500	0,1	0,334181
1,024167	0,1	0,358583
1,025833	0,1	0,377373
1,027500	0,1	0,336720
1,029167	0,1	0,348116
1,030833	0,1	0,359426
1,032500	0,1	0,408609
1,034167	0,1	0,384952
1,035833	0,1	0,378422
1,037500	0,1	0,388284
1,039167	0,1	0,393043
1,040833	0,1	0,417347
1,042500	0,1	0,372927
1,044167	0,1	0,403547
1,045833	0,1	0,398759
1,047500	0,1	0,395870
1,049167	0,1	0,394889
1,050833	0,1	0,370303
1,052500	0,1	0,383822
1,054167	0,1	0,411285
1,055833	0,1	0,392908
1,057500	0,1	0,402764
1,059167	0,1	0,392659
1,060833	0,1	0,392362
1,062500	0,1	0,465438
1,064167	0,1	0,478505
1,065833	0,1	0,522647
1,067500	0,1	0,601433
1,069167	0,1	0,716726
1,070833	0,1	0,765317
1,072500	0,1	0,895697
1,074167	0,1	1,007390
1,075833	0,1	1,138260
1,077500	0,1	1,356555
1,079167	0,1	1,536171
1,080833	0,1	1,784291
1,082500	0,1	2,049267
1,084167	0,1	2,258678
1,085833	0,1	2,546139
1,087500	0,1	2,833262
1,089167	0,1	3,118665
1,090833	0,1	3,336154
1,092500	0,1	3,604320
1,094167	0,1	3,892810
1,095833	0,1	4,029518
1,097500	0,1	4,207502
1,099167	0,1	4,349104
1,100833	0,1	4,471433
1,102500	0,1	4,533432
1,104167	0,1	4,618484
1,105833	0,1	4,609385
1,107500	0,1	4,597041
1,109167	0,1	4,602607
1,110833	0,1	4,525944
1,112500	0,1	4,397666
1,114167	0,1	4,298360
1,115833	0,1	4,197812
1,117500	0,1	4,079149
1,119167	0,1	3,898166
1,120833	0,1	3,771563
1,122500	0,1	3,598703
1,124167	0,1	3,438140
1,125833	0,1	3,326173
1,127500	0,1	3,149193
1,129167	0,1	2,984847
1,130833	0,1	2,861117
1,132500	0,1	2,668150
1,134167	0,1	2,528784
1,135833	0,1	2,383333
1,137500	0,1	2,298238
1,139167	0,1	2,119218
1,140833	0,1	1,979002
1,142500	0,1	1,933509
1,144167	0,1	1,789217
1,145833	0,1	1,681306
1,147500	0,1	1,592253
1,149167	0,1	1,527021
1,150833	0,1	1,473188
1,152500	0,1	1,418730
1,154167	0,1	1,372846
1,155833	0,1	1,289339
1,157500	0,1	1,215082
1,159167	0,1	1,210453
1,160833	0,1	1,169048
1,162500	0,1	1,112053
1,164167	0,1	1,128532
1,165833	0,1	1,076405
1,167500	0,1	1,022275
1,169167	0,1	0,996979
1,170833	0,1	0,999794
1,172500	0,1	1,000012
1,174167	0,1	0,988448
1,175833	0,1	0,981611
1,177500	0,1	0,941462
1,179167	0,1	0,907301
1,180833	0,1	0,909659
1,182500	0,1	0,885862
1,184167	0,1	0,908120
1,185833	0,1	0,860025
1,187500	0,1	0,901420
1,189167	0,1	0,844993
1,190833	0,1	0,852722
1,192500	0,1	0,857431
1,194167	0,1	0,854232
1,195833	0,1	0,833420
1,197500	0,1	0,808603
1,199167	0,1	0,812923
1,200833	0,1	0,858629
1,202500	0,1	0,860039
1,204167	0,1	0,786998
1,205833	0,1	0,822034
1,207500	0,1	0,814327
1,209167	0,1	0,801635
1,210833	0,1	0,802468
1,212500	0,1	0,778081
1,214167	0,1	0,753833
1,215833	0,1	0,790465
1,217500	0,1	0,799453
1,219167	0,1	0,796714
1,220833	0,1	0,791819
1,222500	0,1	0,746307
1,224167	0,1	0,748635
1,225833	0,1	0,753637
1,227500	0,1	0,751778
1,229167	0,1	0,741402
1,230833	0,1	0,735814
1,232500	0,1	0,748959
1,234167	0,1	0,736759
1,235833	0,1	0,770248
1,237500	0,1	0,746629
1,239167	0,1	0,754470
1,240833	0,1	0,723773
1,242500	0,1	0,691513
1,244167	0,1	0,700728
1,245833	0,1	0,757040
1,247500	0,1	0,704508
1,249167	0,1	0,712044
1,250833	0,1	0,711295
1,252500	0,1	0,701007
1,254167	0,1	0,679286
1,255833	0,1	0,675675
1,257500	0,1	0,648795
1,259167	0,1	0,692204
1,260833	0,1	0,657999
1,262500	0,1	0,666237
1,264167	0,1	0,640927
1,265833	0,1	0,673380
1,267500	0,1	0,671623
1,269167	0,1	0,692232
1,270833	0,1	0,643724
1,272500	0,1	0,635573
1,274167	0,1	0,649496
1,275833	0,1	0,650703
1,277500	0,1	0,609638
1,279167	0,1	0,674051
1,280833	0,1	0,596640
1,282500	0,1	0,628552
1,284167	0,1	0,595182
1,285833	0,1	0,583812
1,287500	0,1	0,589960
1,289167	0,1	0,610073
1,290833	0,1	0,609558
1,292500	0,1	0,582248
1,294167	0,1	0,570788
1,295833	0,1	0,591754
1,297500	0,1	0,551413
1,299167	0,1	0,580263
1,300833	0,1	0,543584
1,302500	0,1	0,566720
1,304167	0,1	0,573504
1,305833	0,1	0,566936
1,307500	0,1	0,531627
1,309167	0,1	0,547425
1,310833	0,1	0,528049
1,312500	0,1	0,514661
1,314167	0,1	0,543814
1,315833	0,1	0,507557
1,317500	0,1	0,526891
1,319167	0,1	0,514802
1,320833	0,1	0,495197
1,322500	0,1	0,481913
1,324167	0,1	0,496877
1,325833	0,1	0,481616
1,327500	0,1	0,488600
1,329167	0,1	0,460236
1,330833	0,1	0,501246
1,332500	0,1	0,513853
1,334167	0,1	0,447452
1,335833	0,1	0,475996
1,337500	0,1	0,446118
1,339167	0,1	0,483139
1,340833	0,1	0,442132
1,342500	0,1	0,516646
1,344167	0,1	0,464911
1,345833	0,1	0,422442
1,347500	0,1	0,467696
1,349167	0,1	0,453398
1,350833	0,1	0,415735
1,352500	0,1	0,411627
1,354167	0,1	0,437849
1,355833	0,1	0,439388
1,357500	0,1	0,388583
1,359167	0,1	0,440911
1,360833	0,1	0,368846
1,362500	0,1	0,391130
1,364167	0,1	0,436089
1,365833	0,1	0,450991
1,367500	0,1	0,406954
1,369167	0,1	0,392339
1,370833	0,1	0,357582
1,372500	0,1	0,394210
1,374167	0,1	0,382719
1,375833	0,1	0,414338
1,377500	0,1	0,384000
1,379167	0,1	0,360841
1,380833	0,1	0,391515
1,382500	0,1	0,365885
1,384167	0,1	0,420175
1,385833	0,1	0,375132
1,387500	0,1	0,344277
1,389167	0,1	0,394052
1,390833	0,1	0,365355
1,392500	0,1	0,358207
1,394167	0,1	0,375956
1,395833	0,1	0,355529
1,397500	0,1	0,340611
1,399167	0,1	0,366477
1,400833	0,1	0,338834
1,402500	0,1	0,333066
1,404167	0,1	0,339663
1,405833	0,1	0,361862
1,407500	0,1	0,330403
1,409167	0,1	0,324737
1,410833	0,1	0,338926
1,412500	0,1	0,308977
1,414167	0,1	0,332722
1,415833	0,1	0,369248
1,417500	0,1	0,302744
1,419167	0,1	0,330171
1,420833	0,1	0,290295
1,422500	0,1	0,303461
1,424167	0,1	0,318972
1,425833	0,1	0,333317
1,427500	0,1	0,334600
1,429167	0,1	0,311849
1,430833	0,1	0,346981
1,432500	0,1	0,302134
1,434167	0,1	0,346488
1,435833	0,1	0,288755
1,437500	0,1	0,280702
1,439167	0,1	0,326167
1,440833	0,1	0,306294
1,442500	0,1	0,309008
1,444167	0,1	0,316600
1,445833	0,1	0,325070
1,447500	0,1	0,287818
1,449167	0,1	0,332216
1,450833	0,1	0,305322
1,452500	0,1	0,292060
1,454167	0,1	0,313118
1,455833	0,1	0,287509
1,457500	0,1	0,288425
1,459167	0,1	0,311696
1,460833	0,1	0,254492
1,462500	0,1	0,318960
1,464167	0,1	0,275063
1,465833	0,1	0,311886
1,467500	0,1	0,286169
1,469167	0,1	0,280905
1,470833	0,1	0,304052
1,472500	0,1	0,300630
1,474167	0,1	0,294186
1,475833	0,1	0,290176
1,477500	0,1	0,261975
1,479167	0,1	0,326102
1,480833	0,1	0,299449
1,482500	0,1	0,280621
1,484167	0,1	0,284821
1,485833	0,1	0,283974
1,487500	0,1	0,298999
1,489167	0,1	0,263553
1,490833	0,1	0,316445
1,492500	0,1	0,323935
1,494167	0,1	0,254546
1,495833	0,1	0,246543
1,497500	0,1	0,304341
1,499167	0,1	0,294575
1,500833	0,1	0,277932
1,502500	0,1	0,262463
1,504167	0,1	0,281689
1,505833	0,1	0,273214
1,507500	0,1	0,289228
1,509167	0,1	0,283432
1,510833	0,1	0,276590
1,512500	0,1	0,326955
1,514167	0,1	0,283882
1,515833	0,1	0,289242
1,517500	0,1	0,240711
1,519167	0,1	0,271967
1,520833	0,1	0,288870
1,522500	0,1	0,293436
1,524167	0,1	0,288231
1,525833	0,1	0,256605
1,527500	0,1	0,275437
1,529167	0,1	0,252408
1,530833	0,1	0,261067
1,532500	0,1	0,290003
1,534167	0,1	0,257872
1,535833	0,1	0,251257
1,537500	0,1	0,264787
1,539167	0,1	0,287682
1,540833	0,1	0,262517
1,542500	0,1	0,260076
1,544167	0,1	0,281186
1,545833	0,1	0,278326
1,547500	0,1	0,255671
1,549167	0,1	0,258388
1,550833	0,1	0,262110
1,552500	0,1	0,265926
1,554167	0,1	0,267215
1,555833	0,1	0,291887
1,557500	0,1	0,271324
1,559167	0,1	0,262494
1,560833	0,1	0,247986
1,562500	0,1	0,304526
1,564167	0,1	0,234509
1,565833	0,1	0,275085
1,567500	0,1	0,296655
1,569167	0,1	0,258551
1,570833	0,1	0,248273
1,572500	0,1	0,219531
1,574167	0,1	0,246331
1,575833	0,1	0,226414
1,577500	0,1	0,219272
1,579167	0,1	0,239345
1,580833	0,1	0,243860
1,582500	0,1	0,257537
1,584167	0,1	0,230479
1,585833	0,1	0,263926
1,587500	0,1	0,202792
1,589167	0,1	0,242122
1,590833	0,1	0,242962
1,592500	0,1	0,237367
1,594167	0,1	0,241129
1,595833	0,1	0,242174
1,597500	0,1	0,252178
1,599167	0,1	0,225873
1,600833	0,1	0,250944
1,602500	0,1	0,204069
1,604167	0,1	0,225658
1,605833	0,1	0,243256
1,607500	0,1	0,245590
1,609167	0,1	0,270035
1,610833	0,1	0,234450
1,612500	0,1	0,242519
1,614167	0,1	0,269328
1,615833	0,1	0,228261
1,617500	0,1	0,241331
1,619167	0,1	0,282419
1,620833	0,1	0,259079
1,622500	0,1	0,251844
1,624167	0,1	0,246280
1,625833	0,1	0,270279
1,627500	0,1	0,326829
1,629167	0,1	0,284966
1,630833	0,1	0,322485
1,632500	0,1	0,318925
1,634167	0,1	0,348518
1,635833	0,1	0,345690
1,637500	0,1	0,371366
1,639167	0,1	0,410198
1,640833	0,1	0,444370
1,642500	0,1	0,481122
1,644167	0,1	0,453114
1,645833	0,1	0,501123
1,647500	0,1	0,586872
1,649167	0,1	0,615003
1,650833	0,1	0,662316
1,652500	0,1	0,734628
1,654167	0,1	0,814849
1,655833	0,1	0,870113
1,657500	0,1	0,924869
1,659167	0,1	1,028600
1,660833	0,1	1,129385
1,662500	0,1	1,233367
1,664167	0,1	1,370839
1,665833	0,1	1,465843
1,667500	0,1	1,613275
1,669167	0,1	1,746773
1,670833	0,1	1,910527
1,672500	0,1	2,091939
1,674167	0,1	2,291616
1,675833	0,1	2,486083
1,677500	0,1	2,753331
1,679167	0,1	2,965479
1,680833	0,1	3,182070
1,682500	0,1	3,488563
1,684167	0,1	3,735284
1,685833	0,1	4,023710
1,687500	0,1	4,346278
1,689167	0,1	4,682976
1,690833	0,1	5,008513
1,692500	0,1	5,372296
1,694167	0,1	5,765776
1,695833	0,1	6,140099
1,697500	0,1	6,533516
1,699167	0,1	6,987885
1,700833	0,1	7,419458
1,702500	0,1	7,878405
1,704167	0,1	8,344771
1,705833	0,1	8,770951
1,707500	0,1	9,279014
1,709167	0,1	9,821064
1,710833	0,1	10,322642
1,712500	0,1	10,795147
1,714167	0,1	11,298538
1,715833	0,1	11,890426
1,717500	0,1	12,389233
1,719167	0,1	12,957105
1,720833	0,1	13,500614
1,722500	0,1	14,038146
1,724167	0,1	14,585102
1,725833	0,1	15,148231
1,727500	0,1	15,652380
1,729167	0,1	16,199106
1,730833	0,1	16,725640
1,732500	0,1	17,221747
1,734167	0,1	17,766939
1,735833	0,1	18,276799
1,737500	0,1	18,777026
1,739167	0,1	19,277572
1,740833	0,1	19,700386
1,742500	0,1	20,181576
1,744167	0,1	20,615068
1,745833	0,1	21,076378
1,747500	0,1	21,497287
1,749167	0,1	21,848316
1,750833	0,1	22,253230
1,752500	0,1	22,580526
1,754167	0,1	22,882276
1,755833	0,1	23,249319
1,757500	0,1	23,557099
1,759167	0,1	23,779584
1,760833	0,1	24,017529
1,762500	0,1	24,246581
1,764167	0,1	24,458366
1,765833	0,1	24,604583
1,767500	0,1	24,782294
1,769167	0,1	24,915913
1,770833	0,1	24,991202
1,772500	0,1	25,039298
1,774167	0,1	25,136258
1,775833	0,1	25,184045
1,777500	0,1	25,189233
1,779167	0,1	25,170623
1,780833	0,1	25,140526
1,782500	0,1	25,063162
1,784167	0,1	25,017062
1,785833	0,1	24,934125
1,787500	0,1	24,823310
1,789167	0,1	24,676556
1,790833	0,1	24,526074
1,792500	0,1	24,397682
1,794167	0,1	24,162285
1,795833	0,1	23,958518
1,797500	0,1	23,768805
1,799167	0,1	23,583844
1,800833	0,1	23,299811
1,802500	0,1	23,033058
1,804167	0,1	22,794495
1,805833	0,1	22,526395
1,807500	0,1	22,235318
1,809167	0,1	21,907561
1,810833	0,1	21,613931
1,812500	0,1	21,280952
1,814167	0,1	20,934003
1,815833	0,1	20,588829
1,817500	0,1	20,286751
1,819167	0,1	19,953743
1,820833	0,1	19,591649
1,822500	0,1	19,209500
1,824167	0,1	18,889681
1,825833	0,1	18,510854
1,827500	0,1	18,153554
1,829167	0,1	17,773863
1,830833	0,1	17,436622
1,832500	0,1	17,112611
1,834167	0,1	16,704822
1,835833	0,1	16,364440
1,837500	0,1	16,006479
1,839167	0,1	15,669374
1,840833	0,1	15,293875
1,842500	0,1	14,917129
1,844167	0,1	14,577525
1,845833	0,1	14,228921
1,847500	0,1	13,905923
1,849167	0,1	13,570040
1,850833	0,1	13,216479
1,852500	0,1	12,893062
1,854167	0,1	12,576768
1,855833	0,1	12,236233
1,857500	0,1	11,931821
1,859167	0,1	11,639165
1,860833	0,1	11,287864
1,862500	0,1	11,058192
1,864167	0,1	10,745353
1,865833	0,1	10,444849
1,867500	0,1	10,177826
1,869167	0,1	9,936657
1,870833	0,1	9,627243
1,872500	0,1	9,385415
1,874167	0,1	9,094451
1,875833	0,1	8,886509
1,877500	0,1	8,646520
1,879167	0,1	8,401567
1,880833	0,1	8,161578
1,882500	0,1	7,974701
1,884167	0,1	7,703812
1,885833	0,1	7,490488
1,887500	0,1	7,291851
1,889167	0,1	7,069137
1,890833	0,1	6,923608
1,892500	0,1	6,695214
1,894167	0,1	6,508472
1,895833	0,1	6,363050
1,897500	0,1	6,136127
1,899167	0,1	6,023373
1,900833	0,1	5,826443
1,902500	0,1	5,676959
1,904167	0,1	5,514977
1,905833	0,1	5,354017
1,907500	0,1	5,199939
1,909167	0,1	5,030641
1,910833	0,1	4,892225
1,912500	0,1	4,753001
1,914167	0,1	4,596883
1,915833	0,1	4,533532
1,917500	0,1	4,403182
1,919167	0,1	4,265155
1,920833	0,1	4,142354
1,922500	0,1	4,031376
1,924167	0,1	3,897707
1,925833	0,1	3,836424
1,927500	0,1	3,734410
1,929167	0,1	3,637239
1,930833	0,1	3,522363
1,932500	0,1	3,451451
1,934167	0,1	3,357624
1,935833	0,1	3,267609
1,937500	0,1	3,170603
1,939167	0,1	3,044470
1,940833	0,1	2,995998
1,942500	0,1	2,891841
1,944167	0,1	2,840546
1,945833	0,1	2,775449
1,947500	0,1	2,655542
1,949167	0,1	2,639255
1,950833	0,1	2,544996
1,952500	0,1	2,523342
1,954167	0,1	2,403128
1,955833	0,1	2,369249
1,957500	0,1	2,333091
1,959167	0,1	2,212639
1,960833	0,1	2,225196
1,962500	0,1	2,162547
1,964167	0,1	2,061648
1,965833	0,1	2,073327
1,967500	0,1	2,008340
1,969167	0,1	1,945226
1,970833	0,1	1,902173
1,972500	0,1	1,813619
1,974167	0,1	1,825069
1,975833	0,1	1,760369
1,977500	0,1	1,732073
1,979167	0,1	1,686513
1,980833	0,1	1,693555
1,982500	0,1	1,604586
1,984167	0,1	1,560391
1,985833	0,1	1,544271
1,987500	0,1	1,529767
1,989167	0,1	1,494041
1,990833	0,1	1,453974
1,992500	0,1	1,429962
1,994167	0,1	1,362296
1,995833	0,1	1,390294
1,997500	0,1	1,382549
1,999167	0,1	1,331871
2,000833	0,1	1,287700
2,002500	0,1	1,285550
2,004167	0,1	1,222392
2,005833	0,1	1,275993
2,007500	0,1	1,208608
2,009167	0,1	1,166788
2,010833	0,1	1,225740
2,012500	0,1	1,167567
2,014167	0,1	1,097216
2,015833	0,1	1,149315
2,017500	0,1	1,082122
2,019167	0,1	1,113597
2,020833	0,1	1,084313
2,022500	0,1	1,096704
2,024167	0,1	1,051094
2,025833	0,1	1,048959
2,027500	0,1	1,039410
2,029167	0,1	1,029639
2,030833	0,1	0,978091
2,032500	0,1	0,986659
2,034167	0,1	0,969985
2,035833	0,1	0,944788
2,037500	0,1	0,918163
2,039167	0,1	0,965640
2,040833	0,1	0,964655
2,042500	0,1	0,935669
2,044167	0,1	0,905201
2,045833	0,1	0,911593
2,047500	0,1	0,929309
2,049167	0,1	0,874147
2,050833	0,1	0,895239
2,052500	0,1	0,868143
2,054167	0,1	0,887789
2,055833	0,1	0,901397
2,057500	0,1	0,861235
2,059167	0,1	0,854103
2,060833	0,1	0,823535
2,062500	0,1	0,816782
2,064167	0,1	0,853501
2,065833	0,1	0,844986
2,067500	0,1	0,855499
2,069167	0,1	0,806117
2,070833	0,1	0,844897
2,072500	0,1	0,817460
2,074167	0,1	0,823904
2,075833	0,1	0,817829
2,077500	0,1	0,816915
2,079167	0,1	0,785063
2,080833	0,1	0,790270
2,082500	0,1	0,814518
2,084167	0,1	0,777109
2,085833	0,1	0,804838
2,087500	0,1	0,757050
2,089167	0,1	0,790642
2,090833	0,1	0,798467
2,092500	0,1	0,762776
2,094167	0,1	0,751507
2,095833	0,1	0,787090
2,097500	0,1	0,792691
2,099167	0,1	0,794734
2,100833	0,1	0,787181
2,102500	0,1	0,784280
2,104167	0,1	0,769815
2,105833	0,1	0,785591
2,107500	0,1	0,771296
2,109167	0,1	0,731567
2,110833	0,1	0,735351
2,112500	0,1	0,795233
2,114167	0,1	0,778849
2,115833	0,1	0,797664
2,117500	0,1	0,748798
2,119167	0,1	0,722532
2,120833	0,1	0,742794
2,122500	0,1	0,698104
2,124167	0,1	0,758024
2,125833	0,1	0,729311
2,127500	0,1	0,714755
2,129167	0,1	0,719169
2,130833	0,1	0,725673
2,132500	0,1	0,754806
2,134167	0,1	0,739303
2,135833	0,1	0,716215
2,137500	0,1	0,684090
2,139167	0,1	0,724345
2,140833	0,1	0,756847
2,142500	0,1	0,691417
2,144167	0,1	0,725266
2,145833	0,1	0,685677
2,147500	0,1	0,662515
2,149167	0,1	0,697949
2,150833	0,1	0,684920
2,152500	0,1	0,667451
2,154167	0,1	0,645468
2,155833	0,1	0,648931
2,157500	0,1	0,698674
2,159167	0,1	0,683260
2,160833	0,1	0,660115
2,162500	0,1	0,669761
2,164167	0,1	0,665513
2,165833	0,1	0,646059
2,167500	0,1	0,675965
2,169167	0,1	0,666054
2,170833	0,1	0,651252
2,172500	0,1	0,642379
2,174167	0,1	0,656511
2,175833	0,1	0,658691
2,177500	0,1	0,644821
2,179167	0,1	0,659367
2,180833	0,1	0,656218
2,182500	0,1	0,646197
2,184167	0,1	0,636869
2,185833	0,1	0,619456
2,187500	0,1	0,592720
2,189167	0,1	0,608798
2,190833	0,1	0,625340
2,192500	0,1	0,622677
2,194167	0,1	0,613024
2,195833	0,1	0,589684
2,197500	0,1	0,612127
2,199167	0,1	0,597144
2,200833	0,1	0,619639
2,202500	0,1	0,603194
2,204167	0,1	0,592748
2,205833	0,1	0,604005
2,207500	0,1	0,579280
2,209167	0,1	0,585058
2,210833	0,1	0,568907
2,212500	0,1	0,590633
2,214167	0,1	0,573926
2,215833	0,1	0,535569
2,217500	0,1	0,584910
2,219167	0,1	0,567058
2,220833	0,1	0,520184
2,222500	0,1	0,551186
2,224167	0,1	0,566494
2,225833	0,1	0,542956
2,227500	0,1	0,531782
2,229167	0,1	0,574243
2,230833	0,1	0,528686
2,232500	0,1	0,533120
2,234167	0,1	0,502036
2,235833	0,1	0,534455
2,237500	0,1	0,533938
2,239167	0,1	0,489944
2,240833	0,1	0,531524
2,242500	0,1	0,515331
2,244167	0,1	0,514037
2,245833	0,1	0,487502
2,247500	0,1	0,502898
2,249167	0,1	0,491596
2,250833	0,1	0,455562
2,252500	0,1	0,494527
2,254167	0,1	0,466572
2,255833	0,1	0,488832
2,257500	0,1	0,498684
2,259167	0,1	0,463878
2,260833	0,1	0,496359
2,262500	0,1	0,467654
2,264167	0,1	0,481132
2,265833	0,1	0,450995
2,267500	0,1	0,504459
2,269167	0,1	0,454573
2,270833	0,1	0,474631
2,272500	0,1	0,447875
2,274167	0,1	0,472800
2,275833	0,1	0,454359
2,277500	0,1	0,465623
2,279167	0,1	0,485904
2,280833	0,1	0,441973
2,282500	0,1	0,456995
2,284167	0,1	0,447767
2,285833	0,1	0,420849
2,287500	0,1	0,461035
2,289167	0,1	0,442702
2,290833	0,1	0,445082
2,292500	0,1	0,424755
2,294167	0,1	0,429867
2,295833	0,1	0,422662
2,297500	0,1	0,443671
2,299167	0,1	0,394076
2,300833	0,1	0,412548
2,302500	0,1	0,393476
2,304167	0,1	0,400741
2,305833	0,1	0,419935
2,307500	0,1	0,413637
2,309167	0,1	0,383743
2,310833	0,1	0,399707
2,312500	0,1	0,375208
2,314167	0,1	0,391920
2,315833	0,1	0,395441
2,317500	0,1	0,381846
2,319167	0,1	0,350780
2,320833	0,1	0,399390
2,322500	0,1	0,409725
2,324167	0,1	0,392624
2,325833	0,1	0,381572
2,327500	0,1	0,380475
2,329167	0,1	0,365783
2,330833	0,1	0,339330
2,332500	0,1	0,374226
2,334167	0,1	0,413033
2,335833	0,1	0,371951
2,337500	0,1	0,370395
2,339167	0,1	0,351216
2,340833	0,1	0,391863
2,342500	0,1	0,390183
2,344167	0,1	0,359739
2,345833	0,1	0,330051
2,347500	0,1	0,379458
2,349167	0,1	0,375306
2,350833	0,1	0,339628
2,352500	0,1	0,347198
2,354167	0,1	0,337329
2,355833	0,1	0,346941
2,357500	0,1	0,316115
2,359167	0,1	0,338376
2,360833	0,1	0,343098
2,362500	0,1	0,342044
2,364167	0,1	0,291743
2,365833	0,1	0,367410
2,367500	0,1	0,327475
2,369167	0,1	0,334358
2,370833	0,1	0,330237
2,372500	0,1	0,329040
2,374167	0,1	0,344259
2,375833	0,1	0,327560
2,377500	0,1	0,306897
2,379167	0,1	0,341984
2,380833	0,1	0,327081
2,382500	0,1	0,353680
2,384167	0,1	0,303681
2,385833	0,1	0,318285
2,387500	0,1	0,318933
2,389167	0,1	0,317112
2,390833	0,1	0,353226
2,392500	0,1	0,334855
2,394167	0,1	0,341439
2,395833	0,1	0,292674
2,397500	0,1	0,337806
2,399167	0,1	0,355177
2,400833	0,1	0,302189
2,402500	0,1	0,338802
2,404167	0,1	0,313138
2,405833	0,1	0,309306
2,407500	0,1	0,303210
2,409167	0,1	0,318775
2,410833	0,1	0,351242
2,412500	0,1	0,308733
2,414167	0,1	0,306236
2,415833	0,1	0,287008
2,417500	0,1	0,286964
2,419167	0,1	0,292609
2,420833	0,1	0,314416
2,422500	0,1	0,321856
2,424167	0,1	0,305116
2,425833	0,1	0,307033
2,427500	0,1	0,306534
2,429167	0,1	0,287448
2,430833	0,1	0,299481
2,432500	0,1	0,290535
2,434167	0,1	0,210201
2,435833	0,1	0,298830
2,437500	0,1	0,334432
2,439167	0,1	0,282403
2,440833	0,1	0,278924
2,442500	0,1	0,289968
2,444167	0,1	0,278231
2,445833	0,1	0,294325
2,447500	0,1	0,263566
2,449167	0,1	0,283462
2,450833	0,1	0,266345
2,452500	0,1	0,238976
2,454167	0,1	0,293324
2,455833	0,1	0,293491
2,457500	0,1	0,250536
2,459167	0,1	0,271870
2,460833	0,1	0,265443
2,462500	0,1	0,286907
2,464167	0,1	0,286759
2,465833	0,1	0,283036
2,467500	0,1	0,241462
2,469167	0,1	0,279763
2,470833	0,1	0,286051
2,472500	0,1	0,263317
2,474167	0,1	0,274155
2,475833	0,1	0,287503
2,477500	0,1	0,260496
2,479167	0,1	0,251605
2,480833	0,1	0,275287
2,482500	0,1	0,239731
2,484167	0,1	0,255229
2,485833	0,1	0,259477
2,487500	0,1	0,246458
2,489167	0,1	0,290993
2,490833	0,1	0,274304
2,492500	0,1	0,263264
2,494167	0,1	0,281446
2,495833	0,1	0,233969
2,497500	0,1	0,258540
2,499167	0,1	0,273262
2,500833	0,1	0,250032
2,502500	0,1	0,242295
2,504167	0,1	0,266969
2,505833	0,1	0,217368
2,507500	0,1	0,255908
2,509167	0,1	0,268999
2,510833	0,1	0,235169
2,512500	0,1	0,245469
2,514167	0,1	0,224246
2,515833	0,1	0,277611
2,517500	0,1	0,268309
2,519167	0,1	0,235203
2,520833	0,1	0,265034
2,522500	0,1	0,253793
2,524167	0,1	0,237827
2,525833	0,1	0,247046
2,527500	0,1	0,250066
2,529167	0,1	0,240505
2,530833	0,1	0,228119
2,532500	0,1	0,263929
2,534167	0,1	0,243129
2,535833	0,1	0,230247
2,537500	0,1	0,259828
2,539167	0,1	0,223224
2,540833	0,1	0,252044
2,542500	0,1	0,228909
2,544167	0,1	0,276324
2,545833	0,1	0,227027
2,547500	0,1	0,273993
2,549167	0,1	0,223066
2,550833	0,1	0,235446
2,552500	0,1	0,262111
2,554167	0,1	0,231200
2,555833	0,1	0,243077
2,557500	0,1	0,250167
2,559167	0,1	0,252942
2,560833	0,1	0,225146
2,562500	0,1	0,261107
2,564167	0,1	0,239168
2,565833	0,1	0,245107
2,567500	0,1	0,261316
2,569167	0,1	0,277773
2,570833	0,1	0,291248
2,572500	0,1	0,277085
2,574167	0,1	0,283965
2,575833	0,1	0,242158
2,577500	0,1	0,290041
2,579167	0,1	0,235116
2,580833	0,1	0,275343
2,582500	0,1	0,278668
2,584167	0,1	0,253203
2,585833	0,1	0,265868
2,587500	0,1	0,273162
2,589167	0,1	0,264450
2,590833	0,1	0,268601
2,592500	0,1	0,250064
2,594167	0,1	0,273650
2,595833	0,1	0,236052
2,597500	0,1	0,253481
2,599167	0,1	0,240109
2,600833	0,1	0,260671
2,602500	0,1	0,275290
2,604167	0,1	0,253406
2,605833	0,1	0,246500
2,607500	0,1	0,250466
2,609167	0,1	0,278017
2,610833	0,1	0,244675
2,612500	0,1	0,286525
2,614167	0,1	0,231148
2,615833	0,1	0,291932
2,617500	0,1	0,249975
2,619167	0,1	0,273558
2,620833	0,1	0,246115
2,622500	0,1	0,297499
2,624167	0,1	0,229218
2,625833	0,1	0,240212
2,627500	0,1	0,263255
2,629167	0,1	0,285803
2,630833	0,1	0,247499
2,632500	0,1	0,276811
2,634167	0,1	0,249175
2,635833	0,1	0,249364
2,637500	0,1	0,271709
2,639167	0,1	0,306718
2,640833	0,1	0,271046
2,642500	0,1	0,267907
2,644167	0,1	0,251800
2,645833	0,1	0,245405
2,647500	0,1	0,281729
2,649167	0,1	0,231239
2,650833	0,1	0,263828
2,652500	0,1	0,280351
2,654167	0,1	0,287874
2,655833	0,1	0,261818
2,657500	0,1	0,279953
2,659167	0,1	0,239868
2,660833	0,1	0,260067
2,662500	0,1	0,278460
2,664167	0,1	0,261426
2,665833	0,1	0,280189
2,667500	0,1	0,257255
2,669167	0,1	0,293093
2,670833	0,1	0,238626
2,672500	0,1	0,273851
2,674167	0,1	0,238181
2,675833	0,1	0,254177
2,677500	0,1	0,250468
2,679167	0,1	0,310609
2,680833	0,1	0,268266
2,682500	0,1	0,272172
2,684167	0,1	0,233119
2,685833	0,1	0,282225
2,687500	0,1	0,274946
2,689167	0,1	0,289416
2,690833	0,1	0,299084
2,692500	0,1	0,270789
2,694167	0,1	0,251852
2,695833	0,1	0,259138
2,697500	0,1	0,239863
2,699167	0,1	0,245107
2,700833	0,1	0,244657
2,702500	0,1	0,304421
2,704167	0,1	0,266925
2,705833	0,1	0,277224
2,707500	0,1	0,233086
2,709167	0,1	0,249360
2,710833	0,1	0,253084
2,712500	0,1	0,243432
2,714167	0,1	0,232376
2,715833	0,1	0,282268
2,717500	0,1	0,252652
2,719167	0,1	0,263189
2,720833	0,1	0,212401
2,722500	0,1	0,259663
2,724167	0,1	0,235245
2,725833	0,1	0,197877
2,727500	0,1	0,241713
2,729167	0,1	0,243327
2,730833	0,1	0,263289
2,732500	0,1	0,236585
2,734167	0,1	0,251836
2,735833	0,1	0,237861
2,737500	0,1	0,259728
2,739167	0,1	0,251401
2,740833	0,1	0,302387
2,742500	0,1	0,225694
2,744167	0,1	0,271762
2,745833	0,1	0,254819
2,747500	0,1	0,284348
2,749167	0,1	0,237479
2,750833	0,1	0,271357
2,752500	0,1	0,251997
2,754167	0,1	0,280788
2,755833	0,1	0,255763
2,757500	0,1	0,234607
2,759167	0,1	0,274883
2,760833	0,1	0,254575
2,762500	0,1	0,299709
2,764167	0,1	0,271237
2,765833	0,1	0,312150
2,767500	0,1	0,282327
2,769167	0,1	0,262850
2,770833	0,1	0,284157
2,772500	0,1	0,299818
2,774167	0,1	0,316083
2,775833	0,1	0,296207
2,777500	0,1	0,319755
2,779167	0,1	0,302497
2,780833	0,1	0,296059
2,782500	0,1	0,319743
2,784167	0,1	0,279465
2,785833	0,1	0,314738
2,787500	0,1	0,340020
2,789167	0,1	0,298350
2,790833	0,1	0,289175
2,792500	0,1	0,337292
2,794167	0,1	0,300628
2,795833	0,1	0,338471
2,797500	0,1	0,303594
2,799167	0,1	0,326149
2,800833	0,1	0,300033
2,802500	0,1	0,339628
2,804167	0,1	0,308065
2,805833	0,1	0,327827
2,807500	0,1	0,312817
2,809167	0,1	0,331306
2,810833	0,1	0,328230
2,812500	0,1	0,347111
2,814167	0,1	0,368637
2,815833	0,1	0,339450
2,817500	0,1	0,344405
2,819167	0,1	0,325698
2,820833	0,1	0,350976
2,822500	0,1	0,327305
2,824167	0,1	0,356234
2,825833	0,1	0,329086
2,827500	0,1	0,314352
2,829167	0,1	0,363474
2,830833	0,1	0,350944
2,832500	0,1	0,302320
2,834167	0,1	0,359296
2,835833	0,1	0,335325
2,837500	0,1	0,342317
2,839167	0,1	0,326095
2,840833	0,1	0,311477
2,842500	0,1	0,337288
2,844167	0,1	0,334573
2,845833	0,1	0,379627
2,847500	0,1	0,336916
2,849167	0,1	0,334675
2,850833	0,1	0,322291
2,852500	0,1	0,297454
2,854167	0,1	0,330309
2,855833	0,1	0,325255
2,857500	0,1	0,330704
2,859167	0,1	0,367924
2,860833	0,1	0,305935
2,862500	0,1	0,312065
2,864167	0,1	0,345908
2,865833	0,1	0,303454
2,867500	0,1	0,309601
2,869167	0,1	0,309130
2,870833	0,1	0,312996
2,872500	0,1	0,298732
2,874167	0,1	0,323895
2,875833	0,1	0,348101
2,877500	0,1	0,301727
2,879167	0,1	0,327967
2,880833	0,1	0,283773
2,882500	0,1	0,302744
2,884167	0,1	0,301665
2,885833	0,1	0,298494
2,887500	0,1	0,314640
2,889167	0,1	0,334077
2,890833	0,1	0,290657
2,892500	0,1	0,286290
2,894167	0,1	0,298674
2,895833	0,1	0,285156
2,897500	0,1	0,315823
2,899167	0,1	0,279711
2,900833	0,1	0,240241
2,902500	0,1	0,310107
2,904167	0,1	0,290007
2,905833	0,1	0,265767
2,907500	0,1	0,261955
2,909167	0,1	0,306695
2,910833	0,1	0,265586
2,912500	0,1	0,249114
2,914167	0,1	0,287332
2,915833	0,1	0,255907
2,917500	0,1	0,280043
2,919167	0,1	0,252888
2,920833	0,1	0,274778
2,922500	0,1	0,204963
2,924167	0,1	0,265052
2,925833	0,1	0,268931
2,927500	0,1	0,269821
2,929167	0,1	0,279393
2,930833	0,1	0,262205
2,932500	0,1	0,240535
2,934167	0,1	0,248860
2,935833	0,1	0,246194
2,937500	0,1	0,241877
2,939167	0,1	0,253319
2,940833	0,1	0,275709
2,942500	0,1	0,245691
2,944167	0,1	0,258874
2,945833	0,1	0,250051
2,947500	0,1	0,246388
2,949167	0,1	0,257822
2,950833	0,1	0,275372
2,952500	0,1	0,236639
2,954167	0,1	0,239841
2,955833	0,1	0,241970
2,957500	0,1	0,252871
2,959167	0,1	0,257824
2,960833	0,1	0,187323
2,962500	0,1	0,198458
2,964167	0,1	0,211005
2,965833	0,1	0,233148
2,967500	0,1	0,242715
2,969167	0,1	0,216804
2,970833	0,1	0,259552
2,972500	0,1	0,206892
2,974167	0,1	0,263221
2,975833	0,1	0,229838
2,977500	0,1	0,254113
2,979167	0,1	0,265206
2,980833	0,1	0,196790
2,982500	0,1	0,263219
2,984167	0,1	0,265117
2,985833	0,1	0,252385
2,987500	0,1	0,228097
2,989167	0,1	0,250986
2,990833	0,1	0,268233
2,992500	0,1	0,261988
2,994167	0,1	0,216555
2,995833	0,1	0,236167
2,997500	0,1	0,256437
2,999167	0,1	0,267150
3,000833	0,1	0,277409
3,002500	0,1	0,268494
3,004167	0,1	0,272747
3,005833	0,1	0,241629
3,007500	0,1	0,265162
3,009167	0,1	0,253131
3,010833	0,1	0,285585
3,012500	0,1	0,268893
3,014167	0,1	0,264463
3,015833	0,1	0,267457
3,017500	0,1	0,293956
3,019167	0,1	0,296732
3,020833	0,1	0,285749
3,022500	0,1	0,273159
3,024167	0,1	0,325075
3,025833	0,1	0,290257
3,027500	0,1	0,275635
3,029167	0,1	0,282012
3,030833	0,1	0,325282
3,032500	0,1	0,310862
3,034167	0,1	0,290294
3,035833	0,1	0,303245
3,037500	0,1	0,304272
3,039167	0,1	0,304824
3,040833	0,1	0,347275
3,042500	0,1	0,301715
3,044167	0,1	0,319437
3,045833	0,1	0,339274
3,047500	0,1	0,312708
3,049167	0,1	0,281683
3,050833	0,1	0,299920
3,052500	0,1	0,355817
3,054167	0,1	0,307853
3,055833	0,1	0,356810
3,057500	0,1	0,361294
3,059167	0,1	0,307466
3,060833	0,1	0,315482
3,062500	0,1	0,335212
3,064167	0,1	0,343246
3,065833	0,1	0,299525
3,067500	0,1	0,301857
3,069167	0,1	0,343033
3,070833	0,1	0,332487
3,072500	0,1	0,330215
3,074167	0,1	0,331544
3,075833	0,1	0,320335
3,077500	0,1	0,304337
3,079167	0,1	0,291836
3,080833	0,1	0,336597
3,082500	0,1	0,305271
3,084167	0,1	0,335414
3,085833	0,1	0,356971
3,087500	0,1	0,328688
3,089167	0,1	0,293437
3,090833	0,1	0,332885
3,092500	0,1	0,305884
3,094167	0,1	0,385460
3,095833	0,1	0,324858
3,097500	0,1	0,323748
3,099167	0,1	0,348683
3,100833	0,1	0,356678
3,102500	0,1	0,305429
3,104167	0,1	0,330648
3,105833	0,1	0,276482
3,107500	0,1	0,289703
3,109167	0,1	0,304022
3,110833	0,1	0,290590
3,112500	0,1	0,328404
3,114167	0,1	0,295310
3,115833	0,1	0,316858
3,117500	0,1	0,303129
3,119167	0,1	0,285546
3,120833	0,1	0,317952
3,122500	0,1	0,294283
3,124167	0,1	0,317063
3,125833	0,1	0,334106
3,127500	0,1	0,298674
3,129167	0,1	0,274450
3,130833	0,1	0,297772
3,132500	0,1	0,288707
3,134167	0,1	0,283865
3,135833	0,1	0,317644
3,137500	0,1	0,285879
3,139167	0,1	0,335929
3,140833	0,1	0,276730
3,142500	0,1	0,243861
3,144167	0,1	0,236224
3,145833	0,1	0,279426
3,147500	0,1	0,292576
3,149167	0,1	0,285299
3,150833	0,1	0,277945
3,152500	0,1	0,297926
3,154167	0,1	0,258683
3,155833	0,1	0,255984
3,157500	0,1	0,290618
3,159167	0,1	0,269877
3,160833	0,1	0,256547
3,162500	0,1	0,268980
3,164167	0,1	0,264525
3,165833	0,1	0,245035
3,167500	0,1	0,283886
3,169167	0,1	0,294706
3,170833	0,1	0,243221
3,172500	0,1	0,230240
3,174167	0,1	0,216293
3,175833	0,1	0,213129
3,177500	0,1	0,272927
3,179167	0,1	0,232264
3,180833	0,1	0,234686
3,182500	0,1	0,255989
3,184167	0,1	0,243456
3,185833	0,1	0,218121
3,187500	0,1	0,222681
3,189167	0,1	0,233880
3,190833	0,1	0,221193
3,192500	0,1	0,245576
3,194167	0,1	0,236418
3,195833	0,1	0,241214
3,197500	0,1	0,233732
3,199167	0,1	0,202812
3,200833	0,1	0,229221
3,202500	0,1	0,238737
3,204167	0,1	0,227788
3,205833	0,1	0,213913
3,207500	0,1	0,202712
3,209167	0,1	0,222823
3,210833	0,1	0,212918
3,212500	0,1	0,253949
3,214167	0,1	0,240719
3,215833	0,1	0,259837
3,217500	0,1	0,195986
3,219167	0,1	0,234915
3,220833	0,1	0,233832
3,222500	0,1	0,229577
3,224167	0,1	0,272227
3,225833	0,1	0,165027
3,227500	0,1	0,222221
3,229167	0,1	0,166892
3,230833	0,1	0,186294
3,232500	0,1	0,223911
3,234167	0,1	0,178339
3,235833	0,1	0,220088
3,237500	0,1	0,209053
3,239167	0,1	0,198592
3,240833	0,1	0,213008
3,242500	0,1	0,191517
3,244167	0,1	0,180554
3,245833	0,1	0,194085
3,247500	0,1	0,221879
3,249167	0,1	0,228717
3,250833	0,1	0,191816
3,252500	0,1	0,222973
3,254167	0,1	0,213166
3,255833	0,1	0,200526
3,257500	0,1	0,200233
3,259167	0,1	0,209099
3,260833	0,1	0,206128
3,262500	0,1	0,170606
3,264167	0,1	0,245598
3,265833	0,1	0,150839
3,267500	0,1	0,185848
3,269167	0,1	0,169603
3,270833	0,1	0,189464
3,272500	0,1	0,171986
3,274167	0,1	0,209635
3,275833	0,1	0,181059
3,277500	0,1	0,210478
3,279167	0,1	0,195569
3,280833	0,1	0,198046
3,282500	0,1	0,178333
3,284167	0,1	0,207501
3,285833	0,1	0,180456
3,287500	0,1	0,192305
3,289167	0,1	0,181206
3,290833	0,1	0,145431
3,292500	0,1	0,172127
3,294167	0,1	0,178321
3,295833	0,1	0,217858
3,297500	0,1	0,210883
3,299167	0,1	0,165846
3,300833	0,1	0,176835
3,302500	0,1	0,179313
3,304167	0,1	0,179566
3,305833	0,1	0,193635
3,307500	0,1	0,146028
3,309167	0,1	0,180695
3,310833	0,1	0,176737
3,312500	0,1	0,210375
3,314167	0,1	0,217367
3,315833	0,1	0,150398
3,317500	0,1	0,155527
3,319167	0,1	0,181690
3,320833	0,1	0,189467
3,322500	0,1	0,181748
3,324167	0,1	0,183223
3,325833	0,1	0,188230
3,327500	0,1	0,184324
3,329167	0,1	0,149044
3,330833	0,1	0,171476
3,332500	0,1	0,185305
3,334167	0,1	0,180704
3,335833	0,1	0,216326
3,337500	0,1	0,179418
3,339167	0,1	0,146272
3,340833	0,1	0,194417
3,342500	0,1	0,189718
3,344167	0,1	0,200317
3,345833	0,1	0,169311
3,347500	0,1	0,197396
3,349167	0,1	0,180454
3,350833	0,1	0,173953
3,352500	0,1	0,155684
3,354167	0,1	0,156722
3,355833	0,1	0,136606
3,357500	0,1	0,162767
3,359167	0,1	0,139083
3,360833	0,1	0,155625
3,362500	0,1	0,157657
3,364167	0,1	0,206014
3,365833	0,1	0,194432
3,367500	0,1	0,165698
3,369167	0,1	0,190369
3,370833	0,1	0,199232
3,372500	0,1	0,198685
3,374167	0,1	0,183821
3,375833	0,1	0,160599
3,377500	0,1	0,154392
3,379167	0,1	0,182477
3,380833	0,1	0,213156
3,382500	0,1	0,161737
3,384167	0,1	0,190258
3,385833	0,1	0,170900
3,387500	0,1	0,217662
3,389167	0,1	0,206070
3,390833	0,1	0,170500
3,392500	0,1	0,204135
3,394167	0,1	0,178481
3,395833	0,1	0,212010
3,397500	0,1	0,197493
3,399167	0,1	0,205081
3,400833	0,1	0,199677
3,402500	0,1	0,179318
3,404167	0,1	0,177477
3,405833	0,1	0,186493
3,407500	0,1	0,217469
3,409167	0,1	0,224200
3,410833	0,1	0,209692
3,412500	0,1	0,190315
3,414167	0,1	0,219498
3,415833	0,1	0,223709
3,417500	0,1	0,217275
3,419167	0,1	0,202408
3,420833	0,1	0,203541
3,422500	0,1	0,206669
3,424167	0,1	0,223706
3,425833	0,1	0,179223
3,427500	0,1	0,216325
3,429167	0,1	0,219894
3,430833	0,1	0,210979
3,432500	0,1	0,189924
3,434167	0,1	0,198039
3,435833	0,1	0,221077
3,437500	0,1	0,185809
3,439167	0,1	0,208597
3,440833	0,1	0,188143
3,442500	0,1	0,206114
3,444167	0,1	0,214847
3,445833	0,1	0,233811
3,447500	0,1	0,185964
3,449167	0,1	0,211317
3,450833	0,1	0,198832
3,452500	0,1	0,190363
3,454167	0,1	0,230940
3,455833	0,1	0,198395
3,457500	0,1	0,210923
3,459167	0,1	0,235393
3,460833	0,1	0,205439
3,462500	0,1	0,143753
3,464167	0,1	0,162605
3,465833	0,1	0,190903
3,467500	0,1	0,214446
3,469167	0,1	0,219393
3,470833	0,1	0,200477
3,472500	0,1	0,209135
3,474167	0,1	0,183027
3,475833	0,1	0,252338
3,477500	0,1	0,184036
3,479167	0,1	0,211954
3,480833	0,1	0,178525
3,482500	0,1	0,194569
3,484167	0,1	0,167327
3,485833	0,1	0,217052
3,487500	0,1	0,207647
3,489167	0,1	0,226774
3,490833	0,1	0,208049
3,492500	0,1	0,217307
3,494167	0,1	0,192002
3,495833	0,1	0,206565
3,497500	0,1	0,202704
3,499167	0,1	0,215027
3,500833	0,1	0,215782
3,502500	0,1	0,235252
3,504167	0,1	0,181796
3,505833	0,1	0,234996
3,507500	0,1	0,201226
3,509167	0,1	0,198787
3,510833	0,1	0,210372
3,512500	0,1	0,207553
3,514167	0,1	0,247682
3,515833	0,1	0,206924
3,517500	0,1	0,220086
3,519167	0,1	0,256204
3,520833	0,1	0,200429
3,522500	0,1	0,177538
3,524167	0,1	0,181194
3,525833	0,1	0,215631
3,527500	0,1	0,215335
3,529167	0,1	0,197950
3,530833	0,1	0,228457
3,532500	0,1	0,204880
3,534167	0,1	0,234012
3,535833	0,1	0,223906
3,537500	0,1	0,215784
3,539167	0,1	0,245311
3,540833	0,1	0,213511
3,542500	0,1	0,173621
3,544167	0,1	0,205561
3,545833	0,1	0,192991
3,547500	0,1	0,212651
3,549167	0,1	0,236285
3,550833	0,1	0,165847
3,552500	0,1	0,210712
3,554167	0,1	0,183779
3,555833	0,1	0,218979
3,557500	0,1	0,209589
3,559167	0,1	0,247234
3,560833	0,1	0,215885
3,562500	0,1	0,227725
3,564167	0,1	0,207209
3,565833	0,1	0,193687
3,567500	0,1	0,223303
3,569167	0,1	0,220540
3,570833	0,1	0,183233
3,572500	0,1	0,245540
3,574167	0,1	0,194933
3,575833	0,1	0,199821
3,577500	0,1	0,180744
3,579167	0,1	0,202942
3,580833	0,1	0,224841
3,582500	0,1	0,191505
3,584167	0,1	0,263527
3,585833	0,1	0,207668
3,587500	0,1	0,212300
3,589167	0,1	0,211460
3,590833	0,1	0,214486
3,592500	0,1	0,209132
3,594167	0,1	0,208832
3,595833	0,1	0,217510
3,597500	0,1	0,218699
3,599167	0,1	0,198631
3,600833	0,1	0,181889
3,602500	0,1	0,212249
3,604167	0,1	0,214782
3,605833	0,1	0,229156
3,607500	0,1	0,182734
3,609167	0,1	0,211259
3,610833	0,1	0,214928
3,612500	0,1	0,186691
3,614167	0,1	0,235550
3,615833	0,1	0,248536
3,617500	0,1	0,191958
3,619167	0,1	0,213990
3,620833	0,1	0,200019
3,622500	0,1	0,209423
3,624167	0,1	0,185806
3,625833	0,1	0,219481
3,627500	0,1	0,181300
3,629167	0,1	0,205969
3,630833	0,1	0,222214
3,632500	0,1	0,238227
3,634167	0,1	0,176796
3,635833	0,1	0,222503
3,637500	0,1	0,215175
3,639167	0,1	0,210086
3,640833	0,1	0,242980
3,642500	0,1	0,226240
3,644167	0,1	0,209141
3,645833	0,1	0,215231
3,647500	0,1	0,243277
3,649167	0,1	0,233079
3,650833	0,1	0,204243
3,652500	0,1	0,224248
3,654167	0,1	0,184913
3,655833	0,1	0,212351
3,657500	0,1	0,205824
3,659167	0,1	0,184605
3,660833	0,1	0,214877
3,662500	0,1	0,159343
3,664167	0,1	0,177775
3,665833	0,1	0,209231
3,667500	0,1	0,205373
3,669167	0,1	0,215323
3,670833	0,1	0,228064
3,672500	0,1	0,209982
3,674167	0,1	0,228758
3,675833	0,1	0,231678
3,677500	0,1	0,189226
3,679167	0,1	0,238466
3,680833	0,1	0,215975
3,682500	0,1	0,233157
3,684167	0,1	0,223262
3,685833	0,1	0,229599
3,687500	0,1	0,235442
3,689167	0,1	0,232280
3,690833	0,1	0,251993
3,692500	0,1	0,237481
3,694167	0,1	0,248326
3,695833	0,1	0,264778
3,697500	0,1	0,233576
3,699167	0,1	0,237629
3,700833	0,1	0,230162
3,702500	0,1	0,218803
3,704167	0,1	0,223065
3,705833	0,1	0,270519
3,707500	0,1	0,272964
3,709167	0,1	0,290205
3,710833	0,1	0,245023
3,712500	0,1	0,219901
3,714167	0,1	0,285345
3,715833	0,1	0,244327
3,717500	0,1	0,276812
3,719167	0,1	0,295564
3,720833	0,1	0,271395
3,722500	0,1	0,243944
3,724167	0,1	0,263049
3,725833	0,1	0,276847
3,727500	0,1	0,318049
3,729167	0,1	0,285113
3,730833	0,1	0,280400
3,732500	0,1	0,316231
3,734167	0,1	0,288036
3,735833	0,1	0,275207
3,737500	0,1	0,294326
3,739167	0,1	0,294280
3,740833	0,1	0,293502
3,742500	0,1	0,366876
3,744167	0,1	0,326958
3,745833	0,1	0,353649
3,747500	0,1	0,344350
3,749167	0,1	0,323936
3,750833	0,1	0,315944
3,752500	0,1	0,343168
3,754167	0,1	0,341270
3,755833	0,1	0,360495
3,757500	0,1	0,342573
3,759167	0,1	0,382801
3,760833	0,1	0,367257
3,762500	0,1	0,395745
3,764167	0,1	0,409505
3,765833	0,1	0,404622
3,767500	0,1	0,410666
3,769167	0,1	0,432227
3,770833	0,1	0,414590
3,772500	0,1	0,435760
3,774167	0,1	0,415144
3,775833	0,1	0,460880
3,777500	0,1	0,462786
3,779167	0,1	0,421905
3,780833	0,1	0,458703
3,782500	0,1	0,467750
3,784167	0,1	0,483900
3,785833	0,1	0,473608
3,787500	0,1	0,460020
3,789167	0,1	0,475519
3,790833	0,1	0,495710
3,792500	0,1	0,494530
3,794167	0,1	0,466677
3,795833	0,1	0,500656
3,797500	0,1	0,491413
3,799167	0,1	0,518012
3,800833	0,1	0,508018
3,802500	0,1	0,532352
3,804167	0,1	0,519556
3,805833	0,1	0,558871
3,807500	0,1	0,497175
3,809167	0,1	0,510837
3,810833	0,1	0,485112
3,812500	0,1	0,526598
3,814167	0,1	0,516645
3,815833	0,1	0,553052
3,817500	0,1	0,559488
3,819167	0,1	0,508673
3,820833	0,1	0,512092
3,822500	0,1	0,531675
3,824167	0,1	0,536434
3,825833	0,1	0,516908
3,827500	0,1	0,555455
3,829167	0,1	0,514577
3,830833	0,1	0,545071
3,832500	0,1	0,537275
3,834167	0,1	0,530026
3,835833	0,1	0,594675
3,837500	0,1	0,548837
3,839167	0,1	0,574888
3,840833	0,1	0,545416
3,842500	0,1	0,559538
3,844167	0,1	0,538463
3,845833	0,1	0,566280
3,847500	0,1	0,569978
3,849167	0,1	0,529982
3,850833	0,1	0,582112
3,852500	0,1	0,540019
3,854167	0,1	0,547430
3,855833	0,1	0,549243
3,857500	0,1	0,555864
3,859167	0,1	0,518340
3,860833	0,1	0,571171
3,862500	0,1	0,546253
3,864167	0,1	0,540882
3,865833	0,1	0,509157
3,867500	0,1	0,537319
3,869167	0,1	0,545739
3,870833	0,1	0,526996
3,872500	0,1	0,525669
3,874167	0,1	0,499835
3,875833	0,1	0,508103
3,877500	0,1	0,558135
3,879167	0,1	0,517349
3,880833	0,1	0,508122
3,882500	0,1	0,499273
3,884167	0,1	0,510037
3,885833	0,1	0,501207
3,887500	0,1	0,469308
3,889167	0,1	0,482507
3,890833	0,1	0,491186
3,892500	0,1	0,529509
3,894167	0,1	0,480151
3,895833	0,1	0,533567
3,897500	0,1	0,495866
3,899167	0,1	0,458840
3,900833	0,1	0,466237
3,902500	0,1	0,498390
3,904167	0,1	0,435084
3,905833	0,1	0,492530
3,907500	0,1	0,444646
3,909167	0,1	0,485532
3,910833	0,1	0,455110
3,912500	0,1	0,475851
3,914167	0,1	0,473797
3,915833	0,1	0,489022
3,917500	0,1	0,447867
3,919167	0,1	0,437057
3,920833	0,1	0,493109
3,922500	0,1	0,453603
3,924167	0,1	0,444095
3,925833	0,1	0,445524
3,927500	0,1	0,438679
3,929167	0,1	0,440805
3,930833	0,1	0,451709
3,932500	0,1	0,437881
3,934167	0,1	0,438486
3,935833	0,1	0,416613
3,937500	0,1	0,393271
3,939167	0,1	0,415417
3,940833	0,1	0,397690
3,942500	0,1	0,394400
3,944167	0,1	0,406153
3,945833	0,1	0,423049
3,947500	0,1	0,396403
3,949167	0,1	0,355701
3,950833	0,1	0,371401
3,952500	0,1	0,390282
3,954167	0,1	0,401100
3,955833	0,1	0,381526
3,957500	0,1	0,384047
3,959167	0,1	0,374475
3,960833	0,1	0,350182
3,962500	0,1	0,377726
3,964167	0,1	0,386612
3,965833	0,1	0,342364
3,967500	0,1	0,357957
3,969167	0,1	0,342357
3,970833	0,1	0,382543
3,972500	0,1	0,370609
3,974167	0,1	0,399884
3,975833	0,1	0,377056
3,977500	0,1	0,334640
3,979167	0,1	0,365892
3,980833	0,1	0,369857
3,982500	0,1	0,339914
3,984167	0,1	0,391048
3,985833	0,1	0,386718
3,987500	0,1	0,329466
3,989167	0,1	0,317019
3,990833	0,1	0,362512
3,992500	0,1	0,356042
3,994167	0,1	0,365047
3,995833	0,1	0,323031
3,997500	0,1	0,332684
3,999167	0,1	0,362066
4,000833	0,1	0,357807
4,002500	0,1	0,331068
4,004167	0,1	0,342338
4,005833	0,1	0,382093
4,007500	0,1	0,357671
4,009167	0,1	0,366826
4,010833	0,1	0,318573
4,012500	0,1	0,344473
4,014167	0,1	0,332719
4,015833	0,1	0,357156
4,017500	0,1	0,344728
4,019167	0,1	0,372337
4,020833	0,1	0,357025
4,022500	0,1	0,318478
4,024167	0,1	0,387099
4,025833	0,1	0,377491
4,027500	0,1	0,416186
4,029167	0,1	0,354856
4,030833	0,1	0,397443
4,032500	0,1	0,403318
4,034167	0,1	0,399763
4,035833	0,1	0,442765
4,037500	0,1	0,388315
4,039167	0,1	0,387167
4,040833	0,1	0,434695
4,042500	0,1	0,400698
4,044167	0,1	0,442714
4,045833	0,1	0,449012
4,047500	0,1	0,445458
4,049167	0,1	0,459339
4,050833	0,1	0,451610
4,052500	0,1	0,495430
4,054167	0,1	0,497322
4,055833	0,1	0,527301
4,057500	0,1	0,531645
4,059167	0,1	0,539623
4,060833	0,1	0,582726
4,062500	0,1	0,539933
4,064167	0,1	0,560408
4,065833	0,1	0,574420
4,067500	0,1	0,607526
4,069167	0,1	0,583718
4,070833	0,1	0,616778
4,072500	0,1	0,623929
4,074167	0,1	0,641666
4,075833	0,1	0,664848
4,077500	0,1	0,646315
4,079167	0,1	0,701441
4,080833	0,1	0,673233
4,082500	0,1	0,725137
4,084167	0,1	0,744768
4,085833	0,1	0,759817
4,087500	0,1	0,773469
4,089167	0,1	0,804350
4,090833	0,1	0,795862
4,092500	0,1	0,831416
4,094167	0,1	0,835401
4,095833	0,1	0,888105
4,097500	0,1	0,863473
4,099167	0,1	0,884055
4,100833	0,1	0,913705
4,102500	0,1	0,946103
4,104167	0,1	0,966165
4,105833	0,1	1,005067
4,107500	0,1	0,966261
4,109167	0,1	1,024830
4,110833	0,1	1,014977
4,112500	0,1	1,067670
4,114167	0,1	1,064574
4,115833	0,1	1,095814
4,117500	0,1	1,118171
4,119167	0,1	1,120723
4,120833	0,1	1,181451
4,122500	0,1	1,210330
4,124167	0,1	1,201853
4,125833	0,1	1,227782
4,127500	0,1	1,265640
4,129167	0,1	1,265665
4,130833	0,1	1,309497
4,132500	0,1	1,301725
4,134167	0,1	1,312015
4,135833	0,1	1,314822
4,137500	0,1	1,381297
4,139167	0,1	1,404209
4,140833	0,1	1,435103
4,142500	0,1	1,390758
4,144167	0,1	1,446838
4,145833	0,1	1,449310
4,147500	0,1	1,465008
4,149167	0,1	1,513556
4,150833	0,1	1,521923
4,152500	0,1	1,543413
4,154167	0,1	1,478876
4,155833	0,1	1,568359
4,157500	0,1	1,579783
4,159167	0,1	1,594284
4,160833	0,1	1,597415
4,162500	0,1	1,621311
4,164167	0,1	1,658273
4,165833	0,1	1,638544
4,167500	0,1	1,659028
4,169167	0,1	1,648408
4,170833	0,1	1,656274
4,172500	0,1	1,687059
4,174167	0,1	1,706339
4,175833	0,1	1,704167
4,177500	0,1	1,716805
4,179167	0,1	1,755466
4,180833	0,1	1,698241
4,182500	0,1	1,772687
4,184167	0,1	1,767995
4,185833	0,1	1,793434
4,187500	0,1	1,774937
4,189167	0,1	1,800846
4,190833	0,1	1,800910
4,192500	0,1	1,792802
4,194167	0,1	1,747427
4,195833	0,1	1,804782
4,197500	0,1	1,802146
4,199167	0,1	1,835171
4,200833	0,1	1,782992
4,202500	0,1	1,830525
4,204167	0,1	1,868620
4,205833	0,1	1,848470
4,207500	0,1	1,883674
4,209167	0,1	1,809979
4,210833	0,1	1,858269
4,212500	0,1	1,808555
4,214167	0,1	1,840640
4,215833	0,1	1,853339
4,217500	0,1	1,841769
4,219167	0,1	1,817549
4,220833	0,1	1,842170
4,222500	0,1	1,815552
4,224167	0,1	1,825773
4,225833	0,1	1,812789
4,227500	0,1	1,849219
4,229167	0,1	1,834594
4,230833	0,1	1,848992
4,232500	0,1	1,818375
4,234167	0,1	1,832531
4,235833	0,1	1,859277
4,237500	0,1	1,823256
4,239167	0,1	1,807736
4,240833	0,1	1,800911
4,242500	0,1	1,816597
4,244167	0,1	1,810905
4,245833	0,1	1,809206
4,247500	0,1	1,752083
4,249167	0,1	1,773341
4,250833	0,1	1,790683
4,252500	0,1	1,766118
4,254167	0,1	1,763707
4,255833	0,1	1,772052
4,257500	0,1	1,773231
4,259167	0,1	1,797504
4,260833	0,1	1,735506
4,262500	0,1	1,724869
4,264167	0,1	1,712458
4,265833	0,1	1,777919
4,267500	0,1	1,696552
4,269167	0,1	1,686610
4,270833	0,1	1,689772
4,272500	0,1	1,701348
4,274167	0,1	1,711519
4,275833	0,1	1,683847
4,277500	0,1	1,640128
4,279167	0,1	1,677842
4,280833	0,1	1,649486
4,282500	0,1	1,651751
4,284167	0,1	1,684422
4,285833	0,1	1,636433
4,287500	0,1	1,643708
4,289167	0,1	1,640775
4,290833	0,1	1,627148
4,292500	0,1	1,660802
4,294167	0,1	1,630905
4,295833	0,1	1,589728
4,297500	0,1	1,562867
4,299167	0,1	1,614025
4,300833	0,1	1,582151
4,302500	0,1	1,515523
4,304167	0,1	1,604694
4,305833	0,1	1,583736
4,307500	0,1	1,560710
4,309167	0,1	1,553305
4,310833	0,1	1,557359
4,312500	0,1	1,538909
4,314167	0,1	1,508519
4,315833	0,1	1,561814
4,317500	0,1	1,520982
4,319167	0,1	1,489739
4,320833	0,1	1,533023
4,322500	0,1	1,465674
4,324167	0,1	1,516994
4,325833	0,1	1,456740
4,327500	0,1	1,473463
4,329167	0,1	1,454215
4,330833	0,1	1,453902
4,332500	0,1	1,449914
4,334167	0,1	1,454209
4,335833	0,1	1,435608
4,337500	0,1	1,460427
4,339167	0,1	1,436661
4,340833	0,1	1,407817
4,342500	0,1	1,381629
4,344167	0,1	1,401164
4,345833	0,1	1,399891
4,347500	0,1	1,409930
4,349167	0,1	1,398898
4,350833	0,1	1,373766
4,352500	0,1	1,349850
4,354167	0,1	1,363573
4,355833	0,1	1,362413
4,357500	0,1	1,377718
4,359167	0,1	1,331366
4,360833	0,1	1,331003
4,362500	0,1	1,329841
4,364167	0,1	1,302593
4,365833	0,1	1,268295
4,367500	0,1	1,307137
4,369167	0,1	1,294617
4,370833	0,1	1,287329
4,372500	0,1	1,297457
4,374167	0,1	1,289394
4,375833	0,1	1,251451
4,377500	0,1	1,248694
4,379167	0,1	1,274295
4,380833	0,1	1,296713
4,382500	0,1	1,202076
4,384167	0,1	1,224465
4,385833	0,1	1,214066
4,387500	0,1	1,263533
4,389167	0,1	1,223593
4,390833	0,1	1,216889
4,392500	0,1	1,203830
4,394167	0,1	1,181731
4,395833	0,1	1,188422
4,397500	0,1	1,169169
4,399167	0,1	1,199426
4,400833	0,1	1,154492
4,402500	0,1	1,142960
4,404167	0,1	1,112011
4,405833	0,1	1,134036
4,407500	0,1	1,171834
4,409167	0,1	1,113363
4,410833	0,1	1,128490
4,412500	0,1	1,129729
4,414167	0,1	1,093992
4,415833	0,1	1,096838
4,417500	0,1	1,107482
4,419167	0,1	1,075514
4,420833	0,1	1,080263
4,422500	0,1	1,083624
4,424167	0,1	1,068268
4,425833	0,1	1,076423
4,427500	0,1	1,059047
4,429167	0,1	1,020118
4,430833	0,1	1,002873
4,432500	0,1	1,035964
4,434167	0,1	1,031564
4,435833	0,1	0,972957
4,437500	0,1	0,966921
4,439167	0,1	1,018291
4,440833	0,1	0,999461
4,442500	0,1	1,004478
4,444167	0,1	0,966523
4,445833	0,1	0,947190
4,447500	0,1	0,933314
4,449167	0,1	0,915034
4,450833	0,1	0,957176
4,452500	0,1	0,925254
4,454167	0,1	0,951666
4,455833	0,1	0,923801
4,457500	0,1	0,880145
4,459167	0,1	0,912225
4,460833	0,1	0,911104
4,462500	0,1	0,861032
4,464167	0,1	0,877791
4,465833	0,1	0,838503
4,467500	0,1	0,865505
4,469167	0,1	0,860836
4,470833	0,1	0,856050
4,472500	0,1	0,840893
4,474167	0,1	0,870182
4,475833	0,1	0,830064
4,477500	0,1	0,840537
4,479167	0,1	0,832559
4,480833	0,1	0,850265
4,482500	0,1	0,820278
4,484167	0,1	0,760243
4,485833	0,1	0,807736
4,487500	0,1	0,760317
4,489167	0,1	0,719205
4,490833	0,1	0,735654
4,492500	0,1	0,788058
4,494167	0,1	0,733229
4,495833	0,1	0,751354
4,497500	0,1	0,741200
4,499167	0,1	0,721991
4,500833	0,1	0,666241
4,502500	0,1	0,689629
4,504167	0,1	0,683674
4,505833	0,1	0,671634
4,507500	0,1	0,698793
4,509167	0,1	0,713608
4,510833	0,1	0,699312
4,512500	0,1	0,673866
4,514167	0,1	0,699841
4,515833	0,1	0,623424
4,517500	0,1	0,657836
4,519167	0,1	0,634425
4,520833	0,1	0,620605
4,522500	0,1	0,592536
4,524167	0,1	0,617491
4,525833	0,1	0,627430
4,527500	0,1	0,598859
4,529167	0,1	0,649396
4,530833	0,1	0,610434
4,532500	0,1	0,639868
4,534167	0,1	0,611386
4,535833	0,1	0,601905
4,537500	0,1	0,574273
4,539167	0,1	0,585712
4,540833	0,1	0,567981
4,542500	0,1	0,570031
4,544167	0,1	0,523940
4,545833	0,1	0,545250
4,547500	0,1	0,581870
4,549167	0,1	0,531744
4,550833	0,1	0,528405
4,552500	0,1	0,533649
4,554167	0,1	0,546872
4,555833	0,1	0,496045
4,557500	0,1	0,576024
4,559167	0,1	0,520231
4,560833	0,1	0,542705
4,562500	0,1	0,520939
4,564167	0,1	0,501808
4,565833	0,1	0,516712
4,567500	0,1	0,481843
4,569167	0,1	0,436535
4,570833	0,1	0,444293
4,572500	0,1	0,476359
4,574167	0,1	0,505332
4,575833	0,1	0,502203
4,577500	0,1	0,500514
4,579167	0,1	0,422941
4,580833	0,1	0,485324
4,582500	0,1	0,424330
4,584167	0,1	0,477993
4,585833	0,1	0,468391
4,587500	0,1	0,454611
4,589167	0,1	0,438641
4,590833	0,1	0,426987
4,592500	0,1	0,431841
4,594167	0,1	0,434471
4,595833	0,1	0,398791
4,597500	0,1	0,409386
4,599167	0,1	0,451605
4,600833	0,1	0,421680
4,602500	0,1	0,405371
4,604167	0,1	0,385099
4,605833	0,1	0,407155
4,607500	0,1	0,404234
4,609167	0,1	0,383255
4,610833	0,1	0,402836
4,612500	0,1	0,402829
4,614167	0,1	0,406308
4,615833	0,1	0,383218
4,617500	0,1	0,374049
4,619167	0,1	0,381922
4,620833	0,1	0,369888
4,622500	0,1	0,394998
4,624167	0,1	0,333170
4,625833	0,1	0,348462
4,627500	0,1	0,367547
4,629167	0,1	0,360067
4,630833	0,1	0,377652
4,632500	0,1	0,413132
4,634167	0,1	0,349177
4,635833	0,1	0,370796
4,637500	0,1	0,340690
4,639167	0,1	0,330334
4,640833	0,1	0,310361
4,642500	0,1	0,368120
4,644167	0,1	0,368686
4,645833	0,1	0,350055
4,647500	0,1	0,302145
4,649167	0,1	0,333045
4,650833	0,1	0,336867
4,652500	0,1	0,322060
4,654167	0,1	0,352518
4,655833	0,1	0,313271
4,657500	0,1	0,316636
4,659167	0,1	0,314897
4,660833	0,1	0,322831
4,662500	0,1	0,287507
4,664167	0,1	0,369002
4,665833	0,1	0,351035
4,667500	0,1	0,313536
4,669167	0,1	0,298365
4,670833	0,1	0,318809
4,672500	0,1	0,321044
4,674167	0,1	0,326800
4,675833	0,1	0,306977
4,677500	0,1	0,309149
4,679167	0,1	0,304345
4,680833	0,1	0,308146
4,682500	0,1	0,306226
4,684167	0,1	0,294926
4,685833	0,1	0,297021
4,687500	0,1	0,286060
4,689167	0,1	0,295086
4,690833	0,1	0,269007
4,692500	0,1	0,266628
4,694167	0,1	0,287740
4,695833	0,1	0,273575
4,697500	0,1	0,270002
4,699167	0,1	0,303935
4,700833	0,1	0,273772
4,702500	0,1	0,281301
4,704167	0,1	0,231902
4,705833	0,1	0,239128
4,707500	0,1	0,257654
4,709167	0,1	0,257320
4,710833	0,1	0,289659
4,712500	0,1	0,255490
4,714167	0,1	0,242499
4,715833	0,1	0,266469
4,717500	0,1	0,245373
4,719167	0,1	0,249334
4,720833	0,1	0,273912
4,722500	0,1	0,233588
4,724167	0,1	0,266968
4,725833	0,1	0,244576
4,727500	0,1	0,271775
4,729167	0,1	0,227544
4,730833	0,1	0,277025
4,732500	0,1	0,249639
4,734167	0,1	0,262871
4,735833	0,1	0,251619
4,737500	0,1	0,235820
4,739167	0,1	0,259138
4,740833	0,1	0,223728
4,742500	0,1	0,239278
4,744167	0,1	0,198013
4,745833	0,1	0,232926
4,747500	0,1	0,209410
4,749167	0,1	0,254190
4,750833	0,1	0,258200
4,752500	0,1	0,222941
4,754167	0,1	0,214941
4,755833	0,1	0,236557
4,757500	0,1	0,227790
4,759167	0,1	0,215196
4,760833	0,1	0,230710
4,762500	0,1	0,256262
4,764167	0,1	0,223083
4,765833	0,1	0,234176
4,767500	0,1	0,262060
4,769167	0,1	0,241711
4,770833	0,1	0,211690
4,772500	0,1	0,254827
4,774167	0,1	0,219219
4,775833	0,1	0,229464
4,777500	0,1	0,164915
4,779167	0,1	0,210920
4,780833	0,1	0,230937
4,782500	0,1	0,223121
4,784167	0,1	0,248091
4,785833	0,1	0,207422
4,787500	0,1	0,197701
4,789167	0,1	0,214986
4,790833	0,1	0,240065
4,792500	0,1	0,237580
4,794167	0,1	0,203555
4,795833	0,1	0,237283
4,797500	0,1	0,220445
4,799167	0,1	0,205787
4,800833	0,1	0,200575
4,802500	0,1	0,188490
4,804167	0,1	0,196758
4,805833	0,1	0,212672
4,807500	0,1	0,236937
4,809167	0,1	0,211775
4,810833	0,1	0,223174
4,812500	0,1	0,208900
4,814167	0,1	0,213506
4,815833	0,1	0,223565
4,817500	0,1	0,226187
4,819167	0,1	0,186362
4,820833	0,1	0,232184
4,822500	0,1	0,206231
4,824167	0,1	0,203903
4,825833	0,1	0,231826
4,827500	0,1	0,210638
4,829167	0,1	0,183585
4,830833	0,1	0,193340
4,832500	0,1	0,191309
4,834167	0,1	0,222712
4,835833	0,1	0,202070
4,837500	0,1	0,215249
4,839167	0,1	0,211770
4,840833	0,1	0,228361
4,842500	0,1	0,172991
4,844167	0,1	0,181096
4,845833	0,1	0,211127
4,847500	0,1	0,239709
4,849167	0,1	0,182892
4,850833	0,1	0,182493
4,852500	0,1	0,200915
4,854167	0,1	0,223460
4,855833	0,1	0,212222
4,857500	0,1	0,198406
4,859167	0,1	0,206623
4,860833	0,1	0,207326
4,862500	0,1	0,177145
4,864167	0,1	0,227759
4,865833	0,1	0,187903
4,867500	0,1	0,226178
4,869167	0,1	0,210240
4,870833	0,1	0,213202
4,872500	0,1	0,185563
4,874167	0,1	0,197452
4,875833	0,1	0,165357
4,877500	0,1	0,206266
4,879167	0,1	0,182102
4,880833	0,1	0,185800
4,882500	0,1	0,210373
4,884167	0,1	0,211175
4,885833	0,1	0,184817
4,887500	0,1	0,221032
4,889167	0,1	0,216381
4,890833	0,1	0,200026
4,892500	0,1	0,169866
4,894167	0,1	0,190356
4,895833	0,1	0,198147
4,897500	0,1	0,172478
4,899167	0,1	0,219497
4,900833	0,1	0,145350
4,902500	0,1	0,209120
4,904167	0,1	0,225387
4,905833	0,1	0,197503
4,907500	0,1	0,197547
4,909167	0,1	0,207258
4,910833	0,1	0,203491
4,912500	0,1	0,213946
4,914167	0,1	0,186156
4,915833	0,1	0,217949
4,917500	0,1	0,169319
4,919167	0,1	0,176298
4,920833	0,1	0,181451
4,922500	0,1	0,217999
4,924167	0,1	0,220983
4,925833	0,1	0,212466
4,927500	0,1	0,175664
4,929167	0,1	0,194525
4,930833	0,1	0,160395
4,932500	0,1	0,226714
4,934167	0,1	0,187099
4,935833	0,1	0,165153
4,937500	0,1	0,190906
4,939167	0,1	0,198342
4,940833	0,1	0,195261
4,942500	0,1	0,180458
4,944167	0,1	0,205017
4,945833	0,1	0,197102
4,947500	0,1	0,178178
4,949167	0,1	0,200026
4,950833	0,1	0,192238
4,952500	0,1	0,206266
4,954167	0,1	0,191357
4,955833	0,1	0,172982
4,957500	0,1	0,159253
4,959167	0,1	0,153063
4,960833	0,1	0,196496
4,962500	0,1	0,158122
4,964167	0,1	0,156181
4,965833	0,1	0,163610
4,967500	0,1	0,187879
4,969167	0,1	0,176294
4,970833	0,1	0,162870
4,972500	0,1	0,157963
4,974167	0,1	0,195412
4,975833	0,1	0,172142
4,977500	0,1	0,166980
4,979167	0,1	0,191941
4,980833	0,1	0,186447
4,982500	0,1	0,196257
4,984167	0,1	0,135837
4,985833	0,1	0,169888
4,987500	0,1	0,180305
4,989167	0,1	0,175648
4,990833	0,1	0,211948
4,992500	0,1	0,189722
4,994167	0,1	0,211656
4,995833	0,1	0,189854
4,997500	0,1	0,175550
4,999167	0,1	0,189713
5,000833	0,1	0,160696
5,002500	0,1	0,204622
5,004167	0,1	0,160743
5,005833	0,1	0,184704
5,007500	0,1	0,162374
5,009167	0,1	0,153410
5,010833	0,1	0,184058
5,012500	0,1	0,211762
5,014167	0,1	0,166686
5,015833	0,1	0,169113
5,017500	0,1	0,201541
5,019167	0,1	0,198287
5,020833	0,1	0,202896
5,022500	0,1	0,193142
5,024167	0,1	0,181295
5,025833	0,1	0,189810
5,027500	0,1	0,154788
5,029167	0,1	0,196842
5,030833	0,1	0,177092
5,032500	0,1	0,170049
5,034167	0,1	0,184062
5,035833	0,1	0,177089
5,037500	0,1	0,178665
5,039167	0,1	0,186292
5,040833	0,1	0,154501
5,042500	0,1	0,167915
5,044167	0,1	0,156530
5,045833	0,1	0,183364
5,047500	0,1	0,170745
5,049167	0,1	0,197347
5,050833	0,1	0,108446
5,052500	0,1	0,148442
5,054167	0,1	0,164348
5,055833	0,1	0,198270
5,057500	0,1	0,165943
5,059167	0,1	0,208380
5,060833	0,1	0,193975
5,062500	0,1	0,197048
5,064167	0,1	0,178872
5,065833	0,1	0,167820
5,067500	0,1	0,177527
5,069167	0,1	0,185504
5,070833	0,1	0,218298
5,072500	0,1	0,166238
5,074167	0,1	0,180741
5,075833	0,1	0,211949
5,077500	0,1	0,228659
5,079167	0,1	0,209689
5,080833	0,1	0,222260
5,082500	0,1	0,140933
5,084167	0,1	0,203272
5,085833	0,1	0,179613
5,087500	0,1	0,167025
5,089167	0,1	0,211996
5,090833	0,1	0,175903
5,092500	0,1	0,173412
5,094167	0,1	0,173962
5,095833	0,1	0,176828
5,097500	0,1	0,163413
5,099167	0,1	0,173763
5,100833	0,1	0,212752
5,102500	0,1	0,220887
5,104167	0,1	0,194327
5,105833	0,1	0,175798
5,107500	0,1	0,143548
5,109167	0,1	0,197427
5,110833	0,1	0,202055
5,112500	0,1	0,213794
5,114167	0,1	0,188291
5,115833	0,1	0,161926
5,117500	0,1	0,224180
5,119167	0,1	0,176947
5,120833	0,1	0,188420
5,122500	0,1	0,184913
5,124167	0,1	0,223101
5,125833	0,1	0,188734
5,127500	0,1	0,163706
5,129167	0,1	0,202989
5,130833	0,1	0,171343
5,132500	0,1	0,200558
5,134167	0,1	0,192989
5,135833	0,1	0,186644
5,137500	0,1	0,171331
5,139167	0,1	0,181248
5,140833	0,1	0,189419
5,142500	0,1	0,189413
5,144167	0,1	0,201844
5,145833	0,1	0,184857
5,147500	0,1	0,189861
5,149167	0,1	0,186497
5,150833	0,1	0,144446
5,152500	0,1	0,181928
5,154167	0,1	0,180750
5,155833	0,1	0,198876
5,157500	0,1	0,169158
5,159167	0,1	0,203381
5,160833	0,1	0,176537
5,162500	0,1	0,163509
5,164167	0,1	0,185689
5,165833	0,1	0,177236
5,167500	0,1	0,215710
5,169167	0,1	0,132169
5,170833	0,1	0,157455
5,172500	0,1	0,169552
5,174167	0,1	0,176681
5,175833	0,1	0,141325
5,177500	0,1	0,202527
5,179167	0,1	0,194314
5,180833	0,1	0,181290
5,182500	0,1	0,170542
5,184167	0,1	0,179699
5,185833	0,1	0,172524
5,187500	0,1	0,198236
5,189167	0,1	0,177787
5,190833	0,1	0,190850
5,192500	0,1	0,170790
5,194167	0,1	0,153008
5,195833	0,1	0,181193
5,197500	0,1	0,185164
5,199167	0,1	0,200707
5,200833	0,1	0,202092
5,202500	0,1	0,154993
5,204167	0,1	0,177569
5,205833	0,1	0,166981
5,207500	0,1	0,174496
5,209167	0,1	0,214466
5,210833	0,1	0,168025
5,212500	0,1	0,173057
5,214167	0,1	0,179106
5,215833	0,1	0,166881
5,217500	0,1	0,193271
5,219167	0,1	0,190853
5,220833	0,1	0,148897
5,222500	0,1	0,168659
5,224167	0,1	0,195552
5,225833	0,1	0,168665
5,227500	0,1	0,187122
5,229167	0,1	0,189766
5,230833	0,1	0,181441
5,232500	0,1	0,202826
5,234167	0,1	0,173520
5,235833	0,1	0,156274
5,237500	0,1	0,166968
5,239167	0,1	0,190248
5,240833	0,1	0,177026
5,242500	0,1	0,205458
5,244167	0,1	0,162826
5,245833	0,1	0,181541
5,247500	0,1	0,206350
5,249167	0,1	0,173760
5,250833	0,1	0,177717
5,252500	0,1	0,139786
5,254167	0,1	0,193664
5,255833	0,1	0,190803
5,257500	0,1	0,169850
5,259167	0,1	0,175633
5,260833	0,1	0,155731
5,262500	0,1	0,175339
5,264167	0,1	0,180490
5,265833	0,1	0,161666
5,267500	0,1	0,180832
5,269167	0,1	0,166924
5,270833	0,1	0,151517
5,272500	0,1	0,169639
5,274167	0,1	0,210557
5,275833	0,1	0,163908
5,277500	0,1	0,213972
5,279167	0,1	0,152672
5,280833	0,1	0,148194
5,282500	0,1	0,180880
5,284167	0,1	0,139383
5,285833	0,1	0,163096
5,287500	0,1	0,193863
5,289167	0,1	0,175040
5,290833	0,1	0,152555
5,292500	0,1	0,181280
5,294167	0,1	0,157361
5,295833	0,1	0,177170
5,297500	0,1	0,131858
5,299167	0,1	0,132440
5,300833	0,1	0,139175
5,302500	0,1	0,149233
5,304167	0,1	0,174390
5,305833	0,1	0,178223
5,307500	0,1	0,167618
5,309167	0,1	0,177963
5,310833	0,1	0,151470
5,312500	0,1	0,146017
5,314167	0,1	0,181177
5,315833	0,1	0,161318
5,317500	0,1	0,208972
5,319167	0,1	0,142564
5,320833	0,1	0,154983
5,322500	0,1	0,126504
5,324167	0,1	0,153978
5,325833	0,1	0,147891
5,327500	0,1	0,159878
5,329167	0,1	0,135666
5,330833	0,1	0,140502
5,332500	0,1	0,213465
5,334167	0,1	0,147067
5,335833	0,1	0,158300
5,337500	0,1	0,173105
5,339167	0,1	0,163596
5,340833	0,1	0,170184
5,342500	0,1	0,179055
5,344167	0,1	0,150379
5,345833	0,1	0,200598
5,347500	0,1	0,145618
5,349167	0,1	0,114712
5,350833	0,1	0,166706
5,352500	0,1	0,141557
5,354167	0,1	0,160273
5,355833	0,1	0,182373
5,357500	0,1	0,122839
5,359167	0,1	0,163539
5,360833	0,1	0,179300
5,362500	0,1	0,156419
5,364167	0,1	0,153144
5,365833	0,1	0,174833
5,367500	0,1	0,144281
5,369167	0,1	0,177603
5,370833	0,1	0,155434
5,372500	0,1	0,161471
5,374167	0,1	0,143987
5,375833	0,1	0,195141
5,377500	0,1	0,176934
5,379167	0,1	0,139628
5,380833	0,1	0,149618
5,382500	0,1	0,177857
5,384167	0,1	0,179397
5,385833	0,1	0,108281
5,387500	0,1	0,220788
5,389167	0,1	0,139145
5,390833	0,1	0,157205
5,392500	0,1	0,156111
5,394167	0,1	0,165377
5,395833	0,1	0,197865
5,397500	0,1	0,179604
5,399167	0,1	0,150132
5,400833	0,1	0,164929
5,402500	0,1	0,207133
5,404167	0,1	0,159400
5,405833	0,1	0,178698
5,407500	0,1	0,158396
5,409167	0,1	0,128684
5,410833	0,1	0,159374
5,412500	0,1	0,122538
5,414167	0,1	0,171266
5,415833	0,1	0,114372
5,417500	0,1	0,148180
5,419167	0,1	0,165421
5,420833	0,1	0,149081
5,422500	0,1	0,121248
5,424167	0,1	0,173247
5,425833	0,1	0,150870
5,427500	0,1	0,138139
5,429167	0,1	0,152301
5,430833	0,1	0,148585
5,432500	0,1	0,163843
5,434167	0,1	0,138488
5,435833	0,1	0,158783
5,437500	0,1	0,163795
5,439167	0,1	0,184595
5,440833	0,1	0,166920
5,442500	0,1	0,153298
5,444167	0,1	0,143783
5,445833	0,1	0,164137
5,447500	0,1	0,144624
5,449167	0,1	0,130904
5,450833	0,1	0,140710
5,452500	0,1	0,177312
5,454167	0,1	0,157946
5,455833	0,1	0,153536
5,457500	0,1	0,157999
5,459167	0,1	0,148144
5,460833	0,1	0,111393
5,462500	0,1	0,154029
5,464167	0,1	0,155517
5,465833	0,1	0,134669
5,467500	0,1	0,142289
5,469167	0,1	0,129073
5,470833	0,1	0,170131
5,472500	0,1	0,115955
5,474167	0,1	0,140951
5,475833	0,1	0,166013
5,477500	0,1	0,134923
5,479167	0,1	0,147642
5,480833	0,1	0,150965
5,482500	0,1	0,149224
5,484167	0,1	0,155372
5,485833	0,1	0,190287
5,487500	0,1	0,139335
5,489167	0,1	0,154516
5,490833	0,1	0,140809
5,492500	0,1	0,144075
5,494167	0,1	0,155565
5,495833	0,1	0,151952
5,497500	0,1	0,122194
5,499167	0,1	0,136586
5,500833	0,1	0,164029
5,502500	0,1	0,157206
5,504167	0,1	0,134522
5,505833	0,1	0,184979
5,507500	0,1	0,155272
5,509167	0,1	0,141453
5,510833	0,1	0,168783
5,512500	0,1	0,147499
5,514167	0,1	0,105739
5,515833	0,1	0,185906
5,517500	0,1	0,146859
5,519167	0,1	0,124118
5,520833	0,1	0,128957
5,522500	0,1	0,166608
5,524167	0,1	0,126302
5,525833	0,1	0,163287
5,527500	0,1	0,170076
5,529167	0,1	0,135270
5,530833	0,1	0,156214
5,532500	0,1	0,159381
5,534167	0,1	0,159722
5,535833	0,1	0,149579
5,537500	0,1	0,152347
5,539167	0,1	0,184137
5,540833	0,1	0,127543
5,542500	0,1	0,147745
5,544167	0,1	0,149077
5,545833	0,1	0,125356
5,547500	0,1	0,123871
5,549167	0,1	0,167448
5,550833	0,1	0,185580
5,552500	0,1	0,140374
5,554167	0,1	0,186659
5,555833	0,1	0,139877
5,557500	0,1	0,133975
5,559167	0,1	0,129657
5,560833	0,1	0,142192
5,562500	0,1	0,190082
5,564167	0,1	0,133595
5,565833	0,1	0,148984
5,567500	0,1	0,150069
5,569167	0,1	0,142886
5,570833	0,1	0,158582
5,572500	0,1	0,169287
5,574167	0,1	0,145661
5,575833	0,1	0,148281
5,577500	0,1	0,138732
5,579167	0,1	0,142194
5,580833	0,1	0,168189
5,582500	0,1	0,159479
5,584167	0,1	0,145267
5,585833	0,1	0,191668
5,587500	0,1	0,182614
5,589167	0,1	0,154135
5,590833	0,1	0,127536
5,592500	0,1	0,171956
5,594167	0,1	0,149229
5,595833	0,1	0,178052
5,597500	0,1	0,156066
5,599167	0,1	0,139119
5,600833	0,1	0,159970
5,602500	0,1	0,151756
5,604167	0,1	0,147247
5,605833	0,1	0,175369
5,607500	0,1	0,175035
5,609167	0,1	0,120654
5,610833	0,1	0,179572
5,612500	0,1	0,164040
5,614167	0,1	0,135168
5,615833	0,1	0,176755
5,617500	0,1	0,155277
5,619167	0,1	0,157941
5,620833	0,1	0,187358
5,622500	0,1	0,172564
5,624167	0,1	0,186869
5,625833	0,1	0,169097
5,627500	0,1	0,154430
5,629167	0,1	0,167897
5,630833	0,1	0,168890
5,632500	0,1	0,185972
5,634167	0,1	0,195685
5,635833	0,1	0,188213
5,637500	0,1	0,166769
5,639167	0,1	0,169933
5,640833	0,1	0,177168
5,642500	0,1	0,216535
5,644167	0,1	0,146374
5,645833	0,1	0,204300
5,647500	0,1	0,170780
5,649167	0,1	0,168747
5,650833	0,1	0,177356
5,652500	0,1	0,169140
5,654167	0,1	0,197866
5,655833	0,1	0,192867
5,657500	0,1	0,197272
5,659167	0,1	0,219167
5,660833	0,1	0,221307
5,662500	0,1	0,170337
5,664167	0,1	0,212676
5,665833	0,1	0,204071
5,667500	0,1	0,201001
5,669167	0,1	0,206238
5,670833	0,1	0,231556
5,672500	0,1	0,212938
5,674167	0,1	0,205546
5,675833	0,1	0,208973
5,677500	0,1	0,190055
5,679167	0,1	0,198413
5,680833	0,1	0,218428
5,682500	0,1	0,196938
5,684167	0,1	0,219122
5,685833	0,1	0,209722
5,687500	0,1	0,204562
5,689167	0,1	0,269846
5,690833	0,1	0,226766
5,692500	0,1	0,204572
5,694167	0,1	0,217785
5,695833	0,1	0,227499
5,697500	0,1	0,259998
5,699167	0,1	0,212647
5,700833	0,1	0,229480
5,702500	0,1	0,233443
5,704167	0,1	0,228140
5,705833	0,1	0,227739
5,707500	0,1	0,229290
5,709167	0,1	0,242221
5,710833	0,1	0,261789
5,712500	0,1	0,231916
5,714167	0,1	0,268321
5,715833	0,1	0,264753
5,717500	0,1	0,260160
5,719167	0,1	0,236416
5,720833	0,1	0,271542
5,722500	0,1	0,265303
5,724167	0,1	0,212303
5,725833	0,1	0,249098
5,727500	0,1	0,227506
5,729167	0,1	0,269750
5,730833	0,1	0,262381
5,732500	0,1	0,253269
5,734167	0,1	0,230727
5,735833	0,1	0,239246
5,737500	0,1	0,300227
5,739167	0,1	0,276218
5,740833	0,1	0,266501
5,742500	0,1	0,281547
5,744167	0,1	0,272299
5,745833	0,1	0,254254
5,747500	0,1	0,294190
5,749167	0,1	0,249718
5,750833	0,1	0,286307
5,752500	0,1	0,288401
5,754167	0,1	0,293943
5,755833	0,1	0,272393
5,757500	0,1	0,280854
5,759167	0,1	0,293101
5,760833	0,1	0,288780
5,762500	0,1	0,276012
5,764167	0,1	0,262248
5,765833	0,1	0,277404
5,767500	0,1	0,307474
5,769167	0,1	0,279276
5,770833	0,1	0,297110
5,772500	0,1	0,310086
5,774167	0,1	0,331590
5,775833	0,1	0,276470
5,777500	0,1	0,286067
5,779167	0,1	0,259758
5,780833	0,1	0,301920
5,782500	0,1	0,297810
5,784167	0,1	0,350327
5,785833	0,1	0,276619
5,787500	0,1	0,304591
5,789167	0,1	0,305356
5,790833	0,1	0,280481
5,792500	0,1	0,263773
5,794167	0,1	0,323757
5,795833	0,1	0,280773
5,797500	0,1	0,304736
5,799167	0,1	0,320998
5,800833	0,1	0,271766
5,802500	0,1	0,292895
5,804167	0,1	0,279877
5,805833	0,1	0,285128
5,807500	0,1	0,322627
5,809167	0,1	0,314561
5,810833	0,1	0,312831
5,812500	0,1	0,309508
5,814167	0,1	0,319515
5,815833	0,1	0,350556
5,817500	0,1	0,280637
5,819167	0,1	0,289830
5,820833	0,1	0,318610
5,822500	0,1	0,336613
5,824167	0,1	0,309851
5,825833	0,1	0,263780
5,827500	0,1	0,324452
5,829167	0,1	0,312087
5,830833	0,1	0,335272
5,832500	0,1	0,311690
5,834167	0,1	0,278389
5,835833	0,1	0,296854
5,837500	0,1	0,330308
5,839167	0,1	0,272810
5,840833	0,1	0,286568
5,842500	0,1	0,299236
5,844167	0,1	0,318122
5,845833	0,1	0,304101
5,847500	0,1	0,285327
5,849167	0,1	0,291967
5,850833	0,1	0,303911
5,852500	0,1	0,320495
5,854167	0,1	0,329721
5,855833	0,1	0,323734
5,857500	0,1	0,306586
5,859167	0,1	0,248968
5,860833	0,1	0,301569
5,862500	0,1	0,267989
5,864167	0,1	0,310530
5,865833	0,1	0,298017
5,867500	0,1	0,327181
5,869167	0,1	0,262649
5,870833	0,1	0,281995
5,872500	0,1	0,286806
5,874167	0,1	0,264910
5,875833	0,1	0,306520
5,877500	0,1	0,301083
5,879167	0,1	0,301561
5,880833	0,1	0,275575
5,882500	0,1	0,272737
5,884167	0,1	0,262931
5,885833	0,1	0,268420
5,887500	0,1	0,285758
5,889167	0,1	0,287215
5,890833	0,1	0,286909
5,892500	0,1	0,295026
5,894167	0,1	0,270952
5,895833	0,1	0,264557
5,897500	0,1	0,277404
5,899167	0,1	0,271694
5,900833	0,1	0,292395
5,902500	0,1	0,258624
5,904167	0,1	0,257073
5,905833	0,1	0,282291
5,907500	0,1	0,288738
5,909167	0,1	0,241785
5,910833	0,1	0,304429
5,912500	0,1	0,299692
5,914167	0,1	0,287953
5,915833	0,1	0,283474
5,917500	0,1	0,277983
5,919167	0,1	0,259611
5,920833	0,1	0,292738
5,922500	0,1	0,286942
5,924167	0,1	0,271390
5,925833	0,1	0,288233
5,927500	0,1	0,253122
5,929167	0,1	0,266281
5,930833	0,1	0,249551
5,932500	0,1	0,274161
5,934167	0,1	0,261247
5,935833	0,1	0,259268
5,937500	0,1	0,250244
5,939167	0,1	0,252317
5,940833	0,1	0,283967
5,942500	0,1	0,271349
5,944167	0,1	0,233843
5,945833	0,1	0,242805
5,947500	0,1	0,274203
5,949167	0,1	0,249459
5,950833	0,1	0,267568
5,952500	0,1	0,292783
5,954167	0,1	0,273029
5,955833	0,1	0,256433
5,957500	0,1	0,233050
5,959167	0,1	0,242459
5,960833	0,1	0,223092
5,962500	0,1	0,269014
5,964167	0,1	0,205220
5,965833	0,1	0,259178
5,967500	0,1	0,271682
5,969167	0,1	0,232020
5,970833	0,1	0,244238
5,972500	0,1	0,226261
5,974167	0,1	0,204667
5,975833	0,1	0,227777
5,977500	0,1	0,248989
5,979167	0,1	0,239684
5,980833	0,1	0,213229
5,982500	0,1	0,211545
5,984167	0,1	0,252020
5,985833	0,1	0,209512
5,987500	0,1	0,235760
5,989167	0,1	0,212229
5,990833	0,1	0,268195
5,992500	0,1	0,207787
5,994167	0,1	0,254045
5,995833	0,1	0,267663
5,997500	0,1	0,252568
5,999167	0,1	0,210409
6,000833	0,1	0,217838
