File Path	chrom://chromeleon01/ikbm_chromeleon/2022/Rezex/Esteban/220612_chitin_4_7.seq/633.smp/UV_VIS_1.channel/UV_VIS_1.chm
Channel	UV_VIS_1

Injection Information:
Data Vault	ikbm_chromeleon
Injection	A2ox 800
Injection Number	61
Position	RA7
Comment	
Processing Method	New ProcMethod
Instrument Method	Short_Rezex_6min_194nm
Type	Calibration Standard
Status	Finished
Injection Date	12.06.2022
Injection Time	23:42:13
Injection Volume (µl)	8,000
Dilution Factor	1,0000
Weight	1,0000

Chromatogram Data Information:
Time Min. (min)	0,000833
Time Max. (min)	6,000833
Data Points	3601
Detector	UV
Generating Data System	Chromeleon 7.2.9.11323
Exporting Data System	Chromeleon 7.2.9.0
Operator	Instrument Controller
Signal Quantity	Absorbance
Signal Unit	mAU
Signal Min.	-0,182215
Signal Max.	370,690565
Channel	UV_VIS_1
Driver Name	VWD3000.dll
Channel Type	Evaluation
Min. Step (s)	0,1
Max. Step (s)	0,1
Average Step (s)	0,1

Signal Parameter Information:
Signal Info	WVL:194 nm

Chromatogram Data:
Time (min)	Step (s)	Value (mAU)
0,000833	n.a.	-0,083448
0,002500	0,1	-0,058805
0,004167	0,1	-0,029488
0,005833	0,1	-0,078975
0,007500	0,1	-0,071230
0,009167	0,1	-0,067078
0,010833	0,1	-0,078008
0,012500	0,1	-0,051813
0,014167	0,1	-0,077467
0,015833	0,1	-0,065150
0,017500	0,1	-0,080185
0,019167	0,1	-0,088073
0,020833	0,1	-0,070340
0,022500	0,1	-0,035527
0,024167	0,1	-0,063130
0,025833	0,1	-0,057203
0,027500	0,1	-0,056683
0,029167	0,1	-0,064918
0,030833	0,1	-0,097133
0,032500	0,1	-0,052253
0,034167	0,1	-0,052988
0,035833	0,1	-0,088604
0,037500	0,1	-0,079570
0,039167	0,1	-0,110533
0,040833	0,1	-0,067544
0,042500	0,1	-0,105973
0,044167	0,1	-0,085215
0,045833	0,1	-0,076789
0,047500	0,1	-0,116738
0,049167	0,1	-0,061717
0,050833	0,1	-0,104748
0,052500	0,1	-0,070487
0,054167	0,1	-0,062868
0,055833	0,1	-0,074792
0,057500	0,1	-0,045982
0,059167	0,1	-0,086344
0,060833	0,1	-0,055093
0,062500	0,1	-0,100764
0,064167	0,1	-0,078079
0,065833	0,1	-0,062683
0,067500	0,1	-0,064733
0,069167	0,1	-0,051748
0,070833	0,1	-0,110883
0,072500	0,1	-0,055056
0,074167	0,1	-0,090577
0,075833	0,1	-0,064824
0,077500	0,1	-0,076309
0,079167	0,1	-0,099522
0,080833	0,1	-0,090504
0,082500	0,1	-0,071956
0,084167	0,1	-0,097447
0,085833	0,1	-0,096415
0,087500	0,1	-0,032794
0,089167	0,1	-0,072048
0,090833	0,1	-0,066146
0,092500	0,1	-0,100953
0,094167	0,1	-0,056672
0,095833	0,1	-0,100054
0,097500	0,1	-0,102970
0,099167	0,1	-0,072459
0,100833	0,1	-0,085788
0,102500	0,1	-0,078075
0,104167	0,1	-0,083447
0,105833	0,1	-0,084651
0,107500	0,1	-0,048370
0,109167	0,1	-0,089951
0,110833	0,1	-0,031900
0,112500	0,1	-0,046513
0,114167	0,1	-0,099205
0,115833	0,1	-0,102203
0,117500	0,1	-0,080256
0,119167	0,1	-0,071892
0,120833	0,1	-0,128830
0,122500	0,1	-0,090594
0,124167	0,1	-0,090169
0,125833	0,1	-0,100000
0,127500	0,1	-0,117820
0,129167	0,1	-0,078437
0,130833	0,1	-0,074153
0,132500	0,1	-0,080417
0,134167	0,1	-0,089586
0,135833	0,1	-0,107530
0,137500	0,1	-0,088493
0,139167	0,1	-0,112323
0,140833	0,1	-0,069203
0,142500	0,1	-0,072513
0,144167	0,1	-0,094666
0,145833	0,1	-0,057956
0,147500	0,1	-0,073838
0,149167	0,1	-0,109995
0,150833	0,1	-0,067047
0,152500	0,1	-0,045337
0,154167	0,1	-0,058131
0,155833	0,1	-0,104971
0,157500	0,1	-0,078371
0,159167	0,1	-0,106386
0,160833	0,1	-0,061548
0,162500	0,1	-0,090973
0,164167	0,1	-0,100811
0,165833	0,1	-0,109338
0,167500	0,1	-0,126930
0,169167	0,1	-0,115942
0,170833	0,1	-0,095425
0,172500	0,1	-0,104750
0,174167	0,1	-0,086377
0,175833	0,1	-0,053577
0,177500	0,1	-0,063113
0,179167	0,1	-0,090579
0,180833	0,1	-0,048580
0,182500	0,1	-0,056119
0,184167	0,1	-0,090515
0,185833	0,1	-0,089361
0,187500	0,1	-0,078949
0,189167	0,1	-0,063637
0,190833	0,1	-0,079356
0,192500	0,1	-0,070295
0,194167	0,1	-0,098172
0,195833	0,1	-0,079199
0,197500	0,1	-0,056459
0,199167	0,1	-0,093066
0,200833	0,1	-0,098134
0,202500	0,1	-0,081812
0,204167	0,1	-0,040675
0,205833	0,1	-0,127599
0,207500	0,1	-0,093228
0,209167	0,1	-0,080049
0,210833	0,1	-0,100623
0,212500	0,1	-0,086668
0,214167	0,1	-0,055237
0,215833	0,1	-0,102670
0,217500	0,1	-0,076855
0,219167	0,1	-0,117505
0,220833	0,1	-0,108286
0,222500	0,1	-0,085588
0,224167	0,1	-0,110806
0,225833	0,1	-0,117743
0,227500	0,1	-0,163914
0,229167	0,1	-0,115969
0,230833	0,1	-0,078912
0,232500	0,1	-0,066458
0,234167	0,1	-0,080186
0,235833	0,1	-0,100042
0,237500	0,1	-0,062605
0,239167	0,1	-0,114992
0,240833	0,1	-0,076693
0,242500	0,1	-0,055172
0,244167	0,1	-0,084932
0,245833	0,1	-0,108797
0,247500	0,1	-0,107535
0,249167	0,1	-0,092580
0,250833	0,1	-0,091229
0,252500	0,1	-0,091890
0,254167	0,1	-0,060652
0,255833	0,1	-0,121713
0,257500	0,1	-0,118389
0,259167	0,1	-0,065700
0,260833	0,1	-0,078029
0,262500	0,1	-0,092635
0,264167	0,1	-0,097659
0,265833	0,1	-0,059305
0,267500	0,1	-0,076078
0,269167	0,1	-0,079359
0,270833	0,1	-0,078530
0,272500	0,1	-0,110020
0,274167	0,1	-0,095920
0,275833	0,1	-0,070485
0,277500	0,1	-0,078363
0,279167	0,1	-0,099231
0,280833	0,1	-0,088991
0,282500	0,1	-0,076790
0,284167	0,1	-0,076020
0,285833	0,1	-0,068884
0,287500	0,1	-0,076266
0,289167	0,1	-0,067536
0,290833	0,1	-0,107484
0,292500	0,1	-0,074222
0,294167	0,1	-0,088631
0,295833	0,1	-0,078802
0,297500	0,1	-0,085314
0,299167	0,1	-0,099627
0,300833	0,1	-0,077001
0,302500	0,1	-0,096803
0,304167	0,1	-0,070675
0,305833	0,1	-0,084731
0,307500	0,1	-0,075276
0,309167	0,1	-0,042705
0,310833	0,1	-0,082899
0,312500	0,1	-0,082016
0,314167	0,1	-0,060380
0,315833	0,1	-0,075913
0,317500	0,1	-0,109376
0,319167	0,1	-0,051095
0,320833	0,1	-0,091366
0,322500	0,1	-0,086165
0,324167	0,1	-0,054699
0,325833	0,1	-0,051662
0,327500	0,1	-0,109388
0,329167	0,1	-0,089097
0,330833	0,1	-0,079779
0,332500	0,1	-0,062870
0,334167	0,1	-0,084357
0,335833	0,1	-0,091245
0,337500	0,1	-0,080462
0,339167	0,1	-0,079922
0,340833	0,1	-0,113958
0,342500	0,1	-0,079575
0,344167	0,1	-0,081497
0,345833	0,1	-0,048349
0,347500	0,1	-0,058299
0,349167	0,1	-0,093834
0,350833	0,1	-0,112014
0,352500	0,1	-0,056178
0,354167	0,1	-0,064607
0,355833	0,1	-0,053489
0,357500	0,1	-0,070040
0,359167	0,1	-0,040650
0,360833	0,1	-0,072942
0,362500	0,1	-0,062453
0,364167	0,1	-0,069129
0,365833	0,1	-0,065108
0,367500	0,1	-0,084149
0,369167	0,1	-0,100229
0,370833	0,1	-0,078038
0,372500	0,1	-0,065980
0,374167	0,1	-0,060295
0,375833	0,1	-0,096863
0,377500	0,1	-0,102721
0,379167	0,1	-0,113654
0,380833	0,1	-0,058791
0,382500	0,1	-0,055043
0,384167	0,1	-0,069252
0,385833	0,1	-0,048326
0,387500	0,1	-0,119365
0,389167	0,1	-0,068667
0,390833	0,1	-0,053408
0,392500	0,1	-0,064439
0,394167	0,1	-0,083049
0,395833	0,1	-0,084796
0,397500	0,1	-0,042520
0,399167	0,1	-0,056741
0,400833	0,1	-0,080330
0,402500	0,1	-0,055092
0,404167	0,1	-0,076492
0,405833	0,1	-0,059136
0,407500	0,1	-0,074564
0,409167	0,1	-0,085189
0,410833	0,1	-0,068638
0,412500	0,1	-0,062598
0,414167	0,1	-0,090973
0,415833	0,1	-0,065091
0,417500	0,1	-0,069049
0,419167	0,1	-0,046024
0,420833	0,1	-0,057013
0,422500	0,1	-0,045210
0,424167	0,1	-0,055145
0,425833	0,1	-0,063983
0,427500	0,1	-0,063923
0,429167	0,1	-0,072636
0,430833	0,1	-0,070147
0,432500	0,1	-0,047040
0,434167	0,1	-0,045313
0,435833	0,1	-0,089391
0,437500	0,1	-0,059303
0,439167	0,1	-0,094748
0,440833	0,1	-0,039162
0,442500	0,1	-0,087482
0,444167	0,1	-0,084651
0,445833	0,1	-0,054137
0,447500	0,1	-0,057014
0,449167	0,1	-0,090182
0,450833	0,1	-0,059158
0,452500	0,1	-0,080827
0,454167	0,1	-0,076477
0,455833	0,1	-0,057144
0,457500	0,1	-0,069647
0,459167	0,1	-0,050545
0,460833	0,1	-0,068089
0,462500	0,1	-0,075104
0,464167	0,1	-0,081993
0,465833	0,1	-0,098092
0,467500	0,1	-0,061483
0,469167	0,1	-0,049319
0,470833	0,1	-0,059378
0,472500	0,1	-0,074791
0,474167	0,1	-0,068573
0,475833	0,1	-0,073840
0,477500	0,1	-0,070999
0,479167	0,1	-0,121819
0,480833	0,1	-0,039812
0,482500	0,1	-0,072422
0,484167	0,1	-0,062182
0,485833	0,1	-0,043282
0,487500	0,1	-0,085804
0,489167	0,1	-0,074779
0,490833	0,1	-0,046793
0,492500	0,1	-0,069063
0,494167	0,1	-0,041542
0,495833	0,1	-0,094845
0,497500	0,1	-0,036757
0,499167	0,1	-0,030644
0,500833	0,1	-0,097706
0,502500	0,1	-0,057087
0,504167	0,1	-0,096924
0,505833	0,1	-0,055696
0,507500	0,1	-0,059109
0,509167	0,1	-0,057327
0,510833	0,1	-0,103313
0,512500	0,1	-0,062233
0,514167	0,1	-0,028367
0,515833	0,1	-0,054517
0,517500	0,1	-0,077716
0,519167	0,1	-0,051024
0,520833	0,1	-0,047283
0,522500	0,1	-0,089516
0,524167	0,1	-0,040260
0,525833	0,1	-0,144608
0,527500	0,1	-0,030401
0,529167	0,1	-0,099968
0,530833	0,1	-0,098988
0,532500	0,1	-0,087599
0,534167	0,1	-0,088031
0,535833	0,1	-0,105686
0,537500	0,1	-0,102101
0,539167	0,1	-0,053187
0,540833	0,1	-0,056660
0,542500	0,1	-0,075039
0,544167	0,1	-0,062764
0,545833	0,1	-0,095555
0,547500	0,1	-0,105417
0,549167	0,1	-0,042485
0,550833	0,1	-0,141349
0,552500	0,1	-0,086221
0,554167	0,1	-0,043268
0,555833	0,1	-0,099971
0,557500	0,1	-0,092393
0,559167	0,1	-0,068785
0,560833	0,1	-0,066248
0,562500	0,1	-0,079627
0,564167	0,1	-0,051855
0,565833	0,1	-0,077654
0,567500	0,1	-0,131609
0,569167	0,1	-0,064936
0,570833	0,1	-0,100265
0,572500	0,1	-0,100380
0,574167	0,1	-0,089302
0,575833	0,1	-0,083636
0,577500	0,1	-0,115017
0,579167	0,1	-0,090237
0,580833	0,1	-0,080173
0,582500	0,1	-0,098712
0,584167	0,1	-0,125704
0,585833	0,1	-0,089597
0,587500	0,1	-0,070484
0,589167	0,1	-0,101220
0,590833	0,1	-0,101790
0,592500	0,1	-0,074842
0,594167	0,1	-0,092511
0,595833	0,1	-0,118338
0,597500	0,1	-0,079288
0,599167	0,1	-0,091993
0,600833	0,1	-0,072643
0,602500	0,1	-0,050213
0,604167	0,1	-0,082797
0,605833	0,1	-0,107115
0,607500	0,1	-0,081254
0,609167	0,1	-0,060566
0,610833	0,1	-0,121837
0,612500	0,1	-0,096194
0,614167	0,1	-0,067894
0,615833	0,1	-0,099042
0,617500	0,1	-0,065820
0,619167	0,1	-0,086078
0,620833	0,1	-0,106326
0,622500	0,1	-0,105024
0,624167	0,1	-0,076004
0,625833	0,1	-0,081102
0,627500	0,1	-0,120927
0,629167	0,1	-0,106420
0,630833	0,1	-0,126156
0,632500	0,1	-0,058794
0,634167	0,1	-0,080246
0,635833	0,1	-0,120470
0,637500	0,1	-0,091630
0,639167	0,1	-0,081251
0,640833	0,1	-0,077390
0,642500	0,1	-0,121717
0,644167	0,1	-0,049914
0,645833	0,1	-0,079725
0,647500	0,1	-0,075399
0,649167	0,1	-0,093110
0,650833	0,1	-0,130344
0,652500	0,1	-0,088542
0,654167	0,1	-0,103587
0,655833	0,1	-0,136944
0,657500	0,1	-0,077382
0,659167	0,1	-0,085771
0,660833	0,1	-0,111036
0,662500	0,1	-0,070862
0,664167	0,1	-0,087614
0,665833	0,1	-0,086518
0,667500	0,1	-0,132729
0,669167	0,1	-0,082960
0,670833	0,1	-0,088384
0,672500	0,1	-0,129559
0,674167	0,1	-0,089598
0,675833	0,1	-0,089650
0,677500	0,1	-0,113423
0,679167	0,1	-0,127740
0,680833	0,1	-0,070390
0,682500	0,1	-0,139884
0,684167	0,1	-0,061080
0,685833	0,1	-0,062761
0,687500	0,1	-0,126709
0,689167	0,1	-0,091069
0,690833	0,1	-0,101330
0,692500	0,1	-0,105542
0,694167	0,1	-0,117550
0,695833	0,1	-0,114840
0,697500	0,1	-0,121187
0,699167	0,1	-0,089015
0,700833	0,1	-0,096349
0,702500	0,1	-0,082290
0,704167	0,1	-0,117008
0,705833	0,1	-0,112743
0,707500	0,1	-0,111685
0,709167	0,1	-0,068022
0,710833	0,1	-0,090350
0,712500	0,1	-0,102616
0,714167	0,1	-0,093098
0,715833	0,1	-0,049369
0,717500	0,1	-0,117000
0,719167	0,1	-0,063771
0,720833	0,1	-0,080704
0,722500	0,1	-0,065856
0,724167	0,1	-0,026688
0,725833	0,1	-0,087830
0,727500	0,1	-0,102905
0,729167	0,1	-0,085214
0,730833	0,1	-0,097698
0,732500	0,1	-0,043727
0,734167	0,1	-0,046910
0,735833	0,1	-0,080452
0,737500	0,1	-0,061771
0,739167	0,1	-0,059008
0,740833	0,1	-0,069877
0,742500	0,1	-0,046043
0,744167	0,1	-0,049626
0,745833	0,1	-0,046806
0,747500	0,1	-0,045021
0,749167	0,1	-0,034297
0,750833	0,1	-0,069911
0,752500	0,1	-0,063179
0,754167	0,1	-0,026418
0,755833	0,1	-0,077523
0,757500	0,1	-0,029450
0,759167	0,1	-0,093308
0,760833	0,1	-0,052293
0,762500	0,1	-0,092817
0,764167	0,1	-0,063392
0,765833	0,1	-0,069940
0,767500	0,1	-0,085601
0,769167	0,1	-0,086248
0,770833	0,1	-0,067662
0,772500	0,1	-0,116323
0,774167	0,1	-0,091129
0,775833	0,1	-0,099087
0,777500	0,1	-0,040803
0,779167	0,1	-0,104162
0,780833	0,1	-0,094531
0,782500	0,1	-0,071004
0,784167	0,1	-0,119972
0,785833	0,1	-0,081799
0,787500	0,1	-0,130596
0,789167	0,1	-0,092813
0,790833	0,1	-0,074591
0,792500	0,1	-0,081993
0,794167	0,1	-0,095396
0,795833	0,1	-0,087350
0,797500	0,1	-0,120557
0,799167	0,1	-0,092273
0,800833	0,1	-0,107242
0,802500	0,1	-0,122447
0,804167	0,1	-0,076052
0,805833	0,1	-0,123831
0,807500	0,1	-0,119404
0,809167	0,1	-0,081484
0,810833	0,1	-0,081829
0,812500	0,1	-0,107900
0,814167	0,1	-0,095380
0,815833	0,1	-0,132714
0,817500	0,1	-0,097544
0,819167	0,1	-0,122489
0,820833	0,1	-0,110154
0,822500	0,1	-0,119796
0,824167	0,1	-0,131805
0,825833	0,1	-0,137117
0,827500	0,1	-0,110529
0,829167	0,1	-0,113903
0,830833	0,1	-0,136927
0,832500	0,1	-0,095802
0,834167	0,1	-0,127154
0,835833	0,1	-0,112536
0,837500	0,1	-0,126949
0,839167	0,1	-0,114155
0,840833	0,1	-0,103118
0,842500	0,1	-0,150611
0,844167	0,1	-0,138365
0,845833	0,1	-0,123097
0,847500	0,1	-0,132033
0,849167	0,1	-0,135559
0,850833	0,1	-0,177085
0,852500	0,1	-0,140923
0,854167	0,1	-0,163832
0,855833	0,1	-0,127913
0,857500	0,1	-0,155514
0,859167	0,1	-0,159563
0,860833	0,1	-0,182215
0,862500	0,1	-0,166827
0,864167	0,1	-0,161020
0,865833	0,1	-0,170205
0,867500	0,1	-0,166684
0,869167	0,1	-0,137644
0,870833	0,1	-0,148772
0,872500	0,1	-0,120985
0,874167	0,1	-0,147376
0,875833	0,1	-0,119200
0,877500	0,1	-0,155742
0,879167	0,1	-0,153839
0,880833	0,1	-0,142055
0,882500	0,1	-0,154206
0,884167	0,1	-0,133037
0,885833	0,1	-0,127720
0,887500	0,1	-0,134960
0,889167	0,1	-0,137805
0,890833	0,1	-0,129695
0,892500	0,1	-0,130793
0,894167	0,1	-0,148936
0,895833	0,1	-0,151557
0,897500	0,1	-0,143694
0,899167	0,1	-0,115235
0,900833	0,1	-0,182055
0,902500	0,1	-0,152332
0,904167	0,1	-0,145005
0,905833	0,1	-0,159395
0,907500	0,1	-0,108458
0,909167	0,1	-0,132049
0,910833	0,1	-0,120173
0,912500	0,1	-0,118179
0,914167	0,1	-0,149225
0,915833	0,1	-0,142742
0,917500	0,1	-0,130356
0,919167	0,1	-0,132344
0,920833	0,1	-0,125897
0,922500	0,1	-0,136492
0,924167	0,1	-0,164332
0,925833	0,1	-0,089978
0,927500	0,1	-0,126988
0,929167	0,1	-0,129919
0,930833	0,1	-0,122744
0,932500	0,1	-0,156798
0,934167	0,1	-0,093421
0,935833	0,1	-0,106245
0,937500	0,1	-0,093990
0,939167	0,1	-0,087452
0,940833	0,1	-0,110208
0,942500	0,1	-0,116785
0,944167	0,1	-0,108076
0,945833	0,1	-0,135368
0,947500	0,1	-0,113080
0,949167	0,1	-0,122300
0,950833	0,1	-0,116849
0,952500	0,1	-0,106685
0,954167	0,1	-0,126349
0,955833	0,1	-0,143421
0,957500	0,1	-0,085224
0,959167	0,1	-0,119247
0,960833	0,1	-0,108514
0,962500	0,1	-0,104217
0,964167	0,1	-0,113568
0,965833	0,1	-0,098263
0,967500	0,1	-0,074282
0,969167	0,1	-0,097135
0,970833	0,1	-0,111328
0,972500	0,1	-0,126993
0,974167	0,1	-0,089721
0,975833	0,1	-0,070319
0,977500	0,1	-0,102444
0,979167	0,1	-0,077914
0,980833	0,1	-0,075709
0,982500	0,1	-0,129556
0,984167	0,1	-0,083770
0,985833	0,1	-0,106886
0,987500	0,1	-0,107201
0,989167	0,1	-0,090941
0,990833	0,1	-0,082307
0,992500	0,1	-0,124122
0,994167	0,1	-0,116770
0,995833	0,1	-0,121287
0,997500	0,1	-0,080987
0,999167	0,1	-0,096765
1,000833	0,1	-0,042648
1,002500	0,1	-0,036246
1,004167	0,1	-0,033922
1,005833	0,1	-0,042530
1,007500	0,1	-0,056512
1,009167	0,1	-0,051371
1,010833	0,1	-0,047781
1,012500	0,1	-0,024859
1,014167	0,1	-0,016450
1,015833	0,1	-0,025494
1,017500	0,1	0,000497
1,019167	0,1	-0,003936
1,020833	0,1	0,008512
1,022500	0,1	0,008577
1,024167	0,1	0,014428
1,025833	0,1	0,031253
1,027500	0,1	-0,000007
1,029167	0,1	0,012786
1,030833	0,1	0,024741
1,032500	0,1	0,037107
1,034167	0,1	0,041966
1,035833	0,1	0,061098
1,037500	0,1	0,040669
1,039167	0,1	0,078857
1,040833	0,1	0,074363
1,042500	0,1	0,075649
1,044167	0,1	0,084805
1,045833	0,1	0,154272
1,047500	0,1	0,114705
1,049167	0,1	0,141817
1,050833	0,1	0,195060
1,052500	0,1	0,254852
1,054167	0,1	0,333383
1,055833	0,1	0,474058
1,057500	0,1	0,665481
1,059167	0,1	0,917118
1,060833	0,1	1,337362
1,062500	0,1	1,837136
1,064167	0,1	2,492008
1,065833	0,1	3,444284
1,067500	0,1	4,618198
1,069167	0,1	6,149160
1,070833	0,1	8,038272
1,072500	0,1	10,356169
1,074167	0,1	13,129787
1,075833	0,1	16,453206
1,077500	0,1	20,250227
1,079167	0,1	24,655057
1,080833	0,1	29,549144
1,082500	0,1	35,001695
1,084167	0,1	40,874770
1,085833	0,1	47,242773
1,087500	0,1	53,960039
1,089167	0,1	60,980381
1,090833	0,1	68,216461
1,092500	0,1	75,589256
1,094167	0,1	82,951890
1,095833	0,1	90,353620
1,097500	0,1	97,547478
1,099167	0,1	104,579033
1,100833	0,1	111,226378
1,102500	0,1	117,588239
1,104167	0,1	123,561400
1,105833	0,1	129,003861
1,107500	0,1	133,992231
1,109167	0,1	138,393008
1,110833	0,1	142,241170
1,112500	0,1	145,611872
1,114167	0,1	148,315248
1,115833	0,1	150,427909
1,117500	0,1	152,081279
1,119167	0,1	153,097050
1,120833	0,1	153,608723
1,122500	0,1	153,503841
1,124167	0,1	153,058051
1,125833	0,1	152,054400
1,127500	0,1	150,707475
1,129167	0,1	148,832774
1,130833	0,1	146,646981
1,132500	0,1	144,094677
1,134167	0,1	141,304709
1,135833	0,1	138,164743
1,137500	0,1	134,853190
1,139167	0,1	131,259427
1,140833	0,1	127,616214
1,142500	0,1	123,740627
1,144167	0,1	119,771617
1,145833	0,1	115,717083
1,147500	0,1	111,646785
1,149167	0,1	107,568582
1,150833	0,1	103,455848
1,152500	0,1	99,416532
1,154167	0,1	95,303598
1,155833	0,1	91,348332
1,157500	0,1	87,444518
1,159167	0,1	83,601988
1,160833	0,1	79,880330
1,162500	0,1	76,200054
1,164167	0,1	72,721001
1,165833	0,1	69,275292
1,167500	0,1	66,027083
1,169167	0,1	62,853853
1,170833	0,1	59,741615
1,172500	0,1	56,847332
1,174167	0,1	53,985557
1,175833	0,1	51,291673
1,177500	0,1	48,692237
1,179167	0,1	46,182285
1,180833	0,1	43,840744
1,182500	0,1	41,568335
1,184167	0,1	39,424361
1,185833	0,1	37,362498
1,187500	0,1	35,351773
1,189167	0,1	33,588665
1,190833	0,1	31,785644
1,192500	0,1	30,174591
1,194167	0,1	28,529689
1,195833	0,1	27,012515
1,197500	0,1	25,566964
1,199167	0,1	24,251992
1,200833	0,1	22,983075
1,202500	0,1	21,791069
1,204167	0,1	20,628968
1,205833	0,1	19,591561
1,207500	0,1	18,566776
1,209167	0,1	17,564334
1,210833	0,1	16,684252
1,212500	0,1	15,857574
1,214167	0,1	15,052852
1,215833	0,1	14,287527
1,217500	0,1	13,612372
1,219167	0,1	12,896241
1,220833	0,1	12,328874
1,222500	0,1	11,716712
1,224167	0,1	11,149889
1,225833	0,1	10,610412
1,227500	0,1	10,103492
1,229167	0,1	9,670737
1,230833	0,1	9,219228
1,232500	0,1	8,805898
1,234167	0,1	8,412193
1,235833	0,1	8,048330
1,237500	0,1	7,672428
1,239167	0,1	7,375270
1,240833	0,1	7,033204
1,242500	0,1	6,795637
1,244167	0,1	6,503209
1,245833	0,1	6,201049
1,247500	0,1	5,985601
1,249167	0,1	5,708626
1,250833	0,1	5,505004
1,252500	0,1	5,301459
1,254167	0,1	5,072306
1,255833	0,1	4,882177
1,257500	0,1	4,692485
1,259167	0,1	4,531440
1,260833	0,1	4,378098
1,262500	0,1	4,187354
1,264167	0,1	4,068288
1,265833	0,1	3,948338
1,267500	0,1	3,793621
1,269167	0,1	3,643219
1,270833	0,1	3,478246
1,272500	0,1	3,376381
1,274167	0,1	3,276498
1,275833	0,1	3,197281
1,277500	0,1	3,112421
1,279167	0,1	2,995745
1,280833	0,1	2,888744
1,282500	0,1	2,787175
1,284167	0,1	2,747718
1,285833	0,1	2,626909
1,287500	0,1	2,563347
1,289167	0,1	2,507192
1,290833	0,1	2,422734
1,292500	0,1	2,336061
1,294167	0,1	2,294164
1,295833	0,1	2,213122
1,297500	0,1	2,133748
1,299167	0,1	2,156777
1,300833	0,1	2,059988
1,302500	0,1	2,030816
1,304167	0,1	1,976322
1,305833	0,1	1,912715
1,307500	0,1	1,906810
1,309167	0,1	1,839987
1,310833	0,1	1,774597
1,312500	0,1	1,727302
1,314167	0,1	1,779468
1,315833	0,1	1,691947
1,317500	0,1	1,648800
1,319167	0,1	1,644288
1,320833	0,1	1,599815
1,322500	0,1	1,591842
1,324167	0,1	1,555842
1,325833	0,1	1,462590
1,327500	0,1	1,505240
1,329167	0,1	1,470609
1,330833	0,1	1,448152
1,332500	0,1	1,419770
1,334167	0,1	1,424004
1,335833	0,1	1,386858
1,337500	0,1	1,390087
1,339167	0,1	1,368700
1,340833	0,1	1,349288
1,342500	0,1	1,334634
1,344167	0,1	1,359986
1,345833	0,1	1,351508
1,347500	0,1	1,315585
1,349167	0,1	1,265961
1,350833	0,1	1,280323
1,352500	0,1	1,273367
1,354167	0,1	1,219323
1,355833	0,1	1,267920
1,357500	0,1	1,256730
1,359167	0,1	1,254520
1,360833	0,1	1,251824
1,362500	0,1	1,232643
1,364167	0,1	1,232077
1,365833	0,1	1,244059
1,367500	0,1	1,238513
1,369167	0,1	1,241092
1,370833	0,1	1,212051
1,372500	0,1	1,251201
1,374167	0,1	1,249377
1,375833	0,1	1,231368
1,377500	0,1	1,195484
1,379167	0,1	1,196784
1,380833	0,1	1,248686
1,382500	0,1	1,170133
1,384167	0,1	1,230975
1,385833	0,1	1,214511
1,387500	0,1	1,210434
1,389167	0,1	1,243443
1,390833	0,1	1,237443
1,392500	0,1	1,216293
1,394167	0,1	1,242037
1,395833	0,1	1,200171
1,397500	0,1	1,203454
1,399167	0,1	1,221886
1,400833	0,1	1,218428
1,402500	0,1	1,266834
1,404167	0,1	1,225857
1,405833	0,1	1,202883
1,407500	0,1	1,218951
1,409167	0,1	1,210213
1,410833	0,1	1,233667
1,412500	0,1	1,217363
1,414167	0,1	1,211690
1,415833	0,1	1,214609
1,417500	0,1	1,216680
1,419167	0,1	1,206479
1,420833	0,1	1,184330
1,422500	0,1	1,212430
1,424167	0,1	1,215813
1,425833	0,1	1,174198
1,427500	0,1	1,169710
1,429167	0,1	1,234286
1,430833	0,1	1,203055
1,432500	0,1	1,178322
1,434167	0,1	1,180606
1,435833	0,1	1,212648
1,437500	0,1	1,177747
1,439167	0,1	1,198866
1,440833	0,1	1,174587
1,442500	0,1	1,183081
1,444167	0,1	1,195507
1,445833	0,1	1,161976
1,447500	0,1	1,169774
1,449167	0,1	1,173781
1,450833	0,1	1,140691
1,452500	0,1	1,208905
1,454167	0,1	1,182377
1,455833	0,1	1,173445
1,457500	0,1	1,176380
1,459167	0,1	1,179825
1,460833	0,1	1,138164
1,462500	0,1	1,207972
1,464167	0,1	1,148083
1,465833	0,1	1,210995
1,467500	0,1	1,176015
1,469167	0,1	1,189585
1,470833	0,1	1,137674
1,472500	0,1	1,196854
1,474167	0,1	1,186008
1,475833	0,1	1,203960
1,477500	0,1	1,186687
1,479167	0,1	1,221950
1,480833	0,1	1,226711
1,482500	0,1	1,245144
1,484167	0,1	1,255079
1,485833	0,1	1,232134
1,487500	0,1	1,214493
1,489167	0,1	1,257448
1,490833	0,1	1,254521
1,492500	0,1	1,306971
1,494167	0,1	1,280096
1,495833	0,1	1,300086
1,497500	0,1	1,293132
1,499167	0,1	1,337534
1,500833	0,1	1,296315
1,502500	0,1	1,284899
1,504167	0,1	1,323310
1,505833	0,1	1,305106
1,507500	0,1	1,335739
1,509167	0,1	1,336514
1,510833	0,1	1,291919
1,512500	0,1	1,322008
1,514167	0,1	1,301099
1,515833	0,1	1,329120
1,517500	0,1	1,315323
1,519167	0,1	1,320160
1,520833	0,1	1,343894
1,522500	0,1	1,341251
1,524167	0,1	1,327058
1,525833	0,1	1,365351
1,527500	0,1	1,361202
1,529167	0,1	1,315588
1,530833	0,1	1,362602
1,532500	0,1	1,313434
1,534167	0,1	1,300316
1,535833	0,1	1,303439
1,537500	0,1	1,316304
1,539167	0,1	1,313795
1,540833	0,1	1,307835
1,542500	0,1	1,325251
1,544167	0,1	1,315511
1,545833	0,1	1,286602
1,547500	0,1	1,309491
1,549167	0,1	1,259252
1,550833	0,1	1,269528
1,552500	0,1	1,283025
1,554167	0,1	1,229357
1,555833	0,1	1,209861
1,557500	0,1	1,188913
1,559167	0,1	1,190620
1,560833	0,1	1,192948
1,562500	0,1	1,169002
1,564167	0,1	1,178959
1,565833	0,1	1,146938
1,567500	0,1	1,137818
1,569167	0,1	1,140156
1,570833	0,1	1,110668
1,572500	0,1	1,120130
1,574167	0,1	1,122201
1,575833	0,1	1,136118
1,577500	0,1	1,108867
1,579167	0,1	1,103855
1,580833	0,1	1,093336
1,582500	0,1	1,046183
1,584167	0,1	1,072403
1,585833	0,1	1,050221
1,587500	0,1	1,035590
1,589167	0,1	1,032408
1,590833	0,1	1,011778
1,592500	0,1	1,063522
1,594167	0,1	1,007965
1,595833	0,1	1,027177
1,597500	0,1	1,005665
1,599167	0,1	1,027910
1,600833	0,1	1,032763
1,602500	0,1	1,027049
1,604167	0,1	1,017755
1,605833	0,1	1,067239
1,607500	0,1	1,049467
1,609167	0,1	1,076648
1,610833	0,1	1,100623
1,612500	0,1	1,107771
1,614167	0,1	1,200003
1,615833	0,1	1,177776
1,617500	0,1	1,250734
1,619167	0,1	1,258986
1,620833	0,1	1,383963
1,622500	0,1	1,469520
1,624167	0,1	1,560331
1,625833	0,1	1,608893
1,627500	0,1	1,712636
1,629167	0,1	1,912219
1,630833	0,1	2,041908
1,632500	0,1	2,226784
1,634167	0,1	2,424602
1,635833	0,1	2,682649
1,637500	0,1	3,009223
1,639167	0,1	3,284502
1,640833	0,1	3,653030
1,642500	0,1	4,046083
1,644167	0,1	4,527479
1,645833	0,1	5,086123
1,647500	0,1	5,659332
1,649167	0,1	6,345628
1,650833	0,1	7,030251
1,652500	0,1	7,892866
1,654167	0,1	8,838848
1,655833	0,1	9,892210
1,657500	0,1	11,044404
1,659167	0,1	12,327234
1,660833	0,1	13,712049
1,662500	0,1	15,252798
1,664167	0,1	16,887357
1,665833	0,1	18,783395
1,667500	0,1	20,750595
1,669167	0,1	22,877399
1,670833	0,1	25,283554
1,672500	0,1	27,778716
1,674167	0,1	30,564486
1,675833	0,1	33,520816
1,677500	0,1	36,641833
1,679167	0,1	40,007140
1,680833	0,1	43,630548
1,682500	0,1	47,473505
1,684167	0,1	51,523461
1,685833	0,1	55,853368
1,687500	0,1	60,399758
1,689167	0,1	65,159537
1,690833	0,1	70,192271
1,692500	0,1	75,462430
1,694167	0,1	80,960934
1,695833	0,1	86,704793
1,697500	0,1	92,736965
1,699167	0,1	98,895749
1,700833	0,1	105,280893
1,702500	0,1	111,957777
1,704167	0,1	118,776713
1,705833	0,1	125,794241
1,707500	0,1	132,924162
1,709167	0,1	140,319277
1,710833	0,1	147,828288
1,712500	0,1	155,478655
1,714167	0,1	163,167398
1,715833	0,1	171,032733
1,717500	0,1	179,001826
1,719167	0,1	186,966198
1,720833	0,1	195,020089
1,722500	0,1	203,177885
1,724167	0,1	211,117793
1,725833	0,1	219,141963
1,727500	0,1	227,214666
1,729167	0,1	235,129538
1,730833	0,1	243,055153
1,732500	0,1	250,784089
1,734167	0,1	258,486330
1,735833	0,1	265,981756
1,737500	0,1	273,421949
1,739167	0,1	280,507395
1,740833	0,1	287,557355
1,742500	0,1	294,414832
1,744167	0,1	301,003812
1,745833	0,1	307,341356
1,747500	0,1	313,394190
1,749167	0,1	319,206252
1,750833	0,1	324,839718
1,752500	0,1	330,055119
1,754167	0,1	335,055712
1,755833	0,1	339,694498
1,757500	0,1	344,063171
1,759167	0,1	348,165671
1,760833	0,1	351,804438
1,762500	0,1	355,238956
1,764167	0,1	358,193033
1,765833	0,1	361,018640
1,767500	0,1	363,348000
1,769167	0,1	365,447826
1,770833	0,1	367,105677
1,772500	0,1	368,489048
1,774167	0,1	369,562725
1,775833	0,1	370,236050
1,777500	0,1	370,582126
1,779167	0,1	370,690565
1,780833	0,1	370,458604
1,782500	0,1	369,867598
1,784167	0,1	369,083191
1,785833	0,1	367,899552
1,787500	0,1	366,491730
1,789167	0,1	364,667609
1,790833	0,1	362,767641
1,792500	0,1	360,491872
1,794167	0,1	358,016284
1,795833	0,1	355,278252
1,797500	0,1	352,208103
1,799167	0,1	349,091631
1,800833	0,1	345,683321
1,802500	0,1	342,093874
1,804167	0,1	338,267701
1,805833	0,1	334,320000
1,807500	0,1	330,243628
1,809167	0,1	325,885872
1,810833	0,1	321,367448
1,812500	0,1	316,899067
1,814167	0,1	312,205462
1,815833	0,1	307,412462
1,817500	0,1	302,521049
1,819167	0,1	297,507081
1,820833	0,1	292,457422
1,822500	0,1	287,259801
1,824167	0,1	282,195570
1,825833	0,1	276,880626
1,827500	0,1	271,613513
1,829167	0,1	266,319367
1,830833	0,1	260,977259
1,832500	0,1	255,674404
1,834167	0,1	250,368874
1,835833	0,1	245,006352
1,837500	0,1	239,670374
1,839167	0,1	234,397283
1,840833	0,1	229,123047
1,842500	0,1	223,842199
1,844167	0,1	218,704887
1,845833	0,1	213,544956
1,847500	0,1	208,400099
1,849167	0,1	203,359225
1,850833	0,1	198,312276
1,852500	0,1	193,455114
1,854167	0,1	188,587407
1,855833	0,1	183,794221
1,857500	0,1	179,094966
1,859167	0,1	174,496746
1,860833	0,1	169,921206
1,862500	0,1	165,457871
1,864167	0,1	161,085675
1,865833	0,1	156,774593
1,867500	0,1	152,516300
1,869167	0,1	148,415792
1,870833	0,1	144,310989
1,872500	0,1	140,387286
1,874167	0,1	136,517742
1,875833	0,1	132,676586
1,877500	0,1	129,050107
1,879167	0,1	125,438010
1,880833	0,1	121,938876
1,882500	0,1	118,488912
1,884167	0,1	115,191278
1,885833	0,1	111,942460
1,887500	0,1	108,752027
1,889167	0,1	105,679553
1,890833	0,1	102,658268
1,892500	0,1	99,700926
1,894167	0,1	96,868052
1,895833	0,1	94,079862
1,897500	0,1	91,515719
1,899167	0,1	88,818892
1,900833	0,1	86,303596
1,902500	0,1	83,853582
1,904167	0,1	81,405907
1,905833	0,1	79,072279
1,907500	0,1	76,787323
1,909167	0,1	74,637216
1,910833	0,1	72,492883
1,912500	0,1	70,437880
1,914167	0,1	68,430328
1,915833	0,1	66,480848
1,917500	0,1	64,608771
1,919167	0,1	62,774926
1,920833	0,1	61,008175
1,922500	0,1	59,261160
1,924167	0,1	57,610079
1,925833	0,1	56,012467
1,927500	0,1	54,397904
1,929167	0,1	52,904125
1,930833	0,1	51,404668
1,932500	0,1	49,995954
1,934167	0,1	48,585521
1,935833	0,1	47,247979
1,937500	0,1	46,024028
1,939167	0,1	44,691077
1,940833	0,1	43,496096
1,942500	0,1	42,350348
1,944167	0,1	41,170520
1,945833	0,1	40,038344
1,947500	0,1	39,025330
1,949167	0,1	37,993647
1,950833	0,1	36,988027
1,952500	0,1	35,970732
1,954167	0,1	35,051069
1,955833	0,1	34,182571
1,957500	0,1	33,299599
1,959167	0,1	32,445769
1,960833	0,1	31,624162
1,962500	0,1	30,843699
1,964167	0,1	30,081288
1,965833	0,1	29,323227
1,967500	0,1	28,632943
1,969167	0,1	27,942788
1,970833	0,1	27,246564
1,972500	0,1	26,659414
1,974167	0,1	26,050239
1,975833	0,1	25,405496
1,977500	0,1	24,824013
1,979167	0,1	24,275201
1,980833	0,1	23,719935
1,982500	0,1	23,223823
1,984167	0,1	22,723516
1,985833	0,1	22,240089
1,987500	0,1	21,773727
1,989167	0,1	21,374030
1,990833	0,1	20,921297
1,992500	0,1	20,529373
1,994167	0,1	20,118585
1,995833	0,1	19,713195
1,997500	0,1	19,386769
1,999167	0,1	19,001967
2,000833	0,1	18,613571
2,002500	0,1	18,337132
2,004167	0,1	18,016065
2,005833	0,1	17,763642
2,007500	0,1	17,429821
2,009167	0,1	17,147865
2,010833	0,1	16,889337
2,012500	0,1	16,645414
2,014167	0,1	16,378173
2,015833	0,1	16,136953
2,017500	0,1	15,982323
2,019167	0,1	15,686139
2,020833	0,1	15,511141
2,022500	0,1	15,301597
2,024167	0,1	15,083739
2,025833	0,1	14,908604
2,027500	0,1	14,768025
2,029167	0,1	14,602716
2,030833	0,1	14,442079
2,032500	0,1	14,260795
2,034167	0,1	14,146456
2,035833	0,1	13,980355
2,037500	0,1	13,913653
2,039167	0,1	13,759044
2,040833	0,1	13,598636
2,042500	0,1	13,480247
2,044167	0,1	13,433585
2,045833	0,1	13,301787
2,047500	0,1	13,211429
2,049167	0,1	13,127541
2,050833	0,1	13,018705
2,052500	0,1	12,931241
2,054167	0,1	12,850426
2,055833	0,1	12,767576
2,057500	0,1	12,734657
2,059167	0,1	12,628449
2,060833	0,1	12,583567
2,062500	0,1	12,547012
2,064167	0,1	12,454488
2,065833	0,1	12,425937
2,067500	0,1	12,415719
2,069167	0,1	12,329918
2,070833	0,1	12,317018
2,072500	0,1	12,219145
2,074167	0,1	12,210879
2,075833	0,1	12,157532
2,077500	0,1	12,109902
2,079167	0,1	12,095886
2,080833	0,1	12,047028
2,082500	0,1	11,993343
2,084167	0,1	12,006594
2,085833	0,1	11,960197
2,087500	0,1	11,959758
2,089167	0,1	11,901707
2,090833	0,1	11,910483
2,092500	0,1	11,879024
2,094167	0,1	11,837103
2,095833	0,1	11,827421
2,097500	0,1	11,797449
2,099167	0,1	11,792260
2,100833	0,1	11,717013
2,102500	0,1	11,701902
2,104167	0,1	11,684806
2,105833	0,1	11,663587
2,107500	0,1	11,607591
2,109167	0,1	11,586510
2,110833	0,1	11,606366
2,112500	0,1	11,566580
2,114167	0,1	11,522180
2,115833	0,1	11,506847
2,117500	0,1	11,441354
2,119167	0,1	11,468616
2,120833	0,1	11,417347
2,122500	0,1	11,354522
2,124167	0,1	11,337415
2,125833	0,1	11,266528
2,127500	0,1	11,265768
2,129167	0,1	11,210202
2,130833	0,1	11,201706
2,132500	0,1	11,132594
2,134167	0,1	11,128636
2,135833	0,1	11,064730
2,137500	0,1	11,028803
2,139167	0,1	10,976422
2,140833	0,1	10,953038
2,142500	0,1	10,906550
2,144167	0,1	10,863717
2,145833	0,1	10,834249
2,147500	0,1	10,804689
2,149167	0,1	10,769300
2,150833	0,1	10,697541
2,152500	0,1	10,672038
2,154167	0,1	10,647973
2,155833	0,1	10,586676
2,157500	0,1	10,562388
2,159167	0,1	10,502422
2,160833	0,1	10,439156
2,162500	0,1	10,438428
2,164167	0,1	10,364759
2,165833	0,1	10,327754
2,167500	0,1	10,308103
2,169167	0,1	10,242131
2,170833	0,1	10,177100
2,172500	0,1	10,153265
2,174167	0,1	10,101696
2,175833	0,1	10,067480
2,177500	0,1	10,022369
2,179167	0,1	9,984953
2,180833	0,1	9,894520
2,182500	0,1	9,898082
2,184167	0,1	9,832257
2,185833	0,1	9,788293
2,187500	0,1	9,741114
2,189167	0,1	9,731428
2,190833	0,1	9,648900
2,192500	0,1	9,617217
2,194167	0,1	9,557105
2,195833	0,1	9,497347
2,197500	0,1	9,443498
2,199167	0,1	9,398832
2,200833	0,1	9,323764
2,202500	0,1	9,341974
2,204167	0,1	9,284364
2,205833	0,1	9,216334
2,207500	0,1	9,163767
2,209167	0,1	9,161371
2,210833	0,1	9,078750
2,212500	0,1	9,002207
2,214167	0,1	8,988165
2,215833	0,1	8,932992
2,217500	0,1	8,895301
2,219167	0,1	8,844268
2,220833	0,1	8,795789
2,222500	0,1	8,755060
2,224167	0,1	8,694108
2,225833	0,1	8,680942
2,227500	0,1	8,601682
2,229167	0,1	8,579460
2,230833	0,1	8,522945
2,232500	0,1	8,499469
2,234167	0,1	8,398950
2,235833	0,1	8,359365
2,237500	0,1	8,332452
2,239167	0,1	8,287177
2,240833	0,1	8,271072
2,242500	0,1	8,203062
2,244167	0,1	8,081122
2,245833	0,1	8,053969
2,247500	0,1	8,087654
2,249167	0,1	7,943764
2,250833	0,1	7,972309
2,252500	0,1	7,918703
2,254167	0,1	7,870601
2,255833	0,1	7,832120
2,257500	0,1	7,763665
2,259167	0,1	7,732112
2,260833	0,1	7,685154
2,262500	0,1	7,654945
2,264167	0,1	7,594079
2,265833	0,1	7,572371
2,267500	0,1	7,491308
2,269167	0,1	7,459701
2,270833	0,1	7,445395
2,272500	0,1	7,369042
2,274167	0,1	7,357895
2,275833	0,1	7,281462
2,277500	0,1	7,247257
2,279167	0,1	7,224917
2,280833	0,1	7,160638
2,282500	0,1	7,124770
2,284167	0,1	7,097297
2,285833	0,1	7,096262
2,287500	0,1	7,001388
2,289167	0,1	6,985214
2,290833	0,1	6,928914
2,292500	0,1	6,928993
2,294167	0,1	6,889227
2,295833	0,1	6,859910
2,297500	0,1	6,789063
2,299167	0,1	6,768234
2,300833	0,1	6,765524
2,302500	0,1	6,707384
2,304167	0,1	6,671461
2,305833	0,1	6,654936
2,307500	0,1	6,609579
2,309167	0,1	6,594844
2,310833	0,1	6,541954
2,312500	0,1	6,483272
2,314167	0,1	6,497051
2,315833	0,1	6,438499
2,317500	0,1	6,407892
2,319167	0,1	6,340089
2,320833	0,1	6,345022
2,322500	0,1	6,320423
2,324167	0,1	6,293301
2,325833	0,1	6,273067
2,327500	0,1	6,226799
2,329167	0,1	6,238171
2,330833	0,1	6,164463
2,332500	0,1	6,160801
2,334167	0,1	6,105548
2,335833	0,1	6,110011
2,337500	0,1	6,077501
2,339167	0,1	6,088122
2,340833	0,1	6,035284
2,342500	0,1	6,002681
2,344167	0,1	6,014307
2,345833	0,1	5,934184
2,347500	0,1	5,947988
2,349167	0,1	5,907112
2,350833	0,1	5,866282
2,352500	0,1	5,834862
2,354167	0,1	5,840771
2,355833	0,1	5,829674
2,357500	0,1	5,797596
2,359167	0,1	5,791966
2,360833	0,1	5,774172
2,362500	0,1	5,738871
2,364167	0,1	5,715859
2,365833	0,1	5,667265
2,367500	0,1	5,646616
2,369167	0,1	5,653934
2,370833	0,1	5,607327
2,372500	0,1	5,637469
2,374167	0,1	5,581049
2,375833	0,1	5,525426
2,377500	0,1	5,549015
2,379167	0,1	5,530455
2,380833	0,1	5,510823
2,382500	0,1	5,477275
2,384167	0,1	5,487711
2,385833	0,1	5,443143
2,387500	0,1	5,464841
2,389167	0,1	5,427401
2,390833	0,1	5,404621
2,392500	0,1	5,385559
2,394167	0,1	5,338738
2,395833	0,1	5,313077
2,397500	0,1	5,319383
2,399167	0,1	5,330870
2,400833	0,1	5,318417
2,402500	0,1	5,291846
2,404167	0,1	5,238853
2,405833	0,1	5,258429
2,407500	0,1	5,214933
2,409167	0,1	5,206683
2,410833	0,1	5,200797
2,412500	0,1	5,172585
2,414167	0,1	5,173086
2,415833	0,1	5,147224
2,417500	0,1	5,151233
2,419167	0,1	5,076880
2,420833	0,1	5,068913
2,422500	0,1	5,086650
2,424167	0,1	5,035931
2,425833	0,1	5,059624
2,427500	0,1	5,044184
2,429167	0,1	5,024691
2,430833	0,1	5,002905
2,432500	0,1	4,995686
2,434167	0,1	4,938951
2,435833	0,1	4,962296
2,437500	0,1	4,918832
2,439167	0,1	4,936131
2,440833	0,1	4,890202
2,442500	0,1	4,909336
2,444167	0,1	4,920205
2,445833	0,1	4,874342
2,447500	0,1	4,861851
2,449167	0,1	4,892393
2,450833	0,1	4,820463
2,452500	0,1	4,826583
2,454167	0,1	4,800719
2,455833	0,1	4,815154
2,457500	0,1	4,765570
2,459167	0,1	4,772060
2,460833	0,1	4,782466
2,462500	0,1	4,730786
2,464167	0,1	4,755397
2,465833	0,1	4,730312
2,467500	0,1	4,675629
2,469167	0,1	4,720075
2,470833	0,1	4,698780
2,472500	0,1	4,693174
2,474167	0,1	4,682188
2,475833	0,1	4,707171
2,477500	0,1	4,644239
2,479167	0,1	4,644957
2,480833	0,1	4,628353
2,482500	0,1	4,633550
2,484167	0,1	4,577652
2,485833	0,1	4,593688
2,487500	0,1	4,591175
2,489167	0,1	4,589991
2,490833	0,1	4,570906
2,492500	0,1	4,596369
2,494167	0,1	4,540646
2,495833	0,1	4,587309
2,497500	0,1	4,557659
2,499167	0,1	4,578651
2,500833	0,1	4,565492
2,502500	0,1	4,532510
2,504167	0,1	4,553783
2,505833	0,1	4,547525
2,507500	0,1	4,509640
2,509167	0,1	4,494685
2,510833	0,1	4,536663
2,512500	0,1	4,495506
2,514167	0,1	4,466493
2,515833	0,1	4,489549
2,517500	0,1	4,499311
2,519167	0,1	4,459758
2,520833	0,1	4,431891
2,522500	0,1	4,441019
2,524167	0,1	4,492592
2,525833	0,1	4,460727
2,527500	0,1	4,445977
2,529167	0,1	4,433061
2,530833	0,1	4,434193
2,532500	0,1	4,434797
2,534167	0,1	4,418562
2,535833	0,1	4,463428
2,537500	0,1	4,389208
2,539167	0,1	4,421920
2,540833	0,1	4,393745
2,542500	0,1	4,424399
2,544167	0,1	4,403616
2,545833	0,1	4,399631
2,547500	0,1	4,407390
2,549167	0,1	4,415949
2,550833	0,1	4,429394
2,552500	0,1	4,411489
2,554167	0,1	4,374254
2,555833	0,1	4,382890
2,557500	0,1	4,383056
2,559167	0,1	4,380831
2,560833	0,1	4,391173
2,562500	0,1	4,350622
2,564167	0,1	4,410784
2,565833	0,1	4,376120
2,567500	0,1	4,418011
2,569167	0,1	4,436742
2,570833	0,1	4,404105
2,572500	0,1	4,465621
2,574167	0,1	4,402201
2,575833	0,1	4,416479
2,577500	0,1	4,431955
2,579167	0,1	4,420831
2,580833	0,1	4,443322
2,582500	0,1	4,454455
2,584167	0,1	4,451577
2,585833	0,1	4,455519
2,587500	0,1	4,434974
2,589167	0,1	4,434229
2,590833	0,1	4,404307
2,592500	0,1	4,457942
2,594167	0,1	4,473834
2,595833	0,1	4,438959
2,597500	0,1	4,465262
2,599167	0,1	4,486949
2,600833	0,1	4,460049
2,602500	0,1	4,484678
2,604167	0,1	4,469904
2,605833	0,1	4,489350
2,607500	0,1	4,489234
2,609167	0,1	4,519648
2,610833	0,1	4,486690
2,612500	0,1	4,512710
2,614167	0,1	4,525218
2,615833	0,1	4,494121
2,617500	0,1	4,508245
2,619167	0,1	4,513155
2,620833	0,1	4,510684
2,622500	0,1	4,541535
2,624167	0,1	4,537951
2,625833	0,1	4,532691
2,627500	0,1	4,533790
2,629167	0,1	4,480277
2,630833	0,1	4,482049
2,632500	0,1	4,485289
2,634167	0,1	4,471891
2,635833	0,1	4,497880
2,637500	0,1	4,513080
2,639167	0,1	4,479943
2,640833	0,1	4,540310
2,642500	0,1	4,509274
2,644167	0,1	4,452157
2,645833	0,1	4,484302
2,647500	0,1	4,478224
2,649167	0,1	4,506319
2,650833	0,1	4,444606
2,652500	0,1	4,470417
2,654167	0,1	4,445330
2,655833	0,1	4,457375
2,657500	0,1	4,426402
2,659167	0,1	4,458708
2,660833	0,1	4,428149
2,662500	0,1	4,380551
2,664167	0,1	4,388171
2,665833	0,1	4,392034
2,667500	0,1	4,355333
2,669167	0,1	4,370467
2,670833	0,1	4,345983
2,672500	0,1	4,339323
2,674167	0,1	4,340380
2,675833	0,1	4,324949
2,677500	0,1	4,303956
2,679167	0,1	4,308130
2,680833	0,1	4,280002
2,682500	0,1	4,289615
2,684167	0,1	4,288927
2,685833	0,1	4,267981
2,687500	0,1	4,244514
2,689167	0,1	4,224662
2,690833	0,1	4,220518
2,692500	0,1	4,232164
2,694167	0,1	4,148237
2,695833	0,1	4,158364
2,697500	0,1	4,172164
2,699167	0,1	4,150900
2,700833	0,1	4,101308
2,702500	0,1	4,073210
2,704167	0,1	4,115818
2,705833	0,1	4,077767
2,707500	0,1	4,065543
2,709167	0,1	4,030769
2,710833	0,1	4,064114
2,712500	0,1	4,034336
2,714167	0,1	3,996076
2,715833	0,1	4,003329
2,717500	0,1	4,021142
2,719167	0,1	3,941802
2,720833	0,1	3,976704
2,722500	0,1	3,988681
2,724167	0,1	3,934327
2,725833	0,1	3,964619
2,727500	0,1	3,957613
2,729167	0,1	3,935946
2,730833	0,1	3,927674
2,732500	0,1	3,896227
2,734167	0,1	3,850991
2,735833	0,1	3,889400
2,737500	0,1	3,881383
2,739167	0,1	3,857886
2,740833	0,1	3,811209
2,742500	0,1	3,831470
2,744167	0,1	3,834608
2,745833	0,1	3,855165
2,747500	0,1	3,782598
2,749167	0,1	3,800652
2,750833	0,1	3,779043
2,752500	0,1	3,772344
2,754167	0,1	3,774668
2,755833	0,1	3,769762
2,757500	0,1	3,764605
2,759167	0,1	3,762040
2,760833	0,1	3,727216
2,762500	0,1	3,751414
2,764167	0,1	3,705776
2,765833	0,1	3,726347
2,767500	0,1	3,709124
2,769167	0,1	3,755256
2,770833	0,1	3,731943
2,772500	0,1	3,722303
2,774167	0,1	3,713996
2,775833	0,1	3,712270
2,777500	0,1	3,694456
2,779167	0,1	3,696190
2,780833	0,1	3,683788
2,782500	0,1	3,687677
2,784167	0,1	3,697693
2,785833	0,1	3,680861
2,787500	0,1	3,712386
2,789167	0,1	3,692510
2,790833	0,1	3,703246
2,792500	0,1	3,708928
2,794167	0,1	3,678682
2,795833	0,1	3,700286
2,797500	0,1	3,685008
2,799167	0,1	3,669420
2,800833	0,1	3,642953
2,802500	0,1	3,638230
2,804167	0,1	3,652044
2,805833	0,1	3,648912
2,807500	0,1	3,669429
2,809167	0,1	3,661573
2,810833	0,1	3,664244
2,812500	0,1	3,620714
2,814167	0,1	3,643795
2,815833	0,1	3,613733
2,817500	0,1	3,600943
2,819167	0,1	3,578735
2,820833	0,1	3,608765
2,822500	0,1	3,612792
2,824167	0,1	3,590380
2,825833	0,1	3,573259
2,827500	0,1	3,536760
2,829167	0,1	3,544011
2,830833	0,1	3,564164
2,832500	0,1	3,519385
2,834167	0,1	3,520280
2,835833	0,1	3,484491
2,837500	0,1	3,472477
2,839167	0,1	3,473795
2,840833	0,1	3,463423
2,842500	0,1	3,484892
2,844167	0,1	3,428498
2,845833	0,1	3,408184
2,847500	0,1	3,399675
2,849167	0,1	3,385568
2,850833	0,1	3,393316
2,852500	0,1	3,353288
2,854167	0,1	3,347239
2,855833	0,1	3,322563
2,857500	0,1	3,328544
2,859167	0,1	3,299329
2,860833	0,1	3,280354
2,862500	0,1	3,237859
2,864167	0,1	3,245864
2,865833	0,1	3,268106
2,867500	0,1	3,165004
2,869167	0,1	3,167112
2,870833	0,1	3,174810
2,872500	0,1	3,130706
2,874167	0,1	3,163044
2,875833	0,1	3,109039
2,877500	0,1	3,133678
2,879167	0,1	3,070169
2,880833	0,1	3,027847
2,882500	0,1	3,044448
2,884167	0,1	3,020641
2,885833	0,1	2,968677
2,887500	0,1	3,008091
2,889167	0,1	2,970432
2,890833	0,1	2,921337
2,892500	0,1	2,957207
2,894167	0,1	2,906623
2,895833	0,1	2,859652
2,897500	0,1	2,839735
2,899167	0,1	2,813115
2,900833	0,1	2,805479
2,902500	0,1	2,816828
2,904167	0,1	2,769592
2,905833	0,1	2,777995
2,907500	0,1	2,765027
2,909167	0,1	2,731682
2,910833	0,1	2,638139
2,912500	0,1	2,652563
2,914167	0,1	2,635095
2,915833	0,1	2,605967
2,917500	0,1	2,566133
2,919167	0,1	2,571679
2,920833	0,1	2,558583
2,922500	0,1	2,521854
2,924167	0,1	2,497773
2,925833	0,1	2,494010
2,927500	0,1	2,476045
2,929167	0,1	2,464839
2,930833	0,1	2,411229
2,932500	0,1	2,419692
2,934167	0,1	2,409986
2,935833	0,1	2,414580
2,937500	0,1	2,394684
2,939167	0,1	2,346974
2,940833	0,1	2,344376
2,942500	0,1	2,298687
2,944167	0,1	2,304419
2,945833	0,1	2,281430
2,947500	0,1	2,249602
2,949167	0,1	2,212678
2,950833	0,1	2,190193
2,952500	0,1	2,202971
2,954167	0,1	2,198738
2,955833	0,1	2,155358
2,957500	0,1	2,075783
2,959167	0,1	2,162722
2,960833	0,1	2,112981
2,962500	0,1	2,124386
2,964167	0,1	2,104858
2,965833	0,1	2,094801
2,967500	0,1	2,094725
2,969167	0,1	2,057746
2,970833	0,1	2,048047
2,972500	0,1	2,008845
2,974167	0,1	1,994050
2,975833	0,1	1,968271
2,977500	0,1	1,998634
2,979167	0,1	1,975888
2,980833	0,1	1,931732
2,982500	0,1	1,933873
2,984167	0,1	1,920457
2,985833	0,1	1,893961
2,987500	0,1	1,910177
2,989167	0,1	1,899208
2,990833	0,1	1,850972
2,992500	0,1	1,865391
2,994167	0,1	1,872783
2,995833	0,1	1,864886
2,997500	0,1	1,828998
2,999167	0,1	1,834021
3,000833	0,1	1,824042
3,002500	0,1	1,805033
3,004167	0,1	1,812833
3,005833	0,1	1,780715
3,007500	0,1	1,785566
3,009167	0,1	1,757513
3,010833	0,1	1,764264
3,012500	0,1	1,776753
3,014167	0,1	1,739725
3,015833	0,1	1,743091
3,017500	0,1	1,731618
3,019167	0,1	1,727227
3,020833	0,1	1,700684
3,022500	0,1	1,698896
3,024167	0,1	1,694936
3,025833	0,1	1,685696
3,027500	0,1	1,674779
3,029167	0,1	1,662520
3,030833	0,1	1,650111
3,032500	0,1	1,670408
3,034167	0,1	1,670133
3,035833	0,1	1,614738
3,037500	0,1	1,628053
3,039167	0,1	1,662359
3,040833	0,1	1,602165
3,042500	0,1	1,630442
3,044167	0,1	1,605683
3,045833	0,1	1,571625
3,047500	0,1	1,571834
3,049167	0,1	1,576998
3,050833	0,1	1,549305
3,052500	0,1	1,582654
3,054167	0,1	1,540340
3,055833	0,1	1,528713
3,057500	0,1	1,533297
3,059167	0,1	1,504187
3,060833	0,1	1,544987
3,062500	0,1	1,507716
3,064167	0,1	1,488416
3,065833	0,1	1,512059
3,067500	0,1	1,448822
3,069167	0,1	1,488689
3,070833	0,1	1,455983
3,072500	0,1	1,458637
3,074167	0,1	1,464321
3,075833	0,1	1,486042
3,077500	0,1	1,468762
3,079167	0,1	1,484476
3,080833	0,1	1,428907
3,082500	0,1	1,452329
3,084167	0,1	1,413482
3,085833	0,1	1,393759
3,087500	0,1	1,400549
3,089167	0,1	1,364779
3,090833	0,1	1,387956
3,092500	0,1	1,400494
3,094167	0,1	1,372589
3,095833	0,1	1,311160
3,097500	0,1	1,345485
3,099167	0,1	1,354154
3,100833	0,1	1,354664
3,102500	0,1	1,306739
3,104167	0,1	1,317936
3,105833	0,1	1,294222
3,107500	0,1	1,287493
3,109167	0,1	1,254732
3,110833	0,1	1,292984
3,112500	0,1	1,292706
3,114167	0,1	1,298762
3,115833	0,1	1,289818
3,117500	0,1	1,295604
3,119167	0,1	1,274933
3,120833	0,1	1,264063
3,122500	0,1	1,257238
3,124167	0,1	1,270222
3,125833	0,1	1,259956
3,127500	0,1	1,236379
3,129167	0,1	1,227004
3,130833	0,1	1,199455
3,132500	0,1	1,225619
3,134167	0,1	1,212252
3,135833	0,1	1,175407
3,137500	0,1	1,193400
3,139167	0,1	1,189196
3,140833	0,1	1,189095
3,142500	0,1	1,180338
3,144167	0,1	1,175669
3,145833	0,1	1,205198
3,147500	0,1	1,145452
3,149167	0,1	1,148645
3,150833	0,1	1,141330
3,152500	0,1	1,122072
3,154167	0,1	1,106592
3,155833	0,1	1,141813
3,157500	0,1	1,131724
3,159167	0,1	1,119575
3,160833	0,1	1,150573
3,162500	0,1	1,089478
3,164167	0,1	1,131989
3,165833	0,1	1,133761
3,167500	0,1	1,070200
3,169167	0,1	1,076766
3,170833	0,1	1,064894
3,172500	0,1	1,098976
3,174167	0,1	1,039314
3,175833	0,1	1,058218
3,177500	0,1	1,078074
3,179167	0,1	1,068946
3,180833	0,1	1,038818
3,182500	0,1	1,089317
3,184167	0,1	1,056497
3,185833	0,1	1,041434
3,187500	0,1	1,062307
3,189167	0,1	1,025923
3,190833	0,1	1,013644
3,192500	0,1	1,013931
3,194167	0,1	1,027999
3,195833	0,1	0,993507
3,197500	0,1	0,987784
3,199167	0,1	0,962067
3,200833	0,1	1,046662
3,202500	0,1	1,004002
3,204167	0,1	0,973429
3,205833	0,1	0,973622
3,207500	0,1	1,012786
3,209167	0,1	0,992792
3,210833	0,1	0,988629
3,212500	0,1	0,990094
3,214167	0,1	0,958067
3,215833	0,1	0,955638
3,217500	0,1	0,932301
3,219167	0,1	0,962187
3,220833	0,1	0,983732
3,222500	0,1	0,938796
3,224167	0,1	0,935586
3,225833	0,1	0,922629
3,227500	0,1	0,949449
3,229167	0,1	0,972194
3,230833	0,1	0,923437
3,232500	0,1	0,931516
3,234167	0,1	0,952941
3,235833	0,1	0,925698
3,237500	0,1	0,908756
3,239167	0,1	0,943156
3,240833	0,1	0,909006
3,242500	0,1	0,913134
3,244167	0,1	0,886708
3,245833	0,1	0,910726
3,247500	0,1	0,921821
3,249167	0,1	0,906959
3,250833	0,1	0,924644
3,252500	0,1	0,890915
3,254167	0,1	0,901038
3,255833	0,1	0,892751
3,257500	0,1	0,900503
3,259167	0,1	0,895174
3,260833	0,1	0,894083
3,262500	0,1	0,892039
3,264167	0,1	0,848642
3,265833	0,1	0,878340
3,267500	0,1	0,856327
3,269167	0,1	0,885339
3,270833	0,1	0,850217
3,272500	0,1	0,902052
3,274167	0,1	0,851774
3,275833	0,1	0,830877
3,277500	0,1	0,878491
3,279167	0,1	0,850612
3,280833	0,1	0,881629
3,282500	0,1	0,842797
3,284167	0,1	0,849738
3,285833	0,1	0,835520
3,287500	0,1	0,828008
3,289167	0,1	0,864777
3,290833	0,1	0,843612
3,292500	0,1	0,851628
3,294167	0,1	0,855606
3,295833	0,1	0,833191
3,297500	0,1	0,868626
3,299167	0,1	0,804952
3,300833	0,1	0,833602
3,302500	0,1	0,822589
3,304167	0,1	0,815654
3,305833	0,1	0,851555
3,307500	0,1	0,854612
3,309167	0,1	0,819792
3,310833	0,1	0,828649
3,312500	0,1	0,801761
3,314167	0,1	0,849710
3,315833	0,1	0,861832
3,317500	0,1	0,820950
3,319167	0,1	0,779498
3,320833	0,1	0,826640
3,322500	0,1	0,823073
3,324167	0,1	0,818274
3,325833	0,1	0,796076
3,327500	0,1	0,846619
3,329167	0,1	0,811572
3,330833	0,1	0,817337
3,332500	0,1	0,836645
3,334167	0,1	0,806233
3,335833	0,1	0,811315
3,337500	0,1	0,777653
3,339167	0,1	0,792176
3,340833	0,1	0,827486
3,342500	0,1	0,800498
3,344167	0,1	0,797046
3,345833	0,1	0,784210
3,347500	0,1	0,805642
3,349167	0,1	0,797295
3,350833	0,1	0,794848
3,352500	0,1	0,784632
3,354167	0,1	0,784446
3,355833	0,1	0,801711
3,357500	0,1	0,772563
3,359167	0,1	0,828149
3,360833	0,1	0,844579
3,362500	0,1	0,828117
3,364167	0,1	0,794724
3,365833	0,1	0,809313
3,367500	0,1	0,791513
3,369167	0,1	0,789785
3,370833	0,1	0,808823
3,372500	0,1	0,806871
3,374167	0,1	0,781809
3,375833	0,1	0,856106
3,377500	0,1	0,848656
3,379167	0,1	0,819635
3,380833	0,1	0,858868
3,382500	0,1	0,802727
3,384167	0,1	0,827984
3,385833	0,1	0,833317
3,387500	0,1	0,824116
3,389167	0,1	0,825270
3,390833	0,1	0,797854
3,392500	0,1	0,808247
3,394167	0,1	0,823557
3,395833	0,1	0,844759
3,397500	0,1	0,835478
3,399167	0,1	0,828074
3,400833	0,1	0,800564
3,402500	0,1	0,796401
3,404167	0,1	0,833666
3,405833	0,1	0,808768
3,407500	0,1	0,804698
3,409167	0,1	0,820292
3,410833	0,1	0,790673
3,412500	0,1	0,831665
3,414167	0,1	0,764458
3,415833	0,1	0,819218
3,417500	0,1	0,809963
3,419167	0,1	0,800940
3,420833	0,1	0,812156
3,422500	0,1	0,828316
3,424167	0,1	0,815722
3,425833	0,1	0,819231
3,427500	0,1	0,819850
3,429167	0,1	0,830053
3,430833	0,1	0,792411
3,432500	0,1	0,847484
3,434167	0,1	0,773284
3,435833	0,1	0,803152
3,437500	0,1	0,817245
3,439167	0,1	0,783795
3,440833	0,1	0,837529
3,442500	0,1	0,830923
3,444167	0,1	0,805677
3,445833	0,1	0,817187
3,447500	0,1	0,817404
3,449167	0,1	0,798338
3,450833	0,1	0,808735
3,452500	0,1	0,802163
3,454167	0,1	0,838376
3,455833	0,1	0,791966
3,457500	0,1	0,796780
3,459167	0,1	0,800805
3,460833	0,1	0,818821
3,462500	0,1	0,791080
3,464167	0,1	0,792758
3,465833	0,1	0,816466
3,467500	0,1	0,793498
3,469167	0,1	0,790286
3,470833	0,1	0,817001
3,472500	0,1	0,796944
3,474167	0,1	0,808643
3,475833	0,1	0,831759
3,477500	0,1	0,758752
3,479167	0,1	0,796534
3,480833	0,1	0,829774
3,482500	0,1	0,781038
3,484167	0,1	0,799447
3,485833	0,1	0,807315
3,487500	0,1	0,787515
3,489167	0,1	0,771322
3,490833	0,1	0,871479
3,492500	0,1	0,809199
3,494167	0,1	0,785360
3,495833	0,1	0,805418
3,497500	0,1	0,787382
3,499167	0,1	0,808823
3,500833	0,1	0,823293
3,502500	0,1	0,836670
3,504167	0,1	0,840119
3,505833	0,1	0,808862
3,507500	0,1	0,790158
3,509167	0,1	0,811625
3,510833	0,1	0,824318
3,512500	0,1	0,795789
3,514167	0,1	0,805579
3,515833	0,1	0,784634
3,517500	0,1	0,834595
3,519167	0,1	0,837343
3,520833	0,1	0,812386
3,522500	0,1	0,796983
3,524167	0,1	0,813996
3,525833	0,1	0,842847
3,527500	0,1	0,824547
3,529167	0,1	0,772436
3,530833	0,1	0,810712
3,532500	0,1	0,833825
3,534167	0,1	0,786928
3,535833	0,1	0,810441
3,537500	0,1	0,842846
3,539167	0,1	0,812916
3,540833	0,1	0,821533
3,542500	0,1	0,772016
3,544167	0,1	0,818394
3,545833	0,1	0,821693
3,547500	0,1	0,843205
3,549167	0,1	0,823301
3,550833	0,1	0,822940
3,552500	0,1	0,804007
3,554167	0,1	0,794652
3,555833	0,1	0,781134
3,557500	0,1	0,780802
3,559167	0,1	0,832885
3,560833	0,1	0,833252
3,562500	0,1	0,812501
3,564167	0,1	0,811894
3,565833	0,1	0,806278
3,567500	0,1	0,766082
3,569167	0,1	0,787687
3,570833	0,1	0,825889
3,572500	0,1	0,813606
3,574167	0,1	0,764349
3,575833	0,1	0,820771
3,577500	0,1	0,758486
3,579167	0,1	0,789067
3,580833	0,1	0,790429
3,582500	0,1	0,775584
3,584167	0,1	0,763498
3,585833	0,1	0,777339
3,587500	0,1	0,755636
3,589167	0,1	0,738118
3,590833	0,1	0,736444
3,592500	0,1	0,754403
3,594167	0,1	0,770092
3,595833	0,1	0,782246
3,597500	0,1	0,738018
3,599167	0,1	0,732222
3,600833	0,1	0,739939
3,602500	0,1	0,777439
3,604167	0,1	0,733902
3,605833	0,1	0,737666
3,607500	0,1	0,763870
3,609167	0,1	0,736056
3,610833	0,1	0,723165
3,612500	0,1	0,725317
3,614167	0,1	0,712684
3,615833	0,1	0,728563
3,617500	0,1	0,757242
3,619167	0,1	0,701228
3,620833	0,1	0,739841
3,622500	0,1	0,724705
3,624167	0,1	0,706756
3,625833	0,1	0,706922
3,627500	0,1	0,672175
3,629167	0,1	0,669711
3,630833	0,1	0,696502
3,632500	0,1	0,694812
3,634167	0,1	0,683374
3,635833	0,1	0,701407
3,637500	0,1	0,677316
3,639167	0,1	0,668172
3,640833	0,1	0,708358
3,642500	0,1	0,649043
3,644167	0,1	0,687518
3,645833	0,1	0,661436
3,647500	0,1	0,704426
3,649167	0,1	0,659321
3,650833	0,1	0,674834
3,652500	0,1	0,682397
3,654167	0,1	0,592687
3,655833	0,1	0,656587
3,657500	0,1	0,691701
3,659167	0,1	0,630595
3,660833	0,1	0,668664
3,662500	0,1	0,649137
3,664167	0,1	0,656431
3,665833	0,1	0,683681
3,667500	0,1	0,635224
3,669167	0,1	0,621462
3,670833	0,1	0,631018
3,672500	0,1	0,668638
3,674167	0,1	0,637796
3,675833	0,1	0,626066
3,677500	0,1	0,628153
3,679167	0,1	0,605520
3,680833	0,1	0,649701
3,682500	0,1	0,644681
3,684167	0,1	0,600023
3,685833	0,1	0,614725
3,687500	0,1	0,634664
3,689167	0,1	0,622554
3,690833	0,1	0,599178
3,692500	0,1	0,592082
3,694167	0,1	0,635846
3,695833	0,1	0,648738
3,697500	0,1	0,653632
3,699167	0,1	0,609390
3,700833	0,1	0,631342
3,702500	0,1	0,609319
3,704167	0,1	0,618974
3,705833	0,1	0,612572
3,707500	0,1	0,619003
3,709167	0,1	0,602811
3,710833	0,1	0,607155
3,712500	0,1	0,595434
3,714167	0,1	0,600874
3,715833	0,1	0,626793
3,717500	0,1	0,577314
3,719167	0,1	0,588568
3,720833	0,1	0,592339
3,722500	0,1	0,582073
3,724167	0,1	0,595335
3,725833	0,1	0,569353
3,727500	0,1	0,594239
3,729167	0,1	0,598044
3,730833	0,1	0,590896
3,732500	0,1	0,621443
3,734167	0,1	0,599880
3,735833	0,1	0,592537
3,737500	0,1	0,612530
3,739167	0,1	0,599655
3,740833	0,1	0,616649
3,742500	0,1	0,620395
3,744167	0,1	0,599403
3,745833	0,1	0,599977
3,747500	0,1	0,643995
3,749167	0,1	0,645294
3,750833	0,1	0,595799
3,752500	0,1	0,668433
3,754167	0,1	0,620211
3,755833	0,1	0,643647
3,757500	0,1	0,607295
3,759167	0,1	0,622129
3,760833	0,1	0,645933
3,762500	0,1	0,653994
3,764167	0,1	0,607009
3,765833	0,1	0,634749
3,767500	0,1	0,657137
3,769167	0,1	0,631932
3,770833	0,1	0,640595
3,772500	0,1	0,683612
3,774167	0,1	0,599418
3,775833	0,1	0,633785
3,777500	0,1	0,632953
3,779167	0,1	0,656205
3,780833	0,1	0,666450
3,782500	0,1	0,680568
3,784167	0,1	0,673355
3,785833	0,1	0,647494
3,787500	0,1	0,642718
3,789167	0,1	0,667258
3,790833	0,1	0,660048
3,792500	0,1	0,675123
3,794167	0,1	0,662375
3,795833	0,1	0,663016
3,797500	0,1	0,661943
3,799167	0,1	0,692543
3,800833	0,1	0,676419
3,802500	0,1	0,673380
3,804167	0,1	0,667527
3,805833	0,1	0,664279
3,807500	0,1	0,676310
3,809167	0,1	0,692649
3,810833	0,1	0,663696
3,812500	0,1	0,671353
3,814167	0,1	0,667461
3,815833	0,1	0,669841
3,817500	0,1	0,694056
3,819167	0,1	0,662892
3,820833	0,1	0,694884
3,822500	0,1	0,686649
3,824167	0,1	0,676708
3,825833	0,1	0,695597
3,827500	0,1	0,679221
3,829167	0,1	0,635063
3,830833	0,1	0,670440
3,832500	0,1	0,674379
3,834167	0,1	0,665111
3,835833	0,1	0,658602
3,837500	0,1	0,695276
3,839167	0,1	0,670455
3,840833	0,1	0,708769
3,842500	0,1	0,671364
3,844167	0,1	0,692703
3,845833	0,1	0,633098
3,847500	0,1	0,655253
3,849167	0,1	0,638633
3,850833	0,1	0,680168
3,852500	0,1	0,665560
3,854167	0,1	0,664203
3,855833	0,1	0,670971
3,857500	0,1	0,642267
3,859167	0,1	0,650446
3,860833	0,1	0,644494
3,862500	0,1	0,635633
3,864167	0,1	0,637441
3,865833	0,1	0,666390
3,867500	0,1	0,660917
3,869167	0,1	0,622019
3,870833	0,1	0,668224
3,872500	0,1	0,625502
3,874167	0,1	0,615244
3,875833	0,1	0,614112
3,877500	0,1	0,633628
3,879167	0,1	0,629769
3,880833	0,1	0,615411
3,882500	0,1	0,592318
3,884167	0,1	0,643797
3,885833	0,1	0,619113
3,887500	0,1	0,630727
3,889167	0,1	0,632635
3,890833	0,1	0,597248
3,892500	0,1	0,602906
3,894167	0,1	0,587033
3,895833	0,1	0,579524
3,897500	0,1	0,604929
3,899167	0,1	0,602554
3,900833	0,1	0,596272
3,902500	0,1	0,580845
3,904167	0,1	0,556151
3,905833	0,1	0,553406
3,907500	0,1	0,573432
3,909167	0,1	0,533387
3,910833	0,1	0,552112
3,912500	0,1	0,581869
3,914167	0,1	0,555826
3,915833	0,1	0,540167
3,917500	0,1	0,533764
3,919167	0,1	0,524679
3,920833	0,1	0,503174
3,922500	0,1	0,520906
3,924167	0,1	0,490713
3,925833	0,1	0,540896
3,927500	0,1	0,525164
3,929167	0,1	0,514282
3,930833	0,1	0,514470
3,932500	0,1	0,464573
3,934167	0,1	0,542821
3,935833	0,1	0,488434
3,937500	0,1	0,467562
3,939167	0,1	0,484454
3,940833	0,1	0,466882
3,942500	0,1	0,475828
3,944167	0,1	0,495722
3,945833	0,1	0,486298
3,947500	0,1	0,452269
3,949167	0,1	0,458732
3,950833	0,1	0,493567
3,952500	0,1	0,453044
3,954167	0,1	0,432497
3,955833	0,1	0,438157
3,957500	0,1	0,441926
3,959167	0,1	0,467679
3,960833	0,1	0,423392
3,962500	0,1	0,455280
3,964167	0,1	0,448175
3,965833	0,1	0,434396
3,967500	0,1	0,419330
3,969167	0,1	0,443626
3,970833	0,1	0,407904
3,972500	0,1	0,470918
3,974167	0,1	0,437428
3,975833	0,1	0,430691
3,977500	0,1	0,403202
3,979167	0,1	0,402134
3,980833	0,1	0,424472
3,982500	0,1	0,384789
3,984167	0,1	0,405380
3,985833	0,1	0,411500
3,987500	0,1	0,440341
3,989167	0,1	0,420842
3,990833	0,1	0,405551
3,992500	0,1	0,358749
3,994167	0,1	0,400193
3,995833	0,1	0,361902
3,997500	0,1	0,373188
3,999167	0,1	0,391473
4,000833	0,1	0,354916
4,002500	0,1	0,368264
4,004167	0,1	0,403800
4,005833	0,1	0,379090
4,007500	0,1	0,372228
4,009167	0,1	0,355526
4,010833	0,1	0,359285
4,012500	0,1	0,351302
4,014167	0,1	0,420339
4,015833	0,1	0,355214
4,017500	0,1	0,360120
4,019167	0,1	0,303264
4,020833	0,1	0,370471
4,022500	0,1	0,395912
4,024167	0,1	0,344846
4,025833	0,1	0,387187
4,027500	0,1	0,383495
4,029167	0,1	0,386905
4,030833	0,1	0,375031
4,032500	0,1	0,371746
4,034167	0,1	0,358741
4,035833	0,1	0,388798
4,037500	0,1	0,380955
4,039167	0,1	0,384458
4,040833	0,1	0,334933
4,042500	0,1	0,380518
4,044167	0,1	0,429068
4,045833	0,1	0,416720
4,047500	0,1	0,411150
4,049167	0,1	0,408347
4,050833	0,1	0,385237
4,052500	0,1	0,382590
4,054167	0,1	0,425690
4,055833	0,1	0,417138
4,057500	0,1	0,429721
4,059167	0,1	0,429435
4,060833	0,1	0,434809
4,062500	0,1	0,450325
4,064167	0,1	0,420137
4,065833	0,1	0,437737
4,067500	0,1	0,403268
4,069167	0,1	0,459880
4,070833	0,1	0,464465
4,072500	0,1	0,423745
4,074167	0,1	0,507751
4,075833	0,1	0,471010
4,077500	0,1	0,522542
4,079167	0,1	0,513314
4,080833	0,1	0,512253
4,082500	0,1	0,491741
4,084167	0,1	0,525990
4,085833	0,1	0,527966
4,087500	0,1	0,562609
4,089167	0,1	0,545649
4,090833	0,1	0,565898
4,092500	0,1	0,542494
4,094167	0,1	0,603797
4,095833	0,1	0,581367
4,097500	0,1	0,607671
4,099167	0,1	0,615819
4,100833	0,1	0,638232
4,102500	0,1	0,634887
4,104167	0,1	0,662496
4,105833	0,1	0,689967
4,107500	0,1	0,659383
4,109167	0,1	0,663884
4,110833	0,1	0,683628
4,112500	0,1	0,722956
4,114167	0,1	0,732115
4,115833	0,1	0,751666
4,117500	0,1	0,737460
4,119167	0,1	0,776281
4,120833	0,1	0,783626
4,122500	0,1	0,789139
4,124167	0,1	0,796806
4,125833	0,1	0,796385
4,127500	0,1	0,812849
4,129167	0,1	0,866846
4,130833	0,1	0,904456
4,132500	0,1	0,861555
4,134167	0,1	0,865164
4,135833	0,1	0,892123
4,137500	0,1	0,893148
4,139167	0,1	0,906150
4,140833	0,1	0,918465
4,142500	0,1	0,896376
4,144167	0,1	0,914395
4,145833	0,1	0,965806
4,147500	0,1	0,952971
4,149167	0,1	0,973771
4,150833	0,1	1,011586
4,152500	0,1	1,005771
4,154167	0,1	1,009283
4,155833	0,1	1,014527
4,157500	0,1	1,022889
4,159167	0,1	1,058434
4,160833	0,1	1,073427
4,162500	0,1	1,024145
4,164167	0,1	1,106944
4,165833	0,1	1,072794
4,167500	0,1	1,107715
4,169167	0,1	1,081780
4,170833	0,1	1,094485
4,172500	0,1	1,076127
4,174167	0,1	1,117897
4,175833	0,1	1,119959
4,177500	0,1	1,131584
4,179167	0,1	1,163847
4,180833	0,1	1,117649
4,182500	0,1	1,118620
4,184167	0,1	1,159773
4,185833	0,1	1,179976
4,187500	0,1	1,114833
4,189167	0,1	1,156595
4,190833	0,1	1,190225
4,192500	0,1	1,197614
4,194167	0,1	1,168377
4,195833	0,1	1,178330
4,197500	0,1	1,172684
4,199167	0,1	1,206012
4,200833	0,1	1,166954
4,202500	0,1	1,162105
4,204167	0,1	1,233349
4,205833	0,1	1,177685
4,207500	0,1	1,185581
4,209167	0,1	1,169748
4,210833	0,1	1,220113
4,212500	0,1	1,181125
4,214167	0,1	1,178862
4,215833	0,1	1,231165
4,217500	0,1	1,208316
4,219167	0,1	1,146996
4,220833	0,1	1,176594
4,222500	0,1	1,218776
4,224167	0,1	1,186929
4,225833	0,1	1,226653
4,227500	0,1	1,171099
4,229167	0,1	1,197813
4,230833	0,1	1,190745
4,232500	0,1	1,223870
4,234167	0,1	1,187746
4,235833	0,1	1,201551
4,237500	0,1	1,130334
4,239167	0,1	1,198551
4,240833	0,1	1,184328
4,242500	0,1	1,142716
4,244167	0,1	1,191376
4,245833	0,1	1,152917
4,247500	0,1	1,188087
4,249167	0,1	1,165641
4,250833	0,1	1,116090
4,252500	0,1	1,135047
4,254167	0,1	1,104949
4,255833	0,1	1,140442
4,257500	0,1	1,134833
4,259167	0,1	1,127891
4,260833	0,1	1,126274
4,262500	0,1	1,153326
4,264167	0,1	1,132227
4,265833	0,1	1,111041
4,267500	0,1	1,106830
4,269167	0,1	1,068394
4,270833	0,1	1,048312
4,272500	0,1	1,099260
4,274167	0,1	1,094288
4,275833	0,1	1,081172
4,277500	0,1	1,066628
4,279167	0,1	1,083790
4,280833	0,1	1,037711
4,282500	0,1	1,033075
4,284167	0,1	1,034073
4,285833	0,1	1,003265
4,287500	0,1	1,016284
4,289167	0,1	1,018176
4,290833	0,1	1,005351
4,292500	0,1	0,976275
4,294167	0,1	1,019986
4,295833	0,1	0,973523
4,297500	0,1	1,010183
4,299167	0,1	0,972519
4,300833	0,1	0,972466
4,302500	0,1	0,938905
4,304167	0,1	0,982725
4,305833	0,1	0,926283
4,307500	0,1	0,927958
4,309167	0,1	0,932739
4,310833	0,1	0,919581
4,312500	0,1	0,899533
4,314167	0,1	0,940866
4,315833	0,1	0,917607
4,317500	0,1	0,925203
4,319167	0,1	0,930893
4,320833	0,1	0,899781
4,322500	0,1	0,886193
4,324167	0,1	0,870863
4,325833	0,1	0,860500
4,327500	0,1	0,893610
4,329167	0,1	0,863950
4,330833	0,1	0,866612
4,332500	0,1	0,887214
4,334167	0,1	0,875614
4,335833	0,1	0,846126
4,337500	0,1	0,846053
4,339167	0,1	0,856452
4,340833	0,1	0,843412
4,342500	0,1	0,814859
4,344167	0,1	0,844533
4,345833	0,1	0,814899
4,347500	0,1	0,765309
4,349167	0,1	0,834700
4,350833	0,1	0,816922
4,352500	0,1	0,779300
4,354167	0,1	0,793819
4,355833	0,1	0,817689
4,357500	0,1	0,794407
4,359167	0,1	0,761477
4,360833	0,1	0,765808
4,362500	0,1	0,781889
4,364167	0,1	0,770282
4,365833	0,1	0,752742
4,367500	0,1	0,728639
4,369167	0,1	0,717366
4,370833	0,1	0,692044
4,372500	0,1	0,715872
4,374167	0,1	0,742117
4,375833	0,1	0,722904
4,377500	0,1	0,757199
4,379167	0,1	0,676921
4,380833	0,1	0,738481
4,382500	0,1	0,692824
4,384167	0,1	0,733356
4,385833	0,1	0,720482
4,387500	0,1	0,699960
4,389167	0,1	0,682126
4,390833	0,1	0,698477
4,392500	0,1	0,670269
4,394167	0,1	0,658538
4,395833	0,1	0,670025
4,397500	0,1	0,643920
4,399167	0,1	0,656243
4,400833	0,1	0,628747
4,402500	0,1	0,659068
4,404167	0,1	0,641694
4,405833	0,1	0,658296
4,407500	0,1	0,640183
4,409167	0,1	0,604913
4,410833	0,1	0,623098
4,412500	0,1	0,630318
4,414167	0,1	0,608422
4,415833	0,1	0,613822
4,417500	0,1	0,568106
4,419167	0,1	0,606112
4,420833	0,1	0,604384
4,422500	0,1	0,590158
4,424167	0,1	0,560401
4,425833	0,1	0,565257
4,427500	0,1	0,584736
4,429167	0,1	0,527465
4,430833	0,1	0,597021
4,432500	0,1	0,534936
4,434167	0,1	0,536048
4,435833	0,1	0,517601
4,437500	0,1	0,525064
4,439167	0,1	0,507231
4,440833	0,1	0,547214
4,442500	0,1	0,547062
4,444167	0,1	0,511355
4,445833	0,1	0,537422
4,447500	0,1	0,477649
4,449167	0,1	0,504483
4,450833	0,1	0,461836
4,452500	0,1	0,518001
4,454167	0,1	0,507841
4,455833	0,1	0,524188
4,457500	0,1	0,505170
4,459167	0,1	0,438723
4,460833	0,1	0,486574
4,462500	0,1	0,504867
4,464167	0,1	0,498627
4,465833	0,1	0,455460
4,467500	0,1	0,437841
4,469167	0,1	0,428953
4,470833	0,1	0,446525
4,472500	0,1	0,477916
4,474167	0,1	0,409877
4,475833	0,1	0,425954
4,477500	0,1	0,405711
4,479167	0,1	0,414751
4,480833	0,1	0,426566
4,482500	0,1	0,412664
4,484167	0,1	0,397404
4,485833	0,1	0,421059
4,487500	0,1	0,394767
4,489167	0,1	0,392314
4,490833	0,1	0,388323
4,492500	0,1	0,378282
4,494167	0,1	0,416613
4,495833	0,1	0,331527
4,497500	0,1	0,401152
4,499167	0,1	0,350576
4,500833	0,1	0,324048
4,502500	0,1	0,379845
4,504167	0,1	0,388771
4,505833	0,1	0,332483
4,507500	0,1	0,331246
4,509167	0,1	0,328676
4,510833	0,1	0,370028
4,512500	0,1	0,359707
4,514167	0,1	0,332573
4,515833	0,1	0,324008
4,517500	0,1	0,314931
4,519167	0,1	0,318083
4,520833	0,1	0,280144
4,522500	0,1	0,327765
4,524167	0,1	0,315739
4,525833	0,1	0,340546
4,527500	0,1	0,289129
4,529167	0,1	0,303566
4,530833	0,1	0,289190
4,532500	0,1	0,256933
4,534167	0,1	0,276141
4,535833	0,1	0,280040
4,537500	0,1	0,285869
4,539167	0,1	0,292370
4,540833	0,1	0,304216
4,542500	0,1	0,262256
4,544167	0,1	0,284867
4,545833	0,1	0,267236
4,547500	0,1	0,244094
4,549167	0,1	0,302465
4,550833	0,1	0,287642
4,552500	0,1	0,233677
4,554167	0,1	0,212455
4,555833	0,1	0,214101
4,557500	0,1	0,258789
4,559167	0,1	0,255066
4,560833	0,1	0,270128
4,562500	0,1	0,239917
4,564167	0,1	0,212403
4,565833	0,1	0,238905
4,567500	0,1	0,230673
4,569167	0,1	0,248336
4,570833	0,1	0,217353
4,572500	0,1	0,211529
4,574167	0,1	0,208916
4,575833	0,1	0,202709
4,577500	0,1	0,214226
4,579167	0,1	0,214897
4,580833	0,1	0,239260
4,582500	0,1	0,185759
4,584167	0,1	0,178807
4,585833	0,1	0,200227
4,587500	0,1	0,182090
4,589167	0,1	0,203609
4,590833	0,1	0,184882
4,592500	0,1	0,172526
4,594167	0,1	0,201297
4,595833	0,1	0,177551
4,597500	0,1	0,194699
4,599167	0,1	0,170346
4,600833	0,1	0,154067
4,602500	0,1	0,208940
4,604167	0,1	0,229353
4,605833	0,1	0,141530
4,607500	0,1	0,171039
4,609167	0,1	0,140644
4,610833	0,1	0,196321
4,612500	0,1	0,230925
4,614167	0,1	0,137355
4,615833	0,1	0,183780
4,617500	0,1	0,175289
4,619167	0,1	0,172398
4,620833	0,1	0,161144
4,622500	0,1	0,152702
4,624167	0,1	0,159020
4,625833	0,1	0,132632
4,627500	0,1	0,130696
4,629167	0,1	0,181647
4,630833	0,1	0,164363
4,632500	0,1	0,139849
4,634167	0,1	0,151170
4,635833	0,1	0,145660
4,637500	0,1	0,192308
4,639167	0,1	0,116166
4,640833	0,1	0,150672
4,642500	0,1	0,137146
4,644167	0,1	0,136172
4,645833	0,1	0,129699
4,647500	0,1	0,125208
4,649167	0,1	0,115835
4,650833	0,1	0,085207
4,652500	0,1	0,199535
4,654167	0,1	0,123672
4,655833	0,1	0,192429
4,657500	0,1	0,139299
4,659167	0,1	0,142088
4,660833	0,1	0,122107
4,662500	0,1	0,154572
4,664167	0,1	0,130903
4,665833	0,1	0,094357
4,667500	0,1	0,104311
4,669167	0,1	0,152019
4,670833	0,1	0,097616
4,672500	0,1	0,081695
4,674167	0,1	0,125789
4,675833	0,1	0,155442
4,677500	0,1	0,108703
4,679167	0,1	0,135104
4,680833	0,1	0,153932
4,682500	0,1	0,125011
4,684167	0,1	0,114297
4,685833	0,1	0,094024
4,687500	0,1	0,153279
4,689167	0,1	0,138016
4,690833	0,1	0,132286
4,692500	0,1	0,095566
4,694167	0,1	0,098585
4,695833	0,1	0,099407
4,697500	0,1	0,095596
4,699167	0,1	0,090740
4,700833	0,1	0,096174
4,702500	0,1	0,058265
4,704167	0,1	0,084917
4,705833	0,1	0,090220
4,707500	0,1	0,081796
4,709167	0,1	0,080420
4,710833	0,1	0,094571
4,712500	0,1	0,112397
4,714167	0,1	0,073392
4,715833	0,1	0,074048
4,717500	0,1	0,082740
4,719167	0,1	0,069259
4,720833	0,1	0,085625
4,722500	0,1	0,050465
4,724167	0,1	0,080249
4,725833	0,1	0,092023
4,727500	0,1	0,077457
4,729167	0,1	0,100485
4,730833	0,1	0,069740
4,732500	0,1	0,070417
4,734167	0,1	0,086975
4,735833	0,1	0,088165
4,737500	0,1	0,079285
4,739167	0,1	0,073949
4,740833	0,1	0,141340
4,742500	0,1	0,061288
4,744167	0,1	0,097202
4,745833	0,1	0,064139
4,747500	0,1	0,061950
4,749167	0,1	0,057965
4,750833	0,1	0,088990
4,752500	0,1	0,084532
4,754167	0,1	0,099680
4,755833	0,1	0,063245
4,757500	0,1	0,073716
4,759167	0,1	0,080066
4,760833	0,1	0,103954
4,762500	0,1	0,099762
4,764167	0,1	0,106508
4,765833	0,1	0,082506
4,767500	0,1	0,065588
4,769167	0,1	0,077680
4,770833	0,1	0,079258
4,772500	0,1	0,059155
4,774167	0,1	0,067967
4,775833	0,1	0,033897
4,777500	0,1	0,072941
4,779167	0,1	0,048845
4,780833	0,1	0,085394
4,782500	0,1	0,044300
4,784167	0,1	0,086514
4,785833	0,1	0,102583
4,787500	0,1	0,047662
4,789167	0,1	0,085620
4,790833	0,1	0,066191
4,792500	0,1	0,093698
4,794167	0,1	0,091586
4,795833	0,1	0,051791
4,797500	0,1	0,058050
4,799167	0,1	0,100723
4,800833	0,1	0,074017
4,802500	0,1	0,073531
4,804167	0,1	0,080935
4,805833	0,1	0,031537
4,807500	0,1	0,097878
4,809167	0,1	0,069137
4,810833	0,1	0,094342
4,812500	0,1	0,061810
4,814167	0,1	0,057714
4,815833	0,1	0,069934
4,817500	0,1	0,067035
4,819167	0,1	0,058258
4,820833	0,1	0,076658
4,822500	0,1	0,089841
4,824167	0,1	0,046144
4,825833	0,1	0,013502
4,827500	0,1	0,098351
4,829167	0,1	0,050673
4,830833	0,1	0,076490
4,832500	0,1	0,041246
4,834167	0,1	0,031096
4,835833	0,1	0,053785
4,837500	0,1	0,095891
4,839167	0,1	0,063558
4,840833	0,1	0,057966
4,842500	0,1	0,052881
4,844167	0,1	0,060623
4,845833	0,1	0,079686
4,847500	0,1	0,067492
4,849167	0,1	0,055912
4,850833	0,1	0,077803
4,852500	0,1	0,045105
4,854167	0,1	0,022986
4,855833	0,1	0,051273
4,857500	0,1	0,082013
4,859167	0,1	0,065274
4,860833	0,1	0,041949
4,862500	0,1	0,110102
4,864167	0,1	0,062934
4,865833	0,1	0,027385
4,867500	0,1	0,060884
4,869167	0,1	0,093279
4,870833	0,1	0,068970
4,872500	0,1	0,061183
4,874167	0,1	0,089357
4,875833	0,1	0,100880
4,877500	0,1	0,072251
4,879167	0,1	0,082905
4,880833	0,1	0,059674
4,882500	0,1	0,046137
4,884167	0,1	0,064080
4,885833	0,1	0,055998
4,887500	0,1	0,084047
4,889167	0,1	0,053305
4,890833	0,1	0,062051
4,892500	0,1	0,037094
4,894167	0,1	0,055637
4,895833	0,1	0,045705
4,897500	0,1	0,040950
4,899167	0,1	0,039930
4,900833	0,1	0,044352
4,902500	0,1	0,046384
4,904167	0,1	0,075635
4,905833	0,1	0,080835
4,907500	0,1	0,047703
4,909167	0,1	0,037359
4,910833	0,1	0,095784
4,912500	0,1	0,084345
4,914167	0,1	0,080069
4,915833	0,1	0,036227
4,917500	0,1	0,047292
4,919167	0,1	0,068874
4,920833	0,1	0,028050
4,922500	0,1	0,054719
4,924167	0,1	0,040889
4,925833	0,1	0,029410
4,927500	0,1	0,029265
4,929167	0,1	0,046546
4,930833	0,1	0,057193
4,932500	0,1	0,069331
4,934167	0,1	0,042200
4,935833	0,1	0,072503
4,937500	0,1	0,072448
4,939167	0,1	0,029936
4,940833	0,1	0,055284
4,942500	0,1	0,047280
4,944167	0,1	0,040471
4,945833	0,1	0,041175
4,947500	0,1	0,063498
4,949167	0,1	0,002365
4,950833	0,1	0,029738
4,952500	0,1	0,044617
4,954167	0,1	0,047836
4,955833	0,1	0,046864
4,957500	0,1	0,044166
4,959167	0,1	0,021985
4,960833	0,1	0,041170
4,962500	0,1	0,018232
4,964167	0,1	-0,007003
4,965833	0,1	0,019775
4,967500	0,1	0,053870
4,969167	0,1	0,031179
4,970833	0,1	0,012335
4,972500	0,1	0,074529
4,974167	0,1	0,053381
4,975833	0,1	0,064499
4,977500	0,1	0,044938
4,979167	0,1	0,045782
4,980833	0,1	0,019020
4,982500	0,1	0,034675
4,984167	0,1	0,063685
4,985833	0,1	0,018711
4,987500	0,1	0,031772
4,989167	0,1	0,022813
4,990833	0,1	0,025633
4,992500	0,1	0,035344
4,994167	0,1	0,001049
4,995833	0,1	0,019322
4,997500	0,1	-0,003496
4,999167	0,1	0,049525
5,000833	0,1	0,045390
5,002500	0,1	0,023003
5,004167	0,1	0,034989
5,005833	0,1	0,049450
5,007500	0,1	0,046676
5,009167	0,1	0,075658
5,010833	0,1	0,039875
5,012500	0,1	0,014162
5,014167	0,1	0,034448
5,015833	0,1	0,003001
5,017500	0,1	0,058243
5,019167	0,1	0,006761
5,020833	0,1	0,014342
5,022500	0,1	0,029654
5,024167	0,1	-0,003100
5,025833	0,1	0,020521
5,027500	0,1	-0,000884
5,029167	0,1	0,028945
5,030833	0,1	0,023351
5,032500	0,1	0,036999
5,034167	0,1	0,016383
5,035833	0,1	-0,007874
5,037500	0,1	-0,018585
5,039167	0,1	-0,002862
5,040833	0,1	0,010025
5,042500	0,1	0,010445
5,044167	0,1	0,025294
5,045833	0,1	-0,022600
5,047500	0,1	0,008734
5,049167	0,1	0,002227
5,050833	0,1	0,040915
5,052500	0,1	0,031961
5,054167	0,1	0,019659
5,055833	0,1	0,032787
5,057500	0,1	-0,018471
5,059167	0,1	0,002822
5,060833	0,1	0,007722
5,062500	0,1	-0,004142
5,064167	0,1	0,017430
5,065833	0,1	0,007457
5,067500	0,1	-0,002793
5,069167	0,1	0,011642
5,070833	0,1	-0,037188
5,072500	0,1	-0,020584
5,074167	0,1	-0,000933
5,075833	0,1	-0,019683
5,077500	0,1	0,020558
5,079167	0,1	0,004698
5,080833	0,1	0,009652
5,082500	0,1	-0,005490
5,084167	0,1	0,000396
5,085833	0,1	-0,002818
5,087500	0,1	-0,038041
5,089167	0,1	0,036528
5,090833	0,1	0,028203
5,092500	0,1	0,007046
5,094167	0,1	0,016021
5,095833	0,1	0,015505
5,097500	0,1	-0,011837
5,099167	0,1	0,001641
5,100833	0,1	0,016624
5,102500	0,1	-0,023662
5,104167	0,1	0,032509
5,105833	0,1	0,018061
5,107500	0,1	-0,010612
5,109167	0,1	0,007117
5,110833	0,1	-0,019970
5,112500	0,1	-0,010580
5,114167	0,1	-0,002715
5,115833	0,1	0,012139
5,117500	0,1	0,009466
5,119167	0,1	-0,004827
5,120833	0,1	-0,000286
5,122500	0,1	-0,013853
5,124167	0,1	-0,014791
5,125833	0,1	-0,003278
5,127500	0,1	-0,026052
5,129167	0,1	-0,016473
5,130833	0,1	-0,034622
5,132500	0,1	-0,064643
5,134167	0,1	0,014759
5,135833	0,1	0,002580
5,137500	0,1	0,023345
5,139167	0,1	0,006982
5,140833	0,1	-0,012565
5,142500	0,1	-0,007425
5,144167	0,1	0,020645
5,145833	0,1	0,014905
5,147500	0,1	-0,059922
5,149167	0,1	-0,001523
5,150833	0,1	-0,002090
5,152500	0,1	0,000358
5,154167	0,1	-0,022980
5,155833	0,1	-0,027113
5,157500	0,1	0,024478
5,159167	0,1	-0,005112
5,160833	0,1	-0,035200
5,162500	0,1	-0,028694
5,164167	0,1	-0,009670
5,165833	0,1	-0,028875
5,167500	0,1	-0,023112
5,169167	0,1	0,014728
5,170833	0,1	0,015898
5,172500	0,1	-0,032852
5,174167	0,1	-0,042549
5,175833	0,1	-0,015274
5,177500	0,1	-0,010847
5,179167	0,1	0,003053
5,180833	0,1	-0,014370
5,182500	0,1	0,007986
5,184167	0,1	-0,022109
5,185833	0,1	-0,017115
5,187500	0,1	-0,025950
5,189167	0,1	-0,012346
5,190833	0,1	-0,040202
5,192500	0,1	-0,017556
5,194167	0,1	-0,054432
5,195833	0,1	-0,009468
5,197500	0,1	-0,018835
5,199167	0,1	-0,000706
5,200833	0,1	-0,025720
5,202500	0,1	-0,029273
5,204167	0,1	-0,004836
5,205833	0,1	0,020955
5,207500	0,1	-0,012647
5,209167	0,1	-0,010184
5,210833	0,1	-0,027527
5,212500	0,1	-0,047962
5,214167	0,1	-0,031870
5,215833	0,1	-0,026059
5,217500	0,1	-0,019771
5,219167	0,1	0,001577
5,220833	0,1	-0,016073
5,222500	0,1	-0,037525
5,224167	0,1	-0,058751
5,225833	0,1	-0,035482
5,227500	0,1	-0,032408
5,229167	0,1	0,039457
5,230833	0,1	0,005968
5,232500	0,1	-0,037356
5,234167	0,1	-0,036120
5,235833	0,1	-0,022762
5,237500	0,1	-0,032839
5,239167	0,1	-0,070864
5,240833	0,1	-0,006671
5,242500	0,1	-0,038084
5,244167	0,1	-0,078747
5,245833	0,1	-0,050339
5,247500	0,1	0,000802
5,249167	0,1	-0,029329
5,250833	0,1	-0,038172
5,252500	0,1	-0,063895
5,254167	0,1	-0,013930
5,255833	0,1	-0,039933
5,257500	0,1	-0,044627
5,259167	0,1	-0,039855
5,260833	0,1	-0,022120
5,262500	0,1	-0,008051
5,264167	0,1	-0,019727
5,265833	0,1	-0,039042
5,267500	0,1	-0,038049
5,269167	0,1	-0,034089
5,270833	0,1	-0,050640
5,272500	0,1	-0,016355
5,274167	0,1	-0,042899
5,275833	0,1	-0,080596
5,277500	0,1	-0,035093
5,279167	0,1	-0,025210
5,280833	0,1	-0,055368
5,282500	0,1	-0,055727
5,284167	0,1	-0,057367
5,285833	0,1	-0,056413
5,287500	0,1	-0,011999
5,289167	0,1	-0,017218
5,290833	0,1	-0,037942
5,292500	0,1	-0,041162
5,294167	0,1	-0,054437
5,295833	0,1	-0,042577
5,297500	0,1	-0,063648
5,299167	0,1	-0,017644
5,300833	0,1	-0,026594
5,302500	0,1	-0,045723
5,304167	0,1	-0,055560
5,305833	0,1	-0,028387
5,307500	0,1	-0,054206
5,309167	0,1	-0,010548
5,310833	0,1	-0,025141
5,312500	0,1	-0,023111
5,314167	0,1	-0,062730
5,315833	0,1	-0,060003
5,317500	0,1	-0,042743
5,319167	0,1	-0,015149
5,320833	0,1	-0,065819
5,322500	0,1	-0,048429
5,324167	0,1	-0,049711
5,325833	0,1	-0,066967
5,327500	0,1	-0,071267
5,329167	0,1	-0,079813
5,330833	0,1	-0,031629
5,332500	0,1	-0,094115
5,334167	0,1	-0,047150
5,335833	0,1	-0,044544
5,337500	0,1	-0,058047
5,339167	0,1	-0,029966
5,340833	0,1	-0,039169
5,342500	0,1	-0,076694
5,344167	0,1	-0,084086
5,345833	0,1	-0,064385
5,347500	0,1	-0,042849
5,349167	0,1	-0,049979
5,350833	0,1	-0,027369
5,352500	0,1	-0,059102
5,354167	0,1	-0,061806
5,355833	0,1	-0,066641
5,357500	0,1	-0,081036
5,359167	0,1	-0,042623
5,360833	0,1	-0,038631
5,362500	0,1	-0,026040
5,364167	0,1	-0,082893
5,365833	0,1	-0,024765
5,367500	0,1	-0,052815
5,369167	0,1	-0,064253
5,370833	0,1	-0,056021
5,372500	0,1	-0,047160
5,374167	0,1	-0,087647
5,375833	0,1	-0,065566
5,377500	0,1	-0,084021
5,379167	0,1	-0,039989
5,380833	0,1	-0,031310
5,382500	0,1	-0,038919
5,384167	0,1	-0,070493
5,385833	0,1	-0,021068
5,387500	0,1	-0,009150
5,389167	0,1	-0,058558
5,390833	0,1	-0,068982
5,392500	0,1	-0,074172
5,394167	0,1	-0,081765
5,395833	0,1	-0,041795
5,397500	0,1	-0,036973
5,399167	0,1	-0,049646
5,400833	0,1	-0,073273
5,402500	0,1	-0,070334
5,404167	0,1	-0,082656
5,405833	0,1	-0,042499
5,407500	0,1	-0,072380
5,409167	0,1	-0,053388
5,410833	0,1	-0,085056
5,412500	0,1	-0,073906
5,414167	0,1	-0,073363
5,415833	0,1	-0,055918
5,417500	0,1	-0,038033
5,419167	0,1	-0,090550
5,420833	0,1	-0,071211
5,422500	0,1	-0,048492
5,424167	0,1	-0,122453
5,425833	0,1	-0,056261
5,427500	0,1	-0,049899
5,429167	0,1	-0,109261
5,430833	0,1	-0,057504
5,432500	0,1	-0,108514
5,434167	0,1	-0,058768
5,435833	0,1	-0,044402
5,437500	0,1	-0,049337
5,439167	0,1	-0,067778
5,440833	0,1	-0,051458
5,442500	0,1	-0,084993
5,444167	0,1	-0,069756
5,445833	0,1	-0,075020
5,447500	0,1	-0,056023
5,449167	0,1	-0,057305
5,450833	0,1	-0,076574
5,452500	0,1	-0,082365
5,454167	0,1	-0,063098
5,455833	0,1	-0,063364
5,457500	0,1	-0,061640
5,459167	0,1	-0,070269
5,460833	0,1	-0,050959
5,462500	0,1	-0,069810
5,464167	0,1	-0,066289
5,465833	0,1	-0,084021
5,467500	0,1	-0,037978
5,469167	0,1	-0,062320
5,470833	0,1	-0,030899
5,472500	0,1	-0,058895
5,474167	0,1	-0,066764
5,475833	0,1	-0,037206
5,477500	0,1	-0,074702
5,479167	0,1	-0,055899
5,480833	0,1	-0,104284
5,482500	0,1	-0,056568
5,484167	0,1	-0,067717
5,485833	0,1	-0,061809
5,487500	0,1	-0,090907
5,489167	0,1	-0,077392
5,490833	0,1	-0,102257
5,492500	0,1	-0,080110
5,494167	0,1	-0,088755
5,495833	0,1	-0,065774
5,497500	0,1	-0,091076
5,499167	0,1	-0,089938
5,500833	0,1	-0,047356
5,502500	0,1	-0,094929
5,504167	0,1	-0,060942
5,505833	0,1	-0,078025
5,507500	0,1	-0,063532
5,509167	0,1	-0,079563
5,510833	0,1	-0,063865
5,512500	0,1	-0,103292
5,514167	0,1	-0,080381
5,515833	0,1	-0,060172
5,517500	0,1	-0,040669
5,519167	0,1	-0,067070
5,520833	0,1	-0,080164
5,522500	0,1	-0,133576
5,524167	0,1	-0,080180
5,525833	0,1	-0,066145
5,527500	0,1	-0,072594
5,529167	0,1	-0,067886
5,530833	0,1	-0,050648
5,532500	0,1	-0,108845
5,534167	0,1	-0,092558
5,535833	0,1	-0,077784
5,537500	0,1	-0,048743
5,539167	0,1	-0,058278
5,540833	0,1	-0,067261
5,542500	0,1	-0,076992
5,544167	0,1	-0,114225
5,545833	0,1	-0,102989
5,547500	0,1	-0,070195
5,549167	0,1	-0,091821
5,550833	0,1	-0,097303
5,552500	0,1	-0,066255
5,554167	0,1	-0,057099
5,555833	0,1	-0,082320
5,557500	0,1	-0,091679
5,559167	0,1	-0,077411
5,560833	0,1	-0,069403
5,562500	0,1	-0,053677
5,564167	0,1	-0,050250
5,565833	0,1	-0,089742
5,567500	0,1	-0,062352
5,569167	0,1	-0,096818
5,570833	0,1	-0,055405
5,572500	0,1	-0,072094
5,574167	0,1	-0,066040
5,575833	0,1	-0,077529
5,577500	0,1	-0,079980
5,579167	0,1	-0,090973
5,580833	0,1	-0,043291
5,582500	0,1	-0,067403
5,584167	0,1	-0,037560
5,585833	0,1	-0,075304
5,587500	0,1	-0,049239
5,589167	0,1	-0,048031
5,590833	0,1	-0,041227
5,592500	0,1	-0,064912
5,594167	0,1	-0,067679
5,595833	0,1	-0,066434
5,597500	0,1	-0,077986
5,599167	0,1	-0,081473
5,600833	0,1	-0,070628
5,602500	0,1	-0,099745
5,604167	0,1	-0,089922
5,605833	0,1	-0,082639
5,607500	0,1	-0,055963
5,609167	0,1	-0,114633
5,610833	0,1	-0,065843
5,612500	0,1	-0,112813
5,614167	0,1	-0,077935
5,615833	0,1	-0,033019
5,617500	0,1	-0,053233
5,619167	0,1	-0,050957
5,620833	0,1	-0,079622
5,622500	0,1	-0,050651
5,624167	0,1	-0,046102
5,625833	0,1	-0,065578
5,627500	0,1	-0,053905
5,629167	0,1	-0,085637
5,630833	0,1	-0,053037
5,632500	0,1	-0,065787
5,634167	0,1	-0,060336
5,635833	0,1	-0,055002
5,637500	0,1	-0,038968
5,639167	0,1	-0,045891
5,640833	0,1	-0,043612
5,642500	0,1	-0,027597
5,644167	0,1	-0,059329
5,645833	0,1	-0,082485
5,647500	0,1	-0,083675
5,649167	0,1	-0,004830
5,650833	0,1	-0,044783
5,652500	0,1	-0,059998
5,654167	0,1	-0,039071
5,655833	0,1	-0,032803
5,657500	0,1	-0,083041
5,659167	0,1	-0,046938
5,660833	0,1	-0,047552
5,662500	0,1	-0,021893
5,664167	0,1	-0,056175
5,665833	0,1	-0,013285
5,667500	0,1	-0,010476
5,669167	0,1	-0,021096
5,670833	0,1	-0,055718
5,672500	0,1	-0,056556
5,674167	0,1	-0,041685
5,675833	0,1	-0,032990
5,677500	0,1	-0,066944
5,679167	0,1	-0,025444
5,680833	0,1	-0,070157
5,682500	0,1	-0,042456
5,684167	0,1	-0,028197
5,685833	0,1	-0,046159
5,687500	0,1	0,021028
5,689167	0,1	-0,030049
5,690833	0,1	-0,021931
5,692500	0,1	-0,015373
5,694167	0,1	-0,025556
5,695833	0,1	-0,037488
5,697500	0,1	-0,038941
5,699167	0,1	0,014060
5,700833	0,1	-0,044198
5,702500	0,1	-0,025087
5,704167	0,1	0,014251
5,705833	0,1	-0,029614
5,707500	0,1	-0,039914
5,709167	0,1	0,016382
5,710833	0,1	0,010647
5,712500	0,1	0,019943
5,714167	0,1	-0,029242
5,715833	0,1	0,027919
5,717500	0,1	0,014513
5,719167	0,1	0,040942
5,720833	0,1	0,011551
5,722500	0,1	-0,001050
5,724167	0,1	-0,018935
5,725833	0,1	0,034332
5,727500	0,1	-0,013493
5,729167	0,1	-0,007448
5,730833	0,1	0,005540
5,732500	0,1	0,033573
5,734167	0,1	0,024013
5,735833	0,1	-0,031479
5,737500	0,1	0,005165
5,739167	0,1	0,003346
5,740833	0,1	0,023637
5,742500	0,1	0,022873
5,744167	0,1	0,036105
5,745833	0,1	0,034241
5,747500	0,1	0,035801
5,749167	0,1	-0,008512
5,750833	0,1	0,044733
5,752500	0,1	0,041467
5,754167	0,1	0,041630
5,755833	0,1	0,035842
5,757500	0,1	0,049284
5,759167	0,1	0,020846
5,760833	0,1	0,035610
5,762500	0,1	0,027667
5,764167	0,1	-0,011605
5,765833	0,1	0,012095
5,767500	0,1	0,043969
5,769167	0,1	0,046901
5,770833	0,1	0,013521
5,772500	0,1	0,007331
5,774167	0,1	-0,002856
5,775833	0,1	0,050790
5,777500	0,1	0,006489
5,779167	0,1	0,030876
5,780833	0,1	0,026835
5,782500	0,1	0,034427
5,784167	0,1	0,064328
5,785833	0,1	0,077946
5,787500	0,1	0,038816
5,789167	0,1	0,026423
5,790833	0,1	0,047832
5,792500	0,1	0,037130
5,794167	0,1	0,019991
5,795833	0,1	0,050692
5,797500	0,1	0,023294
5,799167	0,1	0,069345
5,800833	0,1	0,044752
5,802500	0,1	0,035467
5,804167	0,1	0,036507
5,805833	0,1	0,020861
5,807500	0,1	0,049697
5,809167	0,1	0,057548
5,810833	0,1	0,053604
5,812500	0,1	0,047234
5,814167	0,1	0,034518
5,815833	0,1	0,035676
5,817500	0,1	0,050821
5,819167	0,1	0,031012
5,820833	0,1	0,072830
5,822500	0,1	0,011309
5,824167	0,1	0,039568
5,825833	0,1	0,027111
5,827500	0,1	0,026441
5,829167	0,1	0,027769
5,830833	0,1	0,030238
5,832500	0,1	-0,000195
5,834167	0,1	0,063780
5,835833	0,1	0,029832
5,837500	0,1	0,050280
5,839167	0,1	0,047712
5,840833	0,1	0,033420
5,842500	0,1	0,004618
5,844167	0,1	0,034609
5,845833	0,1	0,016671
5,847500	0,1	0,024634
5,849167	0,1	0,027375
5,850833	0,1	0,019179
5,852500	0,1	0,020669
5,854167	0,1	0,013327
5,855833	0,1	0,026438
5,857500	0,1	0,023020
5,859167	0,1	0,010591
5,860833	0,1	-0,013499
5,862500	0,1	0,022221
5,864167	0,1	0,032503
5,865833	0,1	0,012273
5,867500	0,1	0,033968
5,869167	0,1	0,024680
5,870833	0,1	0,028245
5,872500	0,1	0,010819
5,874167	0,1	0,014923
5,875833	0,1	-0,014554
5,877500	0,1	0,000292
5,879167	0,1	-0,002008
5,880833	0,1	-0,021737
5,882500	0,1	0,027591
5,884167	0,1	0,014927
5,885833	0,1	-0,010965
5,887500	0,1	0,018961
5,889167	0,1	0,002706
5,890833	0,1	0,009133
5,892500	0,1	0,021396
5,894167	0,1	-0,014553
5,895833	0,1	0,036513
5,897500	0,1	0,001049
5,899167	0,1	0,040789
5,900833	0,1	-0,002848
5,902500	0,1	-0,022899
5,904167	0,1	0,001616
5,905833	0,1	0,058798
5,907500	0,1	-0,011784
5,909167	0,1	0,013444
5,910833	0,1	-0,013954
5,912500	0,1	-0,002241
5,914167	0,1	0,018011
5,915833	0,1	-0,002046
5,917500	0,1	-0,007235
5,919167	0,1	-0,024849
5,920833	0,1	0,005474
5,922500	0,1	-0,019452
5,924167	0,1	0,015372
5,925833	0,1	-0,003539
5,927500	0,1	-0,029038
5,929167	0,1	0,005952
5,930833	0,1	-0,017273
5,932500	0,1	0,002903
5,934167	0,1	-0,039742
5,935833	0,1	0,015947
5,937500	0,1	-0,054466
5,939167	0,1	0,006732
5,940833	0,1	-0,036837
5,942500	0,1	-0,033859
5,944167	0,1	-0,003946
5,945833	0,1	-0,033395
5,947500	0,1	-0,029461
5,949167	0,1	-0,011143
5,950833	0,1	-0,005081
5,952500	0,1	-0,020307
5,954167	0,1	-0,029623
5,955833	0,1	-0,027781
5,957500	0,1	-0,021287
5,959167	0,1	-0,058809
5,960833	0,1	-0,035504
5,962500	0,1	0,003066
5,964167	0,1	-0,023478
5,965833	0,1	-0,036511
5,967500	0,1	-0,043650
5,969167	0,1	-0,037739
5,970833	0,1	-0,047095
5,972500	0,1	-0,044774
5,974167	0,1	-0,062052
5,975833	0,1	-0,015091
5,977500	0,1	-0,003048
5,979167	0,1	-0,045323
5,980833	0,1	-0,066221
5,982500	0,1	-0,054880
5,984167	0,1	-0,057969
5,985833	0,1	-0,066596
5,987500	0,1	-0,042061
5,989167	0,1	-0,040002
5,990833	0,1	-0,040126
5,992500	0,1	-0,039585
5,994167	0,1	-0,052364
5,995833	0,1	-0,023035
5,997500	0,1	-0,035371
5,999167	0,1	-0,055703
6,000833	0,1	-0,067425
