File Path	chrom://chromeleon01/ikbm_chromeleon/2022/Rezex/Esteban/220612_chitin_4_7.seq/827.smp/UV_VIS_1.channel/UV_VIS_1.chm
Channel	UV_VIS_1

Injection Information:
Data Vault	ikbm_chromeleon
Injection	A2ox 200
Injection Number	59
Position	RA5
Comment	
Processing Method	New ProcMethod
Instrument Method	Short_Rezex_6min_194nm
Type	Calibration Standard
Status	Finished
Injection Date	12.06.2022
Injection Time	23:29:14
Injection Volume (µl)	8,000
Dilution Factor	1,0000
Weight	1,0000

Chromatogram Data Information:
Time Min. (min)	0,000833
Time Max. (min)	6,000833
Data Points	3601
Detector	UV
Generating Data System	Chromeleon 7.2.9.11323
Exporting Data System	Chromeleon 7.2.9.0
Operator	Instrument Controller
Signal Quantity	Absorbance
Signal Unit	mAU
Signal Min.	-0,149571
Signal Max.	126,369538
Channel	UV_VIS_1
Driver Name	VWD3000.dll
Channel Type	Evaluation
Min. Step (s)	0,1
Max. Step (s)	0,1
Average Step (s)	0,1

Signal Parameter Information:
Signal Info	WVL:194 nm

Chromatogram Data:
Time (min)	Step (s)	Value (mAU)
0,000833	n.a.	-0,094959
0,002500	0,1	-0,102980
0,004167	0,1	-0,083866
0,005833	0,1	-0,090044
0,007500	0,1	-0,121085
0,009167	0,1	-0,097521
0,010833	0,1	-0,062324
0,012500	0,1	-0,071624
0,014167	0,1	-0,073019
0,015833	0,1	-0,058541
0,017500	0,1	-0,091859
0,019167	0,1	-0,102488
0,020833	0,1	-0,120092
0,022500	0,1	-0,097432
0,024167	0,1	-0,084093
0,025833	0,1	-0,084425
0,027500	0,1	-0,113107
0,029167	0,1	-0,074181
0,030833	0,1	-0,100555
0,032500	0,1	-0,106700
0,034167	0,1	-0,135046
0,035833	0,1	-0,079313
0,037500	0,1	-0,114240
0,039167	0,1	-0,104132
0,040833	0,1	-0,092451
0,042500	0,1	-0,083969
0,044167	0,1	-0,107462
0,045833	0,1	-0,064043
0,047500	0,1	-0,098378
0,049167	0,1	-0,133116
0,050833	0,1	-0,094282
0,052500	0,1	-0,109790
0,054167	0,1	-0,058505
0,055833	0,1	-0,066437
0,057500	0,1	-0,080062
0,059167	0,1	-0,088484
0,060833	0,1	-0,098356
0,062500	0,1	-0,100471
0,064167	0,1	-0,072295
0,065833	0,1	-0,123299
0,067500	0,1	-0,098623
0,069167	0,1	-0,072664
0,070833	0,1	-0,083675
0,072500	0,1	-0,101280
0,074167	0,1	-0,073685
0,075833	0,1	-0,081454
0,077500	0,1	-0,110506
0,079167	0,1	-0,041315
0,080833	0,1	-0,105477
0,082500	0,1	-0,085549
0,084167	0,1	-0,103209
0,085833	0,1	-0,103318
0,087500	0,1	-0,109685
0,089167	0,1	-0,116053
0,090833	0,1	-0,071390
0,092500	0,1	-0,084271
0,094167	0,1	-0,101569
0,095833	0,1	-0,116834
0,097500	0,1	-0,126754
0,099167	0,1	-0,093832
0,100833	0,1	-0,094774
0,102500	0,1	-0,122372
0,104167	0,1	-0,087894
0,105833	0,1	-0,060639
0,107500	0,1	-0,107395
0,109167	0,1	-0,079534
0,110833	0,1	-0,138835
0,112500	0,1	-0,084411
0,114167	0,1	-0,083096
0,115833	0,1	-0,115342
0,117500	0,1	-0,121886
0,119167	0,1	-0,088996
0,120833	0,1	-0,094896
0,122500	0,1	-0,087291
0,124167	0,1	-0,089479
0,125833	0,1	-0,069305
0,127500	0,1	-0,100785
0,129167	0,1	-0,071633
0,130833	0,1	-0,086184
0,132500	0,1	-0,098814
0,134167	0,1	-0,088181
0,135833	0,1	-0,123074
0,137500	0,1	-0,119393
0,139167	0,1	-0,091046
0,140833	0,1	-0,102795
0,142500	0,1	-0,085134
0,144167	0,1	-0,088467
0,145833	0,1	-0,083202
0,147500	0,1	-0,110965
0,149167	0,1	-0,088138
0,150833	0,1	-0,097575
0,152500	0,1	-0,083530
0,154167	0,1	-0,095556
0,155833	0,1	-0,131126
0,157500	0,1	-0,140361
0,159167	0,1	-0,063717
0,160833	0,1	-0,132985
0,162500	0,1	-0,109525
0,164167	0,1	-0,065868
0,165833	0,1	-0,090683
0,167500	0,1	-0,117579
0,169167	0,1	-0,116116
0,170833	0,1	-0,091338
0,172500	0,1	-0,112896
0,174167	0,1	-0,089485
0,175833	0,1	-0,120074
0,177500	0,1	-0,109338
0,179167	0,1	-0,120079
0,180833	0,1	-0,087085
0,182500	0,1	-0,089464
0,184167	0,1	-0,078182
0,185833	0,1	-0,088114
0,187500	0,1	-0,119890
0,189167	0,1	-0,089533
0,190833	0,1	-0,139817
0,192500	0,1	-0,091193
0,194167	0,1	-0,080816
0,195833	0,1	-0,101737
0,197500	0,1	-0,080283
0,199167	0,1	-0,113352
0,200833	0,1	-0,068237
0,202500	0,1	-0,101074
0,204167	0,1	-0,085275
0,205833	0,1	-0,104873
0,207500	0,1	-0,113895
0,209167	0,1	-0,088280
0,210833	0,1	-0,129853
0,212500	0,1	-0,109875
0,214167	0,1	-0,104208
0,215833	0,1	-0,077650
0,217500	0,1	-0,059705
0,219167	0,1	-0,101212
0,220833	0,1	-0,073288
0,222500	0,1	-0,056629
0,224167	0,1	-0,067018
0,225833	0,1	-0,135832
0,227500	0,1	-0,110169
0,229167	0,1	-0,100671
0,230833	0,1	-0,110143
0,232500	0,1	-0,066908
0,234167	0,1	-0,078362
0,235833	0,1	-0,053231
0,237500	0,1	-0,104469
0,239167	0,1	-0,135627
0,240833	0,1	-0,136383
0,242500	0,1	-0,112264
0,244167	0,1	-0,074119
0,245833	0,1	-0,080565
0,247500	0,1	-0,075458
0,249167	0,1	-0,087532
0,250833	0,1	-0,078702
0,252500	0,1	-0,084362
0,254167	0,1	-0,088300
0,255833	0,1	-0,059742
0,257500	0,1	-0,063116
0,259167	0,1	-0,065195
0,260833	0,1	-0,110073
0,262500	0,1	-0,096707
0,264167	0,1	-0,095771
0,265833	0,1	-0,081152
0,267500	0,1	-0,066609
0,269167	0,1	-0,058891
0,270833	0,1	-0,042959
0,272500	0,1	-0,054800
0,274167	0,1	-0,119499
0,275833	0,1	-0,069682
0,277500	0,1	-0,061278
0,279167	0,1	-0,057164
0,280833	0,1	-0,124169
0,282500	0,1	-0,083810
0,284167	0,1	-0,074508
0,285833	0,1	-0,074306
0,287500	0,1	-0,058145
0,289167	0,1	-0,068135
0,290833	0,1	-0,108744
0,292500	0,1	-0,099982
0,294167	0,1	-0,085733
0,295833	0,1	-0,096517
0,297500	0,1	-0,065099
0,299167	0,1	-0,078511
0,300833	0,1	-0,077952
0,302500	0,1	-0,073910
0,304167	0,1	-0,105470
0,305833	0,1	-0,096170
0,307500	0,1	-0,059664
0,309167	0,1	-0,081451
0,310833	0,1	-0,065111
0,312500	0,1	-0,023505
0,314167	0,1	-0,086234
0,315833	0,1	-0,106238
0,317500	0,1	-0,075034
0,319167	0,1	-0,072120
0,320833	0,1	-0,067206
0,322500	0,1	-0,046254
0,324167	0,1	-0,037125
0,325833	0,1	-0,099860
0,327500	0,1	-0,054752
0,329167	0,1	-0,038272
0,330833	0,1	-0,037606
0,332500	0,1	-0,041483
0,334167	0,1	-0,112884
0,335833	0,1	-0,070720
0,337500	0,1	-0,086950
0,339167	0,1	-0,059953
0,340833	0,1	-0,075068
0,342500	0,1	-0,057317
0,344167	0,1	-0,038315
0,345833	0,1	-0,066494
0,347500	0,1	-0,057208
0,349167	0,1	-0,086593
0,350833	0,1	-0,067191
0,352500	0,1	-0,045717
0,354167	0,1	-0,068759
0,355833	0,1	-0,093009
0,357500	0,1	-0,084673
0,359167	0,1	-0,064927
0,360833	0,1	-0,038230
0,362500	0,1	-0,098160
0,364167	0,1	-0,089220
0,365833	0,1	-0,069809
0,367500	0,1	-0,104931
0,369167	0,1	-0,061779
0,370833	0,1	-0,056116
0,372500	0,1	-0,082720
0,374167	0,1	-0,068996
0,375833	0,1	-0,043296
0,377500	0,1	-0,070106
0,379167	0,1	-0,056427
0,380833	0,1	-0,054556
0,382500	0,1	-0,039373
0,384167	0,1	-0,067533
0,385833	0,1	-0,041990
0,387500	0,1	-0,048264
0,389167	0,1	-0,106916
0,390833	0,1	-0,061164
0,392500	0,1	-0,070049
0,394167	0,1	-0,058082
0,395833	0,1	-0,026428
0,397500	0,1	-0,055315
0,399167	0,1	-0,043539
0,400833	0,1	-0,039370
0,402500	0,1	-0,043948
0,404167	0,1	-0,088106
0,405833	0,1	-0,073805
0,407500	0,1	-0,070606
0,409167	0,1	-0,067495
0,410833	0,1	-0,055527
0,412500	0,1	-0,048497
0,414167	0,1	-0,062594
0,415833	0,1	-0,043769
0,417500	0,1	-0,069155
0,419167	0,1	-0,079235
0,420833	0,1	-0,063043
0,422500	0,1	-0,045847
0,424167	0,1	-0,058535
0,425833	0,1	-0,054785
0,427500	0,1	-0,068804
0,429167	0,1	-0,077227
0,430833	0,1	-0,064266
0,432500	0,1	-0,041181
0,434167	0,1	-0,068712
0,435833	0,1	-0,073369
0,437500	0,1	-0,033010
0,439167	0,1	-0,063110
0,440833	0,1	-0,084561
0,442500	0,1	-0,088405
0,444167	0,1	-0,080464
0,445833	0,1	-0,017932
0,447500	0,1	-0,085510
0,449167	0,1	-0,051550
0,450833	0,1	-0,012906
0,452500	0,1	-0,067755
0,454167	0,1	-0,049081
0,455833	0,1	-0,050379
0,457500	0,1	-0,041486
0,459167	0,1	-0,042786
0,460833	0,1	-0,068239
0,462500	0,1	-0,038214
0,464167	0,1	-0,062698
0,465833	0,1	-0,039560
0,467500	0,1	-0,037960
0,469167	0,1	-0,110297
0,470833	0,1	-0,089423
0,472500	0,1	-0,065510
0,474167	0,1	-0,050367
0,475833	0,1	-0,020146
0,477500	0,1	-0,023370
0,479167	0,1	-0,020078
0,480833	0,1	-0,071509
0,482500	0,1	-0,029127
0,484167	0,1	-0,045276
0,485833	0,1	-0,049904
0,487500	0,1	-0,089455
0,489167	0,1	-0,026585
0,490833	0,1	-0,043013
0,492500	0,1	-0,060709
0,494167	0,1	-0,044349
0,495833	0,1	-0,077882
0,497500	0,1	-0,111715
0,499167	0,1	-0,082152
0,500833	0,1	-0,075320
0,502500	0,1	-0,065260
0,504167	0,1	-0,081744
0,505833	0,1	-0,057566
0,507500	0,1	-0,071869
0,509167	0,1	-0,059905
0,510833	0,1	-0,064552
0,512500	0,1	-0,076829
0,514167	0,1	-0,047814
0,515833	0,1	-0,060957
0,517500	0,1	-0,047609
0,519167	0,1	-0,056561
0,520833	0,1	-0,063988
0,522500	0,1	-0,077991
0,524167	0,1	-0,064098
0,525833	0,1	-0,088339
0,527500	0,1	-0,060366
0,529167	0,1	-0,062993
0,530833	0,1	-0,091156
0,532500	0,1	-0,075568
0,534167	0,1	-0,075133
0,535833	0,1	-0,096575
0,537500	0,1	-0,055456
0,539167	0,1	-0,076245
0,540833	0,1	-0,062796
0,542500	0,1	-0,069299
0,544167	0,1	-0,040415
0,545833	0,1	-0,086192
0,547500	0,1	-0,079239
0,549167	0,1	-0,032694
0,550833	0,1	-0,072048
0,552500	0,1	-0,078424
0,554167	0,1	-0,042821
0,555833	0,1	-0,073108
0,557500	0,1	-0,066194
0,559167	0,1	-0,093254
0,560833	0,1	-0,055701
0,562500	0,1	-0,048329
0,564167	0,1	-0,063159
0,565833	0,1	-0,102207
0,567500	0,1	-0,077023
0,569167	0,1	-0,054500
0,570833	0,1	-0,059777
0,572500	0,1	-0,101028
0,574167	0,1	-0,054356
0,575833	0,1	-0,070663
0,577500	0,1	-0,058707
0,579167	0,1	-0,068074
0,580833	0,1	-0,083320
0,582500	0,1	-0,055865
0,584167	0,1	-0,061875
0,585833	0,1	-0,084973
0,587500	0,1	-0,066109
0,589167	0,1	-0,090575
0,590833	0,1	-0,099258
0,592500	0,1	-0,087326
0,594167	0,1	-0,065801
0,595833	0,1	-0,062185
0,597500	0,1	-0,085019
0,599167	0,1	-0,081060
0,600833	0,1	-0,094190
0,602500	0,1	-0,036168
0,604167	0,1	-0,098556
0,605833	0,1	-0,063187
0,607500	0,1	-0,068656
0,609167	0,1	-0,060504
0,610833	0,1	-0,051590
0,612500	0,1	-0,093066
0,614167	0,1	-0,050451
0,615833	0,1	-0,054071
0,617500	0,1	-0,096650
0,619167	0,1	-0,046287
0,620833	0,1	-0,072236
0,622500	0,1	-0,055362
0,624167	0,1	-0,077654
0,625833	0,1	-0,052237
0,627500	0,1	-0,088582
0,629167	0,1	-0,078447
0,630833	0,1	-0,054227
0,632500	0,1	-0,064781
0,634167	0,1	-0,074565
0,635833	0,1	-0,083798
0,637500	0,1	-0,068741
0,639167	0,1	-0,030022
0,640833	0,1	-0,077217
0,642500	0,1	-0,066827
0,644167	0,1	-0,056884
0,645833	0,1	-0,051069
0,647500	0,1	-0,055584
0,649167	0,1	-0,070355
0,650833	0,1	-0,093959
0,652500	0,1	-0,080755
0,654167	0,1	-0,094728
0,655833	0,1	-0,082807
0,657500	0,1	-0,075609
0,659167	0,1	-0,056525
0,660833	0,1	-0,104134
0,662500	0,1	-0,060204
0,664167	0,1	-0,072223
0,665833	0,1	-0,051135
0,667500	0,1	-0,061582
0,669167	0,1	-0,085370
0,670833	0,1	-0,065051
0,672500	0,1	-0,061727
0,674167	0,1	-0,062289
0,675833	0,1	-0,066666
0,677500	0,1	-0,043604
0,679167	0,1	-0,030263
0,680833	0,1	-0,091898
0,682500	0,1	-0,076316
0,684167	0,1	-0,084011
0,685833	0,1	-0,059918
0,687500	0,1	-0,050382
0,689167	0,1	-0,068857
0,690833	0,1	-0,052154
0,692500	0,1	-0,056500
0,694167	0,1	-0,048822
0,695833	0,1	-0,092958
0,697500	0,1	-0,093673
0,699167	0,1	-0,091517
0,700833	0,1	-0,053772
0,702500	0,1	-0,081969
0,704167	0,1	-0,081210
0,705833	0,1	-0,063641
0,707500	0,1	-0,065195
0,709167	0,1	-0,066605
0,710833	0,1	-0,056134
0,712500	0,1	-0,067599
0,714167	0,1	-0,065981
0,715833	0,1	-0,066316
0,717500	0,1	-0,094786
0,719167	0,1	-0,049396
0,720833	0,1	-0,042067
0,722500	0,1	-0,039510
0,724167	0,1	-0,054614
0,725833	0,1	-0,043978
0,727500	0,1	-0,081281
0,729167	0,1	-0,042029
0,730833	0,1	-0,051144
0,732500	0,1	-0,019936
0,734167	0,1	-0,041417
0,735833	0,1	-0,020470
0,737500	0,1	-0,031105
0,739167	0,1	0,004315
0,740833	0,1	-0,045162
0,742500	0,1	-0,056164
0,744167	0,1	-0,019109
0,745833	0,1	-0,038783
0,747500	0,1	-0,017114
0,749167	0,1	-0,056765
0,750833	0,1	0,005571
0,752500	0,1	-0,020132
0,754167	0,1	-0,005826
0,755833	0,1	0,007079
0,757500	0,1	0,005610
0,759167	0,1	-0,038671
0,760833	0,1	-0,039431
0,762500	0,1	-0,036068
0,764167	0,1	-0,063815
0,765833	0,1	0,010860
0,767500	0,1	-0,038026
0,769167	0,1	-0,038639
0,770833	0,1	-0,024582
0,772500	0,1	-0,050955
0,774167	0,1	-0,052854
0,775833	0,1	-0,027174
0,777500	0,1	-0,057280
0,779167	0,1	-0,051650
0,780833	0,1	-0,050318
0,782500	0,1	-0,073630
0,784167	0,1	-0,018408
0,785833	0,1	-0,020428
0,787500	0,1	-0,069808
0,789167	0,1	-0,044458
0,790833	0,1	-0,039124
0,792500	0,1	-0,041376
0,794167	0,1	-0,042620
0,795833	0,1	-0,065852
0,797500	0,1	-0,070419
0,799167	0,1	-0,094295
0,800833	0,1	-0,074406
0,802500	0,1	-0,077308
0,804167	0,1	-0,074199
0,805833	0,1	-0,072473
0,807500	0,1	-0,098503
0,809167	0,1	-0,090371
0,810833	0,1	-0,038817
0,812500	0,1	-0,077853
0,814167	0,1	-0,075335
0,815833	0,1	-0,069152
0,817500	0,1	-0,068218
0,819167	0,1	-0,054514
0,820833	0,1	-0,089702
0,822500	0,1	-0,097670
0,824167	0,1	-0,081918
0,825833	0,1	-0,113677
0,827500	0,1	-0,089240
0,829167	0,1	-0,104249
0,830833	0,1	-0,103856
0,832500	0,1	-0,121194
0,834167	0,1	-0,064170
0,835833	0,1	-0,069176
0,837500	0,1	-0,120896
0,839167	0,1	-0,091936
0,840833	0,1	-0,105597
0,842500	0,1	-0,131864
0,844167	0,1	-0,079620
0,845833	0,1	-0,074754
0,847500	0,1	-0,096670
0,849167	0,1	-0,118852
0,850833	0,1	-0,064831
0,852500	0,1	-0,117591
0,854167	0,1	-0,095579
0,855833	0,1	-0,096614
0,857500	0,1	-0,133712
0,859167	0,1	-0,101443
0,860833	0,1	-0,103794
0,862500	0,1	-0,071010
0,864167	0,1	-0,143914
0,865833	0,1	-0,108073
0,867500	0,1	-0,085627
0,869167	0,1	-0,098312
0,870833	0,1	-0,092819
0,872500	0,1	-0,105413
0,874167	0,1	-0,095180
0,875833	0,1	-0,125647
0,877500	0,1	-0,128577
0,879167	0,1	-0,091648
0,880833	0,1	-0,105059
0,882500	0,1	-0,103946
0,884167	0,1	-0,101300
0,885833	0,1	-0,090417
0,887500	0,1	-0,143168
0,889167	0,1	-0,098800
0,890833	0,1	-0,097029
0,892500	0,1	-0,120444
0,894167	0,1	-0,095319
0,895833	0,1	-0,118454
0,897500	0,1	-0,093193
0,899167	0,1	-0,095558
0,900833	0,1	-0,139099
0,902500	0,1	-0,118877
0,904167	0,1	-0,120128
0,905833	0,1	-0,108482
0,907500	0,1	-0,117920
0,909167	0,1	-0,093909
0,910833	0,1	-0,095558
0,912500	0,1	-0,083222
0,914167	0,1	-0,072949
0,915833	0,1	-0,048641
0,917500	0,1	-0,149571
0,919167	0,1	-0,093643
0,920833	0,1	-0,097927
0,922500	0,1	-0,086347
0,924167	0,1	-0,111565
0,925833	0,1	-0,105371
0,927500	0,1	-0,104420
0,929167	0,1	-0,085626
0,930833	0,1	-0,119691
0,932500	0,1	-0,085006
0,934167	0,1	-0,130603
0,935833	0,1	-0,093039
0,937500	0,1	-0,094518
0,939167	0,1	-0,111091
0,940833	0,1	-0,090420
0,942500	0,1	-0,064155
0,944167	0,1	-0,070127
0,945833	0,1	-0,065709
0,947500	0,1	-0,101811
0,949167	0,1	-0,098085
0,950833	0,1	-0,066771
0,952500	0,1	-0,096115
0,954167	0,1	-0,078888
0,955833	0,1	-0,070007
0,957500	0,1	-0,105177
0,959167	0,1	-0,062299
0,960833	0,1	-0,088664
0,962500	0,1	-0,059847
0,964167	0,1	-0,072531
0,965833	0,1	-0,079051
0,967500	0,1	-0,058023
0,969167	0,1	-0,114772
0,970833	0,1	-0,073230
0,972500	0,1	-0,058681
0,974167	0,1	-0,090054
0,975833	0,1	-0,049993
0,977500	0,1	-0,076016
0,979167	0,1	-0,098845
0,980833	0,1	-0,066878
0,982500	0,1	-0,073661
0,984167	0,1	-0,052297
0,985833	0,1	-0,090283
0,987500	0,1	-0,098710
0,989167	0,1	-0,072187
0,990833	0,1	-0,048333
0,992500	0,1	-0,061643
0,994167	0,1	-0,068305
0,995833	0,1	-0,043445
0,997500	0,1	-0,066002
0,999167	0,1	-0,086322
1,000833	0,1	-0,018226
1,002500	0,1	-0,068418
1,004167	0,1	-0,042114
1,005833	0,1	-0,070414
1,007500	0,1	-0,008887
1,009167	0,1	-0,027102
1,010833	0,1	-0,025037
1,012500	0,1	-0,018767
1,014167	0,1	-0,018605
1,015833	0,1	0,007509
1,017500	0,1	-0,010530
1,019167	0,1	0,026181
1,020833	0,1	0,023886
1,022500	0,1	0,001072
1,024167	0,1	0,032572
1,025833	0,1	0,049276
1,027500	0,1	0,039448
1,029167	0,1	0,009266
1,030833	0,1	0,069640
1,032500	0,1	0,051028
1,034167	0,1	0,039676
1,035833	0,1	0,037682
1,037500	0,1	0,034882
1,039167	0,1	0,010861
1,040833	0,1	0,049768
1,042500	0,1	0,064154
1,044167	0,1	0,079300
1,045833	0,1	0,057855
1,047500	0,1	0,066955
1,049167	0,1	0,064345
1,050833	0,1	0,119277
1,052500	0,1	0,095475
1,054167	0,1	0,174141
1,055833	0,1	0,174040
1,057500	0,1	0,247997
1,059167	0,1	0,328767
1,060833	0,1	0,508475
1,062500	0,1	0,660788
1,064167	0,1	0,899246
1,065833	0,1	1,192227
1,067500	0,1	1,603887
1,069167	0,1	2,143050
1,070833	0,1	2,778948
1,072500	0,1	3,623523
1,074167	0,1	4,595756
1,075833	0,1	5,706450
1,077500	0,1	7,078194
1,079167	0,1	8,600761
1,080833	0,1	10,261905
1,082500	0,1	12,164904
1,084167	0,1	14,199007
1,085833	0,1	16,419380
1,087500	0,1	18,679413
1,089167	0,1	21,001988
1,090833	0,1	23,450152
1,092500	0,1	25,885688
1,094167	0,1	28,229538
1,095833	0,1	30,579936
1,097500	0,1	32,775044
1,099167	0,1	34,916765
1,100833	0,1	36,856173
1,102500	0,1	38,684227
1,104167	0,1	40,287410
1,105833	0,1	41,802313
1,107500	0,1	43,094668
1,109167	0,1	44,170667
1,110833	0,1	45,083907
1,112500	0,1	45,775751
1,114167	0,1	46,354141
1,115833	0,1	46,634016
1,117500	0,1	46,816754
1,119167	0,1	46,799276
1,120833	0,1	46,630700
1,122500	0,1	46,298573
1,124167	0,1	45,838089
1,125833	0,1	45,200035
1,127500	0,1	44,533669
1,129167	0,1	43,678850
1,130833	0,1	42,771867
1,132500	0,1	41,705192
1,134167	0,1	40,697486
1,135833	0,1	39,517718
1,137500	0,1	38,361188
1,139167	0,1	37,118847
1,140833	0,1	35,893758
1,142500	0,1	34,609573
1,144167	0,1	33,343189
1,145833	0,1	32,025018
1,147500	0,1	30,826556
1,149167	0,1	29,582730
1,150833	0,1	28,341627
1,152500	0,1	27,115819
1,154167	0,1	25,966069
1,155833	0,1	24,826310
1,157500	0,1	23,728471
1,159167	0,1	22,655752
1,160833	0,1	21,583568
1,162500	0,1	20,579303
1,164167	0,1	19,596628
1,165833	0,1	18,636957
1,167500	0,1	17,790229
1,169167	0,1	16,929794
1,170833	0,1	16,060019
1,172500	0,1	15,292516
1,174167	0,1	14,537909
1,175833	0,1	13,880316
1,177500	0,1	13,161641
1,179167	0,1	12,469056
1,180833	0,1	11,900753
1,182500	0,1	11,263230
1,184167	0,1	10,672080
1,185833	0,1	10,186063
1,187500	0,1	9,641174
1,189167	0,1	9,160681
1,190833	0,1	8,728838
1,192500	0,1	8,295746
1,194167	0,1	7,873831
1,195833	0,1	7,420939
1,197500	0,1	7,099520
1,199167	0,1	6,726879
1,200833	0,1	6,451414
1,202500	0,1	6,101961
1,204167	0,1	5,852608
1,205833	0,1	5,554354
1,207500	0,1	5,244292
1,209167	0,1	5,027453
1,210833	0,1	4,751055
1,212500	0,1	4,578694
1,214167	0,1	4,407265
1,215833	0,1	4,167452
1,217500	0,1	4,003481
1,219167	0,1	3,800156
1,220833	0,1	3,654862
1,222500	0,1	3,502586
1,224167	0,1	3,347913
1,225833	0,1	3,203366
1,227500	0,1	3,087748
1,229167	0,1	2,966150
1,230833	0,1	2,857166
1,232500	0,1	2,724611
1,234167	0,1	2,598440
1,235833	0,1	2,522958
1,237500	0,1	2,434705
1,239167	0,1	2,355167
1,240833	0,1	2,250863
1,242500	0,1	2,149738
1,244167	0,1	2,091492
1,245833	0,1	2,023433
1,247500	0,1	1,974467
1,249167	0,1	1,886122
1,250833	0,1	1,822891
1,252500	0,1	1,789818
1,254167	0,1	1,714490
1,255833	0,1	1,703140
1,257500	0,1	1,640253
1,259167	0,1	1,550351
1,260833	0,1	1,507331
1,262500	0,1	1,453143
1,264167	0,1	1,437921
1,265833	0,1	1,377128
1,267500	0,1	1,328774
1,269167	0,1	1,325896
1,270833	0,1	1,299164
1,272500	0,1	1,226477
1,274167	0,1	1,172655
1,275833	0,1	1,135627
1,277500	0,1	1,114903
1,279167	0,1	1,117653
1,280833	0,1	1,103606
1,282500	0,1	1,069440
1,284167	0,1	1,041939
1,285833	0,1	1,013708
1,287500	0,1	0,966212
1,289167	0,1	0,954800
1,290833	0,1	0,902697
1,292500	0,1	0,899661
1,294167	0,1	0,904287
1,295833	0,1	0,876072
1,297500	0,1	0,853673
1,299167	0,1	0,846385
1,300833	0,1	0,802012
1,302500	0,1	0,799490
1,304167	0,1	0,777487
1,305833	0,1	0,738967
1,307500	0,1	0,788001
1,309167	0,1	0,749723
1,310833	0,1	0,733061
1,312500	0,1	0,705494
1,314167	0,1	0,685719
1,315833	0,1	0,673964
1,317500	0,1	0,630818
1,319167	0,1	0,632031
1,320833	0,1	0,666318
1,322500	0,1	0,628690
1,324167	0,1	0,603829
1,325833	0,1	0,600539
1,327500	0,1	0,605527
1,329167	0,1	0,568412
1,330833	0,1	0,576192
1,332500	0,1	0,597989
1,334167	0,1	0,581672
1,335833	0,1	0,562450
1,337500	0,1	0,559355
1,339167	0,1	0,544804
1,340833	0,1	0,552977
1,342500	0,1	0,553365
1,344167	0,1	0,529095
1,345833	0,1	0,520206
1,347500	0,1	0,489370
1,349167	0,1	0,557535
1,350833	0,1	0,515191
1,352500	0,1	0,496385
1,354167	0,1	0,525220
1,355833	0,1	0,515926
1,357500	0,1	0,504174
1,359167	0,1	0,502625
1,360833	0,1	0,487790
1,362500	0,1	0,445561
1,364167	0,1	0,457425
1,365833	0,1	0,486040
1,367500	0,1	0,466062
1,369167	0,1	0,464737
1,370833	0,1	0,435290
1,372500	0,1	0,496916
1,374167	0,1	0,445208
1,375833	0,1	0,473035
1,377500	0,1	0,472751
1,379167	0,1	0,435744
1,380833	0,1	0,432581
1,382500	0,1	0,426272
1,384167	0,1	0,480111
1,385833	0,1	0,481185
1,387500	0,1	0,428342
1,389167	0,1	0,453303
1,390833	0,1	0,435803
1,392500	0,1	0,440879
1,394167	0,1	0,438886
1,395833	0,1	0,422284
1,397500	0,1	0,431934
1,399167	0,1	0,438245
1,400833	0,1	0,470459
1,402500	0,1	0,442307
1,404167	0,1	0,427401
1,405833	0,1	0,427722
1,407500	0,1	0,457936
1,409167	0,1	0,414439
1,410833	0,1	0,384593
1,412500	0,1	0,450297
1,414167	0,1	0,450386
1,415833	0,1	0,479765
1,417500	0,1	0,405173
1,419167	0,1	0,440780
1,420833	0,1	0,425051
1,422500	0,1	0,409212
1,424167	0,1	0,452394
1,425833	0,1	0,432521
1,427500	0,1	0,421187
1,429167	0,1	0,401042
1,430833	0,1	0,420439
1,432500	0,1	0,421897
1,434167	0,1	0,433832
1,435833	0,1	0,422028
1,437500	0,1	0,418965
1,439167	0,1	0,361816
1,440833	0,1	0,400512
1,442500	0,1	0,403612
1,444167	0,1	0,404447
1,445833	0,1	0,395410
1,447500	0,1	0,418895
1,449167	0,1	0,410568
1,450833	0,1	0,414880
1,452500	0,1	0,405100
1,454167	0,1	0,389102
1,455833	0,1	0,381856
1,457500	0,1	0,397936
1,459167	0,1	0,372115
1,460833	0,1	0,400742
1,462500	0,1	0,398882
1,464167	0,1	0,401781
1,465833	0,1	0,413359
1,467500	0,1	0,344123
1,469167	0,1	0,420783
1,470833	0,1	0,368124
1,472500	0,1	0,390373
1,474167	0,1	0,413773
1,475833	0,1	0,413268
1,477500	0,1	0,384529
1,479167	0,1	0,413261
1,480833	0,1	0,409762
1,482500	0,1	0,365963
1,484167	0,1	0,423521
1,485833	0,1	0,417515
1,487500	0,1	0,401651
1,489167	0,1	0,419865
1,490833	0,1	0,382118
1,492500	0,1	0,400292
1,494167	0,1	0,416710
1,495833	0,1	0,410145
1,497500	0,1	0,404740
1,499167	0,1	0,442971
1,500833	0,1	0,441338
1,502500	0,1	0,414951
1,504167	0,1	0,420864
1,505833	0,1	0,388265
1,507500	0,1	0,401869
1,509167	0,1	0,442227
1,510833	0,1	0,385179
1,512500	0,1	0,452232
1,514167	0,1	0,377811
1,515833	0,1	0,398776
1,517500	0,1	0,350707
1,519167	0,1	0,433176
1,520833	0,1	0,426175
1,522500	0,1	0,371306
1,524167	0,1	0,428252
1,525833	0,1	0,433606
1,527500	0,1	0,381350
1,529167	0,1	0,417568
1,530833	0,1	0,424274
1,532500	0,1	0,446738
1,534167	0,1	0,415978
1,535833	0,1	0,413363
1,537500	0,1	0,387428
1,539167	0,1	0,420017
1,540833	0,1	0,377133
1,542500	0,1	0,386103
1,544167	0,1	0,369919
1,545833	0,1	0,395848
1,547500	0,1	0,409791
1,549167	0,1	0,379769
1,550833	0,1	0,370850
1,552500	0,1	0,340015
1,554167	0,1	0,390112
1,555833	0,1	0,377770
1,557500	0,1	0,363453
1,559167	0,1	0,391630
1,560833	0,1	0,360032
1,562500	0,1	0,350862
1,564167	0,1	0,326335
1,565833	0,1	0,339116
1,567500	0,1	0,363046
1,569167	0,1	0,328024
1,570833	0,1	0,355486
1,572500	0,1	0,334574
1,574167	0,1	0,371258
1,575833	0,1	0,349451
1,577500	0,1	0,303950
1,579167	0,1	0,318964
1,580833	0,1	0,308257
1,582500	0,1	0,326914
1,584167	0,1	0,300436
1,585833	0,1	0,326079
1,587500	0,1	0,302342
1,589167	0,1	0,300241
1,590833	0,1	0,282553
1,592500	0,1	0,291330
1,594167	0,1	0,299042
1,595833	0,1	0,284308
1,597500	0,1	0,320373
1,599167	0,1	0,307449
1,600833	0,1	0,277005
1,602500	0,1	0,305093
1,604167	0,1	0,333773
1,605833	0,1	0,303050
1,607500	0,1	0,306186
1,609167	0,1	0,319129
1,610833	0,1	0,299956
1,612500	0,1	0,337018
1,614167	0,1	0,383358
1,615833	0,1	0,388256
1,617500	0,1	0,368688
1,619167	0,1	0,403570
1,620833	0,1	0,440721
1,622500	0,1	0,406799
1,624167	0,1	0,482198
1,625833	0,1	0,500464
1,627500	0,1	0,552322
1,629167	0,1	0,591834
1,630833	0,1	0,642357
1,632500	0,1	0,723868
1,634167	0,1	0,791414
1,635833	0,1	0,877306
1,637500	0,1	0,959332
1,639167	0,1	1,103057
1,640833	0,1	1,216421
1,642500	0,1	1,364107
1,644167	0,1	1,521618
1,645833	0,1	1,696688
1,647500	0,1	1,902770
1,649167	0,1	2,124598
1,650833	0,1	2,366946
1,652500	0,1	2,633872
1,654167	0,1	2,932618
1,655833	0,1	3,355147
1,657500	0,1	3,749284
1,659167	0,1	4,135122
1,660833	0,1	4,613481
1,662500	0,1	5,102358
1,664167	0,1	5,675583
1,665833	0,1	6,323828
1,667500	0,1	6,958483
1,669167	0,1	7,701020
1,670833	0,1	8,521538
1,672500	0,1	9,356838
1,674167	0,1	10,246632
1,675833	0,1	11,279843
1,677500	0,1	12,345856
1,679167	0,1	13,457622
1,680833	0,1	14,677365
1,682500	0,1	15,962476
1,684167	0,1	17,337060
1,685833	0,1	18,783245
1,687500	0,1	20,293076
1,689167	0,1	21,893784
1,690833	0,1	23,598169
1,692500	0,1	25,324801
1,694167	0,1	27,196041
1,695833	0,1	29,178071
1,697500	0,1	31,113328
1,699167	0,1	33,250331
1,700833	0,1	35,430718
1,702500	0,1	37,639526
1,704167	0,1	39,926086
1,705833	0,1	42,269534
1,707500	0,1	44,772886
1,709167	0,1	47,256076
1,710833	0,1	49,779743
1,712500	0,1	52,347157
1,714167	0,1	54,946655
1,715833	0,1	57,625314
1,717500	0,1	60,327819
1,719167	0,1	63,034302
1,720833	0,1	65,738750
1,722500	0,1	68,477352
1,724167	0,1	71,285355
1,725833	0,1	74,019020
1,727500	0,1	76,740350
1,729167	0,1	79,486134
1,730833	0,1	82,141145
1,732500	0,1	84,814537
1,734167	0,1	87,410885
1,735833	0,1	90,027789
1,737500	0,1	92,503598
1,739167	0,1	95,039579
1,740833	0,1	97,413523
1,742500	0,1	99,780972
1,744167	0,1	102,056791
1,745833	0,1	104,225579
1,747500	0,1	106,414061
1,749167	0,1	108,421502
1,750833	0,1	110,320455
1,752500	0,1	112,159211
1,754167	0,1	113,951629
1,755833	0,1	115,541850
1,757500	0,1	117,058812
1,759167	0,1	118,431334
1,760833	0,1	119,741911
1,762500	0,1	120,913489
1,764167	0,1	121,930251
1,765833	0,1	122,959374
1,767500	0,1	123,777623
1,769167	0,1	124,507206
1,770833	0,1	125,094132
1,772500	0,1	125,595324
1,774167	0,1	125,937336
1,775833	0,1	126,218381
1,777500	0,1	126,337610
1,779167	0,1	126,369538
1,780833	0,1	126,269734
1,782500	0,1	126,151876
1,784167	0,1	125,794818
1,785833	0,1	125,387941
1,787500	0,1	124,901850
1,789167	0,1	124,322991
1,790833	0,1	123,643434
1,792500	0,1	122,817707
1,794167	0,1	121,906624
1,795833	0,1	121,012979
1,797500	0,1	119,950693
1,799167	0,1	118,867952
1,800833	0,1	117,657060
1,802500	0,1	116,382681
1,804167	0,1	115,114090
1,805833	0,1	113,720123
1,807500	0,1	112,227889
1,809167	0,1	110,792769
1,810833	0,1	109,233042
1,812500	0,1	107,658415
1,814167	0,1	106,064111
1,815833	0,1	104,392726
1,817500	0,1	102,727379
1,819167	0,1	100,985542
1,820833	0,1	99,199538
1,822500	0,1	97,441894
1,824167	0,1	95,704405
1,825833	0,1	93,844300
1,827500	0,1	92,090009
1,829167	0,1	90,240769
1,830833	0,1	88,436182
1,832500	0,1	86,527878
1,834167	0,1	84,745755
1,835833	0,1	82,912806
1,837500	0,1	81,130617
1,839167	0,1	79,294379
1,840833	0,1	77,466960
1,842500	0,1	75,710164
1,844167	0,1	73,921754
1,845833	0,1	72,170295
1,847500	0,1	70,395583
1,849167	0,1	68,702196
1,850833	0,1	66,978457
1,852500	0,1	65,311467
1,854167	0,1	63,650378
1,855833	0,1	62,021974
1,857500	0,1	60,478754
1,859167	0,1	58,836998
1,860833	0,1	57,333662
1,862500	0,1	55,790149
1,864167	0,1	54,317053
1,865833	0,1	52,792160
1,867500	0,1	51,410542
1,869167	0,1	50,007678
1,870833	0,1	48,627464
1,872500	0,1	47,282111
1,874167	0,1	46,007209
1,875833	0,1	44,678061
1,877500	0,1	43,453291
1,879167	0,1	42,174140
1,880833	0,1	41,037082
1,882500	0,1	39,880556
1,884167	0,1	38,740001
1,885833	0,1	37,637503
1,887500	0,1	36,566219
1,889167	0,1	35,524517
1,890833	0,1	34,498797
1,892500	0,1	33,534371
1,894167	0,1	32,529028
1,895833	0,1	31,586511
1,897500	0,1	30,715694
1,899167	0,1	29,838347
1,900833	0,1	28,972993
1,902500	0,1	28,144957
1,904167	0,1	27,391291
1,905833	0,1	26,566348
1,907500	0,1	25,821969
1,909167	0,1	25,042286
1,910833	0,1	24,353720
1,912500	0,1	23,640426
1,914167	0,1	22,962624
1,915833	0,1	22,305918
1,917500	0,1	21,650058
1,919167	0,1	21,045521
1,920833	0,1	20,427092
1,922500	0,1	19,810410
1,924167	0,1	19,313654
1,925833	0,1	18,767671
1,927500	0,1	18,210833
1,929167	0,1	17,633932
1,930833	0,1	17,163656
1,932500	0,1	16,720020
1,934167	0,1	16,257903
1,935833	0,1	15,807462
1,937500	0,1	15,406795
1,939167	0,1	14,977606
1,940833	0,1	14,510293
1,942500	0,1	14,113430
1,944167	0,1	13,726141
1,945833	0,1	13,370053
1,947500	0,1	13,003540
1,949167	0,1	12,606297
1,950833	0,1	12,294388
1,952500	0,1	11,945328
1,954167	0,1	11,664574
1,955833	0,1	11,364433
1,957500	0,1	11,035142
1,959167	0,1	10,749519
1,960833	0,1	10,469314
1,962500	0,1	10,238341
1,964167	0,1	9,946520
1,965833	0,1	9,712778
1,967500	0,1	9,469893
1,969167	0,1	9,223966
1,970833	0,1	9,021009
1,972500	0,1	8,754491
1,974167	0,1	8,559402
1,975833	0,1	8,353659
1,977500	0,1	8,164502
1,979167	0,1	7,951519
1,980833	0,1	7,772519
1,982500	0,1	7,581750
1,984167	0,1	7,425633
1,985833	0,1	7,214942
1,987500	0,1	7,083879
1,989167	0,1	6,916475
1,990833	0,1	6,775619
1,992500	0,1	6,638092
1,994167	0,1	6,517105
1,995833	0,1	6,370341
1,997500	0,1	6,253349
1,999167	0,1	6,098487
2,000833	0,1	5,980887
2,002500	0,1	5,872589
2,004167	0,1	5,758683
2,005833	0,1	5,665340
2,007500	0,1	5,546213
2,009167	0,1	5,502514
2,010833	0,1	5,344032
2,012500	0,1	5,266763
2,014167	0,1	5,150321
2,015833	0,1	5,066255
2,017500	0,1	5,022115
2,019167	0,1	4,920279
2,020833	0,1	4,846809
2,022500	0,1	4,737473
2,024167	0,1	4,682987
2,025833	0,1	4,653657
2,027500	0,1	4,588582
2,029167	0,1	4,483967
2,030833	0,1	4,466233
2,032500	0,1	4,343591
2,034167	0,1	4,314297
2,035833	0,1	4,294929
2,037500	0,1	4,196109
2,039167	0,1	4,194264
2,040833	0,1	4,136569
2,042500	0,1	4,115742
2,044167	0,1	4,041666
2,045833	0,1	4,025584
2,047500	0,1	3,948882
2,049167	0,1	3,928590
2,050833	0,1	3,842097
2,052500	0,1	3,839369
2,054167	0,1	3,825130
2,055833	0,1	3,784244
2,057500	0,1	3,771722
2,059167	0,1	3,733662
2,060833	0,1	3,726362
2,062500	0,1	3,656688
2,064167	0,1	3,662351
2,065833	0,1	3,641994
2,067500	0,1	3,573239
2,069167	0,1	3,568996
2,070833	0,1	3,571380
2,072500	0,1	3,531059
2,074167	0,1	3,477974
2,075833	0,1	3,483253
2,077500	0,1	3,517192
2,079167	0,1	3,478594
2,080833	0,1	3,421343
2,082500	0,1	3,444743
2,084167	0,1	3,448453
2,085833	0,1	3,404385
2,087500	0,1	3,416796
2,089167	0,1	3,374416
2,090833	0,1	3,338163
2,092500	0,1	3,309054
2,094167	0,1	3,280407
2,095833	0,1	3,305153
2,097500	0,1	3,329757
2,099167	0,1	3,247562
2,100833	0,1	3,240532
2,102500	0,1	3,246265
2,104167	0,1	3,235636
2,105833	0,1	3,227402
2,107500	0,1	3,205071
2,109167	0,1	3,184471
2,110833	0,1	3,116441
2,112500	0,1	3,143934
2,114167	0,1	3,151065
2,115833	0,1	3,107424
2,117500	0,1	3,113722
2,119167	0,1	3,108827
2,120833	0,1	3,089038
2,122500	0,1	3,087527
2,124167	0,1	3,066427
2,125833	0,1	2,987341
2,127500	0,1	3,026561
2,129167	0,1	3,069215
2,130833	0,1	2,993351
2,132500	0,1	2,963253
2,134167	0,1	2,922550
2,135833	0,1	2,916067
2,137500	0,1	2,898031
2,139167	0,1	2,883637
2,140833	0,1	2,894997
2,142500	0,1	2,852294
2,144167	0,1	2,834710
2,145833	0,1	2,840690
2,147500	0,1	2,815652
2,149167	0,1	2,806660
2,150833	0,1	2,812855
2,152500	0,1	2,780267
2,154167	0,1	2,767762
2,155833	0,1	2,751656
2,157500	0,1	2,726694
2,159167	0,1	2,699503
2,160833	0,1	2,675161
2,162500	0,1	2,652338
2,164167	0,1	2,674542
2,165833	0,1	2,622149
2,167500	0,1	2,601811
2,169167	0,1	2,605313
2,170833	0,1	2,581888
2,172500	0,1	2,576121
2,174167	0,1	2,562257
2,175833	0,1	2,491195
2,177500	0,1	2,491255
2,179167	0,1	2,468909
2,180833	0,1	2,526880
2,182500	0,1	2,462655
2,184167	0,1	2,452876
2,185833	0,1	2,429378
2,187500	0,1	2,444669
2,189167	0,1	2,393536
2,190833	0,1	2,389922
2,192500	0,1	2,378715
2,194167	0,1	2,361981
2,195833	0,1	2,313705
2,197500	0,1	2,303138
2,199167	0,1	2,267729
2,200833	0,1	2,291708
2,202500	0,1	2,315342
2,204167	0,1	2,241375
2,205833	0,1	2,188578
2,207500	0,1	2,213052
2,209167	0,1	2,194961
2,210833	0,1	2,154963
2,212500	0,1	2,169458
2,214167	0,1	2,162571
2,215833	0,1	2,162280
2,217500	0,1	2,116764
2,219167	0,1	2,081284
2,220833	0,1	2,098150
2,222500	0,1	2,073818
2,224167	0,1	2,037633
2,225833	0,1	2,077253
2,227500	0,1	2,007210
2,229167	0,1	2,024991
2,230833	0,1	1,987315
2,232500	0,1	1,949919
2,234167	0,1	1,940794
2,235833	0,1	1,959515
2,237500	0,1	1,928377
2,239167	0,1	1,911437
2,240833	0,1	1,899088
2,242500	0,1	1,891622
2,244167	0,1	1,869159
2,245833	0,1	1,883163
2,247500	0,1	1,855310
2,249167	0,1	1,840241
2,250833	0,1	1,813405
2,252500	0,1	1,775010
2,254167	0,1	1,814550
2,255833	0,1	1,757963
2,257500	0,1	1,726221
2,259167	0,1	1,740076
2,260833	0,1	1,716395
2,262500	0,1	1,662446
2,264167	0,1	1,698441
2,265833	0,1	1,654060
2,267500	0,1	1,680594
2,269167	0,1	1,634394
2,270833	0,1	1,641782
2,272500	0,1	1,649610
2,274167	0,1	1,607304
2,275833	0,1	1,586218
2,277500	0,1	1,605007
2,279167	0,1	1,536875
2,280833	0,1	1,587547
2,282500	0,1	1,543473
2,284167	0,1	1,547953
2,285833	0,1	1,548651
2,287500	0,1	1,514072
2,289167	0,1	1,478631
2,290833	0,1	1,507616
2,292500	0,1	1,455130
2,294167	0,1	1,464355
2,295833	0,1	1,468244
2,297500	0,1	1,443509
2,299167	0,1	1,408654
2,300833	0,1	1,440832
2,302500	0,1	1,384685
2,304167	0,1	1,394957
2,305833	0,1	1,398185
2,307500	0,1	1,412732
2,309167	0,1	1,338898
2,310833	0,1	1,354529
2,312500	0,1	1,349289
2,314167	0,1	1,347708
2,315833	0,1	1,362765
2,317500	0,1	1,336917
2,319167	0,1	1,311675
2,320833	0,1	1,296461
2,322500	0,1	1,248429
2,324167	0,1	1,260910
2,325833	0,1	1,245167
2,327500	0,1	1,312094
2,329167	0,1	1,262840
2,330833	0,1	1,284723
2,332500	0,1	1,235058
2,334167	0,1	1,238490
2,335833	0,1	1,240868
2,337500	0,1	1,241716
2,339167	0,1	1,190356
2,340833	0,1	1,203508
2,342500	0,1	1,186189
2,344167	0,1	1,226046
2,345833	0,1	1,203776
2,347500	0,1	1,187594
2,349167	0,1	1,173734
2,350833	0,1	1,174133
2,352500	0,1	1,134318
2,354167	0,1	1,135174
2,355833	0,1	1,156738
2,357500	0,1	1,087033
2,359167	0,1	1,150434
2,360833	0,1	1,123798
2,362500	0,1	1,135171
2,364167	0,1	1,096409
2,365833	0,1	1,142211
2,367500	0,1	1,087698
2,369167	0,1	1,083527
2,370833	0,1	1,119824
2,372500	0,1	1,086603
2,374167	0,1	1,101064
2,375833	0,1	1,047257
2,377500	0,1	1,068514
2,379167	0,1	1,068830
2,380833	0,1	1,065674
2,382500	0,1	1,036515
2,384167	0,1	1,028109
2,385833	0,1	1,021928
2,387500	0,1	1,012926
2,389167	0,1	1,027567
2,390833	0,1	0,988880
2,392500	0,1	0,997296
2,394167	0,1	1,004362
2,395833	0,1	0,960476
2,397500	0,1	1,001065
2,399167	0,1	0,958453
2,400833	0,1	0,965802
2,402500	0,1	0,968689
2,404167	0,1	0,970027
2,405833	0,1	0,968647
2,407500	0,1	0,979222
2,409167	0,1	0,917076
2,410833	0,1	0,954325
2,412500	0,1	0,947801
2,414167	0,1	0,911467
2,415833	0,1	0,919083
2,417500	0,1	0,908802
2,419167	0,1	0,912483
2,420833	0,1	0,907105
2,422500	0,1	0,929903
2,424167	0,1	0,891277
2,425833	0,1	0,898487
2,427500	0,1	0,916661
2,429167	0,1	0,900558
2,430833	0,1	0,867893
2,432500	0,1	0,872170
2,434167	0,1	0,862535
2,435833	0,1	0,873499
2,437500	0,1	0,803673
2,439167	0,1	0,858141
2,440833	0,1	0,839221
2,442500	0,1	0,862014
2,444167	0,1	0,794063
2,445833	0,1	0,832817
2,447500	0,1	0,837467
2,449167	0,1	0,809936
2,450833	0,1	0,816007
2,452500	0,1	0,823291
2,454167	0,1	0,794266
2,455833	0,1	0,800609
2,457500	0,1	0,840258
2,459167	0,1	0,799266
2,460833	0,1	0,778906
2,462500	0,1	0,784753
2,464167	0,1	0,747507
2,465833	0,1	0,713688
2,467500	0,1	0,756629
2,469167	0,1	0,760608
2,470833	0,1	0,737384
2,472500	0,1	0,771776
2,474167	0,1	0,743025
2,475833	0,1	0,759952
2,477500	0,1	0,788061
2,479167	0,1	0,735235
2,480833	0,1	0,726654
2,482500	0,1	0,725783
2,484167	0,1	0,699443
2,485833	0,1	0,686302
2,487500	0,1	0,764221
2,489167	0,1	0,737031
2,490833	0,1	0,706146
2,492500	0,1	0,725425
2,494167	0,1	0,722367
2,495833	0,1	0,692488
2,497500	0,1	0,715312
2,499167	0,1	0,679383
2,500833	0,1	0,683108
2,502500	0,1	0,693413
2,504167	0,1	0,665020
2,505833	0,1	0,692025
2,507500	0,1	0,686555
2,509167	0,1	0,693058
2,510833	0,1	0,680985
2,512500	0,1	0,709311
2,514167	0,1	0,646151
2,515833	0,1	0,675466
2,517500	0,1	0,679823
2,519167	0,1	0,666171
2,520833	0,1	0,697561
2,522500	0,1	0,635590
2,524167	0,1	0,643428
2,525833	0,1	0,648901
2,527500	0,1	0,664426
2,529167	0,1	0,650583
2,530833	0,1	0,648422
2,532500	0,1	0,661526
2,534167	0,1	0,635805
2,535833	0,1	0,657404
2,537500	0,1	0,662885
2,539167	0,1	0,687192
2,540833	0,1	0,652909
2,542500	0,1	0,636094
2,544167	0,1	0,667638
2,545833	0,1	0,630399
2,547500	0,1	0,670087
2,549167	0,1	0,623058
2,550833	0,1	0,667575
2,552500	0,1	0,608444
2,554167	0,1	0,656684
2,555833	0,1	0,654283
2,557500	0,1	0,651768
2,559167	0,1	0,645558
2,560833	0,1	0,638218
2,562500	0,1	0,632291
2,564167	0,1	0,680615
2,565833	0,1	0,656415
2,567500	0,1	0,644465
2,569167	0,1	0,639182
2,570833	0,1	0,639954
2,572500	0,1	0,659462
2,574167	0,1	0,651481
2,575833	0,1	0,692307
2,577500	0,1	0,654967
2,579167	0,1	0,667842
2,580833	0,1	0,650357
2,582500	0,1	0,692790
2,584167	0,1	0,698951
2,585833	0,1	0,623806
2,587500	0,1	0,692393
2,589167	0,1	0,678313
2,590833	0,1	0,647626
2,592500	0,1	0,681067
2,594167	0,1	0,671935
2,595833	0,1	0,668973
2,597500	0,1	0,719517
2,599167	0,1	0,686852
2,600833	0,1	0,710447
2,602500	0,1	0,695835
2,604167	0,1	0,670845
2,605833	0,1	0,730596
2,607500	0,1	0,721406
2,609167	0,1	0,685310
2,610833	0,1	0,712769
2,612500	0,1	0,719021
2,614167	0,1	0,752804
2,615833	0,1	0,677200
2,617500	0,1	0,720461
2,619167	0,1	0,695165
2,620833	0,1	0,715696
2,622500	0,1	0,718247
2,624167	0,1	0,729262
2,625833	0,1	0,731580
2,627500	0,1	0,734643
2,629167	0,1	0,708975
2,630833	0,1	0,720887
2,632500	0,1	0,782461
2,634167	0,1	0,728859
2,635833	0,1	0,752181
2,637500	0,1	0,716484
2,639167	0,1	0,765490
2,640833	0,1	0,699972
2,642500	0,1	0,736790
2,644167	0,1	0,735894
2,645833	0,1	0,765364
2,647500	0,1	0,775321
2,649167	0,1	0,711951
2,650833	0,1	0,720281
2,652500	0,1	0,739988
2,654167	0,1	0,718485
2,655833	0,1	0,736216
2,657500	0,1	0,747917
2,659167	0,1	0,751066
2,660833	0,1	0,751206
2,662500	0,1	0,745950
2,664167	0,1	0,754099
2,665833	0,1	0,705441
2,667500	0,1	0,685496
2,669167	0,1	0,705814
2,670833	0,1	0,767028
2,672500	0,1	0,702384
2,674167	0,1	0,759624
2,675833	0,1	0,747205
2,677500	0,1	0,694912
2,679167	0,1	0,725203
2,680833	0,1	0,739438
2,682500	0,1	0,717451
2,684167	0,1	0,737990
2,685833	0,1	0,714004
2,687500	0,1	0,725975
2,689167	0,1	0,732709
2,690833	0,1	0,647996
2,692500	0,1	0,711979
2,694167	0,1	0,697603
2,695833	0,1	0,701080
2,697500	0,1	0,767223
2,699167	0,1	0,704221
2,700833	0,1	0,720495
2,702500	0,1	0,704826
2,704167	0,1	0,686812
2,705833	0,1	0,649434
2,707500	0,1	0,678079
2,709167	0,1	0,687740
2,710833	0,1	0,690194
2,712500	0,1	0,680693
2,714167	0,1	0,699822
2,715833	0,1	0,658611
2,717500	0,1	0,698262
2,719167	0,1	0,672903
2,720833	0,1	0,699402
2,722500	0,1	0,645634
2,724167	0,1	0,704445
2,725833	0,1	0,681151
2,727500	0,1	0,643216
2,729167	0,1	0,665712
2,730833	0,1	0,699979
2,732500	0,1	0,672519
2,734167	0,1	0,678243
2,735833	0,1	0,650849
2,737500	0,1	0,683260
2,739167	0,1	0,668331
2,740833	0,1	0,654865
2,742500	0,1	0,669709
2,744167	0,1	0,663138
2,745833	0,1	0,660854
2,747500	0,1	0,695854
2,749167	0,1	0,664632
2,750833	0,1	0,704450
2,752500	0,1	0,675805
2,754167	0,1	0,630401
2,755833	0,1	0,684769
2,757500	0,1	0,654131
2,759167	0,1	0,666484
2,760833	0,1	0,680882
2,762500	0,1	0,684560
2,764167	0,1	0,681178
2,765833	0,1	0,683657
2,767500	0,1	0,676350
2,769167	0,1	0,687714
2,770833	0,1	0,699464
2,772500	0,1	0,670971
2,774167	0,1	0,653938
2,775833	0,1	0,687220
2,777500	0,1	0,672965
2,779167	0,1	0,702362
2,780833	0,1	0,716733
2,782500	0,1	0,702595
2,784167	0,1	0,703561
2,785833	0,1	0,703496
2,787500	0,1	0,707912
2,789167	0,1	0,715344
2,790833	0,1	0,694325
2,792500	0,1	0,750119
2,794167	0,1	0,721636
2,795833	0,1	0,715644
2,797500	0,1	0,727041
2,799167	0,1	0,745077
2,800833	0,1	0,728010
2,802500	0,1	0,714711
2,804167	0,1	0,722337
2,805833	0,1	0,755708
2,807500	0,1	0,730233
2,809167	0,1	0,729816
2,810833	0,1	0,771056
2,812500	0,1	0,779252
2,814167	0,1	0,769592
2,815833	0,1	0,716393
2,817500	0,1	0,703920
2,819167	0,1	0,749841
2,820833	0,1	0,747080
2,822500	0,1	0,724695
2,824167	0,1	0,734641
2,825833	0,1	0,765652
2,827500	0,1	0,727306
2,829167	0,1	0,767107
2,830833	0,1	0,748886
2,832500	0,1	0,793381
2,834167	0,1	0,732212
2,835833	0,1	0,755963
2,837500	0,1	0,753998
2,839167	0,1	0,731195
2,840833	0,1	0,711269
2,842500	0,1	0,721757
2,844167	0,1	0,762850
2,845833	0,1	0,708084
2,847500	0,1	0,738371
2,849167	0,1	0,705344
2,850833	0,1	0,728326
2,852500	0,1	0,743333
2,854167	0,1	0,708500
2,855833	0,1	0,706204
2,857500	0,1	0,703491
2,859167	0,1	0,709872
2,860833	0,1	0,675032
2,862500	0,1	0,654777
2,864167	0,1	0,703934
2,865833	0,1	0,693192
2,867500	0,1	0,655390
2,869167	0,1	0,634483
2,870833	0,1	0,707598
2,872500	0,1	0,664635
2,874167	0,1	0,695725
2,875833	0,1	0,652781
2,877500	0,1	0,692211
2,879167	0,1	0,659573
2,880833	0,1	0,651420
2,882500	0,1	0,641504
2,884167	0,1	0,632645
2,885833	0,1	0,627203
2,887500	0,1	0,627846
2,889167	0,1	0,625911
2,890833	0,1	0,629968
2,892500	0,1	0,612070
2,894167	0,1	0,618084
2,895833	0,1	0,588470
2,897500	0,1	0,563867
2,899167	0,1	0,595766
2,900833	0,1	0,590780
2,902500	0,1	0,540146
2,904167	0,1	0,531571
2,905833	0,1	0,551011
2,907500	0,1	0,520114
2,909167	0,1	0,535687
2,910833	0,1	0,557095
2,912500	0,1	0,536275
2,914167	0,1	0,525068
2,915833	0,1	0,471572
2,917500	0,1	0,501621
2,919167	0,1	0,502723
2,920833	0,1	0,495963
2,922500	0,1	0,511958
2,924167	0,1	0,522230
2,925833	0,1	0,494747
2,927500	0,1	0,467991
2,929167	0,1	0,525405
2,930833	0,1	0,473183
2,932500	0,1	0,489099
2,934167	0,1	0,482058
2,935833	0,1	0,489265
2,937500	0,1	0,460913
2,939167	0,1	0,470980
2,940833	0,1	0,428051
2,942500	0,1	0,437434
2,944167	0,1	0,438560
2,945833	0,1	0,424953
2,947500	0,1	0,432185
2,949167	0,1	0,413819
2,950833	0,1	0,431511
2,952500	0,1	0,431323
2,954167	0,1	0,407219
2,955833	0,1	0,405574
2,957500	0,1	0,411654
2,959167	0,1	0,416741
2,960833	0,1	0,434410
2,962500	0,1	0,393098
2,964167	0,1	0,431123
2,965833	0,1	0,404836
2,967500	0,1	0,383719
2,969167	0,1	0,366828
2,970833	0,1	0,356012
2,972500	0,1	0,402378
2,974167	0,1	0,377156
2,975833	0,1	0,361226
2,977500	0,1	0,392535
2,979167	0,1	0,389863
2,980833	0,1	0,378413
2,982500	0,1	0,394080
2,984167	0,1	0,385366
2,985833	0,1	0,355136
2,987500	0,1	0,356462
2,989167	0,1	0,374480
2,990833	0,1	0,368982
2,992500	0,1	0,357426
2,994167	0,1	0,380852
2,995833	0,1	0,396592
2,997500	0,1	0,382954
2,999167	0,1	0,373843
3,000833	0,1	0,347838
3,002500	0,1	0,376054
3,004167	0,1	0,332747
3,005833	0,1	0,377139
3,007500	0,1	0,374321
3,009167	0,1	0,362322
3,010833	0,1	0,355812
3,012500	0,1	0,378731
3,014167	0,1	0,372780
3,015833	0,1	0,356039
3,017500	0,1	0,392436
3,019167	0,1	0,351032
3,020833	0,1	0,379010
3,022500	0,1	0,353721
3,024167	0,1	0,398579
3,025833	0,1	0,330017
3,027500	0,1	0,373666
3,029167	0,1	0,372136
3,030833	0,1	0,409843
3,032500	0,1	0,389295
3,034167	0,1	0,400773
3,035833	0,1	0,414519
3,037500	0,1	0,379897
3,039167	0,1	0,412908
3,040833	0,1	0,352768
3,042500	0,1	0,398870
3,044167	0,1	0,396787
3,045833	0,1	0,355021
3,047500	0,1	0,346221
3,049167	0,1	0,386994
3,050833	0,1	0,383950
3,052500	0,1	0,394400
3,054167	0,1	0,410753
3,055833	0,1	0,358334
3,057500	0,1	0,368943
3,059167	0,1	0,400450
3,060833	0,1	0,370050
3,062500	0,1	0,383711
3,064167	0,1	0,345619
3,065833	0,1	0,368877
3,067500	0,1	0,376957
3,069167	0,1	0,358161
3,070833	0,1	0,390244
3,072500	0,1	0,339385
3,074167	0,1	0,319162
3,075833	0,1	0,375759
3,077500	0,1	0,350765
3,079167	0,1	0,367782
3,080833	0,1	0,366825
3,082500	0,1	0,361703
3,084167	0,1	0,316295
3,085833	0,1	0,371097
3,087500	0,1	0,315791
3,089167	0,1	0,376981
3,090833	0,1	0,335676
3,092500	0,1	0,359802
3,094167	0,1	0,336541
3,095833	0,1	0,366200
3,097500	0,1	0,327182
3,099167	0,1	0,328485
3,100833	0,1	0,327725
3,102500	0,1	0,341681
3,104167	0,1	0,324275
3,105833	0,1	0,349212
3,107500	0,1	0,322283
3,109167	0,1	0,310378
3,110833	0,1	0,317025
3,112500	0,1	0,316256
3,114167	0,1	0,296447
3,115833	0,1	0,311195
3,117500	0,1	0,322953
3,119167	0,1	0,356645
3,120833	0,1	0,316114
3,122500	0,1	0,332898
3,124167	0,1	0,298925
3,125833	0,1	0,310535
3,127500	0,1	0,292170
3,129167	0,1	0,286020
3,130833	0,1	0,277327
3,132500	0,1	0,258189
3,134167	0,1	0,294024
3,135833	0,1	0,291965
3,137500	0,1	0,303293
3,139167	0,1	0,318222
3,140833	0,1	0,280299
3,142500	0,1	0,259098
3,144167	0,1	0,258978
3,145833	0,1	0,280273
3,147500	0,1	0,278967
3,149167	0,1	0,261987
3,150833	0,1	0,243929
3,152500	0,1	0,243030
3,154167	0,1	0,260035
3,155833	0,1	0,250339
3,157500	0,1	0,301389
3,159167	0,1	0,256036
3,160833	0,1	0,303320
3,162500	0,1	0,270735
3,164167	0,1	0,292741
3,165833	0,1	0,267552
3,167500	0,1	0,246832
3,169167	0,1	0,246210
3,170833	0,1	0,255595
3,172500	0,1	0,223467
3,174167	0,1	0,233072
3,175833	0,1	0,255088
3,177500	0,1	0,208608
3,179167	0,1	0,219699
3,180833	0,1	0,229703
3,182500	0,1	0,237591
3,184167	0,1	0,214748
3,185833	0,1	0,224847
3,187500	0,1	0,210216
3,189167	0,1	0,207059
3,190833	0,1	0,223495
3,192500	0,1	0,196064
3,194167	0,1	0,180769
3,195833	0,1	0,210457
3,197500	0,1	0,163381
3,199167	0,1	0,159597
3,200833	0,1	0,182666
3,202500	0,1	0,179998
3,204167	0,1	0,188626
3,205833	0,1	0,190329
3,207500	0,1	0,191616
3,209167	0,1	0,181474
3,210833	0,1	0,177525
3,212500	0,1	0,187072
3,214167	0,1	0,170388
3,215833	0,1	0,212613
3,217500	0,1	0,224217
3,219167	0,1	0,170209
3,220833	0,1	0,181507
3,222500	0,1	0,206701
3,224167	0,1	0,175642
3,225833	0,1	0,184929
3,227500	0,1	0,216200
3,229167	0,1	0,198635
3,230833	0,1	0,165975
3,232500	0,1	0,164681
3,234167	0,1	0,161440
3,235833	0,1	0,151541
3,237500	0,1	0,153969
3,239167	0,1	0,188140
3,240833	0,1	0,148377
3,242500	0,1	0,203451
3,244167	0,1	0,160226
3,245833	0,1	0,167479
3,247500	0,1	0,152540
3,249167	0,1	0,179590
3,250833	0,1	0,189253
3,252500	0,1	0,177631
3,254167	0,1	0,177690
3,255833	0,1	0,162441
3,257500	0,1	0,157292
3,259167	0,1	0,168076
3,260833	0,1	0,158288
3,262500	0,1	0,139508
3,264167	0,1	0,159567
3,265833	0,1	0,182682
3,267500	0,1	0,143003
3,269167	0,1	0,173618
3,270833	0,1	0,158477
3,272500	0,1	0,179324
3,274167	0,1	0,127024
3,275833	0,1	0,173841
3,277500	0,1	0,155114
3,279167	0,1	0,132205
3,280833	0,1	0,181373
3,282500	0,1	0,196054
3,284167	0,1	0,148271
3,285833	0,1	0,164072
3,287500	0,1	0,167292
3,289167	0,1	0,119720
3,290833	0,1	0,145123
3,292500	0,1	0,156769
3,294167	0,1	0,154985
3,295833	0,1	0,134197
3,297500	0,1	0,122016
3,299167	0,1	0,101490
3,300833	0,1	0,178730
3,302500	0,1	0,134534
3,304167	0,1	0,165998
3,305833	0,1	0,177232
3,307500	0,1	0,157379
3,309167	0,1	0,152764
3,310833	0,1	0,195859
3,312500	0,1	0,153274
3,314167	0,1	0,170693
3,315833	0,1	0,141544
3,317500	0,1	0,152680
3,319167	0,1	0,117537
3,320833	0,1	0,144685
3,322500	0,1	0,155852
3,324167	0,1	0,174469
3,325833	0,1	0,132335
3,327500	0,1	0,147800
3,329167	0,1	0,187103
3,330833	0,1	0,144973
3,332500	0,1	0,148384
3,334167	0,1	0,134383
3,335833	0,1	0,157056
3,337500	0,1	0,172414
3,339167	0,1	0,174285
3,340833	0,1	0,121315
3,342500	0,1	0,141639
3,344167	0,1	0,170276
3,345833	0,1	0,160298
3,347500	0,1	0,121585
3,349167	0,1	0,153941
3,350833	0,1	0,145813
3,352500	0,1	0,128302
3,354167	0,1	0,155580
3,355833	0,1	0,151894
3,357500	0,1	0,161211
3,359167	0,1	0,207339
3,360833	0,1	0,196060
3,362500	0,1	0,177027
3,364167	0,1	0,172465
3,365833	0,1	0,151151
3,367500	0,1	0,180571
3,369167	0,1	0,127274
3,370833	0,1	0,187035
3,372500	0,1	0,184806
3,374167	0,1	0,116154
3,375833	0,1	0,154002
3,377500	0,1	0,129903
3,379167	0,1	0,160955
3,380833	0,1	0,194803
3,382500	0,1	0,214738
3,384167	0,1	0,142219
3,385833	0,1	0,155795
3,387500	0,1	0,199493
3,389167	0,1	0,216935
3,390833	0,1	0,159005
3,392500	0,1	0,191624
3,394167	0,1	0,173998
3,395833	0,1	0,126710
3,397500	0,1	0,161017
3,399167	0,1	0,199557
3,400833	0,1	0,207637
3,402500	0,1	0,176888
3,404167	0,1	0,182090
3,405833	0,1	0,169392
3,407500	0,1	0,202547
3,409167	0,1	0,192388
3,410833	0,1	0,138605
3,412500	0,1	0,182246
3,414167	0,1	0,194830
3,415833	0,1	0,181388
3,417500	0,1	0,165571
3,419167	0,1	0,182583
3,420833	0,1	0,215353
3,422500	0,1	0,180978
3,424167	0,1	0,141404
3,425833	0,1	0,186169
3,427500	0,1	0,173855
3,429167	0,1	0,230209
3,430833	0,1	0,203951
3,432500	0,1	0,156099
3,434167	0,1	0,153452
3,435833	0,1	0,203892
3,437500	0,1	0,159520
3,439167	0,1	0,167291
3,440833	0,1	0,161653
3,442500	0,1	0,197853
3,444167	0,1	0,183444
3,445833	0,1	0,196180
3,447500	0,1	0,188693
3,449167	0,1	0,196244
3,450833	0,1	0,167818
3,452500	0,1	0,200946
3,454167	0,1	0,181288
3,455833	0,1	0,179957
3,457500	0,1	0,188915
3,459167	0,1	0,164082
3,460833	0,1	0,200389
3,462500	0,1	0,208698
3,464167	0,1	0,205750
3,465833	0,1	0,158463
3,467500	0,1	0,181875
3,469167	0,1	0,202236
3,470833	0,1	0,209593
3,472500	0,1	0,179486
3,474167	0,1	0,173979
3,475833	0,1	0,196633
3,477500	0,1	0,175373
3,479167	0,1	0,189039
3,480833	0,1	0,203675
3,482500	0,1	0,200876
3,484167	0,1	0,215357
3,485833	0,1	0,229010
3,487500	0,1	0,156828
3,489167	0,1	0,217276
3,490833	0,1	0,191623
3,492500	0,1	0,215747
3,494167	0,1	0,185089
3,495833	0,1	0,209815
3,497500	0,1	0,193638
3,499167	0,1	0,207699
3,500833	0,1	0,202659
3,502500	0,1	0,192805
3,504167	0,1	0,255871
3,505833	0,1	0,211902
3,507500	0,1	0,212952
3,509167	0,1	0,213870
3,510833	0,1	0,230156
3,512500	0,1	0,206358
3,514167	0,1	0,201812
3,515833	0,1	0,195252
3,517500	0,1	0,201746
3,519167	0,1	0,240751
3,520833	0,1	0,222609
3,522500	0,1	0,208186
3,524167	0,1	0,188576
3,525833	0,1	0,203069
3,527500	0,1	0,180646
3,529167	0,1	0,252502
3,530833	0,1	0,198544
3,532500	0,1	0,205127
3,534167	0,1	0,211561
3,535833	0,1	0,212701
3,537500	0,1	0,191998
3,539167	0,1	0,201062
3,540833	0,1	0,176243
3,542500	0,1	0,195638
3,544167	0,1	0,212076
3,545833	0,1	0,181103
3,547500	0,1	0,210357
3,549167	0,1	0,184507
3,550833	0,1	0,220022
3,552500	0,1	0,201752
3,554167	0,1	0,235363
3,555833	0,1	0,240077
3,557500	0,1	0,155363
3,559167	0,1	0,195116
3,560833	0,1	0,219781
3,562500	0,1	0,200983
3,564167	0,1	0,225839
3,565833	0,1	0,189883
3,567500	0,1	0,191035
3,569167	0,1	0,205125
3,570833	0,1	0,172966
3,572500	0,1	0,208400
3,574167	0,1	0,190108
3,575833	0,1	0,185560
3,577500	0,1	0,188486
3,579167	0,1	0,178358
3,580833	0,1	0,182796
3,582500	0,1	0,193067
3,584167	0,1	0,208342
3,585833	0,1	0,201583
3,587500	0,1	0,178879
3,589167	0,1	0,255894
3,590833	0,1	0,185161
3,592500	0,1	0,175291
3,594167	0,1	0,218567
3,595833	0,1	0,213886
3,597500	0,1	0,190712
3,599167	0,1	0,188714
3,600833	0,1	0,192965
3,602500	0,1	0,243598
3,604167	0,1	0,174929
3,605833	0,1	0,163271
3,607500	0,1	0,179764
3,609167	0,1	0,211241
3,610833	0,1	0,184256
3,612500	0,1	0,186531
3,614167	0,1	0,171056
3,615833	0,1	0,215287
3,617500	0,1	0,223912
3,619167	0,1	0,168923
3,620833	0,1	0,222237
3,622500	0,1	0,216712
3,624167	0,1	0,165312
3,625833	0,1	0,229830
3,627500	0,1	0,167182
3,629167	0,1	0,162108
3,630833	0,1	0,146628
3,632500	0,1	0,166519
3,634167	0,1	0,223689
3,635833	0,1	0,150749
3,637500	0,1	0,205444
3,639167	0,1	0,189919
3,640833	0,1	0,178462
3,642500	0,1	0,196179
3,644167	0,1	0,211041
3,645833	0,1	0,135849
3,647500	0,1	0,175876
3,649167	0,1	0,196987
3,650833	0,1	0,233306
3,652500	0,1	0,176417
3,654167	0,1	0,188751
3,655833	0,1	0,139020
3,657500	0,1	0,144318
3,659167	0,1	0,159405
3,660833	0,1	0,168681
3,662500	0,1	0,184497
3,664167	0,1	0,188273
3,665833	0,1	0,162113
3,667500	0,1	0,196818
3,669167	0,1	0,174604
3,670833	0,1	0,180890
3,672500	0,1	0,157421
3,674167	0,1	0,228756
3,675833	0,1	0,188911
3,677500	0,1	0,160080
3,679167	0,1	0,212256
3,680833	0,1	0,169797
3,682500	0,1	0,223486
3,684167	0,1	0,156622
3,685833	0,1	0,173810
3,687500	0,1	0,169390
3,689167	0,1	0,182025
3,690833	0,1	0,185370
3,692500	0,1	0,180124
3,694167	0,1	0,187833
3,695833	0,1	0,177322
3,697500	0,1	0,224169
3,699167	0,1	0,165360
3,700833	0,1	0,190741
3,702500	0,1	0,192448
3,704167	0,1	0,206060
3,705833	0,1	0,193989
3,707500	0,1	0,185122
3,709167	0,1	0,183566
3,710833	0,1	0,167422
3,712500	0,1	0,223509
3,714167	0,1	0,225075
3,715833	0,1	0,210076
3,717500	0,1	0,209178
3,719167	0,1	0,236385
3,720833	0,1	0,185571
3,722500	0,1	0,176201
3,724167	0,1	0,202714
3,725833	0,1	0,217210
3,727500	0,1	0,224204
3,729167	0,1	0,247820
3,730833	0,1	0,210184
3,732500	0,1	0,266032
3,734167	0,1	0,222952
3,735833	0,1	0,237612
3,737500	0,1	0,258784
3,739167	0,1	0,264642
3,740833	0,1	0,240613
3,742500	0,1	0,216679
3,744167	0,1	0,264632
3,745833	0,1	0,259320
3,747500	0,1	0,262321
3,749167	0,1	0,279050
3,750833	0,1	0,325719
3,752500	0,1	0,291203
3,754167	0,1	0,300227
3,755833	0,1	0,324392
3,757500	0,1	0,314264
3,759167	0,1	0,316674
3,760833	0,1	0,268038
3,762500	0,1	0,289800
3,764167	0,1	0,343476
3,765833	0,1	0,338921
3,767500	0,1	0,391179
3,769167	0,1	0,343918
3,770833	0,1	0,346570
3,772500	0,1	0,326559
3,774167	0,1	0,369126
3,775833	0,1	0,390408
3,777500	0,1	0,350062
3,779167	0,1	0,364980
3,780833	0,1	0,376114
3,782500	0,1	0,372292
3,784167	0,1	0,380340
3,785833	0,1	0,407046
3,787500	0,1	0,367504
3,789167	0,1	0,424165
3,790833	0,1	0,370344
3,792500	0,1	0,404369
3,794167	0,1	0,427391
3,795833	0,1	0,423696
3,797500	0,1	0,401998
3,799167	0,1	0,422658
3,800833	0,1	0,437566
3,802500	0,1	0,420186
3,804167	0,1	0,403865
3,805833	0,1	0,419249
3,807500	0,1	0,457934
3,809167	0,1	0,442016
3,810833	0,1	0,445838
3,812500	0,1	0,400780
3,814167	0,1	0,452525
3,815833	0,1	0,468724
3,817500	0,1	0,492675
3,819167	0,1	0,409286
3,820833	0,1	0,413522
3,822500	0,1	0,466655
3,824167	0,1	0,438986
3,825833	0,1	0,426495
3,827500	0,1	0,465140
3,829167	0,1	0,464865
3,830833	0,1	0,431881
3,832500	0,1	0,415425
3,834167	0,1	0,462082
3,835833	0,1	0,459227
3,837500	0,1	0,461773
3,839167	0,1	0,456977
3,840833	0,1	0,450607
3,842500	0,1	0,438147
3,844167	0,1	0,450826
3,845833	0,1	0,446583
3,847500	0,1	0,459903
3,849167	0,1	0,450963
3,850833	0,1	0,440883
3,852500	0,1	0,444645
3,854167	0,1	0,433252
3,855833	0,1	0,436600
3,857500	0,1	0,404740
3,859167	0,1	0,407377
3,860833	0,1	0,407079
3,862500	0,1	0,462468
3,864167	0,1	0,438056
3,865833	0,1	0,468041
3,867500	0,1	0,413078
3,869167	0,1	0,417379
3,870833	0,1	0,422953
3,872500	0,1	0,417162
3,874167	0,1	0,415710
3,875833	0,1	0,392514
3,877500	0,1	0,408591
3,879167	0,1	0,412426
3,880833	0,1	0,392278
3,882500	0,1	0,386582
3,884167	0,1	0,382428
3,885833	0,1	0,375927
3,887500	0,1	0,366374
3,889167	0,1	0,406815
3,890833	0,1	0,388677
3,892500	0,1	0,368079
3,894167	0,1	0,361351
3,895833	0,1	0,400796
3,897500	0,1	0,357362
3,899167	0,1	0,396679
3,900833	0,1	0,340411
3,902500	0,1	0,373055
3,904167	0,1	0,360454
3,905833	0,1	0,398447
3,907500	0,1	0,355829
3,909167	0,1	0,344262
3,910833	0,1	0,357293
3,912500	0,1	0,328847
3,914167	0,1	0,319261
3,915833	0,1	0,331773
3,917500	0,1	0,346196
3,919167	0,1	0,301238
3,920833	0,1	0,316154
3,922500	0,1	0,311815
3,924167	0,1	0,330421
3,925833	0,1	0,327525
3,927500	0,1	0,279874
3,929167	0,1	0,302028
3,930833	0,1	0,319607
3,932500	0,1	0,335662
3,934167	0,1	0,259477
3,935833	0,1	0,306654
3,937500	0,1	0,287792
3,939167	0,1	0,286134
3,940833	0,1	0,325876
3,942500	0,1	0,267006
3,944167	0,1	0,253998
3,945833	0,1	0,286453
3,947500	0,1	0,277998
3,949167	0,1	0,294824
3,950833	0,1	0,294803
3,952500	0,1	0,271830
3,954167	0,1	0,259992
3,955833	0,1	0,216228
3,957500	0,1	0,231115
3,959167	0,1	0,287773
3,960833	0,1	0,266682
3,962500	0,1	0,219195
3,964167	0,1	0,244917
3,965833	0,1	0,235184
3,967500	0,1	0,210016
3,969167	0,1	0,252217
3,970833	0,1	0,230102
3,972500	0,1	0,226906
3,974167	0,1	0,208601
3,975833	0,1	0,194469
3,977500	0,1	0,225963
3,979167	0,1	0,236821
3,980833	0,1	0,200304
3,982500	0,1	0,225409
3,984167	0,1	0,203721
3,985833	0,1	0,222685
3,987500	0,1	0,195295
3,989167	0,1	0,179646
3,990833	0,1	0,189935
3,992500	0,1	0,181512
3,994167	0,1	0,161570
3,995833	0,1	0,215662
3,997500	0,1	0,194384
3,999167	0,1	0,213528
4,000833	0,1	0,196024
4,002500	0,1	0,213285
4,004167	0,1	0,201585
4,005833	0,1	0,191832
4,007500	0,1	0,164232
4,009167	0,1	0,165261
4,010833	0,1	0,198711
4,012500	0,1	0,166578
4,014167	0,1	0,206305
4,015833	0,1	0,191604
4,017500	0,1	0,179645
4,019167	0,1	0,182319
4,020833	0,1	0,195750
4,022500	0,1	0,158444
4,024167	0,1	0,134904
4,025833	0,1	0,173491
4,027500	0,1	0,172715
4,029167	0,1	0,181759
4,030833	0,1	0,157756
4,032500	0,1	0,141625
4,034167	0,1	0,234731
4,035833	0,1	0,184199
4,037500	0,1	0,219175
4,039167	0,1	0,188140
4,040833	0,1	0,183755
4,042500	0,1	0,191828
4,044167	0,1	0,227666
4,045833	0,1	0,252550
4,047500	0,1	0,194643
4,049167	0,1	0,217348
4,050833	0,1	0,213039
4,052500	0,1	0,199036
4,054167	0,1	0,217538
4,055833	0,1	0,190713
4,057500	0,1	0,219074
4,059167	0,1	0,228731
4,060833	0,1	0,249522
4,062500	0,1	0,230934
4,064167	0,1	0,247619
4,065833	0,1	0,230833
4,067500	0,1	0,274957
4,069167	0,1	0,265416
4,070833	0,1	0,277436
4,072500	0,1	0,303642
4,074167	0,1	0,233506
4,075833	0,1	0,290952
4,077500	0,1	0,311240
4,079167	0,1	0,305960
4,080833	0,1	0,325944
4,082500	0,1	0,347763
4,084167	0,1	0,289531
4,085833	0,1	0,299558
4,087500	0,1	0,285947
4,089167	0,1	0,350807
4,090833	0,1	0,391492
4,092500	0,1	0,366857
4,094167	0,1	0,402862
4,095833	0,1	0,368790
4,097500	0,1	0,386703
4,099167	0,1	0,401707
4,100833	0,1	0,454551
4,102500	0,1	0,394544
4,104167	0,1	0,429991
4,105833	0,1	0,434860
4,107500	0,1	0,482269
4,109167	0,1	0,474489
4,110833	0,1	0,482983
4,112500	0,1	0,482924
4,114167	0,1	0,509156
4,115833	0,1	0,514855
4,117500	0,1	0,495354
4,119167	0,1	0,598676
4,120833	0,1	0,543560
4,122500	0,1	0,529543
4,124167	0,1	0,566687
4,125833	0,1	0,578704
4,127500	0,1	0,587043
4,129167	0,1	0,587689
4,130833	0,1	0,633211
4,132500	0,1	0,637021
4,134167	0,1	0,620445
4,135833	0,1	0,637312
4,137500	0,1	0,665680
4,139167	0,1	0,666266
4,140833	0,1	0,651616
4,142500	0,1	0,650519
4,144167	0,1	0,684234
4,145833	0,1	0,655327
4,147500	0,1	0,722545
4,149167	0,1	0,724045
4,150833	0,1	0,729010
4,152500	0,1	0,729620
4,154167	0,1	0,714581
4,155833	0,1	0,754157
4,157500	0,1	0,757544
4,159167	0,1	0,786887
4,160833	0,1	0,717722
4,162500	0,1	0,784402
4,164167	0,1	0,768661
4,165833	0,1	0,826184
4,167500	0,1	0,820371
4,169167	0,1	0,798075
4,170833	0,1	0,859400
4,172500	0,1	0,820801
4,174167	0,1	0,860275
4,175833	0,1	0,805275
4,177500	0,1	0,848806
4,179167	0,1	0,861739
4,180833	0,1	0,889762
4,182500	0,1	0,871770
4,184167	0,1	0,857394
4,185833	0,1	0,840903
4,187500	0,1	0,905313
4,189167	0,1	0,882751
4,190833	0,1	0,860302
4,192500	0,1	0,911207
4,194167	0,1	0,904371
4,195833	0,1	0,892862
4,197500	0,1	0,884525
4,199167	0,1	0,893806
4,200833	0,1	0,905985
4,202500	0,1	0,858979
4,204167	0,1	0,921375
4,205833	0,1	0,885017
4,207500	0,1	0,912648
4,209167	0,1	0,925767
4,210833	0,1	0,905846
4,212500	0,1	0,922345
4,214167	0,1	0,889239
4,215833	0,1	0,921961
4,217500	0,1	0,909882
4,219167	0,1	0,906319
4,220833	0,1	0,919229
4,222500	0,1	0,926016
4,224167	0,1	0,899864
4,225833	0,1	0,931719
4,227500	0,1	0,916222
4,229167	0,1	0,921941
4,230833	0,1	0,923347
4,232500	0,1	0,933882
4,234167	0,1	0,976149
4,235833	0,1	0,935762
4,237500	0,1	0,919907
4,239167	0,1	0,899731
4,240833	0,1	0,919766
4,242500	0,1	0,933683
4,244167	0,1	0,902509
4,245833	0,1	0,876571
4,247500	0,1	0,909161
4,249167	0,1	0,871089
4,250833	0,1	0,876944
4,252500	0,1	0,839776
4,254167	0,1	0,879687
4,255833	0,1	0,881851
4,257500	0,1	0,894211
4,259167	0,1	0,895925
4,260833	0,1	0,871612
4,262500	0,1	0,865257
4,264167	0,1	0,853434
4,265833	0,1	0,885118
4,267500	0,1	0,840935
4,269167	0,1	0,888956
4,270833	0,1	0,874596
4,272500	0,1	0,885768
4,274167	0,1	0,844709
4,275833	0,1	0,820416
4,277500	0,1	0,834648
4,279167	0,1	0,851968
4,280833	0,1	0,855219
4,282500	0,1	0,863951
4,284167	0,1	0,850753
4,285833	0,1	0,858796
4,287500	0,1	0,822312
4,289167	0,1	0,783560
4,290833	0,1	0,837401
4,292500	0,1	0,806689
4,294167	0,1	0,829451
4,295833	0,1	0,860474
4,297500	0,1	0,824824
4,299167	0,1	0,780432
4,300833	0,1	0,789701
4,302500	0,1	0,773142
4,304167	0,1	0,793751
4,305833	0,1	0,812149
4,307500	0,1	0,782522
4,309167	0,1	0,775269
4,310833	0,1	0,762963
4,312500	0,1	0,761616
4,314167	0,1	0,783284
4,315833	0,1	0,757421
4,317500	0,1	0,778065
4,319167	0,1	0,719913
4,320833	0,1	0,751582
4,322500	0,1	0,758580
4,324167	0,1	0,773229
4,325833	0,1	0,736041
4,327500	0,1	0,744435
4,329167	0,1	0,755770
4,330833	0,1	0,715457
4,332500	0,1	0,740183
4,334167	0,1	0,738993
4,335833	0,1	0,760892
4,337500	0,1	0,700940
4,339167	0,1	0,719308
4,340833	0,1	0,695425
4,342500	0,1	0,695252
4,344167	0,1	0,703176
4,345833	0,1	0,749803
4,347500	0,1	0,724630
4,349167	0,1	0,694002
4,350833	0,1	0,721630
4,352500	0,1	0,693682
4,354167	0,1	0,679253
4,355833	0,1	0,684077
4,357500	0,1	0,701141
4,359167	0,1	0,686269
4,360833	0,1	0,689649
4,362500	0,1	0,686944
4,364167	0,1	0,681531
4,365833	0,1	0,658027
4,367500	0,1	0,681366
4,369167	0,1	0,680149
4,370833	0,1	0,650814
4,372500	0,1	0,647558
4,374167	0,1	0,650647
4,375833	0,1	0,673507
4,377500	0,1	0,678599
4,379167	0,1	0,637003
4,380833	0,1	0,625467
4,382500	0,1	0,663392
4,384167	0,1	0,603066
4,385833	0,1	0,644068
4,387500	0,1	0,645075
4,389167	0,1	0,637992
4,390833	0,1	0,606085
4,392500	0,1	0,610167
4,394167	0,1	0,645771
4,395833	0,1	0,604573
4,397500	0,1	0,602022
4,399167	0,1	0,596192
4,400833	0,1	0,590043
4,402500	0,1	0,581929
4,404167	0,1	0,628444
4,405833	0,1	0,609496
4,407500	0,1	0,609298
4,409167	0,1	0,582578
4,410833	0,1	0,583537
4,412500	0,1	0,586821
4,414167	0,1	0,521570
4,415833	0,1	0,535172
4,417500	0,1	0,588127
4,419167	0,1	0,555403
4,420833	0,1	0,585591
4,422500	0,1	0,530874
4,424167	0,1	0,517471
4,425833	0,1	0,530245
4,427500	0,1	0,548274
4,429167	0,1	0,515831
4,430833	0,1	0,512927
4,432500	0,1	0,529470
4,434167	0,1	0,518016
4,435833	0,1	0,521137
4,437500	0,1	0,508166
4,439167	0,1	0,484570
4,440833	0,1	0,462614
4,442500	0,1	0,502583
4,444167	0,1	0,469152
4,445833	0,1	0,495442
4,447500	0,1	0,468474
4,449167	0,1	0,496695
4,450833	0,1	0,478034
4,452500	0,1	0,444619
4,454167	0,1	0,469846
4,455833	0,1	0,425279
4,457500	0,1	0,456036
4,459167	0,1	0,450702
4,460833	0,1	0,435994
4,462500	0,1	0,456071
4,464167	0,1	0,405288
4,465833	0,1	0,415191
4,467500	0,1	0,391219
4,469167	0,1	0,408363
4,470833	0,1	0,429223
4,472500	0,1	0,397565
4,474167	0,1	0,379983
4,475833	0,1	0,390149
4,477500	0,1	0,388999
4,479167	0,1	0,363540
4,480833	0,1	0,376278
4,482500	0,1	0,414929
4,484167	0,1	0,403226
4,485833	0,1	0,361004
4,487500	0,1	0,358873
4,489167	0,1	0,370556
4,490833	0,1	0,357461
4,492500	0,1	0,360768
4,494167	0,1	0,352793
4,495833	0,1	0,350797
4,497500	0,1	0,344615
4,499167	0,1	0,372963
4,500833	0,1	0,357300
4,502500	0,1	0,337348
4,504167	0,1	0,356484
4,505833	0,1	0,384033
4,507500	0,1	0,326796
4,509167	0,1	0,295127
4,510833	0,1	0,296343
4,512500	0,1	0,292282
4,514167	0,1	0,311430
4,515833	0,1	0,301368
4,517500	0,1	0,317993
4,519167	0,1	0,268832
4,520833	0,1	0,271659
4,522500	0,1	0,286358
4,524167	0,1	0,292807
4,525833	0,1	0,283727
4,527500	0,1	0,295444
4,529167	0,1	0,269861
4,530833	0,1	0,278120
4,532500	0,1	0,260498
4,534167	0,1	0,281737
4,535833	0,1	0,254960
4,537500	0,1	0,252507
4,539167	0,1	0,266255
4,540833	0,1	0,220582
4,542500	0,1	0,231659
4,544167	0,1	0,248236
4,545833	0,1	0,242413
4,547500	0,1	0,236079
4,549167	0,1	0,238133
4,550833	0,1	0,244239
4,552500	0,1	0,242449
4,554167	0,1	0,233254
4,555833	0,1	0,224028
4,557500	0,1	0,221592
4,559167	0,1	0,220471
4,560833	0,1	0,248462
4,562500	0,1	0,233507
4,564167	0,1	0,197667
4,565833	0,1	0,264162
4,567500	0,1	0,216041
4,569167	0,1	0,217064
4,570833	0,1	0,203453
4,572500	0,1	0,231606
4,574167	0,1	0,239671
4,575833	0,1	0,202071
4,577500	0,1	0,126160
4,579167	0,1	0,164421
4,580833	0,1	0,175302
4,582500	0,1	0,197615
4,584167	0,1	0,198389
4,585833	0,1	0,178134
4,587500	0,1	0,180285
4,589167	0,1	0,192116
4,590833	0,1	0,199172
4,592500	0,1	0,180934
4,594167	0,1	0,163892
4,595833	0,1	0,136731
4,597500	0,1	0,175271
4,599167	0,1	0,170535
4,600833	0,1	0,211616
4,602500	0,1	0,140601
4,604167	0,1	0,171045
4,605833	0,1	0,155448
4,607500	0,1	0,149384
4,609167	0,1	0,115544
4,610833	0,1	0,176490
4,612500	0,1	0,160800
4,614167	0,1	0,152229
4,615833	0,1	0,161500
4,617500	0,1	0,162789
4,619167	0,1	0,153040
4,620833	0,1	0,086646
4,622500	0,1	0,141381
4,624167	0,1	0,137678
4,625833	0,1	0,154626
4,627500	0,1	0,103906
4,629167	0,1	0,169829
4,630833	0,1	0,133227
4,632500	0,1	0,139957
4,634167	0,1	0,139110
4,635833	0,1	0,127595
4,637500	0,1	0,131326
4,639167	0,1	0,078652
4,640833	0,1	0,132932
4,642500	0,1	0,174109
4,644167	0,1	0,122271
4,645833	0,1	0,165415
4,647500	0,1	0,143990
4,649167	0,1	0,110293
4,650833	0,1	0,135574
4,652500	0,1	0,127594
4,654167	0,1	0,132113
4,655833	0,1	0,128549
4,657500	0,1	0,123983
4,659167	0,1	0,128047
4,660833	0,1	0,124793
4,662500	0,1	0,094666
4,664167	0,1	0,125012
4,665833	0,1	0,111906
4,667500	0,1	0,136281
4,669167	0,1	0,137055
4,670833	0,1	0,081269
4,672500	0,1	0,133388
4,674167	0,1	0,080355
4,675833	0,1	0,097208
4,677500	0,1	0,138063
4,679167	0,1	0,058386
4,680833	0,1	0,059072
4,682500	0,1	0,100855
4,684167	0,1	0,091736
4,685833	0,1	0,088476
4,687500	0,1	0,099097
4,689167	0,1	0,135408
4,690833	0,1	0,096558
4,692500	0,1	0,065077
4,694167	0,1	0,087121
4,695833	0,1	0,093765
4,697500	0,1	0,101546
4,699167	0,1	0,105199
4,700833	0,1	0,106175
4,702500	0,1	0,072920
4,704167	0,1	0,101603
4,705833	0,1	0,074705
4,707500	0,1	0,106998
4,709167	0,1	0,069705
4,710833	0,1	0,115046
4,712500	0,1	0,030625
4,714167	0,1	0,091490
4,715833	0,1	0,075345
4,717500	0,1	0,056733
4,719167	0,1	0,093074
4,720833	0,1	0,084867
4,722500	0,1	0,103434
4,724167	0,1	0,109847
4,725833	0,1	0,069644
4,727500	0,1	0,097993
4,729167	0,1	0,083832
4,730833	0,1	0,075114
4,732500	0,1	0,123221
4,734167	0,1	0,070333
4,735833	0,1	0,074428
4,737500	0,1	0,114240
4,739167	0,1	0,094312
4,740833	0,1	0,076278
4,742500	0,1	0,086211
4,744167	0,1	0,077336
4,745833	0,1	0,051527
4,747500	0,1	0,085543
4,749167	0,1	0,079284
4,750833	0,1	0,074387
4,752500	0,1	0,095566
4,754167	0,1	0,066011
4,755833	0,1	0,070255
4,757500	0,1	0,097767
4,759167	0,1	0,074372
4,760833	0,1	0,076358
4,762500	0,1	0,063310
4,764167	0,1	0,091291
4,765833	0,1	0,112170
4,767500	0,1	0,085348
4,769167	0,1	0,089574
4,770833	0,1	0,081174
4,772500	0,1	0,064327
4,774167	0,1	0,065048
4,775833	0,1	0,084985
4,777500	0,1	0,044412
4,779167	0,1	0,074566
4,780833	0,1	0,064636
4,782500	0,1	0,108801
4,784167	0,1	0,049584
4,785833	0,1	0,092761
4,787500	0,1	0,072068
4,789167	0,1	0,100648
4,790833	0,1	0,100698
4,792500	0,1	0,092876
4,794167	0,1	0,041450
4,795833	0,1	0,094065
4,797500	0,1	0,049062
4,799167	0,1	0,048346
4,800833	0,1	0,066519
4,802500	0,1	0,077309
4,804167	0,1	0,053953
4,805833	0,1	0,063386
4,807500	0,1	0,063264
4,809167	0,1	0,075131
4,810833	0,1	0,068100
4,812500	0,1	0,091955
4,814167	0,1	0,082876
4,815833	0,1	0,051755
4,817500	0,1	0,102697
4,819167	0,1	0,028050
4,820833	0,1	0,076990
4,822500	0,1	0,053435
4,824167	0,1	0,045050
4,825833	0,1	0,062368
4,827500	0,1	0,076831
4,829167	0,1	0,084240
4,830833	0,1	0,053769
4,832500	0,1	0,062475
4,834167	0,1	0,089798
4,835833	0,1	0,068001
4,837500	0,1	0,041339
4,839167	0,1	0,071681
4,840833	0,1	0,080007
4,842500	0,1	0,053519
4,844167	0,1	0,085603
4,845833	0,1	0,056487
4,847500	0,1	0,085875
4,849167	0,1	0,032154
4,850833	0,1	0,064005
4,852500	0,1	0,043475
4,854167	0,1	0,080768
4,855833	0,1	0,038751
4,857500	0,1	0,060126
4,859167	0,1	0,067559
4,860833	0,1	0,080628
4,862500	0,1	0,068642
4,864167	0,1	0,028832
4,865833	0,1	0,041702
4,867500	0,1	0,067760
4,869167	0,1	0,041339
4,870833	0,1	0,093422
4,872500	0,1	0,075138
4,874167	0,1	0,052315
4,875833	0,1	0,090354
4,877500	0,1	0,045451
4,879167	0,1	0,061581
4,880833	0,1	0,026444
4,882500	0,1	0,090410
4,884167	0,1	0,061341
4,885833	0,1	0,064655
4,887500	0,1	0,086852
4,889167	0,1	0,064618
4,890833	0,1	0,066585
4,892500	0,1	0,047417
4,894167	0,1	0,080230
4,895833	0,1	0,090009
4,897500	0,1	0,084597
4,899167	0,1	0,071069
4,900833	0,1	0,063433
4,902500	0,1	0,060962
4,904167	0,1	0,083449
4,905833	0,1	0,059080
4,907500	0,1	0,057994
4,909167	0,1	0,055297
4,910833	0,1	0,035840
4,912500	0,1	0,068464
4,914167	0,1	0,082227
4,915833	0,1	0,044038
4,917500	0,1	0,076599
4,919167	0,1	0,059265
4,920833	0,1	0,030364
4,922500	0,1	0,044650
4,924167	0,1	0,102633
4,925833	0,1	0,053276
4,927500	0,1	0,071518
4,929167	0,1	0,053371
4,930833	0,1	0,030798
4,932500	0,1	0,073588
4,934167	0,1	0,059948
4,935833	0,1	0,050920
4,937500	0,1	0,032665
4,939167	0,1	0,087507
4,940833	0,1	0,047671
4,942500	0,1	0,069734
4,944167	0,1	0,082392
4,945833	0,1	0,061796
4,947500	0,1	0,077060
4,949167	0,1	0,082291
4,950833	0,1	0,045368
4,952500	0,1	0,087324
4,954167	0,1	0,076961
4,955833	0,1	0,032049
4,957500	0,1	0,075413
4,959167	0,1	0,112891
4,960833	0,1	0,030666
4,962500	0,1	0,059378
4,964167	0,1	0,113281
4,965833	0,1	0,064811
4,967500	0,1	0,051046
4,969167	0,1	0,033409
4,970833	0,1	0,062346
4,972500	0,1	0,015823
4,974167	0,1	0,059664
4,975833	0,1	0,063636
4,977500	0,1	0,049116
4,979167	0,1	0,035195
4,980833	0,1	0,100993
4,982500	0,1	0,070617
4,984167	0,1	0,075257
4,985833	0,1	0,057106
4,987500	0,1	0,094755
4,989167	0,1	0,035247
4,990833	0,1	0,020984
4,992500	0,1	0,061864
4,994167	0,1	0,069197
4,995833	0,1	0,075484
4,997500	0,1	0,038768
4,999167	0,1	0,050418
5,000833	0,1	0,058511
5,002500	0,1	0,058556
5,004167	0,1	0,078572
5,005833	0,1	0,065883
5,007500	0,1	0,066480
5,009167	0,1	0,056753
5,010833	0,1	0,050609
5,012500	0,1	0,054466
5,014167	0,1	0,061727
5,015833	0,1	0,048619
5,017500	0,1	0,057286
5,019167	0,1	0,063014
5,020833	0,1	0,040508
5,022500	0,1	0,018640
5,024167	0,1	0,054955
5,025833	0,1	0,074569
5,027500	0,1	0,069117
5,029167	0,1	0,061357
5,030833	0,1	0,054033
5,032500	0,1	0,047623
5,034167	0,1	0,031980
5,035833	0,1	0,041622
5,037500	0,1	0,095890
5,039167	0,1	0,033319
5,040833	0,1	0,040336
5,042500	0,1	0,056184
5,044167	0,1	0,057393
5,045833	0,1	0,035778
5,047500	0,1	0,062095
5,049167	0,1	0,046938
5,050833	0,1	0,061995
5,052500	0,1	0,036941
5,054167	0,1	0,048324
5,055833	0,1	0,050566
5,057500	0,1	0,036234
5,059167	0,1	0,018164
5,060833	0,1	0,061948
5,062500	0,1	0,100003
5,064167	0,1	0,099431
5,065833	0,1	0,027385
5,067500	0,1	0,052717
5,069167	0,1	0,068843
5,070833	0,1	0,023853
5,072500	0,1	0,026435
5,074167	0,1	0,056638
5,075833	0,1	-0,010580
5,077500	0,1	0,056423
5,079167	0,1	0,049987
5,080833	0,1	0,039200
5,082500	0,1	0,028742
5,084167	0,1	0,080475
5,085833	0,1	0,047421
5,087500	0,1	0,033555
5,089167	0,1	0,027973
5,090833	0,1	0,070931
5,092500	0,1	0,017839
5,094167	0,1	0,021645
5,095833	0,1	0,035708
5,097500	0,1	0,052492
5,099167	0,1	0,003317
5,100833	0,1	0,043376
5,102500	0,1	0,046499
5,104167	0,1	0,035027
5,105833	0,1	0,058072
5,107500	0,1	0,024119
5,109167	0,1	0,030024
5,110833	0,1	0,017289
5,112500	0,1	0,047117
5,114167	0,1	0,024119
5,115833	0,1	0,011731
5,117500	0,1	0,019462
5,119167	0,1	0,001256
5,120833	0,1	0,012224
5,122500	0,1	0,017825
5,124167	0,1	0,034753
5,125833	0,1	0,017229
5,127500	0,1	0,031724
5,129167	0,1	0,036291
5,130833	0,1	0,044465
5,132500	0,1	0,007049
5,134167	0,1	0,083623
5,135833	0,1	0,037050
5,137500	0,1	0,008558
5,139167	0,1	0,032965
5,140833	0,1	-0,004571
5,142500	0,1	-0,001761
5,144167	0,1	0,033211
5,145833	0,1	0,078298
5,147500	0,1	0,060033
5,149167	0,1	-0,005954
5,150833	0,1	0,059888
5,152500	0,1	0,029930
5,154167	0,1	0,046704
5,155833	0,1	0,014660
5,157500	0,1	0,030709
5,159167	0,1	0,013080
5,160833	0,1	0,031475
5,162500	0,1	0,033800
5,164167	0,1	0,030089
5,165833	0,1	0,034881
5,167500	0,1	0,055708
5,169167	0,1	0,080584
5,170833	0,1	0,034725
5,172500	0,1	0,014801
5,174167	0,1	0,051428
5,175833	0,1	0,046979
5,177500	0,1	0,022148
5,179167	0,1	0,004658
5,180833	0,1	0,041824
5,182500	0,1	0,021150
5,184167	0,1	0,049895
5,185833	0,1	0,000535
5,187500	0,1	0,065780
5,189167	0,1	0,024642
5,190833	0,1	0,008534
5,192500	0,1	0,016579
5,194167	0,1	0,023964
5,195833	0,1	0,030086
5,197500	0,1	0,049254
5,199167	0,1	0,036442
5,200833	0,1	-0,014442
5,202500	0,1	0,020494
5,204167	0,1	-0,000634
5,205833	0,1	0,051300
5,207500	0,1	0,023954
5,209167	0,1	-0,004739
5,210833	0,1	0,007076
5,212500	0,1	0,020729
5,214167	0,1	0,019260
5,215833	0,1	0,017535
5,217500	0,1	0,001397
5,219167	0,1	0,050431
5,220833	0,1	0,039262
5,222500	0,1	0,006962
5,224167	0,1	0,030787
5,225833	0,1	-0,006976
5,227500	0,1	0,022259
5,229167	0,1	0,010153
5,230833	0,1	0,012828
5,232500	0,1	0,009094
5,234167	0,1	0,024171
5,235833	0,1	0,033779
5,237500	0,1	0,016358
5,239167	0,1	0,028031
5,240833	0,1	0,014593
5,242500	0,1	0,009570
5,244167	0,1	-0,014968
5,245833	0,1	0,038874
5,247500	0,1	0,033119
5,249167	0,1	0,026811
5,250833	0,1	0,008325
5,252500	0,1	0,021413
5,254167	0,1	0,001938
5,255833	0,1	0,013611
5,257500	0,1	0,012018
5,259167	0,1	0,040061
5,260833	0,1	0,018663
5,262500	0,1	0,000094
5,264167	0,1	0,044727
5,265833	0,1	-0,004964
5,267500	0,1	0,009028
5,269167	0,1	-0,007957
5,270833	0,1	0,028379
5,272500	0,1	0,024778
5,274167	0,1	0,037284
5,275833	0,1	-0,001583
5,277500	0,1	-0,003170
5,279167	0,1	0,033814
5,280833	0,1	-0,016495
5,282500	0,1	-0,009435
5,284167	0,1	-0,018187
5,285833	0,1	-0,012984
5,287500	0,1	0,043438
5,289167	0,1	0,007297
5,290833	0,1	-0,011031
5,292500	0,1	-0,023974
5,294167	0,1	-0,003007
5,295833	0,1	-0,038945
5,297500	0,1	0,011530
5,299167	0,1	-0,013039
5,300833	0,1	0,004543
5,302500	0,1	-0,021171
5,304167	0,1	-0,013067
5,305833	0,1	0,020081
5,307500	0,1	0,021602
5,309167	0,1	0,003847
5,310833	0,1	0,019504
5,312500	0,1	-0,001236
5,314167	0,1	0,013445
5,315833	0,1	-0,017081
5,317500	0,1	0,001557
5,319167	0,1	0,027695
5,320833	0,1	0,002043
5,322500	0,1	0,022303
5,324167	0,1	0,011211
5,325833	0,1	0,032678
5,327500	0,1	0,014052
5,329167	0,1	-0,005594
5,330833	0,1	-0,001841
5,332500	0,1	-0,031935
5,334167	0,1	-0,003239
5,335833	0,1	-0,010780
5,337500	0,1	0,020433
5,339167	0,1	-0,022372
5,340833	0,1	-0,022526
5,342500	0,1	0,004665
5,344167	0,1	0,031721
5,345833	0,1	-0,037924
5,347500	0,1	0,006590
5,349167	0,1	-0,008601
5,350833	0,1	0,023772
5,352500	0,1	-0,013431
5,354167	0,1	-0,020364
5,355833	0,1	-0,013541
5,357500	0,1	-0,039282
5,359167	0,1	-0,042671
5,360833	0,1	-0,010146
5,362500	0,1	-0,002134
5,364167	0,1	-0,026898
5,365833	0,1	-0,014997
5,367500	0,1	-0,035152
5,369167	0,1	-0,007469
5,370833	0,1	-0,035442
5,372500	0,1	0,028249
5,374167	0,1	-0,007639
5,375833	0,1	-0,013372
5,377500	0,1	-0,021774
5,379167	0,1	-0,046999
5,380833	0,1	-0,041572
5,382500	0,1	0,005389
5,384167	0,1	0,001852
5,385833	0,1	-0,003231
5,387500	0,1	-0,015033
5,389167	0,1	-0,009936
5,390833	0,1	-0,004643
5,392500	0,1	-0,049612
5,394167	0,1	-0,013239
5,395833	0,1	-0,014331
5,397500	0,1	-0,011779
5,399167	0,1	-0,031505
5,400833	0,1	-0,019083
5,402500	0,1	0,006471
5,404167	0,1	-0,025672
5,405833	0,1	0,025098
5,407500	0,1	-0,000196
5,409167	0,1	0,005337
5,410833	0,1	-0,035667
5,412500	0,1	0,019993
5,414167	0,1	-0,012517
5,415833	0,1	-0,029427
5,417500	0,1	-0,006763
5,419167	0,1	0,009214
5,420833	0,1	-0,023327
5,422500	0,1	-0,034222
5,424167	0,1	-0,003010
5,425833	0,1	0,015272
5,427500	0,1	-0,026102
5,429167	0,1	-0,002409
5,430833	0,1	0,008861
5,432500	0,1	0,007516
5,434167	0,1	-0,034549
5,435833	0,1	-0,016866
5,437500	0,1	0,010329
5,439167	0,1	-0,057385
5,440833	0,1	0,003229
5,442500	0,1	-0,061260
5,444167	0,1	0,023512
5,445833	0,1	-0,005712
5,447500	0,1	0,034956
5,449167	0,1	-0,007618
5,450833	0,1	-0,009663
5,452500	0,1	0,004049
5,454167	0,1	0,020627
5,455833	0,1	-0,033796
5,457500	0,1	0,006387
5,459167	0,1	-0,014264
5,460833	0,1	-0,035840
5,462500	0,1	-0,014999
5,464167	0,1	-0,001430
5,465833	0,1	-0,034093
5,467500	0,1	-0,011598
5,469167	0,1	-0,012631
5,470833	0,1	0,014813
5,472500	0,1	-0,037947
5,474167	0,1	-0,000686
5,475833	0,1	-0,004913
5,477500	0,1	0,016785
5,479167	0,1	-0,035911
5,480833	0,1	0,007673
5,482500	0,1	-0,007916
5,484167	0,1	-0,018063
5,485833	0,1	0,000914
5,487500	0,1	-0,004307
5,489167	0,1	-0,029425
5,490833	0,1	-0,025099
5,492500	0,1	-0,009004
5,494167	0,1	-0,021798
5,495833	0,1	-0,030945
5,497500	0,1	-0,014145
5,499167	0,1	-0,021299
5,500833	0,1	-0,010203
5,502500	0,1	-0,022461
5,504167	0,1	0,035281
5,505833	0,1	0,009100
5,507500	0,1	-0,041514
5,509167	0,1	-0,002760
5,510833	0,1	-0,018787
5,512500	0,1	-0,024743
5,514167	0,1	-0,007570
5,515833	0,1	0,022943
5,517500	0,1	-0,035416
5,519167	0,1	0,009248
5,520833	0,1	-0,041621
5,522500	0,1	0,024970
5,524167	0,1	0,023594
5,525833	0,1	0,004947
5,527500	0,1	0,006582
5,529167	0,1	-0,029175
5,530833	0,1	-0,016469
5,532500	0,1	-0,013127
5,534167	0,1	-0,033268
5,535833	0,1	0,008502
5,537500	0,1	0,014983
5,539167	0,1	-0,000821
5,540833	0,1	-0,024219
5,542500	0,1	-0,023565
5,544167	0,1	-0,039470
5,545833	0,1	0,020821
5,547500	0,1	-0,012413
5,549167	0,1	0,005186
5,550833	0,1	-0,003663
5,552500	0,1	0,027592
5,554167	0,1	-0,016188
5,555833	0,1	-0,036792
5,557500	0,1	0,021131
5,559167	0,1	-0,006108
5,560833	0,1	-0,008209
5,562500	0,1	0,031989
5,564167	0,1	-0,012119
5,565833	0,1	0,000396
5,567500	0,1	-0,009060
5,569167	0,1	-0,021006
5,570833	0,1	-0,007527
5,572500	0,1	0,064576
5,574167	0,1	-0,002425
5,575833	0,1	0,015934
5,577500	0,1	0,045703
5,579167	0,1	-0,001828
5,580833	0,1	-0,022953
5,582500	0,1	-0,013604
5,584167	0,1	-0,017256
5,585833	0,1	0,014125
5,587500	0,1	0,026726
5,589167	0,1	0,020300
5,590833	0,1	-0,026249
5,592500	0,1	-0,008547
5,594167	0,1	0,019315
5,595833	0,1	0,005733
5,597500	0,1	0,006600
5,599167	0,1	-0,018599
5,600833	0,1	-0,004416
5,602500	0,1	-0,010243
5,604167	0,1	0,012218
5,605833	0,1	0,009551
5,607500	0,1	0,023072
5,609167	0,1	0,011191
5,610833	0,1	0,070327
5,612500	0,1	-0,003029
5,614167	0,1	0,029272
5,615833	0,1	0,022371
5,617500	0,1	0,020813
5,619167	0,1	0,002728
5,620833	0,1	0,016245
5,622500	0,1	0,000754
5,624167	0,1	0,011268
5,625833	0,1	0,015524
5,627500	0,1	0,026518
5,629167	0,1	0,031830
5,630833	0,1	0,048882
5,632500	0,1	0,025697
5,634167	0,1	0,037576
5,635833	0,1	0,021898
5,637500	0,1	0,028529
5,639167	0,1	0,073525
5,640833	0,1	0,024022
5,642500	0,1	0,044938
5,644167	0,1	0,026982
5,645833	0,1	0,025692
5,647500	0,1	0,047116
5,649167	0,1	0,070811
5,650833	0,1	0,027858
5,652500	0,1	0,033385
5,654167	0,1	0,048093
5,655833	0,1	0,063179
5,657500	0,1	0,040303
5,659167	0,1	0,016794
5,660833	0,1	0,057778
5,662500	0,1	0,018936
5,664167	0,1	0,041827
5,665833	0,1	0,083340
5,667500	0,1	0,073890
5,669167	0,1	0,055779
5,670833	0,1	0,027770
5,672500	0,1	0,046163
5,674167	0,1	0,029200
5,675833	0,1	0,042864
5,677500	0,1	0,040379
5,679167	0,1	0,070291
5,680833	0,1	0,044182
5,682500	0,1	0,056207
5,684167	0,1	0,062038
5,685833	0,1	0,062685
5,687500	0,1	0,071107
5,689167	0,1	0,065362
5,690833	0,1	0,049408
5,692500	0,1	0,051458
5,694167	0,1	0,068675
5,695833	0,1	0,062457
5,697500	0,1	0,071707
5,699167	0,1	0,077434
5,700833	0,1	0,110234
5,702500	0,1	0,107505
5,704167	0,1	0,081905
5,705833	0,1	0,097664
5,707500	0,1	0,080409
5,709167	0,1	0,092083
5,710833	0,1	0,112748
5,712500	0,1	0,117921
5,714167	0,1	0,108233
5,715833	0,1	0,120344
5,717500	0,1	0,128564
5,719167	0,1	0,092344
5,720833	0,1	0,100095
5,722500	0,1	0,100137
5,724167	0,1	0,115470
5,725833	0,1	0,052925
5,727500	0,1	0,123320
5,729167	0,1	0,127404
5,730833	0,1	0,121429
5,732500	0,1	0,120121
5,734167	0,1	0,142527
5,735833	0,1	0,110335
5,737500	0,1	0,106364
5,739167	0,1	0,098126
5,740833	0,1	0,114826
5,742500	0,1	0,143380
5,744167	0,1	0,097866
5,745833	0,1	0,130343
5,747500	0,1	0,124231
5,749167	0,1	0,122032
5,750833	0,1	0,133296
5,752500	0,1	0,141431
5,754167	0,1	0,134069
5,755833	0,1	0,125000
5,757500	0,1	0,106243
5,759167	0,1	0,157358
5,760833	0,1	0,117640
5,762500	0,1	0,119247
5,764167	0,1	0,136261
5,765833	0,1	0,160933
5,767500	0,1	0,147039
5,769167	0,1	0,106517
5,770833	0,1	0,142627
5,772500	0,1	0,173861
5,774167	0,1	0,151089
5,775833	0,1	0,125648
5,777500	0,1	0,126555
5,779167	0,1	0,142323
5,780833	0,1	0,151787
5,782500	0,1	0,140048
5,784167	0,1	0,153153
5,785833	0,1	0,177393
5,787500	0,1	0,124305
5,789167	0,1	0,135619
5,790833	0,1	0,143424
5,792500	0,1	0,159547
5,794167	0,1	0,187146
5,795833	0,1	0,146277
5,797500	0,1	0,153985
5,799167	0,1	0,145751
5,800833	0,1	0,188923
5,802500	0,1	0,157503
5,804167	0,1	0,149635
5,805833	0,1	0,143844
5,807500	0,1	0,159836
5,809167	0,1	0,159756
5,810833	0,1	0,159197
5,812500	0,1	0,162395
5,814167	0,1	0,147164
5,815833	0,1	0,171147
5,817500	0,1	0,162478
5,819167	0,1	0,159944
5,820833	0,1	0,161731
5,822500	0,1	0,144695
5,824167	0,1	0,132367
5,825833	0,1	0,163984
5,827500	0,1	0,158578
5,829167	0,1	0,184636
5,830833	0,1	0,130408
5,832500	0,1	0,147010
5,834167	0,1	0,189739
5,835833	0,1	0,143853
5,837500	0,1	0,132283
5,839167	0,1	0,153818
5,840833	0,1	0,163948
5,842500	0,1	0,183225
5,844167	0,1	0,160922
5,845833	0,1	0,179074
5,847500	0,1	0,186279
5,849167	0,1	0,156984
5,850833	0,1	0,151957
5,852500	0,1	0,150214
5,854167	0,1	0,143445
5,855833	0,1	0,126039
5,857500	0,1	0,142260
5,859167	0,1	0,132241
5,860833	0,1	0,141744
5,862500	0,1	0,137387
5,864167	0,1	0,140687
5,865833	0,1	0,131267
5,867500	0,1	0,143795
5,869167	0,1	0,114588
5,870833	0,1	0,136737
5,872500	0,1	0,113924
5,874167	0,1	0,152754
5,875833	0,1	0,119050
5,877500	0,1	0,128895
5,879167	0,1	0,146406
5,880833	0,1	0,140729
5,882500	0,1	0,122531
5,884167	0,1	0,110848
5,885833	0,1	0,116342
5,887500	0,1	0,125452
5,889167	0,1	0,125287
5,890833	0,1	0,127011
5,892500	0,1	0,143439
5,894167	0,1	0,128799
5,895833	0,1	0,137651
5,897500	0,1	0,145809
5,899167	0,1	0,111041
5,900833	0,1	0,117652
5,902500	0,1	0,097217
5,904167	0,1	0,135925
5,905833	0,1	0,100749
5,907500	0,1	0,117832
5,909167	0,1	0,126095
5,910833	0,1	0,114315
5,912500	0,1	0,086054
5,914167	0,1	0,127499
5,915833	0,1	0,080229
5,917500	0,1	0,093494
5,919167	0,1	0,088187
5,920833	0,1	0,114345
5,922500	0,1	0,141507
5,924167	0,1	0,120375
5,925833	0,1	0,082219
5,927500	0,1	0,111771
5,929167	0,1	0,122878
5,930833	0,1	0,111138
5,932500	0,1	0,140574
5,934167	0,1	0,106390
5,935833	0,1	0,106923
5,937500	0,1	0,107130
5,939167	0,1	0,048381
5,940833	0,1	0,121827
5,942500	0,1	0,068341
5,944167	0,1	0,079779
5,945833	0,1	0,115028
5,947500	0,1	0,094103
5,949167	0,1	0,051137
5,950833	0,1	0,113256
5,952500	0,1	0,096406
5,954167	0,1	0,108788
5,955833	0,1	0,093563
5,957500	0,1	0,068645
5,959167	0,1	0,065694
5,960833	0,1	0,100729
5,962500	0,1	0,076342
5,964167	0,1	0,099592
5,965833	0,1	0,077379
5,967500	0,1	0,093762
5,969167	0,1	0,136854
5,970833	0,1	0,099253
5,972500	0,1	0,077007
5,974167	0,1	0,089178
5,975833	0,1	0,051862
5,977500	0,1	0,029804
5,979167	0,1	0,115784
5,980833	0,1	0,033034
5,982500	0,1	0,055521
5,984167	0,1	0,079941
5,985833	0,1	0,057648
5,987500	0,1	0,038786
5,989167	0,1	0,106116
5,990833	0,1	0,061864
5,992500	0,1	0,055798
5,994167	0,1	0,055069
5,995833	0,1	0,042541
5,997500	0,1	0,070105
5,999167	0,1	0,083471
6,000833	0,1	0,073684
