File Path	chrom://chromeleon01/ikbm_chromeleon/2022/Rezex/Esteban/220612_chitin_4_7.seq/802.smp/UV_VIS_1.channel/UV_VIS_1.chm
Channel	UV_VIS_1

Injection Information:
Data Vault	ikbm_chromeleon
Injection	A2ox 100
Injection Number	129
Position	RA4
Comment	
Processing Method	New ProcMethod
Instrument Method	Short_Rezex_6min_194nm
Type	Calibration Standard
Status	Finished
Injection Date	13.06.2022
Injection Time	07:02:23
Injection Volume (µl)	8,000
Dilution Factor	1,0000
Weight	1,0000

Chromatogram Data Information:
Time Min. (min)	0,000833
Time Max. (min)	6,000833
Data Points	3601
Detector	UV
Generating Data System	Chromeleon 7.2.9.11323
Exporting Data System	Chromeleon 7.2.9.0
Operator	Instrument Controller
Signal Quantity	Absorbance
Signal Unit	mAU
Signal Min.	-0,123026
Signal Max.	62,593532
Channel	UV_VIS_1
Driver Name	VWD3000.dll
Channel Type	Evaluation
Min. Step (s)	0,1
Max. Step (s)	0,1
Average Step (s)	0,1

Signal Parameter Information:
Signal Info	WVL:194 nm

Chromatogram Data:
Time (min)	Step (s)	Value (mAU)
0,000833	n.a.	-0,073309
0,002500	0,1	-0,053552
0,004167	0,1	-0,028431
0,005833	0,1	-0,014486
0,007500	0,1	-0,039082
0,009167	0,1	-0,070395
0,010833	0,1	-0,053491
0,012500	0,1	-0,018740
0,014167	0,1	-0,015706
0,015833	0,1	-0,029584
0,017500	0,1	-0,033796
0,019167	0,1	-0,024106
0,020833	0,1	-0,017863
0,022500	0,1	-0,032620
0,024167	0,1	-0,031702
0,025833	0,1	0,002995
0,027500	0,1	-0,037515
0,029167	0,1	-0,062099
0,030833	0,1	-0,065151
0,032500	0,1	-0,045446
0,034167	0,1	-0,096034
0,035833	0,1	-0,033089
0,037500	0,1	-0,068410
0,039167	0,1	-0,038342
0,040833	0,1	-0,025489
0,042500	0,1	-0,055464
0,044167	0,1	-0,033501
0,045833	0,1	-0,031693
0,047500	0,1	-0,024979
0,049167	0,1	-0,053311
0,050833	0,1	-0,069688
0,052500	0,1	-0,062648
0,054167	0,1	-0,052086
0,055833	0,1	-0,060059
0,057500	0,1	-0,042720
0,059167	0,1	-0,014842
0,060833	0,1	-0,081521
0,062500	0,1	-0,080014
0,064167	0,1	-0,073722
0,065833	0,1	-0,030589
0,067500	0,1	-0,055998
0,069167	0,1	-0,039152
0,070833	0,1	-0,076626
0,072500	0,1	-0,050067
0,074167	0,1	-0,038760
0,075833	0,1	-0,019860
0,077500	0,1	-0,043361
0,079167	0,1	-0,083740
0,080833	0,1	-0,028448
0,082500	0,1	-0,032222
0,084167	0,1	-0,094869
0,085833	0,1	-0,074075
0,087500	0,1	-0,052342
0,089167	0,1	-0,074297
0,090833	0,1	-0,069802
0,092500	0,1	-0,061887
0,094167	0,1	-0,069639
0,095833	0,1	-0,078388
0,097500	0,1	-0,104719
0,099167	0,1	-0,087654
0,100833	0,1	-0,079675
0,102500	0,1	-0,061889
0,104167	0,1	-0,035896
0,105833	0,1	-0,045388
0,107500	0,1	-0,065027
0,109167	0,1	-0,065043
0,110833	0,1	-0,061124
0,112500	0,1	-0,048190
0,114167	0,1	-0,048428
0,115833	0,1	-0,065448
0,117500	0,1	-0,061657
0,119167	0,1	-0,049714
0,120833	0,1	-0,036836
0,122500	0,1	-0,073480
0,124167	0,1	-0,056890
0,125833	0,1	-0,052518
0,127500	0,1	-0,059630
0,129167	0,1	-0,069710
0,130833	0,1	-0,070743
0,132500	0,1	-0,061137
0,134167	0,1	-0,069750
0,135833	0,1	-0,087995
0,137500	0,1	-0,073432
0,139167	0,1	-0,037473
0,140833	0,1	-0,054485
0,142500	0,1	-0,030114
0,144167	0,1	-0,082927
0,145833	0,1	-0,065617
0,147500	0,1	-0,058571
0,149167	0,1	-0,049713
0,150833	0,1	-0,040192
0,152500	0,1	-0,090271
0,154167	0,1	-0,086376
0,155833	0,1	-0,075767
0,157500	0,1	-0,063362
0,159167	0,1	-0,069299
0,160833	0,1	-0,093023
0,162500	0,1	-0,068605
0,164167	0,1	-0,079149
0,165833	0,1	-0,028898
0,167500	0,1	-0,050808
0,169167	0,1	-0,073083
0,170833	0,1	-0,068059
0,172500	0,1	-0,101177
0,174167	0,1	-0,065753
0,175833	0,1	-0,065492
0,177500	0,1	-0,120230
0,179167	0,1	-0,112662
0,180833	0,1	-0,084638
0,182500	0,1	-0,035261
0,184167	0,1	-0,046501
0,185833	0,1	-0,052856
0,187500	0,1	-0,088130
0,189167	0,1	-0,036836
0,190833	0,1	-0,077038
0,192500	0,1	-0,065687
0,194167	0,1	-0,081642
0,195833	0,1	-0,057542
0,197500	0,1	-0,042780
0,199167	0,1	-0,039450
0,200833	0,1	-0,061710
0,202500	0,1	-0,084558
0,204167	0,1	-0,072741
0,205833	0,1	-0,052561
0,207500	0,1	-0,046334
0,209167	0,1	-0,072151
0,210833	0,1	-0,033054
0,212500	0,1	-0,042082
0,214167	0,1	-0,078911
0,215833	0,1	-0,078399
0,217500	0,1	-0,064353
0,219167	0,1	-0,123026
0,220833	0,1	-0,065346
0,222500	0,1	-0,024076
0,224167	0,1	-0,063871
0,225833	0,1	-0,031189
0,227500	0,1	-0,070224
0,229167	0,1	-0,067317
0,230833	0,1	-0,070573
0,232500	0,1	-0,070694
0,234167	0,1	-0,059213
0,235833	0,1	-0,056225
0,237500	0,1	-0,028902
0,239167	0,1	-0,087123
0,240833	0,1	-0,041905
0,242500	0,1	-0,045522
0,244167	0,1	-0,055580
0,245833	0,1	-0,067084
0,247500	0,1	-0,095287
0,249167	0,1	-0,093149
0,250833	0,1	-0,047846
0,252500	0,1	-0,087708
0,254167	0,1	-0,085265
0,255833	0,1	-0,054316
0,257500	0,1	-0,077924
0,259167	0,1	-0,022495
0,260833	0,1	-0,065482
0,262500	0,1	-0,042890
0,264167	0,1	-0,075296
0,265833	0,1	-0,081584
0,267500	0,1	-0,041212
0,269167	0,1	-0,065106
0,270833	0,1	-0,054664
0,272500	0,1	-0,064800
0,274167	0,1	-0,054724
0,275833	0,1	-0,076810
0,277500	0,1	-0,051882
0,279167	0,1	-0,063345
0,280833	0,1	-0,056827
0,282500	0,1	-0,048870
0,284167	0,1	-0,054660
0,285833	0,1	-0,106944
0,287500	0,1	-0,045706
0,289167	0,1	-0,055890
0,290833	0,1	-0,062015
0,292500	0,1	-0,073145
0,294167	0,1	-0,049064
0,295833	0,1	-0,053046
0,297500	0,1	-0,087180
0,299167	0,1	-0,040632
0,300833	0,1	-0,032215
0,302500	0,1	-0,045908
0,304167	0,1	-0,021506
0,305833	0,1	-0,080289
0,307500	0,1	-0,053906
0,309167	0,1	-0,089734
0,310833	0,1	-0,065049
0,312500	0,1	-0,040145
0,314167	0,1	-0,084782
0,315833	0,1	-0,059557
0,317500	0,1	-0,056234
0,319167	0,1	-0,022540
0,320833	0,1	-0,060192
0,322500	0,1	-0,019345
0,324167	0,1	-0,076914
0,325833	0,1	-0,046921
0,327500	0,1	-0,068473
0,329167	0,1	-0,008966
0,330833	0,1	-0,047907
0,332500	0,1	-0,071740
0,334167	0,1	-0,053663
0,335833	0,1	-0,038471
0,337500	0,1	-0,056400
0,339167	0,1	-0,047909
0,340833	0,1	-0,044750
0,342500	0,1	-0,014732
0,344167	0,1	-0,048360
0,345833	0,1	-0,097899
0,347500	0,1	-0,036546
0,349167	0,1	-0,075415
0,350833	0,1	-0,042032
0,352500	0,1	-0,020102
0,354167	0,1	-0,017703
0,355833	0,1	-0,041536
0,357500	0,1	-0,054077
0,359167	0,1	-0,020978
0,360833	0,1	-0,048241
0,362500	0,1	-0,092968
0,364167	0,1	-0,037707
0,365833	0,1	-0,040960
0,367500	0,1	-0,009601
0,369167	0,1	-0,031166
0,370833	0,1	-0,021782
0,372500	0,1	-0,051327
0,374167	0,1	-0,033269
0,375833	0,1	-0,013919
0,377500	0,1	-0,083092
0,379167	0,1	-0,041022
0,380833	0,1	-0,022378
0,382500	0,1	-0,037690
0,384167	0,1	-0,009540
0,385833	0,1	-0,041125
0,387500	0,1	-0,080133
0,389167	0,1	-0,042605
0,390833	0,1	-0,040552
0,392500	0,1	-0,032177
0,394167	0,1	-0,012818
0,395833	0,1	0,022167
0,397500	0,1	-0,020208
0,399167	0,1	-0,009427
0,400833	0,1	-0,037738
0,402500	0,1	-0,053965
0,404167	0,1	-0,010778
0,405833	0,1	-0,046143
0,407500	0,1	-0,077450
0,409167	0,1	0,017891
0,410833	0,1	-0,043632
0,412500	0,1	-0,052334
0,414167	0,1	-0,050461
0,415833	0,1	-0,017177
0,417500	0,1	-0,007903
0,419167	0,1	-0,020494
0,420833	0,1	-0,035185
0,422500	0,1	-0,000561
0,424167	0,1	-0,002309
0,425833	0,1	-0,021305
0,427500	0,1	-0,008847
0,429167	0,1	-0,063094
0,430833	0,1	-0,064401
0,432500	0,1	-0,004574
0,434167	0,1	-0,044098
0,435833	0,1	-0,014852
0,437500	0,1	0,002479
0,439167	0,1	-0,036221
0,440833	0,1	-0,010241
0,442500	0,1	-0,055632
0,444167	0,1	-0,011179
0,445833	0,1	-0,013803
0,447500	0,1	-0,028241
0,449167	0,1	-0,011474
0,450833	0,1	-0,018523
0,452500	0,1	-0,014738
0,454167	0,1	0,004973
0,455833	0,1	-0,040781
0,457500	0,1	-0,015674
0,459167	0,1	-0,007382
0,460833	0,1	-0,034712
0,462500	0,1	-0,015431
0,464167	0,1	-0,004938
0,465833	0,1	-0,014773
0,467500	0,1	0,023111
0,469167	0,1	0,005926
0,470833	0,1	-0,039839
0,472500	0,1	-0,006334
0,474167	0,1	-0,048987
0,475833	0,1	-0,018761
0,477500	0,1	-0,033562
0,479167	0,1	0,003105
0,480833	0,1	-0,025694
0,482500	0,1	0,006834
0,484167	0,1	-0,059123
0,485833	0,1	-0,006339
0,487500	0,1	0,012211
0,489167	0,1	-0,040526
0,490833	0,1	-0,026152
0,492500	0,1	-0,029476
0,494167	0,1	-0,024057
0,495833	0,1	-0,065783
0,497500	0,1	-0,035777
0,499167	0,1	0,012143
0,500833	0,1	-0,022715
0,502500	0,1	-0,045616
0,504167	0,1	-0,006288
0,505833	0,1	-0,021366
0,507500	0,1	-0,022059
0,509167	0,1	-0,001502
0,510833	0,1	-0,020153
0,512500	0,1	0,006956
0,514167	0,1	0,003367
0,515833	0,1	0,000912
0,517500	0,1	-0,016705
0,519167	0,1	-0,018163
0,520833	0,1	-0,035864
0,522500	0,1	-0,049636
0,524167	0,1	-0,035845
0,525833	0,1	-0,006333
0,527500	0,1	-0,029011
0,529167	0,1	-0,011233
0,530833	0,1	-0,008482
0,532500	0,1	-0,007139
0,534167	0,1	-0,054939
0,535833	0,1	-0,043180
0,537500	0,1	-0,032797
0,539167	0,1	-0,034026
0,540833	0,1	-0,023767
0,542500	0,1	-0,021780
0,544167	0,1	-0,038804
0,545833	0,1	-0,039208
0,547500	0,1	-0,012797
0,549167	0,1	-0,017000
0,550833	0,1	-0,028083
0,552500	0,1	-0,006465
0,554167	0,1	-0,057684
0,555833	0,1	-0,022201
0,557500	0,1	-0,006911
0,559167	0,1	-0,010754
0,560833	0,1	-0,045261
0,562500	0,1	0,020464
0,564167	0,1	-0,039254
0,565833	0,1	-0,051039
0,567500	0,1	-0,061061
0,569167	0,1	-0,082113
0,570833	0,1	-0,068132
0,572500	0,1	0,006072
0,574167	0,1	-0,033995
0,575833	0,1	-0,049686
0,577500	0,1	-0,055470
0,579167	0,1	0,004903
0,580833	0,1	-0,012409
0,582500	0,1	-0,055051
0,584167	0,1	-0,039221
0,585833	0,1	-0,037634
0,587500	0,1	-0,005463
0,589167	0,1	-0,033198
0,590833	0,1	-0,036931
0,592500	0,1	-0,003600
0,594167	0,1	-0,009592
0,595833	0,1	-0,026205
0,597500	0,1	-0,031980
0,599167	0,1	-0,041940
0,600833	0,1	-0,022366
0,602500	0,1	-0,013806
0,604167	0,1	-0,078304
0,605833	0,1	-0,024358
0,607500	0,1	-0,021539
0,609167	0,1	-0,037909
0,610833	0,1	0,019318
0,612500	0,1	-0,053060
0,614167	0,1	-0,013841
0,615833	0,1	-0,031155
0,617500	0,1	-0,048472
0,619167	0,1	-0,037287
0,620833	0,1	-0,029650
0,622500	0,1	-0,021213
0,624167	0,1	-0,065493
0,625833	0,1	-0,009657
0,627500	0,1	-0,029231
0,629167	0,1	-0,006392
0,630833	0,1	-0,007380
0,632500	0,1	-0,042988
0,634167	0,1	-0,030121
0,635833	0,1	-0,037571
0,637500	0,1	-0,005863
0,639167	0,1	-0,056092
0,640833	0,1	-0,025226
0,642500	0,1	-0,026440
0,644167	0,1	-0,039386
0,645833	0,1	-0,055528
0,647500	0,1	-0,036695
0,649167	0,1	0,002474
0,650833	0,1	-0,040481
0,652500	0,1	-0,066780
0,654167	0,1	-0,023705
0,655833	0,1	-0,007965
0,657500	0,1	-0,024332
0,659167	0,1	-0,006051
0,660833	0,1	-0,033258
0,662500	0,1	-0,036121
0,664167	0,1	-0,012104
0,665833	0,1	-0,038500
0,667500	0,1	-0,007858
0,669167	0,1	-0,024611
0,670833	0,1	-0,033202
0,672500	0,1	0,007182
0,674167	0,1	-0,010183
0,675833	0,1	0,001550
0,677500	0,1	-0,033126
0,679167	0,1	0,021592
0,680833	0,1	-0,051386
0,682500	0,1	-0,061653
0,684167	0,1	-0,028903
0,685833	0,1	0,008697
0,687500	0,1	-0,025331
0,689167	0,1	-0,031980
0,690833	0,1	-0,032454
0,692500	0,1	-0,026271
0,694167	0,1	-0,013965
0,695833	0,1	-0,039070
0,697500	0,1	-0,040611
0,699167	0,1	-0,068692
0,700833	0,1	-0,013445
0,702500	0,1	-0,014483
0,704167	0,1	-0,027489
0,705833	0,1	-0,000391
0,707500	0,1	0,012441
0,709167	0,1	-0,024908
0,710833	0,1	-0,027491
0,712500	0,1	0,020251
0,714167	0,1	0,013208
0,715833	0,1	0,022523
0,717500	0,1	-0,011341
0,719167	0,1	-0,019552
0,720833	0,1	-0,010989
0,722500	0,1	-0,024552
0,724167	0,1	-0,007444
0,725833	0,1	-0,013682
0,727500	0,1	0,012099
0,729167	0,1	-0,007581
0,730833	0,1	-0,009341
0,732500	0,1	-0,012729
0,734167	0,1	-0,008772
0,735833	0,1	0,033156
0,737500	0,1	-0,003147
0,739167	0,1	0,053085
0,740833	0,1	0,036837
0,742500	0,1	-0,001575
0,744167	0,1	-0,004753
0,745833	0,1	-0,002867
0,747500	0,1	0,041989
0,749167	0,1	0,004296
0,750833	0,1	0,022606
0,752500	0,1	0,055995
0,754167	0,1	0,043661
0,755833	0,1	0,007563
0,757500	0,1	0,045284
0,759167	0,1	-0,001583
0,760833	0,1	0,023997
0,762500	0,1	0,067736
0,764167	0,1	0,063945
0,765833	0,1	0,002028
0,767500	0,1	0,032855
0,769167	0,1	0,034677
0,770833	0,1	0,041707
0,772500	0,1	0,066045
0,774167	0,1	0,019172
0,775833	0,1	0,046036
0,777500	0,1	0,009259
0,779167	0,1	0,020901
0,780833	0,1	0,031068
0,782500	0,1	-0,008653
0,784167	0,1	0,037970
0,785833	0,1	-0,010092
0,787500	0,1	0,026789
0,789167	0,1	0,021026
0,790833	0,1	0,029301
0,792500	0,1	0,042190
0,794167	0,1	0,039567
0,795833	0,1	-0,006013
0,797500	0,1	0,014206
0,799167	0,1	-0,002984
0,800833	0,1	-0,009169
0,802500	0,1	-0,023097
0,804167	0,1	-0,002133
0,805833	0,1	-0,053574
0,807500	0,1	0,016725
0,809167	0,1	-0,014838
0,810833	0,1	0,016587
0,812500	0,1	-0,011259
0,814167	0,1	-0,037897
0,815833	0,1	-0,006444
0,817500	0,1	-0,033029
0,819167	0,1	-0,036921
0,820833	0,1	0,018083
0,822500	0,1	-0,020999
0,824167	0,1	0,000893
0,825833	0,1	-0,004413
0,827500	0,1	-0,044850
0,829167	0,1	-0,001725
0,830833	0,1	0,012272
0,832500	0,1	-0,032964
0,834167	0,1	-0,008269
0,835833	0,1	-0,023919
0,837500	0,1	-0,024323
0,839167	0,1	-0,037741
0,840833	0,1	-0,050048
0,842500	0,1	-0,022237
0,844167	0,1	-0,000135
0,845833	0,1	-0,039259
0,847500	0,1	-0,064845
0,849167	0,1	-0,016019
0,850833	0,1	-0,016347
0,852500	0,1	-0,029934
0,854167	0,1	-0,018455
0,855833	0,1	-0,055583
0,857500	0,1	-0,072783
0,859167	0,1	-0,036131
0,860833	0,1	-0,012637
0,862500	0,1	-0,040144
0,864167	0,1	-0,049236
0,865833	0,1	-0,042176
0,867500	0,1	-0,032457
0,869167	0,1	-0,030579
0,870833	0,1	-0,070553
0,872500	0,1	-0,079190
0,874167	0,1	-0,061419
0,875833	0,1	-0,057917
0,877500	0,1	-0,080058
0,879167	0,1	-0,032333
0,880833	0,1	-0,037584
0,882500	0,1	-0,059434
0,884167	0,1	-0,038813
0,885833	0,1	-0,090563
0,887500	0,1	-0,035033
0,889167	0,1	-0,047362
0,890833	0,1	-0,097145
0,892500	0,1	-0,072152
0,894167	0,1	-0,060476
0,895833	0,1	-0,058449
0,897500	0,1	-0,073938
0,899167	0,1	-0,070294
0,900833	0,1	-0,057158
0,902500	0,1	-0,057747
0,904167	0,1	-0,068648
0,905833	0,1	-0,047090
0,907500	0,1	-0,082511
0,909167	0,1	-0,042885
0,910833	0,1	-0,059487
0,912500	0,1	-0,038512
0,914167	0,1	-0,022415
0,915833	0,1	-0,014037
0,917500	0,1	-0,044452
0,919167	0,1	-0,033258
0,920833	0,1	-0,068470
0,922500	0,1	-0,070153
0,924167	0,1	-0,034908
0,925833	0,1	-0,055057
0,927500	0,1	-0,048430
0,929167	0,1	-0,079374
0,930833	0,1	-0,032285
0,932500	0,1	-0,048403
0,934167	0,1	-0,025284
0,935833	0,1	-0,071794
0,937500	0,1	-0,041369
0,939167	0,1	-0,021943
0,940833	0,1	-0,061706
0,942500	0,1	-0,057508
0,944167	0,1	-0,015389
0,945833	0,1	-0,073936
0,947500	0,1	-0,033445
0,949167	0,1	-0,034778
0,950833	0,1	-0,029478
0,952500	0,1	-0,026270
0,954167	0,1	-0,008486
0,955833	0,1	0,004525
0,957500	0,1	0,002121
0,959167	0,1	-0,041083
0,960833	0,1	-0,027486
0,962500	0,1	-0,020549
0,964167	0,1	-0,046787
0,965833	0,1	-0,040902
0,967500	0,1	-0,009893
0,969167	0,1	-0,024621
0,970833	0,1	-0,025158
0,972500	0,1	0,044393
0,974167	0,1	-0,039537
0,975833	0,1	-0,030872
0,977500	0,1	-0,011693
0,979167	0,1	-0,044160
0,980833	0,1	-0,025633
0,982500	0,1	-0,018406
0,984167	0,1	0,010295
0,985833	0,1	-0,021410
0,987500	0,1	-0,043620
0,989167	0,1	0,004107
0,990833	0,1	-0,001072
0,992500	0,1	0,015261
0,994167	0,1	-0,030206
0,995833	0,1	0,066657
0,997500	0,1	0,011006
0,999167	0,1	0,024823
1,000833	0,1	0,009072
1,002500	0,1	0,013799
1,004167	0,1	0,042126
1,005833	0,1	0,036471
1,007500	0,1	0,052164
1,009167	0,1	0,079565
1,010833	0,1	0,066088
1,012500	0,1	0,071811
1,014167	0,1	0,039008
1,015833	0,1	0,057417
1,017500	0,1	0,058765
1,019167	0,1	0,074569
1,020833	0,1	0,069794
1,022500	0,1	0,107669
1,024167	0,1	0,072125
1,025833	0,1	0,113395
1,027500	0,1	0,136497
1,029167	0,1	0,132532
1,030833	0,1	0,095099
1,032500	0,1	0,142022
1,034167	0,1	0,134230
1,035833	0,1	0,121870
1,037500	0,1	0,148626
1,039167	0,1	0,110969
1,040833	0,1	0,103494
1,042500	0,1	0,144759
1,044167	0,1	0,138583
1,045833	0,1	0,136718
1,047500	0,1	0,138414
1,049167	0,1	0,185777
1,050833	0,1	0,137615
1,052500	0,1	0,156145
1,054167	0,1	0,187858
1,055833	0,1	0,199950
1,057500	0,1	0,250243
1,059167	0,1	0,269767
1,060833	0,1	0,322314
1,062500	0,1	0,449038
1,064167	0,1	0,548124
1,065833	0,1	0,691834
1,067500	0,1	0,869371
1,069167	0,1	1,156278
1,070833	0,1	1,488189
1,072500	0,1	1,877719
1,074167	0,1	2,364989
1,075833	0,1	2,928433
1,077500	0,1	3,601306
1,079167	0,1	4,342377
1,080833	0,1	5,140432
1,082500	0,1	6,094457
1,084167	0,1	7,107596
1,085833	0,1	8,123016
1,087500	0,1	9,238014
1,089167	0,1	10,377064
1,090833	0,1	11,536326
1,092500	0,1	12,646309
1,094167	0,1	13,705106
1,095833	0,1	14,805465
1,097500	0,1	15,812904
1,099167	0,1	16,762952
1,100833	0,1	17,633055
1,102500	0,1	18,399580
1,104167	0,1	19,096029
1,105833	0,1	19,658392
1,107500	0,1	20,135086
1,109167	0,1	20,534198
1,110833	0,1	20,832702
1,112500	0,1	21,024190
1,114167	0,1	21,138677
1,115833	0,1	21,148287
1,117500	0,1	21,117372
1,119167	0,1	20,996718
1,120833	0,1	20,805640
1,122500	0,1	20,518367
1,124167	0,1	20,191046
1,125833	0,1	19,853537
1,127500	0,1	19,386212
1,129167	0,1	18,969667
1,130833	0,1	18,478426
1,132500	0,1	17,924221
1,134167	0,1	17,383992
1,135833	0,1	16,822372
1,137500	0,1	16,255344
1,139167	0,1	15,654065
1,140833	0,1	15,082740
1,142500	0,1	14,488076
1,144167	0,1	13,935879
1,145833	0,1	13,358322
1,147500	0,1	12,845015
1,149167	0,1	12,284897
1,150833	0,1	11,758781
1,152500	0,1	11,216859
1,154167	0,1	10,766139
1,155833	0,1	10,248723
1,157500	0,1	9,822724
1,159167	0,1	9,370400
1,160833	0,1	8,971808
1,162500	0,1	8,577201
1,164167	0,1	8,158082
1,165833	0,1	7,830752
1,167500	0,1	7,448876
1,169167	0,1	7,098609
1,170833	0,1	6,781296
1,172500	0,1	6,474899
1,174167	0,1	6,192338
1,175833	0,1	5,929104
1,177500	0,1	5,622347
1,179167	0,1	5,398291
1,180833	0,1	5,142831
1,182500	0,1	4,908980
1,184167	0,1	4,687545
1,185833	0,1	4,465523
1,187500	0,1	4,273502
1,189167	0,1	4,069379
1,190833	0,1	3,882507
1,192500	0,1	3,722076
1,194167	0,1	3,580006
1,195833	0,1	3,386152
1,197500	0,1	3,317271
1,199167	0,1	3,119012
1,200833	0,1	3,010458
1,202500	0,1	2,892075
1,204167	0,1	2,741149
1,205833	0,1	2,679744
1,207500	0,1	2,553855
1,209167	0,1	2,456360
1,210833	0,1	2,422090
1,212500	0,1	2,288973
1,214167	0,1	2,236953
1,215833	0,1	2,133809
1,217500	0,1	2,079091
1,219167	0,1	1,978781
1,220833	0,1	1,922427
1,222500	0,1	1,854432
1,224167	0,1	1,818571
1,225833	0,1	1,792805
1,227500	0,1	1,708843
1,229167	0,1	1,645636
1,230833	0,1	1,582004
1,232500	0,1	1,544558
1,234167	0,1	1,532513
1,235833	0,1	1,473338
1,237500	0,1	1,453244
1,239167	0,1	1,350905
1,240833	0,1	1,385709
1,242500	0,1	1,334343
1,244167	0,1	1,322554
1,245833	0,1	1,272715
1,247500	0,1	1,220991
1,249167	0,1	1,225860
1,250833	0,1	1,169960
1,252500	0,1	1,162911
1,254167	0,1	1,080680
1,255833	0,1	1,072881
1,257500	0,1	1,043021
1,259167	0,1	1,037929
1,260833	0,1	1,045259
1,262500	0,1	1,023751
1,264167	0,1	0,983519
1,265833	0,1	0,993215
1,267500	0,1	0,941349
1,269167	0,1	0,956089
1,270833	0,1	0,895974
1,272500	0,1	0,839928
1,274167	0,1	0,883833
1,275833	0,1	0,857145
1,277500	0,1	0,800920
1,279167	0,1	0,810962
1,280833	0,1	0,809488
1,282500	0,1	0,738978
1,284167	0,1	0,751490
1,285833	0,1	0,756216
1,287500	0,1	0,760041
1,289167	0,1	0,716710
1,290833	0,1	0,693032
1,292500	0,1	0,696465
1,294167	0,1	0,729421
1,295833	0,1	0,663654
1,297500	0,1	0,692929
1,299167	0,1	0,639820
1,300833	0,1	0,612081
1,302500	0,1	0,659419
1,304167	0,1	0,643150
1,305833	0,1	0,593017
1,307500	0,1	0,619183
1,309167	0,1	0,620852
1,310833	0,1	0,585243
1,312500	0,1	0,556088
1,314167	0,1	0,590919
1,315833	0,1	0,598669
1,317500	0,1	0,515995
1,319167	0,1	0,578935
1,320833	0,1	0,532620
1,322500	0,1	0,534105
1,324167	0,1	0,535052
1,325833	0,1	0,477089
1,327500	0,1	0,519504
1,329167	0,1	0,505516
1,330833	0,1	0,458919
1,332500	0,1	0,508217
1,334167	0,1	0,520379
1,335833	0,1	0,468281
1,337500	0,1	0,483863
1,339167	0,1	0,469061
1,340833	0,1	0,491442
1,342500	0,1	0,427791
1,344167	0,1	0,475099
1,345833	0,1	0,427437
1,347500	0,1	0,421606
1,349167	0,1	0,442557
1,350833	0,1	0,464473
1,352500	0,1	0,440397
1,354167	0,1	0,427759
1,355833	0,1	0,421773
1,357500	0,1	0,397898
1,359167	0,1	0,390602
1,360833	0,1	0,407620
1,362500	0,1	0,429323
1,364167	0,1	0,400922
1,365833	0,1	0,418825
1,367500	0,1	0,391829
1,369167	0,1	0,386294
1,370833	0,1	0,392630
1,372500	0,1	0,404247
1,374167	0,1	0,354497
1,375833	0,1	0,361896
1,377500	0,1	0,397385
1,379167	0,1	0,355758
1,380833	0,1	0,370509
1,382500	0,1	0,347576
1,384167	0,1	0,365249
1,385833	0,1	0,367904
1,387500	0,1	0,359499
1,389167	0,1	0,388812
1,390833	0,1	0,351781
1,392500	0,1	0,372787
1,394167	0,1	0,333891
1,395833	0,1	0,351046
1,397500	0,1	0,369100
1,399167	0,1	0,366600
1,400833	0,1	0,344198
1,402500	0,1	0,345644
1,404167	0,1	0,320616
1,405833	0,1	0,297793
1,407500	0,1	0,325159
1,409167	0,1	0,343153
1,410833	0,1	0,347340
1,412500	0,1	0,343552
1,414167	0,1	0,386303
1,415833	0,1	0,310771
1,417500	0,1	0,321600
1,419167	0,1	0,355845
1,420833	0,1	0,310245
1,422500	0,1	0,319819
1,424167	0,1	0,331334
1,425833	0,1	0,340959
1,427500	0,1	0,321171
1,429167	0,1	0,335265
1,430833	0,1	0,332289
1,432500	0,1	0,323198
1,434167	0,1	0,313157
1,435833	0,1	0,316302
1,437500	0,1	0,298396
1,439167	0,1	0,284193
1,440833	0,1	0,302465
1,442500	0,1	0,309714
1,444167	0,1	0,269975
1,445833	0,1	0,289505
1,447500	0,1	0,303874
1,449167	0,1	0,300113
1,450833	0,1	0,316693
1,452500	0,1	0,277842
1,454167	0,1	0,279214
1,455833	0,1	0,306088
1,457500	0,1	0,316589
1,459167	0,1	0,278688
1,460833	0,1	0,252643
1,462500	0,1	0,293264
1,464167	0,1	0,277980
1,465833	0,1	0,271021
1,467500	0,1	0,295818
1,469167	0,1	0,319653
1,470833	0,1	0,282211
1,472500	0,1	0,320310
1,474167	0,1	0,264388
1,475833	0,1	0,279730
1,477500	0,1	0,291617
1,479167	0,1	0,310895
1,480833	0,1	0,292020
1,482500	0,1	0,257278
1,484167	0,1	0,318688
1,485833	0,1	0,286599
1,487500	0,1	0,292823
1,489167	0,1	0,301949
1,490833	0,1	0,290524
1,492500	0,1	0,301184
1,494167	0,1	0,278393
1,495833	0,1	0,316706
1,497500	0,1	0,303386
1,499167	0,1	0,282059
1,500833	0,1	0,279964
1,502500	0,1	0,313830
1,504167	0,1	0,287610
1,505833	0,1	0,304700
1,507500	0,1	0,296177
1,509167	0,1	0,293423
1,510833	0,1	0,311472
1,512500	0,1	0,301250
1,514167	0,1	0,357598
1,515833	0,1	0,268247
1,517500	0,1	0,281594
1,519167	0,1	0,314410
1,520833	0,1	0,306343
1,522500	0,1	0,297481
1,524167	0,1	0,283156
1,525833	0,1	0,283893
1,527500	0,1	0,313769
1,529167	0,1	0,305952
1,530833	0,1	0,287571
1,532500	0,1	0,265047
1,534167	0,1	0,280125
1,535833	0,1	0,289527
1,537500	0,1	0,282513
1,539167	0,1	0,214700
1,540833	0,1	0,266083
1,542500	0,1	0,261931
1,544167	0,1	0,285611
1,545833	0,1	0,292033
1,547500	0,1	0,263633
1,549167	0,1	0,237195
1,550833	0,1	0,261801
1,552500	0,1	0,270544
1,554167	0,1	0,240836
1,555833	0,1	0,226556
1,557500	0,1	0,260972
1,559167	0,1	0,259302
1,560833	0,1	0,239699
1,562500	0,1	0,245469
1,564167	0,1	0,227858
1,565833	0,1	0,248720
1,567500	0,1	0,234380
1,569167	0,1	0,233814
1,570833	0,1	0,235801
1,572500	0,1	0,201824
1,574167	0,1	0,238068
1,575833	0,1	0,220553
1,577500	0,1	0,243021
1,579167	0,1	0,200587
1,580833	0,1	0,205727
1,582500	0,1	0,200611
1,584167	0,1	0,205681
1,585833	0,1	0,244039
1,587500	0,1	0,216644
1,589167	0,1	0,216883
1,590833	0,1	0,218992
1,592500	0,1	0,195910
1,594167	0,1	0,219153
1,595833	0,1	0,233485
1,597500	0,1	0,210576
1,599167	0,1	0,188407
1,600833	0,1	0,233865
1,602500	0,1	0,192446
1,604167	0,1	0,239069
1,605833	0,1	0,243210
1,607500	0,1	0,205982
1,609167	0,1	0,209761
1,610833	0,1	0,214877
1,612500	0,1	0,232096
1,614167	0,1	0,246109
1,615833	0,1	0,213725
1,617500	0,1	0,249604
1,619167	0,1	0,272939
1,620833	0,1	0,272903
1,622500	0,1	0,302586
1,624167	0,1	0,343894
1,625833	0,1	0,274326
1,627500	0,1	0,364819
1,629167	0,1	0,340886
1,630833	0,1	0,399679
1,632500	0,1	0,484073
1,634167	0,1	0,467732
1,635833	0,1	0,543899
1,637500	0,1	0,563203
1,639167	0,1	0,632462
1,640833	0,1	0,723040
1,642500	0,1	0,760834
1,644167	0,1	0,866080
1,645833	0,1	0,975316
1,647500	0,1	1,118304
1,649167	0,1	1,228752
1,650833	0,1	1,371681
1,652500	0,1	1,510669
1,654167	0,1	1,678690
1,655833	0,1	1,859237
1,657500	0,1	2,041636
1,659167	0,1	2,286816
1,660833	0,1	2,531828
1,662500	0,1	2,812199
1,664167	0,1	3,109922
1,665833	0,1	3,429042
1,667500	0,1	3,796463
1,669167	0,1	4,182084
1,670833	0,1	4,596342
1,672500	0,1	5,040325
1,674167	0,1	5,541554
1,675833	0,1	6,059420
1,677500	0,1	6,587032
1,679167	0,1	7,158094
1,680833	0,1	7,841889
1,682500	0,1	8,475010
1,684167	0,1	9,150780
1,685833	0,1	9,955874
1,687500	0,1	10,734878
1,689167	0,1	11,567603
1,690833	0,1	12,391508
1,692500	0,1	13,326479
1,694167	0,1	14,290654
1,695833	0,1	15,267524
1,697500	0,1	16,278408
1,699167	0,1	17,361560
1,700833	0,1	18,481073
1,702500	0,1	19,582432
1,704167	0,1	20,724733
1,705833	0,1	21,990175
1,707500	0,1	23,178418
1,709167	0,1	24,425688
1,710833	0,1	25,692085
1,712500	0,1	26,994498
1,714167	0,1	28,319754
1,715833	0,1	29,614161
1,717500	0,1	30,973365
1,719167	0,1	32,345762
1,720833	0,1	33,685956
1,722500	0,1	35,061397
1,724167	0,1	36,409851
1,725833	0,1	37,735527
1,727500	0,1	39,116226
1,729167	0,1	40,435237
1,730833	0,1	41,747451
1,732500	0,1	43,088385
1,734167	0,1	44,388102
1,735833	0,1	45,643154
1,737500	0,1	46,852355
1,739167	0,1	48,050175
1,740833	0,1	49,236033
1,742500	0,1	50,360043
1,744167	0,1	51,465361
1,745833	0,1	52,521157
1,747500	0,1	53,492442
1,749167	0,1	54,475357
1,750833	0,1	55,421192
1,752500	0,1	56,240075
1,754167	0,1	57,126105
1,755833	0,1	57,846492
1,757500	0,1	58,552181
1,759167	0,1	59,229743
1,760833	0,1	59,836177
1,762500	0,1	60,361304
1,764167	0,1	60,836236
1,765833	0,1	61,277396
1,767500	0,1	61,641021
1,769167	0,1	61,926321
1,770833	0,1	62,172044
1,772500	0,1	62,370315
1,774167	0,1	62,480245
1,775833	0,1	62,593532
1,777500	0,1	62,527643
1,779167	0,1	62,540817
1,780833	0,1	62,456860
1,782500	0,1	62,301219
1,784167	0,1	62,143961
1,785833	0,1	61,877440
1,787500	0,1	61,509631
1,789167	0,1	61,234904
1,790833	0,1	60,849300
1,792500	0,1	60,410531
1,794167	0,1	59,917191
1,795833	0,1	59,434575
1,797500	0,1	58,860263
1,799167	0,1	58,267970
1,800833	0,1	57,646264
1,802500	0,1	57,027029
1,804167	0,1	56,362748
1,805833	0,1	55,623514
1,807500	0,1	54,893007
1,809167	0,1	54,147104
1,810833	0,1	53,362497
1,812500	0,1	52,517885
1,814167	0,1	51,684739
1,815833	0,1	50,880632
1,817500	0,1	50,034185
1,819167	0,1	49,173737
1,820833	0,1	48,300653
1,822500	0,1	47,351347
1,824167	0,1	46,509797
1,825833	0,1	45,597199
1,827500	0,1	44,679210
1,829167	0,1	43,769966
1,830833	0,1	42,876258
1,832500	0,1	41,961072
1,834167	0,1	41,085937
1,835833	0,1	40,187267
1,837500	0,1	39,257880
1,839167	0,1	38,384409
1,840833	0,1	37,494744
1,842500	0,1	36,620839
1,844167	0,1	35,792143
1,845833	0,1	34,904714
1,847500	0,1	34,096926
1,849167	0,1	33,235043
1,850833	0,1	32,425371
1,852500	0,1	31,561973
1,854167	0,1	30,779233
1,855833	0,1	29,992307
1,857500	0,1	29,155331
1,859167	0,1	28,421779
1,860833	0,1	27,682064
1,862500	0,1	26,953983
1,864167	0,1	26,243528
1,865833	0,1	25,539720
1,867500	0,1	24,849833
1,869167	0,1	24,184412
1,870833	0,1	23,521102
1,872500	0,1	22,876987
1,874167	0,1	22,218557
1,875833	0,1	21,627641
1,877500	0,1	21,002688
1,879167	0,1	20,424893
1,880833	0,1	19,813881
1,882500	0,1	19,288464
1,884167	0,1	18,775389
1,885833	0,1	18,199577
1,887500	0,1	17,686658
1,889167	0,1	17,188578
1,890833	0,1	16,700759
1,892500	0,1	16,238937
1,894167	0,1	15,765385
1,895833	0,1	15,330854
1,897500	0,1	14,886812
1,899167	0,1	14,457943
1,900833	0,1	14,075570
1,902500	0,1	13,676486
1,904167	0,1	13,272209
1,905833	0,1	12,865386
1,907500	0,1	12,537625
1,909167	0,1	12,171877
1,910833	0,1	11,791764
1,912500	0,1	11,451179
1,914167	0,1	11,175707
1,915833	0,1	10,834060
1,917500	0,1	10,527706
1,919167	0,1	10,258132
1,920833	0,1	9,945091
1,922500	0,1	9,682613
1,924167	0,1	9,383401
1,925833	0,1	9,156211
1,927500	0,1	8,873016
1,929167	0,1	8,605950
1,930833	0,1	8,385439
1,932500	0,1	8,152833
1,934167	0,1	7,925636
1,935833	0,1	7,700688
1,937500	0,1	7,526101
1,939167	0,1	7,305959
1,940833	0,1	7,086745
1,942500	0,1	6,898833
1,944167	0,1	6,747462
1,945833	0,1	6,531716
1,947500	0,1	6,358981
1,949167	0,1	6,220106
1,950833	0,1	6,035153
1,952500	0,1	5,908284
1,954167	0,1	5,671203
1,955833	0,1	5,533713
1,957500	0,1	5,413288
1,959167	0,1	5,276781
1,960833	0,1	5,174614
1,962500	0,1	5,037819
1,964167	0,1	4,907173
1,965833	0,1	4,762702
1,967500	0,1	4,652749
1,969167	0,1	4,501804
1,970833	0,1	4,453216
1,972500	0,1	4,316286
1,974167	0,1	4,214648
1,975833	0,1	4,173041
1,977500	0,1	4,019154
1,979167	0,1	3,931800
1,980833	0,1	3,855741
1,982500	0,1	3,770481
1,984167	0,1	3,676028
1,985833	0,1	3,548125
1,987500	0,1	3,497498
1,989167	0,1	3,411063
1,990833	0,1	3,393306
1,992500	0,1	3,317423
1,994167	0,1	3,191134
1,995833	0,1	3,168556
1,997500	0,1	3,109860
1,999167	0,1	3,018639
2,000833	0,1	2,962081
2,002500	0,1	2,906985
2,004167	0,1	2,861412
2,005833	0,1	2,824329
2,007500	0,1	2,740705
2,009167	0,1	2,689780
2,010833	0,1	2,663097
2,012500	0,1	2,613271
2,014167	0,1	2,581721
2,015833	0,1	2,524947
2,017500	0,1	2,434928
2,019167	0,1	2,431397
2,020833	0,1	2,389987
2,022500	0,1	2,399359
2,024167	0,1	2,334096
2,025833	0,1	2,272694
2,027500	0,1	2,296249
2,029167	0,1	2,254207
2,030833	0,1	2,232499
2,032500	0,1	2,199258
2,034167	0,1	2,186940
2,035833	0,1	2,104792
2,037500	0,1	2,123546
2,039167	0,1	2,072200
2,040833	0,1	2,027166
2,042500	0,1	2,076924
2,044167	0,1	2,049151
2,045833	0,1	2,028022
2,047500	0,1	1,981575
2,049167	0,1	1,966757
2,050833	0,1	1,954125
2,052500	0,1	1,892793
2,054167	0,1	1,917967
2,055833	0,1	1,877052
2,057500	0,1	1,880812
2,059167	0,1	1,861930
2,060833	0,1	1,895785
2,062500	0,1	1,835529
2,064167	0,1	1,832596
2,065833	0,1	1,819141
2,067500	0,1	1,789654
2,069167	0,1	1,802662
2,070833	0,1	1,759100
2,072500	0,1	1,773899
2,074167	0,1	1,773945
2,075833	0,1	1,730642
2,077500	0,1	1,716454
2,079167	0,1	1,734378
2,080833	0,1	1,725096
2,082500	0,1	1,702865
2,084167	0,1	1,721240
2,085833	0,1	1,689023
2,087500	0,1	1,715868
2,089167	0,1	1,651059
2,090833	0,1	1,668846
2,092500	0,1	1,688399
2,094167	0,1	1,661062
2,095833	0,1	1,681673
2,097500	0,1	1,675630
2,099167	0,1	1,661721
2,100833	0,1	1,641168
2,102500	0,1	1,629663
2,104167	0,1	1,621801
2,105833	0,1	1,600897
2,107500	0,1	1,638749
2,109167	0,1	1,557405
2,110833	0,1	1,618785
2,112500	0,1	1,601913
2,114167	0,1	1,570949
2,115833	0,1	1,554545
2,117500	0,1	1,526819
2,119167	0,1	1,568356
2,120833	0,1	1,546283
2,122500	0,1	1,514908
2,124167	0,1	1,547452
2,125833	0,1	1,525799
2,127500	0,1	1,472786
2,129167	0,1	1,536434
2,130833	0,1	1,479111
2,132500	0,1	1,478521
2,134167	0,1	1,486838
2,135833	0,1	1,456289
2,137500	0,1	1,468328
2,139167	0,1	1,472058
2,140833	0,1	1,466823
2,142500	0,1	1,442152
2,144167	0,1	1,432139
2,145833	0,1	1,416939
2,147500	0,1	1,409505
2,149167	0,1	1,447196
2,150833	0,1	1,409179
2,152500	0,1	1,378336
2,154167	0,1	1,364907
2,155833	0,1	1,394873
2,157500	0,1	1,379908
2,159167	0,1	1,357921
2,160833	0,1	1,396535
2,162500	0,1	1,376025
2,164167	0,1	1,340685
2,165833	0,1	1,311196
2,167500	0,1	1,311791
2,169167	0,1	1,355000
2,170833	0,1	1,304263
2,172500	0,1	1,297242
2,174167	0,1	1,287148
2,175833	0,1	1,272930
2,177500	0,1	1,304129
2,179167	0,1	1,261226
2,180833	0,1	1,244758
2,182500	0,1	1,242512
2,184167	0,1	1,203899
2,185833	0,1	1,245675
2,187500	0,1	1,218322
2,189167	0,1	1,199353
2,190833	0,1	1,203901
2,192500	0,1	1,150612
2,194167	0,1	1,214310
2,195833	0,1	1,191307
2,197500	0,1	1,159348
2,199167	0,1	1,179036
2,200833	0,1	1,134193
2,202500	0,1	1,152549
2,204167	0,1	1,107167
2,205833	0,1	1,131010
2,207500	0,1	1,121110
2,209167	0,1	1,133192
2,210833	0,1	1,092143
2,212500	0,1	1,125313
2,214167	0,1	1,093137
2,215833	0,1	1,077123
2,217500	0,1	1,074130
2,219167	0,1	1,078182
2,220833	0,1	1,058225
2,222500	0,1	0,993487
2,224167	0,1	1,078636
2,225833	0,1	1,047457
2,227500	0,1	1,010622
2,229167	0,1	1,001318
2,230833	0,1	1,008293
2,232500	0,1	0,982197
2,234167	0,1	0,984600
2,235833	0,1	0,950444
2,237500	0,1	0,991025
2,239167	0,1	0,965451
2,240833	0,1	0,972227
2,242500	0,1	0,954039
2,244167	0,1	0,899700
2,245833	0,1	0,964527
2,247500	0,1	0,910692
2,249167	0,1	0,923820
2,250833	0,1	0,929768
2,252500	0,1	0,891082
2,254167	0,1	0,919155
2,255833	0,1	0,895001
2,257500	0,1	0,900456
2,259167	0,1	0,862610
2,260833	0,1	0,873172
2,262500	0,1	0,823701
2,264167	0,1	0,850546
2,265833	0,1	0,842359
2,267500	0,1	0,841393
2,269167	0,1	0,846567
2,270833	0,1	0,812130
2,272500	0,1	0,816427
2,274167	0,1	0,809390
2,275833	0,1	0,834544
2,277500	0,1	0,791857
2,279167	0,1	0,836018
2,280833	0,1	0,803776
2,282500	0,1	0,751888
2,284167	0,1	0,772696
2,285833	0,1	0,769485
2,287500	0,1	0,760304
2,289167	0,1	0,734411
2,290833	0,1	0,731899
2,292500	0,1	0,773556
2,294167	0,1	0,713726
2,295833	0,1	0,725310
2,297500	0,1	0,737003
2,299167	0,1	0,700554
2,300833	0,1	0,690459
2,302500	0,1	0,678190
2,304167	0,1	0,761694
2,305833	0,1	0,708401
2,307500	0,1	0,685267
2,309167	0,1	0,732466
2,310833	0,1	0,682344
2,312500	0,1	0,667134
2,314167	0,1	0,648071
2,315833	0,1	0,704486
2,317500	0,1	0,688443
2,319167	0,1	0,651215
2,320833	0,1	0,634093
2,322500	0,1	0,660357
2,324167	0,1	0,654998
2,325833	0,1	0,676960
2,327500	0,1	0,671032
2,329167	0,1	0,631466
2,330833	0,1	0,618739
2,332500	0,1	0,633127
2,334167	0,1	0,604096
2,335833	0,1	0,629496
2,337500	0,1	0,621634
2,339167	0,1	0,624110
2,340833	0,1	0,591728
2,342500	0,1	0,603480
2,344167	0,1	0,585314
2,345833	0,1	0,632186
2,347500	0,1	0,605644
2,349167	0,1	0,594304
2,350833	0,1	0,583412
2,352500	0,1	0,564285
2,354167	0,1	0,572879
2,355833	0,1	0,576923
2,357500	0,1	0,569281
2,359167	0,1	0,612503
2,360833	0,1	0,587659
2,362500	0,1	0,558884
2,364167	0,1	0,555376
2,365833	0,1	0,532198
2,367500	0,1	0,554665
2,369167	0,1	0,555226
2,370833	0,1	0,527416
2,372500	0,1	0,560644
2,374167	0,1	0,549158
2,375833	0,1	0,595185
2,377500	0,1	0,516699
2,379167	0,1	0,521400
2,380833	0,1	0,523892
2,382500	0,1	0,551655
2,384167	0,1	0,530006
2,385833	0,1	0,508249
2,387500	0,1	0,536330
2,389167	0,1	0,546938
2,390833	0,1	0,472678
2,392500	0,1	0,514116
2,394167	0,1	0,523365
2,395833	0,1	0,484744
2,397500	0,1	0,482521
2,399167	0,1	0,442844
2,400833	0,1	0,502513
2,402500	0,1	0,509818
2,404167	0,1	0,468772
2,405833	0,1	0,444102
2,407500	0,1	0,450601
2,409167	0,1	0,498271
2,410833	0,1	0,489624
2,412500	0,1	0,469620
2,414167	0,1	0,486385
2,415833	0,1	0,417975
2,417500	0,1	0,482817
2,419167	0,1	0,487819
2,420833	0,1	0,449532
2,422500	0,1	0,452733
2,424167	0,1	0,460663
2,425833	0,1	0,425838
2,427500	0,1	0,472502
2,429167	0,1	0,407662
2,430833	0,1	0,473161
2,432500	0,1	0,443978
2,434167	0,1	0,449873
2,435833	0,1	0,445836
2,437500	0,1	0,425566
2,439167	0,1	0,439224
2,440833	0,1	0,408293
2,442500	0,1	0,404477
2,444167	0,1	0,382696
2,445833	0,1	0,433977
2,447500	0,1	0,416947
2,449167	0,1	0,382967
2,450833	0,1	0,393497
2,452500	0,1	0,447935
2,454167	0,1	0,358213
2,455833	0,1	0,395832
2,457500	0,1	0,389547
2,459167	0,1	0,404577
2,460833	0,1	0,407790
2,462500	0,1	0,419612
2,464167	0,1	0,318665
2,465833	0,1	0,448021
2,467500	0,1	0,424738
2,469167	0,1	0,393341
2,470833	0,1	0,393500
2,472500	0,1	0,377392
2,474167	0,1	0,369336
2,475833	0,1	0,412687
2,477500	0,1	0,365078
2,479167	0,1	0,374756
2,480833	0,1	0,357389
2,482500	0,1	0,393180
2,484167	0,1	0,343336
2,485833	0,1	0,344546
2,487500	0,1	0,376140
2,489167	0,1	0,368384
2,490833	0,1	0,364032
2,492500	0,1	0,348030
2,494167	0,1	0,330075
2,495833	0,1	0,402801
2,497500	0,1	0,352302
2,499167	0,1	0,354817
2,500833	0,1	0,360553
2,502500	0,1	0,359436
2,504167	0,1	0,335088
2,505833	0,1	0,395245
2,507500	0,1	0,326484
2,509167	0,1	0,379301
2,510833	0,1	0,343892
2,512500	0,1	0,347012
2,514167	0,1	0,354400
2,515833	0,1	0,362063
2,517500	0,1	0,329976
2,519167	0,1	0,376074
2,520833	0,1	0,294708
2,522500	0,1	0,330230
2,524167	0,1	0,340777
2,525833	0,1	0,333883
2,527500	0,1	0,324526
2,529167	0,1	0,329180
2,530833	0,1	0,341375
2,532500	0,1	0,339205
2,534167	0,1	0,308175
2,535833	0,1	0,306925
2,537500	0,1	0,287880
2,539167	0,1	0,315716
2,540833	0,1	0,324003
2,542500	0,1	0,336778
2,544167	0,1	0,347422
2,545833	0,1	0,303994
2,547500	0,1	0,348760
2,549167	0,1	0,358645
2,550833	0,1	0,306581
2,552500	0,1	0,324272
2,554167	0,1	0,322992
2,555833	0,1	0,323319
2,557500	0,1	0,351703
2,559167	0,1	0,308487
2,560833	0,1	0,333731
2,562500	0,1	0,312271
2,564167	0,1	0,350523
2,565833	0,1	0,324029
2,567500	0,1	0,352969
2,569167	0,1	0,304098
2,570833	0,1	0,281647
2,572500	0,1	0,362647
2,574167	0,1	0,334385
2,575833	0,1	0,353551
2,577500	0,1	0,293190
2,579167	0,1	0,319941
2,580833	0,1	0,332099
2,582500	0,1	0,339038
2,584167	0,1	0,366614
2,585833	0,1	0,341343
2,587500	0,1	0,386470
2,589167	0,1	0,329690
2,590833	0,1	0,371643
2,592500	0,1	0,372894
2,594167	0,1	0,353951
2,595833	0,1	0,414259
2,597500	0,1	0,382844
2,599167	0,1	0,353705
2,600833	0,1	0,333471
2,602500	0,1	0,323136
2,604167	0,1	0,381930
2,605833	0,1	0,351367
2,607500	0,1	0,362208
2,609167	0,1	0,377323
2,610833	0,1	0,360559
2,612500	0,1	0,385666
2,614167	0,1	0,389398
2,615833	0,1	0,360726
2,617500	0,1	0,364796
2,619167	0,1	0,380139
2,620833	0,1	0,374865
2,622500	0,1	0,375298
2,624167	0,1	0,384779
2,625833	0,1	0,395506
2,627500	0,1	0,392197
2,629167	0,1	0,339234
2,630833	0,1	0,401045
2,632500	0,1	0,418553
2,634167	0,1	0,359843
2,635833	0,1	0,366123
2,637500	0,1	0,395812
2,639167	0,1	0,366442
2,640833	0,1	0,334262
2,642500	0,1	0,374811
2,644167	0,1	0,396934
2,645833	0,1	0,381411
2,647500	0,1	0,370205
2,649167	0,1	0,398960
2,650833	0,1	0,391245
2,652500	0,1	0,381596
2,654167	0,1	0,390888
2,655833	0,1	0,406232
2,657500	0,1	0,374809
2,659167	0,1	0,390866
2,660833	0,1	0,397455
2,662500	0,1	0,366194
2,664167	0,1	0,401549
2,665833	0,1	0,367788
2,667500	0,1	0,357140
2,669167	0,1	0,358275
2,670833	0,1	0,354859
2,672500	0,1	0,370552
2,674167	0,1	0,366352
2,675833	0,1	0,393805
2,677500	0,1	0,359837
2,679167	0,1	0,361692
2,680833	0,1	0,381297
2,682500	0,1	0,354099
2,684167	0,1	0,331651
2,685833	0,1	0,357605
2,687500	0,1	0,320660
2,689167	0,1	0,381848
2,690833	0,1	0,375424
2,692500	0,1	0,347348
2,694167	0,1	0,351129
2,695833	0,1	0,342769
2,697500	0,1	0,338376
2,699167	0,1	0,346781
2,700833	0,1	0,363304
2,702500	0,1	0,368028
2,704167	0,1	0,374136
2,705833	0,1	0,328674
2,707500	0,1	0,323736
2,709167	0,1	0,365866
2,710833	0,1	0,337347
2,712500	0,1	0,379719
2,714167	0,1	0,333686
2,715833	0,1	0,355827
2,717500	0,1	0,374112
2,719167	0,1	0,353560
2,720833	0,1	0,324592
2,722500	0,1	0,334314
2,724167	0,1	0,352286
2,725833	0,1	0,313538
2,727500	0,1	0,339529
2,729167	0,1	0,361582
2,730833	0,1	0,328050
2,732500	0,1	0,338931
2,734167	0,1	0,318707
2,735833	0,1	0,344686
2,737500	0,1	0,362268
2,739167	0,1	0,357945
2,740833	0,1	0,347034
2,742500	0,1	0,331691
2,744167	0,1	0,326118
2,745833	0,1	0,342325
2,747500	0,1	0,333906
2,749167	0,1	0,350029
2,750833	0,1	0,315236
2,752500	0,1	0,367727
2,754167	0,1	0,325485
2,755833	0,1	0,317464
2,757500	0,1	0,358969
2,759167	0,1	0,363763
2,760833	0,1	0,394115
2,762500	0,1	0,323731
2,764167	0,1	0,321789
2,765833	0,1	0,390605
2,767500	0,1	0,334413
2,769167	0,1	0,342018
2,770833	0,1	0,349640
2,772500	0,1	0,366244
2,774167	0,1	0,375854
2,775833	0,1	0,381344
2,777500	0,1	0,368735
2,779167	0,1	0,409995
2,780833	0,1	0,355472
2,782500	0,1	0,382291
2,784167	0,1	0,393333
2,785833	0,1	0,410519
2,787500	0,1	0,399612
2,789167	0,1	0,387207
2,790833	0,1	0,397991
2,792500	0,1	0,382674
2,794167	0,1	0,414390
2,795833	0,1	0,408372
2,797500	0,1	0,422014
2,799167	0,1	0,449743
2,800833	0,1	0,411920
2,802500	0,1	0,405286
2,804167	0,1	0,404083
2,805833	0,1	0,413816
2,807500	0,1	0,438540
2,809167	0,1	0,429354
2,810833	0,1	0,412495
2,812500	0,1	0,446780
2,814167	0,1	0,463808
2,815833	0,1	0,413228
2,817500	0,1	0,400856
2,819167	0,1	0,451767
2,820833	0,1	0,416208
2,822500	0,1	0,411602
2,824167	0,1	0,441749
2,825833	0,1	0,459706
2,827500	0,1	0,459297
2,829167	0,1	0,438652
2,830833	0,1	0,479175
2,832500	0,1	0,414247
2,834167	0,1	0,415806
2,835833	0,1	0,441875
2,837500	0,1	0,454366
2,839167	0,1	0,413992
2,840833	0,1	0,439556
2,842500	0,1	0,391628
2,844167	0,1	0,392383
2,845833	0,1	0,412837
2,847500	0,1	0,405038
2,849167	0,1	0,463885
2,850833	0,1	0,446811
2,852500	0,1	0,408897
2,854167	0,1	0,388183
2,855833	0,1	0,404184
2,857500	0,1	0,394229
2,859167	0,1	0,401140
2,860833	0,1	0,381350
2,862500	0,1	0,391676
2,864167	0,1	0,387205
2,865833	0,1	0,397805
2,867500	0,1	0,400728
2,869167	0,1	0,370334
2,870833	0,1	0,421261
2,872500	0,1	0,364873
2,874167	0,1	0,396640
2,875833	0,1	0,397394
2,877500	0,1	0,380686
2,879167	0,1	0,368115
2,880833	0,1	0,392646
2,882500	0,1	0,379091
2,884167	0,1	0,374077
2,885833	0,1	0,360453
2,887500	0,1	0,387218
2,889167	0,1	0,353790
2,890833	0,1	0,377838
2,892500	0,1	0,398693
2,894167	0,1	0,405241
2,895833	0,1	0,329903
2,897500	0,1	0,341746
2,899167	0,1	0,326927
2,900833	0,1	0,330093
2,902500	0,1	0,348186
2,904167	0,1	0,305919
2,905833	0,1	0,347498
2,907500	0,1	0,312854
2,909167	0,1	0,321706
2,910833	0,1	0,287654
2,912500	0,1	0,272097
2,914167	0,1	0,327719
2,915833	0,1	0,299971
2,917500	0,1	0,319634
2,919167	0,1	0,296434
2,920833	0,1	0,308991
2,922500	0,1	0,297777
2,924167	0,1	0,295973
2,925833	0,1	0,258448
2,927500	0,1	0,281863
2,929167	0,1	0,261442
2,930833	0,1	0,257772
2,932500	0,1	0,272880
2,934167	0,1	0,270300
2,935833	0,1	0,306813
2,937500	0,1	0,274096
2,939167	0,1	0,266862
2,940833	0,1	0,280335
2,942500	0,1	0,256037
2,944167	0,1	0,243840
2,945833	0,1	0,241939
2,947500	0,1	0,230986
2,949167	0,1	0,269480
2,950833	0,1	0,246805
2,952500	0,1	0,257004
2,954167	0,1	0,212049
2,955833	0,1	0,238097
2,957500	0,1	0,226020
2,959167	0,1	0,263749
2,960833	0,1	0,213791
2,962500	0,1	0,192838
2,964167	0,1	0,215226
2,965833	0,1	0,226734
2,967500	0,1	0,236529
2,969167	0,1	0,223927
2,970833	0,1	0,194931
2,972500	0,1	0,261649
2,974167	0,1	0,225814
2,975833	0,1	0,262878
2,977500	0,1	0,252270
2,979167	0,1	0,216400
2,980833	0,1	0,234110
2,982500	0,1	0,232743
2,984167	0,1	0,224217
2,985833	0,1	0,175580
2,987500	0,1	0,209754
2,989167	0,1	0,207513
2,990833	0,1	0,199785
2,992500	0,1	0,245486
2,994167	0,1	0,241648
2,995833	0,1	0,200114
2,997500	0,1	0,204811
2,999167	0,1	0,229298
3,000833	0,1	0,260980
3,002500	0,1	0,261833
3,004167	0,1	0,262018
3,005833	0,1	0,263010
3,007500	0,1	0,248966
3,009167	0,1	0,236077
3,010833	0,1	0,261247
3,012500	0,1	0,265410
3,014167	0,1	0,235747
3,015833	0,1	0,254144
3,017500	0,1	0,257972
3,019167	0,1	0,222191
3,020833	0,1	0,285416
3,022500	0,1	0,263595
3,024167	0,1	0,275535
3,025833	0,1	0,267628
3,027500	0,1	0,288492
3,029167	0,1	0,267614
3,030833	0,1	0,290664
3,032500	0,1	0,275911
3,034167	0,1	0,260508
3,035833	0,1	0,277787
3,037500	0,1	0,267981
3,039167	0,1	0,276197
3,040833	0,1	0,256888
3,042500	0,1	0,307493
3,044167	0,1	0,277260
3,045833	0,1	0,293937
3,047500	0,1	0,266410
3,049167	0,1	0,309959
3,050833	0,1	0,260516
3,052500	0,1	0,313475
3,054167	0,1	0,317379
3,055833	0,1	0,291152
3,057500	0,1	0,293113
3,059167	0,1	0,309427
3,060833	0,1	0,330916
3,062500	0,1	0,278532
3,064167	0,1	0,258768
3,065833	0,1	0,285573
3,067500	0,1	0,320001
3,069167	0,1	0,304505
3,070833	0,1	0,299516
3,072500	0,1	0,311559
3,074167	0,1	0,273683
3,075833	0,1	0,279732
3,077500	0,1	0,311905
3,079167	0,1	0,315683
3,080833	0,1	0,319305
3,082500	0,1	0,313012
3,084167	0,1	0,248222
3,085833	0,1	0,300741
3,087500	0,1	0,270764
3,089167	0,1	0,299858
3,090833	0,1	0,304851
3,092500	0,1	0,319820
3,094167	0,1	0,268922
3,095833	0,1	0,257237
3,097500	0,1	0,256135
3,099167	0,1	0,311758
3,100833	0,1	0,282333
3,102500	0,1	0,252599
3,104167	0,1	0,242037
3,105833	0,1	0,275611
3,107500	0,1	0,296836
3,109167	0,1	0,263598
3,110833	0,1	0,283666
3,112500	0,1	0,259930
3,114167	0,1	0,255705
3,115833	0,1	0,240447
3,117500	0,1	0,253960
3,119167	0,1	0,248769
3,120833	0,1	0,253735
3,122500	0,1	0,246264
3,124167	0,1	0,231321
3,125833	0,1	0,250688
3,127500	0,1	0,216415
3,129167	0,1	0,223845
3,130833	0,1	0,234831
3,132500	0,1	0,209996
3,134167	0,1	0,223174
3,135833	0,1	0,251908
3,137500	0,1	0,240489
3,139167	0,1	0,209982
3,140833	0,1	0,229590
3,142500	0,1	0,175978
3,144167	0,1	0,230267
3,145833	0,1	0,162979
3,147500	0,1	0,204478
3,149167	0,1	0,175039
3,150833	0,1	0,231488
3,152500	0,1	0,215250
3,154167	0,1	0,207900
3,155833	0,1	0,210616
3,157500	0,1	0,208645
3,159167	0,1	0,213013
3,160833	0,1	0,209472
3,162500	0,1	0,206721
3,164167	0,1	0,182510
3,165833	0,1	0,206101
3,167500	0,1	0,227858
3,169167	0,1	0,206375
3,170833	0,1	0,210631
3,172500	0,1	0,182695
3,174167	0,1	0,180244
3,175833	0,1	0,188902
3,177500	0,1	0,157426
3,179167	0,1	0,165361
3,180833	0,1	0,190671
3,182500	0,1	0,223108
3,184167	0,1	0,146346
3,185833	0,1	0,187459
3,187500	0,1	0,172638
3,189167	0,1	0,156092
3,190833	0,1	0,169607
3,192500	0,1	0,167869
3,194167	0,1	0,139474
3,195833	0,1	0,158942
3,197500	0,1	0,147169
3,199167	0,1	0,142601
3,200833	0,1	0,175744
3,202500	0,1	0,198725
3,204167	0,1	0,174871
3,205833	0,1	0,142516
3,207500	0,1	0,167862
3,209167	0,1	0,128966
3,210833	0,1	0,139250
3,212500	0,1	0,139514
3,214167	0,1	0,153854
3,215833	0,1	0,156607
3,217500	0,1	0,134493
3,219167	0,1	0,134212
3,220833	0,1	0,177069
3,222500	0,1	0,135566
3,224167	0,1	0,145225
3,225833	0,1	0,118178
3,227500	0,1	0,142655
3,229167	0,1	0,112709
3,230833	0,1	0,122661
3,232500	0,1	0,132820
3,234167	0,1	0,144475
3,235833	0,1	0,128961
3,237500	0,1	0,116189
3,239167	0,1	0,123669
3,240833	0,1	0,123320
3,242500	0,1	0,119350
3,244167	0,1	0,171003
3,245833	0,1	0,118813
3,247500	0,1	0,121793
3,249167	0,1	0,124311
3,250833	0,1	0,150124
3,252500	0,1	0,151352
3,254167	0,1	0,114940
3,255833	0,1	0,125060
3,257500	0,1	0,110294
3,259167	0,1	0,115726
3,260833	0,1	0,105358
3,262500	0,1	0,151755
3,264167	0,1	0,137837
3,265833	0,1	0,092946
3,267500	0,1	0,111645
3,269167	0,1	0,136955
3,270833	0,1	0,131541
3,272500	0,1	0,101742
3,274167	0,1	0,076309
3,275833	0,1	0,124165
3,277500	0,1	0,113975
3,279167	0,1	0,090010
3,280833	0,1	0,090998
3,282500	0,1	0,120487
3,284167	0,1	0,094029
3,285833	0,1	0,098160
3,287500	0,1	0,096927
3,289167	0,1	0,091458
3,290833	0,1	0,123771
3,292500	0,1	0,110476
3,294167	0,1	0,101310
3,295833	0,1	0,060214
3,297500	0,1	0,122330
3,299167	0,1	0,101711
3,300833	0,1	0,133563
3,302500	0,1	0,131754
3,304167	0,1	0,112877
3,305833	0,1	0,149755
3,307500	0,1	0,122473
3,309167	0,1	0,075901
3,310833	0,1	0,122058
3,312500	0,1	0,087385
3,314167	0,1	0,125984
3,315833	0,1	0,099235
3,317500	0,1	0,125576
3,319167	0,1	0,092794
3,320833	0,1	0,115433
3,322500	0,1	0,151391
3,324167	0,1	0,101368
3,325833	0,1	0,122658
3,327500	0,1	0,067746
3,329167	0,1	0,081478
3,330833	0,1	0,090415
3,332500	0,1	0,058166
3,334167	0,1	0,114309
3,335833	0,1	0,127792
3,337500	0,1	0,094624
3,339167	0,1	0,106819
3,340833	0,1	0,073636
3,342500	0,1	0,116939
3,344167	0,1	0,124525
3,345833	0,1	0,091875
3,347500	0,1	0,095792
3,349167	0,1	0,136113
3,350833	0,1	0,095803
3,352500	0,1	0,113433
3,354167	0,1	0,071640
3,355833	0,1	0,117689
3,357500	0,1	0,109407
3,359167	0,1	0,105767
3,360833	0,1	0,100164
3,362500	0,1	0,107844
3,364167	0,1	0,103660
3,365833	0,1	0,133807
3,367500	0,1	0,105119
3,369167	0,1	0,130404
3,370833	0,1	0,113226
3,372500	0,1	0,126281
3,374167	0,1	0,113975
3,375833	0,1	0,112994
3,377500	0,1	0,125640
3,379167	0,1	0,112631
3,380833	0,1	0,091219
3,382500	0,1	0,128659
3,384167	0,1	0,110173
3,385833	0,1	0,098988
3,387500	0,1	0,125560
3,389167	0,1	0,131400
3,390833	0,1	0,089372
3,392500	0,1	0,119922
3,394167	0,1	0,137721
3,395833	0,1	0,114145
3,397500	0,1	0,106762
3,399167	0,1	0,108381
3,400833	0,1	0,118339
3,402500	0,1	0,114371
3,404167	0,1	0,107051
3,405833	0,1	0,122005
3,407500	0,1	0,129766
3,409167	0,1	0,129585
3,410833	0,1	0,125551
3,412500	0,1	0,104813
3,414167	0,1	0,105036
3,415833	0,1	0,124660
3,417500	0,1	0,096259
3,419167	0,1	0,194092
3,420833	0,1	0,133937
3,422500	0,1	0,111518
3,424167	0,1	0,137933
3,425833	0,1	0,129142
3,427500	0,1	0,154677
3,429167	0,1	0,139868
3,430833	0,1	0,115855
3,432500	0,1	0,133107
3,434167	0,1	0,152067
3,435833	0,1	0,138600
3,437500	0,1	0,136704
3,439167	0,1	0,109623
3,440833	0,1	0,142958
3,442500	0,1	0,095865
3,444167	0,1	0,113387
3,445833	0,1	0,126968
3,447500	0,1	0,080392
3,449167	0,1	0,063260
3,450833	0,1	0,125599
3,452500	0,1	0,126040
3,454167	0,1	0,118174
3,455833	0,1	0,117822
3,457500	0,1	0,122540
3,459167	0,1	0,139388
3,460833	0,1	0,145332
3,462500	0,1	0,107046
3,464167	0,1	0,095780
3,465833	0,1	0,088540
3,467500	0,1	0,119861
3,469167	0,1	0,121305
3,470833	0,1	0,143664
3,472500	0,1	0,115628
3,474167	0,1	0,114216
3,475833	0,1	0,131230
3,477500	0,1	0,134670
3,479167	0,1	0,077877
3,480833	0,1	0,108771
3,482500	0,1	0,105633
3,484167	0,1	0,133441
3,485833	0,1	0,112342
3,487500	0,1	0,073272
3,489167	0,1	0,099271
3,490833	0,1	0,075910
3,492500	0,1	0,118437
3,494167	0,1	0,166434
3,495833	0,1	0,120108
3,497500	0,1	0,153897
3,499167	0,1	0,134644
3,500833	0,1	0,110020
3,502500	0,1	0,114308
3,504167	0,1	0,103405
3,505833	0,1	0,155709
3,507500	0,1	0,099060
3,509167	0,1	0,115816
3,510833	0,1	0,121885
3,512500	0,1	0,098350
3,514167	0,1	0,151173
3,515833	0,1	0,114636
3,517500	0,1	0,141783
3,519167	0,1	0,131176
3,520833	0,1	0,193092
3,522500	0,1	0,107760
3,524167	0,1	0,125225
3,525833	0,1	0,169171
3,527500	0,1	0,125868
3,529167	0,1	0,107102
3,530833	0,1	0,120735
3,532500	0,1	0,137477
3,534167	0,1	0,154481
3,535833	0,1	0,139348
3,537500	0,1	0,148203
3,539167	0,1	0,107384
3,540833	0,1	0,069836
3,542500	0,1	0,084302
3,544167	0,1	0,121143
3,545833	0,1	0,105697
3,547500	0,1	0,105815
3,549167	0,1	0,105584
3,550833	0,1	0,148623
3,552500	0,1	0,114622
3,554167	0,1	0,107160
3,555833	0,1	0,134449
3,557500	0,1	0,136595
3,559167	0,1	0,106618
3,560833	0,1	0,135077
3,562500	0,1	0,151976
3,564167	0,1	0,114225
3,565833	0,1	0,112933
3,567500	0,1	0,111865
3,569167	0,1	0,159271
3,570833	0,1	0,153340
3,572500	0,1	0,098512
3,574167	0,1	0,101445
3,575833	0,1	0,118520
3,577500	0,1	0,152797
3,579167	0,1	0,129437
3,580833	0,1	0,137282
3,582500	0,1	0,141041
3,584167	0,1	0,112574
3,585833	0,1	0,111695
3,587500	0,1	0,144226
3,589167	0,1	0,126564
3,590833	0,1	0,134027
3,592500	0,1	0,154036
3,594167	0,1	0,116852
3,595833	0,1	0,125747
3,597500	0,1	0,108796
3,599167	0,1	0,112734
3,600833	0,1	0,113546
3,602500	0,1	0,119867
3,604167	0,1	0,134269
3,605833	0,1	0,105684
3,607500	0,1	0,087381
3,609167	0,1	0,120197
3,610833	0,1	0,081795
3,612500	0,1	0,123159
3,614167	0,1	0,116601
3,615833	0,1	0,134194
3,617500	0,1	0,121492
3,619167	0,1	0,113974
3,620833	0,1	0,082313
3,622500	0,1	0,120042
3,624167	0,1	0,117883
3,625833	0,1	0,137219
3,627500	0,1	0,128317
3,629167	0,1	0,125217
3,630833	0,1	0,112218
3,632500	0,1	0,101067
3,634167	0,1	0,077057
3,635833	0,1	0,118377
3,637500	0,1	0,091935
3,639167	0,1	0,091868
3,640833	0,1	0,112441
3,642500	0,1	0,132343
3,644167	0,1	0,117886
3,645833	0,1	0,126267
3,647500	0,1	0,108126
3,649167	0,1	0,120796
3,650833	0,1	0,084239
3,652500	0,1	0,074765
3,654167	0,1	0,098432
3,655833	0,1	0,082081
3,657500	0,1	0,134658
3,659167	0,1	0,091865
3,660833	0,1	0,138753
3,662500	0,1	0,129831
3,664167	0,1	0,121962
3,665833	0,1	0,096884
3,667500	0,1	0,091242
3,669167	0,1	0,100132
3,670833	0,1	0,087535
3,672500	0,1	0,081194
3,674167	0,1	0,096537
3,675833	0,1	0,100498
3,677500	0,1	0,122994
3,679167	0,1	0,107499
3,680833	0,1	0,128127
3,682500	0,1	0,118174
3,684167	0,1	0,116937
3,685833	0,1	0,107328
3,687500	0,1	0,096011
3,689167	0,1	0,084752
3,690833	0,1	0,101669
3,692500	0,1	0,103159
3,694167	0,1	0,130997
3,695833	0,1	0,123996
3,697500	0,1	0,120556
3,699167	0,1	0,155591
3,700833	0,1	0,116272
3,702500	0,1	0,098457
3,704167	0,1	0,135656
3,705833	0,1	0,148097
3,707500	0,1	0,126992
3,709167	0,1	0,105987
3,710833	0,1	0,127502
3,712500	0,1	0,096488
3,714167	0,1	0,141672
3,715833	0,1	0,156299
3,717500	0,1	0,169437
3,719167	0,1	0,119284
3,720833	0,1	0,168682
3,722500	0,1	0,139200
3,724167	0,1	0,201433
3,725833	0,1	0,155549
3,727500	0,1	0,159479
3,729167	0,1	0,215473
3,730833	0,1	0,198778
3,732500	0,1	0,150158
3,734167	0,1	0,194412
3,735833	0,1	0,184966
3,737500	0,1	0,230788
3,739167	0,1	0,195011
3,740833	0,1	0,203890
3,742500	0,1	0,223127
3,744167	0,1	0,254186
3,745833	0,1	0,237300
3,747500	0,1	0,238649
3,749167	0,1	0,269877
3,750833	0,1	0,216174
3,752500	0,1	0,267885
3,754167	0,1	0,272574
3,755833	0,1	0,286322
3,757500	0,1	0,265705
3,759167	0,1	0,293250
3,760833	0,1	0,267307
3,762500	0,1	0,295427
3,764167	0,1	0,315926
3,765833	0,1	0,345616
3,767500	0,1	0,329062
3,769167	0,1	0,296536
3,770833	0,1	0,296693
3,772500	0,1	0,324231
3,774167	0,1	0,330113
3,775833	0,1	0,287717
3,777500	0,1	0,284580
3,779167	0,1	0,319256
3,780833	0,1	0,344891
3,782500	0,1	0,385974
3,784167	0,1	0,321268
3,785833	0,1	0,401205
3,787500	0,1	0,379217
3,789167	0,1	0,362401
3,790833	0,1	0,391525
3,792500	0,1	0,367870
3,794167	0,1	0,401091
3,795833	0,1	0,415967
3,797500	0,1	0,386466
3,799167	0,1	0,358964
3,800833	0,1	0,407819
3,802500	0,1	0,409219
3,804167	0,1	0,417999
3,805833	0,1	0,416985
3,807500	0,1	0,398309
3,809167	0,1	0,430623
3,810833	0,1	0,417486
3,812500	0,1	0,425082
3,814167	0,1	0,435645
3,815833	0,1	0,422020
3,817500	0,1	0,413673
3,819167	0,1	0,439015
3,820833	0,1	0,438153
3,822500	0,1	0,435108
3,824167	0,1	0,432313
3,825833	0,1	0,446185
3,827500	0,1	0,430783
3,829167	0,1	0,456226
3,830833	0,1	0,453893
3,832500	0,1	0,449337
3,834167	0,1	0,435526
3,835833	0,1	0,409867
3,837500	0,1	0,441644
3,839167	0,1	0,419477
3,840833	0,1	0,426634
3,842500	0,1	0,432766
3,844167	0,1	0,461487
3,845833	0,1	0,454888
3,847500	0,1	0,461784
3,849167	0,1	0,421883
3,850833	0,1	0,468650
3,852500	0,1	0,455986
3,854167	0,1	0,443581
3,855833	0,1	0,439727
3,857500	0,1	0,417220
3,859167	0,1	0,420113
3,860833	0,1	0,425163
3,862500	0,1	0,392804
3,864167	0,1	0,433626
3,865833	0,1	0,395788
3,867500	0,1	0,432218
3,869167	0,1	0,450348
3,870833	0,1	0,399064
3,872500	0,1	0,408719
3,874167	0,1	0,417458
3,875833	0,1	0,371581
3,877500	0,1	0,418671
3,879167	0,1	0,404004
3,880833	0,1	0,404001
3,882500	0,1	0,355865
3,884167	0,1	0,405955
3,885833	0,1	0,390916
3,887500	0,1	0,345261
3,889167	0,1	0,331049
3,890833	0,1	0,360733
3,892500	0,1	0,345524
3,894167	0,1	0,336474
3,895833	0,1	0,320903
3,897500	0,1	0,332161
3,899167	0,1	0,331545
3,900833	0,1	0,327757
3,902500	0,1	0,353692
3,904167	0,1	0,297060
3,905833	0,1	0,297174
3,907500	0,1	0,308368
3,909167	0,1	0,306180
3,910833	0,1	0,250311
3,912500	0,1	0,301465
3,914167	0,1	0,262273
3,915833	0,1	0,282674
3,917500	0,1	0,318802
3,919167	0,1	0,307693
3,920833	0,1	0,276680
3,922500	0,1	0,257511
3,924167	0,1	0,236518
3,925833	0,1	0,238103
3,927500	0,1	0,291281
3,929167	0,1	0,272703
3,930833	0,1	0,274105
3,932500	0,1	0,292425
3,934167	0,1	0,213279
3,935833	0,1	0,236111
3,937500	0,1	0,267786
3,939167	0,1	0,256429
3,940833	0,1	0,184630
3,942500	0,1	0,209572
3,944167	0,1	0,238696
3,945833	0,1	0,195258
3,947500	0,1	0,202623
3,949167	0,1	0,195477
3,950833	0,1	0,230210
3,952500	0,1	0,220702
3,954167	0,1	0,174401
3,955833	0,1	0,242994
3,957500	0,1	0,178043
3,959167	0,1	0,203076
3,960833	0,1	0,192360
3,962500	0,1	0,200452
3,964167	0,1	0,186524
3,965833	0,1	0,198817
3,967500	0,1	0,208259
3,969167	0,1	0,192926
3,970833	0,1	0,178474
3,972500	0,1	0,204175
3,974167	0,1	0,172412
3,975833	0,1	0,158322
3,977500	0,1	0,174098
3,979167	0,1	0,196371
3,980833	0,1	0,160116
3,982500	0,1	0,169608
3,984167	0,1	0,177871
3,985833	0,1	0,175385
3,987500	0,1	0,156507
3,989167	0,1	0,191815
3,990833	0,1	0,156708
3,992500	0,1	0,148727
3,994167	0,1	0,119982
3,995833	0,1	0,152903
3,997500	0,1	0,154852
3,999167	0,1	0,137135
4,000833	0,1	0,153626
4,002500	0,1	0,153569
4,004167	0,1	0,162197
4,005833	0,1	0,171699
4,007500	0,1	0,107739
4,009167	0,1	0,132085
4,010833	0,1	0,185242
4,012500	0,1	0,201276
4,014167	0,1	0,164652
4,015833	0,1	0,149553
4,017500	0,1	0,166733
4,019167	0,1	0,167271
4,020833	0,1	0,141062
4,022500	0,1	0,119232
4,024167	0,1	0,186032
4,025833	0,1	0,160938
4,027500	0,1	0,159924
4,029167	0,1	0,123910
4,030833	0,1	0,167674
4,032500	0,1	0,149218
4,034167	0,1	0,157355
4,035833	0,1	0,210023
4,037500	0,1	0,201969
4,039167	0,1	0,171342
4,040833	0,1	0,218395
4,042500	0,1	0,180221
4,044167	0,1	0,215284
4,045833	0,1	0,225294
4,047500	0,1	0,212176
4,049167	0,1	0,207593
4,050833	0,1	0,220635
4,052500	0,1	0,201576
4,054167	0,1	0,202289
4,055833	0,1	0,235144
4,057500	0,1	0,238560
4,059167	0,1	0,223700
4,060833	0,1	0,288835
4,062500	0,1	0,246457
4,064167	0,1	0,247195
4,065833	0,1	0,283620
4,067500	0,1	0,317663
4,069167	0,1	0,282107
4,070833	0,1	0,312862
4,072500	0,1	0,256958
4,074167	0,1	0,291575
4,075833	0,1	0,311599
4,077500	0,1	0,306322
4,079167	0,1	0,342923
4,080833	0,1	0,381605
4,082500	0,1	0,364038
4,084167	0,1	0,381610
4,085833	0,1	0,395174
4,087500	0,1	0,375448
4,089167	0,1	0,412191
4,090833	0,1	0,375016
4,092500	0,1	0,432606
4,094167	0,1	0,430655
4,095833	0,1	0,413737
4,097500	0,1	0,455768
4,099167	0,1	0,505867
4,100833	0,1	0,497596
4,102500	0,1	0,473183
4,104167	0,1	0,525194
4,105833	0,1	0,522350
4,107500	0,1	0,569797
4,109167	0,1	0,527645
4,110833	0,1	0,574380
4,112500	0,1	0,605630
4,114167	0,1	0,599378
4,115833	0,1	0,618704
4,117500	0,1	0,622663
4,119167	0,1	0,632739
4,120833	0,1	0,612708
4,122500	0,1	0,674354
4,124167	0,1	0,694829
4,125833	0,1	0,707518
4,127500	0,1	0,686099
4,129167	0,1	0,704593
4,130833	0,1	0,767964
4,132500	0,1	0,726354
4,134167	0,1	0,737518
4,135833	0,1	0,771630
4,137500	0,1	0,757666
4,139167	0,1	0,781946
4,140833	0,1	0,797789
4,142500	0,1	0,806595
4,144167	0,1	0,809937
4,145833	0,1	0,789924
4,147500	0,1	0,866375
4,149167	0,1	0,845481
4,150833	0,1	0,893310
4,152500	0,1	0,842305
4,154167	0,1	0,895108
4,155833	0,1	0,900938
4,157500	0,1	0,915784
4,159167	0,1	0,928830
4,160833	0,1	0,924817
4,162500	0,1	0,944417
4,164167	0,1	0,928033
4,165833	0,1	0,935198
4,167500	0,1	0,993040
4,169167	0,1	0,959728
4,170833	0,1	0,968494
4,172500	0,1	0,962134
4,174167	0,1	0,977747
4,175833	0,1	1,002108
4,177500	0,1	1,010793
4,179167	0,1	0,997008
4,180833	0,1	1,012207
4,182500	0,1	1,015620
4,184167	0,1	1,022431
4,185833	0,1	1,028347
4,187500	0,1	1,020830
4,189167	0,1	1,040112
4,190833	0,1	1,073534
4,192500	0,1	1,085215
4,194167	0,1	1,029741
4,195833	0,1	1,057880
4,197500	0,1	1,089515
4,199167	0,1	1,029229
4,200833	0,1	1,058048
4,202500	0,1	1,055931
4,204167	0,1	1,062228
4,205833	0,1	1,090671
4,207500	0,1	1,042988
4,209167	0,1	1,046740
4,210833	0,1	1,091535
4,212500	0,1	1,061789
4,214167	0,1	1,056697
4,215833	0,1	1,043335
4,217500	0,1	1,060194
4,219167	0,1	1,087616
4,220833	0,1	1,059309
4,222500	0,1	1,057404
4,224167	0,1	1,062581
4,225833	0,1	1,039927
4,227500	0,1	1,052005
4,229167	0,1	1,054066
4,230833	0,1	1,082798
4,232500	0,1	1,025436
4,234167	0,1	1,015564
4,235833	0,1	1,024294
4,237500	0,1	1,020539
4,239167	0,1	1,045729
4,240833	0,1	1,028323
4,242500	0,1	1,043710
4,244167	0,1	1,011987
4,245833	0,1	1,054504
4,247500	0,1	1,027517
4,249167	0,1	1,020123
4,250833	0,1	0,992802
4,252500	0,1	1,013427
4,254167	0,1	0,983354
4,255833	0,1	1,001047
4,257500	0,1	0,978303
4,259167	0,1	1,012975
4,260833	0,1	0,971850
4,262500	0,1	0,949795
4,264167	0,1	0,960590
4,265833	0,1	0,940091
4,267500	0,1	0,926588
4,269167	0,1	0,959938
4,270833	0,1	0,924988
4,272500	0,1	0,938181
4,274167	0,1	0,941269
4,275833	0,1	0,954222
4,277500	0,1	0,934526
4,279167	0,1	0,964406
4,280833	0,1	0,910753
4,282500	0,1	0,950807
4,284167	0,1	0,911684
4,285833	0,1	0,947947
4,287500	0,1	0,895134
4,289167	0,1	0,909900
4,290833	0,1	0,893231
4,292500	0,1	0,866433
4,294167	0,1	0,877380
4,295833	0,1	0,874685
4,297500	0,1	0,891197
4,299167	0,1	0,874400
4,300833	0,1	0,860420
4,302500	0,1	0,854346
4,304167	0,1	0,818753
4,305833	0,1	0,848425
4,307500	0,1	0,863724
4,309167	0,1	0,859903
4,310833	0,1	0,835906
4,312500	0,1	0,849457
4,314167	0,1	0,851130
4,315833	0,1	0,815410
4,317500	0,1	0,798119
4,319167	0,1	0,872514
4,320833	0,1	0,826240
4,322500	0,1	0,827354
4,324167	0,1	0,779908
4,325833	0,1	0,797919
4,327500	0,1	0,799016
4,329167	0,1	0,815623
4,330833	0,1	0,787742
4,332500	0,1	0,826092
4,334167	0,1	0,790221
4,335833	0,1	0,763521
4,337500	0,1	0,800258
4,339167	0,1	0,762366
4,340833	0,1	0,763868
4,342500	0,1	0,753040
4,344167	0,1	0,775653
4,345833	0,1	0,765475
4,347500	0,1	0,772862
4,349167	0,1	0,732360
4,350833	0,1	0,772500
4,352500	0,1	0,755196
4,354167	0,1	0,780022
4,355833	0,1	0,723433
4,357500	0,1	0,754611
4,359167	0,1	0,718903
4,360833	0,1	0,746705
4,362500	0,1	0,729594
4,364167	0,1	0,694715
4,365833	0,1	0,709699
4,367500	0,1	0,733729
4,369167	0,1	0,707364
4,370833	0,1	0,681794
4,372500	0,1	0,711530
4,374167	0,1	0,704184
4,375833	0,1	0,669682
4,377500	0,1	0,662074
4,379167	0,1	0,660525
4,380833	0,1	0,662008
4,382500	0,1	0,682885
4,384167	0,1	0,680511
4,385833	0,1	0,623535
4,387500	0,1	0,660942
4,389167	0,1	0,645112
4,390833	0,1	0,661137
4,392500	0,1	0,648070
4,394167	0,1	0,655131
4,395833	0,1	0,669941
4,397500	0,1	0,656809
4,399167	0,1	0,610408
4,400833	0,1	0,636046
4,402500	0,1	0,629026
4,404167	0,1	0,654547
4,405833	0,1	0,568016
4,407500	0,1	0,628013
4,409167	0,1	0,602921
4,410833	0,1	0,619094
4,412500	0,1	0,625015
4,414167	0,1	0,575436
4,415833	0,1	0,574844
4,417500	0,1	0,613220
4,419167	0,1	0,586789
4,420833	0,1	0,571196
4,422500	0,1	0,620055
4,424167	0,1	0,552508
4,425833	0,1	0,532865
4,427500	0,1	0,565758
4,429167	0,1	0,516541
4,430833	0,1	0,573483
4,432500	0,1	0,530505
4,434167	0,1	0,564474
4,435833	0,1	0,523227
4,437500	0,1	0,516656
4,439167	0,1	0,476438
4,440833	0,1	0,504738
4,442500	0,1	0,517209
4,444167	0,1	0,502734
4,445833	0,1	0,489024
4,447500	0,1	0,499706
4,449167	0,1	0,484342
4,450833	0,1	0,476906
4,452500	0,1	0,490840
4,454167	0,1	0,515959
4,455833	0,1	0,488799
4,457500	0,1	0,463468
4,459167	0,1	0,455197
4,460833	0,1	0,462010
4,462500	0,1	0,442216
4,464167	0,1	0,438609
4,465833	0,1	0,404629
4,467500	0,1	0,452160
4,469167	0,1	0,474247
4,470833	0,1	0,438781
4,472500	0,1	0,434570
4,474167	0,1	0,437799
4,475833	0,1	0,424918
4,477500	0,1	0,421542
4,479167	0,1	0,414917
4,480833	0,1	0,426072
4,482500	0,1	0,409347
4,484167	0,1	0,383546
4,485833	0,1	0,388963
4,487500	0,1	0,363439
4,489167	0,1	0,345689
4,490833	0,1	0,399763
4,492500	0,1	0,387745
4,494167	0,1	0,377703
4,495833	0,1	0,340891
4,497500	0,1	0,347591
4,499167	0,1	0,329933
4,500833	0,1	0,340715
4,502500	0,1	0,339496
4,504167	0,1	0,398517
4,505833	0,1	0,363131
4,507500	0,1	0,328654
4,509167	0,1	0,317074
4,510833	0,1	0,320176
4,512500	0,1	0,315123
4,514167	0,1	0,328023
4,515833	0,1	0,275570
4,517500	0,1	0,277561
4,519167	0,1	0,285656
4,520833	0,1	0,271895
4,522500	0,1	0,277148
4,524167	0,1	0,279038
4,525833	0,1	0,304766
4,527500	0,1	0,276206
4,529167	0,1	0,307868
4,530833	0,1	0,269544
4,532500	0,1	0,279571
4,534167	0,1	0,242420
4,535833	0,1	0,253918
4,537500	0,1	0,280130
4,539167	0,1	0,243442
4,540833	0,1	0,260008
4,542500	0,1	0,247092
4,544167	0,1	0,218904
4,545833	0,1	0,246459
4,547500	0,1	0,261600
4,549167	0,1	0,191732
4,550833	0,1	0,225595
4,552500	0,1	0,232108
4,554167	0,1	0,229427
4,555833	0,1	0,256489
4,557500	0,1	0,210627
4,559167	0,1	0,221443
4,560833	0,1	0,231115
4,562500	0,1	0,200065
4,564167	0,1	0,225431
4,565833	0,1	0,201577
4,567500	0,1	0,170854
4,569167	0,1	0,208909
4,570833	0,1	0,199799
4,572500	0,1	0,210138
4,574167	0,1	0,156956
4,575833	0,1	0,179748
4,577500	0,1	0,203869
4,579167	0,1	0,236839
4,580833	0,1	0,164661
4,582500	0,1	0,171685
4,584167	0,1	0,182607
4,585833	0,1	0,133002
4,587500	0,1	0,167310
4,589167	0,1	0,172648
4,590833	0,1	0,164065
4,592500	0,1	0,152272
4,594167	0,1	0,108270
4,595833	0,1	0,139644
4,597500	0,1	0,135116
4,599167	0,1	0,111473
4,600833	0,1	0,156047
4,602500	0,1	0,135714
4,604167	0,1	0,133571
4,605833	0,1	0,163169
4,607500	0,1	0,133182
4,609167	0,1	0,103240
4,610833	0,1	0,127655
4,612500	0,1	0,126147
4,614167	0,1	0,147070
4,615833	0,1	0,120305
4,617500	0,1	0,136928
4,619167	0,1	0,133327
4,620833	0,1	0,114833
4,622500	0,1	0,146656
4,624167	0,1	0,096310
4,625833	0,1	0,123298
4,627500	0,1	0,097863
4,629167	0,1	0,109370
4,630833	0,1	0,109392
4,632500	0,1	0,075135
4,634167	0,1	0,141149
4,635833	0,1	0,100111
4,637500	0,1	0,076017
4,639167	0,1	0,111808
4,640833	0,1	0,082941
4,642500	0,1	0,116348
4,644167	0,1	0,118691
4,645833	0,1	0,091861
4,647500	0,1	0,083976
4,649167	0,1	0,112654
4,650833	0,1	0,092501
4,652500	0,1	0,092922
4,654167	0,1	0,101294
4,655833	0,1	0,107405
4,657500	0,1	0,126081
4,659167	0,1	0,086286
4,660833	0,1	0,051111
4,662500	0,1	0,118005
4,664167	0,1	0,065699
4,665833	0,1	0,092827
4,667500	0,1	0,086204
4,669167	0,1	0,112196
4,670833	0,1	0,063640
4,672500	0,1	0,076941
4,674167	0,1	0,065157
4,675833	0,1	0,076164
4,677500	0,1	0,091210
4,679167	0,1	0,047613
4,680833	0,1	0,101283
4,682500	0,1	0,105205
4,684167	0,1	0,085551
4,685833	0,1	0,061953
4,687500	0,1	0,073552
4,689167	0,1	0,040821
4,690833	0,1	0,049647
4,692500	0,1	0,068661
4,694167	0,1	0,069569
4,695833	0,1	0,081804
4,697500	0,1	0,061709
4,699167	0,1	0,077400
4,700833	0,1	0,084216
4,702500	0,1	0,072248
4,704167	0,1	0,055016
4,705833	0,1	0,051441
4,707500	0,1	0,073644
4,709167	0,1	0,081662
4,710833	0,1	0,061755
4,712500	0,1	0,067644
4,714167	0,1	0,042538
4,715833	0,1	0,062569
4,717500	0,1	0,046844
4,719167	0,1	0,030857
4,720833	0,1	0,074679
4,722500	0,1	0,064379
4,724167	0,1	0,021495
4,725833	0,1	0,062457
4,727500	0,1	0,077157
4,729167	0,1	0,065218
4,730833	0,1	0,040324
4,732500	0,1	0,051316
4,734167	0,1	0,073523
4,735833	0,1	0,053153
4,737500	0,1	0,091542
4,739167	0,1	0,044699
4,740833	0,1	0,070497
4,742500	0,1	0,057277
4,744167	0,1	0,042232
4,745833	0,1	0,056858
4,747500	0,1	0,064936
4,749167	0,1	0,033426
4,750833	0,1	0,060016
4,752500	0,1	0,081005
4,754167	0,1	0,099777
4,755833	0,1	0,018357
4,757500	0,1	0,027655
4,759167	0,1	0,055101
4,760833	0,1	0,016641
4,762500	0,1	0,038146
4,764167	0,1	0,049742
4,765833	0,1	0,034717
4,767500	0,1	0,040242
4,769167	0,1	0,050458
4,770833	0,1	0,049117
4,772500	0,1	0,036580
4,774167	0,1	0,043221
4,775833	0,1	0,049526
4,777500	0,1	0,042522
4,779167	0,1	0,060599
4,780833	0,1	0,056862
4,782500	0,1	0,018964
4,784167	0,1	0,043919
4,785833	0,1	0,046961
4,787500	0,1	0,063321
4,789167	0,1	0,064790
4,790833	0,1	0,054988
4,792500	0,1	0,048815
4,794167	0,1	0,043163
4,795833	0,1	0,022701
4,797500	0,1	0,031154
4,799167	0,1	0,041984
4,800833	0,1	0,056231
4,802500	0,1	0,025377
4,804167	0,1	0,037325
4,805833	0,1	0,044261
4,807500	0,1	0,075916
4,809167	0,1	0,047780
4,810833	0,1	0,060126
4,812500	0,1	0,049929
4,814167	0,1	0,074756
4,815833	0,1	0,062759
4,817500	0,1	0,038386
4,819167	0,1	0,005966
4,820833	0,1	0,046238
4,822500	0,1	0,061989
4,824167	0,1	0,046662
4,825833	0,1	-0,009640
4,827500	0,1	0,017280
4,829167	0,1	0,012095
4,830833	0,1	0,030207
4,832500	0,1	0,029873
4,834167	0,1	0,086357
4,835833	0,1	0,028059
4,837500	0,1	0,061006
4,839167	0,1	0,022994
4,840833	0,1	0,022344
4,842500	0,1	0,025030
4,844167	0,1	0,025091
4,845833	0,1	0,040133
4,847500	0,1	0,084955
4,849167	0,1	0,047430
4,850833	0,1	0,043573
4,852500	0,1	0,057499
4,854167	0,1	0,021942
4,855833	0,1	0,038849
4,857500	0,1	0,034290
4,859167	0,1	0,028699
4,860833	0,1	0,009822
4,862500	0,1	0,016170
4,864167	0,1	0,062152
4,865833	0,1	0,011284
4,867500	0,1	0,063191
4,869167	0,1	0,034599
4,870833	0,1	0,013902
4,872500	0,1	-0,004299
4,874167	0,1	0,048342
4,875833	0,1	0,021188
4,877500	0,1	0,050090
4,879167	0,1	0,049637
4,880833	0,1	0,031147
4,882500	0,1	0,015366
4,884167	0,1	0,044146
4,885833	0,1	0,066357
4,887500	0,1	0,097317
4,889167	0,1	0,042352
4,890833	0,1	0,065256
4,892500	0,1	0,031382
4,894167	0,1	0,005854
4,895833	0,1	0,035408
4,897500	0,1	-0,002649
4,899167	0,1	0,020609
4,900833	0,1	0,078354
4,902500	0,1	0,032376
4,904167	0,1	0,059253
4,905833	0,1	0,036268
4,907500	0,1	0,064154
4,909167	0,1	0,037346
4,910833	0,1	0,034689
4,912500	0,1	0,043922
4,914167	0,1	0,070387
4,915833	0,1	0,027838
4,917500	0,1	0,051022
4,919167	0,1	0,028293
4,920833	0,1	0,063207
4,922500	0,1	0,035821
4,924167	0,1	0,020484
4,925833	0,1	0,038607
4,927500	0,1	0,046778
4,929167	0,1	0,050157
4,930833	0,1	0,050845
4,932500	0,1	0,059425
4,934167	0,1	0,033147
4,935833	0,1	0,057087
4,937500	0,1	0,056572
4,939167	0,1	0,002123
4,940833	0,1	0,053763
4,942500	0,1	0,051840
4,944167	0,1	0,055202
4,945833	0,1	0,052785
4,947500	0,1	0,022824
4,949167	0,1	0,034421
4,950833	0,1	0,069819
4,952500	0,1	0,034661
4,954167	0,1	0,012620
4,955833	0,1	0,037842
4,957500	0,1	-0,009534
4,959167	0,1	0,033480
4,960833	0,1	0,011106
4,962500	0,1	0,051018
4,964167	0,1	0,013447
4,965833	0,1	0,100281
4,967500	0,1	0,008728
4,969167	0,1	0,062913
4,970833	0,1	0,037274
4,972500	0,1	0,016177
4,974167	0,1	0,029289
4,975833	0,1	0,051967
4,977500	0,1	0,017584
4,979167	0,1	0,029397
4,980833	0,1	0,077681
4,982500	0,1	0,074824
4,984167	0,1	0,025153
4,985833	0,1	0,015593
4,987500	0,1	0,073067
4,989167	0,1	0,060060
4,990833	0,1	0,033607
4,992500	0,1	0,040520
4,994167	0,1	0,041890
4,995833	0,1	0,027069
4,997500	0,1	0,021475
4,999167	0,1	0,020662
5,000833	0,1	0,081880
5,002500	0,1	0,018353
5,004167	0,1	0,037505
5,005833	0,1	0,016540
5,007500	0,1	0,010400
5,009167	0,1	0,048755
5,010833	0,1	-0,001605
5,012500	0,1	0,019085
5,014167	0,1	0,026312
5,015833	0,1	0,026630
5,017500	0,1	0,045492
5,019167	0,1	0,032913
5,020833	0,1	0,026315
5,022500	0,1	0,020542
5,024167	0,1	0,022913
5,025833	0,1	0,022176
5,027500	0,1	0,028999
5,029167	0,1	0,027888
5,030833	0,1	0,031276
5,032500	0,1	0,019032
5,034167	0,1	0,040577
5,035833	0,1	0,026014
5,037500	0,1	0,017178
5,039167	0,1	0,035243
5,040833	0,1	0,035415
5,042500	0,1	0,040702
5,044167	0,1	0,022277
5,045833	0,1	0,048576
5,047500	0,1	0,029999
5,049167	0,1	0,046074
5,050833	0,1	0,034994
5,052500	0,1	0,022903
5,054167	0,1	0,005973
5,055833	0,1	0,063141
5,057500	0,1	-0,029867
5,059167	0,1	0,023553
5,060833	0,1	0,027705
5,062500	0,1	0,046992
5,064167	0,1	0,003172
5,065833	0,1	0,002279
5,067500	0,1	0,018686
5,069167	0,1	0,002803
5,070833	0,1	0,021577
5,072500	0,1	0,051373
5,074167	0,1	0,047133
5,075833	0,1	0,024975
5,077500	0,1	0,036271
5,079167	0,1	0,007127
5,080833	0,1	0,012892
5,082500	0,1	-0,012455
5,084167	0,1	0,034170
5,085833	0,1	0,010696
5,087500	0,1	0,026178
5,089167	0,1	0,019914
5,090833	0,1	0,015460
5,092500	0,1	-0,048422
5,094167	0,1	0,042499
5,095833	0,1	-0,025453
5,097500	0,1	0,002043
5,099167	0,1	0,033230
5,100833	0,1	0,023497
5,102500	0,1	0,005963
5,104167	0,1	0,020755
5,105833	0,1	0,019368
5,107500	0,1	-0,007215
5,109167	0,1	-0,009495
5,110833	0,1	0,034449
5,112500	0,1	0,023048
5,114167	0,1	0,013850
5,115833	0,1	0,001834
5,117500	0,1	0,019243
5,119167	0,1	0,014067
5,120833	0,1	0,023977
5,122500	0,1	0,031903
5,124167	0,1	-0,022821
5,125833	0,1	-0,027091
5,127500	0,1	0,018666
5,129167	0,1	0,015121
5,130833	0,1	-0,018165
5,132500	0,1	0,046340
5,134167	0,1	0,029646
5,135833	0,1	0,001184
5,137500	0,1	-0,009241
5,139167	0,1	-0,017059
5,140833	0,1	-0,000218
5,142500	0,1	0,020585
5,144167	0,1	-0,008014
5,145833	0,1	0,017364
5,147500	0,1	-0,003285
5,149167	0,1	0,040572
5,150833	0,1	0,018682
5,152500	0,1	0,009457
5,154167	0,1	0,010630
5,155833	0,1	0,002643
5,157500	0,1	-0,015012
5,159167	0,1	-0,008845
5,160833	0,1	-0,017421
5,162500	0,1	0,022794
5,164167	0,1	0,014830
5,165833	0,1	-0,003829
5,167500	0,1	-0,008732
5,169167	0,1	-0,009835
5,170833	0,1	0,023087
5,172500	0,1	0,036452
5,174167	0,1	0,009293
5,175833	0,1	0,014887
5,177500	0,1	-0,026031
5,179167	0,1	0,012471
5,180833	0,1	0,026528
5,182500	0,1	-0,007442
5,184167	0,1	0,018502
5,185833	0,1	0,072813
5,187500	0,1	0,019042
5,189167	0,1	-0,016072
5,190833	0,1	-0,014106
5,192500	0,1	0,022734
5,194167	0,1	-0,023585
5,195833	0,1	0,049316
5,197500	0,1	0,021709
5,199167	0,1	-0,002834
5,200833	0,1	-0,013100
5,202500	0,1	0,013938
5,204167	0,1	0,025028
5,205833	0,1	0,019527
5,207500	0,1	0,013426
5,209167	0,1	-0,007966
5,210833	0,1	-0,019745
5,212500	0,1	-0,012402
5,214167	0,1	0,039711
5,215833	0,1	0,005688
5,217500	0,1	0,016847
5,219167	0,1	0,009856
5,220833	0,1	0,017150
5,222500	0,1	-0,033506
5,224167	0,1	-0,015612
5,225833	0,1	0,009620
5,227500	0,1	0,015287
5,229167	0,1	0,006589
5,230833	0,1	0,007181
5,232500	0,1	0,001809
5,234167	0,1	-0,042826
5,235833	0,1	0,029069
5,237500	0,1	-0,017774
5,239167	0,1	-0,005059
5,240833	0,1	-0,010027
5,242500	0,1	-0,014625
5,244167	0,1	0,010345
5,245833	0,1	0,018422
5,247500	0,1	-0,009381
5,249167	0,1	0,016977
5,250833	0,1	-0,017003
5,252500	0,1	0,036093
5,254167	0,1	-0,024464
5,255833	0,1	-0,028687
5,257500	0,1	-0,012525
5,259167	0,1	-0,048019
5,260833	0,1	-0,010304
5,262500	0,1	0,008288
5,264167	0,1	-0,021363
5,265833	0,1	0,028565
5,267500	0,1	-0,026459
5,269167	0,1	-0,017606
5,270833	0,1	-0,010018
5,272500	0,1	-0,030414
5,274167	0,1	-0,021674
5,275833	0,1	0,000943
5,277500	0,1	-0,027837
5,279167	0,1	-0,008147
5,280833	0,1	-0,037759
5,282500	0,1	-0,027967
5,284167	0,1	-0,034606
5,285833	0,1	-0,020523
5,287500	0,1	0,000967
5,289167	0,1	-0,026345
5,290833	0,1	-0,014581
5,292500	0,1	-0,029885
5,294167	0,1	0,012712
5,295833	0,1	-0,016413
5,297500	0,1	-0,053960
5,299167	0,1	-0,046867
5,300833	0,1	-0,042666
5,302500	0,1	-0,003043
5,304167	0,1	-0,041675
5,305833	0,1	-0,054086
5,307500	0,1	-0,014817
5,309167	0,1	-0,021610
5,310833	0,1	-0,008676
5,312500	0,1	-0,025297
5,314167	0,1	-0,064392
5,315833	0,1	-0,036430
5,317500	0,1	-0,029490
5,319167	0,1	-0,014484
5,320833	0,1	0,020243
5,322500	0,1	-0,009126
5,324167	0,1	-0,017761
5,325833	0,1	-0,057337
5,327500	0,1	-0,018062
5,329167	0,1	-0,040555
5,330833	0,1	-0,015032
5,332500	0,1	-0,028323
5,334167	0,1	-0,050467
5,335833	0,1	-0,028221
5,337500	0,1	-0,070352
5,339167	0,1	-0,047961
5,340833	0,1	-0,011587
5,342500	0,1	-0,005068
5,344167	0,1	-0,027619
5,345833	0,1	-0,038465
5,347500	0,1	-0,009190
5,349167	0,1	0,001685
5,350833	0,1	-0,005235
5,352500	0,1	-0,027509
5,354167	0,1	-0,034507
5,355833	0,1	-0,043524
5,357500	0,1	-0,024604
5,359167	0,1	-0,047429
5,360833	0,1	-0,007121
5,362500	0,1	-0,070619
5,364167	0,1	-0,043674
5,365833	0,1	-0,041795
5,367500	0,1	0,008499
5,369167	0,1	-0,049116
5,370833	0,1	-0,061372
5,372500	0,1	-0,038521
5,374167	0,1	-0,028269
5,375833	0,1	-0,043935
5,377500	0,1	-0,036254
5,379167	0,1	-0,051339
5,380833	0,1	-0,044543
5,382500	0,1	-0,050179
5,384167	0,1	-0,008562
5,385833	0,1	-0,059027
5,387500	0,1	-0,043952
5,389167	0,1	-0,011307
5,390833	0,1	-0,047618
5,392500	0,1	-0,050493
5,394167	0,1	-0,033992
5,395833	0,1	-0,021637
5,397500	0,1	-0,041257
5,399167	0,1	-0,052454
5,400833	0,1	-0,016210
5,402500	0,1	-0,048890
5,404167	0,1	-0,061853
5,405833	0,1	-0,043022
5,407500	0,1	-0,040332
5,409167	0,1	-0,066789
5,410833	0,1	-0,063881
5,412500	0,1	-0,024958
5,414167	0,1	-0,023085
5,415833	0,1	-0,023897
5,417500	0,1	-0,050996
5,419167	0,1	-0,063136
5,420833	0,1	-0,029967
5,422500	0,1	-0,040158
5,424167	0,1	-0,017077
5,425833	0,1	0,000108
5,427500	0,1	-0,018943
5,429167	0,1	0,001403
5,430833	0,1	-0,010946
5,432500	0,1	-0,041086
5,434167	0,1	-0,013340
5,435833	0,1	-0,037830
5,437500	0,1	-0,034741
5,439167	0,1	-0,013288
5,440833	0,1	-0,038290
5,442500	0,1	-0,044648
5,444167	0,1	-0,027108
5,445833	0,1	-0,006464
5,447500	0,1	-0,039791
5,449167	0,1	-0,043026
5,450833	0,1	-0,034691
5,452500	0,1	-0,034448
5,454167	0,1	-0,063421
5,455833	0,1	-0,025478
5,457500	0,1	-0,053432
5,459167	0,1	-0,040284
5,460833	0,1	-0,009274
5,462500	0,1	-0,063527
5,464167	0,1	-0,023314
5,465833	0,1	-0,060364
5,467500	0,1	-0,014386
5,469167	0,1	-0,083283
5,470833	0,1	-0,030953
5,472500	0,1	-0,025483
5,474167	0,1	-0,006693
5,475833	0,1	-0,030934
5,477500	0,1	-0,054484
5,479167	0,1	-0,036268
5,480833	0,1	-0,008451
5,482500	0,1	-0,041835
5,484167	0,1	-0,028860
5,485833	0,1	-0,009319
5,487500	0,1	-0,030728
5,489167	0,1	-0,039456
5,490833	0,1	-0,031644
5,492500	0,1	-0,036362
5,494167	0,1	-0,046111
5,495833	0,1	-0,053578
5,497500	0,1	-0,022972
5,499167	0,1	-0,030090
5,500833	0,1	-0,052581
5,502500	0,1	0,007566
5,504167	0,1	-0,039568
5,505833	0,1	-0,050530
5,507500	0,1	-0,033630
5,509167	0,1	-0,031122
5,510833	0,1	-0,020681
5,512500	0,1	-0,051336
5,514167	0,1	-0,008223
5,515833	0,1	-0,034312
5,517500	0,1	-0,037835
5,519167	0,1	-0,030602
5,520833	0,1	-0,068140
5,522500	0,1	-0,027514
5,524167	0,1	0,012642
5,525833	0,1	-0,051469
5,527500	0,1	-0,019705
5,529167	0,1	-0,034676
5,530833	0,1	-0,045460
5,532500	0,1	-0,052455
5,534167	0,1	-0,004207
5,535833	0,1	-0,013211
5,537500	0,1	-0,005880
5,539167	0,1	-0,066431
5,540833	0,1	-0,033513
5,542500	0,1	-0,037064
5,544167	0,1	-0,042013
5,545833	0,1	-0,017017
5,547500	0,1	-0,042379
5,549167	0,1	-0,028098
5,550833	0,1	0,027982
5,552500	0,1	-0,033431
5,554167	0,1	-0,056068
5,555833	0,1	-0,020918
5,557500	0,1	-0,048771
5,559167	0,1	-0,039512
5,560833	0,1	-0,056490
5,562500	0,1	-0,014976
5,564167	0,1	-0,025467
5,565833	0,1	-0,014159
5,567500	0,1	-0,042249
5,569167	0,1	-0,014804
5,570833	0,1	-0,035316
5,572500	0,1	-0,032937
5,574167	0,1	0,008635
5,575833	0,1	-0,064032
5,577500	0,1	-0,054913
5,579167	0,1	0,004648
5,580833	0,1	-0,042946
5,582500	0,1	-0,048547
5,584167	0,1	-0,043588
5,585833	0,1	-0,016208
5,587500	0,1	-0,055714
5,589167	0,1	-0,004208
5,590833	0,1	-0,017347
5,592500	0,1	-0,022261
5,594167	0,1	0,016259
5,595833	0,1	0,002852
5,597500	0,1	-0,033738
5,599167	0,1	-0,022036
5,600833	0,1	-0,011593
5,602500	0,1	-0,051854
5,604167	0,1	-0,032580
5,605833	0,1	-0,039107
5,607500	0,1	-0,056180
5,609167	0,1	-0,002053
5,610833	0,1	0,002519
5,612500	0,1	-0,003721
5,614167	0,1	0,034739
5,615833	0,1	-0,030515
5,617500	0,1	-0,014087
5,619167	0,1	0,004430
5,620833	0,1	-0,034318
5,622500	0,1	-0,020221
5,624167	0,1	-0,004549
5,625833	0,1	-0,012459
5,627500	0,1	0,015281
5,629167	0,1	-0,018577
5,630833	0,1	0,021004
5,632500	0,1	-0,007444
5,634167	0,1	0,017619
5,635833	0,1	-0,013326
5,637500	0,1	-0,041776
5,639167	0,1	-0,040151
5,640833	0,1	0,003030
5,642500	0,1	-0,017939
5,644167	0,1	-0,017884
5,645833	0,1	-0,027429
5,647500	0,1	-0,009137
5,649167	0,1	0,036687
5,650833	0,1	-0,011036
5,652500	0,1	-0,011349
5,654167	0,1	0,014241
5,655833	0,1	-0,008607
5,657500	0,1	0,007056
5,659167	0,1	-0,004942
5,660833	0,1	0,061567
5,662500	0,1	0,047837
5,664167	0,1	0,017451
5,665833	0,1	0,037965
5,667500	0,1	0,016650
5,669167	0,1	0,024437
5,670833	0,1	0,015521
5,672500	0,1	0,049907
5,674167	0,1	0,018274
5,675833	0,1	0,017092
5,677500	0,1	0,061173
5,679167	0,1	0,022934
5,680833	0,1	0,031322
5,682500	0,1	0,020543
5,684167	0,1	0,050318
5,685833	0,1	0,048947
5,687500	0,1	0,026379
5,689167	0,1	0,053829
5,690833	0,1	0,041348
5,692500	0,1	0,050302
5,694167	0,1	0,052214
5,695833	0,1	0,059027
5,697500	0,1	0,024629
5,699167	0,1	0,039951
5,700833	0,1	0,049283
5,702500	0,1	0,036302
5,704167	0,1	0,065607
5,705833	0,1	0,060908
5,707500	0,1	0,080653
5,709167	0,1	0,090919
5,710833	0,1	0,073328
5,712500	0,1	0,083586
5,714167	0,1	0,089361
5,715833	0,1	0,083468
5,717500	0,1	0,079679
5,719167	0,1	0,107076
5,720833	0,1	0,090926
5,722500	0,1	0,068960
5,724167	0,1	0,118862
5,725833	0,1	0,116113
5,727500	0,1	0,113072
5,729167	0,1	0,081273
5,730833	0,1	0,089698
5,732500	0,1	0,121481
5,734167	0,1	0,092227
5,735833	0,1	0,055032
5,737500	0,1	0,099145
5,739167	0,1	0,110227
5,740833	0,1	0,086099
5,742500	0,1	0,069816
5,744167	0,1	0,091038
5,745833	0,1	0,103595
5,747500	0,1	0,100500
5,749167	0,1	0,081088
5,750833	0,1	0,099151
5,752500	0,1	0,101262
5,754167	0,1	0,084769
5,755833	0,1	0,147304
5,757500	0,1	0,125465
5,759167	0,1	0,139524
5,760833	0,1	0,136779
5,762500	0,1	0,126928
5,764167	0,1	0,138045
5,765833	0,1	0,126563
5,767500	0,1	0,120207
5,769167	0,1	0,135141
5,770833	0,1	0,143590
5,772500	0,1	0,139194
5,774167	0,1	0,059810
5,775833	0,1	0,134652
5,777500	0,1	0,156083
5,779167	0,1	0,101471
5,780833	0,1	0,150776
5,782500	0,1	0,136127
5,784167	0,1	0,169952
5,785833	0,1	0,153817
5,787500	0,1	0,125878
5,789167	0,1	0,142504
5,790833	0,1	0,192680
5,792500	0,1	0,161459
5,794167	0,1	0,135440
5,795833	0,1	0,120100
5,797500	0,1	0,135125
5,799167	0,1	0,165491
5,800833	0,1	0,167667
5,802500	0,1	0,126888
5,804167	0,1	0,141558
5,805833	0,1	0,165524
5,807500	0,1	0,161086
5,809167	0,1	0,145415
5,810833	0,1	0,144020
5,812500	0,1	0,170595
5,814167	0,1	0,152229
5,815833	0,1	0,123023
5,817500	0,1	0,202421
5,819167	0,1	0,100537
5,820833	0,1	0,160735
5,822500	0,1	0,182146
5,824167	0,1	0,141296
5,825833	0,1	0,159170
5,827500	0,1	0,164292
5,829167	0,1	0,136021
5,830833	0,1	0,151823
5,832500	0,1	0,117478
5,834167	0,1	0,146809
5,835833	0,1	0,132643
5,837500	0,1	0,148629
5,839167	0,1	0,147045
5,840833	0,1	0,131636
5,842500	0,1	0,167524
5,844167	0,1	0,138008
5,845833	0,1	0,129081
5,847500	0,1	0,120801
5,849167	0,1	0,125106
5,850833	0,1	0,141205
5,852500	0,1	0,130304
5,854167	0,1	0,150706
5,855833	0,1	0,152513
5,857500	0,1	0,158287
5,859167	0,1	0,123130
5,860833	0,1	0,130225
5,862500	0,1	0,170700
5,864167	0,1	0,146011
5,865833	0,1	0,104420
5,867500	0,1	0,150975
5,869167	0,1	0,147398
5,870833	0,1	0,119449
5,872500	0,1	0,169537
5,874167	0,1	0,169196
5,875833	0,1	0,105538
5,877500	0,1	0,132848
5,879167	0,1	0,119763
5,880833	0,1	0,138393
5,882500	0,1	0,131419
5,884167	0,1	0,115516
5,885833	0,1	0,104656
5,887500	0,1	0,167425
5,889167	0,1	0,139107
5,890833	0,1	0,129601
5,892500	0,1	0,110356
5,894167	0,1	0,111252
5,895833	0,1	0,154475
5,897500	0,1	0,097351
5,899167	0,1	0,153264
5,900833	0,1	0,086508
5,902500	0,1	0,112500
5,904167	0,1	0,105114
5,905833	0,1	0,086281
5,907500	0,1	0,128671
5,909167	0,1	0,127735
5,910833	0,1	0,109957
5,912500	0,1	0,150396
5,914167	0,1	0,140158
5,915833	0,1	0,141041
5,917500	0,1	0,106801
5,919167	0,1	0,122187
5,920833	0,1	0,108186
5,922500	0,1	0,117955
5,924167	0,1	0,063775
5,925833	0,1	0,137908
5,927500	0,1	0,119751
5,929167	0,1	0,095710
5,930833	0,1	0,077394
5,932500	0,1	0,095423
5,934167	0,1	0,092342
5,935833	0,1	0,075605
5,937500	0,1	0,087085
5,939167	0,1	0,095608
5,940833	0,1	0,089397
5,942500	0,1	0,122748
5,944167	0,1	0,102401
5,945833	0,1	0,064993
5,947500	0,1	0,076760
5,949167	0,1	0,084033
5,950833	0,1	0,078552
5,952500	0,1	0,105516
5,954167	0,1	0,100594
5,955833	0,1	0,082127
5,957500	0,1	0,101900
5,959167	0,1	0,078571
5,960833	0,1	0,097470
5,962500	0,1	0,106378
5,964167	0,1	0,082022
5,965833	0,1	0,124779
5,967500	0,1	0,051423
5,969167	0,1	0,068479
5,970833	0,1	0,056405
5,972500	0,1	0,045560
5,974167	0,1	0,063590
5,975833	0,1	0,058801
5,977500	0,1	0,065381
5,979167	0,1	0,063797
5,980833	0,1	0,080425
5,982500	0,1	0,069937
5,984167	0,1	0,076518
5,985833	0,1	0,064285
5,987500	0,1	0,053440
5,989167	0,1	0,030181
5,990833	0,1	0,053830
5,992500	0,1	0,056233
5,994167	0,1	0,072557
5,995833	0,1	0,089528
5,997500	0,1	0,073267
5,999167	0,1	0,066716
6,000833	0,1	0,032918
