File Path	chrom://chromeleon01/ikbm_chromeleon/2022/Rezex/Esteban/220612_chitin_4_7.seq/461.smp/UV_VIS_1.channel/UV_VIS_1.chm
Channel	UV_VIS_1

Injection Information:
Data Vault	ikbm_chromeleon
Injection	A2ox 100
Injection Number	7
Position	RA4
Comment	
Processing Method	New ProcMethod
Instrument Method	Short_Rezex_6min_194nm
Type	Calibration Standard
Status	Finished
Injection Date	12.06.2022
Injection Time	17:52:43
Injection Volume (µl)	8,000
Dilution Factor	1,0000
Weight	1,0000

Chromatogram Data Information:
Time Min. (min)	0,000833
Time Max. (min)	6,000833
Data Points	3601
Detector	UV
Generating Data System	Chromeleon 7.2.9.11323
Exporting Data System	Chromeleon 7.2.9.0
Operator	Instrument Controller
Signal Quantity	Absorbance
Signal Unit	mAU
Signal Min.	-0,120642
Signal Max.	97,805490
Channel	UV_VIS_1
Driver Name	VWD3000.dll
Channel Type	Evaluation
Min. Step (s)	0,1
Max. Step (s)	0,1
Average Step (s)	0,1

Signal Parameter Information:
Signal Info	WVL:194 nm

Chromatogram Data:
Time (min)	Step (s)	Value (mAU)
0,000833	n.a.	-0,069525
0,002500	0,1	-0,070478
0,004167	0,1	-0,055930
0,005833	0,1	-0,058038
0,007500	0,1	-0,039537
0,009167	0,1	-0,072310
0,010833	0,1	-0,075601
0,012500	0,1	-0,019920
0,014167	0,1	-0,039182
0,015833	0,1	-0,034563
0,017500	0,1	-0,047991
0,019167	0,1	-0,082405
0,020833	0,1	-0,067712
0,022500	0,1	-0,065534
0,024167	0,1	-0,052207
0,025833	0,1	-0,042357
0,027500	0,1	-0,076573
0,029167	0,1	-0,083764
0,030833	0,1	-0,025640
0,032500	0,1	-0,027839
0,034167	0,1	-0,022010
0,035833	0,1	-0,079865
0,037500	0,1	-0,060244
0,039167	0,1	-0,015334
0,040833	0,1	-0,035871
0,042500	0,1	-0,079971
0,044167	0,1	-0,057875
0,045833	0,1	-0,052168
0,047500	0,1	-0,055076
0,049167	0,1	-0,046863
0,050833	0,1	-0,061280
0,052500	0,1	-0,045577
0,054167	0,1	-0,045136
0,055833	0,1	-0,063145
0,057500	0,1	-0,067758
0,059167	0,1	-0,063743
0,060833	0,1	-0,083929
0,062500	0,1	-0,039352
0,064167	0,1	-0,049641
0,065833	0,1	-0,066210
0,067500	0,1	-0,034235
0,069167	0,1	-0,026517
0,070833	0,1	-0,038102
0,072500	0,1	-0,069440
0,074167	0,1	-0,066023
0,075833	0,1	-0,064194
0,077500	0,1	-0,065879
0,079167	0,1	-0,072573
0,080833	0,1	-0,066679
0,082500	0,1	-0,075483
0,084167	0,1	-0,051529
0,085833	0,1	-0,061267
0,087500	0,1	-0,068067
0,089167	0,1	-0,059726
0,090833	0,1	-0,058952
0,092500	0,1	-0,102463
0,094167	0,1	-0,073509
0,095833	0,1	-0,064053
0,097500	0,1	-0,058541
0,099167	0,1	-0,057355
0,100833	0,1	-0,103853
0,102500	0,1	-0,058113
0,104167	0,1	-0,050186
0,105833	0,1	-0,079728
0,107500	0,1	-0,033867
0,109167	0,1	-0,079738
0,110833	0,1	-0,077304
0,112500	0,1	-0,081268
0,114167	0,1	-0,070583
0,115833	0,1	-0,087070
0,117500	0,1	-0,059204
0,119167	0,1	-0,078251
0,120833	0,1	-0,056871
0,122500	0,1	-0,107214
0,124167	0,1	-0,064499
0,125833	0,1	-0,075586
0,127500	0,1	-0,056123
0,129167	0,1	-0,042692
0,130833	0,1	-0,061974
0,132500	0,1	-0,054678
0,134167	0,1	-0,061720
0,135833	0,1	-0,064643
0,137500	0,1	-0,063834
0,139167	0,1	-0,026021
0,140833	0,1	-0,010370
0,142500	0,1	-0,039720
0,144167	0,1	-0,060789
0,145833	0,1	-0,012116
0,147500	0,1	-0,051757
0,149167	0,1	-0,047260
0,150833	0,1	-0,062554
0,152500	0,1	-0,062803
0,154167	0,1	-0,058000
0,155833	0,1	-0,120423
0,157500	0,1	-0,051139
0,159167	0,1	-0,078352
0,160833	0,1	-0,043559
0,162500	0,1	-0,044080
0,164167	0,1	-0,059231
0,165833	0,1	-0,038007
0,167500	0,1	-0,063890
0,169167	0,1	-0,032473
0,170833	0,1	-0,071124
0,172500	0,1	-0,037120
0,174167	0,1	-0,085131
0,175833	0,1	-0,041578
0,177500	0,1	-0,053695
0,179167	0,1	-0,092267
0,180833	0,1	-0,066235
0,182500	0,1	-0,083748
0,184167	0,1	-0,034794
0,185833	0,1	-0,061664
0,187500	0,1	-0,034929
0,189167	0,1	-0,042507
0,190833	0,1	-0,063248
0,192500	0,1	-0,060137
0,194167	0,1	-0,062892
0,195833	0,1	-0,050187
0,197500	0,1	-0,068156
0,199167	0,1	-0,054333
0,200833	0,1	-0,071710
0,202500	0,1	-0,064041
0,204167	0,1	-0,081470
0,205833	0,1	-0,020632
0,207500	0,1	-0,043096
0,209167	0,1	-0,055229
0,210833	0,1	-0,035906
0,212500	0,1	-0,059693
0,214167	0,1	-0,072896
0,215833	0,1	-0,070633
0,217500	0,1	-0,054938
0,219167	0,1	-0,026559
0,220833	0,1	-0,045529
0,222500	0,1	-0,065117
0,224167	0,1	-0,043350
0,225833	0,1	-0,071553
0,227500	0,1	-0,079979
0,229167	0,1	-0,040444
0,230833	0,1	-0,038285
0,232500	0,1	-0,071950
0,234167	0,1	-0,045386
0,235833	0,1	-0,049576
0,237500	0,1	-0,056864
0,239167	0,1	-0,048163
0,240833	0,1	-0,072352
0,242500	0,1	-0,041138
0,244167	0,1	-0,052691
0,245833	0,1	-0,090928
0,247500	0,1	-0,067816
0,249167	0,1	-0,055003
0,250833	0,1	-0,057354
0,252500	0,1	-0,056068
0,254167	0,1	-0,047842
0,255833	0,1	-0,064036
0,257500	0,1	-0,058607
0,259167	0,1	-0,065428
0,260833	0,1	-0,088010
0,262500	0,1	-0,047721
0,264167	0,1	-0,051677
0,265833	0,1	-0,063496
0,267500	0,1	-0,082371
0,269167	0,1	-0,040536
0,270833	0,1	-0,041607
0,272500	0,1	-0,025669
0,274167	0,1	-0,028690
0,275833	0,1	-0,076029
0,277500	0,1	-0,120642
0,279167	0,1	-0,065340
0,280833	0,1	-0,086671
0,282500	0,1	-0,077665
0,284167	0,1	-0,061376
0,285833	0,1	-0,077272
0,287500	0,1	-0,014258
0,289167	0,1	-0,033490
0,290833	0,1	-0,063465
0,292500	0,1	-0,062866
0,294167	0,1	-0,035676
0,295833	0,1	-0,056217
0,297500	0,1	-0,096670
0,299167	0,1	-0,054598
0,300833	0,1	-0,043296
0,302500	0,1	-0,049293
0,304167	0,1	-0,025980
0,305833	0,1	-0,060720
0,307500	0,1	-0,051022
0,309167	0,1	-0,063212
0,310833	0,1	-0,041922
0,312500	0,1	-0,042237
0,314167	0,1	-0,074344
0,315833	0,1	-0,011114
0,317500	0,1	-0,015915
0,319167	0,1	-0,054127
0,320833	0,1	-0,061385
0,322500	0,1	-0,034337
0,324167	0,1	-0,065125
0,325833	0,1	-0,043107
0,327500	0,1	-0,052165
0,329167	0,1	-0,033047
0,330833	0,1	-0,030379
0,332500	0,1	-0,038464
0,334167	0,1	-0,043203
0,335833	0,1	-0,044246
0,337500	0,1	-0,052228
0,339167	0,1	-0,057831
0,340833	0,1	-0,040053
0,342500	0,1	-0,032941
0,344167	0,1	-0,037640
0,345833	0,1	-0,072566
0,347500	0,1	-0,012623
0,349167	0,1	-0,103893
0,350833	0,1	-0,035057
0,352500	0,1	-0,045480
0,354167	0,1	-0,046217
0,355833	0,1	-0,036316
0,357500	0,1	-0,016306
0,359167	0,1	-0,018054
0,360833	0,1	-0,021725
0,362500	0,1	-0,028895
0,364167	0,1	-0,032850
0,365833	0,1	-0,064341
0,367500	0,1	-0,049684
0,369167	0,1	-0,033654
0,370833	0,1	-0,035247
0,372500	0,1	-0,048698
0,374167	0,1	-0,038108
0,375833	0,1	-0,046510
0,377500	0,1	0,001109
0,379167	0,1	-0,028698
0,380833	0,1	-0,053449
0,382500	0,1	-0,031723
0,384167	0,1	-0,028011
0,385833	0,1	-0,021403
0,387500	0,1	0,004424
0,389167	0,1	0,002794
0,390833	0,1	0,016921
0,392500	0,1	-0,013245
0,394167	0,1	-0,018490
0,395833	0,1	-0,027749
0,397500	0,1	-0,053345
0,399167	0,1	-0,031672
0,400833	0,1	-0,008298
0,402500	0,1	-0,006400
0,404167	0,1	-0,068388
0,405833	0,1	-0,055040
0,407500	0,1	-0,024242
0,409167	0,1	-0,011554
0,410833	0,1	-0,027192
0,412500	0,1	-0,021867
0,414167	0,1	-0,008260
0,415833	0,1	-0,055567
0,417500	0,1	-0,000721
0,419167	0,1	-0,038765
0,420833	0,1	0,011049
0,422500	0,1	-0,024020
0,424167	0,1	-0,025073
0,425833	0,1	-0,046379
0,427500	0,1	-0,041080
0,429167	0,1	-0,023841
0,430833	0,1	-0,027787
0,432500	0,1	-0,017504
0,434167	0,1	-0,005270
0,435833	0,1	-0,034930
0,437500	0,1	-0,016293
0,439167	0,1	-0,045078
0,440833	0,1	-0,018306
0,442500	0,1	-0,026550
0,444167	0,1	-0,020913
0,445833	0,1	-0,030671
0,447500	0,1	-0,014684
0,449167	0,1	-0,042502
0,450833	0,1	-0,065836
0,452500	0,1	0,015038
0,454167	0,1	-0,002286
0,455833	0,1	-0,025171
0,457500	0,1	0,019140
0,459167	0,1	0,006084
0,460833	0,1	0,016469
0,462500	0,1	-0,006097
0,464167	0,1	-0,014833
0,465833	0,1	0,034683
0,467500	0,1	0,011956
0,469167	0,1	0,030879
0,470833	0,1	-0,021261
0,472500	0,1	-0,030969
0,474167	0,1	-0,002016
0,475833	0,1	0,008897
0,477500	0,1	0,022056
0,479167	0,1	-0,016574
0,480833	0,1	-0,031226
0,482500	0,1	-0,024570
0,484167	0,1	0,005828
0,485833	0,1	-0,029830
0,487500	0,1	-0,028098
0,489167	0,1	-0,020826
0,490833	0,1	0,017646
0,492500	0,1	0,003634
0,494167	0,1	-0,010236
0,495833	0,1	-0,004136
0,497500	0,1	-0,068594
0,499167	0,1	-0,015145
0,500833	0,1	-0,042940
0,502500	0,1	-0,003691
0,504167	0,1	-0,039075
0,505833	0,1	0,028586
0,507500	0,1	-0,001202
0,509167	0,1	-0,010031
0,510833	0,1	-0,008383
0,512500	0,1	0,016067
0,514167	0,1	-0,035606
0,515833	0,1	-0,002262
0,517500	0,1	-0,008640
0,519167	0,1	-0,018890
0,520833	0,1	-0,027801
0,522500	0,1	-0,016821
0,524167	0,1	-0,025417
0,525833	0,1	-0,015711
0,527500	0,1	-0,000585
0,529167	0,1	0,014574
0,530833	0,1	-0,003292
0,532500	0,1	-0,010533
0,534167	0,1	0,017147
0,535833	0,1	0,045428
0,537500	0,1	0,013207
0,539167	0,1	-0,002998
0,540833	0,1	0,014781
0,542500	0,1	-0,045159
0,544167	0,1	-0,016220
0,545833	0,1	-0,008576
0,547500	0,1	-0,014797
0,549167	0,1	0,009330
0,550833	0,1	0,027067
0,552500	0,1	0,015816
0,554167	0,1	-0,026350
0,555833	0,1	-0,028705
0,557500	0,1	0,010563
0,559167	0,1	-0,021806
0,560833	0,1	-0,008888
0,562500	0,1	-0,021167
0,564167	0,1	0,001655
0,565833	0,1	0,004184
0,567500	0,1	-0,032004
0,569167	0,1	-0,015033
0,570833	0,1	0,018883
0,572500	0,1	-0,011298
0,574167	0,1	-0,003839
0,575833	0,1	-0,021773
0,577500	0,1	0,004269
0,579167	0,1	0,011741
0,580833	0,1	0,007007
0,582500	0,1	-0,021422
0,584167	0,1	-0,022111
0,585833	0,1	-0,016088
0,587500	0,1	0,023338
0,589167	0,1	0,019277
0,590833	0,1	-0,005429
0,592500	0,1	0,014535
0,594167	0,1	-0,021857
0,595833	0,1	0,008649
0,597500	0,1	0,006156
0,599167	0,1	-0,020662
0,600833	0,1	0,015818
0,602500	0,1	0,010803
0,604167	0,1	0,013147
0,605833	0,1	-0,014378
0,607500	0,1	-0,011862
0,609167	0,1	0,004323
0,610833	0,1	-0,005818
0,612500	0,1	0,011509
0,614167	0,1	0,024040
0,615833	0,1	-0,027108
0,617500	0,1	0,004229
0,619167	0,1	-0,013980
0,620833	0,1	-0,027657
0,622500	0,1	-0,006019
0,624167	0,1	0,011959
0,625833	0,1	-0,027949
0,627500	0,1	0,022012
0,629167	0,1	-0,015974
0,630833	0,1	0,004128
0,632500	0,1	-0,015358
0,634167	0,1	-0,041716
0,635833	0,1	-0,032170
0,637500	0,1	-0,035632
0,639167	0,1	-0,005378
0,640833	0,1	-0,008499
0,642500	0,1	-0,018401
0,644167	0,1	-0,009456
0,645833	0,1	-0,064052
0,647500	0,1	-0,015454
0,649167	0,1	-0,007304
0,650833	0,1	0,002289
0,652500	0,1	-0,000632
0,654167	0,1	-0,020612
0,655833	0,1	0,025181
0,657500	0,1	-0,027894
0,659167	0,1	0,011504
0,660833	0,1	0,008020
0,662500	0,1	-0,017404
0,664167	0,1	0,042149
0,665833	0,1	-0,001910
0,667500	0,1	0,029765
0,669167	0,1	-0,058430
0,670833	0,1	0,059054
0,672500	0,1	0,001364
0,674167	0,1	-0,002719
0,675833	0,1	-0,004946
0,677500	0,1	0,005159
0,679167	0,1	-0,007749
0,680833	0,1	-0,001664
0,682500	0,1	-0,023200
0,684167	0,1	0,007604
0,685833	0,1	-0,000978
0,687500	0,1	0,005872
0,689167	0,1	0,020228
0,690833	0,1	-0,022166
0,692500	0,1	0,002351
0,694167	0,1	-0,000824
0,695833	0,1	-0,037067
0,697500	0,1	-0,054801
0,699167	0,1	-0,020380
0,700833	0,1	-0,032180
0,702500	0,1	0,031807
0,704167	0,1	-0,035076
0,705833	0,1	0,016355
0,707500	0,1	0,036657
0,709167	0,1	0,008634
0,710833	0,1	-0,012011
0,712500	0,1	0,000755
0,714167	0,1	0,008033
0,715833	0,1	0,020280
0,717500	0,1	0,001355
0,719167	0,1	0,016467
0,720833	0,1	0,023242
0,722500	0,1	0,009097
0,724167	0,1	-0,017507
0,725833	0,1	-0,002012
0,727500	0,1	0,058646
0,729167	0,1	0,037363
0,730833	0,1	0,021419
0,732500	0,1	0,013935
0,734167	0,1	0,001175
0,735833	0,1	0,017201
0,737500	0,1	0,015067
0,739167	0,1	0,047359
0,740833	0,1	0,048617
0,742500	0,1	0,050794
0,744167	0,1	0,005099
0,745833	0,1	0,023795
0,747500	0,1	0,018301
0,749167	0,1	0,018929
0,750833	0,1	0,048751
0,752500	0,1	0,053280
0,754167	0,1	0,056206
0,755833	0,1	0,046687
0,757500	0,1	0,043119
0,759167	0,1	0,042319
0,760833	0,1	0,053700
0,762500	0,1	0,069988
0,764167	0,1	0,048798
0,765833	0,1	0,052220
0,767500	0,1	0,047524
0,769167	0,1	0,040929
0,770833	0,1	0,050391
0,772500	0,1	0,013542
0,774167	0,1	0,035369
0,775833	0,1	0,068000
0,777500	0,1	0,040200
0,779167	0,1	0,031617
0,780833	0,1	-0,006701
0,782500	0,1	0,007106
0,784167	0,1	0,027798
0,785833	0,1	0,006626
0,787500	0,1	0,004933
0,789167	0,1	0,041406
0,790833	0,1	0,003343
0,792500	0,1	0,029122
0,794167	0,1	-0,012841
0,795833	0,1	-0,010587
0,797500	0,1	-0,000620
0,799167	0,1	-0,009682
0,800833	0,1	-0,004407
0,802500	0,1	-0,014899
0,804167	0,1	-0,013444
0,805833	0,1	0,005506
0,807500	0,1	-0,003938
0,809167	0,1	-0,021722
0,810833	0,1	-0,019227
0,812500	0,1	0,018083
0,814167	0,1	-0,016269
0,815833	0,1	0,019216
0,817500	0,1	-0,021367
0,819167	0,1	-0,026669
0,820833	0,1	-0,023607
0,822500	0,1	-0,001784
0,824167	0,1	0,005545
0,825833	0,1	-0,021037
0,827500	0,1	-0,022021
0,829167	0,1	-0,015651
0,830833	0,1	-0,015494
0,832500	0,1	-0,016189
0,834167	0,1	-0,014747
0,835833	0,1	-0,022678
0,837500	0,1	-0,012187
0,839167	0,1	-0,055247
0,840833	0,1	-0,025004
0,842500	0,1	-0,035205
0,844167	0,1	-0,014943
0,845833	0,1	-0,030387
0,847500	0,1	-0,023465
0,849167	0,1	-0,041023
0,850833	0,1	-0,019954
0,852500	0,1	-0,035450
0,854167	0,1	-0,005701
0,855833	0,1	-0,017164
0,857500	0,1	0,005402
0,859167	0,1	-0,030228
0,860833	0,1	-0,037086
0,862500	0,1	-0,006086
0,864167	0,1	-0,030039
0,865833	0,1	-0,030895
0,867500	0,1	-0,012331
0,869167	0,1	-0,019562
0,870833	0,1	-0,011684
0,872500	0,1	-0,055556
0,874167	0,1	-0,036797
0,875833	0,1	-0,040331
0,877500	0,1	-0,043963
0,879167	0,1	-0,015012
0,880833	0,1	0,003649
0,882500	0,1	-0,013817
0,884167	0,1	-0,017592
0,885833	0,1	-0,049802
0,887500	0,1	0,005831
0,889167	0,1	-0,017730
0,890833	0,1	0,001087
0,892500	0,1	-0,033319
0,894167	0,1	-0,031886
0,895833	0,1	-0,012641
0,897500	0,1	-0,021132
0,899167	0,1	-0,041604
0,900833	0,1	-0,010839
0,902500	0,1	-0,057023
0,904167	0,1	-0,031056
0,905833	0,1	-0,063270
0,907500	0,1	-0,055002
0,909167	0,1	-0,054316
0,910833	0,1	-0,034325
0,912500	0,1	-0,037333
0,914167	0,1	-0,005109
0,915833	0,1	-0,034314
0,917500	0,1	0,002564
0,919167	0,1	-0,045898
0,920833	0,1	-0,016558
0,922500	0,1	0,003959
0,924167	0,1	-0,007186
0,925833	0,1	-0,028263
0,927500	0,1	-0,026054
0,929167	0,1	-0,019410
0,930833	0,1	-0,002621
0,932500	0,1	-0,020188
0,934167	0,1	-0,016537
0,935833	0,1	-0,035063
0,937500	0,1	-0,035711
0,939167	0,1	-0,041335
0,940833	0,1	-0,013184
0,942500	0,1	0,014312
0,944167	0,1	-0,042765
0,945833	0,1	-0,045508
0,947500	0,1	-0,002472
0,949167	0,1	-0,050004
0,950833	0,1	-0,012578
0,952500	0,1	-0,025881
0,954167	0,1	-0,003369
0,955833	0,1	0,019115
0,957500	0,1	0,017279
0,959167	0,1	-0,012459
0,960833	0,1	0,040461
0,962500	0,1	-0,012223
0,964167	0,1	-0,034006
0,965833	0,1	-0,023636
0,967500	0,1	0,005436
0,969167	0,1	-0,023213
0,970833	0,1	0,004845
0,972500	0,1	-0,040347
0,974167	0,1	-0,027087
0,975833	0,1	0,008551
0,977500	0,1	-0,028168
0,979167	0,1	0,005836
0,980833	0,1	0,025053
0,982500	0,1	-0,008197
0,984167	0,1	0,071332
0,985833	0,1	-0,000525
0,987500	0,1	0,010259
0,989167	0,1	0,044419
0,990833	0,1	0,013734
0,992500	0,1	-0,045920
0,994167	0,1	0,038819
0,995833	0,1	0,027096
0,997500	0,1	-0,002209
0,999167	0,1	0,034130
1,000833	0,1	0,043781
1,002500	0,1	0,076964
1,004167	0,1	0,054632
1,005833	0,1	0,063360
1,007500	0,1	0,072845
1,009167	0,1	0,091031
1,010833	0,1	0,053102
1,012500	0,1	0,053041
1,014167	0,1	0,094994
1,015833	0,1	0,068067
1,017500	0,1	0,100845
1,019167	0,1	0,105255
1,020833	0,1	0,101847
1,022500	0,1	0,126366
1,024167	0,1	0,102407
1,025833	0,1	0,093492
1,027500	0,1	0,152451
1,029167	0,1	0,130519
1,030833	0,1	0,104637
1,032500	0,1	0,093581
1,034167	0,1	0,146603
1,035833	0,1	0,162680
1,037500	0,1	0,126675
1,039167	0,1	0,100684
1,040833	0,1	0,106317
1,042500	0,1	0,112306
1,044167	0,1	0,174941
1,045833	0,1	0,111816
1,047500	0,1	0,130719
1,049167	0,1	0,162276
1,050833	0,1	0,144758
1,052500	0,1	0,176500
1,054167	0,1	0,183518
1,055833	0,1	0,240004
1,057500	0,1	0,252064
1,059167	0,1	0,334518
1,060833	0,1	0,422670
1,062500	0,1	0,546718
1,064167	0,1	0,683707
1,065833	0,1	0,875858
1,067500	0,1	1,178170
1,069167	0,1	1,548195
1,070833	0,1	1,923313
1,072500	0,1	2,472489
1,074167	0,1	3,164963
1,075833	0,1	3,887495
1,077500	0,1	4,822665
1,079167	0,1	5,829683
1,080833	0,1	6,955846
1,082500	0,1	8,251664
1,084167	0,1	9,638099
1,085833	0,1	11,143937
1,087500	0,1	12,683245
1,089167	0,1	14,322760
1,090833	0,1	15,949192
1,092500	0,1	17,565613
1,094167	0,1	19,247676
1,095833	0,1	20,841394
1,097500	0,1	22,349348
1,099167	0,1	23,760367
1,100833	0,1	25,052797
1,102500	0,1	26,265693
1,104167	0,1	27,376007
1,105833	0,1	28,332224
1,107500	0,1	29,223567
1,109167	0,1	29,839765
1,110833	0,1	30,450155
1,112500	0,1	30,893642
1,114167	0,1	31,200914
1,115833	0,1	31,361662
1,117500	0,1	31,430103
1,119167	0,1	31,367138
1,120833	0,1	31,220523
1,122500	0,1	30,932147
1,124167	0,1	30,595576
1,125833	0,1	30,153100
1,127500	0,1	29,654606
1,129167	0,1	29,084390
1,130833	0,1	28,392992
1,132500	0,1	27,742425
1,134167	0,1	26,975822
1,135833	0,1	26,151374
1,137500	0,1	25,395758
1,139167	0,1	24,569389
1,140833	0,1	23,713691
1,142500	0,1	22,900782
1,144167	0,1	22,077949
1,145833	0,1	21,206575
1,147500	0,1	20,371011
1,149167	0,1	19,550168
1,150833	0,1	18,733129
1,152500	0,1	17,922222
1,154167	0,1	17,184052
1,155833	0,1	16,407588
1,157500	0,1	15,676130
1,159167	0,1	15,023455
1,160833	0,1	14,299638
1,162500	0,1	13,639553
1,164167	0,1	13,032797
1,165833	0,1	12,421424
1,167500	0,1	11,804977
1,169167	0,1	11,232056
1,170833	0,1	10,725691
1,172500	0,1	10,212788
1,174167	0,1	9,721876
1,175833	0,1	9,239698
1,177500	0,1	8,793335
1,179167	0,1	8,391974
1,180833	0,1	7,980660
1,182500	0,1	7,555137
1,184167	0,1	7,234309
1,185833	0,1	6,833153
1,187500	0,1	6,462998
1,189167	0,1	6,203811
1,190833	0,1	5,851385
1,192500	0,1	5,607862
1,194167	0,1	5,335327
1,195833	0,1	5,076141
1,197500	0,1	4,862364
1,199167	0,1	4,597165
1,200833	0,1	4,394822
1,202500	0,1	4,214481
1,204167	0,1	4,040918
1,205833	0,1	3,844220
1,207500	0,1	3,613090
1,209167	0,1	3,463971
1,210833	0,1	3,327587
1,212500	0,1	3,199459
1,214167	0,1	3,033557
1,215833	0,1	2,924889
1,217500	0,1	2,790123
1,219167	0,1	2,677241
1,220833	0,1	2,615343
1,222500	0,1	2,452210
1,224167	0,1	2,351529
1,225833	0,1	2,286436
1,227500	0,1	2,233761
1,229167	0,1	2,140940
1,230833	0,1	2,092577
1,232500	0,1	1,989210
1,234167	0,1	1,968614
1,235833	0,1	1,868033
1,237500	0,1	1,826941
1,239167	0,1	1,729034
1,240833	0,1	1,683951
1,242500	0,1	1,638239
1,244167	0,1	1,588185
1,245833	0,1	1,518638
1,247500	0,1	1,485854
1,249167	0,1	1,454019
1,250833	0,1	1,392547
1,252500	0,1	1,365588
1,254167	0,1	1,369215
1,255833	0,1	1,291848
1,257500	0,1	1,251344
1,259167	0,1	1,245624
1,260833	0,1	1,201097
1,262500	0,1	1,180367
1,264167	0,1	1,127799
1,265833	0,1	1,114810
1,267500	0,1	1,089119
1,269167	0,1	1,076250
1,270833	0,1	1,034893
1,272500	0,1	1,012607
1,274167	0,1	1,015955
1,275833	0,1	1,014665
1,277500	0,1	0,938285
1,279167	0,1	0,937510
1,280833	0,1	0,902286
1,282500	0,1	0,909356
1,284167	0,1	0,885435
1,285833	0,1	0,816107
1,287500	0,1	0,845942
1,289167	0,1	0,859917
1,290833	0,1	0,785790
1,292500	0,1	0,811291
1,294167	0,1	0,791803
1,295833	0,1	0,753845
1,297500	0,1	0,780054
1,299167	0,1	0,745111
1,300833	0,1	0,694277
1,302500	0,1	0,709738
1,304167	0,1	0,707972
1,305833	0,1	0,679701
1,307500	0,1	0,690741
1,309167	0,1	0,650370
1,310833	0,1	0,670103
1,312500	0,1	0,617279
1,314167	0,1	0,646003
1,315833	0,1	0,631368
1,317500	0,1	0,568412
1,319167	0,1	0,630148
1,320833	0,1	0,563124
1,322500	0,1	0,633414
1,324167	0,1	0,596044
1,325833	0,1	0,553470
1,327500	0,1	0,575748
1,329167	0,1	0,523228
1,330833	0,1	0,583529
1,332500	0,1	0,551317
1,334167	0,1	0,518741
1,335833	0,1	0,535617
1,337500	0,1	0,579262
1,339167	0,1	0,540630
1,340833	0,1	0,506301
1,342500	0,1	0,539674
1,344167	0,1	0,495723
1,345833	0,1	0,509701
1,347500	0,1	0,516902
1,349167	0,1	0,492415
1,350833	0,1	0,515312
1,352500	0,1	0,513975
1,354167	0,1	0,499287
1,355833	0,1	0,491874
1,357500	0,1	0,506826
1,359167	0,1	0,477777
1,360833	0,1	0,480806
1,362500	0,1	0,434061
1,364167	0,1	0,497334
1,365833	0,1	0,462875
1,367500	0,1	0,485553
1,369167	0,1	0,445474
1,370833	0,1	0,475373
1,372500	0,1	0,457955
1,374167	0,1	0,482842
1,375833	0,1	0,481209
1,377500	0,1	0,465527
1,379167	0,1	0,441253
1,380833	0,1	0,426509
1,382500	0,1	0,416705
1,384167	0,1	0,420085
1,385833	0,1	0,437268
1,387500	0,1	0,448415
1,389167	0,1	0,445759
1,390833	0,1	0,429678
1,392500	0,1	0,465140
1,394167	0,1	0,416607
1,395833	0,1	0,412085
1,397500	0,1	0,421669
1,399167	0,1	0,453030
1,400833	0,1	0,429490
1,402500	0,1	0,448493
1,404167	0,1	0,416309
1,405833	0,1	0,415980
1,407500	0,1	0,435764
1,409167	0,1	0,401137
1,410833	0,1	0,397209
1,412500	0,1	0,405907
1,414167	0,1	0,445695
1,415833	0,1	0,407743
1,417500	0,1	0,384593
1,419167	0,1	0,407997
1,420833	0,1	0,399815
1,422500	0,1	0,435062
1,424167	0,1	0,377729
1,425833	0,1	0,406413
1,427500	0,1	0,394286
1,429167	0,1	0,385530
1,430833	0,1	0,391273
1,432500	0,1	0,368646
1,434167	0,1	0,433096
1,435833	0,1	0,365431
1,437500	0,1	0,389255
1,439167	0,1	0,392509
1,440833	0,1	0,396699
1,442500	0,1	0,385988
1,444167	0,1	0,361181
1,445833	0,1	0,381606
1,447500	0,1	0,399835
1,449167	0,1	0,392859
1,450833	0,1	0,339629
1,452500	0,1	0,390591
1,454167	0,1	0,387248
1,455833	0,1	0,424589
1,457500	0,1	0,398426
1,459167	0,1	0,429237
1,460833	0,1	0,352900
1,462500	0,1	0,396070
1,464167	0,1	0,383304
1,465833	0,1	0,374792
1,467500	0,1	0,395003
1,469167	0,1	0,387437
1,470833	0,1	0,377908
1,472500	0,1	0,360428
1,474167	0,1	0,338653
1,475833	0,1	0,369734
1,477500	0,1	0,384937
1,479167	0,1	0,400509
1,480833	0,1	0,416216
1,482500	0,1	0,379524
1,484167	0,1	0,378764
1,485833	0,1	0,426842
1,487500	0,1	0,378158
1,489167	0,1	0,399567
1,490833	0,1	0,439600
1,492500	0,1	0,386319
1,494167	0,1	0,410147
1,495833	0,1	0,370987
1,497500	0,1	0,404343
1,499167	0,1	0,439305
1,500833	0,1	0,397838
1,502500	0,1	0,418445
1,504167	0,1	0,397940
1,505833	0,1	0,382337
1,507500	0,1	0,421663
1,509167	0,1	0,403309
1,510833	0,1	0,412298
1,512500	0,1	0,429749
1,514167	0,1	0,365300
1,515833	0,1	0,430786
1,517500	0,1	0,403445
1,519167	0,1	0,382715
1,520833	0,1	0,409905
1,522500	0,1	0,409052
1,524167	0,1	0,420219
1,525833	0,1	0,404301
1,527500	0,1	0,405102
1,529167	0,1	0,389348
1,530833	0,1	0,370575
1,532500	0,1	0,376372
1,534167	0,1	0,366492
1,535833	0,1	0,361095
1,537500	0,1	0,408636
1,539167	0,1	0,374071
1,540833	0,1	0,409821
1,542500	0,1	0,349591
1,544167	0,1	0,388284
1,545833	0,1	0,389314
1,547500	0,1	0,390846
1,549167	0,1	0,340887
1,550833	0,1	0,379856
1,552500	0,1	0,363573
1,554167	0,1	0,391939
1,555833	0,1	0,381905
1,557500	0,1	0,369932
1,559167	0,1	0,364859
1,560833	0,1	0,357635
1,562500	0,1	0,386139
1,564167	0,1	0,348137
1,565833	0,1	0,350681
1,567500	0,1	0,332586
1,569167	0,1	0,349389
1,570833	0,1	0,337580
1,572500	0,1	0,359454
1,574167	0,1	0,312375
1,575833	0,1	0,360843
1,577500	0,1	0,313186
1,579167	0,1	0,339828
1,580833	0,1	0,338435
1,582500	0,1	0,297692
1,584167	0,1	0,298008
1,585833	0,1	0,323696
1,587500	0,1	0,270266
1,589167	0,1	0,298108
1,590833	0,1	0,296561
1,592500	0,1	0,291914
1,594167	0,1	0,299136
1,595833	0,1	0,320553
1,597500	0,1	0,341656
1,599167	0,1	0,367025
1,600833	0,1	0,295933
1,602500	0,1	0,310193
1,604167	0,1	0,305338
1,605833	0,1	0,356362
1,607500	0,1	0,319385
1,609167	0,1	0,353411
1,610833	0,1	0,353903
1,612500	0,1	0,373955
1,614167	0,1	0,320950
1,615833	0,1	0,365598
1,617500	0,1	0,388825
1,619167	0,1	0,393341
1,620833	0,1	0,404671
1,622500	0,1	0,449292
1,624167	0,1	0,454218
1,625833	0,1	0,500774
1,627500	0,1	0,531210
1,629167	0,1	0,549722
1,630833	0,1	0,628811
1,632500	0,1	0,701141
1,634167	0,1	0,757697
1,635833	0,1	0,837891
1,637500	0,1	0,850497
1,639167	0,1	0,977583
1,640833	0,1	1,079666
1,642500	0,1	1,180782
1,644167	0,1	1,331564
1,645833	0,1	1,470667
1,647500	0,1	1,641353
1,649167	0,1	1,790027
1,650833	0,1	2,015761
1,652500	0,1	2,257309
1,654167	0,1	2,494639
1,655833	0,1	2,764434
1,657500	0,1	3,072437
1,659167	0,1	3,435876
1,660833	0,1	3,813667
1,662500	0,1	4,239643
1,664167	0,1	4,667496
1,665833	0,1	5,163015
1,667500	0,1	5,744871
1,669167	0,1	6,303170
1,670833	0,1	6,965964
1,672500	0,1	7,597349
1,674167	0,1	8,350141
1,675833	0,1	9,175047
1,677500	0,1	9,987150
1,679167	0,1	10,923400
1,680833	0,1	11,843813
1,682500	0,1	12,888572
1,684167	0,1	13,951917
1,685833	0,1	15,129954
1,687500	0,1	16,347384
1,689167	0,1	17,627950
1,690833	0,1	18,932954
1,692500	0,1	20,303256
1,694167	0,1	21,779672
1,695833	0,1	23,280466
1,697500	0,1	24,879154
1,699167	0,1	26,525889
1,700833	0,1	28,238142
1,702500	0,1	29,990080
1,704167	0,1	31,789577
1,705833	0,1	33,623832
1,707500	0,1	35,550295
1,709167	0,1	37,434681
1,710833	0,1	39,499732
1,712500	0,1	41,449579
1,714167	0,1	43,506215
1,715833	0,1	45,566444
1,717500	0,1	47,700491
1,719167	0,1	49,786138
1,720833	0,1	51,887167
1,722500	0,1	54,035997
1,724167	0,1	56,166977
1,725833	0,1	58,300284
1,727500	0,1	60,373064
1,729167	0,1	62,508792
1,730833	0,1	64,520640
1,732500	0,1	66,604245
1,734167	0,1	68,630005
1,735833	0,1	70,590646
1,737500	0,1	72,516112
1,739167	0,1	74,463756
1,740833	0,1	76,292441
1,742500	0,1	78,076272
1,744167	0,1	79,810276
1,745833	0,1	81,448819
1,747500	0,1	83,087796
1,749167	0,1	84,633155
1,750833	0,1	86,074113
1,752500	0,1	87,475912
1,754167	0,1	88,737010
1,755833	0,1	89,966857
1,757500	0,1	91,105575
1,759167	0,1	92,122717
1,760833	0,1	93,099800
1,762500	0,1	94,000795
1,764167	0,1	94,794401
1,765833	0,1	95,468967
1,767500	0,1	96,078625
1,769167	0,1	96,560331
1,770833	0,1	97,055014
1,772500	0,1	97,370608
1,774167	0,1	97,624736
1,775833	0,1	97,805490
1,777500	0,1	97,788734
1,779167	0,1	97,795052
1,780833	0,1	97,711747
1,782500	0,1	97,522482
1,784167	0,1	97,265491
1,785833	0,1	96,925887
1,787500	0,1	96,527995
1,789167	0,1	96,044095
1,790833	0,1	95,458812
1,792500	0,1	94,813931
1,794167	0,1	94,132101
1,795833	0,1	93,318867
1,797500	0,1	92,509216
1,799167	0,1	91,654527
1,800833	0,1	90,694474
1,802500	0,1	89,754136
1,804167	0,1	88,712781
1,805833	0,1	87,646302
1,807500	0,1	86,464720
1,809167	0,1	85,298827
1,810833	0,1	84,130744
1,812500	0,1	82,867478
1,814167	0,1	81,678740
1,815833	0,1	80,362344
1,817500	0,1	79,042469
1,819167	0,1	77,719427
1,820833	0,1	76,375311
1,822500	0,1	74,975259
1,824167	0,1	73,593905
1,825833	0,1	72,270336
1,827500	0,1	70,803467
1,829167	0,1	69,405372
1,830833	0,1	68,044347
1,832500	0,1	66,617113
1,834167	0,1	65,206920
1,835833	0,1	63,788689
1,837500	0,1	62,427745
1,839167	0,1	61,009891
1,840833	0,1	59,625154
1,842500	0,1	58,243372
1,844167	0,1	56,876914
1,845833	0,1	55,480271
1,847500	0,1	54,217559
1,849167	0,1	52,835543
1,850833	0,1	51,554663
1,852500	0,1	50,294465
1,854167	0,1	48,970394
1,855833	0,1	47,755527
1,857500	0,1	46,538883
1,859167	0,1	45,299895
1,860833	0,1	44,126225
1,862500	0,1	42,980501
1,864167	0,1	41,831741
1,865833	0,1	40,693824
1,867500	0,1	39,597570
1,869167	0,1	38,547261
1,870833	0,1	37,452953
1,872500	0,1	36,479582
1,874167	0,1	35,382606
1,875833	0,1	34,429111
1,877500	0,1	33,509747
1,879167	0,1	32,544245
1,880833	0,1	31,632616
1,882500	0,1	30,814500
1,884167	0,1	29,881553
1,885833	0,1	29,043005
1,887500	0,1	28,228796
1,889167	0,1	27,413028
1,890833	0,1	26,600644
1,892500	0,1	25,882351
1,894167	0,1	25,144683
1,895833	0,1	24,416258
1,897500	0,1	23,764697
1,899167	0,1	23,062060
1,900833	0,1	22,372995
1,902500	0,1	21,721783
1,904167	0,1	21,106852
1,905833	0,1	20,504455
1,907500	0,1	19,911618
1,909167	0,1	19,350154
1,910833	0,1	18,763288
1,912500	0,1	18,267297
1,914167	0,1	17,696807
1,915833	0,1	17,249875
1,917500	0,1	16,733445
1,919167	0,1	16,272731
1,920833	0,1	15,782632
1,922500	0,1	15,332056
1,924167	0,1	14,896330
1,925833	0,1	14,489263
1,927500	0,1	14,107163
1,929167	0,1	13,631378
1,930833	0,1	13,253062
1,932500	0,1	12,886917
1,934167	0,1	12,544342
1,935833	0,1	12,208451
1,937500	0,1	11,847145
1,939167	0,1	11,516171
1,940833	0,1	11,203160
1,942500	0,1	10,925626
1,944167	0,1	10,606079
1,945833	0,1	10,293283
1,947500	0,1	10,016460
1,949167	0,1	9,775123
1,950833	0,1	9,509002
1,952500	0,1	9,205468
1,954167	0,1	9,018918
1,955833	0,1	8,697998
1,957500	0,1	8,559780
1,959167	0,1	8,290878
1,960833	0,1	8,105807
1,962500	0,1	7,875095
1,964167	0,1	7,688971
1,965833	0,1	7,458883
1,967500	0,1	7,311982
1,969167	0,1	7,110737
1,970833	0,1	6,892170
1,972500	0,1	6,746223
1,974167	0,1	6,618237
1,975833	0,1	6,462691
1,977500	0,1	6,312259
1,979167	0,1	6,140498
1,980833	0,1	5,990387
1,982500	0,1	5,858286
1,984167	0,1	5,726201
1,985833	0,1	5,596229
1,987500	0,1	5,469308
1,989167	0,1	5,345527
1,990833	0,1	5,228296
1,992500	0,1	5,119137
1,994167	0,1	5,018732
1,995833	0,1	4,926124
1,997500	0,1	4,816096
1,999167	0,1	4,787208
2,000833	0,1	4,608567
2,002500	0,1	4,546732
2,004167	0,1	4,465927
2,005833	0,1	4,415914
2,007500	0,1	4,262388
2,009167	0,1	4,230807
2,010833	0,1	4,141036
2,012500	0,1	4,115672
2,014167	0,1	4,010010
2,015833	0,1	3,958353
2,017500	0,1	3,889702
2,019167	0,1	3,823034
2,020833	0,1	3,769845
2,022500	0,1	3,715640
2,024167	0,1	3,650064
2,025833	0,1	3,597543
2,027500	0,1	3,552975
2,029167	0,1	3,490156
2,030833	0,1	3,411973
2,032500	0,1	3,397884
2,034167	0,1	3,318563
2,035833	0,1	3,296453
2,037500	0,1	3,283027
2,039167	0,1	3,252833
2,040833	0,1	3,201308
2,042500	0,1	3,189427
2,044167	0,1	3,135874
2,045833	0,1	3,150405
2,047500	0,1	3,097964
2,049167	0,1	3,084666
2,050833	0,1	3,040551
2,052500	0,1	2,991674
2,054167	0,1	2,970209
2,055833	0,1	2,952092
2,057500	0,1	2,955880
2,059167	0,1	2,874590
2,060833	0,1	2,903632
2,062500	0,1	2,880474
2,064167	0,1	2,833529
2,065833	0,1	2,804265
2,067500	0,1	2,778183
2,069167	0,1	2,796380
2,070833	0,1	2,753536
2,072500	0,1	2,735747
2,074167	0,1	2,736263
2,075833	0,1	2,721912
2,077500	0,1	2,688459
2,079167	0,1	2,697454
2,080833	0,1	2,710674
2,082500	0,1	2,674781
2,084167	0,1	2,633361
2,085833	0,1	2,630420
2,087500	0,1	2,606738
2,089167	0,1	2,654131
2,090833	0,1	2,605526
2,092500	0,1	2,579867
2,094167	0,1	2,612821
2,095833	0,1	2,579184
2,097500	0,1	2,558368
2,099167	0,1	2,549426
2,100833	0,1	2,557486
2,102500	0,1	2,522108
2,104167	0,1	2,524689
2,105833	0,1	2,569150
2,107500	0,1	2,501062
2,109167	0,1	2,487160
2,110833	0,1	2,477007
2,112500	0,1	2,468778
2,114167	0,1	2,463951
2,115833	0,1	2,486940
2,117500	0,1	2,463873
2,119167	0,1	2,405280
2,120833	0,1	2,419295
2,122500	0,1	2,385037
2,124167	0,1	2,399772
2,125833	0,1	2,388102
2,127500	0,1	2,362735
2,129167	0,1	2,366736
2,130833	0,1	2,339936
2,132500	0,1	2,344620
2,134167	0,1	2,327929
2,135833	0,1	2,281062
2,137500	0,1	2,276104
2,139167	0,1	2,261610
2,140833	0,1	2,246799
2,142500	0,1	2,236106
2,144167	0,1	2,254912
2,145833	0,1	2,206118
2,147500	0,1	2,238022
2,149167	0,1	2,195993
2,150833	0,1	2,201145
2,152500	0,1	2,164873
2,154167	0,1	2,155271
2,155833	0,1	2,141174
2,157500	0,1	2,116116
2,159167	0,1	2,117587
2,160833	0,1	2,116451
2,162500	0,1	2,099280
2,164167	0,1	2,121499
2,165833	0,1	2,062773
2,167500	0,1	2,070398
2,169167	0,1	2,016736
2,170833	0,1	2,042186
2,172500	0,1	2,012558
2,174167	0,1	2,020480
2,175833	0,1	2,017249
2,177500	0,1	1,984392
2,179167	0,1	1,953118
2,180833	0,1	1,997834
2,182500	0,1	1,899401
2,184167	0,1	1,949510
2,185833	0,1	1,891933
2,187500	0,1	1,912710
2,189167	0,1	1,896614
2,190833	0,1	1,912236
2,192500	0,1	1,925109
2,194167	0,1	1,870285
2,195833	0,1	1,843418
2,197500	0,1	1,850055
2,199167	0,1	1,841646
2,200833	0,1	1,843411
2,202500	0,1	1,730382
2,204167	0,1	1,774700
2,205833	0,1	1,779642
2,207500	0,1	1,743871
2,209167	0,1	1,710319
2,210833	0,1	1,721175
2,212500	0,1	1,712482
2,214167	0,1	1,701441
2,215833	0,1	1,709603
2,217500	0,1	1,685641
2,219167	0,1	1,627250
2,220833	0,1	1,603801
2,222500	0,1	1,651959
2,224167	0,1	1,641157
2,225833	0,1	1,604802
2,227500	0,1	1,600683
2,229167	0,1	1,563333
2,230833	0,1	1,562207
2,232500	0,1	1,544120
2,234167	0,1	1,548932
2,235833	0,1	1,513055
2,237500	0,1	1,547515
2,239167	0,1	1,513522
2,240833	0,1	1,545109
2,242500	0,1	1,479293
2,244167	0,1	1,494898
2,245833	0,1	1,486036
2,247500	0,1	1,459555
2,249167	0,1	1,482857
2,250833	0,1	1,416404
2,252500	0,1	1,453197
2,254167	0,1	1,418160
2,255833	0,1	1,435115
2,257500	0,1	1,402891
2,259167	0,1	1,373595
2,260833	0,1	1,351106
2,262500	0,1	1,353153
2,264167	0,1	1,342235
2,265833	0,1	1,344231
2,267500	0,1	1,306022
2,269167	0,1	1,312411
2,270833	0,1	1,295155
2,272500	0,1	1,308305
2,274167	0,1	1,279660
2,275833	0,1	1,288582
2,277500	0,1	1,278198
2,279167	0,1	1,302969
2,280833	0,1	1,291054
2,282500	0,1	1,267219
2,284167	0,1	1,238885
2,285833	0,1	1,235120
2,287500	0,1	1,236884
2,289167	0,1	1,197030
2,290833	0,1	1,240608
2,292500	0,1	1,226198
2,294167	0,1	1,205303
2,295833	0,1	1,123566
2,297500	0,1	1,162808
2,299167	0,1	1,144672
2,300833	0,1	1,129428
2,302500	0,1	1,133986
2,304167	0,1	1,168210
2,305833	0,1	1,120274
2,307500	0,1	1,115327
2,309167	0,1	1,114397
2,310833	0,1	1,092697
2,312500	0,1	1,093982
2,314167	0,1	1,066983
2,315833	0,1	1,073667
2,317500	0,1	1,099785
2,319167	0,1	1,050854
2,320833	0,1	1,063883
2,322500	0,1	1,044111
2,324167	0,1	1,001823
2,325833	0,1	1,039876
2,327500	0,1	0,993027
2,329167	0,1	0,999987
2,330833	0,1	1,060588
2,332500	0,1	0,993328
2,334167	0,1	1,016296
2,335833	0,1	0,999641
2,337500	0,1	0,990241
2,339167	0,1	0,993240
2,340833	0,1	0,997014
2,342500	0,1	1,004685
2,344167	0,1	1,008039
2,345833	0,1	0,971018
2,347500	0,1	0,951124
2,349167	0,1	0,978745
2,350833	0,1	0,947437
2,352500	0,1	0,977819
2,354167	0,1	0,971837
2,355833	0,1	0,915129
2,357500	0,1	0,929950
2,359167	0,1	0,920295
2,360833	0,1	0,963032
2,362500	0,1	0,908342
2,364167	0,1	0,914008
2,365833	0,1	0,887900
2,367500	0,1	0,934587
2,369167	0,1	0,933657
2,370833	0,1	0,873141
2,372500	0,1	0,890429
2,374167	0,1	0,870202
2,375833	0,1	0,870658
2,377500	0,1	0,889505
2,379167	0,1	0,853012
2,380833	0,1	0,904463
2,382500	0,1	0,854784
2,384167	0,1	0,886739
2,385833	0,1	0,854613
2,387500	0,1	0,867670
2,389167	0,1	0,837197
2,390833	0,1	0,814454
2,392500	0,1	0,808332
2,394167	0,1	0,829499
2,395833	0,1	0,830921
2,397500	0,1	0,829320
2,399167	0,1	0,787129
2,400833	0,1	0,810977
2,402500	0,1	0,837072
2,404167	0,1	0,809644
2,405833	0,1	0,787566
2,407500	0,1	0,749723
2,409167	0,1	0,775579
2,410833	0,1	0,794209
2,412500	0,1	0,781483
2,414167	0,1	0,782604
2,415833	0,1	0,793253
2,417500	0,1	0,785020
2,419167	0,1	0,743920
2,420833	0,1	0,767600
2,422500	0,1	0,755982
2,424167	0,1	0,743693
2,425833	0,1	0,731202
2,427500	0,1	0,751405
2,429167	0,1	0,737816
2,430833	0,1	0,738662
2,432500	0,1	0,720315
2,434167	0,1	0,669474
2,435833	0,1	0,752680
2,437500	0,1	0,708256
2,439167	0,1	0,661178
2,440833	0,1	0,722321
2,442500	0,1	0,741882
2,444167	0,1	0,699188
2,445833	0,1	0,720657
2,447500	0,1	0,684266
2,449167	0,1	0,725756
2,450833	0,1	0,721198
2,452500	0,1	0,710586
2,454167	0,1	0,687925
2,455833	0,1	0,686301
2,457500	0,1	0,694256
2,459167	0,1	0,664573
2,460833	0,1	0,706315
2,462500	0,1	0,654907
2,464167	0,1	0,619312
2,465833	0,1	0,628382
2,467500	0,1	0,646837
2,469167	0,1	0,664093
2,470833	0,1	0,662960
2,472500	0,1	0,619238
2,474167	0,1	0,667036
2,475833	0,1	0,637014
2,477500	0,1	0,639299
2,479167	0,1	0,636929
2,480833	0,1	0,640414
2,482500	0,1	0,625972
2,484167	0,1	0,589340
2,485833	0,1	0,629315
2,487500	0,1	0,641166
2,489167	0,1	0,634965
2,490833	0,1	0,590041
2,492500	0,1	0,604799
2,494167	0,1	0,596938
2,495833	0,1	0,600849
2,497500	0,1	0,632725
2,499167	0,1	0,568906
2,500833	0,1	0,620898
2,502500	0,1	0,619195
2,504167	0,1	0,574167
2,505833	0,1	0,613089
2,507500	0,1	0,549302
2,509167	0,1	0,624303
2,510833	0,1	0,614817
2,512500	0,1	0,631736
2,514167	0,1	0,617155
2,515833	0,1	0,600800
2,517500	0,1	0,606727
2,519167	0,1	0,579692
2,520833	0,1	0,593973
2,522500	0,1	0,573570
2,524167	0,1	0,591579
2,525833	0,1	0,598945
2,527500	0,1	0,619486
2,529167	0,1	0,596343
2,530833	0,1	0,552863
2,532500	0,1	0,595365
2,534167	0,1	0,543359
2,535833	0,1	0,569388
2,537500	0,1	0,565614
2,539167	0,1	0,604948
2,540833	0,1	0,591130
2,542500	0,1	0,618032
2,544167	0,1	0,563584
2,545833	0,1	0,594209
2,547500	0,1	0,564673
2,549167	0,1	0,588542
2,550833	0,1	0,604823
2,552500	0,1	0,607078
2,554167	0,1	0,571072
2,555833	0,1	0,571577
2,557500	0,1	0,558494
2,559167	0,1	0,568591
2,560833	0,1	0,581617
2,562500	0,1	0,590852
2,564167	0,1	0,592491
2,565833	0,1	0,580062
2,567500	0,1	0,586106
2,569167	0,1	0,584680
2,570833	0,1	0,560089
2,572500	0,1	0,586039
2,574167	0,1	0,599688
2,575833	0,1	0,639948
2,577500	0,1	0,590711
2,579167	0,1	0,616588
2,580833	0,1	0,598975
2,582500	0,1	0,599398
2,584167	0,1	0,638341
2,585833	0,1	0,579831
2,587500	0,1	0,599774
2,589167	0,1	0,590002
2,590833	0,1	0,606515
2,592500	0,1	0,604422
2,594167	0,1	0,603538
2,595833	0,1	0,604476
2,597500	0,1	0,630793
2,599167	0,1	0,620619
2,600833	0,1	0,633453
2,602500	0,1	0,642074
2,604167	0,1	0,637543
2,605833	0,1	0,623929
2,607500	0,1	0,632086
2,609167	0,1	0,654081
2,610833	0,1	0,659919
2,612500	0,1	0,612629
2,614167	0,1	0,654905
2,615833	0,1	0,646329
2,617500	0,1	0,647103
2,619167	0,1	0,591194
2,620833	0,1	0,659205
2,622500	0,1	0,641579
2,624167	0,1	0,681614
2,625833	0,1	0,672599
2,627500	0,1	0,713984
2,629167	0,1	0,669165
2,630833	0,1	0,687827
2,632500	0,1	0,636692
2,634167	0,1	0,674873
2,635833	0,1	0,636961
2,637500	0,1	0,655699
2,639167	0,1	0,656697
2,640833	0,1	0,633438
2,642500	0,1	0,645975
2,644167	0,1	0,653952
2,645833	0,1	0,654435
2,647500	0,1	0,669424
2,649167	0,1	0,620659
2,650833	0,1	0,644387
2,652500	0,1	0,660179
2,654167	0,1	0,701163
2,655833	0,1	0,669861
2,657500	0,1	0,626079
2,659167	0,1	0,635845
2,660833	0,1	0,672697
2,662500	0,1	0,681218
2,664167	0,1	0,656616
2,665833	0,1	0,644767
2,667500	0,1	0,624411
2,669167	0,1	0,684297
2,670833	0,1	0,657918
2,672500	0,1	0,645947
2,674167	0,1	0,647878
2,675833	0,1	0,628303
2,677500	0,1	0,661999
2,679167	0,1	0,652690
2,680833	0,1	0,580457
2,682500	0,1	0,619076
2,684167	0,1	0,646910
2,685833	0,1	0,609052
2,687500	0,1	0,670409
2,689167	0,1	0,667571
2,690833	0,1	0,611899
2,692500	0,1	0,659451
2,694167	0,1	0,607845
2,695833	0,1	0,645051
2,697500	0,1	0,632923
2,699167	0,1	0,599142
2,700833	0,1	0,586755
2,702500	0,1	0,636231
2,704167	0,1	0,581337
2,705833	0,1	0,612041
2,707500	0,1	0,603540
2,709167	0,1	0,598909
2,710833	0,1	0,580817
2,712500	0,1	0,617548
2,714167	0,1	0,635921
2,715833	0,1	0,627284
2,717500	0,1	0,575697
2,719167	0,1	0,629956
2,720833	0,1	0,623034
2,722500	0,1	0,601927
2,724167	0,1	0,612660
2,725833	0,1	0,633560
2,727500	0,1	0,622411
2,729167	0,1	0,594302
2,730833	0,1	0,634221
2,732500	0,1	0,579348
2,734167	0,1	0,602406
2,735833	0,1	0,650414
2,737500	0,1	0,635656
2,739167	0,1	0,581633
2,740833	0,1	0,602320
2,742500	0,1	0,600500
2,744167	0,1	0,644460
2,745833	0,1	0,604431
2,747500	0,1	0,638015
2,749167	0,1	0,598009
2,750833	0,1	0,588014
2,752500	0,1	0,623962
2,754167	0,1	0,622388
2,755833	0,1	0,615809
2,757500	0,1	0,596179
2,759167	0,1	0,595313
2,760833	0,1	0,630869
2,762500	0,1	0,636088
2,764167	0,1	0,644926
2,765833	0,1	0,612571
2,767500	0,1	0,650853
2,769167	0,1	0,593128
2,770833	0,1	0,641181
2,772500	0,1	0,654705
2,774167	0,1	0,641086
2,775833	0,1	0,651352
2,777500	0,1	0,690018
2,779167	0,1	0,639619
2,780833	0,1	0,656638
2,782500	0,1	0,667491
2,784167	0,1	0,655597
2,785833	0,1	0,654251
2,787500	0,1	0,664748
2,789167	0,1	0,663550
2,790833	0,1	0,666684
2,792500	0,1	0,673720
2,794167	0,1	0,736456
2,795833	0,1	0,691012
2,797500	0,1	0,708220
2,799167	0,1	0,705741
2,800833	0,1	0,698630
2,802500	0,1	0,712350
2,804167	0,1	0,689127
2,805833	0,1	0,698572
2,807500	0,1	0,732759
2,809167	0,1	0,700297
2,810833	0,1	0,700289
2,812500	0,1	0,662989
2,814167	0,1	0,685740
2,815833	0,1	0,686945
2,817500	0,1	0,728445
2,819167	0,1	0,713092
2,820833	0,1	0,718361
2,822500	0,1	0,726024
2,824167	0,1	0,724586
2,825833	0,1	0,724070
2,827500	0,1	0,724714
2,829167	0,1	0,736044
2,830833	0,1	0,695415
2,832500	0,1	0,715924
2,834167	0,1	0,723115
2,835833	0,1	0,687860
2,837500	0,1	0,705791
2,839167	0,1	0,707066
2,840833	0,1	0,698617
2,842500	0,1	0,686784
2,844167	0,1	0,697630
2,845833	0,1	0,642635
2,847500	0,1	0,656475
2,849167	0,1	0,705784
2,850833	0,1	0,697712
2,852500	0,1	0,706625
2,854167	0,1	0,682557
2,855833	0,1	0,692582
2,857500	0,1	0,698002
2,859167	0,1	0,669423
2,860833	0,1	0,674311
2,862500	0,1	0,711535
2,864167	0,1	0,681118
2,865833	0,1	0,674958
2,867500	0,1	0,699748
2,869167	0,1	0,662738
2,870833	0,1	0,657976
2,872500	0,1	0,664553
2,874167	0,1	0,647500
2,875833	0,1	0,655023
2,877500	0,1	0,637755
2,879167	0,1	0,653110
2,880833	0,1	0,635657
2,882500	0,1	0,596695
2,884167	0,1	0,629120
2,885833	0,1	0,626791
2,887500	0,1	0,605523
2,889167	0,1	0,603133
2,890833	0,1	0,593163
2,892500	0,1	0,570906
2,894167	0,1	0,621062
2,895833	0,1	0,578856
2,897500	0,1	0,568108
2,899167	0,1	0,567888
2,900833	0,1	0,577392
2,902500	0,1	0,566416
2,904167	0,1	0,566599
2,905833	0,1	0,550894
2,907500	0,1	0,552689
2,909167	0,1	0,555239
2,910833	0,1	0,541573
2,912500	0,1	0,523607
2,914167	0,1	0,543179
2,915833	0,1	0,506774
2,917500	0,1	0,567874
2,919167	0,1	0,523456
2,920833	0,1	0,520355
2,922500	0,1	0,495761
2,924167	0,1	0,522416
2,925833	0,1	0,484299
2,927500	0,1	0,518331
2,929167	0,1	0,500645
2,930833	0,1	0,537719
2,932500	0,1	0,478773
2,934167	0,1	0,474756
2,935833	0,1	0,479885
2,937500	0,1	0,454169
2,939167	0,1	0,476254
2,940833	0,1	0,466409
2,942500	0,1	0,487426
2,944167	0,1	0,499295
2,945833	0,1	0,439006
2,947500	0,1	0,476655
2,949167	0,1	0,449283
2,950833	0,1	0,462562
2,952500	0,1	0,416907
2,954167	0,1	0,460675
2,955833	0,1	0,437629
2,957500	0,1	0,482747
2,959167	0,1	0,424077
2,960833	0,1	0,481132
2,962500	0,1	0,397264
2,964167	0,1	0,415843
2,965833	0,1	0,438692
2,967500	0,1	0,447932
2,969167	0,1	0,418862
2,970833	0,1	0,408976
2,972500	0,1	0,411633
2,974167	0,1	0,429081
2,975833	0,1	0,442023
2,977500	0,1	0,422403
2,979167	0,1	0,443228
2,980833	0,1	0,403374
2,982500	0,1	0,431682
2,984167	0,1	0,418375
2,985833	0,1	0,416332
2,987500	0,1	0,424841
2,989167	0,1	0,424601
2,990833	0,1	0,415689
2,992500	0,1	0,426585
2,994167	0,1	0,400205
2,995833	0,1	0,396384
2,997500	0,1	0,457102
2,999167	0,1	0,379973
3,000833	0,1	0,434575
3,002500	0,1	0,432172
3,004167	0,1	0,430561
3,005833	0,1	0,466208
3,007500	0,1	0,438461
3,009167	0,1	0,418941
3,010833	0,1	0,421323
3,012500	0,1	0,436653
3,014167	0,1	0,445085
3,015833	0,1	0,463717
3,017500	0,1	0,430408
3,019167	0,1	0,405034
3,020833	0,1	0,459223
3,022500	0,1	0,431104
3,024167	0,1	0,452734
3,025833	0,1	0,391805
3,027500	0,1	0,440135
3,029167	0,1	0,452387
3,030833	0,1	0,467745
3,032500	0,1	0,437631
3,034167	0,1	0,469621
3,035833	0,1	0,465896
3,037500	0,1	0,436958
3,039167	0,1	0,454882
3,040833	0,1	0,495152
3,042500	0,1	0,476399
3,044167	0,1	0,436076
3,045833	0,1	0,484303
3,047500	0,1	0,472073
3,049167	0,1	0,486274
3,050833	0,1	0,430681
3,052500	0,1	0,466398
3,054167	0,1	0,466353
3,055833	0,1	0,494295
3,057500	0,1	0,460802
3,059167	0,1	0,436205
3,060833	0,1	0,448225
3,062500	0,1	0,498747
3,064167	0,1	0,478064
3,065833	0,1	0,451215
3,067500	0,1	0,423963
3,069167	0,1	0,448733
3,070833	0,1	0,423131
3,072500	0,1	0,494260
3,074167	0,1	0,465687
3,075833	0,1	0,436260
3,077500	0,1	0,430214
3,079167	0,1	0,497723
3,080833	0,1	0,428430
3,082500	0,1	0,455713
3,084167	0,1	0,475047
3,085833	0,1	0,459078
3,087500	0,1	0,455961
3,089167	0,1	0,455423
3,090833	0,1	0,424475
3,092500	0,1	0,450451
3,094167	0,1	0,405738
3,095833	0,1	0,429348
3,097500	0,1	0,474422
3,099167	0,1	0,447751
3,100833	0,1	0,425787
3,102500	0,1	0,436894
3,104167	0,1	0,426590
3,105833	0,1	0,414884
3,107500	0,1	0,406936
3,109167	0,1	0,396388
3,110833	0,1	0,369706
3,112500	0,1	0,456691
3,114167	0,1	0,439936
3,115833	0,1	0,413439
3,117500	0,1	0,400119
3,119167	0,1	0,420515
3,120833	0,1	0,414562
3,122500	0,1	0,428786
3,124167	0,1	0,403693
3,125833	0,1	0,397219
3,127500	0,1	0,364180
3,129167	0,1	0,448905
3,130833	0,1	0,357964
3,132500	0,1	0,371309
3,134167	0,1	0,393560
3,135833	0,1	0,387744
3,137500	0,1	0,364604
3,139167	0,1	0,398068
3,140833	0,1	0,392171
3,142500	0,1	0,384814
3,144167	0,1	0,371209
3,145833	0,1	0,405291
3,147500	0,1	0,385945
3,149167	0,1	0,377514
3,150833	0,1	0,368306
3,152500	0,1	0,368682
3,154167	0,1	0,366803
3,155833	0,1	0,381834
3,157500	0,1	0,351619
3,159167	0,1	0,368434
3,160833	0,1	0,329096
3,162500	0,1	0,354449
3,164167	0,1	0,330784
3,165833	0,1	0,351039
3,167500	0,1	0,345460
3,169167	0,1	0,361858
3,170833	0,1	0,336663
3,172500	0,1	0,338833
3,174167	0,1	0,325143
3,175833	0,1	0,337861
3,177500	0,1	0,316126
3,179167	0,1	0,365288
3,180833	0,1	0,340825
3,182500	0,1	0,334001
3,184167	0,1	0,328497
3,185833	0,1	0,348568
3,187500	0,1	0,341004
3,189167	0,1	0,354586
3,190833	0,1	0,279148
3,192500	0,1	0,325104
3,194167	0,1	0,343526
3,195833	0,1	0,338325
3,197500	0,1	0,297396
3,199167	0,1	0,359835
3,200833	0,1	0,292278
3,202500	0,1	0,337882
3,204167	0,1	0,342591
3,205833	0,1	0,321333
3,207500	0,1	0,310248
3,209167	0,1	0,322779
3,210833	0,1	0,329463
3,212500	0,1	0,312585
3,214167	0,1	0,344624
3,215833	0,1	0,307596
3,217500	0,1	0,272326
3,219167	0,1	0,256165
3,220833	0,1	0,301998
3,222500	0,1	0,286333
3,224167	0,1	0,305413
3,225833	0,1	0,292046
3,227500	0,1	0,301013
3,229167	0,1	0,283060
3,230833	0,1	0,319255
3,232500	0,1	0,276201
3,234167	0,1	0,332538
3,235833	0,1	0,296107
3,237500	0,1	0,314191
3,239167	0,1	0,323636
3,240833	0,1	0,296052
3,242500	0,1	0,289096
3,244167	0,1	0,257646
3,245833	0,1	0,251707
3,247500	0,1	0,273365
3,249167	0,1	0,292743
3,250833	0,1	0,267012
3,252500	0,1	0,309000
3,254167	0,1	0,260638
3,255833	0,1	0,283292
3,257500	0,1	0,312309
3,259167	0,1	0,266108
3,260833	0,1	0,261821
3,262500	0,1	0,277928
3,264167	0,1	0,260440
3,265833	0,1	0,274329
3,267500	0,1	0,243614
3,269167	0,1	0,276069
3,270833	0,1	0,293925
3,272500	0,1	0,265648
3,274167	0,1	0,271734
3,275833	0,1	0,282439
3,277500	0,1	0,268221
3,279167	0,1	0,260629
3,280833	0,1	0,284612
3,282500	0,1	0,280807
3,284167	0,1	0,249917
3,285833	0,1	0,231479
3,287500	0,1	0,293854
3,289167	0,1	0,261996
3,290833	0,1	0,254875
3,292500	0,1	0,254048
3,294167	0,1	0,278382
3,295833	0,1	0,278820
3,297500	0,1	0,256408
3,299167	0,1	0,245657
3,300833	0,1	0,247174
3,302500	0,1	0,277660
3,304167	0,1	0,274206
3,305833	0,1	0,262582
3,307500	0,1	0,284959
3,309167	0,1	0,227391
3,310833	0,1	0,245026
3,312500	0,1	0,263705
3,314167	0,1	0,266391
3,315833	0,1	0,249725
3,317500	0,1	0,270010
3,319167	0,1	0,298569
3,320833	0,1	0,248771
3,322500	0,1	0,246098
3,324167	0,1	0,221734
3,325833	0,1	0,245289
3,327500	0,1	0,258712
3,329167	0,1	0,250017
3,330833	0,1	0,268563
3,332500	0,1	0,252119
3,334167	0,1	0,248843
3,335833	0,1	0,247039
3,337500	0,1	0,237168
3,339167	0,1	0,235476
3,340833	0,1	0,251817
3,342500	0,1	0,226032
3,344167	0,1	0,299036
3,345833	0,1	0,280187
3,347500	0,1	0,278630
3,349167	0,1	0,252366
3,350833	0,1	0,271572
3,352500	0,1	0,252681
3,354167	0,1	0,244494
3,355833	0,1	0,278727
3,357500	0,1	0,248334
3,359167	0,1	0,277419
3,360833	0,1	0,262933
3,362500	0,1	0,274444
3,364167	0,1	0,289229
3,365833	0,1	0,286519
3,367500	0,1	0,291808
3,369167	0,1	0,259420
3,370833	0,1	0,253322
3,372500	0,1	0,259707
3,374167	0,1	0,248868
3,375833	0,1	0,283480
3,377500	0,1	0,262911
3,379167	0,1	0,294460
3,380833	0,1	0,278392
3,382500	0,1	0,257190
3,384167	0,1	0,305997
3,385833	0,1	0,256015
3,387500	0,1	0,273313
3,389167	0,1	0,286030
3,390833	0,1	0,290845
3,392500	0,1	0,267011
3,394167	0,1	0,294917
3,395833	0,1	0,316038
3,397500	0,1	0,289027
3,399167	0,1	0,307611
3,400833	0,1	0,272461
3,402500	0,1	0,311177
3,404167	0,1	0,249501
3,405833	0,1	0,331809
3,407500	0,1	0,290984
3,409167	0,1	0,279064
3,410833	0,1	0,243751
3,412500	0,1	0,299419
3,414167	0,1	0,273241
3,415833	0,1	0,305463
3,417500	0,1	0,276060
3,419167	0,1	0,289494
3,420833	0,1	0,250754
3,422500	0,1	0,302616
3,424167	0,1	0,283493
3,425833	0,1	0,314134
3,427500	0,1	0,234229
3,429167	0,1	0,303599
3,430833	0,1	0,304161
3,432500	0,1	0,298440
3,434167	0,1	0,298923
3,435833	0,1	0,298060
3,437500	0,1	0,336488
3,439167	0,1	0,309017
3,440833	0,1	0,278078
3,442500	0,1	0,293979
3,444167	0,1	0,271064
3,445833	0,1	0,313215
3,447500	0,1	0,319075
3,449167	0,1	0,324878
3,450833	0,1	0,302203
3,452500	0,1	0,326344
3,454167	0,1	0,314523
3,455833	0,1	0,292246
3,457500	0,1	0,307612
3,459167	0,1	0,268174
3,460833	0,1	0,312577
3,462500	0,1	0,285806
3,464167	0,1	0,323823
3,465833	0,1	0,308401
3,467500	0,1	0,302495
3,469167	0,1	0,281696
3,470833	0,1	0,284723
3,472500	0,1	0,305278
3,474167	0,1	0,269726
3,475833	0,1	0,292501
3,477500	0,1	0,314940
3,479167	0,1	0,315239
3,480833	0,1	0,321551
3,482500	0,1	0,289505
3,484167	0,1	0,310597
3,485833	0,1	0,286797
3,487500	0,1	0,287162
3,489167	0,1	0,299589
3,490833	0,1	0,335525
3,492500	0,1	0,300645
3,494167	0,1	0,330883
3,495833	0,1	0,321177
3,497500	0,1	0,318567
3,499167	0,1	0,293935
3,500833	0,1	0,316795
3,502500	0,1	0,267450
3,504167	0,1	0,313433
3,505833	0,1	0,334507
3,507500	0,1	0,276764
3,509167	0,1	0,318769
3,510833	0,1	0,334592
3,512500	0,1	0,312130
3,514167	0,1	0,312610
3,515833	0,1	0,343713
3,517500	0,1	0,337818
3,519167	0,1	0,295660
3,520833	0,1	0,364613
3,522500	0,1	0,304091
3,524167	0,1	0,282205
3,525833	0,1	0,321862
3,527500	0,1	0,292163
3,529167	0,1	0,294817
3,530833	0,1	0,333676
3,532500	0,1	0,324154
3,534167	0,1	0,349619
3,535833	0,1	0,321582
3,537500	0,1	0,337653
3,539167	0,1	0,308539
3,540833	0,1	0,335315
3,542500	0,1	0,328209
3,544167	0,1	0,303498
3,545833	0,1	0,322427
3,547500	0,1	0,319940
3,549167	0,1	0,304239
3,550833	0,1	0,292077
3,552500	0,1	0,259452
3,554167	0,1	0,349444
3,555833	0,1	0,321500
3,557500	0,1	0,312877
3,559167	0,1	0,317496
3,560833	0,1	0,311513
3,562500	0,1	0,297207
3,564167	0,1	0,319531
3,565833	0,1	0,321037
3,567500	0,1	0,323401
3,569167	0,1	0,315832
3,570833	0,1	0,336498
3,572500	0,1	0,328610
3,574167	0,1	0,307652
3,575833	0,1	0,306465
3,577500	0,1	0,287228
3,579167	0,1	0,343383
3,580833	0,1	0,280124
3,582500	0,1	0,325673
3,584167	0,1	0,320425
3,585833	0,1	0,269065
3,587500	0,1	0,319714
3,589167	0,1	0,317901
3,590833	0,1	0,321174
3,592500	0,1	0,307385
3,594167	0,1	0,312746
3,595833	0,1	0,332280
3,597500	0,1	0,280553
3,599167	0,1	0,300745
3,600833	0,1	0,343632
3,602500	0,1	0,291585
3,604167	0,1	0,286710
3,605833	0,1	0,281080
3,607500	0,1	0,333371
3,609167	0,1	0,280121
3,610833	0,1	0,291085
3,612500	0,1	0,322887
3,614167	0,1	0,311674
3,615833	0,1	0,349727
3,617500	0,1	0,309027
3,619167	0,1	0,279957
3,620833	0,1	0,331923
3,622500	0,1	0,313152
3,624167	0,1	0,345433
3,625833	0,1	0,261903
3,627500	0,1	0,295885
3,629167	0,1	0,291301
3,630833	0,1	0,313280
3,632500	0,1	0,264639
3,634167	0,1	0,309272
3,635833	0,1	0,272471
3,637500	0,1	0,288825
3,639167	0,1	0,343819
3,640833	0,1	0,289677
3,642500	0,1	0,282822
3,644167	0,1	0,268653
3,645833	0,1	0,318774
3,647500	0,1	0,277245
3,649167	0,1	0,306911
3,650833	0,1	0,306253
3,652500	0,1	0,321602
3,654167	0,1	0,334646
3,655833	0,1	0,303630
3,657500	0,1	0,272628
3,659167	0,1	0,292318
3,660833	0,1	0,279044
3,662500	0,1	0,252660
3,664167	0,1	0,309991
3,665833	0,1	0,357509
3,667500	0,1	0,290134
3,669167	0,1	0,297930
3,670833	0,1	0,313228
3,672500	0,1	0,320528
3,674167	0,1	0,319939
3,675833	0,1	0,287149
3,677500	0,1	0,265732
3,679167	0,1	0,294408
3,680833	0,1	0,314750
3,682500	0,1	0,290502
3,684167	0,1	0,308043
3,685833	0,1	0,314731
3,687500	0,1	0,320960
3,689167	0,1	0,329015
3,690833	0,1	0,344602
3,692500	0,1	0,330628
3,694167	0,1	0,296082
3,695833	0,1	0,286528
3,697500	0,1	0,289473
3,699167	0,1	0,336651
3,700833	0,1	0,338567
3,702500	0,1	0,306608
3,704167	0,1	0,331528
3,705833	0,1	0,378445
3,707500	0,1	0,301709
3,709167	0,1	0,344142
3,710833	0,1	0,336424
3,712500	0,1	0,330223
3,714167	0,1	0,287742
3,715833	0,1	0,344245
3,717500	0,1	0,369110
3,719167	0,1	0,337905
3,720833	0,1	0,337786
3,722500	0,1	0,315489
3,724167	0,1	0,371840
3,725833	0,1	0,362753
3,727500	0,1	0,378853
3,729167	0,1	0,405375
3,730833	0,1	0,363032
3,732500	0,1	0,376520
3,734167	0,1	0,403386
3,735833	0,1	0,386111
3,737500	0,1	0,359619
3,739167	0,1	0,403061
3,740833	0,1	0,409916
3,742500	0,1	0,435549
3,744167	0,1	0,424096
3,745833	0,1	0,383029
3,747500	0,1	0,445957
3,749167	0,1	0,403565
3,750833	0,1	0,448405
3,752500	0,1	0,399002
3,754167	0,1	0,443223
3,755833	0,1	0,494262
3,757500	0,1	0,459082
3,759167	0,1	0,453143
3,760833	0,1	0,487445
3,762500	0,1	0,481334
3,764167	0,1	0,471373
3,765833	0,1	0,494859
3,767500	0,1	0,511242
3,769167	0,1	0,508561
3,770833	0,1	0,492049
3,772500	0,1	0,519263
3,774167	0,1	0,534250
3,775833	0,1	0,554361
3,777500	0,1	0,560567
3,779167	0,1	0,546425
3,780833	0,1	0,520383
3,782500	0,1	0,557423
3,784167	0,1	0,552625
3,785833	0,1	0,557941
3,787500	0,1	0,579207
3,789167	0,1	0,595774
3,790833	0,1	0,566679
3,792500	0,1	0,601546
3,794167	0,1	0,604458
3,795833	0,1	0,589771
3,797500	0,1	0,675853
3,799167	0,1	0,632669
3,800833	0,1	0,650060
3,802500	0,1	0,654653
3,804167	0,1	0,627072
3,805833	0,1	0,674092
3,807500	0,1	0,646793
3,809167	0,1	0,655164
3,810833	0,1	0,686474
3,812500	0,1	0,691529
3,814167	0,1	0,709852
3,815833	0,1	0,697096
3,817500	0,1	0,680554
3,819167	0,1	0,705414
3,820833	0,1	0,697553
3,822500	0,1	0,695727
3,824167	0,1	0,688933
3,825833	0,1	0,724808
3,827500	0,1	0,688515
3,829167	0,1	0,710550
3,830833	0,1	0,725052
3,832500	0,1	0,700136
3,834167	0,1	0,720222
3,835833	0,1	0,741040
3,837500	0,1	0,727399
3,839167	0,1	0,724576
3,840833	0,1	0,734061
3,842500	0,1	0,724947
3,844167	0,1	0,716067
3,845833	0,1	0,740578
3,847500	0,1	0,719334
3,849167	0,1	0,744043
3,850833	0,1	0,727748
3,852500	0,1	0,749291
3,854167	0,1	0,720138
3,855833	0,1	0,772242
3,857500	0,1	0,744551
3,859167	0,1	0,764436
3,860833	0,1	0,754606
3,862500	0,1	0,737016
3,864167	0,1	0,726054
3,865833	0,1	0,733065
3,867500	0,1	0,757453
3,869167	0,1	0,721854
3,870833	0,1	0,763087
3,872500	0,1	0,708580
3,874167	0,1	0,733061
3,875833	0,1	0,728610
3,877500	0,1	0,735516
3,879167	0,1	0,723490
3,880833	0,1	0,676529
3,882500	0,1	0,702944
3,884167	0,1	0,684236
3,885833	0,1	0,701155
3,887500	0,1	0,682454
3,889167	0,1	0,701176
3,890833	0,1	0,697958
3,892500	0,1	0,691992
3,894167	0,1	0,654183
3,895833	0,1	0,696842
3,897500	0,1	0,692340
3,899167	0,1	0,709152
3,900833	0,1	0,718660
3,902500	0,1	0,704167
3,904167	0,1	0,678829
3,905833	0,1	0,666609
3,907500	0,1	0,667032
3,909167	0,1	0,676516
3,910833	0,1	0,657750
3,912500	0,1	0,660050
3,914167	0,1	0,659921
3,915833	0,1	0,672319
3,917500	0,1	0,629282
3,919167	0,1	0,652200
3,920833	0,1	0,659864
3,922500	0,1	0,638247
3,924167	0,1	0,632148
3,925833	0,1	0,659957
3,927500	0,1	0,598346
3,929167	0,1	0,618200
3,930833	0,1	0,617802
3,932500	0,1	0,650025
3,934167	0,1	0,618345
3,935833	0,1	0,564401
3,937500	0,1	0,591017
3,939167	0,1	0,607920
3,940833	0,1	0,558707
3,942500	0,1	0,581484
3,944167	0,1	0,592691
3,945833	0,1	0,551556
3,947500	0,1	0,567227
3,949167	0,1	0,566883
3,950833	0,1	0,578775
3,952500	0,1	0,547903
3,954167	0,1	0,570556
3,955833	0,1	0,556976
3,957500	0,1	0,562418
3,959167	0,1	0,549430
3,960833	0,1	0,532945
3,962500	0,1	0,528026
3,964167	0,1	0,539221
3,965833	0,1	0,518498
3,967500	0,1	0,518547
3,969167	0,1	0,495380
3,970833	0,1	0,520232
3,972500	0,1	0,521607
3,974167	0,1	0,513444
3,975833	0,1	0,518009
3,977500	0,1	0,517228
3,979167	0,1	0,508613
3,980833	0,1	0,491243
3,982500	0,1	0,489977
3,984167	0,1	0,472691
3,985833	0,1	0,502348
3,987500	0,1	0,461957
3,989167	0,1	0,488091
3,990833	0,1	0,442761
3,992500	0,1	0,444067
3,994167	0,1	0,487551
3,995833	0,1	0,473442
3,997500	0,1	0,447080
3,999167	0,1	0,487282
4,000833	0,1	0,471348
4,002500	0,1	0,454810
4,004167	0,1	0,480090
4,005833	0,1	0,459750
4,007500	0,1	0,465730
4,009167	0,1	0,495823
4,010833	0,1	0,448829
4,012500	0,1	0,432230
4,014167	0,1	0,433167
4,015833	0,1	0,456812
4,017500	0,1	0,432232
4,019167	0,1	0,454611
4,020833	0,1	0,489861
4,022500	0,1	0,448909
4,024167	0,1	0,409605
4,025833	0,1	0,456083
4,027500	0,1	0,438219
4,029167	0,1	0,411776
4,030833	0,1	0,436437
4,032500	0,1	0,462234
4,034167	0,1	0,468199
4,035833	0,1	0,458592
4,037500	0,1	0,458268
4,039167	0,1	0,453357
4,040833	0,1	0,480060
4,042500	0,1	0,476955
4,044167	0,1	0,442758
4,045833	0,1	0,443691
4,047500	0,1	0,459714
4,049167	0,1	0,491312
4,050833	0,1	0,454653
4,052500	0,1	0,465996
4,054167	0,1	0,458245
4,055833	0,1	0,493859
4,057500	0,1	0,479778
4,059167	0,1	0,485114
4,060833	0,1	0,511236
4,062500	0,1	0,481661
4,064167	0,1	0,508014
4,065833	0,1	0,513360
4,067500	0,1	0,515536
4,069167	0,1	0,542143
4,070833	0,1	0,531970
4,072500	0,1	0,527594
4,074167	0,1	0,550439
4,075833	0,1	0,549715
4,077500	0,1	0,539254
4,079167	0,1	0,552940
4,080833	0,1	0,565613
4,082500	0,1	0,600444
4,084167	0,1	0,607881
4,085833	0,1	0,616783
4,087500	0,1	0,580883
4,089167	0,1	0,618274
4,090833	0,1	0,645862
4,092500	0,1	0,627496
4,094167	0,1	0,635334
4,095833	0,1	0,671449
4,097500	0,1	0,691470
4,099167	0,1	0,692874
4,100833	0,1	0,654073
4,102500	0,1	0,691118
4,104167	0,1	0,721769
4,105833	0,1	0,714502
4,107500	0,1	0,747999
4,109167	0,1	0,707602
4,110833	0,1	0,738294
4,112500	0,1	0,777717
4,114167	0,1	0,742878
4,115833	0,1	0,754491
4,117500	0,1	0,786505
4,119167	0,1	0,806149
4,120833	0,1	0,820152
4,122500	0,1	0,844599
4,124167	0,1	0,837407
4,125833	0,1	0,860833
4,127500	0,1	0,899290
4,129167	0,1	0,851639
4,130833	0,1	0,898570
4,132500	0,1	0,898836
4,134167	0,1	0,867814
4,135833	0,1	0,913126
4,137500	0,1	0,930940
4,139167	0,1	0,967145
4,140833	0,1	0,947092
4,142500	0,1	0,940638
4,144167	0,1	0,975518
4,145833	0,1	1,021433
4,147500	0,1	0,999414
4,149167	0,1	0,983272
4,150833	0,1	1,028486
4,152500	0,1	1,005501
4,154167	0,1	1,027790
4,155833	0,1	1,043501
4,157500	0,1	1,028207
4,159167	0,1	1,075655
4,160833	0,1	1,048912
4,162500	0,1	1,107327
4,164167	0,1	1,037002
4,165833	0,1	1,094352
4,167500	0,1	1,121283
4,169167	0,1	1,119127
4,170833	0,1	1,083881
4,172500	0,1	1,098756
4,174167	0,1	1,143808
4,175833	0,1	1,139891
4,177500	0,1	1,122187
4,179167	0,1	1,169395
4,180833	0,1	1,132496
4,182500	0,1	1,152375
4,184167	0,1	1,129967
4,185833	0,1	1,175668
4,187500	0,1	1,189296
4,189167	0,1	1,164466
4,190833	0,1	1,164812
4,192500	0,1	1,152800
4,194167	0,1	1,164400
4,195833	0,1	1,174909
4,197500	0,1	1,174388
4,199167	0,1	1,185349
4,200833	0,1	1,194279
4,202500	0,1	1,210766
4,204167	0,1	1,152516
4,205833	0,1	1,219552
4,207500	0,1	1,220384
4,209167	0,1	1,184733
4,210833	0,1	1,190597
4,212500	0,1	1,197678
4,214167	0,1	1,211876
4,215833	0,1	1,190292
4,217500	0,1	1,216391
4,219167	0,1	1,210902
4,220833	0,1	1,216282
4,222500	0,1	1,193698
4,224167	0,1	1,173216
4,225833	0,1	1,234122
4,227500	0,1	1,176509
4,229167	0,1	1,188356
4,230833	0,1	1,209000
4,232500	0,1	1,196345
4,234167	0,1	1,206192
4,235833	0,1	1,207485
4,237500	0,1	1,177508
4,239167	0,1	1,190406
4,240833	0,1	1,158898
4,242500	0,1	1,168179
4,244167	0,1	1,201080
4,245833	0,1	1,145587
4,247500	0,1	1,161192
4,249167	0,1	1,124581
4,250833	0,1	1,105218
4,252500	0,1	1,136202
4,254167	0,1	1,200256
4,255833	0,1	1,145882
4,257500	0,1	1,157378
4,259167	0,1	1,155197
4,260833	0,1	1,107872
4,262500	0,1	1,155660
4,264167	0,1	1,113927
4,265833	0,1	1,133092
4,267500	0,1	1,118721
4,269167	0,1	1,115312
4,270833	0,1	1,115887
4,272500	0,1	1,071906
4,274167	0,1	1,129267
4,275833	0,1	1,127629
4,277500	0,1	1,081405
4,279167	0,1	1,090073
4,280833	0,1	1,099686
4,282500	0,1	1,091538
4,284167	0,1	1,084509
4,285833	0,1	1,057787
4,287500	0,1	1,080993
4,289167	0,1	1,079106
4,290833	0,1	1,072735
4,292500	0,1	1,067493
4,294167	0,1	1,058925
4,295833	0,1	1,094959
4,297500	0,1	1,056852
4,299167	0,1	1,056229
4,300833	0,1	1,066561
4,302500	0,1	1,034311
4,304167	0,1	1,056361
4,305833	0,1	1,039370
4,307500	0,1	1,041287
4,309167	0,1	1,065913
4,310833	0,1	1,031029
4,312500	0,1	1,031190
4,314167	0,1	1,046547
4,315833	0,1	1,034069
4,317500	0,1	1,018530
4,319167	0,1	1,036542
4,320833	0,1	0,986926
4,322500	0,1	0,994233
4,324167	0,1	1,033705
4,325833	0,1	0,991917
4,327500	0,1	1,003025
4,329167	0,1	1,008608
4,330833	0,1	1,002230
4,332500	0,1	0,997406
4,334167	0,1	1,000994
4,335833	0,1	0,973274
4,337500	0,1	0,956711
4,339167	0,1	0,977189
4,340833	0,1	0,987486
4,342500	0,1	0,949732
4,344167	0,1	0,969028
4,345833	0,1	1,018218
4,347500	0,1	0,974780
4,349167	0,1	0,954369
4,350833	0,1	0,961514
4,352500	0,1	0,936308
4,354167	0,1	0,939583
4,355833	0,1	0,972895
4,357500	0,1	0,934363
4,359167	0,1	0,895295
4,360833	0,1	0,939573
4,362500	0,1	0,884923
4,364167	0,1	0,960516
4,365833	0,1	0,956833
4,367500	0,1	0,964278
4,369167	0,1	0,933562
4,370833	0,1	0,897077
4,372500	0,1	0,931469
4,374167	0,1	0,917600
4,375833	0,1	0,898052
4,377500	0,1	0,914384
4,379167	0,1	0,938623
4,380833	0,1	0,875872
4,382500	0,1	0,895295
4,384167	0,1	0,886806
4,385833	0,1	0,905211
4,387500	0,1	0,863062
4,389167	0,1	0,879650
4,390833	0,1	0,898482
4,392500	0,1	0,856224
4,394167	0,1	0,911516
4,395833	0,1	0,873509
4,397500	0,1	0,858448
4,399167	0,1	0,844997
4,400833	0,1	0,849229
4,402500	0,1	0,863489
4,404167	0,1	0,829468
4,405833	0,1	0,859653
4,407500	0,1	0,825267
4,409167	0,1	0,846479
4,410833	0,1	0,842838
4,412500	0,1	0,815354
4,414167	0,1	0,820486
4,415833	0,1	0,841376
4,417500	0,1	0,841048
4,419167	0,1	0,829241
4,420833	0,1	0,858141
4,422500	0,1	0,828952
4,424167	0,1	0,764402
4,425833	0,1	0,787080
4,427500	0,1	0,812981
4,429167	0,1	0,800887
4,430833	0,1	0,783055
4,432500	0,1	0,749381
4,434167	0,1	0,736630
4,435833	0,1	0,758616
4,437500	0,1	0,751458
4,439167	0,1	0,738158
4,440833	0,1	0,749058
4,442500	0,1	0,748067
4,444167	0,1	0,715784
4,445833	0,1	0,736127
4,447500	0,1	0,733129
4,449167	0,1	0,718043
4,450833	0,1	0,742313
4,452500	0,1	0,700717
4,454167	0,1	0,689195
4,455833	0,1	0,694794
4,457500	0,1	0,706890
4,459167	0,1	0,705864
4,460833	0,1	0,681537
4,462500	0,1	0,703617
4,464167	0,1	0,667685
4,465833	0,1	0,702545
4,467500	0,1	0,650198
4,469167	0,1	0,657513
4,470833	0,1	0,672798
4,472500	0,1	0,658678
4,474167	0,1	0,627390
4,475833	0,1	0,662281
4,477500	0,1	0,625482
4,479167	0,1	0,633751
4,480833	0,1	0,648783
4,482500	0,1	0,621643
4,484167	0,1	0,622063
4,485833	0,1	0,666092
4,487500	0,1	0,628605
4,489167	0,1	0,606732
4,490833	0,1	0,606626
4,492500	0,1	0,567179
4,494167	0,1	0,616165
4,495833	0,1	0,618304
4,497500	0,1	0,546969
4,499167	0,1	0,576450
4,500833	0,1	0,582046
4,502500	0,1	0,605889
4,504167	0,1	0,580315
4,505833	0,1	0,570069
4,507500	0,1	0,542339
4,509167	0,1	0,541531
4,510833	0,1	0,574841
4,512500	0,1	0,553749
4,514167	0,1	0,551324
4,515833	0,1	0,516754
4,517500	0,1	0,518624
4,519167	0,1	0,547210
4,520833	0,1	0,527651
4,522500	0,1	0,513203
4,524167	0,1	0,477365
4,525833	0,1	0,467880
4,527500	0,1	0,471772
4,529167	0,1	0,497916
4,530833	0,1	0,491426
4,532500	0,1	0,475912
4,534167	0,1	0,514559
4,535833	0,1	0,509816
4,537500	0,1	0,473661
4,539167	0,1	0,497192
4,540833	0,1	0,471267
4,542500	0,1	0,461008
4,544167	0,1	0,476707
4,545833	0,1	0,429850
4,547500	0,1	0,443312
4,549167	0,1	0,468813
4,550833	0,1	0,415999
4,552500	0,1	0,427956
4,554167	0,1	0,432494
4,555833	0,1	0,461535
4,557500	0,1	0,434488
4,559167	0,1	0,452277
4,560833	0,1	0,426059
4,562500	0,1	0,438183
4,564167	0,1	0,429329
4,565833	0,1	0,459279
4,567500	0,1	0,438406
4,569167	0,1	0,404774
4,570833	0,1	0,424573
4,572500	0,1	0,434748
4,574167	0,1	0,412635
4,575833	0,1	0,410780
4,577500	0,1	0,428518
4,579167	0,1	0,434588
4,580833	0,1	0,430563
4,582500	0,1	0,411615
4,584167	0,1	0,414778
4,585833	0,1	0,397630
4,587500	0,1	0,377876
4,589167	0,1	0,396896
4,590833	0,1	0,403609
4,592500	0,1	0,405812
4,594167	0,1	0,356702
4,595833	0,1	0,387474
4,597500	0,1	0,375428
4,599167	0,1	0,387769
4,600833	0,1	0,368561
4,602500	0,1	0,358736
4,604167	0,1	0,373679
4,605833	0,1	0,390214
4,607500	0,1	0,355383
4,609167	0,1	0,366834
4,610833	0,1	0,403791
4,612500	0,1	0,385606
4,614167	0,1	0,317173
4,615833	0,1	0,353007
4,617500	0,1	0,410469
4,619167	0,1	0,337921
4,620833	0,1	0,344214
4,622500	0,1	0,370913
4,624167	0,1	0,368877
4,625833	0,1	0,369177
4,627500	0,1	0,334828
4,629167	0,1	0,308871
4,630833	0,1	0,335107
4,632500	0,1	0,319499
4,634167	0,1	0,335110
4,635833	0,1	0,347433
4,637500	0,1	0,318480
4,639167	0,1	0,352981
4,640833	0,1	0,309838
4,642500	0,1	0,329259
4,644167	0,1	0,323196
4,645833	0,1	0,302588
4,647500	0,1	0,342375
4,649167	0,1	0,324412
4,650833	0,1	0,334520
4,652500	0,1	0,314507
4,654167	0,1	0,345874
4,655833	0,1	0,306404
4,657500	0,1	0,321827
4,659167	0,1	0,314854
4,660833	0,1	0,340474
4,662500	0,1	0,323683
4,664167	0,1	0,305702
4,665833	0,1	0,341146
4,667500	0,1	0,313971
4,669167	0,1	0,304790
4,670833	0,1	0,313940
4,672500	0,1	0,307040
4,674167	0,1	0,280564
4,675833	0,1	0,304616
4,677500	0,1	0,335160
4,679167	0,1	0,282576
4,680833	0,1	0,292307
4,682500	0,1	0,322065
4,684167	0,1	0,304020
4,685833	0,1	0,308014
4,687500	0,1	0,304010
4,689167	0,1	0,291236
4,690833	0,1	0,306210
4,692500	0,1	0,303826
4,694167	0,1	0,296766
4,695833	0,1	0,310581
4,697500	0,1	0,293283
4,699167	0,1	0,325475
4,700833	0,1	0,297657
4,702500	0,1	0,298431
4,704167	0,1	0,283431
4,705833	0,1	0,310450
4,707500	0,1	0,253839
4,709167	0,1	0,284891
4,710833	0,1	0,298641
4,712500	0,1	0,301673
4,714167	0,1	0,290759
4,715833	0,1	0,254204
4,717500	0,1	0,274777
4,719167	0,1	0,265632
4,720833	0,1	0,300674
4,722500	0,1	0,289145
4,724167	0,1	0,279219
4,725833	0,1	0,263437
4,727500	0,1	0,260076
4,729167	0,1	0,301642
4,730833	0,1	0,257056
4,732500	0,1	0,277923
4,734167	0,1	0,299092
4,735833	0,1	0,323945
4,737500	0,1	0,239223
4,739167	0,1	0,275205
4,740833	0,1	0,285357
4,742500	0,1	0,275217
4,744167	0,1	0,313342
4,745833	0,1	0,272892
4,747500	0,1	0,277495
4,749167	0,1	0,287798
4,750833	0,1	0,282756
4,752500	0,1	0,256470
4,754167	0,1	0,270311
4,755833	0,1	0,256646
4,757500	0,1	0,276603
4,759167	0,1	0,271783
4,760833	0,1	0,265958
4,762500	0,1	0,241087
4,764167	0,1	0,287957
4,765833	0,1	0,304058
4,767500	0,1	0,220083
4,769167	0,1	0,322638
4,770833	0,1	0,238842
4,772500	0,1	0,283123
4,774167	0,1	0,234389
4,775833	0,1	0,271985
4,777500	0,1	0,282084
4,779167	0,1	0,270097
4,780833	0,1	0,274842
4,782500	0,1	0,277578
4,784167	0,1	0,277655
4,785833	0,1	0,311333
4,787500	0,1	0,265544
4,789167	0,1	0,241678
4,790833	0,1	0,302660
4,792500	0,1	0,281259
4,794167	0,1	0,256038
4,795833	0,1	0,229413
4,797500	0,1	0,266727
4,799167	0,1	0,283477
4,800833	0,1	0,286679
4,802500	0,1	0,271924
4,804167	0,1	0,281123
4,805833	0,1	0,262876
4,807500	0,1	0,262039
4,809167	0,1	0,288680
4,810833	0,1	0,264334
4,812500	0,1	0,266706
4,814167	0,1	0,259548
4,815833	0,1	0,274546
4,817500	0,1	0,268860
4,819167	0,1	0,262209
4,820833	0,1	0,229550
4,822500	0,1	0,280945
4,824167	0,1	0,310768
4,825833	0,1	0,280626
4,827500	0,1	0,296358
4,829167	0,1	0,237126
4,830833	0,1	0,315931
4,832500	0,1	0,281504
4,834167	0,1	0,283936
4,835833	0,1	0,263006
4,837500	0,1	0,276099
4,839167	0,1	0,265503
4,840833	0,1	0,281704
4,842500	0,1	0,296117
4,844167	0,1	0,314316
4,845833	0,1	0,227179
4,847500	0,1	0,281218
4,849167	0,1	0,250369
4,850833	0,1	0,266923
4,852500	0,1	0,255390
4,854167	0,1	0,283021
4,855833	0,1	0,271544
4,857500	0,1	0,270253
4,859167	0,1	0,289948
4,860833	0,1	0,263416
4,862500	0,1	0,310142
4,864167	0,1	0,324244
4,865833	0,1	0,286636
4,867500	0,1	0,270498
4,869167	0,1	0,308621
4,870833	0,1	0,312494
4,872500	0,1	0,287754
4,874167	0,1	0,270848
4,875833	0,1	0,240445
4,877500	0,1	0,265580
4,879167	0,1	0,279645
4,880833	0,1	0,274580
4,882500	0,1	0,278677
4,884167	0,1	0,305319
4,885833	0,1	0,256044
4,887500	0,1	0,273119
4,889167	0,1	0,256627
4,890833	0,1	0,279990
4,892500	0,1	0,295799
4,894167	0,1	0,279250
4,895833	0,1	0,256596
4,897500	0,1	0,305664
4,899167	0,1	0,285670
4,900833	0,1	0,277792
4,902500	0,1	0,271193
4,904167	0,1	0,295765
4,905833	0,1	0,257940
4,907500	0,1	0,318677
4,909167	0,1	0,261333
4,910833	0,1	0,262366
4,912500	0,1	0,296226
4,914167	0,1	0,282840
4,915833	0,1	0,265399
4,917500	0,1	0,248496
4,919167	0,1	0,262363
4,920833	0,1	0,247852
4,922500	0,1	0,311032
4,924167	0,1	0,298382
4,925833	0,1	0,294809
4,927500	0,1	0,310262
4,929167	0,1	0,255507
4,930833	0,1	0,299579
4,932500	0,1	0,284698
4,934167	0,1	0,325608
4,935833	0,1	0,257874
4,937500	0,1	0,256168
4,939167	0,1	0,261447
4,940833	0,1	0,251094
4,942500	0,1	0,265477
4,944167	0,1	0,245214
4,945833	0,1	0,276230
4,947500	0,1	0,265483
4,949167	0,1	0,266230
4,950833	0,1	0,266630
4,952500	0,1	0,284258
4,954167	0,1	0,255266
4,955833	0,1	0,285088
4,957500	0,1	0,269854
4,959167	0,1	0,273790
4,960833	0,1	0,264109
4,962500	0,1	0,287477
4,964167	0,1	0,270257
4,965833	0,1	0,298454
4,967500	0,1	0,253519
4,969167	0,1	0,225719
4,970833	0,1	0,270621
4,972500	0,1	0,307355
4,974167	0,1	0,265458
4,975833	0,1	0,298506
4,977500	0,1	0,257973
4,979167	0,1	0,321259
4,980833	0,1	0,275816
4,982500	0,1	0,279351
4,984167	0,1	0,280830
4,985833	0,1	0,232216
4,987500	0,1	0,267054
4,989167	0,1	0,261532
4,990833	0,1	0,264380
4,992500	0,1	0,272265
4,994167	0,1	0,256891
4,995833	0,1	0,280340
4,997500	0,1	0,251983
4,999167	0,1	0,258668
5,000833	0,1	0,269151
5,002500	0,1	0,320937
5,004167	0,1	0,285474
5,005833	0,1	0,265717
5,007500	0,1	0,257837
5,009167	0,1	0,278144
5,010833	0,1	0,279595
5,012500	0,1	0,265378
5,014167	0,1	0,283961
5,015833	0,1	0,260651
5,017500	0,1	0,288067
5,019167	0,1	0,232406
5,020833	0,1	0,269441
5,022500	0,1	0,283562
5,024167	0,1	0,270688
5,025833	0,1	0,218588
5,027500	0,1	0,244084
5,029167	0,1	0,270973
5,030833	0,1	0,279455
5,032500	0,1	0,281874
5,034167	0,1	0,299397
5,035833	0,1	0,274849
5,037500	0,1	0,282920
5,039167	0,1	0,296790
5,040833	0,1	0,248474
5,042500	0,1	0,268778
5,044167	0,1	0,252604
5,045833	0,1	0,270363
5,047500	0,1	0,264943
5,049167	0,1	0,259177
5,050833	0,1	0,293300
5,052500	0,1	0,241094
5,054167	0,1	0,256269
5,055833	0,1	0,228938
5,057500	0,1	0,234462
5,059167	0,1	0,292544
5,060833	0,1	0,269265
5,062500	0,1	0,283962
5,064167	0,1	0,250918
5,065833	0,1	0,304435
5,067500	0,1	0,281827
5,069167	0,1	0,265505
5,070833	0,1	0,265154
5,072500	0,1	0,260835
5,074167	0,1	0,277901
5,075833	0,1	0,275141
5,077500	0,1	0,227358
5,079167	0,1	0,289702
5,080833	0,1	0,278416
5,082500	0,1	0,251719
5,084167	0,1	0,263301
5,085833	0,1	0,249869
5,087500	0,1	0,271059
5,089167	0,1	0,253754
5,090833	0,1	0,265530
5,092500	0,1	0,258639
5,094167	0,1	0,248759
5,095833	0,1	0,258582
5,097500	0,1	0,247534
5,099167	0,1	0,256651
5,100833	0,1	0,272455
5,102500	0,1	0,266684
5,104167	0,1	0,282812
5,105833	0,1	0,253780
5,107500	0,1	0,255661
5,109167	0,1	0,287695
5,110833	0,1	0,249221
5,112500	0,1	0,245359
5,114167	0,1	0,294662
5,115833	0,1	0,282554
5,117500	0,1	0,240722
5,119167	0,1	0,266392
5,120833	0,1	0,292637
5,122500	0,1	0,273666
5,124167	0,1	0,273050
5,125833	0,1	0,292606
5,127500	0,1	0,258678
5,129167	0,1	0,272137
5,130833	0,1	0,306772
5,132500	0,1	0,244191
5,134167	0,1	0,274033
5,135833	0,1	0,220954
5,137500	0,1	0,268636
5,139167	0,1	0,262988
5,140833	0,1	0,236538
5,142500	0,1	0,229156
5,144167	0,1	0,281038
5,145833	0,1	0,272998
5,147500	0,1	0,277260
5,149167	0,1	0,280671
5,150833	0,1	0,222051
5,152500	0,1	0,253616
5,154167	0,1	0,271143
5,155833	0,1	0,299855
5,157500	0,1	0,277510
5,159167	0,1	0,310774
5,160833	0,1	0,235178
5,162500	0,1	0,235718
5,164167	0,1	0,271594
5,165833	0,1	0,273322
5,167500	0,1	0,268457
5,169167	0,1	0,256308
5,170833	0,1	0,240768
5,172500	0,1	0,225283
5,174167	0,1	0,259844
5,175833	0,1	0,277553
5,177500	0,1	0,241850
5,179167	0,1	0,251521
5,180833	0,1	0,275967
5,182500	0,1	0,234609
5,184167	0,1	0,277250
5,185833	0,1	0,235940
5,187500	0,1	0,264027
5,189167	0,1	0,257859
5,190833	0,1	0,216391
5,192500	0,1	0,264666
5,194167	0,1	0,244264
5,195833	0,1	0,278466
5,197500	0,1	0,285313
5,199167	0,1	0,268522
5,200833	0,1	0,297568
5,202500	0,1	0,258118
5,204167	0,1	0,247018
5,205833	0,1	0,260461
5,207500	0,1	0,260275
5,209167	0,1	0,269395
5,210833	0,1	0,270706
5,212500	0,1	0,260034
5,214167	0,1	0,257056
5,215833	0,1	0,249571
5,217500	0,1	0,295253
5,219167	0,1	0,202290
5,220833	0,1	0,263184
5,222500	0,1	0,283484
5,224167	0,1	0,237156
5,225833	0,1	0,249757
5,227500	0,1	0,270013
5,229167	0,1	0,244340
5,230833	0,1	0,283162
5,232500	0,1	0,269727
5,234167	0,1	0,249415
5,235833	0,1	0,258582
5,237500	0,1	0,231039
5,239167	0,1	0,236688
5,240833	0,1	0,248067
5,242500	0,1	0,256598
5,244167	0,1	0,253866
5,245833	0,1	0,227767
5,247500	0,1	0,253944
5,249167	0,1	0,282565
5,250833	0,1	0,244185
5,252500	0,1	0,247068
5,254167	0,1	0,253401
5,255833	0,1	0,242890
5,257500	0,1	0,233400
5,259167	0,1	0,231730
5,260833	0,1	0,259116
5,262500	0,1	0,253140
5,264167	0,1	0,180879
5,265833	0,1	0,222599
5,267500	0,1	0,247981
5,269167	0,1	0,200189
5,270833	0,1	0,246413
5,272500	0,1	0,239247
5,274167	0,1	0,233904
5,275833	0,1	0,242156
5,277500	0,1	0,281624
5,279167	0,1	0,246949
5,280833	0,1	0,254666
5,282500	0,1	0,244525
5,284167	0,1	0,194868
5,285833	0,1	0,220133
5,287500	0,1	0,240179
5,289167	0,1	0,218126
5,290833	0,1	0,257614
5,292500	0,1	0,213277
5,294167	0,1	0,220537
5,295833	0,1	0,224454
5,297500	0,1	0,266302
5,299167	0,1	0,228413
5,300833	0,1	0,259601
5,302500	0,1	0,264865
5,304167	0,1	0,212391
5,305833	0,1	0,220991
5,307500	0,1	0,253827
5,309167	0,1	0,206647
5,310833	0,1	0,231532
5,312500	0,1	0,224753
5,314167	0,1	0,265341
5,315833	0,1	0,263178
5,317500	0,1	0,244422
5,319167	0,1	0,252334
5,320833	0,1	0,214247
5,322500	0,1	0,262143
5,324167	0,1	0,240664
5,325833	0,1	0,225452
5,327500	0,1	0,227327
5,329167	0,1	0,233954
5,330833	0,1	0,263835
5,332500	0,1	0,254934
5,334167	0,1	0,230711
5,335833	0,1	0,224509
5,337500	0,1	0,245300
5,339167	0,1	0,228375
5,340833	0,1	0,229956
5,342500	0,1	0,230705
5,344167	0,1	0,196289
5,345833	0,1	0,255974
5,347500	0,1	0,210785
5,349167	0,1	0,230995
5,350833	0,1	0,228372
5,352500	0,1	0,211286
5,354167	0,1	0,235693
5,355833	0,1	0,231170
5,357500	0,1	0,257670
5,359167	0,1	0,214753
5,360833	0,1	0,211905
5,362500	0,1	0,212917
5,364167	0,1	0,258636
5,365833	0,1	0,221921
5,367500	0,1	0,214556
5,369167	0,1	0,226575
5,370833	0,1	0,198757
5,372500	0,1	0,219911
5,374167	0,1	0,199557
5,375833	0,1	0,237705
5,377500	0,1	0,203963
5,379167	0,1	0,236335
5,380833	0,1	0,183744
5,382500	0,1	0,235042
5,384167	0,1	0,217914
5,385833	0,1	0,247736
5,387500	0,1	0,242361
5,389167	0,1	0,192968
5,390833	0,1	0,222569
5,392500	0,1	0,249077
5,394167	0,1	0,219310
5,395833	0,1	0,221720
5,397500	0,1	0,233869
5,399167	0,1	0,256224
5,400833	0,1	0,237160
5,402500	0,1	0,216838
5,404167	0,1	0,214521
5,405833	0,1	0,194406
5,407500	0,1	0,229165
5,409167	0,1	0,218176
5,410833	0,1	0,230142
5,412500	0,1	0,262450
5,414167	0,1	0,266555
5,415833	0,1	0,191581
5,417500	0,1	0,241598
5,419167	0,1	0,234654
5,420833	0,1	0,182561
5,422500	0,1	0,230724
5,424167	0,1	0,244097
5,425833	0,1	0,237124
5,427500	0,1	0,272638
5,429167	0,1	0,230904
5,430833	0,1	0,200637
5,432500	0,1	0,217612
5,434167	0,1	0,229445
5,435833	0,1	0,246239
5,437500	0,1	0,241073
5,439167	0,1	0,207584
5,440833	0,1	0,218479
5,442500	0,1	0,235567
5,444167	0,1	0,211025
5,445833	0,1	0,216293
5,447500	0,1	0,249267
5,449167	0,1	0,264112
5,450833	0,1	0,236518
5,452500	0,1	0,250939
5,454167	0,1	0,207494
5,455833	0,1	0,228979
5,457500	0,1	0,205143
5,459167	0,1	0,215734
5,460833	0,1	0,226120
5,462500	0,1	0,205944
5,464167	0,1	0,233602
5,465833	0,1	0,218527
5,467500	0,1	0,257508
5,469167	0,1	0,170231
5,470833	0,1	0,259134
5,472500	0,1	0,229244
5,474167	0,1	0,241627
5,475833	0,1	0,240154
5,477500	0,1	0,226265
5,479167	0,1	0,206832
5,480833	0,1	0,241328
5,482500	0,1	0,235192
5,484167	0,1	0,225293
5,485833	0,1	0,215612
5,487500	0,1	0,242046
5,489167	0,1	0,208832
5,490833	0,1	0,204928
5,492500	0,1	0,251711
5,494167	0,1	0,252419
5,495833	0,1	0,208209
5,497500	0,1	0,265717
5,499167	0,1	0,208265
5,500833	0,1	0,238911
5,502500	0,1	0,192725
5,504167	0,1	0,207118
5,505833	0,1	0,210235
5,507500	0,1	0,260082
5,509167	0,1	0,246005
5,510833	0,1	0,258287
5,512500	0,1	0,200814
5,514167	0,1	0,232851
5,515833	0,1	0,237016
5,517500	0,1	0,214591
5,519167	0,1	0,262226
5,520833	0,1	0,191023
5,522500	0,1	0,221450
5,524167	0,1	0,214797
5,525833	0,1	0,243661
5,527500	0,1	0,234918
5,529167	0,1	0,195383
5,530833	0,1	0,242907
5,532500	0,1	0,253272
5,534167	0,1	0,232273
5,535833	0,1	0,222664
5,537500	0,1	0,194894
5,539167	0,1	0,226307
5,540833	0,1	0,250345
5,542500	0,1	0,231384
5,544167	0,1	0,223444
5,545833	0,1	0,200858
5,547500	0,1	0,221610
5,549167	0,1	0,241658
5,550833	0,1	0,228249
5,552500	0,1	0,243347
5,554167	0,1	0,264111
5,555833	0,1	0,214059
5,557500	0,1	0,251872
5,559167	0,1	0,218509
5,560833	0,1	0,254289
5,562500	0,1	0,224146
5,564167	0,1	0,248308
5,565833	0,1	0,258562
5,567500	0,1	0,218217
5,569167	0,1	0,236613
5,570833	0,1	0,210898
5,572500	0,1	0,242352
5,574167	0,1	0,234285
5,575833	0,1	0,216069
5,577500	0,1	0,234459
5,579167	0,1	0,258262
5,580833	0,1	0,257488
5,582500	0,1	0,283756
5,584167	0,1	0,228101
5,585833	0,1	0,251822
5,587500	0,1	0,204727
5,589167	0,1	0,261021
5,590833	0,1	0,212371
5,592500	0,1	0,245677
5,594167	0,1	0,242391
5,595833	0,1	0,276458
5,597500	0,1	0,233006
5,599167	0,1	0,262906
5,600833	0,1	0,238228
5,602500	0,1	0,291130
5,604167	0,1	0,230487
5,605833	0,1	0,252605
5,607500	0,1	0,238150
5,609167	0,1	0,283669
5,610833	0,1	0,257715
5,612500	0,1	0,222321
5,614167	0,1	0,232371
5,615833	0,1	0,255897
5,617500	0,1	0,222109
5,619167	0,1	0,235831
5,620833	0,1	0,251074
5,622500	0,1	0,268864
5,624167	0,1	0,256665
5,625833	0,1	0,265032
5,627500	0,1	0,251937
5,629167	0,1	0,247004
5,630833	0,1	0,259690
5,632500	0,1	0,252906
5,634167	0,1	0,271786
5,635833	0,1	0,251486
5,637500	0,1	0,241316
5,639167	0,1	0,282117
5,640833	0,1	0,256880
5,642500	0,1	0,285446
5,644167	0,1	0,315124
5,645833	0,1	0,269152
5,647500	0,1	0,240161
5,649167	0,1	0,277472
5,650833	0,1	0,285398
5,652500	0,1	0,306806
5,654167	0,1	0,291229
5,655833	0,1	0,295703
5,657500	0,1	0,263080
5,659167	0,1	0,320351
5,660833	0,1	0,269871
5,662500	0,1	0,292319
5,664167	0,1	0,262594
5,665833	0,1	0,285741
5,667500	0,1	0,302246
5,669167	0,1	0,267777
5,670833	0,1	0,264064
5,672500	0,1	0,256928
5,674167	0,1	0,285255
5,675833	0,1	0,303587
5,677500	0,1	0,258037
5,679167	0,1	0,304065
5,680833	0,1	0,291220
5,682500	0,1	0,309383
5,684167	0,1	0,303243
5,685833	0,1	0,317141
5,687500	0,1	0,330904
5,689167	0,1	0,337375
5,690833	0,1	0,289487
5,692500	0,1	0,322314
5,694167	0,1	0,301937
5,695833	0,1	0,294524
5,697500	0,1	0,308634
5,699167	0,1	0,337635
5,700833	0,1	0,309235
5,702500	0,1	0,351673
5,704167	0,1	0,344894
5,705833	0,1	0,306683
5,707500	0,1	0,318105
5,709167	0,1	0,340297
5,710833	0,1	0,361150
5,712500	0,1	0,344359
5,714167	0,1	0,331773
5,715833	0,1	0,331339
5,717500	0,1	0,332761
5,719167	0,1	0,347572
5,720833	0,1	0,338213
5,722500	0,1	0,338748
5,724167	0,1	0,343656
5,725833	0,1	0,346286
5,727500	0,1	0,355976
5,729167	0,1	0,377306
5,730833	0,1	0,327114
5,732500	0,1	0,344487
5,734167	0,1	0,350607
5,735833	0,1	0,356911
5,737500	0,1	0,399017
5,739167	0,1	0,347805
5,740833	0,1	0,366947
5,742500	0,1	0,366658
5,744167	0,1	0,370308
5,745833	0,1	0,356781
5,747500	0,1	0,371887
5,749167	0,1	0,337491
5,750833	0,1	0,392811
5,752500	0,1	0,368623
5,754167	0,1	0,386408
5,755833	0,1	0,361297
5,757500	0,1	0,396710
5,759167	0,1	0,409113
5,760833	0,1	0,418402
5,762500	0,1	0,386070
5,764167	0,1	0,375785
5,765833	0,1	0,362069
5,767500	0,1	0,397701
5,769167	0,1	0,362665
5,770833	0,1	0,422926
5,772500	0,1	0,399301
5,774167	0,1	0,405467
5,775833	0,1	0,373267
5,777500	0,1	0,415414
5,779167	0,1	0,371661
5,780833	0,1	0,398831
5,782500	0,1	0,406647
5,784167	0,1	0,384242
5,785833	0,1	0,440456
5,787500	0,1	0,384009
5,789167	0,1	0,430526
5,790833	0,1	0,386390
5,792500	0,1	0,432298
5,794167	0,1	0,376303
5,795833	0,1	0,418878
5,797500	0,1	0,402573
5,799167	0,1	0,411128
5,800833	0,1	0,399940
5,802500	0,1	0,400554
5,804167	0,1	0,398384
5,805833	0,1	0,433804
5,807500	0,1	0,385429
5,809167	0,1	0,411152
5,810833	0,1	0,412822
5,812500	0,1	0,438423
5,814167	0,1	0,420020
5,815833	0,1	0,390578
5,817500	0,1	0,410911
5,819167	0,1	0,421542
5,820833	0,1	0,414864
5,822500	0,1	0,404558
5,824167	0,1	0,434153
5,825833	0,1	0,387522
5,827500	0,1	0,441824
5,829167	0,1	0,402389
5,830833	0,1	0,448618
5,832500	0,1	0,420477
5,834167	0,1	0,405927
5,835833	0,1	0,410699
5,837500	0,1	0,408017
5,839167	0,1	0,411373
5,840833	0,1	0,414725
5,842500	0,1	0,383653
5,844167	0,1	0,391480
5,845833	0,1	0,398112
5,847500	0,1	0,419928
5,849167	0,1	0,416260
5,850833	0,1	0,410165
5,852500	0,1	0,424951
5,854167	0,1	0,418140
5,855833	0,1	0,389156
5,857500	0,1	0,403103
5,859167	0,1	0,383543
5,860833	0,1	0,388397
5,862500	0,1	0,395185
5,864167	0,1	0,429428
5,865833	0,1	0,393156
5,867500	0,1	0,399454
5,869167	0,1	0,421163
5,870833	0,1	0,423129
5,872500	0,1	0,412020
5,874167	0,1	0,390173
5,875833	0,1	0,395482
5,877500	0,1	0,413648
5,879167	0,1	0,419317
5,880833	0,1	0,384918
5,882500	0,1	0,397921
5,884167	0,1	0,420547
5,885833	0,1	0,404399
5,887500	0,1	0,379386
5,889167	0,1	0,406965
5,890833	0,1	0,407722
5,892500	0,1	0,420871
5,894167	0,1	0,369033
5,895833	0,1	0,384099
5,897500	0,1	0,390436
5,899167	0,1	0,399186
5,900833	0,1	0,387356
5,902500	0,1	0,364705
5,904167	0,1	0,390995
5,905833	0,1	0,383167
5,907500	0,1	0,385767
5,909167	0,1	0,415579
5,910833	0,1	0,362969
5,912500	0,1	0,372452
5,914167	0,1	0,346483
5,915833	0,1	0,391581
5,917500	0,1	0,381959
5,919167	0,1	0,365454
5,920833	0,1	0,396093
5,922500	0,1	0,359822
5,924167	0,1	0,366119
5,925833	0,1	0,416166
5,927500	0,1	0,372706
5,929167	0,1	0,370416
5,930833	0,1	0,345892
5,932500	0,1	0,365955
5,934167	0,1	0,386514
5,935833	0,1	0,379892
5,937500	0,1	0,410454
5,939167	0,1	0,391193
5,940833	0,1	0,385152
5,942500	0,1	0,404738
5,944167	0,1	0,368332
5,945833	0,1	0,371566
5,947500	0,1	0,343317
5,949167	0,1	0,352112
5,950833	0,1	0,378112
5,952500	0,1	0,358182
5,954167	0,1	0,355229
5,955833	0,1	0,357987
5,957500	0,1	0,356597
5,959167	0,1	0,366092
5,960833	0,1	0,347770
5,962500	0,1	0,361369
5,964167	0,1	0,388688
5,965833	0,1	0,369349
5,967500	0,1	0,329391
5,969167	0,1	0,314838
5,970833	0,1	0,355725
5,972500	0,1	0,333548
5,974167	0,1	0,332171
5,975833	0,1	0,322187
5,977500	0,1	0,345455
5,979167	0,1	0,324743
5,980833	0,1	0,345803
5,982500	0,1	0,321955
5,984167	0,1	0,342045
5,985833	0,1	0,297077
5,987500	0,1	0,352745
5,989167	0,1	0,352408
5,990833	0,1	0,331265
5,992500	0,1	0,345670
5,994167	0,1	0,278097
5,995833	0,1	0,319635
5,997500	0,1	0,330320
5,999167	0,1	0,321361
6,000833	0,1	0,306684
