File Path	chrom://chromeleon01/ikbm_chromeleon/2022/Rezex/Esteban/220612_chitin_4_7.seq/720.smp/UV_VIS_1.channel/UV_VIS_1.chm
Channel	UV_VIS_1

Injection Information:
Data Vault	ikbm_chromeleon
Injection	A2ox 10
Injection Number	55
Position	RA1
Comment	
Processing Method	New ProcMethod
Instrument Method	Short_Rezex_6min_194nm
Type	Calibration Standard
Status	Finished
Injection Date	12.06.2022
Injection Time	23:03:12
Injection Volume (µl)	8,000
Dilution Factor	1,0000
Weight	1,0000

Chromatogram Data Information:
Time Min. (min)	0,000833
Time Max. (min)	6,000833
Data Points	3601
Detector	UV
Generating Data System	Chromeleon 7.2.9.11323
Exporting Data System	Chromeleon 7.2.9.0
Operator	Instrument Controller
Signal Quantity	Absorbance
Signal Unit	mAU
Signal Min.	-3,577793
Signal Max.	6,211922
Channel	UV_VIS_1
Driver Name	VWD3000.dll
Channel Type	Evaluation
Min. Step (s)	0,1
Max. Step (s)	0,1
Average Step (s)	0,1

Signal Parameter Information:
Signal Info	WVL:194 nm

Chromatogram Data:
Time (min)	Step (s)	Value (mAU)
0,000833	n.a.	-0,077186
0,002500	0,1	-0,035326
0,004167	0,1	-0,096403
0,005833	0,1	-0,062834
0,007500	0,1	-0,054536
0,009167	0,1	-0,082013
0,010833	0,1	-0,076986
0,012500	0,1	-0,060875
0,014167	0,1	-0,037189
0,015833	0,1	-0,087913
0,017500	0,1	-0,068106
0,019167	0,1	-0,058007
0,020833	0,1	-0,109315
0,022500	0,1	-0,073360
0,024167	0,1	-0,046036
0,025833	0,1	-0,018714
0,027500	0,1	-0,077362
0,029167	0,1	-0,048385
0,030833	0,1	-0,091879
0,032500	0,1	-0,063994
0,034167	0,1	-0,056392
0,035833	0,1	-0,076791
0,037500	0,1	-0,036132
0,039167	0,1	-0,070453
0,040833	0,1	-0,059006
0,042500	0,1	-0,065399
0,044167	0,1	-0,059673
0,045833	0,1	-0,032003
0,047500	0,1	-0,079587
0,049167	0,1	-0,033421
0,050833	0,1	-0,095318
0,052500	0,1	-0,079247
0,054167	0,1	-0,038090
0,055833	0,1	-0,071007
0,057500	0,1	-0,043879
0,059167	0,1	-0,082969
0,060833	0,1	-0,050479
0,062500	0,1	-0,066659
0,064167	0,1	-0,062929
0,065833	0,1	-0,088361
0,067500	0,1	-0,099583
0,069167	0,1	-0,073331
0,070833	0,1	-0,061075
0,072500	0,1	-0,088827
0,074167	0,1	-0,043592
0,075833	0,1	-0,090110
0,077500	0,1	-0,089793
0,079167	0,1	-0,058241
0,080833	0,1	-0,071153
0,082500	0,1	-0,090471
0,084167	0,1	-0,079372
0,085833	0,1	-0,058491
0,087500	0,1	-0,085345
0,089167	0,1	-0,068271
0,090833	0,1	-0,072933
0,092500	0,1	-0,091593
0,094167	0,1	-0,083134
0,095833	0,1	-0,084707
0,097500	0,1	-0,103986
0,099167	0,1	-0,032847
0,100833	0,1	-0,058125
0,102500	0,1	-0,102603
0,104167	0,1	-0,079514
0,105833	0,1	-0,053632
0,107500	0,1	-0,068035
0,109167	0,1	-0,094102
0,110833	0,1	-0,096493
0,112500	0,1	-0,102221
0,114167	0,1	-0,028770
0,115833	0,1	-0,103203
0,117500	0,1	-0,050674
0,119167	0,1	-0,116491
0,120833	0,1	-0,088071
0,122500	0,1	-0,087547
0,124167	0,1	-0,059590
0,125833	0,1	-0,085333
0,127500	0,1	-0,068736
0,129167	0,1	-0,053404
0,130833	0,1	-0,062598
0,132500	0,1	-0,097420
0,134167	0,1	-0,093316
0,135833	0,1	-0,041385
0,137500	0,1	-0,094474
0,139167	0,1	-0,055542
0,140833	0,1	-0,095966
0,142500	0,1	-0,063453
0,144167	0,1	-0,073650
0,145833	0,1	-0,103628
0,147500	0,1	-0,071946
0,149167	0,1	-0,055979
0,150833	0,1	-0,039445
0,152500	0,1	-0,055655
0,154167	0,1	-0,084929
0,155833	0,1	-0,087257
0,157500	0,1	-0,013675
0,159167	0,1	-0,118969
0,160833	0,1	-0,120367
0,162500	0,1	-0,081310
0,164167	0,1	-0,078892
0,165833	0,1	-0,109131
0,167500	0,1	-0,122938
0,169167	0,1	-0,088325
0,170833	0,1	-0,058493
0,172500	0,1	-0,143490
0,174167	0,1	-0,074466
0,175833	0,1	-0,106165
0,177500	0,1	-0,095335
0,179167	0,1	-0,077407
0,180833	0,1	-0,108146
0,182500	0,1	-0,085396
0,184167	0,1	-0,064055
0,185833	0,1	-0,064278
0,187500	0,1	-0,112408
0,189167	0,1	-0,080186
0,190833	0,1	-0,080858
0,192500	0,1	-0,085363
0,194167	0,1	-0,112476
0,195833	0,1	-0,080021
0,197500	0,1	-0,074640
0,199167	0,1	-0,035325
0,200833	0,1	-0,055907
0,202500	0,1	-0,040947
0,204167	0,1	-0,058782
0,205833	0,1	-0,044872
0,207500	0,1	-0,035192
0,209167	0,1	-0,094233
0,210833	0,1	-0,087070
0,212500	0,1	-0,091055
0,214167	0,1	-0,070819
0,215833	0,1	-0,105723
0,217500	0,1	-0,066634
0,219167	0,1	-0,051864
0,220833	0,1	-0,061726
0,222500	0,1	-0,112785
0,224167	0,1	-0,053514
0,225833	0,1	-0,090845
0,227500	0,1	-0,046103
0,229167	0,1	-0,027695
0,230833	0,1	-0,078678
0,232500	0,1	-0,043400
0,234167	0,1	-0,088282
0,235833	0,1	-0,080244
0,237500	0,1	-0,055337
0,239167	0,1	-0,090467
0,240833	0,1	-0,095043
0,242500	0,1	-0,078315
0,244167	0,1	-0,047261
0,245833	0,1	-0,093102
0,247500	0,1	-0,098714
0,249167	0,1	-0,060415
0,250833	0,1	-0,033972
0,252500	0,1	-0,076181
0,254167	0,1	-0,112308
0,255833	0,1	-0,050651
0,257500	0,1	-0,075277
0,259167	0,1	-0,073806
0,260833	0,1	-0,076695
0,262500	0,1	-0,069808
0,264167	0,1	-0,050578
0,265833	0,1	-0,060679
0,267500	0,1	-0,084449
0,269167	0,1	-0,066767
0,270833	0,1	-0,070650
0,272500	0,1	-0,102632
0,274167	0,1	-0,086618
0,275833	0,1	-0,060976
0,277500	0,1	-0,041694
0,279167	0,1	-0,068750
0,280833	0,1	-0,099452
0,282500	0,1	-0,061094
0,284167	0,1	-0,088084
0,285833	0,1	-0,073190
0,287500	0,1	-0,120976
0,289167	0,1	-0,103703
0,290833	0,1	-0,092094
0,292500	0,1	-0,072686
0,294167	0,1	-0,093247
0,295833	0,1	-0,112806
0,297500	0,1	-0,097874
0,299167	0,1	-0,069458
0,300833	0,1	-0,063408
0,302500	0,1	-0,071001
0,304167	0,1	-0,036383
0,305833	0,1	-0,105158
0,307500	0,1	-0,064288
0,309167	0,1	-0,047411
0,310833	0,1	-0,082997
0,312500	0,1	-0,068823
0,314167	0,1	-0,058651
0,315833	0,1	-0,047611
0,317500	0,1	-0,080297
0,319167	0,1	-0,054655
0,320833	0,1	-0,088952
0,322500	0,1	-0,063539
0,324167	0,1	-0,040987
0,325833	0,1	-0,116654
0,327500	0,1	-0,042576
0,329167	0,1	-0,082100
0,330833	0,1	-0,065215
0,332500	0,1	-0,100310
0,334167	0,1	-0,079035
0,335833	0,1	-0,093146
0,337500	0,1	-0,023719
0,339167	0,1	-0,086221
0,340833	0,1	-0,078124
0,342500	0,1	-0,086284
0,344167	0,1	-0,075348
0,345833	0,1	-0,066464
0,347500	0,1	-0,092854
0,349167	0,1	-0,084129
0,350833	0,1	-0,066214
0,352500	0,1	-0,059775
0,354167	0,1	-0,073511
0,355833	0,1	-0,063827
0,357500	0,1	-0,083365
0,359167	0,1	-0,099166
0,360833	0,1	-0,073331
0,362500	0,1	-0,082850
0,364167	0,1	-0,059045
0,365833	0,1	-0,036254
0,367500	0,1	-0,070453
0,369167	0,1	-0,070789
0,370833	0,1	-0,085095
0,372500	0,1	-0,064762
0,374167	0,1	-0,041730
0,375833	0,1	-0,055655
0,377500	0,1	-0,077599
0,379167	0,1	-0,080367
0,380833	0,1	-0,092340
0,382500	0,1	-0,055123
0,384167	0,1	-0,039698
0,385833	0,1	-0,065307
0,387500	0,1	-0,082105
0,389167	0,1	-0,054947
0,390833	0,1	-0,085092
0,392500	0,1	-0,086097
0,394167	0,1	-0,089390
0,395833	0,1	-0,074426
0,397500	0,1	-0,043110
0,399167	0,1	-0,049889
0,400833	0,1	-0,037349
0,402500	0,1	-0,026860
0,404167	0,1	-0,057772
0,405833	0,1	-0,090026
0,407500	0,1	-0,064158
0,409167	0,1	-0,094682
0,410833	0,1	-0,058594
0,412500	0,1	-0,044429
0,414167	0,1	-0,085732
0,415833	0,1	-0,081921
0,417500	0,1	-0,077744
0,419167	0,1	-0,061455
0,420833	0,1	-0,040154
0,422500	0,1	-0,051594
0,424167	0,1	-0,047444
0,425833	0,1	-0,088851
0,427500	0,1	-0,063097
0,429167	0,1	-0,090178
0,430833	0,1	-0,044954
0,432500	0,1	-0,054496
0,434167	0,1	-0,072325
0,435833	0,1	-0,068595
0,437500	0,1	-0,080756
0,439167	0,1	-0,075939
0,440833	0,1	-0,100514
0,442500	0,1	-0,090830
0,444167	0,1	-0,036388
0,445833	0,1	-0,061860
0,447500	0,1	-0,083365
0,449167	0,1	-0,080089
0,450833	0,1	-0,047932
0,452500	0,1	-0,064753
0,454167	0,1	-0,057237
0,455833	0,1	-0,062383
0,457500	0,1	-0,094329
0,459167	0,1	-0,079121
0,460833	0,1	-0,078059
0,462500	0,1	-0,060394
0,464167	0,1	-0,078280
0,465833	0,1	-0,059170
0,467500	0,1	-0,029467
0,469167	0,1	-0,049028
0,470833	0,1	-0,064311
0,472500	0,1	-0,060253
0,474167	0,1	-0,051092
0,475833	0,1	-0,068109
0,477500	0,1	-0,029178
0,479167	0,1	-0,054718
0,480833	0,1	-0,097481
0,482500	0,1	-0,042156
0,484167	0,1	-0,063666
0,485833	0,1	-0,091239
0,487500	0,1	-0,086715
0,489167	0,1	-0,012841
0,490833	0,1	-0,064756
0,492500	0,1	-0,082710
0,494167	0,1	-0,043148
0,495833	0,1	-0,058708
0,497500	0,1	-0,060227
0,499167	0,1	-0,083656
0,500833	0,1	-0,037167
0,502500	0,1	-0,000368
0,504167	0,1	-0,036341
0,505833	0,1	-0,070390
0,507500	0,1	-0,067470
0,509167	0,1	-0,058134
0,510833	0,1	-0,063606
0,512500	0,1	-0,027601
0,514167	0,1	-0,049154
0,515833	0,1	-0,047834
0,517500	0,1	-0,038762
0,519167	0,1	-0,075286
0,520833	0,1	-0,014116
0,522500	0,1	-0,083997
0,524167	0,1	-0,076936
0,525833	0,1	-0,038870
0,527500	0,1	-0,064498
0,529167	0,1	-0,054536
0,530833	0,1	-0,099840
0,532500	0,1	-0,079414
0,534167	0,1	-0,084391
0,535833	0,1	-0,053444
0,537500	0,1	-0,050472
0,539167	0,1	-0,044944
0,540833	0,1	-0,042105
0,542500	0,1	-0,058834
0,544167	0,1	-0,038412
0,545833	0,1	-0,085807
0,547500	0,1	-0,055892
0,549167	0,1	-0,066925
0,550833	0,1	-0,051157
0,552500	0,1	-0,067339
0,554167	0,1	-0,084238
0,555833	0,1	-0,043946
0,557500	0,1	-0,044464
0,559167	0,1	-0,027758
0,560833	0,1	-0,070097
0,562500	0,1	-0,038641
0,564167	0,1	-0,074188
0,565833	0,1	-0,027213
0,567500	0,1	-0,075497
0,569167	0,1	-0,028511
0,570833	0,1	-0,066943
0,572500	0,1	-0,050525
0,574167	0,1	-0,062155
0,575833	0,1	-0,063899
0,577500	0,1	-0,072454
0,579167	0,1	-0,032624
0,580833	0,1	-0,063727
0,582500	0,1	-0,037352
0,584167	0,1	-0,054277
0,585833	0,1	-0,033816
0,587500	0,1	-0,085895
0,589167	0,1	-0,039263
0,590833	0,1	-0,038471
0,592500	0,1	-0,058745
0,594167	0,1	-0,033201
0,595833	0,1	-0,040763
0,597500	0,1	-0,029625
0,599167	0,1	-0,063500
0,600833	0,1	-0,050260
0,602500	0,1	-0,048225
0,604167	0,1	-0,055795
0,605833	0,1	-0,037793
0,607500	0,1	-0,022764
0,609167	0,1	-0,031895
0,610833	0,1	-0,058516
0,612500	0,1	-0,008684
0,614167	0,1	-0,027988
0,615833	0,1	-0,082298
0,617500	0,1	-0,047954
0,619167	0,1	-0,087059
0,620833	0,1	-0,055149
0,622500	0,1	-0,014184
0,624167	0,1	-0,032093
0,625833	0,1	-0,024639
0,627500	0,1	-0,075180
0,629167	0,1	-0,038996
0,630833	0,1	-0,061671
0,632500	0,1	-0,052468
0,634167	0,1	-0,022904
0,635833	0,1	-0,050338
0,637500	0,1	-0,044782
0,639167	0,1	-0,070429
0,640833	0,1	-0,024258
0,642500	0,1	-0,063472
0,644167	0,1	-0,022098
0,645833	0,1	-0,031551
0,647500	0,1	-0,059134
0,649167	0,1	-0,011902
0,650833	0,1	-0,060504
0,652500	0,1	-0,082230
0,654167	0,1	-0,034167
0,655833	0,1	-0,004627
0,657500	0,1	-0,017136
0,659167	0,1	-0,047194
0,660833	0,1	-0,039405
0,662500	0,1	-0,029336
0,664167	0,1	-0,053015
0,665833	0,1	0,007506
0,667500	0,1	-0,031835
0,669167	0,1	-0,049317
0,670833	0,1	-0,054533
0,672500	0,1	-0,043949
0,674167	0,1	-0,019820
0,675833	0,1	-0,013107
0,677500	0,1	-0,029646
0,679167	0,1	-0,014723
0,680833	0,1	-0,056936
0,682500	0,1	0,002747
0,684167	0,1	-0,016871
0,685833	0,1	-0,055966
0,687500	0,1	-0,012028
0,689167	0,1	-0,018580
0,690833	0,1	-0,044785
0,692500	0,1	0,006637
0,694167	0,1	-0,037525
0,695833	0,1	-0,016275
0,697500	0,1	0,012499
0,699167	0,1	-0,028616
0,700833	0,1	-0,028299
0,702500	0,1	-0,007136
0,704167	0,1	-0,021251
0,705833	0,1	-0,017774
0,707500	0,1	-0,001532
0,709167	0,1	-0,008544
0,710833	0,1	0,003174
0,712500	0,1	0,012639
0,714167	0,1	0,018979
0,715833	0,1	0,004759
0,717500	0,1	0,012695
0,719167	0,1	0,011900
0,720833	0,1	0,000062
0,722500	0,1	0,024053
0,724167	0,1	0,015184
0,725833	0,1	0,035548
0,727500	0,1	0,021967
0,729167	0,1	0,053735
0,730833	0,1	0,025713
0,732500	0,1	0,027884
0,734167	0,1	0,066092
0,735833	0,1	0,032061
0,737500	0,1	0,076808
0,739167	0,1	0,054328
0,740833	0,1	0,064265
0,742500	0,1	0,065712
0,744167	0,1	0,104626
0,745833	0,1	0,070516
0,747500	0,1	0,072891
0,749167	0,1	0,088631
0,750833	0,1	0,079879
0,752500	0,1	0,056350
0,754167	0,1	0,101853
0,755833	0,1	0,043966
0,757500	0,1	0,064900
0,759167	0,1	0,130277
0,760833	0,1	0,094918
0,762500	0,1	0,050400
0,764167	0,1	0,093420
0,765833	0,1	0,060379
0,767500	0,1	0,062718
0,769167	0,1	0,118847
0,770833	0,1	0,069524
0,772500	0,1	0,081167
0,774167	0,1	0,104145
0,775833	0,1	0,066691
0,777500	0,1	0,083125
0,779167	0,1	0,049244
0,780833	0,1	0,093131
0,782500	0,1	0,014130
0,784167	0,1	0,061037
0,785833	0,1	0,059628
0,787500	0,1	0,038197
0,789167	0,1	0,070989
0,790833	0,1	0,044763
0,792500	0,1	0,035458
0,794167	0,1	0,025992
0,795833	0,1	0,028763
0,797500	0,1	-0,002064
0,799167	0,1	0,040723
0,800833	0,1	0,036037
0,802500	0,1	0,033305
0,804167	0,1	0,015567
0,805833	0,1	0,023900
0,807500	0,1	0,059528
0,809167	0,1	0,027192
0,810833	0,1	0,014152
0,812500	0,1	0,017329
0,814167	0,1	0,023287
0,815833	0,1	-0,012852
0,817500	0,1	0,006809
0,819167	0,1	0,049706
0,820833	0,1	0,015834
0,822500	0,1	0,049389
0,824167	0,1	-0,026297
0,825833	0,1	-0,008994
0,827500	0,1	-0,036280
0,829167	0,1	0,007320
0,830833	0,1	-0,029778
0,832500	0,1	-0,031074
0,834167	0,1	-0,022645
0,835833	0,1	-0,011186
0,837500	0,1	0,018266
0,839167	0,1	0,027055
0,840833	0,1	0,009520
0,842500	0,1	-0,030519
0,844167	0,1	-0,022128
0,845833	0,1	-0,046832
0,847500	0,1	-0,017073
0,849167	0,1	-0,031777
0,850833	0,1	-0,040927
0,852500	0,1	-0,002914
0,854167	0,1	-0,029679
0,855833	0,1	0,010023
0,857500	0,1	-0,005314
0,859167	0,1	-0,005743
0,860833	0,1	0,012984
0,862500	0,1	-0,035758
0,864167	0,1	0,006096
0,865833	0,1	-0,032314
0,867500	0,1	-0,038153
0,869167	0,1	0,002552
0,870833	0,1	-0,016709
0,872500	0,1	-0,003171
0,874167	0,1	-0,034373
0,875833	0,1	0,018160
0,877500	0,1	0,006816
0,879167	0,1	-0,053232
0,880833	0,1	-0,023646
0,882500	0,1	-0,013206
0,884167	0,1	-0,023338
0,885833	0,1	-0,000627
0,887500	0,1	0,010927
0,889167	0,1	-0,013842
0,890833	0,1	-0,027498
0,892500	0,1	-0,013172
0,894167	0,1	-0,031222
0,895833	0,1	-0,034834
0,897500	0,1	-0,034128
0,899167	0,1	-0,012340
0,900833	0,1	-0,052393
0,902500	0,1	0,003065
0,904167	0,1	0,022420
0,905833	0,1	0,018174
0,907500	0,1	-0,046506
0,909167	0,1	0,036757
0,910833	0,1	-0,018124
0,912500	0,1	-0,014920
0,914167	0,1	-0,007387
0,915833	0,1	0,012213
0,917500	0,1	0,003915
0,919167	0,1	0,015468
0,920833	0,1	0,031298
0,922500	0,1	0,024132
0,924167	0,1	-0,007476
0,925833	0,1	0,047094
0,927500	0,1	-0,013227
0,929167	0,1	0,004777
0,930833	0,1	0,027081
0,932500	0,1	0,032588
0,934167	0,1	0,039223
0,935833	0,1	-0,007963
0,937500	0,1	0,032036
0,939167	0,1	-0,002317
0,940833	0,1	0,026373
0,942500	0,1	-0,012072
0,944167	0,1	0,016290
0,945833	0,1	0,036738
0,947500	0,1	0,024713
0,949167	0,1	0,047199
0,950833	0,1	0,023002
0,952500	0,1	0,003727
0,954167	0,1	0,001728
0,955833	0,1	-0,009865
0,957500	0,1	0,024702
0,959167	0,1	0,035296
0,960833	0,1	0,018240
0,962500	0,1	0,008710
0,964167	0,1	0,054919
0,965833	0,1	0,020311
0,967500	0,1	0,045233
0,969167	0,1	0,030436
0,970833	0,1	0,045950
0,972500	0,1	0,049426
0,974167	0,1	0,039864
0,975833	0,1	0,081188
0,977500	0,1	0,015253
0,979167	0,1	0,057977
0,980833	0,1	0,066679
0,982500	0,1	0,039288
0,984167	0,1	0,073916
0,985833	0,1	0,041710
0,987500	0,1	0,038484
0,989167	0,1	0,062713
0,990833	0,1	0,077528
0,992500	0,1	0,054158
0,994167	0,1	0,069253
0,995833	0,1	0,093907
0,997500	0,1	0,053390
0,999167	0,1	0,074077
1,000833	0,1	0,075752
1,002500	0,1	0,083899
1,004167	0,1	0,110547
1,005833	0,1	0,126230
1,007500	0,1	0,131477
1,009167	0,1	0,114072
1,010833	0,1	0,131154
1,012500	0,1	0,160966
1,014167	0,1	0,154182
1,015833	0,1	0,185950
1,017500	0,1	0,139732
1,019167	0,1	0,184821
1,020833	0,1	0,182867
1,022500	0,1	0,160752
1,024167	0,1	0,188753
1,025833	0,1	0,161270
1,027500	0,1	0,170241
1,029167	0,1	0,208392
1,030833	0,1	0,221760
1,032500	0,1	0,213522
1,034167	0,1	0,237506
1,035833	0,1	0,243916
1,037500	0,1	0,205479
1,039167	0,1	0,243041
1,040833	0,1	0,255701
1,042500	0,1	0,263881
1,044167	0,1	0,264883
1,045833	0,1	0,208930
1,047500	0,1	0,249641
1,049167	0,1	0,240476
1,050833	0,1	0,185262
1,052500	0,1	0,283250
1,054167	0,1	0,210382
1,055833	0,1	0,248130
1,057500	0,1	0,261368
1,059167	0,1	0,276052
1,060833	0,1	0,256418
1,062500	0,1	0,311793
1,064167	0,1	0,284824
1,065833	0,1	0,320398
1,067500	0,1	0,371574
1,069167	0,1	0,374714
1,070833	0,1	0,375647
1,072500	0,1	0,441313
1,074167	0,1	0,463046
1,075833	0,1	0,510977
1,077500	0,1	0,578974
1,079167	0,1	0,543615
1,080833	0,1	0,636046
1,082500	0,1	0,665607
1,084167	0,1	0,657880
1,085833	0,1	0,654277
1,087500	0,1	0,607561
1,089167	0,1	0,567464
1,090833	0,1	0,562812
1,092500	0,1	0,496339
1,094167	0,1	0,359958
1,095833	0,1	0,200357
1,097500	0,1	0,081609
1,099167	0,1	-0,164169
1,100833	0,1	-0,306789
1,102500	0,1	-0,563923
1,104167	0,1	-0,754488
1,105833	0,1	-0,972673
1,107500	0,1	-1,177208
1,109167	0,1	-1,410749
1,110833	0,1	-1,671977
1,112500	0,1	-1,930148
1,114167	0,1	-2,147776
1,115833	0,1	-2,376196
1,117500	0,1	-2,562136
1,119167	0,1	-2,734086
1,120833	0,1	-2,865958
1,122500	0,1	-3,044365
1,124167	0,1	-3,233172
1,125833	0,1	-3,309616
1,127500	0,1	-3,422618
1,129167	0,1	-3,441054
1,130833	0,1	-3,489241
1,132500	0,1	-3,528480
1,134167	0,1	-3,546114
1,135833	0,1	-3,577793
1,137500	0,1	-3,560967
1,139167	0,1	-3,526191
1,140833	0,1	-3,443288
1,142500	0,1	-3,404031
1,144167	0,1	-3,297278
1,145833	0,1	-3,199625
1,147500	0,1	-3,166771
1,149167	0,1	-2,993405
1,150833	0,1	-2,945773
1,152500	0,1	-2,792931
1,154167	0,1	-2,673817
1,155833	0,1	-2,549224
1,157500	0,1	-2,425091
1,159167	0,1	-2,320230
1,160833	0,1	-2,177624
1,162500	0,1	-2,084409
1,164167	0,1	-1,959663
1,165833	0,1	-1,787067
1,167500	0,1	-1,715196
1,169167	0,1	-1,537224
1,170833	0,1	-1,454574
1,172500	0,1	-1,384870
1,174167	0,1	-1,222114
1,175833	0,1	-1,095112
1,177500	0,1	-1,039171
1,179167	0,1	-0,927664
1,180833	0,1	-0,818239
1,182500	0,1	-0,738720
1,184167	0,1	-0,635605
1,185833	0,1	-0,551514
1,187500	0,1	-0,514857
1,189167	0,1	-0,403758
1,190833	0,1	-0,358353
1,192500	0,1	-0,326544
1,194167	0,1	-0,223468
1,195833	0,1	-0,182025
1,197500	0,1	-0,114340
1,199167	0,1	-0,045276
1,200833	0,1	-0,031683
1,202500	0,1	0,000014
1,204167	0,1	0,087163
1,205833	0,1	0,101924
1,207500	0,1	0,160283
1,209167	0,1	0,231341
1,210833	0,1	0,262881
1,212500	0,1	0,298048
1,214167	0,1	0,263732
1,215833	0,1	0,291997
1,217500	0,1	0,331642
1,219167	0,1	0,376123
1,220833	0,1	0,396680
1,222500	0,1	0,430787
1,224167	0,1	0,423140
1,225833	0,1	0,464079
1,227500	0,1	0,478448
1,229167	0,1	0,470207
1,230833	0,1	0,457648
1,232500	0,1	0,492883
1,234167	0,1	0,489222
1,235833	0,1	0,514481
1,237500	0,1	0,530332
1,239167	0,1	0,550203
1,240833	0,1	0,562625
1,242500	0,1	0,574763
1,244167	0,1	0,561432
1,245833	0,1	0,602786
1,247500	0,1	0,574210
1,249167	0,1	0,622214
1,250833	0,1	0,613955
1,252500	0,1	0,644375
1,254167	0,1	0,602492
1,255833	0,1	0,637507
1,257500	0,1	0,639936
1,259167	0,1	0,632872
1,260833	0,1	0,621889
1,262500	0,1	0,633579
1,264167	0,1	0,615710
1,265833	0,1	0,645020
1,267500	0,1	0,636825
1,269167	0,1	0,630648
1,270833	0,1	0,696632
1,272500	0,1	0,643662
1,274167	0,1	0,605732
1,275833	0,1	0,637995
1,277500	0,1	0,652585
1,279167	0,1	0,624184
1,280833	0,1	0,667447
1,282500	0,1	0,646034
1,284167	0,1	0,628716
1,285833	0,1	0,640935
1,287500	0,1	0,617512
1,289167	0,1	0,618862
1,290833	0,1	0,611906
1,292500	0,1	0,610284
1,294167	0,1	0,637219
1,295833	0,1	0,659893
1,297500	0,1	0,635610
1,299167	0,1	0,643982
1,300833	0,1	0,623693
1,302500	0,1	0,622756
1,304167	0,1	0,604199
1,305833	0,1	0,625285
1,307500	0,1	0,583023
1,309167	0,1	0,576413
1,310833	0,1	0,601742
1,312500	0,1	0,586530
1,314167	0,1	0,622324
1,315833	0,1	0,582064
1,317500	0,1	0,547482
1,319167	0,1	0,569184
1,320833	0,1	0,579590
1,322500	0,1	0,544994
1,324167	0,1	0,523987
1,325833	0,1	0,568574
1,327500	0,1	0,580144
1,329167	0,1	0,603164
1,330833	0,1	0,524894
1,332500	0,1	0,565577
1,334167	0,1	0,575672
1,335833	0,1	0,536105
1,337500	0,1	0,519211
1,339167	0,1	0,512383
1,340833	0,1	0,546872
1,342500	0,1	0,509168
1,344167	0,1	0,511223
1,345833	0,1	0,527938
1,347500	0,1	0,533740
1,349167	0,1	0,527628
1,350833	0,1	0,532030
1,352500	0,1	0,528691
1,354167	0,1	0,504588
1,355833	0,1	0,487437
1,357500	0,1	0,545683
1,359167	0,1	0,501727
1,360833	0,1	0,501716
1,362500	0,1	0,519362
1,364167	0,1	0,489123
1,365833	0,1	0,476034
1,367500	0,1	0,498514
1,369167	0,1	0,506316
1,370833	0,1	0,487991
1,372500	0,1	0,498911
1,374167	0,1	0,469081
1,375833	0,1	0,479225
1,377500	0,1	0,486220
1,379167	0,1	0,472393
1,380833	0,1	0,487889
1,382500	0,1	0,456037
1,384167	0,1	0,439989
1,385833	0,1	0,506659
1,387500	0,1	0,479456
1,389167	0,1	0,473007
1,390833	0,1	0,473427
1,392500	0,1	0,471586
1,394167	0,1	0,441952
1,395833	0,1	0,455119
1,397500	0,1	0,478893
1,399167	0,1	0,491296
1,400833	0,1	0,471787
1,402500	0,1	0,462158
1,404167	0,1	0,446105
1,405833	0,1	0,432966
1,407500	0,1	0,471576
1,409167	0,1	0,436602
1,410833	0,1	0,439367
1,412500	0,1	0,452356
1,414167	0,1	0,427000
1,415833	0,1	0,417071
1,417500	0,1	0,454954
1,419167	0,1	0,431837
1,420833	0,1	0,405581
1,422500	0,1	0,465193
1,424167	0,1	0,462958
1,425833	0,1	0,450772
1,427500	0,1	0,447679
1,429167	0,1	0,460198
1,430833	0,1	0,461893
1,432500	0,1	0,438637
1,434167	0,1	0,458235
1,435833	0,1	0,463404
1,437500	0,1	0,439598
1,439167	0,1	0,447323
1,440833	0,1	0,448427
1,442500	0,1	0,464625
1,444167	0,1	0,434351
1,445833	0,1	0,446557
1,447500	0,1	0,440723
1,449167	0,1	0,460364
1,450833	0,1	0,405653
1,452500	0,1	0,459843
1,454167	0,1	0,456504
1,455833	0,1	0,467810
1,457500	0,1	0,445816
1,459167	0,1	0,445046
1,460833	0,1	0,455764
1,462500	0,1	0,462235
1,464167	0,1	0,441344
1,465833	0,1	0,415795
1,467500	0,1	0,432053
1,469167	0,1	0,473956
1,470833	0,1	0,434856
1,472500	0,1	0,446808
1,474167	0,1	0,440752
1,475833	0,1	0,451767
1,477500	0,1	0,417991
1,479167	0,1	0,481712
1,480833	0,1	0,485026
1,482500	0,1	0,475770
1,484167	0,1	0,452970
1,485833	0,1	0,505689
1,487500	0,1	0,486608
1,489167	0,1	0,506407
1,490833	0,1	0,482808
1,492500	0,1	0,490337
1,494167	0,1	0,492009
1,495833	0,1	0,508563
1,497500	0,1	0,510344
1,499167	0,1	0,508030
1,500833	0,1	0,497261
1,502500	0,1	0,516139
1,504167	0,1	0,496919
1,505833	0,1	0,457168
1,507500	0,1	0,529279
1,509167	0,1	0,505326
1,510833	0,1	0,478102
1,512500	0,1	0,521303
1,514167	0,1	0,545403
1,515833	0,1	0,515967
1,517500	0,1	0,502364
1,519167	0,1	0,519584
1,520833	0,1	0,521469
1,522500	0,1	0,543509
1,524167	0,1	0,517965
1,525833	0,1	0,538248
1,527500	0,1	0,531481
1,529167	0,1	0,559869
1,530833	0,1	0,521756
1,532500	0,1	0,527269
1,534167	0,1	0,544364
1,535833	0,1	0,519188
1,537500	0,1	0,521957
1,539167	0,1	0,549608
1,540833	0,1	0,549827
1,542500	0,1	0,524632
1,544167	0,1	0,546297
1,545833	0,1	0,554693
1,547500	0,1	0,526081
1,549167	0,1	0,556595
1,550833	0,1	0,569253
1,552500	0,1	0,582944
1,554167	0,1	0,578618
1,555833	0,1	0,537723
1,557500	0,1	0,534900
1,559167	0,1	0,567140
1,560833	0,1	0,548636
1,562500	0,1	0,566829
1,564167	0,1	0,576079
1,565833	0,1	0,573279
1,567500	0,1	0,579171
1,569167	0,1	0,552792
1,570833	0,1	0,551275
1,572500	0,1	0,577140
1,574167	0,1	0,557857
1,575833	0,1	0,548501
1,577500	0,1	0,592159
1,579167	0,1	0,584899
1,580833	0,1	0,626101
1,582500	0,1	0,619756
1,584167	0,1	0,634264
1,585833	0,1	0,602136
1,587500	0,1	0,572079
1,589167	0,1	0,628989
1,590833	0,1	0,593559
1,592500	0,1	0,607992
1,594167	0,1	0,652998
1,595833	0,1	0,636808
1,597500	0,1	0,625337
1,599167	0,1	0,593086
1,600833	0,1	0,634703
1,602500	0,1	0,594360
1,604167	0,1	0,643593
1,605833	0,1	0,650183
1,607500	0,1	0,640561
1,609167	0,1	0,682121
1,610833	0,1	0,674863
1,612500	0,1	0,641433
1,614167	0,1	0,653272
1,615833	0,1	0,649433
1,617500	0,1	0,680634
1,619167	0,1	0,684197
1,620833	0,1	0,688843
1,622500	0,1	0,627415
1,624167	0,1	0,687761
1,625833	0,1	0,702135
1,627500	0,1	0,687692
1,629167	0,1	0,699223
1,630833	0,1	0,685134
1,632500	0,1	0,709113
1,634167	0,1	0,749997
1,635833	0,1	0,705551
1,637500	0,1	0,744305
1,639167	0,1	0,742314
1,640833	0,1	0,755473
1,642500	0,1	0,770059
1,644167	0,1	0,751391
1,645833	0,1	0,733270
1,647500	0,1	0,791998
1,649167	0,1	0,810595
1,650833	0,1	0,784389
1,652500	0,1	0,852283
1,654167	0,1	0,853472
1,655833	0,1	0,872508
1,657500	0,1	0,847213
1,659167	0,1	0,893412
1,660833	0,1	0,903403
1,662500	0,1	0,941554
1,664167	0,1	0,985864
1,665833	0,1	1,012780
1,667500	0,1	1,022666
1,669167	0,1	1,059285
1,670833	0,1	1,133586
1,672500	0,1	1,119904
1,674167	0,1	1,202012
1,675833	0,1	1,218001
1,677500	0,1	1,278312
1,679167	0,1	1,356341
1,680833	0,1	1,411979
1,682500	0,1	1,451577
1,684167	0,1	1,486604
1,685833	0,1	1,589368
1,687500	0,1	1,645592
1,689167	0,1	1,693265
1,690833	0,1	1,734194
1,692500	0,1	1,854107
1,694167	0,1	1,913097
1,695833	0,1	2,001100
1,697500	0,1	2,069081
1,699167	0,1	2,191890
1,700833	0,1	2,246546
1,702500	0,1	2,309025
1,704167	0,1	2,427503
1,705833	0,1	2,584400
1,707500	0,1	2,670187
1,709167	0,1	2,747570
1,710833	0,1	2,879152
1,712500	0,1	3,001200
1,714167	0,1	3,093981
1,715833	0,1	3,201635
1,717500	0,1	3,324489
1,719167	0,1	3,414489
1,720833	0,1	3,536750
1,722500	0,1	3,619550
1,724167	0,1	3,769058
1,725833	0,1	3,898894
1,727500	0,1	3,986879
1,729167	0,1	4,105529
1,730833	0,1	4,196798
1,732500	0,1	4,329172
1,734167	0,1	4,435669
1,735833	0,1	4,543851
1,737500	0,1	4,706996
1,739167	0,1	4,784345
1,740833	0,1	4,924732
1,742500	0,1	4,988677
1,744167	0,1	5,127645
1,745833	0,1	5,168053
1,747500	0,1	5,241552
1,749167	0,1	5,381476
1,750833	0,1	5,462098
1,752500	0,1	5,521707
1,754167	0,1	5,588529
1,755833	0,1	5,664144
1,757500	0,1	5,713391
1,759167	0,1	5,827211
1,760833	0,1	5,822621
1,762500	0,1	5,907803
1,764167	0,1	5,985954
1,765833	0,1	6,010385
1,767500	0,1	6,031916
1,769167	0,1	6,101187
1,770833	0,1	6,112951
1,772500	0,1	6,138325
1,774167	0,1	6,140851
1,775833	0,1	6,189806
1,777500	0,1	6,173393
1,779167	0,1	6,163424
1,780833	0,1	6,189820
1,782500	0,1	6,198010
1,784167	0,1	6,194571
1,785833	0,1	6,193926
1,787500	0,1	6,211922
1,789167	0,1	6,150106
1,790833	0,1	6,091352
1,792500	0,1	6,135338
1,794167	0,1	6,078196
1,795833	0,1	6,014413
1,797500	0,1	5,991720
1,799167	0,1	5,964838
1,800833	0,1	5,927138
1,802500	0,1	5,901507
1,804167	0,1	5,831591
1,805833	0,1	5,751829
1,807500	0,1	5,730986
1,809167	0,1	5,660131
1,810833	0,1	5,640780
1,812500	0,1	5,590030
1,814167	0,1	5,529154
1,815833	0,1	5,447779
1,817500	0,1	5,346849
1,819167	0,1	5,348208
1,820833	0,1	5,250908
1,822500	0,1	5,183886
1,824167	0,1	5,100148
1,825833	0,1	5,033261
1,827500	0,1	4,966878
1,829167	0,1	4,922883
1,830833	0,1	4,860331
1,832500	0,1	4,767692
1,834167	0,1	4,742011
1,835833	0,1	4,669827
1,837500	0,1	4,560363
1,839167	0,1	4,514082
1,840833	0,1	4,458203
1,842500	0,1	4,384876
1,844167	0,1	4,310720
1,845833	0,1	4,242626
1,847500	0,1	4,173850
1,849167	0,1	4,116735
1,850833	0,1	4,094556
1,852500	0,1	4,025856
1,854167	0,1	3,969903
1,855833	0,1	3,912702
1,857500	0,1	3,830709
1,859167	0,1	3,797096
1,860833	0,1	3,738222
1,862500	0,1	3,684050
1,864167	0,1	3,583770
1,865833	0,1	3,561891
1,867500	0,1	3,539143
1,869167	0,1	3,435895
1,870833	0,1	3,393710
1,872500	0,1	3,375098
1,874167	0,1	3,308659
1,875833	0,1	3,259103
1,877500	0,1	3,233909
1,879167	0,1	3,167620
1,880833	0,1	3,116083
1,882500	0,1	3,098807
1,884167	0,1	3,118818
1,885833	0,1	3,033066
1,887500	0,1	3,014099
1,889167	0,1	2,969197
1,890833	0,1	2,925106
1,892500	0,1	2,891064
1,894167	0,1	2,869183
1,895833	0,1	2,851021
1,897500	0,1	2,806684
1,899167	0,1	2,807608
1,900833	0,1	2,778882
1,902500	0,1	2,694569
1,904167	0,1	2,684624
1,905833	0,1	2,698507
1,907500	0,1	2,654959
1,909167	0,1	2,678816
1,910833	0,1	2,657983
1,912500	0,1	2,608124
1,914167	0,1	2,575470
1,915833	0,1	2,553513
1,917500	0,1	2,583921
1,919167	0,1	2,563063
1,920833	0,1	2,502498
1,922500	0,1	2,494855
1,924167	0,1	2,485393
1,925833	0,1	2,464815
1,927500	0,1	2,479994
1,929167	0,1	2,484644
1,930833	0,1	2,407239
1,932500	0,1	2,440544
1,934167	0,1	2,409594
1,935833	0,1	2,388944
1,937500	0,1	2,404809
1,939167	0,1	2,401153
1,940833	0,1	2,368927
1,942500	0,1	2,386104
1,944167	0,1	2,327828
1,945833	0,1	2,375473
1,947500	0,1	2,342847
1,949167	0,1	2,355484
1,950833	0,1	2,332195
1,952500	0,1	2,345063
1,954167	0,1	2,329808
1,955833	0,1	2,305753
1,957500	0,1	2,331684
1,959167	0,1	2,309535
1,960833	0,1	2,316747
1,962500	0,1	2,284891
1,964167	0,1	2,312621
1,965833	0,1	2,300342
1,967500	0,1	2,319749
1,969167	0,1	2,308174
1,970833	0,1	2,281016
1,972500	0,1	2,309385
1,974167	0,1	2,307163
1,975833	0,1	2,296754
1,977500	0,1	2,335054
1,979167	0,1	2,297907
1,980833	0,1	2,297318
1,982500	0,1	2,327290
1,984167	0,1	2,330469
1,985833	0,1	2,312066
1,987500	0,1	2,328088
1,989167	0,1	2,346560
1,990833	0,1	2,303153
1,992500	0,1	2,311043
1,994167	0,1	2,346344
1,995833	0,1	2,384029
1,997500	0,1	2,355927
1,999167	0,1	2,344857
2,000833	0,1	2,353200
2,002500	0,1	2,349302
2,004167	0,1	2,369444
2,005833	0,1	2,322993
2,007500	0,1	2,373374
2,009167	0,1	2,381807
2,010833	0,1	2,351759
2,012500	0,1	2,396833
2,014167	0,1	2,406191
2,015833	0,1	2,399816
2,017500	0,1	2,384432
2,019167	0,1	2,432931
2,020833	0,1	2,406995
2,022500	0,1	2,445297
2,024167	0,1	2,445380
2,025833	0,1	2,420291
2,027500	0,1	2,464566
2,029167	0,1	2,453883
2,030833	0,1	2,434688
2,032500	0,1	2,472421
2,034167	0,1	2,483124
2,035833	0,1	2,486037
2,037500	0,1	2,470366
2,039167	0,1	2,487464
2,040833	0,1	2,524550
2,042500	0,1	2,545583
2,044167	0,1	2,496981
2,045833	0,1	2,519560
2,047500	0,1	2,526948
2,049167	0,1	2,513158
2,050833	0,1	2,562350
2,052500	0,1	2,539780
2,054167	0,1	2,569688
2,055833	0,1	2,554634
2,057500	0,1	2,614649
2,059167	0,1	2,567838
2,060833	0,1	2,589838
2,062500	0,1	2,583582
2,064167	0,1	2,606933
2,065833	0,1	2,635229
2,067500	0,1	2,666825
2,069167	0,1	2,661142
2,070833	0,1	2,650719
2,072500	0,1	2,713134
2,074167	0,1	2,711055
2,075833	0,1	2,694175
2,077500	0,1	2,710947
2,079167	0,1	2,715620
2,080833	0,1	2,706916
2,082500	0,1	2,692969
2,084167	0,1	2,736741
2,085833	0,1	2,714119
2,087500	0,1	2,732440
2,089167	0,1	2,769241
2,090833	0,1	2,786301
2,092500	0,1	2,777446
2,094167	0,1	2,778455
2,095833	0,1	2,776016
2,097500	0,1	2,803334
2,099167	0,1	2,839574
2,100833	0,1	2,842898
2,102500	0,1	2,847489
2,104167	0,1	2,832935
2,105833	0,1	2,867263
2,107500	0,1	2,852486
2,109167	0,1	2,901336
2,110833	0,1	2,874368
2,112500	0,1	2,931791
2,114167	0,1	2,949222
2,115833	0,1	2,959462
2,117500	0,1	2,961025
2,119167	0,1	2,949724
2,120833	0,1	2,933963
2,122500	0,1	2,993417
2,124167	0,1	2,966217
2,125833	0,1	2,967353
2,127500	0,1	3,014181
2,129167	0,1	2,968910
2,130833	0,1	3,006823
2,132500	0,1	3,049480
2,134167	0,1	3,049921
2,135833	0,1	3,087982
2,137500	0,1	3,051072
2,139167	0,1	3,059512
2,140833	0,1	3,077174
2,142500	0,1	3,094231
2,144167	0,1	3,126543
2,145833	0,1	3,130569
2,147500	0,1	3,121186
2,149167	0,1	3,130878
2,150833	0,1	3,161762
2,152500	0,1	3,128894
2,154167	0,1	3,194123
2,155833	0,1	3,169427
2,157500	0,1	3,163145
2,159167	0,1	3,174735
2,160833	0,1	3,219419
2,162500	0,1	3,245310
2,164167	0,1	3,214377
2,165833	0,1	3,216861
2,167500	0,1	3,248371
2,169167	0,1	3,233361
2,170833	0,1	3,218757
2,172500	0,1	3,255684
2,174167	0,1	3,234297
2,175833	0,1	3,268500
2,177500	0,1	3,309334
2,179167	0,1	3,272823
2,180833	0,1	3,282720
2,182500	0,1	3,288558
2,184167	0,1	3,328920
2,185833	0,1	3,310929
2,187500	0,1	3,350718
2,189167	0,1	3,372955
2,190833	0,1	3,340535
2,192500	0,1	3,366546
2,194167	0,1	3,343470
2,195833	0,1	3,394465
2,197500	0,1	3,393228
2,199167	0,1	3,366568
2,200833	0,1	3,411067
2,202500	0,1	3,430725
2,204167	0,1	3,416665
2,205833	0,1	3,447814
2,207500	0,1	3,433042
2,209167	0,1	3,436095
2,210833	0,1	3,466674
2,212500	0,1	3,465480
2,214167	0,1	3,422256
2,215833	0,1	3,452072
2,217500	0,1	3,491030
2,219167	0,1	3,468572
2,220833	0,1	3,528503
2,222500	0,1	3,492141
2,224167	0,1	3,544444
2,225833	0,1	3,530421
2,227500	0,1	3,508232
2,229167	0,1	3,554180
2,230833	0,1	3,564493
2,232500	0,1	3,559702
2,234167	0,1	3,562341
2,235833	0,1	3,550808
2,237500	0,1	3,510579
2,239167	0,1	3,550432
2,240833	0,1	3,599040
2,242500	0,1	3,605652
2,244167	0,1	3,577151
2,245833	0,1	3,618399
2,247500	0,1	3,629634
2,249167	0,1	3,600866
2,250833	0,1	3,592074
2,252500	0,1	3,646465
2,254167	0,1	3,664036
2,255833	0,1	3,677303
2,257500	0,1	3,654102
2,259167	0,1	3,670038
2,260833	0,1	3,671340
2,262500	0,1	3,681245
2,264167	0,1	3,679733
2,265833	0,1	3,708096
2,267500	0,1	3,728232
2,269167	0,1	3,732575
2,270833	0,1	3,689517
2,272500	0,1	3,716330
2,274167	0,1	3,744488
2,275833	0,1	3,725965
2,277500	0,1	3,760076
2,279167	0,1	3,768516
2,280833	0,1	3,743290
2,282500	0,1	3,739950
2,284167	0,1	3,812902
2,285833	0,1	3,774451
2,287500	0,1	3,791654
2,289167	0,1	3,783621
2,290833	0,1	3,812338
2,292500	0,1	3,830733
2,294167	0,1	3,796045
2,295833	0,1	3,806462
2,297500	0,1	3,817421
2,299167	0,1	3,830852
2,300833	0,1	3,835847
2,302500	0,1	3,870869
2,304167	0,1	3,839954
2,305833	0,1	3,849766
2,307500	0,1	3,863730
2,309167	0,1	3,866535
2,310833	0,1	3,876033
2,312500	0,1	3,875585
2,314167	0,1	3,856106
2,315833	0,1	3,871970
2,317500	0,1	3,933661
2,319167	0,1	3,915576
2,320833	0,1	3,915491
2,322500	0,1	3,870847
2,324167	0,1	3,921893
2,325833	0,1	3,930021
2,327500	0,1	3,945403
2,329167	0,1	3,939929
2,330833	0,1	3,955108
2,332500	0,1	3,968788
2,334167	0,1	3,955926
2,335833	0,1	3,970818
2,337500	0,1	3,976829
2,339167	0,1	3,954749
2,340833	0,1	3,987947
2,342500	0,1	3,968959
2,344167	0,1	3,961405
2,345833	0,1	3,984338
2,347500	0,1	3,967782
2,349167	0,1	4,001670
2,350833	0,1	3,983737
2,352500	0,1	3,986087
2,354167	0,1	4,050754
2,355833	0,1	4,006604
2,357500	0,1	4,032735
2,359167	0,1	4,026979
2,360833	0,1	4,059004
2,362500	0,1	4,015616
2,364167	0,1	4,057178
2,365833	0,1	4,030556
2,367500	0,1	4,069966
2,369167	0,1	4,034984
2,370833	0,1	4,051823
2,372500	0,1	4,061489
2,374167	0,1	4,063766
2,375833	0,1	4,068559
2,377500	0,1	4,044566
2,379167	0,1	4,073217
2,380833	0,1	4,088488
2,382500	0,1	4,101528
2,384167	0,1	4,122766
2,385833	0,1	4,082004
2,387500	0,1	4,123859
2,389167	0,1	4,090011
2,390833	0,1	4,102259
2,392500	0,1	4,135318
2,394167	0,1	4,087779
2,395833	0,1	4,105589
2,397500	0,1	4,124515
2,399167	0,1	4,156233
2,400833	0,1	4,136461
2,402500	0,1	4,137558
2,404167	0,1	4,142340
2,405833	0,1	4,144700
2,407500	0,1	4,140766
2,409167	0,1	4,151242
2,410833	0,1	4,157010
2,412500	0,1	4,174508
2,414167	0,1	4,168501
2,415833	0,1	4,202286
2,417500	0,1	4,195969
2,419167	0,1	4,190119
2,420833	0,1	4,161650
2,422500	0,1	4,232871
2,424167	0,1	4,164705
2,425833	0,1	4,213907
2,427500	0,1	4,216803
2,429167	0,1	4,169653
2,430833	0,1	4,188688
2,432500	0,1	4,236812
2,434167	0,1	4,160847
2,435833	0,1	4,194330
2,437500	0,1	4,206402
2,439167	0,1	4,178583
2,440833	0,1	4,217930
2,442500	0,1	4,219568
2,444167	0,1	4,212091
2,445833	0,1	4,242831
2,447500	0,1	4,189966
2,449167	0,1	4,221217
2,450833	0,1	4,226561
2,452500	0,1	4,230332
2,454167	0,1	4,224120
2,455833	0,1	4,210316
2,457500	0,1	4,233733
2,459167	0,1	4,226920
2,460833	0,1	4,239870
2,462500	0,1	4,264860
2,464167	0,1	4,266403
2,465833	0,1	4,243047
2,467500	0,1	4,270830
2,469167	0,1	4,222874
2,470833	0,1	4,272857
2,472500	0,1	4,217923
2,474167	0,1	4,227933
2,475833	0,1	4,257179
2,477500	0,1	4,233956
2,479167	0,1	4,302827
2,480833	0,1	4,287787
2,482500	0,1	4,287242
2,484167	0,1	4,278226
2,485833	0,1	4,299907
2,487500	0,1	4,269544
2,489167	0,1	4,270516
2,490833	0,1	4,292933
2,492500	0,1	4,284133
2,494167	0,1	4,303418
2,495833	0,1	4,358704
2,497500	0,1	4,271398
2,499167	0,1	4,313045
2,500833	0,1	4,246837
2,502500	0,1	4,295929
2,504167	0,1	4,281193
2,505833	0,1	4,309384
2,507500	0,1	4,319388
2,509167	0,1	4,309181
2,510833	0,1	4,321503
2,512500	0,1	4,260166
2,514167	0,1	4,312251
2,515833	0,1	4,311626
2,517500	0,1	4,278773
2,519167	0,1	4,310683
2,520833	0,1	4,349026
2,522500	0,1	4,292621
2,524167	0,1	4,270759
2,525833	0,1	4,327013
2,527500	0,1	4,306393
2,529167	0,1	4,330556
2,530833	0,1	4,297779
2,532500	0,1	4,293342
2,534167	0,1	4,286970
2,535833	0,1	4,340148
2,537500	0,1	4,307898
2,539167	0,1	4,301343
2,540833	0,1	4,311139
2,542500	0,1	4,276647
2,544167	0,1	4,347117
2,545833	0,1	4,259522
2,547500	0,1	4,313609
2,549167	0,1	4,294078
2,550833	0,1	4,263703
2,552500	0,1	4,269298
2,554167	0,1	4,318529
2,555833	0,1	4,296879
2,557500	0,1	4,316656
2,559167	0,1	4,288312
2,560833	0,1	4,304305
2,562500	0,1	4,339453
2,564167	0,1	4,286000
2,565833	0,1	4,279736
2,567500	0,1	4,305686
2,569167	0,1	4,307759
2,570833	0,1	4,307642
2,572500	0,1	4,255458
2,574167	0,1	4,306578
2,575833	0,1	4,321681
2,577500	0,1	4,299929
2,579167	0,1	4,269956
2,580833	0,1	4,345318
2,582500	0,1	4,296885
2,584167	0,1	4,288105
2,585833	0,1	4,278061
2,587500	0,1	4,288833
2,589167	0,1	4,281841
2,590833	0,1	4,294638
2,592500	0,1	4,293706
2,594167	0,1	4,294558
2,595833	0,1	4,276478
2,597500	0,1	4,258288
2,599167	0,1	4,249195
2,600833	0,1	4,256369
2,602500	0,1	4,245900
2,604167	0,1	4,230136
2,605833	0,1	4,265463
2,607500	0,1	4,249710
2,609167	0,1	4,276361
2,610833	0,1	4,284840
2,612500	0,1	4,302343
2,614167	0,1	4,258211
2,615833	0,1	4,220995
2,617500	0,1	4,209948
2,619167	0,1	4,210907
2,620833	0,1	4,254648
2,622500	0,1	4,228501
2,624167	0,1	4,236219
2,625833	0,1	4,231552
2,627500	0,1	4,226637
2,629167	0,1	4,213886
2,630833	0,1	4,192640
2,632500	0,1	4,237263
2,634167	0,1	4,246086
2,635833	0,1	4,167921
2,637500	0,1	4,204153
2,639167	0,1	4,190653
2,640833	0,1	4,259192
2,642500	0,1	4,187738
2,644167	0,1	4,176593
2,645833	0,1	4,146828
2,647500	0,1	4,198585
2,649167	0,1	4,203272
2,650833	0,1	4,191862
2,652500	0,1	4,179879
2,654167	0,1	4,128676
2,655833	0,1	4,146610
2,657500	0,1	4,123754
2,659167	0,1	4,178563
2,660833	0,1	4,146376
2,662500	0,1	4,120505
2,664167	0,1	4,146356
2,665833	0,1	4,165291
2,667500	0,1	4,124490
2,669167	0,1	4,177952
2,670833	0,1	4,129080
2,672500	0,1	4,106816
2,674167	0,1	4,123860
2,675833	0,1	4,128618
2,677500	0,1	4,084325
2,679167	0,1	4,122194
2,680833	0,1	4,091465
2,682500	0,1	4,057115
2,684167	0,1	4,102938
2,685833	0,1	4,108065
2,687500	0,1	4,104091
2,689167	0,1	4,076364
2,690833	0,1	4,073065
2,692500	0,1	4,100262
2,694167	0,1	4,102054
2,695833	0,1	4,096089
2,697500	0,1	4,019644
2,699167	0,1	4,084866
2,700833	0,1	4,031251
2,702500	0,1	4,037084
2,704167	0,1	4,040371
2,705833	0,1	4,031527
2,707500	0,1	3,988251
2,709167	0,1	4,021159
2,710833	0,1	4,029735
2,712500	0,1	4,021212
2,714167	0,1	3,998923
2,715833	0,1	3,985564
2,717500	0,1	3,986129
2,719167	0,1	4,014949
2,720833	0,1	3,993199
2,722500	0,1	3,994208
2,724167	0,1	3,997822
2,725833	0,1	3,974442
2,727500	0,1	3,963558
2,729167	0,1	3,964407
2,730833	0,1	3,987829
2,732500	0,1	3,947610
2,734167	0,1	3,974632
2,735833	0,1	3,960230
2,737500	0,1	3,943219
2,739167	0,1	3,940254
2,740833	0,1	3,900843
2,742500	0,1	3,918651
2,744167	0,1	3,899943
2,745833	0,1	3,946900
2,747500	0,1	3,903485
2,749167	0,1	3,911590
2,750833	0,1	3,884926
2,752500	0,1	3,917431
2,754167	0,1	3,911838
2,755833	0,1	3,874257
2,757500	0,1	3,897704
2,759167	0,1	3,895638
2,760833	0,1	3,877742
2,762500	0,1	3,871814
2,764167	0,1	3,886016
2,765833	0,1	3,832452
2,767500	0,1	3,843485
2,769167	0,1	3,880815
2,770833	0,1	3,859116
2,772500	0,1	3,878340
2,774167	0,1	3,862519
2,775833	0,1	3,817600
2,777500	0,1	3,823715
2,779167	0,1	3,829233
2,780833	0,1	3,847981
2,782500	0,1	3,859958
2,784167	0,1	3,823599
2,785833	0,1	3,791537
2,787500	0,1	3,861933
2,789167	0,1	3,816102
2,790833	0,1	3,755103
2,792500	0,1	3,834983
2,794167	0,1	3,813699
2,795833	0,1	3,834634
2,797500	0,1	3,787366
2,799167	0,1	3,788611
2,800833	0,1	3,748560
2,802500	0,1	3,767909
2,804167	0,1	3,770057
2,805833	0,1	3,742305
2,807500	0,1	3,745261
2,809167	0,1	3,790101
2,810833	0,1	3,756723
2,812500	0,1	3,703891
2,814167	0,1	3,727617
2,815833	0,1	3,769771
2,817500	0,1	3,715380
2,819167	0,1	3,752410
2,820833	0,1	3,713429
2,822500	0,1	3,721814
2,824167	0,1	3,706033
2,825833	0,1	3,682711
2,827500	0,1	3,703437
2,829167	0,1	3,684122
2,830833	0,1	3,688137
2,832500	0,1	3,662827
2,834167	0,1	3,694063
2,835833	0,1	3,657876
2,837500	0,1	3,669274
2,839167	0,1	3,616792
2,840833	0,1	3,642907
2,842500	0,1	3,610934
2,844167	0,1	3,660623
2,845833	0,1	3,598405
2,847500	0,1	3,626748
2,849167	0,1	3,621610
2,850833	0,1	3,619754
2,852500	0,1	3,566249
2,854167	0,1	3,562125
2,855833	0,1	3,589469
2,857500	0,1	3,538203
2,859167	0,1	3,604922
2,860833	0,1	3,568682
2,862500	0,1	3,548228
2,864167	0,1	3,553779
2,865833	0,1	3,535169
2,867500	0,1	3,526527
2,869167	0,1	3,525227
2,870833	0,1	3,536049
2,872500	0,1	3,517981
2,874167	0,1	3,496394
2,875833	0,1	3,481485
2,877500	0,1	3,437336
2,879167	0,1	3,441709
2,880833	0,1	3,462867
2,882500	0,1	3,423905
2,884167	0,1	3,470077
2,885833	0,1	3,440025
2,887500	0,1	3,431585
2,889167	0,1	3,413598
2,890833	0,1	3,428543
2,892500	0,1	3,389474
2,894167	0,1	3,396254
2,895833	0,1	3,405650
2,897500	0,1	3,356499
2,899167	0,1	3,349296
2,900833	0,1	3,327275
2,902500	0,1	3,342442
2,904167	0,1	3,312437
2,905833	0,1	3,337977
2,907500	0,1	3,304626
2,909167	0,1	3,316111
2,910833	0,1	3,296321
2,912500	0,1	3,274403
2,914167	0,1	3,308009
2,915833	0,1	3,263823
2,917500	0,1	3,290187
2,919167	0,1	3,283607
2,920833	0,1	3,220119
2,922500	0,1	3,225524
2,924167	0,1	3,281022
2,925833	0,1	3,221467
2,927500	0,1	3,202756
2,929167	0,1	3,223497
2,930833	0,1	3,229231
2,932500	0,1	3,207140
2,934167	0,1	3,188619
2,935833	0,1	3,161698
2,937500	0,1	3,183968
2,939167	0,1	3,159313
2,940833	0,1	3,150439
2,942500	0,1	3,143255
2,944167	0,1	3,136852
2,945833	0,1	3,140062
2,947500	0,1	3,158838
2,949167	0,1	3,089434
2,950833	0,1	3,104818
2,952500	0,1	3,115401
2,954167	0,1	3,111486
2,955833	0,1	3,104639
2,957500	0,1	3,120716
2,959167	0,1	3,063943
2,960833	0,1	3,050242
2,962500	0,1	3,015497
2,964167	0,1	3,055307
2,965833	0,1	3,043505
2,967500	0,1	3,054049
2,969167	0,1	3,051435
2,970833	0,1	3,035675
2,972500	0,1	3,039766
2,974167	0,1	3,042954
2,975833	0,1	3,006172
2,977500	0,1	3,003207
2,979167	0,1	3,015705
2,980833	0,1	2,968584
2,982500	0,1	3,020475
2,984167	0,1	2,978017
2,985833	0,1	2,950816
2,987500	0,1	2,934535
2,989167	0,1	2,953298
2,990833	0,1	2,966832
2,992500	0,1	2,969638
2,994167	0,1	2,945094
2,995833	0,1	2,935160
2,997500	0,1	2,916522
2,999167	0,1	2,957315
3,000833	0,1	2,929466
3,002500	0,1	2,931326
3,004167	0,1	2,929383
3,005833	0,1	2,905183
3,007500	0,1	2,929661
3,009167	0,1	2,932641
3,010833	0,1	2,924296
3,012500	0,1	2,873573
3,014167	0,1	2,862721
3,015833	0,1	2,914255
3,017500	0,1	2,889366
3,019167	0,1	2,885589
3,020833	0,1	2,881185
3,022500	0,1	2,889376
3,024167	0,1	2,891930
3,025833	0,1	2,865850
3,027500	0,1	2,909798
3,029167	0,1	2,855317
3,030833	0,1	2,875176
3,032500	0,1	2,856967
3,034167	0,1	2,818783
3,035833	0,1	2,820545
3,037500	0,1	2,824567
3,039167	0,1	2,839407
3,040833	0,1	2,861244
3,042500	0,1	2,861630
3,044167	0,1	2,818041
3,045833	0,1	2,812984
3,047500	0,1	2,825078
3,049167	0,1	2,810851
3,050833	0,1	2,791381
3,052500	0,1	2,814580
3,054167	0,1	2,795799
3,055833	0,1	2,827017
3,057500	0,1	2,789534
3,059167	0,1	2,779314
3,060833	0,1	2,769388
3,062500	0,1	2,751385
3,064167	0,1	2,782720
3,065833	0,1	2,784879
3,067500	0,1	2,770003
3,069167	0,1	2,730705
3,070833	0,1	2,760124
3,072500	0,1	2,754109
3,074167	0,1	2,727859
3,075833	0,1	2,700098
3,077500	0,1	2,720647
3,079167	0,1	2,700578
3,080833	0,1	2,688479
3,082500	0,1	2,707585
3,084167	0,1	2,692880
3,085833	0,1	2,700193
3,087500	0,1	2,642808
3,089167	0,1	2,653788
3,090833	0,1	2,704566
3,092500	0,1	2,636668
3,094167	0,1	2,592914
3,095833	0,1	2,644907
3,097500	0,1	2,617244
3,099167	0,1	2,595289
3,100833	0,1	2,565307
3,102500	0,1	2,603283
3,104167	0,1	2,600736
3,105833	0,1	2,568408
3,107500	0,1	2,585641
3,109167	0,1	2,605126
3,110833	0,1	2,522736
3,112500	0,1	2,526612
3,114167	0,1	2,569160
3,115833	0,1	2,529175
3,117500	0,1	2,512138
3,119167	0,1	2,532697
3,120833	0,1	2,507110
3,122500	0,1	2,474393
3,124167	0,1	2,517090
3,125833	0,1	2,507505
3,127500	0,1	2,477457
3,129167	0,1	2,500685
3,130833	0,1	2,491643
3,132500	0,1	2,476518
3,134167	0,1	2,467718
3,135833	0,1	2,441503
3,137500	0,1	2,428108
3,139167	0,1	2,422640
3,140833	0,1	2,384250
3,142500	0,1	2,424137
3,144167	0,1	2,397551
3,145833	0,1	2,409415
3,147500	0,1	2,360814
3,149167	0,1	2,399711
3,150833	0,1	2,353409
3,152500	0,1	2,347508
3,154167	0,1	2,372426
3,155833	0,1	2,346507
3,157500	0,1	2,340741
3,159167	0,1	2,324354
3,160833	0,1	2,341171
3,162500	0,1	2,328521
3,164167	0,1	2,294581
3,165833	0,1	2,315563
3,167500	0,1	2,325909
3,169167	0,1	2,293722
3,170833	0,1	2,269353
3,172500	0,1	2,275242
3,174167	0,1	2,262806
3,175833	0,1	2,281054
3,177500	0,1	2,236300
3,179167	0,1	2,277748
3,180833	0,1	2,228670
3,182500	0,1	2,226644
3,184167	0,1	2,191301
3,185833	0,1	2,217498
3,187500	0,1	2,161247
3,189167	0,1	2,199449
3,190833	0,1	2,178620
3,192500	0,1	2,215848
3,194167	0,1	2,221306
3,195833	0,1	2,180781
3,197500	0,1	2,162016
3,199167	0,1	2,172651
3,200833	0,1	2,161367
3,202500	0,1	2,159644
3,204167	0,1	2,104460
3,205833	0,1	2,115373
3,207500	0,1	2,129884
3,209167	0,1	2,116812
3,210833	0,1	2,073776
3,212500	0,1	2,091935
3,214167	0,1	2,111772
3,215833	0,1	2,070830
3,217500	0,1	2,078296
3,219167	0,1	2,043375
3,220833	0,1	2,060896
3,222500	0,1	2,070812
3,224167	0,1	2,070953
3,225833	0,1	2,012774
3,227500	0,1	2,031794
3,229167	0,1	2,082732
3,230833	0,1	2,035551
3,232500	0,1	2,006943
3,234167	0,1	1,982161
3,235833	0,1	1,986387
3,237500	0,1	1,998744
3,239167	0,1	2,001261
3,240833	0,1	1,946529
3,242500	0,1	1,974526
3,244167	0,1	1,981282
3,245833	0,1	1,984375
3,247500	0,1	1,973675
3,249167	0,1	1,927488
3,250833	0,1	1,958652
3,252500	0,1	1,968779
3,254167	0,1	1,946304
3,255833	0,1	1,935671
3,257500	0,1	1,941125
3,259167	0,1	1,946301
3,260833	0,1	1,903136
3,262500	0,1	1,906499
3,264167	0,1	1,923952
3,265833	0,1	1,905141
3,267500	0,1	1,892712
3,269167	0,1	1,847469
3,270833	0,1	1,902393
3,272500	0,1	1,830596
3,274167	0,1	1,891834
3,275833	0,1	1,897305
3,277500	0,1	1,830163
3,279167	0,1	1,868780
3,280833	0,1	1,845236
3,282500	0,1	1,860742
3,284167	0,1	1,838770
3,285833	0,1	1,802435
3,287500	0,1	1,823463
3,289167	0,1	1,837399
3,290833	0,1	1,841353
3,292500	0,1	1,795184
3,294167	0,1	1,793735
3,295833	0,1	1,808526
3,297500	0,1	1,772133
3,299167	0,1	1,787914
3,300833	0,1	1,795675
3,302500	0,1	1,780455
3,304167	0,1	1,773847
3,305833	0,1	1,803140
3,307500	0,1	1,785768
3,309167	0,1	1,771335
3,310833	0,1	1,722370
3,312500	0,1	1,749635
3,314167	0,1	1,751225
3,315833	0,1	1,715121
3,317500	0,1	1,766149
3,319167	0,1	1,726239
3,320833	0,1	1,759258
3,322500	0,1	1,717695
3,324167	0,1	1,773689
3,325833	0,1	1,745055
3,327500	0,1	1,712386
3,329167	0,1	1,719125
3,330833	0,1	1,689913
3,332500	0,1	1,683730
3,334167	0,1	1,690756
3,335833	0,1	1,718113
3,337500	0,1	1,659613
3,339167	0,1	1,657525
3,340833	0,1	1,697715
3,342500	0,1	1,693427
3,344167	0,1	1,632341
3,345833	0,1	1,661460
3,347500	0,1	1,652715
3,349167	0,1	1,646038
3,350833	0,1	1,669003
3,352500	0,1	1,644036
3,354167	0,1	1,649198
3,355833	0,1	1,651562
3,357500	0,1	1,647258
3,359167	0,1	1,639657
3,360833	0,1	1,588395
3,362500	0,1	1,663960
3,364167	0,1	1,598457
3,365833	0,1	1,610855
3,367500	0,1	1,642869
3,369167	0,1	1,600965
3,370833	0,1	1,628947
3,372500	0,1	1,590623
3,374167	0,1	1,649256
3,375833	0,1	1,623721
3,377500	0,1	1,609357
3,379167	0,1	1,622278
3,380833	0,1	1,583294
3,382500	0,1	1,579996
3,384167	0,1	1,567783
3,385833	0,1	1,552073
3,387500	0,1	1,565850
3,389167	0,1	1,553430
3,390833	0,1	1,587164
3,392500	0,1	1,566223
3,394167	0,1	1,526964
3,395833	0,1	1,586452
3,397500	0,1	1,570450
3,399167	0,1	1,547987
3,400833	0,1	1,571162
3,402500	0,1	1,574838
3,404167	0,1	1,542387
3,405833	0,1	1,555361
3,407500	0,1	1,559621
3,409167	0,1	1,528900
3,410833	0,1	1,533330
3,412500	0,1	1,553952
3,414167	0,1	1,541380
3,415833	0,1	1,534343
3,417500	0,1	1,514763
3,419167	0,1	1,494228
3,420833	0,1	1,509946
3,422500	0,1	1,524430
3,424167	0,1	1,473208
3,425833	0,1	1,540298
3,427500	0,1	1,492157
3,429167	0,1	1,445569
3,430833	0,1	1,489052
3,432500	0,1	1,496159
3,434167	0,1	1,522067
3,435833	0,1	1,494882
3,437500	0,1	1,490995
3,439167	0,1	1,503263
3,440833	0,1	1,496309
3,442500	0,1	1,465446
3,444167	0,1	1,468900
3,445833	0,1	1,467237
3,447500	0,1	1,442561
3,449167	0,1	1,485402
3,450833	0,1	1,453182
3,452500	0,1	1,451736
3,454167	0,1	1,432087
3,455833	0,1	1,458631
3,457500	0,1	1,397295
3,459167	0,1	1,435075
3,460833	0,1	1,421979
3,462500	0,1	1,452521
3,464167	0,1	1,433874
3,465833	0,1	1,417599
3,467500	0,1	1,399570
3,469167	0,1	1,389445
3,470833	0,1	1,446502
3,472500	0,1	1,432442
3,474167	0,1	1,388965
3,475833	0,1	1,403096
3,477500	0,1	1,376909
3,479167	0,1	1,352372
3,480833	0,1	1,390167
3,482500	0,1	1,394259
3,484167	0,1	1,418801
3,485833	0,1	1,412072
3,487500	0,1	1,385505
3,489167	0,1	1,344709
3,490833	0,1	1,352078
3,492500	0,1	1,383372
3,494167	0,1	1,361411
3,495833	0,1	1,339805
3,497500	0,1	1,345045
3,499167	0,1	1,358244
3,500833	0,1	1,362488
3,502500	0,1	1,358398
3,504167	0,1	1,387447
3,505833	0,1	1,350716
3,507500	0,1	1,370302
3,509167	0,1	1,319797
3,510833	0,1	1,332429
3,512500	0,1	1,284784
3,514167	0,1	1,378172
3,515833	0,1	1,309622
3,517500	0,1	1,356249
3,519167	0,1	1,312129
3,520833	0,1	1,336210
3,522500	0,1	1,342323
3,524167	0,1	1,289811
3,525833	0,1	1,308826
3,527500	0,1	1,284847
3,529167	0,1	1,300295
3,530833	0,1	1,274828
3,532500	0,1	1,301436
3,534167	0,1	1,279646
3,535833	0,1	1,273187
3,537500	0,1	1,289103
3,539167	0,1	1,303514
3,540833	0,1	1,266946
3,542500	0,1	1,308682
3,544167	0,1	1,247424
3,545833	0,1	1,261966
3,547500	0,1	1,237387
3,549167	0,1	1,243986
3,550833	0,1	1,244150
3,552500	0,1	1,266263
3,554167	0,1	1,265485
3,555833	0,1	1,234506
3,557500	0,1	1,231227
3,559167	0,1	1,245193
3,560833	0,1	1,238166
3,562500	0,1	1,246993
3,564167	0,1	1,252816
3,565833	0,1	1,212713
3,567500	0,1	1,205616
3,569167	0,1	1,192915
3,570833	0,1	1,204897
3,572500	0,1	1,231992
3,574167	0,1	1,207889
3,575833	0,1	1,228408
3,577500	0,1	1,220958
3,579167	0,1	1,196283
3,580833	0,1	1,214578
3,582500	0,1	1,188621
3,584167	0,1	1,208851
3,585833	0,1	1,181151
3,587500	0,1	1,183917
3,589167	0,1	1,197728
3,590833	0,1	1,198678
3,592500	0,1	1,162311
3,594167	0,1	1,145006
3,595833	0,1	1,162367
3,597500	0,1	1,178090
3,599167	0,1	1,150458
3,600833	0,1	1,146499
3,602500	0,1	1,148721
3,604167	0,1	1,153169
3,605833	0,1	1,155505
3,607500	0,1	1,110740
3,609167	0,1	1,104056
3,610833	0,1	1,119265
3,612500	0,1	1,138116
3,614167	0,1	1,148157
3,615833	0,1	1,148584
3,617500	0,1	1,186956
3,619167	0,1	1,130596
3,620833	0,1	1,123485
3,622500	0,1	1,130185
3,624167	0,1	1,124351
3,625833	0,1	1,079356
3,627500	0,1	1,133316
3,629167	0,1	1,100139
3,630833	0,1	1,120115
3,632500	0,1	1,116620
3,634167	0,1	1,089714
3,635833	0,1	1,134815
3,637500	0,1	1,094401
3,639167	0,1	1,113085
3,640833	0,1	1,076619
3,642500	0,1	1,075579
3,644167	0,1	1,103585
3,645833	0,1	1,122862
3,647500	0,1	1,059190
3,649167	0,1	1,069868
3,650833	0,1	1,077763
3,652500	0,1	1,089240
3,654167	0,1	1,117616
3,655833	0,1	1,088809
3,657500	0,1	1,067818
3,659167	0,1	1,069140
3,660833	0,1	1,042473
3,662500	0,1	1,093004
3,664167	0,1	1,083506
3,665833	0,1	1,069380
3,667500	0,1	1,048293
3,669167	0,1	1,069661
3,670833	0,1	1,037972
3,672500	0,1	1,098552
3,674167	0,1	1,080131
3,675833	0,1	1,051793
3,677500	0,1	1,017107
3,679167	0,1	1,029269
3,680833	0,1	1,026115
3,682500	0,1	1,027930
3,684167	0,1	1,058013
3,685833	0,1	1,041603
3,687500	0,1	1,075684
3,689167	0,1	1,089764
3,690833	0,1	0,982302
3,692500	0,1	1,048408
3,694167	0,1	1,002286
3,695833	0,1	0,996658
3,697500	0,1	1,033880
3,699167	0,1	1,017612
3,700833	0,1	1,060690
3,702500	0,1	1,015189
3,704167	0,1	1,039471
3,705833	0,1	1,013657
3,707500	0,1	1,061130
3,709167	0,1	1,025409
3,710833	0,1	1,040423
3,712500	0,1	1,033875
3,714167	0,1	1,038981
3,715833	0,1	1,073413
3,717500	0,1	1,072179
3,719167	0,1	1,032948
3,720833	0,1	1,026624
3,722500	0,1	1,039746
3,724167	0,1	1,060915
3,725833	0,1	1,039550
3,727500	0,1	1,035506
3,729167	0,1	1,093937
3,730833	0,1	1,044869
3,732500	0,1	1,102545
3,734167	0,1	1,041137
3,735833	0,1	1,096229
3,737500	0,1	1,067447
3,739167	0,1	1,128070
3,740833	0,1	1,099492
3,742500	0,1	1,091030
3,744167	0,1	1,090687
3,745833	0,1	1,106427
3,747500	0,1	1,078099
3,749167	0,1	1,115046
3,750833	0,1	1,101985
3,752500	0,1	1,105566
3,754167	0,1	1,057554
3,755833	0,1	1,121121
3,757500	0,1	1,117721
3,759167	0,1	1,105553
3,760833	0,1	1,094142
3,762500	0,1	1,098604
3,764167	0,1	1,152898
3,765833	0,1	1,132963
3,767500	0,1	1,126590
3,769167	0,1	1,129662
3,770833	0,1	1,144284
3,772500	0,1	1,183496
3,774167	0,1	1,138571
3,775833	0,1	1,142625
3,777500	0,1	1,163274
3,779167	0,1	1,157334
3,780833	0,1	1,201662
3,782500	0,1	1,173556
3,784167	0,1	1,160136
3,785833	0,1	1,216161
3,787500	0,1	1,190294
3,789167	0,1	1,209896
3,790833	0,1	1,193946
3,792500	0,1	1,176631
3,794167	0,1	1,236735
3,795833	0,1	1,217389
3,797500	0,1	1,214847
3,799167	0,1	1,220679
3,800833	0,1	1,195267
3,802500	0,1	1,211902
3,804167	0,1	1,224838
3,805833	0,1	1,245053
3,807500	0,1	1,249438
3,809167	0,1	1,211915
3,810833	0,1	1,217783
3,812500	0,1	1,252451
3,814167	0,1	1,204048
3,815833	0,1	1,241890
3,817500	0,1	1,232578
3,819167	0,1	1,256834
3,820833	0,1	1,217945
3,822500	0,1	1,193124
3,824167	0,1	1,194710
3,825833	0,1	1,254243
3,827500	0,1	1,223477
3,829167	0,1	1,208200
3,830833	0,1	1,239197
3,832500	0,1	1,204495
3,834167	0,1	1,230713
3,835833	0,1	1,193154
3,837500	0,1	1,216883
3,839167	0,1	1,247125
3,840833	0,1	1,225836
3,842500	0,1	1,171351
3,844167	0,1	1,145008
3,845833	0,1	1,224604
3,847500	0,1	1,184901
3,849167	0,1	1,185044
3,850833	0,1	1,153605
3,852500	0,1	1,189415
3,854167	0,1	1,165535
3,855833	0,1	1,154560
3,857500	0,1	1,164648
3,859167	0,1	1,103069
3,860833	0,1	1,163647
3,862500	0,1	1,200674
3,864167	0,1	1,164811
3,865833	0,1	1,125389
3,867500	0,1	1,145352
3,869167	0,1	1,166363
3,870833	0,1	1,169264
3,872500	0,1	1,132185
3,874167	0,1	1,133603
3,875833	0,1	1,163957
3,877500	0,1	1,109110
3,879167	0,1	1,123069
3,880833	0,1	1,074345
3,882500	0,1	1,101975
3,884167	0,1	1,088997
3,885833	0,1	1,119936
3,887500	0,1	1,125394
3,889167	0,1	1,061634
3,890833	0,1	1,045796
3,892500	0,1	1,065909
3,894167	0,1	1,046579
3,895833	0,1	1,044130
3,897500	0,1	1,032382
3,899167	0,1	1,064411
3,900833	0,1	1,059767
3,902500	0,1	1,033555
3,904167	0,1	1,036250
3,905833	0,1	1,056893
3,907500	0,1	1,007738
3,909167	0,1	1,001835
3,910833	0,1	1,020829
3,912500	0,1	0,994438
3,914167	0,1	1,009794
3,915833	0,1	1,008712
3,917500	0,1	1,003295
3,919167	0,1	0,946116
3,920833	0,1	0,984763
3,922500	0,1	0,971228
3,924167	0,1	0,930710
3,925833	0,1	0,921979
3,927500	0,1	0,946722
3,929167	0,1	0,950107
3,930833	0,1	0,940773
3,932500	0,1	0,949171
3,934167	0,1	0,929944
3,935833	0,1	0,935761
3,937500	0,1	0,950933
3,939167	0,1	0,922783
3,940833	0,1	0,899107
3,942500	0,1	0,907976
3,944167	0,1	0,900932
3,945833	0,1	0,883280
3,947500	0,1	0,923344
3,949167	0,1	0,865673
3,950833	0,1	0,904896
3,952500	0,1	0,854707
3,954167	0,1	0,875282
3,955833	0,1	0,837493
3,957500	0,1	0,860225
3,959167	0,1	0,833468
3,960833	0,1	0,877481
3,962500	0,1	0,837582
3,964167	0,1	0,842654
3,965833	0,1	0,838997
3,967500	0,1	0,834502
3,969167	0,1	0,828679
3,970833	0,1	0,834991
3,972500	0,1	0,800797
3,974167	0,1	0,812103
3,975833	0,1	0,798816
3,977500	0,1	0,770891
3,979167	0,1	0,792579
3,980833	0,1	0,787516
3,982500	0,1	0,823905
3,984167	0,1	0,789483
3,985833	0,1	0,801408
3,987500	0,1	0,735504
3,989167	0,1	0,798085
3,990833	0,1	0,742594
3,992500	0,1	0,758917
3,994167	0,1	0,744007
3,995833	0,1	0,763586
3,997500	0,1	0,729537
3,999167	0,1	0,761916
4,000833	0,1	0,784110
4,002500	0,1	0,747524
4,004167	0,1	0,737114
4,005833	0,1	0,750759
4,007500	0,1	0,733935
4,009167	0,1	0,676966
4,010833	0,1	0,705712
4,012500	0,1	0,738480
4,014167	0,1	0,747092
4,015833	0,1	0,671235
4,017500	0,1	0,752587
4,019167	0,1	0,750205
4,020833	0,1	0,710731
4,022500	0,1	0,705187
4,024167	0,1	0,740858
4,025833	0,1	0,713995
4,027500	0,1	0,734748
4,029167	0,1	0,766650
4,030833	0,1	0,733449
4,032500	0,1	0,730953
4,034167	0,1	0,746088
4,035833	0,1	0,716020
4,037500	0,1	0,778183
4,039167	0,1	0,701557
4,040833	0,1	0,771822
4,042500	0,1	0,753990
4,044167	0,1	0,740516
4,045833	0,1	0,702438
4,047500	0,1	0,729011
4,049167	0,1	0,738776
4,050833	0,1	0,730242
4,052500	0,1	0,719305
4,054167	0,1	0,697921
4,055833	0,1	0,717985
4,057500	0,1	0,742551
4,059167	0,1	0,750603
4,060833	0,1	0,750962
4,062500	0,1	0,806202
4,064167	0,1	0,774651
4,065833	0,1	0,792092
4,067500	0,1	0,823753
4,069167	0,1	0,802552
4,070833	0,1	0,801236
4,072500	0,1	0,827933
4,074167	0,1	0,805844
4,075833	0,1	0,817417
4,077500	0,1	0,817197
4,079167	0,1	0,824517
4,080833	0,1	0,834257
4,082500	0,1	0,870945
4,084167	0,1	0,879463
4,085833	0,1	0,854520
4,087500	0,1	0,884916
4,089167	0,1	0,852615
4,090833	0,1	0,897850
4,092500	0,1	0,920853
4,094167	0,1	0,901715
4,095833	0,1	0,929882
4,097500	0,1	0,914800
4,099167	0,1	0,970854
4,100833	0,1	1,011739
4,102500	0,1	1,025667
4,104167	0,1	0,993183
4,105833	0,1	0,953749
4,107500	0,1	1,051659
4,109167	0,1	1,047525
4,110833	0,1	1,051667
4,112500	0,1	1,045489
4,114167	0,1	1,024183
4,115833	0,1	1,079059
4,117500	0,1	1,082874
4,119167	0,1	1,093317
4,120833	0,1	1,100143
4,122500	0,1	1,124207
4,124167	0,1	1,106132
4,125833	0,1	1,163442
4,127500	0,1	1,143441
4,129167	0,1	1,181655
4,130833	0,1	1,205046
4,132500	0,1	1,171415
4,134167	0,1	1,205744
4,135833	0,1	1,236383
4,137500	0,1	1,211280
4,139167	0,1	1,276756
4,140833	0,1	1,230537
4,142500	0,1	1,237172
4,144167	0,1	1,249066
4,145833	0,1	1,274829
4,147500	0,1	1,277035
4,149167	0,1	1,294982
4,150833	0,1	1,315918
4,152500	0,1	1,340958
4,154167	0,1	1,332573
4,155833	0,1	1,351071
4,157500	0,1	1,372945
4,159167	0,1	1,354597
4,160833	0,1	1,374037
4,162500	0,1	1,387390
4,164167	0,1	1,418373
4,165833	0,1	1,401962
4,167500	0,1	1,421036
4,169167	0,1	1,434250
4,170833	0,1	1,401012
4,172500	0,1	1,462141
4,174167	0,1	1,432595
4,175833	0,1	1,422607
4,177500	0,1	1,466968
4,179167	0,1	1,441479
4,180833	0,1	1,468824
4,182500	0,1	1,441556
4,184167	0,1	1,486974
4,185833	0,1	1,447598
4,187500	0,1	1,469115
4,189167	0,1	1,476432
4,190833	0,1	1,489994
4,192500	0,1	1,455346
4,194167	0,1	1,454536
4,195833	0,1	1,499596
4,197500	0,1	1,482608
4,199167	0,1	1,469123
4,200833	0,1	1,540719
4,202500	0,1	1,495175
4,204167	0,1	1,492433
4,205833	0,1	1,519413
4,207500	0,1	1,495737
4,209167	0,1	1,525375
4,210833	0,1	1,465040
4,212500	0,1	1,468254
4,214167	0,1	1,477148
4,215833	0,1	1,488919
4,217500	0,1	1,511453
4,219167	0,1	1,470272
4,220833	0,1	1,484468
4,222500	0,1	1,491083
4,224167	0,1	1,496966
4,225833	0,1	1,487556
4,227500	0,1	1,441491
4,229167	0,1	1,505904
4,230833	0,1	1,449017
4,232500	0,1	1,456262
4,234167	0,1	1,482972
4,235833	0,1	1,526023
4,237500	0,1	1,480622
4,239167	0,1	1,466391
4,240833	0,1	1,478080
4,242500	0,1	1,450101
4,244167	0,1	1,411705
4,245833	0,1	1,442275
4,247500	0,1	1,406468
4,249167	0,1	1,433157
4,250833	0,1	1,409126
4,252500	0,1	1,475267
4,254167	0,1	1,395142
4,255833	0,1	1,365287
4,257500	0,1	1,358121
4,259167	0,1	1,434444
4,260833	0,1	1,400447
4,262500	0,1	1,398352
4,264167	0,1	1,394566
4,265833	0,1	1,370810
4,267500	0,1	1,404522
4,269167	0,1	1,376642
4,270833	0,1	1,379871
4,272500	0,1	1,360119
4,274167	0,1	1,395353
4,275833	0,1	1,366092
4,277500	0,1	1,316650
4,279167	0,1	1,327023
4,280833	0,1	1,290085
4,282500	0,1	1,335221
4,284167	0,1	1,333585
4,285833	0,1	1,355233
4,287500	0,1	1,338603
4,289167	0,1	1,315799
4,290833	0,1	1,320025
4,292500	0,1	1,269683
4,294167	0,1	1,335436
4,295833	0,1	1,267681
4,297500	0,1	1,278337
4,299167	0,1	1,267585
4,300833	0,1	1,283718
4,302500	0,1	1,255683
4,304167	0,1	1,309406
4,305833	0,1	1,248383
4,307500	0,1	1,236300
4,309167	0,1	1,269028
4,310833	0,1	1,263803
4,312500	0,1	1,237619
4,314167	0,1	1,237764
4,315833	0,1	1,201475
4,317500	0,1	1,216283
4,319167	0,1	1,209985
4,320833	0,1	1,225251
4,322500	0,1	1,184683
4,324167	0,1	1,201230
4,325833	0,1	1,188686
4,327500	0,1	1,185896
4,329167	0,1	1,175983
4,330833	0,1	1,132626
4,332500	0,1	1,171893
4,334167	0,1	1,203094
4,335833	0,1	1,175205
4,337500	0,1	1,156704
4,339167	0,1	1,149836
4,340833	0,1	1,116711
4,342500	0,1	1,125720
4,344167	0,1	1,142142
4,345833	0,1	1,127677
4,347500	0,1	1,130884
4,349167	0,1	1,110529
4,350833	0,1	1,094395
4,352500	0,1	1,123424
4,354167	0,1	1,131036
4,355833	0,1	1,090324
4,357500	0,1	1,111520
4,359167	0,1	1,118706
4,360833	0,1	1,083362
4,362500	0,1	1,075543
4,364167	0,1	1,100633
4,365833	0,1	1,080101
4,367500	0,1	1,038841
4,369167	0,1	1,080762
4,370833	0,1	1,044819
4,372500	0,1	1,059458
4,374167	0,1	1,080767
4,375833	0,1	1,076438
4,377500	0,1	1,023054
4,379167	0,1	1,058094
4,380833	0,1	1,074247
4,382500	0,1	1,043491
4,384167	0,1	0,978692
4,385833	0,1	1,003714
4,387500	0,1	1,043830
4,389167	0,1	1,019549
4,390833	0,1	0,969657
4,392500	0,1	0,988146
4,394167	0,1	0,962249
4,395833	0,1	1,010703
4,397500	0,1	1,006233
4,399167	0,1	0,992246
4,400833	0,1	0,981260
4,402500	0,1	0,974672
4,404167	0,1	0,972312
4,405833	0,1	0,960974
4,407500	0,1	0,975244
4,409167	0,1	0,921499
4,410833	0,1	0,901985
4,412500	0,1	0,896602
4,414167	0,1	0,927775
4,415833	0,1	0,926174
4,417500	0,1	0,906791
4,419167	0,1	0,908873
4,420833	0,1	0,919143
4,422500	0,1	0,902225
4,424167	0,1	0,886862
4,425833	0,1	0,847503
4,427500	0,1	0,863876
4,429167	0,1	0,866728
4,430833	0,1	0,862524
4,432500	0,1	0,858874
4,434167	0,1	0,840156
4,435833	0,1	0,853827
4,437500	0,1	0,839712
4,439167	0,1	0,846600
4,440833	0,1	0,848536
4,442500	0,1	0,770082
4,444167	0,1	0,824970
4,445833	0,1	0,816226
4,447500	0,1	0,802462
4,449167	0,1	0,789698
4,450833	0,1	0,780469
4,452500	0,1	0,761194
4,454167	0,1	0,760411
4,455833	0,1	0,748052
4,457500	0,1	0,785772
4,459167	0,1	0,756683
4,460833	0,1	0,805980
4,462500	0,1	0,721858
4,464167	0,1	0,697277
4,465833	0,1	0,745993
4,467500	0,1	0,741359
4,469167	0,1	0,701748
4,470833	0,1	0,718875
4,472500	0,1	0,678963
4,474167	0,1	0,718782
4,475833	0,1	0,667162
4,477500	0,1	0,676838
4,479167	0,1	0,697932
4,480833	0,1	0,676559
4,482500	0,1	0,671039
4,484167	0,1	0,662548
4,485833	0,1	0,686550
4,487500	0,1	0,657150
4,489167	0,1	0,642632
4,490833	0,1	0,612961
4,492500	0,1	0,623331
4,494167	0,1	0,585931
4,495833	0,1	0,611195
4,497500	0,1	0,582385
4,499167	0,1	0,599172
4,500833	0,1	0,610042
4,502500	0,1	0,606333
4,504167	0,1	0,596180
4,505833	0,1	0,607645
4,507500	0,1	0,549446
4,509167	0,1	0,574100
4,510833	0,1	0,547466
4,512500	0,1	0,531639
4,514167	0,1	0,538171
4,515833	0,1	0,523511
4,517500	0,1	0,530542
4,519167	0,1	0,560342
4,520833	0,1	0,516508
4,522500	0,1	0,521126
4,524167	0,1	0,526374
4,525833	0,1	0,478320
4,527500	0,1	0,517673
4,529167	0,1	0,477132
4,530833	0,1	0,503565
4,532500	0,1	0,521833
4,534167	0,1	0,499616
4,535833	0,1	0,448233
4,537500	0,1	0,498719
4,539167	0,1	0,462852
4,540833	0,1	0,472610
4,542500	0,1	0,470155
4,544167	0,1	0,468261
4,545833	0,1	0,439851
4,547500	0,1	0,483228
4,549167	0,1	0,454249
4,550833	0,1	0,469546
4,552500	0,1	0,491322
4,554167	0,1	0,453541
4,555833	0,1	0,430381
4,557500	0,1	0,428208
4,559167	0,1	0,398682
4,560833	0,1	0,402958
4,562500	0,1	0,373910
4,564167	0,1	0,391105
4,565833	0,1	0,434679
4,567500	0,1	0,440831
4,569167	0,1	0,362072
4,570833	0,1	0,383496
4,572500	0,1	0,382539
4,574167	0,1	0,359866
4,575833	0,1	0,387137
4,577500	0,1	0,347986
4,579167	0,1	0,366551
4,580833	0,1	0,384106
4,582500	0,1	0,348403
4,584167	0,1	0,365647
4,585833	0,1	0,331939
4,587500	0,1	0,382910
4,589167	0,1	0,322933
4,590833	0,1	0,342493
4,592500	0,1	0,356087
4,594167	0,1	0,317419
4,595833	0,1	0,352985
4,597500	0,1	0,335546
4,599167	0,1	0,314448
4,600833	0,1	0,307456
4,602500	0,1	0,336592
4,604167	0,1	0,320990
4,605833	0,1	0,303497
4,607500	0,1	0,310901
4,609167	0,1	0,302916
4,610833	0,1	0,283566
4,612500	0,1	0,306740
4,614167	0,1	0,309160
4,615833	0,1	0,279219
4,617500	0,1	0,278406
4,619167	0,1	0,280564
4,620833	0,1	0,272967
4,622500	0,1	0,276829
4,624167	0,1	0,294633
4,625833	0,1	0,296019
4,627500	0,1	0,253522
4,629167	0,1	0,255895
4,630833	0,1	0,254608
4,632500	0,1	0,271317
4,634167	0,1	0,261921
4,635833	0,1	0,240542
4,637500	0,1	0,242114
4,639167	0,1	0,257824
4,640833	0,1	0,253741
4,642500	0,1	0,223736
4,644167	0,1	0,271148
4,645833	0,1	0,289833
4,647500	0,1	0,258962
4,649167	0,1	0,241120
4,650833	0,1	0,272055
4,652500	0,1	0,224320
4,654167	0,1	0,216162
4,655833	0,1	0,232804
4,657500	0,1	0,216936
4,659167	0,1	0,214456
4,660833	0,1	0,225723
4,662500	0,1	0,227752
4,664167	0,1	0,201131
4,665833	0,1	0,213743
4,667500	0,1	0,218606
4,669167	0,1	0,191278
4,670833	0,1	0,243711
4,672500	0,1	0,215587
4,674167	0,1	0,233028
4,675833	0,1	0,238861
4,677500	0,1	0,205349
4,679167	0,1	0,207950
4,680833	0,1	0,170675
4,682500	0,1	0,192426
4,684167	0,1	0,210102
4,685833	0,1	0,192886
4,687500	0,1	0,155445
4,689167	0,1	0,198989
4,690833	0,1	0,170638
4,692500	0,1	0,225325
4,694167	0,1	0,155165
4,695833	0,1	0,170726
4,697500	0,1	0,123058
4,699167	0,1	0,193604
4,700833	0,1	0,186058
4,702500	0,1	0,168898
4,704167	0,1	0,172949
4,705833	0,1	0,187083
4,707500	0,1	0,153449
4,709167	0,1	0,191744
4,710833	0,1	0,189951
4,712500	0,1	0,168675
4,714167	0,1	0,157950
4,715833	0,1	0,165192
4,717500	0,1	0,174399
4,719167	0,1	0,176976
4,720833	0,1	0,166033
4,722500	0,1	0,148037
4,724167	0,1	0,170692
4,725833	0,1	0,158886
4,727500	0,1	0,158463
4,729167	0,1	0,121867
4,730833	0,1	0,137759
4,732500	0,1	0,147739
4,734167	0,1	0,143719
4,735833	0,1	0,152987
4,737500	0,1	0,149257
4,739167	0,1	0,138377
4,740833	0,1	0,116713
4,742500	0,1	0,111459
4,744167	0,1	0,139397
4,745833	0,1	0,177676
4,747500	0,1	0,121811
4,749167	0,1	0,136279
4,750833	0,1	0,107317
4,752500	0,1	0,122758
4,754167	0,1	0,117318
4,755833	0,1	0,128263
4,757500	0,1	0,142235
4,759167	0,1	0,153761
4,760833	0,1	0,122965
4,762500	0,1	0,136987
4,764167	0,1	0,145359
4,765833	0,1	0,112241
4,767500	0,1	0,107183
4,769167	0,1	0,117638
4,770833	0,1	0,088131
4,772500	0,1	0,102216
4,774167	0,1	0,140652
4,775833	0,1	0,123631
4,777500	0,1	0,154915
4,779167	0,1	0,107965
4,780833	0,1	0,141813
4,782500	0,1	0,116358
4,784167	0,1	0,127654
4,785833	0,1	0,096756
4,787500	0,1	0,110299
4,789167	0,1	0,127649
4,790833	0,1	0,136502
4,792500	0,1	0,083630
4,794167	0,1	0,097330
4,795833	0,1	0,137753
4,797500	0,1	0,091706
4,799167	0,1	0,105827
4,800833	0,1	0,157678
4,802500	0,1	0,103425
4,804167	0,1	0,126747
4,805833	0,1	0,085106
4,807500	0,1	0,111550
4,809167	0,1	0,093434
4,810833	0,1	0,120244
4,812500	0,1	0,123886
4,814167	0,1	0,117293
4,815833	0,1	0,099037
4,817500	0,1	0,070393
4,819167	0,1	0,103375
4,820833	0,1	0,120151
4,822500	0,1	0,073877
4,824167	0,1	0,103405
4,825833	0,1	0,102836
4,827500	0,1	0,107661
4,829167	0,1	0,083171
4,830833	0,1	0,100960
4,832500	0,1	0,100836
4,834167	0,1	0,058293
4,835833	0,1	0,110741
4,837500	0,1	0,121088
4,839167	0,1	0,111111
4,840833	0,1	0,123112
4,842500	0,1	0,032330
4,844167	0,1	0,097957
4,845833	0,1	0,081562
4,847500	0,1	0,081075
4,849167	0,1	0,099932
4,850833	0,1	0,120278
4,852500	0,1	0,096499
4,854167	0,1	0,085359
4,855833	0,1	0,110939
4,857500	0,1	0,067081
4,859167	0,1	0,104402
4,860833	0,1	0,089479
4,862500	0,1	0,078561
4,864167	0,1	0,079180
4,865833	0,1	0,060509
4,867500	0,1	0,116599
4,869167	0,1	0,107120
4,870833	0,1	0,099555
4,872500	0,1	0,116255
4,874167	0,1	0,118898
4,875833	0,1	0,071391
4,877500	0,1	0,107881
4,879167	0,1	0,047608
4,880833	0,1	0,075269
4,882500	0,1	0,077786
4,884167	0,1	0,101058
4,885833	0,1	0,089899
4,887500	0,1	0,079338
4,889167	0,1	0,066718
4,890833	0,1	0,094332
4,892500	0,1	0,053333
4,894167	0,1	0,073955
4,895833	0,1	0,068429
4,897500	0,1	0,058187
4,899167	0,1	0,083644
4,900833	0,1	0,031740
4,902500	0,1	0,081446
4,904167	0,1	0,071324
4,905833	0,1	0,067424
4,907500	0,1	0,090374
4,909167	0,1	0,067817
4,910833	0,1	0,075535
4,912500	0,1	0,061122
4,914167	0,1	0,072026
4,915833	0,1	0,086929
4,917500	0,1	0,049570
4,919167	0,1	0,076013
4,920833	0,1	0,136234
4,922500	0,1	0,030529
4,924167	0,1	0,074238
4,925833	0,1	0,071131
4,927500	0,1	0,044126
4,929167	0,1	0,078203
4,930833	0,1	0,081174
4,932500	0,1	0,081586
4,934167	0,1	0,057836
4,935833	0,1	0,084224
4,937500	0,1	0,060799
4,939167	0,1	0,059282
4,940833	0,1	0,051139
4,942500	0,1	0,040713
4,944167	0,1	0,051262
4,945833	0,1	0,007214
4,947500	0,1	0,061361
4,949167	0,1	0,085027
4,950833	0,1	0,060092
4,952500	0,1	0,064691
4,954167	0,1	0,048532
4,955833	0,1	0,006506
4,957500	0,1	0,063164
4,959167	0,1	0,069874
4,960833	0,1	0,029840
4,962500	0,1	0,052003
4,964167	0,1	0,031314
4,965833	0,1	0,043155
4,967500	0,1	0,034013
4,969167	0,1	0,030123
4,970833	0,1	0,025453
4,972500	0,1	0,059337
4,974167	0,1	0,076595
4,975833	0,1	0,056483
4,977500	0,1	0,033762
4,979167	0,1	0,031863
4,980833	0,1	0,051967
4,982500	0,1	0,050041
4,984167	0,1	0,055035
4,985833	0,1	0,091367
4,987500	0,1	0,040461
4,989167	0,1	0,054225
4,990833	0,1	0,061918
4,992500	0,1	0,042485
4,994167	0,1	0,059630
4,995833	0,1	0,020667
4,997500	0,1	0,025996
4,999167	0,1	0,064583
5,000833	0,1	0,056289
5,002500	0,1	0,080489
5,004167	0,1	0,045969
5,005833	0,1	0,056124
5,007500	0,1	0,071734
5,009167	0,1	0,067940
5,010833	0,1	0,037110
5,012500	0,1	0,049558
5,014167	0,1	0,026711
5,015833	0,1	0,060949
5,017500	0,1	0,042166
5,019167	0,1	0,036879
5,020833	0,1	0,045596
5,022500	0,1	0,055416
5,024167	0,1	0,058027
5,025833	0,1	0,050432
5,027500	0,1	0,019187
5,029167	0,1	0,042056
5,030833	0,1	0,050847
5,032500	0,1	0,028776
5,034167	0,1	0,025382
5,035833	0,1	0,037129
5,037500	0,1	0,045187
5,039167	0,1	0,041546
5,040833	0,1	0,026545
5,042500	0,1	0,020269
5,044167	0,1	0,051003
5,045833	0,1	0,008663
5,047500	0,1	0,014147
5,049167	0,1	0,039480
5,050833	0,1	0,054416
5,052500	0,1	0,039201
5,054167	0,1	0,018122
5,055833	0,1	0,065480
5,057500	0,1	-0,000733
5,059167	0,1	0,059880
5,060833	0,1	0,049272
5,062500	0,1	0,012261
5,064167	0,1	0,042345
5,065833	0,1	0,044474
5,067500	0,1	0,042092
5,069167	0,1	0,032183
5,070833	0,1	0,008306
5,072500	0,1	-0,008859
5,074167	0,1	0,017496
5,075833	0,1	0,039447
5,077500	0,1	0,029515
5,079167	0,1	0,019534
5,080833	0,1	0,008909
5,082500	0,1	0,048589
5,084167	0,1	0,001194
5,085833	0,1	0,062838
5,087500	0,1	0,046183
5,089167	0,1	0,052262
5,090833	0,1	0,046280
5,092500	0,1	0,050911
5,094167	0,1	0,057030
5,095833	0,1	0,032284
5,097500	0,1	-0,001673
5,099167	0,1	0,069662
5,100833	0,1	-0,005335
5,102500	0,1	0,063904
5,104167	0,1	0,039613
5,105833	0,1	0,033631
5,107500	0,1	0,043249
5,109167	0,1	-0,008197
5,110833	0,1	0,034970
5,112500	0,1	0,016029
5,114167	0,1	0,024997
5,115833	0,1	0,067928
5,117500	0,1	0,054976
5,119167	0,1	0,005157
5,120833	0,1	0,051679
5,122500	0,1	0,063047
5,124167	0,1	0,024825
5,125833	0,1	0,032269
5,127500	0,1	0,048397
5,129167	0,1	0,043380
5,130833	0,1	0,034403
5,132500	0,1	0,007726
5,134167	0,1	0,033271
5,135833	0,1	0,045250
5,137500	0,1	0,010494
5,139167	0,1	0,055605
5,140833	0,1	0,022432
5,142500	0,1	0,004477
5,144167	0,1	0,044211
5,145833	0,1	0,016963
5,147500	0,1	0,064426
5,149167	0,1	-0,001059
5,150833	0,1	0,034690
5,152500	0,1	0,002197
5,154167	0,1	0,006204
5,155833	0,1	0,038962
5,157500	0,1	0,029735
5,159167	0,1	0,004825
5,160833	0,1	0,068057
5,162500	0,1	0,022753
5,164167	0,1	-0,002094
5,165833	0,1	0,044370
5,167500	0,1	0,030896
5,169167	0,1	-0,013865
5,170833	0,1	0,007296
5,172500	0,1	0,029862
5,174167	0,1	0,036303
5,175833	0,1	0,006122
5,177500	0,1	0,014925
5,179167	0,1	0,036427
5,180833	0,1	-0,011261
5,182500	0,1	0,010515
5,184167	0,1	0,024741
5,185833	0,1	0,040290
5,187500	0,1	0,004447
5,189167	0,1	0,034875
5,190833	0,1	0,017350
5,192500	0,1	0,030897
5,194167	0,1	0,042639
5,195833	0,1	0,019418
5,197500	0,1	0,000670
5,199167	0,1	0,015186
5,200833	0,1	-0,009047
5,202500	0,1	0,019978
5,204167	0,1	0,015572
5,205833	0,1	0,014737
5,207500	0,1	0,036943
5,209167	0,1	0,002968
5,210833	0,1	-0,018991
5,212500	0,1	0,024191
5,214167	0,1	0,022914
5,215833	0,1	0,019397
5,217500	0,1	0,013642
5,219167	0,1	-0,010750
5,220833	0,1	0,013280
5,222500	0,1	0,019758
5,224167	0,1	0,029405
5,225833	0,1	0,027582
5,227500	0,1	0,032206
5,229167	0,1	0,016862
5,230833	0,1	0,025940
5,232500	0,1	0,028352
5,234167	0,1	-0,017372
5,235833	0,1	0,005910
5,237500	0,1	0,023779
5,239167	0,1	0,047786
5,240833	0,1	-0,006783
5,242500	0,1	0,005685
5,244167	0,1	0,064417
5,245833	0,1	0,013496
5,247500	0,1	0,046305
5,249167	0,1	-0,006038
5,250833	0,1	0,049548
5,252500	0,1	0,024208
5,254167	0,1	0,026768
5,255833	0,1	-0,015670
5,257500	0,1	-0,000008
5,259167	0,1	0,033205
5,260833	0,1	-0,002155
5,262500	0,1	-0,012713
5,264167	0,1	0,010289
5,265833	0,1	-0,001580
5,267500	0,1	0,004881
5,269167	0,1	-0,043925
5,270833	0,1	0,023732
5,272500	0,1	-0,008881
5,274167	0,1	-0,008536
5,275833	0,1	0,000320
5,277500	0,1	-0,004021
5,279167	0,1	0,028726
5,280833	0,1	-0,032435
5,282500	0,1	0,045969
5,284167	0,1	0,032480
5,285833	0,1	0,037943
5,287500	0,1	0,001454
5,289167	0,1	0,004083
5,290833	0,1	-0,015837
5,292500	0,1	-0,006706
5,294167	0,1	-0,014961
5,295833	0,1	-0,024815
5,297500	0,1	-0,000437
5,299167	0,1	-0,015350
5,300833	0,1	-0,023275
5,302500	0,1	-0,004777
5,304167	0,1	0,028183
5,305833	0,1	0,031282
5,307500	0,1	0,000419
5,309167	0,1	-0,017416
5,310833	0,1	0,031914
5,312500	0,1	0,030800
5,314167	0,1	-0,031112
5,315833	0,1	-0,010752
5,317500	0,1	-0,006696
5,319167	0,1	-0,004611
5,320833	0,1	0,043501
5,322500	0,1	0,026066
5,324167	0,1	0,020404
5,325833	0,1	0,005573
5,327500	0,1	0,013384
5,329167	0,1	-0,020856
5,330833	0,1	-0,009890
5,332500	0,1	-0,051523
5,334167	0,1	-0,013403
5,335833	0,1	-0,000071
5,337500	0,1	-0,019284
5,339167	0,1	0,009806
5,340833	0,1	-0,013452
5,342500	0,1	0,003854
5,344167	0,1	0,026932
5,345833	0,1	-0,004820
5,347500	0,1	0,004046
5,349167	0,1	0,013736
5,350833	0,1	0,029022
5,352500	0,1	-0,020906
5,354167	0,1	0,027634
5,355833	0,1	-0,003053
5,357500	0,1	-0,003286
5,359167	0,1	0,023713
5,360833	0,1	0,009455
5,362500	0,1	-0,031951
5,364167	0,1	-0,012140
5,365833	0,1	-0,038908
5,367500	0,1	-0,027848
5,369167	0,1	0,013085
5,370833	0,1	-0,021981
5,372500	0,1	0,015952
5,374167	0,1	-0,006825
5,375833	0,1	-0,001584
5,377500	0,1	0,005080
5,379167	0,1	0,003313
5,380833	0,1	-0,016319
5,382500	0,1	0,012118
5,384167	0,1	-0,007951
5,385833	0,1	-0,019184
5,387500	0,1	0,035547
5,389167	0,1	-0,009740
5,390833	0,1	-0,032662
5,392500	0,1	0,008489
5,394167	0,1	0,007691
5,395833	0,1	-0,019181
5,397500	0,1	0,013341
5,399167	0,1	-0,004208
5,400833	0,1	0,016308
5,402500	0,1	0,006406
5,404167	0,1	0,017571
5,405833	0,1	-0,019859
5,407500	0,1	-0,027770
5,409167	0,1	-0,032955
5,410833	0,1	-0,034950
5,412500	0,1	-0,032668
5,414167	0,1	0,013211
5,415833	0,1	0,001159
5,417500	0,1	-0,025002
5,419167	0,1	-0,069630
5,420833	0,1	-0,054779
5,422500	0,1	-0,027399
5,424167	0,1	-0,027836
5,425833	0,1	0,001429
5,427500	0,1	-0,038423
5,429167	0,1	0,014986
5,430833	0,1	-0,012871
5,432500	0,1	-0,003770
5,434167	0,1	-0,018603
5,435833	0,1	-0,012235
5,437500	0,1	-0,052329
5,439167	0,1	-0,053780
5,440833	0,1	-0,047054
5,442500	0,1	-0,012432
5,444167	0,1	-0,012750
5,445833	0,1	-0,019277
5,447500	0,1	-0,043023
5,449167	0,1	-0,013265
5,450833	0,1	-0,016450
5,452500	0,1	0,019785
5,454167	0,1	0,002283
5,455833	0,1	-0,045275
5,457500	0,1	-0,043772
5,459167	0,1	0,007162
5,460833	0,1	-0,016118
5,462500	0,1	-0,006218
5,464167	0,1	-0,005924
5,465833	0,1	-0,025809
5,467500	0,1	-0,026622
5,469167	0,1	-0,014659
5,470833	0,1	-0,021471
5,472500	0,1	-0,027264
5,474167	0,1	-0,037786
5,475833	0,1	0,015431
5,477500	0,1	-0,001769
5,479167	0,1	0,005178
5,480833	0,1	0,005497
5,482500	0,1	-0,036492
5,484167	0,1	-0,007862
5,485833	0,1	-0,002101
5,487500	0,1	-0,042829
5,489167	0,1	-0,035016
5,490833	0,1	-0,020478
5,492500	0,1	0,002755
5,494167	0,1	-0,033303
5,495833	0,1	0,000377
5,497500	0,1	-0,000287
5,499167	0,1	-0,031837
5,500833	0,1	0,017787
5,502500	0,1	-0,014249
5,504167	0,1	0,008583
5,505833	0,1	-0,031054
5,507500	0,1	0,011479
5,509167	0,1	-0,034651
5,510833	0,1	-0,027873
5,512500	0,1	-0,040877
5,514167	0,1	-0,068738
5,515833	0,1	0,005454
5,517500	0,1	-0,038766
5,519167	0,1	-0,052715
5,520833	0,1	-0,015588
5,522500	0,1	-0,030090
5,524167	0,1	-0,015392
5,525833	0,1	0,010487
5,527500	0,1	-0,065118
5,529167	0,1	0,029808
5,530833	0,1	-0,009713
5,532500	0,1	-0,013710
5,534167	0,1	-0,004803
5,535833	0,1	0,005206
5,537500	0,1	-0,024392
5,539167	0,1	-0,041938
5,540833	0,1	0,004652
5,542500	0,1	-0,033492
5,544167	0,1	-0,014144
5,545833	0,1	-0,017636
5,547500	0,1	-0,028677
5,549167	0,1	-0,044548
5,550833	0,1	0,002204
5,552500	0,1	-0,023496
5,554167	0,1	-0,011267
5,555833	0,1	-0,018542
5,557500	0,1	-0,024725
5,559167	0,1	0,017717
5,560833	0,1	-0,023302
5,562500	0,1	0,008618
5,564167	0,1	0,006404
5,565833	0,1	-0,026360
5,567500	0,1	-0,002423
5,569167	0,1	0,026833
5,570833	0,1	-0,000933
5,572500	0,1	-0,009241
5,574167	0,1	-0,023046
5,575833	0,1	-0,001233
5,577500	0,1	-0,015096
5,579167	0,1	-0,001811
5,580833	0,1	-0,016320
5,582500	0,1	-0,010431
5,584167	0,1	-0,011273
5,585833	0,1	0,007687
5,587500	0,1	-0,023269
5,589167	0,1	0,024969
5,590833	0,1	0,023267
5,592500	0,1	-0,002509
5,594167	0,1	-0,011778
5,595833	0,1	0,003182
5,597500	0,1	-0,030285
5,599167	0,1	0,007131
5,600833	0,1	0,013122
5,602500	0,1	-0,004607
5,604167	0,1	0,041987
5,605833	0,1	0,016836
5,607500	0,1	0,029192
5,609167	0,1	0,013589
5,610833	0,1	0,031405
5,612500	0,1	0,014932
5,614167	0,1	-0,034559
5,615833	0,1	0,035064
5,617500	0,1	0,018349
5,619167	0,1	0,011419
5,620833	0,1	-0,007362
5,622500	0,1	0,027573
5,624167	0,1	0,024330
5,625833	0,1	-0,043213
5,627500	0,1	0,034673
5,629167	0,1	0,006439
5,630833	0,1	0,003985
5,632500	0,1	0,010010
5,634167	0,1	-0,010662
5,635833	0,1	0,026640
5,637500	0,1	0,007661
5,639167	0,1	-0,019697
5,640833	0,1	0,032868
5,642500	0,1	0,030123
5,644167	0,1	0,060625
5,645833	0,1	0,040299
5,647500	0,1	0,012614
5,649167	0,1	0,048265
5,650833	0,1	0,044574
5,652500	0,1	0,038455
5,654167	0,1	0,072473
5,655833	0,1	0,041844
5,657500	0,1	0,037911
5,659167	0,1	-0,004918
5,660833	0,1	0,048033
5,662500	0,1	0,095423
5,664167	0,1	0,058546
5,665833	0,1	0,036183
5,667500	0,1	0,067063
5,669167	0,1	0,021084
5,670833	0,1	0,041060
5,672500	0,1	0,054064
5,674167	0,1	0,021436
5,675833	0,1	0,083666
5,677500	0,1	0,078340
5,679167	0,1	0,026010
5,680833	0,1	0,072145
5,682500	0,1	0,068938
5,684167	0,1	0,069320
5,685833	0,1	0,081683
5,687500	0,1	0,072739
5,689167	0,1	0,062211
5,690833	0,1	0,073794
5,692500	0,1	0,090728
5,694167	0,1	0,099227
5,695833	0,1	0,091344
5,697500	0,1	0,071226
5,699167	0,1	0,094589
5,700833	0,1	0,064918
5,702500	0,1	0,092687
5,704167	0,1	0,107242
5,705833	0,1	0,098490
5,707500	0,1	0,105538
5,709167	0,1	0,097394
5,710833	0,1	0,085196
5,712500	0,1	0,107113
5,714167	0,1	0,104931
5,715833	0,1	0,096431
5,717500	0,1	0,080302
5,719167	0,1	0,113641
5,720833	0,1	0,091540
5,722500	0,1	0,102062
5,724167	0,1	0,116477
5,725833	0,1	0,096365
5,727500	0,1	0,125039
5,729167	0,1	0,129843
5,730833	0,1	0,133835
5,732500	0,1	0,143748
5,734167	0,1	0,105064
5,735833	0,1	0,123754
5,737500	0,1	0,118768
5,739167	0,1	0,153400
5,740833	0,1	0,164611
5,742500	0,1	0,151833
5,744167	0,1	0,187946
5,745833	0,1	0,164555
5,747500	0,1	0,146976
5,749167	0,1	0,168760
5,750833	0,1	0,145591
5,752500	0,1	0,182794
5,754167	0,1	0,186249
5,755833	0,1	0,113666
5,757500	0,1	0,160125
5,759167	0,1	0,150675
5,760833	0,1	0,201530
5,762500	0,1	0,164975
5,764167	0,1	0,157629
5,765833	0,1	0,159590
5,767500	0,1	0,148808
5,769167	0,1	0,136056
5,770833	0,1	0,166474
5,772500	0,1	0,181739
5,774167	0,1	0,175111
5,775833	0,1	0,177329
5,777500	0,1	0,200506
5,779167	0,1	0,152421
5,780833	0,1	0,187173
5,782500	0,1	0,187504
5,784167	0,1	0,130822
5,785833	0,1	0,157653
5,787500	0,1	0,194547
5,789167	0,1	0,178300
5,790833	0,1	0,181676
5,792500	0,1	0,155990
5,794167	0,1	0,176199
5,795833	0,1	0,180195
5,797500	0,1	0,194519
5,799167	0,1	0,172346
5,800833	0,1	0,171374
5,802500	0,1	0,122159
5,804167	0,1	0,165598
5,805833	0,1	0,173464
5,807500	0,1	0,164680
5,809167	0,1	0,169665
5,810833	0,1	0,203916
5,812500	0,1	0,158667
5,814167	0,1	0,145041
5,815833	0,1	0,209223
5,817500	0,1	0,146888
5,819167	0,1	0,171819
5,820833	0,1	0,180645
5,822500	0,1	0,177493
5,824167	0,1	0,150003
5,825833	0,1	0,178225
5,827500	0,1	0,206107
5,829167	0,1	0,186800
5,830833	0,1	0,222076
5,832500	0,1	0,203512
5,834167	0,1	0,160566
5,835833	0,1	0,164162
5,837500	0,1	0,187918
5,839167	0,1	0,169607
5,840833	0,1	0,194615
5,842500	0,1	0,164974
5,844167	0,1	0,160203
5,845833	0,1	0,178614
5,847500	0,1	0,170732
5,849167	0,1	0,160462
5,850833	0,1	0,136222
5,852500	0,1	0,169145
5,854167	0,1	0,133617
5,855833	0,1	0,142204
5,857500	0,1	0,174102
5,859167	0,1	0,137448
5,860833	0,1	0,138631
5,862500	0,1	0,170594
5,864167	0,1	0,185955
5,865833	0,1	0,160498
5,867500	0,1	0,155760
5,869167	0,1	0,146875
5,870833	0,1	0,160071
5,872500	0,1	0,131911
5,874167	0,1	0,111722
5,875833	0,1	0,165309
5,877500	0,1	0,194130
5,879167	0,1	0,131176
5,880833	0,1	0,177512
5,882500	0,1	0,104393
5,884167	0,1	0,170295
5,885833	0,1	0,109256
5,887500	0,1	0,143806
5,889167	0,1	0,150382
5,890833	0,1	0,177838
5,892500	0,1	0,118298
5,894167	0,1	0,184205
5,895833	0,1	0,140381
5,897500	0,1	0,119577
5,899167	0,1	0,138434
5,900833	0,1	0,138922
5,902500	0,1	0,114750
5,904167	0,1	0,134315
5,905833	0,1	0,106805
5,907500	0,1	0,125656
5,909167	0,1	0,125046
5,910833	0,1	0,137600
5,912500	0,1	0,166346
5,914167	0,1	0,146010
5,915833	0,1	0,128977
5,917500	0,1	0,167661
5,919167	0,1	0,071408
5,920833	0,1	0,088020
5,922500	0,1	0,093109
5,924167	0,1	0,131863
5,925833	0,1	0,105257
5,927500	0,1	0,160609
5,929167	0,1	0,082221
5,930833	0,1	0,135979
5,932500	0,1	0,128235
5,934167	0,1	0,103162
5,935833	0,1	0,122402
5,937500	0,1	0,129939
5,939167	0,1	0,106028
5,940833	0,1	0,122595
5,942500	0,1	0,106994
5,944167	0,1	0,069011
5,945833	0,1	0,122006
5,947500	0,1	0,100489
5,949167	0,1	0,100065
5,950833	0,1	0,119926
5,952500	0,1	0,079537
5,954167	0,1	0,073862
5,955833	0,1	0,075148
5,957500	0,1	0,104048
5,959167	0,1	0,108050
5,960833	0,1	0,075028
5,962500	0,1	0,072834
5,964167	0,1	0,078529
5,965833	0,1	0,070163
5,967500	0,1	0,085642
5,969167	0,1	0,062342
5,970833	0,1	0,086927
5,972500	0,1	0,093753
5,974167	0,1	0,067046
5,975833	0,1	0,044125
5,977500	0,1	0,119237
5,979167	0,1	0,056912
5,980833	0,1	0,058191
5,982500	0,1	0,050432
5,984167	0,1	0,062115
5,985833	0,1	0,101923
5,987500	0,1	0,067564
5,989167	0,1	0,082395
5,990833	0,1	0,078920
5,992500	0,1	0,079399
5,994167	0,1	0,075798
5,995833	0,1	0,076313
5,997500	0,1	0,059899
5,999167	0,1	0,089473
6,000833	0,1	0,077118
