File Path	chrom://chromeleon01/ikbm_chromeleon/2022/Rezex/Esteban/220612_chitin_4_7.seq/120.smp/UV_VIS_1.channel/UV_VIS_1.chm
Channel	UV_VIS_1

Injection Information:
Data Vault	ikbm_chromeleon
Injection	A2ox 10
Injection Number	126
Position	RA1
Comment	
Processing Method	New ProcMethod
Instrument Method	Short_Rezex_6min_194nm
Type	Calibration Standard
Status	Finished
Injection Date	13.06.2022
Injection Time	06:42:54
Injection Volume (µl)	8,000
Dilution Factor	1,0000
Weight	1,0000

Chromatogram Data Information:
Time Min. (min)	0,000833
Time Max. (min)	6,000833
Data Points	3601
Detector	UV
Generating Data System	Chromeleon 7.2.9.11323
Exporting Data System	Chromeleon 7.2.9.0
Operator	Instrument Controller
Signal Quantity	Absorbance
Signal Unit	mAU
Signal Min.	-3,170635
Signal Max.	4,941445
Channel	UV_VIS_1
Driver Name	VWD3000.dll
Channel Type	Evaluation
Min. Step (s)	0,1
Max. Step (s)	0,1
Average Step (s)	0,1

Signal Parameter Information:
Signal Info	WVL:194 nm

Chromatogram Data:
Time (min)	Step (s)	Value (mAU)
0,000833	n.a.	0,045275
0,002500	0,1	0,039495
0,004167	0,1	0,025690
0,005833	0,1	0,017233
0,007500	0,1	0,019513
0,009167	0,1	0,008659
0,010833	0,1	0,043864
0,012500	0,1	0,000118
0,014167	0,1	0,033715
0,015833	0,1	-0,002867
0,017500	0,1	0,051503
0,019167	0,1	0,057559
0,020833	0,1	0,003958
0,022500	0,1	0,009774
0,024167	0,1	-0,018481
0,025833	0,1	0,015711
0,027500	0,1	0,046071
0,029167	0,1	0,006469
0,030833	0,1	0,003424
0,032500	0,1	0,023236
0,034167	0,1	0,020969
0,035833	0,1	0,025104
0,037500	0,1	-0,021273
0,039167	0,1	0,010692
0,040833	0,1	0,047360
0,042500	0,1	0,006692
0,044167	0,1	0,016425
0,045833	0,1	-0,010906
0,047500	0,1	0,036526
0,049167	0,1	0,017647
0,050833	0,1	0,007393
0,052500	0,1	0,028306
0,054167	0,1	0,008627
0,055833	0,1	0,045848
0,057500	0,1	0,067835
0,059167	0,1	0,005661
0,060833	0,1	0,032434
0,062500	0,1	0,041194
0,064167	0,1	0,036641
0,065833	0,1	0,047827
0,067500	0,1	0,008323
0,069167	0,1	0,029751
0,070833	0,1	0,036476
0,072500	0,1	0,010655
0,074167	0,1	0,013273
0,075833	0,1	0,046258
0,077500	0,1	0,062466
0,079167	0,1	0,002447
0,080833	0,1	0,009903
0,082500	0,1	0,038444
0,084167	0,1	0,050864
0,085833	0,1	-0,014052
0,087500	0,1	0,025737
0,089167	0,1	0,025507
0,090833	0,1	0,037577
0,092500	0,1	-0,005773
0,094167	0,1	0,006217
0,095833	0,1	0,020151
0,097500	0,1	0,040310
0,099167	0,1	0,066251
0,100833	0,1	0,034262
0,102500	0,1	-0,005663
0,104167	0,1	0,011755
0,105833	0,1	0,036232
0,107500	0,1	0,018936
0,109167	0,1	-0,000665
0,110833	0,1	0,045084
0,112500	0,1	0,040146
0,114167	0,1	0,026510
0,115833	0,1	0,009729
0,117500	0,1	0,005288
0,119167	0,1	0,004998
0,120833	0,1	0,015015
0,122500	0,1	0,008966
0,124167	0,1	0,013990
0,125833	0,1	-0,013301
0,127500	0,1	0,012155
0,129167	0,1	0,022770
0,130833	0,1	0,003421
0,132500	0,1	-0,003217
0,134167	0,1	-0,008406
0,135833	0,1	0,011584
0,137500	0,1	0,051037
0,139167	0,1	0,021624
0,140833	0,1	-0,008862
0,142500	0,1	0,066820
0,144167	0,1	0,026749
0,145833	0,1	0,023294
0,147500	0,1	0,017933
0,149167	0,1	0,007615
0,150833	0,1	-0,000950
0,152500	0,1	0,046314
0,154167	0,1	0,059901
0,155833	0,1	0,050869
0,157500	0,1	0,010666
0,159167	0,1	-0,004334
0,160833	0,1	0,049579
0,162500	0,1	0,023188
0,164167	0,1	0,004830
0,165833	0,1	0,013920
0,167500	0,1	0,030361
0,169167	0,1	0,003320
0,170833	0,1	0,003476
0,172500	0,1	0,057727
0,174167	0,1	0,065674
0,175833	0,1	0,037647
0,177500	0,1	0,032382
0,179167	0,1	0,041613
0,180833	0,1	0,032161
0,182500	0,1	0,029245
0,184167	0,1	0,015849
0,185833	0,1	0,046318
0,187500	0,1	0,036128
0,189167	0,1	-0,006602
0,190833	0,1	0,005301
0,192500	0,1	0,050335
0,194167	0,1	0,005709
0,195833	0,1	0,012681
0,197500	0,1	0,037684
0,199167	0,1	0,006407
0,200833	0,1	0,006161
0,202500	0,1	0,027555
0,204167	0,1	0,021611
0,205833	0,1	0,004590
0,207500	0,1	0,000620
0,209167	0,1	0,018980
0,210833	0,1	-0,005538
0,212500	0,1	0,008550
0,214167	0,1	0,006178
0,215833	0,1	0,046256
0,217500	0,1	0,029248
0,219167	0,1	0,048237
0,220833	0,1	0,039045
0,222500	0,1	-0,020575
0,224167	0,1	-0,020241
0,225833	0,1	0,064302
0,227500	0,1	0,005593
0,229167	0,1	0,025794
0,230833	0,1	0,012978
0,232500	0,1	0,007222
0,234167	0,1	0,017221
0,235833	0,1	0,030122
0,237500	0,1	0,017645
0,239167	0,1	-0,030666
0,240833	0,1	0,014964
0,242500	0,1	0,042993
0,244167	0,1	0,021023
0,245833	0,1	0,036164
0,247500	0,1	0,036238
0,249167	0,1	0,033314
0,250833	0,1	0,028654
0,252500	0,1	0,011122
0,254167	0,1	0,032326
0,255833	0,1	0,047657
0,257500	0,1	-0,020991
0,259167	0,1	0,007273
0,260833	0,1	0,033315
0,262500	0,1	0,013860
0,264167	0,1	0,001323
0,265833	0,1	-0,000543
0,267500	0,1	0,021425
0,269167	0,1	0,046833
0,270833	0,1	0,037590
0,272500	0,1	-0,000764
0,274167	0,1	0,037040
0,275833	0,1	0,011758
0,277500	0,1	0,024812
0,279167	0,1	0,026148
0,280833	0,1	0,038508
0,282500	0,1	0,036929
0,284167	0,1	0,025340
0,285833	0,1	0,024165
0,287500	0,1	0,010762
0,289167	0,1	0,018043
0,290833	0,1	0,054773
0,292500	0,1	0,053893
0,294167	0,1	0,058029
0,295833	0,1	0,028670
0,297500	0,1	0,049928
0,299167	0,1	0,031232
0,300833	0,1	0,026561
0,302500	0,1	0,021431
0,304167	0,1	0,068571
0,305833	0,1	0,024185
0,307500	0,1	0,035995
0,309167	0,1	0,009791
0,310833	0,1	0,022248
0,312500	0,1	0,016651
0,314167	0,1	0,030172
0,315833	0,1	0,032799
0,317500	0,1	0,027911
0,319167	0,1	0,045151
0,320833	0,1	0,031683
0,322500	0,1	0,043169
0,324167	0,1	0,028015
0,325833	0,1	0,043186
0,327500	0,1	0,036941
0,329167	0,1	0,039493
0,330833	0,1	0,076257
0,332500	0,1	0,049189
0,334167	0,1	0,077974
0,335833	0,1	0,049010
0,337500	0,1	0,043874
0,339167	0,1	0,024299
0,340833	0,1	0,013618
0,342500	0,1	0,046711
0,344167	0,1	0,014504
0,345833	0,1	0,009069
0,347500	0,1	0,035478
0,349167	0,1	0,078320
0,350833	0,1	0,060711
0,352500	0,1	0,069281
0,354167	0,1	0,045211
0,355833	0,1	0,023701
0,357500	0,1	0,031568
0,359167	0,1	0,024406
0,360833	0,1	0,029824
0,362500	0,1	0,007807
0,364167	0,1	-0,001764
0,365833	0,1	0,038100
0,367500	0,1	0,052315
0,369167	0,1	0,024343
0,370833	0,1	0,019737
0,372500	0,1	0,062287
0,374167	0,1	-0,002734
0,375833	0,1	0,011868
0,377500	0,1	0,048593
0,379167	0,1	0,040147
0,380833	0,1	0,073603
0,382500	0,1	0,032400
0,384167	0,1	0,036698
0,385833	0,1	0,056982
0,387500	0,1	0,006173
0,389167	0,1	0,017238
0,390833	0,1	0,025916
0,392500	0,1	0,059555
0,394167	0,1	0,040030
0,395833	0,1	0,025348
0,397500	0,1	0,016362
0,399167	0,1	0,017231
0,400833	0,1	0,054705
0,402500	0,1	0,087993
0,404167	0,1	0,064279
0,405833	0,1	0,049468
0,407500	0,1	0,088152
0,409167	0,1	-0,016956
0,410833	0,1	0,057081
0,412500	0,1	0,020678
0,414167	0,1	0,050661
0,415833	0,1	0,069448
0,417500	0,1	0,016423
0,419167	0,1	0,029411
0,420833	0,1	0,059837
0,422500	0,1	0,045219
0,424167	0,1	0,026325
0,425833	0,1	0,036705
0,427500	0,1	0,080584
0,429167	0,1	0,025477
0,430833	0,1	0,024866
0,432500	0,1	0,027021
0,434167	0,1	0,048716
0,435833	0,1	0,049985
0,437500	0,1	0,072945
0,439167	0,1	0,061700
0,440833	0,1	0,020098
0,442500	0,1	0,063150
0,444167	0,1	0,003258
0,445833	0,1	0,009654
0,447500	0,1	0,040307
0,449167	0,1	0,063735
0,450833	0,1	0,046492
0,452500	0,1	0,049070
0,454167	0,1	0,074055
0,455833	0,1	0,032169
0,457500	0,1	0,051102
0,459167	0,1	0,031881
0,460833	0,1	0,059265
0,462500	0,1	0,047184
0,464167	0,1	0,036009
0,465833	0,1	0,031109
0,467500	0,1	-0,042417
0,469167	0,1	0,036670
0,470833	0,1	0,054189
0,472500	0,1	0,035549
0,474167	0,1	0,047707
0,475833	0,1	0,056696
0,477500	0,1	0,063799
0,479167	0,1	0,051631
0,480833	0,1	0,032727
0,482500	0,1	0,074764
0,484167	0,1	0,040904
0,485833	0,1	0,041308
0,487500	0,1	0,004296
0,489167	0,1	0,048239
0,490833	0,1	0,044343
0,492500	0,1	-0,000659
0,494167	0,1	0,052546
0,495833	0,1	0,033096
0,497500	0,1	0,106350
0,499167	0,1	0,049767
0,500833	0,1	0,079897
0,502500	0,1	0,024998
0,504167	0,1	0,050980
0,505833	0,1	0,065492
0,507500	0,1	0,056700
0,509167	0,1	0,056878
0,510833	0,1	0,047311
0,512500	0,1	0,010545
0,514167	0,1	0,061636
0,515833	0,1	0,076735
0,517500	0,1	0,079592
0,519167	0,1	0,031870
0,520833	0,1	0,033792
0,522500	0,1	0,071037
0,524167	0,1	0,040213
0,525833	0,1	0,034707
0,527500	0,1	0,059898
0,529167	0,1	0,077435
0,530833	0,1	0,087646
0,532500	0,1	0,079134
0,534167	0,1	0,070677
0,535833	0,1	0,041383
0,537500	0,1	0,056522
0,539167	0,1	0,068628
0,540833	0,1	0,044640
0,542500	0,1	0,085535
0,544167	0,1	0,037000
0,545833	0,1	0,060881
0,547500	0,1	0,066496
0,549167	0,1	0,061949
0,550833	0,1	0,066897
0,552500	0,1	0,011653
0,554167	0,1	0,042864
0,555833	0,1	0,099531
0,557500	0,1	0,070461
0,559167	0,1	0,075463
0,560833	0,1	0,054487
0,562500	0,1	0,045038
0,564167	0,1	0,083382
0,565833	0,1	0,061481
0,567500	0,1	0,059092
0,569167	0,1	0,075400
0,570833	0,1	0,058915
0,572500	0,1	0,065434
0,574167	0,1	0,096219
0,575833	0,1	0,120703
0,577500	0,1	0,099077
0,579167	0,1	0,045697
0,580833	0,1	0,037582
0,582500	0,1	0,055531
0,584167	0,1	0,094405
0,585833	0,1	0,067715
0,587500	0,1	0,101039
0,589167	0,1	0,043305
0,590833	0,1	0,071140
0,592500	0,1	0,022724
0,594167	0,1	0,103963
0,595833	0,1	0,097682
0,597500	0,1	0,030483
0,599167	0,1	0,074804
0,600833	0,1	0,052215
0,602500	0,1	0,055595
0,604167	0,1	0,086470
0,605833	0,1	0,050583
0,607500	0,1	0,046379
0,609167	0,1	0,088171
0,610833	0,1	0,060140
0,612500	0,1	0,100887
0,614167	0,1	0,069411
0,615833	0,1	0,084619
0,617500	0,1	0,092548
0,619167	0,1	0,090495
0,620833	0,1	0,092077
0,622500	0,1	0,071561
0,624167	0,1	0,105537
0,625833	0,1	0,110916
0,627500	0,1	0,063491
0,629167	0,1	0,059272
0,630833	0,1	0,076522
0,632500	0,1	0,099259
0,634167	0,1	0,114619
0,635833	0,1	0,083179
0,637500	0,1	0,085615
0,639167	0,1	0,144765
0,640833	0,1	0,097171
0,642500	0,1	0,094134
0,644167	0,1	0,108240
0,645833	0,1	0,074902
0,647500	0,1	0,063242
0,649167	0,1	0,043005
0,650833	0,1	0,104669
0,652500	0,1	0,101057
0,654167	0,1	0,124780
0,655833	0,1	0,104208
0,657500	0,1	0,142966
0,659167	0,1	0,091340
0,660833	0,1	0,043423
0,662500	0,1	0,056474
0,664167	0,1	0,099955
0,665833	0,1	0,136782
0,667500	0,1	0,114310
0,669167	0,1	0,096812
0,670833	0,1	0,142454
0,672500	0,1	0,101888
0,674167	0,1	0,156371
0,675833	0,1	0,089239
0,677500	0,1	0,151708
0,679167	0,1	0,118862
0,680833	0,1	0,125606
0,682500	0,1	0,104969
0,684167	0,1	0,125943
0,685833	0,1	0,135407
0,687500	0,1	0,116874
0,689167	0,1	0,133894
0,690833	0,1	0,179404
0,692500	0,1	0,100554
0,694167	0,1	0,119262
0,695833	0,1	0,095522
0,697500	0,1	0,098090
0,699167	0,1	0,093141
0,700833	0,1	0,134869
0,702500	0,1	0,124800
0,704167	0,1	0,136680
0,705833	0,1	0,122636
0,707500	0,1	0,145364
0,709167	0,1	0,117629
0,710833	0,1	0,131028
0,712500	0,1	0,144024
0,714167	0,1	0,118330
0,715833	0,1	0,157148
0,717500	0,1	0,161186
0,719167	0,1	0,184661
0,720833	0,1	0,144170
0,722500	0,1	0,125793
0,724167	0,1	0,145898
0,725833	0,1	0,176224
0,727500	0,1	0,190159
0,729167	0,1	0,162053
0,730833	0,1	0,180305
0,732500	0,1	0,172082
0,734167	0,1	0,191839
0,735833	0,1	0,183749
0,737500	0,1	0,201159
0,739167	0,1	0,191035
0,740833	0,1	0,204621
0,742500	0,1	0,227701
0,744167	0,1	0,223581
0,745833	0,1	0,236347
0,747500	0,1	0,224609
0,749167	0,1	0,232329
0,750833	0,1	0,228942
0,752500	0,1	0,222360
0,754167	0,1	0,196245
0,755833	0,1	0,199783
0,757500	0,1	0,244631
0,759167	0,1	0,189594
0,760833	0,1	0,243549
0,762500	0,1	0,193286
0,764167	0,1	0,201874
0,765833	0,1	0,211618
0,767500	0,1	0,237031
0,769167	0,1	0,214483
0,770833	0,1	0,236236
0,772500	0,1	0,188431
0,774167	0,1	0,220486
0,775833	0,1	0,214188
0,777500	0,1	0,199606
0,779167	0,1	0,164452
0,780833	0,1	0,222803
0,782500	0,1	0,162437
0,784167	0,1	0,214174
0,785833	0,1	0,174256
0,787500	0,1	0,202005
0,789167	0,1	0,214582
0,790833	0,1	0,200259
0,792500	0,1	0,137603
0,794167	0,1	0,181824
0,795833	0,1	0,153547
0,797500	0,1	0,152388
0,799167	0,1	0,165710
0,800833	0,1	0,187773
0,802500	0,1	0,190632
0,804167	0,1	0,153270
0,805833	0,1	0,180534
0,807500	0,1	0,151464
0,809167	0,1	0,149558
0,810833	0,1	0,172304
0,812500	0,1	0,133857
0,814167	0,1	0,145428
0,815833	0,1	0,146266
0,817500	0,1	0,134431
0,819167	0,1	0,136003
0,820833	0,1	0,108831
0,822500	0,1	0,158901
0,824167	0,1	0,155935
0,825833	0,1	0,132910
0,827500	0,1	0,121594
0,829167	0,1	0,149091
0,830833	0,1	0,148167
0,832500	0,1	0,145673
0,834167	0,1	0,172014
0,835833	0,1	0,127133
0,837500	0,1	0,099500
0,839167	0,1	0,147816
0,840833	0,1	0,129943
0,842500	0,1	0,155807
0,844167	0,1	0,099046
0,845833	0,1	0,145819
0,847500	0,1	0,104444
0,849167	0,1	0,113613
0,850833	0,1	0,100129
0,852500	0,1	0,100135
0,854167	0,1	0,073367
0,855833	0,1	0,126649
0,857500	0,1	0,081207
0,859167	0,1	0,105802
0,860833	0,1	0,110868
0,862500	0,1	0,103765
0,864167	0,1	0,132716
0,865833	0,1	0,097177
0,867500	0,1	0,100727
0,869167	0,1	0,108010
0,870833	0,1	0,092623
0,872500	0,1	0,119359
0,874167	0,1	0,144843
0,875833	0,1	0,135002
0,877500	0,1	0,100844
0,879167	0,1	0,050196
0,880833	0,1	0,126291
0,882500	0,1	0,043218
0,884167	0,1	0,079203
0,885833	0,1	0,097056
0,887500	0,1	0,126944
0,889167	0,1	0,118726
0,890833	0,1	0,129164
0,892500	0,1	0,107655
0,894167	0,1	0,141745
0,895833	0,1	0,117568
0,897500	0,1	0,115479
0,899167	0,1	0,110759
0,900833	0,1	0,147625
0,902500	0,1	0,140351
0,904167	0,1	0,136864
0,905833	0,1	0,114611
0,907500	0,1	0,099368
0,909167	0,1	0,115002
0,910833	0,1	0,141407
0,912500	0,1	0,120022
0,914167	0,1	0,102454
0,915833	0,1	0,138427
0,917500	0,1	0,117787
0,919167	0,1	0,129066
0,920833	0,1	0,111864
0,922500	0,1	0,159422
0,924167	0,1	0,113214
0,925833	0,1	0,143559
0,927500	0,1	0,138751
0,929167	0,1	0,113489
0,930833	0,1	0,140512
0,932500	0,1	0,121726
0,934167	0,1	0,114719
0,935833	0,1	0,122180
0,937500	0,1	0,140235
0,939167	0,1	0,141702
0,940833	0,1	0,132376
0,942500	0,1	0,136463
0,944167	0,1	0,170836
0,945833	0,1	0,170096
0,947500	0,1	0,144106
0,949167	0,1	0,163046
0,950833	0,1	0,129245
0,952500	0,1	0,139306
0,954167	0,1	0,157915
0,955833	0,1	0,169099
0,957500	0,1	0,131932
0,959167	0,1	0,153062
0,960833	0,1	0,178076
0,962500	0,1	0,165075
0,964167	0,1	0,169393
0,965833	0,1	0,208984
0,967500	0,1	0,139106
0,969167	0,1	0,181571
0,970833	0,1	0,170522
0,972500	0,1	0,162182
0,974167	0,1	0,221046
0,975833	0,1	0,161674
0,977500	0,1	0,186767
0,979167	0,1	0,172494
0,980833	0,1	0,208418
0,982500	0,1	0,218662
0,984167	0,1	0,175950
0,985833	0,1	0,200891
0,987500	0,1	0,210141
0,989167	0,1	0,192333
0,990833	0,1	0,178388
0,992500	0,1	0,169940
0,994167	0,1	0,198783
0,995833	0,1	0,212960
0,997500	0,1	0,189466
0,999167	0,1	0,237743
1,000833	0,1	0,216347
1,002500	0,1	0,216691
1,004167	0,1	0,230235
1,005833	0,1	0,215088
1,007500	0,1	0,313409
1,009167	0,1	0,238752
1,010833	0,1	0,237053
1,012500	0,1	0,252291
1,014167	0,1	0,266041
1,015833	0,1	0,280829
1,017500	0,1	0,240452
1,019167	0,1	0,294154
1,020833	0,1	0,276205
1,022500	0,1	0,295201
1,024167	0,1	0,337408
1,025833	0,1	0,336960
1,027500	0,1	0,293369
1,029167	0,1	0,320468
1,030833	0,1	0,349145
1,032500	0,1	0,346770
1,034167	0,1	0,344430
1,035833	0,1	0,345378
1,037500	0,1	0,352208
1,039167	0,1	0,358776
1,040833	0,1	0,342404
1,042500	0,1	0,355274
1,044167	0,1	0,371150
1,045833	0,1	0,338099
1,047500	0,1	0,340413
1,049167	0,1	0,325719
1,050833	0,1	0,344396
1,052500	0,1	0,354298
1,054167	0,1	0,319200
1,055833	0,1	0,383102
1,057500	0,1	0,366068
1,059167	0,1	0,379002
1,060833	0,1	0,390834
1,062500	0,1	0,456749
1,064167	0,1	0,417951
1,065833	0,1	0,425580
1,067500	0,1	0,384718
1,069167	0,1	0,462189
1,070833	0,1	0,494315
1,072500	0,1	0,510553
1,074167	0,1	0,553290
1,075833	0,1	0,569554
1,077500	0,1	0,589807
1,079167	0,1	0,680924
1,080833	0,1	0,654634
1,082500	0,1	0,695755
1,084167	0,1	0,691913
1,085833	0,1	0,712422
1,087500	0,1	0,718507
1,089167	0,1	0,661492
1,090833	0,1	0,617973
1,092500	0,1	0,553127
1,094167	0,1	0,464588
1,095833	0,1	0,347500
1,097500	0,1	0,207516
1,099167	0,1	0,079534
1,100833	0,1	-0,099991
1,102500	0,1	-0,332495
1,104167	0,1	-0,480782
1,105833	0,1	-0,684976
1,107500	0,1	-0,921994
1,109167	0,1	-1,114712
1,110833	0,1	-1,302155
1,112500	0,1	-1,568553
1,114167	0,1	-1,761969
1,115833	0,1	-1,952812
1,117500	0,1	-2,188759
1,119167	0,1	-2,345985
1,120833	0,1	-2,498768
1,122500	0,1	-2,659834
1,124167	0,1	-2,762486
1,125833	0,1	-2,878816
1,127500	0,1	-2,951183
1,129167	0,1	-3,054830
1,130833	0,1	-3,127645
1,132500	0,1	-3,094365
1,134167	0,1	-3,170635
1,135833	0,1	-3,159992
1,137500	0,1	-3,123990
1,139167	0,1	-3,104519
1,140833	0,1	-3,094720
1,142500	0,1	-3,011469
1,144167	0,1	-2,919876
1,145833	0,1	-2,893051
1,147500	0,1	-2,785615
1,149167	0,1	-2,732332
1,150833	0,1	-2,601808
1,152500	0,1	-2,485250
1,154167	0,1	-2,371411
1,155833	0,1	-2,271475
1,157500	0,1	-2,132513
1,159167	0,1	-2,003363
1,160833	0,1	-1,927343
1,162500	0,1	-1,818302
1,164167	0,1	-1,656675
1,165833	0,1	-1,594742
1,167500	0,1	-1,431515
1,169167	0,1	-1,337973
1,170833	0,1	-1,237578
1,172500	0,1	-1,102659
1,174167	0,1	-1,052640
1,175833	0,1	-0,946278
1,177500	0,1	-0,828263
1,179167	0,1	-0,727274
1,180833	0,1	-0,637017
1,182500	0,1	-0,603552
1,184167	0,1	-0,521248
1,185833	0,1	-0,411318
1,187500	0,1	-0,337926
1,189167	0,1	-0,324282
1,190833	0,1	-0,233778
1,192500	0,1	-0,131705
1,194167	0,1	-0,120139
1,195833	0,1	-0,062931
1,197500	0,1	0,005324
1,199167	0,1	0,045445
1,200833	0,1	0,078262
1,202500	0,1	0,124155
1,204167	0,1	0,150337
1,205833	0,1	0,208061
1,207500	0,1	0,245201
1,209167	0,1	0,293728
1,210833	0,1	0,292639
1,212500	0,1	0,349795
1,214167	0,1	0,364092
1,215833	0,1	0,388641
1,217500	0,1	0,380859
1,219167	0,1	0,451317
1,220833	0,1	0,453674
1,222500	0,1	0,484934
1,224167	0,1	0,531172
1,225833	0,1	0,512320
1,227500	0,1	0,528444
1,229167	0,1	0,530271
1,230833	0,1	0,589735
1,232500	0,1	0,603708
1,234167	0,1	0,600957
1,235833	0,1	0,643012
1,237500	0,1	0,615190
1,239167	0,1	0,617195
1,240833	0,1	0,658132
1,242500	0,1	0,619256
1,244167	0,1	0,587025
1,245833	0,1	0,663261
1,247500	0,1	0,672370
1,249167	0,1	0,634564
1,250833	0,1	0,665966
1,252500	0,1	0,680349
1,254167	0,1	0,676540
1,255833	0,1	0,689354
1,257500	0,1	0,680003
1,259167	0,1	0,696367
1,260833	0,1	0,691890
1,262500	0,1	0,675031
1,264167	0,1	0,690335
1,265833	0,1	0,674842
1,267500	0,1	0,668709
1,269167	0,1	0,678526
1,270833	0,1	0,735004
1,272500	0,1	0,698671
1,274167	0,1	0,685228
1,275833	0,1	0,699466
1,277500	0,1	0,686715
1,279167	0,1	0,716511
1,280833	0,1	0,678272
1,282500	0,1	0,676374
1,284167	0,1	0,686646
1,285833	0,1	0,665173
1,287500	0,1	0,734259
1,289167	0,1	0,684006
1,290833	0,1	0,717543
1,292500	0,1	0,658964
1,294167	0,1	0,659843
1,295833	0,1	0,633192
1,297500	0,1	0,697111
1,299167	0,1	0,620879
1,300833	0,1	0,672360
1,302500	0,1	0,638598
1,304167	0,1	0,620512
1,305833	0,1	0,645318
1,307500	0,1	0,632193
1,309167	0,1	0,611234
1,310833	0,1	0,651360
1,312500	0,1	0,603575
1,314167	0,1	0,613254
1,315833	0,1	0,612514
1,317500	0,1	0,638230
1,319167	0,1	0,618728
1,320833	0,1	0,621769
1,322500	0,1	0,626865
1,324167	0,1	0,575762
1,325833	0,1	0,554092
1,327500	0,1	0,610983
1,329167	0,1	0,588864
1,330833	0,1	0,605839
1,332500	0,1	0,590874
1,334167	0,1	0,521735
1,335833	0,1	0,530558
1,337500	0,1	0,565612
1,339167	0,1	0,582185
1,340833	0,1	0,543183
1,342500	0,1	0,550335
1,344167	0,1	0,587732
1,345833	0,1	0,555959
1,347500	0,1	0,550754
1,349167	0,1	0,551208
1,350833	0,1	0,523486
1,352500	0,1	0,528177
1,354167	0,1	0,514577
1,355833	0,1	0,538239
1,357500	0,1	0,508204
1,359167	0,1	0,504821
1,360833	0,1	0,484160
1,362500	0,1	0,530778
1,364167	0,1	0,511018
1,365833	0,1	0,508508
1,367500	0,1	0,506374
1,369167	0,1	0,535834
1,370833	0,1	0,494603
1,372500	0,1	0,520283
1,374167	0,1	0,483522
1,375833	0,1	0,477614
1,377500	0,1	0,468131
1,379167	0,1	0,484855
1,380833	0,1	0,488625
1,382500	0,1	0,481881
1,384167	0,1	0,461300
1,385833	0,1	0,455046
1,387500	0,1	0,488808
1,389167	0,1	0,445760
1,390833	0,1	0,500708
1,392500	0,1	0,466191
1,394167	0,1	0,436060
1,395833	0,1	0,444420
1,397500	0,1	0,412024
1,399167	0,1	0,431020
1,400833	0,1	0,430655
1,402500	0,1	0,421672
1,404167	0,1	0,434194
1,405833	0,1	0,417058
1,407500	0,1	0,438870
1,409167	0,1	0,431315
1,410833	0,1	0,428791
1,412500	0,1	0,444356
1,414167	0,1	0,382659
1,415833	0,1	0,433086
1,417500	0,1	0,418525
1,419167	0,1	0,385588
1,420833	0,1	0,402366
1,422500	0,1	0,437230
1,424167	0,1	0,424486
1,425833	0,1	0,392954
1,427500	0,1	0,423649
1,429167	0,1	0,457645
1,430833	0,1	0,403009
1,432500	0,1	0,407108
1,434167	0,1	0,407365
1,435833	0,1	0,409967
1,437500	0,1	0,402495
1,439167	0,1	0,382895
1,440833	0,1	0,368115
1,442500	0,1	0,418193
1,444167	0,1	0,400802
1,445833	0,1	0,390364
1,447500	0,1	0,415262
1,449167	0,1	0,409687
1,450833	0,1	0,385690
1,452500	0,1	0,419111
1,454167	0,1	0,407112
1,455833	0,1	0,390991
1,457500	0,1	0,368654
1,459167	0,1	0,387605
1,460833	0,1	0,374409
1,462500	0,1	0,425920
1,464167	0,1	0,353784
1,465833	0,1	0,428235
1,467500	0,1	0,418048
1,469167	0,1	0,414838
1,470833	0,1	0,396767
1,472500	0,1	0,379087
1,474167	0,1	0,408992
1,475833	0,1	0,361890
1,477500	0,1	0,395637
1,479167	0,1	0,365509
1,480833	0,1	0,391745
1,482500	0,1	0,377575
1,484167	0,1	0,365609
1,485833	0,1	0,349293
1,487500	0,1	0,363573
1,489167	0,1	0,385390
1,490833	0,1	0,375069
1,492500	0,1	0,387714
1,494167	0,1	0,380184
1,495833	0,1	0,372299
1,497500	0,1	0,387667
1,499167	0,1	0,387487
1,500833	0,1	0,349299
1,502500	0,1	0,367588
1,504167	0,1	0,390217
1,505833	0,1	0,361535
1,507500	0,1	0,361053
1,509167	0,1	0,394829
1,510833	0,1	0,352508
1,512500	0,1	0,390213
1,514167	0,1	0,361947
1,515833	0,1	0,341763
1,517500	0,1	0,418484
1,519167	0,1	0,379295
1,520833	0,1	0,357208
1,522500	0,1	0,361070
1,524167	0,1	0,385160
1,525833	0,1	0,352703
1,527500	0,1	0,343808
1,529167	0,1	0,376112
1,530833	0,1	0,367505
1,532500	0,1	0,334707
1,534167	0,1	0,385399
1,535833	0,1	0,332665
1,537500	0,1	0,409746
1,539167	0,1	0,359766
1,540833	0,1	0,373153
1,542500	0,1	0,357682
1,544167	0,1	0,366325
1,545833	0,1	0,366997
1,547500	0,1	0,344223
1,549167	0,1	0,364609
1,550833	0,1	0,358048
1,552500	0,1	0,355495
1,554167	0,1	0,351568
1,555833	0,1	0,380175
1,557500	0,1	0,380182
1,559167	0,1	0,357622
1,560833	0,1	0,358074
1,562500	0,1	0,349749
1,564167	0,1	0,363512
1,565833	0,1	0,352943
1,567500	0,1	0,324165
1,569167	0,1	0,335216
1,570833	0,1	0,344964
1,572500	0,1	0,351091
1,574167	0,1	0,380254
1,575833	0,1	0,361533
1,577500	0,1	0,380635
1,579167	0,1	0,368467
1,580833	0,1	0,370819
1,582500	0,1	0,375170
1,584167	0,1	0,331545
1,585833	0,1	0,345587
1,587500	0,1	0,406875
1,589167	0,1	0,379089
1,590833	0,1	0,382229
1,592500	0,1	0,352094
1,594167	0,1	0,347884
1,595833	0,1	0,328165
1,597500	0,1	0,391841
1,599167	0,1	0,370975
1,600833	0,1	0,356932
1,602500	0,1	0,364505
1,604167	0,1	0,373182
1,605833	0,1	0,338511
1,607500	0,1	0,380647
1,609167	0,1	0,335168
1,610833	0,1	0,323044
1,612500	0,1	0,388308
1,614167	0,1	0,356921
1,615833	0,1	0,353443
1,617500	0,1	0,395819
1,619167	0,1	0,386866
1,620833	0,1	0,357210
1,622500	0,1	0,366703
1,624167	0,1	0,324212
1,625833	0,1	0,358679
1,627500	0,1	0,380880
1,629167	0,1	0,393428
1,630833	0,1	0,367660
1,632500	0,1	0,350454
1,634167	0,1	0,378541
1,635833	0,1	0,402287
1,637500	0,1	0,369464
1,639167	0,1	0,428197
1,640833	0,1	0,356445
1,642500	0,1	0,383279
1,644167	0,1	0,364450
1,645833	0,1	0,393686
1,647500	0,1	0,343587
1,649167	0,1	0,398736
1,650833	0,1	0,419159
1,652500	0,1	0,444539
1,654167	0,1	0,430843
1,655833	0,1	0,461246
1,657500	0,1	0,509510
1,659167	0,1	0,502564
1,660833	0,1	0,541942
1,662500	0,1	0,518886
1,664167	0,1	0,549399
1,665833	0,1	0,587526
1,667500	0,1	0,599316
1,669167	0,1	0,641586
1,670833	0,1	0,708319
1,672500	0,1	0,715649
1,674167	0,1	0,733528
1,675833	0,1	0,757266
1,677500	0,1	0,812850
1,679167	0,1	0,862544
1,680833	0,1	0,894221
1,682500	0,1	0,957950
1,684167	0,1	1,001335
1,685833	0,1	1,060042
1,687500	0,1	1,063269
1,689167	0,1	1,139654
1,690833	0,1	1,192061
1,692500	0,1	1,291014
1,694167	0,1	1,349092
1,695833	0,1	1,389197
1,697500	0,1	1,514008
1,699167	0,1	1,585022
1,700833	0,1	1,642927
1,702500	0,1	1,681423
1,704167	0,1	1,828660
1,705833	0,1	1,929130
1,707500	0,1	1,958637
1,709167	0,1	2,045927
1,710833	0,1	2,175305
1,712500	0,1	2,247907
1,714167	0,1	2,332849
1,715833	0,1	2,421317
1,717500	0,1	2,525131
1,719167	0,1	2,646464
1,720833	0,1	2,745179
1,722500	0,1	2,841833
1,724167	0,1	2,980968
1,725833	0,1	3,032933
1,727500	0,1	3,137234
1,729167	0,1	3,249259
1,730833	0,1	3,322445
1,732500	0,1	3,408870
1,734167	0,1	3,497338
1,735833	0,1	3,661281
1,737500	0,1	3,703228
1,739167	0,1	3,783513
1,740833	0,1	3,847172
1,742500	0,1	3,957584
1,744167	0,1	4,070109
1,745833	0,1	4,159335
1,747500	0,1	4,169357
1,749167	0,1	4,263029
1,750833	0,1	4,324223
1,752500	0,1	4,396318
1,754167	0,1	4,475754
1,755833	0,1	4,546738
1,757500	0,1	4,584206
1,759167	0,1	4,657592
1,760833	0,1	4,672304
1,762500	0,1	4,691549
1,764167	0,1	4,752914
1,765833	0,1	4,807048
1,767500	0,1	4,849236
1,769167	0,1	4,870065
1,770833	0,1	4,859460
1,772500	0,1	4,891342
1,774167	0,1	4,895361
1,775833	0,1	4,940096
1,777500	0,1	4,941445
1,779167	0,1	4,898089
1,780833	0,1	4,891317
1,782500	0,1	4,934668
1,784167	0,1	4,873978
1,785833	0,1	4,845685
1,787500	0,1	4,859131
1,789167	0,1	4,839159
1,790833	0,1	4,789367
1,792500	0,1	4,784452
1,794167	0,1	4,745849
1,795833	0,1	4,735509
1,797500	0,1	4,650582
1,799167	0,1	4,638609
1,800833	0,1	4,591236
1,802500	0,1	4,552756
1,804167	0,1	4,475940
1,805833	0,1	4,454854
1,807500	0,1	4,414825
1,809167	0,1	4,340146
1,810833	0,1	4,298236
1,812500	0,1	4,231567
1,814167	0,1	4,158393
1,815833	0,1	4,108778
1,817500	0,1	4,065746
1,819167	0,1	3,978493
1,820833	0,1	3,939841
1,822500	0,1	3,891735
1,824167	0,1	3,778079
1,825833	0,1	3,739026
1,827500	0,1	3,651337
1,829167	0,1	3,600005
1,830833	0,1	3,524795
1,832500	0,1	3,496343
1,834167	0,1	3,389332
1,835833	0,1	3,361997
1,837500	0,1	3,297023
1,839167	0,1	3,212128
1,840833	0,1	3,147109
1,842500	0,1	3,061592
1,844167	0,1	2,994425
1,845833	0,1	2,951884
1,847500	0,1	2,894512
1,849167	0,1	2,827819
1,850833	0,1	2,748736
1,852500	0,1	2,704564
1,854167	0,1	2,634537
1,855833	0,1	2,653299
1,857500	0,1	2,557931
1,859167	0,1	2,467288
1,860833	0,1	2,386397
1,862500	0,1	2,391246
1,864167	0,1	2,323586
1,865833	0,1	2,288834
1,867500	0,1	2,246722
1,869167	0,1	2,157364
1,870833	0,1	2,157880
1,872500	0,1	2,057637
1,874167	0,1	2,045895
1,875833	0,1	1,979477
1,877500	0,1	1,945416
1,879167	0,1	1,869366
1,880833	0,1	1,860267
1,882500	0,1	1,806038
1,884167	0,1	1,814275
1,885833	0,1	1,733669
1,887500	0,1	1,684903
1,889167	0,1	1,659788
1,890833	0,1	1,668175
1,892500	0,1	1,632317
1,894167	0,1	1,592927
1,895833	0,1	1,513169
1,897500	0,1	1,508602
1,899167	0,1	1,459716
1,900833	0,1	1,404437
1,902500	0,1	1,419132
1,904167	0,1	1,368950
1,905833	0,1	1,357222
1,907500	0,1	1,319358
1,909167	0,1	1,289523
1,910833	0,1	1,290056
1,912500	0,1	1,244541
1,914167	0,1	1,235596
1,915833	0,1	1,213829
1,917500	0,1	1,174905
1,919167	0,1	1,144433
1,920833	0,1	1,152776
1,922500	0,1	1,114605
1,924167	0,1	1,133104
1,925833	0,1	1,095354
1,927500	0,1	1,005223
1,929167	0,1	1,039416
1,930833	0,1	1,028726
1,932500	0,1	1,030138
1,934167	0,1	0,994444
1,935833	0,1	0,949817
1,937500	0,1	0,970269
1,939167	0,1	0,947785
1,940833	0,1	0,954914
1,942500	0,1	0,890608
1,944167	0,1	0,899909
1,945833	0,1	0,903796
1,947500	0,1	0,877494
1,949167	0,1	0,873155
1,950833	0,1	0,856517
1,952500	0,1	0,815561
1,954167	0,1	0,828785
1,955833	0,1	0,878542
1,957500	0,1	0,806005
1,959167	0,1	0,825001
1,960833	0,1	0,784954
1,962500	0,1	0,813373
1,964167	0,1	0,780266
1,965833	0,1	0,784953
1,967500	0,1	0,764784
1,969167	0,1	0,738550
1,970833	0,1	0,722002
1,972500	0,1	0,753084
1,974167	0,1	0,751465
1,975833	0,1	0,738925
1,977500	0,1	0,718966
1,979167	0,1	0,730357
1,980833	0,1	0,651473
1,982500	0,1	0,729447
1,984167	0,1	0,720589
1,985833	0,1	0,659529
1,987500	0,1	0,727672
1,989167	0,1	0,678438
1,990833	0,1	0,704059
1,992500	0,1	0,662961
1,994167	0,1	0,672064
1,995833	0,1	0,690574
1,997500	0,1	0,654361
1,999167	0,1	0,651784
2,000833	0,1	0,631741
2,002500	0,1	0,666733
2,004167	0,1	0,663885
2,005833	0,1	0,651686
2,007500	0,1	0,667771
2,009167	0,1	0,653588
2,010833	0,1	0,614716
2,012500	0,1	0,652253
2,014167	0,1	0,634804
2,015833	0,1	0,616517
2,017500	0,1	0,617071
2,019167	0,1	0,637301
2,020833	0,1	0,621507
2,022500	0,1	0,644777
2,024167	0,1	0,620593
2,025833	0,1	0,635272
2,027500	0,1	0,636271
2,029167	0,1	0,597880
2,030833	0,1	0,627275
2,032500	0,1	0,613034
2,034167	0,1	0,633094
2,035833	0,1	0,620364
2,037500	0,1	0,604976
2,039167	0,1	0,627277
2,040833	0,1	0,612018
2,042500	0,1	0,647508
2,044167	0,1	0,642898
2,045833	0,1	0,633126
2,047500	0,1	0,605933
2,049167	0,1	0,646599
2,050833	0,1	0,620576
2,052500	0,1	0,606221
2,054167	0,1	0,630612
2,055833	0,1	0,598247
2,057500	0,1	0,623007
2,059167	0,1	0,630779
2,060833	0,1	0,661862
2,062500	0,1	0,594489
2,064167	0,1	0,624995
2,065833	0,1	0,619287
2,067500	0,1	0,576402
2,069167	0,1	0,603518
2,070833	0,1	0,626923
2,072500	0,1	0,626332
2,074167	0,1	0,610404
2,075833	0,1	0,614977
2,077500	0,1	0,591744
2,079167	0,1	0,630812
2,080833	0,1	0,638860
2,082500	0,1	0,607447
2,084167	0,1	0,623096
2,085833	0,1	0,632792
2,087500	0,1	0,643708
2,089167	0,1	0,621547
2,090833	0,1	0,630324
2,092500	0,1	0,660704
2,094167	0,1	0,632738
2,095833	0,1	0,634157
2,097500	0,1	0,622999
2,099167	0,1	0,663270
2,100833	0,1	0,649776
2,102500	0,1	0,635820
2,104167	0,1	0,660846
2,105833	0,1	0,671171
2,107500	0,1	0,673162
2,109167	0,1	0,661732
2,110833	0,1	0,631142
2,112500	0,1	0,648797
2,114167	0,1	0,659386
2,115833	0,1	0,693619
2,117500	0,1	0,661298
2,119167	0,1	0,668212
2,120833	0,1	0,638039
2,122500	0,1	0,648219
2,124167	0,1	0,687610
2,125833	0,1	0,667263
2,127500	0,1	0,643112
2,129167	0,1	0,640993
2,130833	0,1	0,684070
2,132500	0,1	0,677888
2,134167	0,1	0,697664
2,135833	0,1	0,706165
2,137500	0,1	0,648987
2,139167	0,1	0,715092
2,140833	0,1	0,662321
2,142500	0,1	0,636316
2,144167	0,1	0,644022
2,145833	0,1	0,678004
2,147500	0,1	0,690953
2,149167	0,1	0,686978
2,150833	0,1	0,710342
2,152500	0,1	0,695808
2,154167	0,1	0,713429
2,155833	0,1	0,693515
2,157500	0,1	0,704214
2,159167	0,1	0,697670
2,160833	0,1	0,756577
2,162500	0,1	0,678758
2,164167	0,1	0,676374
2,165833	0,1	0,725336
2,167500	0,1	0,694237
2,169167	0,1	0,692569
2,170833	0,1	0,713038
2,172500	0,1	0,702732
2,174167	0,1	0,734872
2,175833	0,1	0,686295
2,177500	0,1	0,712722
2,179167	0,1	0,688935
2,180833	0,1	0,714738
2,182500	0,1	0,714228
2,184167	0,1	0,728618
2,185833	0,1	0,735937
2,187500	0,1	0,735522
2,189167	0,1	0,747155
2,190833	0,1	0,681778
2,192500	0,1	0,748894
2,194167	0,1	0,673480
2,195833	0,1	0,689465
2,197500	0,1	0,720427
2,199167	0,1	0,728593
2,200833	0,1	0,725739
2,202500	0,1	0,723067
2,204167	0,1	0,697887
2,205833	0,1	0,716540
2,207500	0,1	0,718054
2,209167	0,1	0,720587
2,210833	0,1	0,668502
2,212500	0,1	0,745275
2,214167	0,1	0,711829
2,215833	0,1	0,704242
2,217500	0,1	0,687195
2,219167	0,1	0,705622
2,220833	0,1	0,710800
2,222500	0,1	0,720459
2,224167	0,1	0,738024
2,225833	0,1	0,719218
2,227500	0,1	0,721970
2,229167	0,1	0,701927
2,230833	0,1	0,727292
2,232500	0,1	0,664438
2,234167	0,1	0,705842
2,235833	0,1	0,756453
2,237500	0,1	0,685507
2,239167	0,1	0,741679
2,240833	0,1	0,730287
2,242500	0,1	0,728622
2,244167	0,1	0,734626
2,245833	0,1	0,724744
2,247500	0,1	0,711284
2,249167	0,1	0,706333
2,250833	0,1	0,778728
2,252500	0,1	0,743792
2,254167	0,1	0,758199
2,255833	0,1	0,757651
2,257500	0,1	0,725895
2,259167	0,1	0,724603
2,260833	0,1	0,707620
2,262500	0,1	0,733841
2,264167	0,1	0,685088
2,265833	0,1	0,738468
2,267500	0,1	0,714912
2,269167	0,1	0,735391
2,270833	0,1	0,749624
2,272500	0,1	0,723679
2,274167	0,1	0,744346
2,275833	0,1	0,742878
2,277500	0,1	0,743040
2,279167	0,1	0,755657
2,280833	0,1	0,727255
2,282500	0,1	0,734109
2,284167	0,1	0,720087
2,285833	0,1	0,754719
2,287500	0,1	0,688505
2,289167	0,1	0,734454
2,290833	0,1	0,737298
2,292500	0,1	0,714396
2,294167	0,1	0,744407
2,295833	0,1	0,717508
2,297500	0,1	0,737533
2,299167	0,1	0,740887
2,300833	0,1	0,707561
2,302500	0,1	0,755460
2,304167	0,1	0,738197
2,305833	0,1	0,740218
2,307500	0,1	0,709034
2,309167	0,1	0,718784
2,310833	0,1	0,736514
2,312500	0,1	0,704287
2,314167	0,1	0,718756
2,315833	0,1	0,728454
2,317500	0,1	0,737863
2,319167	0,1	0,737739
2,320833	0,1	0,727175
2,322500	0,1	0,755654
2,324167	0,1	0,729774
2,325833	0,1	0,733054
2,327500	0,1	0,739401
2,329167	0,1	0,723839
2,330833	0,1	0,767854
2,332500	0,1	0,748636
2,334167	0,1	0,706895
2,335833	0,1	0,794467
2,337500	0,1	0,757470
2,339167	0,1	0,781031
2,340833	0,1	0,730812
2,342500	0,1	0,740759
2,344167	0,1	0,729102
2,345833	0,1	0,732348
2,347500	0,1	0,752732
2,349167	0,1	0,734620
2,350833	0,1	0,753981
2,352500	0,1	0,733311
2,354167	0,1	0,771166
2,355833	0,1	0,720801
2,357500	0,1	0,762035
2,359167	0,1	0,722586
2,360833	0,1	0,732056
2,362500	0,1	0,776720
2,364167	0,1	0,773355
2,365833	0,1	0,739938
2,367500	0,1	0,751036
2,369167	0,1	0,708822
2,370833	0,1	0,729448
2,372500	0,1	0,711700
2,374167	0,1	0,734649
2,375833	0,1	0,766029
2,377500	0,1	0,746382
2,379167	0,1	0,746353
2,380833	0,1	0,735398
2,382500	0,1	0,753024
2,384167	0,1	0,706797
2,385833	0,1	0,763769
2,387500	0,1	0,734055
2,389167	0,1	0,788188
2,390833	0,1	0,704197
2,392500	0,1	0,755774
2,394167	0,1	0,771135
2,395833	0,1	0,751710
2,397500	0,1	0,732957
2,399167	0,1	0,780826
2,400833	0,1	0,734539
2,402500	0,1	0,736554
2,404167	0,1	0,768046
2,405833	0,1	0,772521
2,407500	0,1	0,762149
2,409167	0,1	0,726968
2,410833	0,1	0,769238
2,412500	0,1	0,783375
2,414167	0,1	0,777311
2,415833	0,1	0,781061
2,417500	0,1	0,743490
2,419167	0,1	0,735524
2,420833	0,1	0,751902
2,422500	0,1	0,793510
2,424167	0,1	0,761737
2,425833	0,1	0,784496
2,427500	0,1	0,748982
2,429167	0,1	0,775313
2,430833	0,1	0,728885
2,432500	0,1	0,793125
2,434167	0,1	0,762569
2,435833	0,1	0,790349
2,437500	0,1	0,776696
2,439167	0,1	0,746991
2,440833	0,1	0,760883
2,442500	0,1	0,776752
2,444167	0,1	0,786388
2,445833	0,1	0,757583
2,447500	0,1	0,790111
2,449167	0,1	0,757142
2,450833	0,1	0,758229
2,452500	0,1	0,768820
2,454167	0,1	0,770423
2,455833	0,1	0,766065
2,457500	0,1	0,764137
2,459167	0,1	0,769425
2,460833	0,1	0,785466
2,462500	0,1	0,786229
2,464167	0,1	0,775147
2,465833	0,1	0,764845
2,467500	0,1	0,796699
2,469167	0,1	0,751578
2,470833	0,1	0,760533
2,472500	0,1	0,783717
2,474167	0,1	0,774669
2,475833	0,1	0,770460
2,477500	0,1	0,773065
2,479167	0,1	0,753285
2,480833	0,1	0,783399
2,482500	0,1	0,788418
2,484167	0,1	0,769017
2,485833	0,1	0,726705
2,487500	0,1	0,813033
2,489167	0,1	0,775680
2,490833	0,1	0,755237
2,492500	0,1	0,795349
2,494167	0,1	0,762569
2,495833	0,1	0,751356
2,497500	0,1	0,809802
2,499167	0,1	0,767194
2,500833	0,1	0,808484
2,502500	0,1	0,794004
2,504167	0,1	0,782188
2,505833	0,1	0,778595
2,507500	0,1	0,817380
2,509167	0,1	0,750310
2,510833	0,1	0,767976
2,512500	0,1	0,804115
2,514167	0,1	0,788929
2,515833	0,1	0,781317
2,517500	0,1	0,807013
2,519167	0,1	0,794583
2,520833	0,1	0,820566
2,522500	0,1	0,811999
2,524167	0,1	0,801522
2,525833	0,1	0,809967
2,527500	0,1	0,816328
2,529167	0,1	0,777460
2,530833	0,1	0,808043
2,532500	0,1	0,797351
2,534167	0,1	0,828075
2,535833	0,1	0,817455
2,537500	0,1	0,833509
2,539167	0,1	0,819101
2,540833	0,1	0,795101
2,542500	0,1	0,822712
2,544167	0,1	0,750855
2,545833	0,1	0,831283
2,547500	0,1	0,802748
2,549167	0,1	0,770214
2,550833	0,1	0,797694
2,552500	0,1	0,773802
2,554167	0,1	0,775951
2,555833	0,1	0,794221
2,557500	0,1	0,808418
2,559167	0,1	0,822461
2,560833	0,1	0,814749
2,562500	0,1	0,823240
2,564167	0,1	0,796260
2,565833	0,1	0,818052
2,567500	0,1	0,794143
2,569167	0,1	0,826375
2,570833	0,1	0,834061
2,572500	0,1	0,788294
2,574167	0,1	0,788935
2,575833	0,1	0,815237
2,577500	0,1	0,817063
2,579167	0,1	0,811960
2,580833	0,1	0,854158
2,582500	0,1	0,821767
2,584167	0,1	0,803223
2,585833	0,1	0,829136
2,587500	0,1	0,806664
2,589167	0,1	0,795488
2,590833	0,1	0,820025
2,592500	0,1	0,838069
2,594167	0,1	0,831423
2,595833	0,1	0,785797
2,597500	0,1	0,808868
2,599167	0,1	0,833858
2,600833	0,1	0,859338
2,602500	0,1	0,817336
2,604167	0,1	0,830171
2,605833	0,1	0,859203
2,607500	0,1	0,832615
2,609167	0,1	0,811964
2,610833	0,1	0,820337
2,612500	0,1	0,827983
2,614167	0,1	0,833990
2,615833	0,1	0,852236
2,617500	0,1	0,827636
2,619167	0,1	0,796188
2,620833	0,1	0,821237
2,622500	0,1	0,842853
2,624167	0,1	0,819285
2,625833	0,1	0,857689
2,627500	0,1	0,868554
2,629167	0,1	0,840142
2,630833	0,1	0,816001
2,632500	0,1	0,833445
2,634167	0,1	0,860171
2,635833	0,1	0,834323
2,637500	0,1	0,822658
2,639167	0,1	0,855318
2,640833	0,1	0,813735
2,642500	0,1	0,835850
2,644167	0,1	0,805669
2,645833	0,1	0,841404
2,647500	0,1	0,823265
2,649167	0,1	0,838839
2,650833	0,1	0,795169
2,652500	0,1	0,821399
2,654167	0,1	0,824101
2,655833	0,1	0,804572
2,657500	0,1	0,825381
2,659167	0,1	0,858657
2,660833	0,1	0,823948
2,662500	0,1	0,824680
2,664167	0,1	0,844747
2,665833	0,1	0,799983
2,667500	0,1	0,860354
2,669167	0,1	0,816630
2,670833	0,1	0,845521
2,672500	0,1	0,857344
2,674167	0,1	0,849505
2,675833	0,1	0,810974
2,677500	0,1	0,845745
2,679167	0,1	0,835308
2,680833	0,1	0,838968
2,682500	0,1	0,826277
2,684167	0,1	0,836595
2,685833	0,1	0,829018
2,687500	0,1	0,817519
2,689167	0,1	0,821079
2,690833	0,1	0,828697
2,692500	0,1	0,805632
2,694167	0,1	0,825347
2,695833	0,1	0,838070
2,697500	0,1	0,806413
2,699167	0,1	0,829489
2,700833	0,1	0,842630
2,702500	0,1	0,854935
2,704167	0,1	0,801795
2,705833	0,1	0,852419
2,707500	0,1	0,825583
2,709167	0,1	0,841797
2,710833	0,1	0,850666
2,712500	0,1	0,834701
2,714167	0,1	0,824585
2,715833	0,1	0,836360
2,717500	0,1	0,818289
2,719167	0,1	0,811094
2,720833	0,1	0,814303
2,722500	0,1	0,848378
2,724167	0,1	0,836854
2,725833	0,1	0,825706
2,727500	0,1	0,844781
2,729167	0,1	0,788486
2,730833	0,1	0,830896
2,732500	0,1	0,829748
2,734167	0,1	0,840928
2,735833	0,1	0,811640
2,737500	0,1	0,847862
2,739167	0,1	0,833416
2,740833	0,1	0,834353
2,742500	0,1	0,853932
2,744167	0,1	0,832069
2,745833	0,1	0,819029
2,747500	0,1	0,860964
2,749167	0,1	0,846265
2,750833	0,1	0,825095
2,752500	0,1	0,838966
2,754167	0,1	0,855830
2,755833	0,1	0,824489
2,757500	0,1	0,894882
2,759167	0,1	0,874374
2,760833	0,1	0,851443
2,762500	0,1	0,847068
2,764167	0,1	0,837243
2,765833	0,1	0,857850
2,767500	0,1	0,857698
2,769167	0,1	0,806797
2,770833	0,1	0,868444
2,772500	0,1	0,826194
2,774167	0,1	0,826219
2,775833	0,1	0,887949
2,777500	0,1	0,842518
2,779167	0,1	0,891287
2,780833	0,1	0,876652
2,782500	0,1	0,885004
2,784167	0,1	0,857798
2,785833	0,1	0,838620
2,787500	0,1	0,864153
2,789167	0,1	0,876490
2,790833	0,1	0,896087
2,792500	0,1	0,846818
2,794167	0,1	0,867267
2,795833	0,1	0,895894
2,797500	0,1	0,935983
2,799167	0,1	0,892693
2,800833	0,1	0,908069
2,802500	0,1	0,852728
2,804167	0,1	0,876967
2,805833	0,1	0,881214
2,807500	0,1	0,890047
2,809167	0,1	0,865604
2,810833	0,1	0,891392
2,812500	0,1	0,896305
2,814167	0,1	0,933924
2,815833	0,1	0,882125
2,817500	0,1	0,918635
2,819167	0,1	0,891596
2,820833	0,1	0,909772
2,822500	0,1	0,883276
2,824167	0,1	0,895347
2,825833	0,1	0,893232
2,827500	0,1	0,886357
2,829167	0,1	0,897884
2,830833	0,1	0,907846
2,832500	0,1	0,889475
2,834167	0,1	0,922810
2,835833	0,1	0,903516
2,837500	0,1	0,904728
2,839167	0,1	0,935666
2,840833	0,1	0,903965
2,842500	0,1	0,903797
2,844167	0,1	0,926892
2,845833	0,1	0,930816
2,847500	0,1	0,942799
2,849167	0,1	0,902104
2,850833	0,1	0,922426
2,852500	0,1	0,934385
2,854167	0,1	0,866709
2,855833	0,1	0,896755
2,857500	0,1	0,875016
2,859167	0,1	0,914328
2,860833	0,1	0,888579
2,862500	0,1	0,909388
2,864167	0,1	0,866378
2,865833	0,1	0,860941
2,867500	0,1	0,855130
2,869167	0,1	0,852369
2,870833	0,1	0,878154
2,872500	0,1	0,874022
2,874167	0,1	0,876365
2,875833	0,1	0,862941
2,877500	0,1	0,877457
2,879167	0,1	0,865862
2,880833	0,1	0,894413
2,882500	0,1	0,873123
2,884167	0,1	0,863285
2,885833	0,1	0,864801
2,887500	0,1	0,875206
2,889167	0,1	0,866922
2,890833	0,1	0,845082
2,892500	0,1	0,893893
2,894167	0,1	0,831981
2,895833	0,1	0,870377
2,897500	0,1	0,850953
2,899167	0,1	0,840101
2,900833	0,1	0,856543
2,902500	0,1	0,844471
2,904167	0,1	0,865085
2,905833	0,1	0,840902
2,907500	0,1	0,809489
2,909167	0,1	0,839702
2,910833	0,1	0,855606
2,912500	0,1	0,877291
2,914167	0,1	0,854083
2,915833	0,1	0,805711
2,917500	0,1	0,832184
2,919167	0,1	0,850563
2,920833	0,1	0,823431
2,922500	0,1	0,826572
2,924167	0,1	0,855058
2,925833	0,1	0,801368
2,927500	0,1	0,803481
2,929167	0,1	0,838770
2,930833	0,1	0,788972
2,932500	0,1	0,774379
2,934167	0,1	0,796891
2,935833	0,1	0,829452
2,937500	0,1	0,796297
2,939167	0,1	0,838359
2,940833	0,1	0,775840
2,942500	0,1	0,830060
2,944167	0,1	0,733795
2,945833	0,1	0,829246
2,947500	0,1	0,778305
2,949167	0,1	0,826406
2,950833	0,1	0,805477
2,952500	0,1	0,785465
2,954167	0,1	0,823677
2,955833	0,1	0,775068
2,957500	0,1	0,783721
2,959167	0,1	0,787450
2,960833	0,1	0,760479
2,962500	0,1	0,770330
2,964167	0,1	0,809959
2,965833	0,1	0,802942
2,967500	0,1	0,789444
2,969167	0,1	0,786139
2,970833	0,1	0,833528
2,972500	0,1	0,827217
2,974167	0,1	0,778831
2,975833	0,1	0,772577
2,977500	0,1	0,837901
2,979167	0,1	0,761964
2,980833	0,1	0,808537
2,982500	0,1	0,802163
2,984167	0,1	0,762055
2,985833	0,1	0,822957
2,987500	0,1	0,806020
2,989167	0,1	0,812727
2,990833	0,1	0,826406
2,992500	0,1	0,818774
2,994167	0,1	0,761227
2,995833	0,1	0,832237
2,997500	0,1	0,814406
2,999167	0,1	0,793598
3,000833	0,1	0,793141
3,002500	0,1	0,842648
3,004167	0,1	0,759397
3,005833	0,1	0,793929
3,007500	0,1	0,808781
3,009167	0,1	0,815748
3,010833	0,1	0,826634
3,012500	0,1	0,834315
3,014167	0,1	0,848700
3,015833	0,1	0,834991
3,017500	0,1	0,844847
3,019167	0,1	0,827672
3,020833	0,1	0,841055
3,022500	0,1	0,859079
3,024167	0,1	0,852081
3,025833	0,1	0,841669
3,027500	0,1	0,830041
3,029167	0,1	0,864820
3,030833	0,1	0,845496
3,032500	0,1	0,846615
3,034167	0,1	0,833732
3,035833	0,1	0,851142
3,037500	0,1	0,857308
3,039167	0,1	0,879664
3,040833	0,1	0,822795
3,042500	0,1	0,898702
3,044167	0,1	0,828707
3,045833	0,1	0,879051
3,047500	0,1	0,857124
3,049167	0,1	0,901122
3,050833	0,1	0,878484
3,052500	0,1	0,851183
3,054167	0,1	0,852588
3,055833	0,1	0,889722
3,057500	0,1	0,859789
3,059167	0,1	0,900029
3,060833	0,1	0,850833
3,062500	0,1	0,862249
3,064167	0,1	0,847650
3,065833	0,1	0,894026
3,067500	0,1	0,904407
3,069167	0,1	0,900973
3,070833	0,1	0,845407
3,072500	0,1	0,872568
3,074167	0,1	0,859883
3,075833	0,1	0,871669
3,077500	0,1	0,844912
3,079167	0,1	0,863215
3,080833	0,1	0,855384
3,082500	0,1	0,859075
3,084167	0,1	0,872917
3,085833	0,1	0,869842
3,087500	0,1	0,863455
3,089167	0,1	0,871443
3,090833	0,1	0,874720
3,092500	0,1	0,867146
3,094167	0,1	0,861393
3,095833	0,1	0,900544
3,097500	0,1	0,831848
3,099167	0,1	0,874456
3,100833	0,1	0,852175
3,102500	0,1	0,773742
3,104167	0,1	0,836067
3,105833	0,1	0,858499
3,107500	0,1	0,852560
3,109167	0,1	0,830948
3,110833	0,1	0,833766
3,112500	0,1	0,797247
3,114167	0,1	0,799076
3,115833	0,1	0,826947
3,117500	0,1	0,829721
3,119167	0,1	0,838777
3,120833	0,1	0,780361
3,122500	0,1	0,836294
3,124167	0,1	0,849380
3,125833	0,1	0,801050
3,127500	0,1	0,808647
3,129167	0,1	0,808168
3,130833	0,1	0,818127
3,132500	0,1	0,825186
3,134167	0,1	0,791854
3,135833	0,1	0,810986
3,137500	0,1	0,756052
3,139167	0,1	0,777231
3,140833	0,1	0,769982
3,142500	0,1	0,777677
3,144167	0,1	0,761824
3,145833	0,1	0,804304
3,147500	0,1	0,726536
3,149167	0,1	0,760173
3,150833	0,1	0,781320
3,152500	0,1	0,760730
3,154167	0,1	0,786331
3,155833	0,1	0,739639
3,157500	0,1	0,778964
3,159167	0,1	0,781641
3,160833	0,1	0,756723
3,162500	0,1	0,715747
3,164167	0,1	0,752275
3,165833	0,1	0,749653
3,167500	0,1	0,768818
3,169167	0,1	0,756457
3,170833	0,1	0,720596
3,172500	0,1	0,727323
3,174167	0,1	0,723710
3,175833	0,1	0,741073
3,177500	0,1	0,696004
3,179167	0,1	0,711503
3,180833	0,1	0,704281
3,182500	0,1	0,707616
3,184167	0,1	0,702831
3,185833	0,1	0,763189
3,187500	0,1	0,739066
3,189167	0,1	0,747699
3,190833	0,1	0,700789
3,192500	0,1	0,734103
3,194167	0,1	0,756435
3,195833	0,1	0,684060
3,197500	0,1	0,728032
3,199167	0,1	0,681069
3,200833	0,1	0,660826
3,202500	0,1	0,660116
3,204167	0,1	0,683660
3,205833	0,1	0,704526
3,207500	0,1	0,691601
3,209167	0,1	0,655504
3,210833	0,1	0,698715
3,212500	0,1	0,679161
3,214167	0,1	0,665673
3,215833	0,1	0,671839
3,217500	0,1	0,671450
3,219167	0,1	0,674095
3,220833	0,1	0,659079
3,222500	0,1	0,656592
3,224167	0,1	0,641042
3,225833	0,1	0,676014
3,227500	0,1	0,645228
3,229167	0,1	0,640273
3,230833	0,1	0,653215
3,232500	0,1	0,665541
3,234167	0,1	0,657361
3,235833	0,1	0,680372
3,237500	0,1	0,659002
3,239167	0,1	0,627436
3,240833	0,1	0,694504
3,242500	0,1	0,655984
3,244167	0,1	0,630936
3,245833	0,1	0,638509
3,247500	0,1	0,642134
3,249167	0,1	0,613475
3,250833	0,1	0,634199
3,252500	0,1	0,594527
3,254167	0,1	0,652123
3,255833	0,1	0,619005
3,257500	0,1	0,661556
3,259167	0,1	0,621534
3,260833	0,1	0,616451
3,262500	0,1	0,612514
3,264167	0,1	0,595720
3,265833	0,1	0,605986
3,267500	0,1	0,634072
3,269167	0,1	0,623932
3,270833	0,1	0,645294
3,272500	0,1	0,605380
3,274167	0,1	0,622100
3,275833	0,1	0,623905
3,277500	0,1	0,593882
3,279167	0,1	0,619154
3,280833	0,1	0,626284
3,282500	0,1	0,610386
3,284167	0,1	0,578535
3,285833	0,1	0,635303
3,287500	0,1	0,599226
3,289167	0,1	0,589669
3,290833	0,1	0,613525
3,292500	0,1	0,643883
3,294167	0,1	0,590529
3,295833	0,1	0,594680
3,297500	0,1	0,619116
3,299167	0,1	0,578845
3,300833	0,1	0,601239
3,302500	0,1	0,586049
3,304167	0,1	0,580785
3,305833	0,1	0,581590
3,307500	0,1	0,595094
3,309167	0,1	0,608367
3,310833	0,1	0,601951
3,312500	0,1	0,554865
3,314167	0,1	0,576740
3,315833	0,1	0,583078
3,317500	0,1	0,579065
3,319167	0,1	0,544858
3,320833	0,1	0,579822
3,322500	0,1	0,596395
3,324167	0,1	0,599609
3,325833	0,1	0,547928
3,327500	0,1	0,572782
3,329167	0,1	0,569103
3,330833	0,1	0,547093
3,332500	0,1	0,577006
3,334167	0,1	0,546266
3,335833	0,1	0,568950
3,337500	0,1	0,576471
3,339167	0,1	0,565024
3,340833	0,1	0,556719
3,342500	0,1	0,553652
3,344167	0,1	0,568519
3,345833	0,1	0,558832
3,347500	0,1	0,545102
3,349167	0,1	0,587689
3,350833	0,1	0,555998
3,352500	0,1	0,532864
3,354167	0,1	0,553627
3,355833	0,1	0,565578
3,357500	0,1	0,573533
3,359167	0,1	0,588566
3,360833	0,1	0,557367
3,362500	0,1	0,576262
3,364167	0,1	0,580016
3,365833	0,1	0,572066
3,367500	0,1	0,571193
3,369167	0,1	0,552932
3,370833	0,1	0,581396
3,372500	0,1	0,555355
3,374167	0,1	0,539862
3,375833	0,1	0,572407
3,377500	0,1	0,551357
3,379167	0,1	0,578579
3,380833	0,1	0,577406
3,382500	0,1	0,576041
3,384167	0,1	0,531461
3,385833	0,1	0,537413
3,387500	0,1	0,588744
3,389167	0,1	0,548028
3,390833	0,1	0,544995
3,392500	0,1	0,552821
3,394167	0,1	0,539262
3,395833	0,1	0,575078
3,397500	0,1	0,518811
3,399167	0,1	0,576047
3,400833	0,1	0,573660
3,402500	0,1	0,530862
3,404167	0,1	0,509920
3,405833	0,1	0,524965
3,407500	0,1	0,581182
3,409167	0,1	0,538067
3,410833	0,1	0,586962
3,412500	0,1	0,540927
3,414167	0,1	0,531577
3,415833	0,1	0,557249
3,417500	0,1	0,538042
3,419167	0,1	0,576237
3,420833	0,1	0,549577
3,422500	0,1	0,515763
3,424167	0,1	0,549896
3,425833	0,1	0,568207
3,427500	0,1	0,554670
3,429167	0,1	0,552741
3,430833	0,1	0,551788
3,432500	0,1	0,556903
3,434167	0,1	0,556757
3,435833	0,1	0,580654
3,437500	0,1	0,546038
3,439167	0,1	0,559469
3,440833	0,1	0,492037
3,442500	0,1	0,606291
3,444167	0,1	0,504782
3,445833	0,1	0,574222
3,447500	0,1	0,573865
3,449167	0,1	0,548086
3,450833	0,1	0,498496
3,452500	0,1	0,560719
3,454167	0,1	0,539575
3,455833	0,1	0,538348
3,457500	0,1	0,535241
3,459167	0,1	0,543004
3,460833	0,1	0,525159
3,462500	0,1	0,545343
3,464167	0,1	0,538288
3,465833	0,1	0,538305
3,467500	0,1	0,547210
3,469167	0,1	0,548247
3,470833	0,1	0,502303
3,472500	0,1	0,519354
3,474167	0,1	0,535568
3,475833	0,1	0,562198
3,477500	0,1	0,513385
3,479167	0,1	0,523849
3,480833	0,1	0,532028
3,482500	0,1	0,529692
3,484167	0,1	0,532052
3,485833	0,1	0,550002
3,487500	0,1	0,490048
3,489167	0,1	0,509888
3,490833	0,1	0,552315
3,492500	0,1	0,528826
3,494167	0,1	0,553603
3,495833	0,1	0,551559
3,497500	0,1	0,514666
3,499167	0,1	0,534739
3,500833	0,1	0,505305
3,502500	0,1	0,541052
3,504167	0,1	0,539341
3,505833	0,1	0,550812
3,507500	0,1	0,525617
3,509167	0,1	0,509504
3,510833	0,1	0,511840
3,512500	0,1	0,529542
3,514167	0,1	0,514102
3,515833	0,1	0,523558
3,517500	0,1	0,510250
3,519167	0,1	0,500350
3,520833	0,1	0,515171
3,522500	0,1	0,533415
3,524167	0,1	0,530354
3,525833	0,1	0,498077
3,527500	0,1	0,565254
3,529167	0,1	0,483739
3,530833	0,1	0,520240
3,532500	0,1	0,504597
3,534167	0,1	0,483496
3,535833	0,1	0,558563
3,537500	0,1	0,471106
3,539167	0,1	0,517586
3,540833	0,1	0,498012
3,542500	0,1	0,508213
3,544167	0,1	0,514882
3,545833	0,1	0,482609
3,547500	0,1	0,488709
3,549167	0,1	0,488046
3,550833	0,1	0,486350
3,552500	0,1	0,493821
3,554167	0,1	0,467178
3,555833	0,1	0,513445
3,557500	0,1	0,499852
3,559167	0,1	0,491010
3,560833	0,1	0,503161
3,562500	0,1	0,513516
3,564167	0,1	0,459691
3,565833	0,1	0,519986
3,567500	0,1	0,522338
3,569167	0,1	0,525548
3,570833	0,1	0,472073
3,572500	0,1	0,538042
3,574167	0,1	0,519444
3,575833	0,1	0,502505
3,577500	0,1	0,480534
3,579167	0,1	0,479559
3,580833	0,1	0,473098
3,582500	0,1	0,471215
3,584167	0,1	0,483217
3,585833	0,1	0,517049
3,587500	0,1	0,475818
3,589167	0,1	0,505951
3,590833	0,1	0,462689
3,592500	0,1	0,476674
3,594167	0,1	0,482538
3,595833	0,1	0,482065
3,597500	0,1	0,480882
3,599167	0,1	0,492394
3,600833	0,1	0,486413
3,602500	0,1	0,488749
3,604167	0,1	0,494588
3,605833	0,1	0,489065
3,607500	0,1	0,496080
3,609167	0,1	0,478983
3,610833	0,1	0,482891
3,612500	0,1	0,444863
3,614167	0,1	0,493192
3,615833	0,1	0,466498
3,617500	0,1	0,471131
3,619167	0,1	0,424598
3,620833	0,1	0,450044
3,622500	0,1	0,500668
3,624167	0,1	0,432176
3,625833	0,1	0,489980
3,627500	0,1	0,482956
3,629167	0,1	0,482374
3,630833	0,1	0,427537
3,632500	0,1	0,464060
3,634167	0,1	0,491975
3,635833	0,1	0,446255
3,637500	0,1	0,457856
3,639167	0,1	0,462948
3,640833	0,1	0,483486
3,642500	0,1	0,469890
3,644167	0,1	0,460323
3,645833	0,1	0,460986
3,647500	0,1	0,473302
3,649167	0,1	0,468192
3,650833	0,1	0,445669
3,652500	0,1	0,455701
3,654167	0,1	0,492512
3,655833	0,1	0,436708
3,657500	0,1	0,454416
3,659167	0,1	0,439002
3,660833	0,1	0,430155
3,662500	0,1	0,484390
3,664167	0,1	0,464756
3,665833	0,1	0,443637
3,667500	0,1	0,458909
3,669167	0,1	0,476758
3,670833	0,1	0,428407
3,672500	0,1	0,435101
3,674167	0,1	0,469010
3,675833	0,1	0,422796
3,677500	0,1	0,465798
3,679167	0,1	0,467819
3,680833	0,1	0,422005
3,682500	0,1	0,448242
3,684167	0,1	0,468495
3,685833	0,1	0,455109
3,687500	0,1	0,470030
3,689167	0,1	0,448360
3,690833	0,1	0,440424
3,692500	0,1	0,477975
3,694167	0,1	0,474116
3,695833	0,1	0,468439
3,697500	0,1	0,480363
3,699167	0,1	0,500281
3,700833	0,1	0,496621
3,702500	0,1	0,453376
3,704167	0,1	0,457048
3,705833	0,1	0,464602
3,707500	0,1	0,477068
3,709167	0,1	0,479350
3,710833	0,1	0,484649
3,712500	0,1	0,492746
3,714167	0,1	0,471861
3,715833	0,1	0,493114
3,717500	0,1	0,524735
3,719167	0,1	0,460336
3,720833	0,1	0,525886
3,722500	0,1	0,537536
3,724167	0,1	0,551742
3,725833	0,1	0,546280
3,727500	0,1	0,521309
3,729167	0,1	0,480768
3,730833	0,1	0,561854
3,732500	0,1	0,559968
3,734167	0,1	0,533963
3,735833	0,1	0,576672
3,737500	0,1	0,555147
3,739167	0,1	0,512347
3,740833	0,1	0,566892
3,742500	0,1	0,535165
3,744167	0,1	0,559257
3,745833	0,1	0,584051
3,747500	0,1	0,582357
3,749167	0,1	0,633604
3,750833	0,1	0,565080
3,752500	0,1	0,587301
3,754167	0,1	0,579895
3,755833	0,1	0,625571
3,757500	0,1	0,608210
3,759167	0,1	0,610774
3,760833	0,1	0,655171
3,762500	0,1	0,631124
3,764167	0,1	0,657080
3,765833	0,1	0,632572
3,767500	0,1	0,675533
3,769167	0,1	0,677118
3,770833	0,1	0,635332
3,772500	0,1	0,615812
3,774167	0,1	0,654343
3,775833	0,1	0,664258
3,777500	0,1	0,651482
3,779167	0,1	0,648003
3,780833	0,1	0,673924
3,782500	0,1	0,704938
3,784167	0,1	0,693679
3,785833	0,1	0,722090
3,787500	0,1	0,682188
3,789167	0,1	0,739967
3,790833	0,1	0,732024
3,792500	0,1	0,692275
3,794167	0,1	0,751666
3,795833	0,1	0,735678
3,797500	0,1	0,756133
3,799167	0,1	0,747010
3,800833	0,1	0,754437
3,802500	0,1	0,721589
3,804167	0,1	0,776580
3,805833	0,1	0,744383
3,807500	0,1	0,809728
3,809167	0,1	0,773300
3,810833	0,1	0,753247
3,812500	0,1	0,770366
3,814167	0,1	0,698086
3,815833	0,1	0,761289
3,817500	0,1	0,736008
3,819167	0,1	0,778736
3,820833	0,1	0,759508
3,822500	0,1	0,745387
3,824167	0,1	0,781597
3,825833	0,1	0,775247
3,827500	0,1	0,777208
3,829167	0,1	0,807167
3,830833	0,1	0,732418
3,832500	0,1	0,819909
3,834167	0,1	0,772271
3,835833	0,1	0,785808
3,837500	0,1	0,798077
3,839167	0,1	0,787362
3,840833	0,1	0,804373
3,842500	0,1	0,766098
3,844167	0,1	0,779613
3,845833	0,1	0,770197
3,847500	0,1	0,749078
3,849167	0,1	0,767885
3,850833	0,1	0,779901
3,852500	0,1	0,790543
3,854167	0,1	0,749335
3,855833	0,1	0,757105
3,857500	0,1	0,744165
3,859167	0,1	0,771863
3,860833	0,1	0,749495
3,862500	0,1	0,761301
3,864167	0,1	0,740704
3,865833	0,1	0,757482
3,867500	0,1	0,758482
3,869167	0,1	0,771035
3,870833	0,1	0,743941
3,872500	0,1	0,746983
3,874167	0,1	0,709350
3,875833	0,1	0,724248
3,877500	0,1	0,744698
3,879167	0,1	0,751503
3,880833	0,1	0,736836
3,882500	0,1	0,763235
3,884167	0,1	0,741334
3,885833	0,1	0,692717
3,887500	0,1	0,700838
3,889167	0,1	0,716730
3,890833	0,1	0,700516
3,892500	0,1	0,663524
3,894167	0,1	0,675377
3,895833	0,1	0,710303
3,897500	0,1	0,685935
3,899167	0,1	0,692718
3,900833	0,1	0,687129
3,902500	0,1	0,663686
3,904167	0,1	0,706070
3,905833	0,1	0,671292
3,907500	0,1	0,679959
3,909167	0,1	0,677205
3,910833	0,1	0,667448
3,912500	0,1	0,674180
3,914167	0,1	0,620152
3,915833	0,1	0,679570
3,917500	0,1	0,675507
3,919167	0,1	0,654936
3,920833	0,1	0,615050
3,922500	0,1	0,634716
3,924167	0,1	0,630431
3,925833	0,1	0,601234
3,927500	0,1	0,618889
3,929167	0,1	0,608066
3,930833	0,1	0,608598
3,932500	0,1	0,603383
3,934167	0,1	0,622515
3,935833	0,1	0,599472
3,937500	0,1	0,568530
3,939167	0,1	0,595005
3,940833	0,1	0,590684
3,942500	0,1	0,576974
3,944167	0,1	0,578006
3,945833	0,1	0,575586
3,947500	0,1	0,587428
3,949167	0,1	0,602775
3,950833	0,1	0,552131
3,952500	0,1	0,541911
3,954167	0,1	0,576570
3,955833	0,1	0,560511
3,957500	0,1	0,567424
3,959167	0,1	0,533385
3,960833	0,1	0,520519
3,962500	0,1	0,579400
3,964167	0,1	0,555875
3,965833	0,1	0,523879
3,967500	0,1	0,534701
3,969167	0,1	0,524515
3,970833	0,1	0,543852
3,972500	0,1	0,529218
3,974167	0,1	0,496172
3,975833	0,1	0,514237
3,977500	0,1	0,513764
3,979167	0,1	0,513206
3,980833	0,1	0,535359
3,982500	0,1	0,524103
3,984167	0,1	0,528862
3,985833	0,1	0,477208
3,987500	0,1	0,488995
3,989167	0,1	0,518086
3,990833	0,1	0,487906
3,992500	0,1	0,496907
3,994167	0,1	0,509332
3,995833	0,1	0,496499
3,997500	0,1	0,505314
3,999167	0,1	0,501859
4,000833	0,1	0,510161
4,002500	0,1	0,494366
4,004167	0,1	0,488795
4,005833	0,1	0,488399
4,007500	0,1	0,494649
4,009167	0,1	0,506349
4,010833	0,1	0,473993
4,012500	0,1	0,480818
4,014167	0,1	0,501481
4,015833	0,1	0,503908
4,017500	0,1	0,511154
4,019167	0,1	0,480062
4,020833	0,1	0,492124
4,022500	0,1	0,518958
4,024167	0,1	0,499441
4,025833	0,1	0,513658
4,027500	0,1	0,501263
4,029167	0,1	0,483619
4,030833	0,1	0,478295
4,032500	0,1	0,500693
4,034167	0,1	0,516681
4,035833	0,1	0,524449
4,037500	0,1	0,488470
4,039167	0,1	0,513243
4,040833	0,1	0,492111
4,042500	0,1	0,521380
4,044167	0,1	0,499916
4,045833	0,1	0,490907
4,047500	0,1	0,490758
4,049167	0,1	0,526142
4,050833	0,1	0,539939
4,052500	0,1	0,552842
4,054167	0,1	0,520337
4,055833	0,1	0,553748
4,057500	0,1	0,544728
4,059167	0,1	0,537727
4,060833	0,1	0,537623
4,062500	0,1	0,569986
4,064167	0,1	0,592812
4,065833	0,1	0,615160
4,067500	0,1	0,611689
4,069167	0,1	0,590607
4,070833	0,1	0,622346
4,072500	0,1	0,594170
4,074167	0,1	0,606134
4,075833	0,1	0,616902
4,077500	0,1	0,647578
4,079167	0,1	0,636563
4,080833	0,1	0,618381
4,082500	0,1	0,630660
4,084167	0,1	0,691772
4,085833	0,1	0,694341
4,087500	0,1	0,739076
4,089167	0,1	0,672459
4,090833	0,1	0,704169
4,092500	0,1	0,755736
4,094167	0,1	0,735136
4,095833	0,1	0,760466
4,097500	0,1	0,750285
4,099167	0,1	0,768365
4,100833	0,1	0,772802
4,102500	0,1	0,758549
4,104167	0,1	0,788943
4,105833	0,1	0,794025
4,107500	0,1	0,837574
4,109167	0,1	0,826123
4,110833	0,1	0,862314
4,112500	0,1	0,898075
4,114167	0,1	0,864512
4,115833	0,1	0,888886
4,117500	0,1	0,904592
4,119167	0,1	0,910413
4,120833	0,1	0,928179
4,122500	0,1	0,948418
4,124167	0,1	0,931240
4,125833	0,1	0,945650
4,127500	0,1	0,967760
4,129167	0,1	0,963236
4,130833	0,1	0,969593
4,132500	0,1	1,011520
4,134167	0,1	1,028558
4,135833	0,1	1,035728
4,137500	0,1	1,053046
4,139167	0,1	1,052151
4,140833	0,1	1,052794
4,142500	0,1	1,099545
4,144167	0,1	1,057368
4,145833	0,1	1,082004
4,147500	0,1	1,110640
4,149167	0,1	1,124818
4,150833	0,1	1,151043
4,152500	0,1	1,138330
4,154167	0,1	1,148574
4,155833	0,1	1,192156
4,157500	0,1	1,146983
4,159167	0,1	1,240751
4,160833	0,1	1,206898
4,162500	0,1	1,219915
4,164167	0,1	1,172803
4,165833	0,1	1,250335
4,167500	0,1	1,217129
4,169167	0,1	1,243760
4,170833	0,1	1,219216
4,172500	0,1	1,224193
4,174167	0,1	1,229841
4,175833	0,1	1,230719
4,177500	0,1	1,284267
4,179167	0,1	1,237925
4,180833	0,1	1,239274
4,182500	0,1	1,270637
4,184167	0,1	1,280456
4,185833	0,1	1,272390
4,187500	0,1	1,255029
4,189167	0,1	1,274759
4,190833	0,1	1,324823
4,192500	0,1	1,288736
4,194167	0,1	1,305733
4,195833	0,1	1,295477
4,197500	0,1	1,300906
4,199167	0,1	1,315986
4,200833	0,1	1,291201
4,202500	0,1	1,280079
4,204167	0,1	1,303093
4,205833	0,1	1,303585
4,207500	0,1	1,289465
4,209167	0,1	1,313698
4,210833	0,1	1,271792
4,212500	0,1	1,293958
4,214167	0,1	1,292652
4,215833	0,1	1,314985
4,217500	0,1	1,299152
4,219167	0,1	1,318885
4,220833	0,1	1,292237
4,222500	0,1	1,273258
4,224167	0,1	1,298761
4,225833	0,1	1,281984
4,227500	0,1	1,303777
4,229167	0,1	1,284333
4,230833	0,1	1,273517
4,232500	0,1	1,287279
4,234167	0,1	1,270594
4,235833	0,1	1,299745
4,237500	0,1	1,296144
4,239167	0,1	1,281014
4,240833	0,1	1,296467
4,242500	0,1	1,248893
4,244167	0,1	1,262879
4,245833	0,1	1,260627
4,247500	0,1	1,219508
4,249167	0,1	1,252379
4,250833	0,1	1,292838
4,252500	0,1	1,234014
4,254167	0,1	1,229817
4,255833	0,1	1,207481
4,257500	0,1	1,227565
4,259167	0,1	1,235059
4,260833	0,1	1,203560
4,262500	0,1	1,198092
4,264167	0,1	1,210566
4,265833	0,1	1,213235
4,267500	0,1	1,242483
4,269167	0,1	1,219178
4,270833	0,1	1,207674
4,272500	0,1	1,197806
4,274167	0,1	1,213167
4,275833	0,1	1,159939
4,277500	0,1	1,193452
4,279167	0,1	1,136510
4,280833	0,1	1,171850
4,282500	0,1	1,196214
4,284167	0,1	1,156755
4,285833	0,1	1,165998
4,287500	0,1	1,134316
4,289167	0,1	1,096901
4,290833	0,1	1,136842
4,292500	0,1	1,135211
4,294167	0,1	1,140384
4,295833	0,1	1,156353
4,297500	0,1	1,096040
4,299167	0,1	1,120223
4,300833	0,1	1,132631
4,302500	0,1	1,131159
4,304167	0,1	1,084272
4,305833	0,1	1,083427
4,307500	0,1	1,105434
4,309167	0,1	1,117617
4,310833	0,1	1,074758
4,312500	0,1	1,093544
4,314167	0,1	1,071313
4,315833	0,1	1,103248
4,317500	0,1	1,118005
4,319167	0,1	1,085939
4,320833	0,1	1,088951
4,322500	0,1	1,087185
4,324167	0,1	1,061863
4,325833	0,1	1,063562
4,327500	0,1	1,031205
4,329167	0,1	1,050798
4,330833	0,1	1,072844
4,332500	0,1	1,048751
4,334167	0,1	1,031138
4,335833	0,1	1,056292
4,337500	0,1	1,080398
4,339167	0,1	1,035291
4,340833	0,1	1,039392
4,342500	0,1	1,033385
4,344167	0,1	1,025094
4,345833	0,1	1,016772
4,347500	0,1	1,021748
4,349167	0,1	1,022040
4,350833	0,1	0,975390
4,352500	0,1	1,007152
4,354167	0,1	1,034533
4,355833	0,1	0,996470
4,357500	0,1	0,962886
4,359167	0,1	0,983923
4,360833	0,1	0,983315
4,362500	0,1	0,990319
4,364167	0,1	0,995461
4,365833	0,1	1,015415
4,367500	0,1	0,986151
4,369167	0,1	0,952702
4,370833	0,1	0,990474
4,372500	0,1	1,010466
4,374167	0,1	0,932017
4,375833	0,1	0,960300
4,377500	0,1	0,938657
4,379167	0,1	0,959790
4,380833	0,1	0,972871
4,382500	0,1	0,970945
4,384167	0,1	0,954658
4,385833	0,1	0,935734
4,387500	0,1	0,950379
4,389167	0,1	0,960339
4,390833	0,1	0,903515
4,392500	0,1	0,929617
4,394167	0,1	0,918510
4,395833	0,1	0,909450
4,397500	0,1	0,881210
4,399167	0,1	0,864411
4,400833	0,1	0,915861
4,402500	0,1	0,885581
4,404167	0,1	0,899418
4,405833	0,1	0,894183
4,407500	0,1	0,912980
4,409167	0,1	0,862555
4,410833	0,1	0,882005
4,412500	0,1	0,842572
4,414167	0,1	0,850009
4,415833	0,1	0,861192
4,417500	0,1	0,851171
4,419167	0,1	0,886244
4,420833	0,1	0,818872
4,422500	0,1	0,812939
4,424167	0,1	0,823638
4,425833	0,1	0,837031
4,427500	0,1	0,813169
4,429167	0,1	0,831409
4,430833	0,1	0,794025
4,432500	0,1	0,808184
4,434167	0,1	0,776654
4,435833	0,1	0,800444
4,437500	0,1	0,823762
4,439167	0,1	0,768246
4,440833	0,1	0,834837
4,442500	0,1	0,780261
4,444167	0,1	0,789843
4,445833	0,1	0,736153
4,447500	0,1	0,765239
4,449167	0,1	0,741323
4,450833	0,1	0,822662
4,452500	0,1	0,758901
4,454167	0,1	0,746369
4,455833	0,1	0,742930
4,457500	0,1	0,754197
4,459167	0,1	0,744177
4,460833	0,1	0,726320
4,462500	0,1	0,693795
4,464167	0,1	0,736558
4,465833	0,1	0,689529
4,467500	0,1	0,724582
4,469167	0,1	0,682237
4,470833	0,1	0,695546
4,472500	0,1	0,689419
4,474167	0,1	0,647580
4,475833	0,1	0,707172
4,477500	0,1	0,643443
4,479167	0,1	0,676838
4,480833	0,1	0,672429
4,482500	0,1	0,615537
4,484167	0,1	0,624802
4,485833	0,1	0,649631
4,487500	0,1	0,678404
4,489167	0,1	0,648260
4,490833	0,1	0,615281
4,492500	0,1	0,614298
4,494167	0,1	0,609745
4,495833	0,1	0,618256
4,497500	0,1	0,627371
4,499167	0,1	0,644558
4,500833	0,1	0,591010
4,502500	0,1	0,600543
4,504167	0,1	0,597500
4,505833	0,1	0,592800
4,507500	0,1	0,590106
4,509167	0,1	0,579648
4,510833	0,1	0,570141
4,512500	0,1	0,569889
4,514167	0,1	0,571713
4,515833	0,1	0,578775
4,517500	0,1	0,523057
4,519167	0,1	0,567146
4,520833	0,1	0,541066
4,522500	0,1	0,557500
4,524167	0,1	0,558332
4,525833	0,1	0,554628
4,527500	0,1	0,551913
4,529167	0,1	0,507792
4,530833	0,1	0,534262
4,532500	0,1	0,529982
4,534167	0,1	0,516481
4,535833	0,1	0,503083
4,537500	0,1	0,514797
4,539167	0,1	0,538051
4,540833	0,1	0,480687
4,542500	0,1	0,486905
4,544167	0,1	0,447838
4,545833	0,1	0,474000
4,547500	0,1	0,454339
4,549167	0,1	0,474705
4,550833	0,1	0,463261
4,552500	0,1	0,474934
4,554167	0,1	0,427468
4,555833	0,1	0,477554
4,557500	0,1	0,410784
4,559167	0,1	0,432710
4,560833	0,1	0,482154
4,562500	0,1	0,441859
4,564167	0,1	0,450587
4,565833	0,1	0,380574
4,567500	0,1	0,461272
4,569167	0,1	0,419262
4,570833	0,1	0,439672
4,572500	0,1	0,388624
4,574167	0,1	0,468227
4,575833	0,1	0,426060
4,577500	0,1	0,426857
4,579167	0,1	0,435675
4,580833	0,1	0,413507
4,582500	0,1	0,402427
4,584167	0,1	0,417990
4,585833	0,1	0,399923
4,587500	0,1	0,395716
4,589167	0,1	0,397747
4,590833	0,1	0,398723
4,592500	0,1	0,399777
4,594167	0,1	0,421033
4,595833	0,1	0,357864
4,597500	0,1	0,372790
4,599167	0,1	0,357150
4,600833	0,1	0,391398
4,602500	0,1	0,367499
4,604167	0,1	0,346241
4,605833	0,1	0,366601
4,607500	0,1	0,333103
4,609167	0,1	0,393328
4,610833	0,1	0,357216
4,612500	0,1	0,371157
4,614167	0,1	0,344897
4,615833	0,1	0,393989
4,617500	0,1	0,354923
4,619167	0,1	0,366481
4,620833	0,1	0,357501
4,622500	0,1	0,325603
4,624167	0,1	0,351349
4,625833	0,1	0,333300
4,627500	0,1	0,350082
4,629167	0,1	0,350025
4,630833	0,1	0,349217
4,632500	0,1	0,336018
4,634167	0,1	0,327674
4,635833	0,1	0,295488
4,637500	0,1	0,364419
4,639167	0,1	0,347509
4,640833	0,1	0,317321
4,642500	0,1	0,347144
4,644167	0,1	0,333985
4,645833	0,1	0,319623
4,647500	0,1	0,298526
4,649167	0,1	0,333165
4,650833	0,1	0,290723
4,652500	0,1	0,290363
4,654167	0,1	0,285917
4,655833	0,1	0,287613
4,657500	0,1	0,306400
4,659167	0,1	0,351618
4,660833	0,1	0,314847
4,662500	0,1	0,324292
4,664167	0,1	0,246762
4,665833	0,1	0,295682
4,667500	0,1	0,300429
4,669167	0,1	0,312697
4,670833	0,1	0,296234
4,672500	0,1	0,256930
4,674167	0,1	0,261520
4,675833	0,1	0,269369
4,677500	0,1	0,262116
4,679167	0,1	0,314948
4,680833	0,1	0,276666
4,682500	0,1	0,290023
4,684167	0,1	0,313136
4,685833	0,1	0,295087
4,687500	0,1	0,278037
4,689167	0,1	0,287001
4,690833	0,1	0,270520
4,692500	0,1	0,277284
4,694167	0,1	0,298211
4,695833	0,1	0,264628
4,697500	0,1	0,309800
4,699167	0,1	0,266953
4,700833	0,1	0,252798
4,702500	0,1	0,268116
4,704167	0,1	0,253670
4,705833	0,1	0,292034
4,707500	0,1	0,285215
4,709167	0,1	0,259204
4,710833	0,1	0,250920
4,712500	0,1	0,305139
4,714167	0,1	0,299545
4,715833	0,1	0,260032
4,717500	0,1	0,290217
4,719167	0,1	0,311442
4,720833	0,1	0,254827
4,722500	0,1	0,251986
4,724167	0,1	0,257394
4,725833	0,1	0,248001
4,727500	0,1	0,257284
4,729167	0,1	0,282474
4,730833	0,1	0,258331
4,732500	0,1	0,250965
4,734167	0,1	0,254658
4,735833	0,1	0,256920
4,737500	0,1	0,245159
4,739167	0,1	0,224557
4,740833	0,1	0,260716
4,742500	0,1	0,224175
4,744167	0,1	0,241594
4,745833	0,1	0,276513
4,747500	0,1	0,284509
4,749167	0,1	0,248710
4,750833	0,1	0,249160
4,752500	0,1	0,233766
4,754167	0,1	0,223913
4,755833	0,1	0,228461
4,757500	0,1	0,232709
4,759167	0,1	0,258319
4,760833	0,1	0,252783
4,762500	0,1	0,216646
4,764167	0,1	0,208128
4,765833	0,1	0,241043
4,767500	0,1	0,258537
4,769167	0,1	0,250628
4,770833	0,1	0,234882
4,772500	0,1	0,243217
4,774167	0,1	0,248883
4,775833	0,1	0,273077
4,777500	0,1	0,238830
4,779167	0,1	0,202422
4,780833	0,1	0,220190
4,782500	0,1	0,249932
4,784167	0,1	0,199434
4,785833	0,1	0,225997
4,787500	0,1	0,209462
4,789167	0,1	0,249090
4,790833	0,1	0,193494
4,792500	0,1	0,239830
4,794167	0,1	0,238774
4,795833	0,1	0,224507
4,797500	0,1	0,256669
4,799167	0,1	0,242763
4,800833	0,1	0,232834
4,802500	0,1	0,214763
4,804167	0,1	0,247337
4,805833	0,1	0,239371
4,807500	0,1	0,210540
4,809167	0,1	0,212024
4,810833	0,1	0,203227
4,812500	0,1	0,223614
4,814167	0,1	0,210103
4,815833	0,1	0,229787
4,817500	0,1	0,226079
4,819167	0,1	0,215573
4,820833	0,1	0,165666
4,822500	0,1	0,234570
4,824167	0,1	0,229516
4,825833	0,1	0,262565
4,827500	0,1	0,227066
4,829167	0,1	0,236463
4,830833	0,1	0,202930
4,832500	0,1	0,203043
4,834167	0,1	0,213063
4,835833	0,1	0,197102
4,837500	0,1	0,221385
4,839167	0,1	0,222916
4,840833	0,1	0,201462
4,842500	0,1	0,241987
4,844167	0,1	0,204916
4,845833	0,1	0,186610
4,847500	0,1	0,203328
4,849167	0,1	0,196797
4,850833	0,1	0,190976
4,852500	0,1	0,207299
4,854167	0,1	0,236504
4,855833	0,1	0,225959
4,857500	0,1	0,226064
4,859167	0,1	0,225605
4,860833	0,1	0,168935
4,862500	0,1	0,216429
4,864167	0,1	0,215293
4,865833	0,1	0,208683
4,867500	0,1	0,153019
4,869167	0,1	0,184902
4,870833	0,1	0,223564
4,872500	0,1	0,213466
4,874167	0,1	0,189177
4,875833	0,1	0,164387
4,877500	0,1	0,206868
4,879167	0,1	0,199776
4,880833	0,1	0,232702
4,882500	0,1	0,188830
4,884167	0,1	0,236196
4,885833	0,1	0,198547
4,887500	0,1	0,233417
4,889167	0,1	0,225971
4,890833	0,1	0,192833
4,892500	0,1	0,170559
4,894167	0,1	0,214736
4,895833	0,1	0,188850
4,897500	0,1	0,183980
4,899167	0,1	0,184243
4,900833	0,1	0,160719
4,902500	0,1	0,153588
4,904167	0,1	0,225602
4,905833	0,1	0,186177
4,907500	0,1	0,180349
4,909167	0,1	0,227047
4,910833	0,1	0,180903
4,912500	0,1	0,208796
4,914167	0,1	0,195758
4,915833	0,1	0,248400
4,917500	0,1	0,166399
4,919167	0,1	0,194561
4,920833	0,1	0,166786
4,922500	0,1	0,232208
4,924167	0,1	0,227010
4,925833	0,1	0,180141
4,927500	0,1	0,214921
4,929167	0,1	0,211248
4,930833	0,1	0,197683
4,932500	0,1	0,209779
4,934167	0,1	0,251704
4,935833	0,1	0,204337
4,937500	0,1	0,192212
4,939167	0,1	0,182285
4,940833	0,1	0,179415
4,942500	0,1	0,171828
4,944167	0,1	0,181639
4,945833	0,1	0,187801
4,947500	0,1	0,180820
4,949167	0,1	0,237234
4,950833	0,1	0,182224
4,952500	0,1	0,188116
4,954167	0,1	0,184016
4,955833	0,1	0,196200
4,957500	0,1	0,184684
4,959167	0,1	0,216034
4,960833	0,1	0,164091
4,962500	0,1	0,202271
4,964167	0,1	0,190155
4,965833	0,1	0,211580
4,967500	0,1	0,184431
4,969167	0,1	0,177904
4,970833	0,1	0,180939
4,972500	0,1	0,179004
4,974167	0,1	0,203532
4,975833	0,1	0,176166
4,977500	0,1	0,217133
4,979167	0,1	0,209351
4,980833	0,1	0,197778
4,982500	0,1	0,192477
4,984167	0,1	0,184077
4,985833	0,1	0,197205
4,987500	0,1	0,200935
4,989167	0,1	0,219401
4,990833	0,1	0,209279
4,992500	0,1	0,188813
4,994167	0,1	0,206706
4,995833	0,1	0,219524
4,997500	0,1	0,164334
4,999167	0,1	0,171254
5,000833	0,1	0,183780
5,002500	0,1	0,165403
5,004167	0,1	0,192226
5,005833	0,1	0,195283
5,007500	0,1	0,192124
5,009167	0,1	0,201151
5,010833	0,1	0,178731
5,012500	0,1	0,211543
5,014167	0,1	0,173022
5,015833	0,1	0,178832
5,017500	0,1	0,206836
5,019167	0,1	0,198857
5,020833	0,1	0,164910
5,022500	0,1	0,205357
5,024167	0,1	0,190323
5,025833	0,1	0,179598
5,027500	0,1	0,144564
5,029167	0,1	0,162986
5,030833	0,1	0,225069
5,032500	0,1	0,205033
5,034167	0,1	0,171435
5,035833	0,1	0,186541
5,037500	0,1	0,200823
5,039167	0,1	0,205473
5,040833	0,1	0,175996
5,042500	0,1	0,172590
5,044167	0,1	0,169503
5,045833	0,1	0,171088
5,047500	0,1	0,185765
5,049167	0,1	0,168925
5,050833	0,1	0,188803
5,052500	0,1	0,173416
5,054167	0,1	0,184786
5,055833	0,1	0,168163
5,057500	0,1	0,153019
5,059167	0,1	0,174580
5,060833	0,1	0,201632
5,062500	0,1	0,223033
5,064167	0,1	0,192433
5,065833	0,1	0,179018
5,067500	0,1	0,123160
5,069167	0,1	0,156786
5,070833	0,1	0,150139
5,072500	0,1	0,186754
5,074167	0,1	0,192061
5,075833	0,1	0,185250
5,077500	0,1	0,208690
5,079167	0,1	0,198373
5,080833	0,1	0,167995
5,082500	0,1	0,169670
5,084167	0,1	0,188743
5,085833	0,1	0,166348
5,087500	0,1	0,194197
5,089167	0,1	0,162102
5,090833	0,1	0,200624
5,092500	0,1	0,182045
5,094167	0,1	0,173995
5,095833	0,1	0,200335
5,097500	0,1	0,175984
5,099167	0,1	0,175783
5,100833	0,1	0,202684
5,102500	0,1	0,193130
5,104167	0,1	0,176029
5,105833	0,1	0,159424
5,107500	0,1	0,131454
5,109167	0,1	0,161627
5,110833	0,1	0,182388
5,112500	0,1	0,196368
5,114167	0,1	0,210097
5,115833	0,1	0,157435
5,117500	0,1	0,167804
5,119167	0,1	0,209096
5,120833	0,1	0,172366
5,122500	0,1	0,177609
5,124167	0,1	0,179584
5,125833	0,1	0,152720
5,127500	0,1	0,226107
5,129167	0,1	0,208564
5,130833	0,1	0,202051
5,132500	0,1	0,193821
5,134167	0,1	0,183557
5,135833	0,1	0,195377
5,137500	0,1	0,177846
5,139167	0,1	0,168742
5,140833	0,1	0,188148
5,142500	0,1	0,181921
5,144167	0,1	0,139666
5,145833	0,1	0,192631
5,147500	0,1	0,165828
5,149167	0,1	0,154872
5,150833	0,1	0,178404
5,152500	0,1	0,156967
5,154167	0,1	0,194573
5,155833	0,1	0,157552
5,157500	0,1	0,180559
5,159167	0,1	0,180989
5,160833	0,1	0,199175
5,162500	0,1	0,139959
5,164167	0,1	0,135966
5,165833	0,1	0,187089
5,167500	0,1	0,191772
5,169167	0,1	0,185299
5,170833	0,1	0,179889
5,172500	0,1	0,171005
5,174167	0,1	0,171438
5,175833	0,1	0,173180
5,177500	0,1	0,193522
5,179167	0,1	0,212743
5,180833	0,1	0,156989
5,182500	0,1	0,161162
5,184167	0,1	0,164538
5,185833	0,1	0,143207
5,187500	0,1	0,211523
5,189167	0,1	0,132958
5,190833	0,1	0,198245
5,192500	0,1	0,139949
5,194167	0,1	0,187959
5,195833	0,1	0,202384
5,197500	0,1	0,174423
5,199167	0,1	0,148532
5,200833	0,1	0,199979
5,202500	0,1	0,159890
5,204167	0,1	0,184419
5,205833	0,1	0,160817
5,207500	0,1	0,186040
5,209167	0,1	0,175799
5,210833	0,1	0,139953
5,212500	0,1	0,172870
5,214167	0,1	0,169030
5,215833	0,1	0,214383
5,217500	0,1	0,188800
5,219167	0,1	0,167402
5,220833	0,1	0,160933
5,222500	0,1	0,195372
5,224167	0,1	0,202894
5,225833	0,1	0,170078
5,227500	0,1	0,129802
5,229167	0,1	0,172579
5,230833	0,1	0,168788
5,232500	0,1	0,194501
5,234167	0,1	0,195041
5,235833	0,1	0,124567
5,237500	0,1	0,189178
5,239167	0,1	0,156389
5,240833	0,1	0,162213
5,242500	0,1	0,171062
5,244167	0,1	0,140933
5,245833	0,1	0,163250
5,247500	0,1	0,153868
5,249167	0,1	0,157881
5,250833	0,1	0,185412
5,252500	0,1	0,168852
5,254167	0,1	0,151183
5,255833	0,1	0,173467
5,257500	0,1	0,140584
5,259167	0,1	0,163371
5,260833	0,1	0,198010
5,262500	0,1	0,192645
5,264167	0,1	0,138725
5,265833	0,1	0,171466
5,267500	0,1	0,136857
5,269167	0,1	0,123442
5,270833	0,1	0,164650
5,272500	0,1	0,187459
5,274167	0,1	0,185576
5,275833	0,1	0,194797
5,277500	0,1	0,164196
5,279167	0,1	0,174269
5,280833	0,1	0,169091
5,282500	0,1	0,146815
5,284167	0,1	0,196480
5,285833	0,1	0,153184
5,287500	0,1	0,146253
5,289167	0,1	0,165806
5,290833	0,1	0,152935
5,292500	0,1	0,139757
5,294167	0,1	0,165574
5,295833	0,1	0,154799
5,297500	0,1	0,135678
5,299167	0,1	0,134391
5,300833	0,1	0,208834
5,302500	0,1	0,153127
5,304167	0,1	0,160906
5,305833	0,1	0,142444
5,307500	0,1	0,168455
5,309167	0,1	0,204000
5,310833	0,1	0,150621
5,312500	0,1	0,143604
5,314167	0,1	0,174905
5,315833	0,1	0,163319
5,317500	0,1	0,165761
5,319167	0,1	0,173034
5,320833	0,1	0,178179
5,322500	0,1	0,171512
5,324167	0,1	0,162556
5,325833	0,1	0,153515
5,327500	0,1	0,131649
5,329167	0,1	0,111907
5,330833	0,1	0,159167
5,332500	0,1	0,189261
5,334167	0,1	0,161509
5,335833	0,1	0,162433
5,337500	0,1	0,152706
5,339167	0,1	0,156672
5,340833	0,1	0,145891
5,342500	0,1	0,157251
5,344167	0,1	0,162915
5,345833	0,1	0,168689
5,347500	0,1	0,145834
5,349167	0,1	0,143022
5,350833	0,1	0,132190
5,352500	0,1	0,114463
5,354167	0,1	0,158235
5,355833	0,1	0,126653
5,357500	0,1	0,148897
5,359167	0,1	0,132531
5,360833	0,1	0,152819
5,362500	0,1	0,150548
5,364167	0,1	0,144776
5,365833	0,1	0,168080
5,367500	0,1	0,153227
5,369167	0,1	0,171943
5,370833	0,1	0,119142
5,372500	0,1	0,158249
5,374167	0,1	0,169500
5,375833	0,1	0,127805
5,377500	0,1	0,155552
5,379167	0,1	0,140167
5,380833	0,1	0,181196
5,382500	0,1	0,114513
5,384167	0,1	0,146281
5,385833	0,1	0,159065
5,387500	0,1	0,118777
5,389167	0,1	0,166573
5,390833	0,1	0,139989
5,392500	0,1	0,138773
5,394167	0,1	0,144192
5,395833	0,1	0,147571
5,397500	0,1	0,128394
5,399167	0,1	0,147288
5,400833	0,1	0,124184
5,402500	0,1	0,161601
5,404167	0,1	0,126702
5,405833	0,1	0,105325
5,407500	0,1	0,124403
5,409167	0,1	0,164989
5,410833	0,1	0,115922
5,412500	0,1	0,142736
5,414167	0,1	0,168623
5,415833	0,1	0,141224
5,417500	0,1	0,122621
5,419167	0,1	0,149839
5,420833	0,1	0,110258
5,422500	0,1	0,149316
5,424167	0,1	0,145188
5,425833	0,1	0,134635
5,427500	0,1	0,116896
5,429167	0,1	0,128856
5,430833	0,1	0,139291
5,432500	0,1	0,141325
5,434167	0,1	0,144955
5,435833	0,1	0,167149
5,437500	0,1	0,144770
5,439167	0,1	0,094868
5,440833	0,1	0,157239
5,442500	0,1	0,145348
5,444167	0,1	0,122933
5,445833	0,1	0,114340
5,447500	0,1	0,133103
5,449167	0,1	0,133301
5,450833	0,1	0,133241
5,452500	0,1	0,142267
5,454167	0,1	0,124786
5,455833	0,1	0,115262
5,457500	0,1	0,111132
5,459167	0,1	0,102395
5,460833	0,1	0,146919
5,462500	0,1	0,151080
5,464167	0,1	0,171882
5,465833	0,1	0,153591
5,467500	0,1	0,173383
5,469167	0,1	0,144962
5,470833	0,1	0,142669
5,472500	0,1	0,125707
5,474167	0,1	0,154269
5,475833	0,1	0,119538
5,477500	0,1	0,136701
5,479167	0,1	0,119182
5,480833	0,1	0,159579
5,482500	0,1	0,100121
5,484167	0,1	0,148551
5,485833	0,1	0,148563
5,487500	0,1	0,131188
5,489167	0,1	0,170413
5,490833	0,1	0,181275
5,492500	0,1	0,129503
5,494167	0,1	0,117377
5,495833	0,1	0,102044
5,497500	0,1	0,117903
5,499167	0,1	0,128107
5,500833	0,1	0,154790
5,502500	0,1	0,138475
5,504167	0,1	0,125595
5,505833	0,1	0,160453
5,507500	0,1	0,137664
5,509167	0,1	0,128401
5,510833	0,1	0,122557
5,512500	0,1	0,150191
5,514167	0,1	0,159297
5,515833	0,1	0,117784
5,517500	0,1	0,125421
5,519167	0,1	0,177248
5,520833	0,1	0,133772
5,522500	0,1	0,138251
5,524167	0,1	0,084567
5,525833	0,1	0,118639
5,527500	0,1	0,164467
5,529167	0,1	0,121766
5,530833	0,1	0,133407
5,532500	0,1	0,127349
5,534167	0,1	0,100764
5,535833	0,1	0,166508
5,537500	0,1	0,138427
5,539167	0,1	0,177130
5,540833	0,1	0,176207
5,542500	0,1	0,129864
5,544167	0,1	0,143609
5,545833	0,1	0,157721
5,547500	0,1	0,148505
5,549167	0,1	0,148915
5,550833	0,1	0,118905
5,552500	0,1	0,123847
5,554167	0,1	0,157367
5,555833	0,1	0,135037
5,557500	0,1	0,153522
5,559167	0,1	0,171954
5,560833	0,1	0,116637
5,562500	0,1	0,157825
5,564167	0,1	0,155511
5,565833	0,1	0,156562
5,567500	0,1	0,133307
5,569167	0,1	0,116869
5,570833	0,1	0,175031
5,572500	0,1	0,156785
5,574167	0,1	0,134237
5,575833	0,1	0,167496
5,577500	0,1	0,143860
5,579167	0,1	0,156791
5,580833	0,1	0,150381
5,582500	0,1	0,137674
5,584167	0,1	0,121106
5,585833	0,1	0,131762
5,587500	0,1	0,140682
5,589167	0,1	0,158073
5,590833	0,1	0,122815
5,592500	0,1	0,128156
5,594167	0,1	0,168475
5,595833	0,1	0,158079
5,597500	0,1	0,174798
5,599167	0,1	0,142531
5,600833	0,1	0,150777
5,602500	0,1	0,172292
5,604167	0,1	0,153299
5,605833	0,1	0,149846
5,607500	0,1	0,174544
5,609167	0,1	0,144963
5,610833	0,1	0,149905
5,612500	0,1	0,129978
5,614167	0,1	0,157137
5,615833	0,1	0,153369
5,617500	0,1	0,163737
5,619167	0,1	0,176652
5,620833	0,1	0,192761
5,622500	0,1	0,173984
5,624167	0,1	0,161650
5,625833	0,1	0,146994
5,627500	0,1	0,126009
5,629167	0,1	0,156545
5,630833	0,1	0,174049
5,632500	0,1	0,165837
5,634167	0,1	0,161913
5,635833	0,1	0,192055
5,637500	0,1	0,183604
5,639167	0,1	0,178025
5,640833	0,1	0,145944
5,642500	0,1	0,166048
5,644167	0,1	0,207680
5,645833	0,1	0,180062
5,647500	0,1	0,193923
5,649167	0,1	0,203946
5,650833	0,1	0,198262
5,652500	0,1	0,175100
5,654167	0,1	0,169080
5,655833	0,1	0,193340
5,657500	0,1	0,138967
5,659167	0,1	0,204952
5,660833	0,1	0,205523
5,662500	0,1	0,154808
5,664167	0,1	0,208137
5,665833	0,1	0,235437
5,667500	0,1	0,179270
5,669167	0,1	0,203592
5,670833	0,1	0,198903
5,672500	0,1	0,177145
5,674167	0,1	0,176160
5,675833	0,1	0,180454
5,677500	0,1	0,213286
5,679167	0,1	0,202500
5,680833	0,1	0,203393
5,682500	0,1	0,186475
5,684167	0,1	0,192364
5,685833	0,1	0,223152
5,687500	0,1	0,215754
5,689167	0,1	0,268977
5,690833	0,1	0,241711
5,692500	0,1	0,205023
5,694167	0,1	0,210813
5,695833	0,1	0,228060
5,697500	0,1	0,214519
5,699167	0,1	0,231651
5,700833	0,1	0,220475
5,702500	0,1	0,216407
5,704167	0,1	0,246663
5,705833	0,1	0,216933
5,707500	0,1	0,210087
5,709167	0,1	0,241332
5,710833	0,1	0,251846
5,712500	0,1	0,225854
5,714167	0,1	0,230311
5,715833	0,1	0,261985
5,717500	0,1	0,232413
5,719167	0,1	0,238833
5,720833	0,1	0,263285
5,722500	0,1	0,258968
5,724167	0,1	0,267293
5,725833	0,1	0,244736
5,727500	0,1	0,234239
5,729167	0,1	0,245628
5,730833	0,1	0,282118
5,732500	0,1	0,262517
5,734167	0,1	0,270867
5,735833	0,1	0,298424
5,737500	0,1	0,264676
5,739167	0,1	0,246249
5,740833	0,1	0,288184
5,742500	0,1	0,291860
5,744167	0,1	0,259145
5,745833	0,1	0,276701
5,747500	0,1	0,278568
5,749167	0,1	0,271862
5,750833	0,1	0,269952
5,752500	0,1	0,266500
5,754167	0,1	0,294359
5,755833	0,1	0,280221
5,757500	0,1	0,336643
5,759167	0,1	0,276520
5,760833	0,1	0,257749
5,762500	0,1	0,268605
5,764167	0,1	0,313253
5,765833	0,1	0,315785
5,767500	0,1	0,300281
5,769167	0,1	0,284697
5,770833	0,1	0,310829
5,772500	0,1	0,330541
5,774167	0,1	0,299354
5,775833	0,1	0,331454
5,777500	0,1	0,317820
5,779167	0,1	0,306988
5,780833	0,1	0,352108
5,782500	0,1	0,259038
5,784167	0,1	0,290400
5,785833	0,1	0,294776
5,787500	0,1	0,351111
5,789167	0,1	0,323768
5,790833	0,1	0,295242
5,792500	0,1	0,336495
5,794167	0,1	0,331188
5,795833	0,1	0,320739
5,797500	0,1	0,345588
5,799167	0,1	0,321428
5,800833	0,1	0,353183
5,802500	0,1	0,310846
5,804167	0,1	0,318640
5,805833	0,1	0,314640
5,807500	0,1	0,327532
5,809167	0,1	0,282369
5,810833	0,1	0,298043
5,812500	0,1	0,329132
5,814167	0,1	0,294083
5,815833	0,1	0,344468
5,817500	0,1	0,324072
5,819167	0,1	0,296648
5,820833	0,1	0,282894
5,822500	0,1	0,278997
5,824167	0,1	0,315471
5,825833	0,1	0,294904
5,827500	0,1	0,323340
5,829167	0,1	0,355151
5,830833	0,1	0,295144
5,832500	0,1	0,294502
5,834167	0,1	0,299742
5,835833	0,1	0,343536
5,837500	0,1	0,292361
5,839167	0,1	0,275317
5,840833	0,1	0,291032
5,842500	0,1	0,331910
5,844167	0,1	0,291884
5,845833	0,1	0,291616
5,847500	0,1	0,289522
5,849167	0,1	0,321279
5,850833	0,1	0,277694
5,852500	0,1	0,303693
5,854167	0,1	0,300386
5,855833	0,1	0,302141
5,857500	0,1	0,330477
5,859167	0,1	0,260357
5,860833	0,1	0,287071
5,862500	0,1	0,307025
5,864167	0,1	0,309185
5,865833	0,1	0,310238
5,867500	0,1	0,319556
5,869167	0,1	0,354678
5,870833	0,1	0,310327
5,872500	0,1	0,279385
5,874167	0,1	0,288191
5,875833	0,1	0,309700
5,877500	0,1	0,308192
5,879167	0,1	0,301762
5,880833	0,1	0,268539
5,882500	0,1	0,284462
5,884167	0,1	0,285688
5,885833	0,1	0,264105
5,887500	0,1	0,302743
5,889167	0,1	0,282835
5,890833	0,1	0,297112
5,892500	0,1	0,292503
5,894167	0,1	0,283704
5,895833	0,1	0,296485
5,897500	0,1	0,265391
5,899167	0,1	0,307814
5,900833	0,1	0,258568
5,902500	0,1	0,231096
5,904167	0,1	0,257908
5,905833	0,1	0,293227
5,907500	0,1	0,269896
5,909167	0,1	0,275343
5,910833	0,1	0,258573
5,912500	0,1	0,272316
5,914167	0,1	0,250112
5,915833	0,1	0,286138
5,917500	0,1	0,255997
5,919167	0,1	0,256631
5,920833	0,1	0,236577
5,922500	0,1	0,231793
5,924167	0,1	0,232892
5,925833	0,1	0,279947
5,927500	0,1	0,265326
5,929167	0,1	0,285209
5,930833	0,1	0,248360
5,932500	0,1	0,227184
5,934167	0,1	0,275747
5,935833	0,1	0,239606
5,937500	0,1	0,242650
5,939167	0,1	0,231153
5,940833	0,1	0,285383
5,942500	0,1	0,233377
5,944167	0,1	0,282897
5,945833	0,1	0,286527
5,947500	0,1	0,232325
5,949167	0,1	0,243399
5,950833	0,1	0,227426
5,952500	0,1	0,246024
5,954167	0,1	0,215699
5,955833	0,1	0,241227
5,957500	0,1	0,236330
5,959167	0,1	0,227774
5,960833	0,1	0,188187
5,962500	0,1	0,227580
5,964167	0,1	0,245139
5,965833	0,1	0,218906
5,967500	0,1	0,225712
5,969167	0,1	0,258825
5,970833	0,1	0,244031
5,972500	0,1	0,238133
5,974167	0,1	0,259665
5,975833	0,1	0,214359
5,977500	0,1	0,219248
5,979167	0,1	0,204497
5,980833	0,1	0,221170
5,982500	0,1	0,250802
5,984167	0,1	0,189803
5,985833	0,1	0,224848
5,987500	0,1	0,203034
5,989167	0,1	0,204326
5,990833	0,1	0,215735
5,992500	0,1	0,210208
5,994167	0,1	0,222746
5,995833	0,1	0,220703
5,997500	0,1	0,202163
5,999167	0,1	0,223264
6,000833	0,1	0,236204
