File Path	chrom://chromeleon01/ikbm_chromeleon/2022/Rezex/Esteban/220612_chitin_4_7.seq/655.smp/UV_VIS_1.channel/UV_VIS_1.chm
Channel	UV_VIS_1

Injection Information:
Data Vault	ikbm_chromeleon
Injection	A2ox 800
Injection Number	132
Position	RA7
Comment	
Processing Method	New ProcMethod
Instrument Method	Short_Rezex_6min_194nm
Type	Calibration Standard
Status	Finished
Injection Date	13.06.2022
Injection Time	07:21:51
Injection Volume (µl)	8,000
Dilution Factor	1,0000
Weight	1,0000

Chromatogram Data Information:
Time Min. (min)	0,000833
Time Max. (min)	6,000833
Data Points	3601
Detector	UV
Generating Data System	Chromeleon 7.2.9.11323
Exporting Data System	Chromeleon 7.2.9.0
Operator	Instrument Controller
Signal Quantity	Absorbance
Signal Unit	mAU
Signal Min.	-0,126517
Signal Max.	354,396806
Channel	UV_VIS_1
Driver Name	VWD3000.dll
Channel Type	Evaluation
Min. Step (s)	0,1
Max. Step (s)	0,1
Average Step (s)	0,1

Signal Parameter Information:
Signal Info	WVL:194 nm

Chromatogram Data:
Time (min)	Step (s)	Value (mAU)
0,000833	n.a.	-0,085608
0,002500	0,1	-0,092952
0,004167	0,1	-0,056880
0,005833	0,1	-0,047967
0,007500	0,1	-0,043817
0,009167	0,1	-0,040391
0,010833	0,1	-0,032175
0,012500	0,1	-0,034786
0,014167	0,1	-0,044124
0,015833	0,1	-0,045920
0,017500	0,1	-0,101156
0,019167	0,1	-0,078058
0,020833	0,1	-0,061075
0,022500	0,1	-0,046695
0,024167	0,1	-0,068660
0,025833	0,1	-0,066851
0,027500	0,1	-0,046627
0,029167	0,1	-0,062298
0,030833	0,1	-0,051995
0,032500	0,1	-0,025827
0,034167	0,1	-0,067763
0,035833	0,1	-0,070578
0,037500	0,1	-0,056064
0,039167	0,1	-0,017322
0,040833	0,1	-0,072549
0,042500	0,1	-0,067504
0,044167	0,1	-0,054089
0,045833	0,1	-0,059106
0,047500	0,1	-0,064757
0,049167	0,1	-0,095860
0,050833	0,1	-0,087193
0,052500	0,1	-0,069933
0,054167	0,1	-0,067312
0,055833	0,1	-0,091673
0,057500	0,1	-0,042906
0,059167	0,1	-0,088874
0,060833	0,1	-0,062589
0,062500	0,1	-0,041325
0,064167	0,1	-0,051409
0,065833	0,1	-0,045329
0,067500	0,1	-0,052861
0,069167	0,1	-0,034102
0,070833	0,1	-0,048311
0,072500	0,1	-0,123312
0,074167	0,1	-0,093089
0,075833	0,1	-0,050128
0,077500	0,1	-0,059033
0,079167	0,1	-0,107408
0,080833	0,1	-0,073452
0,082500	0,1	-0,062545
0,084167	0,1	-0,078160
0,085833	0,1	-0,064862
0,087500	0,1	-0,087938
0,089167	0,1	-0,098970
0,090833	0,1	-0,063544
0,092500	0,1	-0,076987
0,094167	0,1	-0,122685
0,095833	0,1	-0,048913
0,097500	0,1	-0,064514
0,099167	0,1	-0,065058
0,100833	0,1	-0,053287
0,102500	0,1	-0,053805
0,104167	0,1	-0,113586
0,105833	0,1	-0,087317
0,107500	0,1	-0,113474
0,109167	0,1	-0,109345
0,110833	0,1	-0,108513
0,112500	0,1	-0,080624
0,114167	0,1	-0,069358
0,115833	0,1	-0,071230
0,117500	0,1	-0,088359
0,119167	0,1	-0,089567
0,120833	0,1	-0,052451
0,122500	0,1	-0,111834
0,124167	0,1	-0,060923
0,125833	0,1	-0,073492
0,127500	0,1	-0,051998
0,129167	0,1	-0,061959
0,130833	0,1	-0,038059
0,132500	0,1	-0,106590
0,134167	0,1	-0,065698
0,135833	0,1	-0,092674
0,137500	0,1	-0,063531
0,139167	0,1	-0,104494
0,140833	0,1	-0,080375
0,142500	0,1	-0,063460
0,144167	0,1	-0,110545
0,145833	0,1	-0,078273
0,147500	0,1	-0,038945
0,149167	0,1	-0,058922
0,150833	0,1	-0,113467
0,152500	0,1	-0,059581
0,154167	0,1	-0,059227
0,155833	0,1	-0,093946
0,157500	0,1	-0,083826
0,159167	0,1	-0,078907
0,160833	0,1	-0,078625
0,162500	0,1	-0,088181
0,164167	0,1	-0,083865
0,165833	0,1	-0,114072
0,167500	0,1	-0,106841
0,169167	0,1	-0,104384
0,170833	0,1	-0,069604
0,172500	0,1	-0,051685
0,174167	0,1	-0,049718
0,175833	0,1	-0,040621
0,177500	0,1	-0,094872
0,179167	0,1	-0,097150
0,180833	0,1	-0,092493
0,182500	0,1	-0,028449
0,184167	0,1	-0,102041
0,185833	0,1	-0,070938
0,187500	0,1	-0,084153
0,189167	0,1	-0,034049
0,190833	0,1	-0,042841
0,192500	0,1	-0,050227
0,194167	0,1	-0,092261
0,195833	0,1	-0,052232
0,197500	0,1	-0,083387
0,199167	0,1	-0,068709
0,200833	0,1	-0,089341
0,202500	0,1	-0,061146
0,204167	0,1	-0,071858
0,205833	0,1	-0,087067
0,207500	0,1	-0,055728
0,209167	0,1	-0,084960
0,210833	0,1	-0,046231
0,212500	0,1	-0,097678
0,214167	0,1	-0,074712
0,215833	0,1	-0,065742
0,217500	0,1	-0,050582
0,219167	0,1	-0,097559
0,220833	0,1	-0,063524
0,222500	0,1	-0,056764
0,224167	0,1	-0,107338
0,225833	0,1	-0,052407
0,227500	0,1	-0,097218
0,229167	0,1	-0,085851
0,230833	0,1	-0,067016
0,232500	0,1	-0,071350
0,234167	0,1	-0,101692
0,235833	0,1	-0,068602
0,237500	0,1	-0,121444
0,239167	0,1	-0,082370
0,240833	0,1	-0,102054
0,242500	0,1	-0,053576
0,244167	0,1	-0,099243
0,245833	0,1	-0,037247
0,247500	0,1	-0,066314
0,249167	0,1	-0,048851
0,250833	0,1	-0,032638
0,252500	0,1	-0,045276
0,254167	0,1	-0,075772
0,255833	0,1	-0,072784
0,257500	0,1	-0,065161
0,259167	0,1	-0,060960
0,260833	0,1	-0,069193
0,262500	0,1	-0,032522
0,264167	0,1	-0,063168
0,265833	0,1	-0,032169
0,267500	0,1	-0,071791
0,269167	0,1	-0,038763
0,270833	0,1	-0,041952
0,272500	0,1	-0,072435
0,274167	0,1	-0,056185
0,275833	0,1	-0,063803
0,277500	0,1	-0,081887
0,279167	0,1	-0,101095
0,280833	0,1	-0,045353
0,282500	0,1	-0,025064
0,284167	0,1	-0,060241
0,285833	0,1	-0,055670
0,287500	0,1	-0,023531
0,289167	0,1	-0,105015
0,290833	0,1	-0,086444
0,292500	0,1	-0,063581
0,294167	0,1	-0,093648
0,295833	0,1	-0,046041
0,297500	0,1	-0,046571
0,299167	0,1	-0,092361
0,300833	0,1	-0,040763
0,302500	0,1	-0,036362
0,304167	0,1	-0,053841
0,305833	0,1	-0,078207
0,307500	0,1	-0,048794
0,309167	0,1	-0,069803
0,310833	0,1	-0,094400
0,312500	0,1	-0,050950
0,314167	0,1	-0,060848
0,315833	0,1	-0,072390
0,317500	0,1	-0,116489
0,319167	0,1	-0,048322
0,320833	0,1	-0,039058
0,322500	0,1	-0,064692
0,324167	0,1	-0,050001
0,325833	0,1	-0,045100
0,327500	0,1	-0,040620
0,329167	0,1	-0,025872
0,330833	0,1	-0,089631
0,332500	0,1	-0,077856
0,334167	0,1	-0,044535
0,335833	0,1	-0,043756
0,337500	0,1	-0,069401
0,339167	0,1	-0,019588
0,340833	0,1	-0,050170
0,342500	0,1	-0,052722
0,344167	0,1	-0,103662
0,345833	0,1	-0,007354
0,347500	0,1	-0,063041
0,349167	0,1	-0,088800
0,350833	0,1	-0,091960
0,352500	0,1	-0,070002
0,354167	0,1	-0,032062
0,355833	0,1	-0,072844
0,357500	0,1	-0,075418
0,359167	0,1	-0,072794
0,360833	0,1	-0,067193
0,362500	0,1	-0,064507
0,364167	0,1	-0,068253
0,365833	0,1	0,009084
0,367500	0,1	-0,066423
0,369167	0,1	-0,041386
0,370833	0,1	-0,034548
0,372500	0,1	-0,047059
0,374167	0,1	-0,068829
0,375833	0,1	-0,058056
0,377500	0,1	-0,043829
0,379167	0,1	-0,059143
0,380833	0,1	-0,013234
0,382500	0,1	-0,052213
0,384167	0,1	-0,079901
0,385833	0,1	-0,045056
0,387500	0,1	-0,033227
0,389167	0,1	0,008220
0,390833	0,1	-0,071192
0,392500	0,1	-0,020220
0,394167	0,1	-0,058897
0,395833	0,1	-0,001572
0,397500	0,1	0,002688
0,399167	0,1	-0,044675
0,400833	0,1	-0,027447
0,402500	0,1	-0,056523
0,404167	0,1	0,015801
0,405833	0,1	-0,066070
0,407500	0,1	-0,026218
0,409167	0,1	-0,068464
0,410833	0,1	-0,062243
0,412500	0,1	-0,013235
0,414167	0,1	-0,025856
0,415833	0,1	-0,065318
0,417500	0,1	-0,036417
0,419167	0,1	-0,024481
0,420833	0,1	-0,049522
0,422500	0,1	-0,043706
0,424167	0,1	-0,019823
0,425833	0,1	-0,038100
0,427500	0,1	-0,031582
0,429167	0,1	-0,008911
0,430833	0,1	-0,025103
0,432500	0,1	-0,027973
0,434167	0,1	-0,002498
0,435833	0,1	-0,058501
0,437500	0,1	-0,088507
0,439167	0,1	-0,055187
0,440833	0,1	-0,024013
0,442500	0,1	-0,008328
0,444167	0,1	-0,038688
0,445833	0,1	-0,033737
0,447500	0,1	-0,007387
0,449167	0,1	0,016733
0,450833	0,1	-0,004411
0,452500	0,1	-0,032989
0,454167	0,1	-0,056696
0,455833	0,1	-0,048948
0,457500	0,1	-0,008274
0,459167	0,1	-0,038808
0,460833	0,1	-0,026913
0,462500	0,1	-0,047018
0,464167	0,1	-0,014504
0,465833	0,1	-0,040492
0,467500	0,1	-0,016426
0,469167	0,1	0,004450
0,470833	0,1	-0,024880
0,472500	0,1	-0,003148
0,474167	0,1	0,001997
0,475833	0,1	-0,016283
0,477500	0,1	-0,054558
0,479167	0,1	-0,051232
0,480833	0,1	-0,004656
0,482500	0,1	-0,079529
0,484167	0,1	-0,025012
0,485833	0,1	-0,044061
0,487500	0,1	-0,034970
0,489167	0,1	-0,001858
0,490833	0,1	0,012196
0,492500	0,1	-0,039565
0,494167	0,1	-0,005136
0,495833	0,1	-0,027920
0,497500	0,1	-0,054952
0,499167	0,1	-0,029361
0,500833	0,1	-0,020220
0,502500	0,1	-0,023303
0,504167	0,1	-0,026208
0,505833	0,1	-0,045976
0,507500	0,1	-0,013742
0,509167	0,1	-0,014084
0,510833	0,1	-0,035242
0,512500	0,1	-0,039928
0,514167	0,1	-0,055124
0,515833	0,1	-0,006993
0,517500	0,1	-0,019103
0,519167	0,1	-0,020208
0,520833	0,1	-0,044160
0,522500	0,1	-0,031583
0,524167	0,1	-0,026731
0,525833	0,1	-0,030068
0,527500	0,1	-0,048951
0,529167	0,1	-0,028210
0,530833	0,1	-0,044914
0,532500	0,1	-0,028158
0,534167	0,1	-0,037882
0,535833	0,1	-0,020742
0,537500	0,1	-0,064627
0,539167	0,1	-0,058396
0,540833	0,1	-0,060558
0,542500	0,1	-0,041505
0,544167	0,1	-0,038915
0,545833	0,1	-0,044585
0,547500	0,1	-0,054495
0,549167	0,1	-0,055780
0,550833	0,1	-0,016611
0,552500	0,1	-0,043298
0,554167	0,1	0,001067
0,555833	0,1	-0,032105
0,557500	0,1	-0,050345
0,559167	0,1	-0,070273
0,560833	0,1	-0,059330
0,562500	0,1	-0,045232
0,564167	0,1	-0,039578
0,565833	0,1	-0,047502
0,567500	0,1	-0,063280
0,569167	0,1	-0,025408
0,570833	0,1	-0,033683
0,572500	0,1	-0,038694
0,574167	0,1	-0,049013
0,575833	0,1	-0,033339
0,577500	0,1	-0,057177
0,579167	0,1	-0,030666
0,580833	0,1	-0,011704
0,582500	0,1	-0,052965
0,584167	0,1	-0,047024
0,585833	0,1	-0,004715
0,587500	0,1	-0,062760
0,589167	0,1	-0,054319
0,590833	0,1	-0,076235
0,592500	0,1	-0,037933
0,594167	0,1	-0,039336
0,595833	0,1	-0,056938
0,597500	0,1	-0,009666
0,599167	0,1	-0,022621
0,600833	0,1	-0,025068
0,602500	0,1	-0,055882
0,604167	0,1	-0,074181
0,605833	0,1	-0,062076
0,607500	0,1	-0,035085
0,609167	0,1	-0,051748
0,610833	0,1	-0,031477
0,612500	0,1	-0,034716
0,614167	0,1	-0,056826
0,615833	0,1	-0,058004
0,617500	0,1	-0,071868
0,619167	0,1	-0,051276
0,620833	0,1	-0,046211
0,622500	0,1	-0,061417
0,624167	0,1	-0,039501
0,625833	0,1	-0,041151
0,627500	0,1	-0,030421
0,629167	0,1	-0,041878
0,630833	0,1	-0,031595
0,632500	0,1	-0,052569
0,634167	0,1	-0,006240
0,635833	0,1	-0,055348
0,637500	0,1	-0,042205
0,639167	0,1	-0,063751
0,640833	0,1	-0,041907
0,642500	0,1	-0,015906
0,644167	0,1	-0,025406
0,645833	0,1	-0,057035
0,647500	0,1	-0,025635
0,649167	0,1	-0,048549
0,650833	0,1	-0,014406
0,652500	0,1	-0,030405
0,654167	0,1	-0,041028
0,655833	0,1	-0,064220
0,657500	0,1	-0,074895
0,659167	0,1	-0,055734
0,660833	0,1	-0,068190
0,662500	0,1	-0,033672
0,664167	0,1	-0,047670
0,665833	0,1	-0,031825
0,667500	0,1	-0,092546
0,669167	0,1	-0,046762
0,670833	0,1	-0,019173
0,672500	0,1	-0,094987
0,674167	0,1	-0,060157
0,675833	0,1	-0,052976
0,677500	0,1	-0,092321
0,679167	0,1	-0,048737
0,680833	0,1	-0,029432
0,682500	0,1	-0,095972
0,684167	0,1	-0,060687
0,685833	0,1	-0,045392
0,687500	0,1	-0,028038
0,689167	0,1	-0,024479
0,690833	0,1	-0,048549
0,692500	0,1	-0,019294
0,694167	0,1	-0,065718
0,695833	0,1	-0,030077
0,697500	0,1	-0,031460
0,699167	0,1	-0,047148
0,700833	0,1	-0,037426
0,702500	0,1	-0,040669
0,704167	0,1	-0,004485
0,705833	0,1	-0,082514
0,707500	0,1	-0,031364
0,709167	0,1	-0,017306
0,710833	0,1	-0,046495
0,712500	0,1	-0,051820
0,714167	0,1	-0,033340
0,715833	0,1	-0,036541
0,717500	0,1	-0,004786
0,719167	0,1	-0,028019
0,720833	0,1	-0,040968
0,722500	0,1	-0,061015
0,724167	0,1	-0,036196
0,725833	0,1	-0,002208
0,727500	0,1	-0,024752
0,729167	0,1	-0,066571
0,730833	0,1	-0,008869
0,732500	0,1	-0,011178
0,734167	0,1	-0,074871
0,735833	0,1	-0,058870
0,737500	0,1	-0,014796
0,739167	0,1	-0,000921
0,740833	0,1	-0,043854
0,742500	0,1	-0,056118
0,744167	0,1	-0,016791
0,745833	0,1	-0,036646
0,747500	0,1	-0,013921
0,749167	0,1	-0,037166
0,750833	0,1	0,024068
0,752500	0,1	-0,001371
0,754167	0,1	0,001187
0,755833	0,1	-0,057739
0,757500	0,1	0,000533
0,759167	0,1	0,018682
0,760833	0,1	0,038565
0,762500	0,1	0,068165
0,764167	0,1	-0,007484
0,765833	0,1	-0,010889
0,767500	0,1	0,021231
0,769167	0,1	0,016230
0,770833	0,1	-0,000782
0,772500	0,1	0,014180
0,774167	0,1	0,001893
0,775833	0,1	-0,020263
0,777500	0,1	-0,000620
0,779167	0,1	0,002699
0,780833	0,1	0,023497
0,782500	0,1	-0,023644
0,784167	0,1	0,008997
0,785833	0,1	0,012719
0,787500	0,1	-0,016353
0,789167	0,1	-0,007383
0,790833	0,1	-0,021678
0,792500	0,1	-0,024576
0,794167	0,1	-0,030166
0,795833	0,1	-0,007907
0,797500	0,1	0,002747
0,799167	0,1	-0,045208
0,800833	0,1	-0,036424
0,802500	0,1	-0,033746
0,804167	0,1	0,003732
0,805833	0,1	-0,007087
0,807500	0,1	-0,022658
0,809167	0,1	-0,036478
0,810833	0,1	-0,026223
0,812500	0,1	-0,015442
0,814167	0,1	-0,007333
0,815833	0,1	-0,038497
0,817500	0,1	-0,001399
0,819167	0,1	-0,065664
0,820833	0,1	-0,056713
0,822500	0,1	-0,051061
0,824167	0,1	-0,008093
0,825833	0,1	-0,044277
0,827500	0,1	-0,067178
0,829167	0,1	-0,056024
0,830833	0,1	-0,056181
0,832500	0,1	-0,054318
0,834167	0,1	-0,012062
0,835833	0,1	-0,089797
0,837500	0,1	-0,052752
0,839167	0,1	-0,070533
0,840833	0,1	-0,022045
0,842500	0,1	-0,083227
0,844167	0,1	-0,031183
0,845833	0,1	-0,071682
0,847500	0,1	-0,086796
0,849167	0,1	-0,058993
0,850833	0,1	-0,068311
0,852500	0,1	-0,057466
0,854167	0,1	-0,051642
0,855833	0,1	-0,062831
0,857500	0,1	-0,101528
0,859167	0,1	-0,085041
0,860833	0,1	-0,046532
0,862500	0,1	-0,049427
0,864167	0,1	-0,083575
0,865833	0,1	-0,078806
0,867500	0,1	-0,076710
0,869167	0,1	-0,041208
0,870833	0,1	-0,063891
0,872500	0,1	-0,035206
0,874167	0,1	-0,083211
0,875833	0,1	-0,061958
0,877500	0,1	-0,096331
0,879167	0,1	-0,058755
0,880833	0,1	-0,065166
0,882500	0,1	-0,049432
0,884167	0,1	-0,059614
0,885833	0,1	-0,065867
0,887500	0,1	-0,051395
0,889167	0,1	-0,082986
0,890833	0,1	-0,080429
0,892500	0,1	-0,062197
0,894167	0,1	-0,056724
0,895833	0,1	-0,070875
0,897500	0,1	-0,111737
0,899167	0,1	-0,061103
0,900833	0,1	-0,100339
0,902500	0,1	-0,079580
0,904167	0,1	-0,080549
0,905833	0,1	-0,045348
0,907500	0,1	-0,126517
0,909167	0,1	-0,063780
0,910833	0,1	-0,077579
0,912500	0,1	-0,082139
0,914167	0,1	-0,100190
0,915833	0,1	-0,049910
0,917500	0,1	-0,086832
0,919167	0,1	-0,084806
0,920833	0,1	-0,116097
0,922500	0,1	-0,060623
0,924167	0,1	-0,108571
0,925833	0,1	-0,092275
0,927500	0,1	-0,041564
0,929167	0,1	-0,100233
0,930833	0,1	-0,124494
0,932500	0,1	-0,066805
0,934167	0,1	-0,082237
0,935833	0,1	-0,063128
0,937500	0,1	-0,031139
0,939167	0,1	-0,080076
0,940833	0,1	-0,077403
0,942500	0,1	-0,037142
0,944167	0,1	-0,070862
0,945833	0,1	-0,080486
0,947500	0,1	-0,083053
0,949167	0,1	-0,084745
0,950833	0,1	-0,085908
0,952500	0,1	-0,050948
0,954167	0,1	-0,056180
0,955833	0,1	-0,063354
0,957500	0,1	-0,056002
0,959167	0,1	-0,089859
0,960833	0,1	-0,052403
0,962500	0,1	-0,029563
0,964167	0,1	-0,042720
0,965833	0,1	-0,057680
0,967500	0,1	-0,049358
0,969167	0,1	-0,047433
0,970833	0,1	-0,025705
0,972500	0,1	-0,040326
0,974167	0,1	-0,023768
0,975833	0,1	-0,040726
0,977500	0,1	-0,027916
0,979167	0,1	-0,044682
0,980833	0,1	-0,051859
0,982500	0,1	-0,039270
0,984167	0,1	-0,053733
0,985833	0,1	-0,005469
0,987500	0,1	-0,029229
0,989167	0,1	-0,050044
0,990833	0,1	-0,046722
0,992500	0,1	-0,001039
0,994167	0,1	-0,013972
0,995833	0,1	-0,021378
0,997500	0,1	-0,048820
0,999167	0,1	-0,035482
1,000833	0,1	0,015964
1,002500	0,1	-0,030979
1,004167	0,1	-0,031159
1,005833	0,1	0,028340
1,007500	0,1	0,030050
1,009167	0,1	-0,028570
1,010833	0,1	0,016799
1,012500	0,1	0,059254
1,014167	0,1	0,033431
1,015833	0,1	0,044266
1,017500	0,1	0,053018
1,019167	0,1	0,036468
1,020833	0,1	0,072073
1,022500	0,1	0,089518
1,024167	0,1	0,086039
1,025833	0,1	0,081838
1,027500	0,1	0,109630
1,029167	0,1	0,078212
1,030833	0,1	0,119021
1,032500	0,1	0,084350
1,034167	0,1	0,126611
1,035833	0,1	0,130180
1,037500	0,1	0,119278
1,039167	0,1	0,111944
1,040833	0,1	0,127961
1,042500	0,1	0,156601
1,044167	0,1	0,149933
1,045833	0,1	0,131941
1,047500	0,1	0,230049
1,049167	0,1	0,203926
1,050833	0,1	0,295464
1,052500	0,1	0,361992
1,054167	0,1	0,504333
1,055833	0,1	0,691630
1,057500	0,1	0,947872
1,059167	0,1	1,234514
1,060833	0,1	1,708516
1,062500	0,1	2,362574
1,064167	0,1	3,261786
1,065833	0,1	4,379384
1,067500	0,1	5,786737
1,069167	0,1	7,545260
1,070833	0,1	9,699069
1,072500	0,1	12,388531
1,074167	0,1	15,431415
1,075833	0,1	19,074706
1,077500	0,1	23,176179
1,079167	0,1	27,824473
1,080833	0,1	32,980143
1,082500	0,1	38,580459
1,084167	0,1	44,597033
1,085833	0,1	51,075650
1,087500	0,1	57,728409
1,089167	0,1	64,618107
1,090833	0,1	71,686511
1,092500	0,1	78,698787
1,094167	0,1	85,792698
1,095833	0,1	92,715191
1,097500	0,1	99,417722
1,099167	0,1	105,830158
1,100833	0,1	111,919294
1,102500	0,1	117,639141
1,104167	0,1	122,948209
1,105833	0,1	127,685498
1,107500	0,1	131,866831
1,109167	0,1	135,606533
1,110833	0,1	138,765422
1,112500	0,1	141,395470
1,114167	0,1	143,413403
1,115833	0,1	144,948377
1,117500	0,1	145,873789
1,119167	0,1	146,336877
1,120833	0,1	146,233376
1,122500	0,1	145,677103
1,124167	0,1	144,684643
1,125833	0,1	143,310161
1,127500	0,1	141,509613
1,129167	0,1	139,331040
1,130833	0,1	136,861114
1,132500	0,1	134,100627
1,134167	0,1	131,074340
1,135833	0,1	127,854110
1,137500	0,1	124,351038
1,139167	0,1	120,781743
1,140833	0,1	117,109265
1,142500	0,1	113,301011
1,144167	0,1	109,467054
1,145833	0,1	105,514807
1,147500	0,1	101,603294
1,149167	0,1	97,699276
1,150833	0,1	93,780367
1,152500	0,1	89,943081
1,154167	0,1	86,175196
1,155833	0,1	82,454586
1,157500	0,1	78,842683
1,159167	0,1	75,283146
1,160833	0,1	71,882899
1,162500	0,1	68,556263
1,164167	0,1	65,351089
1,165833	0,1	62,217870
1,167500	0,1	59,271696
1,169167	0,1	56,383879
1,170833	0,1	53,607040
1,172500	0,1	50,933371
1,174167	0,1	48,413581
1,175833	0,1	45,982929
1,177500	0,1	43,682628
1,179167	0,1	41,481982
1,180833	0,1	39,338602
1,182500	0,1	37,298211
1,184167	0,1	35,347980
1,185833	0,1	33,534704
1,187500	0,1	31,817378
1,189167	0,1	30,155231
1,190833	0,1	28,582328
1,192500	0,1	27,072429
1,194167	0,1	25,699281
1,195833	0,1	24,361821
1,197500	0,1	23,086812
1,199167	0,1	21,869846
1,200833	0,1	20,745970
1,202500	0,1	19,705185
1,204167	0,1	18,677321
1,205833	0,1	17,731864
1,207500	0,1	16,830843
1,209167	0,1	16,011439
1,210833	0,1	15,182680
1,212500	0,1	14,455999
1,214167	0,1	13,718856
1,215833	0,1	13,109624
1,217500	0,1	12,407745
1,219167	0,1	11,844786
1,220833	0,1	11,227822
1,222500	0,1	10,747975
1,224167	0,1	10,299238
1,225833	0,1	9,825636
1,227500	0,1	9,309889
1,229167	0,1	8,948516
1,230833	0,1	8,501435
1,232500	0,1	8,199961
1,234167	0,1	7,815854
1,235833	0,1	7,501665
1,237500	0,1	7,178310
1,239167	0,1	6,872801
1,240833	0,1	6,602560
1,242500	0,1	6,346082
1,244167	0,1	6,078502
1,245833	0,1	5,825307
1,247500	0,1	5,601093
1,249167	0,1	5,397355
1,250833	0,1	5,200402
1,252500	0,1	4,961843
1,254167	0,1	4,828846
1,255833	0,1	4,642807
1,257500	0,1	4,478222
1,259167	0,1	4,278805
1,260833	0,1	4,107377
1,262500	0,1	4,027174
1,264167	0,1	3,875921
1,265833	0,1	3,741574
1,267500	0,1	3,585632
1,269167	0,1	3,518434
1,270833	0,1	3,337999
1,272500	0,1	3,264782
1,274167	0,1	3,175257
1,275833	0,1	3,048886
1,277500	0,1	2,951995
1,279167	0,1	2,905838
1,280833	0,1	2,793815
1,282500	0,1	2,697287
1,284167	0,1	2,691379
1,285833	0,1	2,581928
1,287500	0,1	2,475410
1,289167	0,1	2,427524
1,290833	0,1	2,363893
1,292500	0,1	2,286447
1,294167	0,1	2,238519
1,295833	0,1	2,204284
1,297500	0,1	2,099799
1,299167	0,1	2,048092
1,300833	0,1	2,046871
1,302500	0,1	1,980140
1,304167	0,1	1,948699
1,305833	0,1	1,868061
1,307500	0,1	1,880072
1,309167	0,1	1,812598
1,310833	0,1	1,787539
1,312500	0,1	1,763217
1,314167	0,1	1,686400
1,315833	0,1	1,709927
1,317500	0,1	1,621430
1,319167	0,1	1,635568
1,320833	0,1	1,594889
1,322500	0,1	1,568801
1,324167	0,1	1,534690
1,325833	0,1	1,496121
1,327500	0,1	1,523185
1,329167	0,1	1,480657
1,330833	0,1	1,456685
1,332500	0,1	1,435090
1,334167	0,1	1,411329
1,335833	0,1	1,443952
1,337500	0,1	1,399752
1,339167	0,1	1,349744
1,340833	0,1	1,352329
1,342500	0,1	1,326955
1,344167	0,1	1,334488
1,345833	0,1	1,320008
1,347500	0,1	1,322559
1,349167	0,1	1,289226
1,350833	0,1	1,304429
1,352500	0,1	1,328608
1,354167	0,1	1,277939
1,355833	0,1	1,283648
1,357500	0,1	1,267127
1,359167	0,1	1,296755
1,360833	0,1	1,270372
1,362500	0,1	1,252112
1,364167	0,1	1,261068
1,365833	0,1	1,237227
1,367500	0,1	1,301094
1,369167	0,1	1,224337
1,370833	0,1	1,260659
1,372500	0,1	1,263157
1,374167	0,1	1,223487
1,375833	0,1	1,259175
1,377500	0,1	1,242998
1,379167	0,1	1,218470
1,380833	0,1	1,215446
1,382500	0,1	1,244340
1,384167	0,1	1,254141
1,385833	0,1	1,208264
1,387500	0,1	1,255138
1,389167	0,1	1,228405
1,390833	0,1	1,255011
1,392500	0,1	1,260270
1,394167	0,1	1,198776
1,395833	0,1	1,206505
1,397500	0,1	1,226728
1,399167	0,1	1,247426
1,400833	0,1	1,228915
1,402500	0,1	1,250378
1,404167	0,1	1,227959
1,405833	0,1	1,210774
1,407500	0,1	1,224497
1,409167	0,1	1,218202
1,410833	0,1	1,233187
1,412500	0,1	1,222284
1,414167	0,1	1,211852
1,415833	0,1	1,249641
1,417500	0,1	1,220688
1,419167	0,1	1,221126
1,420833	0,1	1,196627
1,422500	0,1	1,206792
1,424167	0,1	1,207934
1,425833	0,1	1,176181
1,427500	0,1	1,210475
1,429167	0,1	1,216204
1,430833	0,1	1,169057
1,432500	0,1	1,221757
1,434167	0,1	1,175778
1,435833	0,1	1,209739
1,437500	0,1	1,150595
1,439167	0,1	1,179067
1,440833	0,1	1,168655
1,442500	0,1	1,168403
1,444167	0,1	1,183769
1,445833	0,1	1,150785
1,447500	0,1	1,178280
1,449167	0,1	1,145222
1,450833	0,1	1,127501
1,452500	0,1	1,162569
1,454167	0,1	1,173217
1,455833	0,1	1,189899
1,457500	0,1	1,165418
1,459167	0,1	1,150454
1,460833	0,1	1,186049
1,462500	0,1	1,141040
1,464167	0,1	1,154567
1,465833	0,1	1,172310
1,467500	0,1	1,176894
1,469167	0,1	1,169560
1,470833	0,1	1,156122
1,472500	0,1	1,232266
1,474167	0,1	1,216182
1,475833	0,1	1,195250
1,477500	0,1	1,203262
1,479167	0,1	1,227017
1,480833	0,1	1,248557
1,482500	0,1	1,237316
1,484167	0,1	1,204295
1,485833	0,1	1,263276
1,487500	0,1	1,230495
1,489167	0,1	1,259490
1,490833	0,1	1,289013
1,492500	0,1	1,295293
1,494167	0,1	1,299286
1,495833	0,1	1,317254
1,497500	0,1	1,266690
1,499167	0,1	1,276589
1,500833	0,1	1,284177
1,502500	0,1	1,316049
1,504167	0,1	1,325972
1,505833	0,1	1,313108
1,507500	0,1	1,307008
1,509167	0,1	1,349169
1,510833	0,1	1,316730
1,512500	0,1	1,301907
1,514167	0,1	1,353401
1,515833	0,1	1,359958
1,517500	0,1	1,335120
1,519167	0,1	1,335290
1,520833	0,1	1,367497
1,522500	0,1	1,326316
1,524167	0,1	1,330720
1,525833	0,1	1,341900
1,527500	0,1	1,292843
1,529167	0,1	1,326143
1,530833	0,1	1,309006
1,532500	0,1	1,308914
1,534167	0,1	1,285694
1,535833	0,1	1,293208
1,537500	0,1	1,331377
1,539167	0,1	1,283061
1,540833	0,1	1,286710
1,542500	0,1	1,301790
1,544167	0,1	1,318648
1,545833	0,1	1,266938
1,547500	0,1	1,281981
1,549167	0,1	1,197969
1,550833	0,1	1,245622
1,552500	0,1	1,238981
1,554167	0,1	1,205070
1,555833	0,1	1,206244
1,557500	0,1	1,168412
1,559167	0,1	1,196839
1,560833	0,1	1,172911
1,562500	0,1	1,153170
1,564167	0,1	1,135704
1,565833	0,1	1,151838
1,567500	0,1	1,112074
1,569167	0,1	1,150034
1,570833	0,1	1,121139
1,572500	0,1	1,137810
1,574167	0,1	1,069131
1,575833	0,1	1,081041
1,577500	0,1	1,072817
1,579167	0,1	1,084925
1,580833	0,1	1,070404
1,582500	0,1	1,060629
1,584167	0,1	1,056965
1,585833	0,1	1,077693
1,587500	0,1	1,064004
1,589167	0,1	1,075311
1,590833	0,1	1,053914
1,592500	0,1	0,976529
1,594167	0,1	1,034253
1,595833	0,1	1,053840
1,597500	0,1	0,993882
1,599167	0,1	1,012345
1,600833	0,1	1,017940
1,602500	0,1	1,045255
1,604167	0,1	1,063492
1,605833	0,1	1,064774
1,607500	0,1	1,135839
1,609167	0,1	1,082443
1,610833	0,1	1,117937
1,612500	0,1	1,162027
1,614167	0,1	1,219001
1,615833	0,1	1,264829
1,617500	0,1	1,329153
1,619167	0,1	1,393601
1,620833	0,1	1,459970
1,622500	0,1	1,568883
1,624167	0,1	1,685694
1,625833	0,1	1,821771
1,627500	0,1	1,908521
1,629167	0,1	2,096499
1,630833	0,1	2,285883
1,632500	0,1	2,516828
1,634167	0,1	2,745544
1,635833	0,1	3,093247
1,637500	0,1	3,369848
1,639167	0,1	3,793012
1,640833	0,1	4,222954
1,642500	0,1	4,711246
1,644167	0,1	5,254480
1,645833	0,1	5,864125
1,647500	0,1	6,523730
1,649167	0,1	7,339687
1,650833	0,1	8,132494
1,652500	0,1	9,102864
1,654167	0,1	10,120686
1,655833	0,1	11,327163
1,657500	0,1	12,642771
1,659167	0,1	14,000728
1,660833	0,1	15,611349
1,662500	0,1	17,263184
1,664167	0,1	19,107155
1,665833	0,1	21,149617
1,667500	0,1	23,292771
1,669167	0,1	25,670376
1,670833	0,1	28,184118
1,672500	0,1	30,934836
1,674167	0,1	33,902854
1,675833	0,1	37,015640
1,677500	0,1	40,399944
1,679167	0,1	43,964813
1,680833	0,1	47,775106
1,682500	0,1	51,791517
1,684167	0,1	56,035682
1,685833	0,1	60,539414
1,687500	0,1	65,207384
1,689167	0,1	70,227118
1,690833	0,1	75,386325
1,692500	0,1	80,790147
1,694167	0,1	86,385775
1,695833	0,1	92,249697
1,697500	0,1	98,284343
1,699167	0,1	104,538083
1,700833	0,1	110,999596
1,702500	0,1	117,669025
1,704167	0,1	124,452454
1,705833	0,1	131,462816
1,707500	0,1	138,592442
1,709167	0,1	145,804068
1,710833	0,1	153,203976
1,712500	0,1	160,645099
1,714167	0,1	168,205056
1,715833	0,1	175,812251
1,717500	0,1	183,496332
1,719167	0,1	191,268383
1,720833	0,1	198,965398
1,722500	0,1	206,609501
1,724167	0,1	214,277419
1,725833	0,1	221,971991
1,727500	0,1	229,541572
1,729167	0,1	237,036084
1,730833	0,1	244,371753
1,732500	0,1	251,627215
1,734167	0,1	258,831691
1,735833	0,1	265,702131
1,737500	0,1	272,457649
1,739167	0,1	279,081177
1,740833	0,1	285,464216
1,742500	0,1	291,686084
1,744167	0,1	297,560323
1,745833	0,1	303,242293
1,747500	0,1	308,633001
1,749167	0,1	313,795442
1,750833	0,1	318,651631
1,752500	0,1	323,261707
1,754167	0,1	327,582283
1,755833	0,1	331,567628
1,757500	0,1	335,160575
1,759167	0,1	338,591871
1,760833	0,1	341,615605
1,762500	0,1	344,350915
1,764167	0,1	346,714045
1,765833	0,1	348,746968
1,767500	0,1	350,497668
1,769167	0,1	351,942110
1,770833	0,1	353,026043
1,772500	0,1	353,777399
1,774167	0,1	354,311327
1,775833	0,1	354,396806
1,777500	0,1	354,307977
1,779167	0,1	353,852210
1,780833	0,1	353,173371
1,782500	0,1	352,132365
1,784167	0,1	350,796885
1,785833	0,1	349,230718
1,787500	0,1	347,409989
1,789167	0,1	345,367917
1,790833	0,1	343,063816
1,792500	0,1	340,421498
1,794167	0,1	337,673577
1,795833	0,1	334,686970
1,797500	0,1	331,433496
1,799167	0,1	328,074002
1,800833	0,1	324,496543
1,802500	0,1	320,780804
1,804167	0,1	316,801207
1,805833	0,1	312,760001
1,807500	0,1	308,554577
1,809167	0,1	304,241123
1,810833	0,1	299,748172
1,812500	0,1	295,229162
1,814167	0,1	290,558919
1,815833	0,1	285,873553
1,817500	0,1	281,024685
1,819167	0,1	276,161586
1,820833	0,1	271,136380
1,822500	0,1	266,192684
1,824167	0,1	261,148262
1,825833	0,1	256,157370
1,827500	0,1	251,045507
1,829167	0,1	245,917342
1,830833	0,1	240,868876
1,832500	0,1	235,739293
1,834167	0,1	230,703094
1,835833	0,1	225,591689
1,837500	0,1	220,617027
1,839167	0,1	215,621368
1,840833	0,1	210,635769
1,842500	0,1	205,741210
1,844167	0,1	200,857224
1,845833	0,1	196,004926
1,847500	0,1	191,272362
1,849167	0,1	186,453382
1,850833	0,1	181,844720
1,852500	0,1	177,279754
1,854167	0,1	172,850087
1,855833	0,1	168,359330
1,857500	0,1	163,951884
1,859167	0,1	159,729659
1,860833	0,1	155,482378
1,862500	0,1	151,390535
1,864167	0,1	147,371010
1,865833	0,1	143,396235
1,867500	0,1	139,501951
1,869167	0,1	135,748999
1,870833	0,1	132,042527
1,872500	0,1	128,378919
1,874167	0,1	124,877426
1,875833	0,1	121,398278
1,877500	0,1	118,069661
1,879167	0,1	114,757707
1,880833	0,1	111,543887
1,882500	0,1	108,423593
1,884167	0,1	105,389958
1,885833	0,1	102,461169
1,887500	0,1	99,556389
1,889167	0,1	96,734930
1,890833	0,1	93,989395
1,892500	0,1	91,330478
1,894167	0,1	88,728538
1,895833	0,1	86,290384
1,897500	0,1	83,787037
1,899167	0,1	81,437696
1,900833	0,1	79,132886
1,902500	0,1	76,878752
1,904167	0,1	74,738863
1,905833	0,1	72,577675
1,907500	0,1	70,626168
1,909167	0,1	68,573003
1,910833	0,1	66,583437
1,912500	0,1	64,729405
1,914167	0,1	62,925833
1,915833	0,1	61,154495
1,917500	0,1	59,443999
1,919167	0,1	57,783029
1,920833	0,1	56,160478
1,922500	0,1	54,574174
1,924167	0,1	53,101045
1,925833	0,1	51,624167
1,927500	0,1	50,228054
1,929167	0,1	48,811579
1,930833	0,1	47,485714
1,932500	0,1	46,159418
1,934167	0,1	44,923163
1,935833	0,1	43,701600
1,937500	0,1	42,532643
1,939167	0,1	41,360814
1,940833	0,1	40,297398
1,942500	0,1	39,197999
1,944167	0,1	38,152385
1,945833	0,1	37,166115
1,947500	0,1	36,198588
1,949167	0,1	35,241997
1,950833	0,1	34,332459
1,952500	0,1	33,452014
1,954167	0,1	32,639014
1,955833	0,1	31,803570
1,957500	0,1	30,977224
1,959167	0,1	30,176336
1,960833	0,1	29,422816
1,962500	0,1	28,775322
1,964167	0,1	28,117859
1,965833	0,1	27,418722
1,967500	0,1	26,713163
1,969167	0,1	26,106816
1,970833	0,1	25,498202
1,972500	0,1	24,912187
1,974167	0,1	24,370043
1,975833	0,1	23,825122
1,977500	0,1	23,267096
1,979167	0,1	22,770866
1,980833	0,1	22,280923
1,982500	0,1	21,800839
1,984167	0,1	21,365847
1,985833	0,1	20,939441
1,987500	0,1	20,500311
1,989167	0,1	20,108607
1,990833	0,1	19,705335
1,992500	0,1	19,404343
1,994167	0,1	18,995855
1,995833	0,1	18,612049
1,997500	0,1	18,256821
1,999167	0,1	17,942250
2,000833	0,1	17,588416
2,002500	0,1	17,371763
2,004167	0,1	17,063220
2,005833	0,1	16,765122
2,007500	0,1	16,516678
2,009167	0,1	16,274769
2,010833	0,1	16,023144
2,012500	0,1	15,777107
2,014167	0,1	15,597410
2,015833	0,1	15,332805
2,017500	0,1	15,122758
2,019167	0,1	14,959448
2,020833	0,1	14,734836
2,022500	0,1	14,545863
2,024167	0,1	14,426017
2,025833	0,1	14,212663
2,027500	0,1	14,078133
2,029167	0,1	13,905554
2,030833	0,1	13,751519
2,032500	0,1	13,642168
2,034167	0,1	13,516683
2,035833	0,1	13,372770
2,037500	0,1	13,252129
2,039167	0,1	13,165147
2,040833	0,1	13,017913
2,042500	0,1	12,957298
2,044167	0,1	12,845332
2,045833	0,1	12,762521
2,047500	0,1	12,706222
2,049167	0,1	12,590377
2,050833	0,1	12,461687
2,052500	0,1	12,414883
2,054167	0,1	12,363836
2,055833	0,1	12,289361
2,057500	0,1	12,169755
2,059167	0,1	12,182353
2,060833	0,1	12,089612
2,062500	0,1	12,053443
2,064167	0,1	11,983531
2,065833	0,1	11,951535
2,067500	0,1	11,962255
2,069167	0,1	11,913462
2,070833	0,1	11,828600
2,072500	0,1	11,769486
2,074167	0,1	11,764767
2,075833	0,1	11,734263
2,077500	0,1	11,655678
2,079167	0,1	11,636943
2,080833	0,1	11,601310
2,082500	0,1	11,626054
2,084167	0,1	11,541604
2,085833	0,1	11,558257
2,087500	0,1	11,517211
2,089167	0,1	11,501188
2,090833	0,1	11,467989
2,092500	0,1	11,409712
2,094167	0,1	11,398235
2,095833	0,1	11,411670
2,097500	0,1	11,328421
2,099167	0,1	11,345060
2,100833	0,1	11,320004
2,102500	0,1	11,293332
2,104167	0,1	11,246003
2,105833	0,1	11,242701
2,107500	0,1	11,242317
2,109167	0,1	11,190016
2,110833	0,1	11,148053
2,112500	0,1	11,136753
2,114167	0,1	11,082752
2,115833	0,1	11,074408
2,117500	0,1	10,973119
2,119167	0,1	10,980383
2,120833	0,1	10,958411
2,122500	0,1	10,927661
2,124167	0,1	10,923382
2,125833	0,1	10,903160
2,127500	0,1	10,826448
2,129167	0,1	10,828131
2,130833	0,1	10,778566
2,132500	0,1	10,747597
2,134167	0,1	10,648560
2,135833	0,1	10,634688
2,137500	0,1	10,595738
2,139167	0,1	10,570437
2,140833	0,1	10,535132
2,142500	0,1	10,517255
2,144167	0,1	10,494221
2,145833	0,1	10,448940
2,147500	0,1	10,385342
2,149167	0,1	10,355925
2,150833	0,1	10,325437
2,152500	0,1	10,258156
2,154167	0,1	10,204373
2,155833	0,1	10,168382
2,157500	0,1	10,159796
2,159167	0,1	10,107117
2,160833	0,1	10,015268
2,162500	0,1	10,010799
2,164167	0,1	9,987017
2,165833	0,1	9,946162
2,167500	0,1	9,855671
2,169167	0,1	9,819603
2,170833	0,1	9,798502
2,172500	0,1	9,729122
2,174167	0,1	9,687620
2,175833	0,1	9,669319
2,177500	0,1	9,646230
2,179167	0,1	9,583256
2,180833	0,1	9,557709
2,182500	0,1	9,525482
2,184167	0,1	9,456556
2,185833	0,1	9,395290
2,187500	0,1	9,370102
2,189167	0,1	9,313883
2,190833	0,1	9,285425
2,192500	0,1	9,234675
2,194167	0,1	9,196324
2,195833	0,1	9,141201
2,197500	0,1	9,105448
2,199167	0,1	9,031882
2,200833	0,1	9,037578
2,202500	0,1	8,923650
2,204167	0,1	8,928358
2,205833	0,1	8,864340
2,207500	0,1	8,840121
2,209167	0,1	8,773515
2,210833	0,1	8,690847
2,212500	0,1	8,692216
2,214167	0,1	8,640240
2,215833	0,1	8,612520
2,217500	0,1	8,555319
2,219167	0,1	8,486857
2,220833	0,1	8,472652
2,222500	0,1	8,452462
2,224167	0,1	8,395188
2,225833	0,1	8,334523
2,227500	0,1	8,237430
2,229167	0,1	8,222834
2,230833	0,1	8,183863
2,232500	0,1	8,152515
2,234167	0,1	8,111793
2,235833	0,1	8,053558
2,237500	0,1	7,996889
2,239167	0,1	8,000045
2,240833	0,1	7,896513
2,242500	0,1	7,838199
2,244167	0,1	7,820628
2,245833	0,1	7,798979
2,247500	0,1	7,768482
2,249167	0,1	7,682412
2,250833	0,1	7,684529
2,252500	0,1	7,639778
2,254167	0,1	7,581975
2,255833	0,1	7,515408
2,257500	0,1	7,484912
2,259167	0,1	7,477260
2,260833	0,1	7,402621
2,262500	0,1	7,353126
2,264167	0,1	7,328520
2,265833	0,1	7,265726
2,267500	0,1	7,253323
2,269167	0,1	7,205543
2,270833	0,1	7,122276
2,272500	0,1	7,105677
2,274167	0,1	7,082672
2,275833	0,1	6,993664
2,277500	0,1	6,982375
2,279167	0,1	6,971946
2,280833	0,1	6,907343
2,282500	0,1	6,910142
2,284167	0,1	6,834749
2,285833	0,1	6,803086
2,287500	0,1	6,810532
2,289167	0,1	6,733692
2,290833	0,1	6,697195
2,292500	0,1	6,650786
2,294167	0,1	6,601609
2,295833	0,1	6,572871
2,297500	0,1	6,560316
2,299167	0,1	6,524052
2,300833	0,1	6,496526
2,302500	0,1	6,452719
2,304167	0,1	6,443062
2,305833	0,1	6,387273
2,307500	0,1	6,357327
2,309167	0,1	6,355059
2,310833	0,1	6,313992
2,312500	0,1	6,272257
2,314167	0,1	6,245978
2,315833	0,1	6,214169
2,317500	0,1	6,203088
2,319167	0,1	6,150857
2,320833	0,1	6,162639
2,322500	0,1	6,118367
2,324167	0,1	6,107651
2,325833	0,1	6,067488
2,327500	0,1	6,026834
2,329167	0,1	6,017635
2,330833	0,1	5,972365
2,332500	0,1	5,943490
2,334167	0,1	5,930199
2,335833	0,1	5,890308
2,337500	0,1	5,878382
2,339167	0,1	5,858685
2,340833	0,1	5,816827
2,342500	0,1	5,816990
2,344167	0,1	5,805489
2,345833	0,1	5,750228
2,347500	0,1	5,717984
2,349167	0,1	5,681226
2,350833	0,1	5,654469
2,352500	0,1	5,691913
2,354167	0,1	5,636077
2,355833	0,1	5,607568
2,357500	0,1	5,590535
2,359167	0,1	5,589593
2,360833	0,1	5,598207
2,362500	0,1	5,529114
2,364167	0,1	5,538414
2,365833	0,1	5,493607
2,367500	0,1	5,495091
2,369167	0,1	5,480919
2,370833	0,1	5,430040
2,372500	0,1	5,390283
2,374167	0,1	5,422399
2,375833	0,1	5,445555
2,377500	0,1	5,403358
2,379167	0,1	5,378506
2,380833	0,1	5,323212
2,382500	0,1	5,317945
2,384167	0,1	5,298499
2,385833	0,1	5,285305
2,387500	0,1	5,262311
2,389167	0,1	5,274816
2,390833	0,1	5,203219
2,392500	0,1	5,252589
2,394167	0,1	5,195111
2,395833	0,1	5,201337
2,397500	0,1	5,161819
2,399167	0,1	5,132194
2,400833	0,1	5,167423
2,402500	0,1	5,094015
2,404167	0,1	5,102167
2,405833	0,1	5,099871
2,407500	0,1	5,054741
2,409167	0,1	5,050589
2,410833	0,1	5,045032
2,412500	0,1	5,019215
2,414167	0,1	5,010929
2,415833	0,1	4,999582
2,417500	0,1	4,956970
2,419167	0,1	4,953964
2,420833	0,1	4,990686
2,422500	0,1	4,905780
2,424167	0,1	4,928448
2,425833	0,1	4,911792
2,427500	0,1	4,895459
2,429167	0,1	4,882775
2,430833	0,1	4,844432
2,432500	0,1	4,845676
2,434167	0,1	4,847017
2,435833	0,1	4,814473
2,437500	0,1	4,790115
2,439167	0,1	4,825033
2,440833	0,1	4,770304
2,442500	0,1	4,753713
2,444167	0,1	4,718021
2,445833	0,1	4,752122
2,447500	0,1	4,698490
2,449167	0,1	4,693296
2,450833	0,1	4,717356
2,452500	0,1	4,659875
2,454167	0,1	4,672299
2,455833	0,1	4,676716
2,457500	0,1	4,646093
2,459167	0,1	4,639322
2,460833	0,1	4,645192
2,462500	0,1	4,669012
2,464167	0,1	4,612107
2,465833	0,1	4,619667
2,467500	0,1	4,555996
2,469167	0,1	4,619977
2,470833	0,1	4,581516
2,472500	0,1	4,587175
2,474167	0,1	4,567494
2,475833	0,1	4,551738
2,477500	0,1	4,554122
2,479167	0,1	4,500625
2,480833	0,1	4,550061
2,482500	0,1	4,537640
2,484167	0,1	4,486564
2,485833	0,1	4,505385
2,487500	0,1	4,484496
2,489167	0,1	4,506926
2,490833	0,1	4,430280
2,492500	0,1	4,489099
2,494167	0,1	4,465463
2,495833	0,1	4,465778
2,497500	0,1	4,489475
2,499167	0,1	4,439870
2,500833	0,1	4,428728
2,502500	0,1	4,450308
2,504167	0,1	4,422572
2,505833	0,1	4,431352
2,507500	0,1	4,430021
2,509167	0,1	4,396905
2,510833	0,1	4,386524
2,512500	0,1	4,385883
2,514167	0,1	4,413248
2,515833	0,1	4,384710
2,517500	0,1	4,419238
2,519167	0,1	4,385120
2,520833	0,1	4,368066
2,522500	0,1	4,379358
2,524167	0,1	4,375917
2,525833	0,1	4,353894
2,527500	0,1	4,382105
2,529167	0,1	4,354463
2,530833	0,1	4,354333
2,532500	0,1	4,323368
2,534167	0,1	4,356020
2,535833	0,1	4,327164
2,537500	0,1	4,346883
2,539167	0,1	4,364047
2,540833	0,1	4,328074
2,542500	0,1	4,376917
2,544167	0,1	4,344587
2,545833	0,1	4,361091
2,547500	0,1	4,327701
2,549167	0,1	4,365860
2,550833	0,1	4,348427
2,552500	0,1	4,334786
2,554167	0,1	4,364486
2,555833	0,1	4,356721
2,557500	0,1	4,361582
2,559167	0,1	4,353003
2,560833	0,1	4,352400
2,562500	0,1	4,329446
2,564167	0,1	4,373562
2,565833	0,1	4,381505
2,567500	0,1	4,377621
2,569167	0,1	4,362952
2,570833	0,1	4,353970
2,572500	0,1	4,353775
2,574167	0,1	4,391741
2,575833	0,1	4,363284
2,577500	0,1	4,394823
2,579167	0,1	4,359080
2,580833	0,1	4,370491
2,582500	0,1	4,394770
2,584167	0,1	4,385114
2,585833	0,1	4,426649
2,587500	0,1	4,371191
2,589167	0,1	4,423609
2,590833	0,1	4,425362
2,592500	0,1	4,425363
2,594167	0,1	4,444839
2,595833	0,1	4,470314
2,597500	0,1	4,404120
2,599167	0,1	4,447178
2,600833	0,1	4,465735
2,602500	0,1	4,440708
2,604167	0,1	4,450464
2,605833	0,1	4,417230
2,607500	0,1	4,457511
2,609167	0,1	4,434760
2,610833	0,1	4,471483
2,612500	0,1	4,478779
2,614167	0,1	4,493475
2,615833	0,1	4,468864
2,617500	0,1	4,517170
2,619167	0,1	4,484214
2,620833	0,1	4,462419
2,622500	0,1	4,479184
2,624167	0,1	4,492145
2,625833	0,1	4,476638
2,627500	0,1	4,489307
2,629167	0,1	4,492192
2,630833	0,1	4,503891
2,632500	0,1	4,473523
2,634167	0,1	4,469908
2,635833	0,1	4,472103
2,637500	0,1	4,467438
2,639167	0,1	4,446751
2,640833	0,1	4,461325
2,642500	0,1	4,459947
2,644167	0,1	4,471860
2,645833	0,1	4,411850
2,647500	0,1	4,381951
2,649167	0,1	4,418067
2,650833	0,1	4,423578
2,652500	0,1	4,425115
2,654167	0,1	4,390463
2,655833	0,1	4,384536
2,657500	0,1	4,356931
2,659167	0,1	4,385114
2,660833	0,1	4,350694
2,662500	0,1	4,379148
2,664167	0,1	4,346521
2,665833	0,1	4,348433
2,667500	0,1	4,345513
2,669167	0,1	4,322480
2,670833	0,1	4,299307
2,672500	0,1	4,348046
2,674167	0,1	4,266663
2,675833	0,1	4,272345
2,677500	0,1	4,291662
2,679167	0,1	4,278179
2,680833	0,1	4,246811
2,682500	0,1	4,224377
2,684167	0,1	4,216760
2,685833	0,1	4,202276
2,687500	0,1	4,199129
2,689167	0,1	4,182295
2,690833	0,1	4,169580
2,692500	0,1	4,155334
2,694167	0,1	4,130602
2,695833	0,1	4,119326
2,697500	0,1	4,120285
2,699167	0,1	4,102081
2,700833	0,1	4,120170
2,702500	0,1	4,058820
2,704167	0,1	4,066573
2,705833	0,1	4,039802
2,707500	0,1	4,074590
2,709167	0,1	4,005276
2,710833	0,1	4,013899
2,712500	0,1	3,967876
2,714167	0,1	3,981945
2,715833	0,1	4,046717
2,717500	0,1	3,949793
2,719167	0,1	3,982383
2,720833	0,1	3,935230
2,722500	0,1	3,952612
2,724167	0,1	3,922257
2,725833	0,1	3,898257
2,727500	0,1	3,880627
2,729167	0,1	3,872547
2,730833	0,1	3,858934
2,732500	0,1	3,867470
2,734167	0,1	3,879919
2,735833	0,1	3,870063
2,737500	0,1	3,812201
2,739167	0,1	3,876283
2,740833	0,1	3,822320
2,742500	0,1	3,785561
2,744167	0,1	3,806304
2,745833	0,1	3,817930
2,747500	0,1	3,795215
2,749167	0,1	3,771869
2,750833	0,1	3,753075
2,752500	0,1	3,727199
2,754167	0,1	3,780493
2,755833	0,1	3,746202
2,757500	0,1	3,798822
2,759167	0,1	3,753266
2,760833	0,1	3,755405
2,762500	0,1	3,745395
2,764167	0,1	3,689608
2,765833	0,1	3,743384
2,767500	0,1	3,710335
2,769167	0,1	3,710974
2,770833	0,1	3,684143
2,772500	0,1	3,763695
2,774167	0,1	3,719241
2,775833	0,1	3,679157
2,777500	0,1	3,721185
2,779167	0,1	3,645991
2,780833	0,1	3,696217
2,782500	0,1	3,688566
2,784167	0,1	3,661273
2,785833	0,1	3,693864
2,787500	0,1	3,676071
2,789167	0,1	3,677337
2,790833	0,1	3,635710
2,792500	0,1	3,666334
2,794167	0,1	3,662921
2,795833	0,1	3,658691
2,797500	0,1	3,626117
2,799167	0,1	3,687935
2,800833	0,1	3,625666
2,802500	0,1	3,671101
2,804167	0,1	3,633727
2,805833	0,1	3,648644
2,807500	0,1	3,632559
2,809167	0,1	3,650890
2,810833	0,1	3,646785
2,812500	0,1	3,631823
2,814167	0,1	3,605322
2,815833	0,1	3,594894
2,817500	0,1	3,607692
2,819167	0,1	3,595904
2,820833	0,1	3,567378
2,822500	0,1	3,610973
2,824167	0,1	3,579247
2,825833	0,1	3,543416
2,827500	0,1	3,594803
2,829167	0,1	3,524520
2,830833	0,1	3,537678
2,832500	0,1	3,525191
2,834167	0,1	3,481268
2,835833	0,1	3,498539
2,837500	0,1	3,472193
2,839167	0,1	3,472263
2,840833	0,1	3,451504
2,842500	0,1	3,455815
2,844167	0,1	3,420344
2,845833	0,1	3,423491
2,847500	0,1	3,415963
2,849167	0,1	3,363432
2,850833	0,1	3,370467
2,852500	0,1	3,354675
2,854167	0,1	3,343987
2,855833	0,1	3,317492
2,857500	0,1	3,295817
2,859167	0,1	3,280127
2,860833	0,1	3,318828
2,862500	0,1	3,228824
2,864167	0,1	3,217398
2,865833	0,1	3,182388
2,867500	0,1	3,201088
2,869167	0,1	3,196855
2,870833	0,1	3,140798
2,872500	0,1	3,124363
2,874167	0,1	3,137031
2,875833	0,1	3,120190
2,877500	0,1	3,103045
2,879167	0,1	3,088389
2,880833	0,1	3,061272
2,882500	0,1	3,071111
2,884167	0,1	2,996264
2,885833	0,1	2,963098
2,887500	0,1	2,894322
2,889167	0,1	2,950242
2,890833	0,1	2,924432
2,892500	0,1	2,919695
2,894167	0,1	2,859301
2,895833	0,1	2,863086
2,897500	0,1	2,822857
2,899167	0,1	2,846441
2,900833	0,1	2,825071
2,902500	0,1	2,793227
2,904167	0,1	2,754225
2,905833	0,1	2,759513
2,907500	0,1	2,716782
2,909167	0,1	2,717345
2,910833	0,1	2,658057
2,912500	0,1	2,661629
2,914167	0,1	2,614102
2,915833	0,1	2,630431
2,917500	0,1	2,618467
2,919167	0,1	2,601332
2,920833	0,1	2,599680
2,922500	0,1	2,570796
2,924167	0,1	2,542338
2,925833	0,1	2,536813
2,927500	0,1	2,538315
2,929167	0,1	2,501912
2,930833	0,1	2,458621
2,932500	0,1	2,493652
2,934167	0,1	2,430677
2,935833	0,1	2,412826
2,937500	0,1	2,379642
2,939167	0,1	2,370246
2,940833	0,1	2,336867
2,942500	0,1	2,343597
2,944167	0,1	2,310217
2,945833	0,1	2,312943
2,947500	0,1	2,271662
2,949167	0,1	2,285270
2,950833	0,1	2,296812
2,952500	0,1	2,273966
2,954167	0,1	2,229691
2,955833	0,1	2,202190
2,957500	0,1	2,214364
2,959167	0,1	2,217800
2,960833	0,1	2,145545
2,962500	0,1	2,126126
2,964167	0,1	2,147898
2,965833	0,1	2,134504
2,967500	0,1	2,087958
2,969167	0,1	2,124910
2,970833	0,1	2,065474
2,972500	0,1	2,045765
2,974167	0,1	2,055860
2,975833	0,1	2,004820
2,977500	0,1	2,022646
2,979167	0,1	2,011413
2,980833	0,1	1,988496
2,982500	0,1	1,968660
2,984167	0,1	1,960925
2,985833	0,1	1,977049
2,987500	0,1	1,965814
2,989167	0,1	1,923865
2,990833	0,1	1,927200
2,992500	0,1	1,922936
2,994167	0,1	1,943740
2,995833	0,1	1,904744
2,997500	0,1	1,899225
2,999167	0,1	1,889139
3,000833	0,1	1,939972
3,002500	0,1	1,877568
3,004167	0,1	1,876923
3,005833	0,1	1,850657
3,007500	0,1	1,846197
3,009167	0,1	1,801970
3,010833	0,1	1,844474
3,012500	0,1	1,779131
3,014167	0,1	1,797173
3,015833	0,1	1,809974
3,017500	0,1	1,803470
3,019167	0,1	1,764025
3,020833	0,1	1,782702
3,022500	0,1	1,767982
3,024167	0,1	1,738022
3,025833	0,1	1,745723
3,027500	0,1	1,716011
3,029167	0,1	1,767139
3,030833	0,1	1,725790
3,032500	0,1	1,698216
3,034167	0,1	1,740359
3,035833	0,1	1,697644
3,037500	0,1	1,708306
3,039167	0,1	1,733433
3,040833	0,1	1,701319
3,042500	0,1	1,647003
3,044167	0,1	1,652053
3,045833	0,1	1,645874
3,047500	0,1	1,660981
3,049167	0,1	1,626126
3,050833	0,1	1,597068
3,052500	0,1	1,592556
3,054167	0,1	1,591386
3,055833	0,1	1,591048
3,057500	0,1	1,617484
3,059167	0,1	1,616258
3,060833	0,1	1,590037
3,062500	0,1	1,583153
3,064167	0,1	1,572143
3,065833	0,1	1,621023
3,067500	0,1	1,596578
3,069167	0,1	1,593199
3,070833	0,1	1,567573
3,072500	0,1	1,562503
3,074167	0,1	1,534628
3,075833	0,1	1,517537
3,077500	0,1	1,479856
3,079167	0,1	1,552849
3,080833	0,1	1,494556
3,082500	0,1	1,483336
3,084167	0,1	1,504607
3,085833	0,1	1,442249
3,087500	0,1	1,476688
3,089167	0,1	1,475785
3,090833	0,1	1,499216
3,092500	0,1	1,458466
3,094167	0,1	1,446566
3,095833	0,1	1,446254
3,097500	0,1	1,437885
3,099167	0,1	1,448224
3,100833	0,1	1,430833
3,102500	0,1	1,405894
3,104167	0,1	1,413939
3,105833	0,1	1,431578
3,107500	0,1	1,443761
3,109167	0,1	1,429168
3,110833	0,1	1,402411
3,112500	0,1	1,395371
3,114167	0,1	1,374518
3,115833	0,1	1,382543
3,117500	0,1	1,409143
3,119167	0,1	1,372791
3,120833	0,1	1,379659
3,122500	0,1	1,320880
3,124167	0,1	1,320005
3,125833	0,1	1,347263
3,127500	0,1	1,327641
3,129167	0,1	1,306717
3,130833	0,1	1,302746
3,132500	0,1	1,324103
3,134167	0,1	1,308249
3,135833	0,1	1,301725
3,137500	0,1	1,296644
3,139167	0,1	1,305184
3,140833	0,1	1,256728
3,142500	0,1	1,263213
3,144167	0,1	1,290317
3,145833	0,1	1,250689
3,147500	0,1	1,256922
3,149167	0,1	1,245562
3,150833	0,1	1,230793
3,152500	0,1	1,221646
3,154167	0,1	1,210670
3,155833	0,1	1,217726
3,157500	0,1	1,224762
3,159167	0,1	1,201630
3,160833	0,1	1,220981
3,162500	0,1	1,213556
3,164167	0,1	1,230208
3,165833	0,1	1,200252
3,167500	0,1	1,212950
3,169167	0,1	1,192283
3,170833	0,1	1,171440
3,172500	0,1	1,204832
3,174167	0,1	1,190338
3,175833	0,1	1,187095
3,177500	0,1	1,130383
3,179167	0,1	1,150378
3,180833	0,1	1,173096
3,182500	0,1	1,138160
3,184167	0,1	1,124585
3,185833	0,1	1,116933
3,187500	0,1	1,119699
3,189167	0,1	1,130051
3,190833	0,1	1,130210
3,192500	0,1	1,098643
3,194167	0,1	1,108253
3,195833	0,1	1,127858
3,197500	0,1	1,120856
3,199167	0,1	1,076076
3,200833	0,1	1,138871
3,202500	0,1	1,076314
3,204167	0,1	1,108851
3,205833	0,1	1,091736
3,207500	0,1	1,089317
3,209167	0,1	1,100758
3,210833	0,1	1,053928
3,212500	0,1	1,057839
3,214167	0,1	1,081595
3,215833	0,1	1,090535
3,217500	0,1	1,067303
3,219167	0,1	1,040326
3,220833	0,1	1,045817
3,222500	0,1	1,047197
3,224167	0,1	1,070143
3,225833	0,1	1,100362
3,227500	0,1	1,031626
3,229167	0,1	1,070755
3,230833	0,1	1,004592
3,232500	0,1	1,043368
3,234167	0,1	1,004131
3,235833	0,1	1,032693
3,237500	0,1	1,044558
3,239167	0,1	1,039801
3,240833	0,1	0,999572
3,242500	0,1	1,031348
3,244167	0,1	1,077723
3,245833	0,1	1,024513
3,247500	0,1	0,998407
3,249167	0,1	1,047568
3,250833	0,1	1,017277
3,252500	0,1	1,014894
3,254167	0,1	1,018744
3,255833	0,1	1,006409
3,257500	0,1	1,057762
3,259167	0,1	0,994624
3,260833	0,1	0,993549
3,262500	0,1	0,978989
3,264167	0,1	1,014755
3,265833	0,1	1,008111
3,267500	0,1	0,976781
3,269167	0,1	0,994765
3,270833	0,1	1,005631
3,272500	0,1	0,980601
3,274167	0,1	0,997689
3,275833	0,1	0,978028
3,277500	0,1	0,986345
3,279167	0,1	0,960191
3,280833	0,1	0,979240
3,282500	0,1	0,970566
3,284167	0,1	0,976797
3,285833	0,1	0,980465
3,287500	0,1	0,961156
3,289167	0,1	0,972137
3,290833	0,1	0,982294
3,292500	0,1	0,984802
3,294167	0,1	1,021400
3,295833	0,1	0,929063
3,297500	0,1	0,979907
3,299167	0,1	0,934003
3,300833	0,1	0,941671
3,302500	0,1	0,953141
3,304167	0,1	0,959250
3,305833	0,1	0,930494
3,307500	0,1	0,970202
3,309167	0,1	0,944441
3,310833	0,1	0,956613
3,312500	0,1	0,983959
3,314167	0,1	0,960765
3,315833	0,1	0,971365
3,317500	0,1	0,961663
3,319167	0,1	0,930140
3,320833	0,1	0,939323
3,322500	0,1	0,916161
3,324167	0,1	0,953813
3,325833	0,1	0,958288
3,327500	0,1	0,927924
3,329167	0,1	0,935050
3,330833	0,1	0,956162
3,332500	0,1	0,973870
3,334167	0,1	0,933614
3,335833	0,1	0,917602
3,337500	0,1	0,967338
3,339167	0,1	0,941999
3,340833	0,1	0,938683
3,342500	0,1	0,901860
3,344167	0,1	0,921065
3,345833	0,1	0,942824
3,347500	0,1	0,927694
3,349167	0,1	0,942567
3,350833	0,1	0,924995
3,352500	0,1	0,960367
3,354167	0,1	0,922944
3,355833	0,1	0,901022
3,357500	0,1	0,941147
3,359167	0,1	0,961107
3,360833	0,1	0,962979
3,362500	0,1	0,930269
3,364167	0,1	0,943727
3,365833	0,1	0,950990
3,367500	0,1	0,936502
3,369167	0,1	0,931196
3,370833	0,1	0,939129
3,372500	0,1	0,966607
3,374167	0,1	0,920502
3,375833	0,1	0,920300
3,377500	0,1	0,943690
3,379167	0,1	0,928081
3,380833	0,1	0,950050
3,382500	0,1	0,938975
3,384167	0,1	0,964514
3,385833	0,1	0,944762
3,387500	0,1	0,971810
3,389167	0,1	0,938561
3,390833	0,1	0,930455
3,392500	0,1	0,913426
3,394167	0,1	0,925923
3,395833	0,1	0,944205
3,397500	0,1	0,908416
3,399167	0,1	0,947704
3,400833	0,1	0,916805
3,402500	0,1	0,921904
3,404167	0,1	0,923960
3,405833	0,1	0,956220
3,407500	0,1	0,930816
3,409167	0,1	0,922518
3,410833	0,1	0,932480
3,412500	0,1	0,939837
3,414167	0,1	0,922039
3,415833	0,1	0,920911
3,417500	0,1	0,960240
3,419167	0,1	0,921562
3,420833	0,1	0,931865
3,422500	0,1	0,928369
3,424167	0,1	0,962683
3,425833	0,1	0,930880
3,427500	0,1	0,925892
3,429167	0,1	0,938391
3,430833	0,1	0,952274
3,432500	0,1	0,909736
3,434167	0,1	0,955351
3,435833	0,1	0,914267
3,437500	0,1	0,944266
3,439167	0,1	0,926153
3,440833	0,1	0,923869
3,442500	0,1	0,917376
3,444167	0,1	0,920654
3,445833	0,1	0,893888
3,447500	0,1	0,901850
3,449167	0,1	0,905129
3,450833	0,1	0,899444
3,452500	0,1	0,949465
3,454167	0,1	0,947875
3,455833	0,1	0,952276
3,457500	0,1	0,886507
3,459167	0,1	0,869240
3,460833	0,1	0,907532
3,462500	0,1	0,930834
3,464167	0,1	0,917796
3,465833	0,1	0,957504
3,467500	0,1	0,898557
3,469167	0,1	0,892212
3,470833	0,1	0,906702
3,472500	0,1	0,910240
3,474167	0,1	0,949374
3,475833	0,1	0,939360
3,477500	0,1	0,891837
3,479167	0,1	0,919940
3,480833	0,1	0,897841
3,482500	0,1	0,921642
3,484167	0,1	0,942469
3,485833	0,1	0,935180
3,487500	0,1	0,948996
3,489167	0,1	0,914457
3,490833	0,1	0,926050
3,492500	0,1	0,903240
3,494167	0,1	0,949599
3,495833	0,1	0,928435
3,497500	0,1	0,885794
3,499167	0,1	0,944999
3,500833	0,1	0,914006
3,502500	0,1	0,917051
3,504167	0,1	0,934789
3,505833	0,1	0,930553
3,507500	0,1	0,880140
3,509167	0,1	0,941239
3,510833	0,1	0,896626
3,512500	0,1	0,917434
3,514167	0,1	0,960300
3,515833	0,1	0,934993
3,517500	0,1	0,954137
3,519167	0,1	0,915006
3,520833	0,1	0,941344
3,522500	0,1	0,961305
3,524167	0,1	0,952309
3,525833	0,1	0,939070
3,527500	0,1	0,931097
3,529167	0,1	0,924156
3,530833	0,1	0,920556
3,532500	0,1	0,907095
3,534167	0,1	0,957053
3,535833	0,1	0,898845
3,537500	0,1	0,955249
3,539167	0,1	0,950380
3,540833	0,1	0,924386
3,542500	0,1	0,955226
3,544167	0,1	0,943504
3,545833	0,1	0,937075
3,547500	0,1	0,938071
3,549167	0,1	0,973417
3,550833	0,1	0,952538
3,552500	0,1	0,925255
3,554167	0,1	0,948512
3,555833	0,1	0,932484
3,557500	0,1	0,943082
3,559167	0,1	0,915775
3,560833	0,1	0,889454
3,562500	0,1	0,930991
3,564167	0,1	0,917635
3,565833	0,1	0,957540
3,567500	0,1	0,917543
3,569167	0,1	0,969973
3,570833	0,1	0,885869
3,572500	0,1	0,943326
3,574167	0,1	0,913172
3,575833	0,1	0,865550
3,577500	0,1	0,902228
3,579167	0,1	0,863556
3,580833	0,1	0,892011
3,582500	0,1	0,901592
3,584167	0,1	0,888293
3,585833	0,1	0,877495
3,587500	0,1	0,901750
3,589167	0,1	0,854046
3,590833	0,1	0,857666
3,592500	0,1	0,885104
3,594167	0,1	0,884274
3,595833	0,1	0,878009
3,597500	0,1	0,873800
3,599167	0,1	0,858217
3,600833	0,1	0,909423
3,602500	0,1	0,859929
3,604167	0,1	0,853009
3,605833	0,1	0,866919
3,607500	0,1	0,856865
3,609167	0,1	0,839998
3,610833	0,1	0,885515
3,612500	0,1	0,803513
3,614167	0,1	0,861766
3,615833	0,1	0,846006
3,617500	0,1	0,811309
3,619167	0,1	0,848405
3,620833	0,1	0,817155
3,622500	0,1	0,810180
3,624167	0,1	0,843617
3,625833	0,1	0,783651
3,627500	0,1	0,856429
3,629167	0,1	0,811855
3,630833	0,1	0,811783
3,632500	0,1	0,811527
3,634167	0,1	0,821902
3,635833	0,1	0,808733
3,637500	0,1	0,793631
3,639167	0,1	0,829319
3,640833	0,1	0,830450
3,642500	0,1	0,835462
3,644167	0,1	0,802376
3,645833	0,1	0,787465
3,647500	0,1	0,795205
3,649167	0,1	0,785567
3,650833	0,1	0,777856
3,652500	0,1	0,770820
3,654167	0,1	0,784216
3,655833	0,1	0,772357
3,657500	0,1	0,777051
3,659167	0,1	0,762824
3,660833	0,1	0,768247
3,662500	0,1	0,778562
3,664167	0,1	0,764524
3,665833	0,1	0,772940
3,667500	0,1	0,774067
3,669167	0,1	0,743453
3,670833	0,1	0,783500
3,672500	0,1	0,782612
3,674167	0,1	0,729556
3,675833	0,1	0,747911
3,677500	0,1	0,789219
3,679167	0,1	0,733630
3,680833	0,1	0,727293
3,682500	0,1	0,747041
3,684167	0,1	0,766444
3,685833	0,1	0,742814
3,687500	0,1	0,756524
3,689167	0,1	0,730320
3,690833	0,1	0,715985
3,692500	0,1	0,669160
3,694167	0,1	0,767842
3,695833	0,1	0,735101
3,697500	0,1	0,718556
3,699167	0,1	0,742063
3,700833	0,1	0,730698
3,702500	0,1	0,687923
3,704167	0,1	0,730394
3,705833	0,1	0,734613
3,707500	0,1	0,738050
3,709167	0,1	0,708604
3,710833	0,1	0,722015
3,712500	0,1	0,689650
3,714167	0,1	0,713829
3,715833	0,1	0,755261
3,717500	0,1	0,722796
3,719167	0,1	0,711812
3,720833	0,1	0,665179
3,722500	0,1	0,776192
3,724167	0,1	0,720138
3,725833	0,1	0,735610
3,727500	0,1	0,707573
3,729167	0,1	0,744757
3,730833	0,1	0,737410
3,732500	0,1	0,700218
3,734167	0,1	0,700563
3,735833	0,1	0,749413
3,737500	0,1	0,724086
3,739167	0,1	0,708530
3,740833	0,1	0,706697
3,742500	0,1	0,725642
3,744167	0,1	0,738656
3,745833	0,1	0,727358
3,747500	0,1	0,754530
3,749167	0,1	0,726523
3,750833	0,1	0,734421
3,752500	0,1	0,736314
3,754167	0,1	0,718075
3,755833	0,1	0,727387
3,757500	0,1	0,731752
3,759167	0,1	0,731111
3,760833	0,1	0,803447
3,762500	0,1	0,724317
3,764167	0,1	0,747237
3,765833	0,1	0,752284
3,767500	0,1	0,746341
3,769167	0,1	0,749905
3,770833	0,1	0,778008
3,772500	0,1	0,759421
3,774167	0,1	0,785051
3,775833	0,1	0,769445
3,777500	0,1	0,785114
3,779167	0,1	0,768895
3,780833	0,1	0,793980
3,782500	0,1	0,776509
3,784167	0,1	0,765329
3,785833	0,1	0,783538
3,787500	0,1	0,789519
3,789167	0,1	0,783803
3,790833	0,1	0,785146
3,792500	0,1	0,782033
3,794167	0,1	0,809337
3,795833	0,1	0,733214
3,797500	0,1	0,793971
3,799167	0,1	0,784928
3,800833	0,1	0,795204
3,802500	0,1	0,812776
3,804167	0,1	0,796947
3,805833	0,1	0,841685
3,807500	0,1	0,783233
3,809167	0,1	0,760990
3,810833	0,1	0,809651
3,812500	0,1	0,800605
3,814167	0,1	0,777377
3,815833	0,1	0,801368
3,817500	0,1	0,813260
3,819167	0,1	0,800379
3,820833	0,1	0,826429
3,822500	0,1	0,798295
3,824167	0,1	0,786757
3,825833	0,1	0,783833
3,827500	0,1	0,790704
3,829167	0,1	0,795490
3,830833	0,1	0,785503
3,832500	0,1	0,780812
3,834167	0,1	0,775577
3,835833	0,1	0,782286
3,837500	0,1	0,799730
3,839167	0,1	0,775710
3,840833	0,1	0,783221
3,842500	0,1	0,768257
3,844167	0,1	0,831592
3,845833	0,1	0,785125
3,847500	0,1	0,743167
3,849167	0,1	0,754238
3,850833	0,1	0,741684
3,852500	0,1	0,797632
3,854167	0,1	0,759905
3,855833	0,1	0,746215
3,857500	0,1	0,713066
3,859167	0,1	0,781437
3,860833	0,1	0,741754
3,862500	0,1	0,747883
3,864167	0,1	0,738377
3,865833	0,1	0,731021
3,867500	0,1	0,721609
3,869167	0,1	0,708473
3,870833	0,1	0,764704
3,872500	0,1	0,720751
3,874167	0,1	0,770041
3,875833	0,1	0,742688
3,877500	0,1	0,741720
3,879167	0,1	0,727647
3,880833	0,1	0,724559
3,882500	0,1	0,704169
3,884167	0,1	0,697902
3,885833	0,1	0,719450
3,887500	0,1	0,667623
3,889167	0,1	0,724227
3,890833	0,1	0,679564
3,892500	0,1	0,704934
3,894167	0,1	0,726360
3,895833	0,1	0,685506
3,897500	0,1	0,702196
3,899167	0,1	0,695877
3,900833	0,1	0,693053
3,902500	0,1	0,658752
3,904167	0,1	0,682025
3,905833	0,1	0,688490
3,907500	0,1	0,658786
3,909167	0,1	0,631129
3,910833	0,1	0,650777
3,912500	0,1	0,623962
3,914167	0,1	0,648976
3,915833	0,1	0,652291
3,917500	0,1	0,656208
3,919167	0,1	0,652141
3,920833	0,1	0,662604
3,922500	0,1	0,633155
3,924167	0,1	0,643587
3,925833	0,1	0,621328
3,927500	0,1	0,596117
3,929167	0,1	0,663521
3,930833	0,1	0,596616
3,932500	0,1	0,619377
3,934167	0,1	0,578501
3,935833	0,1	0,596344
3,937500	0,1	0,595127
3,939167	0,1	0,607165
3,940833	0,1	0,579140
3,942500	0,1	0,582986
3,944167	0,1	0,573230
3,945833	0,1	0,596180
3,947500	0,1	0,570489
3,949167	0,1	0,575821
3,950833	0,1	0,581677
3,952500	0,1	0,568509
3,954167	0,1	0,563433
3,955833	0,1	0,586067
3,957500	0,1	0,563361
3,959167	0,1	0,536112
3,960833	0,1	0,519704
3,962500	0,1	0,597338
3,964167	0,1	0,529083
3,965833	0,1	0,559508
3,967500	0,1	0,490530
3,969167	0,1	0,551920
3,970833	0,1	0,542883
3,972500	0,1	0,543586
3,974167	0,1	0,546670
3,975833	0,1	0,556239
3,977500	0,1	0,527867
3,979167	0,1	0,529871
3,980833	0,1	0,473981
3,982500	0,1	0,515170
3,984167	0,1	0,504808
3,985833	0,1	0,519947
3,987500	0,1	0,524445
3,989167	0,1	0,504748
3,990833	0,1	0,544319
3,992500	0,1	0,491271
3,994167	0,1	0,501780
3,995833	0,1	0,475775
3,997500	0,1	0,517222
3,999167	0,1	0,487288
4,000833	0,1	0,489933
4,002500	0,1	0,497120
4,004167	0,1	0,501507
4,005833	0,1	0,496897
4,007500	0,1	0,507973
4,009167	0,1	0,520464
4,010833	0,1	0,472546
4,012500	0,1	0,516704
4,014167	0,1	0,497167
4,015833	0,1	0,463348
4,017500	0,1	0,508106
4,019167	0,1	0,517668
4,020833	0,1	0,514438
4,022500	0,1	0,523400
4,024167	0,1	0,473376
4,025833	0,1	0,506824
4,027500	0,1	0,504101
4,029167	0,1	0,497265
4,030833	0,1	0,509711
4,032500	0,1	0,505471
4,034167	0,1	0,487478
4,035833	0,1	0,528201
4,037500	0,1	0,500176
4,039167	0,1	0,517275
4,040833	0,1	0,498952
4,042500	0,1	0,494288
4,044167	0,1	0,521329
4,045833	0,1	0,523966
4,047500	0,1	0,516325
4,049167	0,1	0,532805
4,050833	0,1	0,566697
4,052500	0,1	0,545680
4,054167	0,1	0,585357
4,055833	0,1	0,568838
4,057500	0,1	0,586233
4,059167	0,1	0,545711
4,060833	0,1	0,541558
4,062500	0,1	0,610725
4,064167	0,1	0,595772
4,065833	0,1	0,590053
4,067500	0,1	0,584273
4,069167	0,1	0,594005
4,070833	0,1	0,585018
4,072500	0,1	0,601320
4,074167	0,1	0,659634
4,075833	0,1	0,667770
4,077500	0,1	0,614120
4,079167	0,1	0,679382
4,080833	0,1	0,653899
4,082500	0,1	0,685307
4,084167	0,1	0,653812
4,085833	0,1	0,682730
4,087500	0,1	0,689294
4,089167	0,1	0,700722
4,090833	0,1	0,710041
4,092500	0,1	0,736765
4,094167	0,1	0,751963
4,095833	0,1	0,739275
4,097500	0,1	0,764000
4,099167	0,1	0,765007
4,100833	0,1	0,780517
4,102500	0,1	0,768894
4,104167	0,1	0,824496
4,105833	0,1	0,838899
4,107500	0,1	0,828173
4,109167	0,1	0,853227
4,110833	0,1	0,868749
4,112500	0,1	0,873571
4,114167	0,1	0,887322
4,115833	0,1	0,876274
4,117500	0,1	0,924400
4,119167	0,1	0,916733
4,120833	0,1	0,940860
4,122500	0,1	0,970653
4,124167	0,1	0,974097
4,125833	0,1	0,951928
4,127500	0,1	0,982802
4,129167	0,1	0,969059
4,130833	0,1	1,015423
4,132500	0,1	1,013253
4,134167	0,1	0,965788
4,135833	0,1	1,012079
4,137500	0,1	1,044843
4,139167	0,1	1,050636
4,140833	0,1	1,055359
4,142500	0,1	1,069242
4,144167	0,1	1,077992
4,145833	0,1	1,117013
4,147500	0,1	1,127113
4,149167	0,1	1,110439
4,150833	0,1	1,143551
4,152500	0,1	1,133417
4,154167	0,1	1,142808
4,155833	0,1	1,150619
4,157500	0,1	1,196441
4,159167	0,1	1,174421
4,160833	0,1	1,196498
4,162500	0,1	1,197765
4,164167	0,1	1,199497
4,165833	0,1	1,206727
4,167500	0,1	1,200340
4,169167	0,1	1,211294
4,170833	0,1	1,255956
4,172500	0,1	1,261465
4,174167	0,1	1,245431
4,175833	0,1	1,230413
4,177500	0,1	1,253075
4,179167	0,1	1,232173
4,180833	0,1	1,247865
4,182500	0,1	1,299605
4,184167	0,1	1,277398
4,185833	0,1	1,270160
4,187500	0,1	1,296461
4,189167	0,1	1,311837
4,190833	0,1	1,334821
4,192500	0,1	1,304995
4,194167	0,1	1,273761
4,195833	0,1	1,286395
4,197500	0,1	1,270848
4,199167	0,1	1,314825
4,200833	0,1	1,279908
4,202500	0,1	1,311810
4,204167	0,1	1,316853
4,205833	0,1	1,310136
4,207500	0,1	1,283361
4,209167	0,1	1,283050
4,210833	0,1	1,285861
4,212500	0,1	1,259807
4,214167	0,1	1,312225
4,215833	0,1	1,295828
4,217500	0,1	1,310708
4,219167	0,1	1,348394
4,220833	0,1	1,307924
4,222500	0,1	1,258370
4,224167	0,1	1,272975
4,225833	0,1	1,309217
4,227500	0,1	1,312663
4,229167	0,1	1,282612
4,230833	0,1	1,286799
4,232500	0,1	1,262224
4,234167	0,1	1,295066
4,235833	0,1	1,250410
4,237500	0,1	1,287320
4,239167	0,1	1,286042
4,240833	0,1	1,279390
4,242500	0,1	1,255749
4,244167	0,1	1,223829
4,245833	0,1	1,219320
4,247500	0,1	1,245182
4,249167	0,1	1,207108
4,250833	0,1	1,232375
4,252500	0,1	1,207772
4,254167	0,1	1,206283
4,255833	0,1	1,198856
4,257500	0,1	1,223511
4,259167	0,1	1,195843
4,260833	0,1	1,178738
4,262500	0,1	1,193771
4,264167	0,1	1,182779
4,265833	0,1	1,175572
4,267500	0,1	1,187393
4,269167	0,1	1,154749
4,270833	0,1	1,156827
4,272500	0,1	1,126283
4,274167	0,1	1,100636
4,275833	0,1	1,145793
4,277500	0,1	1,179381
4,279167	0,1	1,156349
4,280833	0,1	1,102210
4,282500	0,1	1,152629
4,284167	0,1	1,125966
4,285833	0,1	1,088507
4,287500	0,1	1,066939
4,289167	0,1	1,096925
4,290833	0,1	1,062088
4,292500	0,1	1,089944
4,294167	0,1	1,033709
4,295833	0,1	1,062586
4,297500	0,1	1,058373
4,299167	0,1	1,053815
4,300833	0,1	1,035594
4,302500	0,1	1,053262
4,304167	0,1	0,990733
4,305833	0,1	1,050130
4,307500	0,1	1,019877
4,309167	0,1	0,953195
4,310833	0,1	0,978433
4,312500	0,1	0,990396
4,314167	0,1	1,023172
4,315833	0,1	1,009652
4,317500	0,1	0,980020
4,319167	0,1	1,008804
4,320833	0,1	0,984194
4,322500	0,1	0,994697
4,324167	0,1	0,965041
4,325833	0,1	0,987174
4,327500	0,1	0,997333
4,329167	0,1	0,947338
4,330833	0,1	0,895694
4,332500	0,1	0,949080
4,334167	0,1	0,923967
4,335833	0,1	0,909181
4,337500	0,1	0,894977
4,339167	0,1	0,895521
4,340833	0,1	0,905190
4,342500	0,1	0,905356
4,344167	0,1	0,929323
4,345833	0,1	0,868672
4,347500	0,1	0,875627
4,349167	0,1	0,896383
4,350833	0,1	0,896259
4,352500	0,1	0,891088
4,354167	0,1	0,880645
4,355833	0,1	0,841385
4,357500	0,1	0,860779
4,359167	0,1	0,841702
4,360833	0,1	0,845296
4,362500	0,1	0,824962
4,364167	0,1	0,813618
4,365833	0,1	0,816699
4,367500	0,1	0,847794
4,369167	0,1	0,835307
4,370833	0,1	0,808545
4,372500	0,1	0,809500
4,374167	0,1	0,791228
4,375833	0,1	0,778792
4,377500	0,1	0,770821
4,379167	0,1	0,777689
4,380833	0,1	0,809850
4,382500	0,1	0,802760
4,384167	0,1	0,766557
4,385833	0,1	0,779591
4,387500	0,1	0,779108
4,389167	0,1	0,783959
4,390833	0,1	0,780301
4,392500	0,1	0,749080
4,394167	0,1	0,765356
4,395833	0,1	0,740308
4,397500	0,1	0,760538
4,399167	0,1	0,740916
4,400833	0,1	0,731213
4,402500	0,1	0,732819
4,404167	0,1	0,758031
4,405833	0,1	0,713296
4,407500	0,1	0,710208
4,409167	0,1	0,744312
4,410833	0,1	0,745829
4,412500	0,1	0,673118
4,414167	0,1	0,730785
4,415833	0,1	0,705399
4,417500	0,1	0,679341
4,419167	0,1	0,703550
4,420833	0,1	0,683646
4,422500	0,1	0,680142
4,424167	0,1	0,615558
4,425833	0,1	0,647335
4,427500	0,1	0,661310
4,429167	0,1	0,666134
4,430833	0,1	0,657948
4,432500	0,1	0,638519
4,434167	0,1	0,651899
4,435833	0,1	0,660260
4,437500	0,1	0,646868
4,439167	0,1	0,609545
4,440833	0,1	0,673448
4,442500	0,1	0,627831
4,444167	0,1	0,637880
4,445833	0,1	0,646129
4,447500	0,1	0,627347
4,449167	0,1	0,581362
4,450833	0,1	0,614777
4,452500	0,1	0,559264
4,454167	0,1	0,591139
4,455833	0,1	0,599242
4,457500	0,1	0,606208
4,459167	0,1	0,554767
4,460833	0,1	0,541976
4,462500	0,1	0,559157
4,464167	0,1	0,586999
4,465833	0,1	0,575673
4,467500	0,1	0,569163
4,469167	0,1	0,573604
4,470833	0,1	0,562540
4,472500	0,1	0,570342
4,474167	0,1	0,557857
4,475833	0,1	0,513414
4,477500	0,1	0,522204
4,479167	0,1	0,510650
4,480833	0,1	0,548979
4,482500	0,1	0,514242
4,484167	0,1	0,532451
4,485833	0,1	0,537303
4,487500	0,1	0,506677
4,489167	0,1	0,503960
4,490833	0,1	0,493829
4,492500	0,1	0,508592
4,494167	0,1	0,497620
4,495833	0,1	0,501969
4,497500	0,1	0,439474
4,499167	0,1	0,481076
4,500833	0,1	0,479889
4,502500	0,1	0,467255
4,504167	0,1	0,501336
4,505833	0,1	0,500349
4,507500	0,1	0,484471
4,509167	0,1	0,461500
4,510833	0,1	0,466733
4,512500	0,1	0,469489
4,514167	0,1	0,470711
4,515833	0,1	0,439321
4,517500	0,1	0,451964
4,519167	0,1	0,448552
4,520833	0,1	0,454142
4,522500	0,1	0,429234
4,524167	0,1	0,429062
4,525833	0,1	0,446847
4,527500	0,1	0,439895
4,529167	0,1	0,421155
4,530833	0,1	0,405416
4,532500	0,1	0,439823
4,534167	0,1	0,465631
4,535833	0,1	0,406108
4,537500	0,1	0,379740
4,539167	0,1	0,427019
4,540833	0,1	0,412808
4,542500	0,1	0,387027
4,544167	0,1	0,387539
4,545833	0,1	0,403315
4,547500	0,1	0,391704
4,549167	0,1	0,375492
4,550833	0,1	0,395755
4,552500	0,1	0,353031
4,554167	0,1	0,405792
4,555833	0,1	0,347878
4,557500	0,1	0,331347
4,559167	0,1	0,362350
4,560833	0,1	0,384739
4,562500	0,1	0,341827
4,564167	0,1	0,408626
4,565833	0,1	0,361894
4,567500	0,1	0,373020
4,569167	0,1	0,395715
4,570833	0,1	0,376032
4,572500	0,1	0,318458
4,574167	0,1	0,352473
4,575833	0,1	0,374323
4,577500	0,1	0,333835
4,579167	0,1	0,343142
4,580833	0,1	0,342193
4,582500	0,1	0,337201
4,584167	0,1	0,364630
4,585833	0,1	0,363580
4,587500	0,1	0,347102
4,589167	0,1	0,279054
4,590833	0,1	0,333008
4,592500	0,1	0,346744
4,594167	0,1	0,346704
4,595833	0,1	0,326275
4,597500	0,1	0,322790
4,599167	0,1	0,379636
4,600833	0,1	0,326677
4,602500	0,1	0,366802
4,604167	0,1	0,342611
4,605833	0,1	0,308948
4,607500	0,1	0,280477
4,609167	0,1	0,302763
4,610833	0,1	0,322352
4,612500	0,1	0,306912
4,614167	0,1	0,306143
4,615833	0,1	0,306081
4,617500	0,1	0,284926
4,619167	0,1	0,300568
4,620833	0,1	0,273417
4,622500	0,1	0,340478
4,624167	0,1	0,294021
4,625833	0,1	0,335473
4,627500	0,1	0,314289
4,629167	0,1	0,283460
4,630833	0,1	0,337333
4,632500	0,1	0,290109
4,634167	0,1	0,290845
4,635833	0,1	0,289599
4,637500	0,1	0,302289
4,639167	0,1	0,283745
4,640833	0,1	0,278591
4,642500	0,1	0,292644
4,644167	0,1	0,282751
4,645833	0,1	0,271426
4,647500	0,1	0,288336
4,649167	0,1	0,271736
4,650833	0,1	0,275108
4,652500	0,1	0,281587
4,654167	0,1	0,266724
4,655833	0,1	0,298478
4,657500	0,1	0,284888
4,659167	0,1	0,291942
4,660833	0,1	0,253279
4,662500	0,1	0,263097
4,664167	0,1	0,248201
4,665833	0,1	0,270417
4,667500	0,1	0,258653
4,669167	0,1	0,234165
4,670833	0,1	0,323537
4,672500	0,1	0,293297
4,674167	0,1	0,254309
4,675833	0,1	0,294538
4,677500	0,1	0,243244
4,679167	0,1	0,277334
4,680833	0,1	0,262857
4,682500	0,1	0,274156
4,684167	0,1	0,280242
4,685833	0,1	0,255509
4,687500	0,1	0,242839
4,689167	0,1	0,275496
4,690833	0,1	0,251412
4,692500	0,1	0,257760
4,694167	0,1	0,228206
4,695833	0,1	0,276238
4,697500	0,1	0,289514
4,699167	0,1	0,263378
4,700833	0,1	0,260391
4,702500	0,1	0,245177
4,704167	0,1	0,267480
4,705833	0,1	0,270140
4,707500	0,1	0,250523
4,709167	0,1	0,232450
4,710833	0,1	0,260614
4,712500	0,1	0,253993
4,714167	0,1	0,247453
4,715833	0,1	0,257548
4,717500	0,1	0,232759
4,719167	0,1	0,267837
4,720833	0,1	0,213637
4,722500	0,1	0,290827
4,724167	0,1	0,204582
4,725833	0,1	0,196467
4,727500	0,1	0,233386
4,729167	0,1	0,270361
4,730833	0,1	0,268154
4,732500	0,1	0,252816
4,734167	0,1	0,272291
4,735833	0,1	0,228333
4,737500	0,1	0,246866
4,739167	0,1	0,240867
4,740833	0,1	0,267612
4,742500	0,1	0,263856
4,744167	0,1	0,219287
4,745833	0,1	0,248586
4,747500	0,1	0,252400
4,749167	0,1	0,247161
4,750833	0,1	0,223133
4,752500	0,1	0,217688
4,754167	0,1	0,240921
4,755833	0,1	0,256494
4,757500	0,1	0,237065
4,759167	0,1	0,245233
4,760833	0,1	0,247405
4,762500	0,1	0,243909
4,764167	0,1	0,224369
4,765833	0,1	0,255725
4,767500	0,1	0,210715
4,769167	0,1	0,239286
4,770833	0,1	0,234679
4,772500	0,1	0,228262
4,774167	0,1	0,221554
4,775833	0,1	0,184404
4,777500	0,1	0,221070
4,779167	0,1	0,240615
4,780833	0,1	0,205211
4,782500	0,1	0,249074
4,784167	0,1	0,222492
4,785833	0,1	0,226335
4,787500	0,1	0,217934
4,789167	0,1	0,240448
4,790833	0,1	0,234845
4,792500	0,1	0,216775
4,794167	0,1	0,223565
4,795833	0,1	0,208433
4,797500	0,1	0,258787
4,799167	0,1	0,242883
4,800833	0,1	0,209447
4,802500	0,1	0,221120
4,804167	0,1	0,248437
4,805833	0,1	0,241201
4,807500	0,1	0,232052
4,809167	0,1	0,223402
4,810833	0,1	0,248606
4,812500	0,1	0,193532
4,814167	0,1	0,238192
4,815833	0,1	0,236251
4,817500	0,1	0,236830
4,819167	0,1	0,228702
4,820833	0,1	0,208600
4,822500	0,1	0,201098
4,824167	0,1	0,222707
4,825833	0,1	0,300372
4,827500	0,1	0,284826
4,829167	0,1	0,186711
4,830833	0,1	0,255056
4,832500	0,1	0,253930
4,834167	0,1	0,199977
4,835833	0,1	0,264851
4,837500	0,1	0,190250
4,839167	0,1	0,226035
4,840833	0,1	0,251127
4,842500	0,1	0,254614
4,844167	0,1	0,232221
4,845833	0,1	0,241093
4,847500	0,1	0,238633
4,849167	0,1	0,219465
4,850833	0,1	0,162946
4,852500	0,1	0,191569
4,854167	0,1	0,212686
4,855833	0,1	0,251688
4,857500	0,1	0,249754
4,859167	0,1	0,200784
4,860833	0,1	0,186140
4,862500	0,1	0,226019
4,864167	0,1	0,229666
4,865833	0,1	0,234536
4,867500	0,1	0,152228
4,869167	0,1	0,261375
4,870833	0,1	0,211509
4,872500	0,1	0,219944
4,874167	0,1	0,234429
4,875833	0,1	0,226153
4,877500	0,1	0,234737
4,879167	0,1	0,217629
4,880833	0,1	0,221094
4,882500	0,1	0,245044
4,884167	0,1	0,240789
4,885833	0,1	0,235883
4,887500	0,1	0,229942
4,889167	0,1	0,187325
4,890833	0,1	0,219481
4,892500	0,1	0,259765
4,894167	0,1	0,200084
4,895833	0,1	0,241631
4,897500	0,1	0,236497
4,899167	0,1	0,243353
4,900833	0,1	0,215372
4,902500	0,1	0,247425
4,904167	0,1	0,218289
4,905833	0,1	0,204521
4,907500	0,1	0,231736
4,909167	0,1	0,255189
4,910833	0,1	0,236009
4,912500	0,1	0,240741
4,914167	0,1	0,226259
4,915833	0,1	0,208081
4,917500	0,1	0,230392
4,919167	0,1	0,209137
4,920833	0,1	0,230347
4,922500	0,1	0,223323
4,924167	0,1	0,189659
4,925833	0,1	0,207949
4,927500	0,1	0,220618
4,929167	0,1	0,239086
4,930833	0,1	0,215872
4,932500	0,1	0,267359
4,934167	0,1	0,211038
4,935833	0,1	0,227738
4,937500	0,1	0,226855
4,939167	0,1	0,204170
4,940833	0,1	0,233246
4,942500	0,1	0,228701
4,944167	0,1	0,217582
4,945833	0,1	0,216815
4,947500	0,1	0,230042
4,949167	0,1	0,204232
4,950833	0,1	0,220645
4,952500	0,1	0,238490
4,954167	0,1	0,191205
4,955833	0,1	0,171859
4,957500	0,1	0,204247
4,959167	0,1	0,192848
4,960833	0,1	0,188538
4,962500	0,1	0,220340
4,964167	0,1	0,187183
4,965833	0,1	0,214778
4,967500	0,1	0,179332
4,969167	0,1	0,234646
4,970833	0,1	0,194885
4,972500	0,1	0,185086
4,974167	0,1	0,161441
4,975833	0,1	0,208814
4,977500	0,1	0,250923
4,979167	0,1	0,216138
4,980833	0,1	0,227230
4,982500	0,1	0,214481
4,984167	0,1	0,200898
4,985833	0,1	0,212348
4,987500	0,1	0,175010
4,989167	0,1	0,217219
4,990833	0,1	0,213852
4,992500	0,1	0,247839
4,994167	0,1	0,228204
4,995833	0,1	0,184803
4,997500	0,1	0,218609
4,999167	0,1	0,195752
5,000833	0,1	0,235918
5,002500	0,1	0,225969
5,004167	0,1	0,186834
5,005833	0,1	0,216061
5,007500	0,1	0,228390
5,009167	0,1	0,175991
5,010833	0,1	0,225620
5,012500	0,1	0,192378
5,014167	0,1	0,157044
5,015833	0,1	0,202030
5,017500	0,1	0,169401
5,019167	0,1	0,215750
5,020833	0,1	0,172017
5,022500	0,1	0,201194
5,024167	0,1	0,198253
5,025833	0,1	0,249038
5,027500	0,1	0,153376
5,029167	0,1	0,188497
5,030833	0,1	0,232847
5,032500	0,1	0,218393
5,034167	0,1	0,225324
5,035833	0,1	0,207301
5,037500	0,1	0,179622
5,039167	0,1	0,234112
5,040833	0,1	0,180039
5,042500	0,1	0,221938
5,044167	0,1	0,236185
5,045833	0,1	0,215659
5,047500	0,1	0,200502
5,049167	0,1	0,235066
5,050833	0,1	0,222838
5,052500	0,1	0,161083
5,054167	0,1	0,245198
5,055833	0,1	0,206207
5,057500	0,1	0,192099
5,059167	0,1	0,196035
5,060833	0,1	0,176578
5,062500	0,1	0,193771
5,064167	0,1	0,205185
5,065833	0,1	0,187593
5,067500	0,1	0,175354
5,069167	0,1	0,212728
5,070833	0,1	0,217148
5,072500	0,1	0,202578
5,074167	0,1	0,184277
5,075833	0,1	0,190047
5,077500	0,1	0,180075
5,079167	0,1	0,219277
5,080833	0,1	0,197922
5,082500	0,1	0,141192
5,084167	0,1	0,172777
5,085833	0,1	0,201346
5,087500	0,1	0,178778
5,089167	0,1	0,156047
5,090833	0,1	0,187704
5,092500	0,1	0,160600
5,094167	0,1	0,156562
5,095833	0,1	0,174416
5,097500	0,1	0,204723
5,099167	0,1	0,154389
5,100833	0,1	0,190436
5,102500	0,1	0,198434
5,104167	0,1	0,178809
5,105833	0,1	0,190503
5,107500	0,1	0,219129
5,109167	0,1	0,190346
5,110833	0,1	0,183741
5,112500	0,1	0,178088
5,114167	0,1	0,179492
5,115833	0,1	0,236141
5,117500	0,1	0,192091
5,119167	0,1	0,162298
5,120833	0,1	0,151033
5,122500	0,1	0,210340
5,124167	0,1	0,163874
5,125833	0,1	0,213305
5,127500	0,1	0,187931
5,129167	0,1	0,235977
5,130833	0,1	0,165163
5,132500	0,1	0,169683
5,134167	0,1	0,178893
5,135833	0,1	0,193772
5,137500	0,1	0,215097
5,139167	0,1	0,176232
5,140833	0,1	0,154077
5,142500	0,1	0,207987
5,144167	0,1	0,161813
5,145833	0,1	0,173134
5,147500	0,1	0,179491
5,149167	0,1	0,182438
5,150833	0,1	0,156889
5,152500	0,1	0,201511
5,154167	0,1	0,161536
5,155833	0,1	0,190729
5,157500	0,1	0,213524
5,159167	0,1	0,166427
5,160833	0,1	0,166185
5,162500	0,1	0,187170
5,164167	0,1	0,171124
5,165833	0,1	0,161407
5,167500	0,1	0,194745
5,169167	0,1	0,174303
5,170833	0,1	0,143094
5,172500	0,1	0,165538
5,174167	0,1	0,167712
5,175833	0,1	0,169667
5,177500	0,1	0,136923
5,179167	0,1	0,174272
5,180833	0,1	0,177139
5,182500	0,1	0,183860
5,184167	0,1	0,165364
5,185833	0,1	0,169683
5,187500	0,1	0,182100
5,189167	0,1	0,206008
5,190833	0,1	0,167647
5,192500	0,1	0,169684
5,194167	0,1	0,201223
5,195833	0,1	0,162100
5,197500	0,1	0,162793
5,199167	0,1	0,159755
5,200833	0,1	0,181290
5,202500	0,1	0,131262
5,204167	0,1	0,232464
5,205833	0,1	0,138910
5,207500	0,1	0,169616
5,209167	0,1	0,167224
5,210833	0,1	0,167515
5,212500	0,1	0,161345
5,214167	0,1	0,169788
5,215833	0,1	0,178771
5,217500	0,1	0,168923
5,219167	0,1	0,148988
5,220833	0,1	0,201034
5,222500	0,1	0,165002
5,224167	0,1	0,152470
5,225833	0,1	0,191949
5,227500	0,1	0,126101
5,229167	0,1	0,155104
5,230833	0,1	0,185671
5,232500	0,1	0,144746
5,234167	0,1	0,163675
5,235833	0,1	0,150362
5,237500	0,1	0,141212
5,239167	0,1	0,167156
5,240833	0,1	0,150210
5,242500	0,1	0,145946
5,244167	0,1	0,210061
5,245833	0,1	0,159858
5,247500	0,1	0,157311
5,249167	0,1	0,179593
5,250833	0,1	0,159896
5,252500	0,1	0,151155
5,254167	0,1	0,161341
5,255833	0,1	0,173684
5,257500	0,1	0,179185
5,259167	0,1	0,135171
5,260833	0,1	0,174533
5,262500	0,1	0,130327
5,264167	0,1	0,163535
5,265833	0,1	0,127666
5,267500	0,1	0,178410
5,269167	0,1	0,125777
5,270833	0,1	0,190948
5,272500	0,1	0,148291
5,274167	0,1	0,168916
5,275833	0,1	0,142574
5,277500	0,1	0,137605
5,279167	0,1	0,153152
5,280833	0,1	0,137150
5,282500	0,1	0,140886
5,284167	0,1	0,160222
5,285833	0,1	0,191782
5,287500	0,1	0,145389
5,289167	0,1	0,156025
5,290833	0,1	0,161448
5,292500	0,1	0,118246
5,294167	0,1	0,149604
5,295833	0,1	0,144968
5,297500	0,1	0,132414
5,299167	0,1	0,175921
5,300833	0,1	0,165990
5,302500	0,1	0,124248
5,304167	0,1	0,146656
5,305833	0,1	0,135605
5,307500	0,1	0,154739
5,309167	0,1	0,153719
5,310833	0,1	0,137439
5,312500	0,1	0,171540
5,314167	0,1	0,097050
5,315833	0,1	0,133394
5,317500	0,1	0,150263
5,319167	0,1	0,132139
5,320833	0,1	0,128332
5,322500	0,1	0,186811
5,324167	0,1	0,142411
5,325833	0,1	0,133481
5,327500	0,1	0,165230
5,329167	0,1	0,131027
5,330833	0,1	0,149790
5,332500	0,1	0,112255
5,334167	0,1	0,119806
5,335833	0,1	0,154505
5,337500	0,1	0,093243
5,339167	0,1	0,139409
5,340833	0,1	0,135437
5,342500	0,1	0,136273
5,344167	0,1	0,158480
5,345833	0,1	0,118030
5,347500	0,1	0,132010
5,349167	0,1	0,122757
5,350833	0,1	0,105239
5,352500	0,1	0,132969
5,354167	0,1	0,123781
5,355833	0,1	0,147511
5,357500	0,1	0,171068
5,359167	0,1	0,131426
5,360833	0,1	0,139100
5,362500	0,1	0,135969
5,364167	0,1	0,095865
5,365833	0,1	0,159006
5,367500	0,1	0,114564
5,369167	0,1	0,137599
5,370833	0,1	0,121460
5,372500	0,1	0,126527
5,374167	0,1	0,122849
5,375833	0,1	0,146642
5,377500	0,1	0,097670
5,379167	0,1	0,119985
5,380833	0,1	0,151865
5,382500	0,1	0,166931
5,384167	0,1	0,125607
5,385833	0,1	0,101163
5,387500	0,1	0,126339
5,389167	0,1	0,126604
5,390833	0,1	0,106875
5,392500	0,1	0,170416
5,394167	0,1	0,119774
5,395833	0,1	0,111774
5,397500	0,1	0,114796
5,399167	0,1	0,163257
5,400833	0,1	0,126126
5,402500	0,1	0,112404
5,404167	0,1	0,124892
5,405833	0,1	0,144840
5,407500	0,1	0,129069
5,409167	0,1	0,134104
5,410833	0,1	0,123216
5,412500	0,1	0,120815
5,414167	0,1	0,108108
5,415833	0,1	0,099113
5,417500	0,1	0,124812
5,419167	0,1	0,107042
5,420833	0,1	0,134909
5,422500	0,1	0,142094
5,424167	0,1	0,135451
5,425833	0,1	0,089439
5,427500	0,1	0,131650
5,429167	0,1	0,119932
5,430833	0,1	0,150076
5,432500	0,1	0,144647
5,434167	0,1	0,142904
5,435833	0,1	0,099122
5,437500	0,1	0,138695
5,439167	0,1	0,101747
5,440833	0,1	0,088026
5,442500	0,1	0,097075
5,444167	0,1	0,099536
5,445833	0,1	0,127743
5,447500	0,1	0,143802
5,449167	0,1	0,073662
5,450833	0,1	0,114559
5,452500	0,1	0,064846
5,454167	0,1	0,125980
5,455833	0,1	0,101668
5,457500	0,1	0,133289
5,459167	0,1	0,131311
5,460833	0,1	0,099469
5,462500	0,1	0,127150
5,464167	0,1	0,110541
5,465833	0,1	0,150365
5,467500	0,1	0,121983
5,469167	0,1	0,135645
5,470833	0,1	0,152279
5,472500	0,1	0,106638
5,474167	0,1	0,119041
5,475833	0,1	0,126911
5,477500	0,1	0,102796
5,479167	0,1	0,128325
5,480833	0,1	0,133754
5,482500	0,1	0,145589
5,484167	0,1	0,119079
5,485833	0,1	0,092350
5,487500	0,1	0,106043
5,489167	0,1	0,126693
5,490833	0,1	0,139343
5,492500	0,1	0,109598
5,494167	0,1	0,113407
5,495833	0,1	0,126983
5,497500	0,1	0,121762
5,499167	0,1	0,122511
5,500833	0,1	0,133948
5,502500	0,1	0,097269
5,504167	0,1	0,127393
5,505833	0,1	0,133737
5,507500	0,1	0,100293
5,509167	0,1	0,131364
5,510833	0,1	0,106572
5,512500	0,1	0,154396
5,514167	0,1	0,124017
5,515833	0,1	0,115502
5,517500	0,1	0,137246
5,519167	0,1	0,145240
5,520833	0,1	0,102801
5,522500	0,1	0,112670
5,524167	0,1	0,136620
5,525833	0,1	0,106890
5,527500	0,1	0,097660
5,529167	0,1	0,126980
5,530833	0,1	0,135783
5,532500	0,1	0,136976
5,534167	0,1	0,126456
5,535833	0,1	0,125582
5,537500	0,1	0,117122
5,539167	0,1	0,124938
5,540833	0,1	0,125703
5,542500	0,1	0,165397
5,544167	0,1	0,098100
5,545833	0,1	0,108334
5,547500	0,1	0,130250
5,549167	0,1	0,124300
5,550833	0,1	0,094519
5,552500	0,1	0,122428
5,554167	0,1	0,141052
5,555833	0,1	0,142506
5,557500	0,1	0,121477
5,559167	0,1	0,111011
5,560833	0,1	0,121104
5,562500	0,1	0,087645
5,564167	0,1	0,084539
5,565833	0,1	0,134750
5,567500	0,1	0,131648
5,569167	0,1	0,124989
5,570833	0,1	0,139173
5,572500	0,1	0,105061
5,574167	0,1	0,104654
5,575833	0,1	0,123392
5,577500	0,1	0,145343
5,579167	0,1	0,150785
5,580833	0,1	0,174978
5,582500	0,1	0,161744
5,584167	0,1	0,116107
5,585833	0,1	0,123854
5,587500	0,1	0,133172
5,589167	0,1	0,153164
5,590833	0,1	0,130767
5,592500	0,1	0,143847
5,594167	0,1	0,135499
5,595833	0,1	0,139986
5,597500	0,1	0,136826
5,599167	0,1	0,113520
5,600833	0,1	0,118571
5,602500	0,1	0,123245
5,604167	0,1	0,110844
5,605833	0,1	0,108382
5,607500	0,1	0,117942
5,609167	0,1	0,108338
5,610833	0,1	0,103448
5,612500	0,1	0,134755
5,614167	0,1	0,093807
5,615833	0,1	0,130080
5,617500	0,1	0,155441
5,619167	0,1	0,085668
5,620833	0,1	0,118106
5,622500	0,1	0,122677
5,624167	0,1	0,133461
5,625833	0,1	0,135327
5,627500	0,1	0,133694
5,629167	0,1	0,093238
5,630833	0,1	0,114670
5,632500	0,1	0,124158
5,634167	0,1	0,147039
5,635833	0,1	0,148633
5,637500	0,1	0,130612
5,639167	0,1	0,140595
5,640833	0,1	0,141101
5,642500	0,1	0,121826
5,644167	0,1	0,168099
5,645833	0,1	0,148608
5,647500	0,1	0,150663
5,649167	0,1	0,137027
5,650833	0,1	0,107686
5,652500	0,1	0,168737
5,654167	0,1	0,151479
5,655833	0,1	0,154804
5,657500	0,1	0,122397
5,659167	0,1	0,169198
5,660833	0,1	0,139292
5,662500	0,1	0,125370
5,664167	0,1	0,155209
5,665833	0,1	0,140418
5,667500	0,1	0,135376
5,669167	0,1	0,133281
5,670833	0,1	0,121718
5,672500	0,1	0,128756
5,674167	0,1	0,137830
5,675833	0,1	0,129907
5,677500	0,1	0,145466
5,679167	0,1	0,147045
5,680833	0,1	0,175680
5,682500	0,1	0,150137
5,684167	0,1	0,186770
5,685833	0,1	0,166373
5,687500	0,1	0,168981
5,689167	0,1	0,183596
5,690833	0,1	0,169274
5,692500	0,1	0,194580
5,694167	0,1	0,159716
5,695833	0,1	0,183611
5,697500	0,1	0,211508
5,699167	0,1	0,141882
5,700833	0,1	0,206975
5,702500	0,1	0,124684
5,704167	0,1	0,139234
5,705833	0,1	0,182367
5,707500	0,1	0,157911
5,709167	0,1	0,180312
5,710833	0,1	0,209169
5,712500	0,1	0,168303
5,714167	0,1	0,223001
5,715833	0,1	0,170339
5,717500	0,1	0,186576
5,719167	0,1	0,200859
5,720833	0,1	0,190631
5,722500	0,1	0,162403
5,724167	0,1	0,168644
5,725833	0,1	0,171395
5,727500	0,1	0,187127
5,729167	0,1	0,217038
5,730833	0,1	0,194361
5,732500	0,1	0,161885
5,734167	0,1	0,201160
5,735833	0,1	0,204149
5,737500	0,1	0,181070
5,739167	0,1	0,185847
5,740833	0,1	0,194645
5,742500	0,1	0,203751
5,744167	0,1	0,189623
5,745833	0,1	0,200128
5,747500	0,1	0,213268
5,749167	0,1	0,174535
5,750833	0,1	0,197620
5,752500	0,1	0,224309
5,754167	0,1	0,214910
5,755833	0,1	0,202059
5,757500	0,1	0,227349
5,759167	0,1	0,229894
5,760833	0,1	0,187141
5,762500	0,1	0,219938
5,764167	0,1	0,219734
5,765833	0,1	0,197602
5,767500	0,1	0,219192
5,769167	0,1	0,226423
5,770833	0,1	0,210877
5,772500	0,1	0,213025
5,774167	0,1	0,183242
5,775833	0,1	0,203670
5,777500	0,1	0,184155
5,779167	0,1	0,218811
5,780833	0,1	0,240810
5,782500	0,1	0,204555
5,784167	0,1	0,188112
5,785833	0,1	0,244852
5,787500	0,1	0,223817
5,789167	0,1	0,246681
5,790833	0,1	0,252338
5,792500	0,1	0,221912
5,794167	0,1	0,218848
5,795833	0,1	0,202366
5,797500	0,1	0,219273
5,799167	0,1	0,226853
5,800833	0,1	0,207485
5,802500	0,1	0,254788
5,804167	0,1	0,233716
5,805833	0,1	0,217399
5,807500	0,1	0,239849
5,809167	0,1	0,198295
5,810833	0,1	0,257106
5,812500	0,1	0,246839
5,814167	0,1	0,223467
5,815833	0,1	0,234991
5,817500	0,1	0,247141
5,819167	0,1	0,248454
5,820833	0,1	0,228125
5,822500	0,1	0,260813
5,824167	0,1	0,199933
5,825833	0,1	0,227778
5,827500	0,1	0,184283
5,829167	0,1	0,237751
5,830833	0,1	0,207777
5,832500	0,1	0,237845
5,834167	0,1	0,184683
5,835833	0,1	0,212623
5,837500	0,1	0,229460
5,839167	0,1	0,214236
5,840833	0,1	0,227966
5,842500	0,1	0,231284
5,844167	0,1	0,228992
5,845833	0,1	0,193906
5,847500	0,1	0,255683
5,849167	0,1	0,234849
5,850833	0,1	0,219096
5,852500	0,1	0,233373
5,854167	0,1	0,200218
5,855833	0,1	0,229976
5,857500	0,1	0,201590
5,859167	0,1	0,186371
5,860833	0,1	0,224736
5,862500	0,1	0,203942
5,864167	0,1	0,215942
5,865833	0,1	0,228899
5,867500	0,1	0,182651
5,869167	0,1	0,246241
5,870833	0,1	0,237413
5,872500	0,1	0,220653
5,874167	0,1	0,200471
5,875833	0,1	0,188601
5,877500	0,1	0,191850
5,879167	0,1	0,197959
5,880833	0,1	0,221592
5,882500	0,1	0,222027
5,884167	0,1	0,204230
5,885833	0,1	0,230435
5,887500	0,1	0,234720
5,889167	0,1	0,208021
5,890833	0,1	0,201783
5,892500	0,1	0,209631
5,894167	0,1	0,231553
5,895833	0,1	0,202643
5,897500	0,1	0,189287
5,899167	0,1	0,172194
5,900833	0,1	0,172540
5,902500	0,1	0,186256
5,904167	0,1	0,183771
5,905833	0,1	0,181602
5,907500	0,1	0,192078
5,909167	0,1	0,167291
5,910833	0,1	0,205914
5,912500	0,1	0,199246
5,914167	0,1	0,204210
5,915833	0,1	0,191212
5,917500	0,1	0,209156
5,919167	0,1	0,198255
5,920833	0,1	0,214060
5,922500	0,1	0,155369
5,924167	0,1	0,198822
5,925833	0,1	0,166240
5,927500	0,1	0,191142
5,929167	0,1	0,184199
5,930833	0,1	0,217310
5,932500	0,1	0,184281
5,934167	0,1	0,169108
5,935833	0,1	0,198490
5,937500	0,1	0,212928
5,939167	0,1	0,187365
5,940833	0,1	0,222047
5,942500	0,1	0,176156
5,944167	0,1	0,188181
5,945833	0,1	0,152431
5,947500	0,1	0,182738
5,949167	0,1	0,187693
5,950833	0,1	0,165382
5,952500	0,1	0,191509
5,954167	0,1	0,191897
5,955833	0,1	0,210790
5,957500	0,1	0,166243
5,959167	0,1	0,187462
5,960833	0,1	0,205245
5,962500	0,1	0,150113
5,964167	0,1	0,173987
5,965833	0,1	0,166217
5,967500	0,1	0,163680
5,969167	0,1	0,205589
5,970833	0,1	0,165614
5,972500	0,1	0,188056
5,974167	0,1	0,218671
5,975833	0,1	0,176782
5,977500	0,1	0,155282
5,979167	0,1	0,199831
5,980833	0,1	0,180352
5,982500	0,1	0,136729
5,984167	0,1	0,171584
5,985833	0,1	0,151724
5,987500	0,1	0,196562
5,989167	0,1	0,182290
5,990833	0,1	0,174697
5,992500	0,1	0,168600
5,994167	0,1	0,148805
5,995833	0,1	0,142677
5,997500	0,1	0,160925
5,999167	0,1	0,161710
6,000833	0,1	0,170721
