File Path	chrom://chromeleon01/ikbm_chromeleon/2022/Rezex/Esteban/220612_chitin_4_7.seq/859.smp/UV_VIS_1.channel/UV_VIS_1.chm
Channel	UV_VIS_1

Injection Information:
Data Vault	ikbm_chromeleon
Injection	A2ox 200
Injection Number	130
Position	RA5
Comment	
Processing Method	New ProcMethod
Instrument Method	Short_Rezex_6min_194nm
Type	Calibration Standard
Status	Finished
Injection Date	13.06.2022
Injection Time	07:08:54
Injection Volume (µl)	8,000
Dilution Factor	1,0000
Weight	1,0000

Chromatogram Data Information:
Time Min. (min)	0,000833
Time Max. (min)	6,000833
Data Points	3601
Detector	UV
Generating Data System	Chromeleon 7.2.9.11323
Exporting Data System	Chromeleon 7.2.9.0
Operator	Instrument Controller
Signal Quantity	Absorbance
Signal Unit	mAU
Signal Min.	-0,152971
Signal Max.	115,270209
Channel	UV_VIS_1
Driver Name	VWD3000.dll
Channel Type	Evaluation
Min. Step (s)	0,1
Max. Step (s)	0,1
Average Step (s)	0,1

Signal Parameter Information:
Signal Info	WVL:194 nm

Chromatogram Data:
Time (min)	Step (s)	Value (mAU)
0,000833	n.a.	-0,074431
0,002500	0,1	-0,119862
0,004167	0,1	-0,117787
0,005833	0,1	-0,101042
0,007500	0,1	-0,084789
0,009167	0,1	-0,062987
0,010833	0,1	-0,104354
0,012500	0,1	-0,085378
0,014167	0,1	-0,129129
0,015833	0,1	-0,088668
0,017500	0,1	-0,108393
0,019167	0,1	-0,088585
0,020833	0,1	-0,091616
0,022500	0,1	-0,110377
0,024167	0,1	-0,063522
0,025833	0,1	-0,098250
0,027500	0,1	-0,109857
0,029167	0,1	-0,079190
0,030833	0,1	-0,074184
0,032500	0,1	-0,094927
0,034167	0,1	-0,114054
0,035833	0,1	-0,100417
0,037500	0,1	-0,090798
0,039167	0,1	-0,087770
0,040833	0,1	-0,124061
0,042500	0,1	-0,076999
0,044167	0,1	-0,097383
0,045833	0,1	-0,101696
0,047500	0,1	-0,099252
0,049167	0,1	-0,079839
0,050833	0,1	-0,091202
0,052500	0,1	-0,098950
0,054167	0,1	-0,086729
0,055833	0,1	-0,102563
0,057500	0,1	-0,071855
0,059167	0,1	-0,099484
0,060833	0,1	-0,099241
0,062500	0,1	-0,098071
0,064167	0,1	-0,127636
0,065833	0,1	-0,088649
0,067500	0,1	-0,107343
0,069167	0,1	-0,126347
0,070833	0,1	-0,072152
0,072500	0,1	-0,065147
0,074167	0,1	-0,117996
0,075833	0,1	-0,096682
0,077500	0,1	-0,090266
0,079167	0,1	-0,062407
0,080833	0,1	-0,143867
0,082500	0,1	-0,070934
0,084167	0,1	-0,132092
0,085833	0,1	-0,117910
0,087500	0,1	-0,140675
0,089167	0,1	-0,126192
0,090833	0,1	-0,111959
0,092500	0,1	-0,101058
0,094167	0,1	-0,097568
0,095833	0,1	-0,095993
0,097500	0,1	-0,122080
0,099167	0,1	-0,119472
0,100833	0,1	-0,141206
0,102500	0,1	-0,093612
0,104167	0,1	-0,111660
0,105833	0,1	-0,110554
0,107500	0,1	-0,099955
0,109167	0,1	-0,118945
0,110833	0,1	-0,105836
0,112500	0,1	-0,124766
0,114167	0,1	-0,122737
0,115833	0,1	-0,121983
0,117500	0,1	-0,135498
0,119167	0,1	-0,109806
0,120833	0,1	-0,084337
0,122500	0,1	-0,120692
0,124167	0,1	-0,093315
0,125833	0,1	-0,125995
0,127500	0,1	-0,112182
0,129167	0,1	-0,114630
0,130833	0,1	-0,097631
0,132500	0,1	-0,141610
0,134167	0,1	-0,081661
0,135833	0,1	-0,116084
0,137500	0,1	-0,122855
0,139167	0,1	-0,130317
0,140833	0,1	-0,070650
0,142500	0,1	-0,105423
0,144167	0,1	-0,146621
0,145833	0,1	-0,126297
0,147500	0,1	-0,148721
0,149167	0,1	-0,084459
0,150833	0,1	-0,092897
0,152500	0,1	-0,112301
0,154167	0,1	-0,097723
0,155833	0,1	-0,110362
0,157500	0,1	-0,105775
0,159167	0,1	-0,075462
0,160833	0,1	-0,113751
0,162500	0,1	-0,112880
0,164167	0,1	-0,094366
0,165833	0,1	-0,114695
0,167500	0,1	-0,138871
0,169167	0,1	-0,118014
0,170833	0,1	-0,060550
0,172500	0,1	-0,095036
0,174167	0,1	-0,123557
0,175833	0,1	-0,137069
0,177500	0,1	-0,114706
0,179167	0,1	-0,126751
0,180833	0,1	-0,106838
0,182500	0,1	-0,133810
0,184167	0,1	-0,108524
0,185833	0,1	-0,101057
0,187500	0,1	-0,103610
0,189167	0,1	-0,084156
0,190833	0,1	-0,135734
0,192500	0,1	-0,123902
0,194167	0,1	-0,123916
0,195833	0,1	-0,105957
0,197500	0,1	-0,111074
0,199167	0,1	-0,118998
0,200833	0,1	-0,090229
0,202500	0,1	-0,117601
0,204167	0,1	-0,094930
0,205833	0,1	-0,093249
0,207500	0,1	-0,110968
0,209167	0,1	-0,070765
0,210833	0,1	-0,093884
0,212500	0,1	-0,125517
0,214167	0,1	-0,119240
0,215833	0,1	-0,095530
0,217500	0,1	-0,128431
0,219167	0,1	-0,115567
0,220833	0,1	-0,106118
0,222500	0,1	-0,061377
0,224167	0,1	-0,128379
0,225833	0,1	-0,086737
0,227500	0,1	-0,108403
0,229167	0,1	-0,087475
0,230833	0,1	-0,109436
0,232500	0,1	-0,084858
0,234167	0,1	-0,056354
0,235833	0,1	-0,113225
0,237500	0,1	-0,104024
0,239167	0,1	-0,119288
0,240833	0,1	-0,110616
0,242500	0,1	-0,084449
0,244167	0,1	-0,075948
0,245833	0,1	-0,084389
0,247500	0,1	-0,068064
0,249167	0,1	-0,095218
0,250833	0,1	-0,088472
0,252500	0,1	-0,109908
0,254167	0,1	-0,111776
0,255833	0,1	-0,086201
0,257500	0,1	-0,092838
0,259167	0,1	-0,085488
0,260833	0,1	-0,089111
0,262500	0,1	-0,118481
0,264167	0,1	-0,128854
0,265833	0,1	-0,101601
0,267500	0,1	-0,070992
0,269167	0,1	-0,091672
0,270833	0,1	-0,126045
0,272500	0,1	-0,085154
0,274167	0,1	-0,096734
0,275833	0,1	-0,114337
0,277500	0,1	-0,072971
0,279167	0,1	-0,114331
0,280833	0,1	-0,088305
0,282500	0,1	-0,092948
0,284167	0,1	-0,092078
0,285833	0,1	-0,095984
0,287500	0,1	-0,121841
0,289167	0,1	-0,097803
0,290833	0,1	-0,103841
0,292500	0,1	-0,066317
0,294167	0,1	-0,069102
0,295833	0,1	-0,107568
0,297500	0,1	-0,134272
0,299167	0,1	-0,103618
0,300833	0,1	-0,108277
0,302500	0,1	-0,121442
0,304167	0,1	-0,094879
0,305833	0,1	-0,085897
0,307500	0,1	-0,082528
0,309167	0,1	-0,075877
0,310833	0,1	-0,069164
0,312500	0,1	-0,095859
0,314167	0,1	-0,056526
0,315833	0,1	-0,122824
0,317500	0,1	-0,096802
0,319167	0,1	-0,097599
0,320833	0,1	-0,125003
0,322500	0,1	-0,070758
0,324167	0,1	-0,120921
0,325833	0,1	-0,050252
0,327500	0,1	-0,068176
0,329167	0,1	-0,100336
0,330833	0,1	-0,070763
0,332500	0,1	-0,111484
0,334167	0,1	-0,067429
0,335833	0,1	-0,091251
0,337500	0,1	-0,109028
0,339167	0,1	-0,084269
0,340833	0,1	-0,099829
0,342500	0,1	-0,116842
0,344167	0,1	-0,068473
0,345833	0,1	-0,061108
0,347500	0,1	-0,062059
0,349167	0,1	-0,077967
0,350833	0,1	-0,103896
0,352500	0,1	-0,077385
0,354167	0,1	-0,073292
0,355833	0,1	-0,090893
0,357500	0,1	-0,075972
0,359167	0,1	-0,094980
0,360833	0,1	-0,112918
0,362500	0,1	-0,049249
0,364167	0,1	-0,087982
0,365833	0,1	-0,053190
0,367500	0,1	-0,073897
0,369167	0,1	-0,056693
0,370833	0,1	-0,081872
0,372500	0,1	-0,078782
0,374167	0,1	-0,085774
0,375833	0,1	-0,056644
0,377500	0,1	-0,080530
0,379167	0,1	-0,073353
0,380833	0,1	-0,038048
0,382500	0,1	-0,070148
0,384167	0,1	-0,105346
0,385833	0,1	-0,045629
0,387500	0,1	-0,103127
0,389167	0,1	-0,050057
0,390833	0,1	-0,058891
0,392500	0,1	-0,066554
0,394167	0,1	-0,065727
0,395833	0,1	-0,089317
0,397500	0,1	-0,029295
0,399167	0,1	-0,093046
0,400833	0,1	-0,094051
0,402500	0,1	-0,087291
0,404167	0,1	-0,094521
0,405833	0,1	-0,093181
0,407500	0,1	-0,069048
0,409167	0,1	-0,041413
0,410833	0,1	-0,082038
0,412500	0,1	-0,072952
0,414167	0,1	-0,043930
0,415833	0,1	-0,077141
0,417500	0,1	-0,077611
0,419167	0,1	-0,016020
0,420833	0,1	-0,050496
0,422500	0,1	-0,068697
0,424167	0,1	-0,070444
0,425833	0,1	-0,059426
0,427500	0,1	-0,005817
0,429167	0,1	-0,048991
0,430833	0,1	-0,076851
0,432500	0,1	-0,044861
0,434167	0,1	-0,041708
0,435833	0,1	-0,052907
0,437500	0,1	-0,085819
0,439167	0,1	-0,047889
0,440833	0,1	-0,035288
0,442500	0,1	-0,083089
0,444167	0,1	-0,054671
0,445833	0,1	-0,095684
0,447500	0,1	-0,042893
0,449167	0,1	-0,064548
0,450833	0,1	-0,081043
0,452500	0,1	-0,055461
0,454167	0,1	-0,050045
0,455833	0,1	-0,094513
0,457500	0,1	-0,061355
0,459167	0,1	-0,071605
0,460833	0,1	-0,034974
0,462500	0,1	-0,099807
0,464167	0,1	-0,057689
0,465833	0,1	-0,070032
0,467500	0,1	-0,051972
0,469167	0,1	-0,056587
0,470833	0,1	-0,076032
0,472500	0,1	-0,076857
0,474167	0,1	-0,077449
0,475833	0,1	-0,044280
0,477500	0,1	-0,087047
0,479167	0,1	-0,043292
0,480833	0,1	-0,057796
0,482500	0,1	-0,093214
0,484167	0,1	-0,060713
0,485833	0,1	-0,083035
0,487500	0,1	-0,009137
0,489167	0,1	-0,053992
0,490833	0,1	-0,069279
0,492500	0,1	-0,077257
0,494167	0,1	-0,060770
0,495833	0,1	-0,093402
0,497500	0,1	-0,099941
0,499167	0,1	-0,065503
0,500833	0,1	-0,054086
0,502500	0,1	-0,074759
0,504167	0,1	-0,054769
0,505833	0,1	-0,075922
0,507500	0,1	-0,106270
0,509167	0,1	-0,061489
0,510833	0,1	-0,080932
0,512500	0,1	-0,108564
0,514167	0,1	-0,033047
0,515833	0,1	-0,033080
0,517500	0,1	-0,113791
0,519167	0,1	-0,053336
0,520833	0,1	-0,103309
0,522500	0,1	-0,095388
0,524167	0,1	-0,054774
0,525833	0,1	-0,060123
0,527500	0,1	-0,069280
0,529167	0,1	-0,099005
0,530833	0,1	-0,068989
0,532500	0,1	-0,105585
0,534167	0,1	-0,115329
0,535833	0,1	-0,100058
0,537500	0,1	-0,071674
0,539167	0,1	-0,067941
0,540833	0,1	-0,067590
0,542500	0,1	-0,083978
0,544167	0,1	-0,078201
0,545833	0,1	-0,058377
0,547500	0,1	-0,063160
0,549167	0,1	-0,084600
0,550833	0,1	-0,092879
0,552500	0,1	-0,080119
0,554167	0,1	-0,086467
0,555833	0,1	-0,092778
0,557500	0,1	-0,095915
0,559167	0,1	-0,064452
0,560833	0,1	-0,050519
0,562500	0,1	-0,090135
0,564167	0,1	-0,042130
0,565833	0,1	-0,092408
0,567500	0,1	-0,095104
0,569167	0,1	-0,052379
0,570833	0,1	-0,058780
0,572500	0,1	-0,066835
0,574167	0,1	-0,031875
0,575833	0,1	-0,098355
0,577500	0,1	-0,055645
0,579167	0,1	-0,085119
0,580833	0,1	-0,062406
0,582500	0,1	-0,046552
0,584167	0,1	-0,064781
0,585833	0,1	-0,064504
0,587500	0,1	-0,052612
0,589167	0,1	-0,096666
0,590833	0,1	-0,075051
0,592500	0,1	-0,094638
0,594167	0,1	-0,063859
0,595833	0,1	-0,068291
0,597500	0,1	-0,063624
0,599167	0,1	-0,083907
0,600833	0,1	-0,083844
0,602500	0,1	-0,082220
0,604167	0,1	-0,080945
0,605833	0,1	-0,089152
0,607500	0,1	-0,070209
0,609167	0,1	-0,080643
0,610833	0,1	-0,052616
0,612500	0,1	-0,058892
0,614167	0,1	-0,058192
0,615833	0,1	-0,085367
0,617500	0,1	-0,068765
0,619167	0,1	-0,054356
0,620833	0,1	-0,102897
0,622500	0,1	-0,071334
0,624167	0,1	-0,092345
0,625833	0,1	-0,081941
0,627500	0,1	-0,049170
0,629167	0,1	-0,107975
0,630833	0,1	-0,075695
0,632500	0,1	-0,095269
0,634167	0,1	-0,089856
0,635833	0,1	-0,109147
0,637500	0,1	-0,090962
0,639167	0,1	-0,100053
0,640833	0,1	-0,096088
0,642500	0,1	-0,066135
0,644167	0,1	-0,085320
0,645833	0,1	-0,079315
0,647500	0,1	-0,067132
0,649167	0,1	-0,031165
0,650833	0,1	-0,144614
0,652500	0,1	-0,080311
0,654167	0,1	-0,052547
0,655833	0,1	-0,113616
0,657500	0,1	-0,059616
0,659167	0,1	-0,087111
0,660833	0,1	-0,063688
0,662500	0,1	-0,085069
0,664167	0,1	-0,085186
0,665833	0,1	-0,082921
0,667500	0,1	-0,092939
0,669167	0,1	-0,090916
0,670833	0,1	-0,068065
0,672500	0,1	-0,071197
0,674167	0,1	-0,059486
0,675833	0,1	-0,093564
0,677500	0,1	-0,072204
0,679167	0,1	-0,115202
0,680833	0,1	-0,072030
0,682500	0,1	-0,093056
0,684167	0,1	-0,050506
0,685833	0,1	-0,085287
0,687500	0,1	-0,114095
0,689167	0,1	-0,071909
0,690833	0,1	-0,051743
0,692500	0,1	-0,045728
0,694167	0,1	-0,056214
0,695833	0,1	-0,100334
0,697500	0,1	-0,076634
0,699167	0,1	-0,048527
0,700833	0,1	-0,040137
0,702500	0,1	-0,065650
0,704167	0,1	-0,058434
0,705833	0,1	-0,081513
0,707500	0,1	-0,052616
0,709167	0,1	-0,063729
0,710833	0,1	-0,057501
0,712500	0,1	-0,058541
0,714167	0,1	-0,035540
0,715833	0,1	-0,072532
0,717500	0,1	-0,050049
0,719167	0,1	-0,038454
0,720833	0,1	-0,059939
0,722500	0,1	-0,040540
0,724167	0,1	-0,011812
0,725833	0,1	-0,043214
0,727500	0,1	-0,018155
0,729167	0,1	-0,010356
0,730833	0,1	-0,058309
0,732500	0,1	-0,050386
0,734167	0,1	-0,045146
0,735833	0,1	-0,008366
0,737500	0,1	-0,051949
0,739167	0,1	-0,027784
0,740833	0,1	-0,000921
0,742500	0,1	-0,039244
0,744167	0,1	0,002415
0,745833	0,1	-0,043740
0,747500	0,1	-0,052186
0,749167	0,1	-0,044154
0,750833	0,1	-0,030687
0,752500	0,1	-0,032318
0,754167	0,1	-0,050852
0,755833	0,1	-0,062978
0,757500	0,1	-0,009243
0,759167	0,1	0,005168
0,760833	0,1	-0,040765
0,762500	0,1	-0,015469
0,764167	0,1	-0,014289
0,765833	0,1	-0,017155
0,767500	0,1	0,026086
0,769167	0,1	0,010065
0,770833	0,1	0,005694
0,772500	0,1	-0,037439
0,774167	0,1	-0,048698
0,775833	0,1	-0,031269
0,777500	0,1	-0,036867
0,779167	0,1	-0,059409
0,780833	0,1	-0,044968
0,782500	0,1	-0,057376
0,784167	0,1	-0,040479
0,785833	0,1	-0,020066
0,787500	0,1	-0,098753
0,789167	0,1	-0,050107
0,790833	0,1	-0,071493
0,792500	0,1	-0,043989
0,794167	0,1	-0,027322
0,795833	0,1	-0,052534
0,797500	0,1	-0,115728
0,799167	0,1	-0,086715
0,800833	0,1	-0,060551
0,802500	0,1	-0,068939
0,804167	0,1	-0,074703
0,805833	0,1	-0,023133
0,807500	0,1	-0,084879
0,809167	0,1	-0,055983
0,810833	0,1	-0,088332
0,812500	0,1	-0,083853
0,814167	0,1	-0,103084
0,815833	0,1	-0,039389
0,817500	0,1	-0,089040
0,819167	0,1	-0,080759
0,820833	0,1	-0,078313
0,822500	0,1	-0,107510
0,824167	0,1	-0,046322
0,825833	0,1	-0,070278
0,827500	0,1	-0,068232
0,829167	0,1	-0,112347
0,830833	0,1	-0,094288
0,832500	0,1	-0,087351
0,834167	0,1	-0,104829
0,835833	0,1	-0,109553
0,837500	0,1	-0,090902
0,839167	0,1	-0,055595
0,840833	0,1	-0,080699
0,842500	0,1	-0,091784
0,844167	0,1	-0,125636
0,845833	0,1	-0,132583
0,847500	0,1	-0,126167
0,849167	0,1	-0,128730
0,850833	0,1	-0,088702
0,852500	0,1	-0,082341
0,854167	0,1	-0,070680
0,855833	0,1	-0,104655
0,857500	0,1	-0,128203
0,859167	0,1	-0,082280
0,860833	0,1	-0,076218
0,862500	0,1	-0,100740
0,864167	0,1	-0,130245
0,865833	0,1	-0,110379
0,867500	0,1	-0,108691
0,869167	0,1	-0,109843
0,870833	0,1	-0,119758
0,872500	0,1	-0,106308
0,874167	0,1	-0,100286
0,875833	0,1	-0,089386
0,877500	0,1	-0,135138
0,879167	0,1	-0,120508
0,880833	0,1	-0,084160
0,882500	0,1	-0,102675
0,884167	0,1	-0,125340
0,885833	0,1	-0,117018
0,887500	0,1	-0,117076
0,889167	0,1	-0,095980
0,890833	0,1	-0,134781
0,892500	0,1	-0,126586
0,894167	0,1	-0,125584
0,895833	0,1	-0,100061
0,897500	0,1	-0,109678
0,899167	0,1	-0,077207
0,900833	0,1	-0,107750
0,902500	0,1	-0,085030
0,904167	0,1	-0,086486
0,905833	0,1	-0,106350
0,907500	0,1	-0,091842
0,909167	0,1	-0,092709
0,910833	0,1	-0,105933
0,912500	0,1	-0,152971
0,914167	0,1	-0,075091
0,915833	0,1	-0,056693
0,917500	0,1	-0,115839
0,919167	0,1	-0,094289
0,920833	0,1	-0,105302
0,922500	0,1	-0,121793
0,924167	0,1	-0,117436
0,925833	0,1	-0,111197
0,927500	0,1	-0,122435
0,929167	0,1	-0,074075
0,930833	0,1	-0,100330
0,932500	0,1	-0,125525
0,934167	0,1	-0,126917
0,935833	0,1	-0,062184
0,937500	0,1	-0,096439
0,939167	0,1	-0,118645
0,940833	0,1	-0,089101
0,942500	0,1	-0,097538
0,944167	0,1	-0,055004
0,945833	0,1	-0,061236
0,947500	0,1	-0,055708
0,949167	0,1	-0,101087
0,950833	0,1	-0,077916
0,952500	0,1	-0,078901
0,954167	0,1	-0,124298
0,955833	0,1	-0,096573
0,957500	0,1	-0,077615
0,959167	0,1	-0,066139
0,960833	0,1	-0,070564
0,962500	0,1	-0,106449
0,964167	0,1	-0,100937
0,965833	0,1	-0,102447
0,967500	0,1	-0,093652
0,969167	0,1	-0,097070
0,970833	0,1	-0,055645
0,972500	0,1	-0,072485
0,974167	0,1	-0,062342
0,975833	0,1	-0,094044
0,977500	0,1	-0,045918
0,979167	0,1	-0,046256
0,980833	0,1	-0,095322
0,982500	0,1	-0,037452
0,984167	0,1	-0,066691
0,985833	0,1	-0,019262
0,987500	0,1	-0,061969
0,989167	0,1	-0,061920
0,990833	0,1	-0,039948
0,992500	0,1	-0,005631
0,994167	0,1	-0,024787
0,995833	0,1	-0,050390
0,997500	0,1	-0,043332
0,999167	0,1	-0,039474
1,000833	0,1	-0,033082
1,002500	0,1	-0,057553
1,004167	0,1	-0,022876
1,005833	0,1	-0,021476
1,007500	0,1	0,012921
1,009167	0,1	0,012227
1,010833	0,1	-0,011498
1,012500	0,1	-0,031140
1,014167	0,1	-0,015187
1,015833	0,1	0,012221
1,017500	0,1	0,033909
1,019167	0,1	0,018124
1,020833	0,1	-0,017367
1,022500	0,1	0,067781
1,024167	0,1	-0,004711
1,025833	0,1	0,027624
1,027500	0,1	0,050718
1,029167	0,1	0,047167
1,030833	0,1	0,050712
1,032500	0,1	0,047941
1,034167	0,1	0,065921
1,035833	0,1	0,048054
1,037500	0,1	0,049718
1,039167	0,1	0,072239
1,040833	0,1	0,101903
1,042500	0,1	0,129064
1,044167	0,1	0,093059
1,045833	0,1	0,070832
1,047500	0,1	0,124823
1,049167	0,1	0,113123
1,050833	0,1	0,100365
1,052500	0,1	0,113665
1,054167	0,1	0,145557
1,055833	0,1	0,179441
1,057500	0,1	0,274200
1,059167	0,1	0,375053
1,060833	0,1	0,520825
1,062500	0,1	0,659065
1,064167	0,1	0,921201
1,065833	0,1	1,181624
1,067500	0,1	1,610190
1,069167	0,1	2,098787
1,070833	0,1	2,801655
1,072500	0,1	3,535906
1,074167	0,1	4,461656
1,075833	0,1	5,558035
1,077500	0,1	6,882806
1,079167	0,1	8,372439
1,080833	0,1	10,029341
1,082500	0,1	11,827591
1,084167	0,1	13,763257
1,085833	0,1	15,933372
1,087500	0,1	18,132087
1,089167	0,1	20,396463
1,090833	0,1	22,720653
1,092500	0,1	25,014448
1,094167	0,1	27,274774
1,095833	0,1	29,553060
1,097500	0,1	31,703398
1,099167	0,1	33,749860
1,100833	0,1	35,617952
1,102500	0,1	37,373894
1,104167	0,1	38,972526
1,105833	0,1	40,295050
1,107500	0,1	41,522773
1,109167	0,1	42,601042
1,110833	0,1	43,405423
1,112500	0,1	44,078708
1,114167	0,1	44,569166
1,115833	0,1	44,808409
1,117500	0,1	44,923873
1,119167	0,1	44,863929
1,120833	0,1	44,663330
1,122500	0,1	44,309152
1,124167	0,1	43,791826
1,125833	0,1	43,186058
1,127500	0,1	42,486464
1,129167	0,1	41,680334
1,130833	0,1	40,691879
1,132500	0,1	39,811209
1,134167	0,1	38,710364
1,135833	0,1	37,599031
1,137500	0,1	36,453787
1,139167	0,1	35,337122
1,140833	0,1	34,105305
1,142500	0,1	32,900799
1,144167	0,1	31,621664
1,145833	0,1	30,422078
1,147500	0,1	29,236835
1,149167	0,1	28,040888
1,150833	0,1	26,900695
1,152500	0,1	25,723221
1,154167	0,1	24,619676
1,155833	0,1	23,538111
1,157500	0,1	22,507604
1,159167	0,1	21,457873
1,160833	0,1	20,497306
1,162500	0,1	19,511753
1,164167	0,1	18,616165
1,165833	0,1	17,789218
1,167500	0,1	16,888088
1,169167	0,1	16,108306
1,170833	0,1	15,307647
1,172500	0,1	14,588974
1,174167	0,1	13,869761
1,175833	0,1	13,182123
1,177500	0,1	12,529634
1,179167	0,1	11,911019
1,180833	0,1	11,371080
1,182500	0,1	10,802662
1,184167	0,1	10,272345
1,185833	0,1	9,782891
1,187500	0,1	9,291829
1,189167	0,1	8,773260
1,190833	0,1	8,364591
1,192500	0,1	7,956288
1,194167	0,1	7,549325
1,195833	0,1	7,190328
1,197500	0,1	6,877245
1,199167	0,1	6,530808
1,200833	0,1	6,204177
1,202500	0,1	5,901006
1,204167	0,1	5,649396
1,205833	0,1	5,414637
1,207500	0,1	5,138806
1,209167	0,1	4,904587
1,210833	0,1	4,645050
1,212500	0,1	4,480156
1,214167	0,1	4,272598
1,215833	0,1	4,101438
1,217500	0,1	3,881993
1,219167	0,1	3,677329
1,220833	0,1	3,581980
1,222500	0,1	3,407203
1,224167	0,1	3,269408
1,225833	0,1	3,158836
1,227500	0,1	3,021317
1,229167	0,1	2,934338
1,230833	0,1	2,757045
1,232500	0,1	2,688176
1,234167	0,1	2,583574
1,235833	0,1	2,482431
1,237500	0,1	2,382671
1,239167	0,1	2,287735
1,240833	0,1	2,252412
1,242500	0,1	2,178713
1,244167	0,1	2,109738
1,245833	0,1	2,051892
1,247500	0,1	1,939218
1,249167	0,1	1,872993
1,250833	0,1	1,856165
1,252500	0,1	1,771521
1,254167	0,1	1,758473
1,255833	0,1	1,693516
1,257500	0,1	1,628132
1,259167	0,1	1,616058
1,260833	0,1	1,514004
1,262500	0,1	1,463349
1,264167	0,1	1,457660
1,265833	0,1	1,436691
1,267500	0,1	1,333562
1,269167	0,1	1,326641
1,270833	0,1	1,287028
1,272500	0,1	1,234993
1,274167	0,1	1,201542
1,275833	0,1	1,219038
1,277500	0,1	1,154680
1,279167	0,1	1,086047
1,280833	0,1	1,095643
1,282500	0,1	1,062054
1,284167	0,1	1,039678
1,285833	0,1	1,024859
1,287500	0,1	1,008079
1,289167	0,1	0,974910
1,290833	0,1	0,929856
1,292500	0,1	0,919275
1,294167	0,1	0,906772
1,295833	0,1	0,888842
1,297500	0,1	0,848617
1,299167	0,1	0,832223
1,300833	0,1	0,819242
1,302500	0,1	0,791355
1,304167	0,1	0,808889
1,305833	0,1	0,799839
1,307500	0,1	0,757500
1,309167	0,1	0,748884
1,310833	0,1	0,752251
1,312500	0,1	0,729650
1,314167	0,1	0,685228
1,315833	0,1	0,707506
1,317500	0,1	0,694413
1,319167	0,1	0,684768
1,320833	0,1	0,630631
1,322500	0,1	0,655663
1,324167	0,1	0,628662
1,325833	0,1	0,649241
1,327500	0,1	0,617744
1,329167	0,1	0,600171
1,330833	0,1	0,587903
1,332500	0,1	0,591855
1,334167	0,1	0,560606
1,335833	0,1	0,579547
1,337500	0,1	0,566484
1,339167	0,1	0,570863
1,340833	0,1	0,611604
1,342500	0,1	0,544042
1,344167	0,1	0,528281
1,345833	0,1	0,518544
1,347500	0,1	0,539894
1,349167	0,1	0,519189
1,350833	0,1	0,506344
1,352500	0,1	0,496320
1,354167	0,1	0,514434
1,355833	0,1	0,488722
1,357500	0,1	0,510768
1,359167	0,1	0,506070
1,360833	0,1	0,492509
1,362500	0,1	0,472792
1,364167	0,1	0,453717
1,365833	0,1	0,515482
1,367500	0,1	0,473832
1,369167	0,1	0,476907
1,370833	0,1	0,506892
1,372500	0,1	0,468820
1,374167	0,1	0,476201
1,375833	0,1	0,445952
1,377500	0,1	0,448241
1,379167	0,1	0,503283
1,380833	0,1	0,437447
1,382500	0,1	0,477603
1,384167	0,1	0,443880
1,385833	0,1	0,469485
1,387500	0,1	0,423649
1,389167	0,1	0,472464
1,390833	0,1	0,504198
1,392500	0,1	0,488861
1,394167	0,1	0,424440
1,395833	0,1	0,467287
1,397500	0,1	0,477030
1,399167	0,1	0,423195
1,400833	0,1	0,429044
1,402500	0,1	0,454741
1,404167	0,1	0,444869
1,405833	0,1	0,383747
1,407500	0,1	0,428432
1,409167	0,1	0,431030
1,410833	0,1	0,408504
1,412500	0,1	0,407526
1,414167	0,1	0,406635
1,415833	0,1	0,444380
1,417500	0,1	0,381862
1,419167	0,1	0,403482
1,420833	0,1	0,441045
1,422500	0,1	0,409875
1,424167	0,1	0,400447
1,425833	0,1	0,407815
1,427500	0,1	0,436036
1,429167	0,1	0,400286
1,430833	0,1	0,385475
1,432500	0,1	0,425286
1,434167	0,1	0,393410
1,435833	0,1	0,427855
1,437500	0,1	0,393286
1,439167	0,1	0,374253
1,440833	0,1	0,410210
1,442500	0,1	0,383118
1,444167	0,1	0,426051
1,445833	0,1	0,426952
1,447500	0,1	0,380078
1,449167	0,1	0,367665
1,450833	0,1	0,387538
1,452500	0,1	0,401682
1,454167	0,1	0,411127
1,455833	0,1	0,385044
1,457500	0,1	0,376155
1,459167	0,1	0,383129
1,460833	0,1	0,399281
1,462500	0,1	0,412410
1,464167	0,1	0,397424
1,465833	0,1	0,388082
1,467500	0,1	0,391289
1,469167	0,1	0,383008
1,470833	0,1	0,378929
1,472500	0,1	0,354293
1,474167	0,1	0,397928
1,475833	0,1	0,402989
1,477500	0,1	0,427340
1,479167	0,1	0,408296
1,480833	0,1	0,403925
1,482500	0,1	0,388788
1,484167	0,1	0,389032
1,485833	0,1	0,401021
1,487500	0,1	0,422886
1,489167	0,1	0,420904
1,490833	0,1	0,423742
1,492500	0,1	0,346850
1,494167	0,1	0,433578
1,495833	0,1	0,399892
1,497500	0,1	0,400795
1,499167	0,1	0,392762
1,500833	0,1	0,373506
1,502500	0,1	0,426462
1,504167	0,1	0,390492
1,505833	0,1	0,381560
1,507500	0,1	0,370811
1,509167	0,1	0,376378
1,510833	0,1	0,376153
1,512500	0,1	0,401971
1,514167	0,1	0,380258
1,515833	0,1	0,413380
1,517500	0,1	0,461151
1,519167	0,1	0,380914
1,520833	0,1	0,436547
1,522500	0,1	0,433125
1,524167	0,1	0,417366
1,525833	0,1	0,419412
1,527500	0,1	0,393802
1,529167	0,1	0,416033
1,530833	0,1	0,443265
1,532500	0,1	0,393042
1,534167	0,1	0,357523
1,535833	0,1	0,388259
1,537500	0,1	0,446717
1,539167	0,1	0,378179
1,540833	0,1	0,417644
1,542500	0,1	0,408046
1,544167	0,1	0,393219
1,545833	0,1	0,356240
1,547500	0,1	0,385486
1,549167	0,1	0,364129
1,550833	0,1	0,377703
1,552500	0,1	0,368244
1,554167	0,1	0,364682
1,555833	0,1	0,395776
1,557500	0,1	0,386922
1,559167	0,1	0,358787
1,560833	0,1	0,333461
1,562500	0,1	0,371836
1,564167	0,1	0,340005
1,565833	0,1	0,316360
1,567500	0,1	0,342312
1,569167	0,1	0,324037
1,570833	0,1	0,339767
1,572500	0,1	0,335444
1,574167	0,1	0,352398
1,575833	0,1	0,313068
1,577500	0,1	0,307432
1,579167	0,1	0,331359
1,580833	0,1	0,322319
1,582500	0,1	0,276942
1,584167	0,1	0,288692
1,585833	0,1	0,322641
1,587500	0,1	0,293273
1,589167	0,1	0,278860
1,590833	0,1	0,316161
1,592500	0,1	0,288225
1,594167	0,1	0,271325
1,595833	0,1	0,297587
1,597500	0,1	0,299333
1,599167	0,1	0,285920
1,600833	0,1	0,258019
1,602500	0,1	0,252422
1,604167	0,1	0,279246
1,605833	0,1	0,315642
1,607500	0,1	0,295487
1,609167	0,1	0,302874
1,610833	0,1	0,362617
1,612500	0,1	0,306346
1,614167	0,1	0,350281
1,615833	0,1	0,371075
1,617500	0,1	0,363750
1,619167	0,1	0,417743
1,620833	0,1	0,413016
1,622500	0,1	0,482278
1,624167	0,1	0,512608
1,625833	0,1	0,489755
1,627500	0,1	0,569484
1,629167	0,1	0,655332
1,630833	0,1	0,653100
1,632500	0,1	0,745678
1,634167	0,1	0,774448
1,635833	0,1	0,855400
1,637500	0,1	0,963405
1,639167	0,1	1,110690
1,640833	0,1	1,207967
1,642500	0,1	1,352406
1,644167	0,1	1,523995
1,645833	0,1	1,708553
1,647500	0,1	1,902067
1,649167	0,1	2,097419
1,650833	0,1	2,396120
1,652500	0,1	2,669450
1,654167	0,1	2,944016
1,655833	0,1	3,351565
1,657500	0,1	3,706413
1,659167	0,1	4,148382
1,660833	0,1	4,570542
1,662500	0,1	5,105793
1,664167	0,1	5,617213
1,665833	0,1	6,234038
1,667500	0,1	6,893657
1,669167	0,1	7,595864
1,670833	0,1	8,433151
1,672500	0,1	9,221342
1,674167	0,1	10,083610
1,675833	0,1	11,029702
1,677500	0,1	12,053015
1,679167	0,1	13,136923
1,680833	0,1	14,327366
1,682500	0,1	15,506246
1,684167	0,1	16,782755
1,685833	0,1	18,235624
1,687500	0,1	19,724913
1,689167	0,1	21,204847
1,690833	0,1	22,792289
1,692500	0,1	24,440139
1,694167	0,1	26,220756
1,695833	0,1	27,993832
1,697500	0,1	29,903671
1,699167	0,1	31,840256
1,700833	0,1	33,825658
1,702500	0,1	35,936658
1,704167	0,1	38,108401
1,705833	0,1	40,261795
1,707500	0,1	42,521187
1,709167	0,1	44,855994
1,710833	0,1	47,206763
1,712500	0,1	49,574829
1,714167	0,1	51,983840
1,715833	0,1	54,413587
1,717500	0,1	56,924107
1,719167	0,1	59,416319
1,720833	0,1	61,868389
1,722500	0,1	64,400275
1,724167	0,1	66,879540
1,725833	0,1	69,373233
1,727500	0,1	71,868376
1,729167	0,1	74,359664
1,730833	0,1	76,767840
1,732500	0,1	79,216928
1,734167	0,1	81,556690
1,735833	0,1	83,856551
1,737500	0,1	86,162712
1,739167	0,1	88,362826
1,740833	0,1	90,522721
1,742500	0,1	92,599977
1,744167	0,1	94,645479
1,745833	0,1	96,568439
1,747500	0,1	98,466541
1,749167	0,1	100,204130
1,750833	0,1	101,882326
1,752500	0,1	103,512226
1,754167	0,1	105,020015
1,755833	0,1	106,417498
1,757500	0,1	107,770583
1,759167	0,1	108,955900
1,760833	0,1	110,050777
1,762500	0,1	111,067498
1,764167	0,1	111,958763
1,765833	0,1	112,731784
1,767500	0,1	113,470969
1,769167	0,1	114,019251
1,770833	0,1	114,481974
1,772500	0,1	114,847657
1,774167	0,1	115,105524
1,775833	0,1	115,244298
1,777500	0,1	115,270209
1,779167	0,1	115,248395
1,780833	0,1	115,076757
1,782500	0,1	114,823383
1,784167	0,1	114,474057
1,785833	0,1	114,065740
1,787500	0,1	113,508065
1,789167	0,1	112,882040
1,790833	0,1	112,247727
1,792500	0,1	111,462378
1,794167	0,1	110,582014
1,795833	0,1	109,645463
1,797500	0,1	108,672937
1,799167	0,1	107,596967
1,800833	0,1	106,464112
1,802500	0,1	105,298010
1,804167	0,1	104,050997
1,805833	0,1	102,726151
1,807500	0,1	101,416911
1,809167	0,1	99,986761
1,810833	0,1	98,603841
1,812500	0,1	97,117847
1,814167	0,1	95,631637
1,815833	0,1	94,096235
1,817500	0,1	92,510924
1,819167	0,1	90,960697
1,820833	0,1	89,309631
1,822500	0,1	87,714457
1,824167	0,1	86,048528
1,825833	0,1	84,445560
1,827500	0,1	82,787990
1,829167	0,1	81,111361
1,830833	0,1	79,456308
1,832500	0,1	77,784611
1,834167	0,1	76,149428
1,835833	0,1	74,427341
1,837500	0,1	72,821078
1,839167	0,1	71,169361
1,840833	0,1	69,569154
1,842500	0,1	67,893870
1,844167	0,1	66,326650
1,845833	0,1	64,742076
1,847500	0,1	63,133734
1,849167	0,1	61,664261
1,850833	0,1	60,074394
1,852500	0,1	58,576651
1,854167	0,1	57,114701
1,855833	0,1	55,615325
1,857500	0,1	54,180201
1,859167	0,1	52,743856
1,860833	0,1	51,370849
1,862500	0,1	50,031104
1,864167	0,1	48,721286
1,865833	0,1	47,350733
1,867500	0,1	46,129698
1,869167	0,1	44,860416
1,870833	0,1	43,628712
1,872500	0,1	42,419459
1,874167	0,1	41,269222
1,875833	0,1	40,092227
1,877500	0,1	38,974122
1,879167	0,1	37,900324
1,880833	0,1	36,881323
1,882500	0,1	35,810374
1,884167	0,1	34,820055
1,885833	0,1	33,858954
1,887500	0,1	32,882304
1,889167	0,1	31,993562
1,890833	0,1	31,031346
1,892500	0,1	30,170519
1,894167	0,1	29,304928
1,895833	0,1	28,489087
1,897500	0,1	27,676528
1,899167	0,1	26,880923
1,900833	0,1	26,114670
1,902500	0,1	25,339979
1,904167	0,1	24,663546
1,905833	0,1	23,921189
1,907500	0,1	23,234945
1,909167	0,1	22,565377
1,910833	0,1	21,924083
1,912500	0,1	21,315244
1,914167	0,1	20,738978
1,915833	0,1	20,159463
1,917500	0,1	19,547850
1,919167	0,1	18,973528
1,920833	0,1	18,458012
1,922500	0,1	17,932223
1,924167	0,1	17,429653
1,925833	0,1	16,978386
1,927500	0,1	16,483019
1,929167	0,1	16,033551
1,930833	0,1	15,540172
1,932500	0,1	15,136408
1,934167	0,1	14,742551
1,935833	0,1	14,297392
1,937500	0,1	13,892692
1,939167	0,1	13,521989
1,940833	0,1	13,115738
1,942500	0,1	12,835375
1,944167	0,1	12,477104
1,945833	0,1	12,117961
1,947500	0,1	11,792396
1,949167	0,1	11,517763
1,950833	0,1	11,183325
1,952500	0,1	10,884688
1,954167	0,1	10,608163
1,955833	0,1	10,324980
1,957500	0,1	10,075115
1,959167	0,1	9,810290
1,960833	0,1	9,539709
1,962500	0,1	9,264912
1,964167	0,1	9,043820
1,965833	0,1	8,818470
1,967500	0,1	8,591302
1,969167	0,1	8,386302
1,970833	0,1	8,175253
1,972500	0,1	7,981426
1,974167	0,1	7,807889
1,975833	0,1	7,625447
1,977500	0,1	7,458929
1,979167	0,1	7,268638
1,980833	0,1	7,092476
1,982500	0,1	6,897326
1,984167	0,1	6,792500
1,985833	0,1	6,619977
1,987500	0,1	6,515124
1,989167	0,1	6,361582
1,990833	0,1	6,218447
1,992500	0,1	6,054310
1,994167	0,1	5,941662
1,995833	0,1	5,839519
1,997500	0,1	5,698595
1,999167	0,1	5,614303
2,000833	0,1	5,534421
2,002500	0,1	5,409610
2,004167	0,1	5,283108
2,005833	0,1	5,202516
2,007500	0,1	5,128239
2,009167	0,1	4,968636
2,010833	0,1	4,934552
2,012500	0,1	4,786088
2,014167	0,1	4,737756
2,015833	0,1	4,670573
2,017500	0,1	4,608701
2,019167	0,1	4,507514
2,020833	0,1	4,464045
2,022500	0,1	4,406990
2,024167	0,1	4,309052
2,025833	0,1	4,250792
2,027500	0,1	4,178813
2,029167	0,1	4,164523
2,030833	0,1	4,052435
2,032500	0,1	4,044171
2,034167	0,1	3,995184
2,035833	0,1	3,919158
2,037500	0,1	3,869940
2,039167	0,1	3,813954
2,040833	0,1	3,802689
2,042500	0,1	3,776111
2,044167	0,1	3,739369
2,045833	0,1	3,680299
2,047500	0,1	3,639414
2,049167	0,1	3,616751
2,050833	0,1	3,559947
2,052500	0,1	3,544227
2,054167	0,1	3,472866
2,055833	0,1	3,511558
2,057500	0,1	3,417575
2,059167	0,1	3,445405
2,060833	0,1	3,418172
2,062500	0,1	3,392063
2,064167	0,1	3,347812
2,065833	0,1	3,350865
2,067500	0,1	3,348462
2,069167	0,1	3,294020
2,070833	0,1	3,269904
2,072500	0,1	3,284791
2,074167	0,1	3,218924
2,075833	0,1	3,254141
2,077500	0,1	3,245889
2,079167	0,1	3,176270
2,080833	0,1	3,158155
2,082500	0,1	3,179678
2,084167	0,1	3,145261
2,085833	0,1	3,122510
2,087500	0,1	3,084981
2,089167	0,1	3,085173
2,090833	0,1	3,102314
2,092500	0,1	3,113276
2,094167	0,1	3,118393
2,095833	0,1	2,995507
2,097500	0,1	3,067715
2,099167	0,1	3,019515
2,100833	0,1	3,021431
2,102500	0,1	2,929833
2,104167	0,1	3,007499
2,105833	0,1	2,975726
2,107500	0,1	2,973641
2,109167	0,1	2,919713
2,110833	0,1	2,916390
2,112500	0,1	2,914228
2,114167	0,1	2,888059
2,115833	0,1	2,863512
2,117500	0,1	2,810317
2,119167	0,1	2,860773
2,120833	0,1	2,837414
2,122500	0,1	2,829719
2,124167	0,1	2,813447
2,125833	0,1	2,808999
2,127500	0,1	2,802898
2,129167	0,1	2,739017
2,130833	0,1	2,717634
2,132500	0,1	2,728600
2,134167	0,1	2,712471
2,135833	0,1	2,690673
2,137500	0,1	2,707945
2,139167	0,1	2,713176
2,140833	0,1	2,618559
2,142500	0,1	2,610723
2,144167	0,1	2,643479
2,145833	0,1	2,623343
2,147500	0,1	2,602124
2,149167	0,1	2,607851
2,150833	0,1	2,546501
2,152500	0,1	2,545986
2,154167	0,1	2,539967
2,155833	0,1	2,503846
2,157500	0,1	2,480834
2,159167	0,1	2,480469
2,160833	0,1	2,504119
2,162500	0,1	2,443644
2,164167	0,1	2,439907
2,165833	0,1	2,394195
2,167500	0,1	2,421770
2,169167	0,1	2,397417
2,170833	0,1	2,347908
2,172500	0,1	2,372395
2,174167	0,1	2,338231
2,175833	0,1	2,321744
2,177500	0,1	2,327406
2,179167	0,1	2,249047
2,180833	0,1	2,260771
2,182500	0,1	2,249539
2,184167	0,1	2,286418
2,185833	0,1	2,208151
2,187500	0,1	2,200964
2,189167	0,1	2,201755
2,190833	0,1	2,216948
2,192500	0,1	2,207784
2,194167	0,1	2,156785
2,195833	0,1	2,149551
2,197500	0,1	2,132935
2,199167	0,1	2,125697
2,200833	0,1	2,094408
2,202500	0,1	2,102707
2,204167	0,1	2,038122
2,205833	0,1	2,011864
2,207500	0,1	2,041411
2,209167	0,1	1,987236
2,210833	0,1	2,010275
2,212500	0,1	1,963464
2,214167	0,1	1,984433
2,215833	0,1	1,940259
2,217500	0,1	1,947413
2,219167	0,1	1,927517
2,220833	0,1	1,963237
2,222500	0,1	1,886508
2,224167	0,1	1,889272
2,225833	0,1	1,871103
2,227500	0,1	1,800400
2,229167	0,1	1,841610
2,230833	0,1	1,844414
2,232500	0,1	1,821220
2,234167	0,1	1,786798
2,235833	0,1	1,797600
2,237500	0,1	1,804851
2,239167	0,1	1,759602
2,240833	0,1	1,738784
2,242500	0,1	1,759123
2,244167	0,1	1,705036
2,245833	0,1	1,706869
2,247500	0,1	1,693029
2,249167	0,1	1,717131
2,250833	0,1	1,638963
2,252500	0,1	1,605507
2,254167	0,1	1,654857
2,255833	0,1	1,637845
2,257500	0,1	1,626985
2,259167	0,1	1,639669
2,260833	0,1	1,568399
2,262500	0,1	1,551363
2,264167	0,1	1,519318
2,265833	0,1	1,563108
2,267500	0,1	1,538711
2,269167	0,1	1,521956
2,270833	0,1	1,508833
2,272500	0,1	1,520769
2,274167	0,1	1,507479
2,275833	0,1	1,476993
2,277500	0,1	1,444949
2,279167	0,1	1,462712
2,280833	0,1	1,446409
2,282500	0,1	1,420095
2,284167	0,1	1,417428
2,285833	0,1	1,406534
2,287500	0,1	1,397769
2,289167	0,1	1,370906
2,290833	0,1	1,374759
2,292500	0,1	1,371411
2,294167	0,1	1,336387
2,295833	0,1	1,335004
2,297500	0,1	1,329725
2,299167	0,1	1,330588
2,300833	0,1	1,291002
2,302500	0,1	1,296715
2,304167	0,1	1,272384
2,305833	0,1	1,239135
2,307500	0,1	1,242895
2,309167	0,1	1,282067
2,310833	0,1	1,241027
2,312500	0,1	1,237578
2,314167	0,1	1,230479
2,315833	0,1	1,245516
2,317500	0,1	1,215691
2,319167	0,1	1,184517
2,320833	0,1	1,217302
2,322500	0,1	1,199398
2,324167	0,1	1,190012
2,325833	0,1	1,172937
2,327500	0,1	1,223690
2,329167	0,1	1,171253
2,330833	0,1	1,166347
2,332500	0,1	1,161637
2,334167	0,1	1,160296
2,335833	0,1	1,149654
2,337500	0,1	1,127989
2,339167	0,1	1,134794
2,340833	0,1	1,105745
2,342500	0,1	1,075302
2,344167	0,1	1,059803
2,345833	0,1	1,109585
2,347500	0,1	1,066426
2,349167	0,1	1,053277
2,350833	0,1	1,107236
2,352500	0,1	1,062864
2,354167	0,1	1,039101
2,355833	0,1	1,064639
2,357500	0,1	1,026793
2,359167	0,1	1,049506
2,360833	0,1	1,003299
2,362500	0,1	1,006182
2,364167	0,1	1,049334
2,365833	0,1	0,976115
2,367500	0,1	1,028506
2,369167	0,1	1,021609
2,370833	0,1	1,029768
2,372500	0,1	0,997797
2,374167	0,1	1,010898
2,375833	0,1	0,984202
2,377500	0,1	0,969120
2,379167	0,1	0,951575
2,380833	0,1	0,942670
2,382500	0,1	0,950412
2,384167	0,1	0,910798
2,385833	0,1	0,927334
2,387500	0,1	0,943630
2,389167	0,1	0,961111
2,390833	0,1	0,944117
2,392500	0,1	0,946683
2,394167	0,1	0,898588
2,395833	0,1	0,962450
2,397500	0,1	0,912116
2,399167	0,1	0,884538
2,400833	0,1	0,901015
2,402500	0,1	0,916728
2,404167	0,1	0,883512
2,405833	0,1	0,884725
2,407500	0,1	0,875635
2,409167	0,1	0,857352
2,410833	0,1	0,863677
2,412500	0,1	0,854779
2,414167	0,1	0,841381
2,415833	0,1	0,828785
2,417500	0,1	0,854899
2,419167	0,1	0,847324
2,420833	0,1	0,840191
2,422500	0,1	0,802572
2,424167	0,1	0,841207
2,425833	0,1	0,817253
2,427500	0,1	0,801122
2,429167	0,1	0,805683
2,430833	0,1	0,806259
2,432500	0,1	0,796658
2,434167	0,1	0,806324
2,435833	0,1	0,813229
2,437500	0,1	0,802637
2,439167	0,1	0,771117
2,440833	0,1	0,790740
2,442500	0,1	0,754286
2,444167	0,1	0,769538
2,445833	0,1	0,789779
2,447500	0,1	0,726475
2,449167	0,1	0,734937
2,450833	0,1	0,769788
2,452500	0,1	0,742916
2,454167	0,1	0,769281
2,455833	0,1	0,717634
2,457500	0,1	0,767503
2,459167	0,1	0,682216
2,460833	0,1	0,718036
2,462500	0,1	0,756231
2,464167	0,1	0,704729
2,465833	0,1	0,718974
2,467500	0,1	0,695919
2,469167	0,1	0,681839
2,470833	0,1	0,710780
2,472500	0,1	0,684835
2,474167	0,1	0,701599
2,475833	0,1	0,698066
2,477500	0,1	0,729376
2,479167	0,1	0,700616
2,480833	0,1	0,661298
2,482500	0,1	0,671627
2,484167	0,1	0,689865
2,485833	0,1	0,678408
2,487500	0,1	0,660423
2,489167	0,1	0,652108
2,490833	0,1	0,668259
2,492500	0,1	0,671085
2,494167	0,1	0,635277
2,495833	0,1	0,653449
2,497500	0,1	0,645432
2,499167	0,1	0,646602
2,500833	0,1	0,680713
2,502500	0,1	0,630468
2,504167	0,1	0,636878
2,505833	0,1	0,660992
2,507500	0,1	0,624531
2,509167	0,1	0,603032
2,510833	0,1	0,672489
2,512500	0,1	0,639657
2,514167	0,1	0,605187
2,515833	0,1	0,593597
2,517500	0,1	0,638480
2,519167	0,1	0,621051
2,520833	0,1	0,640890
2,522500	0,1	0,619566
2,524167	0,1	0,609968
2,525833	0,1	0,594618
2,527500	0,1	0,629880
2,529167	0,1	0,622775
2,530833	0,1	0,613947
2,532500	0,1	0,632063
2,534167	0,1	0,580206
2,535833	0,1	0,606595
2,537500	0,1	0,591532
2,539167	0,1	0,593227
2,540833	0,1	0,617742
2,542500	0,1	0,628022
2,544167	0,1	0,619575
2,545833	0,1	0,623615
2,547500	0,1	0,591762
2,549167	0,1	0,595544
2,550833	0,1	0,612492
2,552500	0,1	0,624508
2,554167	0,1	0,607941
2,555833	0,1	0,599727
2,557500	0,1	0,605657
2,559167	0,1	0,612596
2,560833	0,1	0,632189
2,562500	0,1	0,606949
2,564167	0,1	0,606727
2,565833	0,1	0,580037
2,567500	0,1	0,599558
2,569167	0,1	0,646134
2,570833	0,1	0,601021
2,572500	0,1	0,621747
2,574167	0,1	0,610358
2,575833	0,1	0,611097
2,577500	0,1	0,633788
2,579167	0,1	0,654354
2,580833	0,1	0,646036
2,582500	0,1	0,631354
2,584167	0,1	0,617613
2,585833	0,1	0,648269
2,587500	0,1	0,627060
2,589167	0,1	0,645036
2,590833	0,1	0,613788
2,592500	0,1	0,679429
2,594167	0,1	0,672887
2,595833	0,1	0,623655
2,597500	0,1	0,642944
2,599167	0,1	0,644008
2,600833	0,1	0,699501
2,602500	0,1	0,658729
2,604167	0,1	0,687138
2,605833	0,1	0,644397
2,607500	0,1	0,673205
2,609167	0,1	0,683389
2,610833	0,1	0,705093
2,612500	0,1	0,676295
2,614167	0,1	0,681852
2,615833	0,1	0,685289
2,617500	0,1	0,658055
2,619167	0,1	0,670051
2,620833	0,1	0,685214
2,622500	0,1	0,659466
2,624167	0,1	0,703321
2,625833	0,1	0,681207
2,627500	0,1	0,717557
2,629167	0,1	0,716344
2,630833	0,1	0,690942
2,632500	0,1	0,677740
2,634167	0,1	0,691123
2,635833	0,1	0,724404
2,637500	0,1	0,705969
2,639167	0,1	0,723949
2,640833	0,1	0,671253
2,642500	0,1	0,710072
2,644167	0,1	0,722250
2,645833	0,1	0,703564
2,647500	0,1	0,701270
2,649167	0,1	0,718204
2,650833	0,1	0,709116
2,652500	0,1	0,712806
2,654167	0,1	0,698838
2,655833	0,1	0,695949
2,657500	0,1	0,682164
2,659167	0,1	0,681228
2,660833	0,1	0,707315
2,662500	0,1	0,652698
2,664167	0,1	0,713533
2,665833	0,1	0,689360
2,667500	0,1	0,690330
2,669167	0,1	0,711036
2,670833	0,1	0,693158
2,672500	0,1	0,682616
2,674167	0,1	0,666042
2,675833	0,1	0,677471
2,677500	0,1	0,687044
2,679167	0,1	0,649570
2,680833	0,1	0,665427
2,682500	0,1	0,690578
2,684167	0,1	0,694049
2,685833	0,1	0,680373
2,687500	0,1	0,628415
2,689167	0,1	0,637671
2,690833	0,1	0,677888
2,692500	0,1	0,638009
2,694167	0,1	0,695284
2,695833	0,1	0,644182
2,697500	0,1	0,653904
2,699167	0,1	0,650043
2,700833	0,1	0,651653
2,702500	0,1	0,713476
2,704167	0,1	0,660694
2,705833	0,1	0,656666
2,707500	0,1	0,635210
2,709167	0,1	0,651196
2,710833	0,1	0,640382
2,712500	0,1	0,658740
2,714167	0,1	0,634884
2,715833	0,1	0,658713
2,717500	0,1	0,670314
2,719167	0,1	0,657472
2,720833	0,1	0,650658
2,722500	0,1	0,631682
2,724167	0,1	0,653512
2,725833	0,1	0,674229
2,727500	0,1	0,656442
2,729167	0,1	0,663340
2,730833	0,1	0,662229
2,732500	0,1	0,628825
2,734167	0,1	0,666969
2,735833	0,1	0,622468
2,737500	0,1	0,638350
2,739167	0,1	0,607050
2,740833	0,1	0,623903
2,742500	0,1	0,655373
2,744167	0,1	0,595019
2,745833	0,1	0,630157
2,747500	0,1	0,659200
2,749167	0,1	0,648317
2,750833	0,1	0,642409
2,752500	0,1	0,598730
2,754167	0,1	0,673320
2,755833	0,1	0,638271
2,757500	0,1	0,656019
2,759167	0,1	0,633736
2,760833	0,1	0,631288
2,762500	0,1	0,665486
2,764167	0,1	0,651140
2,765833	0,1	0,646477
2,767500	0,1	0,650936
2,769167	0,1	0,631202
2,770833	0,1	0,654417
2,772500	0,1	0,649853
2,774167	0,1	0,667869
2,775833	0,1	0,653320
2,777500	0,1	0,680968
2,779167	0,1	0,684764
2,780833	0,1	0,635895
2,782500	0,1	0,666999
2,784167	0,1	0,655310
2,785833	0,1	0,657949
2,787500	0,1	0,670667
2,789167	0,1	0,686562
2,790833	0,1	0,661709
2,792500	0,1	0,711835
2,794167	0,1	0,713999
2,795833	0,1	0,742006
2,797500	0,1	0,671609
2,799167	0,1	0,696622
2,800833	0,1	0,666144
2,802500	0,1	0,657977
2,804167	0,1	0,661414
2,805833	0,1	0,682680
2,807500	0,1	0,712998
2,809167	0,1	0,719103
2,810833	0,1	0,712074
2,812500	0,1	0,722666
2,814167	0,1	0,683971
2,815833	0,1	0,711613
2,817500	0,1	0,727580
2,819167	0,1	0,740175
2,820833	0,1	0,704237
2,822500	0,1	0,704228
2,824167	0,1	0,723406
2,825833	0,1	0,720163
2,827500	0,1	0,711207
2,829167	0,1	0,728546
2,830833	0,1	0,734649
2,832500	0,1	0,762628
2,834167	0,1	0,709578
2,835833	0,1	0,728610
2,837500	0,1	0,699648
2,839167	0,1	0,693400
2,840833	0,1	0,687817
2,842500	0,1	0,735252
2,844167	0,1	0,708190
2,845833	0,1	0,733266
2,847500	0,1	0,697107
2,849167	0,1	0,709021
2,850833	0,1	0,669902
2,852500	0,1	0,723398
2,854167	0,1	0,690465
2,855833	0,1	0,737243
2,857500	0,1	0,662980
2,859167	0,1	0,697288
2,860833	0,1	0,698843
2,862500	0,1	0,667881
2,864167	0,1	0,672596
2,865833	0,1	0,697227
2,867500	0,1	0,639309
2,869167	0,1	0,634764
2,870833	0,1	0,641890
2,872500	0,1	0,646766
2,874167	0,1	0,635496
2,875833	0,1	0,648385
2,877500	0,1	0,654673
2,879167	0,1	0,633220
2,880833	0,1	0,623582
2,882500	0,1	0,595527
2,884167	0,1	0,633785
2,885833	0,1	0,602770
2,887500	0,1	0,617933
2,889167	0,1	0,593624
2,890833	0,1	0,595583
2,892500	0,1	0,561993
2,894167	0,1	0,562602
2,895833	0,1	0,577409
2,897500	0,1	0,583857
2,899167	0,1	0,563186
2,900833	0,1	0,570988
2,902500	0,1	0,584020
2,904167	0,1	0,558466
2,905833	0,1	0,514678
2,907500	0,1	0,494562
2,909167	0,1	0,569787
2,910833	0,1	0,507352
2,912500	0,1	0,511064
2,914167	0,1	0,544815
2,915833	0,1	0,487796
2,917500	0,1	0,484180
2,919167	0,1	0,490203
2,920833	0,1	0,500726
2,922500	0,1	0,473891
2,924167	0,1	0,491835
2,925833	0,1	0,489851
2,927500	0,1	0,463594
2,929167	0,1	0,479369
2,930833	0,1	0,467199
2,932500	0,1	0,457835
2,934167	0,1	0,448329
2,935833	0,1	0,429876
2,937500	0,1	0,428856
2,939167	0,1	0,425152
2,940833	0,1	0,444551
2,942500	0,1	0,469878
2,944167	0,1	0,458228
2,945833	0,1	0,465575
2,947500	0,1	0,462822
2,949167	0,1	0,446797
2,950833	0,1	0,427039
2,952500	0,1	0,396867
2,954167	0,1	0,383196
2,955833	0,1	0,418700
2,957500	0,1	0,360158
2,959167	0,1	0,418923
2,960833	0,1	0,411379
2,962500	0,1	0,400404
2,964167	0,1	0,411811
2,965833	0,1	0,410261
2,967500	0,1	0,406803
2,969167	0,1	0,393219
2,970833	0,1	0,372988
2,972500	0,1	0,372735
2,974167	0,1	0,386917
2,975833	0,1	0,375535
2,977500	0,1	0,384952
2,979167	0,1	0,369011
2,980833	0,1	0,387186
2,982500	0,1	0,354542
2,984167	0,1	0,352318
2,985833	0,1	0,377245
2,987500	0,1	0,323013
2,989167	0,1	0,369186
2,990833	0,1	0,392031
2,992500	0,1	0,352575
2,994167	0,1	0,371261
2,995833	0,1	0,348577
2,997500	0,1	0,349855
2,999167	0,1	0,381572
3,000833	0,1	0,372490
3,002500	0,1	0,375987
3,004167	0,1	0,378493
3,005833	0,1	0,412425
3,007500	0,1	0,333783
3,009167	0,1	0,327409
3,010833	0,1	0,359353
3,012500	0,1	0,373851
3,014167	0,1	0,355802
3,015833	0,1	0,352215
3,017500	0,1	0,372464
3,019167	0,1	0,345493
3,020833	0,1	0,348177
3,022500	0,1	0,347762
3,024167	0,1	0,358672
3,025833	0,1	0,371160
3,027500	0,1	0,359487
3,029167	0,1	0,373935
3,030833	0,1	0,380294
3,032500	0,1	0,377561
3,034167	0,1	0,367646
3,035833	0,1	0,379403
3,037500	0,1	0,351726
3,039167	0,1	0,376479
3,040833	0,1	0,381535
3,042500	0,1	0,390853
3,044167	0,1	0,409241
3,045833	0,1	0,395352
3,047500	0,1	0,380712
3,049167	0,1	0,406547
3,050833	0,1	0,385353
3,052500	0,1	0,340898
3,054167	0,1	0,406950
3,055833	0,1	0,383427
3,057500	0,1	0,377977
3,059167	0,1	0,380376
3,060833	0,1	0,352453
3,062500	0,1	0,388694
3,064167	0,1	0,400005
3,065833	0,1	0,363035
3,067500	0,1	0,365921
3,069167	0,1	0,391327
3,070833	0,1	0,392824
3,072500	0,1	0,413797
3,074167	0,1	0,384815
3,075833	0,1	0,368019
3,077500	0,1	0,381121
3,079167	0,1	0,343940
3,080833	0,1	0,365235
3,082500	0,1	0,379815
3,084167	0,1	0,351953
3,085833	0,1	0,352361
3,087500	0,1	0,345882
3,089167	0,1	0,325716
3,090833	0,1	0,336250
3,092500	0,1	0,353226
3,094167	0,1	0,366626
3,095833	0,1	0,369838
3,097500	0,1	0,361909
3,099167	0,1	0,310089
3,100833	0,1	0,349475
3,102500	0,1	0,345240
3,104167	0,1	0,344824
3,105833	0,1	0,366045
3,107500	0,1	0,342159
3,109167	0,1	0,318636
3,110833	0,1	0,358936
3,112500	0,1	0,317562
3,114167	0,1	0,365396
3,115833	0,1	0,336777
3,117500	0,1	0,326250
3,119167	0,1	0,332129
3,120833	0,1	0,332110
3,122500	0,1	0,300527
3,124167	0,1	0,333800
3,125833	0,1	0,328428
3,127500	0,1	0,350701
3,129167	0,1	0,299074
3,130833	0,1	0,309396
3,132500	0,1	0,290395
3,134167	0,1	0,336530
3,135833	0,1	0,346871
3,137500	0,1	0,285044
3,139167	0,1	0,292191
3,140833	0,1	0,296914
3,142500	0,1	0,286753
3,144167	0,1	0,288341
3,145833	0,1	0,297510
3,147500	0,1	0,295570
3,149167	0,1	0,276444
3,150833	0,1	0,292603
3,152500	0,1	0,273462
3,154167	0,1	0,261943
3,155833	0,1	0,268963
3,157500	0,1	0,270206
3,159167	0,1	0,286334
3,160833	0,1	0,264355
3,162500	0,1	0,255570
3,164167	0,1	0,273868
3,165833	0,1	0,270602
3,167500	0,1	0,293347
3,169167	0,1	0,251313
3,170833	0,1	0,227169
3,172500	0,1	0,253802
3,174167	0,1	0,228514
3,175833	0,1	0,263242
3,177500	0,1	0,215043
3,179167	0,1	0,218927
3,180833	0,1	0,236204
3,182500	0,1	0,253989
3,184167	0,1	0,236118
3,185833	0,1	0,282723
3,187500	0,1	0,241549
3,189167	0,1	0,229779
3,190833	0,1	0,219493
3,192500	0,1	0,232383
3,194167	0,1	0,226569
3,195833	0,1	0,227191
3,197500	0,1	0,241244
3,199167	0,1	0,251319
3,200833	0,1	0,223639
3,202500	0,1	0,204357
3,204167	0,1	0,207528
3,205833	0,1	0,219794
3,207500	0,1	0,240005
3,209167	0,1	0,246441
3,210833	0,1	0,188827
3,212500	0,1	0,202285
3,214167	0,1	0,251794
3,215833	0,1	0,220965
3,217500	0,1	0,211169
3,219167	0,1	0,202520
3,220833	0,1	0,215699
3,222500	0,1	0,212969
3,224167	0,1	0,180007
3,225833	0,1	0,213786
3,227500	0,1	0,199894
3,229167	0,1	0,198255
3,230833	0,1	0,221673
3,232500	0,1	0,184928
3,234167	0,1	0,170790
3,235833	0,1	0,168756
3,237500	0,1	0,209672
3,239167	0,1	0,202001
3,240833	0,1	0,184556
3,242500	0,1	0,194174
3,244167	0,1	0,153900
3,245833	0,1	0,218253
3,247500	0,1	0,181689
3,249167	0,1	0,175982
3,250833	0,1	0,187924
3,252500	0,1	0,201124
3,254167	0,1	0,157933
3,255833	0,1	0,219706
3,257500	0,1	0,208952
3,259167	0,1	0,183336
3,260833	0,1	0,211906
3,262500	0,1	0,177899
3,264167	0,1	0,194004
3,265833	0,1	0,190373
3,267500	0,1	0,210654
3,269167	0,1	0,165603
3,270833	0,1	0,193100
3,272500	0,1	0,143973
3,274167	0,1	0,229129
3,275833	0,1	0,174941
3,277500	0,1	0,174697
3,279167	0,1	0,167994
3,280833	0,1	0,167809
3,282500	0,1	0,198644
3,284167	0,1	0,199660
3,285833	0,1	0,199555
3,287500	0,1	0,151947
3,289167	0,1	0,192592
3,290833	0,1	0,202408
3,292500	0,1	0,178203
3,294167	0,1	0,185909
3,295833	0,1	0,179146
3,297500	0,1	0,181571
3,299167	0,1	0,180000
3,300833	0,1	0,176853
3,302500	0,1	0,194523
3,304167	0,1	0,176504
3,305833	0,1	0,196158
3,307500	0,1	0,199064
3,309167	0,1	0,165648
3,310833	0,1	0,175459
3,312500	0,1	0,170024
3,314167	0,1	0,173199
3,315833	0,1	0,152720
3,317500	0,1	0,136403
3,319167	0,1	0,169450
3,320833	0,1	0,180700
3,322500	0,1	0,169522
3,324167	0,1	0,197959
3,325833	0,1	0,189626
3,327500	0,1	0,152449
3,329167	0,1	0,187979
3,330833	0,1	0,175053
3,332500	0,1	0,221801
3,334167	0,1	0,175580
3,335833	0,1	0,173659
3,337500	0,1	0,202817
3,339167	0,1	0,221044
3,340833	0,1	0,176130
3,342500	0,1	0,172087
3,344167	0,1	0,164725
3,345833	0,1	0,175994
3,347500	0,1	0,127092
3,349167	0,1	0,187623
3,350833	0,1	0,206378
3,352500	0,1	0,150634
3,354167	0,1	0,185810
3,355833	0,1	0,159657
3,357500	0,1	0,155847
3,359167	0,1	0,213150
3,360833	0,1	0,168674
3,362500	0,1	0,198661
3,364167	0,1	0,189932
3,365833	0,1	0,143010
3,367500	0,1	0,188008
3,369167	0,1	0,203340
3,370833	0,1	0,188572
3,372500	0,1	0,167705
3,374167	0,1	0,163852
3,375833	0,1	0,190046
3,377500	0,1	0,217682
3,379167	0,1	0,172799
3,380833	0,1	0,186260
3,382500	0,1	0,194586
3,384167	0,1	0,201003
3,385833	0,1	0,204976
3,387500	0,1	0,184113
3,389167	0,1	0,206118
3,390833	0,1	0,168367
3,392500	0,1	0,245537
3,394167	0,1	0,206667
3,395833	0,1	0,236229
3,397500	0,1	0,235321
3,399167	0,1	0,168833
3,400833	0,1	0,185510
3,402500	0,1	0,202820
3,404167	0,1	0,200319
3,405833	0,1	0,207376
3,407500	0,1	0,239394
3,409167	0,1	0,222000
3,410833	0,1	0,212787
3,412500	0,1	0,221064
3,414167	0,1	0,208113
3,415833	0,1	0,195874
3,417500	0,1	0,239268
3,419167	0,1	0,182472
3,420833	0,1	0,192080
3,422500	0,1	0,191366
3,424167	0,1	0,214643
3,425833	0,1	0,198412
3,427500	0,1	0,224925
3,429167	0,1	0,168447
3,430833	0,1	0,214638
3,432500	0,1	0,177625
3,434167	0,1	0,254248
3,435833	0,1	0,226145
3,437500	0,1	0,222991
3,439167	0,1	0,269745
3,440833	0,1	0,151108
3,442500	0,1	0,188468
3,444167	0,1	0,221898
3,445833	0,1	0,204004
3,447500	0,1	0,187367
3,449167	0,1	0,234441
3,450833	0,1	0,196294
3,452500	0,1	0,211848
3,454167	0,1	0,211776
3,455833	0,1	0,219629
3,457500	0,1	0,215703
3,459167	0,1	0,232750
3,460833	0,1	0,244241
3,462500	0,1	0,229260
3,464167	0,1	0,217997
3,465833	0,1	0,213443
3,467500	0,1	0,228611
3,469167	0,1	0,244452
3,470833	0,1	0,207967
3,472500	0,1	0,225842
3,474167	0,1	0,195879
3,475833	0,1	0,212172
3,477500	0,1	0,265209
3,479167	0,1	0,203755
3,480833	0,1	0,253385
3,482500	0,1	0,234362
3,484167	0,1	0,197455
3,485833	0,1	0,200485
3,487500	0,1	0,213027
3,489167	0,1	0,235985
3,490833	0,1	0,194324
3,492500	0,1	0,218187
3,494167	0,1	0,259682
3,495833	0,1	0,224070
3,497500	0,1	0,235242
3,499167	0,1	0,197181
3,500833	0,1	0,196866
3,502500	0,1	0,220112
3,504167	0,1	0,236233
3,505833	0,1	0,213616
3,507500	0,1	0,236995
3,509167	0,1	0,218853
3,510833	0,1	0,233226
3,512500	0,1	0,224046
3,514167	0,1	0,226855
3,515833	0,1	0,193680
3,517500	0,1	0,220663
3,519167	0,1	0,251050
3,520833	0,1	0,248703
3,522500	0,1	0,220827
3,524167	0,1	0,223877
3,525833	0,1	0,224397
3,527500	0,1	0,230063
3,529167	0,1	0,216927
3,530833	0,1	0,217872
3,532500	0,1	0,221264
3,534167	0,1	0,253328
3,535833	0,1	0,213436
3,537500	0,1	0,237821
3,539167	0,1	0,226675
3,540833	0,1	0,247018
3,542500	0,1	0,216016
3,544167	0,1	0,261649
3,545833	0,1	0,228562
3,547500	0,1	0,207444
3,549167	0,1	0,235649
3,550833	0,1	0,244868
3,552500	0,1	0,187560
3,554167	0,1	0,250904
3,555833	0,1	0,231749
3,557500	0,1	0,236174
3,559167	0,1	0,213371
3,560833	0,1	0,240740
3,562500	0,1	0,246291
3,564167	0,1	0,259900
3,565833	0,1	0,218631
3,567500	0,1	0,210632
3,569167	0,1	0,209805
3,570833	0,1	0,249810
3,572500	0,1	0,206411
3,574167	0,1	0,242356
3,575833	0,1	0,237398
3,577500	0,1	0,216868
3,579167	0,1	0,182222
3,580833	0,1	0,229396
3,582500	0,1	0,204922
3,584167	0,1	0,239421
3,585833	0,1	0,219802
3,587500	0,1	0,217811
3,589167	0,1	0,249416
3,590833	0,1	0,206685
3,592500	0,1	0,237804
3,594167	0,1	0,212578
3,595833	0,1	0,257464
3,597500	0,1	0,240778
3,599167	0,1	0,240728
3,600833	0,1	0,228416
3,602500	0,1	0,229239
3,604167	0,1	0,227772
3,605833	0,1	0,228827
3,607500	0,1	0,238451
3,609167	0,1	0,240270
3,610833	0,1	0,182153
3,612500	0,1	0,202575
3,614167	0,1	0,237864
3,615833	0,1	0,200847
3,617500	0,1	0,233846
3,619167	0,1	0,220824
3,620833	0,1	0,256640
3,622500	0,1	0,235372
3,624167	0,1	0,205643
3,625833	0,1	0,232794
3,627500	0,1	0,221587
3,629167	0,1	0,197849
3,630833	0,1	0,208306
3,632500	0,1	0,215563
3,634167	0,1	0,191464
3,635833	0,1	0,217102
3,637500	0,1	0,223797
3,639167	0,1	0,202004
3,640833	0,1	0,196698
3,642500	0,1	0,221305
3,644167	0,1	0,232156
3,645833	0,1	0,215767
3,647500	0,1	0,237806
3,649167	0,1	0,191788
3,650833	0,1	0,199553
3,652500	0,1	0,238778
3,654167	0,1	0,211858
3,655833	0,1	0,174187
3,657500	0,1	0,244958
3,659167	0,1	0,231765
3,660833	0,1	0,213554
3,662500	0,1	0,217460
3,664167	0,1	0,220607
3,665833	0,1	0,222821
3,667500	0,1	0,243871
3,669167	0,1	0,193072
3,670833	0,1	0,218933
3,672500	0,1	0,218665
3,674167	0,1	0,230750
3,675833	0,1	0,234540
3,677500	0,1	0,197455
3,679167	0,1	0,213834
3,680833	0,1	0,157692
3,682500	0,1	0,217061
3,684167	0,1	0,218008
3,685833	0,1	0,216038
3,687500	0,1	0,218895
3,689167	0,1	0,202980
3,690833	0,1	0,223444
3,692500	0,1	0,214528
3,694167	0,1	0,264276
3,695833	0,1	0,229337
3,697500	0,1	0,199959
3,699167	0,1	0,231967
3,700833	0,1	0,223923
3,702500	0,1	0,216240
3,704167	0,1	0,262932
3,705833	0,1	0,241526
3,707500	0,1	0,242822
3,709167	0,1	0,253499
3,710833	0,1	0,227885
3,712500	0,1	0,254244
3,714167	0,1	0,234684
3,715833	0,1	0,196294
3,717500	0,1	0,258928
3,719167	0,1	0,203876
3,720833	0,1	0,255433
3,722500	0,1	0,289099
3,724167	0,1	0,242637
3,725833	0,1	0,245388
3,727500	0,1	0,247084
3,729167	0,1	0,281837
3,730833	0,1	0,253895
3,732500	0,1	0,266791
3,734167	0,1	0,289743
3,735833	0,1	0,288757
3,737500	0,1	0,319581
3,739167	0,1	0,270736
3,740833	0,1	0,271928
3,742500	0,1	0,316719
3,744167	0,1	0,300812
3,745833	0,1	0,253101
3,747500	0,1	0,349361
3,749167	0,1	0,291565
3,750833	0,1	0,319908
3,752500	0,1	0,371690
3,754167	0,1	0,360005
3,755833	0,1	0,344765
3,757500	0,1	0,321186
3,759167	0,1	0,330120
3,760833	0,1	0,352088
3,762500	0,1	0,342612
3,764167	0,1	0,366851
3,765833	0,1	0,323838
3,767500	0,1	0,353927
3,769167	0,1	0,400101
3,770833	0,1	0,356741
3,772500	0,1	0,426955
3,774167	0,1	0,419890
3,775833	0,1	0,384569
3,777500	0,1	0,396444
3,779167	0,1	0,378455
3,780833	0,1	0,416318
3,782500	0,1	0,424072
3,784167	0,1	0,460057
3,785833	0,1	0,422652
3,787500	0,1	0,430076
3,789167	0,1	0,427926
3,790833	0,1	0,405130
3,792500	0,1	0,439824
3,794167	0,1	0,423746
3,795833	0,1	0,437552
3,797500	0,1	0,433498
3,799167	0,1	0,452482
3,800833	0,1	0,454248
3,802500	0,1	0,465472
3,804167	0,1	0,451723
3,805833	0,1	0,465285
3,807500	0,1	0,446112
3,809167	0,1	0,450889
3,810833	0,1	0,486218
3,812500	0,1	0,473451
3,814167	0,1	0,487716
3,815833	0,1	0,464940
3,817500	0,1	0,496305
3,819167	0,1	0,454092
3,820833	0,1	0,491126
3,822500	0,1	0,502418
3,824167	0,1	0,492775
3,825833	0,1	0,493828
3,827500	0,1	0,483723
3,829167	0,1	0,520100
3,830833	0,1	0,478758
3,832500	0,1	0,491281
3,834167	0,1	0,457797
3,835833	0,1	0,504420
3,837500	0,1	0,482213
3,839167	0,1	0,480799
3,840833	0,1	0,463922
3,842500	0,1	0,491895
3,844167	0,1	0,503019
3,845833	0,1	0,507290
3,847500	0,1	0,492197
3,849167	0,1	0,480781
3,850833	0,1	0,449120
3,852500	0,1	0,521212
3,854167	0,1	0,468550
3,855833	0,1	0,465453
3,857500	0,1	0,501128
3,859167	0,1	0,475006
3,860833	0,1	0,468892
3,862500	0,1	0,495231
3,864167	0,1	0,475691
3,865833	0,1	0,474958
3,867500	0,1	0,455308
3,869167	0,1	0,460792
3,870833	0,1	0,424122
3,872500	0,1	0,444073
3,874167	0,1	0,465345
3,875833	0,1	0,425678
3,877500	0,1	0,443392
3,879167	0,1	0,406935
3,880833	0,1	0,438479
3,882500	0,1	0,430515
3,884167	0,1	0,436290
3,885833	0,1	0,427201
3,887500	0,1	0,431878
3,889167	0,1	0,415856
3,890833	0,1	0,416720
3,892500	0,1	0,419619
3,894167	0,1	0,404755
3,895833	0,1	0,458150
3,897500	0,1	0,408387
3,899167	0,1	0,410486
3,900833	0,1	0,394835
3,902500	0,1	0,397978
3,904167	0,1	0,410815
3,905833	0,1	0,417236
3,907500	0,1	0,391752
3,909167	0,1	0,412532
3,910833	0,1	0,400363
3,912500	0,1	0,406323
3,914167	0,1	0,399410
3,915833	0,1	0,367090
3,917500	0,1	0,364952
3,919167	0,1	0,385944
3,920833	0,1	0,358517
3,922500	0,1	0,353541
3,924167	0,1	0,370124
3,925833	0,1	0,341041
3,927500	0,1	0,396806
3,929167	0,1	0,353655
3,930833	0,1	0,341723
3,932500	0,1	0,332260
3,934167	0,1	0,331345
3,935833	0,1	0,377779
3,937500	0,1	0,328085
3,939167	0,1	0,318159
3,940833	0,1	0,321945
3,942500	0,1	0,314905
3,944167	0,1	0,301904
3,945833	0,1	0,285243
3,947500	0,1	0,273084
3,949167	0,1	0,343399
3,950833	0,1	0,349772
3,952500	0,1	0,276104
3,954167	0,1	0,332553
3,955833	0,1	0,279968
3,957500	0,1	0,287303
3,959167	0,1	0,281909
3,960833	0,1	0,283453
3,962500	0,1	0,307739
3,964167	0,1	0,280173
3,965833	0,1	0,295319
3,967500	0,1	0,245708
3,969167	0,1	0,285995
3,970833	0,1	0,265015
3,972500	0,1	0,322845
3,974167	0,1	0,254908
3,975833	0,1	0,262361
3,977500	0,1	0,285004
3,979167	0,1	0,270763
3,980833	0,1	0,276788
3,982500	0,1	0,264871
3,984167	0,1	0,286790
3,985833	0,1	0,225053
3,987500	0,1	0,244681
3,989167	0,1	0,238516
3,990833	0,1	0,238039
3,992500	0,1	0,241308
3,994167	0,1	0,222354
3,995833	0,1	0,217462
3,997500	0,1	0,231925
3,999167	0,1	0,246623
4,000833	0,1	0,306693
4,002500	0,1	0,259976
4,004167	0,1	0,227963
4,005833	0,1	0,239716
4,007500	0,1	0,255100
4,009167	0,1	0,263874
4,010833	0,1	0,224634
4,012500	0,1	0,246729
4,014167	0,1	0,245924
4,015833	0,1	0,236730
4,017500	0,1	0,213465
4,019167	0,1	0,265594
4,020833	0,1	0,256774
4,022500	0,1	0,231170
4,024167	0,1	0,224766
4,025833	0,1	0,255235
4,027500	0,1	0,291859
4,029167	0,1	0,276320
4,030833	0,1	0,258562
4,032500	0,1	0,272154
4,034167	0,1	0,281403
4,035833	0,1	0,240861
4,037500	0,1	0,278460
4,039167	0,1	0,302402
4,040833	0,1	0,266575
4,042500	0,1	0,270082
4,044167	0,1	0,278133
4,045833	0,1	0,274392
4,047500	0,1	0,311544
4,049167	0,1	0,294184
4,050833	0,1	0,301591
4,052500	0,1	0,278616
4,054167	0,1	0,306306
4,055833	0,1	0,318257
4,057500	0,1	0,311054
4,059167	0,1	0,342169
4,060833	0,1	0,307131
4,062500	0,1	0,341774
4,064167	0,1	0,332112
4,065833	0,1	0,331073
4,067500	0,1	0,359727
4,069167	0,1	0,334580
4,070833	0,1	0,351115
4,072500	0,1	0,372627
4,074167	0,1	0,382715
4,075833	0,1	0,365886
4,077500	0,1	0,383210
4,079167	0,1	0,413317
4,080833	0,1	0,455772
4,082500	0,1	0,425715
4,084167	0,1	0,423658
4,085833	0,1	0,452378
4,087500	0,1	0,431576
4,089167	0,1	0,423018
4,090833	0,1	0,463971
4,092500	0,1	0,503099
4,094167	0,1	0,476703
4,095833	0,1	0,500927
4,097500	0,1	0,523048
4,099167	0,1	0,516242
4,100833	0,1	0,537529
4,102500	0,1	0,527221
4,104167	0,1	0,568574
4,105833	0,1	0,623677
4,107500	0,1	0,564543
4,109167	0,1	0,605370
4,110833	0,1	0,622945
4,112500	0,1	0,627759
4,114167	0,1	0,635818
4,115833	0,1	0,659492
4,117500	0,1	0,681649
4,119167	0,1	0,690781
4,120833	0,1	0,700126
4,122500	0,1	0,754015
4,124167	0,1	0,711305
4,125833	0,1	0,701344
4,127500	0,1	0,698835
4,129167	0,1	0,780350
4,130833	0,1	0,771280
4,132500	0,1	0,776705
4,134167	0,1	0,735210
4,135833	0,1	0,794295
4,137500	0,1	0,786381
4,139167	0,1	0,843102
4,140833	0,1	0,832323
4,142500	0,1	0,857890
4,144167	0,1	0,886839
4,145833	0,1	0,875795
4,147500	0,1	0,854430
4,149167	0,1	0,889023
4,150833	0,1	0,937351
4,152500	0,1	0,910439
4,154167	0,1	0,910625
4,155833	0,1	0,943879
4,157500	0,1	0,924033
4,159167	0,1	0,951239
4,160833	0,1	0,947005
4,162500	0,1	0,961690
4,164167	0,1	0,951957
4,165833	0,1	0,947199
4,167500	0,1	1,005327
4,169167	0,1	0,998624
4,170833	0,1	0,999809
4,172500	0,1	1,012409
4,174167	0,1	1,016463
4,175833	0,1	1,004830
4,177500	0,1	1,012670
4,179167	0,1	1,025554
4,180833	0,1	1,053585
4,182500	0,1	1,042436
4,184167	0,1	1,064865
4,185833	0,1	1,016380
4,187500	0,1	1,055309
4,189167	0,1	1,047065
4,190833	0,1	1,057310
4,192500	0,1	1,077919
4,194167	0,1	1,120537
4,195833	0,1	1,102193
4,197500	0,1	1,083194
4,199167	0,1	1,052696
4,200833	0,1	1,083478
4,202500	0,1	1,099621
4,204167	0,1	1,057908
4,205833	0,1	1,036983
4,207500	0,1	1,054997
4,209167	0,1	1,097073
4,210833	0,1	1,086415
4,212500	0,1	1,081718
4,214167	0,1	1,094339
4,215833	0,1	1,071925
4,217500	0,1	1,115784
4,219167	0,1	1,064369
4,220833	0,1	1,087981
4,222500	0,1	1,055782
4,224167	0,1	1,090197
4,225833	0,1	1,064138
4,227500	0,1	1,092380
4,229167	0,1	1,066255
4,230833	0,1	1,076766
4,232500	0,1	1,064843
4,234167	0,1	1,072171
4,235833	0,1	1,046615
4,237500	0,1	1,072736
4,239167	0,1	1,042895
4,240833	0,1	1,024082
4,242500	0,1	1,054446
4,244167	0,1	1,068984
4,245833	0,1	1,052686
4,247500	0,1	1,006443
4,249167	0,1	1,015046
4,250833	0,1	1,014953
4,252500	0,1	1,016297
4,254167	0,1	1,036707
4,255833	0,1	0,978385
4,257500	0,1	0,993411
4,259167	0,1	0,991486
4,260833	0,1	0,998555
4,262500	0,1	1,000869
4,264167	0,1	1,026997
4,265833	0,1	1,004315
4,267500	0,1	1,007362
4,269167	0,1	0,969639
4,270833	0,1	0,948007
4,272500	0,1	0,932644
4,274167	0,1	0,992077
4,275833	0,1	0,991643
4,277500	0,1	0,929248
4,279167	0,1	0,940544
4,280833	0,1	0,948642
4,282500	0,1	0,920531
4,284167	0,1	0,953937
4,285833	0,1	0,904822
4,287500	0,1	0,929322
4,289167	0,1	0,913007
4,290833	0,1	0,921133
4,292500	0,1	0,909826
4,294167	0,1	0,921614
4,295833	0,1	0,925085
4,297500	0,1	0,880720
4,299167	0,1	0,909719
4,300833	0,1	0,889198
4,302500	0,1	0,905962
4,304167	0,1	0,890256
4,305833	0,1	0,867122
4,307500	0,1	0,856772
4,309167	0,1	0,849158
4,310833	0,1	0,819795
4,312500	0,1	0,846451
4,314167	0,1	0,837687
4,315833	0,1	0,851595
4,317500	0,1	0,831648
4,319167	0,1	0,836526
4,320833	0,1	0,852495
4,322500	0,1	0,849574
4,324167	0,1	0,804122
4,325833	0,1	0,823157
4,327500	0,1	0,833347
4,329167	0,1	0,809030
4,330833	0,1	0,798168
4,332500	0,1	0,824989
4,334167	0,1	0,797274
4,335833	0,1	0,800961
4,337500	0,1	0,792899
4,339167	0,1	0,787215
4,340833	0,1	0,788817
4,342500	0,1	0,774527
4,344167	0,1	0,777447
4,345833	0,1	0,757176
4,347500	0,1	0,749563
4,349167	0,1	0,733664
4,350833	0,1	0,759804
4,352500	0,1	0,798611
4,354167	0,1	0,718000
4,355833	0,1	0,758707
4,357500	0,1	0,723644
4,359167	0,1	0,744677
4,360833	0,1	0,740150
4,362500	0,1	0,766935
4,364167	0,1	0,739646
4,365833	0,1	0,726724
4,367500	0,1	0,768443
4,369167	0,1	0,734602
4,370833	0,1	0,732701
4,372500	0,1	0,732312
4,374167	0,1	0,722136
4,375833	0,1	0,679456
4,377500	0,1	0,711974
4,379167	0,1	0,702538
4,380833	0,1	0,706805
4,382500	0,1	0,715446
4,384167	0,1	0,705079
4,385833	0,1	0,682248
4,387500	0,1	0,691550
4,389167	0,1	0,669328
4,390833	0,1	0,665858
4,392500	0,1	0,672758
4,394167	0,1	0,688815
4,395833	0,1	0,687597
4,397500	0,1	0,673307
4,399167	0,1	0,596659
4,400833	0,1	0,633631
4,402500	0,1	0,682429
4,404167	0,1	0,644895
4,405833	0,1	0,607997
4,407500	0,1	0,643694
4,409167	0,1	0,604369
4,410833	0,1	0,638230
4,412500	0,1	0,630820
4,414167	0,1	0,635250
4,415833	0,1	0,623441
4,417500	0,1	0,615760
4,419167	0,1	0,611011
4,420833	0,1	0,599287
4,422500	0,1	0,608301
4,424167	0,1	0,574663
4,425833	0,1	0,564194
4,427500	0,1	0,578541
4,429167	0,1	0,549185
4,430833	0,1	0,591670
4,432500	0,1	0,540945
4,434167	0,1	0,570629
4,435833	0,1	0,530956
4,437500	0,1	0,581227
4,439167	0,1	0,522613
4,440833	0,1	0,532620
4,442500	0,1	0,558782
4,444167	0,1	0,519726
4,445833	0,1	0,515060
4,447500	0,1	0,549199
4,449167	0,1	0,483299
4,450833	0,1	0,521283
4,452500	0,1	0,524336
4,454167	0,1	0,508767
4,455833	0,1	0,540837
4,457500	0,1	0,484415
4,459167	0,1	0,491629
4,460833	0,1	0,490306
4,462500	0,1	0,453904
4,464167	0,1	0,479363
4,465833	0,1	0,475993
4,467500	0,1	0,462019
4,469167	0,1	0,491332
4,470833	0,1	0,464442
4,472500	0,1	0,441453
4,474167	0,1	0,485779
4,475833	0,1	0,454979
4,477500	0,1	0,481164
4,479167	0,1	0,467150
4,480833	0,1	0,455325
4,482500	0,1	0,421658
4,484167	0,1	0,415520
4,485833	0,1	0,409225
4,487500	0,1	0,409970
4,489167	0,1	0,417754
4,490833	0,1	0,407902
4,492500	0,1	0,379038
4,494167	0,1	0,455223
4,495833	0,1	0,415053
4,497500	0,1	0,396473
4,499167	0,1	0,413340
4,500833	0,1	0,370386
4,502500	0,1	0,389880
4,504167	0,1	0,390297
4,505833	0,1	0,370504
4,507500	0,1	0,380210
4,509167	0,1	0,330511
4,510833	0,1	0,356704
4,512500	0,1	0,380104
4,514167	0,1	0,356883
4,515833	0,1	0,391572
4,517500	0,1	0,355682
4,519167	0,1	0,343463
4,520833	0,1	0,335839
4,522500	0,1	0,341180
4,524167	0,1	0,381384
4,525833	0,1	0,306745
4,527500	0,1	0,358853
4,529167	0,1	0,323860
4,530833	0,1	0,300278
4,532500	0,1	0,330510
4,534167	0,1	0,301493
4,535833	0,1	0,314986
4,537500	0,1	0,319234
4,539167	0,1	0,280922
4,540833	0,1	0,279587
4,542500	0,1	0,330529
4,544167	0,1	0,318345
4,545833	0,1	0,324221
4,547500	0,1	0,306546
4,549167	0,1	0,292653
4,550833	0,1	0,277357
4,552500	0,1	0,282775
4,554167	0,1	0,283084
4,555833	0,1	0,279445
4,557500	0,1	0,261603
4,559167	0,1	0,295850
4,560833	0,1	0,294539
4,562500	0,1	0,256842
4,564167	0,1	0,270580
4,565833	0,1	0,223565
4,567500	0,1	0,256825
4,569167	0,1	0,251992
4,570833	0,1	0,245022
4,572500	0,1	0,244975
4,574167	0,1	0,236573
4,575833	0,1	0,230278
4,577500	0,1	0,283036
4,579167	0,1	0,267835
4,580833	0,1	0,249287
4,582500	0,1	0,236574
4,584167	0,1	0,246820
4,585833	0,1	0,261560
4,587500	0,1	0,258786
4,589167	0,1	0,250068
4,590833	0,1	0,185376
4,592500	0,1	0,215511
4,594167	0,1	0,197634
4,595833	0,1	0,211682
4,597500	0,1	0,217337
4,599167	0,1	0,197801
4,600833	0,1	0,202806
4,602500	0,1	0,210033
4,604167	0,1	0,203267
4,605833	0,1	0,244262
4,607500	0,1	0,200648
4,609167	0,1	0,227934
4,610833	0,1	0,195987
4,612500	0,1	0,160010
4,614167	0,1	0,210402
4,615833	0,1	0,211178
4,617500	0,1	0,172890
4,619167	0,1	0,183830
4,620833	0,1	0,155119
4,622500	0,1	0,178955
4,624167	0,1	0,185131
4,625833	0,1	0,157900
4,627500	0,1	0,193007
4,629167	0,1	0,227579
4,630833	0,1	0,185814
4,632500	0,1	0,193289
4,634167	0,1	0,165890
4,635833	0,1	0,224227
4,637500	0,1	0,148274
4,639167	0,1	0,172539
4,640833	0,1	0,159118
4,642500	0,1	0,190075
4,644167	0,1	0,170319
4,645833	0,1	0,178881
4,647500	0,1	0,213736
4,649167	0,1	0,168981
4,650833	0,1	0,173277
4,652500	0,1	0,142015
4,654167	0,1	0,174370
4,655833	0,1	0,195438
4,657500	0,1	0,178826
4,659167	0,1	0,162619
4,660833	0,1	0,165408
4,662500	0,1	0,161516
4,664167	0,1	0,179018
4,665833	0,1	0,136929
4,667500	0,1	0,129713
4,669167	0,1	0,175131
4,670833	0,1	0,159747
4,672500	0,1	0,135415
4,674167	0,1	0,141089
4,675833	0,1	0,146863
4,677500	0,1	0,167390
4,679167	0,1	0,145923
4,680833	0,1	0,134677
4,682500	0,1	0,117372
4,684167	0,1	0,154907
4,685833	0,1	0,136469
4,687500	0,1	0,174094
4,689167	0,1	0,183189
4,690833	0,1	0,156144
4,692500	0,1	0,171349
4,694167	0,1	0,122362
4,695833	0,1	0,137298
4,697500	0,1	0,115433
4,699167	0,1	0,132043
4,700833	0,1	0,095394
4,702500	0,1	0,173809
4,704167	0,1	0,137310
4,705833	0,1	0,170123
4,707500	0,1	0,116481
4,709167	0,1	0,170393
4,710833	0,1	0,138060
4,712500	0,1	0,116960
4,714167	0,1	0,119231
4,715833	0,1	0,104222
4,717500	0,1	0,121672
4,719167	0,1	0,118211
4,720833	0,1	0,160894
4,722500	0,1	0,121914
4,724167	0,1	0,138170
4,725833	0,1	0,118595
4,727500	0,1	0,115322
4,729167	0,1	0,122559
4,730833	0,1	0,118685
4,732500	0,1	0,119155
4,734167	0,1	0,106328
4,735833	0,1	0,155423
4,737500	0,1	0,140452
4,739167	0,1	0,139441
4,740833	0,1	0,146862
4,742500	0,1	0,117469
4,744167	0,1	0,139513
4,745833	0,1	0,152285
4,747500	0,1	0,134329
4,749167	0,1	0,130598
4,750833	0,1	0,083641
4,752500	0,1	0,105389
4,754167	0,1	0,133628
4,755833	0,1	0,118411
4,757500	0,1	0,110237
4,759167	0,1	0,110296
4,760833	0,1	0,096888
4,762500	0,1	0,120205
4,764167	0,1	0,111857
4,765833	0,1	0,154844
4,767500	0,1	0,136254
4,769167	0,1	0,100864
4,770833	0,1	0,148748
4,772500	0,1	0,154548
4,774167	0,1	0,159389
4,775833	0,1	0,122144
4,777500	0,1	0,118591
4,779167	0,1	0,117705
4,780833	0,1	0,156296
4,782500	0,1	0,136482
4,784167	0,1	0,110181
4,785833	0,1	0,116710
4,787500	0,1	0,121829
4,789167	0,1	0,124470
4,790833	0,1	0,140919
4,792500	0,1	0,126507
4,794167	0,1	0,137469
4,795833	0,1	0,115588
4,797500	0,1	0,129876
4,799167	0,1	0,168380
4,800833	0,1	0,136776
4,802500	0,1	0,125406
4,804167	0,1	0,135698
4,805833	0,1	0,123588
4,807500	0,1	0,122087
4,809167	0,1	0,127144
4,810833	0,1	0,142308
4,812500	0,1	0,102804
4,814167	0,1	0,144031
4,815833	0,1	0,102729
4,817500	0,1	0,095497
4,819167	0,1	0,138744
4,820833	0,1	0,136080
4,822500	0,1	0,107995
4,824167	0,1	0,098170
4,825833	0,1	0,132331
4,827500	0,1	0,140190
4,829167	0,1	0,159874
4,830833	0,1	0,140392
4,832500	0,1	0,141474
4,834167	0,1	0,132402
4,835833	0,1	0,116411
4,837500	0,1	0,125860
4,839167	0,1	0,129313
4,840833	0,1	0,139974
4,842500	0,1	0,169191
4,844167	0,1	0,075738
4,845833	0,1	0,131973
4,847500	0,1	0,124931
4,849167	0,1	0,139332
4,850833	0,1	0,104120
4,852500	0,1	0,136700
4,854167	0,1	0,108959
4,855833	0,1	0,138914
4,857500	0,1	0,121680
4,859167	0,1	0,131525
4,860833	0,1	0,109201
4,862500	0,1	0,093574
4,864167	0,1	0,158750
4,865833	0,1	0,162950
4,867500	0,1	0,120908
4,869167	0,1	0,113061
4,870833	0,1	0,155958
4,872500	0,1	0,112474
4,874167	0,1	0,128912
4,875833	0,1	0,144800
4,877500	0,1	0,120034
4,879167	0,1	0,092982
4,880833	0,1	0,095601
4,882500	0,1	0,130743
4,884167	0,1	0,164043
4,885833	0,1	0,108460
4,887500	0,1	0,105760
4,889167	0,1	0,129110
4,890833	0,1	0,133438
4,892500	0,1	0,163524
4,894167	0,1	0,110430
4,895833	0,1	0,103870
4,897500	0,1	0,075832
4,899167	0,1	0,131271
4,900833	0,1	0,102775
4,902500	0,1	0,104537
4,904167	0,1	0,118863
4,905833	0,1	0,117246
4,907500	0,1	0,140780
4,909167	0,1	0,119939
4,910833	0,1	0,104924
4,912500	0,1	0,118830
4,914167	0,1	0,116988
4,915833	0,1	0,100157
4,917500	0,1	0,148472
4,919167	0,1	0,062326
4,920833	0,1	0,114011
4,922500	0,1	0,144566
4,924167	0,1	0,149583
4,925833	0,1	0,134726
4,927500	0,1	0,114381
4,929167	0,1	0,117765
4,930833	0,1	0,148813
4,932500	0,1	0,133167
4,934167	0,1	0,123636
4,935833	0,1	0,146967
4,937500	0,1	0,141383
4,939167	0,1	0,096607
4,940833	0,1	0,120035
4,942500	0,1	0,128731
4,944167	0,1	0,119982
4,945833	0,1	0,111000
4,947500	0,1	0,177523
4,949167	0,1	0,111014
4,950833	0,1	0,089773
4,952500	0,1	0,113148
4,954167	0,1	0,102831
4,955833	0,1	0,100229
4,957500	0,1	0,125795
4,959167	0,1	0,143883
4,960833	0,1	0,069743
4,962500	0,1	0,139379
4,964167	0,1	0,134143
4,965833	0,1	0,124123
4,967500	0,1	0,120090
4,969167	0,1	0,098768
4,970833	0,1	0,091830
4,972500	0,1	0,144577
4,974167	0,1	0,140664
4,975833	0,1	0,093096
4,977500	0,1	0,153588
4,979167	0,1	0,098580
4,980833	0,1	0,117470
4,982500	0,1	0,144859
4,984167	0,1	0,161556
4,985833	0,1	0,087584
4,987500	0,1	0,139383
4,989167	0,1	0,120856
4,990833	0,1	0,109441
4,992500	0,1	0,131035
4,994167	0,1	0,099386
4,995833	0,1	0,117397
4,997500	0,1	0,107489
4,999167	0,1	0,126971
5,000833	0,1	0,169479
5,002500	0,1	0,120909
5,004167	0,1	0,123755
5,005833	0,1	0,144799
5,007500	0,1	0,122323
5,009167	0,1	0,126503
5,010833	0,1	0,108923
5,012500	0,1	0,106313
5,014167	0,1	0,129354
5,015833	0,1	0,093215
5,017500	0,1	0,108799
5,019167	0,1	0,103943
5,020833	0,1	0,123690
5,022500	0,1	0,084247
5,024167	0,1	0,129531
5,025833	0,1	0,117127
5,027500	0,1	0,092582
5,029167	0,1	0,138439
5,030833	0,1	0,100272
5,032500	0,1	0,107013
5,034167	0,1	0,099513
5,035833	0,1	0,118172
5,037500	0,1	0,125739
5,039167	0,1	0,135698
5,040833	0,1	0,101444
5,042500	0,1	0,118956
5,044167	0,1	0,134122
5,045833	0,1	0,117174
5,047500	0,1	0,100665
5,049167	0,1	0,156766
5,050833	0,1	0,102018
5,052500	0,1	0,132255
5,054167	0,1	0,081732
5,055833	0,1	0,099218
5,057500	0,1	0,151390
5,059167	0,1	0,125394
5,060833	0,1	0,119798
5,062500	0,1	0,077252
5,064167	0,1	0,103327
5,065833	0,1	0,096765
5,067500	0,1	0,082946
5,069167	0,1	0,108751
5,070833	0,1	0,122177
5,072500	0,1	0,108788
5,074167	0,1	0,103180
5,075833	0,1	0,084932
5,077500	0,1	0,117776
5,079167	0,1	0,086845
5,080833	0,1	0,112019
5,082500	0,1	0,146660
5,084167	0,1	0,121378
5,085833	0,1	0,086158
5,087500	0,1	0,131914
5,089167	0,1	0,104866
5,090833	0,1	0,102309
5,092500	0,1	0,101592
5,094167	0,1	0,077539
5,095833	0,1	0,142633
5,097500	0,1	0,089829
5,099167	0,1	0,121458
5,100833	0,1	0,062017
5,102500	0,1	0,111385
5,104167	0,1	0,113536
5,105833	0,1	0,096005
5,107500	0,1	0,110921
5,109167	0,1	0,086202
5,110833	0,1	0,116554
5,112500	0,1	0,084704
5,114167	0,1	0,085095
5,115833	0,1	0,109864
5,117500	0,1	0,082611
5,119167	0,1	0,122049
5,120833	0,1	0,126062
5,122500	0,1	0,098318
5,124167	0,1	0,104460
5,125833	0,1	0,102248
5,127500	0,1	0,119489
5,129167	0,1	0,098681
5,130833	0,1	0,115396
5,132500	0,1	0,092570
5,134167	0,1	0,112021
5,135833	0,1	0,128227
5,137500	0,1	0,116653
5,139167	0,1	0,094601
5,140833	0,1	0,064504
5,142500	0,1	0,064340
5,144167	0,1	0,108348
5,145833	0,1	0,108602
5,147500	0,1	0,089942
5,149167	0,1	0,128863
5,150833	0,1	0,081899
5,152500	0,1	0,078984
5,154167	0,1	0,108534
5,155833	0,1	0,121462
5,157500	0,1	0,103399
5,159167	0,1	0,127112
5,160833	0,1	0,117342
5,162500	0,1	0,105565
5,164167	0,1	0,085331
5,165833	0,1	0,133749
5,167500	0,1	0,086970
5,169167	0,1	0,109406
5,170833	0,1	0,110174
5,172500	0,1	0,133877
5,174167	0,1	0,131332
5,175833	0,1	0,082021
5,177500	0,1	0,116325
5,179167	0,1	0,091902
5,180833	0,1	0,074290
5,182500	0,1	0,113791
5,184167	0,1	0,107947
5,185833	0,1	0,134777
5,187500	0,1	0,094100
5,189167	0,1	0,136897
5,190833	0,1	0,082941
5,192500	0,1	0,092623
5,194167	0,1	0,087070
5,195833	0,1	0,121227
5,197500	0,1	0,127940
5,199167	0,1	0,122263
5,200833	0,1	0,092496
5,202500	0,1	0,097790
5,204167	0,1	0,110171
5,205833	0,1	0,065573
5,207500	0,1	0,118948
5,209167	0,1	0,062440
5,210833	0,1	0,077347
5,212500	0,1	0,089097
5,214167	0,1	0,084394
5,215833	0,1	0,099071
5,217500	0,1	0,103867
5,219167	0,1	0,090245
5,220833	0,1	0,064211
5,222500	0,1	0,079778
5,224167	0,1	0,085371
5,225833	0,1	0,082469
5,227500	0,1	0,112383
5,229167	0,1	0,115293
5,230833	0,1	0,064762
5,232500	0,1	0,112075
5,234167	0,1	0,101946
5,235833	0,1	0,125889
5,237500	0,1	0,084464
5,239167	0,1	0,076333
5,240833	0,1	0,055835
5,242500	0,1	0,082996
5,244167	0,1	0,080134
5,245833	0,1	0,097218
5,247500	0,1	0,064868
5,249167	0,1	0,066567
5,250833	0,1	0,064618
5,252500	0,1	0,096330
5,254167	0,1	0,107025
5,255833	0,1	0,069082
5,257500	0,1	0,073426
5,259167	0,1	0,088989
5,260833	0,1	0,121181
5,262500	0,1	0,095474
5,264167	0,1	0,118435
5,265833	0,1	0,074033
5,267500	0,1	0,072726
5,269167	0,1	0,094484
5,270833	0,1	0,054086
5,272500	0,1	0,090860
5,274167	0,1	0,100659
5,275833	0,1	0,043307
5,277500	0,1	0,094139
5,279167	0,1	0,087602
5,280833	0,1	0,047672
5,282500	0,1	0,082388
5,284167	0,1	0,077373
5,285833	0,1	0,053320
5,287500	0,1	0,094465
5,289167	0,1	0,130803
5,290833	0,1	0,105097
5,292500	0,1	0,067556
5,294167	0,1	0,124720
5,295833	0,1	0,032979
5,297500	0,1	0,026726
5,299167	0,1	0,069291
5,300833	0,1	0,061534
5,302500	0,1	0,075167
5,304167	0,1	0,082940
5,305833	0,1	0,087998
5,307500	0,1	0,085084
5,309167	0,1	0,103439
5,310833	0,1	0,074657
5,312500	0,1	0,070513
5,314167	0,1	0,049471
5,315833	0,1	0,079485
5,317500	0,1	0,046146
5,319167	0,1	0,077026
5,320833	0,1	0,052145
5,322500	0,1	0,038988
5,324167	0,1	0,057158
5,325833	0,1	0,066733
5,327500	0,1	0,050037
5,329167	0,1	0,087591
5,330833	0,1	0,086063
5,332500	0,1	0,041028
5,334167	0,1	0,074520
5,335833	0,1	0,069060
5,337500	0,1	0,028779
5,339167	0,1	0,088701
5,340833	0,1	0,080136
5,342500	0,1	0,063399
5,344167	0,1	0,072954
5,345833	0,1	0,031335
5,347500	0,1	0,061065
5,349167	0,1	0,061482
5,350833	0,1	0,103567
5,352500	0,1	0,065571
5,354167	0,1	0,021567
5,355833	0,1	0,078534
5,357500	0,1	0,050174
5,359167	0,1	0,076906
5,360833	0,1	0,035062
5,362500	0,1	0,038101
5,364167	0,1	0,048180
5,365833	0,1	0,027384
5,367500	0,1	0,086520
5,369167	0,1	0,048118
5,370833	0,1	0,059423
5,372500	0,1	0,035203
5,374167	0,1	0,074750
5,375833	0,1	0,051963
5,377500	0,1	0,079182
5,379167	0,1	0,094930
5,380833	0,1	0,079955
5,382500	0,1	0,083401
5,384167	0,1	0,055003
5,385833	0,1	-0,005377
5,387500	0,1	0,057789
5,389167	0,1	0,094696
5,390833	0,1	0,070044
5,392500	0,1	0,041000
5,394167	0,1	0,063451
5,395833	0,1	0,054296
5,397500	0,1	0,030229
5,399167	0,1	0,055874
5,400833	0,1	0,042763
5,402500	0,1	0,054424
5,404167	0,1	0,073931
5,405833	0,1	0,039574
5,407500	0,1	0,041925
5,409167	0,1	0,051495
5,410833	0,1	0,088342
5,412500	0,1	0,054652
5,414167	0,1	0,029756
5,415833	0,1	0,051311
5,417500	0,1	0,058045
5,419167	0,1	0,116210
5,420833	0,1	0,036764
5,422500	0,1	0,073468
5,424167	0,1	0,084512
5,425833	0,1	0,058270
5,427500	0,1	0,060248
5,429167	0,1	0,012988
5,430833	0,1	0,071489
5,432500	0,1	0,066312
5,434167	0,1	0,043178
5,435833	0,1	0,077958
5,437500	0,1	0,046448
5,439167	0,1	0,061176
5,440833	0,1	0,052080
5,442500	0,1	0,069574
5,444167	0,1	0,001328
5,445833	0,1	0,102546
5,447500	0,1	0,043476
5,449167	0,1	0,058260
5,450833	0,1	0,049226
5,452500	0,1	0,064964
5,454167	0,1	0,024121
5,455833	0,1	0,058534
5,457500	0,1	0,046383
5,459167	0,1	0,046839
5,460833	0,1	0,083609
5,462500	0,1	0,041548
5,464167	0,1	0,065083
5,465833	0,1	0,018458
5,467500	0,1	0,039306
5,469167	0,1	0,072015
5,470833	0,1	0,031335
5,472500	0,1	0,049618
5,474167	0,1	0,023887
5,475833	0,1	0,035570
5,477500	0,1	0,051832
5,479167	0,1	0,014729
5,480833	0,1	0,054296
5,482500	0,1	0,087627
5,484167	0,1	0,056975
5,485833	0,1	0,053472
5,487500	0,1	0,076340
5,489167	0,1	0,059138
5,490833	0,1	0,080527
5,492500	0,1	0,053948
5,494167	0,1	0,051330
5,495833	0,1	0,031280
5,497500	0,1	0,071892
5,499167	0,1	0,052157
5,500833	0,1	0,033774
5,502500	0,1	0,099287
5,504167	0,1	0,075346
5,505833	0,1	0,081219
5,507500	0,1	0,094581
5,509167	0,1	0,025496
5,510833	0,1	0,042695
5,512500	0,1	0,046825
5,514167	0,1	0,035999
5,515833	0,1	0,030564
5,517500	0,1	0,059176
5,519167	0,1	0,049757
5,520833	0,1	0,051849
5,522500	0,1	0,084662
5,524167	0,1	0,072717
5,525833	0,1	0,054467
5,527500	0,1	0,074573
5,529167	0,1	0,075715
5,530833	0,1	0,049629
5,532500	0,1	0,047300
5,534167	0,1	0,055176
5,535833	0,1	0,066248
5,537500	0,1	0,056510
5,539167	0,1	0,068065
5,540833	0,1	0,081243
5,542500	0,1	0,041476
5,544167	0,1	0,080751
5,545833	0,1	0,046895
5,547500	0,1	0,051037
5,549167	0,1	0,074658
5,550833	0,1	0,072423
5,552500	0,1	0,040614
5,554167	0,1	0,052392
5,555833	0,1	0,069286
5,557500	0,1	0,091466
5,559167	0,1	0,042458
5,560833	0,1	0,072005
5,562500	0,1	0,046578
5,564167	0,1	0,085944
5,565833	0,1	0,040483
5,567500	0,1	0,044501
5,569167	0,1	0,088266
5,570833	0,1	0,078272
5,572500	0,1	0,089389
5,574167	0,1	0,053141
5,575833	0,1	0,056339
5,577500	0,1	0,034850
5,579167	0,1	0,087056
5,580833	0,1	0,078656
5,582500	0,1	0,097085
5,584167	0,1	0,083391
5,585833	0,1	0,053732
5,587500	0,1	0,068826
5,589167	0,1	0,081703
5,590833	0,1	0,072485
5,592500	0,1	0,086348
5,594167	0,1	0,025627
5,595833	0,1	0,075739
5,597500	0,1	0,079890
5,599167	0,1	0,071736
5,600833	0,1	0,081414
5,602500	0,1	0,100061
5,604167	0,1	0,053083
5,605833	0,1	0,039157
5,607500	0,1	0,047465
5,609167	0,1	0,090482
5,610833	0,1	0,078961
5,612500	0,1	0,082881
5,614167	0,1	0,061185
5,615833	0,1	0,089385
5,617500	0,1	0,076167
5,619167	0,1	0,108230
5,620833	0,1	0,062751
5,622500	0,1	0,046310
5,624167	0,1	0,067589
5,625833	0,1	0,106228
5,627500	0,1	0,094295
5,629167	0,1	0,103501
5,630833	0,1	0,097793
5,632500	0,1	0,062000
5,634167	0,1	0,078145
5,635833	0,1	0,091325
5,637500	0,1	0,096492
5,639167	0,1	0,103684
5,640833	0,1	0,108054
5,642500	0,1	0,103396
5,644167	0,1	0,069526
5,645833	0,1	0,074891
5,647500	0,1	0,081571
5,649167	0,1	0,092426
5,650833	0,1	0,116036
5,652500	0,1	0,104452
5,654167	0,1	0,104981
5,655833	0,1	0,080307
5,657500	0,1	0,131609
5,659167	0,1	0,108775
5,660833	0,1	0,096356
5,662500	0,1	0,098323
5,664167	0,1	0,116849
5,665833	0,1	0,147469
5,667500	0,1	0,147018
5,669167	0,1	0,126433
5,670833	0,1	0,139912
5,672500	0,1	0,126094
5,674167	0,1	0,082831
5,675833	0,1	0,144424
5,677500	0,1	0,111499
5,679167	0,1	0,105855
5,680833	0,1	0,116453
5,682500	0,1	0,115996
5,684167	0,1	0,151333
5,685833	0,1	0,177929
5,687500	0,1	0,105336
5,689167	0,1	0,122866
5,690833	0,1	0,120350
5,692500	0,1	0,156084
5,694167	0,1	0,151862
5,695833	0,1	0,132680
5,697500	0,1	0,185853
5,699167	0,1	0,174211
5,700833	0,1	0,115658
5,702500	0,1	0,143803
5,704167	0,1	0,167298
5,705833	0,1	0,149665
5,707500	0,1	0,135794
5,709167	0,1	0,180919
5,710833	0,1	0,180305
5,712500	0,1	0,164893
5,714167	0,1	0,146900
5,715833	0,1	0,151264
5,717500	0,1	0,175822
5,719167	0,1	0,158740
5,720833	0,1	0,177062
5,722500	0,1	0,182426
5,724167	0,1	0,162559
5,725833	0,1	0,188212
5,727500	0,1	0,152769
5,729167	0,1	0,184039
5,730833	0,1	0,198983
5,732500	0,1	0,209067
5,734167	0,1	0,166017
5,735833	0,1	0,188715
5,737500	0,1	0,176778
5,739167	0,1	0,211858
5,740833	0,1	0,176386
5,742500	0,1	0,185511
5,744167	0,1	0,167919
5,745833	0,1	0,181324
5,747500	0,1	0,172286
5,749167	0,1	0,229361
5,750833	0,1	0,220639
5,752500	0,1	0,192778
5,754167	0,1	0,220093
5,755833	0,1	0,245761
5,757500	0,1	0,220091
5,759167	0,1	0,215198
5,760833	0,1	0,192760
5,762500	0,1	0,213206
5,764167	0,1	0,196655
5,765833	0,1	0,231291
5,767500	0,1	0,244772
5,769167	0,1	0,230799
5,770833	0,1	0,217248
5,772500	0,1	0,253336
5,774167	0,1	0,222692
5,775833	0,1	0,227449
5,777500	0,1	0,244587
5,779167	0,1	0,181817
5,780833	0,1	0,201884
5,782500	0,1	0,233506
5,784167	0,1	0,213018
5,785833	0,1	0,199113
5,787500	0,1	0,199859
5,789167	0,1	0,233109
5,790833	0,1	0,216957
5,792500	0,1	0,198367
5,794167	0,1	0,249316
5,795833	0,1	0,207399
5,797500	0,1	0,228148
5,799167	0,1	0,204706
5,800833	0,1	0,253579
5,802500	0,1	0,234178
5,804167	0,1	0,221739
5,805833	0,1	0,226227
5,807500	0,1	0,251018
5,809167	0,1	0,219833
5,810833	0,1	0,229495
5,812500	0,1	0,215795
5,814167	0,1	0,225811
5,815833	0,1	0,236965
5,817500	0,1	0,246268
5,819167	0,1	0,247587
5,820833	0,1	0,229747
5,822500	0,1	0,194857
5,824167	0,1	0,239462
5,825833	0,1	0,240283
5,827500	0,1	0,252823
5,829167	0,1	0,249513
5,830833	0,1	0,221880
5,832500	0,1	0,234566
5,834167	0,1	0,215111
5,835833	0,1	0,232103
5,837500	0,1	0,191069
5,839167	0,1	0,257575
5,840833	0,1	0,216321
5,842500	0,1	0,240980
5,844167	0,1	0,265085
5,845833	0,1	0,224680
5,847500	0,1	0,266706
5,849167	0,1	0,204013
5,850833	0,1	0,240747
5,852500	0,1	0,255355
5,854167	0,1	0,208456
5,855833	0,1	0,231445
5,857500	0,1	0,240235
5,859167	0,1	0,227925
5,860833	0,1	0,233926
5,862500	0,1	0,235684
5,864167	0,1	0,259422
5,865833	0,1	0,235015
5,867500	0,1	0,238419
5,869167	0,1	0,201121
5,870833	0,1	0,252049
5,872500	0,1	0,253943
5,874167	0,1	0,222782
5,875833	0,1	0,266732
5,877500	0,1	0,237767
5,879167	0,1	0,232477
5,880833	0,1	0,197790
5,882500	0,1	0,223777
5,884167	0,1	0,240384
5,885833	0,1	0,224245
5,887500	0,1	0,254559
5,889167	0,1	0,206806
5,890833	0,1	0,181747
5,892500	0,1	0,213982
5,894167	0,1	0,194133
5,895833	0,1	0,203905
5,897500	0,1	0,211421
5,899167	0,1	0,220205
5,900833	0,1	0,207255
5,902500	0,1	0,191139
5,904167	0,1	0,211357
5,905833	0,1	0,206795
5,907500	0,1	0,216723
5,909167	0,1	0,232929
5,910833	0,1	0,191528
5,912500	0,1	0,183423
5,914167	0,1	0,216242
5,915833	0,1	0,170417
5,917500	0,1	0,204815
5,919167	0,1	0,205817
5,920833	0,1	0,236257
5,922500	0,1	0,170880
5,924167	0,1	0,200035
5,925833	0,1	0,190800
5,927500	0,1	0,178627
5,929167	0,1	0,185572
5,930833	0,1	0,155426
5,932500	0,1	0,169364
5,934167	0,1	0,215230
5,935833	0,1	0,190652
5,937500	0,1	0,132292
5,939167	0,1	0,125512
5,940833	0,1	0,183407
5,942500	0,1	0,174424
5,944167	0,1	0,200080
5,945833	0,1	0,170657
5,947500	0,1	0,154553
5,949167	0,1	0,173196
5,950833	0,1	0,176485
5,952500	0,1	0,196048
5,954167	0,1	0,165814
5,955833	0,1	0,178147
5,957500	0,1	0,162083
5,959167	0,1	0,167014
5,960833	0,1	0,167029
5,962500	0,1	0,173016
5,964167	0,1	0,178209
5,965833	0,1	0,160481
5,967500	0,1	0,170740
5,969167	0,1	0,160830
5,970833	0,1	0,150093
5,972500	0,1	0,140316
5,974167	0,1	0,160761
5,975833	0,1	0,190105
5,977500	0,1	0,168409
5,979167	0,1	0,130760
5,980833	0,1	0,131499
5,982500	0,1	0,174229
5,984167	0,1	0,135662
5,985833	0,1	0,150299
5,987500	0,1	0,133367
5,989167	0,1	0,166837
5,990833	0,1	0,127033
5,992500	0,1	0,135927
5,994167	0,1	0,172383
5,995833	0,1	0,150628
5,997500	0,1	0,144838
5,999167	0,1	0,122997
6,000833	0,1	0,143394
