File Path	chrom://chromeleon01/ikbm_chromeleon/2022/Rezex/Esteban/220612_chitin_4_7.seq/529.smp/UV_VIS_1.channel/UV_VIS_1.chm
Channel	UV_VIS_1

Injection Information:
Data Vault	ikbm_chromeleon
Injection	A2ox 100
Injection Number	58
Position	RA4
Comment	
Processing Method	New ProcMethod
Instrument Method	Short_Rezex_6min_194nm
Type	Calibration Standard
Status	Finished
Injection Date	12.06.2022
Injection Time	23:22:43
Injection Volume (µl)	8,000
Dilution Factor	1,0000
Weight	1,0000

Chromatogram Data Information:
Time Min. (min)	0,000833
Time Max. (min)	6,000833
Data Points	3601
Detector	UV
Generating Data System	Chromeleon 7.2.9.11323
Exporting Data System	Chromeleon 7.2.9.0
Operator	Instrument Controller
Signal Quantity	Absorbance
Signal Unit	mAU
Signal Min.	-0,162475
Signal Max.	73,719945
Channel	UV_VIS_1
Driver Name	VWD3000.dll
Channel Type	Evaluation
Min. Step (s)	0,1
Max. Step (s)	0,1
Average Step (s)	0,1

Signal Parameter Information:
Signal Info	WVL:194 nm

Chromatogram Data:
Time (min)	Step (s)	Value (mAU)
0,000833	n.a.	-0,097268
0,002500	0,1	-0,099028
0,004167	0,1	-0,085820
0,005833	0,1	-0,097985
0,007500	0,1	-0,110018
0,009167	0,1	-0,062051
0,010833	0,1	-0,090204
0,012500	0,1	-0,131198
0,014167	0,1	-0,099371
0,015833	0,1	-0,071861
0,017500	0,1	-0,120434
0,019167	0,1	-0,104222
0,020833	0,1	-0,120536
0,022500	0,1	-0,107834
0,024167	0,1	-0,115437
0,025833	0,1	-0,060581
0,027500	0,1	-0,102602
0,029167	0,1	-0,124360
0,030833	0,1	-0,075247
0,032500	0,1	-0,105346
0,034167	0,1	-0,079885
0,035833	0,1	-0,124553
0,037500	0,1	-0,126247
0,039167	0,1	-0,101194
0,040833	0,1	-0,125707
0,042500	0,1	-0,073565
0,044167	0,1	-0,092270
0,045833	0,1	-0,117286
0,047500	0,1	-0,103013
0,049167	0,1	-0,104815
0,050833	0,1	-0,091881
0,052500	0,1	-0,117424
0,054167	0,1	-0,124440
0,055833	0,1	-0,070254
0,057500	0,1	-0,099129
0,059167	0,1	-0,106435
0,060833	0,1	-0,091377
0,062500	0,1	-0,109709
0,064167	0,1	-0,100424
0,065833	0,1	-0,076696
0,067500	0,1	-0,099712
0,069167	0,1	-0,084472
0,070833	0,1	-0,126407
0,072500	0,1	-0,075125
0,074167	0,1	-0,078988
0,075833	0,1	-0,111100
0,077500	0,1	-0,105170
0,079167	0,1	-0,098845
0,080833	0,1	-0,114334
0,082500	0,1	-0,097562
0,084167	0,1	-0,143369
0,085833	0,1	-0,095993
0,087500	0,1	-0,114809
0,089167	0,1	-0,112839
0,090833	0,1	-0,149968
0,092500	0,1	-0,102501
0,094167	0,1	-0,101477
0,095833	0,1	-0,097162
0,097500	0,1	-0,111181
0,099167	0,1	-0,068402
0,100833	0,1	-0,129419
0,102500	0,1	-0,129755
0,104167	0,1	-0,065835
0,105833	0,1	-0,123311
0,107500	0,1	-0,086053
0,109167	0,1	-0,117256
0,110833	0,1	-0,089285
0,112500	0,1	-0,145938
0,114167	0,1	-0,135392
0,115833	0,1	-0,142473
0,117500	0,1	-0,110841
0,119167	0,1	-0,140570
0,120833	0,1	-0,063601
0,122500	0,1	-0,076872
0,124167	0,1	-0,110991
0,125833	0,1	-0,092082
0,127500	0,1	-0,099026
0,129167	0,1	-0,082313
0,130833	0,1	-0,074198
0,132500	0,1	-0,101366
0,134167	0,1	-0,117610
0,135833	0,1	-0,109564
0,137500	0,1	-0,105549
0,139167	0,1	-0,104078
0,140833	0,1	-0,081090
0,142500	0,1	-0,153511
0,144167	0,1	-0,111822
0,145833	0,1	-0,084122
0,147500	0,1	-0,112112
0,149167	0,1	-0,119111
0,150833	0,1	-0,119850
0,152500	0,1	-0,112869
0,154167	0,1	-0,106746
0,155833	0,1	-0,128937
0,157500	0,1	-0,119624
0,159167	0,1	-0,110023
0,160833	0,1	-0,118898
0,162500	0,1	-0,110069
0,164167	0,1	-0,123672
0,165833	0,1	-0,111020
0,167500	0,1	-0,098847
0,169167	0,1	-0,121069
0,170833	0,1	-0,085198
0,172500	0,1	-0,127173
0,174167	0,1	-0,100321
0,175833	0,1	-0,144839
0,177500	0,1	-0,110946
0,179167	0,1	-0,127363
0,180833	0,1	-0,091154
0,182500	0,1	-0,111453
0,184167	0,1	-0,141795
0,185833	0,1	-0,079690
0,187500	0,1	-0,129927
0,189167	0,1	-0,121336
0,190833	0,1	-0,087981
0,192500	0,1	-0,110167
0,194167	0,1	-0,150365
0,195833	0,1	-0,071150
0,197500	0,1	-0,114909
0,199167	0,1	-0,100318
0,200833	0,1	-0,117595
0,202500	0,1	-0,100672
0,204167	0,1	-0,104341
0,205833	0,1	-0,099718
0,207500	0,1	-0,099548
0,209167	0,1	-0,063168
0,210833	0,1	-0,120967
0,212500	0,1	-0,108766
0,214167	0,1	-0,140035
0,215833	0,1	-0,094645
0,217500	0,1	-0,131260
0,219167	0,1	-0,095609
0,220833	0,1	-0,099273
0,222500	0,1	-0,091941
0,224167	0,1	-0,099731
0,225833	0,1	-0,089966
0,227500	0,1	-0,135469
0,229167	0,1	-0,092626
0,230833	0,1	-0,106021
0,232500	0,1	-0,047201
0,234167	0,1	-0,053889
0,235833	0,1	-0,079380
0,237500	0,1	-0,107872
0,239167	0,1	-0,119295
0,240833	0,1	-0,102690
0,242500	0,1	-0,088727
0,244167	0,1	-0,115249
0,245833	0,1	-0,109548
0,247500	0,1	-0,118608
0,249167	0,1	-0,116252
0,250833	0,1	-0,133547
0,252500	0,1	-0,101531
0,254167	0,1	-0,098616
0,255833	0,1	-0,083106
0,257500	0,1	-0,116259
0,259167	0,1	-0,095556
0,260833	0,1	-0,110248
0,262500	0,1	-0,075764
0,264167	0,1	-0,073661
0,265833	0,1	-0,132190
0,267500	0,1	-0,098516
0,269167	0,1	-0,089950
0,270833	0,1	-0,107675
0,272500	0,1	-0,078458
0,274167	0,1	-0,100998
0,275833	0,1	-0,102105
0,277500	0,1	-0,092003
0,279167	0,1	-0,126424
0,280833	0,1	-0,107377
0,282500	0,1	-0,061206
0,284167	0,1	-0,110698
0,285833	0,1	-0,068234
0,287500	0,1	-0,099876
0,289167	0,1	-0,155383
0,290833	0,1	-0,136771
0,292500	0,1	-0,112079
0,294167	0,1	-0,107250
0,295833	0,1	-0,088208
0,297500	0,1	-0,115310
0,299167	0,1	-0,075060
0,300833	0,1	-0,077869
0,302500	0,1	-0,087909
0,304167	0,1	-0,053652
0,305833	0,1	-0,052624
0,307500	0,1	-0,103440
0,309167	0,1	-0,092662
0,310833	0,1	-0,125690
0,312500	0,1	-0,089129
0,314167	0,1	-0,052386
0,315833	0,1	-0,110909
0,317500	0,1	-0,067344
0,319167	0,1	-0,070321
0,320833	0,1	-0,088507
0,322500	0,1	-0,083246
0,324167	0,1	-0,093804
0,325833	0,1	-0,099178
0,327500	0,1	-0,151206
0,329167	0,1	-0,097924
0,330833	0,1	-0,069562
0,332500	0,1	-0,069078
0,334167	0,1	-0,079383
0,335833	0,1	-0,081438
0,337500	0,1	-0,087867
0,339167	0,1	-0,077028
0,340833	0,1	-0,087955
0,342500	0,1	-0,028324
0,344167	0,1	-0,059424
0,345833	0,1	-0,067166
0,347500	0,1	-0,082290
0,349167	0,1	-0,063665
0,350833	0,1	-0,063995
0,352500	0,1	-0,095621
0,354167	0,1	-0,088830
0,355833	0,1	-0,088617
0,357500	0,1	-0,085922
0,359167	0,1	-0,031667
0,360833	0,1	-0,046796
0,362500	0,1	-0,126687
0,364167	0,1	-0,062935
0,365833	0,1	-0,073138
0,367500	0,1	-0,042156
0,369167	0,1	-0,068509
0,370833	0,1	-0,059515
0,372500	0,1	-0,075875
0,374167	0,1	-0,113027
0,375833	0,1	-0,049466
0,377500	0,1	-0,043268
0,379167	0,1	-0,122829
0,380833	0,1	-0,060337
0,382500	0,1	-0,100455
0,384167	0,1	-0,079284
0,385833	0,1	-0,056345
0,387500	0,1	-0,070731
0,389167	0,1	-0,096847
0,390833	0,1	-0,046910
0,392500	0,1	-0,064987
0,394167	0,1	-0,045369
0,395833	0,1	-0,097819
0,397500	0,1	-0,054853
0,399167	0,1	-0,081448
0,400833	0,1	-0,060785
0,402500	0,1	-0,069095
0,404167	0,1	-0,097809
0,405833	0,1	-0,071472
0,407500	0,1	-0,041971
0,409167	0,1	-0,060424
0,410833	0,1	-0,055012
0,412500	0,1	-0,104954
0,414167	0,1	-0,087777
0,415833	0,1	-0,065702
0,417500	0,1	-0,046759
0,419167	0,1	-0,074921
0,420833	0,1	-0,102926
0,422500	0,1	-0,065767
0,424167	0,1	-0,076211
0,425833	0,1	-0,065241
0,427500	0,1	-0,066278
0,429167	0,1	-0,065466
0,430833	0,1	-0,059910
0,432500	0,1	-0,043810
0,434167	0,1	-0,078777
0,435833	0,1	-0,061700
0,437500	0,1	-0,056052
0,439167	0,1	-0,042857
0,440833	0,1	-0,057580
0,442500	0,1	-0,085044
0,444167	0,1	-0,051018
0,445833	0,1	-0,028958
0,447500	0,1	-0,076968
0,449167	0,1	-0,050867
0,450833	0,1	-0,036715
0,452500	0,1	-0,080458
0,454167	0,1	-0,051406
0,455833	0,1	-0,094775
0,457500	0,1	-0,087378
0,459167	0,1	-0,062530
0,460833	0,1	-0,014444
0,462500	0,1	-0,052657
0,464167	0,1	-0,089420
0,465833	0,1	-0,067754
0,467500	0,1	-0,059206
0,469167	0,1	-0,062831
0,470833	0,1	-0,083741
0,472500	0,1	-0,051969
0,474167	0,1	-0,076561
0,475833	0,1	-0,064148
0,477500	0,1	-0,067898
0,479167	0,1	-0,082748
0,480833	0,1	-0,051511
0,482500	0,1	-0,067726
0,484167	0,1	-0,058414
0,485833	0,1	-0,064610
0,487500	0,1	-0,070963
0,489167	0,1	-0,098028
0,490833	0,1	-0,055768
0,492500	0,1	-0,083007
0,494167	0,1	-0,064889
0,495833	0,1	-0,099020
0,497500	0,1	-0,032209
0,499167	0,1	-0,106314
0,500833	0,1	-0,063671
0,502500	0,1	-0,098528
0,504167	0,1	-0,058817
0,505833	0,1	-0,063581
0,507500	0,1	-0,068927
0,509167	0,1	-0,081294
0,510833	0,1	-0,067584
0,512500	0,1	-0,055744
0,514167	0,1	-0,074342
0,515833	0,1	-0,052567
0,517500	0,1	-0,066106
0,519167	0,1	-0,080896
0,520833	0,1	-0,099774
0,522500	0,1	-0,043572
0,524167	0,1	-0,035015
0,525833	0,1	-0,047229
0,527500	0,1	-0,092694
0,529167	0,1	-0,101626
0,530833	0,1	-0,066410
0,532500	0,1	-0,080942
0,534167	0,1	-0,070386
0,535833	0,1	-0,051157
0,537500	0,1	-0,091197
0,539167	0,1	-0,109586
0,540833	0,1	-0,101692
0,542500	0,1	-0,072547
0,544167	0,1	-0,080212
0,545833	0,1	-0,066651
0,547500	0,1	-0,104517
0,549167	0,1	-0,089097
0,550833	0,1	-0,061325
0,552500	0,1	-0,071745
0,554167	0,1	-0,054389
0,555833	0,1	-0,106301
0,557500	0,1	-0,069334
0,559167	0,1	-0,078449
0,560833	0,1	-0,102530
0,562500	0,1	-0,055418
0,564167	0,1	-0,084893
0,565833	0,1	-0,059853
0,567500	0,1	-0,093799
0,569167	0,1	-0,082004
0,570833	0,1	-0,090466
0,572500	0,1	-0,075408
0,574167	0,1	-0,123988
0,575833	0,1	-0,079105
0,577500	0,1	-0,073035
0,579167	0,1	-0,068718
0,580833	0,1	-0,083118
0,582500	0,1	-0,098778
0,584167	0,1	-0,100772
0,585833	0,1	-0,074414
0,587500	0,1	-0,090191
0,589167	0,1	-0,081545
0,590833	0,1	-0,116840
0,592500	0,1	-0,071476
0,594167	0,1	-0,087311
0,595833	0,1	-0,100480
0,597500	0,1	-0,134324
0,599167	0,1	-0,054325
0,600833	0,1	-0,105139
0,602500	0,1	-0,096812
0,604167	0,1	-0,063899
0,605833	0,1	-0,077620
0,607500	0,1	-0,100644
0,609167	0,1	-0,081944
0,610833	0,1	-0,087575
0,612500	0,1	-0,120760
0,614167	0,1	-0,110405
0,615833	0,1	-0,080283
0,617500	0,1	-0,096129
0,619167	0,1	-0,042285
0,620833	0,1	-0,083127
0,622500	0,1	-0,101273
0,624167	0,1	-0,114381
0,625833	0,1	-0,065955
0,627500	0,1	-0,071641
0,629167	0,1	-0,074945
0,630833	0,1	-0,086792
0,632500	0,1	-0,037738
0,634167	0,1	-0,108580
0,635833	0,1	-0,113448
0,637500	0,1	-0,056372
0,639167	0,1	-0,068097
0,640833	0,1	-0,060404
0,642500	0,1	-0,074008
0,644167	0,1	-0,077437
0,645833	0,1	-0,123559
0,647500	0,1	-0,118550
0,649167	0,1	-0,069337
0,650833	0,1	-0,083222
0,652500	0,1	-0,079157
0,654167	0,1	-0,076857
0,655833	0,1	-0,080441
0,657500	0,1	-0,050806
0,659167	0,1	-0,108767
0,660833	0,1	-0,111811
0,662500	0,1	-0,070085
0,664167	0,1	-0,063373
0,665833	0,1	-0,064657
0,667500	0,1	-0,062040
0,669167	0,1	-0,071895
0,670833	0,1	-0,040578
0,672500	0,1	-0,073282
0,674167	0,1	-0,092304
0,675833	0,1	-0,070554
0,677500	0,1	-0,097736
0,679167	0,1	-0,063009
0,680833	0,1	-0,083741
0,682500	0,1	-0,066009
0,684167	0,1	-0,075295
0,685833	0,1	-0,073537
0,687500	0,1	-0,048709
0,689167	0,1	-0,075934
0,690833	0,1	-0,091326
0,692500	0,1	-0,079327
0,694167	0,1	-0,068746
0,695833	0,1	-0,063265
0,697500	0,1	-0,083467
0,699167	0,1	-0,073309
0,700833	0,1	-0,095121
0,702500	0,1	-0,011959
0,704167	0,1	-0,061472
0,705833	0,1	-0,050071
0,707500	0,1	-0,080849
0,709167	0,1	-0,052965
0,710833	0,1	-0,032903
0,712500	0,1	-0,068153
0,714167	0,1	-0,071834
0,715833	0,1	-0,102264
0,717500	0,1	-0,058941
0,719167	0,1	-0,065650
0,720833	0,1	-0,019465
0,722500	0,1	0,003904
0,724167	0,1	-0,069661
0,725833	0,1	-0,070445
0,727500	0,1	-0,084632
0,729167	0,1	-0,052885
0,730833	0,1	-0,050799
0,732500	0,1	-0,047691
0,734167	0,1	-0,084626
0,735833	0,1	-0,052384
0,737500	0,1	-0,021594
0,739167	0,1	-0,019472
0,740833	0,1	-0,011342
0,742500	0,1	-0,036936
0,744167	0,1	-0,006306
0,745833	0,1	-0,031853
0,747500	0,1	-0,023339
0,749167	0,1	-0,028746
0,750833	0,1	-0,007319
0,752500	0,1	0,009260
0,754167	0,1	-0,069367
0,755833	0,1	-0,007954
0,757500	0,1	-0,019864
0,759167	0,1	-0,044530
0,760833	0,1	-0,050735
0,762500	0,1	-0,032697
0,764167	0,1	-0,013189
0,765833	0,1	-0,055124
0,767500	0,1	-0,057749
0,769167	0,1	-0,039791
0,770833	0,1	-0,025950
0,772500	0,1	-0,016488
0,774167	0,1	-0,030112
0,775833	0,1	-0,033681
0,777500	0,1	-0,035240
0,779167	0,1	-0,024540
0,780833	0,1	-0,053718
0,782500	0,1	-0,040883
0,784167	0,1	-0,020473
0,785833	0,1	-0,028411
0,787500	0,1	-0,050335
0,789167	0,1	-0,066336
0,790833	0,1	-0,041573
0,792500	0,1	-0,048806
0,794167	0,1	-0,050905
0,795833	0,1	-0,027610
0,797500	0,1	-0,087836
0,799167	0,1	-0,066819
0,800833	0,1	-0,054098
0,802500	0,1	-0,052666
0,804167	0,1	-0,076331
0,805833	0,1	-0,063910
0,807500	0,1	-0,063907
0,809167	0,1	-0,082305
0,810833	0,1	-0,073477
0,812500	0,1	-0,100554
0,814167	0,1	-0,080862
0,815833	0,1	-0,050806
0,817500	0,1	-0,082470
0,819167	0,1	-0,076111
0,820833	0,1	-0,051386
0,822500	0,1	-0,089524
0,824167	0,1	-0,082726
0,825833	0,1	-0,050040
0,827500	0,1	-0,073089
0,829167	0,1	-0,097235
0,830833	0,1	-0,114687
0,832500	0,1	-0,091302
0,834167	0,1	-0,091419
0,835833	0,1	-0,102638
0,837500	0,1	-0,128232
0,839167	0,1	-0,073920
0,840833	0,1	-0,104227
0,842500	0,1	-0,115101
0,844167	0,1	-0,113925
0,845833	0,1	-0,109592
0,847500	0,1	-0,121195
0,849167	0,1	-0,109655
0,850833	0,1	-0,122281
0,852500	0,1	-0,076428
0,854167	0,1	-0,084836
0,855833	0,1	-0,116963
0,857500	0,1	-0,068712
0,859167	0,1	-0,083530
0,860833	0,1	-0,149441
0,862500	0,1	-0,103005
0,864167	0,1	-0,121345
0,865833	0,1	-0,154011
0,867500	0,1	-0,119721
0,869167	0,1	-0,080971
0,870833	0,1	-0,136601
0,872500	0,1	-0,131472
0,874167	0,1	-0,099310
0,875833	0,1	-0,104753
0,877500	0,1	-0,113464
0,879167	0,1	-0,126995
0,880833	0,1	-0,110256
0,882500	0,1	-0,112469
0,884167	0,1	-0,135200
0,885833	0,1	-0,090636
0,887500	0,1	-0,095873
0,889167	0,1	-0,118252
0,890833	0,1	-0,098602
0,892500	0,1	-0,127068
0,894167	0,1	-0,112076
0,895833	0,1	-0,127653
0,897500	0,1	-0,121596
0,899167	0,1	-0,122927
0,900833	0,1	-0,121931
0,902500	0,1	-0,162475
0,904167	0,1	-0,138593
0,905833	0,1	-0,081741
0,907500	0,1	-0,117757
0,909167	0,1	-0,131803
0,910833	0,1	-0,103062
0,912500	0,1	-0,107678
0,914167	0,1	-0,089510
0,915833	0,1	-0,061942
0,917500	0,1	-0,111067
0,919167	0,1	-0,121364
0,920833	0,1	-0,093601
0,922500	0,1	-0,076834
0,924167	0,1	-0,102988
0,925833	0,1	-0,137982
0,927500	0,1	-0,117373
0,929167	0,1	-0,067865
0,930833	0,1	-0,066418
0,932500	0,1	-0,123954
0,934167	0,1	-0,101360
0,935833	0,1	-0,108321
0,937500	0,1	-0,104419
0,939167	0,1	-0,072671
0,940833	0,1	-0,119701
0,942500	0,1	-0,073363
0,944167	0,1	-0,093343
0,945833	0,1	-0,110230
0,947500	0,1	-0,099797
0,949167	0,1	-0,097665
0,950833	0,1	-0,049524
0,952500	0,1	-0,083817
0,954167	0,1	-0,101888
0,955833	0,1	-0,111105
0,957500	0,1	-0,053508
0,959167	0,1	-0,054076
0,960833	0,1	-0,103412
0,962500	0,1	-0,090964
0,964167	0,1	-0,035855
0,965833	0,1	-0,113968
0,967500	0,1	-0,072673
0,969167	0,1	-0,105663
0,970833	0,1	-0,065784
0,972500	0,1	-0,052354
0,974167	0,1	-0,038813
0,975833	0,1	-0,053244
0,977500	0,1	-0,084153
0,979167	0,1	-0,063165
0,980833	0,1	-0,028009
0,982500	0,1	-0,085326
0,984167	0,1	-0,067938
0,985833	0,1	-0,060924
0,987500	0,1	-0,030889
0,989167	0,1	-0,049508
0,990833	0,1	-0,050737
0,992500	0,1	-0,069277
0,994167	0,1	-0,093940
0,995833	0,1	-0,062859
0,997500	0,1	-0,043271
0,999167	0,1	-0,026532
1,000833	0,1	-0,085741
1,002500	0,1	-0,051768
1,004167	0,1	-0,039641
1,005833	0,1	-0,055923
1,007500	0,1	-0,064285
1,009167	0,1	-0,006313
1,010833	0,1	-0,005948
1,012500	0,1	0,003845
1,014167	0,1	-0,054477
1,015833	0,1	-0,000399
1,017500	0,1	-0,035339
1,019167	0,1	0,016347
1,020833	0,1	0,004284
1,022500	0,1	0,027869
1,024167	0,1	0,000845
1,025833	0,1	0,002953
1,027500	0,1	0,041765
1,029167	0,1	0,018623
1,030833	0,1	0,039445
1,032500	0,1	0,067830
1,034167	0,1	0,023898
1,035833	0,1	0,019554
1,037500	0,1	0,071227
1,039167	0,1	0,039873
1,040833	0,1	0,087642
1,042500	0,1	0,045603
1,044167	0,1	0,031258
1,045833	0,1	0,068700
1,047500	0,1	0,068834
1,049167	0,1	0,067899
1,050833	0,1	0,084249
1,052500	0,1	0,085143
1,054167	0,1	0,099896
1,055833	0,1	0,101600
1,057500	0,1	0,135315
1,059167	0,1	0,202222
1,060833	0,1	0,246314
1,062500	0,1	0,334538
1,064167	0,1	0,433184
1,065833	0,1	0,563021
1,067500	0,1	0,779472
1,069167	0,1	1,036978
1,070833	0,1	1,327593
1,072500	0,1	1,699135
1,074167	0,1	2,211947
1,075833	0,1	2,713613
1,077500	0,1	3,380567
1,079167	0,1	4,217405
1,080833	0,1	4,993629
1,082500	0,1	5,948376
1,084167	0,1	6,985452
1,085833	0,1	8,109312
1,087500	0,1	9,239999
1,089167	0,1	10,439385
1,090833	0,1	11,692829
1,092500	0,1	12,892082
1,094167	0,1	14,116863
1,095833	0,1	15,334382
1,097500	0,1	16,437180
1,099167	0,1	17,475502
1,100833	0,1	18,473560
1,102500	0,1	19,340542
1,104167	0,1	20,172836
1,105833	0,1	20,906166
1,107500	0,1	21,431635
1,109167	0,1	21,946138
1,110833	0,1	22,346356
1,112500	0,1	22,703543
1,114167	0,1	22,894310
1,115833	0,1	23,004642
1,117500	0,1	23,040724
1,119167	0,1	22,953607
1,120833	0,1	22,816503
1,122500	0,1	22,592632
1,124167	0,1	22,306317
1,125833	0,1	21,932536
1,127500	0,1	21,530340
1,129167	0,1	21,084710
1,130833	0,1	20,599340
1,132500	0,1	20,093107
1,134167	0,1	19,471681
1,135833	0,1	18,876527
1,137500	0,1	18,285715
1,139167	0,1	17,678337
1,140833	0,1	17,008174
1,142500	0,1	16,404413
1,144167	0,1	15,772645
1,145833	0,1	15,155599
1,147500	0,1	14,545720
1,149167	0,1	13,956989
1,150833	0,1	13,330718
1,152500	0,1	12,754023
1,154167	0,1	12,238377
1,155833	0,1	11,636436
1,157500	0,1	11,162720
1,159167	0,1	10,645294
1,160833	0,1	10,122980
1,162500	0,1	9,688206
1,164167	0,1	9,250787
1,165833	0,1	8,826111
1,167500	0,1	8,396245
1,169167	0,1	8,002237
1,170833	0,1	7,630065
1,172500	0,1	7,294392
1,174167	0,1	6,924261
1,175833	0,1	6,575879
1,177500	0,1	6,284273
1,179167	0,1	5,993957
1,180833	0,1	5,706758
1,182500	0,1	5,454837
1,184167	0,1	5,194792
1,185833	0,1	4,914001
1,187500	0,1	4,689670
1,189167	0,1	4,487777
1,190833	0,1	4,310484
1,192500	0,1	4,078524
1,194167	0,1	3,926535
1,195833	0,1	3,691308
1,197500	0,1	3,495160
1,199167	0,1	3,384699
1,200833	0,1	3,216992
1,202500	0,1	3,082232
1,204167	0,1	2,958965
1,205833	0,1	2,861113
1,207500	0,1	2,739079
1,209167	0,1	2,615096
1,210833	0,1	2,472495
1,212500	0,1	2,388397
1,214167	0,1	2,308208
1,215833	0,1	2,254178
1,217500	0,1	2,112773
1,219167	0,1	2,036713
1,220833	0,1	1,964847
1,222500	0,1	1,902388
1,224167	0,1	1,808883
1,225833	0,1	1,770346
1,227500	0,1	1,711228
1,229167	0,1	1,649592
1,230833	0,1	1,586107
1,232500	0,1	1,536825
1,234167	0,1	1,473935
1,235833	0,1	1,449568
1,237500	0,1	1,416220
1,239167	0,1	1,391562
1,240833	0,1	1,315204
1,242500	0,1	1,261213
1,244167	0,1	1,264326
1,245833	0,1	1,207205
1,247500	0,1	1,195181
1,249167	0,1	1,107253
1,250833	0,1	1,142556
1,252500	0,1	1,113397
1,254167	0,1	1,097874
1,255833	0,1	1,049057
1,257500	0,1	1,028153
1,259167	0,1	1,012703
1,260833	0,1	0,992919
1,262500	0,1	0,958957
1,264167	0,1	0,908304
1,265833	0,1	0,886896
1,267500	0,1	0,867586
1,269167	0,1	0,876445
1,270833	0,1	0,846625
1,272500	0,1	0,823030
1,274167	0,1	0,834002
1,275833	0,1	0,801636
1,277500	0,1	0,740142
1,279167	0,1	0,760805
1,280833	0,1	0,763835
1,282500	0,1	0,710607
1,284167	0,1	0,695260
1,285833	0,1	0,719505
1,287500	0,1	0,731871
1,289167	0,1	0,631962
1,290833	0,1	0,646584
1,292500	0,1	0,646109
1,294167	0,1	0,650937
1,295833	0,1	0,582745
1,297500	0,1	0,600338
1,299167	0,1	0,593132
1,300833	0,1	0,567631
1,302500	0,1	0,590546
1,304167	0,1	0,550825
1,305833	0,1	0,583652
1,307500	0,1	0,514933
1,309167	0,1	0,520805
1,310833	0,1	0,500012
1,312500	0,1	0,528141
1,314167	0,1	0,525348
1,315833	0,1	0,495734
1,317500	0,1	0,461740
1,319167	0,1	0,413708
1,320833	0,1	0,460910
1,322500	0,1	0,478757
1,324167	0,1	0,456647
1,325833	0,1	0,458573
1,327500	0,1	0,479980
1,329167	0,1	0,437788
1,330833	0,1	0,414798
1,332500	0,1	0,414565
1,334167	0,1	0,405165
1,335833	0,1	0,424833
1,337500	0,1	0,412864
1,339167	0,1	0,420560
1,340833	0,1	0,398348
1,342500	0,1	0,382252
1,344167	0,1	0,358825
1,345833	0,1	0,357533
1,347500	0,1	0,371203
1,349167	0,1	0,393096
1,350833	0,1	0,336875
1,352500	0,1	0,370660
1,354167	0,1	0,332856
1,355833	0,1	0,362513
1,357500	0,1	0,371954
1,359167	0,1	0,385564
1,360833	0,1	0,338804
1,362500	0,1	0,332141
1,364167	0,1	0,359647
1,365833	0,1	0,310847
1,367500	0,1	0,329361
1,369167	0,1	0,357335
1,370833	0,1	0,302091
1,372500	0,1	0,346062
1,374167	0,1	0,317568
1,375833	0,1	0,320588
1,377500	0,1	0,331456
1,379167	0,1	0,301984
1,380833	0,1	0,336184
1,382500	0,1	0,306274
1,384167	0,1	0,320424
1,385833	0,1	0,296935
1,387500	0,1	0,285674
1,389167	0,1	0,305355
1,390833	0,1	0,278788
1,392500	0,1	0,311545
1,394167	0,1	0,314127
1,395833	0,1	0,283066
1,397500	0,1	0,267225
1,399167	0,1	0,299760
1,400833	0,1	0,301406
1,402500	0,1	0,301751
1,404167	0,1	0,232007
1,405833	0,1	0,283942
1,407500	0,1	0,271350
1,409167	0,1	0,258214
1,410833	0,1	0,255992
1,412500	0,1	0,233864
1,414167	0,1	0,275238
1,415833	0,1	0,231961
1,417500	0,1	0,276133
1,419167	0,1	0,247214
1,420833	0,1	0,242680
1,422500	0,1	0,270496
1,424167	0,1	0,241588
1,425833	0,1	0,268905
1,427500	0,1	0,244804
1,429167	0,1	0,234504
1,430833	0,1	0,265524
1,432500	0,1	0,240980
1,434167	0,1	0,248366
1,435833	0,1	0,269450
1,437500	0,1	0,215398
1,439167	0,1	0,222185
1,440833	0,1	0,226261
1,442500	0,1	0,254154
1,444167	0,1	0,214725
1,445833	0,1	0,251932
1,447500	0,1	0,235023
1,449167	0,1	0,253425
1,450833	0,1	0,199185
1,452500	0,1	0,250263
1,454167	0,1	0,246375
1,455833	0,1	0,196647
1,457500	0,1	0,234367
1,459167	0,1	0,216362
1,460833	0,1	0,224052
1,462500	0,1	0,257094
1,464167	0,1	0,203689
1,465833	0,1	0,211748
1,467500	0,1	0,216419
1,469167	0,1	0,231444
1,470833	0,1	0,250812
1,472500	0,1	0,247247
1,474167	0,1	0,255106
1,475833	0,1	0,228087
1,477500	0,1	0,212915
1,479167	0,1	0,267184
1,480833	0,1	0,242622
1,482500	0,1	0,249693
1,484167	0,1	0,222053
1,485833	0,1	0,197081
1,487500	0,1	0,224528
1,489167	0,1	0,245437
1,490833	0,1	0,276879
1,492500	0,1	0,273191
1,494167	0,1	0,244162
1,495833	0,1	0,245024
1,497500	0,1	0,266233
1,499167	0,1	0,256965
1,500833	0,1	0,229195
1,502500	0,1	0,234412
1,504167	0,1	0,234704
1,505833	0,1	0,245566
1,507500	0,1	0,254513
1,509167	0,1	0,228338
1,510833	0,1	0,225493
1,512500	0,1	0,241411
1,514167	0,1	0,240685
1,515833	0,1	0,266394
1,517500	0,1	0,267675
1,519167	0,1	0,242419
1,520833	0,1	0,229685
1,522500	0,1	0,240745
1,524167	0,1	0,247573
1,525833	0,1	0,240710
1,527500	0,1	0,242122
1,529167	0,1	0,223112
1,530833	0,1	0,220345
1,532500	0,1	0,250457
1,534167	0,1	0,212365
1,535833	0,1	0,220946
1,537500	0,1	0,258656
1,539167	0,1	0,224831
1,540833	0,1	0,256676
1,542500	0,1	0,196157
1,544167	0,1	0,208695
1,545833	0,1	0,204155
1,547500	0,1	0,215508
1,549167	0,1	0,249597
1,550833	0,1	0,214764
1,552500	0,1	0,184417
1,554167	0,1	0,216476
1,555833	0,1	0,222562
1,557500	0,1	0,203655
1,559167	0,1	0,195351
1,560833	0,1	0,229131
1,562500	0,1	0,186375
1,564167	0,1	0,190743
1,565833	0,1	0,206473
1,567500	0,1	0,191602
1,569167	0,1	0,212263
1,570833	0,1	0,216128
1,572500	0,1	0,156034
1,574167	0,1	0,198518
1,575833	0,1	0,172692
1,577500	0,1	0,167728
1,579167	0,1	0,154572
1,580833	0,1	0,175563
1,582500	0,1	0,162686
1,584167	0,1	0,137098
1,585833	0,1	0,136324
1,587500	0,1	0,195249
1,589167	0,1	0,153661
1,590833	0,1	0,143609
1,592500	0,1	0,186041
1,594167	0,1	0,155053
1,595833	0,1	0,169403
1,597500	0,1	0,188266
1,599167	0,1	0,130919
1,600833	0,1	0,168481
1,602500	0,1	0,169673
1,604167	0,1	0,107054
1,605833	0,1	0,162457
1,607500	0,1	0,157206
1,609167	0,1	0,170502
1,610833	0,1	0,213356
1,612500	0,1	0,152653
1,614167	0,1	0,185965
1,615833	0,1	0,217826
1,617500	0,1	0,189212
1,619167	0,1	0,211407
1,620833	0,1	0,241839
1,622500	0,1	0,259142
1,624167	0,1	0,280316
1,625833	0,1	0,291841
1,627500	0,1	0,294442
1,629167	0,1	0,307313
1,630833	0,1	0,307027
1,632500	0,1	0,376891
1,634167	0,1	0,414040
1,635833	0,1	0,458723
1,637500	0,1	0,516606
1,639167	0,1	0,596364
1,640833	0,1	0,617827
1,642500	0,1	0,705673
1,644167	0,1	0,841680
1,645833	0,1	0,883211
1,647500	0,1	1,025156
1,649167	0,1	1,168170
1,650833	0,1	1,288504
1,652500	0,1	1,445858
1,654167	0,1	1,622985
1,655833	0,1	1,826826
1,657500	0,1	2,011527
1,659167	0,1	2,242399
1,660833	0,1	2,497415
1,662500	0,1	2,774011
1,664167	0,1	3,102504
1,665833	0,1	3,424313
1,667500	0,1	3,840245
1,669167	0,1	4,207238
1,670833	0,1	4,668038
1,672500	0,1	5,103281
1,674167	0,1	5,673987
1,675833	0,1	6,193448
1,677500	0,1	6,758065
1,679167	0,1	7,377342
1,680833	0,1	8,101726
1,682500	0,1	8,808653
1,684167	0,1	9,594675
1,685833	0,1	10,395232
1,687500	0,1	11,269329
1,689167	0,1	12,166247
1,690833	0,1	13,066832
1,692500	0,1	14,098844
1,694167	0,1	15,144659
1,695833	0,1	16,237644
1,697500	0,1	17,394706
1,699167	0,1	18,576008
1,700833	0,1	19,810594
1,702500	0,1	21,091736
1,704167	0,1	22,394576
1,705833	0,1	23,748872
1,707500	0,1	25,160114
1,709167	0,1	26,563634
1,710833	0,1	28,050588
1,712500	0,1	29,506517
1,714167	0,1	31,045438
1,715833	0,1	32,549561
1,717500	0,1	34,135463
1,719167	0,1	35,693778
1,720833	0,1	37,293913
1,722500	0,1	38,884721
1,724167	0,1	40,442658
1,725833	0,1	42,070034
1,727500	0,1	43,684905
1,729167	0,1	45,279181
1,730833	0,1	46,889881
1,732500	0,1	48,404525
1,734167	0,1	49,964222
1,735833	0,1	51,459454
1,737500	0,1	53,050554
1,739167	0,1	54,481653
1,740833	0,1	55,935583
1,742500	0,1	57,314048
1,744167	0,1	58,691208
1,745833	0,1	59,900348
1,747500	0,1	61,237891
1,749167	0,1	62,410085
1,750833	0,1	63,588006
1,752500	0,1	64,729122
1,754167	0,1	65,738929
1,755833	0,1	66,749151
1,757500	0,1	67,699846
1,759167	0,1	68,554699
1,760833	0,1	69,359720
1,762500	0,1	70,099213
1,764167	0,1	70,751943
1,765833	0,1	71,386540
1,767500	0,1	71,890183
1,769167	0,1	72,327931
1,770833	0,1	72,786566
1,772500	0,1	73,064288
1,774167	0,1	73,361426
1,775833	0,1	73,537771
1,777500	0,1	73,652719
1,779167	0,1	73,719945
1,780833	0,1	73,706246
1,782500	0,1	73,630029
1,784167	0,1	73,489043
1,785833	0,1	73,306337
1,787500	0,1	73,081775
1,789167	0,1	72,718999
1,790833	0,1	72,340772
1,792500	0,1	71,897942
1,794167	0,1	71,432821
1,795833	0,1	70,952057
1,797500	0,1	70,379956
1,799167	0,1	69,694776
1,800833	0,1	69,044133
1,802500	0,1	68,347421
1,804167	0,1	67,622014
1,805833	0,1	66,807757
1,807500	0,1	65,970469
1,809167	0,1	65,157026
1,810833	0,1	64,258028
1,812500	0,1	63,374518
1,814167	0,1	62,389092
1,815833	0,1	61,485918
1,817500	0,1	60,465516
1,819167	0,1	59,511212
1,820833	0,1	58,517404
1,822500	0,1	57,435215
1,824167	0,1	56,376884
1,825833	0,1	55,352759
1,827500	0,1	54,276407
1,829167	0,1	53,276729
1,830833	0,1	52,174490
1,832500	0,1	51,099198
1,834167	0,1	50,044275
1,835833	0,1	48,990383
1,837500	0,1	47,901203
1,839167	0,1	46,851231
1,840833	0,1	45,800375
1,842500	0,1	44,705044
1,844167	0,1	43,684382
1,845833	0,1	42,649700
1,847500	0,1	41,635860
1,849167	0,1	40,631419
1,850833	0,1	39,618104
1,852500	0,1	38,600574
1,854167	0,1	37,671280
1,855833	0,1	36,692914
1,857500	0,1	35,722318
1,859167	0,1	34,824991
1,860833	0,1	33,931092
1,862500	0,1	33,035400
1,864167	0,1	32,120284
1,865833	0,1	31,249983
1,867500	0,1	30,416236
1,869167	0,1	29,591550
1,870833	0,1	28,730602
1,872500	0,1	27,979932
1,874167	0,1	27,207531
1,875833	0,1	26,399490
1,877500	0,1	25,711706
1,879167	0,1	24,973519
1,880833	0,1	24,249923
1,882500	0,1	23,605100
1,884167	0,1	22,928061
1,885833	0,1	22,310714
1,887500	0,1	21,613454
1,889167	0,1	20,997315
1,890833	0,1	20,444268
1,892500	0,1	19,837489
1,894167	0,1	19,287910
1,895833	0,1	18,732015
1,897500	0,1	18,154320
1,899167	0,1	17,642385
1,900833	0,1	17,159503
1,902500	0,1	16,613296
1,904167	0,1	16,155751
1,905833	0,1	15,662440
1,907500	0,1	15,251872
1,909167	0,1	14,769015
1,910833	0,1	14,386572
1,912500	0,1	13,969010
1,914167	0,1	13,559342
1,915833	0,1	13,169052
1,917500	0,1	12,800788
1,919167	0,1	12,434056
1,920833	0,1	12,064269
1,922500	0,1	11,736141
1,924167	0,1	11,391726
1,925833	0,1	11,053635
1,927500	0,1	10,763844
1,929167	0,1	10,462758
1,930833	0,1	10,181397
1,932500	0,1	9,894310
1,934167	0,1	9,596896
1,935833	0,1	9,268185
1,937500	0,1	9,057020
1,939167	0,1	8,787403
1,940833	0,1	8,586241
1,942500	0,1	8,301198
1,944167	0,1	8,062296
1,945833	0,1	7,866970
1,947500	0,1	7,636203
1,949167	0,1	7,435299
1,950833	0,1	7,257079
1,952500	0,1	7,040849
1,954167	0,1	6,845993
1,955833	0,1	6,658406
1,957500	0,1	6,467083
1,959167	0,1	6,358626
1,960833	0,1	6,158237
1,962500	0,1	5,969783
1,964167	0,1	5,819095
1,965833	0,1	5,700394
1,967500	0,1	5,521690
1,969167	0,1	5,392717
1,970833	0,1	5,232244
1,972500	0,1	5,148397
1,974167	0,1	5,009432
1,975833	0,1	4,913768
1,977500	0,1	4,787051
1,979167	0,1	4,675162
1,980833	0,1	4,575580
1,982500	0,1	4,421087
1,984167	0,1	4,325730
1,985833	0,1	4,220630
1,987500	0,1	4,123256
1,989167	0,1	4,027415
1,990833	0,1	3,991458
1,992500	0,1	3,860904
1,994167	0,1	3,819164
1,995833	0,1	3,689415
1,997500	0,1	3,609574
1,999167	0,1	3,544175
2,000833	0,1	3,472151
2,002500	0,1	3,433948
2,004167	0,1	3,340585
2,005833	0,1	3,309932
2,007500	0,1	3,244640
2,009167	0,1	3,161195
2,010833	0,1	3,072656
2,012500	0,1	3,043494
2,014167	0,1	3,009772
2,015833	0,1	2,915933
2,017500	0,1	2,901234
2,019167	0,1	2,868293
2,020833	0,1	2,808591
2,022500	0,1	2,724776
2,024167	0,1	2,722647
2,025833	0,1	2,660180
2,027500	0,1	2,644852
2,029167	0,1	2,564192
2,030833	0,1	2,551383
2,032500	0,1	2,564749
2,034167	0,1	2,495834
2,035833	0,1	2,444942
2,037500	0,1	2,432285
2,039167	0,1	2,430988
2,040833	0,1	2,414098
2,042500	0,1	2,358785
2,044167	0,1	2,309855
2,045833	0,1	2,290879
2,047500	0,1	2,223149
2,049167	0,1	2,253151
2,050833	0,1	2,225509
2,052500	0,1	2,184641
2,054167	0,1	2,158709
2,055833	0,1	2,172131
2,057500	0,1	2,165600
2,059167	0,1	2,120507
2,060833	0,1	2,085024
2,062500	0,1	2,075329
2,064167	0,1	2,053637
2,065833	0,1	2,079631
2,067500	0,1	2,008781
2,069167	0,1	2,050402
2,070833	0,1	2,028659
2,072500	0,1	1,998223
2,074167	0,1	1,976895
2,075833	0,1	1,958874
2,077500	0,1	1,985206
2,079167	0,1	1,977104
2,080833	0,1	1,997856
2,082500	0,1	1,976969
2,084167	0,1	1,961679
2,085833	0,1	1,940072
2,087500	0,1	1,940203
2,089167	0,1	1,933385
2,090833	0,1	1,900244
2,092500	0,1	1,852364
2,094167	0,1	1,890181
2,095833	0,1	1,854798
2,097500	0,1	1,873307
2,099167	0,1	1,846188
2,100833	0,1	1,835701
2,102500	0,1	1,823499
2,104167	0,1	1,867852
2,105833	0,1	1,798970
2,107500	0,1	1,833402
2,109167	0,1	1,809948
2,110833	0,1	1,835342
2,112500	0,1	1,775081
2,114167	0,1	1,806136
2,115833	0,1	1,789565
2,117500	0,1	1,771186
2,119167	0,1	1,747799
2,120833	0,1	1,721045
2,122500	0,1	1,777853
2,124167	0,1	1,771420
2,125833	0,1	1,697215
2,127500	0,1	1,759473
2,129167	0,1	1,709002
2,130833	0,1	1,707688
2,132500	0,1	1,692125
2,134167	0,1	1,680146
2,135833	0,1	1,661411
2,137500	0,1	1,655389
2,139167	0,1	1,635945
2,140833	0,1	1,669237
2,142500	0,1	1,671758
2,144167	0,1	1,623695
2,145833	0,1	1,602167
2,147500	0,1	1,621455
2,149167	0,1	1,611986
2,150833	0,1	1,622679
2,152500	0,1	1,568676
2,154167	0,1	1,553889
2,155833	0,1	1,587386
2,157500	0,1	1,542977
2,159167	0,1	1,523072
2,160833	0,1	1,506331
2,162500	0,1	1,513781
2,164167	0,1	1,531507
2,165833	0,1	1,476430
2,167500	0,1	1,500594
2,169167	0,1	1,498184
2,170833	0,1	1,493872
2,172500	0,1	1,466538
2,174167	0,1	1,463842
2,175833	0,1	1,467958
2,177500	0,1	1,415716
2,179167	0,1	1,393565
2,180833	0,1	1,424153
2,182500	0,1	1,450778
2,184167	0,1	1,412432
2,185833	0,1	1,345287
2,187500	0,1	1,401408
2,189167	0,1	1,339513
2,190833	0,1	1,351973
2,192500	0,1	1,346408
2,194167	0,1	1,375942
2,195833	0,1	1,309854
2,197500	0,1	1,300350
2,199167	0,1	1,298633
2,200833	0,1	1,294253
2,202500	0,1	1,277908
2,204167	0,1	1,288056
2,205833	0,1	1,279030
2,207500	0,1	1,287412
2,209167	0,1	1,266690
2,210833	0,1	1,241007
2,212500	0,1	1,219979
2,214167	0,1	1,230206
2,215833	0,1	1,243460
2,217500	0,1	1,168625
2,219167	0,1	1,170254
2,220833	0,1	1,168541
2,222500	0,1	1,171409
2,224167	0,1	1,133680
2,225833	0,1	1,150344
2,227500	0,1	1,172225
2,229167	0,1	1,121676
2,230833	0,1	1,115661
2,232500	0,1	1,084471
2,234167	0,1	1,110470
2,235833	0,1	1,123350
2,237500	0,1	1,117747
2,239167	0,1	1,078336
2,240833	0,1	1,033715
2,242500	0,1	1,089164
2,244167	0,1	1,035385
2,245833	0,1	1,053711
2,247500	0,1	1,004597
2,249167	0,1	1,034388
2,250833	0,1	1,007012
2,252500	0,1	1,007006
2,254167	0,1	0,983538
2,255833	0,1	0,986575
2,257500	0,1	1,007158
2,259167	0,1	0,980227
2,260833	0,1	0,922443
2,262500	0,1	0,961319
2,264167	0,1	0,954173
2,265833	0,1	0,925527
2,267500	0,1	0,933362
2,269167	0,1	0,888676
2,270833	0,1	0,897465
2,272500	0,1	0,931422
2,274167	0,1	0,914781
2,275833	0,1	0,874299
2,277500	0,1	0,883403
2,279167	0,1	0,895896
2,280833	0,1	0,880225
2,282500	0,1	0,882576
2,284167	0,1	0,883785
2,285833	0,1	0,863050
2,287500	0,1	0,870736
2,289167	0,1	0,815211
2,290833	0,1	0,852947
2,292500	0,1	0,844411
2,294167	0,1	0,827867
2,295833	0,1	0,806723
2,297500	0,1	0,790267
2,299167	0,1	0,855677
2,300833	0,1	0,828343
2,302500	0,1	0,806144
2,304167	0,1	0,779400
2,305833	0,1	0,744170
2,307500	0,1	0,742099
2,309167	0,1	0,774977
2,310833	0,1	0,737429
2,312500	0,1	0,780933
2,314167	0,1	0,745029
2,315833	0,1	0,760554
2,317500	0,1	0,746089
2,319167	0,1	0,768984
2,320833	0,1	0,733049
2,322500	0,1	0,715722
2,324167	0,1	0,729201
2,325833	0,1	0,700002
2,327500	0,1	0,709780
2,329167	0,1	0,715421
2,330833	0,1	0,695230
2,332500	0,1	0,665441
2,334167	0,1	0,639318
2,335833	0,1	0,685935
2,337500	0,1	0,684435
2,339167	0,1	0,659541
2,340833	0,1	0,658024
2,342500	0,1	0,623569
2,344167	0,1	0,644654
2,345833	0,1	0,621541
2,347500	0,1	0,654504
2,349167	0,1	0,675250
2,350833	0,1	0,637514
2,352500	0,1	0,647873
2,354167	0,1	0,607824
2,355833	0,1	0,638048
2,357500	0,1	0,608593
2,359167	0,1	0,615733
2,360833	0,1	0,620019
2,362500	0,1	0,603954
2,364167	0,1	0,597866
2,365833	0,1	0,574104
2,367500	0,1	0,644638
2,369167	0,1	0,626080
2,370833	0,1	0,579679
2,372500	0,1	0,583339
2,374167	0,1	0,580539
2,375833	0,1	0,587235
2,377500	0,1	0,556717
2,379167	0,1	0,575863
2,380833	0,1	0,580183
2,382500	0,1	0,566952
2,384167	0,1	0,526838
2,385833	0,1	0,555093
2,387500	0,1	0,538905
2,389167	0,1	0,529214
2,390833	0,1	0,551102
2,392500	0,1	0,540548
2,394167	0,1	0,528570
2,395833	0,1	0,548333
2,397500	0,1	0,499375
2,399167	0,1	0,531007
2,400833	0,1	0,525219
2,402500	0,1	0,526700
2,404167	0,1	0,529919
2,405833	0,1	0,534651
2,407500	0,1	0,498891
2,409167	0,1	0,471265
2,410833	0,1	0,499004
2,412500	0,1	0,498110
2,414167	0,1	0,490350
2,415833	0,1	0,477377
2,417500	0,1	0,514937
2,419167	0,1	0,473812
2,420833	0,1	0,494594
2,422500	0,1	0,484523
2,424167	0,1	0,491023
2,425833	0,1	0,445028
2,427500	0,1	0,454736
2,429167	0,1	0,476209
2,430833	0,1	0,485745
2,432500	0,1	0,444191
2,434167	0,1	0,432822
2,435833	0,1	0,449780
2,437500	0,1	0,455804
2,439167	0,1	0,429670
2,440833	0,1	0,458083
2,442500	0,1	0,429995
2,444167	0,1	0,431728
2,445833	0,1	0,433363
2,447500	0,1	0,416084
2,449167	0,1	0,427571
2,450833	0,1	0,433431
2,452500	0,1	0,464361
2,454167	0,1	0,389157
2,455833	0,1	0,442724
2,457500	0,1	0,407725
2,459167	0,1	0,413892
2,460833	0,1	0,405879
2,462500	0,1	0,387821
2,464167	0,1	0,414206
2,465833	0,1	0,409161
2,467500	0,1	0,405234
2,469167	0,1	0,412279
2,470833	0,1	0,385185
2,472500	0,1	0,397280
2,474167	0,1	0,394064
2,475833	0,1	0,370730
2,477500	0,1	0,375719
2,479167	0,1	0,351419
2,480833	0,1	0,354342
2,482500	0,1	0,400588
2,484167	0,1	0,409576
2,485833	0,1	0,397319
2,487500	0,1	0,354615
2,489167	0,1	0,389549
2,490833	0,1	0,379776
2,492500	0,1	0,391972
2,494167	0,1	0,375661
2,495833	0,1	0,381667
2,497500	0,1	0,344052
2,499167	0,1	0,388132
2,500833	0,1	0,398665
2,502500	0,1	0,339878
2,504167	0,1	0,359204
2,505833	0,1	0,361495
2,507500	0,1	0,365645
2,509167	0,1	0,361070
2,510833	0,1	0,369599
2,512500	0,1	0,355088
2,514167	0,1	0,387173
2,515833	0,1	0,382803
2,517500	0,1	0,312809
2,519167	0,1	0,335534
2,520833	0,1	0,316332
2,522500	0,1	0,329181
2,524167	0,1	0,368241
2,525833	0,1	0,356828
2,527500	0,1	0,332498
2,529167	0,1	0,342309
2,530833	0,1	0,319107
2,532500	0,1	0,317298
2,534167	0,1	0,367086
2,535833	0,1	0,345408
2,537500	0,1	0,348067
2,539167	0,1	0,332568
2,540833	0,1	0,342626
2,542500	0,1	0,346554
2,544167	0,1	0,328054
2,545833	0,1	0,324480
2,547500	0,1	0,316466
2,549167	0,1	0,334520
2,550833	0,1	0,334740
2,552500	0,1	0,347005
2,554167	0,1	0,330856
2,555833	0,1	0,336933
2,557500	0,1	0,325795
2,559167	0,1	0,361487
2,560833	0,1	0,334629
2,562500	0,1	0,321679
2,564167	0,1	0,366081
2,565833	0,1	0,283875
2,567500	0,1	0,343449
2,569167	0,1	0,349036
2,570833	0,1	0,361654
2,572500	0,1	0,317825
2,574167	0,1	0,405057
2,575833	0,1	0,377820
2,577500	0,1	0,337743
2,579167	0,1	0,360682
2,580833	0,1	0,350780
2,582500	0,1	0,355862
2,584167	0,1	0,374717
2,585833	0,1	0,372113
2,587500	0,1	0,360372
2,589167	0,1	0,344336
2,590833	0,1	0,372948
2,592500	0,1	0,361172
2,594167	0,1	0,364196
2,595833	0,1	0,379579
2,597500	0,1	0,371733
2,599167	0,1	0,358116
2,600833	0,1	0,380764
2,602500	0,1	0,372567
2,604167	0,1	0,398761
2,605833	0,1	0,355251
2,607500	0,1	0,385976
2,609167	0,1	0,389097
2,610833	0,1	0,364873
2,612500	0,1	0,385851
2,614167	0,1	0,370537
2,615833	0,1	0,420580
2,617500	0,1	0,400088
2,619167	0,1	0,393747
2,620833	0,1	0,365518
2,622500	0,1	0,359693
2,624167	0,1	0,380603
2,625833	0,1	0,402173
2,627500	0,1	0,409385
2,629167	0,1	0,368451
2,630833	0,1	0,368822
2,632500	0,1	0,371468
2,634167	0,1	0,376363
2,635833	0,1	0,360500
2,637500	0,1	0,390865
2,639167	0,1	0,373786
2,640833	0,1	0,393415
2,642500	0,1	0,410188
2,644167	0,1	0,432719
2,645833	0,1	0,384637
2,647500	0,1	0,397088
2,649167	0,1	0,380767
2,650833	0,1	0,430556
2,652500	0,1	0,393945
2,654167	0,1	0,386565
2,655833	0,1	0,407967
2,657500	0,1	0,406302
2,659167	0,1	0,380585
2,660833	0,1	0,424988
2,662500	0,1	0,374636
2,664167	0,1	0,373109
2,665833	0,1	0,411181
2,667500	0,1	0,392915
2,669167	0,1	0,368065
2,670833	0,1	0,411086
2,672500	0,1	0,368515
2,674167	0,1	0,332111
2,675833	0,1	0,403482
2,677500	0,1	0,385253
2,679167	0,1	0,385403
2,680833	0,1	0,353579
2,682500	0,1	0,371944
2,684167	0,1	0,399885
2,685833	0,1	0,377366
2,687500	0,1	0,399017
2,689167	0,1	0,371285
2,690833	0,1	0,353513
2,692500	0,1	0,368437
2,694167	0,1	0,378582
2,695833	0,1	0,395488
2,697500	0,1	0,372025
2,699167	0,1	0,345181
2,700833	0,1	0,377607
2,702500	0,1	0,343633
2,704167	0,1	0,337579
2,705833	0,1	0,375166
2,707500	0,1	0,364001
2,709167	0,1	0,387336
2,710833	0,1	0,357251
2,712500	0,1	0,353192
2,714167	0,1	0,357179
2,715833	0,1	0,369760
2,717500	0,1	0,370698
2,719167	0,1	0,336010
2,720833	0,1	0,390329
2,722500	0,1	0,341642
2,724167	0,1	0,331987
2,725833	0,1	0,333100
2,727500	0,1	0,334850
2,729167	0,1	0,383595
2,730833	0,1	0,365968
2,732500	0,1	0,361750
2,734167	0,1	0,320462
2,735833	0,1	0,350926
2,737500	0,1	0,357975
2,739167	0,1	0,379641
2,740833	0,1	0,393259
2,742500	0,1	0,331990
2,744167	0,1	0,339091
2,745833	0,1	0,375195
2,747500	0,1	0,357219
2,749167	0,1	0,354060
2,750833	0,1	0,403876
2,752500	0,1	0,334630
2,754167	0,1	0,379183
2,755833	0,1	0,334370
2,757500	0,1	0,379924
2,759167	0,1	0,350205
2,760833	0,1	0,380826
2,762500	0,1	0,383797
2,764167	0,1	0,333655
2,765833	0,1	0,386333
2,767500	0,1	0,382759
2,769167	0,1	0,359561
2,770833	0,1	0,378998
2,772500	0,1	0,383890
2,774167	0,1	0,332051
2,775833	0,1	0,380406
2,777500	0,1	0,370311
2,779167	0,1	0,372663
2,780833	0,1	0,376936
2,782500	0,1	0,415205
2,784167	0,1	0,412867
2,785833	0,1	0,352362
2,787500	0,1	0,450856
2,789167	0,1	0,426420
2,790833	0,1	0,386764
2,792500	0,1	0,391133
2,794167	0,1	0,402755
2,795833	0,1	0,378747
2,797500	0,1	0,424663
2,799167	0,1	0,424483
2,800833	0,1	0,434526
2,802500	0,1	0,410680
2,804167	0,1	0,442310
2,805833	0,1	0,416156
2,807500	0,1	0,411927
2,809167	0,1	0,419847
2,810833	0,1	0,434716
2,812500	0,1	0,459855
2,814167	0,1	0,424394
2,815833	0,1	0,411646
2,817500	0,1	0,450326
2,819167	0,1	0,411264
2,820833	0,1	0,459205
2,822500	0,1	0,402219
2,824167	0,1	0,436579
2,825833	0,1	0,390112
2,827500	0,1	0,437835
2,829167	0,1	0,393558
2,830833	0,1	0,425252
2,832500	0,1	0,433042
2,834167	0,1	0,441771
2,835833	0,1	0,428768
2,837500	0,1	0,459694
2,839167	0,1	0,417086
2,840833	0,1	0,457472
2,842500	0,1	0,425617
2,844167	0,1	0,425737
2,845833	0,1	0,439287
2,847500	0,1	0,448238
2,849167	0,1	0,430670
2,850833	0,1	0,445761
2,852500	0,1	0,420562
2,854167	0,1	0,406333
2,855833	0,1	0,422420
2,857500	0,1	0,400443
2,859167	0,1	0,434456
2,860833	0,1	0,379787
2,862500	0,1	0,414371
2,864167	0,1	0,402794
2,865833	0,1	0,412992
2,867500	0,1	0,416079
2,869167	0,1	0,391240
2,870833	0,1	0,400017
2,872500	0,1	0,405301
2,874167	0,1	0,407807
2,875833	0,1	0,377820
2,877500	0,1	0,383635
2,879167	0,1	0,359469
2,880833	0,1	0,358566
2,882500	0,1	0,366126
2,884167	0,1	0,380448
2,885833	0,1	0,391939
2,887500	0,1	0,352464
2,889167	0,1	0,340409
2,890833	0,1	0,388809
2,892500	0,1	0,300774
2,894167	0,1	0,345418
2,895833	0,1	0,335940
2,897500	0,1	0,354309
2,899167	0,1	0,313065
2,900833	0,1	0,311632
2,902500	0,1	0,336250
2,904167	0,1	0,341340
2,905833	0,1	0,321392
2,907500	0,1	0,285073
2,909167	0,1	0,346802
2,910833	0,1	0,295717
2,912500	0,1	0,311701
2,914167	0,1	0,319328
2,915833	0,1	0,305525
2,917500	0,1	0,277158
2,919167	0,1	0,279172
2,920833	0,1	0,329071
2,922500	0,1	0,294209
2,924167	0,1	0,299222
2,925833	0,1	0,296385
2,927500	0,1	0,265980
2,929167	0,1	0,274247
2,930833	0,1	0,276534
2,932500	0,1	0,274857
2,934167	0,1	0,305363
2,935833	0,1	0,256016
2,937500	0,1	0,228691
2,939167	0,1	0,253298
2,940833	0,1	0,258538
2,942500	0,1	0,298443
2,944167	0,1	0,265350
2,945833	0,1	0,244197
2,947500	0,1	0,261855
2,949167	0,1	0,248321
2,950833	0,1	0,245771
2,952500	0,1	0,217400
2,954167	0,1	0,199731
2,955833	0,1	0,211661
2,957500	0,1	0,216771
2,959167	0,1	0,227952
2,960833	0,1	0,199822
2,962500	0,1	0,202592
2,964167	0,1	0,244510
2,965833	0,1	0,210423
2,967500	0,1	0,197282
2,969167	0,1	0,185056
2,970833	0,1	0,219063
2,972500	0,1	0,226854
2,974167	0,1	0,228534
2,975833	0,1	0,171721
2,977500	0,1	0,203266
2,979167	0,1	0,204106
2,980833	0,1	0,229133
2,982500	0,1	0,206482
2,984167	0,1	0,222991
2,985833	0,1	0,196227
2,987500	0,1	0,232599
2,989167	0,1	0,196370
2,990833	0,1	0,206514
2,992500	0,1	0,226875
2,994167	0,1	0,243457
2,995833	0,1	0,195322
2,997500	0,1	0,231376
2,999167	0,1	0,206585
3,000833	0,1	0,190104
3,002500	0,1	0,211093
3,004167	0,1	0,241965
3,005833	0,1	0,239877
3,007500	0,1	0,235512
3,009167	0,1	0,212791
3,010833	0,1	0,211813
3,012500	0,1	0,267121
3,014167	0,1	0,249320
3,015833	0,1	0,222130
3,017500	0,1	0,235925
3,019167	0,1	0,268323
3,020833	0,1	0,243404
3,022500	0,1	0,248469
3,024167	0,1	0,253037
3,025833	0,1	0,229851
3,027500	0,1	0,245640
3,029167	0,1	0,227756
3,030833	0,1	0,281316
3,032500	0,1	0,251076
3,034167	0,1	0,225018
3,035833	0,1	0,235597
3,037500	0,1	0,254271
3,039167	0,1	0,247726
3,040833	0,1	0,254009
3,042500	0,1	0,272326
3,044167	0,1	0,257836
3,045833	0,1	0,284667
3,047500	0,1	0,265788
3,049167	0,1	0,232490
3,050833	0,1	0,268740
3,052500	0,1	0,260282
3,054167	0,1	0,261895
3,055833	0,1	0,247602
3,057500	0,1	0,250527
3,059167	0,1	0,275910
3,060833	0,1	0,223071
3,062500	0,1	0,240226
3,064167	0,1	0,255546
3,065833	0,1	0,252724
3,067500	0,1	0,294961
3,069167	0,1	0,225735
3,070833	0,1	0,264511
3,072500	0,1	0,243138
3,074167	0,1	0,207960
3,075833	0,1	0,249204
3,077500	0,1	0,273891
3,079167	0,1	0,240087
3,080833	0,1	0,241806
3,082500	0,1	0,282353
3,084167	0,1	0,271942
3,085833	0,1	0,239986
3,087500	0,1	0,241454
3,089167	0,1	0,286178
3,090833	0,1	0,234817
3,092500	0,1	0,270469
3,094167	0,1	0,223925
3,095833	0,1	0,254355
3,097500	0,1	0,225914
3,099167	0,1	0,252136
3,100833	0,1	0,238114
3,102500	0,1	0,238943
3,104167	0,1	0,221876
3,105833	0,1	0,214820
3,107500	0,1	0,230196
3,109167	0,1	0,242965
3,110833	0,1	0,244874
3,112500	0,1	0,220450
3,114167	0,1	0,203946
3,115833	0,1	0,204357
3,117500	0,1	0,229550
3,119167	0,1	0,199383
3,120833	0,1	0,177604
3,122500	0,1	0,196443
3,124167	0,1	0,230166
3,125833	0,1	0,254104
3,127500	0,1	0,208606
3,129167	0,1	0,196035
3,130833	0,1	0,200621
3,132500	0,1	0,216062
3,134167	0,1	0,186388
3,135833	0,1	0,207758
3,137500	0,1	0,212244
3,139167	0,1	0,219196
3,140833	0,1	0,222085
3,142500	0,1	0,162735
3,144167	0,1	0,173782
3,145833	0,1	0,191132
3,147500	0,1	0,188939
3,149167	0,1	0,151399
3,150833	0,1	0,197142
3,152500	0,1	0,189411
3,154167	0,1	0,148513
3,155833	0,1	0,207789
3,157500	0,1	0,214628
3,159167	0,1	0,166133
3,160833	0,1	0,131369
3,162500	0,1	0,161280
3,164167	0,1	0,151017
3,165833	0,1	0,184355
3,167500	0,1	0,130519
3,169167	0,1	0,146837
3,170833	0,1	0,159149
3,172500	0,1	0,173320
3,174167	0,1	0,108880
3,175833	0,1	0,130939
3,177500	0,1	0,125655
3,179167	0,1	0,150570
3,180833	0,1	0,157550
3,182500	0,1	0,136802
3,184167	0,1	0,135034
3,185833	0,1	0,133935
3,187500	0,1	0,127354
3,189167	0,1	0,161216
3,190833	0,1	0,156927
3,192500	0,1	0,137338
3,194167	0,1	0,122584
3,195833	0,1	0,142374
3,197500	0,1	0,086216
3,199167	0,1	0,104274
3,200833	0,1	0,144675
3,202500	0,1	0,108186
3,204167	0,1	0,130194
3,205833	0,1	0,124616
3,207500	0,1	0,104945
3,209167	0,1	0,127889
3,210833	0,1	0,085921
3,212500	0,1	0,111099
3,214167	0,1	0,047392
3,215833	0,1	0,140676
3,217500	0,1	0,109534
3,219167	0,1	0,087183
3,220833	0,1	0,121760
3,222500	0,1	0,066314
3,224167	0,1	0,158253
3,225833	0,1	0,102526
3,227500	0,1	0,103218
3,229167	0,1	0,084048
3,230833	0,1	0,110062
3,232500	0,1	0,082806
3,234167	0,1	0,109481
3,235833	0,1	0,080502
3,237500	0,1	0,144520
3,239167	0,1	0,110407
3,240833	0,1	0,090481
3,242500	0,1	0,104626
3,244167	0,1	0,101788
3,245833	0,1	0,076517
3,247500	0,1	0,070247
3,249167	0,1	0,089808
3,250833	0,1	0,125932
3,252500	0,1	0,091357
3,254167	0,1	0,097013
3,255833	0,1	0,073923
3,257500	0,1	0,096408
3,259167	0,1	0,042284
3,260833	0,1	0,071732
3,262500	0,1	0,092339
3,264167	0,1	0,086825
3,265833	0,1	0,076805
3,267500	0,1	0,098358
3,269167	0,1	0,094980
3,270833	0,1	0,065106
3,272500	0,1	0,094080
3,274167	0,1	0,068902
3,275833	0,1	0,073749
3,277500	0,1	0,080349
3,279167	0,1	0,114022
3,280833	0,1	0,079716
3,282500	0,1	0,105017
3,284167	0,1	0,098385
3,285833	0,1	0,054050
3,287500	0,1	0,082563
3,289167	0,1	0,066203
3,290833	0,1	0,066510
3,292500	0,1	0,111238
3,294167	0,1	0,060192
3,295833	0,1	0,090636
3,297500	0,1	0,066972
3,299167	0,1	0,108998
3,300833	0,1	0,093510
3,302500	0,1	0,091639
3,304167	0,1	0,056745
3,305833	0,1	0,107689
3,307500	0,1	0,060253
3,309167	0,1	0,059890
3,310833	0,1	0,052360
3,312500	0,1	0,058354
3,314167	0,1	0,020556
3,315833	0,1	0,061456
3,317500	0,1	0,076445
3,319167	0,1	0,062280
3,320833	0,1	0,079309
3,322500	0,1	0,074480
3,324167	0,1	0,056262
3,325833	0,1	0,089474
3,327500	0,1	0,112136
3,329167	0,1	0,048638
3,330833	0,1	0,059990
3,332500	0,1	0,045556
3,334167	0,1	0,092333
3,335833	0,1	0,101742
3,337500	0,1	0,097015
3,339167	0,1	0,057554
3,340833	0,1	0,095406
3,342500	0,1	0,071869
3,344167	0,1	0,055205
3,345833	0,1	0,072584
3,347500	0,1	0,082485
3,349167	0,1	0,064438
3,350833	0,1	0,027613
3,352500	0,1	0,080565
3,354167	0,1	0,075268
3,355833	0,1	0,104123
3,357500	0,1	0,050960
3,359167	0,1	0,047129
3,360833	0,1	0,113162
3,362500	0,1	0,055153
3,364167	0,1	0,065802
3,365833	0,1	0,088935
3,367500	0,1	0,081285
3,369167	0,1	0,098297
3,370833	0,1	0,062929
3,372500	0,1	0,098581
3,374167	0,1	0,097179
3,375833	0,1	0,074669
3,377500	0,1	0,063172
3,379167	0,1	0,086840
3,380833	0,1	0,050064
3,382500	0,1	0,100862
3,384167	0,1	0,092326
3,385833	0,1	0,099356
3,387500	0,1	0,080707
3,389167	0,1	0,080600
3,390833	0,1	0,068545
3,392500	0,1	0,117690
3,394167	0,1	0,077745
3,395833	0,1	0,072009
3,397500	0,1	0,075762
3,399167	0,1	0,093669
3,400833	0,1	0,066370
3,402500	0,1	0,081467
3,404167	0,1	0,117842
3,405833	0,1	0,094778
3,407500	0,1	0,107200
3,409167	0,1	0,114176
3,410833	0,1	0,092930
3,412500	0,1	0,066556
3,414167	0,1	0,116323
3,415833	0,1	0,058845
3,417500	0,1	0,080076
3,419167	0,1	0,088046
3,420833	0,1	0,097593
3,422500	0,1	0,096535
3,424167	0,1	0,103984
3,425833	0,1	0,060584
3,427500	0,1	0,098518
3,429167	0,1	0,099607
3,430833	0,1	0,060314
3,432500	0,1	0,125862
3,434167	0,1	0,127414
3,435833	0,1	0,099696
3,437500	0,1	0,077015
3,439167	0,1	0,077610
3,440833	0,1	0,102113
3,442500	0,1	0,096930
3,444167	0,1	0,092843
3,445833	0,1	0,160979
3,447500	0,1	0,141347
3,449167	0,1	0,085550
3,450833	0,1	0,145728
3,452500	0,1	0,118956
3,454167	0,1	0,128473
3,455833	0,1	0,028582
3,457500	0,1	0,143575
3,459167	0,1	0,088084
3,460833	0,1	0,095539
3,462500	0,1	0,091163
3,464167	0,1	0,118112
3,465833	0,1	0,105961
3,467500	0,1	0,123925
3,469167	0,1	0,125714
3,470833	0,1	0,102685
3,472500	0,1	0,110522
3,474167	0,1	0,105024
3,475833	0,1	0,104590
3,477500	0,1	0,118592
3,479167	0,1	0,154343
3,480833	0,1	0,062942
3,482500	0,1	0,093915
3,484167	0,1	0,092511
3,485833	0,1	0,067823
3,487500	0,1	0,146241
3,489167	0,1	0,121922
3,490833	0,1	0,113388
3,492500	0,1	0,096913
3,494167	0,1	0,107719
3,495833	0,1	0,117661
3,497500	0,1	0,135735
3,499167	0,1	0,081752
3,500833	0,1	0,099229
3,502500	0,1	0,104857
3,504167	0,1	0,087202
3,505833	0,1	0,114086
3,507500	0,1	0,091706
3,509167	0,1	0,073902
3,510833	0,1	0,103336
3,512500	0,1	0,149758
3,514167	0,1	0,120014
3,515833	0,1	0,106274
3,517500	0,1	0,069775
3,519167	0,1	0,101884
3,520833	0,1	0,120813
3,522500	0,1	0,094884
3,524167	0,1	0,066517
3,525833	0,1	0,110740
3,527500	0,1	0,118843
3,529167	0,1	0,118637
3,530833	0,1	0,145652
3,532500	0,1	0,082273
3,534167	0,1	0,117694
3,535833	0,1	0,116957
3,537500	0,1	0,105193
3,539167	0,1	0,113801
3,540833	0,1	0,147806
3,542500	0,1	0,130284
3,544167	0,1	0,099303
3,545833	0,1	0,160378
3,547500	0,1	0,131738
3,549167	0,1	0,145199
3,550833	0,1	0,142630
3,552500	0,1	0,109764
3,554167	0,1	0,143139
3,555833	0,1	0,135804
3,557500	0,1	0,103829
3,559167	0,1	0,139049
3,560833	0,1	0,122751
3,562500	0,1	0,122143
3,564167	0,1	0,103908
3,565833	0,1	0,112803
3,567500	0,1	0,108366
3,569167	0,1	0,129840
3,570833	0,1	0,096586
3,572500	0,1	0,105789
3,574167	0,1	0,121064
3,575833	0,1	0,085693
3,577500	0,1	0,141784
3,579167	0,1	0,092293
3,580833	0,1	0,095540
3,582500	0,1	0,147552
3,584167	0,1	0,106051
3,585833	0,1	0,139529
3,587500	0,1	0,109409
3,589167	0,1	0,119591
3,590833	0,1	0,078493
3,592500	0,1	0,113089
3,594167	0,1	0,118076
3,595833	0,1	0,133681
3,597500	0,1	0,070323
3,599167	0,1	0,112090
3,600833	0,1	0,127268
3,602500	0,1	0,094032
3,604167	0,1	0,140021
3,605833	0,1	0,098685
3,607500	0,1	0,095791
3,609167	0,1	0,086681
3,610833	0,1	0,086741
3,612500	0,1	0,128923
3,614167	0,1	0,114033
3,615833	0,1	0,116832
3,617500	0,1	0,149156
3,619167	0,1	0,104620
3,620833	0,1	0,137019
3,622500	0,1	0,086691
3,624167	0,1	0,094915
3,625833	0,1	0,115767
3,627500	0,1	0,111874
3,629167	0,1	0,087847
3,630833	0,1	0,120354
3,632500	0,1	0,076688
3,634167	0,1	0,072300
3,635833	0,1	0,106262
3,637500	0,1	0,104734
3,639167	0,1	0,101000
3,640833	0,1	0,090584
3,642500	0,1	0,098214
3,644167	0,1	0,096910
3,645833	0,1	0,103652
3,647500	0,1	0,080832
3,649167	0,1	0,106451
3,650833	0,1	0,080232
3,652500	0,1	0,104272
3,654167	0,1	0,098572
3,655833	0,1	0,035959
3,657500	0,1	0,079011
3,659167	0,1	0,111472
3,660833	0,1	0,095918
3,662500	0,1	0,133032
3,664167	0,1	0,133205
3,665833	0,1	0,103993
3,667500	0,1	0,097265
3,669167	0,1	0,093861
3,670833	0,1	0,124295
3,672500	0,1	0,101585
3,674167	0,1	0,096247
3,675833	0,1	0,080831
3,677500	0,1	0,075973
3,679167	0,1	0,102591
3,680833	0,1	0,097761
3,682500	0,1	0,104834
3,684167	0,1	0,094818
3,685833	0,1	0,126662
3,687500	0,1	0,122082
3,689167	0,1	0,112893
3,690833	0,1	0,119841
3,692500	0,1	0,095858
3,694167	0,1	0,096722
3,695833	0,1	0,125814
3,697500	0,1	0,123225
3,699167	0,1	0,127476
3,700833	0,1	0,104739
3,702500	0,1	0,138013
3,704167	0,1	0,120366
3,705833	0,1	0,131192
3,707500	0,1	0,088494
3,709167	0,1	0,146538
3,710833	0,1	0,145600
3,712500	0,1	0,119514
3,714167	0,1	0,149369
3,715833	0,1	0,141821
3,717500	0,1	0,189006
3,719167	0,1	0,156186
3,720833	0,1	0,128708
3,722500	0,1	0,183731
3,724167	0,1	0,148553
3,725833	0,1	0,166242
3,727500	0,1	0,121515
3,729167	0,1	0,143250
3,730833	0,1	0,164458
3,732500	0,1	0,175628
3,734167	0,1	0,178078
3,735833	0,1	0,179946
3,737500	0,1	0,220349
3,739167	0,1	0,212221
3,740833	0,1	0,172423
3,742500	0,1	0,231838
3,744167	0,1	0,229909
3,745833	0,1	0,219097
3,747500	0,1	0,214680
3,749167	0,1	0,189792
3,750833	0,1	0,236017
3,752500	0,1	0,260629
3,754167	0,1	0,256622
3,755833	0,1	0,232123
3,757500	0,1	0,234893
3,759167	0,1	0,263365
3,760833	0,1	0,257999
3,762500	0,1	0,289941
3,764167	0,1	0,287691
3,765833	0,1	0,229719
3,767500	0,1	0,295472
3,769167	0,1	0,285836
3,770833	0,1	0,291171
3,772500	0,1	0,304976
3,774167	0,1	0,353886
3,775833	0,1	0,312548
3,777500	0,1	0,319908
3,779167	0,1	0,341735
3,780833	0,1	0,396596
3,782500	0,1	0,347282
3,784167	0,1	0,333909
3,785833	0,1	0,349224
3,787500	0,1	0,367221
3,789167	0,1	0,369182
3,790833	0,1	0,352641
3,792500	0,1	0,338580
3,794167	0,1	0,365550
3,795833	0,1	0,406356
3,797500	0,1	0,390721
3,799167	0,1	0,365880
3,800833	0,1	0,413979
3,802500	0,1	0,395772
3,804167	0,1	0,412827
3,805833	0,1	0,345093
3,807500	0,1	0,430032
3,809167	0,1	0,386256
3,810833	0,1	0,424382
3,812500	0,1	0,415669
3,814167	0,1	0,403016
3,815833	0,1	0,376786
3,817500	0,1	0,428014
3,819167	0,1	0,436100
3,820833	0,1	0,421267
3,822500	0,1	0,419652
3,824167	0,1	0,412028
3,825833	0,1	0,429049
3,827500	0,1	0,436070
3,829167	0,1	0,393980
3,830833	0,1	0,442853
3,832500	0,1	0,435013
3,834167	0,1	0,420787
3,835833	0,1	0,402535
3,837500	0,1	0,407970
3,839167	0,1	0,432818
3,840833	0,1	0,413190
3,842500	0,1	0,405978
3,844167	0,1	0,447490
3,845833	0,1	0,426935
3,847500	0,1	0,411003
3,849167	0,1	0,435005
3,850833	0,1	0,427773
3,852500	0,1	0,420269
3,854167	0,1	0,416114
3,855833	0,1	0,404853
3,857500	0,1	0,486500
3,859167	0,1	0,442104
3,860833	0,1	0,403092
3,862500	0,1	0,397354
3,864167	0,1	0,435418
3,865833	0,1	0,394235
3,867500	0,1	0,443206
3,869167	0,1	0,356647
3,870833	0,1	0,411530
3,872500	0,1	0,411765
3,874167	0,1	0,391946
3,875833	0,1	0,395257
3,877500	0,1	0,406588
3,879167	0,1	0,378654
3,880833	0,1	0,371696
3,882500	0,1	0,378492
3,884167	0,1	0,359921
3,885833	0,1	0,381254
3,887500	0,1	0,369095
3,889167	0,1	0,386885
3,890833	0,1	0,392936
3,892500	0,1	0,393263
3,894167	0,1	0,332218
3,895833	0,1	0,398236
3,897500	0,1	0,390237
3,899167	0,1	0,329995
3,900833	0,1	0,368919
3,902500	0,1	0,360273
3,904167	0,1	0,347337
3,905833	0,1	0,357919
3,907500	0,1	0,324839
3,909167	0,1	0,335708
3,910833	0,1	0,305114
3,912500	0,1	0,298935
3,914167	0,1	0,318527
3,915833	0,1	0,349546
3,917500	0,1	0,304157
3,919167	0,1	0,325080
3,920833	0,1	0,321525
3,922500	0,1	0,289439
3,924167	0,1	0,318036
3,925833	0,1	0,294006
3,927500	0,1	0,295867
3,929167	0,1	0,268199
3,930833	0,1	0,301237
3,932500	0,1	0,276288
3,934167	0,1	0,281998
3,935833	0,1	0,272700
3,937500	0,1	0,281618
3,939167	0,1	0,239219
3,940833	0,1	0,273850
3,942500	0,1	0,289845
3,944167	0,1	0,265245
3,945833	0,1	0,225980
3,947500	0,1	0,306701
3,949167	0,1	0,228437
3,950833	0,1	0,249109
3,952500	0,1	0,255170
3,954167	0,1	0,234292
3,955833	0,1	0,205511
3,957500	0,1	0,220481
3,959167	0,1	0,226463
3,960833	0,1	0,216423
3,962500	0,1	0,245207
3,964167	0,1	0,195172
3,965833	0,1	0,213299
3,967500	0,1	0,221275
3,969167	0,1	0,238233
3,970833	0,1	0,201149
3,972500	0,1	0,177362
3,974167	0,1	0,222656
3,975833	0,1	0,212499
3,977500	0,1	0,198406
3,979167	0,1	0,222824
3,980833	0,1	0,224079
3,982500	0,1	0,172181
3,984167	0,1	0,177268
3,985833	0,1	0,197603
3,987500	0,1	0,168786
3,989167	0,1	0,204060
3,990833	0,1	0,191908
3,992500	0,1	0,170551
3,994167	0,1	0,167580
3,995833	0,1	0,103171
3,997500	0,1	0,127453
3,999167	0,1	0,119160
4,000833	0,1	0,147314
4,002500	0,1	0,183594
4,004167	0,1	0,157580
4,005833	0,1	0,124605
4,007500	0,1	0,176221
4,009167	0,1	0,168200
4,010833	0,1	0,203305
4,012500	0,1	0,154267
4,014167	0,1	0,154916
4,015833	0,1	0,155166
4,017500	0,1	0,142073
4,019167	0,1	0,200837
4,020833	0,1	0,116936
4,022500	0,1	0,152230
4,024167	0,1	0,178942
4,025833	0,1	0,203796
4,027500	0,1	0,161297
4,029167	0,1	0,166354
4,030833	0,1	0,146783
4,032500	0,1	0,171535
4,034167	0,1	0,148613
4,035833	0,1	0,197330
4,037500	0,1	0,212013
4,039167	0,1	0,171011
4,040833	0,1	0,168616
4,042500	0,1	0,142987
4,044167	0,1	0,198075
4,045833	0,1	0,197405
4,047500	0,1	0,173477
4,049167	0,1	0,178721
4,050833	0,1	0,204869
4,052500	0,1	0,182965
4,054167	0,1	0,198766
4,055833	0,1	0,198466
4,057500	0,1	0,213503
4,059167	0,1	0,200007
4,060833	0,1	0,251839
4,062500	0,1	0,197254
4,064167	0,1	0,262941
4,065833	0,1	0,187670
4,067500	0,1	0,220980
4,069167	0,1	0,264661
4,070833	0,1	0,270362
4,072500	0,1	0,255427
4,074167	0,1	0,259447
4,075833	0,1	0,263560
4,077500	0,1	0,285702
4,079167	0,1	0,269484
4,080833	0,1	0,279877
4,082500	0,1	0,313311
4,084167	0,1	0,296427
4,085833	0,1	0,318589
4,087500	0,1	0,285641
4,089167	0,1	0,333324
4,090833	0,1	0,267490
4,092500	0,1	0,343670
4,094167	0,1	0,382665
4,095833	0,1	0,351302
4,097500	0,1	0,398663
4,099167	0,1	0,377458
4,100833	0,1	0,403134
4,102500	0,1	0,416274
4,104167	0,1	0,451003
4,105833	0,1	0,433212
4,107500	0,1	0,476688
4,109167	0,1	0,444293
4,110833	0,1	0,447080
4,112500	0,1	0,467134
4,114167	0,1	0,468584
4,115833	0,1	0,522244
4,117500	0,1	0,493545
4,119167	0,1	0,484235
4,120833	0,1	0,510755
4,122500	0,1	0,529529
4,124167	0,1	0,543085
4,125833	0,1	0,557767
4,127500	0,1	0,584813
4,129167	0,1	0,547218
4,130833	0,1	0,612690
4,132500	0,1	0,556754
4,134167	0,1	0,633524
4,135833	0,1	0,594331
4,137500	0,1	0,623363
4,139167	0,1	0,647837
4,140833	0,1	0,607372
4,142500	0,1	0,687630
4,144167	0,1	0,666657
4,145833	0,1	0,691964
4,147500	0,1	0,669717
4,149167	0,1	0,661376
4,150833	0,1	0,679082
4,152500	0,1	0,741588
4,154167	0,1	0,731942
4,155833	0,1	0,726694
4,157500	0,1	0,744663
4,159167	0,1	0,766119
4,160833	0,1	0,805064
4,162500	0,1	0,757564
4,164167	0,1	0,765832
4,165833	0,1	0,764453
4,167500	0,1	0,790956
4,169167	0,1	0,810027
4,170833	0,1	0,800146
4,172500	0,1	0,808387
4,174167	0,1	0,828200
4,175833	0,1	0,871977
4,177500	0,1	0,846230
4,179167	0,1	0,857360
4,180833	0,1	0,855627
4,182500	0,1	0,852260
4,184167	0,1	0,827541
4,185833	0,1	0,872213
4,187500	0,1	0,872290
4,189167	0,1	0,857273
4,190833	0,1	0,887001
4,192500	0,1	0,908982
4,194167	0,1	0,905121
4,195833	0,1	0,867250
4,197500	0,1	0,919469
4,199167	0,1	0,901413
4,200833	0,1	0,905515
4,202500	0,1	0,923450
4,204167	0,1	0,916681
4,205833	0,1	0,920455
4,207500	0,1	0,906700
4,209167	0,1	0,909985
4,210833	0,1	0,910894
4,212500	0,1	0,862097
4,214167	0,1	0,929883
4,215833	0,1	0,906166
4,217500	0,1	0,916785
4,219167	0,1	0,907386
4,220833	0,1	0,958852
4,222500	0,1	0,897466
4,224167	0,1	0,894965
4,225833	0,1	0,940162
4,227500	0,1	0,960454
4,229167	0,1	0,933486
4,230833	0,1	0,935611
4,232500	0,1	0,916303
4,234167	0,1	0,905030
4,235833	0,1	0,925111
4,237500	0,1	0,906033
4,239167	0,1	0,954695
4,240833	0,1	0,917530
4,242500	0,1	0,922280
4,244167	0,1	0,890724
4,245833	0,1	0,924315
4,247500	0,1	0,916366
4,249167	0,1	0,876969
4,250833	0,1	0,911134
4,252500	0,1	0,877363
4,254167	0,1	0,893686
4,255833	0,1	0,860607
4,257500	0,1	0,888488
4,259167	0,1	0,920802
4,260833	0,1	0,893418
4,262500	0,1	0,903868
4,264167	0,1	0,821661
4,265833	0,1	0,902349
4,267500	0,1	0,871482
4,269167	0,1	0,866872
4,270833	0,1	0,838879
4,272500	0,1	0,899146
4,274167	0,1	0,876387
4,275833	0,1	0,868872
4,277500	0,1	0,825059
4,279167	0,1	0,885348
4,280833	0,1	0,819199
4,282500	0,1	0,823220
4,284167	0,1	0,849070
4,285833	0,1	0,822925
4,287500	0,1	0,839381
4,289167	0,1	0,855780
4,290833	0,1	0,865673
4,292500	0,1	0,822325
4,294167	0,1	0,829939
4,295833	0,1	0,812784
4,297500	0,1	0,814727
4,299167	0,1	0,775864
4,300833	0,1	0,794012
4,302500	0,1	0,811119
4,304167	0,1	0,782109
4,305833	0,1	0,814916
4,307500	0,1	0,812926
4,309167	0,1	0,760113
4,310833	0,1	0,809309
4,312500	0,1	0,808520
4,314167	0,1	0,805932
4,315833	0,1	0,733571
4,317500	0,1	0,781501
4,319167	0,1	0,764157
4,320833	0,1	0,788856
4,322500	0,1	0,772048
4,324167	0,1	0,764903
4,325833	0,1	0,742927
4,327500	0,1	0,777162
4,329167	0,1	0,713954
4,330833	0,1	0,768846
4,332500	0,1	0,776170
4,334167	0,1	0,750789
4,335833	0,1	0,734681
4,337500	0,1	0,764829
4,339167	0,1	0,738361
4,340833	0,1	0,730139
4,342500	0,1	0,727982
4,344167	0,1	0,738379
4,345833	0,1	0,740053
4,347500	0,1	0,730756
4,349167	0,1	0,718609
4,350833	0,1	0,755545
4,352500	0,1	0,719094
4,354167	0,1	0,701542
4,355833	0,1	0,691486
4,357500	0,1	0,697122
4,359167	0,1	0,688113
4,360833	0,1	0,684789
4,362500	0,1	0,697251
4,364167	0,1	0,670848
4,365833	0,1	0,718176
4,367500	0,1	0,673489
4,369167	0,1	0,696988
4,370833	0,1	0,665566
4,372500	0,1	0,654351
4,374167	0,1	0,708576
4,375833	0,1	0,688435
4,377500	0,1	0,646083
4,379167	0,1	0,629650
4,380833	0,1	0,642431
4,382500	0,1	0,642014
4,384167	0,1	0,676436
4,385833	0,1	0,664533
4,387500	0,1	0,669646
4,389167	0,1	0,624475
4,390833	0,1	0,629645
4,392500	0,1	0,641143
4,394167	0,1	0,622824
4,395833	0,1	0,614737
4,397500	0,1	0,648961
4,399167	0,1	0,612779
4,400833	0,1	0,611324
4,402500	0,1	0,589333
4,404167	0,1	0,611833
4,405833	0,1	0,556723
4,407500	0,1	0,586134
4,409167	0,1	0,607389
4,410833	0,1	0,617791
4,412500	0,1	0,597224
4,414167	0,1	0,581089
4,415833	0,1	0,592966
4,417500	0,1	0,583340
4,419167	0,1	0,587201
4,420833	0,1	0,592515
4,422500	0,1	0,586788
4,424167	0,1	0,550858
4,425833	0,1	0,540097
4,427500	0,1	0,548658
4,429167	0,1	0,545247
4,430833	0,1	0,517113
4,432500	0,1	0,518972
4,434167	0,1	0,536034
4,435833	0,1	0,547111
4,437500	0,1	0,530599
4,439167	0,1	0,537131
4,440833	0,1	0,521134
4,442500	0,1	0,531108
4,444167	0,1	0,520488
4,445833	0,1	0,482759
4,447500	0,1	0,490605
4,449167	0,1	0,479017
4,450833	0,1	0,442391
4,452500	0,1	0,512710
4,454167	0,1	0,490484
4,455833	0,1	0,488289
4,457500	0,1	0,470491
4,459167	0,1	0,477763
4,460833	0,1	0,460545
4,462500	0,1	0,445768
4,464167	0,1	0,457383
4,465833	0,1	0,447890
4,467500	0,1	0,451075
4,469167	0,1	0,434213
4,470833	0,1	0,438229
4,472500	0,1	0,414351
4,474167	0,1	0,376048
4,475833	0,1	0,410022
4,477500	0,1	0,408064
4,479167	0,1	0,407908
4,480833	0,1	0,438703
4,482500	0,1	0,414449
4,484167	0,1	0,370481
4,485833	0,1	0,417745
4,487500	0,1	0,368678
4,489167	0,1	0,380224
4,490833	0,1	0,389880
4,492500	0,1	0,387768
4,494167	0,1	0,393325
4,495833	0,1	0,365944
4,497500	0,1	0,323691
4,499167	0,1	0,353954
4,500833	0,1	0,360850
4,502500	0,1	0,381091
4,504167	0,1	0,334760
4,505833	0,1	0,308810
4,507500	0,1	0,362868
4,509167	0,1	0,322431
4,510833	0,1	0,345822
4,512500	0,1	0,326931
4,514167	0,1	0,321171
4,515833	0,1	0,368400
4,517500	0,1	0,320375
4,519167	0,1	0,334048
4,520833	0,1	0,281278
4,522500	0,1	0,310512
4,524167	0,1	0,306810
4,525833	0,1	0,300096
4,527500	0,1	0,277827
4,529167	0,1	0,312505
4,530833	0,1	0,277893
4,532500	0,1	0,266265
4,534167	0,1	0,268394
4,535833	0,1	0,247265
4,537500	0,1	0,253667
4,539167	0,1	0,333896
4,540833	0,1	0,226842
4,542500	0,1	0,271222
4,544167	0,1	0,256561
4,545833	0,1	0,255978
4,547500	0,1	0,223507
4,549167	0,1	0,254935
4,550833	0,1	0,247739
4,552500	0,1	0,230267
4,554167	0,1	0,257384
4,555833	0,1	0,260608
4,557500	0,1	0,206049
4,559167	0,1	0,242103
4,560833	0,1	0,210888
4,562500	0,1	0,193500
4,564167	0,1	0,221928
4,565833	0,1	0,231296
4,567500	0,1	0,208882
4,569167	0,1	0,249635
4,570833	0,1	0,207977
4,572500	0,1	0,197674
4,574167	0,1	0,231201
4,575833	0,1	0,197790
4,577500	0,1	0,200888
4,579167	0,1	0,139802
4,580833	0,1	0,175104
4,582500	0,1	0,200945
4,584167	0,1	0,188917
4,585833	0,1	0,199207
4,587500	0,1	0,209746
4,589167	0,1	0,233349
4,590833	0,1	0,206663
4,592500	0,1	0,199415
4,594167	0,1	0,143119
4,595833	0,1	0,164248
4,597500	0,1	0,171226
4,599167	0,1	0,164419
4,600833	0,1	0,186084
4,602500	0,1	0,142059
4,604167	0,1	0,144496
4,605833	0,1	0,182549
4,607500	0,1	0,176831
4,609167	0,1	0,175568
4,610833	0,1	0,162577
4,612500	0,1	0,131637
4,614167	0,1	0,151051
4,615833	0,1	0,168047
4,617500	0,1	0,135122
4,619167	0,1	0,183419
4,620833	0,1	0,169551
4,622500	0,1	0,134274
4,624167	0,1	0,120820
4,625833	0,1	0,124447
4,627500	0,1	0,115962
4,629167	0,1	0,073616
4,630833	0,1	0,131842
4,632500	0,1	0,149201
4,634167	0,1	0,101299
4,635833	0,1	0,150171
4,637500	0,1	0,115429
4,639167	0,1	0,115254
4,640833	0,1	0,103283
4,642500	0,1	0,106663
4,644167	0,1	0,129920
4,645833	0,1	0,108661
4,647500	0,1	0,107659
4,649167	0,1	0,107596
4,650833	0,1	0,132454
4,652500	0,1	0,084823
4,654167	0,1	0,115952
4,655833	0,1	0,086915
4,657500	0,1	0,059129
4,659167	0,1	0,123831
4,660833	0,1	0,100673
4,662500	0,1	0,138155
4,664167	0,1	0,106297
4,665833	0,1	0,067659
4,667500	0,1	0,118583
4,669167	0,1	0,083927
4,670833	0,1	0,064895
4,672500	0,1	0,133686
4,674167	0,1	0,079970
4,675833	0,1	0,086677
4,677500	0,1	0,075975
4,679167	0,1	0,125866
4,680833	0,1	0,089074
4,682500	0,1	0,079585
4,684167	0,1	0,126304
4,685833	0,1	0,061814
4,687500	0,1	0,108602
4,689167	0,1	0,074051
4,690833	0,1	0,081551
4,692500	0,1	0,077467
4,694167	0,1	0,076367
4,695833	0,1	0,072259
4,697500	0,1	0,099331
4,699167	0,1	0,083424
4,700833	0,1	0,082074
4,702500	0,1	0,104000
4,704167	0,1	0,086082
4,705833	0,1	0,097779
4,707500	0,1	0,104896
4,709167	0,1	0,092140
4,710833	0,1	0,097282
4,712500	0,1	0,048718
4,714167	0,1	0,077853
4,715833	0,1	0,130991
4,717500	0,1	0,075425
4,719167	0,1	0,069935
4,720833	0,1	0,071365
4,722500	0,1	0,032530
4,724167	0,1	0,054509
4,725833	0,1	0,059205
4,727500	0,1	0,083414
4,729167	0,1	0,067302
4,730833	0,1	0,076716
4,732500	0,1	0,078358
4,734167	0,1	0,060703
4,735833	0,1	0,078830
4,737500	0,1	0,056306
4,739167	0,1	0,011096
4,740833	0,1	0,043469
4,742500	0,1	0,050529
4,744167	0,1	0,048002
4,745833	0,1	0,085301
4,747500	0,1	0,018448
4,749167	0,1	0,078344
4,750833	0,1	0,064955
4,752500	0,1	0,052090
4,754167	0,1	0,048645
4,755833	0,1	0,087520
4,757500	0,1	0,058238
4,759167	0,1	0,053148
4,760833	0,1	0,024622
4,762500	0,1	0,043950
4,764167	0,1	0,030823
4,765833	0,1	0,044282
4,767500	0,1	0,088037
4,769167	0,1	0,025605
4,770833	0,1	0,044178
4,772500	0,1	0,091108
4,774167	0,1	0,101885
4,775833	0,1	0,054009
4,777500	0,1	0,078206
4,779167	0,1	0,044793
4,780833	0,1	0,079801
4,782500	0,1	0,086326
4,784167	0,1	0,040458
4,785833	0,1	0,057894
4,787500	0,1	0,054061
4,789167	0,1	0,048686
4,790833	0,1	0,055696
4,792500	0,1	0,066485
4,794167	0,1	0,038005
4,795833	0,1	0,039866
4,797500	0,1	0,030885
4,799167	0,1	0,013871
4,800833	0,1	0,010944
4,802500	0,1	0,074524
4,804167	0,1	0,095223
4,805833	0,1	0,093962
4,807500	0,1	0,066494
4,809167	0,1	0,023215
4,810833	0,1	0,060565
4,812500	0,1	0,085925
4,814167	0,1	0,082715
4,815833	0,1	-0,003805
4,817500	0,1	0,079438
4,819167	0,1	0,063899
4,820833	0,1	0,072587
4,822500	0,1	0,064643
4,824167	0,1	0,000606
4,825833	0,1	0,081057
4,827500	0,1	0,066305
4,829167	0,1	0,041283
4,830833	0,1	0,070548
4,832500	0,1	0,034750
4,834167	0,1	0,045301
4,835833	0,1	0,043809
4,837500	0,1	0,083161
4,839167	0,1	0,002911
4,840833	0,1	0,041724
4,842500	0,1	0,071669
4,844167	0,1	0,035726
4,845833	0,1	0,010577
4,847500	0,1	0,034342
4,849167	0,1	0,037998
4,850833	0,1	0,028415
4,852500	0,1	0,032563
4,854167	0,1	0,027938
4,855833	0,1	0,027645
4,857500	0,1	0,054592
4,859167	0,1	0,048003
4,860833	0,1	0,042546
4,862500	0,1	0,047957
4,864167	0,1	0,040470
4,865833	0,1	0,017027
4,867500	0,1	0,022271
4,869167	0,1	0,007772
4,870833	0,1	0,032766
4,872500	0,1	0,064282
4,874167	0,1	0,056365
4,875833	0,1	0,062089
4,877500	0,1	0,061549
4,879167	0,1	0,018194
4,880833	0,1	0,075273
4,882500	0,1	0,035103
4,884167	0,1	0,049222
4,885833	0,1	0,062543
4,887500	0,1	0,016846
4,889167	0,1	0,056167
4,890833	0,1	0,054329
4,892500	0,1	0,083829
4,894167	0,1	0,033862
4,895833	0,1	0,044947
4,897500	0,1	0,037214
4,899167	0,1	0,043537
4,900833	0,1	0,021053
4,902500	0,1	0,052828
4,904167	0,1	0,060739
4,905833	0,1	0,084018
4,907500	0,1	0,024549
4,909167	0,1	0,053140
4,910833	0,1	0,015682
4,912500	0,1	0,005136
4,914167	0,1	0,012912
4,915833	0,1	0,049257
4,917500	0,1	0,054472
4,919167	0,1	0,042091
4,920833	0,1	-0,002529
4,922500	0,1	0,032472
4,924167	0,1	0,069654
4,925833	0,1	0,051740
4,927500	0,1	0,008298
4,929167	0,1	0,019697
4,930833	0,1	0,037519
4,932500	0,1	0,029616
4,934167	0,1	0,029056
4,935833	0,1	0,034159
4,937500	0,1	0,057001
4,939167	0,1	0,060305
4,940833	0,1	0,038980
4,942500	0,1	0,057623
4,944167	0,1	0,002223
4,945833	0,1	0,005549
4,947500	0,1	0,024797
4,949167	0,1	0,049903
4,950833	0,1	0,051755
4,952500	0,1	0,000249
4,954167	0,1	0,052013
4,955833	0,1	0,034892
4,957500	0,1	0,060195
4,959167	0,1	0,032216
4,960833	0,1	0,034285
4,962500	0,1	0,047292
4,964167	0,1	0,029974
4,965833	0,1	0,011361
4,967500	0,1	0,052494
4,969167	0,1	0,036964
4,970833	0,1	0,073722
4,972500	0,1	0,073420
4,974167	0,1	0,039107
4,975833	0,1	0,065610
4,977500	0,1	0,021224
4,979167	0,1	0,065502
4,980833	0,1	0,035309
4,982500	0,1	0,085919
4,984167	0,1	0,029818
4,985833	0,1	0,052352
4,987500	0,1	0,012799
4,989167	0,1	0,026023
4,990833	0,1	0,027397
4,992500	0,1	0,012837
4,994167	0,1	0,042702
4,995833	0,1	0,007674
4,997500	0,1	0,005426
4,999167	0,1	0,037037
5,000833	0,1	0,029058
5,002500	0,1	0,036940
5,004167	0,1	0,006489
5,005833	0,1	-0,009593
5,007500	0,1	0,013719
5,009167	0,1	0,034635
5,010833	0,1	0,024080
5,012500	0,1	0,069923
5,014167	0,1	0,032033
5,015833	0,1	-0,001517
5,017500	0,1	0,033345
5,019167	0,1	0,048019
5,020833	0,1	0,053643
5,022500	0,1	0,036241
5,024167	0,1	0,050384
5,025833	0,1	0,000272
5,027500	0,1	0,071181
5,029167	0,1	0,057901
5,030833	0,1	0,008196
5,032500	0,1	-0,001877
5,034167	0,1	0,020898
5,035833	0,1	0,032269
5,037500	0,1	0,041337
5,039167	0,1	0,002429
5,040833	0,1	0,053156
5,042500	0,1	0,023713
5,044167	0,1	-0,003658
5,045833	0,1	0,003975
5,047500	0,1	0,013514
5,049167	0,1	-0,018882
5,050833	0,1	0,024667
5,052500	0,1	0,021485
5,054167	0,1	0,014951
5,055833	0,1	0,063156
5,057500	0,1	0,014150
5,059167	0,1	-0,001170
5,060833	0,1	0,003265
5,062500	0,1	0,037266
5,064167	0,1	0,016427
5,065833	0,1	0,053968
5,067500	0,1	0,028919
5,069167	0,1	0,031836
5,070833	0,1	0,024121
5,072500	0,1	0,086746
5,074167	0,1	0,019757
5,075833	0,1	0,019846
5,077500	0,1	0,059942
5,079167	0,1	-0,018854
5,080833	0,1	-0,003272
5,082500	0,1	0,038032
5,084167	0,1	0,054762
5,085833	0,1	0,044433
5,087500	0,1	0,036195
5,089167	0,1	0,049387
5,090833	0,1	0,015038
5,092500	0,1	0,055626
5,094167	0,1	0,012219
5,095833	0,1	0,015592
5,097500	0,1	0,050419
5,099167	0,1	0,021553
5,100833	0,1	0,021856
5,102500	0,1	0,008916
5,104167	0,1	0,043263
5,105833	0,1	0,043436
5,107500	0,1	0,047459
5,109167	0,1	0,027650
5,110833	0,1	0,036918
5,112500	0,1	0,016530
5,114167	0,1	0,001237
5,115833	0,1	0,054628
5,117500	0,1	0,014068
5,119167	0,1	0,020155
5,120833	0,1	0,030881
5,122500	0,1	0,033518
5,124167	0,1	0,020036
5,125833	0,1	0,003851
5,127500	0,1	0,048342
5,129167	0,1	0,022653
5,130833	0,1	0,024224
5,132500	0,1	0,009474
5,134167	0,1	0,030940
5,135833	0,1	0,022502
5,137500	0,1	-0,019399
5,139167	0,1	0,017970
5,140833	0,1	0,029097
5,142500	0,1	0,039034
5,144167	0,1	0,034827
5,145833	0,1	0,046628
5,147500	0,1	0,049122
5,149167	0,1	0,037131
5,150833	0,1	0,021904
5,152500	0,1	-0,022033
5,154167	0,1	0,064102
5,155833	0,1	0,001125
5,157500	0,1	-0,003993
5,159167	0,1	0,000799
5,160833	0,1	0,026210
5,162500	0,1	-0,006329
5,164167	0,1	0,010133
5,165833	0,1	0,010052
5,167500	0,1	0,012500
5,169167	0,1	0,014843
5,170833	0,1	0,002275
5,172500	0,1	0,020214
5,174167	0,1	0,025487
5,175833	0,1	0,021692
5,177500	0,1	0,002752
5,179167	0,1	0,031125
5,180833	0,1	0,009579
5,182500	0,1	0,041831
5,184167	0,1	0,034495
5,185833	0,1	-0,004212
5,187500	0,1	-0,017040
5,189167	0,1	0,021994
5,190833	0,1	0,051894
5,192500	0,1	0,006679
5,194167	0,1	0,004450
5,195833	0,1	0,047369
5,197500	0,1	0,000687
5,199167	0,1	-0,007435
5,200833	0,1	0,029609
5,202500	0,1	0,034347
5,204167	0,1	0,018107
5,205833	0,1	0,028392
5,207500	0,1	-0,011349
5,209167	0,1	0,006749
5,210833	0,1	-0,010835
5,212500	0,1	-0,008848
5,214167	0,1	0,056161
5,215833	0,1	0,002760
5,217500	0,1	0,032432
5,219167	0,1	0,024847
5,220833	0,1	0,011341
5,222500	0,1	0,006589
5,224167	0,1	0,028283
5,225833	0,1	-0,006724
5,227500	0,1	-0,018887
5,229167	0,1	0,001872
5,230833	0,1	0,020485
5,232500	0,1	0,038016
5,234167	0,1	0,027005
5,235833	0,1	-0,012555
5,237500	0,1	-0,016193
5,239167	0,1	0,006459
5,240833	0,1	0,000344
5,242500	0,1	0,004428
5,244167	0,1	-0,005172
5,245833	0,1	0,025770
5,247500	0,1	0,048120
5,249167	0,1	-0,009872
5,250833	0,1	-0,012293
5,252500	0,1	0,005130
5,254167	0,1	-0,014799
5,255833	0,1	-0,003354
5,257500	0,1	-0,012271
5,259167	0,1	-0,015199
5,260833	0,1	0,002291
5,262500	0,1	-0,024338
5,264167	0,1	0,019193
5,265833	0,1	0,002795
5,267500	0,1	-0,034316
5,269167	0,1	-0,008502
5,270833	0,1	0,023303
5,272500	0,1	0,038328
5,274167	0,1	0,003112
5,275833	0,1	-0,052981
5,277500	0,1	-0,015456
5,279167	0,1	-0,001009
5,280833	0,1	0,001714
5,282500	0,1	-0,020982
5,284167	0,1	0,016849
5,285833	0,1	0,028015
5,287500	0,1	-0,018755
5,289167	0,1	-0,030941
5,290833	0,1	-0,001219
5,292500	0,1	-0,008309
5,294167	0,1	-0,031660
5,295833	0,1	0,015041
5,297500	0,1	-0,034481
5,299167	0,1	-0,016384
5,300833	0,1	-0,032041
5,302500	0,1	-0,010992
5,304167	0,1	-0,008435
5,305833	0,1	-0,012935
5,307500	0,1	-0,002628
5,309167	0,1	-0,018201
5,310833	0,1	-0,018371
5,312500	0,1	-0,050044
5,314167	0,1	-0,028023
5,315833	0,1	0,022386
5,317500	0,1	-0,041465
5,319167	0,1	0,016098
5,320833	0,1	-0,024854
5,322500	0,1	-0,002342
5,324167	0,1	-0,022912
5,325833	0,1	0,013486
5,327500	0,1	-0,019859
5,329167	0,1	-0,014286
5,330833	0,1	-0,019717
5,332500	0,1	-0,034321
5,334167	0,1	-0,024515
5,335833	0,1	-0,029426
5,337500	0,1	-0,050212
5,339167	0,1	0,041236
5,340833	0,1	-0,026196
5,342500	0,1	0,014732
5,344167	0,1	-0,028423
5,345833	0,1	-0,047140
5,347500	0,1	0,010350
5,349167	0,1	-0,045809
5,350833	0,1	-0,008399
5,352500	0,1	-0,002937
5,354167	0,1	-0,031535
5,355833	0,1	-0,007278
5,357500	0,1	0,009676
5,359167	0,1	-0,040039
5,360833	0,1	-0,010185
5,362500	0,1	-0,015236
5,364167	0,1	-0,021271
5,365833	0,1	-0,027850
5,367500	0,1	-0,018912
5,369167	0,1	-0,041933
5,370833	0,1	0,010558
5,372500	0,1	-0,055885
5,374167	0,1	-0,019599
5,375833	0,1	-0,019763
5,377500	0,1	-0,012460
5,379167	0,1	-0,011087
5,380833	0,1	-0,018599
5,382500	0,1	0,010210
5,384167	0,1	-0,010792
5,385833	0,1	-0,005925
5,387500	0,1	-0,017910
5,389167	0,1	-0,006755
5,390833	0,1	-0,001090
5,392500	0,1	0,000593
5,394167	0,1	0,006649
5,395833	0,1	0,007396
5,397500	0,1	-0,023219
5,399167	0,1	-0,008957
5,400833	0,1	-0,017268
5,402500	0,1	0,001562
5,404167	0,1	0,020942
5,405833	0,1	-0,026987
5,407500	0,1	-0,031858
5,409167	0,1	0,004234
5,410833	0,1	-0,005691
5,412500	0,1	-0,010486
5,414167	0,1	0,014509
5,415833	0,1	-0,088945
5,417500	0,1	0,000758
5,419167	0,1	-0,028698
5,420833	0,1	-0,026361
5,422500	0,1	-0,025094
5,424167	0,1	-0,059459
5,425833	0,1	-0,054739
5,427500	0,1	-0,014522
5,429167	0,1	-0,037827
5,430833	0,1	-0,002197
5,432500	0,1	-0,005737
5,434167	0,1	-0,033818
5,435833	0,1	-0,030319
5,437500	0,1	-0,032934
5,439167	0,1	-0,026980
5,440833	0,1	-0,051225
5,442500	0,1	-0,041191
5,444167	0,1	0,009709
5,445833	0,1	-0,005023
5,447500	0,1	0,002084
5,449167	0,1	-0,048444
5,450833	0,1	-0,069462
5,452500	0,1	-0,014817
5,454167	0,1	-0,035688
5,455833	0,1	-0,017690
5,457500	0,1	-0,042865
5,459167	0,1	-0,035428
5,460833	0,1	-0,037021
5,462500	0,1	-0,022958
5,464167	0,1	-0,028494
5,465833	0,1	-0,019016
5,467500	0,1	0,019150
5,469167	0,1	-0,010419
5,470833	0,1	-0,025812
5,472500	0,1	-0,008500
5,474167	0,1	-0,017041
5,475833	0,1	-0,004101
5,477500	0,1	-0,046183
5,479167	0,1	-0,004356
5,480833	0,1	-0,015111
5,482500	0,1	-0,053609
5,484167	0,1	-0,044055
5,485833	0,1	-0,009165
5,487500	0,1	-0,026166
5,489167	0,1	-0,031294
5,490833	0,1	-0,025941
5,492500	0,1	-0,023702
5,494167	0,1	-0,033328
5,495833	0,1	-0,027087
5,497500	0,1	-0,022750
5,499167	0,1	0,013282
5,500833	0,1	-0,025930
5,502500	0,1	-0,010199
5,504167	0,1	-0,008744
5,505833	0,1	-0,002895
5,507500	0,1	-0,008100
5,509167	0,1	-0,022951
5,510833	0,1	-0,018454
5,512500	0,1	0,001523
5,514167	0,1	0,002189
5,515833	0,1	-0,005526
5,517500	0,1	-0,044878
5,519167	0,1	-0,034409
5,520833	0,1	-0,067299
5,522500	0,1	-0,002909
5,524167	0,1	-0,010028
5,525833	0,1	-0,058751
5,527500	0,1	-0,029187
5,529167	0,1	-0,028347
5,530833	0,1	-0,030634
5,532500	0,1	-0,000866
5,534167	0,1	-0,030496
5,535833	0,1	-0,017026
5,537500	0,1	-0,015447
5,539167	0,1	-0,018328
5,540833	0,1	-0,057194
5,542500	0,1	-0,027216
5,544167	0,1	-0,004537
5,545833	0,1	-0,002809
5,547500	0,1	-0,018140
5,549167	0,1	0,009549
5,550833	0,1	-0,039416
5,552500	0,1	0,011824
5,554167	0,1	-0,041925
5,555833	0,1	-0,045627
5,557500	0,1	-0,050005
5,559167	0,1	-0,032815
5,560833	0,1	-0,023810
5,562500	0,1	-0,004766
5,564167	0,1	-0,027530
5,565833	0,1	-0,024822
5,567500	0,1	-0,002318
5,569167	0,1	-0,005713
5,570833	0,1	0,000530
5,572500	0,1	0,000694
5,574167	0,1	-0,001982
5,575833	0,1	-0,002973
5,577500	0,1	-0,015523
5,579167	0,1	0,011417
5,580833	0,1	0,005884
5,582500	0,1	-0,019713
5,584167	0,1	0,003429
5,585833	0,1	-0,011832
5,587500	0,1	-0,024052
5,589167	0,1	-0,019634
5,590833	0,1	-0,044752
5,592500	0,1	-0,024332
5,594167	0,1	-0,021006
5,595833	0,1	0,023612
5,597500	0,1	-0,010373
5,599167	0,1	-0,034628
5,600833	0,1	0,009026
5,602500	0,1	-0,050927
5,604167	0,1	-0,007740
5,605833	0,1	-0,022580
5,607500	0,1	0,022200
5,609167	0,1	-0,036779
5,610833	0,1	0,005191
5,612500	0,1	0,006464
5,614167	0,1	-0,012702
5,615833	0,1	-0,032762
5,617500	0,1	-0,018852
5,619167	0,1	-0,000264
5,620833	0,1	0,018223
5,622500	0,1	0,016254
5,624167	0,1	0,030839
5,625833	0,1	0,007237
5,627500	0,1	-0,030996
5,629167	0,1	-0,030239
5,630833	0,1	0,006494
5,632500	0,1	-0,008906
5,634167	0,1	0,022368
5,635833	0,1	0,014703
5,637500	0,1	0,019721
5,639167	0,1	0,023891
5,640833	0,1	0,024429
5,642500	0,1	-0,002743
5,644167	0,1	-0,002708
5,645833	0,1	0,006834
5,647500	0,1	0,029489
5,649167	0,1	0,036443
5,650833	0,1	0,024995
5,652500	0,1	0,032894
5,654167	0,1	0,091581
5,655833	0,1	0,001173
5,657500	0,1	0,027558
5,659167	0,1	0,025406
5,660833	0,1	0,046812
5,662500	0,1	0,033251
5,664167	0,1	0,032853
5,665833	0,1	0,020346
5,667500	0,1	0,037084
5,669167	0,1	0,030636
5,670833	0,1	0,018602
5,672500	0,1	0,044819
5,674167	0,1	0,033002
5,675833	0,1	0,060050
5,677500	0,1	0,057566
5,679167	0,1	0,018379
5,680833	0,1	0,049569
5,682500	0,1	0,091336
5,684167	0,1	0,098587
5,685833	0,1	0,054776
5,687500	0,1	0,058811
5,689167	0,1	0,078499
5,690833	0,1	0,049024
5,692500	0,1	0,093163
5,694167	0,1	0,069710
5,695833	0,1	0,073895
5,697500	0,1	0,105596
5,699167	0,1	0,070937
5,700833	0,1	0,056407
5,702500	0,1	0,095094
5,704167	0,1	0,110578
5,705833	0,1	0,105437
5,707500	0,1	0,080813
5,709167	0,1	0,087944
5,710833	0,1	0,098338
5,712500	0,1	0,071621
5,714167	0,1	0,075638
5,715833	0,1	0,096156
5,717500	0,1	0,087925
5,719167	0,1	0,132735
5,720833	0,1	0,070903
5,722500	0,1	0,103895
5,724167	0,1	0,111785
5,725833	0,1	0,153118
5,727500	0,1	0,134743
5,729167	0,1	0,106359
5,730833	0,1	0,113945
5,732500	0,1	0,125500
5,734167	0,1	0,054159
5,735833	0,1	0,122457
5,737500	0,1	0,144718
5,739167	0,1	0,098581
5,740833	0,1	0,130829
5,742500	0,1	0,109242
5,744167	0,1	0,133303
5,745833	0,1	0,125343
5,747500	0,1	0,154241
5,749167	0,1	0,108001
5,750833	0,1	0,146560
5,752500	0,1	0,138952
5,754167	0,1	0,122665
5,755833	0,1	0,120443
5,757500	0,1	0,138326
5,759167	0,1	0,127498
5,760833	0,1	0,115525
5,762500	0,1	0,128802
5,764167	0,1	0,145199
5,765833	0,1	0,164061
5,767500	0,1	0,175581
5,769167	0,1	0,130684
5,770833	0,1	0,173706
5,772500	0,1	0,168592
5,774167	0,1	0,147569
5,775833	0,1	0,103851
5,777500	0,1	0,127326
5,779167	0,1	0,179140
5,780833	0,1	0,135437
5,782500	0,1	0,117001
5,784167	0,1	0,156750
5,785833	0,1	0,152507
5,787500	0,1	0,138334
5,789167	0,1	0,130612
5,790833	0,1	0,148745
5,792500	0,1	0,176133
5,794167	0,1	0,135600
5,795833	0,1	0,126878
5,797500	0,1	0,149033
5,799167	0,1	0,177153
5,800833	0,1	0,148569
5,802500	0,1	0,155182
5,804167	0,1	0,170825
5,805833	0,1	0,130266
5,807500	0,1	0,156009
5,809167	0,1	0,124268
5,810833	0,1	0,174432
5,812500	0,1	0,156788
5,814167	0,1	0,138398
5,815833	0,1	0,147148
5,817500	0,1	0,191925
5,819167	0,1	0,185174
5,820833	0,1	0,134608
5,822500	0,1	0,110051
5,824167	0,1	0,174407
5,825833	0,1	0,148631
5,827500	0,1	0,183814
5,829167	0,1	0,182207
5,830833	0,1	0,153800
5,832500	0,1	0,125304
5,834167	0,1	0,147583
5,835833	0,1	0,161818
5,837500	0,1	0,123525
5,839167	0,1	0,158760
5,840833	0,1	0,165931
5,842500	0,1	0,175456
5,844167	0,1	0,150975
5,845833	0,1	0,150576
5,847500	0,1	0,156695
5,849167	0,1	0,171177
5,850833	0,1	0,133152
5,852500	0,1	0,164017
5,854167	0,1	0,161948
5,855833	0,1	0,152487
5,857500	0,1	0,157652
5,859167	0,1	0,107171
5,860833	0,1	0,148364
5,862500	0,1	0,136734
5,864167	0,1	0,139325
5,865833	0,1	0,141005
5,867500	0,1	0,164766
5,869167	0,1	0,141387
5,870833	0,1	0,157565
5,872500	0,1	0,116985
5,874167	0,1	0,141542
5,875833	0,1	0,113828
5,877500	0,1	0,114777
5,879167	0,1	0,133885
5,880833	0,1	0,150840
5,882500	0,1	0,133331
5,884167	0,1	0,167375
5,885833	0,1	0,123732
5,887500	0,1	0,127476
5,889167	0,1	0,086088
5,890833	0,1	0,117820
5,892500	0,1	0,118739
5,894167	0,1	0,101728
5,895833	0,1	0,130705
5,897500	0,1	0,133764
5,899167	0,1	0,113741
5,900833	0,1	0,135877
5,902500	0,1	0,144676
5,904167	0,1	0,112251
5,905833	0,1	0,121641
5,907500	0,1	0,142162
5,909167	0,1	0,101173
5,910833	0,1	0,095562
5,912500	0,1	0,130727
5,914167	0,1	0,122663
5,915833	0,1	0,123180
5,917500	0,1	0,109447
5,919167	0,1	0,106228
5,920833	0,1	0,125459
5,922500	0,1	0,085733
5,924167	0,1	0,068691
5,925833	0,1	0,109165
5,927500	0,1	0,097782
5,929167	0,1	0,139378
5,930833	0,1	0,078456
5,932500	0,1	0,105702
5,934167	0,1	0,108031
5,935833	0,1	0,109381
5,937500	0,1	0,070170
5,939167	0,1	0,095387
5,940833	0,1	0,046124
5,942500	0,1	0,099177
5,944167	0,1	0,071040
5,945833	0,1	0,093333
5,947500	0,1	0,089565
5,949167	0,1	0,101055
5,950833	0,1	0,071559
5,952500	0,1	0,056885
5,954167	0,1	0,115675
5,955833	0,1	0,070005
5,957500	0,1	0,090760
5,959167	0,1	0,088878
5,960833	0,1	0,083838
5,962500	0,1	0,062384
5,964167	0,1	0,059248
5,965833	0,1	0,069495
5,967500	0,1	0,080368
5,969167	0,1	0,062716
5,970833	0,1	0,084764
5,972500	0,1	0,070725
5,974167	0,1	0,108148
5,975833	0,1	0,048348
5,977500	0,1	0,079822
5,979167	0,1	0,060227
5,980833	0,1	0,077128
5,982500	0,1	0,033426
5,984167	0,1	0,080649
5,985833	0,1	0,102962
5,987500	0,1	0,075750
5,989167	0,1	0,057094
5,990833	0,1	0,056322
5,992500	0,1	0,071319
5,994167	0,1	0,111944
5,995833	0,1	0,033829
5,997500	0,1	0,102432
5,999167	0,1	0,052267
6,000833	0,1	0,043563
