File Path	chrom://chromeleon01/ikbm_chromeleon/2022/Rezex/Esteban/220612_chitin_4_7.seq/824.smp/UV_VIS_1.channel/UV_VIS_1.chm
Channel	UV_VIS_1

Injection Information:
Data Vault	ikbm_chromeleon
Injection	A2ox 400
Injection Number	9
Position	RA6
Comment	
Processing Method	New ProcMethod
Instrument Method	Short_Rezex_6min_194nm
Type	Calibration Standard
Status	Finished
Injection Date	12.06.2022
Injection Time	18:05:51
Injection Volume (µl)	8,000
Dilution Factor	1,0000
Weight	1,0000

Chromatogram Data Information:
Time Min. (min)	0,000833
Time Max. (min)	6,000833
Data Points	3601
Detector	UV
Generating Data System	Chromeleon 7.2.9.11323
Exporting Data System	Chromeleon 7.2.9.0
Operator	Instrument Controller
Signal Quantity	Absorbance
Signal Unit	mAU
Signal Min.	-0,143087
Signal Max.	225,441371
Channel	UV_VIS_1
Driver Name	VWD3000.dll
Channel Type	Evaluation
Min. Step (s)	0,1
Max. Step (s)	0,1
Average Step (s)	0,1

Signal Parameter Information:
Signal Info	WVL:194 nm

Chromatogram Data:
Time (min)	Step (s)	Value (mAU)
0,000833	n.a.	-0,059947
0,002500	0,1	-0,030014
0,004167	0,1	-0,063454
0,005833	0,1	-0,055415
0,007500	0,1	-0,088484
0,009167	0,1	-0,055262
0,010833	0,1	-0,067026
0,012500	0,1	-0,052896
0,014167	0,1	-0,039668
0,015833	0,1	-0,054177
0,017500	0,1	-0,071828
0,019167	0,1	-0,080387
0,020833	0,1	-0,064486
0,022500	0,1	-0,039753
0,024167	0,1	-0,019709
0,025833	0,1	-0,077292
0,027500	0,1	-0,055472
0,029167	0,1	-0,069921
0,030833	0,1	-0,060245
0,032500	0,1	-0,052652
0,034167	0,1	-0,074108
0,035833	0,1	-0,099697
0,037500	0,1	-0,070605
0,039167	0,1	-0,076845
0,040833	0,1	-0,069606
0,042500	0,1	-0,052628
0,044167	0,1	-0,085988
0,045833	0,1	-0,060650
0,047500	0,1	-0,076952
0,049167	0,1	-0,059200
0,050833	0,1	-0,143087
0,052500	0,1	-0,057044
0,054167	0,1	-0,053509
0,055833	0,1	-0,045461
0,057500	0,1	-0,025343
0,059167	0,1	-0,087215
0,060833	0,1	-0,042226
0,062500	0,1	-0,074157
0,064167	0,1	-0,082749
0,065833	0,1	-0,045657
0,067500	0,1	-0,067427
0,069167	0,1	-0,095834
0,070833	0,1	-0,033055
0,072500	0,1	-0,053343
0,074167	0,1	-0,039106
0,075833	0,1	-0,102694
0,077500	0,1	-0,045769
0,079167	0,1	-0,051012
0,080833	0,1	-0,059973
0,082500	0,1	-0,052062
0,084167	0,1	-0,060027
0,085833	0,1	-0,044150
0,087500	0,1	-0,078879
0,089167	0,1	-0,104287
0,090833	0,1	-0,087985
0,092500	0,1	-0,115231
0,094167	0,1	-0,103492
0,095833	0,1	-0,058215
0,097500	0,1	-0,081831
0,099167	0,1	-0,093959
0,100833	0,1	-0,073472
0,102500	0,1	-0,098570
0,104167	0,1	-0,084632
0,105833	0,1	-0,109704
0,107500	0,1	-0,063151
0,109167	0,1	-0,123562
0,110833	0,1	-0,092682
0,112500	0,1	-0,068993
0,114167	0,1	-0,071831
0,115833	0,1	-0,055954
0,117500	0,1	-0,089047
0,119167	0,1	-0,088652
0,120833	0,1	-0,104850
0,122500	0,1	-0,065833
0,124167	0,1	-0,054826
0,125833	0,1	-0,110553
0,127500	0,1	-0,098632
0,129167	0,1	-0,061700
0,130833	0,1	-0,087815
0,132500	0,1	-0,090555
0,134167	0,1	-0,048181
0,135833	0,1	-0,072040
0,137500	0,1	-0,079206
0,139167	0,1	-0,050779
0,140833	0,1	-0,044603
0,142500	0,1	-0,065253
0,144167	0,1	-0,094949
0,145833	0,1	-0,084067
0,147500	0,1	-0,055153
0,149167	0,1	-0,103474
0,150833	0,1	-0,065080
0,152500	0,1	-0,091434
0,154167	0,1	-0,097127
0,155833	0,1	-0,060116
0,157500	0,1	-0,086284
0,159167	0,1	-0,056413
0,160833	0,1	-0,069387
0,162500	0,1	-0,063704
0,164167	0,1	-0,084784
0,165833	0,1	-0,094764
0,167500	0,1	-0,083854
0,169167	0,1	-0,036510
0,170833	0,1	-0,099044
0,172500	0,1	-0,059419
0,174167	0,1	-0,095161
0,175833	0,1	-0,077818
0,177500	0,1	-0,112436
0,179167	0,1	-0,068891
0,180833	0,1	-0,087226
0,182500	0,1	-0,093854
0,184167	0,1	-0,051801
0,185833	0,1	-0,060669
0,187500	0,1	-0,060269
0,189167	0,1	-0,099747
0,190833	0,1	-0,085113
0,192500	0,1	-0,082158
0,194167	0,1	-0,079932
0,195833	0,1	-0,045550
0,197500	0,1	-0,067988
0,199167	0,1	-0,083121
0,200833	0,1	-0,074946
0,202500	0,1	-0,055901
0,204167	0,1	-0,085292
0,205833	0,1	-0,108630
0,207500	0,1	-0,093589
0,209167	0,1	-0,068672
0,210833	0,1	-0,056597
0,212500	0,1	-0,043263
0,214167	0,1	-0,029019
0,215833	0,1	-0,070238
0,217500	0,1	-0,058876
0,219167	0,1	-0,101997
0,220833	0,1	-0,037455
0,222500	0,1	-0,086468
0,224167	0,1	-0,058479
0,225833	0,1	-0,019660
0,227500	0,1	-0,080024
0,229167	0,1	-0,042868
0,230833	0,1	-0,074317
0,232500	0,1	-0,043052
0,234167	0,1	-0,049643
0,235833	0,1	-0,057612
0,237500	0,1	-0,055844
0,239167	0,1	-0,065149
0,240833	0,1	-0,058928
0,242500	0,1	-0,067860
0,244167	0,1	-0,027602
0,245833	0,1	-0,027513
0,247500	0,1	-0,034888
0,249167	0,1	-0,078391
0,250833	0,1	-0,062929
0,252500	0,1	-0,029693
0,254167	0,1	-0,037867
0,255833	0,1	-0,056669
0,257500	0,1	-0,056970
0,259167	0,1	-0,066196
0,260833	0,1	-0,045733
0,262500	0,1	-0,086307
0,264167	0,1	-0,071085
0,265833	0,1	-0,013065
0,267500	0,1	-0,025578
0,269167	0,1	-0,043256
0,270833	0,1	-0,053158
0,272500	0,1	-0,080302
0,274167	0,1	-0,042625
0,275833	0,1	-0,059673
0,277500	0,1	-0,042995
0,279167	0,1	-0,025557
0,280833	0,1	-0,058649
0,282500	0,1	-0,032481
0,284167	0,1	-0,007611
0,285833	0,1	-0,070099
0,287500	0,1	-0,058796
0,289167	0,1	-0,045785
0,290833	0,1	-0,033847
0,292500	0,1	-0,039316
0,294167	0,1	-0,054739
0,295833	0,1	-0,007885
0,297500	0,1	-0,042071
0,299167	0,1	-0,019041
0,300833	0,1	-0,052776
0,302500	0,1	-0,043666
0,304167	0,1	-0,029956
0,305833	0,1	-0,046689
0,307500	0,1	-0,050234
0,309167	0,1	-0,049162
0,310833	0,1	-0,084860
0,312500	0,1	-0,076018
0,314167	0,1	-0,019611
0,315833	0,1	-0,066694
0,317500	0,1	-0,013976
0,319167	0,1	-0,046338
0,320833	0,1	-0,009518
0,322500	0,1	-0,051351
0,324167	0,1	-0,051550
0,325833	0,1	-0,036101
0,327500	0,1	0,005369
0,329167	0,1	-0,029865
0,330833	0,1	-0,033468
0,332500	0,1	-0,022015
0,334167	0,1	-0,030730
0,335833	0,1	-0,054443
0,337500	0,1	-0,036825
0,339167	0,1	-0,066031
0,340833	0,1	-0,034227
0,342500	0,1	-0,042828
0,344167	0,1	0,006092
0,345833	0,1	-0,014066
0,347500	0,1	-0,023029
0,349167	0,1	-0,019465
0,350833	0,1	-0,039123
0,352500	0,1	-0,025799
0,354167	0,1	-0,064471
0,355833	0,1	-0,036935
0,357500	0,1	-0,050421
0,359167	0,1	-0,003539
0,360833	0,1	-0,050492
0,362500	0,1	-0,055252
0,364167	0,1	-0,030202
0,365833	0,1	-0,052028
0,367500	0,1	-0,033230
0,369167	0,1	-0,033870
0,370833	0,1	-0,041111
0,372500	0,1	-0,003645
0,374167	0,1	-0,078359
0,375833	0,1	-0,022000
0,377500	0,1	-0,046634
0,379167	0,1	-0,041008
0,380833	0,1	-0,059405
0,382500	0,1	-0,030095
0,384167	0,1	0,001241
0,385833	0,1	-0,022946
0,387500	0,1	-0,032179
0,389167	0,1	-0,034245
0,390833	0,1	-0,032181
0,392500	0,1	-0,042427
0,394167	0,1	-0,022338
0,395833	0,1	-0,001976
0,397500	0,1	-0,003016
0,399167	0,1	-0,025468
0,400833	0,1	-0,033278
0,402500	0,1	-0,030625
0,404167	0,1	-0,026333
0,405833	0,1	-0,018876
0,407500	0,1	-0,001708
0,409167	0,1	-0,018305
0,410833	0,1	-0,055645
0,412500	0,1	-0,036478
0,414167	0,1	-0,027540
0,415833	0,1	-0,029469
0,417500	0,1	-0,013458
0,419167	0,1	-0,042262
0,420833	0,1	-0,013809
0,422500	0,1	-0,012704
0,424167	0,1	-0,020454
0,425833	0,1	-0,021235
0,427500	0,1	-0,049344
0,429167	0,1	0,005072
0,430833	0,1	-0,008997
0,432500	0,1	-0,057360
0,434167	0,1	-0,020572
0,435833	0,1	0,005534
0,437500	0,1	0,004657
0,439167	0,1	-0,044213
0,440833	0,1	-0,037977
0,442500	0,1	-0,058492
0,444167	0,1	-0,044390
0,445833	0,1	-0,031379
0,447500	0,1	-0,068789
0,449167	0,1	-0,026314
0,450833	0,1	-0,059026
0,452500	0,1	-0,060938
0,454167	0,1	-0,045891
0,455833	0,1	-0,029877
0,457500	0,1	-0,010723
0,459167	0,1	-0,036628
0,460833	0,1	-0,046208
0,462500	0,1	-0,024996
0,464167	0,1	-0,005704
0,465833	0,1	-0,045209
0,467500	0,1	-0,032102
0,469167	0,1	-0,071823
0,470833	0,1	-0,027710
0,472500	0,1	-0,027835
0,474167	0,1	-0,019198
0,475833	0,1	-0,020537
0,477500	0,1	-0,027189
0,479167	0,1	-0,062596
0,480833	0,1	-0,011346
0,482500	0,1	-0,028607
0,484167	0,1	-0,035023
0,485833	0,1	-0,014934
0,487500	0,1	-0,057628
0,489167	0,1	-0,027814
0,490833	0,1	-0,054119
0,492500	0,1	-0,024970
0,494167	0,1	-0,037247
0,495833	0,1	-0,022284
0,497500	0,1	-0,047707
0,499167	0,1	-0,020383
0,500833	0,1	-0,011150
0,502500	0,1	0,001058
0,504167	0,1	-0,019352
0,505833	0,1	-0,052480
0,507500	0,1	-0,057880
0,509167	0,1	-0,008155
0,510833	0,1	-0,046121
0,512500	0,1	-0,049671
0,514167	0,1	-0,035457
0,515833	0,1	-0,055005
0,517500	0,1	-0,016200
0,519167	0,1	-0,023727
0,520833	0,1	-0,032661
0,522500	0,1	-0,060343
0,524167	0,1	-0,034119
0,525833	0,1	-0,049426
0,527500	0,1	-0,039184
0,529167	0,1	-0,060960
0,530833	0,1	-0,074268
0,532500	0,1	-0,018752
0,534167	0,1	-0,059937
0,535833	0,1	-0,064909
0,537500	0,1	-0,019583
0,539167	0,1	-0,073695
0,540833	0,1	-0,000274
0,542500	0,1	-0,032173
0,544167	0,1	-0,036472
0,545833	0,1	-0,030330
0,547500	0,1	-0,052404
0,549167	0,1	-0,058469
0,550833	0,1	-0,022450
0,552500	0,1	-0,041323
0,554167	0,1	-0,004450
0,555833	0,1	-0,015867
0,557500	0,1	-0,039258
0,559167	0,1	-0,024644
0,560833	0,1	-0,043819
0,562500	0,1	-0,039236
0,564167	0,1	-0,029687
0,565833	0,1	-0,035506
0,567500	0,1	-0,001844
0,569167	0,1	-0,017555
0,570833	0,1	-0,010370
0,572500	0,1	-0,035742
0,574167	0,1	-0,019629
0,575833	0,1	-0,037460
0,577500	0,1	-0,036499
0,579167	0,1	-0,046718
0,580833	0,1	-0,010942
0,582500	0,1	-0,049824
0,584167	0,1	-0,049858
0,585833	0,1	-0,069519
0,587500	0,1	-0,037794
0,589167	0,1	0,010947
0,590833	0,1	-0,057489
0,592500	0,1	-0,003942
0,594167	0,1	-0,025469
0,595833	0,1	-0,038427
0,597500	0,1	-0,052835
0,599167	0,1	-0,054526
0,600833	0,1	0,009898
0,602500	0,1	0,001706
0,604167	0,1	-0,035953
0,605833	0,1	-0,032772
0,607500	0,1	-0,035668
0,609167	0,1	-0,000933
0,610833	0,1	-0,018681
0,612500	0,1	-0,016139
0,614167	0,1	-0,052802
0,615833	0,1	-0,025641
0,617500	0,1	-0,020485
0,619167	0,1	-0,007421
0,620833	0,1	-0,045209
0,622500	0,1	-0,070026
0,624167	0,1	-0,021944
0,625833	0,1	-0,048403
0,627500	0,1	-0,026606
0,629167	0,1	0,002581
0,630833	0,1	-0,055961
0,632500	0,1	-0,025507
0,634167	0,1	-0,040655
0,635833	0,1	-0,014506
0,637500	0,1	-0,013803
0,639167	0,1	-0,052613
0,640833	0,1	-0,020760
0,642500	0,1	-0,011311
0,644167	0,1	-0,030217
0,645833	0,1	-0,021130
0,647500	0,1	-0,037703
0,649167	0,1	-0,013192
0,650833	0,1	-0,062107
0,652500	0,1	-0,026716
0,654167	0,1	-0,015468
0,655833	0,1	-0,058246
0,657500	0,1	0,001447
0,659167	0,1	-0,016884
0,660833	0,1	-0,039526
0,662500	0,1	-0,014345
0,664167	0,1	-0,070475
0,665833	0,1	-0,022051
0,667500	0,1	-0,011204
0,669167	0,1	-0,015143
0,670833	0,1	-0,052132
0,672500	0,1	-0,047956
0,674167	0,1	-0,058118
0,675833	0,1	-0,014886
0,677500	0,1	-0,026838
0,679167	0,1	-0,046823
0,680833	0,1	-0,033551
0,682500	0,1	-0,050526
0,684167	0,1	-0,036047
0,685833	0,1	-0,012334
0,687500	0,1	-0,025953
0,689167	0,1	-0,049531
0,690833	0,1	-0,012577
0,692500	0,1	-0,057762
0,694167	0,1	0,003514
0,695833	0,1	0,017958
0,697500	0,1	-0,016827
0,699167	0,1	-0,018846
0,700833	0,1	-0,044032
0,702500	0,1	-0,027542
0,704167	0,1	-0,020082
0,705833	0,1	-0,059775
0,707500	0,1	-0,010649
0,709167	0,1	-0,008008
0,710833	0,1	-0,058298
0,712500	0,1	-0,049056
0,714167	0,1	-0,010674
0,715833	0,1	-0,017074
0,717500	0,1	0,002958
0,719167	0,1	-0,009615
0,720833	0,1	0,013182
0,722500	0,1	-0,014171
0,724167	0,1	0,018223
0,725833	0,1	-0,020017
0,727500	0,1	0,003202
0,729167	0,1	0,044032
0,730833	0,1	0,005173
0,732500	0,1	0,013883
0,734167	0,1	-0,007976
0,735833	0,1	0,031636
0,737500	0,1	0,000532
0,739167	0,1	0,019727
0,740833	0,1	-0,032247
0,742500	0,1	-0,036311
0,744167	0,1	0,008963
0,745833	0,1	0,006964
0,747500	0,1	0,026247
0,749167	0,1	0,049670
0,750833	0,1	0,044873
0,752500	0,1	0,019498
0,754167	0,1	-0,023210
0,755833	0,1	0,023425
0,757500	0,1	0,030437
0,759167	0,1	0,024189
0,760833	0,1	0,030517
0,762500	0,1	0,038514
0,764167	0,1	0,048949
0,765833	0,1	0,018720
0,767500	0,1	0,013964
0,769167	0,1	0,045724
0,770833	0,1	0,007937
0,772500	0,1	0,010075
0,774167	0,1	0,025711
0,775833	0,1	0,009435
0,777500	0,1	-0,006154
0,779167	0,1	-0,008357
0,780833	0,1	-0,019623
0,782500	0,1	0,027288
0,784167	0,1	0,024188
0,785833	0,1	0,014746
0,787500	0,1	-0,020475
0,789167	0,1	-0,012570
0,790833	0,1	-0,023565
0,792500	0,1	-0,021690
0,794167	0,1	-0,038587
0,795833	0,1	0,022026
0,797500	0,1	-0,028492
0,799167	0,1	-0,021584
0,800833	0,1	-0,016111
0,802500	0,1	-0,005516
0,804167	0,1	-0,024450
0,805833	0,1	-0,025849
0,807500	0,1	-0,064335
0,809167	0,1	-0,003676
0,810833	0,1	-0,038181
0,812500	0,1	-0,036741
0,814167	0,1	-0,007693
0,815833	0,1	-0,030834
0,817500	0,1	-0,053314
0,819167	0,1	-0,040875
0,820833	0,1	-0,043526
0,822500	0,1	-0,047524
0,824167	0,1	-0,025987
0,825833	0,1	-0,030488
0,827500	0,1	-0,040412
0,829167	0,1	-0,053638
0,830833	0,1	-0,038837
0,832500	0,1	-0,063372
0,834167	0,1	-0,050050
0,835833	0,1	-0,060154
0,837500	0,1	-0,011829
0,839167	0,1	-0,068757
0,840833	0,1	-0,039753
0,842500	0,1	-0,063615
0,844167	0,1	-0,063378
0,845833	0,1	-0,039241
0,847500	0,1	-0,033416
0,849167	0,1	-0,013782
0,850833	0,1	-0,051326
0,852500	0,1	-0,082524
0,854167	0,1	-0,084139
0,855833	0,1	-0,074485
0,857500	0,1	-0,048174
0,859167	0,1	-0,053104
0,860833	0,1	-0,015099
0,862500	0,1	-0,073504
0,864167	0,1	-0,029401
0,865833	0,1	-0,054922
0,867500	0,1	-0,039213
0,869167	0,1	-0,054176
0,870833	0,1	-0,029798
0,872500	0,1	-0,019761
0,874167	0,1	-0,047276
0,875833	0,1	-0,075095
0,877500	0,1	-0,053243
0,879167	0,1	-0,015879
0,880833	0,1	-0,081228
0,882500	0,1	-0,030984
0,884167	0,1	-0,047951
0,885833	0,1	-0,043019
0,887500	0,1	-0,038191
0,889167	0,1	-0,032772
0,890833	0,1	-0,057874
0,892500	0,1	-0,050771
0,894167	0,1	-0,042430
0,895833	0,1	-0,037519
0,897500	0,1	-0,034621
0,899167	0,1	-0,078524
0,900833	0,1	-0,046646
0,902500	0,1	-0,045512
0,904167	0,1	-0,009279
0,905833	0,1	0,008485
0,907500	0,1	-0,020102
0,909167	0,1	0,005586
0,910833	0,1	-0,031903
0,912500	0,1	-0,044195
0,914167	0,1	0,022210
0,915833	0,1	-0,061507
0,917500	0,1	-0,058389
0,919167	0,1	-0,033982
0,920833	0,1	-0,007585
0,922500	0,1	-0,029035
0,924167	0,1	0,000569
0,925833	0,1	-0,035552
0,927500	0,1	0,015212
0,929167	0,1	-0,009451
0,930833	0,1	-0,036921
0,932500	0,1	-0,014130
0,934167	0,1	-0,017693
0,935833	0,1	-0,017612
0,937500	0,1	-0,045855
0,939167	0,1	-0,000803
0,940833	0,1	-0,040755
0,942500	0,1	-0,001257
0,944167	0,1	-0,018012
0,945833	0,1	-0,000850
0,947500	0,1	-0,034533
0,949167	0,1	-0,017938
0,950833	0,1	-0,027965
0,952500	0,1	-0,004794
0,954167	0,1	-0,029088
0,955833	0,1	-0,017428
0,957500	0,1	0,049255
0,959167	0,1	-0,040018
0,960833	0,1	-0,006298
0,962500	0,1	-0,009377
0,964167	0,1	-0,033248
0,965833	0,1	-0,031054
0,967500	0,1	0,009500
0,969167	0,1	-0,002990
0,970833	0,1	0,006665
0,972500	0,1	-0,028549
0,974167	0,1	0,000463
0,975833	0,1	-0,014926
0,977500	0,1	0,005723
0,979167	0,1	-0,013744
0,980833	0,1	0,053547
0,982500	0,1	-0,036530
0,984167	0,1	-0,017724
0,985833	0,1	0,031313
0,987500	0,1	0,009919
0,989167	0,1	0,030083
0,990833	0,1	-0,002770
0,992500	0,1	0,051432
0,994167	0,1	0,013382
0,995833	0,1	0,051248
0,997500	0,1	0,030686
0,999167	0,1	0,012626
1,000833	0,1	0,038078
1,002500	0,1	0,056700
1,004167	0,1	0,057776
1,005833	0,1	0,050911
1,007500	0,1	0,067028
1,009167	0,1	0,089813
1,010833	0,1	0,108514
1,012500	0,1	0,089498
1,014167	0,1	0,098989
1,015833	0,1	0,101060
1,017500	0,1	0,113450
1,019167	0,1	0,069757
1,020833	0,1	0,144404
1,022500	0,1	0,102088
1,024167	0,1	0,093010
1,025833	0,1	0,106373
1,027500	0,1	0,140202
1,029167	0,1	0,099030
1,030833	0,1	0,160489
1,032500	0,1	0,156159
1,034167	0,1	0,138312
1,035833	0,1	0,172645
1,037500	0,1	0,132358
1,039167	0,1	0,161721
1,040833	0,1	0,161093
1,042500	0,1	0,133349
1,044167	0,1	0,191943
1,045833	0,1	0,197403
1,047500	0,1	0,182221
1,049167	0,1	0,211755
1,050833	0,1	0,226717
1,052500	0,1	0,316183
1,054167	0,1	0,338477
1,055833	0,1	0,419901
1,057500	0,1	0,532108
1,059167	0,1	0,727241
1,060833	0,1	0,920884
1,062500	0,1	1,317142
1,064167	0,1	1,738841
1,065833	0,1	2,336806
1,067500	0,1	3,105992
1,069167	0,1	4,033112
1,070833	0,1	5,338785
1,072500	0,1	6,804100
1,074167	0,1	8,607692
1,075833	0,1	10,734846
1,077500	0,1	13,221759
1,079167	0,1	16,047651
1,080833	0,1	19,186792
1,082500	0,1	22,691922
1,084167	0,1	26,499904
1,085833	0,1	30,564481
1,087500	0,1	34,770877
1,089167	0,1	39,209780
1,090833	0,1	43,743203
1,092500	0,1	48,273724
1,094167	0,1	52,839728
1,095833	0,1	57,294650
1,097500	0,1	61,584290
1,099167	0,1	65,760268
1,100833	0,1	69,647860
1,102500	0,1	73,301726
1,104167	0,1	76,622499
1,105833	0,1	79,676113
1,107500	0,1	82,285052
1,109167	0,1	84,667360
1,110833	0,1	86,634356
1,112500	0,1	88,274867
1,114167	0,1	89,493828
1,115833	0,1	90,372798
1,117500	0,1	90,951369
1,119167	0,1	91,190326
1,120833	0,1	91,071999
1,122500	0,1	90,708900
1,124167	0,1	90,067447
1,125833	0,1	89,155579
1,127500	0,1	87,957090
1,129167	0,1	86,567072
1,130833	0,1	84,958086
1,132500	0,1	83,210889
1,134167	0,1	81,285486
1,135833	0,1	79,221438
1,137500	0,1	77,030942
1,139167	0,1	74,789982
1,140833	0,1	72,472125
1,142500	0,1	70,094796
1,144167	0,1	67,627460
1,145833	0,1	65,198570
1,147500	0,1	62,777529
1,149167	0,1	60,278184
1,150833	0,1	57,910824
1,152500	0,1	55,517762
1,154167	0,1	53,147580
1,155833	0,1	50,846656
1,157500	0,1	48,660076
1,159167	0,1	46,426788
1,160833	0,1	44,296174
1,162500	0,1	42,237664
1,164167	0,1	40,288688
1,165833	0,1	38,350802
1,167500	0,1	36,507577
1,169167	0,1	34,658593
1,170833	0,1	32,992747
1,172500	0,1	31,377060
1,174167	0,1	29,728869
1,175833	0,1	28,305033
1,177500	0,1	26,840299
1,179167	0,1	25,444313
1,180833	0,1	24,152730
1,182500	0,1	22,921322
1,184167	0,1	21,702256
1,185833	0,1	20,573699
1,187500	0,1	19,475720
1,189167	0,1	18,436242
1,190833	0,1	17,507841
1,192500	0,1	16,589350
1,194167	0,1	15,707157
1,195833	0,1	14,878818
1,197500	0,1	14,107886
1,199167	0,1	13,336482
1,200833	0,1	12,665733
1,202500	0,1	12,030314
1,204167	0,1	11,406091
1,205833	0,1	10,780510
1,207500	0,1	10,242726
1,209167	0,1	9,688576
1,210833	0,1	9,240683
1,212500	0,1	8,783817
1,214167	0,1	8,323116
1,215833	0,1	7,951761
1,217500	0,1	7,545406
1,219167	0,1	7,188512
1,220833	0,1	6,848484
1,222500	0,1	6,489286
1,224167	0,1	6,236400
1,225833	0,1	5,945272
1,227500	0,1	5,662201
1,229167	0,1	5,395483
1,230833	0,1	5,147868
1,232500	0,1	4,965378
1,234167	0,1	4,762131
1,235833	0,1	4,513920
1,237500	0,1	4,348321
1,239167	0,1	4,148357
1,240833	0,1	3,978000
1,242500	0,1	3,847341
1,244167	0,1	3,678466
1,245833	0,1	3,523388
1,247500	0,1	3,407991
1,249167	0,1	3,298913
1,250833	0,1	3,160601
1,252500	0,1	3,056070
1,254167	0,1	2,953747
1,255833	0,1	2,867848
1,257500	0,1	2,761084
1,259167	0,1	2,610446
1,260833	0,1	2,563720
1,262500	0,1	2,495140
1,264167	0,1	2,431973
1,265833	0,1	2,346296
1,267500	0,1	2,268684
1,269167	0,1	2,171069
1,270833	0,1	2,126270
1,272500	0,1	2,011821
1,274167	0,1	2,015901
1,275833	0,1	1,933049
1,277500	0,1	1,852320
1,279167	0,1	1,831445
1,280833	0,1	1,793915
1,282500	0,1	1,711395
1,284167	0,1	1,661065
1,285833	0,1	1,636452
1,287500	0,1	1,589974
1,289167	0,1	1,594840
1,290833	0,1	1,484730
1,292500	0,1	1,442610
1,294167	0,1	1,454166
1,295833	0,1	1,379135
1,297500	0,1	1,355224
1,299167	0,1	1,346597
1,300833	0,1	1,317939
1,302500	0,1	1,280602
1,304167	0,1	1,241980
1,305833	0,1	1,243670
1,307500	0,1	1,204827
1,309167	0,1	1,169316
1,310833	0,1	1,164026
1,312500	0,1	1,158566
1,314167	0,1	1,102769
1,315833	0,1	1,108798
1,317500	0,1	1,102465
1,319167	0,1	1,044444
1,320833	0,1	1,082738
1,322500	0,1	1,033878
1,324167	0,1	1,018972
1,325833	0,1	0,990695
1,327500	0,1	1,037731
1,329167	0,1	0,998854
1,330833	0,1	0,966879
1,332500	0,1	0,982006
1,334167	0,1	0,945999
1,335833	0,1	1,002176
1,337500	0,1	0,925772
1,339167	0,1	0,937715
1,340833	0,1	0,933555
1,342500	0,1	0,898538
1,344167	0,1	0,857133
1,345833	0,1	0,927259
1,347500	0,1	0,868639
1,349167	0,1	0,899996
1,350833	0,1	0,856673
1,352500	0,1	0,859765
1,354167	0,1	0,873610
1,355833	0,1	0,838198
1,357500	0,1	0,843287
1,359167	0,1	0,837131
1,360833	0,1	0,862168
1,362500	0,1	0,870847
1,364167	0,1	0,832795
1,365833	0,1	0,820240
1,367500	0,1	0,842050
1,369167	0,1	0,835191
1,370833	0,1	0,852558
1,372500	0,1	0,818373
1,374167	0,1	0,834668
1,375833	0,1	0,842888
1,377500	0,1	0,867923
1,379167	0,1	0,832573
1,380833	0,1	0,824530
1,382500	0,1	0,835487
1,384167	0,1	0,853840
1,385833	0,1	0,843118
1,387500	0,1	0,846813
1,389167	0,1	0,864112
1,390833	0,1	0,813733
1,392500	0,1	0,843523
1,394167	0,1	0,825279
1,395833	0,1	0,863520
1,397500	0,1	0,846223
1,399167	0,1	0,840701
1,400833	0,1	0,806297
1,402500	0,1	0,818720
1,404167	0,1	0,807997
1,405833	0,1	0,785301
1,407500	0,1	0,835712
1,409167	0,1	0,820604
1,410833	0,1	0,805519
1,412500	0,1	0,814077
1,414167	0,1	0,820298
1,415833	0,1	0,812684
1,417500	0,1	0,815841
1,419167	0,1	0,803890
1,420833	0,1	0,780012
1,422500	0,1	0,854299
1,424167	0,1	0,803956
1,425833	0,1	0,799831
1,427500	0,1	0,825807
1,429167	0,1	0,819837
1,430833	0,1	0,803240
1,432500	0,1	0,801365
1,434167	0,1	0,826222
1,435833	0,1	0,814096
1,437500	0,1	0,804706
1,439167	0,1	0,794558
1,440833	0,1	0,798949
1,442500	0,1	0,771922
1,444167	0,1	0,811082
1,445833	0,1	0,787523
1,447500	0,1	0,767479
1,449167	0,1	0,827734
1,450833	0,1	0,804237
1,452500	0,1	0,796077
1,454167	0,1	0,778271
1,455833	0,1	0,790390
1,457500	0,1	0,821763
1,459167	0,1	0,762614
1,460833	0,1	0,779700
1,462500	0,1	0,795498
1,464167	0,1	0,828558
1,465833	0,1	0,803248
1,467500	0,1	0,806991
1,469167	0,1	0,821056
1,470833	0,1	0,765422
1,472500	0,1	0,826156
1,474167	0,1	0,798547
1,475833	0,1	0,776020
1,477500	0,1	0,787752
1,479167	0,1	0,814898
1,480833	0,1	0,817082
1,482500	0,1	0,840772
1,484167	0,1	0,815728
1,485833	0,1	0,858823
1,487500	0,1	0,796620
1,489167	0,1	0,875058
1,490833	0,1	0,827350
1,492500	0,1	0,823469
1,494167	0,1	0,847925
1,495833	0,1	0,877592
1,497500	0,1	0,870677
1,499167	0,1	0,839660
1,500833	0,1	0,817662
1,502500	0,1	0,857118
1,504167	0,1	0,842881
1,505833	0,1	0,850037
1,507500	0,1	0,840480
1,509167	0,1	0,850559
1,510833	0,1	0,841290
1,512500	0,1	0,919112
1,514167	0,1	0,841836
1,515833	0,1	0,891435
1,517500	0,1	0,848044
1,519167	0,1	0,886157
1,520833	0,1	0,864409
1,522500	0,1	0,821480
1,524167	0,1	0,846155
1,525833	0,1	0,848921
1,527500	0,1	0,875711
1,529167	0,1	0,874846
1,530833	0,1	0,857489
1,532500	0,1	0,866107
1,534167	0,1	0,834149
1,535833	0,1	0,844806
1,537500	0,1	0,867152
1,539167	0,1	0,817087
1,540833	0,1	0,789989
1,542500	0,1	0,850025
1,544167	0,1	0,780864
1,545833	0,1	0,800299
1,547500	0,1	0,815674
1,549167	0,1	0,774350
1,550833	0,1	0,783654
1,552500	0,1	0,759559
1,554167	0,1	0,790744
1,555833	0,1	0,766768
1,557500	0,1	0,763196
1,559167	0,1	0,756085
1,560833	0,1	0,763717
1,562500	0,1	0,731543
1,564167	0,1	0,715645
1,565833	0,1	0,743708
1,567500	0,1	0,736158
1,569167	0,1	0,719809
1,570833	0,1	0,703581
1,572500	0,1	0,684293
1,574167	0,1	0,689077
1,575833	0,1	0,695829
1,577500	0,1	0,670383
1,579167	0,1	0,705143
1,580833	0,1	0,741788
1,582500	0,1	0,669863
1,584167	0,1	0,696697
1,585833	0,1	0,664298
1,587500	0,1	0,678348
1,589167	0,1	0,652520
1,590833	0,1	0,698342
1,592500	0,1	0,665937
1,594167	0,1	0,662401
1,595833	0,1	0,667797
1,597500	0,1	0,683631
1,599167	0,1	0,675481
1,600833	0,1	0,658243
1,602500	0,1	0,697574
1,604167	0,1	0,668336
1,605833	0,1	0,666043
1,607500	0,1	0,690674
1,609167	0,1	0,712942
1,610833	0,1	0,715166
1,612500	0,1	0,767045
1,614167	0,1	0,761604
1,615833	0,1	0,823409
1,617500	0,1	0,820129
1,619167	0,1	0,872138
1,620833	0,1	0,915009
1,622500	0,1	0,931912
1,624167	0,1	1,056371
1,625833	0,1	1,082740
1,627500	0,1	1,149980
1,629167	0,1	1,270821
1,630833	0,1	1,393523
1,632500	0,1	1,530312
1,634167	0,1	1,699949
1,635833	0,1	1,813507
1,637500	0,1	2,050525
1,639167	0,1	2,249820
1,640833	0,1	2,501344
1,642500	0,1	2,769404
1,644167	0,1	3,158227
1,645833	0,1	3,460345
1,647500	0,1	3,874203
1,649167	0,1	4,331762
1,650833	0,1	4,840205
1,652500	0,1	5,373782
1,654167	0,1	6,033018
1,655833	0,1	6,732982
1,657500	0,1	7,499898
1,659167	0,1	8,309230
1,660833	0,1	9,227944
1,662500	0,1	10,237981
1,664167	0,1	11,375466
1,665833	0,1	12,609371
1,667500	0,1	13,912954
1,669167	0,1	15,319196
1,670833	0,1	16,823128
1,672500	0,1	18,509139
1,674167	0,1	20,276217
1,675833	0,1	22,150823
1,677500	0,1	24,189885
1,679167	0,1	26,417818
1,680833	0,1	28,717077
1,682500	0,1	31,175964
1,684167	0,1	33,783433
1,685833	0,1	36,533625
1,687500	0,1	39,411255
1,689167	0,1	42,497132
1,690833	0,1	45,670802
1,692500	0,1	48,966601
1,694167	0,1	52,433736
1,695833	0,1	56,066589
1,697500	0,1	59,824646
1,699167	0,1	63,699797
1,700833	0,1	67,709933
1,702500	0,1	71,865684
1,704167	0,1	76,128884
1,705833	0,1	80,466528
1,707500	0,1	84,940325
1,709167	0,1	89,526919
1,710833	0,1	94,118631
1,712500	0,1	98,845357
1,714167	0,1	103,603891
1,715833	0,1	108,390009
1,717500	0,1	113,289551
1,719167	0,1	118,175723
1,720833	0,1	123,054355
1,722500	0,1	127,985283
1,724167	0,1	132,867602
1,725833	0,1	137,789793
1,727500	0,1	142,611910
1,729167	0,1	147,467059
1,730833	0,1	152,183196
1,732500	0,1	156,839718
1,734167	0,1	161,451894
1,735833	0,1	166,002422
1,737500	0,1	170,363845
1,739167	0,1	174,647193
1,740833	0,1	178,768595
1,742500	0,1	182,845646
1,744167	0,1	186,746569
1,745833	0,1	190,529610
1,747500	0,1	194,029648
1,749167	0,1	197,431113
1,750833	0,1	200,685972
1,752500	0,1	203,735680
1,754167	0,1	206,586820
1,755833	0,1	209,253143
1,757500	0,1	211,739133
1,759167	0,1	213,995279
1,760833	0,1	216,132168
1,762500	0,1	217,907936
1,764167	0,1	219,600690
1,765833	0,1	221,037661
1,767500	0,1	222,289873
1,769167	0,1	223,357046
1,770833	0,1	224,143287
1,772500	0,1	224,780981
1,774167	0,1	225,214687
1,775833	0,1	225,428568
1,777500	0,1	225,441371
1,779167	0,1	225,229943
1,780833	0,1	224,895273
1,782500	0,1	224,345556
1,784167	0,1	223,624877
1,785833	0,1	222,686534
1,787500	0,1	221,641333
1,789167	0,1	220,387793
1,790833	0,1	218,989932
1,792500	0,1	217,456818
1,794167	0,1	215,697124
1,795833	0,1	213,885359
1,797500	0,1	211,934688
1,799167	0,1	209,776942
1,800833	0,1	207,608610
1,802500	0,1	205,256487
1,804167	0,1	202,794662
1,805833	0,1	200,241830
1,807500	0,1	197,615755
1,809167	0,1	194,880850
1,810833	0,1	192,023013
1,812500	0,1	189,218053
1,814167	0,1	186,270036
1,815833	0,1	183,271711
1,817500	0,1	180,173267
1,819167	0,1	177,115659
1,820833	0,1	173,990085
1,822500	0,1	170,785099
1,824167	0,1	167,579899
1,825833	0,1	164,418222
1,827500	0,1	161,139323
1,829167	0,1	157,911533
1,830833	0,1	154,676653
1,832500	0,1	151,445780
1,834167	0,1	148,170429
1,835833	0,1	144,946332
1,837500	0,1	141,725550
1,839167	0,1	138,564787
1,840833	0,1	135,339577
1,842500	0,1	132,249615
1,844167	0,1	129,067689
1,845833	0,1	125,973444
1,847500	0,1	122,919444
1,849167	0,1	119,903798
1,850833	0,1	116,922244
1,852500	0,1	113,954360
1,854167	0,1	111,089534
1,855833	0,1	108,202324
1,857500	0,1	105,400153
1,859167	0,1	102,666493
1,860833	0,1	99,926880
1,862500	0,1	97,319277
1,864167	0,1	94,688339
1,865833	0,1	92,172801
1,867500	0,1	89,660237
1,869167	0,1	87,178147
1,870833	0,1	84,837066
1,872500	0,1	82,439816
1,874167	0,1	80,157497
1,875833	0,1	77,934690
1,877500	0,1	75,723660
1,879167	0,1	73,652183
1,880833	0,1	71,509487
1,882500	0,1	69,538084
1,884167	0,1	67,594746
1,885833	0,1	65,637499
1,887500	0,1	63,795122
1,889167	0,1	61,950571
1,890833	0,1	60,183004
1,892500	0,1	58,454954
1,894167	0,1	56,781046
1,895833	0,1	55,192699
1,897500	0,1	53,541967
1,899167	0,1	52,072180
1,900833	0,1	50,522306
1,902500	0,1	49,114427
1,904167	0,1	47,645241
1,905833	0,1	46,303042
1,907500	0,1	45,012285
1,909167	0,1	43,666026
1,910833	0,1	42,449520
1,912500	0,1	41,196238
1,914167	0,1	40,069028
1,915833	0,1	38,891552
1,917500	0,1	37,780617
1,919167	0,1	36,688724
1,920833	0,1	35,659015
1,922500	0,1	34,647541
1,924167	0,1	33,646708
1,925833	0,1	32,688487
1,927500	0,1	31,794324
1,929167	0,1	30,882200
1,930833	0,1	30,000926
1,932500	0,1	29,180057
1,934167	0,1	28,373301
1,935833	0,1	27,558836
1,937500	0,1	26,780434
1,939167	0,1	26,043879
1,940833	0,1	25,323676
1,942500	0,1	24,628935
1,944167	0,1	24,001550
1,945833	0,1	23,310230
1,947500	0,1	22,693321
1,949167	0,1	22,093652
1,950833	0,1	21,458948
1,952500	0,1	20,865239
1,954167	0,1	20,371629
1,955833	0,1	19,797738
1,957500	0,1	19,290965
1,959167	0,1	18,791434
1,960833	0,1	18,297560
1,962500	0,1	17,853623
1,964167	0,1	17,386284
1,965833	0,1	16,949714
1,967500	0,1	16,548535
1,969167	0,1	16,138285
1,970833	0,1	15,719941
1,972500	0,1	15,366387
1,974167	0,1	14,997321
1,975833	0,1	14,668280
1,977500	0,1	14,367889
1,979167	0,1	13,996223
1,980833	0,1	13,642035
1,982500	0,1	13,341917
1,984167	0,1	13,007053
1,985833	0,1	12,689122
1,987500	0,1	12,470724
1,989167	0,1	12,203583
1,990833	0,1	11,907409
1,992500	0,1	11,695518
1,994167	0,1	11,441371
1,995833	0,1	11,216716
1,997500	0,1	10,987904
1,999167	0,1	10,737716
2,000833	0,1	10,583726
2,002500	0,1	10,351235
2,004167	0,1	10,178509
2,005833	0,1	9,976263
2,007500	0,1	9,821490
2,009167	0,1	9,639131
2,010833	0,1	9,465847
2,012500	0,1	9,294711
2,014167	0,1	9,175284
2,015833	0,1	8,999671
2,017500	0,1	8,885115
2,019167	0,1	8,719559
2,020833	0,1	8,605551
2,022500	0,1	8,429391
2,024167	0,1	8,362546
2,025833	0,1	8,258031
2,027500	0,1	8,145627
2,029167	0,1	8,031316
2,030833	0,1	7,948877
2,032500	0,1	7,849459
2,034167	0,1	7,760057
2,035833	0,1	7,642299
2,037500	0,1	7,605870
2,039167	0,1	7,494781
2,040833	0,1	7,415829
2,042500	0,1	7,374501
2,044167	0,1	7,267939
2,045833	0,1	7,161497
2,047500	0,1	7,114187
2,049167	0,1	7,058565
2,050833	0,1	7,024591
2,052500	0,1	6,958690
2,054167	0,1	6,929698
2,055833	0,1	6,814601
2,057500	0,1	6,819066
2,059167	0,1	6,736891
2,060833	0,1	6,708093
2,062500	0,1	6,669991
2,064167	0,1	6,606765
2,065833	0,1	6,580014
2,067500	0,1	6,519499
2,069167	0,1	6,500728
2,070833	0,1	6,476026
2,072500	0,1	6,459963
2,074167	0,1	6,433559
2,075833	0,1	6,398967
2,077500	0,1	6,358418
2,079167	0,1	6,333918
2,080833	0,1	6,257624
2,082500	0,1	6,218224
2,084167	0,1	6,241026
2,085833	0,1	6,244176
2,087500	0,1	6,158563
2,089167	0,1	6,132308
2,090833	0,1	6,117818
2,092500	0,1	6,100923
2,094167	0,1	6,082188
2,095833	0,1	6,025318
2,097500	0,1	5,993405
2,099167	0,1	6,042104
2,100833	0,1	5,991379
2,102500	0,1	5,986066
2,104167	0,1	5,949568
2,105833	0,1	5,910731
2,107500	0,1	5,856478
2,109167	0,1	5,874172
2,110833	0,1	5,858599
2,112500	0,1	5,770850
2,114167	0,1	5,785847
2,115833	0,1	5,773647
2,117500	0,1	5,729007
2,119167	0,1	5,697356
2,120833	0,1	5,661481
2,122500	0,1	5,680115
2,124167	0,1	5,589856
2,125833	0,1	5,598591
2,127500	0,1	5,542996
2,129167	0,1	5,542669
2,130833	0,1	5,535393
2,132500	0,1	5,496593
2,134167	0,1	5,459898
2,135833	0,1	5,399850
2,137500	0,1	5,381873
2,139167	0,1	5,356820
2,140833	0,1	5,303326
2,142500	0,1	5,233025
2,144167	0,1	5,275931
2,145833	0,1	5,257390
2,147500	0,1	5,237875
2,149167	0,1	5,184342
2,150833	0,1	5,183754
2,152500	0,1	5,113831
2,154167	0,1	5,061582
2,155833	0,1	5,009188
2,157500	0,1	5,060429
2,159167	0,1	4,972744
2,160833	0,1	4,944286
2,162500	0,1	4,943097
2,164167	0,1	4,868026
2,165833	0,1	4,835964
2,167500	0,1	4,861098
2,169167	0,1	4,787451
2,170833	0,1	4,742906
2,172500	0,1	4,717003
2,174167	0,1	4,700070
2,175833	0,1	4,691181
2,177500	0,1	4,623795
2,179167	0,1	4,612292
2,180833	0,1	4,570748
2,182500	0,1	4,556634
2,184167	0,1	4,524463
2,185833	0,1	4,532260
2,187500	0,1	4,477055
2,189167	0,1	4,446114
2,190833	0,1	4,404637
2,192500	0,1	4,405567
2,194167	0,1	4,318592
2,195833	0,1	4,315966
2,197500	0,1	4,282240
2,199167	0,1	4,241128
2,200833	0,1	4,215127
2,202500	0,1	4,193530
2,204167	0,1	4,190201
2,205833	0,1	4,161966
2,207500	0,1	4,157915
2,209167	0,1	4,082033
2,210833	0,1	4,056029
2,212500	0,1	4,043604
2,214167	0,1	4,030970
2,215833	0,1	3,935108
2,217500	0,1	3,929897
2,219167	0,1	3,946933
2,220833	0,1	3,934882
2,222500	0,1	3,903283
2,224167	0,1	3,817456
2,225833	0,1	3,811604
2,227500	0,1	3,763126
2,229167	0,1	3,781435
2,230833	0,1	3,699504
2,232500	0,1	3,673863
2,234167	0,1	3,703945
2,235833	0,1	3,655608
2,237500	0,1	3,653239
2,239167	0,1	3,584151
2,240833	0,1	3,587889
2,242500	0,1	3,581621
2,244167	0,1	3,519171
2,245833	0,1	3,508694
2,247500	0,1	3,455569
2,249167	0,1	3,392117
2,250833	0,1	3,390943
2,252500	0,1	3,377664
2,254167	0,1	3,377484
2,255833	0,1	3,340175
2,257500	0,1	3,282748
2,259167	0,1	3,273655
2,260833	0,1	3,239999
2,262500	0,1	3,214036
2,264167	0,1	3,247853
2,265833	0,1	3,165338
2,267500	0,1	3,144076
2,269167	0,1	3,099405
2,270833	0,1	3,167778
2,272500	0,1	3,090403
2,274167	0,1	3,085063
2,275833	0,1	3,056251
2,277500	0,1	3,052820
2,279167	0,1	3,033955
2,280833	0,1	3,004137
2,282500	0,1	3,009875
2,284167	0,1	2,948732
2,285833	0,1	2,934372
2,287500	0,1	2,906637
2,289167	0,1	2,878409
2,290833	0,1	2,857562
2,292500	0,1	2,839705
2,294167	0,1	2,831122
2,295833	0,1	2,828436
2,297500	0,1	2,802904
2,299167	0,1	2,780635
2,300833	0,1	2,775197
2,302500	0,1	2,767381
2,304167	0,1	2,727748
2,305833	0,1	2,697024
2,307500	0,1	2,688091
2,309167	0,1	2,673767
2,310833	0,1	2,685140
2,312500	0,1	2,658910
2,314167	0,1	2,643651
2,315833	0,1	2,625619
2,317500	0,1	2,594082
2,319167	0,1	2,565911
2,320833	0,1	2,554213
2,322500	0,1	2,552720
2,324167	0,1	2,558677
2,325833	0,1	2,522325
2,327500	0,1	2,511636
2,329167	0,1	2,530860
2,330833	0,1	2,463183
2,332500	0,1	2,503690
2,334167	0,1	2,453531
2,335833	0,1	2,415978
2,337500	0,1	2,400403
2,339167	0,1	2,412536
2,340833	0,1	2,400499
2,342500	0,1	2,367328
2,344167	0,1	2,350656
2,345833	0,1	2,343634
2,347500	0,1	2,349194
2,349167	0,1	2,312536
2,350833	0,1	2,331073
2,352500	0,1	2,305606
2,354167	0,1	2,302465
2,355833	0,1	2,277264
2,357500	0,1	2,265931
2,359167	0,1	2,269584
2,360833	0,1	2,267516
2,362500	0,1	2,246073
2,364167	0,1	2,247744
2,365833	0,1	2,237548
2,367500	0,1	2,206920
2,369167	0,1	2,164471
2,370833	0,1	2,198695
2,372500	0,1	2,195242
2,374167	0,1	2,151215
2,375833	0,1	2,151497
2,377500	0,1	2,138104
2,379167	0,1	2,194160
2,380833	0,1	2,094281
2,382500	0,1	2,121399
2,384167	0,1	2,100851
2,385833	0,1	2,086727
2,387500	0,1	2,113399
2,389167	0,1	2,031049
2,390833	0,1	2,054202
2,392500	0,1	2,051873
2,394167	0,1	2,056546
2,395833	0,1	1,996031
2,397500	0,1	2,022089
2,399167	0,1	1,969638
2,400833	0,1	1,978531
2,402500	0,1	1,944933
2,404167	0,1	1,995839
2,405833	0,1	1,915260
2,407500	0,1	1,962562
2,409167	0,1	1,956673
2,410833	0,1	1,921194
2,412500	0,1	1,902313
2,414167	0,1	1,901184
2,415833	0,1	1,883772
2,417500	0,1	1,885347
2,419167	0,1	1,870628
2,420833	0,1	1,881572
2,422500	0,1	1,876801
2,424167	0,1	1,851172
2,425833	0,1	1,853274
2,427500	0,1	1,826975
2,429167	0,1	1,811580
2,430833	0,1	1,826470
2,432500	0,1	1,823721
2,434167	0,1	1,768631
2,435833	0,1	1,793515
2,437500	0,1	1,768130
2,439167	0,1	1,793606
2,440833	0,1	1,737880
2,442500	0,1	1,733466
2,444167	0,1	1,722418
2,445833	0,1	1,745139
2,447500	0,1	1,716311
2,449167	0,1	1,740323
2,450833	0,1	1,704895
2,452500	0,1	1,664023
2,454167	0,1	1,705449
2,455833	0,1	1,666072
2,457500	0,1	1,686677
2,459167	0,1	1,668759
2,460833	0,1	1,700015
2,462500	0,1	1,642578
2,464167	0,1	1,601338
2,465833	0,1	1,659449
2,467500	0,1	1,641020
2,469167	0,1	1,596623
2,470833	0,1	1,611409
2,472500	0,1	1,612350
2,474167	0,1	1,589107
2,475833	0,1	1,585175
2,477500	0,1	1,592622
2,479167	0,1	1,590212
2,480833	0,1	1,555035
2,482500	0,1	1,584754
2,484167	0,1	1,566964
2,485833	0,1	1,538941
2,487500	0,1	1,563359
2,489167	0,1	1,534188
2,490833	0,1	1,566224
2,492500	0,1	1,558210
2,494167	0,1	1,521390
2,495833	0,1	1,507342
2,497500	0,1	1,503938
2,499167	0,1	1,506510
2,500833	0,1	1,505763
2,502500	0,1	1,532640
2,504167	0,1	1,486144
2,505833	0,1	1,492418
2,507500	0,1	1,500403
2,509167	0,1	1,490079
2,510833	0,1	1,491127
2,512500	0,1	1,466586
2,514167	0,1	1,495117
2,515833	0,1	1,465295
2,517500	0,1	1,471729
2,519167	0,1	1,512134
2,520833	0,1	1,477751
2,522500	0,1	1,480368
2,524167	0,1	1,484950
2,525833	0,1	1,438470
2,527500	0,1	1,458472
2,529167	0,1	1,482595
2,530833	0,1	1,469107
2,532500	0,1	1,449903
2,534167	0,1	1,420674
2,535833	0,1	1,444026
2,537500	0,1	1,469097
2,539167	0,1	1,436117
2,540833	0,1	1,485344
2,542500	0,1	1,455719
2,544167	0,1	1,429836
2,545833	0,1	1,464513
2,547500	0,1	1,468939
2,549167	0,1	1,446088
2,550833	0,1	1,410092
2,552500	0,1	1,449025
2,554167	0,1	1,478253
2,555833	0,1	1,436464
2,557500	0,1	1,477672
2,559167	0,1	1,456775
2,560833	0,1	1,432765
2,562500	0,1	1,430528
2,564167	0,1	1,431932
2,565833	0,1	1,466106
2,567500	0,1	1,483200
2,569167	0,1	1,483832
2,570833	0,1	1,473982
2,572500	0,1	1,490771
2,574167	0,1	1,523825
2,575833	0,1	1,480088
2,577500	0,1	1,504801
2,579167	0,1	1,520368
2,580833	0,1	1,480226
2,582500	0,1	1,485202
2,584167	0,1	1,497614
2,585833	0,1	1,532174
2,587500	0,1	1,540407
2,589167	0,1	1,491683
2,590833	0,1	1,520365
2,592500	0,1	1,529233
2,594167	0,1	1,526721
2,595833	0,1	1,577276
2,597500	0,1	1,514048
2,599167	0,1	1,563878
2,600833	0,1	1,555835
2,602500	0,1	1,578674
2,604167	0,1	1,533546
2,605833	0,1	1,597121
2,607500	0,1	1,584885
2,609167	0,1	1,563370
2,610833	0,1	1,592252
2,612500	0,1	1,602716
2,614167	0,1	1,623111
2,615833	0,1	1,619398
2,617500	0,1	1,578137
2,619167	0,1	1,611879
2,620833	0,1	1,624783
2,622500	0,1	1,599616
2,624167	0,1	1,647528
2,625833	0,1	1,631679
2,627500	0,1	1,607613
2,629167	0,1	1,600538
2,630833	0,1	1,632486
2,632500	0,1	1,608381
2,634167	0,1	1,641776
2,635833	0,1	1,616941
2,637500	0,1	1,621396
2,639167	0,1	1,632150
2,640833	0,1	1,590343
2,642500	0,1	1,638847
2,644167	0,1	1,613321
2,645833	0,1	1,655112
2,647500	0,1	1,607436
2,649167	0,1	1,628098
2,650833	0,1	1,659639
2,652500	0,1	1,613728
2,654167	0,1	1,642887
2,655833	0,1	1,639553
2,657500	0,1	1,636199
2,659167	0,1	1,616257
2,660833	0,1	1,631977
2,662500	0,1	1,615524
2,664167	0,1	1,614777
2,665833	0,1	1,645361
2,667500	0,1	1,604484
2,669167	0,1	1,587519
2,670833	0,1	1,572708
2,672500	0,1	1,605539
2,674167	0,1	1,582975
2,675833	0,1	1,591268
2,677500	0,1	1,593320
2,679167	0,1	1,594501
2,680833	0,1	1,584203
2,682500	0,1	1,599656
2,684167	0,1	1,562961
2,685833	0,1	1,571602
2,687500	0,1	1,552971
2,689167	0,1	1,619736
2,690833	0,1	1,570657
2,692500	0,1	1,545453
2,694167	0,1	1,598294
2,695833	0,1	1,565836
2,697500	0,1	1,513751
2,699167	0,1	1,586487
2,700833	0,1	1,564956
2,702500	0,1	1,527315
2,704167	0,1	1,555080
2,705833	0,1	1,538708
2,707500	0,1	1,537643
2,709167	0,1	1,544275
2,710833	0,1	1,542751
2,712500	0,1	1,499657
2,714167	0,1	1,520488
2,715833	0,1	1,536568
2,717500	0,1	1,515310
2,719167	0,1	1,483273
2,720833	0,1	1,487613
2,722500	0,1	1,529456
2,724167	0,1	1,500171
2,725833	0,1	1,485317
2,727500	0,1	1,475626
2,729167	0,1	1,524176
2,730833	0,1	1,489250
2,732500	0,1	1,538793
2,734167	0,1	1,517611
2,735833	0,1	1,492305
2,737500	0,1	1,473863
2,739167	0,1	1,459470
2,740833	0,1	1,484774
2,742500	0,1	1,469512
2,744167	0,1	1,543370
2,745833	0,1	1,472765
2,747500	0,1	1,483727
2,749167	0,1	1,474877
2,750833	0,1	1,459186
2,752500	0,1	1,453611
2,754167	0,1	1,468333
2,755833	0,1	1,489184
2,757500	0,1	1,483256
2,759167	0,1	1,446738
2,760833	0,1	1,530031
2,762500	0,1	1,485618
2,764167	0,1	1,446625
2,765833	0,1	1,475385
2,767500	0,1	1,497635
2,769167	0,1	1,515188
2,770833	0,1	1,512549
2,772500	0,1	1,500994
2,774167	0,1	1,522346
2,775833	0,1	1,542333
2,777500	0,1	1,490728
2,779167	0,1	1,510151
2,780833	0,1	1,507331
2,782500	0,1	1,534276
2,784167	0,1	1,525017
2,785833	0,1	1,508393
2,787500	0,1	1,526473
2,789167	0,1	1,546795
2,790833	0,1	1,537999
2,792500	0,1	1,507750
2,794167	0,1	1,561526
2,795833	0,1	1,565536
2,797500	0,1	1,538529
2,799167	0,1	1,537743
2,800833	0,1	1,555083
2,802500	0,1	1,559257
2,804167	0,1	1,562233
2,805833	0,1	1,570886
2,807500	0,1	1,535592
2,809167	0,1	1,596293
2,810833	0,1	1,566260
2,812500	0,1	1,602016
2,814167	0,1	1,581279
2,815833	0,1	1,608710
2,817500	0,1	1,586036
2,819167	0,1	1,538361
2,820833	0,1	1,562210
2,822500	0,1	1,605574
2,824167	0,1	1,566362
2,825833	0,1	1,560491
2,827500	0,1	1,569945
2,829167	0,1	1,528305
2,830833	0,1	1,544030
2,832500	0,1	1,584092
2,834167	0,1	1,574451
2,835833	0,1	1,569827
2,837500	0,1	1,538397
2,839167	0,1	1,558667
2,840833	0,1	1,541111
2,842500	0,1	1,538451
2,844167	0,1	1,564178
2,845833	0,1	1,541222
2,847500	0,1	1,482211
2,849167	0,1	1,521533
2,850833	0,1	1,533460
2,852500	0,1	1,455024
2,854167	0,1	1,476782
2,855833	0,1	1,476564
2,857500	0,1	1,472284
2,859167	0,1	1,461287
2,860833	0,1	1,476309
2,862500	0,1	1,466625
2,864167	0,1	1,409752
2,865833	0,1	1,431333
2,867500	0,1	1,459752
2,869167	0,1	1,429347
2,870833	0,1	1,455826
2,872500	0,1	1,448712
2,874167	0,1	1,387194
2,875833	0,1	1,377088
2,877500	0,1	1,409310
2,879167	0,1	1,413231
2,880833	0,1	1,386082
2,882500	0,1	1,354262
2,884167	0,1	1,325724
2,885833	0,1	1,333703
2,887500	0,1	1,365274
2,889167	0,1	1,321207
2,890833	0,1	1,346320
2,892500	0,1	1,344265
2,894167	0,1	1,306179
2,895833	0,1	1,292384
2,897500	0,1	1,268493
2,899167	0,1	1,336552
2,900833	0,1	1,282699
2,902500	0,1	1,264494
2,904167	0,1	1,204468
2,905833	0,1	1,228511
2,907500	0,1	1,220181
2,909167	0,1	1,188325
2,910833	0,1	1,238834
2,912500	0,1	1,169609
2,914167	0,1	1,171821
2,915833	0,1	1,162848
2,917500	0,1	1,152868
2,919167	0,1	1,167711
2,920833	0,1	1,127528
2,922500	0,1	1,107749
2,924167	0,1	1,138072
2,925833	0,1	1,117783
2,927500	0,1	1,093786
2,929167	0,1	1,086975
2,930833	0,1	1,075536
2,932500	0,1	1,061338
2,934167	0,1	1,077701
2,935833	0,1	1,043918
2,937500	0,1	1,030712
2,939167	0,1	1,035753
2,940833	0,1	1,020387
2,942500	0,1	1,055576
2,944167	0,1	1,070660
2,945833	0,1	1,062395
2,947500	0,1	0,981338
2,949167	0,1	0,991227
2,950833	0,1	0,996569
2,952500	0,1	0,992525
2,954167	0,1	0,972759
2,955833	0,1	0,997147
2,957500	0,1	0,978095
2,959167	0,1	0,928126
2,960833	0,1	0,958965
2,962500	0,1	0,914172
2,964167	0,1	0,976965
2,965833	0,1	0,922032
2,967500	0,1	0,932807
2,969167	0,1	0,933573
2,970833	0,1	0,940608
2,972500	0,1	0,885606
2,974167	0,1	0,885369
2,975833	0,1	0,907050
2,977500	0,1	0,903253
2,979167	0,1	0,890411
2,980833	0,1	0,847901
2,982500	0,1	0,897902
2,984167	0,1	0,869779
2,985833	0,1	0,926290
2,987500	0,1	0,879632
2,989167	0,1	0,880201
2,990833	0,1	0,869180
2,992500	0,1	0,840157
2,994167	0,1	0,855393
2,995833	0,1	0,843086
2,997500	0,1	0,868054
2,999167	0,1	0,831831
3,000833	0,1	0,836102
3,002500	0,1	0,842614
3,004167	0,1	0,841506
3,005833	0,1	0,853816
3,007500	0,1	0,829071
3,009167	0,1	0,804910
3,010833	0,1	0,856034
3,012500	0,1	0,822743
3,014167	0,1	0,834050
3,015833	0,1	0,847595
3,017500	0,1	0,827793
3,019167	0,1	0,771266
3,020833	0,1	0,867749
3,022500	0,1	0,838230
3,024167	0,1	0,815531
3,025833	0,1	0,801855
3,027500	0,1	0,786686
3,029167	0,1	0,819382
3,030833	0,1	0,798354
3,032500	0,1	0,819341
3,034167	0,1	0,774488
3,035833	0,1	0,814936
3,037500	0,1	0,836225
3,039167	0,1	0,800284
3,040833	0,1	0,816633
3,042500	0,1	0,797064
3,044167	0,1	0,779821
3,045833	0,1	0,766277
3,047500	0,1	0,786497
3,049167	0,1	0,778707
3,050833	0,1	0,804497
3,052500	0,1	0,766518
3,054167	0,1	0,772785
3,055833	0,1	0,738068
3,057500	0,1	0,766153
3,059167	0,1	0,754480
3,060833	0,1	0,783858
3,062500	0,1	0,774079
3,064167	0,1	0,780223
3,065833	0,1	0,761764
3,067500	0,1	0,743069
3,069167	0,1	0,751798
3,070833	0,1	0,765746
3,072500	0,1	0,767741
3,074167	0,1	0,748449
3,075833	0,1	0,741588
3,077500	0,1	0,779938
3,079167	0,1	0,766986
3,080833	0,1	0,731448
3,082500	0,1	0,702086
3,084167	0,1	0,725060
3,085833	0,1	0,757653
3,087500	0,1	0,724240
3,089167	0,1	0,739715
3,090833	0,1	0,700211
3,092500	0,1	0,726634
3,094167	0,1	0,695639
3,095833	0,1	0,720898
3,097500	0,1	0,711052
3,099167	0,1	0,697986
3,100833	0,1	0,728169
3,102500	0,1	0,701972
3,104167	0,1	0,689357
3,105833	0,1	0,704552
3,107500	0,1	0,709353
3,109167	0,1	0,680458
3,110833	0,1	0,665727
3,112500	0,1	0,673536
3,114167	0,1	0,701552
3,115833	0,1	0,647286
3,117500	0,1	0,688358
3,119167	0,1	0,703623
3,120833	0,1	0,633389
3,122500	0,1	0,636843
3,124167	0,1	0,658581
3,125833	0,1	0,642594
3,127500	0,1	0,688766
3,129167	0,1	0,640724
3,130833	0,1	0,670364
3,132500	0,1	0,652426
3,134167	0,1	0,656887
3,135833	0,1	0,660463
3,137500	0,1	0,640063
3,139167	0,1	0,671065
3,140833	0,1	0,638154
3,142500	0,1	0,631518
3,144167	0,1	0,658702
3,145833	0,1	0,602735
3,147500	0,1	0,615104
3,149167	0,1	0,643715
3,150833	0,1	0,615858
3,152500	0,1	0,648510
3,154167	0,1	0,593019
3,155833	0,1	0,600039
3,157500	0,1	0,593733
3,159167	0,1	0,630740
3,160833	0,1	0,615460
3,162500	0,1	0,593825
3,164167	0,1	0,614976
3,165833	0,1	0,564612
3,167500	0,1	0,596291
3,169167	0,1	0,586381
3,170833	0,1	0,569690
3,172500	0,1	0,593771
3,174167	0,1	0,621670
3,175833	0,1	0,606209
3,177500	0,1	0,591382
3,179167	0,1	0,607311
3,180833	0,1	0,574921
3,182500	0,1	0,587145
3,184167	0,1	0,523433
3,185833	0,1	0,540004
3,187500	0,1	0,585904
3,189167	0,1	0,544587
3,190833	0,1	0,540669
3,192500	0,1	0,539379
3,194167	0,1	0,522736
3,195833	0,1	0,562488
3,197500	0,1	0,535461
3,199167	0,1	0,553668
3,200833	0,1	0,561305
3,202500	0,1	0,504557
3,204167	0,1	0,569378
3,205833	0,1	0,545730
3,207500	0,1	0,537459
3,209167	0,1	0,537472
3,210833	0,1	0,583339
3,212500	0,1	0,526625
3,214167	0,1	0,532943
3,215833	0,1	0,554843
3,217500	0,1	0,526353
3,219167	0,1	0,536629
3,220833	0,1	0,532470
3,222500	0,1	0,524484
3,224167	0,1	0,560360
3,225833	0,1	0,545798
3,227500	0,1	0,522330
3,229167	0,1	0,502923
3,230833	0,1	0,494850
3,232500	0,1	0,539312
3,234167	0,1	0,538915
3,235833	0,1	0,542908
3,237500	0,1	0,553288
3,239167	0,1	0,546258
3,240833	0,1	0,526084
3,242500	0,1	0,505431
3,244167	0,1	0,538108
3,245833	0,1	0,505001
3,247500	0,1	0,570678
3,249167	0,1	0,544329
3,250833	0,1	0,539519
3,252500	0,1	0,471144
3,254167	0,1	0,514187
3,255833	0,1	0,488814
3,257500	0,1	0,503532
3,259167	0,1	0,485662
3,260833	0,1	0,508895
3,262500	0,1	0,492527
3,264167	0,1	0,471372
3,265833	0,1	0,504284
3,267500	0,1	0,465672
3,269167	0,1	0,487655
3,270833	0,1	0,477114
3,272500	0,1	0,505755
3,274167	0,1	0,506743
3,275833	0,1	0,496057
3,277500	0,1	0,524727
3,279167	0,1	0,467570
3,280833	0,1	0,462737
3,282500	0,1	0,516370
3,284167	0,1	0,509871
3,285833	0,1	0,508789
3,287500	0,1	0,503606
3,289167	0,1	0,521451
3,290833	0,1	0,498106
3,292500	0,1	0,493321
3,294167	0,1	0,481849
3,295833	0,1	0,500013
3,297500	0,1	0,502779
3,299167	0,1	0,502303
3,300833	0,1	0,525444
3,302500	0,1	0,517549
3,304167	0,1	0,510403
3,305833	0,1	0,484543
3,307500	0,1	0,485125
3,309167	0,1	0,514205
3,310833	0,1	0,459415
3,312500	0,1	0,531289
3,314167	0,1	0,514285
3,315833	0,1	0,490763
3,317500	0,1	0,501067
3,319167	0,1	0,509867
3,320833	0,1	0,499951
3,322500	0,1	0,506869
3,324167	0,1	0,492247
3,325833	0,1	0,531366
3,327500	0,1	0,518447
3,329167	0,1	0,499029
3,330833	0,1	0,474428
3,332500	0,1	0,503009
3,334167	0,1	0,484890
3,335833	0,1	0,478123
3,337500	0,1	0,492996
3,339167	0,1	0,498378
3,340833	0,1	0,504360
3,342500	0,1	0,504124
3,344167	0,1	0,508579
3,345833	0,1	0,499839
3,347500	0,1	0,549943
3,349167	0,1	0,511167
3,350833	0,1	0,527548
3,352500	0,1	0,497519
3,354167	0,1	0,550406
3,355833	0,1	0,485841
3,357500	0,1	0,522694
3,359167	0,1	0,557206
3,360833	0,1	0,518257
3,362500	0,1	0,506817
3,364167	0,1	0,486067
3,365833	0,1	0,510732
3,367500	0,1	0,524675
3,369167	0,1	0,491045
3,370833	0,1	0,532598
3,372500	0,1	0,522383
3,374167	0,1	0,494616
3,375833	0,1	0,535709
3,377500	0,1	0,507591
3,379167	0,1	0,514196
3,380833	0,1	0,532716
3,382500	0,1	0,513432
3,384167	0,1	0,530378
3,385833	0,1	0,514957
3,387500	0,1	0,526904
3,389167	0,1	0,501257
3,390833	0,1	0,532364
3,392500	0,1	0,517074
3,394167	0,1	0,539217
3,395833	0,1	0,555797
3,397500	0,1	0,534479
3,399167	0,1	0,503655
3,400833	0,1	0,537659
3,402500	0,1	0,555808
3,404167	0,1	0,575778
3,405833	0,1	0,520839
3,407500	0,1	0,563481
3,409167	0,1	0,548306
3,410833	0,1	0,516615
3,412500	0,1	0,554558
3,414167	0,1	0,604734
3,415833	0,1	0,497173
3,417500	0,1	0,541790
3,419167	0,1	0,504946
3,420833	0,1	0,560955
3,422500	0,1	0,530977
3,424167	0,1	0,527665
3,425833	0,1	0,515196
3,427500	0,1	0,523458
3,429167	0,1	0,534708
3,430833	0,1	0,529526
3,432500	0,1	0,539320
3,434167	0,1	0,539222
3,435833	0,1	0,512046
3,437500	0,1	0,574966
3,439167	0,1	0,557581
3,440833	0,1	0,560956
3,442500	0,1	0,514448
3,444167	0,1	0,523050
3,445833	0,1	0,520167
3,447500	0,1	0,545073
3,449167	0,1	0,510815
3,450833	0,1	0,545828
3,452500	0,1	0,590973
3,454167	0,1	0,552362
3,455833	0,1	0,570985
3,457500	0,1	0,567584
3,459167	0,1	0,530110
3,460833	0,1	0,537062
3,462500	0,1	0,551997
3,464167	0,1	0,559636
3,465833	0,1	0,527067
3,467500	0,1	0,564422
3,469167	0,1	0,551109
3,470833	0,1	0,558152
3,472500	0,1	0,584939
3,474167	0,1	0,551840
3,475833	0,1	0,525048
3,477500	0,1	0,573962
3,479167	0,1	0,569744
3,480833	0,1	0,519829
3,482500	0,1	0,562236
3,484167	0,1	0,562610
3,485833	0,1	0,540868
3,487500	0,1	0,584065
3,489167	0,1	0,563665
3,490833	0,1	0,565888
3,492500	0,1	0,556321
3,494167	0,1	0,527459
3,495833	0,1	0,571035
3,497500	0,1	0,551406
3,499167	0,1	0,597701
3,500833	0,1	0,522946
3,502500	0,1	0,547847
3,504167	0,1	0,578785
3,505833	0,1	0,527689
3,507500	0,1	0,572786
3,509167	0,1	0,577896
3,510833	0,1	0,543154
3,512500	0,1	0,571852
3,514167	0,1	0,561323
3,515833	0,1	0,546248
3,517500	0,1	0,583535
3,519167	0,1	0,589975
3,520833	0,1	0,570586
3,522500	0,1	0,605665
3,524167	0,1	0,540822
3,525833	0,1	0,612398
3,527500	0,1	0,577374
3,529167	0,1	0,538167
3,530833	0,1	0,572369
3,532500	0,1	0,567585
3,534167	0,1	0,551473
3,535833	0,1	0,567988
3,537500	0,1	0,595296
3,539167	0,1	0,560977
3,540833	0,1	0,563884
3,542500	0,1	0,574196
3,544167	0,1	0,578485
3,545833	0,1	0,601381
3,547500	0,1	0,557295
3,549167	0,1	0,565493
3,550833	0,1	0,575204
3,552500	0,1	0,572854
3,554167	0,1	0,581287
3,555833	0,1	0,585452
3,557500	0,1	0,554055
3,559167	0,1	0,555043
3,560833	0,1	0,579769
3,562500	0,1	0,551195
3,564167	0,1	0,570045
3,565833	0,1	0,596948
3,567500	0,1	0,545863
3,569167	0,1	0,552239
3,570833	0,1	0,587502
3,572500	0,1	0,564898
3,574167	0,1	0,571337
3,575833	0,1	0,582407
3,577500	0,1	0,585396
3,579167	0,1	0,580646
3,580833	0,1	0,520069
3,582500	0,1	0,528431
3,584167	0,1	0,583823
3,585833	0,1	0,578374
3,587500	0,1	0,566435
3,589167	0,1	0,581412
3,590833	0,1	0,581891
3,592500	0,1	0,548325
3,594167	0,1	0,563600
3,595833	0,1	0,543038
3,597500	0,1	0,564887
3,599167	0,1	0,555409
3,600833	0,1	0,539690
3,602500	0,1	0,583576
3,604167	0,1	0,542945
3,605833	0,1	0,575913
3,607500	0,1	0,531918
3,609167	0,1	0,578069
3,610833	0,1	0,577084
3,612500	0,1	0,545634
3,614167	0,1	0,521952
3,615833	0,1	0,562724
3,617500	0,1	0,493954
3,619167	0,1	0,537405
3,620833	0,1	0,500251
3,622500	0,1	0,557552
3,624167	0,1	0,536019
3,625833	0,1	0,538045
3,627500	0,1	0,557404
3,629167	0,1	0,538077
3,630833	0,1	0,548776
3,632500	0,1	0,528509
3,634167	0,1	0,526655
3,635833	0,1	0,538702
3,637500	0,1	0,512509
3,639167	0,1	0,502614
3,640833	0,1	0,507583
3,642500	0,1	0,514083
3,644167	0,1	0,524115
3,645833	0,1	0,531261
3,647500	0,1	0,490853
3,649167	0,1	0,525105
3,650833	0,1	0,471127
3,652500	0,1	0,514902
3,654167	0,1	0,526512
3,655833	0,1	0,518430
3,657500	0,1	0,464782
3,659167	0,1	0,477220
3,660833	0,1	0,496442
3,662500	0,1	0,518130
3,664167	0,1	0,512280
3,665833	0,1	0,504238
3,667500	0,1	0,508943
3,669167	0,1	0,552129
3,670833	0,1	0,521141
3,672500	0,1	0,511649
3,674167	0,1	0,480062
3,675833	0,1	0,502858
3,677500	0,1	0,503144
3,679167	0,1	0,494627
3,680833	0,1	0,553302
3,682500	0,1	0,491907
3,684167	0,1	0,486304
3,685833	0,1	0,488853
3,687500	0,1	0,512918
3,689167	0,1	0,466460
3,690833	0,1	0,514985
3,692500	0,1	0,513161
3,694167	0,1	0,497584
3,695833	0,1	0,524867
3,697500	0,1	0,497502
3,699167	0,1	0,472844
3,700833	0,1	0,449827
3,702500	0,1	0,469499
3,704167	0,1	0,534065
3,705833	0,1	0,492379
3,707500	0,1	0,528340
3,709167	0,1	0,479478
3,710833	0,1	0,514441
3,712500	0,1	0,502782
3,714167	0,1	0,476783
3,715833	0,1	0,506191
3,717500	0,1	0,544523
3,719167	0,1	0,505311
3,720833	0,1	0,517656
3,722500	0,1	0,500219
3,724167	0,1	0,543851
3,725833	0,1	0,536409
3,727500	0,1	0,546198
3,729167	0,1	0,530791
3,730833	0,1	0,516570
3,732500	0,1	0,541401
3,734167	0,1	0,545723
3,735833	0,1	0,542053
3,737500	0,1	0,537514
3,739167	0,1	0,565474
3,740833	0,1	0,538472
3,742500	0,1	0,558498
3,744167	0,1	0,547099
3,745833	0,1	0,545375
3,747500	0,1	0,595709
3,749167	0,1	0,570995
3,750833	0,1	0,563676
3,752500	0,1	0,609135
3,754167	0,1	0,586885
3,755833	0,1	0,572575
3,757500	0,1	0,590197
3,759167	0,1	0,630071
3,760833	0,1	0,642848
3,762500	0,1	0,632312
3,764167	0,1	0,601294
3,765833	0,1	0,612366
3,767500	0,1	0,576856
3,769167	0,1	0,635214
3,770833	0,1	0,612477
3,772500	0,1	0,673138
3,774167	0,1	0,614792
3,775833	0,1	0,652151
3,777500	0,1	0,667594
3,779167	0,1	0,653644
3,780833	0,1	0,676010
3,782500	0,1	0,670279
3,784167	0,1	0,625037
3,785833	0,1	0,693719
3,787500	0,1	0,665241
3,789167	0,1	0,684060
3,790833	0,1	0,703281
3,792500	0,1	0,660844
3,794167	0,1	0,714291
3,795833	0,1	0,703458
3,797500	0,1	0,717987
3,799167	0,1	0,684766
3,800833	0,1	0,687438
3,802500	0,1	0,695231
3,804167	0,1	0,714887
3,805833	0,1	0,690794
3,807500	0,1	0,748284
3,809167	0,1	0,689930
3,810833	0,1	0,727597
3,812500	0,1	0,661202
3,814167	0,1	0,731743
3,815833	0,1	0,695784
3,817500	0,1	0,747771
3,819167	0,1	0,731945
3,820833	0,1	0,741316
3,822500	0,1	0,722149
3,824167	0,1	0,699062
3,825833	0,1	0,704202
3,827500	0,1	0,741850
3,829167	0,1	0,741261
3,830833	0,1	0,763410
3,832500	0,1	0,683723
3,834167	0,1	0,716344
3,835833	0,1	0,696888
3,837500	0,1	0,705377
3,839167	0,1	0,697294
3,840833	0,1	0,692371
3,842500	0,1	0,723323
3,844167	0,1	0,713878
3,845833	0,1	0,681891
3,847500	0,1	0,740955
3,849167	0,1	0,686296
3,850833	0,1	0,696426
3,852500	0,1	0,732235
3,854167	0,1	0,684474
3,855833	0,1	0,662943
3,857500	0,1	0,662646
3,859167	0,1	0,699692
3,860833	0,1	0,716583
3,862500	0,1	0,721442
3,864167	0,1	0,701288
3,865833	0,1	0,685585
3,867500	0,1	0,696133
3,869167	0,1	0,693311
3,870833	0,1	0,711018
3,872500	0,1	0,692204
3,874167	0,1	0,667108
3,875833	0,1	0,704035
3,877500	0,1	0,713304
3,879167	0,1	0,738277
3,880833	0,1	0,678256
3,882500	0,1	0,706548
3,884167	0,1	0,632192
3,885833	0,1	0,684328
3,887500	0,1	0,629483
3,889167	0,1	0,642474
3,890833	0,1	0,692596
3,892500	0,1	0,628139
3,894167	0,1	0,651510
3,895833	0,1	0,654986
3,897500	0,1	0,640455
3,899167	0,1	0,665475
3,900833	0,1	0,647595
3,902500	0,1	0,635118
3,904167	0,1	0,617225
3,905833	0,1	0,624446
3,907500	0,1	0,636175
3,909167	0,1	0,641142
3,910833	0,1	0,647950
3,912500	0,1	0,630786
3,914167	0,1	0,615958
3,915833	0,1	0,631661
3,917500	0,1	0,611855
3,919167	0,1	0,608695
3,920833	0,1	0,610153
3,922500	0,1	0,581310
3,924167	0,1	0,608564
3,925833	0,1	0,611554
3,927500	0,1	0,593397
3,929167	0,1	0,596717
3,930833	0,1	0,574930
3,932500	0,1	0,602988
3,934167	0,1	0,592683
3,935833	0,1	0,593100
3,937500	0,1	0,613258
3,939167	0,1	0,579152
3,940833	0,1	0,547804
3,942500	0,1	0,560153
3,944167	0,1	0,529688
3,945833	0,1	0,528153
3,947500	0,1	0,578375
3,949167	0,1	0,548167
3,950833	0,1	0,513925
3,952500	0,1	0,550830
3,954167	0,1	0,529798
3,955833	0,1	0,529862
3,957500	0,1	0,549220
3,959167	0,1	0,511880
3,960833	0,1	0,513216
3,962500	0,1	0,519451
3,964167	0,1	0,487096
3,965833	0,1	0,529627
3,967500	0,1	0,520560
3,969167	0,1	0,538251
3,970833	0,1	0,503517
3,972500	0,1	0,492135
3,974167	0,1	0,481527
3,975833	0,1	0,478359
3,977500	0,1	0,477182
3,979167	0,1	0,515561
3,980833	0,1	0,504084
3,982500	0,1	0,507654
3,984167	0,1	0,488746
3,985833	0,1	0,493420
3,987500	0,1	0,493253
3,989167	0,1	0,480239
3,990833	0,1	0,464661
3,992500	0,1	0,472349
3,994167	0,1	0,488570
3,995833	0,1	0,479524
3,997500	0,1	0,452239
3,999167	0,1	0,456519
4,000833	0,1	0,477669
4,002500	0,1	0,496415
4,004167	0,1	0,499177
4,005833	0,1	0,473042
4,007500	0,1	0,463792
4,009167	0,1	0,480288
4,010833	0,1	0,439942
4,012500	0,1	0,445101
4,014167	0,1	0,427527
4,015833	0,1	0,483293
4,017500	0,1	0,486091
4,019167	0,1	0,480309
4,020833	0,1	0,492283
4,022500	0,1	0,482704
4,024167	0,1	0,497465
4,025833	0,1	0,498869
4,027500	0,1	0,489809
4,029167	0,1	0,465436
4,030833	0,1	0,482293
4,032500	0,1	0,483530
4,034167	0,1	0,507074
4,035833	0,1	0,506619
4,037500	0,1	0,520387
4,039167	0,1	0,503525
4,040833	0,1	0,494669
4,042500	0,1	0,491249
4,044167	0,1	0,499624
4,045833	0,1	0,459091
4,047500	0,1	0,498468
4,049167	0,1	0,503744
4,050833	0,1	0,494193
4,052500	0,1	0,496419
4,054167	0,1	0,492258
4,055833	0,1	0,502369
4,057500	0,1	0,531144
4,059167	0,1	0,545286
4,060833	0,1	0,573178
4,062500	0,1	0,560578
4,064167	0,1	0,548444
4,065833	0,1	0,550543
4,067500	0,1	0,585117
4,069167	0,1	0,558411
4,070833	0,1	0,614064
4,072500	0,1	0,584432
4,074167	0,1	0,593855
4,075833	0,1	0,637095
4,077500	0,1	0,597971
4,079167	0,1	0,617409
4,080833	0,1	0,633470
4,082500	0,1	0,638098
4,084167	0,1	0,683684
4,085833	0,1	0,670938
4,087500	0,1	0,673910
4,089167	0,1	0,705448
4,090833	0,1	0,736408
4,092500	0,1	0,697018
4,094167	0,1	0,747707
4,095833	0,1	0,723963
4,097500	0,1	0,765651
4,099167	0,1	0,775380
4,100833	0,1	0,795492
4,102500	0,1	0,809158
4,104167	0,1	0,807986
4,105833	0,1	0,827917
4,107500	0,1	0,804580
4,109167	0,1	0,819113
4,110833	0,1	0,818586
4,112500	0,1	0,853757
4,114167	0,1	0,875698
4,115833	0,1	0,866092
4,117500	0,1	0,915333
4,119167	0,1	0,900685
4,120833	0,1	0,926421
4,122500	0,1	0,959211
4,124167	0,1	0,941509
4,125833	0,1	0,964079
4,127500	0,1	0,968716
4,129167	0,1	0,972000
4,130833	0,1	0,998742
4,132500	0,1	1,000215
4,134167	0,1	1,003027
4,135833	0,1	1,000739
4,137500	0,1	1,059739
4,139167	0,1	1,039109
4,140833	0,1	1,086200
4,142500	0,1	1,046565
4,144167	0,1	1,072889
4,145833	0,1	1,055241
4,147500	0,1	1,090663
4,149167	0,1	1,114603
4,150833	0,1	1,105985
4,152500	0,1	1,147219
4,154167	0,1	1,158260
4,155833	0,1	1,104471
4,157500	0,1	1,131440
4,159167	0,1	1,135085
4,160833	0,1	1,164357
4,162500	0,1	1,202025
4,164167	0,1	1,203033
4,165833	0,1	1,207088
4,167500	0,1	1,239230
4,169167	0,1	1,233144
4,170833	0,1	1,248865
4,172500	0,1	1,217834
4,174167	0,1	1,250973
4,175833	0,1	1,262072
4,177500	0,1	1,310655
4,179167	0,1	1,294652
4,180833	0,1	1,257743
4,182500	0,1	1,286245
4,184167	0,1	1,261784
4,185833	0,1	1,279383
4,187500	0,1	1,326334
4,189167	0,1	1,294248
4,190833	0,1	1,356022
4,192500	0,1	1,287559
4,194167	0,1	1,304097
4,195833	0,1	1,318660
4,197500	0,1	1,325645
4,199167	0,1	1,295182
4,200833	0,1	1,308438
4,202500	0,1	1,290368
4,204167	0,1	1,336076
4,205833	0,1	1,315718
4,207500	0,1	1,342363
4,209167	0,1	1,333338
4,210833	0,1	1,357036
4,212500	0,1	1,327998
4,214167	0,1	1,307980
4,215833	0,1	1,338494
4,217500	0,1	1,282400
4,219167	0,1	1,318644
4,220833	0,1	1,359263
4,222500	0,1	1,361740
4,224167	0,1	1,329469
4,225833	0,1	1,326645
4,227500	0,1	1,338660
4,229167	0,1	1,326875
4,230833	0,1	1,289373
4,232500	0,1	1,344472
4,234167	0,1	1,302710
4,235833	0,1	1,328277
4,237500	0,1	1,291137
4,239167	0,1	1,296589
4,240833	0,1	1,277166
4,242500	0,1	1,337655
4,244167	0,1	1,312093
4,245833	0,1	1,258098
4,247500	0,1	1,313822
4,249167	0,1	1,261444
4,250833	0,1	1,356548
4,252500	0,1	1,248721
4,254167	0,1	1,294116
4,255833	0,1	1,295052
4,257500	0,1	1,270706
4,259167	0,1	1,247759
4,260833	0,1	1,259549
4,262500	0,1	1,253508
4,264167	0,1	1,233084
4,265833	0,1	1,205037
4,267500	0,1	1,256660
4,269167	0,1	1,219472
4,270833	0,1	1,232434
4,272500	0,1	1,242645
4,274167	0,1	1,217651
4,275833	0,1	1,219818
4,277500	0,1	1,218877
4,279167	0,1	1,190194
4,280833	0,1	1,223269
4,282500	0,1	1,175057
4,284167	0,1	1,202910
4,285833	0,1	1,194703
4,287500	0,1	1,170120
4,289167	0,1	1,187247
4,290833	0,1	1,168828
4,292500	0,1	1,181965
4,294167	0,1	1,136974
4,295833	0,1	1,159549
4,297500	0,1	1,171871
4,299167	0,1	1,134683
4,300833	0,1	1,146642
4,302500	0,1	1,162483
4,304167	0,1	1,157678
4,305833	0,1	1,138375
4,307500	0,1	1,104115
4,309167	0,1	1,127627
4,310833	0,1	1,114025
4,312500	0,1	1,117834
4,314167	0,1	1,100004
4,315833	0,1	1,128976
4,317500	0,1	1,123118
4,319167	0,1	1,109448
4,320833	0,1	1,097655
4,322500	0,1	1,096186
4,324167	0,1	1,099941
4,325833	0,1	1,065160
4,327500	0,1	1,084271
4,329167	0,1	1,090903
4,330833	0,1	1,026506
4,332500	0,1	1,056169
4,334167	0,1	1,039578
4,335833	0,1	1,056406
4,337500	0,1	1,081688
4,339167	0,1	1,060345
4,340833	0,1	1,058641
4,342500	0,1	1,047790
4,344167	0,1	1,039929
4,345833	0,1	1,033185
4,347500	0,1	1,036172
4,349167	0,1	1,051186
4,350833	0,1	0,996710
4,352500	0,1	1,055049
4,354167	0,1	1,002225
4,355833	0,1	1,008543
4,357500	0,1	0,993708
4,359167	0,1	0,980333
4,360833	0,1	0,997567
4,362500	0,1	0,999215
4,364167	0,1	0,932721
4,365833	0,1	0,969766
4,367500	0,1	0,966666
4,369167	0,1	0,971940
4,370833	0,1	0,995522
4,372500	0,1	0,974353
4,374167	0,1	0,962681
4,375833	0,1	0,942566
4,377500	0,1	0,970941
4,379167	0,1	0,940983
4,380833	0,1	0,959859
4,382500	0,1	0,995399
4,384167	0,1	0,956642
4,385833	0,1	0,933006
4,387500	0,1	0,926964
4,389167	0,1	0,958677
4,390833	0,1	0,934296
4,392500	0,1	0,890723
4,394167	0,1	0,906547
4,395833	0,1	0,912474
4,397500	0,1	0,898698
4,399167	0,1	0,893131
4,400833	0,1	0,875654
4,402500	0,1	0,896700
4,404167	0,1	0,861936
4,405833	0,1	0,892121
4,407500	0,1	0,903798
4,409167	0,1	0,871316
4,410833	0,1	0,838831
4,412500	0,1	0,893117
4,414167	0,1	0,849745
4,415833	0,1	0,842050
4,417500	0,1	0,831378
4,419167	0,1	0,836764
4,420833	0,1	0,836651
4,422500	0,1	0,864156
4,424167	0,1	0,843348
4,425833	0,1	0,808639
4,427500	0,1	0,816420
4,429167	0,1	0,800417
4,430833	0,1	0,805112
4,432500	0,1	0,789932
4,434167	0,1	0,799723
4,435833	0,1	0,831841
4,437500	0,1	0,813502
4,439167	0,1	0,794857
4,440833	0,1	0,790927
4,442500	0,1	0,759277
4,444167	0,1	0,732781
4,445833	0,1	0,773266
4,447500	0,1	0,758571
4,449167	0,1	0,775330
4,450833	0,1	0,761084
4,452500	0,1	0,738697
4,454167	0,1	0,734112
4,455833	0,1	0,741441
4,457500	0,1	0,733952
4,459167	0,1	0,713710
4,460833	0,1	0,715070
4,462500	0,1	0,727906
4,464167	0,1	0,687006
4,465833	0,1	0,677713
4,467500	0,1	0,697364
4,469167	0,1	0,686817
4,470833	0,1	0,717235
4,472500	0,1	0,691751
4,474167	0,1	0,611282
4,475833	0,1	0,657498
4,477500	0,1	0,668296
4,479167	0,1	0,635947
4,480833	0,1	0,625504
4,482500	0,1	0,627627
4,484167	0,1	0,661900
4,485833	0,1	0,684173
4,487500	0,1	0,654472
4,489167	0,1	0,624342
4,490833	0,1	0,610564
4,492500	0,1	0,649943
4,494167	0,1	0,616790
4,495833	0,1	0,656097
4,497500	0,1	0,614383
4,499167	0,1	0,642932
4,500833	0,1	0,632662
4,502500	0,1	0,610779
4,504167	0,1	0,583899
4,505833	0,1	0,583248
4,507500	0,1	0,572169
4,509167	0,1	0,587419
4,510833	0,1	0,581679
4,512500	0,1	0,540592
4,514167	0,1	0,556130
4,515833	0,1	0,571937
4,517500	0,1	0,547090
4,519167	0,1	0,565558
4,520833	0,1	0,551023
4,522500	0,1	0,558359
4,524167	0,1	0,551316
4,525833	0,1	0,537907
4,527500	0,1	0,542485
4,529167	0,1	0,560458
4,530833	0,1	0,527138
4,532500	0,1	0,527648
4,534167	0,1	0,530857
4,535833	0,1	0,512128
4,537500	0,1	0,533094
4,539167	0,1	0,534149
4,540833	0,1	0,527300
4,542500	0,1	0,519439
4,544167	0,1	0,507839
4,545833	0,1	0,519674
4,547500	0,1	0,515067
4,549167	0,1	0,463970
4,550833	0,1	0,473454
4,552500	0,1	0,489984
4,554167	0,1	0,475521
4,555833	0,1	0,485363
4,557500	0,1	0,435044
4,559167	0,1	0,450549
4,560833	0,1	0,489726
4,562500	0,1	0,517680
4,564167	0,1	0,447220
4,565833	0,1	0,430874
4,567500	0,1	0,488517
4,569167	0,1	0,459342
4,570833	0,1	0,460512
4,572500	0,1	0,492545
4,574167	0,1	0,426305
4,575833	0,1	0,457815
4,577500	0,1	0,437430
4,579167	0,1	0,456571
4,580833	0,1	0,462165
4,582500	0,1	0,451033
4,584167	0,1	0,450369
4,585833	0,1	0,464726
4,587500	0,1	0,435405
4,589167	0,1	0,408032
4,590833	0,1	0,444299
4,592500	0,1	0,418156
4,594167	0,1	0,431989
4,595833	0,1	0,423140
4,597500	0,1	0,433167
4,599167	0,1	0,443295
4,600833	0,1	0,448267
4,602500	0,1	0,413022
4,604167	0,1	0,411063
4,605833	0,1	0,402928
4,607500	0,1	0,409002
4,609167	0,1	0,395380
4,610833	0,1	0,426663
4,612500	0,1	0,399893
4,614167	0,1	0,420611
4,615833	0,1	0,419624
4,617500	0,1	0,412131
4,619167	0,1	0,402229
4,620833	0,1	0,398028
4,622500	0,1	0,428596
4,624167	0,1	0,407808
4,625833	0,1	0,404471
4,627500	0,1	0,355517
4,629167	0,1	0,383717
4,630833	0,1	0,366850
4,632500	0,1	0,399657
4,634167	0,1	0,408501
4,635833	0,1	0,384353
4,637500	0,1	0,408442
4,639167	0,1	0,355167
4,640833	0,1	0,332944
4,642500	0,1	0,353825
4,644167	0,1	0,359517
4,645833	0,1	0,410957
4,647500	0,1	0,353053
4,649167	0,1	0,365626
4,650833	0,1	0,406982
4,652500	0,1	0,348892
4,654167	0,1	0,382023
4,655833	0,1	0,331607
4,657500	0,1	0,414481
4,659167	0,1	0,350091
4,660833	0,1	0,316658
4,662500	0,1	0,345155
4,664167	0,1	0,370483
4,665833	0,1	0,327593
4,667500	0,1	0,368748
4,669167	0,1	0,365392
4,670833	0,1	0,326912
4,672500	0,1	0,331245
4,674167	0,1	0,347348
4,675833	0,1	0,341978
4,677500	0,1	0,347516
4,679167	0,1	0,292313
4,680833	0,1	0,340641
4,682500	0,1	0,362880
4,684167	0,1	0,298463
4,685833	0,1	0,369461
4,687500	0,1	0,330335
4,689167	0,1	0,340280
4,690833	0,1	0,385131
4,692500	0,1	0,319611
4,694167	0,1	0,337554
4,695833	0,1	0,344201
4,697500	0,1	0,378395
4,699167	0,1	0,326161
4,700833	0,1	0,318602
4,702500	0,1	0,339340
4,704167	0,1	0,300759
4,705833	0,1	0,328570
4,707500	0,1	0,387871
4,709167	0,1	0,331039
4,710833	0,1	0,367276
4,712500	0,1	0,326561
4,714167	0,1	0,321695
4,715833	0,1	0,312805
4,717500	0,1	0,338216
4,719167	0,1	0,358316
4,720833	0,1	0,341392
4,722500	0,1	0,318791
4,724167	0,1	0,337867
4,725833	0,1	0,284768
4,727500	0,1	0,339442
4,729167	0,1	0,282248
4,730833	0,1	0,326007
4,732500	0,1	0,335292
4,734167	0,1	0,252365
4,735833	0,1	0,320682
4,737500	0,1	0,303475
4,739167	0,1	0,285035
4,740833	0,1	0,299162
4,742500	0,1	0,286361
4,744167	0,1	0,313791
4,745833	0,1	0,322704
4,747500	0,1	0,304508
4,749167	0,1	0,283821
4,750833	0,1	0,310385
4,752500	0,1	0,268422
4,754167	0,1	0,344793
4,755833	0,1	0,328894
4,757500	0,1	0,315881
4,759167	0,1	0,301121
4,760833	0,1	0,304593
4,762500	0,1	0,306067
4,764167	0,1	0,320605
4,765833	0,1	0,321565
4,767500	0,1	0,308187
4,769167	0,1	0,318525
4,770833	0,1	0,306326
4,772500	0,1	0,308992
4,774167	0,1	0,287668
4,775833	0,1	0,296052
4,777500	0,1	0,350264
4,779167	0,1	0,314929
4,780833	0,1	0,289509
4,782500	0,1	0,328364
4,784167	0,1	0,287617
4,785833	0,1	0,330443
4,787500	0,1	0,321713
4,789167	0,1	0,346259
4,790833	0,1	0,294744
4,792500	0,1	0,293295
4,794167	0,1	0,311768
4,795833	0,1	0,314035
4,797500	0,1	0,277587
4,799167	0,1	0,306061
4,800833	0,1	0,311644
4,802500	0,1	0,307964
4,804167	0,1	0,294015
4,805833	0,1	0,276920
4,807500	0,1	0,295003
4,809167	0,1	0,294952
4,810833	0,1	0,290478
4,812500	0,1	0,342404
4,814167	0,1	0,285469
4,815833	0,1	0,304775
4,817500	0,1	0,264318
4,819167	0,1	0,326481
4,820833	0,1	0,286863
4,822500	0,1	0,307406
4,824167	0,1	0,311679
4,825833	0,1	0,279390
4,827500	0,1	0,311158
4,829167	0,1	0,291385
4,830833	0,1	0,287516
4,832500	0,1	0,308419
4,834167	0,1	0,254748
4,835833	0,1	0,288392
4,837500	0,1	0,277673
4,839167	0,1	0,304553
4,840833	0,1	0,306656
4,842500	0,1	0,276149
4,844167	0,1	0,282123
4,845833	0,1	0,297580
4,847500	0,1	0,291309
4,849167	0,1	0,337271
4,850833	0,1	0,287509
4,852500	0,1	0,314619
4,854167	0,1	0,274423
4,855833	0,1	0,321462
4,857500	0,1	0,303919
4,859167	0,1	0,304449
4,860833	0,1	0,271420
4,862500	0,1	0,247327
4,864167	0,1	0,260755
4,865833	0,1	0,305816
4,867500	0,1	0,278025
4,869167	0,1	0,263522
4,870833	0,1	0,311100
4,872500	0,1	0,312086
4,874167	0,1	0,319208
4,875833	0,1	0,271296
4,877500	0,1	0,293748
4,879167	0,1	0,299993
4,880833	0,1	0,295118
4,882500	0,1	0,299164
4,884167	0,1	0,283984
4,885833	0,1	0,303614
4,887500	0,1	0,310465
4,889167	0,1	0,299353
4,890833	0,1	0,300105
4,892500	0,1	0,276278
4,894167	0,1	0,301037
4,895833	0,1	0,225701
4,897500	0,1	0,321798
4,899167	0,1	0,323240
4,900833	0,1	0,282647
4,902500	0,1	0,326909
4,904167	0,1	0,290342
4,905833	0,1	0,329452
4,907500	0,1	0,247376
4,909167	0,1	0,315032
4,910833	0,1	0,296503
4,912500	0,1	0,324835
4,914167	0,1	0,297590
4,915833	0,1	0,264521
4,917500	0,1	0,261752
4,919167	0,1	0,277666
4,920833	0,1	0,264626
4,922500	0,1	0,240099
4,924167	0,1	0,281653
4,925833	0,1	0,268784
4,927500	0,1	0,340909
4,929167	0,1	0,259099
4,930833	0,1	0,303019
4,932500	0,1	0,304962
4,934167	0,1	0,297014
4,935833	0,1	0,275557
4,937500	0,1	0,284293
4,939167	0,1	0,315760
4,940833	0,1	0,260641
4,942500	0,1	0,267952
4,944167	0,1	0,321939
4,945833	0,1	0,311592
4,947500	0,1	0,290393
4,949167	0,1	0,233329
4,950833	0,1	0,271369
4,952500	0,1	0,279161
4,954167	0,1	0,268195
4,955833	0,1	0,287917
4,957500	0,1	0,291675
4,959167	0,1	0,278721
4,960833	0,1	0,298830
4,962500	0,1	0,256019
4,964167	0,1	0,315275
4,965833	0,1	0,266546
4,967500	0,1	0,284511
4,969167	0,1	0,239789
4,970833	0,1	0,268185
4,972500	0,1	0,261459
4,974167	0,1	0,278604
4,975833	0,1	0,298186
4,977500	0,1	0,303397
4,979167	0,1	0,255138
4,980833	0,1	0,288631
4,982500	0,1	0,232816
4,984167	0,1	0,251975
4,985833	0,1	0,292973
4,987500	0,1	0,306912
4,989167	0,1	0,279554
4,990833	0,1	0,292170
4,992500	0,1	0,271344
4,994167	0,1	0,291155
4,995833	0,1	0,251989
4,997500	0,1	0,262762
4,999167	0,1	0,256395
5,000833	0,1	0,275108
5,002500	0,1	0,258864
5,004167	0,1	0,301731
5,005833	0,1	0,268496
5,007500	0,1	0,262103
5,009167	0,1	0,260115
5,010833	0,1	0,291448
5,012500	0,1	0,277454
5,014167	0,1	0,268325
5,015833	0,1	0,266794
5,017500	0,1	0,260095
5,019167	0,1	0,294593
5,020833	0,1	0,276536
5,022500	0,1	0,272668
5,024167	0,1	0,225694
5,025833	0,1	0,305054
5,027500	0,1	0,261618
5,029167	0,1	0,219198
5,030833	0,1	0,237732
5,032500	0,1	0,262096
5,034167	0,1	0,276583
5,035833	0,1	0,272408
5,037500	0,1	0,251157
5,039167	0,1	0,268853
5,040833	0,1	0,271503
5,042500	0,1	0,240778
5,044167	0,1	0,289182
5,045833	0,1	0,284058
5,047500	0,1	0,199388
5,049167	0,1	0,260744
5,050833	0,1	0,245030
5,052500	0,1	0,229203
5,054167	0,1	0,261450
5,055833	0,1	0,259929
5,057500	0,1	0,246592
5,059167	0,1	0,275105
5,060833	0,1	0,301405
5,062500	0,1	0,237565
5,064167	0,1	0,233796
5,065833	0,1	0,297183
5,067500	0,1	0,230284
5,069167	0,1	0,272101
5,070833	0,1	0,236073
5,072500	0,1	0,232933
5,074167	0,1	0,248682
5,075833	0,1	0,269661
5,077500	0,1	0,270954
5,079167	0,1	0,250053
5,080833	0,1	0,251925
5,082500	0,1	0,296543
5,084167	0,1	0,257142
5,085833	0,1	0,241974
5,087500	0,1	0,264212
5,089167	0,1	0,225857
5,090833	0,1	0,227376
5,092500	0,1	0,228629
5,094167	0,1	0,298873
5,095833	0,1	0,255177
5,097500	0,1	0,256119
5,099167	0,1	0,224306
5,100833	0,1	0,226033
5,102500	0,1	0,260345
5,104167	0,1	0,247455
5,105833	0,1	0,239210
5,107500	0,1	0,245409
5,109167	0,1	0,237190
5,110833	0,1	0,260677
5,112500	0,1	0,267677
5,114167	0,1	0,250937
5,115833	0,1	0,244417
5,117500	0,1	0,261213
5,119167	0,1	0,272829
5,120833	0,1	0,237120
5,122500	0,1	0,267836
5,124167	0,1	0,280762
5,125833	0,1	0,248419
5,127500	0,1	0,260865
5,129167	0,1	0,255571
5,130833	0,1	0,262085
5,132500	0,1	0,245360
5,134167	0,1	0,267323
5,135833	0,1	0,260650
5,137500	0,1	0,250859
5,139167	0,1	0,238732
5,140833	0,1	0,269787
5,142500	0,1	0,248581
5,144167	0,1	0,317756
5,145833	0,1	0,250250
5,147500	0,1	0,324658
5,149167	0,1	0,259267
5,150833	0,1	0,237468
5,152500	0,1	0,251976
5,154167	0,1	0,215770
5,155833	0,1	0,279276
5,157500	0,1	0,229984
5,159167	0,1	0,248440
5,160833	0,1	0,273415
5,162500	0,1	0,257136
5,164167	0,1	0,274574
5,165833	0,1	0,233717
5,167500	0,1	0,226158
5,169167	0,1	0,208353
5,170833	0,1	0,228090
5,172500	0,1	0,263531
5,174167	0,1	0,234118
5,175833	0,1	0,240955
5,177500	0,1	0,253525
5,179167	0,1	0,246569
5,180833	0,1	0,267195
5,182500	0,1	0,280906
5,184167	0,1	0,268290
5,185833	0,1	0,284956
5,187500	0,1	0,265956
5,189167	0,1	0,233474
5,190833	0,1	0,226844
5,192500	0,1	0,239761
5,194167	0,1	0,260183
5,195833	0,1	0,228028
5,197500	0,1	0,242721
5,199167	0,1	0,244601
5,200833	0,1	0,217655
5,202500	0,1	0,242554
5,204167	0,1	0,259302
5,205833	0,1	0,262525
5,207500	0,1	0,218075
5,209167	0,1	0,229087
5,210833	0,1	0,255709
5,212500	0,1	0,255570
5,214167	0,1	0,224808
5,215833	0,1	0,242095
5,217500	0,1	0,233620
5,219167	0,1	0,234941
5,220833	0,1	0,241120
5,222500	0,1	0,267987
5,224167	0,1	0,234064
5,225833	0,1	0,227529
5,227500	0,1	0,261139
5,229167	0,1	0,236673
5,230833	0,1	0,238619
5,232500	0,1	0,223133
5,234167	0,1	0,273592
5,235833	0,1	0,210853
5,237500	0,1	0,210816
5,239167	0,1	0,238229
5,240833	0,1	0,234243
5,242500	0,1	0,229625
5,244167	0,1	0,238178
5,245833	0,1	0,260293
5,247500	0,1	0,207370
5,249167	0,1	0,243598
5,250833	0,1	0,222304
5,252500	0,1	0,280785
5,254167	0,1	0,204023
5,255833	0,1	0,224007
5,257500	0,1	0,294494
5,259167	0,1	0,222557
5,260833	0,1	0,202744
5,262500	0,1	0,211664
5,264167	0,1	0,212400
5,265833	0,1	0,259664
5,267500	0,1	0,214233
5,269167	0,1	0,224415
5,270833	0,1	0,222998
5,272500	0,1	0,250905
5,274167	0,1	0,205970
5,275833	0,1	0,235118
5,277500	0,1	0,232790
5,279167	0,1	0,230343
5,280833	0,1	0,187840
5,282500	0,1	0,261370
5,284167	0,1	0,226007
5,285833	0,1	0,243863
5,287500	0,1	0,212668
5,289167	0,1	0,200385
5,290833	0,1	0,190506
5,292500	0,1	0,230957
5,294167	0,1	0,221232
5,295833	0,1	0,213635
5,297500	0,1	0,264685
5,299167	0,1	0,258737
5,300833	0,1	0,183602
5,302500	0,1	0,213919
5,304167	0,1	0,233484
5,305833	0,1	0,264820
5,307500	0,1	0,214309
5,309167	0,1	0,224228
5,310833	0,1	0,255214
5,312500	0,1	0,268100
5,314167	0,1	0,217728
5,315833	0,1	0,204859
5,317500	0,1	0,203993
5,319167	0,1	0,186000
5,320833	0,1	0,206357
5,322500	0,1	0,210783
5,324167	0,1	0,230318
5,325833	0,1	0,217282
5,327500	0,1	0,179160
5,329167	0,1	0,240887
5,330833	0,1	0,215166
5,332500	0,1	0,223955
5,334167	0,1	0,214279
5,335833	0,1	0,231147
5,337500	0,1	0,239762
5,339167	0,1	0,205379
5,340833	0,1	0,216261
5,342500	0,1	0,210434
5,344167	0,1	0,244594
5,345833	0,1	0,208564
5,347500	0,1	0,239921
5,349167	0,1	0,222139
5,350833	0,1	0,216024
5,352500	0,1	0,206922
5,354167	0,1	0,207280
5,355833	0,1	0,226290
5,357500	0,1	0,195574
5,359167	0,1	0,206512
5,360833	0,1	0,190266
5,362500	0,1	0,214532
5,364167	0,1	0,240641
5,365833	0,1	0,212056
5,367500	0,1	0,245334
5,369167	0,1	0,255622
5,370833	0,1	0,227677
5,372500	0,1	0,207066
5,374167	0,1	0,160576
5,375833	0,1	0,205305
5,377500	0,1	0,240049
5,379167	0,1	0,165199
5,380833	0,1	0,240610
5,382500	0,1	0,280920
5,384167	0,1	0,251200
5,385833	0,1	0,207345
5,387500	0,1	0,254032
5,389167	0,1	0,199826
5,390833	0,1	0,220854
5,392500	0,1	0,213471
5,394167	0,1	0,229031
5,395833	0,1	0,222651
5,397500	0,1	0,216430
5,399167	0,1	0,233060
5,400833	0,1	0,225981
5,402500	0,1	0,253448
5,404167	0,1	0,232096
5,405833	0,1	0,226940
5,407500	0,1	0,262057
5,409167	0,1	0,211768
5,410833	0,1	0,243621
5,412500	0,1	0,263678
5,414167	0,1	0,218816
5,415833	0,1	0,227362
5,417500	0,1	0,225410
5,419167	0,1	0,209020
5,420833	0,1	0,205687
5,422500	0,1	0,247004
5,424167	0,1	0,242210
5,425833	0,1	0,225468
5,427500	0,1	0,228815
5,429167	0,1	0,222377
5,430833	0,1	0,230395
5,432500	0,1	0,240845
5,434167	0,1	0,199659
5,435833	0,1	0,236294
5,437500	0,1	0,221571
5,439167	0,1	0,252233
5,440833	0,1	0,230808
5,442500	0,1	0,221177
5,444167	0,1	0,237774
5,445833	0,1	0,192392
5,447500	0,1	0,229451
5,449167	0,1	0,230452
5,450833	0,1	0,274018
5,452500	0,1	0,187839
5,454167	0,1	0,243451
5,455833	0,1	0,206317
5,457500	0,1	0,227359
5,459167	0,1	0,188472
5,460833	0,1	0,183333
5,462500	0,1	0,166201
5,464167	0,1	0,200581
5,465833	0,1	0,189589
5,467500	0,1	0,221943
5,469167	0,1	0,246459
5,470833	0,1	0,237046
5,472500	0,1	0,216366
5,474167	0,1	0,234531
5,475833	0,1	0,255422
5,477500	0,1	0,223855
5,479167	0,1	0,171545
5,480833	0,1	0,231616
5,482500	0,1	0,220762
5,484167	0,1	0,201608
5,485833	0,1	0,235248
5,487500	0,1	0,172781
5,489167	0,1	0,215314
5,490833	0,1	0,196140
5,492500	0,1	0,234252
5,494167	0,1	0,218220
5,495833	0,1	0,212498
5,497500	0,1	0,211319
5,499167	0,1	0,223497
5,500833	0,1	0,256481
5,502500	0,1	0,240651
5,504167	0,1	0,223887
5,505833	0,1	0,184956
5,507500	0,1	0,227112
5,509167	0,1	0,230857
5,510833	0,1	0,201479
5,512500	0,1	0,215157
5,514167	0,1	0,235950
5,515833	0,1	0,212316
5,517500	0,1	0,215214
5,519167	0,1	0,227415
5,520833	0,1	0,192737
5,522500	0,1	0,233575
5,524167	0,1	0,222378
5,525833	0,1	0,213362
5,527500	0,1	0,207304
5,529167	0,1	0,258668
5,530833	0,1	0,196717
5,532500	0,1	0,239809
5,534167	0,1	0,196037
5,535833	0,1	0,232671
5,537500	0,1	0,229570
5,539167	0,1	0,222465
5,540833	0,1	0,232568
5,542500	0,1	0,201534
5,544167	0,1	0,237637
5,545833	0,1	0,261306
5,547500	0,1	0,232185
5,549167	0,1	0,220740
5,550833	0,1	0,237258
5,552500	0,1	0,220831
5,554167	0,1	0,225430
5,555833	0,1	0,211354
5,557500	0,1	0,224434
5,559167	0,1	0,224308
5,560833	0,1	0,232788
5,562500	0,1	0,233192
5,564167	0,1	0,208726
5,565833	0,1	0,248476
5,567500	0,1	0,262432
5,569167	0,1	0,253237
5,570833	0,1	0,251577
5,572500	0,1	0,233827
5,574167	0,1	0,199014
5,575833	0,1	0,209724
5,577500	0,1	0,245018
5,579167	0,1	0,236579
5,580833	0,1	0,208008
5,582500	0,1	0,280952
5,584167	0,1	0,201054
5,585833	0,1	0,222719
5,587500	0,1	0,289416
5,589167	0,1	0,233187
5,590833	0,1	0,229220
5,592500	0,1	0,196744
5,594167	0,1	0,235540
5,595833	0,1	0,244728
5,597500	0,1	0,227902
5,599167	0,1	0,247434
5,600833	0,1	0,207289
5,602500	0,1	0,236866
5,604167	0,1	0,223133
5,605833	0,1	0,206148
5,607500	0,1	0,226824
5,609167	0,1	0,266400
5,610833	0,1	0,246174
5,612500	0,1	0,232848
5,614167	0,1	0,247599
5,615833	0,1	0,251540
5,617500	0,1	0,258016
5,619167	0,1	0,225713
5,620833	0,1	0,258468
5,622500	0,1	0,270841
5,624167	0,1	0,230497
5,625833	0,1	0,233543
5,627500	0,1	0,262739
5,629167	0,1	0,234597
5,630833	0,1	0,222781
5,632500	0,1	0,240404
5,634167	0,1	0,257699
5,635833	0,1	0,243980
5,637500	0,1	0,251890
5,639167	0,1	0,297776
5,640833	0,1	0,273796
5,642500	0,1	0,250588
5,644167	0,1	0,266112
5,645833	0,1	0,240798
5,647500	0,1	0,263129
5,649167	0,1	0,286077
5,650833	0,1	0,246639
5,652500	0,1	0,257445
5,654167	0,1	0,261366
5,655833	0,1	0,301680
5,657500	0,1	0,295505
5,659167	0,1	0,264390
5,660833	0,1	0,233934
5,662500	0,1	0,285076
5,664167	0,1	0,254859
5,665833	0,1	0,302174
5,667500	0,1	0,297419
5,669167	0,1	0,310226
5,670833	0,1	0,295379
5,672500	0,1	0,264191
5,674167	0,1	0,272390
5,675833	0,1	0,304221
5,677500	0,1	0,268185
5,679167	0,1	0,304643
5,680833	0,1	0,256097
5,682500	0,1	0,269718
5,684167	0,1	0,316456
5,685833	0,1	0,282336
5,687500	0,1	0,304995
5,689167	0,1	0,289307
5,690833	0,1	0,302789
5,692500	0,1	0,289396
5,694167	0,1	0,317969
5,695833	0,1	0,275712
5,697500	0,1	0,274304
5,699167	0,1	0,306870
5,700833	0,1	0,286051
5,702500	0,1	0,274492
5,704167	0,1	0,302988
5,705833	0,1	0,285053
5,707500	0,1	0,275834
5,709167	0,1	0,297303
5,710833	0,1	0,293978
5,712500	0,1	0,314254
5,714167	0,1	0,304231
5,715833	0,1	0,299959
5,717500	0,1	0,311660
5,719167	0,1	0,333172
5,720833	0,1	0,304934
5,722500	0,1	0,286307
5,724167	0,1	0,320692
5,725833	0,1	0,337738
5,727500	0,1	0,338129
5,729167	0,1	0,353494
5,730833	0,1	0,348677
5,732500	0,1	0,329226
5,734167	0,1	0,333876
5,735833	0,1	0,303371
5,737500	0,1	0,303399
5,739167	0,1	0,331570
5,740833	0,1	0,330584
5,742500	0,1	0,303222
5,744167	0,1	0,319168
5,745833	0,1	0,369591
5,747500	0,1	0,318705
5,749167	0,1	0,320515
5,750833	0,1	0,353416
5,752500	0,1	0,349504
5,754167	0,1	0,374439
5,755833	0,1	0,374425
5,757500	0,1	0,313740
5,759167	0,1	0,333762
5,760833	0,1	0,380726
5,762500	0,1	0,379138
5,764167	0,1	0,345112
5,765833	0,1	0,324826
5,767500	0,1	0,317737
5,769167	0,1	0,341253
5,770833	0,1	0,366835
5,772500	0,1	0,320048
5,774167	0,1	0,354482
5,775833	0,1	0,362496
5,777500	0,1	0,354531
5,779167	0,1	0,356790
5,780833	0,1	0,308694
5,782500	0,1	0,343531
5,784167	0,1	0,327126
5,785833	0,1	0,333269
5,787500	0,1	0,367517
5,789167	0,1	0,340601
5,790833	0,1	0,348580
5,792500	0,1	0,407948
5,794167	0,1	0,372759
5,795833	0,1	0,346639
5,797500	0,1	0,382168
5,799167	0,1	0,344947
5,800833	0,1	0,348269
5,802500	0,1	0,358649
5,804167	0,1	0,368423
5,805833	0,1	0,369619
5,807500	0,1	0,329673
5,809167	0,1	0,361075
5,810833	0,1	0,362149
5,812500	0,1	0,356665
5,814167	0,1	0,377128
5,815833	0,1	0,342776
5,817500	0,1	0,326592
5,819167	0,1	0,387553
5,820833	0,1	0,357592
5,822500	0,1	0,332116
5,824167	0,1	0,391509
5,825833	0,1	0,363572
5,827500	0,1	0,375047
5,829167	0,1	0,356060
5,830833	0,1	0,406036
5,832500	0,1	0,348616
5,834167	0,1	0,365272
5,835833	0,1	0,355248
5,837500	0,1	0,355707
5,839167	0,1	0,376555
5,840833	0,1	0,354662
5,842500	0,1	0,377144
5,844167	0,1	0,390564
5,845833	0,1	0,367898
5,847500	0,1	0,331384
5,849167	0,1	0,354485
5,850833	0,1	0,385406
5,852500	0,1	0,369829
5,854167	0,1	0,323471
5,855833	0,1	0,365930
5,857500	0,1	0,380789
5,859167	0,1	0,357551
5,860833	0,1	0,345237
5,862500	0,1	0,348454
5,864167	0,1	0,358116
5,865833	0,1	0,343562
5,867500	0,1	0,344957
5,869167	0,1	0,334579
5,870833	0,1	0,308210
5,872500	0,1	0,342870
5,874167	0,1	0,373240
5,875833	0,1	0,340382
5,877500	0,1	0,359529
5,879167	0,1	0,365258
5,880833	0,1	0,323711
5,882500	0,1	0,338513
5,884167	0,1	0,303407
5,885833	0,1	0,339077
5,887500	0,1	0,342712
5,889167	0,1	0,342713
5,890833	0,1	0,321146
5,892500	0,1	0,303957
5,894167	0,1	0,316702
5,895833	0,1	0,333690
5,897500	0,1	0,344587
5,899167	0,1	0,349411
5,900833	0,1	0,340799
5,902500	0,1	0,305285
5,904167	0,1	0,319905
5,905833	0,1	0,339487
5,907500	0,1	0,366909
5,909167	0,1	0,343363
5,910833	0,1	0,323796
5,912500	0,1	0,329734
5,914167	0,1	0,334650
5,915833	0,1	0,332830
5,917500	0,1	0,322229
5,919167	0,1	0,324048
5,920833	0,1	0,295289
5,922500	0,1	0,336040
5,924167	0,1	0,292442
5,925833	0,1	0,314712
5,927500	0,1	0,318196
5,929167	0,1	0,313837
5,930833	0,1	0,312437
5,932500	0,1	0,329015
5,934167	0,1	0,275973
5,935833	0,1	0,326503
5,937500	0,1	0,304637
5,939167	0,1	0,334937
5,940833	0,1	0,320428
5,942500	0,1	0,295052
5,944167	0,1	0,311035
5,945833	0,1	0,297698
5,947500	0,1	0,338910
5,949167	0,1	0,309830
5,950833	0,1	0,301967
5,952500	0,1	0,295395
5,954167	0,1	0,297401
5,955833	0,1	0,283235
5,957500	0,1	0,280287
5,959167	0,1	0,304075
5,960833	0,1	0,300733
5,962500	0,1	0,243771
5,964167	0,1	0,246464
5,965833	0,1	0,286900
5,967500	0,1	0,308605
5,969167	0,1	0,264652
5,970833	0,1	0,311984
5,972500	0,1	0,271059
5,974167	0,1	0,320523
5,975833	0,1	0,299504
5,977500	0,1	0,272911
5,979167	0,1	0,269118
5,980833	0,1	0,268342
5,982500	0,1	0,221798
5,984167	0,1	0,232752
5,985833	0,1	0,245412
5,987500	0,1	0,246813
5,989167	0,1	0,286756
5,990833	0,1	0,279992
5,992500	0,1	0,254474
5,994167	0,1	0,278531
5,995833	0,1	0,274969
5,997500	0,1	0,255651
5,999167	0,1	0,263077
6,000833	0,1	0,261627
