File Path	chrom://chromeleon01/ikbm_chromeleon/2022/Rezex/Esteban/220612_chitin_4_7.seq/925.smp/UV_VIS_1.channel/UV_VIS_1.chm
Channel	UV_VIS_1

Injection Information:
Data Vault	ikbm_chromeleon
Injection	A2ox 50
Injection Number	57
Position	RA3
Comment	
Processing Method	New ProcMethod
Instrument Method	Short_Rezex_6min_194nm
Type	Calibration Standard
Status	Finished
Injection Date	12.06.2022
Injection Time	23:16:13
Injection Volume (µl)	8,000
Dilution Factor	1,0000
Weight	1,0000

Chromatogram Data Information:
Time Min. (min)	0,000833
Time Max. (min)	6,000833
Data Points	3601
Detector	UV
Generating Data System	Chromeleon 7.2.9.11323
Exporting Data System	Chromeleon 7.2.9.0
Operator	Instrument Controller
Signal Quantity	Absorbance
Signal Unit	mAU
Signal Min.	-0,104851
Signal Max.	27,759128
Channel	UV_VIS_1
Driver Name	VWD3000.dll
Channel Type	Evaluation
Min. Step (s)	0,1
Max. Step (s)	0,1
Average Step (s)	0,1

Signal Parameter Information:
Signal Info	WVL:194 nm

Chromatogram Data:
Time (min)	Step (s)	Value (mAU)
0,000833	n.a.	-0,043205
0,002500	0,1	-0,010535
0,004167	0,1	-0,032019
0,005833	0,1	-0,074296
0,007500	0,1	-0,055475
0,009167	0,1	-0,019956
0,010833	0,1	-0,063009
0,012500	0,1	-0,037695
0,014167	0,1	-0,060899
0,015833	0,1	-0,033045
0,017500	0,1	-0,055254
0,019167	0,1	-0,005956
0,020833	0,1	-0,056118
0,022500	0,1	-0,047400
0,024167	0,1	-0,012819
0,025833	0,1	-0,038098
0,027500	0,1	-0,073178
0,029167	0,1	-0,009961
0,030833	0,1	-0,037287
0,032500	0,1	-0,061023
0,034167	0,1	-0,035414
0,035833	0,1	-0,011654
0,037500	0,1	-0,050130
0,039167	0,1	-0,083760
0,040833	0,1	-0,054896
0,042500	0,1	-0,062085
0,044167	0,1	-0,055798
0,045833	0,1	-0,035203
0,047500	0,1	-0,034844
0,049167	0,1	-0,037313
0,050833	0,1	-0,104851
0,052500	0,1	-0,031956
0,054167	0,1	-0,020865
0,055833	0,1	-0,035776
0,057500	0,1	-0,026653
0,059167	0,1	-0,016442
0,060833	0,1	-0,032474
0,062500	0,1	-0,031629
0,064167	0,1	-0,084645
0,065833	0,1	-0,046764
0,067500	0,1	-0,029517
0,069167	0,1	-0,015676
0,070833	0,1	-0,036541
0,072500	0,1	-0,103643
0,074167	0,1	-0,036752
0,075833	0,1	-0,027792
0,077500	0,1	-0,030861
0,079167	0,1	-0,062703
0,080833	0,1	-0,020332
0,082500	0,1	-0,031230
0,084167	0,1	-0,053968
0,085833	0,1	-0,065193
0,087500	0,1	-0,044645
0,089167	0,1	-0,086285
0,090833	0,1	-0,035458
0,092500	0,1	-0,034325
0,094167	0,1	-0,053059
0,095833	0,1	-0,055408
0,097500	0,1	-0,069925
0,099167	0,1	-0,058503
0,100833	0,1	-0,049639
0,102500	0,1	-0,055654
0,104167	0,1	-0,075569
0,105833	0,1	-0,005731
0,107500	0,1	-0,054815
0,109167	0,1	-0,030224
0,110833	0,1	-0,045774
0,112500	0,1	-0,027756
0,114167	0,1	-0,088483
0,115833	0,1	-0,064399
0,117500	0,1	-0,032385
0,119167	0,1	-0,050338
0,120833	0,1	-0,094717
0,122500	0,1	-0,016459
0,124167	0,1	-0,071844
0,125833	0,1	-0,045186
0,127500	0,1	-0,053951
0,129167	0,1	-0,035368
0,130833	0,1	-0,040632
0,132500	0,1	-0,070792
0,134167	0,1	-0,046966
0,135833	0,1	-0,038643
0,137500	0,1	-0,077451
0,139167	0,1	-0,051758
0,140833	0,1	-0,080192
0,142500	0,1	-0,022304
0,144167	0,1	-0,029883
0,145833	0,1	-0,065443
0,147500	0,1	-0,068807
0,149167	0,1	-0,047695
0,150833	0,1	-0,045136
0,152500	0,1	-0,023729
0,154167	0,1	-0,061390
0,155833	0,1	-0,035036
0,157500	0,1	-0,059199
0,159167	0,1	-0,081480
0,160833	0,1	-0,052402
0,162500	0,1	-0,009024
0,164167	0,1	-0,084455
0,165833	0,1	-0,016872
0,167500	0,1	-0,055523
0,169167	0,1	-0,060342
0,170833	0,1	-0,017966
0,172500	0,1	-0,045190
0,174167	0,1	-0,077557
0,175833	0,1	-0,022823
0,177500	0,1	-0,035942
0,179167	0,1	-0,056232
0,180833	0,1	-0,048291
0,182500	0,1	-0,042794
0,184167	0,1	-0,027484
0,185833	0,1	-0,039987
0,187500	0,1	-0,022525
0,189167	0,1	-0,030464
0,190833	0,1	-0,008665
0,192500	0,1	-0,024508
0,194167	0,1	-0,026544
0,195833	0,1	-0,037582
0,197500	0,1	-0,028167
0,199167	0,1	-0,028660
0,200833	0,1	-0,041231
0,202500	0,1	-0,026363
0,204167	0,1	-0,043283
0,205833	0,1	-0,017027
0,207500	0,1	-0,033722
0,209167	0,1	-0,039012
0,210833	0,1	-0,053265
0,212500	0,1	-0,039597
0,214167	0,1	-0,058909
0,215833	0,1	-0,035493
0,217500	0,1	-0,046401
0,219167	0,1	-0,065818
0,220833	0,1	-0,009089
0,222500	0,1	-0,020983
0,224167	0,1	-0,050149
0,225833	0,1	-0,046670
0,227500	0,1	-0,059467
0,229167	0,1	-0,036012
0,230833	0,1	-0,038393
0,232500	0,1	-0,032565
0,234167	0,1	-0,027375
0,235833	0,1	-0,031442
0,237500	0,1	-0,050320
0,239167	0,1	-0,028356
0,240833	0,1	-0,030905
0,242500	0,1	-0,041707
0,244167	0,1	-0,055113
0,245833	0,1	-0,072539
0,247500	0,1	-0,055078
0,249167	0,1	-0,024643
0,250833	0,1	-0,031399
0,252500	0,1	-0,022584
0,254167	0,1	-0,010512
0,255833	0,1	-0,060620
0,257500	0,1	-0,063892
0,259167	0,1	-0,062483
0,260833	0,1	-0,053622
0,262500	0,1	-0,048211
0,264167	0,1	-0,025016
0,265833	0,1	-0,037953
0,267500	0,1	-0,037671
0,269167	0,1	-0,045405
0,270833	0,1	-0,025803
0,272500	0,1	-0,021276
0,274167	0,1	-0,050731
0,275833	0,1	-0,012177
0,277500	0,1	-0,015778
0,279167	0,1	-0,011215
0,280833	0,1	-0,012872
0,282500	0,1	-0,045629
0,284167	0,1	-0,034434
0,285833	0,1	-0,033602
0,287500	0,1	-0,045738
0,289167	0,1	-0,057731
0,290833	0,1	-0,014626
0,292500	0,1	-0,030091
0,294167	0,1	0,035646
0,295833	0,1	-0,043145
0,297500	0,1	-0,017608
0,299167	0,1	-0,018413
0,300833	0,1	-0,033141
0,302500	0,1	-0,028414
0,304167	0,1	-0,009994
0,305833	0,1	-0,044528
0,307500	0,1	-0,042773
0,309167	0,1	-0,009021
0,310833	0,1	-0,050147
0,312500	0,1	-0,027589
0,314167	0,1	-0,001196
0,315833	0,1	-0,009758
0,317500	0,1	-0,055043
0,319167	0,1	-0,042442
0,320833	0,1	-0,019457
0,322500	0,1	-0,001051
0,324167	0,1	-0,023949
0,325833	0,1	-0,042664
0,327500	0,1	-0,027174
0,329167	0,1	-0,023312
0,330833	0,1	-0,025488
0,332500	0,1	-0,065793
0,334167	0,1	-0,072937
0,335833	0,1	0,025989
0,337500	0,1	-0,000229
0,339167	0,1	-0,008453
0,340833	0,1	-0,062680
0,342500	0,1	-0,038585
0,344167	0,1	-0,011572
0,345833	0,1	-0,011733
0,347500	0,1	-0,061078
0,349167	0,1	-0,056943
0,350833	0,1	-0,017240
0,352500	0,1	-0,044138
0,354167	0,1	-0,033375
0,355833	0,1	-0,010989
0,357500	0,1	-0,005116
0,359167	0,1	-0,054296
0,360833	0,1	-0,003526
0,362500	0,1	-0,005030
0,364167	0,1	0,016192
0,365833	0,1	-0,010293
0,367500	0,1	-0,011689
0,369167	0,1	-0,024550
0,370833	0,1	-0,005119
0,372500	0,1	-0,002209
0,374167	0,1	-0,006915
0,375833	0,1	-0,044589
0,377500	0,1	-0,015827
0,379167	0,1	-0,027872
0,380833	0,1	-0,020926
0,382500	0,1	-0,007562
0,384167	0,1	0,020031
0,385833	0,1	0,015141
0,387500	0,1	-0,029316
0,389167	0,1	-0,002172
0,390833	0,1	-0,016002
0,392500	0,1	-0,034073
0,394167	0,1	0,006311
0,395833	0,1	0,010428
0,397500	0,1	-0,017533
0,399167	0,1	0,017829
0,400833	0,1	-0,024938
0,402500	0,1	-0,028184
0,404167	0,1	-0,020092
0,405833	0,1	-0,014783
0,407500	0,1	0,010817
0,409167	0,1	-0,038110
0,410833	0,1	0,020561
0,412500	0,1	-0,028091
0,414167	0,1	0,009071
0,415833	0,1	-0,017139
0,417500	0,1	-0,006941
0,419167	0,1	-0,008039
0,420833	0,1	-0,025732
0,422500	0,1	0,004797
0,424167	0,1	-0,008971
0,425833	0,1	-0,000486
0,427500	0,1	-0,038780
0,429167	0,1	-0,020890
0,430833	0,1	0,007185
0,432500	0,1	-0,022908
0,434167	0,1	0,000815
0,435833	0,1	0,019657
0,437500	0,1	-0,009296
0,439167	0,1	0,000840
0,440833	0,1	-0,002975
0,442500	0,1	0,000301
0,444167	0,1	0,002378
0,445833	0,1	-0,021456
0,447500	0,1	0,013159
0,449167	0,1	-0,001208
0,450833	0,1	0,011526
0,452500	0,1	-0,068895
0,454167	0,1	0,003087
0,455833	0,1	0,014970
0,457500	0,1	-0,054810
0,459167	0,1	-0,043958
0,460833	0,1	-0,030159
0,462500	0,1	-0,013623
0,464167	0,1	-0,030963
0,465833	0,1	-0,006136
0,467500	0,1	-0,022788
0,469167	0,1	-0,056147
0,470833	0,1	-0,012529
0,472500	0,1	0,003390
0,474167	0,1	-0,041413
0,475833	0,1	-0,027545
0,477500	0,1	-0,019725
0,479167	0,1	0,005899
0,480833	0,1	0,002627
0,482500	0,1	0,002980
0,484167	0,1	-0,001254
0,485833	0,1	-0,008782
0,487500	0,1	-0,022331
0,489167	0,1	-0,008477
0,490833	0,1	-0,029157
0,492500	0,1	-0,047394
0,494167	0,1	0,005913
0,495833	0,1	-0,002912
0,497500	0,1	-0,031456
0,499167	0,1	-0,011467
0,500833	0,1	-0,023370
0,502500	0,1	-0,032561
0,504167	0,1	-0,027876
0,505833	0,1	-0,020259
0,507500	0,1	-0,003913
0,509167	0,1	-0,057139
0,510833	0,1	-0,018818
0,512500	0,1	-0,013519
0,514167	0,1	-0,015902
0,515833	0,1	-0,033017
0,517500	0,1	-0,030325
0,519167	0,1	0,014691
0,520833	0,1	-0,059848
0,522500	0,1	-0,022801
0,524167	0,1	-0,037537
0,525833	0,1	-0,015141
0,527500	0,1	-0,038866
0,529167	0,1	0,028610
0,530833	0,1	-0,031720
0,532500	0,1	-0,003853
0,534167	0,1	0,001920
0,535833	0,1	-0,057402
0,537500	0,1	-0,006037
0,539167	0,1	0,016794
0,540833	0,1	0,022628
0,542500	0,1	-0,040432
0,544167	0,1	-0,001035
0,545833	0,1	-0,014445
0,547500	0,1	-0,065995
0,549167	0,1	0,027774
0,550833	0,1	-0,050306
0,552500	0,1	-0,042774
0,554167	0,1	-0,004001
0,555833	0,1	-0,005819
0,557500	0,1	-0,052367
0,559167	0,1	-0,020289
0,560833	0,1	0,010049
0,562500	0,1	-0,026580
0,564167	0,1	-0,006135
0,565833	0,1	0,008164
0,567500	0,1	-0,009445
0,569167	0,1	-0,023679
0,570833	0,1	-0,021214
0,572500	0,1	-0,021133
0,574167	0,1	-0,016423
0,575833	0,1	-0,021584
0,577500	0,1	-0,016108
0,579167	0,1	-0,012191
0,580833	0,1	0,011502
0,582500	0,1	-0,039688
0,584167	0,1	-0,030784
0,585833	0,1	-0,058494
0,587500	0,1	-0,034602
0,589167	0,1	0,020791
0,590833	0,1	-0,013611
0,592500	0,1	-0,031043
0,594167	0,1	-0,003812
0,595833	0,1	-0,019985
0,597500	0,1	-0,065396
0,599167	0,1	-0,000956
0,600833	0,1	0,012936
0,602500	0,1	-0,033756
0,604167	0,1	-0,013128
0,605833	0,1	0,027663
0,607500	0,1	-0,011577
0,609167	0,1	-0,037287
0,610833	0,1	-0,037936
0,612500	0,1	-0,023642
0,614167	0,1	-0,031856
0,615833	0,1	-0,055464
0,617500	0,1	-0,018794
0,619167	0,1	-0,027953
0,620833	0,1	0,016167
0,622500	0,1	-0,032260
0,624167	0,1	-0,018417
0,625833	0,1	-0,011753
0,627500	0,1	-0,029261
0,629167	0,1	-0,016838
0,630833	0,1	-0,020631
0,632500	0,1	-0,047412
0,634167	0,1	0,025747
0,635833	0,1	-0,001702
0,637500	0,1	-0,006627
0,639167	0,1	-0,016065
0,640833	0,1	-0,033639
0,642500	0,1	-0,030009
0,644167	0,1	-0,015428
0,645833	0,1	-0,056165
0,647500	0,1	-0,003965
0,649167	0,1	0,009553
0,650833	0,1	-0,014339
0,652500	0,1	-0,008185
0,654167	0,1	-0,008393
0,655833	0,1	-0,038387
0,657500	0,1	-0,023914
0,659167	0,1	-0,012108
0,660833	0,1	-0,021025
0,662500	0,1	-0,044345
0,664167	0,1	-0,015369
0,665833	0,1	-0,004492
0,667500	0,1	-0,029613
0,669167	0,1	-0,021277
0,670833	0,1	-0,037024
0,672500	0,1	-0,023438
0,674167	0,1	-0,031942
0,675833	0,1	0,010294
0,677500	0,1	-0,007205
0,679167	0,1	0,015672
0,680833	0,1	-0,035891
0,682500	0,1	-0,021031
0,684167	0,1	-0,000968
0,685833	0,1	-0,025338
0,687500	0,1	0,006851
0,689167	0,1	0,016154
0,690833	0,1	-0,002223
0,692500	0,1	-0,036686
0,694167	0,1	-0,036836
0,695833	0,1	-0,044658
0,697500	0,1	-0,021490
0,699167	0,1	-0,035714
0,700833	0,1	-0,013916
0,702500	0,1	0,013617
0,704167	0,1	0,019536
0,705833	0,1	0,002298
0,707500	0,1	0,017709
0,709167	0,1	0,041508
0,710833	0,1	0,002055
0,712500	0,1	0,007190
0,714167	0,1	-0,006832
0,715833	0,1	0,046936
0,717500	0,1	0,038113
0,719167	0,1	0,045142
0,720833	0,1	0,002761
0,722500	0,1	0,013870
0,724167	0,1	0,039161
0,725833	0,1	0,031099
0,727500	0,1	0,013876
0,729167	0,1	0,020222
0,730833	0,1	0,054847
0,732500	0,1	0,016995
0,734167	0,1	0,029973
0,735833	0,1	0,045265
0,737500	0,1	0,069295
0,739167	0,1	-0,005012
0,740833	0,1	0,069821
0,742500	0,1	0,039778
0,744167	0,1	0,030662
0,745833	0,1	0,057816
0,747500	0,1	0,035106
0,749167	0,1	0,051386
0,750833	0,1	0,041743
0,752500	0,1	0,049418
0,754167	0,1	0,017264
0,755833	0,1	0,012773
0,757500	0,1	0,012318
0,759167	0,1	0,037605
0,760833	0,1	0,039459
0,762500	0,1	0,036036
0,764167	0,1	0,034395
0,765833	0,1	0,000456
0,767500	0,1	-0,002456
0,769167	0,1	0,014720
0,770833	0,1	0,002692
0,772500	0,1	0,012086
0,774167	0,1	0,024224
0,775833	0,1	0,001656
0,777500	0,1	0,024491
0,779167	0,1	0,000618
0,780833	0,1	0,043682
0,782500	0,1	-0,036693
0,784167	0,1	0,004506
0,785833	0,1	-0,021166
0,787500	0,1	0,030047
0,789167	0,1	0,033399
0,790833	0,1	-0,018318
0,792500	0,1	-0,040091
0,794167	0,1	-0,005806
0,795833	0,1	-0,034590
0,797500	0,1	-0,022379
0,799167	0,1	-0,020052
0,800833	0,1	-0,005553
0,802500	0,1	-0,048798
0,804167	0,1	-0,045408
0,805833	0,1	-0,037109
0,807500	0,1	-0,043681
0,809167	0,1	-0,005310
0,810833	0,1	-0,037849
0,812500	0,1	-0,012941
0,814167	0,1	0,007625
0,815833	0,1	-0,031433
0,817500	0,1	-0,025342
0,819167	0,1	-0,044425
0,820833	0,1	-0,027130
0,822500	0,1	-0,058968
0,824167	0,1	-0,074056
0,825833	0,1	-0,039832
0,827500	0,1	-0,038562
0,829167	0,1	-0,032960
0,830833	0,1	-0,037230
0,832500	0,1	-0,015575
0,834167	0,1	-0,064771
0,835833	0,1	-0,060035
0,837500	0,1	-0,057586
0,839167	0,1	-0,046840
0,840833	0,1	-0,059801
0,842500	0,1	-0,066481
0,844167	0,1	-0,059929
0,845833	0,1	-0,021515
0,847500	0,1	-0,040295
0,849167	0,1	-0,064715
0,850833	0,1	-0,030495
0,852500	0,1	-0,057930
0,854167	0,1	-0,072435
0,855833	0,1	-0,048418
0,857500	0,1	-0,056648
0,859167	0,1	-0,045220
0,860833	0,1	-0,060030
0,862500	0,1	-0,063081
0,864167	0,1	-0,040535
0,865833	0,1	-0,051670
0,867500	0,1	-0,026781
0,869167	0,1	-0,057268
0,870833	0,1	-0,050035
0,872500	0,1	-0,063889
0,874167	0,1	-0,095996
0,875833	0,1	-0,053736
0,877500	0,1	-0,028604
0,879167	0,1	-0,059710
0,880833	0,1	-0,051675
0,882500	0,1	-0,056483
0,884167	0,1	-0,031882
0,885833	0,1	-0,041274
0,887500	0,1	-0,054989
0,889167	0,1	-0,033563
0,890833	0,1	-0,039840
0,892500	0,1	-0,076165
0,894167	0,1	-0,078454
0,895833	0,1	-0,058109
0,897500	0,1	-0,059742
0,899167	0,1	-0,054927
0,900833	0,1	-0,056464
0,902500	0,1	-0,040056
0,904167	0,1	-0,048534
0,905833	0,1	-0,030057
0,907500	0,1	-0,056787
0,909167	0,1	-0,024272
0,910833	0,1	-0,036957
0,912500	0,1	-0,040322
0,914167	0,1	0,009047
0,915833	0,1	-0,053810
0,917500	0,1	-0,024103
0,919167	0,1	-0,055504
0,920833	0,1	-0,034702
0,922500	0,1	-0,074235
0,924167	0,1	-0,054436
0,925833	0,1	-0,058121
0,927500	0,1	-0,083840
0,929167	0,1	-0,049789
0,930833	0,1	-0,068303
0,932500	0,1	-0,026723
0,934167	0,1	-0,103120
0,935833	0,1	-0,002708
0,937500	0,1	-0,027802
0,939167	0,1	-0,002752
0,940833	0,1	-0,018991
0,942500	0,1	-0,053550
0,944167	0,1	-0,014272
0,945833	0,1	-0,033907
0,947500	0,1	-0,023995
0,949167	0,1	-0,037248
0,950833	0,1	-0,039823
0,952500	0,1	-0,025577
0,954167	0,1	-0,020778
0,955833	0,1	-0,003913
0,957500	0,1	-0,010463
0,959167	0,1	-0,037579
0,960833	0,1	-0,014578
0,962500	0,1	-0,029409
0,964167	0,1	-0,051977
0,965833	0,1	-0,002944
0,967500	0,1	-0,018761
0,969167	0,1	0,021209
0,970833	0,1	0,034910
0,972500	0,1	-0,012259
0,974167	0,1	-0,035606
0,975833	0,1	-0,052082
0,977500	0,1	0,021512
0,979167	0,1	-0,013197
0,980833	0,1	-0,000137
0,982500	0,1	-0,049608
0,984167	0,1	-0,025845
0,985833	0,1	-0,016194
0,987500	0,1	-0,025486
0,989167	0,1	-0,001404
0,990833	0,1	-0,007601
0,992500	0,1	0,017458
0,994167	0,1	0,024433
0,995833	0,1	0,021552
0,997500	0,1	0,005038
0,999167	0,1	0,054470
1,000833	0,1	-0,008853
1,002500	0,1	0,020652
1,004167	0,1	0,025906
1,005833	0,1	0,025370
1,007500	0,1	0,034579
1,009167	0,1	0,035911
1,010833	0,1	0,019395
1,012500	0,1	0,052753
1,014167	0,1	0,069854
1,015833	0,1	0,089716
1,017500	0,1	0,057312
1,019167	0,1	0,068385
1,020833	0,1	0,096872
1,022500	0,1	0,095160
1,024167	0,1	0,094930
1,025833	0,1	0,120927
1,027500	0,1	0,093587
1,029167	0,1	0,080034
1,030833	0,1	0,110945
1,032500	0,1	0,127655
1,034167	0,1	0,135771
1,035833	0,1	0,079316
1,037500	0,1	0,091585
1,039167	0,1	0,120039
1,040833	0,1	0,127720
1,042500	0,1	0,105914
1,044167	0,1	0,148364
1,045833	0,1	0,128888
1,047500	0,1	0,179171
1,049167	0,1	0,121489
1,050833	0,1	0,127099
1,052500	0,1	0,087282
1,054167	0,1	0,160519
1,055833	0,1	0,159235
1,057500	0,1	0,171307
1,059167	0,1	0,225467
1,060833	0,1	0,218162
1,062500	0,1	0,293028
1,064167	0,1	0,313338
1,065833	0,1	0,367766
1,067500	0,1	0,524236
1,069167	0,1	0,613041
1,070833	0,1	0,779402
1,072500	0,1	0,982916
1,074167	0,1	1,238025
1,075833	0,1	1,451686
1,077500	0,1	1,739726
1,079167	0,1	2,109339
1,080833	0,1	2,468801
1,082500	0,1	2,903471
1,084167	0,1	3,316967
1,085833	0,1	3,785874
1,087500	0,1	4,258774
1,089167	0,1	4,708919
1,090833	0,1	5,176946
1,092500	0,1	5,680843
1,094167	0,1	6,077716
1,095833	0,1	6,454602
1,097500	0,1	6,783706
1,099167	0,1	7,113405
1,100833	0,1	7,411386
1,102500	0,1	7,665626
1,104167	0,1	7,894052
1,105833	0,1	7,990343
1,107500	0,1	8,122946
1,109167	0,1	8,195112
1,110833	0,1	8,171009
1,112500	0,1	8,205770
1,114167	0,1	8,130518
1,115833	0,1	8,036352
1,117500	0,1	7,930201
1,119167	0,1	7,820596
1,120833	0,1	7,645454
1,122500	0,1	7,474043
1,124167	0,1	7,313168
1,125833	0,1	7,094388
1,127500	0,1	6,864865
1,129167	0,1	6,658327
1,130833	0,1	6,403570
1,132500	0,1	6,142892
1,134167	0,1	5,915002
1,135833	0,1	5,657700
1,137500	0,1	5,439893
1,139167	0,1	5,180771
1,140833	0,1	4,952709
1,142500	0,1	4,765814
1,144167	0,1	4,562679
1,145833	0,1	4,340062
1,147500	0,1	4,140326
1,149167	0,1	3,937562
1,150833	0,1	3,749787
1,152500	0,1	3,571133
1,154167	0,1	3,407650
1,155833	0,1	3,285240
1,157500	0,1	3,114720
1,159167	0,1	3,004145
1,160833	0,1	2,840984
1,162500	0,1	2,717105
1,164167	0,1	2,596294
1,165833	0,1	2,516622
1,167500	0,1	2,398905
1,169167	0,1	2,310658
1,170833	0,1	2,230622
1,172500	0,1	2,143277
1,174167	0,1	2,073543
1,175833	0,1	1,968928
1,177500	0,1	1,915006
1,179167	0,1	1,846967
1,180833	0,1	1,755762
1,182500	0,1	1,703148
1,184167	0,1	1,648680
1,185833	0,1	1,609521
1,187500	0,1	1,520517
1,189167	0,1	1,498074
1,190833	0,1	1,400224
1,192500	0,1	1,409857
1,194167	0,1	1,363189
1,195833	0,1	1,279154
1,197500	0,1	1,259737
1,199167	0,1	1,248701
1,200833	0,1	1,206558
1,202500	0,1	1,184336
1,204167	0,1	1,152821
1,205833	0,1	1,081363
1,207500	0,1	1,070564
1,209167	0,1	1,021169
1,210833	0,1	1,043763
1,212500	0,1	1,006893
1,214167	0,1	0,978570
1,215833	0,1	0,967715
1,217500	0,1	0,983385
1,219167	0,1	0,926759
1,220833	0,1	0,945259
1,222500	0,1	0,894090
1,224167	0,1	0,903049
1,225833	0,1	0,857102
1,227500	0,1	0,847138
1,229167	0,1	0,821311
1,230833	0,1	0,854755
1,232500	0,1	0,780803
1,234167	0,1	0,768716
1,235833	0,1	0,785976
1,237500	0,1	0,732073
1,239167	0,1	0,745644
1,240833	0,1	0,757298
1,242500	0,1	0,723383
1,244167	0,1	0,716589
1,245833	0,1	0,696105
1,247500	0,1	0,700349
1,249167	0,1	0,676481
1,250833	0,1	0,674580
1,252500	0,1	0,660379
1,254167	0,1	0,637866
1,255833	0,1	0,678689
1,257500	0,1	0,646307
1,259167	0,1	0,600540
1,260833	0,1	0,623359
1,262500	0,1	0,610359
1,264167	0,1	0,614090
1,265833	0,1	0,578738
1,267500	0,1	0,619619
1,269167	0,1	0,599025
1,270833	0,1	0,586847
1,272500	0,1	0,558511
1,274167	0,1	0,588478
1,275833	0,1	0,550172
1,277500	0,1	0,531653
1,279167	0,1	0,550222
1,280833	0,1	0,545205
1,282500	0,1	0,504224
1,284167	0,1	0,486638
1,285833	0,1	0,470990
1,287500	0,1	0,510675
1,289167	0,1	0,496748
1,290833	0,1	0,475692
1,292500	0,1	0,480773
1,294167	0,1	0,450162
1,295833	0,1	0,448546
1,297500	0,1	0,457238
1,299167	0,1	0,461938
1,300833	0,1	0,447582
1,302500	0,1	0,439825
1,304167	0,1	0,430811
1,305833	0,1	0,426140
1,307500	0,1	0,405316
1,309167	0,1	0,442162
1,310833	0,1	0,401713
1,312500	0,1	0,422754
1,314167	0,1	0,367176
1,315833	0,1	0,419815
1,317500	0,1	0,407953
1,319167	0,1	0,396201
1,320833	0,1	0,370707
1,322500	0,1	0,349299
1,324167	0,1	0,362010
1,325833	0,1	0,342034
1,327500	0,1	0,370539
1,329167	0,1	0,317671
1,330833	0,1	0,318691
1,332500	0,1	0,348232
1,334167	0,1	0,319380
1,335833	0,1	0,350545
1,337500	0,1	0,310235
1,339167	0,1	0,359781
1,340833	0,1	0,293569
1,342500	0,1	0,298891
1,344167	0,1	0,334360
1,345833	0,1	0,324580
1,347500	0,1	0,299768
1,349167	0,1	0,307449
1,350833	0,1	0,292041
1,352500	0,1	0,241202
1,354167	0,1	0,268089
1,355833	0,1	0,298857
1,357500	0,1	0,305109
1,359167	0,1	0,300698
1,360833	0,1	0,343243
1,362500	0,1	0,270751
1,364167	0,1	0,280259
1,365833	0,1	0,292171
1,367500	0,1	0,264367
1,369167	0,1	0,290880
1,370833	0,1	0,298900
1,372500	0,1	0,250705
1,374167	0,1	0,272923
1,375833	0,1	0,278203
1,377500	0,1	0,293686
1,379167	0,1	0,248509
1,380833	0,1	0,232160
1,382500	0,1	0,263973
1,384167	0,1	0,278239
1,385833	0,1	0,242209
1,387500	0,1	0,250980
1,389167	0,1	0,254389
1,390833	0,1	0,270905
1,392500	0,1	0,237312
1,394167	0,1	0,205197
1,395833	0,1	0,193217
1,397500	0,1	0,236359
1,399167	0,1	0,273084
1,400833	0,1	0,244111
1,402500	0,1	0,259799
1,404167	0,1	0,243326
1,405833	0,1	0,196795
1,407500	0,1	0,233786
1,409167	0,1	0,232319
1,410833	0,1	0,227752
1,412500	0,1	0,214365
1,414167	0,1	0,233451
1,415833	0,1	0,220611
1,417500	0,1	0,209760
1,419167	0,1	0,203032
1,420833	0,1	0,215735
1,422500	0,1	0,205773
1,424167	0,1	0,204961
1,425833	0,1	0,225033
1,427500	0,1	0,181327
1,429167	0,1	0,203997
1,430833	0,1	0,238078
1,432500	0,1	0,229457
1,434167	0,1	0,206065
1,435833	0,1	0,194933
1,437500	0,1	0,220022
1,439167	0,1	0,203906
1,440833	0,1	0,186672
1,442500	0,1	0,196052
1,444167	0,1	0,183099
1,445833	0,1	0,161208
1,447500	0,1	0,191542
1,449167	0,1	0,152408
1,450833	0,1	0,195689
1,452500	0,1	0,219883
1,454167	0,1	0,146194
1,455833	0,1	0,217400
1,457500	0,1	0,224216
1,459167	0,1	0,171740
1,460833	0,1	0,193827
1,462500	0,1	0,183313
1,464167	0,1	0,187310
1,465833	0,1	0,163280
1,467500	0,1	0,128875
1,469167	0,1	0,180872
1,470833	0,1	0,184634
1,472500	0,1	0,142364
1,474167	0,1	0,183881
1,475833	0,1	0,197730
1,477500	0,1	0,143654
1,479167	0,1	0,167632
1,480833	0,1	0,178386
1,482500	0,1	0,172724
1,484167	0,1	0,201196
1,485833	0,1	0,176212
1,487500	0,1	0,203744
1,489167	0,1	0,132737
1,490833	0,1	0,202888
1,492500	0,1	0,148535
1,494167	0,1	0,153520
1,495833	0,1	0,169438
1,497500	0,1	0,158945
1,499167	0,1	0,174461
1,500833	0,1	0,190045
1,502500	0,1	0,189431
1,504167	0,1	0,168223
1,505833	0,1	0,169341
1,507500	0,1	0,135121
1,509167	0,1	0,121023
1,510833	0,1	0,176673
1,512500	0,1	0,157387
1,514167	0,1	0,149120
1,515833	0,1	0,124390
1,517500	0,1	0,205121
1,519167	0,1	0,166046
1,520833	0,1	0,165785
1,522500	0,1	0,164006
1,524167	0,1	0,139372
1,525833	0,1	0,150716
1,527500	0,1	0,177095
1,529167	0,1	0,151949
1,530833	0,1	0,183340
1,532500	0,1	0,158409
1,534167	0,1	0,180542
1,535833	0,1	0,148608
1,537500	0,1	0,189861
1,539167	0,1	0,131078
1,540833	0,1	0,147601
1,542500	0,1	0,165100
1,544167	0,1	0,152693
1,545833	0,1	0,154934
1,547500	0,1	0,182760
1,549167	0,1	0,128316
1,550833	0,1	0,127785
1,552500	0,1	0,167213
1,554167	0,1	0,140597
1,555833	0,1	0,133372
1,557500	0,1	0,141420
1,559167	0,1	0,155762
1,560833	0,1	0,138828
1,562500	0,1	0,131606
1,564167	0,1	0,118057
1,565833	0,1	0,147598
1,567500	0,1	0,117393
1,569167	0,1	0,143635
1,570833	0,1	0,155158
1,572500	0,1	0,116251
1,574167	0,1	0,108029
1,575833	0,1	0,103399
1,577500	0,1	0,169200
1,579167	0,1	0,100799
1,580833	0,1	0,098085
1,582500	0,1	0,130664
1,584167	0,1	0,114816
1,585833	0,1	0,132243
1,587500	0,1	0,127785
1,589167	0,1	0,112016
1,590833	0,1	0,102653
1,592500	0,1	0,109044
1,594167	0,1	0,129898
1,595833	0,1	0,099983
1,597500	0,1	0,120536
1,599167	0,1	0,112446
1,600833	0,1	0,120100
1,602500	0,1	0,128676
1,604167	0,1	0,100415
1,605833	0,1	0,098377
1,607500	0,1	0,135080
1,609167	0,1	0,106809
1,610833	0,1	0,108879
1,612500	0,1	0,120851
1,614167	0,1	0,153866
1,615833	0,1	0,118681
1,617500	0,1	0,131454
1,619167	0,1	0,115358
1,620833	0,1	0,189450
1,622500	0,1	0,194866
1,624167	0,1	0,160112
1,625833	0,1	0,153169
1,627500	0,1	0,179151
1,629167	0,1	0,212676
1,630833	0,1	0,186368
1,632500	0,1	0,211832
1,634167	0,1	0,182962
1,635833	0,1	0,253377
1,637500	0,1	0,249016
1,639167	0,1	0,242127
1,640833	0,1	0,301815
1,642500	0,1	0,310740
1,644167	0,1	0,375935
1,645833	0,1	0,426866
1,647500	0,1	0,479991
1,649167	0,1	0,507106
1,650833	0,1	0,598125
1,652500	0,1	0,621815
1,654167	0,1	0,704130
1,655833	0,1	0,744087
1,657500	0,1	0,903195
1,659167	0,1	0,938248
1,660833	0,1	1,073152
1,662500	0,1	1,183216
1,664167	0,1	1,324295
1,665833	0,1	1,446901
1,667500	0,1	1,587100
1,669167	0,1	1,725415
1,670833	0,1	1,919028
1,672500	0,1	2,099617
1,674167	0,1	2,296432
1,675833	0,1	2,543148
1,677500	0,1	2,780368
1,679167	0,1	3,003643
1,680833	0,1	3,270260
1,682500	0,1	3,540517
1,684167	0,1	3,858870
1,685833	0,1	4,187569
1,687500	0,1	4,484884
1,689167	0,1	4,868673
1,690833	0,1	5,228762
1,692500	0,1	5,633169
1,694167	0,1	6,049886
1,695833	0,1	6,473929
1,697500	0,1	6,868539
1,699167	0,1	7,368905
1,700833	0,1	7,834905
1,702500	0,1	8,318602
1,704167	0,1	8,858996
1,705833	0,1	9,342830
1,707500	0,1	9,882368
1,709167	0,1	10,417889
1,710833	0,1	10,960107
1,712500	0,1	11,551841
1,714167	0,1	12,123336
1,715833	0,1	12,693360
1,717500	0,1	13,282295
1,719167	0,1	13,919643
1,720833	0,1	14,478994
1,722500	0,1	15,094460
1,724167	0,1	15,684638
1,725833	0,1	16,310880
1,727500	0,1	16,891481
1,729167	0,1	17,506641
1,730833	0,1	18,149670
1,732500	0,1	18,651538
1,734167	0,1	19,250806
1,735833	0,1	19,815702
1,737500	0,1	20,381526
1,739167	0,1	20,922420
1,740833	0,1	21,473026
1,742500	0,1	21,961004
1,744167	0,1	22,483801
1,745833	0,1	22,932827
1,747500	0,1	23,389941
1,749167	0,1	23,867155
1,750833	0,1	24,242747
1,752500	0,1	24,689996
1,754167	0,1	25,017750
1,755833	0,1	25,437902
1,757500	0,1	25,706159
1,759167	0,1	26,034595
1,760833	0,1	26,336639
1,762500	0,1	26,590762
1,764167	0,1	26,830674
1,765833	0,1	27,006874
1,767500	0,1	27,224154
1,769167	0,1	27,361096
1,770833	0,1	27,502489
1,772500	0,1	27,613466
1,774167	0,1	27,681460
1,775833	0,1	27,715403
1,777500	0,1	27,759128
1,779167	0,1	27,718446
1,780833	0,1	27,679389
1,782500	0,1	27,681415
1,784167	0,1	27,622983
1,785833	0,1	27,478453
1,787500	0,1	27,410601
1,789167	0,1	27,262970
1,790833	0,1	27,094959
1,792500	0,1	26,918933
1,794167	0,1	26,750672
1,795833	0,1	26,476251
1,797500	0,1	26,286551
1,799167	0,1	26,026051
1,800833	0,1	25,781538
1,802500	0,1	25,471855
1,804167	0,1	25,200615
1,805833	0,1	24,868699
1,807500	0,1	24,588176
1,809167	0,1	24,217650
1,810833	0,1	23,907873
1,812500	0,1	23,538493
1,814167	0,1	23,194273
1,815833	0,1	22,811855
1,817500	0,1	22,405710
1,819167	0,1	22,040771
1,820833	0,1	21,628817
1,822500	0,1	21,306417
1,824167	0,1	20,851267
1,825833	0,1	20,458615
1,827500	0,1	20,039280
1,829167	0,1	19,663129
1,830833	0,1	19,266023
1,832500	0,1	18,840451
1,834167	0,1	18,450009
1,835833	0,1	18,039350
1,837500	0,1	17,668950
1,839167	0,1	17,250086
1,840833	0,1	16,866440
1,842500	0,1	16,460871
1,844167	0,1	16,101073
1,845833	0,1	15,697552
1,847500	0,1	15,308528
1,849167	0,1	14,918627
1,850833	0,1	14,590462
1,852500	0,1	14,212132
1,854167	0,1	13,802600
1,855833	0,1	13,483753
1,857500	0,1	13,115282
1,859167	0,1	12,758363
1,860833	0,1	12,481986
1,862500	0,1	12,132468
1,864167	0,1	11,793595
1,865833	0,1	11,479448
1,867500	0,1	11,185470
1,869167	0,1	10,856000
1,870833	0,1	10,604730
1,872500	0,1	10,257046
1,874167	0,1	9,999702
1,875833	0,1	9,686123
1,877500	0,1	9,456293
1,879167	0,1	9,165714
1,880833	0,1	8,914583
1,882500	0,1	8,622270
1,884167	0,1	8,411865
1,885833	0,1	8,153467
1,887500	0,1	7,933950
1,889167	0,1	7,710442
1,890833	0,1	7,527126
1,892500	0,1	7,282832
1,894167	0,1	7,051335
1,895833	0,1	6,829298
1,897500	0,1	6,663828
1,899167	0,1	6,457470
1,900833	0,1	6,290571
1,902500	0,1	6,095485
1,904167	0,1	5,944504
1,905833	0,1	5,747683
1,907500	0,1	5,596748
1,909167	0,1	5,452730
1,910833	0,1	5,282165
1,912500	0,1	5,114753
1,914167	0,1	4,988783
1,915833	0,1	4,813071
1,917500	0,1	4,725741
1,919167	0,1	4,560435
1,920833	0,1	4,456826
1,922500	0,1	4,294573
1,924167	0,1	4,178015
1,925833	0,1	4,066647
1,927500	0,1	3,973088
1,929167	0,1	3,883233
1,930833	0,1	3,726127
1,932500	0,1	3,655240
1,934167	0,1	3,521525
1,935833	0,1	3,392830
1,937500	0,1	3,327399
1,939167	0,1	3,172799
1,940833	0,1	3,162149
1,942500	0,1	3,048133
1,944167	0,1	2,994056
1,945833	0,1	2,901458
1,947500	0,1	2,788867
1,949167	0,1	2,751889
1,950833	0,1	2,626152
1,952500	0,1	2,539134
1,954167	0,1	2,522801
1,955833	0,1	2,448842
1,957500	0,1	2,396803
1,959167	0,1	2,309365
1,960833	0,1	2,230333
1,962500	0,1	2,220402
1,964167	0,1	2,140688
1,965833	0,1	2,087178
1,967500	0,1	2,034753
1,969167	0,1	1,986077
1,970833	0,1	1,909049
1,972500	0,1	1,901573
1,974167	0,1	1,848677
1,975833	0,1	1,794209
1,977500	0,1	1,784440
1,979167	0,1	1,706739
1,980833	0,1	1,705946
1,982500	0,1	1,654789
1,984167	0,1	1,600901
1,985833	0,1	1,573076
1,987500	0,1	1,551761
1,989167	0,1	1,475112
1,990833	0,1	1,489797
1,992500	0,1	1,451238
1,994167	0,1	1,445738
1,995833	0,1	1,376440
1,997500	0,1	1,347291
1,999167	0,1	1,294649
2,000833	0,1	1,277970
2,002500	0,1	1,291339
2,004167	0,1	1,246821
2,005833	0,1	1,233220
2,007500	0,1	1,196612
2,009167	0,1	1,187845
2,010833	0,1	1,126387
2,012500	0,1	1,173305
2,014167	0,1	1,111334
2,015833	0,1	1,111071
2,017500	0,1	1,024825
2,019167	0,1	1,111963
2,020833	0,1	1,035250
2,022500	0,1	1,034230
2,024167	0,1	1,012514
2,025833	0,1	0,987371
2,027500	0,1	0,993033
2,029167	0,1	0,952942
2,030833	0,1	0,958180
2,032500	0,1	0,957157
2,034167	0,1	0,936336
2,035833	0,1	0,935330
2,037500	0,1	0,931325
2,039167	0,1	0,893088
2,040833	0,1	0,898340
2,042500	0,1	0,885783
2,044167	0,1	0,890185
2,045833	0,1	0,861454
2,047500	0,1	0,809717
2,049167	0,1	0,852860
2,050833	0,1	0,837379
2,052500	0,1	0,801558
2,054167	0,1	0,839037
2,055833	0,1	0,802781
2,057500	0,1	0,820762
2,059167	0,1	0,802160
2,060833	0,1	0,797515
2,062500	0,1	0,775636
2,064167	0,1	0,818663
2,065833	0,1	0,789908
2,067500	0,1	0,746106
2,069167	0,1	0,750435
2,070833	0,1	0,785157
2,072500	0,1	0,752256
2,074167	0,1	0,753536
2,075833	0,1	0,761220
2,077500	0,1	0,732346
2,079167	0,1	0,751049
2,080833	0,1	0,754144
2,082500	0,1	0,746797
2,084167	0,1	0,699483
2,085833	0,1	0,705856
2,087500	0,1	0,715650
2,089167	0,1	0,738871
2,090833	0,1	0,709955
2,092500	0,1	0,710816
2,094167	0,1	0,685110
2,095833	0,1	0,708589
2,097500	0,1	0,721860
2,099167	0,1	0,696360
2,100833	0,1	0,707491
2,102500	0,1	0,691427
2,104167	0,1	0,683824
2,105833	0,1	0,698759
2,107500	0,1	0,708340
2,109167	0,1	0,695675
2,110833	0,1	0,691938
2,112500	0,1	0,694999
2,114167	0,1	0,684794
2,115833	0,1	0,688649
2,117500	0,1	0,683758
2,119167	0,1	0,694990
2,120833	0,1	0,632236
2,122500	0,1	0,642401
2,124167	0,1	0,641595
2,125833	0,1	0,678176
2,127500	0,1	0,652841
2,129167	0,1	0,622117
2,130833	0,1	0,677976
2,132500	0,1	0,642697
2,134167	0,1	0,670896
2,135833	0,1	0,622477
2,137500	0,1	0,678134
2,139167	0,1	0,676383
2,140833	0,1	0,640150
2,142500	0,1	0,636508
2,144167	0,1	0,603822
2,145833	0,1	0,608836
2,147500	0,1	0,627318
2,149167	0,1	0,597380
2,150833	0,1	0,588423
2,152500	0,1	0,589258
2,154167	0,1	0,625737
2,155833	0,1	0,616893
2,157500	0,1	0,605141
2,159167	0,1	0,594061
2,160833	0,1	0,586455
2,162500	0,1	0,587326
2,164167	0,1	0,538551
2,165833	0,1	0,587926
2,167500	0,1	0,554937
2,169167	0,1	0,569450
2,170833	0,1	0,530241
2,172500	0,1	0,546939
2,174167	0,1	0,542984
2,175833	0,1	0,573791
2,177500	0,1	0,566009
2,179167	0,1	0,569031
2,180833	0,1	0,556026
2,182500	0,1	0,526117
2,184167	0,1	0,522376
2,185833	0,1	0,570437
2,187500	0,1	0,549943
2,189167	0,1	0,514848
2,190833	0,1	0,549060
2,192500	0,1	0,506703
2,194167	0,1	0,489695
2,195833	0,1	0,496581
2,197500	0,1	0,516798
2,199167	0,1	0,536118
2,200833	0,1	0,499939
2,202500	0,1	0,532058
2,204167	0,1	0,487096
2,205833	0,1	0,490206
2,207500	0,1	0,482064
2,209167	0,1	0,473564
2,210833	0,1	0,507491
2,212500	0,1	0,485641
2,214167	0,1	0,477267
2,215833	0,1	0,537074
2,217500	0,1	0,489704
2,219167	0,1	0,444277
2,220833	0,1	0,492032
2,222500	0,1	0,459855
2,224167	0,1	0,427498
2,225833	0,1	0,443231
2,227500	0,1	0,462998
2,229167	0,1	0,446974
2,230833	0,1	0,438793
2,232500	0,1	0,426365
2,234167	0,1	0,423919
2,235833	0,1	0,404544
2,237500	0,1	0,428939
2,239167	0,1	0,417611
2,240833	0,1	0,445739
2,242500	0,1	0,454662
2,244167	0,1	0,431135
2,245833	0,1	0,397529
2,247500	0,1	0,389761
2,249167	0,1	0,367594
2,250833	0,1	0,399184
2,252500	0,1	0,354037
2,254167	0,1	0,408290
2,255833	0,1	0,348410
2,257500	0,1	0,394738
2,259167	0,1	0,397942
2,260833	0,1	0,369936
2,262500	0,1	0,348308
2,264167	0,1	0,351367
2,265833	0,1	0,363850
2,267500	0,1	0,355359
2,269167	0,1	0,353490
2,270833	0,1	0,400890
2,272500	0,1	0,328203
2,274167	0,1	0,373208
2,275833	0,1	0,371451
2,277500	0,1	0,342707
2,279167	0,1	0,347631
2,280833	0,1	0,335015
2,282500	0,1	0,314771
2,284167	0,1	0,344725
2,285833	0,1	0,335785
2,287500	0,1	0,324886
2,289167	0,1	0,314996
2,290833	0,1	0,329795
2,292500	0,1	0,316510
2,294167	0,1	0,306790
2,295833	0,1	0,280179
2,297500	0,1	0,262635
2,299167	0,1	0,286984
2,300833	0,1	0,318367
2,302500	0,1	0,357534
2,304167	0,1	0,295635
2,305833	0,1	0,264343
2,307500	0,1	0,256259
2,309167	0,1	0,293199
2,310833	0,1	0,293788
2,312500	0,1	0,309033
2,314167	0,1	0,234231
2,315833	0,1	0,252972
2,317500	0,1	0,284407
2,319167	0,1	0,277762
2,320833	0,1	0,252303
2,322500	0,1	0,273795
2,324167	0,1	0,326432
2,325833	0,1	0,283148
2,327500	0,1	0,245806
2,329167	0,1	0,273565
2,330833	0,1	0,267101
2,332500	0,1	0,269558
2,334167	0,1	0,243431
2,335833	0,1	0,250337
2,337500	0,1	0,253303
2,339167	0,1	0,260093
2,340833	0,1	0,294198
2,342500	0,1	0,258942
2,344167	0,1	0,264750
2,345833	0,1	0,244843
2,347500	0,1	0,186667
2,349167	0,1	0,215894
2,350833	0,1	0,219118
2,352500	0,1	0,236050
2,354167	0,1	0,254108
2,355833	0,1	0,242429
2,357500	0,1	0,250375
2,359167	0,1	0,223000
2,360833	0,1	0,237061
2,362500	0,1	0,212401
2,364167	0,1	0,211310
2,365833	0,1	0,234018
2,367500	0,1	0,259998
2,369167	0,1	0,210904
2,370833	0,1	0,239782
2,372500	0,1	0,204743
2,374167	0,1	0,192940
2,375833	0,1	0,187690
2,377500	0,1	0,230567
2,379167	0,1	0,191182
2,380833	0,1	0,181256
2,382500	0,1	0,199911
2,384167	0,1	0,220023
2,385833	0,1	0,225908
2,387500	0,1	0,239849
2,389167	0,1	0,213436
2,390833	0,1	0,171486
2,392500	0,1	0,194825
2,394167	0,1	0,204266
2,395833	0,1	0,200951
2,397500	0,1	0,182545
2,399167	0,1	0,198018
2,400833	0,1	0,190139
2,402500	0,1	0,188207
2,404167	0,1	0,183600
2,405833	0,1	0,217485
2,407500	0,1	0,168936
2,409167	0,1	0,192188
2,410833	0,1	0,130749
2,412500	0,1	0,138241
2,414167	0,1	0,167153
2,415833	0,1	0,204348
2,417500	0,1	0,162892
2,419167	0,1	0,175271
2,420833	0,1	0,155746
2,422500	0,1	0,189963
2,424167	0,1	0,166004
2,425833	0,1	0,173922
2,427500	0,1	0,148402
2,429167	0,1	0,174938
2,430833	0,1	0,161535
2,432500	0,1	0,151223
2,434167	0,1	0,156549
2,435833	0,1	0,095900
2,437500	0,1	0,208291
2,439167	0,1	0,152436
2,440833	0,1	0,200382
2,442500	0,1	0,150316
2,444167	0,1	0,163625
2,445833	0,1	0,151616
2,447500	0,1	0,149724
2,449167	0,1	0,143103
2,450833	0,1	0,158186
2,452500	0,1	0,179041
2,454167	0,1	0,151118
2,455833	0,1	0,162010
2,457500	0,1	0,112730
2,459167	0,1	0,130000
2,460833	0,1	0,170468
2,462500	0,1	0,159394
2,464167	0,1	0,159602
2,465833	0,1	0,148581
2,467500	0,1	0,125985
2,469167	0,1	0,155734
2,470833	0,1	0,144061
2,472500	0,1	0,163913
2,474167	0,1	0,139331
2,475833	0,1	0,131129
2,477500	0,1	0,168021
2,479167	0,1	0,133810
2,480833	0,1	0,134587
2,482500	0,1	0,108921
2,484167	0,1	0,140127
2,485833	0,1	0,144450
2,487500	0,1	0,148561
2,489167	0,1	0,112932
2,490833	0,1	0,104333
2,492500	0,1	0,099765
2,494167	0,1	0,127966
2,495833	0,1	0,103860
2,497500	0,1	0,121409
2,499167	0,1	0,119772
2,500833	0,1	0,135649
2,502500	0,1	0,121000
2,504167	0,1	0,102491
2,505833	0,1	0,165456
2,507500	0,1	0,106025
2,509167	0,1	0,113524
2,510833	0,1	0,074352
2,512500	0,1	0,125261
2,514167	0,1	0,110211
2,515833	0,1	0,111762
2,517500	0,1	0,103338
2,519167	0,1	0,145477
2,520833	0,1	0,098262
2,522500	0,1	0,111116
2,524167	0,1	0,105494
2,525833	0,1	0,089537
2,527500	0,1	0,105655
2,529167	0,1	0,096987
2,530833	0,1	0,150518
2,532500	0,1	0,085813
2,534167	0,1	0,099180
2,535833	0,1	0,113460
2,537500	0,1	0,094208
2,539167	0,1	0,099599
2,540833	0,1	0,101736
2,542500	0,1	0,103523
2,544167	0,1	0,114952
2,545833	0,1	0,095476
2,547500	0,1	0,129933
2,549167	0,1	0,125730
2,550833	0,1	0,123257
2,552500	0,1	0,123883
2,554167	0,1	0,116386
2,555833	0,1	0,101055
2,557500	0,1	0,141491
2,559167	0,1	0,108428
2,560833	0,1	0,119497
2,562500	0,1	0,138096
2,564167	0,1	0,060520
2,565833	0,1	0,105067
2,567500	0,1	0,115203
2,569167	0,1	0,142866
2,570833	0,1	0,116728
2,572500	0,1	0,106076
2,574167	0,1	0,089724
2,575833	0,1	0,142091
2,577500	0,1	0,155220
2,579167	0,1	0,141918
2,580833	0,1	0,148536
2,582500	0,1	0,097766
2,584167	0,1	0,109561
2,585833	0,1	0,123670
2,587500	0,1	0,152228
2,589167	0,1	0,107269
2,590833	0,1	0,104953
2,592500	0,1	0,132320
2,594167	0,1	0,112887
2,595833	0,1	0,137861
2,597500	0,1	0,096557
2,599167	0,1	0,131386
2,600833	0,1	0,126561
2,602500	0,1	0,119877
2,604167	0,1	0,142578
2,605833	0,1	0,141790
2,607500	0,1	0,124610
2,609167	0,1	0,158802
2,610833	0,1	0,108533
2,612500	0,1	0,109832
2,614167	0,1	0,123089
2,615833	0,1	0,144696
2,617500	0,1	0,140676
2,619167	0,1	0,125691
2,620833	0,1	0,139112
2,622500	0,1	0,125544
2,624167	0,1	0,109460
2,625833	0,1	0,137947
2,627500	0,1	0,126397
2,629167	0,1	0,102781
2,630833	0,1	0,125598
2,632500	0,1	0,118198
2,634167	0,1	0,148593
2,635833	0,1	0,122807
2,637500	0,1	0,141935
2,639167	0,1	0,118970
2,640833	0,1	0,131579
2,642500	0,1	0,137497
2,644167	0,1	0,146793
2,645833	0,1	0,123929
2,647500	0,1	0,149881
2,649167	0,1	0,079735
2,650833	0,1	0,140826
2,652500	0,1	0,146088
2,654167	0,1	0,070875
2,655833	0,1	0,108724
2,657500	0,1	0,109769
2,659167	0,1	0,114436
2,660833	0,1	0,156641
2,662500	0,1	0,107270
2,664167	0,1	0,168281
2,665833	0,1	0,087583
2,667500	0,1	0,128895
2,669167	0,1	0,134422
2,670833	0,1	0,130422
2,672500	0,1	0,095105
2,674167	0,1	0,157367
2,675833	0,1	0,145615
2,677500	0,1	0,158274
2,679167	0,1	0,130365
2,680833	0,1	0,132994
2,682500	0,1	0,120356
2,684167	0,1	0,098608
2,685833	0,1	0,127322
2,687500	0,1	0,111349
2,689167	0,1	0,121825
2,690833	0,1	0,114376
2,692500	0,1	0,113418
2,694167	0,1	0,155128
2,695833	0,1	0,120715
2,697500	0,1	0,092137
2,699167	0,1	0,089140
2,700833	0,1	0,118023
2,702500	0,1	0,110391
2,704167	0,1	0,155730
2,705833	0,1	0,132231
2,707500	0,1	0,083134
2,709167	0,1	0,121129
2,710833	0,1	0,073609
2,712500	0,1	0,127253
2,714167	0,1	0,101701
2,715833	0,1	0,108025
2,717500	0,1	0,105305
2,719167	0,1	0,069040
2,720833	0,1	0,104260
2,722500	0,1	0,139625
2,724167	0,1	0,125795
2,725833	0,1	0,111804
2,727500	0,1	0,109707
2,729167	0,1	0,140997
2,730833	0,1	0,119071
2,732500	0,1	0,129358
2,734167	0,1	0,113508
2,735833	0,1	0,124729
2,737500	0,1	0,107989
2,739167	0,1	0,115057
2,740833	0,1	0,121286
2,742500	0,1	0,114462
2,744167	0,1	0,095370
2,745833	0,1	0,116010
2,747500	0,1	0,123091
2,749167	0,1	0,092176
2,750833	0,1	0,151059
2,752500	0,1	0,140530
2,754167	0,1	0,131960
2,755833	0,1	0,140501
2,757500	0,1	0,124446
2,759167	0,1	0,131455
2,760833	0,1	0,106996
2,762500	0,1	0,138361
2,764167	0,1	0,149094
2,765833	0,1	0,102042
2,767500	0,1	0,104747
2,769167	0,1	0,116034
2,770833	0,1	0,161248
2,772500	0,1	0,118700
2,774167	0,1	0,118485
2,775833	0,1	0,131288
2,777500	0,1	0,122410
2,779167	0,1	0,149654
2,780833	0,1	0,140363
2,782500	0,1	0,171757
2,784167	0,1	0,137937
2,785833	0,1	0,166249
2,787500	0,1	0,150371
2,789167	0,1	0,151221
2,790833	0,1	0,122085
2,792500	0,1	0,175135
2,794167	0,1	0,166039
2,795833	0,1	0,162280
2,797500	0,1	0,180706
2,799167	0,1	0,144271
2,800833	0,1	0,174002
2,802500	0,1	0,167946
2,804167	0,1	0,194672
2,805833	0,1	0,176188
2,807500	0,1	0,167765
2,809167	0,1	0,188279
2,810833	0,1	0,158448
2,812500	0,1	0,191327
2,814167	0,1	0,188536
2,815833	0,1	0,187171
2,817500	0,1	0,187083
2,819167	0,1	0,176335
2,820833	0,1	0,188973
2,822500	0,1	0,179577
2,824167	0,1	0,215302
2,825833	0,1	0,186612
2,827500	0,1	0,178076
2,829167	0,1	0,186980
2,830833	0,1	0,171768
2,832500	0,1	0,178464
2,834167	0,1	0,235333
2,835833	0,1	0,188672
2,837500	0,1	0,143630
2,839167	0,1	0,218471
2,840833	0,1	0,163124
2,842500	0,1	0,180872
2,844167	0,1	0,205018
2,845833	0,1	0,168101
2,847500	0,1	0,204134
2,849167	0,1	0,182546
2,850833	0,1	0,197352
2,852500	0,1	0,178370
2,854167	0,1	0,187435
2,855833	0,1	0,179074
2,857500	0,1	0,177393
2,859167	0,1	0,185834
2,860833	0,1	0,173635
2,862500	0,1	0,195317
2,864167	0,1	0,162287
2,865833	0,1	0,214326
2,867500	0,1	0,189600
2,869167	0,1	0,169055
2,870833	0,1	0,165889
2,872500	0,1	0,168484
2,874167	0,1	0,170643
2,875833	0,1	0,159833
2,877500	0,1	0,138687
2,879167	0,1	0,156876
2,880833	0,1	0,171510
2,882500	0,1	0,133772
2,884167	0,1	0,147476
2,885833	0,1	0,164645
2,887500	0,1	0,170846
2,889167	0,1	0,184342
2,890833	0,1	0,168388
2,892500	0,1	0,172156
2,894167	0,1	0,130202
2,895833	0,1	0,164844
2,897500	0,1	0,151344
2,899167	0,1	0,153245
2,900833	0,1	0,146484
2,902500	0,1	0,123120
2,904167	0,1	0,136914
2,905833	0,1	0,132265
2,907500	0,1	0,139239
2,909167	0,1	0,107680
2,910833	0,1	0,159981
2,912500	0,1	0,123971
2,914167	0,1	0,103028
2,915833	0,1	0,172266
2,917500	0,1	0,160932
2,919167	0,1	0,122959
2,920833	0,1	0,110517
2,922500	0,1	0,118132
2,924167	0,1	0,103026
2,925833	0,1	0,091177
2,927500	0,1	0,131197
2,929167	0,1	0,074025
2,930833	0,1	0,084157
2,932500	0,1	0,087912
2,934167	0,1	0,099160
2,935833	0,1	0,082752
2,937500	0,1	0,119780
2,939167	0,1	0,076801
2,940833	0,1	0,113245
2,942500	0,1	0,076055
2,944167	0,1	0,057082
2,945833	0,1	0,060395
2,947500	0,1	0,103200
2,949167	0,1	0,079576
2,950833	0,1	0,107064
2,952500	0,1	0,088998
2,954167	0,1	0,070342
2,955833	0,1	0,064195
2,957500	0,1	0,090212
2,959167	0,1	0,069699
2,960833	0,1	0,027683
2,962500	0,1	0,101427
2,964167	0,1	0,098622
2,965833	0,1	0,083497
2,967500	0,1	0,050652
2,969167	0,1	0,086370
2,970833	0,1	0,058308
2,972500	0,1	0,106228
2,974167	0,1	0,076466
2,975833	0,1	0,054093
2,977500	0,1	0,073320
2,979167	0,1	0,092576
2,980833	0,1	0,074366
2,982500	0,1	0,080856
2,984167	0,1	0,076378
2,985833	0,1	0,095899
2,987500	0,1	0,113000
2,989167	0,1	0,100679
2,990833	0,1	0,089265
2,992500	0,1	0,139496
2,994167	0,1	0,130690
2,995833	0,1	0,110953
2,997500	0,1	0,119832
2,999167	0,1	0,137140
3,000833	0,1	0,166703
3,002500	0,1	0,089781
3,004167	0,1	0,117522
3,005833	0,1	0,116180
3,007500	0,1	0,098568
3,009167	0,1	0,100449
3,010833	0,1	0,098439
3,012500	0,1	0,101050
3,014167	0,1	0,122671
3,015833	0,1	0,131949
3,017500	0,1	0,103280
3,019167	0,1	0,126054
3,020833	0,1	0,116432
3,022500	0,1	0,150334
3,024167	0,1	0,137602
3,025833	0,1	0,101352
3,027500	0,1	0,149499
3,029167	0,1	0,147000
3,030833	0,1	0,135860
3,032500	0,1	0,141107
3,034167	0,1	0,119881
3,035833	0,1	0,166254
3,037500	0,1	0,133479
3,039167	0,1	0,156090
3,040833	0,1	0,155531
3,042500	0,1	0,127085
3,044167	0,1	0,154159
3,045833	0,1	0,158047
3,047500	0,1	0,143544
3,049167	0,1	0,149864
3,050833	0,1	0,175974
3,052500	0,1	0,153213
3,054167	0,1	0,131751
3,055833	0,1	0,147247
3,057500	0,1	0,195185
3,059167	0,1	0,181357
3,060833	0,1	0,160605
3,062500	0,1	0,167902
3,064167	0,1	0,180253
3,065833	0,1	0,157740
3,067500	0,1	0,154204
3,069167	0,1	0,170451
3,070833	0,1	0,168070
3,072500	0,1	0,166909
3,074167	0,1	0,169002
3,075833	0,1	0,160931
3,077500	0,1	0,149435
3,079167	0,1	0,138662
3,080833	0,1	0,156066
3,082500	0,1	0,134491
3,084167	0,1	0,198965
3,085833	0,1	0,191754
3,087500	0,1	0,188991
3,089167	0,1	0,176021
3,090833	0,1	0,162737
3,092500	0,1	0,166036
3,094167	0,1	0,108291
3,095833	0,1	0,143837
3,097500	0,1	0,133474
3,099167	0,1	0,144486
3,100833	0,1	0,135922
3,102500	0,1	0,127724
3,104167	0,1	0,137910
3,105833	0,1	0,170839
3,107500	0,1	0,139270
3,109167	0,1	0,125298
3,110833	0,1	0,118215
3,112500	0,1	0,148634
3,114167	0,1	0,126833
3,115833	0,1	0,123115
3,117500	0,1	0,165878
3,119167	0,1	0,131215
3,120833	0,1	0,139152
3,122500	0,1	0,108011
3,124167	0,1	0,134229
3,125833	0,1	0,078901
3,127500	0,1	0,076336
3,129167	0,1	0,066273
3,130833	0,1	0,159658
3,132500	0,1	0,127125
3,134167	0,1	0,139317
3,135833	0,1	0,121497
3,137500	0,1	0,146124
3,139167	0,1	0,132810
3,140833	0,1	0,104668
3,142500	0,1	0,130619
3,144167	0,1	0,097592
3,145833	0,1	0,109725
3,147500	0,1	0,135249
3,149167	0,1	0,062219
3,150833	0,1	0,138391
3,152500	0,1	0,143430
3,154167	0,1	0,054421
3,155833	0,1	0,084359
3,157500	0,1	0,107417
3,159167	0,1	0,086176
3,160833	0,1	0,141321
3,162500	0,1	0,118076
3,164167	0,1	0,076593
3,165833	0,1	0,079176
3,167500	0,1	0,101150
3,169167	0,1	0,104478
3,170833	0,1	0,091985
3,172500	0,1	0,089078
3,174167	0,1	0,100465
3,175833	0,1	0,093288
3,177500	0,1	0,051442
3,179167	0,1	0,085332
3,180833	0,1	0,084262
3,182500	0,1	0,069885
3,184167	0,1	0,090338
3,185833	0,1	0,076607
3,187500	0,1	0,088762
3,189167	0,1	0,075383
3,190833	0,1	0,063907
3,192500	0,1	0,048696
3,194167	0,1	0,038362
3,195833	0,1	0,049208
3,197500	0,1	0,049731
3,199167	0,1	0,067117
3,200833	0,1	0,045730
3,202500	0,1	0,006371
3,204167	0,1	0,050736
3,205833	0,1	0,027554
3,207500	0,1	0,091529
3,209167	0,1	0,090031
3,210833	0,1	0,068495
3,212500	0,1	0,018098
3,214167	0,1	0,028065
3,215833	0,1	0,009750
3,217500	0,1	0,021818
3,219167	0,1	0,049246
3,220833	0,1	0,015832
3,222500	0,1	0,041734
3,224167	0,1	0,056221
3,225833	0,1	0,025688
3,227500	0,1	0,063603
3,229167	0,1	0,045959
3,230833	0,1	0,029647
3,232500	0,1	0,048461
3,234167	0,1	0,045082
3,235833	0,1	0,048484
3,237500	0,1	0,010563
3,239167	0,1	0,010056
3,240833	0,1	0,057998
3,242500	0,1	0,051329
3,244167	0,1	0,053860
3,245833	0,1	0,037262
3,247500	0,1	0,039686
3,249167	0,1	0,050432
3,250833	0,1	0,016786
3,252500	0,1	0,015202
3,254167	0,1	0,040159
3,255833	0,1	0,034604
3,257500	0,1	0,042736
3,259167	0,1	-0,028897
3,260833	0,1	0,021041
3,262500	0,1	0,033562
3,264167	0,1	0,060265
3,265833	0,1	-0,024990
3,267500	0,1	0,017765
3,269167	0,1	0,022898
3,270833	0,1	0,067150
3,272500	0,1	0,009178
3,274167	0,1	0,005368
3,275833	0,1	0,026089
3,277500	0,1	0,051135
3,279167	0,1	0,019504
3,280833	0,1	0,040387
3,282500	0,1	0,011163
3,284167	0,1	0,060135
3,285833	0,1	0,035065
3,287500	0,1	0,005145
3,289167	0,1	0,033371
3,290833	0,1	0,010746
3,292500	0,1	0,053414
3,294167	0,1	0,044670
3,295833	0,1	0,007057
3,297500	0,1	-0,003325
3,299167	0,1	0,010115
3,300833	0,1	0,024785
3,302500	0,1	0,051134
3,304167	0,1	0,019358
3,305833	0,1	-0,009939
3,307500	0,1	-0,023765
3,309167	0,1	0,044589
3,310833	0,1	0,008716
3,312500	0,1	-0,008490
3,314167	0,1	0,021565
3,315833	0,1	0,011967
3,317500	0,1	-0,003262
3,319167	0,1	0,017727
3,320833	0,1	-0,012036
3,322500	0,1	0,045275
3,324167	0,1	0,013259
3,325833	0,1	-0,021600
3,327500	0,1	-0,021733
3,329167	0,1	-0,005114
3,330833	0,1	-0,010650
3,332500	0,1	0,004801
3,334167	0,1	-0,007951
3,335833	0,1	0,021938
3,337500	0,1	0,014850
3,339167	0,1	0,019641
3,340833	0,1	-0,013278
3,342500	0,1	-0,005094
3,344167	0,1	0,031856
3,345833	0,1	0,047818
3,347500	0,1	0,001538
3,349167	0,1	0,030136
3,350833	0,1	0,015371
3,352500	0,1	-0,002306
3,354167	0,1	-0,000484
3,355833	0,1	0,024534
3,357500	0,1	0,025202
3,359167	0,1	0,016428
3,360833	0,1	0,048126
3,362500	0,1	0,002805
3,364167	0,1	0,004494
3,365833	0,1	0,005367
3,367500	0,1	0,027356
3,369167	0,1	0,019644
3,370833	0,1	0,056465
3,372500	0,1	0,035500
3,374167	0,1	0,009627
3,375833	0,1	0,014828
3,377500	0,1	0,026694
3,379167	0,1	0,004521
3,380833	0,1	0,033144
3,382500	0,1	0,037777
3,384167	0,1	0,032155
3,385833	0,1	0,058751
3,387500	0,1	0,020171
3,389167	0,1	0,025265
3,390833	0,1	0,020120
3,392500	0,1	0,018251
3,394167	0,1	0,030408
3,395833	0,1	0,021345
3,397500	0,1	0,038976
3,399167	0,1	0,070724
3,400833	0,1	0,045130
3,402500	0,1	0,033256
3,404167	0,1	0,035744
3,405833	0,1	0,046946
3,407500	0,1	0,039294
3,409167	0,1	0,018215
3,410833	0,1	0,042296
3,412500	0,1	0,016184
3,414167	0,1	0,028189
3,415833	0,1	-0,010332
3,417500	0,1	-0,031853
3,419167	0,1	0,035354
3,420833	0,1	0,041325
3,422500	0,1	0,014668
3,424167	0,1	0,047108
3,425833	0,1	0,061305
3,427500	0,1	0,042202
3,429167	0,1	0,036369
3,430833	0,1	0,027259
3,432500	0,1	0,042837
3,434167	0,1	0,065891
3,435833	0,1	0,022618
3,437500	0,1	0,036218
3,439167	0,1	0,036056
3,440833	0,1	0,072465
3,442500	0,1	0,023390
3,444167	0,1	0,028106
3,445833	0,1	0,035660
3,447500	0,1	0,080058
3,449167	0,1	0,050858
3,450833	0,1	-0,003168
3,452500	0,1	0,058077
3,454167	0,1	0,013407
3,455833	0,1	0,003791
3,457500	0,1	0,021587
3,459167	0,1	0,025888
3,460833	0,1	0,006264
3,462500	0,1	0,013352
3,464167	0,1	0,033084
3,465833	0,1	0,049975
3,467500	0,1	0,041059
3,469167	0,1	0,054252
3,470833	0,1	0,009880
3,472500	0,1	0,035345
3,474167	0,1	0,017074
3,475833	0,1	0,057875
3,477500	0,1	0,050230
3,479167	0,1	0,040021
3,480833	0,1	0,041678
3,482500	0,1	0,059335
3,484167	0,1	0,042326
3,485833	0,1	0,012117
3,487500	0,1	0,037772
3,489167	0,1	0,007137
3,490833	0,1	0,054243
3,492500	0,1	0,053861
3,494167	0,1	0,048880
3,495833	0,1	0,039337
3,497500	0,1	0,061076
3,499167	0,1	0,038884
3,500833	0,1	0,065598
3,502500	0,1	0,071787
3,504167	0,1	0,029010
3,505833	0,1	0,046883
3,507500	0,1	0,040124
3,509167	0,1	0,048775
3,510833	0,1	0,091245
3,512500	0,1	0,096150
3,514167	0,1	0,011901
3,515833	0,1	0,006155
3,517500	0,1	0,054430
3,519167	0,1	0,040208
3,520833	0,1	0,070619
3,522500	0,1	0,065937
3,524167	0,1	0,070314
3,525833	0,1	0,032744
3,527500	0,1	0,103170
3,529167	0,1	0,072774
3,530833	0,1	0,048035
3,532500	0,1	0,058030
3,534167	0,1	0,022638
3,535833	0,1	0,049164
3,537500	0,1	0,087032
3,539167	0,1	0,033745
3,540833	0,1	0,013153
3,542500	0,1	0,085218
3,544167	0,1	0,041649
3,545833	0,1	0,077924
3,547500	0,1	0,044945
3,549167	0,1	0,044770
3,550833	0,1	0,045622
3,552500	0,1	0,082096
3,554167	0,1	0,044926
3,555833	0,1	0,021764
3,557500	0,1	0,003566
3,559167	0,1	0,043703
3,560833	0,1	0,044127
3,562500	0,1	0,048048
3,564167	0,1	0,083566
3,565833	0,1	0,046233
3,567500	0,1	0,042427
3,569167	0,1	0,049915
3,570833	0,1	0,038881
3,572500	0,1	0,083068
3,574167	0,1	0,028848
3,575833	0,1	0,047795
3,577500	0,1	0,034792
3,579167	0,1	0,030268
3,580833	0,1	0,026054
3,582500	0,1	0,049933
3,584167	0,1	0,027697
3,585833	0,1	0,030866
3,587500	0,1	0,070846
3,589167	0,1	0,084795
3,590833	0,1	0,031545
3,592500	0,1	0,082069
3,594167	0,1	0,036232
3,595833	0,1	-0,002489
3,597500	0,1	0,012688
3,599167	0,1	0,031527
3,600833	0,1	0,018297
3,602500	0,1	0,065511
3,604167	0,1	0,037058
3,605833	0,1	0,051304
3,607500	0,1	0,088319
3,609167	0,1	0,029181
3,610833	0,1	0,058646
3,612500	0,1	0,028593
3,614167	0,1	0,024373
3,615833	0,1	0,035991
3,617500	0,1	0,025080
3,619167	0,1	0,022692
3,620833	0,1	0,025513
3,622500	0,1	0,043460
3,624167	0,1	0,029584
3,625833	0,1	0,048647
3,627500	0,1	0,003134
3,629167	0,1	0,009120
3,630833	0,1	0,033083
3,632500	0,1	-0,028088
3,634167	0,1	0,001852
3,635833	0,1	0,040134
3,637500	0,1	0,059643
3,639167	0,1	0,021519
3,640833	0,1	0,049226
3,642500	0,1	-0,012401
3,644167	0,1	-0,006070
3,645833	0,1	0,056210
3,647500	0,1	0,043197
3,649167	0,1	0,050974
3,650833	0,1	0,081700
3,652500	0,1	0,026896
3,654167	0,1	0,043272
3,655833	0,1	0,045311
3,657500	0,1	0,040415
3,659167	0,1	0,044831
3,660833	0,1	0,033921
3,662500	0,1	0,036305
3,664167	0,1	0,051531
3,665833	0,1	0,049585
3,667500	0,1	0,069233
3,669167	0,1	0,027785
3,670833	0,1	0,041799
3,672500	0,1	0,081471
3,674167	0,1	0,034387
3,675833	0,1	0,028566
3,677500	0,1	0,082256
3,679167	0,1	0,014035
3,680833	0,1	0,049556
3,682500	0,1	0,058464
3,684167	0,1	0,005690
3,685833	0,1	0,031504
3,687500	0,1	0,063522
3,689167	0,1	0,027433
3,690833	0,1	0,039538
3,692500	0,1	0,067882
3,694167	0,1	0,072618
3,695833	0,1	0,074259
3,697500	0,1	0,079405
3,699167	0,1	0,091234
3,700833	0,1	0,045673
3,702500	0,1	0,061679
3,704167	0,1	0,100211
3,705833	0,1	0,064162
3,707500	0,1	0,091829
3,709167	0,1	0,031319
3,710833	0,1	0,122984
3,712500	0,1	0,090289
3,714167	0,1	0,101671
3,715833	0,1	0,083396
3,717500	0,1	0,088037
3,719167	0,1	0,111363
3,720833	0,1	0,083419
3,722500	0,1	0,060175
3,724167	0,1	0,105106
3,725833	0,1	0,108128
3,727500	0,1	0,104725
3,729167	0,1	0,107940
3,730833	0,1	0,107878
3,732500	0,1	0,119622
3,734167	0,1	0,063232
3,735833	0,1	0,152151
3,737500	0,1	0,160761
3,739167	0,1	0,161030
3,740833	0,1	0,144289
3,742500	0,1	0,163624
3,744167	0,1	0,189956
3,745833	0,1	0,170231
3,747500	0,1	0,188114
3,749167	0,1	0,152949
3,750833	0,1	0,146091
3,752500	0,1	0,214713
3,754167	0,1	0,185614
3,755833	0,1	0,207795
3,757500	0,1	0,206779
3,759167	0,1	0,221766
3,760833	0,1	0,238600
3,762500	0,1	0,189897
3,764167	0,1	0,234732
3,765833	0,1	0,254914
3,767500	0,1	0,237775
3,769167	0,1	0,224247
3,770833	0,1	0,220131
3,772500	0,1	0,248085
3,774167	0,1	0,245708
3,775833	0,1	0,264785
3,777500	0,1	0,269885
3,779167	0,1	0,291827
3,780833	0,1	0,251548
3,782500	0,1	0,249632
3,784167	0,1	0,296795
3,785833	0,1	0,256014
3,787500	0,1	0,253849
3,789167	0,1	0,286348
3,790833	0,1	0,331627
3,792500	0,1	0,310401
3,794167	0,1	0,313161
3,795833	0,1	0,273029
3,797500	0,1	0,314121
3,799167	0,1	0,320786
3,800833	0,1	0,345632
3,802500	0,1	0,310306
3,804167	0,1	0,335070
3,805833	0,1	0,345987
3,807500	0,1	0,319832
3,809167	0,1	0,321592
3,810833	0,1	0,349557
3,812500	0,1	0,337752
3,814167	0,1	0,340813
3,815833	0,1	0,374986
3,817500	0,1	0,355651
3,819167	0,1	0,354261
3,820833	0,1	0,365554
3,822500	0,1	0,304846
3,824167	0,1	0,346942
3,825833	0,1	0,342772
3,827500	0,1	0,399253
3,829167	0,1	0,363825
3,830833	0,1	0,364467
3,832500	0,1	0,328618
3,834167	0,1	0,369480
3,835833	0,1	0,348959
3,837500	0,1	0,330346
3,839167	0,1	0,340901
3,840833	0,1	0,324226
3,842500	0,1	0,354288
3,844167	0,1	0,350044
3,845833	0,1	0,363270
3,847500	0,1	0,345096
3,849167	0,1	0,342420
3,850833	0,1	0,348600
3,852500	0,1	0,381424
3,854167	0,1	0,331133
3,855833	0,1	0,358633
3,857500	0,1	0,330675
3,859167	0,1	0,348534
3,860833	0,1	0,336430
3,862500	0,1	0,319250
3,864167	0,1	0,321176
3,865833	0,1	0,343574
3,867500	0,1	0,364398
3,869167	0,1	0,343611
3,870833	0,1	0,340489
3,872500	0,1	0,318960
3,874167	0,1	0,299776
3,875833	0,1	0,346341
3,877500	0,1	0,292187
3,879167	0,1	0,337386
3,880833	0,1	0,325105
3,882500	0,1	0,339133
3,884167	0,1	0,326491
3,885833	0,1	0,329544
3,887500	0,1	0,306242
3,889167	0,1	0,288808
3,890833	0,1	0,291466
3,892500	0,1	0,263861
3,894167	0,1	0,283703
3,895833	0,1	0,302994
3,897500	0,1	0,292151
3,899167	0,1	0,285486
3,900833	0,1	0,258814
3,902500	0,1	0,279018
3,904167	0,1	0,283517
3,905833	0,1	0,264514
3,907500	0,1	0,253144
3,909167	0,1	0,260989
3,910833	0,1	0,270552
3,912500	0,1	0,278631
3,914167	0,1	0,226274
3,915833	0,1	0,243974
3,917500	0,1	0,229811
3,919167	0,1	0,266005
3,920833	0,1	0,229086
3,922500	0,1	0,259633
3,924167	0,1	0,175812
3,925833	0,1	0,282304
3,927500	0,1	0,235157
3,929167	0,1	0,248380
3,930833	0,1	0,234355
3,932500	0,1	0,183008
3,934167	0,1	0,197186
3,935833	0,1	0,218420
3,937500	0,1	0,211955
3,939167	0,1	0,198695
3,940833	0,1	0,231000
3,942500	0,1	0,194650
3,944167	0,1	0,201718
3,945833	0,1	0,182874
3,947500	0,1	0,178264
3,949167	0,1	0,176018
3,950833	0,1	0,205070
3,952500	0,1	0,156107
3,954167	0,1	0,188613
3,955833	0,1	0,189202
3,957500	0,1	0,217901
3,959167	0,1	0,167602
3,960833	0,1	0,175272
3,962500	0,1	0,145101
3,964167	0,1	0,157998
3,965833	0,1	0,154166
3,967500	0,1	0,134098
3,969167	0,1	0,183273
3,970833	0,1	0,155349
3,972500	0,1	0,126167
3,974167	0,1	0,157287
3,975833	0,1	0,153601
3,977500	0,1	0,121397
3,979167	0,1	0,116699
3,980833	0,1	0,162039
3,982500	0,1	0,147333
3,984167	0,1	0,159473
3,985833	0,1	0,161092
3,987500	0,1	0,098659
3,989167	0,1	0,131220
3,990833	0,1	0,149695
3,992500	0,1	0,138663
3,994167	0,1	0,117951
3,995833	0,1	0,146475
3,997500	0,1	0,139013
3,999167	0,1	0,112805
4,000833	0,1	0,114540
4,002500	0,1	0,137447
4,004167	0,1	0,141609
4,005833	0,1	0,137350
4,007500	0,1	0,126910
4,009167	0,1	0,143364
4,010833	0,1	0,139367
4,012500	0,1	0,152561
4,014167	0,1	0,108556
4,015833	0,1	0,146388
4,017500	0,1	0,124611
4,019167	0,1	0,141826
4,020833	0,1	0,126564
4,022500	0,1	0,106119
4,024167	0,1	0,107258
4,025833	0,1	0,121802
4,027500	0,1	0,129775
4,029167	0,1	0,104712
4,030833	0,1	0,117362
4,032500	0,1	0,120706
4,034167	0,1	0,113277
4,035833	0,1	0,109582
4,037500	0,1	0,177266
4,039167	0,1	0,157779
4,040833	0,1	0,136421
4,042500	0,1	0,118694
4,044167	0,1	0,143133
4,045833	0,1	0,171155
4,047500	0,1	0,135222
4,049167	0,1	0,177335
4,050833	0,1	0,155040
4,052500	0,1	0,136671
4,054167	0,1	0,165967
4,055833	0,1	0,124474
4,057500	0,1	0,164451
4,059167	0,1	0,177907
4,060833	0,1	0,205360
4,062500	0,1	0,197672
4,064167	0,1	0,198791
4,065833	0,1	0,211118
4,067500	0,1	0,211890
4,069167	0,1	0,257067
4,070833	0,1	0,256470
4,072500	0,1	0,227884
4,074167	0,1	0,190889
4,075833	0,1	0,263141
4,077500	0,1	0,236743
4,079167	0,1	0,240786
4,080833	0,1	0,287569
4,082500	0,1	0,300675
4,084167	0,1	0,308853
4,085833	0,1	0,288672
4,087500	0,1	0,302859
4,089167	0,1	0,320373
4,090833	0,1	0,310136
4,092500	0,1	0,296068
4,094167	0,1	0,321460
4,095833	0,1	0,321558
4,097500	0,1	0,342668
4,099167	0,1	0,323393
4,100833	0,1	0,394319
4,102500	0,1	0,338732
4,104167	0,1	0,374916
4,105833	0,1	0,423040
4,107500	0,1	0,388197
4,109167	0,1	0,443353
4,110833	0,1	0,416071
4,112500	0,1	0,430450
4,114167	0,1	0,436602
4,115833	0,1	0,439310
4,117500	0,1	0,479701
4,119167	0,1	0,485797
4,120833	0,1	0,464456
4,122500	0,1	0,493163
4,124167	0,1	0,482740
4,125833	0,1	0,596087
4,127500	0,1	0,510512
4,129167	0,1	0,552535
4,130833	0,1	0,555862
4,132500	0,1	0,569930
4,134167	0,1	0,555510
4,135833	0,1	0,595496
4,137500	0,1	0,564983
4,139167	0,1	0,601035
4,140833	0,1	0,581919
4,142500	0,1	0,610539
4,144167	0,1	0,642066
4,145833	0,1	0,672603
4,147500	0,1	0,653283
4,149167	0,1	0,647070
4,150833	0,1	0,666098
4,152500	0,1	0,671385
4,154167	0,1	0,732083
4,155833	0,1	0,680904
4,157500	0,1	0,718372
4,159167	0,1	0,754005
4,160833	0,1	0,687638
4,162500	0,1	0,746556
4,164167	0,1	0,705832
4,165833	0,1	0,763141
4,167500	0,1	0,771631
4,169167	0,1	0,819531
4,170833	0,1	0,747755
4,172500	0,1	0,792887
4,174167	0,1	0,809832
4,175833	0,1	0,774929
4,177500	0,1	0,782942
4,179167	0,1	0,757212
4,180833	0,1	0,792310
4,182500	0,1	0,828778
4,184167	0,1	0,806726
4,185833	0,1	0,788391
4,187500	0,1	0,822019
4,189167	0,1	0,835294
4,190833	0,1	0,832314
4,192500	0,1	0,789751
4,194167	0,1	0,848370
4,195833	0,1	0,843544
4,197500	0,1	0,891382
4,199167	0,1	0,846776
4,200833	0,1	0,866202
4,202500	0,1	0,858790
4,204167	0,1	0,852792
4,205833	0,1	0,823192
4,207500	0,1	0,844249
4,209167	0,1	0,883204
4,210833	0,1	0,889812
4,212500	0,1	0,840728
4,214167	0,1	0,866225
4,215833	0,1	0,879987
4,217500	0,1	0,855901
4,219167	0,1	0,868030
4,220833	0,1	0,863747
4,222500	0,1	0,846115
4,224167	0,1	0,853735
4,225833	0,1	0,861035
4,227500	0,1	0,840696
4,229167	0,1	0,840033
4,230833	0,1	0,848448
4,232500	0,1	0,881287
4,234167	0,1	0,861922
4,235833	0,1	0,830031
4,237500	0,1	0,798072
4,239167	0,1	0,838932
4,240833	0,1	0,861939
4,242500	0,1	0,832189
4,244167	0,1	0,867802
4,245833	0,1	0,845194
4,247500	0,1	0,855183
4,249167	0,1	0,868899
4,250833	0,1	0,847627
4,252500	0,1	0,854341
4,254167	0,1	0,832278
4,255833	0,1	0,808882
4,257500	0,1	0,831979
4,259167	0,1	0,791040
4,260833	0,1	0,841664
4,262500	0,1	0,828409
4,264167	0,1	0,811339
4,265833	0,1	0,822184
4,267500	0,1	0,789908
4,269167	0,1	0,795014
4,270833	0,1	0,810030
4,272500	0,1	0,827456
4,274167	0,1	0,825118
4,275833	0,1	0,802318
4,277500	0,1	0,792415
4,279167	0,1	0,806019
4,280833	0,1	0,790968
4,282500	0,1	0,801485
4,284167	0,1	0,766749
4,285833	0,1	0,785870
4,287500	0,1	0,746422
4,289167	0,1	0,741250
4,290833	0,1	0,756653
4,292500	0,1	0,774890
4,294167	0,1	0,744991
4,295833	0,1	0,715268
4,297500	0,1	0,736743
4,299167	0,1	0,726534
4,300833	0,1	0,767469
4,302500	0,1	0,744102
4,304167	0,1	0,753524
4,305833	0,1	0,727378
4,307500	0,1	0,760083
4,309167	0,1	0,730760
4,310833	0,1	0,724992
4,312500	0,1	0,750786
4,314167	0,1	0,720330
4,315833	0,1	0,723627
4,317500	0,1	0,726017
4,319167	0,1	0,730526
4,320833	0,1	0,687054
4,322500	0,1	0,757048
4,324167	0,1	0,714974
4,325833	0,1	0,713423
4,327500	0,1	0,707718
4,329167	0,1	0,661220
4,330833	0,1	0,688225
4,332500	0,1	0,690713
4,334167	0,1	0,713474
4,335833	0,1	0,657713
4,337500	0,1	0,670516
4,339167	0,1	0,666395
4,340833	0,1	0,736787
4,342500	0,1	0,716228
4,344167	0,1	0,719147
4,345833	0,1	0,693557
4,347500	0,1	0,648173
4,349167	0,1	0,636154
4,350833	0,1	0,669860
4,352500	0,1	0,625790
4,354167	0,1	0,651345
4,355833	0,1	0,637952
4,357500	0,1	0,633381
4,359167	0,1	0,631383
4,360833	0,1	0,664193
4,362500	0,1	0,618830
4,364167	0,1	0,618759
4,365833	0,1	0,624939
4,367500	0,1	0,661485
4,369167	0,1	0,588309
4,370833	0,1	0,635587
4,372500	0,1	0,642108
4,374167	0,1	0,582056
4,375833	0,1	0,588351
4,377500	0,1	0,601879
4,379167	0,1	0,570973
4,380833	0,1	0,644178
4,382500	0,1	0,608457
4,384167	0,1	0,593059
4,385833	0,1	0,598692
4,387500	0,1	0,608162
4,389167	0,1	0,567852
4,390833	0,1	0,572317
4,392500	0,1	0,596076
4,394167	0,1	0,580019
4,395833	0,1	0,545404
4,397500	0,1	0,582132
4,399167	0,1	0,567590
4,400833	0,1	0,564267
4,402500	0,1	0,550263
4,404167	0,1	0,537543
4,405833	0,1	0,579582
4,407500	0,1	0,532528
4,409167	0,1	0,522988
4,410833	0,1	0,552249
4,412500	0,1	0,569189
4,414167	0,1	0,536904
4,415833	0,1	0,534225
4,417500	0,1	0,525628
4,419167	0,1	0,544266
4,420833	0,1	0,501680
4,422500	0,1	0,480007
4,424167	0,1	0,524263
4,425833	0,1	0,541497
4,427500	0,1	0,485810
4,429167	0,1	0,488532
4,430833	0,1	0,483384
4,432500	0,1	0,479454
4,434167	0,1	0,472244
4,435833	0,1	0,498799
4,437500	0,1	0,515480
4,439167	0,1	0,437036
4,440833	0,1	0,437827
4,442500	0,1	0,445360
4,444167	0,1	0,455661
4,445833	0,1	0,474749
4,447500	0,1	0,456729
4,449167	0,1	0,445428
4,450833	0,1	0,439341
4,452500	0,1	0,411209
4,454167	0,1	0,436306
4,455833	0,1	0,434996
4,457500	0,1	0,405739
4,459167	0,1	0,428325
4,460833	0,1	0,403774
4,462500	0,1	0,434153
4,464167	0,1	0,434061
4,465833	0,1	0,388361
4,467500	0,1	0,386611
4,469167	0,1	0,363540
4,470833	0,1	0,334601
4,472500	0,1	0,371731
4,474167	0,1	0,371770
4,475833	0,1	0,399676
4,477500	0,1	0,349348
4,479167	0,1	0,412671
4,480833	0,1	0,400169
4,482500	0,1	0,346811
4,484167	0,1	0,339393
4,485833	0,1	0,333308
4,487500	0,1	0,348307
4,489167	0,1	0,330164
4,490833	0,1	0,312496
4,492500	0,1	0,380863
4,494167	0,1	0,358588
4,495833	0,1	0,315140
4,497500	0,1	0,363077
4,499167	0,1	0,291874
4,500833	0,1	0,277992
4,502500	0,1	0,311739
4,504167	0,1	0,326903
4,505833	0,1	0,307927
4,507500	0,1	0,304895
4,509167	0,1	0,302765
4,510833	0,1	0,263322
4,512500	0,1	0,337993
4,514167	0,1	0,309759
4,515833	0,1	0,262136
4,517500	0,1	0,258907
4,519167	0,1	0,268005
4,520833	0,1	0,288799
4,522500	0,1	0,257299
4,524167	0,1	0,259802
4,525833	0,1	0,263892
4,527500	0,1	0,242885
4,529167	0,1	0,270094
4,530833	0,1	0,259907
4,532500	0,1	0,251477
4,534167	0,1	0,244232
4,535833	0,1	0,278571
4,537500	0,1	0,283780
4,539167	0,1	0,208173
4,540833	0,1	0,221666
4,542500	0,1	0,226956
4,544167	0,1	0,238057
4,545833	0,1	0,218228
4,547500	0,1	0,226979
4,549167	0,1	0,225544
4,550833	0,1	0,182033
4,552500	0,1	0,233088
4,554167	0,1	0,243458
4,555833	0,1	0,208618
4,557500	0,1	0,219358
4,559167	0,1	0,178461
4,560833	0,1	0,200528
4,562500	0,1	0,178811
4,564167	0,1	0,190777
4,565833	0,1	0,213398
4,567500	0,1	0,190723
4,569167	0,1	0,158966
4,570833	0,1	0,137024
4,572500	0,1	0,193567
4,574167	0,1	0,162246
4,575833	0,1	0,173175
4,577500	0,1	0,178176
4,579167	0,1	0,178920
4,580833	0,1	0,172058
4,582500	0,1	0,166470
4,584167	0,1	0,212888
4,585833	0,1	0,133469
4,587500	0,1	0,160239
4,589167	0,1	0,147922
4,590833	0,1	0,175079
4,592500	0,1	0,143250
4,594167	0,1	0,131623
4,595833	0,1	0,152142
4,597500	0,1	0,165367
4,599167	0,1	0,164232
4,600833	0,1	0,155784
4,602500	0,1	0,116912
4,604167	0,1	0,163922
4,605833	0,1	0,144660
4,607500	0,1	0,154452
4,609167	0,1	0,149019
4,610833	0,1	0,099675
4,612500	0,1	0,117030
4,614167	0,1	0,104852
4,615833	0,1	0,129559
4,617500	0,1	0,104086
4,619167	0,1	0,117031
4,620833	0,1	0,159067
4,622500	0,1	0,138084
4,624167	0,1	0,155690
4,625833	0,1	0,102267
4,627500	0,1	0,132486
4,629167	0,1	0,119236
4,630833	0,1	0,158095
4,632500	0,1	0,102369
4,634167	0,1	0,126012
4,635833	0,1	0,125541
4,637500	0,1	0,110911
4,639167	0,1	0,087963
4,640833	0,1	0,119743
4,642500	0,1	0,102384
4,644167	0,1	0,085450
4,645833	0,1	0,085384
4,647500	0,1	0,072497
4,649167	0,1	0,050400
4,650833	0,1	0,112989
4,652500	0,1	0,150374
4,654167	0,1	0,030191
4,655833	0,1	0,089144
4,657500	0,1	0,075340
4,659167	0,1	0,101063
4,660833	0,1	0,080737
4,662500	0,1	0,093369
4,664167	0,1	0,098495
4,665833	0,1	0,119745
4,667500	0,1	0,116823
4,669167	0,1	0,115059
4,670833	0,1	0,101802
4,672500	0,1	0,098002
4,674167	0,1	0,052500
4,675833	0,1	0,115851
4,677500	0,1	0,058874
4,679167	0,1	0,076248
4,680833	0,1	0,091895
4,682500	0,1	0,102833
4,684167	0,1	0,105554
4,685833	0,1	0,064994
4,687500	0,1	0,078986
4,689167	0,1	0,036729
4,690833	0,1	0,045017
4,692500	0,1	0,062489
4,694167	0,1	0,085335
4,695833	0,1	0,075257
4,697500	0,1	0,079031
4,699167	0,1	0,069447
4,700833	0,1	0,083615
4,702500	0,1	0,071023
4,704167	0,1	0,083159
4,705833	0,1	0,062747
4,707500	0,1	0,078405
4,709167	0,1	0,067101
4,710833	0,1	0,031043
4,712500	0,1	0,070742
4,714167	0,1	0,035690
4,715833	0,1	0,096470
4,717500	0,1	0,067958
4,719167	0,1	0,059505
4,720833	0,1	0,071018
4,722500	0,1	0,082371
4,724167	0,1	0,096729
4,725833	0,1	0,069513
4,727500	0,1	0,078717
4,729167	0,1	0,068741
4,730833	0,1	0,043512
4,732500	0,1	0,028838
4,734167	0,1	0,093128
4,735833	0,1	0,081834
4,737500	0,1	0,029885
4,739167	0,1	0,043191
4,740833	0,1	0,033942
4,742500	0,1	0,028193
4,744167	0,1	0,050554
4,745833	0,1	0,071993
4,747500	0,1	0,049341
4,749167	0,1	0,058299
4,750833	0,1	0,042078
4,752500	0,1	0,081783
4,754167	0,1	0,057933
4,755833	0,1	0,089049
4,757500	0,1	0,049739
4,759167	0,1	0,098940
4,760833	0,1	0,009745
4,762500	0,1	0,029349
4,764167	0,1	0,074869
4,765833	0,1	0,086561
4,767500	0,1	0,047145
4,769167	0,1	0,058817
4,770833	0,1	0,032908
4,772500	0,1	0,042549
4,774167	0,1	0,046908
4,775833	0,1	0,072074
4,777500	0,1	0,060336
4,779167	0,1	0,050624
4,780833	0,1	0,068091
4,782500	0,1	0,063364
4,784167	0,1	0,074588
4,785833	0,1	0,058076
4,787500	0,1	0,065002
4,789167	0,1	0,052141
4,790833	0,1	0,047449
4,792500	0,1	0,037407
4,794167	0,1	0,040621
4,795833	0,1	0,051430
4,797500	0,1	0,086931
4,799167	0,1	0,049574
4,800833	0,1	0,044004
4,802500	0,1	0,064418
4,804167	0,1	0,055957
4,805833	0,1	0,045084
4,807500	0,1	0,038361
4,809167	0,1	0,017904
4,810833	0,1	0,047855
4,812500	0,1	0,062489
4,814167	0,1	0,068177
4,815833	0,1	0,095171
4,817500	0,1	0,022917
4,819167	0,1	0,063665
4,820833	0,1	0,064298
4,822500	0,1	0,043117
4,824167	0,1	0,086160
4,825833	0,1	0,057705
4,827500	0,1	0,014756
4,829167	0,1	0,047358
4,830833	0,1	0,060475
4,832500	0,1	0,058798
4,834167	0,1	0,054069
4,835833	0,1	0,039876
4,837500	0,1	0,081759
4,839167	0,1	0,077165
4,840833	0,1	0,067891
4,842500	0,1	0,050462
4,844167	0,1	0,065456
4,845833	0,1	0,061808
4,847500	0,1	-0,001259
4,849167	0,1	0,056460
4,850833	0,1	0,054712
4,852500	0,1	0,066225
4,854167	0,1	0,036395
4,855833	0,1	0,053026
4,857500	0,1	0,047282
4,859167	0,1	0,041536
4,860833	0,1	0,040933
4,862500	0,1	0,021909
4,864167	0,1	0,058106
4,865833	0,1	0,062906
4,867500	0,1	0,022868
4,869167	0,1	0,041322
4,870833	0,1	0,043962
4,872500	0,1	0,088733
4,874167	0,1	0,050506
4,875833	0,1	0,089896
4,877500	0,1	0,060052
4,879167	0,1	0,060688
4,880833	0,1	0,016748
4,882500	0,1	0,039786
4,884167	0,1	0,040952
4,885833	0,1	0,049209
4,887500	0,1	0,051619
4,889167	0,1	0,066389
4,890833	0,1	0,041665
4,892500	0,1	0,082114
4,894167	0,1	0,078970
4,895833	0,1	0,053224
4,897500	0,1	0,061411
4,899167	0,1	0,036663
4,900833	0,1	0,022987
4,902500	0,1	0,048105
4,904167	0,1	0,094106
4,905833	0,1	0,068516
4,907500	0,1	0,038450
4,909167	0,1	0,015497
4,910833	0,1	0,050947
4,912500	0,1	0,044896
4,914167	0,1	0,016328
4,915833	0,1	-0,003468
4,917500	0,1	0,065630
4,919167	0,1	0,040916
4,920833	0,1	0,032634
4,922500	0,1	0,090637
4,924167	0,1	0,028082
4,925833	0,1	0,055348
4,927500	0,1	0,043030
4,929167	0,1	0,049728
4,930833	0,1	0,046723
4,932500	0,1	0,046349
4,934167	0,1	0,033092
4,935833	0,1	0,070056
4,937500	0,1	0,048408
4,939167	0,1	0,030914
4,940833	0,1	0,012342
4,942500	0,1	0,036589
4,944167	0,1	0,081615
4,945833	0,1	0,027664
4,947500	0,1	0,049143
4,949167	0,1	0,054772
4,950833	0,1	0,026228
4,952500	0,1	0,040451
4,954167	0,1	0,073546
4,955833	0,1	0,023409
4,957500	0,1	0,076092
4,959167	0,1	0,017954
4,960833	0,1	0,046134
4,962500	0,1	0,030582
4,964167	0,1	0,044518
4,965833	0,1	0,041722
4,967500	0,1	0,005438
4,969167	0,1	0,044617
4,970833	0,1	0,027428
4,972500	0,1	0,042734
4,974167	0,1	0,038919
4,975833	0,1	0,053067
4,977500	0,1	0,079731
4,979167	0,1	0,024199
4,980833	0,1	0,064889
4,982500	0,1	0,026892
4,984167	0,1	0,055741
4,985833	0,1	0,017265
4,987500	0,1	0,056507
4,989167	0,1	-0,007939
4,990833	0,1	0,040069
4,992500	0,1	0,032779
4,994167	0,1	0,033732
4,995833	0,1	0,028152
4,997500	0,1	-0,001887
4,999167	0,1	0,086106
5,000833	0,1	0,051523
5,002500	0,1	0,005335
5,004167	0,1	0,023809
5,005833	0,1	0,025285
5,007500	0,1	0,005204
5,009167	0,1	0,043455
5,010833	0,1	0,026825
5,012500	0,1	0,017756
5,014167	0,1	0,013606
5,015833	0,1	0,034535
5,017500	0,1	0,034997
5,019167	0,1	0,072173
5,020833	0,1	0,052038
5,022500	0,1	-0,002090
5,024167	0,1	0,029346
5,025833	0,1	0,032507
5,027500	0,1	0,030162
5,029167	0,1	0,012571
5,030833	0,1	-0,002848
5,032500	0,1	0,013725
5,034167	0,1	0,052191
5,035833	0,1	-0,027293
5,037500	0,1	0,020545
5,039167	0,1	0,054329
5,040833	0,1	0,026808
5,042500	0,1	0,043417
5,044167	0,1	0,024877
5,045833	0,1	0,022962
5,047500	0,1	0,006698
5,049167	0,1	0,050841
5,050833	0,1	0,044981
5,052500	0,1	0,038671
5,054167	0,1	0,037114
5,055833	0,1	0,024481
5,057500	0,1	-0,011182
5,059167	0,1	0,024863
5,060833	0,1	0,010476
5,062500	0,1	0,055426
5,064167	0,1	-0,003977
5,065833	0,1	0,028081
5,067500	0,1	-0,011990
5,069167	0,1	0,035920
5,070833	0,1	0,022073
5,072500	0,1	0,016925
5,074167	0,1	0,020161
5,075833	0,1	0,030264
5,077500	0,1	0,020372
5,079167	0,1	0,052898
5,080833	0,1	-0,002857
5,082500	0,1	0,018329
5,084167	0,1	0,006821
5,085833	0,1	0,046858
5,087500	0,1	0,006372
5,089167	0,1	0,061193
5,090833	0,1	0,018242
5,092500	0,1	0,021115
5,094167	0,1	0,047691
5,095833	0,1	0,019503
5,097500	0,1	0,022961
5,099167	0,1	-0,013525
5,100833	0,1	0,025982
5,102500	0,1	0,007404
5,104167	0,1	0,023001
5,105833	0,1	0,019103
5,107500	0,1	0,027235
5,109167	0,1	0,027215
5,110833	0,1	-0,015701
5,112500	0,1	0,037081
5,114167	0,1	-0,007091
5,115833	0,1	0,007458
5,117500	0,1	0,056504
5,119167	0,1	0,042243
5,120833	0,1	0,013447
5,122500	0,1	-0,010893
5,124167	0,1	0,023826
5,125833	0,1	0,014313
5,127500	0,1	-0,009713
5,129167	0,1	0,018890
5,130833	0,1	-0,011845
5,132500	0,1	0,026376
5,134167	0,1	0,007134
5,135833	0,1	-0,011538
5,137500	0,1	-0,048486
5,139167	0,1	0,024792
5,140833	0,1	0,029892
5,142500	0,1	0,050305
5,144167	0,1	-0,000534
5,145833	0,1	0,015552
5,147500	0,1	-0,006205
5,149167	0,1	0,044820
5,150833	0,1	-0,007776
5,152500	0,1	0,041563
5,154167	0,1	0,019918
5,155833	0,1	0,023896
5,157500	0,1	0,004792
5,159167	0,1	0,032252
5,160833	0,1	0,030183
5,162500	0,1	-0,016844
5,164167	0,1	0,034093
5,165833	0,1	0,001619
5,167500	0,1	0,022564
5,169167	0,1	-0,018527
5,170833	0,1	0,033781
5,172500	0,1	-0,018316
5,174167	0,1	0,033616
5,175833	0,1	0,026534
5,177500	0,1	0,019458
5,179167	0,1	-0,013340
5,180833	0,1	0,000840
5,182500	0,1	0,009119
5,184167	0,1	-0,000254
5,185833	0,1	0,025509
5,187500	0,1	0,044392
5,189167	0,1	0,031991
5,190833	0,1	0,007241
5,192500	0,1	-0,043585
5,194167	0,1	-0,016281
5,195833	0,1	-0,010301
5,197500	0,1	0,009098
5,199167	0,1	0,017027
5,200833	0,1	-0,004733
5,202500	0,1	0,039863
5,204167	0,1	0,005665
5,205833	0,1	0,011963
5,207500	0,1	-0,004112
5,209167	0,1	0,000801
5,210833	0,1	0,001508
5,212500	0,1	0,015115
5,214167	0,1	-0,012303
5,215833	0,1	0,013639
5,217500	0,1	0,007817
5,219167	0,1	-0,018051
5,220833	0,1	0,025089
5,222500	0,1	0,006410
5,224167	0,1	0,003647
5,225833	0,1	0,102892
5,227500	0,1	-0,015936
5,229167	0,1	-0,002438
5,230833	0,1	0,005303
5,232500	0,1	-0,013635
5,234167	0,1	0,012064
5,235833	0,1	0,018957
5,237500	0,1	0,039475
5,239167	0,1	0,002596
5,240833	0,1	0,003021
5,242500	0,1	0,017669
5,244167	0,1	-0,012178
5,245833	0,1	0,003514
5,247500	0,1	0,020490
5,249167	0,1	-0,001391
5,250833	0,1	-0,030769
5,252500	0,1	-0,028038
5,254167	0,1	-0,022003
5,255833	0,1	0,005050
5,257500	0,1	-0,003512
5,259167	0,1	-0,012537
5,260833	0,1	0,005447
5,262500	0,1	-0,000026
5,264167	0,1	-0,008510
5,265833	0,1	-0,006064
5,267500	0,1	0,007831
5,269167	0,1	-0,002765
5,270833	0,1	-0,009611
5,272500	0,1	-0,038531
5,274167	0,1	0,017907
5,275833	0,1	-0,048125
5,277500	0,1	-0,010575
5,279167	0,1	-0,034048
5,280833	0,1	-0,006114
5,282500	0,1	0,020777
5,284167	0,1	-0,023920
5,285833	0,1	0,019384
5,287500	0,1	-0,000438
5,289167	0,1	0,000510
5,290833	0,1	-0,021229
5,292500	0,1	-0,027558
5,294167	0,1	0,011750
5,295833	0,1	-0,032862
5,297500	0,1	-0,011028
5,299167	0,1	-0,020916
5,300833	0,1	-0,049007
5,302500	0,1	-0,022793
5,304167	0,1	0,013823
5,305833	0,1	-0,009442
5,307500	0,1	0,007107
5,309167	0,1	0,014517
5,310833	0,1	-0,011412
5,312500	0,1	-0,035564
5,314167	0,1	-0,028910
5,315833	0,1	0,000090
5,317500	0,1	-0,002537
5,319167	0,1	-0,018076
5,320833	0,1	-0,011854
5,322500	0,1	-0,013596
5,324167	0,1	-0,019902
5,325833	0,1	-0,038032
5,327500	0,1	-0,046501
5,329167	0,1	0,012450
5,330833	0,1	-0,027736
5,332500	0,1	-0,007626
5,334167	0,1	-0,005359
5,335833	0,1	-0,024507
5,337500	0,1	0,019778
5,339167	0,1	-0,028917
5,340833	0,1	0,009364
5,342500	0,1	0,005452
5,344167	0,1	-0,029667
5,345833	0,1	-0,043116
5,347500	0,1	-0,032356
5,349167	0,1	0,021662
5,350833	0,1	-0,052311
5,352500	0,1	-0,055506
5,354167	0,1	-0,010910
5,355833	0,1	-0,039068
5,357500	0,1	0,002993
5,359167	0,1	-0,027095
5,360833	0,1	-0,020696
5,362500	0,1	-0,023349
5,364167	0,1	-0,036375
5,365833	0,1	-0,020261
5,367500	0,1	-0,045582
5,369167	0,1	-0,009061
5,370833	0,1	-0,016748
5,372500	0,1	-0,002998
5,374167	0,1	0,001277
5,375833	0,1	0,005469
5,377500	0,1	-0,011995
5,379167	0,1	-0,012477
5,380833	0,1	-0,007705
5,382500	0,1	-0,011562
5,384167	0,1	-0,012766
5,385833	0,1	-0,057549
5,387500	0,1	-0,069406
5,389167	0,1	0,002218
5,390833	0,1	-0,046306
5,392500	0,1	-0,013209
5,394167	0,1	-0,014905
5,395833	0,1	-0,011419
5,397500	0,1	0,030132
5,399167	0,1	-0,018254
5,400833	0,1	-0,011459
5,402500	0,1	-0,039484
5,404167	0,1	-0,017109
5,405833	0,1	-0,031436
5,407500	0,1	-0,061041
5,409167	0,1	0,020515
5,410833	0,1	-0,043500
5,412500	0,1	-0,011798
5,414167	0,1	-0,042451
5,415833	0,1	-0,028684
5,417500	0,1	-0,042163
5,419167	0,1	-0,099805
5,420833	0,1	-0,012269
5,422500	0,1	-0,010881
5,424167	0,1	-0,061716
5,425833	0,1	-0,024645
5,427500	0,1	-0,050250
5,429167	0,1	-0,016988
5,430833	0,1	-0,036146
5,432500	0,1	-0,001384
5,434167	0,1	-0,008036
5,435833	0,1	-0,038610
5,437500	0,1	-0,031397
5,439167	0,1	-0,014762
5,440833	0,1	-0,024775
5,442500	0,1	-0,039009
5,444167	0,1	-0,043551
5,445833	0,1	-0,020573
5,447500	0,1	-0,012002
5,449167	0,1	-0,012310
5,450833	0,1	0,002064
5,452500	0,1	-0,022700
5,454167	0,1	-0,024987
5,455833	0,1	-0,015985
5,457500	0,1	-0,010092
5,459167	0,1	-0,031723
5,460833	0,1	-0,051747
5,462500	0,1	-0,030058
5,464167	0,1	-0,049009
5,465833	0,1	-0,019911
5,467500	0,1	0,001401
5,469167	0,1	-0,029482
5,470833	0,1	-0,016921
5,472500	0,1	-0,013037
5,474167	0,1	-0,029653
5,475833	0,1	-0,021587
5,477500	0,1	0,003826
5,479167	0,1	-0,010939
5,480833	0,1	-0,011315
5,482500	0,1	-0,024984
5,484167	0,1	-0,008374
5,485833	0,1	-0,034752
5,487500	0,1	-0,007795
5,489167	0,1	-0,016376
5,490833	0,1	-0,025610
5,492500	0,1	-0,035134
5,494167	0,1	-0,023933
5,495833	0,1	-0,013208
5,497500	0,1	0,018327
5,499167	0,1	-0,025434
5,500833	0,1	-0,007625
5,502500	0,1	0,017520
5,504167	0,1	-0,005335
5,505833	0,1	-0,025935
5,507500	0,1	-0,011652
5,509167	0,1	-0,033615
5,510833	0,1	-0,008062
5,512500	0,1	-0,038445
5,514167	0,1	0,000315
5,515833	0,1	-0,005068
5,517500	0,1	-0,016520
5,519167	0,1	-0,011544
5,520833	0,1	0,021418
5,522500	0,1	0,019373
5,524167	0,1	-0,004980
5,525833	0,1	-0,003762
5,527500	0,1	-0,014985
5,529167	0,1	-0,004886
5,530833	0,1	0,009202
5,532500	0,1	-0,041635
5,534167	0,1	-0,019163
5,535833	0,1	-0,025048
5,537500	0,1	-0,008103
5,539167	0,1	-0,009883
5,540833	0,1	0,023391
5,542500	0,1	-0,050740
5,544167	0,1	0,004627
5,545833	0,1	-0,002704
5,547500	0,1	-0,016622
5,549167	0,1	-0,012935
5,550833	0,1	-0,006876
5,552500	0,1	0,003516
5,554167	0,1	-0,017969
5,555833	0,1	-0,013641
5,557500	0,1	0,015341
5,559167	0,1	-0,020249
5,560833	0,1	-0,032313
5,562500	0,1	-0,019016
5,564167	0,1	-0,055021
5,565833	0,1	-0,002842
5,567500	0,1	0,001112
5,569167	0,1	-0,005690
5,570833	0,1	-0,029360
5,572500	0,1	-0,016735
5,574167	0,1	-0,025714
5,575833	0,1	-0,017044
5,577500	0,1	-0,009844
5,579167	0,1	0,006007
5,580833	0,1	-0,007910
5,582500	0,1	-0,008969
5,584167	0,1	-0,017329
5,585833	0,1	-0,020838
5,587500	0,1	0,017806
5,589167	0,1	-0,001579
5,590833	0,1	-0,039833
5,592500	0,1	0,014857
5,594167	0,1	-0,001123
5,595833	0,1	-0,000443
5,597500	0,1	0,021837
5,599167	0,1	-0,020746
5,600833	0,1	-0,020219
5,602500	0,1	0,018036
5,604167	0,1	0,038811
5,605833	0,1	0,022384
5,607500	0,1	-0,008900
5,609167	0,1	-0,029880
5,610833	0,1	-0,021879
5,612500	0,1	0,026809
5,614167	0,1	-0,025556
5,615833	0,1	0,003720
5,617500	0,1	0,017918
5,619167	0,1	0,009042
5,620833	0,1	0,001634
5,622500	0,1	0,007482
5,624167	0,1	0,021277
5,625833	0,1	0,026801
5,627500	0,1	-0,000250
5,629167	0,1	0,011526
5,630833	0,1	0,019370
5,632500	0,1	0,025514
5,634167	0,1	0,012092
5,635833	0,1	-0,017678
5,637500	0,1	0,055107
5,639167	0,1	0,063197
5,640833	0,1	0,019942
5,642500	0,1	0,022547
5,644167	0,1	0,017692
5,645833	0,1	-0,028859
5,647500	0,1	0,026975
5,649167	0,1	0,029331
5,650833	0,1	0,038357
5,652500	0,1	0,006307
5,654167	0,1	0,020739
5,655833	0,1	0,021510
5,657500	0,1	0,021635
5,659167	0,1	-0,009587
5,660833	0,1	0,046522
5,662500	0,1	0,008735
5,664167	0,1	0,027627
5,665833	0,1	0,046406
5,667500	0,1	0,035146
5,669167	0,1	0,068793
5,670833	0,1	0,073946
5,672500	0,1	0,019531
5,674167	0,1	0,037650
5,675833	0,1	0,019688
5,677500	0,1	0,061321
5,679167	0,1	0,053925
5,680833	0,1	0,053756
5,682500	0,1	0,090374
5,684167	0,1	0,080383
5,685833	0,1	0,049031
5,687500	0,1	0,075602
5,689167	0,1	0,056127
5,690833	0,1	0,103569
5,692500	0,1	0,090221
5,694167	0,1	0,114285
5,695833	0,1	0,083625
5,697500	0,1	0,063016
5,699167	0,1	0,107578
5,700833	0,1	0,088788
5,702500	0,1	0,093205
5,704167	0,1	0,104432
5,705833	0,1	0,067255
5,707500	0,1	0,091830
5,709167	0,1	0,109327
5,710833	0,1	0,114540
5,712500	0,1	0,067297
5,714167	0,1	0,087640
5,715833	0,1	0,090137
5,717500	0,1	0,096650
5,719167	0,1	0,096941
5,720833	0,1	0,109909
5,722500	0,1	0,091343
5,724167	0,1	0,079636
5,725833	0,1	0,114532
5,727500	0,1	0,112069
5,729167	0,1	0,090681
5,730833	0,1	0,110551
5,732500	0,1	0,098585
5,734167	0,1	0,134704
5,735833	0,1	0,113902
5,737500	0,1	0,122156
5,739167	0,1	0,107819
5,740833	0,1	0,125679
5,742500	0,1	0,110434
5,744167	0,1	0,119519
5,745833	0,1	0,120808
5,747500	0,1	0,102134
5,749167	0,1	0,171663
5,750833	0,1	0,123080
5,752500	0,1	0,118942
5,754167	0,1	0,173242
5,755833	0,1	0,093186
5,757500	0,1	0,130262
5,759167	0,1	0,127079
5,760833	0,1	0,127266
5,762500	0,1	0,113445
5,764167	0,1	0,143069
5,765833	0,1	0,124384
5,767500	0,1	0,118942
5,769167	0,1	0,155773
5,770833	0,1	0,122228
5,772500	0,1	0,135085
5,774167	0,1	0,129261
5,775833	0,1	0,179655
5,777500	0,1	0,147918
5,779167	0,1	0,132998
5,780833	0,1	0,132139
5,782500	0,1	0,150441
5,784167	0,1	0,143433
5,785833	0,1	0,164054
5,787500	0,1	0,127150
5,789167	0,1	0,113383
5,790833	0,1	0,192289
5,792500	0,1	0,155311
5,794167	0,1	0,157483
5,795833	0,1	0,142854
5,797500	0,1	0,151464
5,799167	0,1	0,160635
5,800833	0,1	0,156134
5,802500	0,1	0,165619
5,804167	0,1	0,201685
5,805833	0,1	0,132886
5,807500	0,1	0,156457
5,809167	0,1	0,182823
5,810833	0,1	0,170584
5,812500	0,1	0,150347
5,814167	0,1	0,141173
5,815833	0,1	0,135733
5,817500	0,1	0,185369
5,819167	0,1	0,160354
5,820833	0,1	0,135307
5,822500	0,1	0,154804
5,824167	0,1	0,158857
5,825833	0,1	0,186535
5,827500	0,1	0,147260
5,829167	0,1	0,143934
5,830833	0,1	0,145737
5,832500	0,1	0,162830
5,834167	0,1	0,159376
5,835833	0,1	0,162316
5,837500	0,1	0,133416
5,839167	0,1	0,151210
5,840833	0,1	0,179731
5,842500	0,1	0,140120
5,844167	0,1	0,122829
5,845833	0,1	0,142453
5,847500	0,1	0,155236
5,849167	0,1	0,129116
5,850833	0,1	0,161791
5,852500	0,1	0,113123
5,854167	0,1	0,182953
5,855833	0,1	0,118313
5,857500	0,1	0,166417
5,859167	0,1	0,142275
5,860833	0,1	0,107642
5,862500	0,1	0,144794
5,864167	0,1	0,172316
5,865833	0,1	0,096423
5,867500	0,1	0,141904
5,869167	0,1	0,115292
5,870833	0,1	0,131161
5,872500	0,1	0,120685
5,874167	0,1	0,117074
5,875833	0,1	0,127302
5,877500	0,1	0,102531
5,879167	0,1	0,180732
5,880833	0,1	0,129351
5,882500	0,1	0,163078
5,884167	0,1	0,135425
5,885833	0,1	0,120397
5,887500	0,1	0,112220
5,889167	0,1	0,132551
5,890833	0,1	0,125439
5,892500	0,1	0,122137
5,894167	0,1	0,116723
5,895833	0,1	0,106138
5,897500	0,1	0,108271
5,899167	0,1	0,107589
5,900833	0,1	0,130140
5,902500	0,1	0,098652
5,904167	0,1	0,078682
5,905833	0,1	0,117126
5,907500	0,1	0,092467
5,909167	0,1	0,097044
5,910833	0,1	0,131236
5,912500	0,1	0,118175
5,914167	0,1	0,126575
5,915833	0,1	0,103216
5,917500	0,1	0,082834
5,919167	0,1	0,114885
5,920833	0,1	0,121349
5,922500	0,1	0,080536
5,924167	0,1	0,133892
5,925833	0,1	0,084172
5,927500	0,1	0,094883
5,929167	0,1	0,098870
5,930833	0,1	0,110449
5,932500	0,1	0,074620
5,934167	0,1	0,090670
5,935833	0,1	0,095385
5,937500	0,1	0,051568
5,939167	0,1	0,063590
5,940833	0,1	0,107367
5,942500	0,1	0,080552
5,944167	0,1	0,082456
5,945833	0,1	0,108595
5,947500	0,1	0,093439
5,949167	0,1	0,082688
5,950833	0,1	0,068224
5,952500	0,1	0,050399
5,954167	0,1	0,066120
5,955833	0,1	0,041520
5,957500	0,1	0,054229
5,959167	0,1	0,090540
5,960833	0,1	0,042146
5,962500	0,1	0,069852
5,964167	0,1	0,046436
5,965833	0,1	0,042158
5,967500	0,1	0,034502
5,969167	0,1	0,085804
5,970833	0,1	0,068576
5,972500	0,1	0,044923
5,974167	0,1	0,008073
5,975833	0,1	0,046526
5,977500	0,1	0,030768
5,979167	0,1	0,059808
5,980833	0,1	0,081826
5,982500	0,1	0,036667
5,984167	0,1	0,079914
5,985833	0,1	0,037228
5,987500	0,1	0,016245
5,989167	0,1	0,047917
5,990833	0,1	0,041182
5,992500	0,1	0,080434
5,994167	0,1	0,023991
5,995833	0,1	0,023108
5,997500	0,1	0,081903
5,999167	0,1	0,042207
6,000833	0,1	0,060247
