File Path	chrom://chromeleon01/ikbm_chromeleon/2022/Rezex/Esteban/220612_chitin_4_7.seq/535.smp/UV_VIS_1.channel/UV_VIS_1.chm
Channel	UV_VIS_1

Injection Information:
Data Vault	ikbm_chromeleon
Injection	A2ox 400
Injection Number	131
Position	RA6
Comment	
Processing Method	New ProcMethod
Instrument Method	Short_Rezex_6min_194nm
Type	Calibration Standard
Status	Finished
Injection Date	13.06.2022
Injection Time	07:15:22
Injection Volume (µl)	8,000
Dilution Factor	1,0000
Weight	1,0000

Chromatogram Data Information:
Time Min. (min)	0,000833
Time Max. (min)	6,000833
Data Points	3601
Detector	UV
Generating Data System	Chromeleon 7.2.9.11323
Exporting Data System	Chromeleon 7.2.9.0
Operator	Instrument Controller
Signal Quantity	Absorbance
Signal Unit	mAU
Signal Min.	-0,146047
Signal Max.	209,781605
Channel	UV_VIS_1
Driver Name	VWD3000.dll
Channel Type	Evaluation
Min. Step (s)	0,1
Max. Step (s)	0,1
Average Step (s)	0,1

Signal Parameter Information:
Signal Info	WVL:194 nm

Chromatogram Data:
Time (min)	Step (s)	Value (mAU)
0,000833	n.a.	-0,043368
0,002500	0,1	-0,061829
0,004167	0,1	-0,095525
0,005833	0,1	-0,067151
0,007500	0,1	-0,061786
0,009167	0,1	-0,058459
0,010833	0,1	-0,124254
0,012500	0,1	-0,095820
0,014167	0,1	-0,045231
0,015833	0,1	-0,078511
0,017500	0,1	-0,107590
0,019167	0,1	-0,071112
0,020833	0,1	-0,102459
0,022500	0,1	-0,061903
0,024167	0,1	-0,101484
0,025833	0,1	-0,094421
0,027500	0,1	-0,079273
0,029167	0,1	-0,088305
0,030833	0,1	-0,096983
0,032500	0,1	-0,103507
0,034167	0,1	-0,060523
0,035833	0,1	-0,095004
0,037500	0,1	-0,119824
0,039167	0,1	-0,069652
0,040833	0,1	-0,059451
0,042500	0,1	-0,070869
0,044167	0,1	-0,070812
0,045833	0,1	-0,061134
0,047500	0,1	-0,085155
0,049167	0,1	-0,100308
0,050833	0,1	-0,042559
0,052500	0,1	-0,104897
0,054167	0,1	-0,049372
0,055833	0,1	-0,059945
0,057500	0,1	-0,108396
0,059167	0,1	-0,120880
0,060833	0,1	-0,078448
0,062500	0,1	-0,100017
0,064167	0,1	-0,116972
0,065833	0,1	-0,082945
0,067500	0,1	-0,072810
0,069167	0,1	-0,064521
0,070833	0,1	-0,089996
0,072500	0,1	-0,094810
0,074167	0,1	-0,088249
0,075833	0,1	-0,101642
0,077500	0,1	-0,109759
0,079167	0,1	-0,068148
0,080833	0,1	-0,091909
0,082500	0,1	-0,091264
0,084167	0,1	-0,107061
0,085833	0,1	-0,075561
0,087500	0,1	-0,127804
0,089167	0,1	-0,082267
0,090833	0,1	-0,092625
0,092500	0,1	-0,072232
0,094167	0,1	-0,068028
0,095833	0,1	-0,092842
0,097500	0,1	-0,103515
0,099167	0,1	-0,130905
0,100833	0,1	-0,117688
0,102500	0,1	-0,114471
0,104167	0,1	-0,091350
0,105833	0,1	-0,089301
0,107500	0,1	-0,123549
0,109167	0,1	-0,125841
0,110833	0,1	-0,089138
0,112500	0,1	-0,099547
0,114167	0,1	-0,063077
0,115833	0,1	-0,117203
0,117500	0,1	-0,086791
0,119167	0,1	-0,133645
0,120833	0,1	-0,102935
0,122500	0,1	-0,087269
0,124167	0,1	-0,077760
0,125833	0,1	-0,139045
0,127500	0,1	-0,133368
0,129167	0,1	-0,101192
0,130833	0,1	-0,104960
0,132500	0,1	-0,097058
0,134167	0,1	-0,116098
0,135833	0,1	-0,073508
0,137500	0,1	-0,082464
0,139167	0,1	-0,068783
0,140833	0,1	-0,065935
0,142500	0,1	-0,080780
0,144167	0,1	-0,068602
0,145833	0,1	-0,113117
0,147500	0,1	-0,120480
0,149167	0,1	-0,076546
0,150833	0,1	-0,127352
0,152500	0,1	-0,123978
0,154167	0,1	-0,078479
0,155833	0,1	-0,088185
0,157500	0,1	-0,096874
0,159167	0,1	-0,072642
0,160833	0,1	-0,095937
0,162500	0,1	-0,068615
0,164167	0,1	-0,124965
0,165833	0,1	-0,123918
0,167500	0,1	-0,095019
0,169167	0,1	-0,113353
0,170833	0,1	-0,120249
0,172500	0,1	-0,081603
0,174167	0,1	-0,096220
0,175833	0,1	-0,109286
0,177500	0,1	-0,106564
0,179167	0,1	-0,118335
0,180833	0,1	-0,088255
0,182500	0,1	-0,109344
0,184167	0,1	-0,112085
0,185833	0,1	-0,140413
0,187500	0,1	-0,072424
0,189167	0,1	-0,103862
0,190833	0,1	-0,104459
0,192500	0,1	-0,090295
0,194167	0,1	-0,090743
0,195833	0,1	-0,128809
0,197500	0,1	-0,077990
0,199167	0,1	-0,122103
0,200833	0,1	-0,084529
0,202500	0,1	-0,073551
0,204167	0,1	-0,125258
0,205833	0,1	-0,112850
0,207500	0,1	-0,064543
0,209167	0,1	-0,052058
0,210833	0,1	-0,115686
0,212500	0,1	-0,123045
0,214167	0,1	-0,116175
0,215833	0,1	-0,097690
0,217500	0,1	-0,141562
0,219167	0,1	-0,107834
0,220833	0,1	-0,103038
0,222500	0,1	-0,084103
0,224167	0,1	-0,097053
0,225833	0,1	-0,120957
0,227500	0,1	-0,116524
0,229167	0,1	-0,085761
0,230833	0,1	-0,113130
0,232500	0,1	-0,115941
0,234167	0,1	-0,122634
0,235833	0,1	-0,070776
0,237500	0,1	-0,125198
0,239167	0,1	-0,137751
0,240833	0,1	-0,117401
0,242500	0,1	-0,093795
0,244167	0,1	-0,097926
0,245833	0,1	-0,075478
0,247500	0,1	-0,104973
0,249167	0,1	-0,049563
0,250833	0,1	-0,106421
0,252500	0,1	-0,088893
0,254167	0,1	-0,109816
0,255833	0,1	-0,122992
0,257500	0,1	-0,117277
0,259167	0,1	-0,100556
0,260833	0,1	-0,094592
0,262500	0,1	-0,076528
0,264167	0,1	-0,134223
0,265833	0,1	-0,123350
0,267500	0,1	-0,088147
0,269167	0,1	-0,109295
0,270833	0,1	-0,067688
0,272500	0,1	-0,115461
0,274167	0,1	-0,124207
0,275833	0,1	-0,047996
0,277500	0,1	-0,084983
0,279167	0,1	-0,064876
0,280833	0,1	-0,110200
0,282500	0,1	-0,112626
0,284167	0,1	-0,112615
0,285833	0,1	-0,063489
0,287500	0,1	-0,044014
0,289167	0,1	-0,083119
0,290833	0,1	-0,139935
0,292500	0,1	-0,120206
0,294167	0,1	-0,088375
0,295833	0,1	-0,100720
0,297500	0,1	-0,117171
0,299167	0,1	-0,089768
0,300833	0,1	-0,104848
0,302500	0,1	-0,084175
0,304167	0,1	-0,095811
0,305833	0,1	-0,081037
0,307500	0,1	-0,060749
0,309167	0,1	-0,108396
0,310833	0,1	-0,081952
0,312500	0,1	-0,080492
0,314167	0,1	-0,096099
0,315833	0,1	-0,108055
0,317500	0,1	-0,083014
0,319167	0,1	-0,071856
0,320833	0,1	-0,076122
0,322500	0,1	-0,065636
0,324167	0,1	-0,100715
0,325833	0,1	-0,130664
0,327500	0,1	-0,067960
0,329167	0,1	-0,089925
0,330833	0,1	-0,075025
0,332500	0,1	-0,048553
0,334167	0,1	-0,089812
0,335833	0,1	-0,066921
0,337500	0,1	-0,075480
0,339167	0,1	-0,072809
0,340833	0,1	-0,095055
0,342500	0,1	-0,084282
0,344167	0,1	-0,067910
0,345833	0,1	-0,054153
0,347500	0,1	-0,100581
0,349167	0,1	-0,088271
0,350833	0,1	-0,095340
0,352500	0,1	-0,076940
0,354167	0,1	-0,052641
0,355833	0,1	-0,085084
0,357500	0,1	-0,076938
0,359167	0,1	-0,056358
0,360833	0,1	-0,067214
0,362500	0,1	-0,067205
0,364167	0,1	-0,088534
0,365833	0,1	-0,067911
0,367500	0,1	-0,063310
0,369167	0,1	-0,081469
0,370833	0,1	-0,072109
0,372500	0,1	-0,069021
0,374167	0,1	-0,083213
0,375833	0,1	-0,091572
0,377500	0,1	-0,093778
0,379167	0,1	-0,049900
0,380833	0,1	-0,102102
0,382500	0,1	-0,057174
0,384167	0,1	-0,084974
0,385833	0,1	-0,045181
0,387500	0,1	-0,084330
0,389167	0,1	-0,066546
0,390833	0,1	-0,051045
0,392500	0,1	-0,073552
0,394167	0,1	-0,098622
0,395833	0,1	-0,090525
0,397500	0,1	-0,080084
0,399167	0,1	-0,077686
0,400833	0,1	-0,084329
0,402500	0,1	-0,084981
0,404167	0,1	-0,025653
0,405833	0,1	-0,071273
0,407500	0,1	-0,041451
0,409167	0,1	-0,065034
0,410833	0,1	-0,060891
0,412500	0,1	-0,070159
0,414167	0,1	-0,092261
0,415833	0,1	-0,086677
0,417500	0,1	-0,064004
0,419167	0,1	-0,060383
0,420833	0,1	-0,087238
0,422500	0,1	-0,044490
0,424167	0,1	-0,052973
0,425833	0,1	-0,045271
0,427500	0,1	-0,062750
0,429167	0,1	-0,082462
0,430833	0,1	-0,066739
0,432500	0,1	-0,046459
0,434167	0,1	-0,014575
0,435833	0,1	-0,040615
0,437500	0,1	-0,082577
0,439167	0,1	-0,112360
0,440833	0,1	-0,093602
0,442500	0,1	-0,073683
0,444167	0,1	-0,039515
0,445833	0,1	-0,085030
0,447500	0,1	-0,067730
0,449167	0,1	-0,053861
0,450833	0,1	-0,077340
0,452500	0,1	-0,043994
0,454167	0,1	-0,062530
0,455833	0,1	-0,051114
0,457500	0,1	-0,068423
0,459167	0,1	-0,067256
0,460833	0,1	-0,079898
0,462500	0,1	-0,055898
0,464167	0,1	-0,033740
0,465833	0,1	-0,052561
0,467500	0,1	-0,059266
0,469167	0,1	-0,050050
0,470833	0,1	-0,034659
0,472500	0,1	-0,028897
0,474167	0,1	-0,061946
0,475833	0,1	-0,045841
0,477500	0,1	-0,049599
0,479167	0,1	-0,081297
0,480833	0,1	-0,065285
0,482500	0,1	-0,074438
0,484167	0,1	-0,031072
0,485833	0,1	-0,029246
0,487500	0,1	-0,073706
0,489167	0,1	-0,046629
0,490833	0,1	-0,040683
0,492500	0,1	-0,070925
0,494167	0,1	-0,058230
0,495833	0,1	-0,067133
0,497500	0,1	-0,067726
0,499167	0,1	-0,077162
0,500833	0,1	-0,066918
0,502500	0,1	-0,107688
0,504167	0,1	-0,052528
0,505833	0,1	-0,044398
0,507500	0,1	-0,035311
0,509167	0,1	-0,068359
0,510833	0,1	-0,050475
0,512500	0,1	-0,062291
0,514167	0,1	-0,098951
0,515833	0,1	-0,076640
0,517500	0,1	-0,053381
0,519167	0,1	-0,062123
0,520833	0,1	-0,062814
0,522500	0,1	-0,065572
0,524167	0,1	-0,087532
0,525833	0,1	-0,119132
0,527500	0,1	-0,070134
0,529167	0,1	-0,065162
0,530833	0,1	-0,044233
0,532500	0,1	-0,077097
0,534167	0,1	-0,091150
0,535833	0,1	-0,085804
0,537500	0,1	-0,061309
0,539167	0,1	-0,084093
0,540833	0,1	-0,072838
0,542500	0,1	-0,065514
0,544167	0,1	-0,052737
0,545833	0,1	-0,101402
0,547500	0,1	-0,056072
0,549167	0,1	0,000292
0,550833	0,1	-0,056207
0,552500	0,1	-0,072310
0,554167	0,1	-0,063651
0,555833	0,1	-0,059329
0,557500	0,1	-0,029313
0,559167	0,1	-0,042469
0,560833	0,1	-0,064974
0,562500	0,1	-0,058990
0,564167	0,1	-0,090796
0,565833	0,1	-0,078390
0,567500	0,1	-0,047852
0,569167	0,1	-0,042086
0,570833	0,1	-0,029540
0,572500	0,1	-0,049995
0,574167	0,1	-0,068956
0,575833	0,1	-0,046618
0,577500	0,1	-0,098615
0,579167	0,1	-0,026807
0,580833	0,1	-0,056394
0,582500	0,1	-0,109268
0,584167	0,1	-0,046288
0,585833	0,1	-0,092605
0,587500	0,1	-0,084212
0,589167	0,1	-0,102162
0,590833	0,1	-0,075659
0,592500	0,1	-0,099555
0,594167	0,1	-0,076339
0,595833	0,1	-0,048845
0,597500	0,1	-0,059678
0,599167	0,1	-0,022901
0,600833	0,1	-0,060072
0,602500	0,1	-0,066562
0,604167	0,1	-0,081530
0,605833	0,1	-0,079802
0,607500	0,1	-0,059213
0,609167	0,1	-0,058858
0,610833	0,1	-0,128322
0,612500	0,1	-0,064414
0,614167	0,1	-0,030536
0,615833	0,1	-0,078035
0,617500	0,1	-0,087655
0,619167	0,1	-0,059434
0,620833	0,1	-0,077862
0,622500	0,1	-0,059514
0,624167	0,1	-0,075418
0,625833	0,1	-0,069241
0,627500	0,1	-0,035425
0,629167	0,1	-0,062360
0,630833	0,1	-0,122902
0,632500	0,1	-0,094718
0,634167	0,1	-0,077701
0,635833	0,1	-0,097100
0,637500	0,1	-0,070129
0,639167	0,1	-0,098131
0,640833	0,1	-0,097105
0,642500	0,1	-0,099140
0,644167	0,1	-0,085285
0,645833	0,1	-0,068832
0,647500	0,1	-0,071585
0,649167	0,1	-0,117966
0,650833	0,1	-0,085570
0,652500	0,1	-0,074373
0,654167	0,1	-0,098442
0,655833	0,1	-0,039400
0,657500	0,1	-0,059082
0,659167	0,1	-0,075878
0,660833	0,1	-0,077104
0,662500	0,1	-0,100638
0,664167	0,1	-0,103448
0,665833	0,1	-0,067954
0,667500	0,1	-0,051455
0,669167	0,1	-0,066039
0,670833	0,1	-0,076813
0,672500	0,1	-0,069070
0,674167	0,1	-0,071865
0,675833	0,1	-0,094294
0,677500	0,1	-0,036606
0,679167	0,1	-0,077025
0,680833	0,1	-0,049074
0,682500	0,1	-0,086727
0,684167	0,1	-0,060858
0,685833	0,1	-0,087651
0,687500	0,1	-0,062903
0,689167	0,1	-0,055942
0,690833	0,1	-0,085726
0,692500	0,1	-0,074132
0,694167	0,1	-0,029256
0,695833	0,1	-0,055826
0,697500	0,1	-0,040263
0,699167	0,1	-0,077568
0,700833	0,1	-0,073258
0,702500	0,1	-0,067537
0,704167	0,1	-0,028334
0,705833	0,1	-0,112126
0,707500	0,1	-0,063648
0,709167	0,1	-0,062135
0,710833	0,1	-0,073787
0,712500	0,1	-0,068670
0,714167	0,1	-0,054493
0,715833	0,1	-0,052734
0,717500	0,1	-0,045150
0,719167	0,1	-0,074773
0,720833	0,1	-0,070222
0,722500	0,1	-0,018888
0,724167	0,1	-0,104130
0,725833	0,1	-0,034104
0,727500	0,1	-0,062747
0,729167	0,1	-0,039684
0,730833	0,1	-0,041662
0,732500	0,1	-0,040199
0,734167	0,1	-0,074362
0,735833	0,1	-0,072835
0,737500	0,1	-0,018476
0,739167	0,1	-0,027718
0,740833	0,1	-0,028264
0,742500	0,1	-0,012815
0,744167	0,1	-0,018219
0,745833	0,1	-0,004573
0,747500	0,1	-0,005103
0,749167	0,1	-0,006494
0,750833	0,1	-0,055929
0,752500	0,1	-0,039259
0,754167	0,1	0,002245
0,755833	0,1	0,018080
0,757500	0,1	-0,032550
0,759167	0,1	-0,014668
0,760833	0,1	-0,032327
0,762500	0,1	-0,005581
0,764167	0,1	0,017026
0,765833	0,1	-0,003755
0,767500	0,1	0,005339
0,769167	0,1	-0,031620
0,770833	0,1	-0,018164
0,772500	0,1	-0,017519
0,774167	0,1	-0,039479
0,775833	0,1	-0,003769
0,777500	0,1	-0,027933
0,779167	0,1	-0,067135
0,780833	0,1	-0,050766
0,782500	0,1	-0,014757
0,784167	0,1	-0,036587
0,785833	0,1	-0,009201
0,787500	0,1	-0,030294
0,789167	0,1	-0,025737
0,790833	0,1	-0,028532
0,792500	0,1	-0,064561
0,794167	0,1	-0,023412
0,795833	0,1	-0,007043
0,797500	0,1	-0,052094
0,799167	0,1	-0,084973
0,800833	0,1	-0,034267
0,802500	0,1	-0,034715
0,804167	0,1	-0,038213
0,805833	0,1	-0,045629
0,807500	0,1	-0,047904
0,809167	0,1	-0,076008
0,810833	0,1	-0,030999
0,812500	0,1	-0,059032
0,814167	0,1	-0,050243
0,815833	0,1	-0,093708
0,817500	0,1	-0,095581
0,819167	0,1	-0,069246
0,820833	0,1	-0,068247
0,822500	0,1	-0,068697
0,824167	0,1	-0,099554
0,825833	0,1	-0,055031
0,827500	0,1	-0,097667
0,829167	0,1	-0,076188
0,830833	0,1	-0,087314
0,832500	0,1	-0,095239
0,834167	0,1	-0,076308
0,835833	0,1	-0,090339
0,837500	0,1	-0,106720
0,839167	0,1	-0,079047
0,840833	0,1	-0,075883
0,842500	0,1	-0,120120
0,844167	0,1	-0,079911
0,845833	0,1	-0,103091
0,847500	0,1	-0,089072
0,849167	0,1	-0,079211
0,850833	0,1	-0,107410
0,852500	0,1	-0,108358
0,854167	0,1	-0,108648
0,855833	0,1	-0,049795
0,857500	0,1	-0,110857
0,859167	0,1	-0,122163
0,860833	0,1	-0,099375
0,862500	0,1	-0,112432
0,864167	0,1	-0,116975
0,865833	0,1	-0,071054
0,867500	0,1	-0,090046
0,869167	0,1	-0,146047
0,870833	0,1	-0,089595
0,872500	0,1	-0,119072
0,874167	0,1	-0,114360
0,875833	0,1	-0,102699
0,877500	0,1	-0,077692
0,879167	0,1	-0,080611
0,880833	0,1	-0,091030
0,882500	0,1	-0,107353
0,884167	0,1	-0,119827
0,885833	0,1	-0,109343
0,887500	0,1	-0,059039
0,889167	0,1	-0,082109
0,890833	0,1	-0,099777
0,892500	0,1	-0,119075
0,894167	0,1	-0,102531
0,895833	0,1	-0,141735
0,897500	0,1	-0,113716
0,899167	0,1	-0,076072
0,900833	0,1	-0,075301
0,902500	0,1	-0,097752
0,904167	0,1	-0,090914
0,905833	0,1	-0,091634
0,907500	0,1	-0,074495
0,909167	0,1	-0,064642
0,910833	0,1	-0,107647
0,912500	0,1	-0,094022
0,914167	0,1	-0,095822
0,915833	0,1	-0,107943
0,917500	0,1	-0,132941
0,919167	0,1	-0,121947
0,920833	0,1	-0,094706
0,922500	0,1	-0,088300
0,924167	0,1	-0,114184
0,925833	0,1	-0,084518
0,927500	0,1	-0,073030
0,929167	0,1	-0,070523
0,930833	0,1	-0,088764
0,932500	0,1	-0,089750
0,934167	0,1	-0,070889
0,935833	0,1	-0,069361
0,937500	0,1	-0,113167
0,939167	0,1	-0,108360
0,940833	0,1	-0,115170
0,942500	0,1	-0,052409
0,944167	0,1	-0,103686
0,945833	0,1	-0,126578
0,947500	0,1	-0,090601
0,949167	0,1	-0,105779
0,950833	0,1	-0,096987
0,952500	0,1	-0,085044
0,954167	0,1	-0,108803
0,955833	0,1	-0,101066
0,957500	0,1	-0,056424
0,959167	0,1	-0,105189
0,960833	0,1	-0,105842
0,962500	0,1	-0,058990
0,964167	0,1	-0,047508
0,965833	0,1	-0,079493
0,967500	0,1	-0,097553
0,969167	0,1	-0,046152
0,970833	0,1	-0,049368
0,972500	0,1	-0,072369
0,974167	0,1	-0,091850
0,975833	0,1	-0,065507
0,977500	0,1	-0,088994
0,979167	0,1	-0,093777
0,980833	0,1	-0,079844
0,982500	0,1	-0,070525
0,984167	0,1	-0,042019
0,985833	0,1	-0,017236
0,987500	0,1	-0,043060
0,989167	0,1	-0,054026
0,990833	0,1	-0,055540
0,992500	0,1	-0,073062
0,994167	0,1	-0,057929
0,995833	0,1	-0,030524
0,997500	0,1	-0,012805
0,999167	0,1	-0,104829
1,000833	0,1	0,005835
1,002500	0,1	-0,018168
1,004167	0,1	-0,057347
1,005833	0,1	0,017571
1,007500	0,1	-0,016338
1,009167	0,1	-0,013080
1,010833	0,1	-0,011336
1,012500	0,1	-0,056451
1,014167	0,1	-0,018811
1,015833	0,1	0,008071
1,017500	0,1	0,030522
1,019167	0,1	0,010405
1,020833	0,1	0,028645
1,022500	0,1	0,005578
1,024167	0,1	0,004094
1,025833	0,1	0,055607
1,027500	0,1	0,052798
1,029167	0,1	0,025752
1,030833	0,1	0,012692
1,032500	0,1	0,060098
1,034167	0,1	0,044076
1,035833	0,1	0,078097
1,037500	0,1	0,052174
1,039167	0,1	0,085856
1,040833	0,1	0,070471
1,042500	0,1	0,114358
1,044167	0,1	0,095203
1,045833	0,1	0,083086
1,047500	0,1	0,100584
1,049167	0,1	0,120460
1,050833	0,1	0,125260
1,052500	0,1	0,155624
1,054167	0,1	0,209905
1,055833	0,1	0,286676
1,057500	0,1	0,394882
1,059167	0,1	0,526089
1,060833	0,1	0,713989
1,062500	0,1	0,997199
1,064167	0,1	1,422419
1,065833	0,1	1,904881
1,067500	0,1	2,520688
1,069167	0,1	3,387802
1,070833	0,1	4,443323
1,072500	0,1	5,772181
1,074167	0,1	7,351520
1,075833	0,1	9,276165
1,077500	0,1	11,444420
1,079167	0,1	13,985080
1,080833	0,1	16,844322
1,082500	0,1	20,106577
1,084167	0,1	23,578786
1,085833	0,1	27,352544
1,087500	0,1	31,347280
1,089167	0,1	35,507260
1,090833	0,1	39,828372
1,092500	0,1	44,172019
1,094167	0,1	48,519961
1,095833	0,1	52,883025
1,097500	0,1	57,106695
1,099167	0,1	61,182974
1,100833	0,1	64,998721
1,102500	0,1	68,636942
1,104167	0,1	72,039710
1,105833	0,1	75,025464
1,107500	0,1	77,820527
1,109167	0,1	80,195956
1,110833	0,1	82,283237
1,112500	0,1	83,968661
1,114167	0,1	85,295257
1,115833	0,1	86,300705
1,117500	0,1	87,047000
1,119167	0,1	87,333851
1,120833	0,1	87,396087
1,122500	0,1	87,168441
1,124167	0,1	86,629906
1,125833	0,1	85,781490
1,127500	0,1	84,754478
1,129167	0,1	83,502831
1,130833	0,1	82,018884
1,132500	0,1	80,314154
1,134167	0,1	78,514290
1,135833	0,1	76,566875
1,137500	0,1	74,531404
1,139167	0,1	72,341573
1,140833	0,1	70,142134
1,142500	0,1	67,831479
1,144167	0,1	65,491627
1,145833	0,1	63,173503
1,147500	0,1	60,798990
1,149167	0,1	58,412406
1,150833	0,1	56,133048
1,152500	0,1	53,844794
1,154167	0,1	51,574331
1,155833	0,1	49,312836
1,157500	0,1	47,216199
1,159167	0,1	45,103130
1,160833	0,1	43,001609
1,162500	0,1	41,049883
1,164167	0,1	39,146339
1,165833	0,1	37,270813
1,167500	0,1	35,557208
1,169167	0,1	33,790529
1,170833	0,1	32,173679
1,172500	0,1	30,596523
1,174167	0,1	29,103042
1,175833	0,1	27,679331
1,177500	0,1	26,232526
1,179167	0,1	24,934818
1,180833	0,1	23,710720
1,182500	0,1	22,507292
1,184167	0,1	21,343420
1,185833	0,1	20,271159
1,187500	0,1	19,213255
1,189167	0,1	18,241085
1,190833	0,1	17,292147
1,192500	0,1	16,407330
1,194167	0,1	15,548715
1,195833	0,1	14,782883
1,197500	0,1	14,051394
1,199167	0,1	13,277960
1,200833	0,1	12,614076
1,202500	0,1	11,958930
1,204167	0,1	11,396024
1,205833	0,1	10,808244
1,207500	0,1	10,320537
1,209167	0,1	9,785508
1,210833	0,1	9,270678
1,212500	0,1	8,872938
1,214167	0,1	8,393348
1,215833	0,1	7,994325
1,217500	0,1	7,610606
1,219167	0,1	7,275381
1,220833	0,1	6,933811
1,222500	0,1	6,609075
1,224167	0,1	6,369136
1,225833	0,1	6,015327
1,227500	0,1	5,785252
1,229167	0,1	5,503498
1,230833	0,1	5,286030
1,232500	0,1	5,058392
1,234167	0,1	4,829907
1,235833	0,1	4,639168
1,237500	0,1	4,447715
1,239167	0,1	4,296901
1,240833	0,1	4,110635
1,242500	0,1	3,932552
1,244167	0,1	3,814675
1,245833	0,1	3,667011
1,247500	0,1	3,465868
1,249167	0,1	3,378259
1,250833	0,1	3,239897
1,252500	0,1	3,130253
1,254167	0,1	3,014125
1,255833	0,1	2,938183
1,257500	0,1	2,841766
1,259167	0,1	2,728435
1,260833	0,1	2,610121
1,262500	0,1	2,512543
1,264167	0,1	2,435485
1,265833	0,1	2,323343
1,267500	0,1	2,302691
1,269167	0,1	2,207789
1,270833	0,1	2,145229
1,272500	0,1	2,078832
1,274167	0,1	2,030647
1,275833	0,1	1,950207
1,277500	0,1	1,878152
1,279167	0,1	1,844793
1,280833	0,1	1,789076
1,282500	0,1	1,700740
1,284167	0,1	1,658533
1,285833	0,1	1,641583
1,287500	0,1	1,599386
1,289167	0,1	1,559472
1,290833	0,1	1,484813
1,292500	0,1	1,454821
1,294167	0,1	1,420446
1,295833	0,1	1,417750
1,297500	0,1	1,328553
1,299167	0,1	1,283796
1,300833	0,1	1,292679
1,302500	0,1	1,242582
1,304167	0,1	1,262489
1,305833	0,1	1,243861
1,307500	0,1	1,215049
1,309167	0,1	1,142315
1,310833	0,1	1,140041
1,312500	0,1	1,084985
1,314167	0,1	1,083778
1,315833	0,1	1,053116
1,317500	0,1	1,024751
1,319167	0,1	0,998074
1,320833	0,1	0,999295
1,322500	0,1	0,982484
1,324167	0,1	0,958923
1,325833	0,1	0,965375
1,327500	0,1	0,947226
1,329167	0,1	0,918204
1,330833	0,1	0,915785
1,332500	0,1	0,884232
1,334167	0,1	0,911339
1,335833	0,1	0,909069
1,337500	0,1	0,879412
1,339167	0,1	0,839922
1,340833	0,1	0,825808
1,342500	0,1	0,834157
1,344167	0,1	0,822915
1,345833	0,1	0,866411
1,347500	0,1	0,765261
1,349167	0,1	0,816379
1,350833	0,1	0,795062
1,352500	0,1	0,766753
1,354167	0,1	0,762223
1,355833	0,1	0,787370
1,357500	0,1	0,802957
1,359167	0,1	0,798173
1,360833	0,1	0,758050
1,362500	0,1	0,791578
1,364167	0,1	0,766017
1,365833	0,1	0,765045
1,367500	0,1	0,737135
1,369167	0,1	0,737771
1,370833	0,1	0,739729
1,372500	0,1	0,697850
1,374167	0,1	0,763521
1,375833	0,1	0,786634
1,377500	0,1	0,696992
1,379167	0,1	0,726714
1,380833	0,1	0,741619
1,382500	0,1	0,761703
1,384167	0,1	0,736396
1,385833	0,1	0,763498
1,387500	0,1	0,725152
1,389167	0,1	0,720940
1,390833	0,1	0,710014
1,392500	0,1	0,719486
1,394167	0,1	0,706159
1,395833	0,1	0,778234
1,397500	0,1	0,706625
1,399167	0,1	0,720611
1,400833	0,1	0,713006
1,402500	0,1	0,731856
1,404167	0,1	0,709219
1,405833	0,1	0,719422
1,407500	0,1	0,727293
1,409167	0,1	0,698135
1,410833	0,1	0,729059
1,412500	0,1	0,699838
1,414167	0,1	0,715634
1,415833	0,1	0,699029
1,417500	0,1	0,704679
1,419167	0,1	0,667871
1,420833	0,1	0,691310
1,422500	0,1	0,706216
1,424167	0,1	0,708316
1,425833	0,1	0,698294
1,427500	0,1	0,683425
1,429167	0,1	0,675905
1,430833	0,1	0,691863
1,432500	0,1	0,704359
1,434167	0,1	0,669092
1,435833	0,1	0,670051
1,437500	0,1	0,688938
1,439167	0,1	0,658495
1,440833	0,1	0,665264
1,442500	0,1	0,661447
1,444167	0,1	0,654056
1,445833	0,1	0,668247
1,447500	0,1	0,707819
1,449167	0,1	0,662932
1,450833	0,1	0,646159
1,452500	0,1	0,658223
1,454167	0,1	0,685660
1,455833	0,1	0,648599
1,457500	0,1	0,678847
1,459167	0,1	0,696711
1,460833	0,1	0,682325
1,462500	0,1	0,690029
1,464167	0,1	0,676127
1,465833	0,1	0,695138
1,467500	0,1	0,658496
1,469167	0,1	0,660287
1,470833	0,1	0,708460
1,472500	0,1	0,676456
1,474167	0,1	0,679978
1,475833	0,1	0,651238
1,477500	0,1	0,721947
1,479167	0,1	0,682558
1,480833	0,1	0,687235
1,482500	0,1	0,707987
1,484167	0,1	0,707095
1,485833	0,1	0,718106
1,487500	0,1	0,718045
1,489167	0,1	0,710401
1,490833	0,1	0,700185
1,492500	0,1	0,718168
1,494167	0,1	0,740851
1,495833	0,1	0,748369
1,497500	0,1	0,694704
1,499167	0,1	0,706832
1,500833	0,1	0,681875
1,502500	0,1	0,704611
1,504167	0,1	0,725618
1,505833	0,1	0,693026
1,507500	0,1	0,752311
1,509167	0,1	0,761862
1,510833	0,1	0,699683
1,512500	0,1	0,702718
1,514167	0,1	0,717689
1,515833	0,1	0,728381
1,517500	0,1	0,770786
1,519167	0,1	0,737619
1,520833	0,1	0,698201
1,522500	0,1	0,715020
1,524167	0,1	0,727651
1,525833	0,1	0,724570
1,527500	0,1	0,714898
1,529167	0,1	0,729802
1,530833	0,1	0,683547
1,532500	0,1	0,713380
1,534167	0,1	0,675454
1,535833	0,1	0,694559
1,537500	0,1	0,704359
1,539167	0,1	0,701532
1,540833	0,1	0,648737
1,542500	0,1	0,652705
1,544167	0,1	0,678878
1,545833	0,1	0,671662
1,547500	0,1	0,651362
1,549167	0,1	0,679045
1,550833	0,1	0,635887
1,552500	0,1	0,655271
1,554167	0,1	0,622686
1,555833	0,1	0,629452
1,557500	0,1	0,631607
1,559167	0,1	0,637261
1,560833	0,1	0,623387
1,562500	0,1	0,598791
1,564167	0,1	0,611528
1,565833	0,1	0,597956
1,567500	0,1	0,622834
1,569167	0,1	0,579011
1,570833	0,1	0,584843
1,572500	0,1	0,515498
1,574167	0,1	0,578985
1,575833	0,1	0,598932
1,577500	0,1	0,574861
1,579167	0,1	0,585067
1,580833	0,1	0,570300
1,582500	0,1	0,522557
1,584167	0,1	0,547811
1,585833	0,1	0,530961
1,587500	0,1	0,541330
1,589167	0,1	0,545122
1,590833	0,1	0,556290
1,592500	0,1	0,532575
1,594167	0,1	0,503475
1,595833	0,1	0,532436
1,597500	0,1	0,520182
1,599167	0,1	0,507338
1,600833	0,1	0,510631
1,602500	0,1	0,501809
1,604167	0,1	0,560270
1,605833	0,1	0,552027
1,607500	0,1	0,588914
1,609167	0,1	0,585070
1,610833	0,1	0,581406
1,612500	0,1	0,576358
1,614167	0,1	0,642158
1,615833	0,1	0,660799
1,617500	0,1	0,679014
1,619167	0,1	0,732295
1,620833	0,1	0,710047
1,622500	0,1	0,791468
1,624167	0,1	0,874790
1,625833	0,1	0,909060
1,627500	0,1	1,010258
1,629167	0,1	1,050556
1,630833	0,1	1,171144
1,632500	0,1	1,221818
1,634167	0,1	1,387136
1,635833	0,1	1,538874
1,637500	0,1	1,730258
1,639167	0,1	1,883851
1,640833	0,1	2,091245
1,642500	0,1	2,358725
1,644167	0,1	2,635190
1,645833	0,1	2,969869
1,647500	0,1	3,320717
1,649167	0,1	3,661816
1,650833	0,1	4,119796
1,652500	0,1	4,662535
1,654167	0,1	5,181194
1,655833	0,1	5,786852
1,657500	0,1	6,451997
1,659167	0,1	7,204029
1,660833	0,1	8,019042
1,662500	0,1	8,907305
1,664167	0,1	9,862635
1,665833	0,1	10,926667
1,667500	0,1	12,087513
1,669167	0,1	13,337752
1,670833	0,1	14,707104
1,672500	0,1	16,174062
1,674167	0,1	17,722961
1,675833	0,1	19,453719
1,677500	0,1	21,246544
1,679167	0,1	23,225542
1,680833	0,1	25,265173
1,682500	0,1	27,479375
1,684167	0,1	29,808456
1,685833	0,1	32,235822
1,687500	0,1	34,851943
1,689167	0,1	37,574776
1,690833	0,1	40,463498
1,692500	0,1	43,480496
1,694167	0,1	46,588629
1,695833	0,1	49,845914
1,697500	0,1	53,242337
1,699167	0,1	56,768343
1,700833	0,1	60,418176
1,702500	0,1	64,210492
1,704167	0,1	68,122259
1,705833	0,1	72,087570
1,707500	0,1	76,194203
1,709167	0,1	80,271995
1,710833	0,1	84,524253
1,712500	0,1	88,822478
1,714167	0,1	93,227029
1,715833	0,1	97,715425
1,717500	0,1	102,146216
1,719167	0,1	106,683666
1,720833	0,1	111,233115
1,722500	0,1	115,820645
1,724167	0,1	120,334538
1,725833	0,1	124,879858
1,727500	0,1	129,428892
1,729167	0,1	133,903672
1,730833	0,1	138,379288
1,732500	0,1	142,763016
1,734167	0,1	147,129067
1,735833	0,1	151,348877
1,737500	0,1	155,502713
1,739167	0,1	159,562040
1,740833	0,1	163,528609
1,742500	0,1	167,348970
1,744167	0,1	171,092524
1,745833	0,1	174,678062
1,747500	0,1	178,103850
1,749167	0,1	181,363833
1,750833	0,1	184,511088
1,752500	0,1	187,446403
1,754167	0,1	190,305295
1,755833	0,1	192,910702
1,757500	0,1	195,314609
1,759167	0,1	197,566808
1,760833	0,1	199,707077
1,762500	0,1	201,550636
1,764167	0,1	203,209788
1,765833	0,1	204,717164
1,767500	0,1	205,999865
1,769167	0,1	207,109848
1,770833	0,1	208,009235
1,772500	0,1	208,773334
1,774167	0,1	209,251278
1,775833	0,1	209,604198
1,777500	0,1	209,781605
1,779167	0,1	209,743401
1,780833	0,1	209,531612
1,782500	0,1	209,166523
1,784167	0,1	208,599614
1,785833	0,1	207,868605
1,787500	0,1	206,991403
1,789167	0,1	205,957525
1,790833	0,1	204,674313
1,792500	0,1	203,414429
1,794167	0,1	201,859476
1,795833	0,1	200,253762
1,797500	0,1	198,515300
1,799167	0,1	196,610897
1,800833	0,1	194,632116
1,802500	0,1	192,454637
1,804167	0,1	190,263385
1,805833	0,1	188,000861
1,807500	0,1	185,567142
1,809167	0,1	183,045229
1,810833	0,1	180,492388
1,812500	0,1	177,880268
1,814167	0,1	175,141232
1,815833	0,1	172,390424
1,817500	0,1	169,613717
1,819167	0,1	166,734971
1,820833	0,1	163,842589
1,822500	0,1	160,909737
1,824167	0,1	157,941976
1,825833	0,1	154,956225
1,827500	0,1	151,962451
1,829167	0,1	148,982366
1,830833	0,1	145,944142
1,832500	0,1	142,904555
1,834167	0,1	139,886482
1,835833	0,1	136,879471
1,837500	0,1	133,904414
1,839167	0,1	130,818394
1,840833	0,1	127,922450
1,842500	0,1	124,968892
1,844167	0,1	122,056990
1,845833	0,1	119,139439
1,847500	0,1	116,256376
1,849167	0,1	113,462385
1,850833	0,1	110,634191
1,852500	0,1	107,889074
1,854167	0,1	105,126447
1,855833	0,1	102,461764
1,857500	0,1	99,832014
1,859167	0,1	97,292240
1,860833	0,1	94,732958
1,862500	0,1	92,229517
1,864167	0,1	89,759551
1,865833	0,1	87,340642
1,867500	0,1	85,021850
1,869167	0,1	82,712410
1,870833	0,1	80,467955
1,872500	0,1	78,249392
1,874167	0,1	76,139916
1,875833	0,1	73,996317
1,877500	0,1	71,974561
1,879167	0,1	69,976226
1,880833	0,1	68,008178
1,882500	0,1	66,055563
1,884167	0,1	64,260175
1,885833	0,1	62,455390
1,887500	0,1	60,678981
1,889167	0,1	58,975535
1,890833	0,1	57,281745
1,892500	0,1	55,696556
1,894167	0,1	54,074479
1,895833	0,1	52,541658
1,897500	0,1	51,060519
1,899167	0,1	49,659970
1,900833	0,1	48,165319
1,902500	0,1	46,855839
1,904167	0,1	45,485730
1,905833	0,1	44,215221
1,907500	0,1	42,920868
1,909167	0,1	41,741636
1,910833	0,1	40,515244
1,912500	0,1	39,383259
1,914167	0,1	38,293153
1,915833	0,1	37,208194
1,917500	0,1	36,199798
1,919167	0,1	35,141596
1,920833	0,1	34,153337
1,922500	0,1	33,143911
1,924167	0,1	32,233444
1,925833	0,1	31,344714
1,927500	0,1	30,442421
1,929167	0,1	29,625379
1,930833	0,1	28,797755
1,932500	0,1	27,974948
1,934167	0,1	27,234593
1,935833	0,1	26,460401
1,937500	0,1	25,733095
1,939167	0,1	25,003476
1,940833	0,1	24,333845
1,942500	0,1	23,704480
1,944167	0,1	23,033526
1,945833	0,1	22,462605
1,947500	0,1	21,777787
1,949167	0,1	21,224003
1,950833	0,1	20,681447
1,952500	0,1	20,129642
1,954167	0,1	19,639254
1,955833	0,1	19,060776
1,957500	0,1	18,597464
1,959167	0,1	18,107503
1,960833	0,1	17,676020
1,962500	0,1	17,195033
1,964167	0,1	16,787295
1,965833	0,1	16,336334
1,967500	0,1	15,958979
1,969167	0,1	15,515632
1,970833	0,1	15,158387
1,972500	0,1	14,777381
1,974167	0,1	14,428895
1,975833	0,1	14,100674
1,977500	0,1	13,754013
1,979167	0,1	13,457767
1,980833	0,1	13,148549
1,982500	0,1	12,854289
1,984167	0,1	12,561001
1,985833	0,1	12,304350
1,987500	0,1	11,998682
1,989167	0,1	11,743217
1,990833	0,1	11,528615
1,992500	0,1	11,232696
1,994167	0,1	11,035955
1,995833	0,1	10,755402
1,997500	0,1	10,593854
1,999167	0,1	10,398607
2,000833	0,1	10,186628
2,002500	0,1	9,968887
2,004167	0,1	9,775412
2,005833	0,1	9,572023
2,007500	0,1	9,429531
2,009167	0,1	9,280101
2,010833	0,1	9,129585
2,012500	0,1	8,940200
2,014167	0,1	8,785561
2,015833	0,1	8,644675
2,017500	0,1	8,465790
2,019167	0,1	8,392498
2,020833	0,1	8,240357
2,022500	0,1	8,082769
2,024167	0,1	8,021984
2,025833	0,1	7,920624
2,027500	0,1	7,802398
2,029167	0,1	7,677975
2,030833	0,1	7,573331
2,032500	0,1	7,493326
2,034167	0,1	7,369175
2,035833	0,1	7,327960
2,037500	0,1	7,201350
2,039167	0,1	7,133141
2,040833	0,1	7,034421
2,042500	0,1	7,022583
2,044167	0,1	6,906023
2,045833	0,1	6,850897
2,047500	0,1	6,783810
2,049167	0,1	6,681128
2,050833	0,1	6,681694
2,052500	0,1	6,647542
2,054167	0,1	6,543158
2,055833	0,1	6,511324
2,057500	0,1	6,484435
2,059167	0,1	6,438891
2,060833	0,1	6,332035
2,062500	0,1	6,304875
2,064167	0,1	6,236745
2,065833	0,1	6,257741
2,067500	0,1	6,197879
2,069167	0,1	6,167081
2,070833	0,1	6,133462
2,072500	0,1	6,036061
2,074167	0,1	6,030524
2,075833	0,1	6,031823
2,077500	0,1	5,958331
2,079167	0,1	5,922731
2,080833	0,1	5,922007
2,082500	0,1	5,930217
2,084167	0,1	5,876203
2,085833	0,1	5,825709
2,087500	0,1	5,838195
2,089167	0,1	5,843075
2,090833	0,1	5,777563
2,092500	0,1	5,716941
2,094167	0,1	5,739300
2,095833	0,1	5,710322
2,097500	0,1	5,700483
2,099167	0,1	5,637901
2,100833	0,1	5,630332
2,102500	0,1	5,578838
2,104167	0,1	5,550094
2,105833	0,1	5,588641
2,107500	0,1	5,525394
2,109167	0,1	5,481413
2,110833	0,1	5,437184
2,112500	0,1	5,441719
2,114167	0,1	5,433420
2,115833	0,1	5,394685
2,117500	0,1	5,391457
2,119167	0,1	5,335989
2,120833	0,1	5,312490
2,122500	0,1	5,239553
2,124167	0,1	5,287126
2,125833	0,1	5,208539
2,127500	0,1	5,237223
2,129167	0,1	5,178539
2,130833	0,1	5,158458
2,132500	0,1	5,129684
2,134167	0,1	5,100062
2,135833	0,1	5,094431
2,137500	0,1	5,079558
2,139167	0,1	5,026719
2,140833	0,1	4,944076
2,142500	0,1	4,953066
2,144167	0,1	4,912134
2,145833	0,1	4,910534
2,147500	0,1	4,873320
2,149167	0,1	4,848950
2,150833	0,1	4,830385
2,152500	0,1	4,804482
2,154167	0,1	4,763828
2,155833	0,1	4,749396
2,157500	0,1	4,724353
2,159167	0,1	4,663046
2,160833	0,1	4,642370
2,162500	0,1	4,591891
2,164167	0,1	4,564536
2,165833	0,1	4,514266
2,167500	0,1	4,581126
2,169167	0,1	4,497144
2,170833	0,1	4,441239
2,172500	0,1	4,469165
2,174167	0,1	4,443502
2,175833	0,1	4,375476
2,177500	0,1	4,368859
2,179167	0,1	4,328938
2,180833	0,1	4,293465
2,182500	0,1	4,233511
2,184167	0,1	4,248028
2,185833	0,1	4,187004
2,187500	0,1	4,186388
2,189167	0,1	4,183467
2,190833	0,1	4,129396
2,192500	0,1	4,093793
2,194167	0,1	4,104553
2,195833	0,1	4,036385
2,197500	0,1	4,057885
2,199167	0,1	3,977456
2,200833	0,1	3,978445
2,202500	0,1	3,942617
2,204167	0,1	3,912015
2,205833	0,1	3,900719
2,207500	0,1	3,863061
2,209167	0,1	3,828038
2,210833	0,1	3,803083
2,212500	0,1	3,780876
2,214167	0,1	3,721285
2,215833	0,1	3,697833
2,217500	0,1	3,722272
2,219167	0,1	3,660158
2,220833	0,1	3,620488
2,222500	0,1	3,596969
2,224167	0,1	3,594466
2,225833	0,1	3,528198
2,227500	0,1	3,517932
2,229167	0,1	3,511996
2,230833	0,1	3,478779
2,232500	0,1	3,398729
2,234167	0,1	3,434776
2,235833	0,1	3,421287
2,237500	0,1	3,371728
2,239167	0,1	3,344631
2,240833	0,1	3,307087
2,242500	0,1	3,298752
2,244167	0,1	3,291401
2,245833	0,1	3,247567
2,247500	0,1	3,231466
2,249167	0,1	3,188899
2,250833	0,1	3,134850
2,252500	0,1	3,133184
2,254167	0,1	3,133819
2,255833	0,1	3,103833
2,257500	0,1	3,077206
2,259167	0,1	3,061965
2,260833	0,1	3,011833
2,262500	0,1	2,983748
2,264167	0,1	2,984589
2,265833	0,1	2,954695
2,267500	0,1	2,908839
2,269167	0,1	2,916070
2,270833	0,1	2,878056
2,272500	0,1	2,866015
2,274167	0,1	2,844124
2,275833	0,1	2,831270
2,277500	0,1	2,805442
2,279167	0,1	2,803372
2,280833	0,1	2,761132
2,282500	0,1	2,754456
2,284167	0,1	2,741902
2,285833	0,1	2,722539
2,287500	0,1	2,670484
2,289167	0,1	2,683804
2,290833	0,1	2,643015
2,292500	0,1	2,606659
2,294167	0,1	2,606726
2,295833	0,1	2,569378
2,297500	0,1	2,578757
2,299167	0,1	2,588364
2,300833	0,1	2,523217
2,302500	0,1	2,519259
2,304167	0,1	2,549216
2,305833	0,1	2,504789
2,307500	0,1	2,454040
2,309167	0,1	2,414689
2,310833	0,1	2,443055
2,312500	0,1	2,419201
2,314167	0,1	2,388099
2,315833	0,1	2,384081
2,317500	0,1	2,390888
2,319167	0,1	2,340379
2,320833	0,1	2,349752
2,322500	0,1	2,349543
2,324167	0,1	2,307281
2,325833	0,1	2,276459
2,327500	0,1	2,273735
2,329167	0,1	2,303609
2,330833	0,1	2,241295
2,332500	0,1	2,280314
2,334167	0,1	2,234777
2,335833	0,1	2,238493
2,337500	0,1	2,200958
2,339167	0,1	2,187554
2,340833	0,1	2,156987
2,342500	0,1	2,159123
2,344167	0,1	2,137773
2,345833	0,1	2,143077
2,347500	0,1	2,159681
2,349167	0,1	2,148532
2,350833	0,1	2,151023
2,352500	0,1	2,111215
2,354167	0,1	2,077333
2,355833	0,1	2,079686
2,357500	0,1	2,078893
2,359167	0,1	2,043812
2,360833	0,1	2,045162
2,362500	0,1	2,023047
2,364167	0,1	2,024408
2,365833	0,1	2,035500
2,367500	0,1	1,986539
2,369167	0,1	1,983644
2,370833	0,1	1,971721
2,372500	0,1	1,992124
2,374167	0,1	1,973655
2,375833	0,1	1,921738
2,377500	0,1	1,949207
2,379167	0,1	1,920098
2,380833	0,1	1,923095
2,382500	0,1	1,905047
2,384167	0,1	1,890241
2,385833	0,1	1,884727
2,387500	0,1	1,916023
2,389167	0,1	1,856601
2,390833	0,1	1,860314
2,392500	0,1	1,841008
2,394167	0,1	1,810134
2,395833	0,1	1,842859
2,397500	0,1	1,820477
2,399167	0,1	1,800428
2,400833	0,1	1,799559
2,402500	0,1	1,771720
2,404167	0,1	1,790948
2,405833	0,1	1,783610
2,407500	0,1	1,746891
2,409167	0,1	1,713879
2,410833	0,1	1,717764
2,412500	0,1	1,715190
2,414167	0,1	1,709109
2,415833	0,1	1,695420
2,417500	0,1	1,708338
2,419167	0,1	1,700905
2,420833	0,1	1,705566
2,422500	0,1	1,645373
2,424167	0,1	1,674191
2,425833	0,1	1,611808
2,427500	0,1	1,624956
2,429167	0,1	1,599720
2,430833	0,1	1,592463
2,432500	0,1	1,605181
2,434167	0,1	1,600240
2,435833	0,1	1,572546
2,437500	0,1	1,579465
2,439167	0,1	1,557621
2,440833	0,1	1,563998
2,442500	0,1	1,522454
2,444167	0,1	1,535450
2,445833	0,1	1,561809
2,447500	0,1	1,535479
2,449167	0,1	1,537353
2,450833	0,1	1,506648
2,452500	0,1	1,529384
2,454167	0,1	1,495926
2,455833	0,1	1,520784
2,457500	0,1	1,464482
2,459167	0,1	1,520894
2,460833	0,1	1,442229
2,462500	0,1	1,479924
2,464167	0,1	1,438426
2,465833	0,1	1,426567
2,467500	0,1	1,458245
2,469167	0,1	1,468480
2,470833	0,1	1,417767
2,472500	0,1	1,416889
2,474167	0,1	1,461856
2,475833	0,1	1,403034
2,477500	0,1	1,401266
2,479167	0,1	1,398603
2,480833	0,1	1,399602
2,482500	0,1	1,409186
2,484167	0,1	1,399028
2,485833	0,1	1,384072
2,487500	0,1	1,348664
2,489167	0,1	1,372280
2,490833	0,1	1,371422
2,492500	0,1	1,383312
2,494167	0,1	1,308160
2,495833	0,1	1,368301
2,497500	0,1	1,346643
2,499167	0,1	1,297573
2,500833	0,1	1,359535
2,502500	0,1	1,347904
2,504167	0,1	1,326498
2,505833	0,1	1,318239
2,507500	0,1	1,339111
2,509167	0,1	1,302871
2,510833	0,1	1,304505
2,512500	0,1	1,306501
2,514167	0,1	1,319521
2,515833	0,1	1,325645
2,517500	0,1	1,296681
2,519167	0,1	1,327017
2,520833	0,1	1,278294
2,522500	0,1	1,273269
2,524167	0,1	1,263598
2,525833	0,1	1,252997
2,527500	0,1	1,276589
2,529167	0,1	1,276462
2,530833	0,1	1,274754
2,532500	0,1	1,274646
2,534167	0,1	1,267149
2,535833	0,1	1,277434
2,537500	0,1	1,272115
2,539167	0,1	1,277729
2,540833	0,1	1,275290
2,542500	0,1	1,286687
2,544167	0,1	1,292705
2,545833	0,1	1,257105
2,547500	0,1	1,230553
2,549167	0,1	1,272195
2,550833	0,1	1,303834
2,552500	0,1	1,286782
2,554167	0,1	1,280305
2,555833	0,1	1,276643
2,557500	0,1	1,290323
2,559167	0,1	1,294854
2,560833	0,1	1,292972
2,562500	0,1	1,267065
2,564167	0,1	1,297377
2,565833	0,1	1,285075
2,567500	0,1	1,282389
2,569167	0,1	1,289927
2,570833	0,1	1,306033
2,572500	0,1	1,285232
2,574167	0,1	1,321047
2,575833	0,1	1,332102
2,577500	0,1	1,287499
2,579167	0,1	1,342564
2,580833	0,1	1,354866
2,582500	0,1	1,340207
2,584167	0,1	1,381884
2,585833	0,1	1,327370
2,587500	0,1	1,335964
2,589167	0,1	1,334389
2,590833	0,1	1,339315
2,592500	0,1	1,364115
2,594167	0,1	1,353251
2,595833	0,1	1,353915
2,597500	0,1	1,395308
2,599167	0,1	1,348978
2,600833	0,1	1,394377
2,602500	0,1	1,349888
2,604167	0,1	1,363497
2,605833	0,1	1,370597
2,607500	0,1	1,439995
2,609167	0,1	1,436259
2,610833	0,1	1,420709
2,612500	0,1	1,420750
2,614167	0,1	1,414647
2,615833	0,1	1,443089
2,617500	0,1	1,368112
2,619167	0,1	1,421403
2,620833	0,1	1,407528
2,622500	0,1	1,400448
2,624167	0,1	1,434324
2,625833	0,1	1,456807
2,627500	0,1	1,435512
2,629167	0,1	1,402362
2,630833	0,1	1,403931
2,632500	0,1	1,459593
2,634167	0,1	1,445807
2,635833	0,1	1,423062
2,637500	0,1	1,423547
2,639167	0,1	1,467474
2,640833	0,1	1,435648
2,642500	0,1	1,470762
2,644167	0,1	1,455930
2,645833	0,1	1,424109
2,647500	0,1	1,449042
2,649167	0,1	1,432360
2,650833	0,1	1,427744
2,652500	0,1	1,456180
2,654167	0,1	1,445230
2,655833	0,1	1,419892
2,657500	0,1	1,419285
2,659167	0,1	1,441870
2,660833	0,1	1,460026
2,662500	0,1	1,426859
2,664167	0,1	1,389005
2,665833	0,1	1,418678
2,667500	0,1	1,454363
2,669167	0,1	1,440101
2,670833	0,1	1,427679
2,672500	0,1	1,430027
2,674167	0,1	1,399786
2,675833	0,1	1,403440
2,677500	0,1	1,431304
2,679167	0,1	1,368907
2,680833	0,1	1,432140
2,682500	0,1	1,415472
2,684167	0,1	1,394259
2,685833	0,1	1,374821
2,687500	0,1	1,380606
2,689167	0,1	1,379987
2,690833	0,1	1,383004
2,692500	0,1	1,415173
2,694167	0,1	1,356657
2,695833	0,1	1,377785
2,697500	0,1	1,377634
2,699167	0,1	1,364014
2,700833	0,1	1,380581
2,702500	0,1	1,326171
2,704167	0,1	1,344592
2,705833	0,1	1,295974
2,707500	0,1	1,368098
2,709167	0,1	1,337813
2,710833	0,1	1,360167
2,712500	0,1	1,346708
2,714167	0,1	1,354777
2,715833	0,1	1,322749
2,717500	0,1	1,336983
2,719167	0,1	1,318640
2,720833	0,1	1,308788
2,722500	0,1	1,343011
2,724167	0,1	1,317998
2,725833	0,1	1,332102
2,727500	0,1	1,292067
2,729167	0,1	1,347688
2,730833	0,1	1,302230
2,732500	0,1	1,328837
2,734167	0,1	1,302383
2,735833	0,1	1,283922
2,737500	0,1	1,295940
2,739167	0,1	1,296321
2,740833	0,1	1,308961
2,742500	0,1	1,258263
2,744167	0,1	1,292806
2,745833	0,1	1,313596
2,747500	0,1	1,312182
2,749167	0,1	1,314467
2,750833	0,1	1,317107
2,752500	0,1	1,306949
2,754167	0,1	1,301378
2,755833	0,1	1,326354
2,757500	0,1	1,288651
2,759167	0,1	1,281479
2,760833	0,1	1,297247
2,762500	0,1	1,293213
2,764167	0,1	1,312177
2,765833	0,1	1,331034
2,767500	0,1	1,287921
2,769167	0,1	1,280612
2,770833	0,1	1,300063
2,772500	0,1	1,284918
2,774167	0,1	1,314149
2,775833	0,1	1,340928
2,777500	0,1	1,312275
2,779167	0,1	1,333432
2,780833	0,1	1,361118
2,782500	0,1	1,325257
2,784167	0,1	1,371808
2,785833	0,1	1,298774
2,787500	0,1	1,311734
2,789167	0,1	1,341260
2,790833	0,1	1,334635
2,792500	0,1	1,379287
2,794167	0,1	1,368007
2,795833	0,1	1,399372
2,797500	0,1	1,372316
2,799167	0,1	1,368383
2,800833	0,1	1,333111
2,802500	0,1	1,310878
2,804167	0,1	1,356012
2,805833	0,1	1,326853
2,807500	0,1	1,393928
2,809167	0,1	1,393121
2,810833	0,1	1,401021
2,812500	0,1	1,344054
2,814167	0,1	1,387232
2,815833	0,1	1,355032
2,817500	0,1	1,354003
2,819167	0,1	1,410816
2,820833	0,1	1,398828
2,822500	0,1	1,352706
2,824167	0,1	1,362811
2,825833	0,1	1,383643
2,827500	0,1	1,399222
2,829167	0,1	1,396982
2,830833	0,1	1,352195
2,832500	0,1	1,367557
2,834167	0,1	1,385528
2,835833	0,1	1,355919
2,837500	0,1	1,322106
2,839167	0,1	1,348339
2,840833	0,1	1,377937
2,842500	0,1	1,341034
2,844167	0,1	1,361809
2,845833	0,1	1,325390
2,847500	0,1	1,341553
2,849167	0,1	1,312611
2,850833	0,1	1,295033
2,852500	0,1	1,332428
2,854167	0,1	1,282467
2,855833	0,1	1,308804
2,857500	0,1	1,295634
2,859167	0,1	1,262365
2,860833	0,1	1,244456
2,862500	0,1	1,281377
2,864167	0,1	1,255129
2,865833	0,1	1,246564
2,867500	0,1	1,279520
2,869167	0,1	1,233972
2,870833	0,1	1,246823
2,872500	0,1	1,267186
2,874167	0,1	1,241448
2,875833	0,1	1,250445
2,877500	0,1	1,203410
2,879167	0,1	1,189936
2,880833	0,1	1,188160
2,882500	0,1	1,151507
2,884167	0,1	1,175290
2,885833	0,1	1,171752
2,887500	0,1	1,164588
2,889167	0,1	1,133170
2,890833	0,1	1,166020
2,892500	0,1	1,136426
2,894167	0,1	1,104849
2,895833	0,1	1,077615
2,897500	0,1	1,097447
2,899167	0,1	1,085524
2,900833	0,1	1,095296
2,902500	0,1	1,054182
2,904167	0,1	1,053817
2,905833	0,1	1,067372
2,907500	0,1	1,042027
2,909167	0,1	1,045336
2,910833	0,1	0,994099
2,912500	0,1	1,016324
2,914167	0,1	1,027126
2,915833	0,1	0,972825
2,917500	0,1	0,970560
2,919167	0,1	0,993476
2,920833	0,1	0,981970
2,922500	0,1	0,957868
2,924167	0,1	0,953363
2,925833	0,1	0,962230
2,927500	0,1	0,950563
2,929167	0,1	0,907409
2,930833	0,1	0,917649
2,932500	0,1	0,928706
2,934167	0,1	0,908143
2,935833	0,1	0,899238
2,937500	0,1	0,872728
2,939167	0,1	0,837702
2,940833	0,1	0,887557
2,942500	0,1	0,858909
2,944167	0,1	0,903596
2,945833	0,1	0,841757
2,947500	0,1	0,858963
2,949167	0,1	0,831530
2,950833	0,1	0,815011
2,952500	0,1	0,840741
2,954167	0,1	0,817939
2,955833	0,1	0,819475
2,957500	0,1	0,797406
2,959167	0,1	0,802315
2,960833	0,1	0,806139
2,962500	0,1	0,802125
2,964167	0,1	0,749988
2,965833	0,1	0,765393
2,967500	0,1	0,758365
2,969167	0,1	0,766552
2,970833	0,1	0,739897
2,972500	0,1	0,749909
2,974167	0,1	0,743232
2,975833	0,1	0,724087
2,977500	0,1	0,755626
2,979167	0,1	0,716705
2,980833	0,1	0,734809
2,982500	0,1	0,690041
2,984167	0,1	0,759891
2,985833	0,1	0,730387
2,987500	0,1	0,717887
2,989167	0,1	0,711749
2,990833	0,1	0,699734
2,992500	0,1	0,715629
2,994167	0,1	0,653139
2,995833	0,1	0,696381
2,997500	0,1	0,674553
2,999167	0,1	0,674006
3,000833	0,1	0,671654
3,002500	0,1	0,691635
3,004167	0,1	0,635150
3,005833	0,1	0,672126
3,007500	0,1	0,695201
3,009167	0,1	0,738375
3,010833	0,1	0,669328
3,012500	0,1	0,696258
3,014167	0,1	0,657212
3,015833	0,1	0,663110
3,017500	0,1	0,671434
3,019167	0,1	0,689129
3,020833	0,1	0,655955
3,022500	0,1	0,653893
3,024167	0,1	0,644611
3,025833	0,1	0,678395
3,027500	0,1	0,658619
3,029167	0,1	0,658263
3,030833	0,1	0,662497
3,032500	0,1	0,604163
3,034167	0,1	0,625695
3,035833	0,1	0,608124
3,037500	0,1	0,656007
3,039167	0,1	0,638387
3,040833	0,1	0,651156
3,042500	0,1	0,644964
3,044167	0,1	0,639372
3,045833	0,1	0,664744
3,047500	0,1	0,654736
3,049167	0,1	0,668961
3,050833	0,1	0,615426
3,052500	0,1	0,644702
3,054167	0,1	0,626436
3,055833	0,1	0,624315
3,057500	0,1	0,647336
3,059167	0,1	0,598369
3,060833	0,1	0,636764
3,062500	0,1	0,647149
3,064167	0,1	0,620530
3,065833	0,1	0,596538
3,067500	0,1	0,605421
3,069167	0,1	0,598134
3,070833	0,1	0,581299
3,072500	0,1	0,609154
3,074167	0,1	0,544195
3,075833	0,1	0,581824
3,077500	0,1	0,604813
3,079167	0,1	0,614414
3,080833	0,1	0,593010
3,082500	0,1	0,618590
3,084167	0,1	0,598979
3,085833	0,1	0,581700
3,087500	0,1	0,606677
3,089167	0,1	0,546952
3,090833	0,1	0,598773
3,092500	0,1	0,546371
3,094167	0,1	0,577908
3,095833	0,1	0,572441
3,097500	0,1	0,586515
3,099167	0,1	0,582202
3,100833	0,1	0,549677
3,102500	0,1	0,560786
3,104167	0,1	0,569427
3,105833	0,1	0,557871
3,107500	0,1	0,556041
3,109167	0,1	0,540279
3,110833	0,1	0,521140
3,112500	0,1	0,509955
3,114167	0,1	0,553878
3,115833	0,1	0,512796
3,117500	0,1	0,562199
3,119167	0,1	0,535244
3,120833	0,1	0,536157
3,122500	0,1	0,514907
3,124167	0,1	0,507386
3,125833	0,1	0,511915
3,127500	0,1	0,493714
3,129167	0,1	0,495964
3,130833	0,1	0,509344
3,132500	0,1	0,512746
3,134167	0,1	0,531482
3,135833	0,1	0,512751
3,137500	0,1	0,518665
3,139167	0,1	0,473673
3,140833	0,1	0,511391
3,142500	0,1	0,509311
3,144167	0,1	0,512369
3,145833	0,1	0,462836
3,147500	0,1	0,457131
3,149167	0,1	0,454085
3,150833	0,1	0,493926
3,152500	0,1	0,487164
3,154167	0,1	0,483474
3,155833	0,1	0,475503
3,157500	0,1	0,439450
3,159167	0,1	0,479094
3,160833	0,1	0,452102
3,162500	0,1	0,429462
3,164167	0,1	0,418936
3,165833	0,1	0,467016
3,167500	0,1	0,446759
3,169167	0,1	0,452258
3,170833	0,1	0,455281
3,172500	0,1	0,418199
3,174167	0,1	0,426160
3,175833	0,1	0,428480
3,177500	0,1	0,410739
3,179167	0,1	0,442307
3,180833	0,1	0,410761
3,182500	0,1	0,405724
3,184167	0,1	0,401765
3,185833	0,1	0,427479
3,187500	0,1	0,408540
3,189167	0,1	0,423174
3,190833	0,1	0,428854
3,192500	0,1	0,389307
3,194167	0,1	0,407952
3,195833	0,1	0,436553
3,197500	0,1	0,396763
3,199167	0,1	0,402985
3,200833	0,1	0,420629
3,202500	0,1	0,391270
3,204167	0,1	0,381927
3,205833	0,1	0,429691
3,207500	0,1	0,374090
3,209167	0,1	0,402171
3,210833	0,1	0,386815
3,212500	0,1	0,402816
3,214167	0,1	0,405593
3,215833	0,1	0,403753
3,217500	0,1	0,361286
3,219167	0,1	0,364341
3,220833	0,1	0,375895
3,222500	0,1	0,385607
3,224167	0,1	0,379564
3,225833	0,1	0,397368
3,227500	0,1	0,391680
3,229167	0,1	0,362587
3,230833	0,1	0,376081
3,232500	0,1	0,394014
3,234167	0,1	0,380808
3,235833	0,1	0,367100
3,237500	0,1	0,404012
3,239167	0,1	0,357085
3,240833	0,1	0,364444
3,242500	0,1	0,346806
3,244167	0,1	0,374005
3,245833	0,1	0,376683
3,247500	0,1	0,335939
3,249167	0,1	0,347336
3,250833	0,1	0,396430
3,252500	0,1	0,357703
3,254167	0,1	0,329331
3,255833	0,1	0,344851
3,257500	0,1	0,349927
3,259167	0,1	0,325912
3,260833	0,1	0,374022
3,262500	0,1	0,380721
3,264167	0,1	0,326955
3,265833	0,1	0,357686
3,267500	0,1	0,349890
3,269167	0,1	0,348418
3,270833	0,1	0,364980
3,272500	0,1	0,344217
3,274167	0,1	0,388311
3,275833	0,1	0,364203
3,277500	0,1	0,319954
3,279167	0,1	0,334540
3,280833	0,1	0,368992
3,282500	0,1	0,353970
3,284167	0,1	0,375250
3,285833	0,1	0,353496
3,287500	0,1	0,288404
3,289167	0,1	0,362045
3,290833	0,1	0,351980
3,292500	0,1	0,316078
3,294167	0,1	0,371846
3,295833	0,1	0,336022
3,297500	0,1	0,317628
3,299167	0,1	0,378615
3,300833	0,1	0,362005
3,302500	0,1	0,373884
3,304167	0,1	0,376559
3,305833	0,1	0,362066
3,307500	0,1	0,344362
3,309167	0,1	0,298793
3,310833	0,1	0,331202
3,312500	0,1	0,317317
3,314167	0,1	0,328639
3,315833	0,1	0,342057
3,317500	0,1	0,363881
3,319167	0,1	0,367551
3,320833	0,1	0,356765
3,322500	0,1	0,350509
3,324167	0,1	0,329165
3,325833	0,1	0,365038
3,327500	0,1	0,320865
3,329167	0,1	0,319178
3,330833	0,1	0,359114
3,332500	0,1	0,368585
3,334167	0,1	0,371816
3,335833	0,1	0,377573
3,337500	0,1	0,343951
3,339167	0,1	0,346510
3,340833	0,1	0,351852
3,342500	0,1	0,353634
3,344167	0,1	0,342476
3,345833	0,1	0,372101
3,347500	0,1	0,338713
3,349167	0,1	0,381023
3,350833	0,1	0,372814
3,352500	0,1	0,371113
3,354167	0,1	0,341776
3,355833	0,1	0,359513
3,357500	0,1	0,330779
3,359167	0,1	0,348971
3,360833	0,1	0,365808
3,362500	0,1	0,331094
3,364167	0,1	0,350420
3,365833	0,1	0,346139
3,367500	0,1	0,367029
3,369167	0,1	0,362437
3,370833	0,1	0,368461
3,372500	0,1	0,385357
3,374167	0,1	0,374201
3,375833	0,1	0,384116
3,377500	0,1	0,356065
3,379167	0,1	0,392063
3,380833	0,1	0,373210
3,382500	0,1	0,368421
3,384167	0,1	0,391732
3,385833	0,1	0,333934
3,387500	0,1	0,396364
3,389167	0,1	0,349775
3,390833	0,1	0,347196
3,392500	0,1	0,380466
3,394167	0,1	0,375919
3,395833	0,1	0,375960
3,397500	0,1	0,377450
3,399167	0,1	0,369666
3,400833	0,1	0,368898
3,402500	0,1	0,391362
3,404167	0,1	0,361946
3,405833	0,1	0,389373
3,407500	0,1	0,383623
3,409167	0,1	0,374511
3,410833	0,1	0,377430
3,412500	0,1	0,405898
3,414167	0,1	0,404146
3,415833	0,1	0,396713
3,417500	0,1	0,338533
3,419167	0,1	0,409595
3,420833	0,1	0,419802
3,422500	0,1	0,411810
3,424167	0,1	0,385783
3,425833	0,1	0,392070
3,427500	0,1	0,383954
3,429167	0,1	0,394222
3,430833	0,1	0,366088
3,432500	0,1	0,390117
3,434167	0,1	0,404100
3,435833	0,1	0,398969
3,437500	0,1	0,369132
3,439167	0,1	0,388857
3,440833	0,1	0,416876
3,442500	0,1	0,419058
3,444167	0,1	0,388765
3,445833	0,1	0,365363
3,447500	0,1	0,381174
3,449167	0,1	0,388238
3,450833	0,1	0,412816
3,452500	0,1	0,419802
3,454167	0,1	0,401933
3,455833	0,1	0,422635
3,457500	0,1	0,383467
3,459167	0,1	0,416711
3,460833	0,1	0,407896
3,462500	0,1	0,399180
3,464167	0,1	0,343668
3,465833	0,1	0,357421
3,467500	0,1	0,436472
3,469167	0,1	0,370673
3,470833	0,1	0,381797
3,472500	0,1	0,362338
3,474167	0,1	0,425505
3,475833	0,1	0,398374
3,477500	0,1	0,420378
3,479167	0,1	0,390920
3,480833	0,1	0,390022
3,482500	0,1	0,393706
3,484167	0,1	0,409112
3,485833	0,1	0,406031
3,487500	0,1	0,413899
3,489167	0,1	0,413405
3,490833	0,1	0,413695
3,492500	0,1	0,394252
3,494167	0,1	0,432862
3,495833	0,1	0,396327
3,497500	0,1	0,385903
3,499167	0,1	0,399731
3,500833	0,1	0,406733
3,502500	0,1	0,413278
3,504167	0,1	0,420774
3,505833	0,1	0,393900
3,507500	0,1	0,459119
3,509167	0,1	0,400060
3,510833	0,1	0,463364
3,512500	0,1	0,418326
3,514167	0,1	0,364768
3,515833	0,1	0,406226
3,517500	0,1	0,404684
3,519167	0,1	0,412449
3,520833	0,1	0,399075
3,522500	0,1	0,409051
3,524167	0,1	0,406280
3,525833	0,1	0,431497
3,527500	0,1	0,415376
3,529167	0,1	0,443013
3,530833	0,1	0,414383
3,532500	0,1	0,412100
3,534167	0,1	0,396551
3,535833	0,1	0,392509
3,537500	0,1	0,424558
3,539167	0,1	0,440323
3,540833	0,1	0,441673
3,542500	0,1	0,390303
3,544167	0,1	0,397580
3,545833	0,1	0,436284
3,547500	0,1	0,440825
3,549167	0,1	0,432460
3,550833	0,1	0,392518
3,552500	0,1	0,386378
3,554167	0,1	0,397101
3,555833	0,1	0,427086
3,557500	0,1	0,412165
3,559167	0,1	0,443758
3,560833	0,1	0,393885
3,562500	0,1	0,405759
3,564167	0,1	0,417563
3,565833	0,1	0,414003
3,567500	0,1	0,449144
3,569167	0,1	0,405359
3,570833	0,1	0,418267
3,572500	0,1	0,401789
3,574167	0,1	0,407087
3,575833	0,1	0,418517
3,577500	0,1	0,422143
3,579167	0,1	0,481823
3,580833	0,1	0,412797
3,582500	0,1	0,411621
3,584167	0,1	0,413547
3,585833	0,1	0,358908
3,587500	0,1	0,409332
3,589167	0,1	0,392282
3,590833	0,1	0,408657
3,592500	0,1	0,415433
3,594167	0,1	0,408517
3,595833	0,1	0,451960
3,597500	0,1	0,406064
3,599167	0,1	0,382405
3,600833	0,1	0,426856
3,602500	0,1	0,388518
3,604167	0,1	0,380227
3,605833	0,1	0,373931
3,607500	0,1	0,406477
3,609167	0,1	0,421477
3,610833	0,1	0,405971
3,612500	0,1	0,384229
3,614167	0,1	0,406771
3,615833	0,1	0,419447
3,617500	0,1	0,400506
3,619167	0,1	0,394517
3,620833	0,1	0,398325
3,622500	0,1	0,406275
3,624167	0,1	0,400731
3,625833	0,1	0,420709
3,627500	0,1	0,400836
3,629167	0,1	0,391989
3,630833	0,1	0,376212
3,632500	0,1	0,374863
3,634167	0,1	0,383040
3,635833	0,1	0,415983
3,637500	0,1	0,379696
3,639167	0,1	0,377202
3,640833	0,1	0,412172
3,642500	0,1	0,411413
3,644167	0,1	0,352054
3,645833	0,1	0,381213
3,647500	0,1	0,370866
3,649167	0,1	0,392129
3,650833	0,1	0,387494
3,652500	0,1	0,371719
3,654167	0,1	0,377553
3,655833	0,1	0,388961
3,657500	0,1	0,397370
3,659167	0,1	0,375674
3,660833	0,1	0,362357
3,662500	0,1	0,336723
3,664167	0,1	0,353072
3,665833	0,1	0,360095
3,667500	0,1	0,372000
3,669167	0,1	0,380161
3,670833	0,1	0,379750
3,672500	0,1	0,345858
3,674167	0,1	0,354026
3,675833	0,1	0,349185
3,677500	0,1	0,294364
3,679167	0,1	0,377512
3,680833	0,1	0,346539
3,682500	0,1	0,371044
3,684167	0,1	0,363640
3,685833	0,1	0,344695
3,687500	0,1	0,342061
3,689167	0,1	0,403239
3,690833	0,1	0,369443
3,692500	0,1	0,345338
3,694167	0,1	0,381376
3,695833	0,1	0,305964
3,697500	0,1	0,395506
3,699167	0,1	0,364867
3,700833	0,1	0,350387
3,702500	0,1	0,351296
3,704167	0,1	0,312684
3,705833	0,1	0,348449
3,707500	0,1	0,330965
3,709167	0,1	0,371187
3,710833	0,1	0,411528
3,712500	0,1	0,381018
3,714167	0,1	0,385981
3,715833	0,1	0,356748
3,717500	0,1	0,353263
3,719167	0,1	0,381276
3,720833	0,1	0,321118
3,722500	0,1	0,327003
3,724167	0,1	0,382655
3,725833	0,1	0,350764
3,727500	0,1	0,329599
3,729167	0,1	0,395617
3,730833	0,1	0,340436
3,732500	0,1	0,366075
3,734167	0,1	0,391735
3,735833	0,1	0,392776
3,737500	0,1	0,375342
3,739167	0,1	0,407948
3,740833	0,1	0,377582
3,742500	0,1	0,390824
3,744167	0,1	0,395881
3,745833	0,1	0,413151
3,747500	0,1	0,422721
3,749167	0,1	0,419844
3,750833	0,1	0,393032
3,752500	0,1	0,392155
3,754167	0,1	0,393480
3,755833	0,1	0,439572
3,757500	0,1	0,449275
3,759167	0,1	0,465285
3,760833	0,1	0,416481
3,762500	0,1	0,433925
3,764167	0,1	0,460061
3,765833	0,1	0,402607
3,767500	0,1	0,471318
3,769167	0,1	0,472080
3,770833	0,1	0,430854
3,772500	0,1	0,459832
3,774167	0,1	0,473837
3,775833	0,1	0,472785
3,777500	0,1	0,454935
3,779167	0,1	0,497239
3,780833	0,1	0,511624
3,782500	0,1	0,471485
3,784167	0,1	0,469559
3,785833	0,1	0,477112
3,787500	0,1	0,463595
3,789167	0,1	0,529177
3,790833	0,1	0,509303
3,792500	0,1	0,516575
3,794167	0,1	0,513304
3,795833	0,1	0,542748
3,797500	0,1	0,505920
3,799167	0,1	0,504062
3,800833	0,1	0,510796
3,802500	0,1	0,515957
3,804167	0,1	0,572816
3,805833	0,1	0,548340
3,807500	0,1	0,522691
3,809167	0,1	0,519977
3,810833	0,1	0,544739
3,812500	0,1	0,505378
3,814167	0,1	0,532070
3,815833	0,1	0,531662
3,817500	0,1	0,544642
3,819167	0,1	0,550007
3,820833	0,1	0,529638
3,822500	0,1	0,504381
3,824167	0,1	0,577155
3,825833	0,1	0,530803
3,827500	0,1	0,545257
3,829167	0,1	0,519529
3,830833	0,1	0,553817
3,832500	0,1	0,568720
3,834167	0,1	0,518413
3,835833	0,1	0,543064
3,837500	0,1	0,563581
3,839167	0,1	0,522744
3,840833	0,1	0,577549
3,842500	0,1	0,529055
3,844167	0,1	0,530666
3,845833	0,1	0,540499
3,847500	0,1	0,526667
3,849167	0,1	0,509163
3,850833	0,1	0,497588
3,852500	0,1	0,541523
3,854167	0,1	0,527144
3,855833	0,1	0,524082
3,857500	0,1	0,506001
3,859167	0,1	0,511564
3,860833	0,1	0,533041
3,862500	0,1	0,528049
3,864167	0,1	0,554272
3,865833	0,1	0,469532
3,867500	0,1	0,517294
3,869167	0,1	0,504995
3,870833	0,1	0,516902
3,872500	0,1	0,496095
3,874167	0,1	0,527838
3,875833	0,1	0,505274
3,877500	0,1	0,469379
3,879167	0,1	0,509149
3,880833	0,1	0,482408
3,882500	0,1	0,442825
3,884167	0,1	0,493923
3,885833	0,1	0,474778
3,887500	0,1	0,443732
3,889167	0,1	0,492225
3,890833	0,1	0,493536
3,892500	0,1	0,463332
3,894167	0,1	0,478232
3,895833	0,1	0,481774
3,897500	0,1	0,427044
3,899167	0,1	0,458509
3,900833	0,1	0,458329
3,902500	0,1	0,416211
3,904167	0,1	0,441941
3,905833	0,1	0,455295
3,907500	0,1	0,412978
3,909167	0,1	0,456205
3,910833	0,1	0,433685
3,912500	0,1	0,443142
3,914167	0,1	0,404051
3,915833	0,1	0,400419
3,917500	0,1	0,422697
3,919167	0,1	0,398662
3,920833	0,1	0,391078
3,922500	0,1	0,412094
3,924167	0,1	0,345512
3,925833	0,1	0,402102
3,927500	0,1	0,408927
3,929167	0,1	0,380005
3,930833	0,1	0,352233
3,932500	0,1	0,409268
3,934167	0,1	0,397562
3,935833	0,1	0,332571
3,937500	0,1	0,374148
3,939167	0,1	0,363971
3,940833	0,1	0,348523
3,942500	0,1	0,343987
3,944167	0,1	0,360506
3,945833	0,1	0,364816
3,947500	0,1	0,375728
3,949167	0,1	0,333642
3,950833	0,1	0,385783
3,952500	0,1	0,312692
3,954167	0,1	0,359215
3,955833	0,1	0,351918
3,957500	0,1	0,336990
3,959167	0,1	0,353838
3,960833	0,1	0,309537
3,962500	0,1	0,332321
3,964167	0,1	0,339698
3,965833	0,1	0,330154
3,967500	0,1	0,335680
3,969167	0,1	0,310445
3,970833	0,1	0,339008
3,972500	0,1	0,301111
3,974167	0,1	0,295512
3,975833	0,1	0,292776
3,977500	0,1	0,320455
3,979167	0,1	0,311003
3,980833	0,1	0,299511
3,982500	0,1	0,361530
3,984167	0,1	0,300763
3,985833	0,1	0,291703
3,987500	0,1	0,326996
3,989167	0,1	0,290549
3,990833	0,1	0,286031
3,992500	0,1	0,320288
3,994167	0,1	0,310609
3,995833	0,1	0,270838
3,997500	0,1	0,297306
3,999167	0,1	0,274149
4,000833	0,1	0,258743
4,002500	0,1	0,292396
4,004167	0,1	0,268249
4,005833	0,1	0,288198
4,007500	0,1	0,278639
4,009167	0,1	0,287040
4,010833	0,1	0,268951
4,012500	0,1	0,288654
4,014167	0,1	0,262330
4,015833	0,1	0,287036
4,017500	0,1	0,268248
4,019167	0,1	0,281280
4,020833	0,1	0,288884
4,022500	0,1	0,272555
4,024167	0,1	0,285155
4,025833	0,1	0,313167
4,027500	0,1	0,334454
4,029167	0,1	0,286824
4,030833	0,1	0,286380
4,032500	0,1	0,291867
4,034167	0,1	0,304888
4,035833	0,1	0,314040
4,037500	0,1	0,294046
4,039167	0,1	0,263696
4,040833	0,1	0,288135
4,042500	0,1	0,282198
4,044167	0,1	0,314491
4,045833	0,1	0,326546
4,047500	0,1	0,310527
4,049167	0,1	0,294581
4,050833	0,1	0,305757
4,052500	0,1	0,322984
4,054167	0,1	0,337272
4,055833	0,1	0,308355
4,057500	0,1	0,367973
4,059167	0,1	0,368793
4,060833	0,1	0,347241
4,062500	0,1	0,353840
4,064167	0,1	0,358481
4,065833	0,1	0,361544
4,067500	0,1	0,407508
4,069167	0,1	0,424645
4,070833	0,1	0,380383
4,072500	0,1	0,370558
4,074167	0,1	0,382439
4,075833	0,1	0,392670
4,077500	0,1	0,417417
4,079167	0,1	0,438645
4,080833	0,1	0,448404
4,082500	0,1	0,441324
4,084167	0,1	0,479056
4,085833	0,1	0,434104
4,087500	0,1	0,448716
4,089167	0,1	0,496532
4,090833	0,1	0,501968
4,092500	0,1	0,493649
4,094167	0,1	0,498241
4,095833	0,1	0,527196
4,097500	0,1	0,520495
4,099167	0,1	0,529002
4,100833	0,1	0,527846
4,102500	0,1	0,528928
4,104167	0,1	0,543282
4,105833	0,1	0,591382
4,107500	0,1	0,588762
4,109167	0,1	0,610756
4,110833	0,1	0,595767
4,112500	0,1	0,656736
4,114167	0,1	0,616742
4,115833	0,1	0,647144
4,117500	0,1	0,634434
4,119167	0,1	0,680419
4,120833	0,1	0,676674
4,122500	0,1	0,671274
4,124167	0,1	0,701206
4,125833	0,1	0,758702
4,127500	0,1	0,739508
4,129167	0,1	0,735297
4,130833	0,1	0,717241
4,132500	0,1	0,754499
4,134167	0,1	0,805356
4,135833	0,1	0,740034
4,137500	0,1	0,785984
4,139167	0,1	0,822839
4,140833	0,1	0,780379
4,142500	0,1	0,770769
4,144167	0,1	0,805201
4,145833	0,1	0,842119
4,147500	0,1	0,854177
4,149167	0,1	0,867962
4,150833	0,1	0,895951
4,152500	0,1	0,862509
4,154167	0,1	0,898391
4,155833	0,1	0,903412
4,157500	0,1	0,908199
4,159167	0,1	0,940493
4,160833	0,1	0,908049
4,162500	0,1	0,933845
4,164167	0,1	0,924113
4,165833	0,1	0,936933
4,167500	0,1	0,937126
4,169167	0,1	0,976815
4,170833	0,1	0,977300
4,172500	0,1	0,968821
4,174167	0,1	0,947452
4,175833	0,1	0,993498
4,177500	0,1	0,988620
4,179167	0,1	0,965452
4,180833	0,1	1,026249
4,182500	0,1	1,031116
4,184167	0,1	1,010838
4,185833	0,1	1,007619
4,187500	0,1	1,033040
4,189167	0,1	1,028967
4,190833	0,1	1,024754
4,192500	0,1	1,050560
4,194167	0,1	1,022030
4,195833	0,1	1,029924
4,197500	0,1	1,020089
4,199167	0,1	1,052487
4,200833	0,1	1,046606
4,202500	0,1	1,061810
4,204167	0,1	1,047512
4,205833	0,1	1,042786
4,207500	0,1	1,034819
4,209167	0,1	1,020581
4,210833	0,1	1,052197
4,212500	0,1	1,013804
4,214167	0,1	1,072636
4,215833	0,1	1,028333
4,217500	0,1	1,042557
4,219167	0,1	1,052744
4,220833	0,1	1,051983
4,222500	0,1	1,027591
4,224167	0,1	1,001968
4,225833	0,1	1,039626
4,227500	0,1	1,019514
4,229167	0,1	1,034133
4,230833	0,1	1,030280
4,232500	0,1	0,999808
4,234167	0,1	0,982713
4,235833	0,1	0,992091
4,237500	0,1	0,986503
4,239167	0,1	1,001186
4,240833	0,1	1,004916
4,242500	0,1	1,047237
4,244167	0,1	1,013635
4,245833	0,1	0,998779
4,247500	0,1	0,942605
4,249167	0,1	1,058636
4,250833	0,1	1,001268
4,252500	0,1	0,986181
4,254167	0,1	1,022359
4,255833	0,1	0,954599
4,257500	0,1	0,966211
4,259167	0,1	0,928106
4,260833	0,1	0,959718
4,262500	0,1	0,965381
4,264167	0,1	0,948024
4,265833	0,1	0,984168
4,267500	0,1	0,925156
4,269167	0,1	0,925267
4,270833	0,1	0,929346
4,272500	0,1	0,906119
4,274167	0,1	0,953151
4,275833	0,1	0,870299
4,277500	0,1	0,901154
4,279167	0,1	0,937311
4,280833	0,1	0,893462
4,282500	0,1	0,893287
4,284167	0,1	0,869867
4,285833	0,1	0,882135
4,287500	0,1	0,887536
4,289167	0,1	0,875520
4,290833	0,1	0,858713
4,292500	0,1	0,825396
4,294167	0,1	0,834285
4,295833	0,1	0,861692
4,297500	0,1	0,853377
4,299167	0,1	0,843256
4,300833	0,1	0,862144
4,302500	0,1	0,829509
4,304167	0,1	0,820987
4,305833	0,1	0,840036
4,307500	0,1	0,794039
4,309167	0,1	0,835820
4,310833	0,1	0,739817
4,312500	0,1	0,805354
4,314167	0,1	0,833317
4,315833	0,1	0,807174
4,317500	0,1	0,800263
4,319167	0,1	0,738779
4,320833	0,1	0,803459
4,322500	0,1	0,776106
4,324167	0,1	0,757950
4,325833	0,1	0,773976
4,327500	0,1	0,761420
4,329167	0,1	0,764661
4,330833	0,1	0,743427
4,332500	0,1	0,736807
4,334167	0,1	0,708960
4,335833	0,1	0,746115
4,337500	0,1	0,776444
4,339167	0,1	0,759366
4,340833	0,1	0,736974
4,342500	0,1	0,740791
4,344167	0,1	0,692364
4,345833	0,1	0,722344
4,347500	0,1	0,702024
4,349167	0,1	0,687825
4,350833	0,1	0,689070
4,352500	0,1	0,674806
4,354167	0,1	0,699540
4,355833	0,1	0,666686
4,357500	0,1	0,686375
4,359167	0,1	0,694017
4,360833	0,1	0,683778
4,362500	0,1	0,699733
4,364167	0,1	0,670031
4,365833	0,1	0,653905
4,367500	0,1	0,621689
4,369167	0,1	0,682413
4,370833	0,1	0,651719
4,372500	0,1	0,639806
4,374167	0,1	0,674005
4,375833	0,1	0,648469
4,377500	0,1	0,618929
4,379167	0,1	0,616129
4,380833	0,1	0,650482
4,382500	0,1	0,644555
4,384167	0,1	0,615338
4,385833	0,1	0,651095
4,387500	0,1	0,600686
4,389167	0,1	0,621360
4,390833	0,1	0,605149
4,392500	0,1	0,593611
4,394167	0,1	0,625139
4,395833	0,1	0,602933
4,397500	0,1	0,617318
4,399167	0,1	0,615132
4,400833	0,1	0,619437
4,402500	0,1	0,596057
4,404167	0,1	0,594904
4,405833	0,1	0,574419
4,407500	0,1	0,575536
4,409167	0,1	0,599937
4,410833	0,1	0,536147
4,412500	0,1	0,608890
4,414167	0,1	0,562210
4,415833	0,1	0,545871
4,417500	0,1	0,565165
4,419167	0,1	0,563082
4,420833	0,1	0,565007
4,422500	0,1	0,561180
4,424167	0,1	0,561053
4,425833	0,1	0,513377
4,427500	0,1	0,503696
4,429167	0,1	0,483603
4,430833	0,1	0,523215
4,432500	0,1	0,543923
4,434167	0,1	0,500079
4,435833	0,1	0,481450
4,437500	0,1	0,502530
4,439167	0,1	0,532598
4,440833	0,1	0,511521
4,442500	0,1	0,500813
4,444167	0,1	0,472109
4,445833	0,1	0,508194
4,447500	0,1	0,463577
4,449167	0,1	0,494031
4,450833	0,1	0,459496
4,452500	0,1	0,452177
4,454167	0,1	0,511337
4,455833	0,1	0,461943
4,457500	0,1	0,446751
4,459167	0,1	0,449981
4,460833	0,1	0,448118
4,462500	0,1	0,442050
4,464167	0,1	0,442644
4,465833	0,1	0,408567
4,467500	0,1	0,403918
4,469167	0,1	0,438579
4,470833	0,1	0,401750
4,472500	0,1	0,412240
4,474167	0,1	0,417359
4,475833	0,1	0,405825
4,477500	0,1	0,391888
4,479167	0,1	0,434124
4,480833	0,1	0,374048
4,482500	0,1	0,386000
4,484167	0,1	0,400971
4,485833	0,1	0,385863
4,487500	0,1	0,387411
4,489167	0,1	0,403045
4,490833	0,1	0,412404
4,492500	0,1	0,389591
4,494167	0,1	0,397576
4,495833	0,1	0,402525
4,497500	0,1	0,394517
4,499167	0,1	0,322860
4,500833	0,1	0,378203
4,502500	0,1	0,373082
4,504167	0,1	0,338899
4,505833	0,1	0,390173
4,507500	0,1	0,355943
4,509167	0,1	0,370241
4,510833	0,1	0,323828
4,512500	0,1	0,337833
4,514167	0,1	0,347587
4,515833	0,1	0,335042
4,517500	0,1	0,314857
4,519167	0,1	0,320088
4,520833	0,1	0,302493
4,522500	0,1	0,262000
4,524167	0,1	0,341501
4,525833	0,1	0,362140
4,527500	0,1	0,321736
4,529167	0,1	0,284216
4,530833	0,1	0,299399
4,532500	0,1	0,296424
4,534167	0,1	0,294104
4,535833	0,1	0,292966
4,537500	0,1	0,247161
4,539167	0,1	0,302065
4,540833	0,1	0,270238
4,542500	0,1	0,238235
4,544167	0,1	0,299393
4,545833	0,1	0,255645
4,547500	0,1	0,276915
4,549167	0,1	0,261977
4,550833	0,1	0,235042
4,552500	0,1	0,272213
4,554167	0,1	0,294742
4,555833	0,1	0,247717
4,557500	0,1	0,239925
4,559167	0,1	0,253372
4,560833	0,1	0,201845
4,562500	0,1	0,227477
4,564167	0,1	0,285977
4,565833	0,1	0,241904
4,567500	0,1	0,209707
4,569167	0,1	0,180433
4,570833	0,1	0,240550
4,572500	0,1	0,215649
4,574167	0,1	0,212435
4,575833	0,1	0,205289
4,577500	0,1	0,215657
4,579167	0,1	0,219343
4,580833	0,1	0,237993
4,582500	0,1	0,231477
4,584167	0,1	0,211463
4,585833	0,1	0,204920
4,587500	0,1	0,220359
4,589167	0,1	0,211276
4,590833	0,1	0,195208
4,592500	0,1	0,183226
4,594167	0,1	0,188663
4,595833	0,1	0,228565
4,597500	0,1	0,211155
4,599167	0,1	0,232051
4,600833	0,1	0,206866
4,602500	0,1	0,231205
4,604167	0,1	0,189773
4,605833	0,1	0,188234
4,607500	0,1	0,169338
4,609167	0,1	0,189098
4,610833	0,1	0,222341
4,612500	0,1	0,183644
4,614167	0,1	0,147007
4,615833	0,1	0,170629
4,617500	0,1	0,180056
4,619167	0,1	0,200360
4,620833	0,1	0,189520
4,622500	0,1	0,150814
4,624167	0,1	0,164688
4,625833	0,1	0,149921
4,627500	0,1	0,154286
4,629167	0,1	0,218211
4,630833	0,1	0,193389
4,632500	0,1	0,189580
4,634167	0,1	0,186537
4,635833	0,1	0,181588
4,637500	0,1	0,185605
4,639167	0,1	0,185833
4,640833	0,1	0,135967
4,642500	0,1	0,159001
4,644167	0,1	0,152163
4,645833	0,1	0,163786
4,647500	0,1	0,144376
4,649167	0,1	0,147272
4,650833	0,1	0,155691
4,652500	0,1	0,140525
4,654167	0,1	0,128211
4,655833	0,1	0,134273
4,657500	0,1	0,166348
4,659167	0,1	0,113297
4,660833	0,1	0,161806
4,662500	0,1	0,137716
4,664167	0,1	0,144600
4,665833	0,1	0,121217
4,667500	0,1	0,145573
4,669167	0,1	0,132017
4,670833	0,1	0,129798
4,672500	0,1	0,131171
4,674167	0,1	0,131249
4,675833	0,1	0,152541
4,677500	0,1	0,136797
4,679167	0,1	0,090963
4,680833	0,1	0,109492
4,682500	0,1	0,108916
4,684167	0,1	0,107188
4,685833	0,1	0,143598
4,687500	0,1	0,135559
4,689167	0,1	0,098659
4,690833	0,1	0,132875
4,692500	0,1	0,107500
4,694167	0,1	0,134390
4,695833	0,1	0,143360
4,697500	0,1	0,119293
4,699167	0,1	0,107222
4,700833	0,1	0,115252
4,702500	0,1	0,135369
4,704167	0,1	0,137587
4,705833	0,1	0,121751
4,707500	0,1	0,132133
4,709167	0,1	0,089143
4,710833	0,1	0,154041
4,712500	0,1	0,106422
4,714167	0,1	0,117651
4,715833	0,1	0,129077
4,717500	0,1	0,127445
4,719167	0,1	0,127216
4,720833	0,1	0,096550
4,722500	0,1	0,083545
4,724167	0,1	0,108880
4,725833	0,1	0,073623
4,727500	0,1	0,102066
4,729167	0,1	0,126797
4,730833	0,1	0,096380
4,732500	0,1	0,089090
4,734167	0,1	0,122778
4,735833	0,1	0,110125
4,737500	0,1	0,121623
4,739167	0,1	0,100763
4,740833	0,1	0,100040
4,742500	0,1	0,091945
4,744167	0,1	0,094172
4,745833	0,1	0,091472
4,747500	0,1	0,133483
4,749167	0,1	0,100034
4,750833	0,1	0,058930
4,752500	0,1	0,121427
4,754167	0,1	0,114447
4,755833	0,1	0,094027
4,757500	0,1	0,074382
4,759167	0,1	0,118040
4,760833	0,1	0,130818
4,762500	0,1	0,076424
4,764167	0,1	0,067156
4,765833	0,1	0,137571
4,767500	0,1	0,140078
4,769167	0,1	0,085130
4,770833	0,1	0,106100
4,772500	0,1	0,091183
4,774167	0,1	0,142542
4,775833	0,1	0,082732
4,777500	0,1	0,054741
4,779167	0,1	0,109375
4,780833	0,1	0,131397
4,782500	0,1	0,138991
4,784167	0,1	0,117231
4,785833	0,1	0,133551
4,787500	0,1	0,055382
4,789167	0,1	0,110047
4,790833	0,1	0,077228
4,792500	0,1	0,103533
4,794167	0,1	0,105585
4,795833	0,1	0,095323
4,797500	0,1	0,078170
4,799167	0,1	0,127205
4,800833	0,1	0,094321
4,802500	0,1	0,117129
4,804167	0,1	0,094271
4,805833	0,1	0,137349
4,807500	0,1	0,080428
4,809167	0,1	0,070120
4,810833	0,1	0,116526
4,812500	0,1	0,112169
4,814167	0,1	0,078953
4,815833	0,1	0,066865
4,817500	0,1	0,066862
4,819167	0,1	0,104660
4,820833	0,1	0,096041
4,822500	0,1	0,117876
4,824167	0,1	0,099694
4,825833	0,1	0,095719
4,827500	0,1	0,106362
4,829167	0,1	0,096577
4,830833	0,1	0,013991
4,832500	0,1	0,103639
4,834167	0,1	0,058764
4,835833	0,1	0,120830
4,837500	0,1	0,083888
4,839167	0,1	0,078459
4,840833	0,1	0,079510
4,842500	0,1	0,070531
4,844167	0,1	0,072838
4,845833	0,1	0,077295
4,847500	0,1	0,110511
4,849167	0,1	0,087551
4,850833	0,1	0,108192
4,852500	0,1	0,124188
4,854167	0,1	0,102764
4,855833	0,1	0,119544
4,857500	0,1	0,097357
4,859167	0,1	0,093397
4,860833	0,1	0,117617
4,862500	0,1	0,123502
4,864167	0,1	0,099605
4,865833	0,1	0,088555
4,867500	0,1	0,084996
4,869167	0,1	0,098403
4,870833	0,1	0,089196
4,872500	0,1	0,104055
4,874167	0,1	0,089380
4,875833	0,1	0,118119
4,877500	0,1	0,120325
4,879167	0,1	0,119470
4,880833	0,1	0,110415
4,882500	0,1	0,113498
4,884167	0,1	0,111819
4,885833	0,1	0,068858
4,887500	0,1	0,122054
4,889167	0,1	0,109194
4,890833	0,1	0,098470
4,892500	0,1	0,097108
4,894167	0,1	0,072824
4,895833	0,1	0,097192
4,897500	0,1	0,085287
4,899167	0,1	0,106039
4,900833	0,1	0,092972
4,902500	0,1	0,075239
4,904167	0,1	0,078563
4,905833	0,1	0,080045
4,907500	0,1	0,093303
4,909167	0,1	0,125589
4,910833	0,1	0,107332
4,912500	0,1	0,102912
4,914167	0,1	0,098958
4,915833	0,1	0,100864
4,917500	0,1	0,098574
4,919167	0,1	0,073588
4,920833	0,1	0,097179
4,922500	0,1	0,087320
4,924167	0,1	0,111063
4,925833	0,1	0,093323
4,927500	0,1	0,138585
4,929167	0,1	0,137024
4,930833	0,1	0,062377
4,932500	0,1	0,095846
4,934167	0,1	0,063021
4,935833	0,1	0,104704
4,937500	0,1	0,135839
4,939167	0,1	0,143223
4,940833	0,1	0,131130
4,942500	0,1	0,088441
4,944167	0,1	0,066152
4,945833	0,1	0,049086
4,947500	0,1	0,089691
4,949167	0,1	0,111996
4,950833	0,1	0,070858
4,952500	0,1	0,100171
4,954167	0,1	0,054563
4,955833	0,1	0,102244
4,957500	0,1	0,072278
4,959167	0,1	0,066176
4,960833	0,1	0,122559
4,962500	0,1	0,071994
4,964167	0,1	0,081419
4,965833	0,1	0,084596
4,967500	0,1	0,097592
4,969167	0,1	0,098634
4,970833	0,1	0,087394
4,972500	0,1	0,099212
4,974167	0,1	0,100376
4,975833	0,1	0,096833
4,977500	0,1	0,063021
4,979167	0,1	0,064924
4,980833	0,1	0,055974
4,982500	0,1	0,133217
4,984167	0,1	0,078942
4,985833	0,1	0,109886
4,987500	0,1	0,039355
4,989167	0,1	0,093598
4,990833	0,1	0,074687
4,992500	0,1	0,083649
4,994167	0,1	0,091867
4,995833	0,1	0,050132
4,997500	0,1	0,098517
4,999167	0,1	0,116549
5,000833	0,1	0,093921
5,002500	0,1	0,104589
5,004167	0,1	0,095384
5,005833	0,1	0,062379
5,007500	0,1	0,094136
5,009167	0,1	0,085347
5,010833	0,1	0,082827
5,012500	0,1	0,097592
5,014167	0,1	0,072414
5,015833	0,1	0,071934
5,017500	0,1	0,071036
5,019167	0,1	0,062832
5,020833	0,1	0,082241
5,022500	0,1	0,115307
5,024167	0,1	0,080375
5,025833	0,1	0,102251
5,027500	0,1	0,090650
5,029167	0,1	0,072412
5,030833	0,1	0,088718
5,032500	0,1	0,086278
5,034167	0,1	0,069387
5,035833	0,1	0,062604
5,037500	0,1	0,046447
5,039167	0,1	0,101951
5,040833	0,1	0,100851
5,042500	0,1	0,069147
5,044167	0,1	0,064634
5,045833	0,1	0,129767
5,047500	0,1	0,084929
5,049167	0,1	0,067406
5,050833	0,1	0,068713
5,052500	0,1	0,079507
5,054167	0,1	0,087511
5,055833	0,1	0,086400
5,057500	0,1	0,082658
5,059167	0,1	0,033166
5,060833	0,1	0,109112
5,062500	0,1	0,050124
5,064167	0,1	0,059332
5,065833	0,1	0,091692
5,067500	0,1	0,107507
5,069167	0,1	0,092056
5,070833	0,1	0,095640
5,072500	0,1	0,059647
5,074167	0,1	0,064112
5,075833	0,1	0,118435
5,077500	0,1	0,078297
5,079167	0,1	0,047551
5,080833	0,1	0,089873
5,082500	0,1	0,057998
5,084167	0,1	0,068204
5,085833	0,1	0,102828
5,087500	0,1	0,080462
5,089167	0,1	0,089375
5,090833	0,1	0,054791
5,092500	0,1	0,071227
5,094167	0,1	0,050999
5,095833	0,1	0,041800
5,097500	0,1	0,075242
5,099167	0,1	0,030368
5,100833	0,1	0,078520
5,102500	0,1	0,077053
5,104167	0,1	0,060727
5,105833	0,1	0,093036
5,107500	0,1	0,068321
5,109167	0,1	0,078561
5,110833	0,1	0,037822
5,112500	0,1	0,075302
5,114167	0,1	0,043763
5,115833	0,1	0,062233
5,117500	0,1	0,066739
5,119167	0,1	0,064175
5,120833	0,1	0,061137
5,122500	0,1	0,092779
5,124167	0,1	0,059038
5,125833	0,1	0,046918
5,127500	0,1	0,060735
5,129167	0,1	0,083463
5,130833	0,1	0,057172
5,132500	0,1	0,085386
5,134167	0,1	0,108374
5,135833	0,1	0,053100
5,137500	0,1	0,106259
5,139167	0,1	0,074966
5,140833	0,1	0,071219
5,142500	0,1	0,047367
5,144167	0,1	0,053389
5,145833	0,1	0,058521
5,147500	0,1	0,068967
5,149167	0,1	0,080027
5,150833	0,1	0,040619
5,152500	0,1	0,071515
5,154167	0,1	0,066100
5,155833	0,1	0,038825
5,157500	0,1	0,039967
5,159167	0,1	0,058749
5,160833	0,1	0,069061
5,162500	0,1	0,076957
5,164167	0,1	0,025131
5,165833	0,1	0,067648
5,167500	0,1	0,034081
5,169167	0,1	0,067407
5,170833	0,1	0,072911
5,172500	0,1	0,073553
5,174167	0,1	0,093667
5,175833	0,1	0,041032
5,177500	0,1	0,046852
5,179167	0,1	0,084986
5,180833	0,1	0,053216
5,182500	0,1	0,047147
5,184167	0,1	0,045741
5,185833	0,1	0,067425
5,187500	0,1	0,051944
5,189167	0,1	0,049989
5,190833	0,1	0,062782
5,192500	0,1	0,044645
5,194167	0,1	0,041567
5,195833	0,1	0,040959
5,197500	0,1	0,059451
5,199167	0,1	0,057167
5,200833	0,1	0,068021
5,202500	0,1	0,006870
5,204167	0,1	0,006382
5,205833	0,1	0,033027
5,207500	0,1	0,054729
5,209167	0,1	0,044123
5,210833	0,1	0,034258
5,212500	0,1	0,029705
5,214167	0,1	0,035199
5,215833	0,1	0,047723
5,217500	0,1	0,052033
5,219167	0,1	0,069241
5,220833	0,1	0,079036
5,222500	0,1	0,045579
5,224167	0,1	0,061714
5,225833	0,1	0,065565
5,227500	0,1	0,057931
5,229167	0,1	0,071687
5,230833	0,1	0,021632
5,232500	0,1	0,017821
5,234167	0,1	-0,002993
5,235833	0,1	0,060325
5,237500	0,1	0,009034
5,239167	0,1	0,070042
5,240833	0,1	0,064972
5,242500	0,1	0,038752
5,244167	0,1	0,027153
5,245833	0,1	0,040727
5,247500	0,1	0,054703
5,249167	0,1	0,038351
5,250833	0,1	0,056627
5,252500	0,1	0,033039
5,254167	0,1	0,044224
5,255833	0,1	0,014014
5,257500	0,1	0,017178
5,259167	0,1	0,034844
5,260833	0,1	0,050699
5,262500	0,1	0,029432
5,264167	0,1	0,051737
5,265833	0,1	0,031694
5,267500	0,1	0,066793
5,269167	0,1	0,028552
5,270833	0,1	0,014203
5,272500	0,1	0,036539
5,274167	0,1	0,060259
5,275833	0,1	0,012045
5,277500	0,1	0,028247
5,279167	0,1	0,021414
5,280833	0,1	0,010524
5,282500	0,1	0,049687
5,284167	0,1	0,022958
5,285833	0,1	0,017821
5,287500	0,1	0,062774
5,289167	0,1	0,023068
5,290833	0,1	0,006931
5,292500	0,1	0,028416
5,294167	0,1	0,049004
5,295833	0,1	0,044046
5,297500	0,1	0,055683
5,299167	0,1	0,037513
5,300833	0,1	0,048776
5,302500	0,1	0,035082
5,304167	0,1	0,046683
5,305833	0,1	0,022544
5,307500	0,1	0,036905
5,309167	0,1	0,045387
5,310833	0,1	-0,015761
5,312500	0,1	0,006013
5,314167	0,1	0,022826
5,315833	0,1	0,004982
5,317500	0,1	0,033546
5,319167	0,1	0,030939
5,320833	0,1	-0,008398
5,322500	0,1	0,014255
5,324167	0,1	0,039962
5,325833	0,1	0,034257
5,327500	0,1	0,023535
5,329167	0,1	-0,003341
5,330833	0,1	-0,013778
5,332500	0,1	0,020147
5,334167	0,1	0,018993
5,335833	0,1	0,027148
5,337500	0,1	-0,013892
5,339167	0,1	0,029004
5,340833	0,1	0,046378
5,342500	0,1	0,010698
5,344167	0,1	0,010522
5,345833	0,1	-0,002243
5,347500	0,1	0,028521
5,349167	0,1	-0,007369
5,350833	0,1	-0,005866
5,352500	0,1	0,045437
5,354167	0,1	0,052443
5,355833	0,1	0,056475
5,357500	0,1	0,053425
5,359167	0,1	0,019787
5,360833	0,1	-0,008304
5,362500	0,1	0,033759
5,364167	0,1	-0,003641
5,365833	0,1	0,001202
5,367500	0,1	0,034524
5,369167	0,1	0,035754
5,370833	0,1	0,018344
5,372500	0,1	0,019042
5,374167	0,1	-0,008896
5,375833	0,1	-0,005853
5,377500	0,1	-0,005624
5,379167	0,1	0,041407
5,380833	0,1	0,048305
5,382500	0,1	-0,020142
5,384167	0,1	0,025553
5,385833	0,1	0,009980
5,387500	0,1	-0,011754
5,389167	0,1	0,025650
5,390833	0,1	0,000265
5,392500	0,1	0,032248
5,394167	0,1	-0,009184
5,395833	0,1	0,006378
5,397500	0,1	0,034552
5,399167	0,1	0,040957
5,400833	0,1	-0,008238
5,402500	0,1	0,003631
5,404167	0,1	0,020356
5,405833	0,1	-0,019313
5,407500	0,1	0,011384
5,409167	0,1	-0,009599
5,410833	0,1	-0,013320
5,412500	0,1	-0,001487
5,414167	0,1	0,002001
5,415833	0,1	0,009587
5,417500	0,1	0,018107
5,419167	0,1	0,007655
5,420833	0,1	-0,021239
5,422500	0,1	0,001657
5,424167	0,1	-0,013620
5,425833	0,1	0,034582
5,427500	0,1	0,003520
5,429167	0,1	-0,017877
5,430833	0,1	0,017084
5,432500	0,1	0,011393
5,434167	0,1	0,036694
5,435833	0,1	0,031494
5,437500	0,1	0,007260
5,439167	0,1	0,008536
5,440833	0,1	0,000429
5,442500	0,1	-0,003407
5,444167	0,1	0,009343
5,445833	0,1	0,008416
5,447500	0,1	0,013895
5,449167	0,1	0,031044
5,450833	0,1	0,019490
5,452500	0,1	0,001486
5,454167	0,1	-0,009712
5,455833	0,1	-0,021546
5,457500	0,1	0,008299
5,459167	0,1	0,015409
5,460833	0,1	-0,028654
5,462500	0,1	0,024621
5,464167	0,1	0,028758
5,465833	0,1	0,027078
5,467500	0,1	0,022649
5,469167	0,1	-0,004987
5,470833	0,1	0,004273
5,472500	0,1	0,012031
5,474167	0,1	-0,047408
5,475833	0,1	-0,028537
5,477500	0,1	0,018147
5,479167	0,1	-0,011970
5,480833	0,1	-0,014663
5,482500	0,1	-0,019224
5,484167	0,1	0,042640
5,485833	0,1	-0,021063
5,487500	0,1	-0,000280
5,489167	0,1	-0,004169
5,490833	0,1	0,032998
5,492500	0,1	0,047067
5,494167	0,1	-0,019138
5,495833	0,1	-0,000048
5,497500	0,1	-0,011925
5,499167	0,1	-0,022879
5,500833	0,1	0,011372
5,502500	0,1	0,010643
5,504167	0,1	-0,003297
5,505833	0,1	-0,019100
5,507500	0,1	0,014822
5,509167	0,1	-0,007386
5,510833	0,1	0,003161
5,512500	0,1	0,006551
5,514167	0,1	-0,026383
5,515833	0,1	-0,033383
5,517500	0,1	-0,021951
5,519167	0,1	-0,018004
5,520833	0,1	0,007864
5,522500	0,1	-0,003419
5,524167	0,1	-0,000554
5,525833	0,1	0,015721
5,527500	0,1	0,010050
5,529167	0,1	-0,032539
5,530833	0,1	-0,004177
5,532500	0,1	-0,021085
5,534167	0,1	-0,015367
5,535833	0,1	-0,027100
5,537500	0,1	0,002939
5,539167	0,1	0,003744
5,540833	0,1	0,009986
5,542500	0,1	-0,011476
5,544167	0,1	0,027999
5,545833	0,1	0,012207
5,547500	0,1	0,022525
5,549167	0,1	-0,037800
5,550833	0,1	-0,041528
5,552500	0,1	0,050547
5,554167	0,1	-0,014951
5,555833	0,1	-0,000386
5,557500	0,1	0,014730
5,559167	0,1	0,000904
5,560833	0,1	0,004880
5,562500	0,1	0,029259
5,564167	0,1	0,004936
5,565833	0,1	-0,039848
5,567500	0,1	0,020054
5,569167	0,1	0,028405
5,570833	0,1	-0,041776
5,572500	0,1	-0,008718
5,574167	0,1	-0,009593
5,575833	0,1	0,023767
5,577500	0,1	0,012206
5,579167	0,1	0,014780
5,580833	0,1	0,041582
5,582500	0,1	-0,000846
5,584167	0,1	-0,013304
5,585833	0,1	0,017050
5,587500	0,1	0,016598
5,589167	0,1	0,023470
5,590833	0,1	-0,016397
5,592500	0,1	0,044018
5,594167	0,1	0,036713
5,595833	0,1	0,011978
5,597500	0,1	0,032907
5,599167	0,1	-0,027417
5,600833	0,1	0,037311
5,602500	0,1	0,016517
5,604167	0,1	0,029398
5,605833	0,1	0,005685
5,607500	0,1	-0,005451
5,609167	0,1	0,038128
5,610833	0,1	-0,000555
5,612500	0,1	0,032964
5,614167	0,1	0,022819
5,615833	0,1	0,016767
5,617500	0,1	0,041063
5,619167	0,1	0,018623
5,620833	0,1	-0,001674
5,622500	0,1	0,032721
5,624167	0,1	0,002020
5,625833	0,1	0,040816
5,627500	0,1	0,028000
5,629167	0,1	0,006340
5,630833	0,1	0,028936
5,632500	0,1	0,006508
5,634167	0,1	0,043914
5,635833	0,1	0,020377
5,637500	0,1	0,006168
5,639167	0,1	0,010532
5,640833	0,1	0,018385
5,642500	0,1	0,044209
5,644167	0,1	0,061227
5,645833	0,1	0,018689
5,647500	0,1	0,051215
5,649167	0,1	0,037682
5,650833	0,1	0,019931
5,652500	0,1	0,032313
5,654167	0,1	0,046838
5,655833	0,1	0,049176
5,657500	0,1	0,006513
5,659167	0,1	0,054236
5,660833	0,1	0,059257
5,662500	0,1	0,063532
5,664167	0,1	0,038919
5,665833	0,1	0,037064
5,667500	0,1	0,066903
5,669167	0,1	0,046217
5,670833	0,1	0,062401
5,672500	0,1	0,011767
5,674167	0,1	0,055718
5,675833	0,1	0,053257
5,677500	0,1	0,054141
5,679167	0,1	0,054661
5,680833	0,1	0,040613
5,682500	0,1	0,089628
5,684167	0,1	0,039858
5,685833	0,1	0,041649
5,687500	0,1	0,073485
5,689167	0,1	0,061611
5,690833	0,1	0,065550
5,692500	0,1	0,054035
5,694167	0,1	0,057178
5,695833	0,1	0,091845
5,697500	0,1	0,055372
5,699167	0,1	0,071321
5,700833	0,1	0,028432
5,702500	0,1	0,044177
5,704167	0,1	0,072264
5,705833	0,1	0,076228
5,707500	0,1	0,080792
5,709167	0,1	0,090949
5,710833	0,1	0,061481
5,712500	0,1	0,112020
5,714167	0,1	0,085460
5,715833	0,1	0,080794
5,717500	0,1	0,050190
5,719167	0,1	0,099953
5,720833	0,1	0,132630
5,722500	0,1	0,067750
5,724167	0,1	0,111349
5,725833	0,1	0,059529
5,727500	0,1	0,108477
5,729167	0,1	0,121942
5,730833	0,1	0,064297
5,732500	0,1	0,105393
5,734167	0,1	0,103004
5,735833	0,1	0,118275
5,737500	0,1	0,115791
5,739167	0,1	0,087844
5,740833	0,1	0,102191
5,742500	0,1	0,074676
5,744167	0,1	0,108952
5,745833	0,1	0,114214
5,747500	0,1	0,124142
5,749167	0,1	0,104994
5,750833	0,1	0,126814
5,752500	0,1	0,114907
5,754167	0,1	0,088911
5,755833	0,1	0,121906
5,757500	0,1	0,087569
5,759167	0,1	0,095486
5,760833	0,1	0,120336
5,762500	0,1	0,131277
5,764167	0,1	0,089907
5,765833	0,1	0,171469
5,767500	0,1	0,097690
5,769167	0,1	0,111112
5,770833	0,1	0,165640
5,772500	0,1	0,093276
5,774167	0,1	0,120686
5,775833	0,1	0,112415
5,777500	0,1	0,124586
5,779167	0,1	0,123520
5,780833	0,1	0,152049
5,782500	0,1	0,178250
5,784167	0,1	0,158293
5,785833	0,1	0,144054
5,787500	0,1	0,135346
5,789167	0,1	0,114848
5,790833	0,1	0,181142
5,792500	0,1	0,134574
5,794167	0,1	0,140153
5,795833	0,1	0,116957
5,797500	0,1	0,145464
5,799167	0,1	0,147334
5,800833	0,1	0,139776
5,802500	0,1	0,149915
5,804167	0,1	0,144786
5,805833	0,1	0,135956
5,807500	0,1	0,110724
5,809167	0,1	0,114384
5,810833	0,1	0,167486
5,812500	0,1	0,129395
5,814167	0,1	0,135281
5,815833	0,1	0,128623
5,817500	0,1	0,112067
5,819167	0,1	0,144380
5,820833	0,1	0,136781
5,822500	0,1	0,147515
5,824167	0,1	0,148372
5,825833	0,1	0,151612
5,827500	0,1	0,159278
5,829167	0,1	0,107645
5,830833	0,1	0,116368
5,832500	0,1	0,135842
5,834167	0,1	0,136671
5,835833	0,1	0,147868
5,837500	0,1	0,145471
5,839167	0,1	0,121156
5,840833	0,1	0,118646
5,842500	0,1	0,125335
5,844167	0,1	0,147574
5,845833	0,1	0,148267
5,847500	0,1	0,122762
5,849167	0,1	0,093294
5,850833	0,1	0,115968
5,852500	0,1	0,131596
5,854167	0,1	0,137329
5,855833	0,1	0,153580
5,857500	0,1	0,146618
5,859167	0,1	0,156087
5,860833	0,1	0,128934
5,862500	0,1	0,128286
5,864167	0,1	0,135081
5,865833	0,1	0,147850
5,867500	0,1	0,155674
5,869167	0,1	0,122778
5,870833	0,1	0,126849
5,872500	0,1	0,152094
5,874167	0,1	0,141334
5,875833	0,1	0,137270
5,877500	0,1	0,136963
5,879167	0,1	0,101729
5,880833	0,1	0,141550
5,882500	0,1	0,125540
5,884167	0,1	0,121213
5,885833	0,1	0,144121
5,887500	0,1	0,151794
5,889167	0,1	0,069996
5,890833	0,1	0,138580
5,892500	0,1	0,116254
5,894167	0,1	0,111544
5,895833	0,1	0,119926
5,897500	0,1	0,094974
5,899167	0,1	0,128017
5,900833	0,1	0,109103
5,902500	0,1	0,127440
5,904167	0,1	0,085585
5,905833	0,1	0,096127
5,907500	0,1	0,116196
5,909167	0,1	0,141767
5,910833	0,1	0,077020
5,912500	0,1	0,112237
5,914167	0,1	0,096088
5,915833	0,1	0,120625
5,917500	0,1	0,113164
5,919167	0,1	0,128435
5,920833	0,1	0,111836
5,922500	0,1	0,124081
5,924167	0,1	0,108506
5,925833	0,1	0,132924
5,927500	0,1	0,131050
5,929167	0,1	0,090076
5,930833	0,1	0,117936
5,932500	0,1	0,077611
5,934167	0,1	0,091513
5,935833	0,1	0,127313
5,937500	0,1	0,080406
5,939167	0,1	0,084000
5,940833	0,1	0,105673
5,942500	0,1	0,082540
5,944167	0,1	0,048449
5,945833	0,1	0,096134
5,947500	0,1	0,108835
5,949167	0,1	0,099416
5,950833	0,1	0,082600
5,952500	0,1	0,116484
5,954167	0,1	0,062965
5,955833	0,1	0,136226
5,957500	0,1	0,113565
5,959167	0,1	0,065469
5,960833	0,1	0,080911
5,962500	0,1	0,099319
5,964167	0,1	0,137273
5,965833	0,1	0,110939
5,967500	0,1	0,055605
5,969167	0,1	0,079748
5,970833	0,1	0,062761
5,972500	0,1	0,113303
5,974167	0,1	0,127885
5,975833	0,1	0,089601
5,977500	0,1	0,090220
5,979167	0,1	0,047217
5,980833	0,1	0,050170
5,982500	0,1	0,058049
5,984167	0,1	0,066523
5,985833	0,1	0,072176
5,987500	0,1	0,030064
5,989167	0,1	0,081333
5,990833	0,1	0,074030
5,992500	0,1	0,049319
5,994167	0,1	0,060094
5,995833	0,1	0,059043
5,997500	0,1	0,056598
5,999167	0,1	0,088821
6,000833	0,1	0,020570
