File Path	chrom://chromeleon01/ikbm_chromeleon/2022/Rezex/Esteban/220612_chitin_4_7.seq/830.smp/UV_VIS_1.channel/UV_VIS_1.chm
Channel	UV_VIS_1

Injection Information:
Data Vault	ikbm_chromeleon
Injection	A2ox 50
Injection Number	6
Position	RA3
Comment	
Processing Method	New ProcMethod
Instrument Method	Short_Rezex_6min_194nm
Type	Calibration Standard
Status	Finished
Injection Date	12.06.2022
Injection Time	17:46:15
Injection Volume (µl)	8,000
Dilution Factor	1,0000
Weight	1,0000

Chromatogram Data Information:
Time Min. (min)	0,000833
Time Max. (min)	6,000833
Data Points	3601
Detector	UV
Generating Data System	Chromeleon 7.2.9.11323
Exporting Data System	Chromeleon 7.2.9.0
Operator	Instrument Controller
Signal Quantity	Absorbance
Signal Unit	mAU
Signal Min.	-0,124013
Signal Max.	32,410389
Channel	UV_VIS_1
Driver Name	VWD3000.dll
Channel Type	Evaluation
Min. Step (s)	0,1
Max. Step (s)	0,1
Average Step (s)	0,1

Signal Parameter Information:
Signal Info	WVL:194 nm

Chromatogram Data:
Time (min)	Step (s)	Value (mAU)
0,000833	n.a.	-0,124013
0,002500	0,1	-0,027506
0,004167	0,1	-0,055711
0,005833	0,1	-0,012636
0,007500	0,1	-0,004958
0,009167	0,1	-0,071397
0,010833	0,1	-0,012589
0,012500	0,1	-0,029314
0,014167	0,1	-0,037643
0,015833	0,1	-0,052542
0,017500	0,1	-0,009075
0,019167	0,1	-0,033322
0,020833	0,1	-0,024913
0,022500	0,1	-0,039563
0,024167	0,1	-0,050514
0,025833	0,1	-0,043637
0,027500	0,1	-0,022038
0,029167	0,1	-0,025953
0,030833	0,1	-0,059473
0,032500	0,1	-0,060476
0,034167	0,1	-0,010605
0,035833	0,1	-0,054520
0,037500	0,1	-0,047054
0,039167	0,1	-0,055119
0,040833	0,1	-0,034470
0,042500	0,1	-0,031944
0,044167	0,1	-0,053687
0,045833	0,1	-0,040318
0,047500	0,1	-0,063389
0,049167	0,1	-0,062606
0,050833	0,1	0,025339
0,052500	0,1	-0,029754
0,054167	0,1	-0,051453
0,055833	0,1	-0,038487
0,057500	0,1	-0,039469
0,059167	0,1	-0,067549
0,060833	0,1	-0,022543
0,062500	0,1	-0,016099
0,064167	0,1	-0,032339
0,065833	0,1	-0,002481
0,067500	0,1	-0,013363
0,069167	0,1	-0,026645
0,070833	0,1	-0,019617
0,072500	0,1	-0,054961
0,074167	0,1	-0,071318
0,075833	0,1	-0,033388
0,077500	0,1	-0,056105
0,079167	0,1	0,010578
0,080833	0,1	-0,038317
0,082500	0,1	-0,059874
0,084167	0,1	-0,060674
0,085833	0,1	-0,057107
0,087500	0,1	-0,008180
0,089167	0,1	0,001582
0,090833	0,1	-0,041391
0,092500	0,1	-0,050907
0,094167	0,1	-0,080275
0,095833	0,1	-0,056770
0,097500	0,1	-0,046857
0,099167	0,1	0,000436
0,100833	0,1	-0,077984
0,102500	0,1	-0,052360
0,104167	0,1	-0,047747
0,105833	0,1	-0,043193
0,107500	0,1	-0,052503
0,109167	0,1	-0,026654
0,110833	0,1	-0,061209
0,112500	0,1	-0,049483
0,114167	0,1	-0,021112
0,115833	0,1	-0,016642
0,117500	0,1	-0,043136
0,119167	0,1	-0,060921
0,120833	0,1	-0,023341
0,122500	0,1	-0,033632
0,124167	0,1	0,003507
0,125833	0,1	-0,053970
0,127500	0,1	-0,039725
0,129167	0,1	-0,064032
0,130833	0,1	-0,022403
0,132500	0,1	-0,084878
0,134167	0,1	-0,026220
0,135833	0,1	-0,020355
0,137500	0,1	-0,014566
0,139167	0,1	-0,047189
0,140833	0,1	-0,013429
0,142500	0,1	-0,052043
0,144167	0,1	-0,048344
0,145833	0,1	-0,069878
0,147500	0,1	-0,054390
0,149167	0,1	-0,043537
0,150833	0,1	-0,024671
0,152500	0,1	-0,013323
0,154167	0,1	-0,030310
0,155833	0,1	-0,031900
0,157500	0,1	-0,018028
0,159167	0,1	-0,014907
0,160833	0,1	-0,066702
0,162500	0,1	-0,064930
0,164167	0,1	-0,053296
0,165833	0,1	-0,008280
0,167500	0,1	-0,050607
0,169167	0,1	-0,047057
0,170833	0,1	-0,060470
0,172500	0,1	-0,016260
0,174167	0,1	-0,051400
0,175833	0,1	-0,033689
0,177500	0,1	-0,017788
0,179167	0,1	-0,044772
0,180833	0,1	-0,014476
0,182500	0,1	-0,024322
0,184167	0,1	-0,045562
0,185833	0,1	-0,047749
0,187500	0,1	-0,025169
0,189167	0,1	-0,003421
0,190833	0,1	-0,018076
0,192500	0,1	-0,008183
0,194167	0,1	-0,032438
0,195833	0,1	-0,038935
0,197500	0,1	-0,016898
0,199167	0,1	-0,012975
0,200833	0,1	-0,035165
0,202500	0,1	-0,043341
0,204167	0,1	-0,016212
0,205833	0,1	-0,024959
0,207500	0,1	-0,041458
0,209167	0,1	-0,040322
0,210833	0,1	-0,047593
0,212500	0,1	0,004350
0,214167	0,1	-0,011442
0,215833	0,1	-0,029565
0,217500	0,1	-0,029077
0,219167	0,1	-0,059473
0,220833	0,1	-0,015320
0,222500	0,1	-0,019564
0,224167	0,1	-0,030010
0,225833	0,1	-0,006099
0,227500	0,1	-0,025507
0,229167	0,1	-0,006847
0,230833	0,1	-0,046549
0,232500	0,1	-0,048983
0,234167	0,1	-0,044286
0,235833	0,1	-0,056510
0,237500	0,1	-0,005461
0,239167	0,1	-0,032387
0,240833	0,1	-0,036004
0,242500	0,1	-0,016203
0,244167	0,1	0,009856
0,245833	0,1	-0,041546
0,247500	0,1	-0,027447
0,249167	0,1	-0,005901
0,250833	0,1	-0,022338
0,252500	0,1	-0,001880
0,254167	0,1	-0,051350
0,255833	0,1	0,002758
0,257500	0,1	-0,000895
0,259167	0,1	-0,009164
0,260833	0,1	-0,004768
0,262500	0,1	-0,025348
0,264167	0,1	0,018266
0,265833	0,1	-0,045058
0,267500	0,1	-0,001848
0,269167	0,1	-0,017238
0,270833	0,1	-0,034023
0,272500	0,1	-0,025362
0,274167	0,1	0,003605
0,275833	0,1	0,018425
0,277500	0,1	-0,049611
0,279167	0,1	-0,007833
0,280833	0,1	-0,007386
0,282500	0,1	0,009113
0,284167	0,1	-0,000093
0,285833	0,1	0,031048
0,287500	0,1	-0,017369
0,289167	0,1	-0,004358
0,290833	0,1	-0,006888
0,292500	0,1	0,006480
0,294167	0,1	-0,005446
0,295833	0,1	-0,012329
0,297500	0,1	0,002174
0,299167	0,1	-0,016252
0,300833	0,1	-0,031354
0,302500	0,1	0,009903
0,304167	0,1	-0,022719
0,305833	0,1	-0,007839
0,307500	0,1	0,019060
0,309167	0,1	0,017582
0,310833	0,1	-0,031637
0,312500	0,1	-0,023233
0,314167	0,1	-0,005112
0,315833	0,1	-0,023184
0,317500	0,1	-0,033628
0,319167	0,1	0,029803
0,320833	0,1	0,016899
0,322500	0,1	-0,011091
0,324167	0,1	-0,003713
0,325833	0,1	-0,014214
0,327500	0,1	-0,015802
0,329167	0,1	0,027428
0,330833	0,1	0,014967
0,332500	0,1	0,011290
0,334167	0,1	-0,010941
0,335833	0,1	0,009307
0,337500	0,1	-0,016887
0,339167	0,1	0,022030
0,340833	0,1	0,022835
0,342500	0,1	0,014713
0,344167	0,1	-0,001637
0,345833	0,1	0,013709
0,347500	0,1	0,024708
0,349167	0,1	-0,006085
0,350833	0,1	0,029910
0,352500	0,1	0,008580
0,354167	0,1	0,027339
0,355833	0,1	0,008175
0,357500	0,1	0,009508
0,359167	0,1	-0,018119
0,360833	0,1	0,026342
0,362500	0,1	0,021042
0,364167	0,1	-0,008565
0,365833	0,1	0,031734
0,367500	0,1	0,010751
0,369167	0,1	0,018623
0,370833	0,1	-0,014204
0,372500	0,1	0,033113
0,374167	0,1	0,016841
0,375833	0,1	-0,028871
0,377500	0,1	0,021673
0,379167	0,1	0,004853
0,380833	0,1	0,058633
0,382500	0,1	-0,035443
0,384167	0,1	0,029557
0,385833	0,1	-0,018864
0,387500	0,1	0,040355
0,389167	0,1	0,026798
0,390833	0,1	0,002532
0,392500	0,1	-0,000453
0,394167	0,1	-0,007586
0,395833	0,1	0,045458
0,397500	0,1	0,031848
0,399167	0,1	0,027150
0,400833	0,1	-0,003169
0,402500	0,1	0,046347
0,404167	0,1	0,008179
0,405833	0,1	0,021147
0,407500	0,1	0,015753
0,409167	0,1	0,018768
0,410833	0,1	0,010798
0,412500	0,1	0,035948
0,414167	0,1	0,058691
0,415833	0,1	0,027792
0,417500	0,1	0,043424
0,419167	0,1	0,044173
0,420833	0,1	0,019326
0,422500	0,1	-0,004754
0,424167	0,1	0,018864
0,425833	0,1	-0,032878
0,427500	0,1	0,026482
0,429167	0,1	0,014663
0,430833	0,1	0,009206
0,432500	0,1	0,045214
0,434167	0,1	0,028087
0,435833	0,1	0,050065
0,437500	0,1	0,022887
0,439167	0,1	0,023617
0,440833	0,1	0,062037
0,442500	0,1	0,006150
0,444167	0,1	0,057339
0,445833	0,1	-0,002712
0,447500	0,1	0,042824
0,449167	0,1	0,014470
0,450833	0,1	0,027826
0,452500	0,1	0,006988
0,454167	0,1	0,023663
0,455833	0,1	0,024862
0,457500	0,1	0,007826
0,459167	0,1	0,030161
0,460833	0,1	-0,002272
0,462500	0,1	0,024010
0,464167	0,1	-0,009297
0,465833	0,1	0,028565
0,467500	0,1	0,011748
0,469167	0,1	0,033280
0,470833	0,1	0,054177
0,472500	0,1	0,047658
0,474167	0,1	0,020114
0,475833	0,1	0,003861
0,477500	0,1	0,006339
0,479167	0,1	-0,011139
0,480833	0,1	0,018812
0,482500	0,1	0,043279
0,484167	0,1	0,001834
0,485833	0,1	0,027930
0,487500	0,1	0,006395
0,489167	0,1	0,047088
0,490833	0,1	0,048579
0,492500	0,1	0,035763
0,494167	0,1	0,055167
0,495833	0,1	0,028378
0,497500	0,1	0,001931
0,499167	0,1	0,031737
0,500833	0,1	0,020703
0,502500	0,1	0,027920
0,504167	0,1	-0,003017
0,505833	0,1	0,043858
0,507500	0,1	-0,007229
0,509167	0,1	0,028957
0,510833	0,1	-0,000644
0,512500	0,1	0,029897
0,514167	0,1	0,020740
0,515833	0,1	0,052588
0,517500	0,1	0,027141
0,519167	0,1	0,040553
0,520833	0,1	0,002623
0,522500	0,1	-0,020398
0,524167	0,1	0,060637
0,525833	0,1	0,024618
0,527500	0,1	0,037283
0,529167	0,1	0,054828
0,530833	0,1	0,050319
0,532500	0,1	0,004911
0,534167	0,1	0,047037
0,535833	0,1	0,041649
0,537500	0,1	0,046453
0,539167	0,1	0,036940
0,540833	0,1	0,031745
0,542500	0,1	0,039622
0,544167	0,1	0,017233
0,545833	0,1	0,015347
0,547500	0,1	0,003210
0,549167	0,1	0,049460
0,550833	0,1	0,040803
0,552500	0,1	0,064582
0,554167	0,1	0,031063
0,555833	0,1	0,030903
0,557500	0,1	0,038182
0,559167	0,1	0,034854
0,560833	0,1	0,028424
0,562500	0,1	0,033335
0,564167	0,1	0,070670
0,565833	0,1	0,008677
0,567500	0,1	0,021631
0,569167	0,1	0,048227
0,570833	0,1	0,026299
0,572500	0,1	0,019074
0,574167	0,1	0,017476
0,575833	0,1	0,009553
0,577500	0,1	0,034168
0,579167	0,1	0,021595
0,580833	0,1	0,011876
0,582500	0,1	0,051952
0,584167	0,1	0,016941
0,585833	0,1	0,026581
0,587500	0,1	0,005094
0,589167	0,1	0,032828
0,590833	0,1	0,045408
0,592500	0,1	0,024960
0,594167	0,1	0,030946
0,595833	0,1	0,040054
0,597500	0,1	0,021647
0,599167	0,1	0,007710
0,600833	0,1	0,002621
0,602500	0,1	0,048229
0,604167	0,1	0,022979
0,605833	0,1	0,028168
0,607500	0,1	-0,013772
0,609167	0,1	0,026633
0,610833	0,1	0,015597
0,612500	0,1	0,024953
0,614167	0,1	0,018323
0,615833	0,1	0,039061
0,617500	0,1	0,026637
0,619167	0,1	0,017919
0,620833	0,1	0,009604
0,622500	0,1	0,055703
0,624167	0,1	0,067009
0,625833	0,1	0,010006
0,627500	0,1	0,039905
0,629167	0,1	-0,002572
0,630833	0,1	0,034108
0,632500	0,1	0,028430
0,634167	0,1	0,038527
0,635833	0,1	0,015794
0,637500	0,1	0,012223
0,639167	0,1	0,030690
0,640833	0,1	0,026781
0,642500	0,1	0,058927
0,644167	0,1	0,025947
0,645833	0,1	0,038181
0,647500	0,1	0,022673
0,649167	0,1	0,022475
0,650833	0,1	0,077394
0,652500	0,1	0,037346
0,654167	0,1	0,037632
0,655833	0,1	0,030154
0,657500	0,1	0,028024
0,659167	0,1	0,015445
0,660833	0,1	0,046786
0,662500	0,1	0,014458
0,664167	0,1	0,054258
0,665833	0,1	0,048524
0,667500	0,1	0,036398
0,669167	0,1	0,062945
0,670833	0,1	0,028184
0,672500	0,1	0,016935
0,674167	0,1	0,019601
0,675833	0,1	0,039357
0,677500	0,1	0,108898
0,679167	0,1	0,042707
0,680833	0,1	0,036939
0,682500	0,1	0,016974
0,684167	0,1	0,054817
0,685833	0,1	-0,002422
0,687500	0,1	0,078338
0,689167	0,1	0,042700
0,690833	0,1	0,039463
0,692500	0,1	0,042184
0,694167	0,1	0,025749
0,695833	0,1	0,068679
0,697500	0,1	0,034963
0,699167	0,1	0,050061
0,700833	0,1	0,015355
0,702500	0,1	0,067091
0,704167	0,1	0,078540
0,705833	0,1	0,013186
0,707500	0,1	0,052282
0,709167	0,1	0,028124
0,710833	0,1	0,069669
0,712500	0,1	0,059438
0,714167	0,1	0,073940
0,715833	0,1	0,018869
0,717500	0,1	0,018957
0,719167	0,1	0,070016
0,720833	0,1	0,038039
0,722500	0,1	0,099384
0,724167	0,1	0,086488
0,725833	0,1	0,077308
0,727500	0,1	0,115091
0,729167	0,1	0,086576
0,730833	0,1	0,070581
0,732500	0,1	0,100240
0,734167	0,1	0,099654
0,735833	0,1	0,080938
0,737500	0,1	0,089449
0,739167	0,1	0,088662
0,740833	0,1	0,093609
0,742500	0,1	0,120553
0,744167	0,1	0,091492
0,745833	0,1	0,089696
0,747500	0,1	0,069447
0,749167	0,1	0,078398
0,750833	0,1	0,079204
0,752500	0,1	0,108755
0,754167	0,1	0,124860
0,755833	0,1	0,090788
0,757500	0,1	0,072463
0,759167	0,1	0,108713
0,760833	0,1	0,052654
0,762500	0,1	0,051105
0,764167	0,1	0,086662
0,765833	0,1	0,062008
0,767500	0,1	0,060714
0,769167	0,1	0,074388
0,770833	0,1	0,082652
0,772500	0,1	0,088762
0,774167	0,1	0,089593
0,775833	0,1	0,063798
0,777500	0,1	0,038977
0,779167	0,1	0,056643
0,780833	0,1	0,048820
0,782500	0,1	0,079282
0,784167	0,1	0,042548
0,785833	0,1	0,058534
0,787500	0,1	0,051208
0,789167	0,1	0,064771
0,790833	0,1	0,038080
0,792500	0,1	0,080363
0,794167	0,1	0,066557
0,795833	0,1	0,049669
0,797500	0,1	0,054520
0,799167	0,1	0,046888
0,800833	0,1	0,046496
0,802500	0,1	0,023428
0,804167	0,1	0,066941
0,805833	0,1	0,035007
0,807500	0,1	0,065208
0,809167	0,1	0,029269
0,810833	0,1	0,038318
0,812500	0,1	0,008959
0,814167	0,1	0,020692
0,815833	0,1	0,030987
0,817500	0,1	0,017571
0,819167	0,1	0,023964
0,820833	0,1	0,013657
0,822500	0,1	0,047582
0,824167	0,1	0,034952
0,825833	0,1	0,014556
0,827500	0,1	-0,029923
0,829167	0,1	0,040936
0,830833	0,1	0,034906
0,832500	0,1	0,023223
0,834167	0,1	0,010533
0,835833	0,1	0,054654
0,837500	0,1	0,030751
0,839167	0,1	0,015589
0,840833	0,1	0,028107
0,842500	0,1	0,015937
0,844167	0,1	0,049895
0,845833	0,1	0,036637
0,847500	0,1	0,023426
0,849167	0,1	0,062484
0,850833	0,1	0,037531
0,852500	0,1	0,029510
0,854167	0,1	0,044459
0,855833	0,1	0,009554
0,857500	0,1	0,047530
0,859167	0,1	0,000635
0,860833	0,1	0,047027
0,862500	0,1	-0,004457
0,864167	0,1	0,005579
0,865833	0,1	-0,003527
0,867500	0,1	0,006917
0,869167	0,1	0,028308
0,870833	0,1	-0,023673
0,872500	0,1	-0,002840
0,874167	0,1	0,034743
0,875833	0,1	0,028764
0,877500	0,1	0,035049
0,879167	0,1	-0,005305
0,880833	0,1	0,030388
0,882500	0,1	-0,001691
0,884167	0,1	-0,001452
0,885833	0,1	0,003257
0,887500	0,1	0,018802
0,889167	0,1	0,010133
0,890833	0,1	0,028902
0,892500	0,1	0,024110
0,894167	0,1	0,042120
0,895833	0,1	0,004201
0,897500	0,1	0,022614
0,899167	0,1	-0,018233
0,900833	0,1	0,045973
0,902500	0,1	0,010249
0,904167	0,1	-0,002042
0,905833	0,1	0,025340
0,907500	0,1	0,028458
0,909167	0,1	0,055260
0,910833	0,1	0,017439
0,912500	0,1	0,032918
0,914167	0,1	0,035744
0,915833	0,1	-0,004560
0,917500	0,1	0,017116
0,919167	0,1	0,031436
0,920833	0,1	0,016039
0,922500	0,1	0,056935
0,924167	0,1	-0,020308
0,925833	0,1	0,029633
0,927500	0,1	0,012320
0,929167	0,1	0,045641
0,930833	0,1	0,051443
0,932500	0,1	0,078428
0,934167	0,1	0,026885
0,935833	0,1	0,026932
0,937500	0,1	0,068612
0,939167	0,1	0,077016
0,940833	0,1	0,037981
0,942500	0,1	0,048917
0,944167	0,1	0,019153
0,945833	0,1	0,053470
0,947500	0,1	0,018409
0,949167	0,1	0,060653
0,950833	0,1	0,032633
0,952500	0,1	0,058031
0,954167	0,1	0,092645
0,955833	0,1	0,082952
0,957500	0,1	0,084881
0,959167	0,1	0,071862
0,960833	0,1	-0,002035
0,962500	0,1	0,051831
0,964167	0,1	0,078926
0,965833	0,1	0,066801
0,967500	0,1	0,065961
0,969167	0,1	0,084877
0,970833	0,1	0,010098
0,972500	0,1	0,081247
0,974167	0,1	0,073342
0,975833	0,1	0,088928
0,977500	0,1	0,078708
0,979167	0,1	0,058238
0,980833	0,1	0,094380
0,982500	0,1	0,110140
0,984167	0,1	0,103858
0,985833	0,1	0,076668
0,987500	0,1	0,089532
0,989167	0,1	0,096177
0,990833	0,1	0,070085
0,992500	0,1	0,091564
0,994167	0,1	0,088164
0,995833	0,1	0,107469
0,997500	0,1	0,062802
0,999167	0,1	0,077709
1,000833	0,1	0,110984
1,002500	0,1	0,124114
1,004167	0,1	0,096829
1,005833	0,1	0,104939
1,007500	0,1	0,093063
1,009167	0,1	0,122189
1,010833	0,1	0,171023
1,012500	0,1	0,126991
1,014167	0,1	0,201333
1,015833	0,1	0,133049
1,017500	0,1	0,179798
1,019167	0,1	0,172725
1,020833	0,1	0,185899
1,022500	0,1	0,175998
1,024167	0,1	0,165884
1,025833	0,1	0,180796
1,027500	0,1	0,160631
1,029167	0,1	0,177873
1,030833	0,1	0,196012
1,032500	0,1	0,156088
1,034167	0,1	0,183462
1,035833	0,1	0,212501
1,037500	0,1	0,239751
1,039167	0,1	0,205057
1,040833	0,1	0,222167
1,042500	0,1	0,174126
1,044167	0,1	0,219543
1,045833	0,1	0,214943
1,047500	0,1	0,209494
1,049167	0,1	0,225182
1,050833	0,1	0,243026
1,052500	0,1	0,218994
1,054167	0,1	0,231791
1,055833	0,1	0,248195
1,057500	0,1	0,291793
1,059167	0,1	0,300524
1,060833	0,1	0,297425
1,062500	0,1	0,383077
1,064167	0,1	0,445615
1,065833	0,1	0,522859
1,067500	0,1	0,648575
1,069167	0,1	0,770901
1,070833	0,1	0,960911
1,072500	0,1	1,171859
1,074167	0,1	1,403203
1,075833	0,1	1,712246
1,077500	0,1	2,044164
1,079167	0,1	2,454071
1,080833	0,1	2,841848
1,082500	0,1	3,334352
1,084167	0,1	3,821970
1,085833	0,1	4,295028
1,087500	0,1	4,858680
1,089167	0,1	5,395549
1,090833	0,1	5,846290
1,092500	0,1	6,395092
1,094167	0,1	6,862691
1,095833	0,1	7,307867
1,097500	0,1	7,712459
1,099167	0,1	8,066684
1,100833	0,1	8,415398
1,102500	0,1	8,656509
1,104167	0,1	8,905084
1,105833	0,1	9,048577
1,107500	0,1	9,169924
1,109167	0,1	9,233734
1,110833	0,1	9,280913
1,112500	0,1	9,248149
1,114167	0,1	9,218353
1,115833	0,1	9,137292
1,117500	0,1	9,018399
1,119167	0,1	8,888515
1,120833	0,1	8,689280
1,122500	0,1	8,550984
1,124167	0,1	8,322285
1,125833	0,1	8,065952
1,127500	0,1	7,849529
1,129167	0,1	7,558088
1,130833	0,1	7,346543
1,132500	0,1	7,027633
1,134167	0,1	6,814821
1,135833	0,1	6,489440
1,137500	0,1	6,239951
1,139167	0,1	5,992379
1,140833	0,1	5,735954
1,142500	0,1	5,482742
1,144167	0,1	5,244439
1,145833	0,1	5,038537
1,147500	0,1	4,785087
1,149167	0,1	4,560968
1,150833	0,1	4,355904
1,152500	0,1	4,212968
1,154167	0,1	4,003919
1,155833	0,1	3,791587
1,157500	0,1	3,650242
1,159167	0,1	3,483765
1,160833	0,1	3,397711
1,162500	0,1	3,181808
1,164167	0,1	3,089751
1,165833	0,1	2,913257
1,167500	0,1	2,786300
1,169167	0,1	2,704748
1,170833	0,1	2,570664
1,172500	0,1	2,497927
1,174167	0,1	2,379506
1,175833	0,1	2,303988
1,177500	0,1	2,213560
1,179167	0,1	2,131028
1,180833	0,1	2,034325
1,182500	0,1	1,975222
1,184167	0,1	1,925065
1,185833	0,1	1,766488
1,187500	0,1	1,776499
1,189167	0,1	1,724445
1,190833	0,1	1,679190
1,192500	0,1	1,579908
1,194167	0,1	1,540768
1,195833	0,1	1,509818
1,197500	0,1	1,464766
1,199167	0,1	1,379731
1,200833	0,1	1,370613
1,202500	0,1	1,310288
1,204167	0,1	1,290119
1,205833	0,1	1,294930
1,207500	0,1	1,200380
1,209167	0,1	1,211403
1,210833	0,1	1,187314
1,212500	0,1	1,138039
1,214167	0,1	1,095615
1,215833	0,1	1,063062
1,217500	0,1	1,101662
1,219167	0,1	1,049550
1,220833	0,1	1,035066
1,222500	0,1	1,011779
1,224167	0,1	1,001648
1,225833	0,1	0,943415
1,227500	0,1	0,982056
1,229167	0,1	0,956774
1,230833	0,1	0,915664
1,232500	0,1	0,886844
1,234167	0,1	0,888073
1,235833	0,1	0,831848
1,237500	0,1	0,815928
1,239167	0,1	0,862139
1,240833	0,1	0,835013
1,242500	0,1	0,795101
1,244167	0,1	0,835938
1,245833	0,1	0,764039
1,247500	0,1	0,791350
1,249167	0,1	0,787405
1,250833	0,1	0,764351
1,252500	0,1	0,786886
1,254167	0,1	0,762576
1,255833	0,1	0,771277
1,257500	0,1	0,767893
1,259167	0,1	0,673106
1,260833	0,1	0,716578
1,262500	0,1	0,673979
1,264167	0,1	0,693341
1,265833	0,1	0,686978
1,267500	0,1	0,701214
1,269167	0,1	0,614475
1,270833	0,1	0,667724
1,272500	0,1	0,631878
1,274167	0,1	0,581855
1,275833	0,1	0,636904
1,277500	0,1	0,645249
1,279167	0,1	0,663650
1,280833	0,1	0,622154
1,282500	0,1	0,581609
1,284167	0,1	0,600969
1,285833	0,1	0,611256
1,287500	0,1	0,571749
1,289167	0,1	0,599167
1,290833	0,1	0,551962
1,292500	0,1	0,536284
1,294167	0,1	0,588087
1,295833	0,1	0,541564
1,297500	0,1	0,545473
1,299167	0,1	0,528442
1,300833	0,1	0,559756
1,302500	0,1	0,533093
1,304167	0,1	0,497832
1,305833	0,1	0,550354
1,307500	0,1	0,524957
1,309167	0,1	0,496138
1,310833	0,1	0,518201
1,312500	0,1	0,492936
1,314167	0,1	0,511092
1,315833	0,1	0,478025
1,317500	0,1	0,462550
1,319167	0,1	0,457878
1,320833	0,1	0,457109
1,322500	0,1	0,468761
1,324167	0,1	0,438096
1,325833	0,1	0,457539
1,327500	0,1	0,443438
1,329167	0,1	0,415779
1,330833	0,1	0,448373
1,332500	0,1	0,432134
1,334167	0,1	0,464402
1,335833	0,1	0,422647
1,337500	0,1	0,370237
1,339167	0,1	0,410868
1,340833	0,1	0,399159
1,342500	0,1	0,392468
1,344167	0,1	0,377510
1,345833	0,1	0,396678
1,347500	0,1	0,401227
1,349167	0,1	0,413957
1,350833	0,1	0,417950
1,352500	0,1	0,381765
1,354167	0,1	0,391280
1,355833	0,1	0,337949
1,357500	0,1	0,354057
1,359167	0,1	0,370972
1,360833	0,1	0,409406
1,362500	0,1	0,330119
1,364167	0,1	0,337741
1,365833	0,1	0,336492
1,367500	0,1	0,334663
1,369167	0,1	0,373474
1,370833	0,1	0,369756
1,372500	0,1	0,361536
1,374167	0,1	0,344925
1,375833	0,1	0,328674
1,377500	0,1	0,331299
1,379167	0,1	0,314114
1,380833	0,1	0,309253
1,382500	0,1	0,306689
1,384167	0,1	0,331383
1,385833	0,1	0,304281
1,387500	0,1	0,321823
1,389167	0,1	0,316917
1,390833	0,1	0,295170
1,392500	0,1	0,260138
1,394167	0,1	0,327766
1,395833	0,1	0,287688
1,397500	0,1	0,337405
1,399167	0,1	0,318905
1,400833	0,1	0,331889
1,402500	0,1	0,307901
1,404167	0,1	0,306031
1,405833	0,1	0,317366
1,407500	0,1	0,296665
1,409167	0,1	0,338851
1,410833	0,1	0,320699
1,412500	0,1	0,298621
1,414167	0,1	0,322674
1,415833	0,1	0,317059
1,417500	0,1	0,284465
1,419167	0,1	0,276660
1,420833	0,1	0,289275
1,422500	0,1	0,295075
1,424167	0,1	0,301117
1,425833	0,1	0,262908
1,427500	0,1	0,275832
1,429167	0,1	0,264976
1,430833	0,1	0,263351
1,432500	0,1	0,302333
1,434167	0,1	0,267417
1,435833	0,1	0,261508
1,437500	0,1	0,301481
1,439167	0,1	0,296700
1,440833	0,1	0,266696
1,442500	0,1	0,299268
1,444167	0,1	0,226827
1,445833	0,1	0,281517
1,447500	0,1	0,285447
1,449167	0,1	0,267118
1,450833	0,1	0,276604
1,452500	0,1	0,265530
1,454167	0,1	0,252438
1,455833	0,1	0,269285
1,457500	0,1	0,237975
1,459167	0,1	0,281261
1,460833	0,1	0,254040
1,462500	0,1	0,319131
1,464167	0,1	0,242301
1,465833	0,1	0,273303
1,467500	0,1	0,262591
1,469167	0,1	0,233929
1,470833	0,1	0,302413
1,472500	0,1	0,244733
1,474167	0,1	0,243185
1,475833	0,1	0,206822
1,477500	0,1	0,247839
1,479167	0,1	0,234646
1,480833	0,1	0,222226
1,482500	0,1	0,250948
1,484167	0,1	0,267146
1,485833	0,1	0,243473
1,487500	0,1	0,271935
1,489167	0,1	0,299988
1,490833	0,1	0,231399
1,492500	0,1	0,228419
1,494167	0,1	0,260417
1,495833	0,1	0,219862
1,497500	0,1	0,300425
1,499167	0,1	0,302082
1,500833	0,1	0,282862
1,502500	0,1	0,270723
1,504167	0,1	0,314017
1,505833	0,1	0,236311
1,507500	0,1	0,282601
1,509167	0,1	0,277912
1,510833	0,1	0,248823
1,512500	0,1	0,259070
1,514167	0,1	0,270678
1,515833	0,1	0,253986
1,517500	0,1	0,244670
1,519167	0,1	0,255951
1,520833	0,1	0,222371
1,522500	0,1	0,271004
1,524167	0,1	0,281580
1,525833	0,1	0,262903
1,527500	0,1	0,261212
1,529167	0,1	0,241102
1,530833	0,1	0,269425
1,532500	0,1	0,259190
1,534167	0,1	0,275278
1,535833	0,1	0,243372
1,537500	0,1	0,298048
1,539167	0,1	0,233717
1,540833	0,1	0,259902
1,542500	0,1	0,236247
1,544167	0,1	0,231140
1,545833	0,1	0,248168
1,547500	0,1	0,232766
1,549167	0,1	0,268660
1,550833	0,1	0,197696
1,552500	0,1	0,251586
1,554167	0,1	0,251430
1,555833	0,1	0,253568
1,557500	0,1	0,233912
1,559167	0,1	0,222741
1,560833	0,1	0,245280
1,562500	0,1	0,248852
1,564167	0,1	0,226815
1,565833	0,1	0,176293
1,567500	0,1	0,245320
1,569167	0,1	0,184053
1,570833	0,1	0,267065
1,572500	0,1	0,216025
1,574167	0,1	0,222439
1,575833	0,1	0,231858
1,577500	0,1	0,214317
1,579167	0,1	0,226137
1,580833	0,1	0,225367
1,582500	0,1	0,224090
1,584167	0,1	0,201600
1,585833	0,1	0,207881
1,587500	0,1	0,197232
1,589167	0,1	0,232739
1,590833	0,1	0,184961
1,592500	0,1	0,165233
1,594167	0,1	0,208351
1,595833	0,1	0,218922
1,597500	0,1	0,212047
1,599167	0,1	0,223881
1,600833	0,1	0,196153
1,602500	0,1	0,207584
1,604167	0,1	0,226301
1,605833	0,1	0,256731
1,607500	0,1	0,227215
1,609167	0,1	0,253344
1,610833	0,1	0,205950
1,612500	0,1	0,243638
1,614167	0,1	0,198374
1,615833	0,1	0,237995
1,617500	0,1	0,221170
1,619167	0,1	0,235166
1,620833	0,1	0,246325
1,622500	0,1	0,212348
1,624167	0,1	0,247325
1,625833	0,1	0,298953
1,627500	0,1	0,309604
1,629167	0,1	0,323882
1,630833	0,1	0,327734
1,632500	0,1	0,338789
1,634167	0,1	0,364541
1,635833	0,1	0,366673
1,637500	0,1	0,378025
1,639167	0,1	0,468216
1,640833	0,1	0,478133
1,642500	0,1	0,505424
1,644167	0,1	0,597840
1,645833	0,1	0,658457
1,647500	0,1	0,717570
1,649167	0,1	0,751193
1,650833	0,1	0,779466
1,652500	0,1	0,918520
1,654167	0,1	1,004639
1,655833	0,1	1,093278
1,657500	0,1	1,203017
1,659167	0,1	1,318066
1,660833	0,1	1,430566
1,662500	0,1	1,599249
1,664167	0,1	1,774232
1,665833	0,1	1,919369
1,667500	0,1	2,117994
1,669167	0,1	2,297554
1,670833	0,1	2,550336
1,672500	0,1	2,756471
1,674167	0,1	3,057504
1,675833	0,1	3,273360
1,677500	0,1	3,588778
1,679167	0,1	3,879512
1,680833	0,1	4,259276
1,682500	0,1	4,630834
1,684167	0,1	4,958439
1,685833	0,1	5,388671
1,687500	0,1	5,763637
1,689167	0,1	6,229772
1,690833	0,1	6,659131
1,692500	0,1	7,168798
1,694167	0,1	7,624467
1,695833	0,1	8,150814
1,697500	0,1	8,678282
1,699167	0,1	9,259499
1,700833	0,1	9,828038
1,702500	0,1	10,440281
1,704167	0,1	11,028889
1,705833	0,1	11,674268
1,707500	0,1	12,233280
1,709167	0,1	12,932767
1,710833	0,1	13,655590
1,712500	0,1	14,277174
1,714167	0,1	14,934496
1,715833	0,1	15,630044
1,717500	0,1	16,329076
1,719167	0,1	17,055252
1,720833	0,1	17,747044
1,722500	0,1	18,408846
1,724167	0,1	19,178478
1,725833	0,1	19,827980
1,727500	0,1	20,542154
1,729167	0,1	21,225900
1,730833	0,1	21,927949
1,732500	0,1	22,605314
1,734167	0,1	23,224781
1,735833	0,1	23,900103
1,737500	0,1	24,536911
1,739167	0,1	25,119359
1,740833	0,1	25,743512
1,742500	0,1	26,281593
1,744167	0,1	26,857392
1,745833	0,1	27,396709
1,747500	0,1	27,887535
1,749167	0,1	28,406465
1,750833	0,1	28,870884
1,752500	0,1	29,297996
1,754167	0,1	29,715280
1,755833	0,1	30,115083
1,757500	0,1	30,449357
1,759167	0,1	30,822878
1,760833	0,1	31,114685
1,762500	0,1	31,364320
1,764167	0,1	31,583061
1,765833	0,1	31,784177
1,767500	0,1	31,974814
1,769167	0,1	32,106721
1,770833	0,1	32,253605
1,772500	0,1	32,266917
1,774167	0,1	32,374799
1,775833	0,1	32,352093
1,777500	0,1	32,410389
1,779167	0,1	32,408383
1,780833	0,1	32,312271
1,782500	0,1	32,235686
1,784167	0,1	32,104065
1,785833	0,1	31,982809
1,787500	0,1	31,819533
1,789167	0,1	31,608013
1,790833	0,1	31,421657
1,792500	0,1	31,246366
1,794167	0,1	30,974330
1,795833	0,1	30,703778
1,797500	0,1	30,383851
1,799167	0,1	30,071472
1,800833	0,1	29,740527
1,802500	0,1	29,407125
1,804167	0,1	29,103062
1,805833	0,1	28,703002
1,807500	0,1	28,313970
1,809167	0,1	27,894674
1,810833	0,1	27,517483
1,812500	0,1	27,086955
1,814167	0,1	26,659914
1,815833	0,1	26,236428
1,817500	0,1	25,803027
1,819167	0,1	25,326052
1,820833	0,1	24,904879
1,822500	0,1	24,436231
1,824167	0,1	23,970408
1,825833	0,1	23,554721
1,827500	0,1	23,053665
1,829167	0,1	22,585025
1,830833	0,1	22,131350
1,832500	0,1	21,657076
1,834167	0,1	21,171831
1,835833	0,1	20,692512
1,837500	0,1	20,236147
1,839167	0,1	19,818211
1,840833	0,1	19,378905
1,842500	0,1	18,896930
1,844167	0,1	18,448478
1,845833	0,1	18,005183
1,847500	0,1	17,554315
1,849167	0,1	17,143456
1,850833	0,1	16,700641
1,852500	0,1	16,263445
1,854167	0,1	15,869336
1,855833	0,1	15,500503
1,857500	0,1	15,086312
1,859167	0,1	14,662924
1,860833	0,1	14,312259
1,862500	0,1	13,920134
1,864167	0,1	13,524872
1,865833	0,1	13,200408
1,867500	0,1	12,818679
1,869167	0,1	12,521294
1,870833	0,1	12,150933
1,872500	0,1	11,812412
1,874167	0,1	11,496847
1,875833	0,1	11,136912
1,877500	0,1	10,861875
1,879167	0,1	10,515506
1,880833	0,1	10,244366
1,882500	0,1	9,951327
1,884167	0,1	9,700866
1,885833	0,1	9,408645
1,887500	0,1	9,154755
1,889167	0,1	8,932166
1,890833	0,1	8,654919
1,892500	0,1	8,407036
1,894167	0,1	8,178944
1,895833	0,1	7,933511
1,897500	0,1	7,710367
1,899167	0,1	7,502060
1,900833	0,1	7,285243
1,902500	0,1	7,057752
1,904167	0,1	6,864085
1,905833	0,1	6,674076
1,907500	0,1	6,530462
1,909167	0,1	6,297583
1,910833	0,1	6,096530
1,912500	0,1	5,950627
1,914167	0,1	5,762060
1,915833	0,1	5,627803
1,917500	0,1	5,473544
1,919167	0,1	5,305958
1,920833	0,1	5,176618
1,922500	0,1	4,989463
1,924167	0,1	4,870567
1,925833	0,1	4,733647
1,927500	0,1	4,575150
1,929167	0,1	4,493375
1,930833	0,1	4,351597
1,932500	0,1	4,225519
1,934167	0,1	4,114457
1,935833	0,1	4,014067
1,937500	0,1	3,916742
1,939167	0,1	3,829355
1,940833	0,1	3,694647
1,942500	0,1	3,614009
1,944167	0,1	3,453568
1,945833	0,1	3,418814
1,947500	0,1	3,272472
1,949167	0,1	3,207294
1,950833	0,1	3,136732
1,952500	0,1	3,073930
1,954167	0,1	2,978796
1,955833	0,1	2,897501
1,957500	0,1	2,804180
1,959167	0,1	2,790238
1,960833	0,1	2,703791
1,962500	0,1	2,616943
1,964167	0,1	2,556425
1,965833	0,1	2,499527
1,967500	0,1	2,440374
1,969167	0,1	2,361029
1,970833	0,1	2,306074
1,972500	0,1	2,262880
1,974167	0,1	2,194054
1,975833	0,1	2,096835
1,977500	0,1	2,103747
1,979167	0,1	2,060060
1,980833	0,1	2,026120
1,982500	0,1	1,955870
1,984167	0,1	1,911300
1,985833	0,1	1,943143
1,987500	0,1	1,872801
1,989167	0,1	1,824482
1,990833	0,1	1,798672
1,992500	0,1	1,694382
1,994167	0,1	1,694655
1,995833	0,1	1,681143
1,997500	0,1	1,629923
1,999167	0,1	1,594193
2,000833	0,1	1,549911
2,002500	0,1	1,558700
2,004167	0,1	1,506208
2,005833	0,1	1,461449
2,007500	0,1	1,493153
2,009167	0,1	1,443476
2,010833	0,1	1,398973
2,012500	0,1	1,384880
2,014167	0,1	1,375700
2,015833	0,1	1,352339
2,017500	0,1	1,334801
2,019167	0,1	1,293057
2,020833	0,1	1,283068
2,022500	0,1	1,273088
2,024167	0,1	1,261001
2,025833	0,1	1,236749
2,027500	0,1	1,230597
2,029167	0,1	1,233784
2,030833	0,1	1,216396
2,032500	0,1	1,210217
2,034167	0,1	1,212040
2,035833	0,1	1,173848
2,037500	0,1	1,152541
2,039167	0,1	1,143334
2,040833	0,1	1,111971
2,042500	0,1	1,106429
2,044167	0,1	1,112385
2,045833	0,1	1,062700
2,047500	0,1	1,067332
2,049167	0,1	1,040934
2,050833	0,1	1,047307
2,052500	0,1	1,055679
2,054167	0,1	1,061174
2,055833	0,1	1,063885
2,057500	0,1	1,042741
2,059167	0,1	1,029464
2,060833	0,1	1,050548
2,062500	0,1	0,974959
2,064167	0,1	0,994939
2,065833	0,1	1,015424
2,067500	0,1	0,982321
2,069167	0,1	1,003034
2,070833	0,1	0,959980
2,072500	0,1	0,999397
2,074167	0,1	0,996367
2,075833	0,1	0,984438
2,077500	0,1	0,968218
2,079167	0,1	0,962552
2,080833	0,1	0,970018
2,082500	0,1	0,942849
2,084167	0,1	0,951655
2,085833	0,1	0,943841
2,087500	0,1	0,933593
2,089167	0,1	0,935177
2,090833	0,1	0,935396
2,092500	0,1	0,903920
2,094167	0,1	0,900697
2,095833	0,1	0,947829
2,097500	0,1	0,953001
2,099167	0,1	0,914596
2,100833	0,1	0,944040
2,102500	0,1	0,922792
2,104167	0,1	0,916063
2,105833	0,1	0,886906
2,107500	0,1	0,892813
2,109167	0,1	0,923557
2,110833	0,1	0,866487
2,112500	0,1	0,912268
2,114167	0,1	0,880804
2,115833	0,1	0,930244
2,117500	0,1	0,910151
2,119167	0,1	0,893782
2,120833	0,1	0,917261
2,122500	0,1	0,875997
2,124167	0,1	0,865131
2,125833	0,1	0,863807
2,127500	0,1	0,876683
2,129167	0,1	0,871440
2,130833	0,1	0,835783
2,132500	0,1	0,851360
2,134167	0,1	0,841394
2,135833	0,1	0,843537
2,137500	0,1	0,819731
2,139167	0,1	0,824136
2,140833	0,1	0,860300
2,142500	0,1	0,803699
2,144167	0,1	0,843637
2,145833	0,1	0,837360
2,147500	0,1	0,825885
2,149167	0,1	0,841171
2,150833	0,1	0,823708
2,152500	0,1	0,798423
2,154167	0,1	0,810989
2,155833	0,1	0,799656
2,157500	0,1	0,806962
2,159167	0,1	0,788102
2,160833	0,1	0,831677
2,162500	0,1	0,806163
2,164167	0,1	0,814780
2,165833	0,1	0,789714
2,167500	0,1	0,751746
2,169167	0,1	0,794533
2,170833	0,1	0,754944
2,172500	0,1	0,736962
2,174167	0,1	0,761996
2,175833	0,1	0,758079
2,177500	0,1	0,762190
2,179167	0,1	0,758992
2,180833	0,1	0,715177
2,182500	0,1	0,769164
2,184167	0,1	0,709054
2,185833	0,1	0,728113
2,187500	0,1	0,734053
2,189167	0,1	0,754768
2,190833	0,1	0,706498
2,192500	0,1	0,708933
2,194167	0,1	0,721745
2,195833	0,1	0,705014
2,197500	0,1	0,691926
2,199167	0,1	0,719001
2,200833	0,1	0,692119
2,202500	0,1	0,679380
2,204167	0,1	0,680960
2,205833	0,1	0,697805
2,207500	0,1	0,653942
2,209167	0,1	0,675152
2,210833	0,1	0,676045
2,212500	0,1	0,659715
2,214167	0,1	0,627374
2,215833	0,1	0,646354
2,217500	0,1	0,635129
2,219167	0,1	0,690381
2,220833	0,1	0,640918
2,222500	0,1	0,611603
2,224167	0,1	0,654920
2,225833	0,1	0,645635
2,227500	0,1	0,617111
2,229167	0,1	0,668699
2,230833	0,1	0,582258
2,232500	0,1	0,615215
2,234167	0,1	0,601982
2,235833	0,1	0,613421
2,237500	0,1	0,573169
2,239167	0,1	0,565393
2,240833	0,1	0,579305
2,242500	0,1	0,573129
2,244167	0,1	0,565393
2,245833	0,1	0,562707
2,247500	0,1	0,585211
2,249167	0,1	0,544508
2,250833	0,1	0,545324
2,252500	0,1	0,528135
2,254167	0,1	0,548658
2,255833	0,1	0,532688
2,257500	0,1	0,535602
2,259167	0,1	0,587329
2,260833	0,1	0,555867
2,262500	0,1	0,509829
2,264167	0,1	0,528379
2,265833	0,1	0,502870
2,267500	0,1	0,504450
2,269167	0,1	0,524966
2,270833	0,1	0,506525
2,272500	0,1	0,494330
2,274167	0,1	0,564117
2,275833	0,1	0,484244
2,277500	0,1	0,517851
2,279167	0,1	0,517828
2,280833	0,1	0,483781
2,282500	0,1	0,503885
2,284167	0,1	0,519514
2,285833	0,1	0,500916
2,287500	0,1	0,503700
2,289167	0,1	0,490444
2,290833	0,1	0,489118
2,292500	0,1	0,486351
2,294167	0,1	0,433132
2,295833	0,1	0,456663
2,297500	0,1	0,455309
2,299167	0,1	0,468161
2,300833	0,1	0,453537
2,302500	0,1	0,480732
2,304167	0,1	0,442671
2,305833	0,1	0,439842
2,307500	0,1	0,450708
2,309167	0,1	0,466451
2,310833	0,1	0,425376
2,312500	0,1	0,429582
2,314167	0,1	0,423470
2,315833	0,1	0,448246
2,317500	0,1	0,478811
2,319167	0,1	0,433058
2,320833	0,1	0,456974
2,322500	0,1	0,433942
2,324167	0,1	0,419537
2,325833	0,1	0,445233
2,327500	0,1	0,411164
2,329167	0,1	0,430065
2,330833	0,1	0,442014
2,332500	0,1	0,373291
2,334167	0,1	0,420200
2,335833	0,1	0,399735
2,337500	0,1	0,397310
2,339167	0,1	0,423217
2,340833	0,1	0,383158
2,342500	0,1	0,396714
2,344167	0,1	0,370267
2,345833	0,1	0,410326
2,347500	0,1	0,399454
2,349167	0,1	0,409096
2,350833	0,1	0,367190
2,352500	0,1	0,386854
2,354167	0,1	0,377299
2,355833	0,1	0,382347
2,357500	0,1	0,399864
2,359167	0,1	0,360084
2,360833	0,1	0,401513
2,362500	0,1	0,378070
2,364167	0,1	0,326776
2,365833	0,1	0,410560
2,367500	0,1	0,377081
2,369167	0,1	0,383531
2,370833	0,1	0,378639
2,372500	0,1	0,320314
2,374167	0,1	0,346674
2,375833	0,1	0,392664
2,377500	0,1	0,357122
2,379167	0,1	0,372715
2,380833	0,1	0,383529
2,382500	0,1	0,391106
2,384167	0,1	0,328830
2,385833	0,1	0,337591
2,387500	0,1	0,391236
2,389167	0,1	0,323885
2,390833	0,1	0,365968
2,392500	0,1	0,390997
2,394167	0,1	0,397534
2,395833	0,1	0,341700
2,397500	0,1	0,361656
2,399167	0,1	0,372679
2,400833	0,1	0,314204
2,402500	0,1	0,348084
2,404167	0,1	0,347746
2,405833	0,1	0,357755
2,407500	0,1	0,317317
2,409167	0,1	0,379356
2,410833	0,1	0,370595
2,412500	0,1	0,319163
2,414167	0,1	0,307698
2,415833	0,1	0,316121
2,417500	0,1	0,321675
2,419167	0,1	0,346434
2,420833	0,1	0,339614
2,422500	0,1	0,337212
2,424167	0,1	0,293028
2,425833	0,1	0,283476
2,427500	0,1	0,322540
2,429167	0,1	0,317189
2,430833	0,1	0,324584
2,432500	0,1	0,291300
2,434167	0,1	0,326475
2,435833	0,1	0,312905
2,437500	0,1	0,331097
2,439167	0,1	0,309270
2,440833	0,1	0,319342
2,442500	0,1	0,347565
2,444167	0,1	0,318084
2,445833	0,1	0,313880
2,447500	0,1	0,309021
2,449167	0,1	0,276586
2,450833	0,1	0,313676
2,452500	0,1	0,308429
2,454167	0,1	0,291231
2,455833	0,1	0,299791
2,457500	0,1	0,306722
2,459167	0,1	0,261951
2,460833	0,1	0,280336
2,462500	0,1	0,295962
2,464167	0,1	0,277162
2,465833	0,1	0,283265
2,467500	0,1	0,279143
2,469167	0,1	0,275780
2,470833	0,1	0,285233
2,472500	0,1	0,251760
2,474167	0,1	0,256579
2,475833	0,1	0,306417
2,477500	0,1	0,269679
2,479167	0,1	0,283004
2,480833	0,1	0,266032
2,482500	0,1	0,281676
2,484167	0,1	0,256860
2,485833	0,1	0,307372
2,487500	0,1	0,312240
2,489167	0,1	0,235059
2,490833	0,1	0,252031
2,492500	0,1	0,256400
2,494167	0,1	0,263279
2,495833	0,1	0,257949
2,497500	0,1	0,292018
2,499167	0,1	0,292655
2,500833	0,1	0,265879
2,502500	0,1	0,255413
2,504167	0,1	0,271392
2,505833	0,1	0,273098
2,507500	0,1	0,315192
2,509167	0,1	0,231700
2,510833	0,1	0,220383
2,512500	0,1	0,284873
2,514167	0,1	0,299634
2,515833	0,1	0,274652
2,517500	0,1	0,303215
2,519167	0,1	0,312364
2,520833	0,1	0,283027
2,522500	0,1	0,247082
2,524167	0,1	0,276364
2,525833	0,1	0,277452
2,527500	0,1	0,266786
2,529167	0,1	0,319072
2,530833	0,1	0,278404
2,532500	0,1	0,285774
2,534167	0,1	0,242073
2,535833	0,1	0,269457
2,537500	0,1	0,291257
2,539167	0,1	0,293004
2,540833	0,1	0,257145
2,542500	0,1	0,243469
2,544167	0,1	0,250781
2,545833	0,1	0,217322
2,547500	0,1	0,261234
2,549167	0,1	0,264723
2,550833	0,1	0,224758
2,552500	0,1	0,270267
2,554167	0,1	0,269917
2,555833	0,1	0,253430
2,557500	0,1	0,288923
2,559167	0,1	0,277753
2,560833	0,1	0,281265
2,562500	0,1	0,299390
2,564167	0,1	0,248322
2,565833	0,1	0,269717
2,567500	0,1	0,294701
2,569167	0,1	0,282195
2,570833	0,1	0,266557
2,572500	0,1	0,241554
2,574167	0,1	0,288972
2,575833	0,1	0,251643
2,577500	0,1	0,256002
2,579167	0,1	0,214593
2,580833	0,1	0,262974
2,582500	0,1	0,275711
2,584167	0,1	0,295975
2,585833	0,1	0,323432
2,587500	0,1	0,268602
2,589167	0,1	0,297750
2,590833	0,1	0,288096
2,592500	0,1	0,215285
2,594167	0,1	0,255978
2,595833	0,1	0,293342
2,597500	0,1	0,282661
2,599167	0,1	0,251744
2,600833	0,1	0,285961
2,602500	0,1	0,308007
2,604167	0,1	0,262313
2,605833	0,1	0,304382
2,607500	0,1	0,311387
2,609167	0,1	0,288811
2,610833	0,1	0,287013
2,612500	0,1	0,254027
2,614167	0,1	0,321733
2,615833	0,1	0,282564
2,617500	0,1	0,266906
2,619167	0,1	0,288541
2,620833	0,1	0,290737
2,622500	0,1	0,291560
2,624167	0,1	0,302072
2,625833	0,1	0,322284
2,627500	0,1	0,277013
2,629167	0,1	0,283997
2,630833	0,1	0,251089
2,632500	0,1	0,298665
2,634167	0,1	0,251247
2,635833	0,1	0,273132
2,637500	0,1	0,268383
2,639167	0,1	0,281095
2,640833	0,1	0,283030
2,642500	0,1	0,303964
2,644167	0,1	0,292955
2,645833	0,1	0,288302
2,647500	0,1	0,327330
2,649167	0,1	0,309321
2,650833	0,1	0,261168
2,652500	0,1	0,283193
2,654167	0,1	0,295873
2,655833	0,1	0,299792
2,657500	0,1	0,293805
2,659167	0,1	0,343486
2,660833	0,1	0,324036
2,662500	0,1	0,275777
2,664167	0,1	0,293169
2,665833	0,1	0,286075
2,667500	0,1	0,261251
2,669167	0,1	0,288783
2,670833	0,1	0,316138
2,672500	0,1	0,291721
2,674167	0,1	0,323120
2,675833	0,1	0,248173
2,677500	0,1	0,257326
2,679167	0,1	0,317557
2,680833	0,1	0,266514
2,682500	0,1	0,251200
2,684167	0,1	0,299383
2,685833	0,1	0,261241
2,687500	0,1	0,297890
2,689167	0,1	0,242757
2,690833	0,1	0,262091
2,692500	0,1	0,276546
2,694167	0,1	0,328321
2,695833	0,1	0,321632
2,697500	0,1	0,291270
2,699167	0,1	0,281654
2,700833	0,1	0,276026
2,702500	0,1	0,267135
2,704167	0,1	0,273431
2,705833	0,1	0,261493
2,707500	0,1	0,287828
2,709167	0,1	0,271607
2,710833	0,1	0,297840
2,712500	0,1	0,295721
2,714167	0,1	0,247884
2,715833	0,1	0,260199
2,717500	0,1	0,288242
2,719167	0,1	0,271993
2,720833	0,1	0,272930
2,722500	0,1	0,306020
2,724167	0,1	0,277201
2,725833	0,1	0,296761
2,727500	0,1	0,272240
2,729167	0,1	0,286313
2,730833	0,1	0,239148
2,732500	0,1	0,259501
2,734167	0,1	0,241088
2,735833	0,1	0,264964
2,737500	0,1	0,258426
2,739167	0,1	0,300902
2,740833	0,1	0,294048
2,742500	0,1	0,282247
2,744167	0,1	0,299235
2,745833	0,1	0,289976
2,747500	0,1	0,305661
2,749167	0,1	0,245453
2,750833	0,1	0,302356
2,752500	0,1	0,307803
2,754167	0,1	0,307562
2,755833	0,1	0,306606
2,757500	0,1	0,253269
2,759167	0,1	0,302306
2,760833	0,1	0,252794
2,762500	0,1	0,297487
2,764167	0,1	0,307663
2,765833	0,1	0,310086
2,767500	0,1	0,309072
2,769167	0,1	0,281066
2,770833	0,1	0,289137
2,772500	0,1	0,332188
2,774167	0,1	0,303894
2,775833	0,1	0,332940
2,777500	0,1	0,266259
2,779167	0,1	0,323356
2,780833	0,1	0,318463
2,782500	0,1	0,316720
2,784167	0,1	0,292016
2,785833	0,1	0,334017
2,787500	0,1	0,334758
2,789167	0,1	0,334880
2,790833	0,1	0,331087
2,792500	0,1	0,357666
2,794167	0,1	0,314170
2,795833	0,1	0,333133
2,797500	0,1	0,329570
2,799167	0,1	0,378420
2,800833	0,1	0,353169
2,802500	0,1	0,346025
2,804167	0,1	0,313870
2,805833	0,1	0,315552
2,807500	0,1	0,362887
2,809167	0,1	0,352644
2,810833	0,1	0,366518
2,812500	0,1	0,356527
2,814167	0,1	0,357657
2,815833	0,1	0,378061
2,817500	0,1	0,336947
2,819167	0,1	0,352566
2,820833	0,1	0,361260
2,822500	0,1	0,359397
2,824167	0,1	0,391971
2,825833	0,1	0,339038
2,827500	0,1	0,381189
2,829167	0,1	0,362432
2,830833	0,1	0,396550
2,832500	0,1	0,335137
2,834167	0,1	0,353839
2,835833	0,1	0,356524
2,837500	0,1	0,322128
2,839167	0,1	0,368127
2,840833	0,1	0,371552
2,842500	0,1	0,359001
2,844167	0,1	0,361139
2,845833	0,1	0,392129
2,847500	0,1	0,336861
2,849167	0,1	0,359775
2,850833	0,1	0,388473
2,852500	0,1	0,333795
2,854167	0,1	0,337404
2,855833	0,1	0,325499
2,857500	0,1	0,369103
2,859167	0,1	0,345020
2,860833	0,1	0,373654
2,862500	0,1	0,391939
2,864167	0,1	0,322707
2,865833	0,1	0,369888
2,867500	0,1	0,321501
2,869167	0,1	0,355124
2,870833	0,1	0,334119
2,872500	0,1	0,342104
2,874167	0,1	0,361623
2,875833	0,1	0,344516
2,877500	0,1	0,323413
2,879167	0,1	0,344957
2,880833	0,1	0,349072
2,882500	0,1	0,336362
2,884167	0,1	0,290526
2,885833	0,1	0,347615
2,887500	0,1	0,302070
2,889167	0,1	0,286255
2,890833	0,1	0,328618
2,892500	0,1	0,338119
2,894167	0,1	0,276396
2,895833	0,1	0,274359
2,897500	0,1	0,312845
2,899167	0,1	0,289617
2,900833	0,1	0,319238
2,902500	0,1	0,313901
2,904167	0,1	0,290417
2,905833	0,1	0,328989
2,907500	0,1	0,286906
2,909167	0,1	0,294970
2,910833	0,1	0,328013
2,912500	0,1	0,334514
2,914167	0,1	0,312742
2,915833	0,1	0,307148
2,917500	0,1	0,288188
2,919167	0,1	0,259152
2,920833	0,1	0,270336
2,922500	0,1	0,311491
2,924167	0,1	0,294717
2,925833	0,1	0,271389
2,927500	0,1	0,288128
2,929167	0,1	0,290501
2,930833	0,1	0,250677
2,932500	0,1	0,251761
2,934167	0,1	0,276479
2,935833	0,1	0,229913
2,937500	0,1	0,267856
2,939167	0,1	0,305953
2,940833	0,1	0,214182
2,942500	0,1	0,292710
2,944167	0,1	0,240335
2,945833	0,1	0,238791
2,947500	0,1	0,245911
2,949167	0,1	0,251156
2,950833	0,1	0,294304
2,952500	0,1	0,220115
2,954167	0,1	0,242830
2,955833	0,1	0,254839
2,957500	0,1	0,233628
2,959167	0,1	0,235555
2,960833	0,1	0,261211
2,962500	0,1	0,259145
2,964167	0,1	0,268249
2,965833	0,1	0,269733
2,967500	0,1	0,254639
2,969167	0,1	0,251890
2,970833	0,1	0,222140
2,972500	0,1	0,258389
2,974167	0,1	0,255460
2,975833	0,1	0,248093
2,977500	0,1	0,282029
2,979167	0,1	0,260578
2,980833	0,1	0,234829
2,982500	0,1	0,235607
2,984167	0,1	0,257490
2,985833	0,1	0,255332
2,987500	0,1	0,274791
2,989167	0,1	0,273404
2,990833	0,1	0,265187
2,992500	0,1	0,310741
2,994167	0,1	0,242502
2,995833	0,1	0,256616
2,997500	0,1	0,263807
2,999167	0,1	0,248545
3,000833	0,1	0,254738
3,002500	0,1	0,309746
3,004167	0,1	0,288869
3,005833	0,1	0,257375
3,007500	0,1	0,291500
3,009167	0,1	0,307593
3,010833	0,1	0,289846
3,012500	0,1	0,299864
3,014167	0,1	0,317086
3,015833	0,1	0,299767
3,017500	0,1	0,244884
3,019167	0,1	0,285338
3,020833	0,1	0,318371
3,022500	0,1	0,296149
3,024167	0,1	0,322165
3,025833	0,1	0,297555
3,027500	0,1	0,307840
3,029167	0,1	0,325475
3,030833	0,1	0,300258
3,032500	0,1	0,329546
3,034167	0,1	0,319285
3,035833	0,1	0,339420
3,037500	0,1	0,344265
3,039167	0,1	0,304719
3,040833	0,1	0,309632
3,042500	0,1	0,287131
3,044167	0,1	0,323694
3,045833	0,1	0,347970
3,047500	0,1	0,291211
3,049167	0,1	0,302250
3,050833	0,1	0,295013
3,052500	0,1	0,330382
3,054167	0,1	0,330494
3,055833	0,1	0,344404
3,057500	0,1	0,342891
3,059167	0,1	0,347420
3,060833	0,1	0,352938
3,062500	0,1	0,314152
3,064167	0,1	0,371836
3,065833	0,1	0,311671
3,067500	0,1	0,316304
3,069167	0,1	0,346732
3,070833	0,1	0,323708
3,072500	0,1	0,307950
3,074167	0,1	0,357088
3,075833	0,1	0,344809
3,077500	0,1	0,346392
3,079167	0,1	0,314847
3,080833	0,1	0,365377
3,082500	0,1	0,317168
3,084167	0,1	0,366003
3,085833	0,1	0,327615
3,087500	0,1	0,330338
3,089167	0,1	0,325290
3,090833	0,1	0,326975
3,092500	0,1	0,340033
3,094167	0,1	0,377116
3,095833	0,1	0,333414
3,097500	0,1	0,342109
3,099167	0,1	0,330200
3,100833	0,1	0,337911
3,102500	0,1	0,333353
3,104167	0,1	0,302541
3,105833	0,1	0,302444
3,107500	0,1	0,318250
3,109167	0,1	0,340603
3,110833	0,1	0,297404
3,112500	0,1	0,287461
3,114167	0,1	0,347562
3,115833	0,1	0,326478
3,117500	0,1	0,324939
3,119167	0,1	0,349258
3,120833	0,1	0,334155
3,122500	0,1	0,319827
3,124167	0,1	0,306156
3,125833	0,1	0,313549
3,127500	0,1	0,339736
3,129167	0,1	0,275701
3,130833	0,1	0,292534
3,132500	0,1	0,280043
3,134167	0,1	0,280438
3,135833	0,1	0,294489
3,137500	0,1	0,326241
3,139167	0,1	0,340501
3,140833	0,1	0,302387
3,142500	0,1	0,284168
3,144167	0,1	0,322561
3,145833	0,1	0,313907
3,147500	0,1	0,289116
3,149167	0,1	0,295728
3,150833	0,1	0,304901
3,152500	0,1	0,243196
3,154167	0,1	0,263339
3,155833	0,1	0,291576
3,157500	0,1	0,296143
3,159167	0,1	0,243157
3,160833	0,1	0,253382
3,162500	0,1	0,269329
3,164167	0,1	0,258102
3,165833	0,1	0,288057
3,167500	0,1	0,256858
3,169167	0,1	0,281322
3,170833	0,1	0,263873
3,172500	0,1	0,249975
3,174167	0,1	0,244073
3,175833	0,1	0,265128
3,177500	0,1	0,249666
3,179167	0,1	0,272897
3,180833	0,1	0,262893
3,182500	0,1	0,256940
3,184167	0,1	0,227332
3,185833	0,1	0,240396
3,187500	0,1	0,251385
3,189167	0,1	0,240544
3,190833	0,1	0,257078
3,192500	0,1	0,224499
3,194167	0,1	0,266746
3,195833	0,1	0,257831
3,197500	0,1	0,244513
3,199167	0,1	0,255493
3,200833	0,1	0,220996
3,202500	0,1	0,218990
3,204167	0,1	0,226433
3,205833	0,1	0,229849
3,207500	0,1	0,256431
3,209167	0,1	0,242787
3,210833	0,1	0,252133
3,212500	0,1	0,229300
3,214167	0,1	0,211279
3,215833	0,1	0,227101
3,217500	0,1	0,242817
3,219167	0,1	0,196627
3,220833	0,1	0,219680
3,222500	0,1	0,214291
3,224167	0,1	0,210129
3,225833	0,1	0,207798
3,227500	0,1	0,227770
3,229167	0,1	0,217512
3,230833	0,1	0,221849
3,232500	0,1	0,215514
3,234167	0,1	0,198436
3,235833	0,1	0,196952
3,237500	0,1	0,220478
3,239167	0,1	0,238101
3,240833	0,1	0,205024
3,242500	0,1	0,208235
3,244167	0,1	0,205130
3,245833	0,1	0,236670
3,247500	0,1	0,237925
3,249167	0,1	0,199524
3,250833	0,1	0,213937
3,252500	0,1	0,205302
3,254167	0,1	0,218305
3,255833	0,1	0,150805
3,257500	0,1	0,188416
3,259167	0,1	0,214630
3,260833	0,1	0,217174
3,262500	0,1	0,168035
3,264167	0,1	0,185907
3,265833	0,1	0,223721
3,267500	0,1	0,182845
3,269167	0,1	0,181496
3,270833	0,1	0,196458
3,272500	0,1	0,182092
3,274167	0,1	0,178081
3,275833	0,1	0,192245
3,277500	0,1	0,161254
3,279167	0,1	0,210156
3,280833	0,1	0,207733
3,282500	0,1	0,197404
3,284167	0,1	0,162440
3,285833	0,1	0,156923
3,287500	0,1	0,169939
3,289167	0,1	0,192182
3,290833	0,1	0,217155
3,292500	0,1	0,230863
3,294167	0,1	0,219585
3,295833	0,1	0,177036
3,297500	0,1	0,174707
3,299167	0,1	0,197372
3,300833	0,1	0,178421
3,302500	0,1	0,177516
3,304167	0,1	0,205510
3,305833	0,1	0,238498
3,307500	0,1	0,189982
3,309167	0,1	0,217000
3,310833	0,1	0,179521
3,312500	0,1	0,191591
3,314167	0,1	0,203376
3,315833	0,1	0,189368
3,317500	0,1	0,187074
3,319167	0,1	0,185337
3,320833	0,1	0,198532
3,322500	0,1	0,191994
3,324167	0,1	0,187139
3,325833	0,1	0,178357
3,327500	0,1	0,177465
3,329167	0,1	0,158704
3,330833	0,1	0,180151
3,332500	0,1	0,182424
3,334167	0,1	0,218827
3,335833	0,1	0,195515
3,337500	0,1	0,167190
3,339167	0,1	0,186284
3,340833	0,1	0,223283
3,342500	0,1	0,168126
3,344167	0,1	0,167418
3,345833	0,1	0,190791
3,347500	0,1	0,204317
3,349167	0,1	0,217596
3,350833	0,1	0,232666
3,352500	0,1	0,180505
3,354167	0,1	0,207921
3,355833	0,1	0,202235
3,357500	0,1	0,210347
3,359167	0,1	0,168584
3,360833	0,1	0,206141
3,362500	0,1	0,190594
3,364167	0,1	0,197427
3,365833	0,1	0,205103
3,367500	0,1	0,182145
3,369167	0,1	0,209569
3,370833	0,1	0,210952
3,372500	0,1	0,208237
3,374167	0,1	0,226110
3,375833	0,1	0,198131
3,377500	0,1	0,223867
3,379167	0,1	0,178325
3,380833	0,1	0,207133
3,382500	0,1	0,247602
3,384167	0,1	0,217208
3,385833	0,1	0,202984
3,387500	0,1	0,194070
3,389167	0,1	0,218535
3,390833	0,1	0,202300
3,392500	0,1	0,198035
3,394167	0,1	0,243994
3,395833	0,1	0,188090
3,397500	0,1	0,227290
3,399167	0,1	0,170897
3,400833	0,1	0,181236
3,402500	0,1	0,238827
3,404167	0,1	0,221648
3,405833	0,1	0,171796
3,407500	0,1	0,197963
3,409167	0,1	0,199025
3,410833	0,1	0,188826
3,412500	0,1	0,203814
3,414167	0,1	0,218099
3,415833	0,1	0,206152
3,417500	0,1	0,196684
3,419167	0,1	0,220375
3,420833	0,1	0,207492
3,422500	0,1	0,217596
3,424167	0,1	0,213389
3,425833	0,1	0,222749
3,427500	0,1	0,230478
3,429167	0,1	0,208550
3,430833	0,1	0,245722
3,432500	0,1	0,232017
3,434167	0,1	0,226708
3,435833	0,1	0,215515
3,437500	0,1	0,189035
3,439167	0,1	0,236755
3,440833	0,1	0,233804
3,442500	0,1	0,249528
3,444167	0,1	0,206068
3,445833	0,1	0,262619
3,447500	0,1	0,294210
3,449167	0,1	0,260915
3,450833	0,1	0,184026
3,452500	0,1	0,238545
3,454167	0,1	0,201959
3,455833	0,1	0,197995
3,457500	0,1	0,255032
3,459167	0,1	0,265696
3,460833	0,1	0,225068
3,462500	0,1	0,234084
3,464167	0,1	0,225768
3,465833	0,1	0,229514
3,467500	0,1	0,239251
3,469167	0,1	0,246079
3,470833	0,1	0,237464
3,472500	0,1	0,239330
3,474167	0,1	0,258402
3,475833	0,1	0,216721
3,477500	0,1	0,247361
3,479167	0,1	0,217246
3,480833	0,1	0,218334
3,482500	0,1	0,244489
3,484167	0,1	0,206159
3,485833	0,1	0,235419
3,487500	0,1	0,255388
3,489167	0,1	0,217082
3,490833	0,1	0,248777
3,492500	0,1	0,223350
3,494167	0,1	0,270736
3,495833	0,1	0,214535
3,497500	0,1	0,225184
3,499167	0,1	0,243846
3,500833	0,1	0,227882
3,502500	0,1	0,221556
3,504167	0,1	0,207143
3,505833	0,1	0,256077
3,507500	0,1	0,236255
3,509167	0,1	0,194167
3,510833	0,1	0,241005
3,512500	0,1	0,252364
3,514167	0,1	0,258044
3,515833	0,1	0,245182
3,517500	0,1	0,203029
3,519167	0,1	0,239786
3,520833	0,1	0,209171
3,522500	0,1	0,236759
3,524167	0,1	0,291000
3,525833	0,1	0,199731
3,527500	0,1	0,241717
3,529167	0,1	0,217940
3,530833	0,1	0,273955
3,532500	0,1	0,201221
3,534167	0,1	0,258393
3,535833	0,1	0,223739
3,537500	0,1	0,250878
3,539167	0,1	0,241909
3,540833	0,1	0,225423
3,542500	0,1	0,233249
3,544167	0,1	0,234822
3,545833	0,1	0,237616
3,547500	0,1	0,216805
3,549167	0,1	0,217330
3,550833	0,1	0,205019
3,552500	0,1	0,268283
3,554167	0,1	0,267721
3,555833	0,1	0,244577
3,557500	0,1	0,243195
3,559167	0,1	0,246697
3,560833	0,1	0,273150
3,562500	0,1	0,234251
3,564167	0,1	0,209376
3,565833	0,1	0,250270
3,567500	0,1	0,221356
3,569167	0,1	0,237200
3,570833	0,1	0,282072
3,572500	0,1	0,243256
3,574167	0,1	0,237348
3,575833	0,1	0,229915
3,577500	0,1	0,285986
3,579167	0,1	0,229231
3,580833	0,1	0,221388
3,582500	0,1	0,235463
3,584167	0,1	0,262021
3,585833	0,1	0,217701
3,587500	0,1	0,253090
3,589167	0,1	0,233138
3,590833	0,1	0,261902
3,592500	0,1	0,208043
3,594167	0,1	0,219465
3,595833	0,1	0,266613
3,597500	0,1	0,236813
3,599167	0,1	0,180893
3,600833	0,1	0,234795
3,602500	0,1	0,238980
3,604167	0,1	0,229967
3,605833	0,1	0,235219
3,607500	0,1	0,236791
3,609167	0,1	0,223336
3,610833	0,1	0,236751
3,612500	0,1	0,223373
3,614167	0,1	0,226409
3,615833	0,1	0,213764
3,617500	0,1	0,246510
3,619167	0,1	0,263452
3,620833	0,1	0,233799
3,622500	0,1	0,259394
3,624167	0,1	0,254582
3,625833	0,1	0,220997
3,627500	0,1	0,248031
3,629167	0,1	0,243041
3,630833	0,1	0,218315
3,632500	0,1	0,261410
3,634167	0,1	0,247655
3,635833	0,1	0,227536
3,637500	0,1	0,227300
3,639167	0,1	0,229618
3,640833	0,1	0,199357
3,642500	0,1	0,216385
3,644167	0,1	0,233581
3,645833	0,1	0,222780
3,647500	0,1	0,201828
3,649167	0,1	0,260504
3,650833	0,1	0,235612
3,652500	0,1	0,219561
3,654167	0,1	0,205793
3,655833	0,1	0,260171
3,657500	0,1	0,277800
3,659167	0,1	0,229332
3,660833	0,1	0,249114
3,662500	0,1	0,231746
3,664167	0,1	0,269089
3,665833	0,1	0,242105
3,667500	0,1	0,256805
3,669167	0,1	0,224731
3,670833	0,1	0,237561
3,672500	0,1	0,252503
3,674167	0,1	0,248837
3,675833	0,1	0,276073
3,677500	0,1	0,233581
3,679167	0,1	0,259573
3,680833	0,1	0,252199
3,682500	0,1	0,288849
3,684167	0,1	0,231756
3,685833	0,1	0,252902
3,687500	0,1	0,248683
3,689167	0,1	0,267510
3,690833	0,1	0,238049
3,692500	0,1	0,274782
3,694167	0,1	0,248946
3,695833	0,1	0,220002
3,697500	0,1	0,302506
3,699167	0,1	0,213396
3,700833	0,1	0,274740
3,702500	0,1	0,226061
3,704167	0,1	0,253004
3,705833	0,1	0,291706
3,707500	0,1	0,265743
3,709167	0,1	0,265825
3,710833	0,1	0,297660
3,712500	0,1	0,276048
3,714167	0,1	0,332194
3,715833	0,1	0,268083
3,717500	0,1	0,269793
3,719167	0,1	0,291496
3,720833	0,1	0,294618
3,722500	0,1	0,316861
3,724167	0,1	0,308702
3,725833	0,1	0,304770
3,727500	0,1	0,333853
3,729167	0,1	0,339743
3,730833	0,1	0,326673
3,732500	0,1	0,354747
3,734167	0,1	0,332332
3,735833	0,1	0,359205
3,737500	0,1	0,327129
3,739167	0,1	0,310636
3,740833	0,1	0,343463
3,742500	0,1	0,351982
3,744167	0,1	0,372247
3,745833	0,1	0,379650
3,747500	0,1	0,350091
3,749167	0,1	0,377068
3,750833	0,1	0,398364
3,752500	0,1	0,402704
3,754167	0,1	0,387282
3,755833	0,1	0,430001
3,757500	0,1	0,369809
3,759167	0,1	0,421273
3,760833	0,1	0,402605
3,762500	0,1	0,460282
3,764167	0,1	0,414349
3,765833	0,1	0,418795
3,767500	0,1	0,470415
3,769167	0,1	0,432718
3,770833	0,1	0,463353
3,772500	0,1	0,467573
3,774167	0,1	0,511258
3,775833	0,1	0,449409
3,777500	0,1	0,484827
3,779167	0,1	0,447155
3,780833	0,1	0,482039
3,782500	0,1	0,492947
3,784167	0,1	0,497670
3,785833	0,1	0,497597
3,787500	0,1	0,476581
3,789167	0,1	0,513804
3,790833	0,1	0,543051
3,792500	0,1	0,527700
3,794167	0,1	0,529091
3,795833	0,1	0,534002
3,797500	0,1	0,530275
3,799167	0,1	0,517894
3,800833	0,1	0,555992
3,802500	0,1	0,550549
3,804167	0,1	0,565209
3,805833	0,1	0,570147
3,807500	0,1	0,576571
3,809167	0,1	0,569431
3,810833	0,1	0,539060
3,812500	0,1	0,566625
3,814167	0,1	0,552644
3,815833	0,1	0,585482
3,817500	0,1	0,576635
3,819167	0,1	0,576814
3,820833	0,1	0,554314
3,822500	0,1	0,576135
3,824167	0,1	0,564244
3,825833	0,1	0,544858
3,827500	0,1	0,562895
3,829167	0,1	0,597378
3,830833	0,1	0,582483
3,832500	0,1	0,563413
3,834167	0,1	0,598288
3,835833	0,1	0,612239
3,837500	0,1	0,573730
3,839167	0,1	0,573318
3,840833	0,1	0,592848
3,842500	0,1	0,586614
3,844167	0,1	0,589084
3,845833	0,1	0,559231
3,847500	0,1	0,607878
3,849167	0,1	0,593682
3,850833	0,1	0,590434
3,852500	0,1	0,577106
3,854167	0,1	0,614699
3,855833	0,1	0,600637
3,857500	0,1	0,615834
3,859167	0,1	0,612834
3,860833	0,1	0,602645
3,862500	0,1	0,607857
3,864167	0,1	0,579802
3,865833	0,1	0,575367
3,867500	0,1	0,567625
3,869167	0,1	0,568753
3,870833	0,1	0,539304
3,872500	0,1	0,562387
3,874167	0,1	0,545776
3,875833	0,1	0,589400
3,877500	0,1	0,575772
3,879167	0,1	0,544302
3,880833	0,1	0,584432
3,882500	0,1	0,548920
3,884167	0,1	0,567006
3,885833	0,1	0,546739
3,887500	0,1	0,515912
3,889167	0,1	0,566375
3,890833	0,1	0,516542
3,892500	0,1	0,515347
3,894167	0,1	0,538118
3,895833	0,1	0,507082
3,897500	0,1	0,524553
3,899167	0,1	0,514566
3,900833	0,1	0,508417
3,902500	0,1	0,525220
3,904167	0,1	0,503613
3,905833	0,1	0,507421
3,907500	0,1	0,520826
3,909167	0,1	0,493759
3,910833	0,1	0,514083
3,912500	0,1	0,496693
3,914167	0,1	0,516608
3,915833	0,1	0,515241
3,917500	0,1	0,501033
3,919167	0,1	0,478546
3,920833	0,1	0,506665
3,922500	0,1	0,467478
3,924167	0,1	0,491655
3,925833	0,1	0,455426
3,927500	0,1	0,484618
3,929167	0,1	0,442573
3,930833	0,1	0,472997
3,932500	0,1	0,470344
3,934167	0,1	0,438585
3,935833	0,1	0,437723
3,937500	0,1	0,465529
3,939167	0,1	0,461218
3,940833	0,1	0,422808
3,942500	0,1	0,441185
3,944167	0,1	0,453482
3,945833	0,1	0,445716
3,947500	0,1	0,432068
3,949167	0,1	0,411956
3,950833	0,1	0,425183
3,952500	0,1	0,419284
3,954167	0,1	0,471388
3,955833	0,1	0,477758
3,957500	0,1	0,393637
3,959167	0,1	0,389507
3,960833	0,1	0,444188
3,962500	0,1	0,444076
3,964167	0,1	0,445942
3,965833	0,1	0,379198
3,967500	0,1	0,376588
3,969167	0,1	0,403464
3,970833	0,1	0,388414
3,972500	0,1	0,403764
3,974167	0,1	0,402584
3,975833	0,1	0,406256
3,977500	0,1	0,382357
3,979167	0,1	0,383465
3,980833	0,1	0,358049
3,982500	0,1	0,409152
3,984167	0,1	0,382425
3,985833	0,1	0,377842
3,987500	0,1	0,377753
3,989167	0,1	0,401290
3,990833	0,1	0,408639
3,992500	0,1	0,418025
3,994167	0,1	0,395241
3,995833	0,1	0,356156
3,997500	0,1	0,358374
3,999167	0,1	0,391415
4,000833	0,1	0,358367
4,002500	0,1	0,378376
4,004167	0,1	0,352999
4,005833	0,1	0,384120
4,007500	0,1	0,386581
4,009167	0,1	0,391716
4,010833	0,1	0,404426
4,012500	0,1	0,345698
4,014167	0,1	0,389617
4,015833	0,1	0,393492
4,017500	0,1	0,383832
4,019167	0,1	0,354761
4,020833	0,1	0,388663
4,022500	0,1	0,377148
4,024167	0,1	0,365828
4,025833	0,1	0,356932
4,027500	0,1	0,351326
4,029167	0,1	0,374682
4,030833	0,1	0,373243
4,032500	0,1	0,421587
4,034167	0,1	0,397818
4,035833	0,1	0,386324
4,037500	0,1	0,391820
4,039167	0,1	0,399499
4,040833	0,1	0,430696
4,042500	0,1	0,419057
4,044167	0,1	0,370313
4,045833	0,1	0,440056
4,047500	0,1	0,410843
4,049167	0,1	0,415259
4,050833	0,1	0,409166
4,052500	0,1	0,419696
4,054167	0,1	0,390350
4,055833	0,1	0,400979
4,057500	0,1	0,432109
4,059167	0,1	0,415631
4,060833	0,1	0,474524
4,062500	0,1	0,439213
4,064167	0,1	0,496201
4,065833	0,1	0,462093
4,067500	0,1	0,477217
4,069167	0,1	0,501786
4,070833	0,1	0,563782
4,072500	0,1	0,494128
4,074167	0,1	0,462268
4,075833	0,1	0,501329
4,077500	0,1	0,535908
4,079167	0,1	0,534710
4,080833	0,1	0,541259
4,082500	0,1	0,557104
4,084167	0,1	0,542629
4,085833	0,1	0,515109
4,087500	0,1	0,568242
4,089167	0,1	0,593006
4,090833	0,1	0,615619
4,092500	0,1	0,611461
4,094167	0,1	0,622819
4,095833	0,1	0,642910
4,097500	0,1	0,628466
4,099167	0,1	0,665358
4,100833	0,1	0,638593
4,102500	0,1	0,624061
4,104167	0,1	0,726292
4,105833	0,1	0,674107
4,107500	0,1	0,681642
4,109167	0,1	0,699824
4,110833	0,1	0,736838
4,112500	0,1	0,722236
4,114167	0,1	0,779766
4,115833	0,1	0,721576
4,117500	0,1	0,779226
4,119167	0,1	0,763099
4,120833	0,1	0,824714
4,122500	0,1	0,797439
4,124167	0,1	0,814435
4,125833	0,1	0,829804
4,127500	0,1	0,818499
4,129167	0,1	0,865136
4,130833	0,1	0,878252
4,132500	0,1	0,879249
4,134167	0,1	0,871544
4,135833	0,1	0,909608
4,137500	0,1	0,906689
4,139167	0,1	0,903331
4,140833	0,1	0,914163
4,142500	0,1	0,929018
4,144167	0,1	0,941090
4,145833	0,1	0,949770
4,147500	0,1	0,982590
4,149167	0,1	1,005432
4,150833	0,1	0,987804
4,152500	0,1	0,990262
4,154167	0,1	1,020749
4,155833	0,1	1,009366
4,157500	0,1	1,024529
4,159167	0,1	1,054039
4,160833	0,1	1,050856
4,162500	0,1	1,087184
4,164167	0,1	1,051233
4,165833	0,1	1,051041
4,167500	0,1	1,080788
4,169167	0,1	1,109291
4,170833	0,1	1,066371
4,172500	0,1	1,113934
4,174167	0,1	1,086795
4,175833	0,1	1,108648
4,177500	0,1	1,116284
4,179167	0,1	1,097687
4,180833	0,1	1,126070
4,182500	0,1	1,130188
4,184167	0,1	1,126207
4,185833	0,1	1,137986
4,187500	0,1	1,146726
4,189167	0,1	1,151355
4,190833	0,1	1,135890
4,192500	0,1	1,145435
4,194167	0,1	1,183635
4,195833	0,1	1,188272
4,197500	0,1	1,204238
4,199167	0,1	1,171794
4,200833	0,1	1,143196
4,202500	0,1	1,188779
4,204167	0,1	1,187276
4,205833	0,1	1,176236
4,207500	0,1	1,157577
4,209167	0,1	1,203990
4,210833	0,1	1,170448
4,212500	0,1	1,156467
4,214167	0,1	1,186790
4,215833	0,1	1,177726
4,217500	0,1	1,180877
4,219167	0,1	1,182942
4,220833	0,1	1,166516
4,222500	0,1	1,150659
4,224167	0,1	1,216433
4,225833	0,1	1,180185
4,227500	0,1	1,189227
4,229167	0,1	1,170685
4,230833	0,1	1,193853
4,232500	0,1	1,172070
4,234167	0,1	1,180837
4,235833	0,1	1,157834
4,237500	0,1	1,191029
4,239167	0,1	1,163276
4,240833	0,1	1,171728
4,242500	0,1	1,128097
4,244167	0,1	1,174796
4,245833	0,1	1,180151
4,247500	0,1	1,157077
4,249167	0,1	1,131335
4,250833	0,1	1,142797
4,252500	0,1	1,132054
4,254167	0,1	1,118431
4,255833	0,1	1,149669
4,257500	0,1	1,135078
4,259167	0,1	1,167349
4,260833	0,1	1,124225
4,262500	0,1	1,087553
4,264167	0,1	1,141274
4,265833	0,1	1,127979
4,267500	0,1	1,134372
4,269167	0,1	1,105746
4,270833	0,1	1,084913
4,272500	0,1	1,110784
4,274167	0,1	1,119217
4,275833	0,1	1,109281
4,277500	0,1	1,142276
4,279167	0,1	1,099003
4,280833	0,1	1,064913
4,282500	0,1	1,090967
4,284167	0,1	1,077923
4,285833	0,1	1,109548
4,287500	0,1	1,054778
4,289167	0,1	1,081637
4,290833	0,1	1,103153
4,292500	0,1	1,088800
4,294167	0,1	1,081554
4,295833	0,1	1,062695
4,297500	0,1	1,056039
4,299167	0,1	1,063706
4,300833	0,1	1,028892
4,302500	0,1	1,081871
4,304167	0,1	1,034610
4,305833	0,1	1,047333
4,307500	0,1	1,072365
4,309167	0,1	1,055434
4,310833	0,1	1,051854
4,312500	0,1	1,014828
4,314167	0,1	1,031054
4,315833	0,1	1,048180
4,317500	0,1	1,069434
4,319167	0,1	1,023088
4,320833	0,1	1,032181
4,322500	0,1	1,063755
4,324167	0,1	1,001212
4,325833	0,1	0,968358
4,327500	0,1	1,035117
4,329167	0,1	1,005280
4,330833	0,1	0,985663
4,332500	0,1	0,976026
4,334167	0,1	0,963638
4,335833	0,1	1,004878
4,337500	0,1	1,022192
4,339167	0,1	1,001276
4,340833	0,1	1,008442
4,342500	0,1	0,955427
4,344167	0,1	1,004821
4,345833	0,1	0,992483
4,347500	0,1	0,999389
4,349167	0,1	0,989441
4,350833	0,1	0,951443
4,352500	0,1	0,947752
4,354167	0,1	0,971261
4,355833	0,1	0,935023
4,357500	0,1	0,938304
4,359167	0,1	0,943289
4,360833	0,1	0,928305
4,362500	0,1	0,948313
4,364167	0,1	0,967172
4,365833	0,1	0,961517
4,367500	0,1	0,947262
4,369167	0,1	0,908827
4,370833	0,1	0,917542
4,372500	0,1	0,941513
4,374167	0,1	0,893131
4,375833	0,1	0,921647
4,377500	0,1	0,905478
4,379167	0,1	0,922622
4,380833	0,1	0,855348
4,382500	0,1	0,931815
4,384167	0,1	0,897525
4,385833	0,1	0,931726
4,387500	0,1	0,928182
4,389167	0,1	0,902792
4,390833	0,1	0,879279
4,392500	0,1	0,905819
4,394167	0,1	0,910448
4,395833	0,1	0,896829
4,397500	0,1	0,850644
4,399167	0,1	0,874271
4,400833	0,1	0,849294
4,402500	0,1	0,881013
4,404167	0,1	0,830436
4,405833	0,1	0,840257
4,407500	0,1	0,872381
4,409167	0,1	0,817378
4,410833	0,1	0,822901
4,412500	0,1	0,773799
4,414167	0,1	0,815100
4,415833	0,1	0,827143
4,417500	0,1	0,787122
4,419167	0,1	0,845399
4,420833	0,1	0,817021
4,422500	0,1	0,806216
4,424167	0,1	0,796328
4,425833	0,1	0,821630
4,427500	0,1	0,774390
4,429167	0,1	0,797988
4,430833	0,1	0,769335
4,432500	0,1	0,830187
4,434167	0,1	0,821989
4,435833	0,1	0,749734
4,437500	0,1	0,745795
4,439167	0,1	0,752616
4,440833	0,1	0,764113
4,442500	0,1	0,791913
4,444167	0,1	0,708446
4,445833	0,1	0,731497
4,447500	0,1	0,718529
4,449167	0,1	0,741730
4,450833	0,1	0,759169
4,452500	0,1	0,722349
4,454167	0,1	0,737193
4,455833	0,1	0,703789
4,457500	0,1	0,705471
4,459167	0,1	0,697389
4,460833	0,1	0,704931
4,462500	0,1	0,682106
4,464167	0,1	0,677696
4,465833	0,1	0,680436
4,467500	0,1	0,692281
4,469167	0,1	0,684200
4,470833	0,1	0,665184
4,472500	0,1	0,645823
4,474167	0,1	0,656744
4,475833	0,1	0,649657
4,477500	0,1	0,666171
4,479167	0,1	0,629708
4,480833	0,1	0,626989
4,482500	0,1	0,610105
4,484167	0,1	0,647823
4,485833	0,1	0,641788
4,487500	0,1	0,634377
4,489167	0,1	0,654193
4,490833	0,1	0,657714
4,492500	0,1	0,623048
4,494167	0,1	0,605322
4,495833	0,1	0,615521
4,497500	0,1	0,617538
4,499167	0,1	0,592001
4,500833	0,1	0,611652
4,502500	0,1	0,579946
4,504167	0,1	0,567666
4,505833	0,1	0,558916
4,507500	0,1	0,597308
4,509167	0,1	0,562683
4,510833	0,1	0,594109
4,512500	0,1	0,539720
4,514167	0,1	0,570181
4,515833	0,1	0,549061
4,517500	0,1	0,600528
4,519167	0,1	0,549798
4,520833	0,1	0,557000
4,522500	0,1	0,578811
4,524167	0,1	0,543350
4,525833	0,1	0,496068
4,527500	0,1	0,544672
4,529167	0,1	0,515659
4,530833	0,1	0,482954
4,532500	0,1	0,505283
4,534167	0,1	0,573211
4,535833	0,1	0,499160
4,537500	0,1	0,529505
4,539167	0,1	0,466117
4,540833	0,1	0,536828
4,542500	0,1	0,491820
4,544167	0,1	0,507546
4,545833	0,1	0,483906
4,547500	0,1	0,463187
4,549167	0,1	0,501255
4,550833	0,1	0,496544
4,552500	0,1	0,455876
4,554167	0,1	0,489626
4,555833	0,1	0,483066
4,557500	0,1	0,500216
4,559167	0,1	0,475044
4,560833	0,1	0,468838
4,562500	0,1	0,472478
4,564167	0,1	0,498122
4,565833	0,1	0,509586
4,567500	0,1	0,461708
4,569167	0,1	0,422912
4,570833	0,1	0,471699
4,572500	0,1	0,429775
4,574167	0,1	0,442609
4,575833	0,1	0,441534
4,577500	0,1	0,421322
4,579167	0,1	0,447431
4,580833	0,1	0,436190
4,582500	0,1	0,447309
4,584167	0,1	0,427555
4,585833	0,1	0,459461
4,587500	0,1	0,404929
4,589167	0,1	0,400215
4,590833	0,1	0,407194
4,592500	0,1	0,414454
4,594167	0,1	0,413988
4,595833	0,1	0,392715
4,597500	0,1	0,409752
4,599167	0,1	0,404326
4,600833	0,1	0,402722
4,602500	0,1	0,433361
4,604167	0,1	0,382415
4,605833	0,1	0,373856
4,607500	0,1	0,394116
4,609167	0,1	0,400647
4,610833	0,1	0,403451
4,612500	0,1	0,359397
4,614167	0,1	0,373050
4,615833	0,1	0,394290
4,617500	0,1	0,338111
4,619167	0,1	0,374421
4,620833	0,1	0,386127
4,622500	0,1	0,352309
4,624167	0,1	0,361455
4,625833	0,1	0,344610
4,627500	0,1	0,406311
4,629167	0,1	0,398352
4,630833	0,1	0,370571
4,632500	0,1	0,389137
4,634167	0,1	0,371125
4,635833	0,1	0,399929
4,637500	0,1	0,350363
4,639167	0,1	0,360412
4,640833	0,1	0,353226
4,642500	0,1	0,382552
4,644167	0,1	0,374135
4,645833	0,1	0,323954
4,647500	0,1	0,347612
4,649167	0,1	0,352282
4,650833	0,1	0,379715
4,652500	0,1	0,363517
4,654167	0,1	0,311526
4,655833	0,1	0,379671
4,657500	0,1	0,354345
4,659167	0,1	0,351449
4,660833	0,1	0,363372
4,662500	0,1	0,326683
4,664167	0,1	0,364810
4,665833	0,1	0,365602
4,667500	0,1	0,324907
4,669167	0,1	0,369701
4,670833	0,1	0,321221
4,672500	0,1	0,323210
4,674167	0,1	0,339033
4,675833	0,1	0,326123
4,677500	0,1	0,355046
4,679167	0,1	0,318902
4,680833	0,1	0,359411
4,682500	0,1	0,342122
4,684167	0,1	0,332962
4,685833	0,1	0,348016
4,687500	0,1	0,335608
4,689167	0,1	0,357885
4,690833	0,1	0,303884
4,692500	0,1	0,328320
4,694167	0,1	0,322205
4,695833	0,1	0,329546
4,697500	0,1	0,328191
4,699167	0,1	0,331899
4,700833	0,1	0,353514
4,702500	0,1	0,297881
4,704167	0,1	0,314765
4,705833	0,1	0,305023
4,707500	0,1	0,332066
4,709167	0,1	0,353254
4,710833	0,1	0,308148
4,712500	0,1	0,318772
4,714167	0,1	0,329493
4,715833	0,1	0,322849
4,717500	0,1	0,298970
4,719167	0,1	0,282637
4,720833	0,1	0,306701
4,722500	0,1	0,328778
4,724167	0,1	0,329427
4,725833	0,1	0,320568
4,727500	0,1	0,306800
4,729167	0,1	0,321258
4,730833	0,1	0,272325
4,732500	0,1	0,297736
4,734167	0,1	0,301502
4,735833	0,1	0,310362
4,737500	0,1	0,328778
4,739167	0,1	0,324379
4,740833	0,1	0,306992
4,742500	0,1	0,315501
4,744167	0,1	0,260400
4,745833	0,1	0,346049
4,747500	0,1	0,301448
4,749167	0,1	0,333529
4,750833	0,1	0,306891
4,752500	0,1	0,302096
4,754167	0,1	0,300911
4,755833	0,1	0,291601
4,757500	0,1	0,327694
4,759167	0,1	0,330766
4,760833	0,1	0,294931
4,762500	0,1	0,347293
4,764167	0,1	0,312253
4,765833	0,1	0,328031
4,767500	0,1	0,281881
4,769167	0,1	0,284601
4,770833	0,1	0,295098
4,772500	0,1	0,307179
4,774167	0,1	0,316439
4,775833	0,1	0,324985
4,777500	0,1	0,321508
4,779167	0,1	0,348692
4,780833	0,1	0,282724
4,782500	0,1	0,273953
4,784167	0,1	0,296781
4,785833	0,1	0,284605
4,787500	0,1	0,301883
4,789167	0,1	0,354587
4,790833	0,1	0,290659
4,792500	0,1	0,274006
4,794167	0,1	0,298609
4,795833	0,1	0,276079
4,797500	0,1	0,293963
4,799167	0,1	0,289059
4,800833	0,1	0,250596
4,802500	0,1	0,299196
4,804167	0,1	0,279907
4,805833	0,1	0,295443
4,807500	0,1	0,317496
4,809167	0,1	0,332540
4,810833	0,1	0,302629
4,812500	0,1	0,281195
4,814167	0,1	0,295599
4,815833	0,1	0,333075
4,817500	0,1	0,327964
4,819167	0,1	0,285709
4,820833	0,1	0,310099
4,822500	0,1	0,310645
4,824167	0,1	0,308173
4,825833	0,1	0,321244
4,827500	0,1	0,308058
4,829167	0,1	0,329335
4,830833	0,1	0,284302
4,832500	0,1	0,347588
4,834167	0,1	0,321950
4,835833	0,1	0,311952
4,837500	0,1	0,311497
4,839167	0,1	0,342998
4,840833	0,1	0,337438
4,842500	0,1	0,300469
4,844167	0,1	0,326792
4,845833	0,1	0,330506
4,847500	0,1	0,309275
4,849167	0,1	0,336699
4,850833	0,1	0,326053
4,852500	0,1	0,337991
4,854167	0,1	0,315076
4,855833	0,1	0,343784
4,857500	0,1	0,300610
4,859167	0,1	0,335548
4,860833	0,1	0,345371
4,862500	0,1	0,271547
4,864167	0,1	0,289018
4,865833	0,1	0,319464
4,867500	0,1	0,317138
4,869167	0,1	0,297318
4,870833	0,1	0,300598
4,872500	0,1	0,297033
4,874167	0,1	0,324860
4,875833	0,1	0,293486
4,877500	0,1	0,276722
4,879167	0,1	0,306530
4,880833	0,1	0,305021
4,882500	0,1	0,323055
4,884167	0,1	0,320691
4,885833	0,1	0,310418
4,887500	0,1	0,308086
4,889167	0,1	0,313012
4,890833	0,1	0,319172
4,892500	0,1	0,305392
4,894167	0,1	0,285458
4,895833	0,1	0,316451
4,897500	0,1	0,288058
4,899167	0,1	0,363931
4,900833	0,1	0,308030
4,902500	0,1	0,296582
4,904167	0,1	0,276094
4,905833	0,1	0,282218
4,907500	0,1	0,312171
4,909167	0,1	0,296635
4,910833	0,1	0,303471
4,912500	0,1	0,269745
4,914167	0,1	0,317437
4,915833	0,1	0,305111
4,917500	0,1	0,277769
4,919167	0,1	0,307033
4,920833	0,1	0,306538
4,922500	0,1	0,336505
4,924167	0,1	0,330384
4,925833	0,1	0,313990
4,927500	0,1	0,279124
4,929167	0,1	0,286444
4,930833	0,1	0,341461
4,932500	0,1	0,331191
4,934167	0,1	0,358458
4,935833	0,1	0,339182
4,937500	0,1	0,298871
4,939167	0,1	0,332729
4,940833	0,1	0,283555
4,942500	0,1	0,297812
4,944167	0,1	0,313027
4,945833	0,1	0,280192
4,947500	0,1	0,327016
4,949167	0,1	0,281341
4,950833	0,1	0,324250
4,952500	0,1	0,330070
4,954167	0,1	0,303168
4,955833	0,1	0,368304
4,957500	0,1	0,309336
4,959167	0,1	0,304901
4,960833	0,1	0,331006
4,962500	0,1	0,309029
4,964167	0,1	0,287222
4,965833	0,1	0,317220
4,967500	0,1	0,322933
4,969167	0,1	0,327286
4,970833	0,1	0,321492
4,972500	0,1	0,328486
4,974167	0,1	0,315956
4,975833	0,1	0,329254
4,977500	0,1	0,284473
4,979167	0,1	0,272665
4,980833	0,1	0,283311
4,982500	0,1	0,294208
4,984167	0,1	0,272461
4,985833	0,1	0,328229
4,987500	0,1	0,327792
4,989167	0,1	0,320204
4,990833	0,1	0,318568
4,992500	0,1	0,299946
4,994167	0,1	0,336157
4,995833	0,1	0,333714
4,997500	0,1	0,310615
4,999167	0,1	0,310489
5,000833	0,1	0,308765
5,002500	0,1	0,290648
5,004167	0,1	0,283768
5,005833	0,1	0,326130
5,007500	0,1	0,248492
5,009167	0,1	0,327773
5,010833	0,1	0,283813
5,012500	0,1	0,312172
5,014167	0,1	0,304029
5,015833	0,1	0,311827
5,017500	0,1	0,305303
5,019167	0,1	0,282468
5,020833	0,1	0,309787
5,022500	0,1	0,291920
5,024167	0,1	0,284849
5,025833	0,1	0,311040
5,027500	0,1	0,305147
5,029167	0,1	0,311236
5,030833	0,1	0,303821
5,032500	0,1	0,321278
5,034167	0,1	0,328175
5,035833	0,1	0,300437
5,037500	0,1	0,336749
5,039167	0,1	0,264797
5,040833	0,1	0,309280
5,042500	0,1	0,310350
5,044167	0,1	0,311275
5,045833	0,1	0,340982
5,047500	0,1	0,333487
5,049167	0,1	0,319458
5,050833	0,1	0,317574
5,052500	0,1	0,278119
5,054167	0,1	0,305399
5,055833	0,1	0,285043
5,057500	0,1	0,309455
5,059167	0,1	0,275477
5,060833	0,1	0,340014
5,062500	0,1	0,288517
5,064167	0,1	0,296163
5,065833	0,1	0,308450
5,067500	0,1	0,332347
5,069167	0,1	0,350262
5,070833	0,1	0,275293
5,072500	0,1	0,306634
5,074167	0,1	0,288160
5,075833	0,1	0,283790
5,077500	0,1	0,305400
5,079167	0,1	0,297225
5,080833	0,1	0,297106
5,082500	0,1	0,288801
5,084167	0,1	0,291116
5,085833	0,1	0,291132
5,087500	0,1	0,298060
5,089167	0,1	0,298217
5,090833	0,1	0,356399
5,092500	0,1	0,317168
5,094167	0,1	0,279187
5,095833	0,1	0,289583
5,097500	0,1	0,330061
5,099167	0,1	0,275148
5,100833	0,1	0,255458
5,102500	0,1	0,279971
5,104167	0,1	0,319933
5,105833	0,1	0,310789
5,107500	0,1	0,294460
5,109167	0,1	0,278204
5,110833	0,1	0,291913
5,112500	0,1	0,309456
5,114167	0,1	0,292602
5,115833	0,1	0,286661
5,117500	0,1	0,292856
5,119167	0,1	0,292213
5,120833	0,1	0,303959
5,122500	0,1	0,301910
5,124167	0,1	0,304553
5,125833	0,1	0,272205
5,127500	0,1	0,300022
5,129167	0,1	0,309548
5,130833	0,1	0,360456
5,132500	0,1	0,290453
5,134167	0,1	0,290087
5,135833	0,1	0,289304
5,137500	0,1	0,297156
5,139167	0,1	0,291814
5,140833	0,1	0,291760
5,142500	0,1	0,319049
5,144167	0,1	0,308109
5,145833	0,1	0,332434
5,147500	0,1	0,328212
5,149167	0,1	0,277516
5,150833	0,1	0,291077
5,152500	0,1	0,311669
5,154167	0,1	0,320584
5,155833	0,1	0,291716
5,157500	0,1	0,293077
5,159167	0,1	0,319707
5,160833	0,1	0,310404
5,162500	0,1	0,297006
5,164167	0,1	0,307111
5,165833	0,1	0,279236
5,167500	0,1	0,297012
5,169167	0,1	0,258540
5,170833	0,1	0,334094
5,172500	0,1	0,328334
5,174167	0,1	0,303847
5,175833	0,1	0,287797
5,177500	0,1	0,299887
5,179167	0,1	0,293836
5,180833	0,1	0,304868
5,182500	0,1	0,241456
5,184167	0,1	0,275846
5,185833	0,1	0,294821
5,187500	0,1	0,304380
5,189167	0,1	0,309497
5,190833	0,1	0,298397
5,192500	0,1	0,293050
5,194167	0,1	0,303661
5,195833	0,1	0,275579
5,197500	0,1	0,314434
5,199167	0,1	0,288880
5,200833	0,1	0,314296
5,202500	0,1	0,295283
5,204167	0,1	0,279981
5,205833	0,1	0,297449
5,207500	0,1	0,308088
5,209167	0,1	0,282313
5,210833	0,1	0,271607
5,212500	0,1	0,297307
5,214167	0,1	0,277597
5,215833	0,1	0,277993
5,217500	0,1	0,288939
5,219167	0,1	0,305423
5,220833	0,1	0,343016
5,222500	0,1	0,311054
5,224167	0,1	0,275863
5,225833	0,1	0,288819
5,227500	0,1	0,308604
5,229167	0,1	0,287710
5,230833	0,1	0,253736
5,232500	0,1	0,306879
5,234167	0,1	0,260076
5,235833	0,1	0,268034
5,237500	0,1	0,284517
5,239167	0,1	0,330288
5,240833	0,1	0,267883
5,242500	0,1	0,295375
5,244167	0,1	0,252153
5,245833	0,1	0,273480
5,247500	0,1	0,280684
5,249167	0,1	0,306079
5,250833	0,1	0,308824
5,252500	0,1	0,306241
5,254167	0,1	0,282698
5,255833	0,1	0,301714
5,257500	0,1	0,286909
5,259167	0,1	0,247040
5,260833	0,1	0,294726
5,262500	0,1	0,289920
5,264167	0,1	0,249164
5,265833	0,1	0,262984
5,267500	0,1	0,314431
5,269167	0,1	0,321821
5,270833	0,1	0,282288
5,272500	0,1	0,277994
5,274167	0,1	0,299765
5,275833	0,1	0,278730
5,277500	0,1	0,235656
5,279167	0,1	0,264283
5,280833	0,1	0,266401
5,282500	0,1	0,270574
5,284167	0,1	0,280011
5,285833	0,1	0,266842
5,287500	0,1	0,269864
5,289167	0,1	0,272543
5,290833	0,1	0,254607
5,292500	0,1	0,289872
5,294167	0,1	0,271852
5,295833	0,1	0,250410
5,297500	0,1	0,284461
5,299167	0,1	0,272896
5,300833	0,1	0,277296
5,302500	0,1	0,306743
5,304167	0,1	0,303428
5,305833	0,1	0,300467
5,307500	0,1	0,234605
5,309167	0,1	0,288269
5,310833	0,1	0,254906
5,312500	0,1	0,279298
5,314167	0,1	0,270808
5,315833	0,1	0,276303
5,317500	0,1	0,301660
5,319167	0,1	0,295263
5,320833	0,1	0,271892
5,322500	0,1	0,270405
5,324167	0,1	0,255315
5,325833	0,1	0,264467
5,327500	0,1	0,255790
5,329167	0,1	0,282531
5,330833	0,1	0,239067
5,332500	0,1	0,291696
5,334167	0,1	0,257843
5,335833	0,1	0,236924
5,337500	0,1	0,275563
5,339167	0,1	0,265656
5,340833	0,1	0,277680
5,342500	0,1	0,267986
5,344167	0,1	0,281246
5,345833	0,1	0,257185
5,347500	0,1	0,308583
5,349167	0,1	0,270815
5,350833	0,1	0,263310
5,352500	0,1	0,252583
5,354167	0,1	0,267968
5,355833	0,1	0,284850
5,357500	0,1	0,295942
5,359167	0,1	0,291399
5,360833	0,1	0,252037
5,362500	0,1	0,269152
5,364167	0,1	0,312381
5,365833	0,1	0,284825
5,367500	0,1	0,220991
5,369167	0,1	0,275738
5,370833	0,1	0,254955
5,372500	0,1	0,268907
5,374167	0,1	0,283630
5,375833	0,1	0,301209
5,377500	0,1	0,281011
5,379167	0,1	0,269520
5,380833	0,1	0,275889
5,382500	0,1	0,254156
5,384167	0,1	0,285403
5,385833	0,1	0,282784
5,387500	0,1	0,297524
5,389167	0,1	0,243681
5,390833	0,1	0,309660
5,392500	0,1	0,270645
5,394167	0,1	0,303833
5,395833	0,1	0,237336
5,397500	0,1	0,283711
5,399167	0,1	0,340227
5,400833	0,1	0,270616
5,402500	0,1	0,241640
5,404167	0,1	0,280492
5,405833	0,1	0,217256
5,407500	0,1	0,254245
5,409167	0,1	0,246130
5,410833	0,1	0,263074
5,412500	0,1	0,251696
5,414167	0,1	0,304718
5,415833	0,1	0,285645
5,417500	0,1	0,249357
5,419167	0,1	0,273916
5,420833	0,1	0,274152
5,422500	0,1	0,290365
5,424167	0,1	0,271041
5,425833	0,1	0,236077
5,427500	0,1	0,248301
5,429167	0,1	0,209781
5,430833	0,1	0,289447
5,432500	0,1	0,274014
5,434167	0,1	0,259898
5,435833	0,1	0,293810
5,437500	0,1	0,263432
5,439167	0,1	0,273713
5,440833	0,1	0,297729
5,442500	0,1	0,247969
5,444167	0,1	0,243205
5,445833	0,1	0,255642
5,447500	0,1	0,241290
5,449167	0,1	0,282077
5,450833	0,1	0,263814
5,452500	0,1	0,233463
5,454167	0,1	0,283438
5,455833	0,1	0,274064
5,457500	0,1	0,239348
5,459167	0,1	0,268016
5,460833	0,1	0,260349
5,462500	0,1	0,259148
5,464167	0,1	0,273068
5,465833	0,1	0,244602
5,467500	0,1	0,299899
5,469167	0,1	0,234514
5,470833	0,1	0,230237
5,472500	0,1	0,254248
5,474167	0,1	0,274161
5,475833	0,1	0,284467
5,477500	0,1	0,260456
5,479167	0,1	0,325938
5,480833	0,1	0,302494
5,482500	0,1	0,293215
5,484167	0,1	0,255204
5,485833	0,1	0,266319
5,487500	0,1	0,292036
5,489167	0,1	0,270589
5,490833	0,1	0,267380
5,492500	0,1	0,302864
5,494167	0,1	0,249862
5,495833	0,1	0,283892
5,497500	0,1	0,274568
5,499167	0,1	0,298981
5,500833	0,1	0,266779
5,502500	0,1	0,251527
5,504167	0,1	0,287318
5,505833	0,1	0,328135
5,507500	0,1	0,254363
5,509167	0,1	0,277431
5,510833	0,1	0,305960
5,512500	0,1	0,272293
5,514167	0,1	0,294176
5,515833	0,1	0,285643
5,517500	0,1	0,280118
5,519167	0,1	0,253513
5,520833	0,1	0,242010
5,522500	0,1	0,318865
5,524167	0,1	0,273416
5,525833	0,1	0,268860
5,527500	0,1	0,257233
5,529167	0,1	0,282376
5,530833	0,1	0,281301
5,532500	0,1	0,288755
5,534167	0,1	0,277773
5,535833	0,1	0,296895
5,537500	0,1	0,291347
5,539167	0,1	0,248262
5,540833	0,1	0,317163
5,542500	0,1	0,292782
5,544167	0,1	0,274710
5,545833	0,1	0,241887
5,547500	0,1	0,266921
5,549167	0,1	0,275979
5,550833	0,1	0,282817
5,552500	0,1	0,302254
5,554167	0,1	0,291209
5,555833	0,1	0,257032
5,557500	0,1	0,293787
5,559167	0,1	0,251379
5,560833	0,1	0,293358
5,562500	0,1	0,272818
5,564167	0,1	0,239014
5,565833	0,1	0,276978
5,567500	0,1	0,303614
5,569167	0,1	0,288004
5,570833	0,1	0,296046
5,572500	0,1	0,298740
5,574167	0,1	0,271480
5,575833	0,1	0,277423
5,577500	0,1	0,307144
5,579167	0,1	0,296413
5,580833	0,1	0,302694
5,582500	0,1	0,256273
5,584167	0,1	0,304719
5,585833	0,1	0,286147
5,587500	0,1	0,296984
5,589167	0,1	0,273165
5,590833	0,1	0,307283
5,592500	0,1	0,281537
5,594167	0,1	0,306537
5,595833	0,1	0,303738
5,597500	0,1	0,301858
5,599167	0,1	0,296166
5,600833	0,1	0,275458
5,602500	0,1	0,309668
5,604167	0,1	0,279169
5,605833	0,1	0,275995
5,607500	0,1	0,323033
5,609167	0,1	0,286847
5,610833	0,1	0,291834
5,612500	0,1	0,328884
5,614167	0,1	0,317265
5,615833	0,1	0,297458
5,617500	0,1	0,289905
5,619167	0,1	0,327928
5,620833	0,1	0,304076
5,622500	0,1	0,290550
5,624167	0,1	0,276820
5,625833	0,1	0,308276
5,627500	0,1	0,304486
5,629167	0,1	0,314182
5,630833	0,1	0,315403
5,632500	0,1	0,312201
5,634167	0,1	0,293438
5,635833	0,1	0,314512
5,637500	0,1	0,303549
5,639167	0,1	0,332837
5,640833	0,1	0,320679
5,642500	0,1	0,286306
5,644167	0,1	0,323244
5,645833	0,1	0,342968
5,647500	0,1	0,312502
5,649167	0,1	0,331465
5,650833	0,1	0,318051
5,652500	0,1	0,347806
5,654167	0,1	0,351833
5,655833	0,1	0,336328
5,657500	0,1	0,329605
5,659167	0,1	0,347653
5,660833	0,1	0,336223
5,662500	0,1	0,335732
5,664167	0,1	0,346523
5,665833	0,1	0,365776
5,667500	0,1	0,366041
5,669167	0,1	0,310925
5,670833	0,1	0,370152
5,672500	0,1	0,391052
5,674167	0,1	0,309207
5,675833	0,1	0,373405
5,677500	0,1	0,343904
5,679167	0,1	0,340450
5,680833	0,1	0,333767
5,682500	0,1	0,368572
5,684167	0,1	0,363169
5,685833	0,1	0,386993
5,687500	0,1	0,348727
5,689167	0,1	0,361232
5,690833	0,1	0,345293
5,692500	0,1	0,418894
5,694167	0,1	0,374284
5,695833	0,1	0,372237
5,697500	0,1	0,405742
5,699167	0,1	0,390485
5,700833	0,1	0,382283
5,702500	0,1	0,386023
5,704167	0,1	0,394135
5,705833	0,1	0,402352
5,707500	0,1	0,410778
5,709167	0,1	0,377799
5,710833	0,1	0,414237
5,712500	0,1	0,387110
5,714167	0,1	0,384059
5,715833	0,1	0,398504
5,717500	0,1	0,420143
5,719167	0,1	0,403542
5,720833	0,1	0,414312
5,722500	0,1	0,389999
5,724167	0,1	0,424891
5,725833	0,1	0,406432
5,727500	0,1	0,414731
5,729167	0,1	0,443574
5,730833	0,1	0,399092
5,732500	0,1	0,395530
5,734167	0,1	0,445172
5,735833	0,1	0,405201
5,737500	0,1	0,420684
5,739167	0,1	0,412194
5,740833	0,1	0,396631
5,742500	0,1	0,434520
5,744167	0,1	0,473469
5,745833	0,1	0,442859
5,747500	0,1	0,436758
5,749167	0,1	0,436218
5,750833	0,1	0,478117
5,752500	0,1	0,460303
5,754167	0,1	0,470012
5,755833	0,1	0,434643
5,757500	0,1	0,435086
5,759167	0,1	0,432892
5,760833	0,1	0,463163
5,762500	0,1	0,483190
5,764167	0,1	0,485666
5,765833	0,1	0,452366
5,767500	0,1	0,446718
5,769167	0,1	0,436707
5,770833	0,1	0,471050
5,772500	0,1	0,482074
5,774167	0,1	0,451266
5,775833	0,1	0,447310
5,777500	0,1	0,454866
5,779167	0,1	0,485693
5,780833	0,1	0,443401
5,782500	0,1	0,490462
5,784167	0,1	0,474507
5,785833	0,1	0,483153
5,787500	0,1	0,513850
5,789167	0,1	0,497806
5,790833	0,1	0,434440
5,792500	0,1	0,478306
5,794167	0,1	0,458752
5,795833	0,1	0,457386
5,797500	0,1	0,494033
5,799167	0,1	0,445682
5,800833	0,1	0,501097
5,802500	0,1	0,511552
5,804167	0,1	0,451833
5,805833	0,1	0,501931
5,807500	0,1	0,496221
5,809167	0,1	0,475626
5,810833	0,1	0,463365
5,812500	0,1	0,451524
5,814167	0,1	0,446022
5,815833	0,1	0,520960
5,817500	0,1	0,457737
5,819167	0,1	0,465587
5,820833	0,1	0,487300
5,822500	0,1	0,488835
5,824167	0,1	0,522869
5,825833	0,1	0,453768
5,827500	0,1	0,470042
5,829167	0,1	0,479413
5,830833	0,1	0,503701
5,832500	0,1	0,466540
5,834167	0,1	0,464459
5,835833	0,1	0,464892
5,837500	0,1	0,495896
5,839167	0,1	0,445301
5,840833	0,1	0,455090
5,842500	0,1	0,460192
5,844167	0,1	0,457512
5,845833	0,1	0,480488
5,847500	0,1	0,482045
5,849167	0,1	0,477760
5,850833	0,1	0,451720
5,852500	0,1	0,479737
5,854167	0,1	0,456576
5,855833	0,1	0,506463
5,857500	0,1	0,465060
5,859167	0,1	0,461259
5,860833	0,1	0,496939
5,862500	0,1	0,458564
5,864167	0,1	0,507213
5,865833	0,1	0,470752
5,867500	0,1	0,494195
5,869167	0,1	0,444933
5,870833	0,1	0,472217
5,872500	0,1	0,434104
5,874167	0,1	0,445997
5,875833	0,1	0,424489
5,877500	0,1	0,477173
5,879167	0,1	0,459585
5,880833	0,1	0,469960
5,882500	0,1	0,457238
5,884167	0,1	0,457162
5,885833	0,1	0,479252
5,887500	0,1	0,450135
5,889167	0,1	0,419076
5,890833	0,1	0,444621
5,892500	0,1	0,450561
5,894167	0,1	0,493960
5,895833	0,1	0,437849
5,897500	0,1	0,452978
5,899167	0,1	0,410565
5,900833	0,1	0,440440
5,902500	0,1	0,428071
5,904167	0,1	0,464326
5,905833	0,1	0,463236
5,907500	0,1	0,441134
5,909167	0,1	0,419404
5,910833	0,1	0,489041
5,912500	0,1	0,397415
5,914167	0,1	0,434903
5,915833	0,1	0,439138
5,917500	0,1	0,418969
5,919167	0,1	0,417954
5,920833	0,1	0,462791
5,922500	0,1	0,466372
5,924167	0,1	0,439617
5,925833	0,1	0,426975
5,927500	0,1	0,426779
5,929167	0,1	0,447389
5,930833	0,1	0,448611
5,932500	0,1	0,439021
5,934167	0,1	0,421196
5,935833	0,1	0,417605
5,937500	0,1	0,423765
5,939167	0,1	0,417763
5,940833	0,1	0,422514
5,942500	0,1	0,392159
5,944167	0,1	0,416729
5,945833	0,1	0,407352
5,947500	0,1	0,403662
5,949167	0,1	0,403504
5,950833	0,1	0,390588
5,952500	0,1	0,413838
5,954167	0,1	0,404880
5,955833	0,1	0,401292
5,957500	0,1	0,406217
5,959167	0,1	0,369408
5,960833	0,1	0,404297
5,962500	0,1	0,400719
5,964167	0,1	0,389719
5,965833	0,1	0,410461
5,967500	0,1	0,411058
5,969167	0,1	0,397587
5,970833	0,1	0,402509
5,972500	0,1	0,377831
5,974167	0,1	0,364198
5,975833	0,1	0,379649
5,977500	0,1	0,374903
5,979167	0,1	0,366929
5,980833	0,1	0,410403
5,982500	0,1	0,398979
5,984167	0,1	0,400996
5,985833	0,1	0,334674
5,987500	0,1	0,413285
5,989167	0,1	0,384466
5,990833	0,1	0,390166
5,992500	0,1	0,379220
5,994167	0,1	0,375998
5,995833	0,1	0,372918
5,997500	0,1	0,386388
5,999167	0,1	0,377131
6,000833	0,1	0,400347
