File Path	chrom://chromeleon01/ikbm_chromeleon/2022/Rezex/Esteban/220612_chitin_4_7.seq/230.smp/UV_VIS_1.channel/UV_VIS_1.chm
Channel	UV_VIS_1

Injection Information:
Data Vault	ikbm_chromeleon
Injection	A2ox 10
Injection Number	4
Position	RA1
Comment	
Processing Method	New ProcMethod
Instrument Method	Short_Rezex_6min_194nm
Type	Calibration Standard
Status	Finished
Injection Date	12.06.2022
Injection Time	17:33:15
Injection Volume (µl)	8,000
Dilution Factor	1,0000
Weight	1,0000

Chromatogram Data Information:
Time Min. (min)	0,000833
Time Max. (min)	6,000833
Data Points	3601
Detector	UV
Generating Data System	Chromeleon 7.2.9.11323
Exporting Data System	Chromeleon 7.2.9.0
Operator	Instrument Controller
Signal Quantity	Absorbance
Signal Unit	mAU
Signal Min.	-4,005389
Signal Max.	5,939648
Channel	UV_VIS_1
Driver Name	VWD3000.dll
Channel Type	Evaluation
Min. Step (s)	0,1
Max. Step (s)	0,1
Average Step (s)	0,1

Signal Parameter Information:
Signal Info	WVL:194 nm

Chromatogram Data:
Time (min)	Step (s)	Value (mAU)
0,000833	n.a.	-0,018395
0,002500	0,1	0,035068
0,004167	0,1	-0,009696
0,005833	0,1	0,006431
0,007500	0,1	0,003377
0,009167	0,1	0,003330
0,010833	0,1	0,008021
0,012500	0,1	-0,023676
0,014167	0,1	0,025301
0,015833	0,1	-0,001031
0,017500	0,1	-0,004741
0,019167	0,1	0,008961
0,020833	0,1	-0,015560
0,022500	0,1	-0,004147
0,024167	0,1	0,043673
0,025833	0,1	0,005131
0,027500	0,1	0,016436
0,029167	0,1	0,014601
0,030833	0,1	0,011196
0,032500	0,1	-0,007585
0,034167	0,1	-0,006946
0,035833	0,1	0,012271
0,037500	0,1	-0,007127
0,039167	0,1	-0,007382
0,040833	0,1	0,006732
0,042500	0,1	0,032089
0,044167	0,1	0,028207
0,045833	0,1	0,054000
0,047500	0,1	0,010766
0,049167	0,1	-0,017060
0,050833	0,1	0,015898
0,052500	0,1	0,073542
0,054167	0,1	0,006033
0,055833	0,1	-0,009907
0,057500	0,1	0,018521
0,059167	0,1	0,019293
0,060833	0,1	0,045499
0,062500	0,1	0,035363
0,064167	0,1	0,026070
0,065833	0,1	0,007197
0,067500	0,1	0,009124
0,069167	0,1	0,021473
0,070833	0,1	0,013633
0,072500	0,1	0,024731
0,074167	0,1	0,040994
0,075833	0,1	0,052509
0,077500	0,1	0,025663
0,079167	0,1	0,023958
0,080833	0,1	0,021151
0,082500	0,1	0,010461
0,084167	0,1	-0,031835
0,085833	0,1	0,019366
0,087500	0,1	0,016525
0,089167	0,1	0,005933
0,090833	0,1	0,023796
0,092500	0,1	0,030873
0,094167	0,1	0,028579
0,095833	0,1	0,035566
0,097500	0,1	-0,019786
0,099167	0,1	0,045694
0,100833	0,1	0,024273
0,102500	0,1	-0,019743
0,104167	0,1	-0,018739
0,105833	0,1	-0,008421
0,107500	0,1	0,010014
0,109167	0,1	0,003610
0,110833	0,1	0,019858
0,112500	0,1	0,042708
0,114167	0,1	0,030606
0,115833	0,1	-0,001608
0,117500	0,1	0,005053
0,119167	0,1	0,018013
0,120833	0,1	0,029724
0,122500	0,1	-0,022894
0,124167	0,1	0,013808
0,125833	0,1	0,013378
0,127500	0,1	0,027398
0,129167	0,1	0,020071
0,130833	0,1	0,020646
0,132500	0,1	0,005219
0,134167	0,1	0,006342
0,135833	0,1	0,008201
0,137500	0,1	0,039423
0,139167	0,1	-0,010224
0,140833	0,1	-0,003595
0,142500	0,1	0,032517
0,144167	0,1	0,044829
0,145833	0,1	-0,023553
0,147500	0,1	0,049668
0,149167	0,1	0,030532
0,150833	0,1	0,010967
0,152500	0,1	0,061654
0,154167	0,1	0,017755
0,155833	0,1	0,055695
0,157500	0,1	0,007316
0,159167	0,1	0,028731
0,160833	0,1	0,032441
0,162500	0,1	0,030482
0,164167	0,1	0,047720
0,165833	0,1	0,008601
0,167500	0,1	0,027258
0,169167	0,1	-0,014918
0,170833	0,1	0,023000
0,172500	0,1	0,049996
0,174167	0,1	-0,005258
0,175833	0,1	0,029782
0,177500	0,1	0,015677
0,179167	0,1	0,026569
0,180833	0,1	0,000508
0,182500	0,1	0,040065
0,184167	0,1	0,041239
0,185833	0,1	0,058302
0,187500	0,1	0,030377
0,189167	0,1	0,054457
0,190833	0,1	0,042950
0,192500	0,1	0,034832
0,194167	0,1	0,026387
0,195833	0,1	0,007841
0,197500	0,1	0,041455
0,199167	0,1	0,006622
0,200833	0,1	0,051140
0,202500	0,1	0,047839
0,204167	0,1	0,030328
0,205833	0,1	-0,005581
0,207500	0,1	0,075157
0,209167	0,1	0,017508
0,210833	0,1	0,046523
0,212500	0,1	-0,005187
0,214167	0,1	0,047852
0,215833	0,1	0,040644
0,217500	0,1	0,003636
0,219167	0,1	0,070169
0,220833	0,1	0,009550
0,222500	0,1	0,048956
0,224167	0,1	0,045561
0,225833	0,1	-0,005073
0,227500	0,1	0,079897
0,229167	0,1	0,049319
0,230833	0,1	-0,000428
0,232500	0,1	0,027666
0,234167	0,1	0,029193
0,235833	0,1	0,061257
0,237500	0,1	0,070211
0,239167	0,1	0,007526
0,240833	0,1	0,059414
0,242500	0,1	0,044052
0,244167	0,1	0,028256
0,245833	0,1	-0,007791
0,247500	0,1	0,034287
0,249167	0,1	0,004139
0,250833	0,1	0,008862
0,252500	0,1	0,060702
0,254167	0,1	0,051936
0,255833	0,1	0,014881
0,257500	0,1	0,060387
0,259167	0,1	0,000816
0,260833	0,1	0,035577
0,262500	0,1	0,058524
0,264167	0,1	0,029500
0,265833	0,1	0,053216
0,267500	0,1	0,065516
0,269167	0,1	0,045107
0,270833	0,1	0,037585
0,272500	0,1	0,050064
0,274167	0,1	0,067586
0,275833	0,1	0,043160
0,277500	0,1	0,071747
0,279167	0,1	0,036331
0,280833	0,1	0,033581
0,282500	0,1	0,074869
0,284167	0,1	0,046807
0,285833	0,1	0,064087
0,287500	0,1	0,052581
0,289167	0,1	0,066159
0,290833	0,1	0,053132
0,292500	0,1	0,051197
0,294167	0,1	0,045077
0,295833	0,1	0,050299
0,297500	0,1	0,075767
0,299167	0,1	0,065224
0,300833	0,1	0,078236
0,302500	0,1	0,025894
0,304167	0,1	0,050107
0,305833	0,1	0,055719
0,307500	0,1	0,055627
0,309167	0,1	0,059473
0,310833	0,1	0,090594
0,312500	0,1	0,015645
0,314167	0,1	0,031095
0,315833	0,1	0,031332
0,317500	0,1	0,034643
0,319167	0,1	0,039374
0,320833	0,1	0,077539
0,322500	0,1	0,068003
0,324167	0,1	0,048513
0,325833	0,1	0,054181
0,327500	0,1	0,057084
0,329167	0,1	0,064213
0,330833	0,1	0,040788
0,332500	0,1	0,053899
0,334167	0,1	0,040712
0,335833	0,1	0,041772
0,337500	0,1	0,082156
0,339167	0,1	0,051548
0,340833	0,1	0,057681
0,342500	0,1	0,067104
0,344167	0,1	0,056554
0,345833	0,1	0,067448
0,347500	0,1	0,045378
0,349167	0,1	0,052593
0,350833	0,1	0,059266
0,352500	0,1	0,076320
0,354167	0,1	0,054598
0,355833	0,1	0,046709
0,357500	0,1	0,024255
0,359167	0,1	0,048756
0,360833	0,1	0,073649
0,362500	0,1	0,046603
0,364167	0,1	0,038555
0,365833	0,1	0,070709
0,367500	0,1	0,061864
0,369167	0,1	0,033567
0,370833	0,1	0,121187
0,372500	0,1	0,049860
0,374167	0,1	0,056550
0,375833	0,1	0,071013
0,377500	0,1	0,076166
0,379167	0,1	0,054421
0,380833	0,1	0,029220
0,382500	0,1	0,083646
0,384167	0,1	0,086328
0,385833	0,1	0,042884
0,387500	0,1	0,057836
0,389167	0,1	0,041887
0,390833	0,1	0,044665
0,392500	0,1	0,066567
0,394167	0,1	0,036844
0,395833	0,1	0,044897
0,397500	0,1	0,085562
0,399167	0,1	0,061364
0,400833	0,1	0,048875
0,402500	0,1	0,070777
0,404167	0,1	0,046349
0,405833	0,1	0,064106
0,407500	0,1	0,065818
0,409167	0,1	0,043290
0,410833	0,1	0,076643
0,412500	0,1	0,066875
0,414167	0,1	0,074168
0,415833	0,1	0,032993
0,417500	0,1	0,090272
0,419167	0,1	0,054788
0,420833	0,1	0,077700
0,422500	0,1	0,055633
0,424167	0,1	0,060953
0,425833	0,1	0,081863
0,427500	0,1	0,091746
0,429167	0,1	0,067316
0,430833	0,1	0,043794
0,432500	0,1	0,065700
0,434167	0,1	0,060903
0,435833	0,1	0,053241
0,437500	0,1	0,060319
0,439167	0,1	0,067105
0,440833	0,1	0,036778
0,442500	0,1	0,046734
0,444167	0,1	0,055952
0,445833	0,1	0,027718
0,447500	0,1	0,043027
0,449167	0,1	0,057555
0,450833	0,1	0,079397
0,452500	0,1	0,062117
0,454167	0,1	0,086432
0,455833	0,1	0,036308
0,457500	0,1	0,083114
0,459167	0,1	0,100852
0,460833	0,1	0,067068
0,462500	0,1	0,064204
0,464167	0,1	0,094363
0,465833	0,1	0,065105
0,467500	0,1	0,061516
0,469167	0,1	0,074202
0,470833	0,1	0,048925
0,472500	0,1	0,065328
0,474167	0,1	0,081143
0,475833	0,1	0,074804
0,477500	0,1	0,129222
0,479167	0,1	0,049788
0,480833	0,1	0,081486
0,482500	0,1	0,044945
0,484167	0,1	0,081906
0,485833	0,1	0,107539
0,487500	0,1	0,082488
0,489167	0,1	0,087756
0,490833	0,1	0,077633
0,492500	0,1	0,056810
0,494167	0,1	0,069164
0,495833	0,1	0,099309
0,497500	0,1	0,056141
0,499167	0,1	0,075835
0,500833	0,1	0,039197
0,502500	0,1	0,071231
0,504167	0,1	0,089653
0,505833	0,1	0,054004
0,507500	0,1	0,074687
0,509167	0,1	0,094144
0,510833	0,1	0,080144
0,512500	0,1	0,058348
0,514167	0,1	0,092478
0,515833	0,1	0,067288
0,517500	0,1	0,068570
0,519167	0,1	0,091743
0,520833	0,1	0,045795
0,522500	0,1	0,016875
0,524167	0,1	0,062242
0,525833	0,1	0,084501
0,527500	0,1	0,060159
0,529167	0,1	0,067074
0,530833	0,1	0,102779
0,532500	0,1	0,075893
0,534167	0,1	0,091745
0,535833	0,1	0,045478
0,537500	0,1	0,090103
0,539167	0,1	0,066075
0,540833	0,1	0,027431
0,542500	0,1	0,096836
0,544167	0,1	0,077085
0,545833	0,1	0,070316
0,547500	0,1	0,078179
0,549167	0,1	0,094851
0,550833	0,1	0,079816
0,552500	0,1	0,101167
0,554167	0,1	0,079930
0,555833	0,1	0,038534
0,557500	0,1	0,074840
0,559167	0,1	0,092388
0,560833	0,1	0,049797
0,562500	0,1	0,063790
0,564167	0,1	0,059071
0,565833	0,1	0,078960
0,567500	0,1	0,032229
0,569167	0,1	0,076473
0,570833	0,1	0,099972
0,572500	0,1	0,100966
0,574167	0,1	0,074558
0,575833	0,1	0,076136
0,577500	0,1	0,118200
0,579167	0,1	0,060775
0,580833	0,1	0,088019
0,582500	0,1	0,074789
0,584167	0,1	0,100363
0,585833	0,1	0,098203
0,587500	0,1	0,078045
0,589167	0,1	0,048916
0,590833	0,1	0,080292
0,592500	0,1	0,091996
0,594167	0,1	0,052214
0,595833	0,1	0,094611
0,597500	0,1	0,124438
0,599167	0,1	0,043164
0,600833	0,1	0,068564
0,602500	0,1	0,088225
0,604167	0,1	0,049358
0,605833	0,1	0,077214
0,607500	0,1	0,095138
0,609167	0,1	0,054509
0,610833	0,1	0,064014
0,612500	0,1	0,075350
0,614167	0,1	0,088776
0,615833	0,1	0,077680
0,617500	0,1	0,082874
0,619167	0,1	0,082669
0,620833	0,1	0,075307
0,622500	0,1	0,051080
0,624167	0,1	0,054702
0,625833	0,1	0,057828
0,627500	0,1	0,066524
0,629167	0,1	0,053559
0,630833	0,1	0,080029
0,632500	0,1	0,086706
0,634167	0,1	0,065216
0,635833	0,1	0,067673
0,637500	0,1	0,123394
0,639167	0,1	0,104724
0,640833	0,1	0,096508
0,642500	0,1	0,073333
0,644167	0,1	0,082936
0,645833	0,1	0,098640
0,647500	0,1	0,101703
0,649167	0,1	0,071263
0,650833	0,1	0,056965
0,652500	0,1	0,091300
0,654167	0,1	0,113588
0,655833	0,1	0,044102
0,657500	0,1	0,085113
0,659167	0,1	0,054160
0,660833	0,1	0,082728
0,662500	0,1	0,068040
0,664167	0,1	0,087834
0,665833	0,1	0,086708
0,667500	0,1	0,093600
0,669167	0,1	0,081056
0,670833	0,1	0,097883
0,672500	0,1	0,114436
0,674167	0,1	0,144038
0,675833	0,1	0,111873
0,677500	0,1	0,108758
0,679167	0,1	0,074279
0,680833	0,1	0,069102
0,682500	0,1	0,108636
0,684167	0,1	0,127267
0,685833	0,1	0,095776
0,687500	0,1	0,087447
0,689167	0,1	0,113305
0,690833	0,1	0,092397
0,692500	0,1	0,099207
0,694167	0,1	0,103587
0,695833	0,1	0,094389
0,697500	0,1	0,099724
0,699167	0,1	0,087560
0,700833	0,1	0,078136
0,702500	0,1	0,107538
0,704167	0,1	0,119086
0,705833	0,1	0,075475
0,707500	0,1	0,098432
0,709167	0,1	0,099756
0,710833	0,1	0,126621
0,712500	0,1	0,119893
0,714167	0,1	0,107064
0,715833	0,1	0,078468
0,717500	0,1	0,128185
0,719167	0,1	0,107756
0,720833	0,1	0,090387
0,722500	0,1	0,100729
0,724167	0,1	0,107890
0,725833	0,1	0,086712
0,727500	0,1	0,089879
0,729167	0,1	0,075375
0,730833	0,1	0,107115
0,732500	0,1	0,131961
0,734167	0,1	0,110661
0,735833	0,1	0,120768
0,737500	0,1	0,104911
0,739167	0,1	0,110670
0,740833	0,1	0,108190
0,742500	0,1	0,065408
0,744167	0,1	0,120978
0,745833	0,1	0,111458
0,747500	0,1	0,094831
0,749167	0,1	0,124988
0,750833	0,1	0,110880
0,752500	0,1	0,145198
0,754167	0,1	0,122740
0,755833	0,1	0,113705
0,757500	0,1	0,114002
0,759167	0,1	0,160508
0,760833	0,1	0,061325
0,762500	0,1	0,122861
0,764167	0,1	0,141794
0,765833	0,1	0,110082
0,767500	0,1	0,091862
0,769167	0,1	0,078278
0,770833	0,1	0,091558
0,772500	0,1	0,130687
0,774167	0,1	0,147214
0,775833	0,1	0,126632
0,777500	0,1	0,138012
0,779167	0,1	0,149461
0,780833	0,1	0,132914
0,782500	0,1	0,110629
0,784167	0,1	0,125289
0,785833	0,1	0,150179
0,787500	0,1	0,159121
0,789167	0,1	0,158479
0,790833	0,1	0,184137
0,792500	0,1	0,150854
0,794167	0,1	0,145005
0,795833	0,1	0,134859
0,797500	0,1	0,192893
0,799167	0,1	0,176717
0,800833	0,1	0,146723
0,802500	0,1	0,191453
0,804167	0,1	0,171363
0,805833	0,1	0,192273
0,807500	0,1	0,183202
0,809167	0,1	0,175177
0,810833	0,1	0,168626
0,812500	0,1	0,180607
0,814167	0,1	0,193548
0,815833	0,1	0,149663
0,817500	0,1	0,189929
0,819167	0,1	0,178037
0,820833	0,1	0,176116
0,822500	0,1	0,191147
0,824167	0,1	0,207920
0,825833	0,1	0,181416
0,827500	0,1	0,186797
0,829167	0,1	0,191008
0,830833	0,1	0,187897
0,832500	0,1	0,239374
0,834167	0,1	0,221749
0,835833	0,1	0,232190
0,837500	0,1	0,286392
0,839167	0,1	0,226363
0,840833	0,1	0,224621
0,842500	0,1	0,251021
0,844167	0,1	0,280206
0,845833	0,1	0,234746
0,847500	0,1	0,256818
0,849167	0,1	0,247714
0,850833	0,1	0,216838
0,852500	0,1	0,262047
0,854167	0,1	0,246665
0,855833	0,1	0,267015
0,857500	0,1	0,228732
0,859167	0,1	0,238882
0,860833	0,1	0,289709
0,862500	0,1	0,253741
0,864167	0,1	0,286445
0,865833	0,1	0,273120
0,867500	0,1	0,288381
0,869167	0,1	0,263461
0,870833	0,1	0,252962
0,872500	0,1	0,285013
0,874167	0,1	0,296456
0,875833	0,1	0,269617
0,877500	0,1	0,325088
0,879167	0,1	0,278673
0,880833	0,1	0,280451
0,882500	0,1	0,291198
0,884167	0,1	0,289565
0,885833	0,1	0,332034
0,887500	0,1	0,257234
0,889167	0,1	0,337715
0,890833	0,1	0,329421
0,892500	0,1	0,291662
0,894167	0,1	0,334263
0,895833	0,1	0,287047
0,897500	0,1	0,276040
0,899167	0,1	0,307832
0,900833	0,1	0,332586
0,902500	0,1	0,339512
0,904167	0,1	0,327537
0,905833	0,1	0,318614
0,907500	0,1	0,329512
0,909167	0,1	0,322431
0,910833	0,1	0,272972
0,912500	0,1	0,363492
0,914167	0,1	0,326138
0,915833	0,1	0,341203
0,917500	0,1	0,365441
0,919167	0,1	0,337992
0,920833	0,1	0,359440
0,922500	0,1	0,375451
0,924167	0,1	0,376687
0,925833	0,1	0,357317
0,927500	0,1	0,373174
0,929167	0,1	0,362669
0,930833	0,1	0,349084
0,932500	0,1	0,378920
0,934167	0,1	0,382003
0,935833	0,1	0,382542
0,937500	0,1	0,357807
0,939167	0,1	0,379500
0,940833	0,1	0,346656
0,942500	0,1	0,372113
0,944167	0,1	0,400019
0,945833	0,1	0,394284
0,947500	0,1	0,392399
0,949167	0,1	0,385650
0,950833	0,1	0,407366
0,952500	0,1	0,373319
0,954167	0,1	0,395077
0,955833	0,1	0,418174
0,957500	0,1	0,374706
0,959167	0,1	0,419200
0,960833	0,1	0,444389
0,962500	0,1	0,438887
0,964167	0,1	0,432798
0,965833	0,1	0,457567
0,967500	0,1	0,455896
0,969167	0,1	0,478638
0,970833	0,1	0,466306
0,972500	0,1	0,475821
0,974167	0,1	0,440280
0,975833	0,1	0,498959
0,977500	0,1	0,484053
0,979167	0,1	0,469779
0,980833	0,1	0,520672
0,982500	0,1	0,474381
0,984167	0,1	0,540891
0,985833	0,1	0,494862
0,987500	0,1	0,549423
0,989167	0,1	0,555039
0,990833	0,1	0,588251
0,992500	0,1	0,576212
0,994167	0,1	0,547256
0,995833	0,1	0,575109
0,997500	0,1	0,592466
0,999167	0,1	0,607539
1,000833	0,1	0,627323
1,002500	0,1	0,656528
1,004167	0,1	0,707355
1,005833	0,1	0,696262
1,007500	0,1	0,721943
1,009167	0,1	0,756362
1,010833	0,1	0,749428
1,012500	0,1	0,793364
1,014167	0,1	0,812466
1,015833	0,1	0,874620
1,017500	0,1	0,873449
1,019167	0,1	0,908171
1,020833	0,1	0,879066
1,022500	0,1	0,916159
1,024167	0,1	0,956647
1,025833	0,1	1,003731
1,027500	0,1	0,994976
1,029167	0,1	1,003156
1,030833	0,1	0,994423
1,032500	0,1	0,983602
1,034167	0,1	1,004891
1,035833	0,1	1,023636
1,037500	0,1	0,991950
1,039167	0,1	1,036942
1,040833	0,1	1,051596
1,042500	0,1	0,995972
1,044167	0,1	1,005200
1,045833	0,1	1,002717
1,047500	0,1	1,044839
1,049167	0,1	0,979258
1,050833	0,1	1,027459
1,052500	0,1	1,008670
1,054167	0,1	1,033629
1,055833	0,1	1,006635
1,057500	0,1	1,009999
1,059167	0,1	0,994272
1,060833	0,1	0,984993
1,062500	0,1	0,984744
1,064167	0,1	1,006419
1,065833	0,1	1,026081
1,067500	0,1	1,028761
1,069167	0,1	1,049259
1,070833	0,1	1,005603
1,072500	0,1	1,073306
1,074167	0,1	1,047140
1,075833	0,1	1,102992
1,077500	0,1	1,115225
1,079167	0,1	1,106748
1,080833	0,1	1,149665
1,082500	0,1	1,072267
1,084167	0,1	1,080870
1,085833	0,1	0,988942
1,087500	0,1	0,970606
1,089167	0,1	0,881751
1,090833	0,1	0,736812
1,092500	0,1	0,606191
1,094167	0,1	0,485379
1,095833	0,1	0,257332
1,097500	0,1	0,034447
1,099167	0,1	-0,199555
1,100833	0,1	-0,458410
1,102500	0,1	-0,708212
1,104167	0,1	-0,991426
1,105833	0,1	-1,310156
1,107500	0,1	-1,537177
1,109167	0,1	-1,828514
1,110833	0,1	-2,082090
1,112500	0,1	-2,391984
1,114167	0,1	-2,631992
1,115833	0,1	-2,838102
1,117500	0,1	-3,058100
1,119167	0,1	-3,259656
1,120833	0,1	-3,436109
1,122500	0,1	-3,575427
1,124167	0,1	-3,649582
1,125833	0,1	-3,796384
1,127500	0,1	-3,898781
1,129167	0,1	-3,960812
1,130833	0,1	-4,005389
1,132500	0,1	-3,990952
1,134167	0,1	-3,992339
1,135833	0,1	-3,991993
1,137500	0,1	-3,937777
1,139167	0,1	-3,850084
1,140833	0,1	-3,763799
1,142500	0,1	-3,694113
1,144167	0,1	-3,579318
1,145833	0,1	-3,445270
1,147500	0,1	-3,364882
1,149167	0,1	-3,223800
1,150833	0,1	-3,108934
1,152500	0,1	-2,936629
1,154167	0,1	-2,781141
1,155833	0,1	-2,718965
1,157500	0,1	-2,518944
1,159167	0,1	-2,370244
1,160833	0,1	-2,208408
1,162500	0,1	-2,089830
1,164167	0,1	-1,926798
1,165833	0,1	-1,771469
1,167500	0,1	-1,634443
1,169167	0,1	-1,523590
1,170833	0,1	-1,389336
1,172500	0,1	-1,227490
1,174167	0,1	-1,164831
1,175833	0,1	-1,021880
1,177500	0,1	-0,892397
1,179167	0,1	-0,807846
1,180833	0,1	-0,693693
1,182500	0,1	-0,525644
1,184167	0,1	-0,470503
1,185833	0,1	-0,398909
1,187500	0,1	-0,344316
1,189167	0,1	-0,230838
1,190833	0,1	-0,144318
1,192500	0,1	-0,035290
1,194167	0,1	-0,007640
1,195833	0,1	0,064715
1,197500	0,1	0,115358
1,199167	0,1	0,219815
1,200833	0,1	0,271255
1,202500	0,1	0,328878
1,204167	0,1	0,344684
1,205833	0,1	0,432742
1,207500	0,1	0,423691
1,209167	0,1	0,523092
1,210833	0,1	0,536992
1,212500	0,1	0,554294
1,214167	0,1	0,588400
1,215833	0,1	0,659398
1,217500	0,1	0,675525
1,219167	0,1	0,750696
1,220833	0,1	0,749524
1,222500	0,1	0,777047
1,224167	0,1	0,771647
1,225833	0,1	0,807649
1,227500	0,1	0,828833
1,229167	0,1	0,858498
1,230833	0,1	0,928096
1,232500	0,1	0,847515
1,234167	0,1	0,905429
1,235833	0,1	0,903952
1,237500	0,1	0,950932
1,239167	0,1	0,935162
1,240833	0,1	0,944781
1,242500	0,1	0,945732
1,244167	0,1	0,951334
1,245833	0,1	1,005216
1,247500	0,1	0,992082
1,249167	0,1	0,997340
1,250833	0,1	0,988601
1,252500	0,1	0,997933
1,254167	0,1	0,992276
1,255833	0,1	1,064160
1,257500	0,1	1,024849
1,259167	0,1	1,016810
1,260833	0,1	1,029342
1,262500	0,1	1,058620
1,264167	0,1	1,001626
1,265833	0,1	1,031233
1,267500	0,1	1,042010
1,269167	0,1	1,028356
1,270833	0,1	1,059017
1,272500	0,1	1,062946
1,274167	0,1	1,054899
1,275833	0,1	1,056588
1,277500	0,1	1,021519
1,279167	0,1	1,056231
1,280833	0,1	1,032485
1,282500	0,1	1,034065
1,284167	0,1	1,025884
1,285833	0,1	1,032416
1,287500	0,1	1,036554
1,289167	0,1	1,031180
1,290833	0,1	1,013373
1,292500	0,1	1,046757
1,294167	0,1	1,033967
1,295833	0,1	1,038479
1,297500	0,1	0,993169
1,299167	0,1	1,014195
1,300833	0,1	1,014312
1,302500	0,1	1,005282
1,304167	0,1	0,986032
1,305833	0,1	1,001599
1,307500	0,1	1,009988
1,309167	0,1	0,982097
1,310833	0,1	0,986408
1,312500	0,1	0,961713
1,314167	0,1	0,992658
1,315833	0,1	0,963954
1,317500	0,1	0,988882
1,319167	0,1	0,959677
1,320833	0,1	0,952678
1,322500	0,1	0,969140
1,324167	0,1	0,937000
1,325833	0,1	0,950383
1,327500	0,1	0,908228
1,329167	0,1	0,969672
1,330833	0,1	0,907634
1,332500	0,1	0,960593
1,334167	0,1	0,918494
1,335833	0,1	0,887935
1,337500	0,1	0,891735
1,339167	0,1	0,927548
1,340833	0,1	0,893139
1,342500	0,1	0,855733
1,344167	0,1	0,899823
1,345833	0,1	0,838381
1,347500	0,1	0,862419
1,349167	0,1	0,878837
1,350833	0,1	0,858510
1,352500	0,1	0,850860
1,354167	0,1	0,828648
1,355833	0,1	0,825713
1,357500	0,1	0,832009
1,359167	0,1	0,836426
1,360833	0,1	0,843818
1,362500	0,1	0,835282
1,364167	0,1	0,837069
1,365833	0,1	0,837466
1,367500	0,1	0,817530
1,369167	0,1	0,856552
1,370833	0,1	0,757880
1,372500	0,1	0,837544
1,374167	0,1	0,788669
1,375833	0,1	0,770361
1,377500	0,1	0,781711
1,379167	0,1	0,794308
1,380833	0,1	0,753303
1,382500	0,1	0,771788
1,384167	0,1	0,734753
1,385833	0,1	0,773766
1,387500	0,1	0,746752
1,389167	0,1	0,759292
1,390833	0,1	0,752401
1,392500	0,1	0,755226
1,394167	0,1	0,763806
1,395833	0,1	0,729000
1,397500	0,1	0,727058
1,399167	0,1	0,702216
1,400833	0,1	0,716589
1,402500	0,1	0,726557
1,404167	0,1	0,741188
1,405833	0,1	0,724877
1,407500	0,1	0,754077
1,409167	0,1	0,687001
1,410833	0,1	0,683219
1,412500	0,1	0,717327
1,414167	0,1	0,660520
1,415833	0,1	0,684651
1,417500	0,1	0,641771
1,419167	0,1	0,687223
1,420833	0,1	0,661652
1,422500	0,1	0,664325
1,424167	0,1	0,663928
1,425833	0,1	0,727090
1,427500	0,1	0,649021
1,429167	0,1	0,679095
1,430833	0,1	0,672805
1,432500	0,1	0,617875
1,434167	0,1	0,639575
1,435833	0,1	0,649299
1,437500	0,1	0,674236
1,439167	0,1	0,645490
1,440833	0,1	0,641120
1,442500	0,1	0,607413
1,444167	0,1	0,621332
1,445833	0,1	0,654003
1,447500	0,1	0,651930
1,449167	0,1	0,638495
1,450833	0,1	0,618314
1,452500	0,1	0,647410
1,454167	0,1	0,573411
1,455833	0,1	0,616415
1,457500	0,1	0,611470
1,459167	0,1	0,614888
1,460833	0,1	0,624059
1,462500	0,1	0,577566
1,464167	0,1	0,575719
1,465833	0,1	0,586428
1,467500	0,1	0,598624
1,469167	0,1	0,609829
1,470833	0,1	0,541678
1,472500	0,1	0,573680
1,474167	0,1	0,638628
1,475833	0,1	0,546845
1,477500	0,1	0,589496
1,479167	0,1	0,608538
1,480833	0,1	0,566559
1,482500	0,1	0,607593
1,484167	0,1	0,572654
1,485833	0,1	0,552473
1,487500	0,1	0,547665
1,489167	0,1	0,595596
1,490833	0,1	0,588564
1,492500	0,1	0,583363
1,494167	0,1	0,571066
1,495833	0,1	0,538395
1,497500	0,1	0,561341
1,499167	0,1	0,593214
1,500833	0,1	0,581721
1,502500	0,1	0,557437
1,504167	0,1	0,553709
1,505833	0,1	0,558613
1,507500	0,1	0,542561
1,509167	0,1	0,572146
1,510833	0,1	0,556888
1,512500	0,1	0,564364
1,514167	0,1	0,591482
1,515833	0,1	0,555406
1,517500	0,1	0,547562
1,519167	0,1	0,559359
1,520833	0,1	0,564174
1,522500	0,1	0,549307
1,524167	0,1	0,573439
1,525833	0,1	0,533050
1,527500	0,1	0,573433
1,529167	0,1	0,562540
1,530833	0,1	0,528088
1,532500	0,1	0,566295
1,534167	0,1	0,526553
1,535833	0,1	0,502657
1,537500	0,1	0,560737
1,539167	0,1	0,567346
1,540833	0,1	0,538550
1,542500	0,1	0,529377
1,544167	0,1	0,519900
1,545833	0,1	0,547657
1,547500	0,1	0,551581
1,549167	0,1	0,528340
1,550833	0,1	0,540077
1,552500	0,1	0,564514
1,554167	0,1	0,538104
1,555833	0,1	0,521044
1,557500	0,1	0,512118
1,559167	0,1	0,558665
1,560833	0,1	0,525569
1,562500	0,1	0,534327
1,564167	0,1	0,521200
1,565833	0,1	0,555291
1,567500	0,1	0,559959
1,569167	0,1	0,527746
1,570833	0,1	0,536358
1,572500	0,1	0,523969
1,574167	0,1	0,546223
1,575833	0,1	0,564815
1,577500	0,1	0,520559
1,579167	0,1	0,512372
1,580833	0,1	0,571791
1,582500	0,1	0,485570
1,584167	0,1	0,549731
1,585833	0,1	0,519407
1,587500	0,1	0,533531
1,589167	0,1	0,555645
1,590833	0,1	0,530777
1,592500	0,1	0,523571
1,594167	0,1	0,559804
1,595833	0,1	0,537953
1,597500	0,1	0,522138
1,599167	0,1	0,495922
1,600833	0,1	0,521343
1,602500	0,1	0,521047
1,604167	0,1	0,526946
1,605833	0,1	0,526104
1,607500	0,1	0,503751
1,609167	0,1	0,513506
1,610833	0,1	0,541167
1,612500	0,1	0,515253
1,614167	0,1	0,487186
1,615833	0,1	0,495663
1,617500	0,1	0,538787
1,619167	0,1	0,545835
1,620833	0,1	0,528143
1,622500	0,1	0,508407
1,624167	0,1	0,517474
1,625833	0,1	0,525956
1,627500	0,1	0,510740
1,629167	0,1	0,553456
1,630833	0,1	0,515953
1,632500	0,1	0,513861
1,634167	0,1	0,510044
1,635833	0,1	0,524464
1,637500	0,1	0,539139
1,639167	0,1	0,527048
1,640833	0,1	0,578889
1,642500	0,1	0,543912
1,644167	0,1	0,549256
1,645833	0,1	0,547313
1,647500	0,1	0,548161
1,649167	0,1	0,612895
1,650833	0,1	0,612858
1,652500	0,1	0,554073
1,654167	0,1	0,619932
1,655833	0,1	0,641016
1,657500	0,1	0,623524
1,659167	0,1	0,649098
1,660833	0,1	0,650245
1,662500	0,1	0,667495
1,664167	0,1	0,715042
1,665833	0,1	0,714657
1,667500	0,1	0,772074
1,669167	0,1	0,784631
1,670833	0,1	0,842307
1,672500	0,1	0,848763
1,674167	0,1	0,900501
1,675833	0,1	0,939195
1,677500	0,1	0,991890
1,679167	0,1	0,984272
1,680833	0,1	1,060811
1,682500	0,1	1,116263
1,684167	0,1	1,149772
1,685833	0,1	1,224470
1,687500	0,1	1,279376
1,689167	0,1	1,362472
1,690833	0,1	1,377391
1,692500	0,1	1,439262
1,694167	0,1	1,547239
1,695833	0,1	1,569163
1,697500	0,1	1,664542
1,699167	0,1	1,726525
1,700833	0,1	1,830991
1,702500	0,1	1,945109
1,704167	0,1	2,038089
1,705833	0,1	2,089317
1,707500	0,1	2,217885
1,709167	0,1	2,265245
1,710833	0,1	2,430173
1,712500	0,1	2,493812
1,714167	0,1	2,615273
1,715833	0,1	2,699996
1,717500	0,1	2,792381
1,719167	0,1	2,880017
1,720833	0,1	2,989881
1,722500	0,1	3,126687
1,724167	0,1	3,218709
1,725833	0,1	3,342171
1,727500	0,1	3,433836
1,729167	0,1	3,544962
1,730833	0,1	3,623972
1,732500	0,1	3,789037
1,734167	0,1	3,830288
1,735833	0,1	3,964604
1,737500	0,1	4,043956
1,739167	0,1	4,170447
1,740833	0,1	4,254130
1,742500	0,1	4,329467
1,744167	0,1	4,434753
1,745833	0,1	4,508720
1,747500	0,1	4,621722
1,749167	0,1	4,677098
1,750833	0,1	4,740410
1,752500	0,1	4,837811
1,754167	0,1	4,894718
1,755833	0,1	4,926845
1,757500	0,1	5,028420
1,759167	0,1	5,094524
1,760833	0,1	5,088183
1,762500	0,1	5,217037
1,764167	0,1	5,229302
1,765833	0,1	5,253401
1,767500	0,1	5,278507
1,769167	0,1	5,317232
1,770833	0,1	5,298772
1,772500	0,1	5,354149
1,774167	0,1	5,376689
1,775833	0,1	5,367778
1,777500	0,1	5,377635
1,779167	0,1	5,412455
1,780833	0,1	5,359677
1,782500	0,1	5,379631
1,784167	0,1	5,397683
1,785833	0,1	5,325729
1,787500	0,1	5,310070
1,789167	0,1	5,362638
1,790833	0,1	5,288093
1,792500	0,1	5,287493
1,794167	0,1	5,201233
1,795833	0,1	5,205412
1,797500	0,1	5,150865
1,799167	0,1	5,087753
1,800833	0,1	5,074662
1,802500	0,1	4,990379
1,804167	0,1	4,954442
1,805833	0,1	4,870055
1,807500	0,1	4,829587
1,809167	0,1	4,812049
1,810833	0,1	4,760718
1,812500	0,1	4,652642
1,814167	0,1	4,595877
1,815833	0,1	4,529405
1,817500	0,1	4,468274
1,819167	0,1	4,395586
1,820833	0,1	4,303250
1,822500	0,1	4,288953
1,824167	0,1	4,217057
1,825833	0,1	4,146711
1,827500	0,1	4,052930
1,829167	0,1	3,995241
1,830833	0,1	3,897766
1,832500	0,1	3,864951
1,834167	0,1	3,774752
1,835833	0,1	3,710962
1,837500	0,1	3,613255
1,839167	0,1	3,588851
1,840833	0,1	3,491249
1,842500	0,1	3,402742
1,844167	0,1	3,363601
1,845833	0,1	3,293016
1,847500	0,1	3,217736
1,849167	0,1	3,114955
1,850833	0,1	3,109339
1,852500	0,1	3,027739
1,854167	0,1	2,963574
1,855833	0,1	2,929165
1,857500	0,1	2,831644
1,859167	0,1	2,790115
1,860833	0,1	2,709341
1,862500	0,1	2,638099
1,864167	0,1	2,592657
1,865833	0,1	2,529105
1,867500	0,1	2,513796
1,869167	0,1	2,410363
1,870833	0,1	2,355174
1,872500	0,1	2,320105
1,874167	0,1	2,258225
1,875833	0,1	2,225168
1,877500	0,1	2,169374
1,879167	0,1	2,148021
1,880833	0,1	2,066325
1,882500	0,1	2,053947
1,884167	0,1	2,001398
1,885833	0,1	1,941511
1,887500	0,1	1,941427
1,889167	0,1	1,851293
1,890833	0,1	1,833869
1,892500	0,1	1,770681
1,894167	0,1	1,737560
1,895833	0,1	1,724226
1,897500	0,1	1,660140
1,899167	0,1	1,659612
1,900833	0,1	1,606868
1,902500	0,1	1,588769
1,904167	0,1	1,528542
1,905833	0,1	1,510083
1,907500	0,1	1,486593
1,909167	0,1	1,427317
1,910833	0,1	1,439950
1,912500	0,1	1,414131
1,914167	0,1	1,404582
1,915833	0,1	1,348354
1,917500	0,1	1,327894
1,919167	0,1	1,283986
1,920833	0,1	1,312285
1,922500	0,1	1,285012
1,924167	0,1	1,196669
1,925833	0,1	1,188439
1,927500	0,1	1,167828
1,929167	0,1	1,180845
1,930833	0,1	1,132667
1,932500	0,1	1,150448
1,934167	0,1	1,135628
1,935833	0,1	1,097512
1,937500	0,1	1,100225
1,939167	0,1	1,058943
1,940833	0,1	1,062363
1,942500	0,1	1,003773
1,944167	0,1	0,988570
1,945833	0,1	1,038820
1,947500	0,1	0,983470
1,949167	0,1	0,975378
1,950833	0,1	0,942091
1,952500	0,1	0,930628
1,954167	0,1	0,966671
1,955833	0,1	0,911188
1,957500	0,1	0,921876
1,959167	0,1	0,872048
1,960833	0,1	0,868711
1,962500	0,1	0,869752
1,964167	0,1	0,839054
1,965833	0,1	0,836668
1,967500	0,1	0,873952
1,969167	0,1	0,845452
1,970833	0,1	0,816036
1,972500	0,1	0,776407
1,974167	0,1	0,835602
1,975833	0,1	0,769275
1,977500	0,1	0,768814
1,979167	0,1	0,799801
1,980833	0,1	0,774769
1,982500	0,1	0,752847
1,984167	0,1	0,782392
1,985833	0,1	0,742240
1,987500	0,1	0,770492
1,989167	0,1	0,741294
1,990833	0,1	0,715109
1,992500	0,1	0,734290
1,994167	0,1	0,733103
1,995833	0,1	0,732310
1,997500	0,1	0,726311
1,999167	0,1	0,704843
2,000833	0,1	0,683026
2,002500	0,1	0,686194
2,004167	0,1	0,734679
2,005833	0,1	0,741878
2,007500	0,1	0,691166
2,009167	0,1	0,666119
2,010833	0,1	0,710432
2,012500	0,1	0,647534
2,014167	0,1	0,683012
2,015833	0,1	0,661554
2,017500	0,1	0,670870
2,019167	0,1	0,691347
2,020833	0,1	0,664136
2,022500	0,1	0,655157
2,024167	0,1	0,686287
2,025833	0,1	0,655807
2,027500	0,1	0,595327
2,029167	0,1	0,658711
2,030833	0,1	0,630321
2,032500	0,1	0,682165
2,034167	0,1	0,612880
2,035833	0,1	0,688457
2,037500	0,1	0,662350
2,039167	0,1	0,642812
2,040833	0,1	0,654708
2,042500	0,1	0,683013
2,044167	0,1	0,658384
2,045833	0,1	0,646529
2,047500	0,1	0,615600
2,049167	0,1	0,620345
2,050833	0,1	0,629667
2,052500	0,1	0,620451
2,054167	0,1	0,626794
2,055833	0,1	0,622133
2,057500	0,1	0,629174
2,059167	0,1	0,648360
2,060833	0,1	0,642913
2,062500	0,1	0,644049
2,064167	0,1	0,668090
2,065833	0,1	0,611045
2,067500	0,1	0,594126
2,069167	0,1	0,664014
2,070833	0,1	0,636420
2,072500	0,1	0,633093
2,074167	0,1	0,604835
2,075833	0,1	0,637695
2,077500	0,1	0,625161
2,079167	0,1	0,657676
2,080833	0,1	0,676918
2,082500	0,1	0,655956
2,084167	0,1	0,634239
2,085833	0,1	0,647766
2,087500	0,1	0,643801
2,089167	0,1	0,639539
2,090833	0,1	0,644496
2,092500	0,1	0,671115
2,094167	0,1	0,623782
2,095833	0,1	0,623426
2,097500	0,1	0,667690
2,099167	0,1	0,660810
2,100833	0,1	0,631269
2,102500	0,1	0,630811
2,104167	0,1	0,649202
2,105833	0,1	0,637459
2,107500	0,1	0,661049
2,109167	0,1	0,645343
2,110833	0,1	0,660308
2,112500	0,1	0,677513
2,114167	0,1	0,644752
2,115833	0,1	0,615891
2,117500	0,1	0,613954
2,119167	0,1	0,635367
2,120833	0,1	0,632150
2,122500	0,1	0,640726
2,124167	0,1	0,666803
2,125833	0,1	0,644404
2,127500	0,1	0,674090
2,129167	0,1	0,678260
2,130833	0,1	0,642075
2,132500	0,1	0,678351
2,134167	0,1	0,613867
2,135833	0,1	0,674429
2,137500	0,1	0,651889
2,139167	0,1	0,652429
2,140833	0,1	0,623929
2,142500	0,1	0,649647
2,144167	0,1	0,689953
2,145833	0,1	0,630181
2,147500	0,1	0,697435
2,149167	0,1	0,666021
2,150833	0,1	0,654069
2,152500	0,1	0,660461
2,154167	0,1	0,654216
2,155833	0,1	0,670720
2,157500	0,1	0,664976
2,159167	0,1	0,685645
2,160833	0,1	0,685798
2,162500	0,1	0,632708
2,164167	0,1	0,705665
2,165833	0,1	0,659530
2,167500	0,1	0,656991
2,169167	0,1	0,680091
2,170833	0,1	0,699528
2,172500	0,1	0,697997
2,174167	0,1	0,657052
2,175833	0,1	0,634634
2,177500	0,1	0,645139
2,179167	0,1	0,702147
2,180833	0,1	0,634895
2,182500	0,1	0,649650
2,184167	0,1	0,665415
2,185833	0,1	0,638801
2,187500	0,1	0,640531
2,189167	0,1	0,626056
2,190833	0,1	0,640281
2,192500	0,1	0,680088
2,194167	0,1	0,637517
2,195833	0,1	0,673888
2,197500	0,1	0,654962
2,199167	0,1	0,684501
2,200833	0,1	0,661458
2,202500	0,1	0,659670
2,204167	0,1	0,672558
2,205833	0,1	0,650948
2,207500	0,1	0,624770
2,209167	0,1	0,653017
2,210833	0,1	0,674339
2,212500	0,1	0,682077
2,214167	0,1	0,672711
2,215833	0,1	0,649708
2,217500	0,1	0,616988
2,219167	0,1	0,637156
2,220833	0,1	0,601074
2,222500	0,1	0,645624
2,224167	0,1	0,650892
2,225833	0,1	0,640780
2,227500	0,1	0,623479
2,229167	0,1	0,661397
2,230833	0,1	0,616843
2,232500	0,1	0,645132
2,234167	0,1	0,656889
2,235833	0,1	0,636965
2,237500	0,1	0,636516
2,239167	0,1	0,604940
2,240833	0,1	0,679682
2,242500	0,1	0,640442
2,244167	0,1	0,668092
2,245833	0,1	0,652087
2,247500	0,1	0,627745
2,249167	0,1	0,626997
2,250833	0,1	0,601520
2,252500	0,1	0,615738
2,254167	0,1	0,647268
2,255833	0,1	0,616147
2,257500	0,1	0,661889
2,259167	0,1	0,606190
2,260833	0,1	0,633981
2,262500	0,1	0,603651
2,264167	0,1	0,631202
2,265833	0,1	0,652128
2,267500	0,1	0,596623
2,269167	0,1	0,607164
2,270833	0,1	0,654949
2,272500	0,1	0,593050
2,274167	0,1	0,605874
2,275833	0,1	0,644885
2,277500	0,1	0,636962
2,279167	0,1	0,609849
2,280833	0,1	0,623624
2,282500	0,1	0,601670
2,284167	0,1	0,597353
2,285833	0,1	0,623223
2,287500	0,1	0,622436
2,289167	0,1	0,592503
2,290833	0,1	0,624809
2,292500	0,1	0,618271
2,294167	0,1	0,583974
2,295833	0,1	0,627036
2,297500	0,1	0,611534
2,299167	0,1	0,580749
2,300833	0,1	0,599279
2,302500	0,1	0,637099
2,304167	0,1	0,632302
2,305833	0,1	0,608805
2,307500	0,1	0,581444
2,309167	0,1	0,622870
2,310833	0,1	0,595622
2,312500	0,1	0,593885
2,314167	0,1	0,592939
2,315833	0,1	0,611524
2,317500	0,1	0,640475
2,319167	0,1	0,613765
2,320833	0,1	0,603797
2,322500	0,1	0,636459
2,324167	0,1	0,631961
2,325833	0,1	0,611682
2,327500	0,1	0,615843
2,329167	0,1	0,565584
2,330833	0,1	0,614145
2,332500	0,1	0,566627
2,334167	0,1	0,603984
2,335833	0,1	0,595468
2,337500	0,1	0,582484
2,339167	0,1	0,630655
2,340833	0,1	0,589923
2,342500	0,1	0,603941
2,344167	0,1	0,585208
2,345833	0,1	0,556212
2,347500	0,1	0,593677
2,349167	0,1	0,553836
2,350833	0,1	0,602598
2,352500	0,1	0,587540
2,354167	0,1	0,597399
2,355833	0,1	0,558050
2,357500	0,1	0,592285
2,359167	0,1	0,592005
2,360833	0,1	0,575046
2,362500	0,1	0,610233
2,364167	0,1	0,578622
2,365833	0,1	0,568951
2,367500	0,1	0,649341
2,369167	0,1	0,567187
2,370833	0,1	0,599627
2,372500	0,1	0,570641
2,374167	0,1	0,587037
2,375833	0,1	0,591703
2,377500	0,1	0,577628
2,379167	0,1	0,593731
2,380833	0,1	0,518605
2,382500	0,1	0,581175
2,384167	0,1	0,583368
2,385833	0,1	0,588679
2,387500	0,1	0,594276
2,389167	0,1	0,568161
2,390833	0,1	0,557007
2,392500	0,1	0,570435
2,394167	0,1	0,583618
2,395833	0,1	0,588628
2,397500	0,1	0,579955
2,399167	0,1	0,537824
2,400833	0,1	0,579149
2,402500	0,1	0,561718
2,404167	0,1	0,590704
2,405833	0,1	0,582189
2,407500	0,1	0,551207
2,409167	0,1	0,585597
2,410833	0,1	0,597797
2,412500	0,1	0,550371
2,414167	0,1	0,583965
2,415833	0,1	0,561569
2,417500	0,1	0,591200
2,419167	0,1	0,554381
2,420833	0,1	0,546993
2,422500	0,1	0,526572
2,424167	0,1	0,562195
2,425833	0,1	0,533365
2,427500	0,1	0,584008
2,429167	0,1	0,587388
2,430833	0,1	0,528807
2,432500	0,1	0,556949
2,434167	0,1	0,560527
2,435833	0,1	0,548679
2,437500	0,1	0,528257
2,439167	0,1	0,554967
2,440833	0,1	0,552592
2,442500	0,1	0,533113
2,444167	0,1	0,543220
2,445833	0,1	0,569636
2,447500	0,1	0,539165
2,449167	0,1	0,530289
2,450833	0,1	0,542722
2,452500	0,1	0,561511
2,454167	0,1	0,542189
2,455833	0,1	0,544560
2,457500	0,1	0,527323
2,459167	0,1	0,564233
2,460833	0,1	0,580101
2,462500	0,1	0,555374
2,464167	0,1	0,583173
2,465833	0,1	0,547049
2,467500	0,1	0,521073
2,469167	0,1	0,517749
2,470833	0,1	0,555905
2,472500	0,1	0,533764
2,474167	0,1	0,533515
2,475833	0,1	0,550804
2,477500	0,1	0,581339
2,479167	0,1	0,579561
2,480833	0,1	0,570688
2,482500	0,1	0,547494
2,484167	0,1	0,542585
2,485833	0,1	0,515627
2,487500	0,1	0,574587
2,489167	0,1	0,594328
2,490833	0,1	0,587146
2,492500	0,1	0,541804
2,494167	0,1	0,546346
2,495833	0,1	0,542136
2,497500	0,1	0,582472
2,499167	0,1	0,558992
2,500833	0,1	0,595563
2,502500	0,1	0,535905
2,504167	0,1	0,547633
2,505833	0,1	0,538223
2,507500	0,1	0,566911
2,509167	0,1	0,536737
2,510833	0,1	0,552343
2,512500	0,1	0,567066
2,514167	0,1	0,548089
2,515833	0,1	0,558935
2,517500	0,1	0,557106
2,519167	0,1	0,557950
2,520833	0,1	0,535252
2,522500	0,1	0,540595
2,524167	0,1	0,563149
2,525833	0,1	0,575299
2,527500	0,1	0,580453
2,529167	0,1	0,554335
2,530833	0,1	0,560478
2,532500	0,1	0,541294
2,534167	0,1	0,566966
2,535833	0,1	0,562609
2,537500	0,1	0,558596
2,539167	0,1	0,554281
2,540833	0,1	0,573112
2,542500	0,1	0,559490
2,544167	0,1	0,582132
2,545833	0,1	0,570836
2,547500	0,1	0,571925
2,549167	0,1	0,560930
2,550833	0,1	0,557356
2,552500	0,1	0,552098
2,554167	0,1	0,563399
2,555833	0,1	0,584463
2,557500	0,1	0,571388
2,559167	0,1	0,517657
2,560833	0,1	0,599767
2,562500	0,1	0,540415
2,564167	0,1	0,584507
2,565833	0,1	0,538631
2,567500	0,1	0,572121
2,569167	0,1	0,557905
2,570833	0,1	0,553338
2,572500	0,1	0,534017
2,574167	0,1	0,558837
2,575833	0,1	0,608847
2,577500	0,1	0,561282
2,579167	0,1	0,524302
2,580833	0,1	0,579447
2,582500	0,1	0,545667
2,584167	0,1	0,588081
2,585833	0,1	0,549733
2,587500	0,1	0,546747
2,589167	0,1	0,538076
2,590833	0,1	0,530246
2,592500	0,1	0,547637
2,594167	0,1	0,565483
2,595833	0,1	0,518209
2,597500	0,1	0,551108
2,599167	0,1	0,531391
2,600833	0,1	0,568798
2,602500	0,1	0,552995
2,604167	0,1	0,540205
2,605833	0,1	0,573011
2,607500	0,1	0,572274
2,609167	0,1	0,552254
2,610833	0,1	0,574748
2,612500	0,1	0,554440
2,614167	0,1	0,553386
2,615833	0,1	0,559779
2,617500	0,1	0,566679
2,619167	0,1	0,597104
2,620833	0,1	0,577833
2,622500	0,1	0,582487
2,624167	0,1	0,599932
2,625833	0,1	0,587891
2,627500	0,1	0,573272
2,629167	0,1	0,548145
2,630833	0,1	0,554034
2,632500	0,1	0,556362
2,634167	0,1	0,590955
2,635833	0,1	0,548842
2,637500	0,1	0,558049
2,639167	0,1	0,539614
2,640833	0,1	0,562651
2,642500	0,1	0,586846
2,644167	0,1	0,544228
2,645833	0,1	0,515432
2,647500	0,1	0,568843
2,649167	0,1	0,554732
2,650833	0,1	0,542538
2,652500	0,1	0,562758
2,654167	0,1	0,551510
2,655833	0,1	0,581043
2,657500	0,1	0,517032
2,659167	0,1	0,546745
2,660833	0,1	0,571631
2,662500	0,1	0,568163
2,664167	0,1	0,571631
2,665833	0,1	0,556913
2,667500	0,1	0,569399
2,669167	0,1	0,558201
2,670833	0,1	0,554779
2,672500	0,1	0,553343
2,674167	0,1	0,557354
2,675833	0,1	0,552406
2,677500	0,1	0,551809
2,679167	0,1	0,560232
2,680833	0,1	0,580254
2,682500	0,1	0,563308
2,684167	0,1	0,549483
2,685833	0,1	0,533274
2,687500	0,1	0,542536
2,689167	0,1	0,538075
2,690833	0,1	0,564440
2,692500	0,1	0,582386
2,694167	0,1	0,502065
2,695833	0,1	0,548323
2,697500	0,1	0,520537
2,699167	0,1	0,515772
2,700833	0,1	0,556701
2,702500	0,1	0,530449
2,704167	0,1	0,540252
2,705833	0,1	0,562556
2,707500	0,1	0,531589
2,709167	0,1	0,555077
2,710833	0,1	0,531939
2,712500	0,1	0,566719
2,714167	0,1	0,512416
2,715833	0,1	0,562648
2,717500	0,1	0,534413
2,719167	0,1	0,543675
2,720833	0,1	0,528465
2,722500	0,1	0,547041
2,724167	0,1	0,540802
2,725833	0,1	0,562309
2,727500	0,1	0,551562
2,729167	0,1	0,526433
2,730833	0,1	0,529359
2,732500	0,1	0,517414
2,734167	0,1	0,534057
2,735833	0,1	0,498233
2,737500	0,1	0,576773
2,739167	0,1	0,566528
2,740833	0,1	0,510636
2,742500	0,1	0,552740
2,744167	0,1	0,521534
2,745833	0,1	0,589908
2,747500	0,1	0,534918
2,749167	0,1	0,529709
2,750833	0,1	0,564190
2,752500	0,1	0,559488
2,754167	0,1	0,564548
2,755833	0,1	0,541900
2,757500	0,1	0,562856
2,759167	0,1	0,563703
2,760833	0,1	0,549235
2,762500	0,1	0,581045
2,764167	0,1	0,544584
2,765833	0,1	0,550372
2,767500	0,1	0,528121
2,769167	0,1	0,576530
2,770833	0,1	0,607518
2,772500	0,1	0,544193
2,774167	0,1	0,581391
2,775833	0,1	0,562077
2,777500	0,1	0,609891
2,779167	0,1	0,563217
2,780833	0,1	0,655237
2,782500	0,1	0,583302
2,784167	0,1	0,584965
2,785833	0,1	0,573372
2,787500	0,1	0,567465
2,789167	0,1	0,611230
2,790833	0,1	0,591813
2,792500	0,1	0,598001
2,794167	0,1	0,573473
2,795833	0,1	0,592248
2,797500	0,1	0,585214
2,799167	0,1	0,600875
2,800833	0,1	0,568570
2,802500	0,1	0,611725
2,804167	0,1	0,605790
2,805833	0,1	0,575554
2,807500	0,1	0,586006
2,809167	0,1	0,608159
2,810833	0,1	0,650395
2,812500	0,1	0,616009
2,814167	0,1	0,619666
2,815833	0,1	0,567631
2,817500	0,1	0,621143
2,819167	0,1	0,597517
2,820833	0,1	0,614507
2,822500	0,1	0,601876
2,824167	0,1	0,597014
2,825833	0,1	0,606333
2,827500	0,1	0,632003
2,829167	0,1	0,642667
2,830833	0,1	0,603216
2,832500	0,1	0,614857
2,834167	0,1	0,623630
2,835833	0,1	0,648661
2,837500	0,1	0,610851
2,839167	0,1	0,604054
2,840833	0,1	0,638249
2,842500	0,1	0,605152
2,844167	0,1	0,576598
2,845833	0,1	0,621539
2,847500	0,1	0,579127
2,849167	0,1	0,590566
2,850833	0,1	0,649994
2,852500	0,1	0,637119
2,854167	0,1	0,615658
2,855833	0,1	0,608615
2,857500	0,1	0,609158
2,859167	0,1	0,632254
2,860833	0,1	0,587609
2,862500	0,1	0,628333
2,864167	0,1	0,635779
2,865833	0,1	0,617540
2,867500	0,1	0,600781
2,869167	0,1	0,586904
2,870833	0,1	0,618522
2,872500	0,1	0,623581
2,874167	0,1	0,593847
2,875833	0,1	0,566831
2,877500	0,1	0,596214
2,879167	0,1	0,619814
2,880833	0,1	0,591717
2,882500	0,1	0,593993
2,884167	0,1	0,611433
2,885833	0,1	0,566292
2,887500	0,1	0,618911
2,889167	0,1	0,612835
2,890833	0,1	0,624675
2,892500	0,1	0,599099
2,894167	0,1	0,583736
2,895833	0,1	0,603650
2,897500	0,1	0,582302
2,899167	0,1	0,588242
2,900833	0,1	0,584028
2,902500	0,1	0,658368
2,904167	0,1	0,569676
2,905833	0,1	0,574860
2,907500	0,1	0,584468
2,909167	0,1	0,583334
2,910833	0,1	0,571194
2,912500	0,1	0,572134
2,914167	0,1	0,574258
2,915833	0,1	0,563410
2,917500	0,1	0,572825
2,919167	0,1	0,577638
2,920833	0,1	0,577289
2,922500	0,1	0,543493
2,924167	0,1	0,579013
2,925833	0,1	0,520945
2,927500	0,1	0,562454
2,929167	0,1	0,579066
2,930833	0,1	0,544529
2,932500	0,1	0,540115
2,934167	0,1	0,523467
2,935833	0,1	0,549927
2,937500	0,1	0,536749
2,939167	0,1	0,572968
2,940833	0,1	0,547012
2,942500	0,1	0,556516
2,944167	0,1	0,554289
2,945833	0,1	0,528874
2,947500	0,1	0,532479
2,949167	0,1	0,549826
2,950833	0,1	0,585069
2,952500	0,1	0,516539
2,954167	0,1	0,546397
2,955833	0,1	0,549778
2,957500	0,1	0,572572
2,959167	0,1	0,548499
2,960833	0,1	0,536993
2,962500	0,1	0,537384
2,964167	0,1	0,563404
2,965833	0,1	0,551864
2,967500	0,1	0,559444
2,969167	0,1	0,583183
2,970833	0,1	0,552415
2,972500	0,1	0,556517
2,974167	0,1	0,537492
2,975833	0,1	0,591503
2,977500	0,1	0,594539
2,979167	0,1	0,585423
2,980833	0,1	0,546077
2,982500	0,1	0,575596
2,984167	0,1	0,519953
2,985833	0,1	0,543177
2,987500	0,1	0,562611
2,989167	0,1	0,538928
2,990833	0,1	0,559194
2,992500	0,1	0,594527
2,994167	0,1	0,569465
2,995833	0,1	0,640919
2,997500	0,1	0,552874
2,999167	0,1	0,652164
3,000833	0,1	0,590387
3,002500	0,1	0,612282
3,004167	0,1	0,593746
3,005833	0,1	0,605886
3,007500	0,1	0,608568
3,009167	0,1	0,580863
3,010833	0,1	0,610096
3,012500	0,1	0,581904
3,014167	0,1	0,567872
3,015833	0,1	0,625953
3,017500	0,1	0,598113
3,019167	0,1	0,635867
3,020833	0,1	0,635728
3,022500	0,1	0,615760
3,024167	0,1	0,600686
3,025833	0,1	0,595234
3,027500	0,1	0,640577
3,029167	0,1	0,675879
3,030833	0,1	0,652641
3,032500	0,1	0,636676
3,034167	0,1	0,647674
3,035833	0,1	0,640935
3,037500	0,1	0,617394
3,039167	0,1	0,666653
3,040833	0,1	0,678213
3,042500	0,1	0,623846
3,044167	0,1	0,667050
3,045833	0,1	0,685847
3,047500	0,1	0,674895
3,049167	0,1	0,676727
3,050833	0,1	0,684906
3,052500	0,1	0,683967
3,054167	0,1	0,695813
3,055833	0,1	0,664241
3,057500	0,1	0,670876
3,059167	0,1	0,673356
3,060833	0,1	0,665178
3,062500	0,1	0,687876
3,064167	0,1	0,683721
3,065833	0,1	0,691698
3,067500	0,1	0,673806
3,069167	0,1	0,731004
3,070833	0,1	0,648045
3,072500	0,1	0,689360
3,074167	0,1	0,694276
3,075833	0,1	0,661912
3,077500	0,1	0,709042
3,079167	0,1	0,661271
3,080833	0,1	0,643565
3,082500	0,1	0,670424
3,084167	0,1	0,654323
3,085833	0,1	0,693128
3,087500	0,1	0,703150
3,089167	0,1	0,634061
3,090833	0,1	0,662295
3,092500	0,1	0,723764
3,094167	0,1	0,644671
3,095833	0,1	0,623391
3,097500	0,1	0,660160
3,099167	0,1	0,665967
3,100833	0,1	0,673404
3,102500	0,1	0,669343
3,104167	0,1	0,682031
3,105833	0,1	0,685255
3,107500	0,1	0,660128
3,109167	0,1	0,654172
3,110833	0,1	0,643415
3,112500	0,1	0,686979
3,114167	0,1	0,657153
3,115833	0,1	0,638758
3,117500	0,1	0,645893
3,119167	0,1	0,663735
3,120833	0,1	0,645948
3,122500	0,1	0,643515
3,124167	0,1	0,654316
3,125833	0,1	0,641236
3,127500	0,1	0,643711
3,129167	0,1	0,644852
3,130833	0,1	0,642719
3,132500	0,1	0,661307
3,134167	0,1	0,628352
3,135833	0,1	0,643659
3,137500	0,1	0,615364
3,139167	0,1	0,626408
3,140833	0,1	0,613874
3,142500	0,1	0,623137
3,144167	0,1	0,631515
3,145833	0,1	0,611396
3,147500	0,1	0,669328
3,149167	0,1	0,634304
3,150833	0,1	0,658679
3,152500	0,1	0,656206
3,154167	0,1	0,657146
3,155833	0,1	0,623644
3,157500	0,1	0,616943
3,159167	0,1	0,574773
3,160833	0,1	0,598099
3,162500	0,1	0,586861
3,164167	0,1	0,544735
3,165833	0,1	0,580651
3,167500	0,1	0,619017
3,169167	0,1	0,621107
3,170833	0,1	0,587116
3,172500	0,1	0,614563
3,174167	0,1	0,604109
3,175833	0,1	0,592905
3,177500	0,1	0,610399
3,179167	0,1	0,593905
3,180833	0,1	0,593750
3,182500	0,1	0,599497
3,184167	0,1	0,589093
3,185833	0,1	0,594982
3,187500	0,1	0,575909
3,189167	0,1	0,588641
3,190833	0,1	0,575908
3,192500	0,1	0,582694
3,194167	0,1	0,560990
3,195833	0,1	0,556723
3,197500	0,1	0,577487
3,199167	0,1	0,589382
3,200833	0,1	0,569809
3,202500	0,1	0,587398
3,204167	0,1	0,584233
3,205833	0,1	0,595232
3,207500	0,1	0,561990
3,209167	0,1	0,544485
3,210833	0,1	0,546712
3,212500	0,1	0,529715
3,214167	0,1	0,583180
3,215833	0,1	0,565450
3,217500	0,1	0,562380
3,219167	0,1	0,583979
3,220833	0,1	0,594490
3,222500	0,1	0,585275
3,224167	0,1	0,591962
3,225833	0,1	0,558565
3,227500	0,1	0,543000
3,229167	0,1	0,570895
3,230833	0,1	0,593350
3,232500	0,1	0,580024
3,234167	0,1	0,600783
3,235833	0,1	0,564615
3,237500	0,1	0,578086
3,239167	0,1	0,571298
3,240833	0,1	0,540427
3,242500	0,1	0,520999
3,244167	0,1	0,532487
3,245833	0,1	0,533030
3,247500	0,1	0,553101
3,249167	0,1	0,602311
3,250833	0,1	0,558125
3,252500	0,1	0,573924
3,254167	0,1	0,510447
3,255833	0,1	0,548581
3,257500	0,1	0,573816
3,259167	0,1	0,545928
3,260833	0,1	0,514263
3,262500	0,1	0,541155
3,264167	0,1	0,583577
3,265833	0,1	0,554258
3,267500	0,1	0,553900
3,269167	0,1	0,559801
3,270833	0,1	0,550531
3,272500	0,1	0,543151
3,274167	0,1	0,554689
3,275833	0,1	0,529723
3,277500	0,1	0,540862
3,279167	0,1	0,518520
3,280833	0,1	0,514055
3,282500	0,1	0,569551
3,284167	0,1	0,548806
3,285833	0,1	0,500739
3,287500	0,1	0,508849
3,289167	0,1	0,537191
3,290833	0,1	0,554394
3,292500	0,1	0,519174
3,294167	0,1	0,511430
3,295833	0,1	0,514102
3,297500	0,1	0,498207
3,299167	0,1	0,533574
3,300833	0,1	0,541761
3,302500	0,1	0,539629
3,304167	0,1	0,535419
3,305833	0,1	0,512718
3,307500	0,1	0,525009
3,309167	0,1	0,517976
3,310833	0,1	0,532242
3,312500	0,1	0,522291
3,314167	0,1	0,531895
3,315833	0,1	0,550186
3,317500	0,1	0,525165
3,319167	0,1	0,547852
3,320833	0,1	0,523772
3,322500	0,1	0,541011
3,324167	0,1	0,514955
3,325833	0,1	0,532986
3,327500	0,1	0,528629
3,329167	0,1	0,530215
3,330833	0,1	0,517776
3,332500	0,1	0,526195
3,334167	0,1	0,499195
3,335833	0,1	0,543831
3,337500	0,1	0,516195
3,339167	0,1	0,506138
3,340833	0,1	0,519107
3,342500	0,1	0,506630
3,344167	0,1	0,550424
3,345833	0,1	0,518470
3,347500	0,1	0,531452
3,349167	0,1	0,517772
3,350833	0,1	0,505292
3,352500	0,1	0,500927
3,354167	0,1	0,596163
3,355833	0,1	0,518339
3,357500	0,1	0,528231
3,359167	0,1	0,509549
3,360833	0,1	0,525009
3,362500	0,1	0,562223
3,364167	0,1	0,551674
3,365833	0,1	0,541222
3,367500	0,1	0,532394
3,369167	0,1	0,574165
3,370833	0,1	0,536959
3,372500	0,1	0,546270
3,374167	0,1	0,528183
3,375833	0,1	0,536558
3,377500	0,1	0,541020
3,379167	0,1	0,514213
3,380833	0,1	0,510541
3,382500	0,1	0,538880
3,384167	0,1	0,549989
3,385833	0,1	0,535870
3,387500	0,1	0,531407
3,389167	0,1	0,517382
3,390833	0,1	0,525258
3,392500	0,1	0,560636
3,394167	0,1	0,560645
3,395833	0,1	0,522142
3,397500	0,1	0,565892
3,399167	0,1	0,563619
3,400833	0,1	0,542855
3,402500	0,1	0,531360
3,404167	0,1	0,551128
3,405833	0,1	0,561137
3,407500	0,1	0,529676
3,409167	0,1	0,588683
3,410833	0,1	0,528447
3,412500	0,1	0,548103
3,414167	0,1	0,585021
3,415833	0,1	0,542811
3,417500	0,1	0,549892
3,419167	0,1	0,557721
3,420833	0,1	0,569760
3,422500	0,1	0,512682
3,424167	0,1	0,590815
3,425833	0,1	0,554012
3,427500	0,1	0,534729
3,429167	0,1	0,545629
3,430833	0,1	0,577886
3,432500	0,1	0,562734
3,434167	0,1	0,553658
3,435833	0,1	0,550533
3,437500	0,1	0,585621
3,439167	0,1	0,596576
3,440833	0,1	0,582559
3,442500	0,1	0,525469
3,444167	0,1	0,543743
3,445833	0,1	0,542655
3,447500	0,1	0,572536
3,449167	0,1	0,584187
3,450833	0,1	0,591717
3,452500	0,1	0,581909
3,454167	0,1	0,548613
3,455833	0,1	0,574568
3,457500	0,1	0,540629
3,459167	0,1	0,557865
3,460833	0,1	0,581355
3,462500	0,1	0,549404
3,464167	0,1	0,604547
3,465833	0,1	0,570518
3,467500	0,1	0,539291
3,469167	0,1	0,535370
3,470833	0,1	0,597660
3,472500	0,1	0,591080
3,474167	0,1	0,533548
3,475833	0,1	0,546370
3,477500	0,1	0,567286
3,479167	0,1	0,559853
3,480833	0,1	0,552271
3,482500	0,1	0,546967
3,484167	0,1	0,570801
3,485833	0,1	0,595830
3,487500	0,1	0,553568
3,489167	0,1	0,549201
3,490833	0,1	0,603260
3,492500	0,1	0,531970
3,494167	0,1	0,593489
3,495833	0,1	0,556394
3,497500	0,1	0,570705
3,499167	0,1	0,527603
3,500833	0,1	0,574465
3,502500	0,1	0,610602
3,504167	0,1	0,578298
3,505833	0,1	0,551531
3,507500	0,1	0,601077
3,509167	0,1	0,525031
3,510833	0,1	0,585267
3,512500	0,1	0,536669
3,514167	0,1	0,542161
3,515833	0,1	0,612526
3,517500	0,1	0,575227
3,519167	0,1	0,571851
3,520833	0,1	0,527405
3,522500	0,1	0,574169
3,524167	0,1	0,580026
3,525833	0,1	0,547871
3,527500	0,1	0,558666
3,529167	0,1	0,588347
3,530833	0,1	0,566055
3,532500	0,1	0,556934
3,534167	0,1	0,531763
3,535833	0,1	0,563962
3,537500	0,1	0,547223
3,539167	0,1	0,549194
3,540833	0,1	0,596124
3,542500	0,1	0,599656
3,544167	0,1	0,599205
3,545833	0,1	0,608720
3,547500	0,1	0,540246
3,549167	0,1	0,593594
3,550833	0,1	0,540686
3,552500	0,1	0,571644
3,554167	0,1	0,564219
3,555833	0,1	0,590626
3,557500	0,1	0,514626
3,559167	0,1	0,559253
3,560833	0,1	0,581012
3,562500	0,1	0,582557
3,564167	0,1	0,577900
3,565833	0,1	0,566495
3,567500	0,1	0,610698
3,569167	0,1	0,554020
3,570833	0,1	0,568525
3,572500	0,1	0,566199
3,574167	0,1	0,577198
3,575833	0,1	0,560703
3,577500	0,1	0,573834
3,579167	0,1	0,600541
3,580833	0,1	0,581020
3,582500	0,1	0,574380
3,584167	0,1	0,593406
3,585833	0,1	0,575573
3,587500	0,1	0,561640
3,589167	0,1	0,582154
3,590833	0,1	0,503776
3,592500	0,1	0,581447
3,594167	0,1	0,588698
3,595833	0,1	0,559469
3,597500	0,1	0,556340
3,599167	0,1	0,579623
3,600833	0,1	0,590487
3,602500	0,1	0,567645
3,604167	0,1	0,581019
3,605833	0,1	0,584882
3,607500	0,1	0,608224
3,609167	0,1	0,550601
3,610833	0,1	0,594439
3,612500	0,1	0,573641
3,614167	0,1	0,527308
3,615833	0,1	0,588241
3,617500	0,1	0,615656
3,619167	0,1	0,553231
3,620833	0,1	0,581017
3,622500	0,1	0,607679
3,624167	0,1	0,583306
3,625833	0,1	0,581270
3,627500	0,1	0,610157
3,629167	0,1	0,568538
3,630833	0,1	0,575119
3,632500	0,1	0,572199
3,634167	0,1	0,586812
3,635833	0,1	0,564179
3,637500	0,1	0,577792
3,639167	0,1	0,571452
3,640833	0,1	0,591468
3,642500	0,1	0,581069
3,644167	0,1	0,558326
3,645833	0,1	0,606980
3,647500	0,1	0,575973
3,649167	0,1	0,552680
3,650833	0,1	0,580121
3,652500	0,1	0,576809
3,654167	0,1	0,604308
3,655833	0,1	0,598272
3,657500	0,1	0,638603
3,659167	0,1	0,575087
3,660833	0,1	0,600792
3,662500	0,1	0,598271
3,664167	0,1	0,570076
3,665833	0,1	0,570317
3,667500	0,1	0,546385
3,669167	0,1	0,599595
3,670833	0,1	0,617198
3,672500	0,1	0,620571
3,674167	0,1	0,594362
3,675833	0,1	0,620216
3,677500	0,1	0,582021
3,679167	0,1	0,636023
3,680833	0,1	0,625035
3,682500	0,1	0,620818
3,684167	0,1	0,599362
3,685833	0,1	0,588903
3,687500	0,1	0,605251
3,689167	0,1	0,642076
3,690833	0,1	0,640102
3,692500	0,1	0,593618
3,694167	0,1	0,612637
3,695833	0,1	0,618785
3,697500	0,1	0,654020
3,699167	0,1	0,676478
3,700833	0,1	0,657403
3,702500	0,1	0,633365
3,704167	0,1	0,641188
3,705833	0,1	0,656254
3,707500	0,1	0,679601
3,709167	0,1	0,708104
3,710833	0,1	0,683578
3,712500	0,1	0,651952
3,714167	0,1	0,736942
3,715833	0,1	0,728538
3,717500	0,1	0,742711
3,719167	0,1	0,734139
3,720833	0,1	0,724424
3,722500	0,1	0,802390
3,724167	0,1	0,763599
3,725833	0,1	0,791794
3,727500	0,1	0,801812
3,729167	0,1	0,874993
3,730833	0,1	0,843378
3,732500	0,1	0,861811
3,734167	0,1	0,880910
3,735833	0,1	0,874915
3,737500	0,1	0,886466
3,739167	0,1	0,917355
3,740833	0,1	0,972062
3,742500	0,1	0,959232
3,744167	0,1	0,974950
3,745833	0,1	1,045858
3,747500	0,1	1,001710
3,749167	0,1	1,070734
3,750833	0,1	1,125402
3,752500	0,1	1,119855
3,754167	0,1	1,182531
3,755833	0,1	1,183048
3,757500	0,1	1,233207
3,759167	0,1	1,258170
3,760833	0,1	1,278141
3,762500	0,1	1,321705
3,764167	0,1	1,360482
3,765833	0,1	1,412274
3,767500	0,1	1,443317
3,769167	0,1	1,458116
3,770833	0,1	1,516719
3,772500	0,1	1,587478
3,774167	0,1	1,643883
3,775833	0,1	1,667116
3,777500	0,1	1,721528
3,779167	0,1	1,793580
3,780833	0,1	1,813864
3,782500	0,1	1,903904
3,784167	0,1	1,943929
3,785833	0,1	2,011566
3,787500	0,1	2,047570
3,789167	0,1	2,171771
3,790833	0,1	2,211871
3,792500	0,1	2,264001
3,794167	0,1	2,374324
3,795833	0,1	2,424498
3,797500	0,1	2,490905
3,799167	0,1	2,542391
3,800833	0,1	2,659530
3,802500	0,1	2,700801
3,804167	0,1	2,827282
3,805833	0,1	2,867341
3,807500	0,1	2,948821
3,809167	0,1	3,013547
3,810833	0,1	3,142821
3,812500	0,1	3,203179
3,814167	0,1	3,289864
3,815833	0,1	3,372915
3,817500	0,1	3,454205
3,819167	0,1	3,576980
3,820833	0,1	3,592612
3,822500	0,1	3,714587
3,824167	0,1	3,806435
3,825833	0,1	3,850903
3,827500	0,1	3,916366
3,829167	0,1	4,039859
3,830833	0,1	4,126539
3,832500	0,1	4,203617
3,834167	0,1	4,284990
3,835833	0,1	4,328639
3,837500	0,1	4,445544
3,839167	0,1	4,530764
3,840833	0,1	4,588769
3,842500	0,1	4,673343
3,844167	0,1	4,718836
3,845833	0,1	4,758785
3,847500	0,1	4,877665
3,849167	0,1	4,928059
3,850833	0,1	4,979711
3,852500	0,1	5,050000
3,854167	0,1	5,119170
3,855833	0,1	5,169488
3,857500	0,1	5,234693
3,859167	0,1	5,311319
3,860833	0,1	5,336152
3,862500	0,1	5,399617
3,864167	0,1	5,416277
3,865833	0,1	5,477296
3,867500	0,1	5,546660
3,869167	0,1	5,618847
3,870833	0,1	5,611625
3,872500	0,1	5,630372
3,874167	0,1	5,676428
3,875833	0,1	5,743282
3,877500	0,1	5,761838
3,879167	0,1	5,794001
3,880833	0,1	5,812261
3,882500	0,1	5,841456
3,884167	0,1	5,846173
3,885833	0,1	5,855374
3,887500	0,1	5,867548
3,889167	0,1	5,885153
3,890833	0,1	5,923194
3,892500	0,1	5,912482
3,894167	0,1	5,912184
3,895833	0,1	5,939648
3,897500	0,1	5,906832
3,899167	0,1	5,890887
3,900833	0,1	5,903488
3,902500	0,1	5,912983
3,904167	0,1	5,898638
3,905833	0,1	5,890379
3,907500	0,1	5,928043
3,909167	0,1	5,877416
3,910833	0,1	5,875232
3,912500	0,1	5,829158
3,914167	0,1	5,832189
3,915833	0,1	5,805388
3,917500	0,1	5,773223
3,919167	0,1	5,786181
3,920833	0,1	5,737223
3,922500	0,1	5,751407
3,924167	0,1	5,666467
3,925833	0,1	5,697945
3,927500	0,1	5,632711
3,929167	0,1	5,619228
3,930833	0,1	5,555737
3,932500	0,1	5,559709
3,934167	0,1	5,466257
3,935833	0,1	5,469704
3,937500	0,1	5,434319
3,939167	0,1	5,400433
3,940833	0,1	5,372800
3,942500	0,1	5,344570
3,944167	0,1	5,268962
3,945833	0,1	5,216408
3,947500	0,1	5,227334
3,949167	0,1	5,135168
3,950833	0,1	5,117888
3,952500	0,1	5,095174
3,954167	0,1	5,037986
3,955833	0,1	4,995746
3,957500	0,1	4,911927
3,959167	0,1	4,898160
3,960833	0,1	4,838087
3,962500	0,1	4,808348
3,964167	0,1	4,765689
3,965833	0,1	4,717442
3,967500	0,1	4,662366
3,969167	0,1	4,608326
3,970833	0,1	4,555076
3,972500	0,1	4,551480
3,974167	0,1	4,512457
3,975833	0,1	4,429914
3,977500	0,1	4,379050
3,979167	0,1	4,366073
3,980833	0,1	4,312897
3,982500	0,1	4,269517
3,984167	0,1	4,187054
3,985833	0,1	4,122872
3,987500	0,1	4,064323
3,989167	0,1	4,028049
3,990833	0,1	4,029081
3,992500	0,1	3,954293
3,994167	0,1	3,930780
3,995833	0,1	3,885990
3,997500	0,1	3,820879
3,999167	0,1	3,757125
4,000833	0,1	3,730486
4,002500	0,1	3,709951
4,004167	0,1	3,661252
4,005833	0,1	3,626339
4,007500	0,1	3,613129
4,009167	0,1	3,530575
4,010833	0,1	3,513944
4,012500	0,1	3,422271
4,014167	0,1	3,404450
4,015833	0,1	3,382946
4,017500	0,1	3,352815
4,019167	0,1	3,300721
4,020833	0,1	3,250818
4,022500	0,1	3,236659
4,024167	0,1	3,201197
4,025833	0,1	3,214484
4,027500	0,1	3,160068
4,029167	0,1	3,144851
4,030833	0,1	3,095852
4,032500	0,1	3,059344
4,034167	0,1	3,029699
4,035833	0,1	3,030695
4,037500	0,1	2,985471
4,039167	0,1	2,978103
4,040833	0,1	2,947897
4,042500	0,1	2,912101
4,044167	0,1	2,922802
4,045833	0,1	2,893900
4,047500	0,1	2,850223
4,049167	0,1	2,895944
4,050833	0,1	2,827091
4,052500	0,1	2,796530
4,054167	0,1	2,825066
4,055833	0,1	2,761277
4,057500	0,1	2,738547
4,059167	0,1	2,750606
4,060833	0,1	2,742076
4,062500	0,1	2,734307
4,064167	0,1	2,743308
4,065833	0,1	2,711832
4,067500	0,1	2,765372
4,069167	0,1	2,708246
4,070833	0,1	2,685342
4,072500	0,1	2,692222
4,074167	0,1	2,723643
4,075833	0,1	2,678344
4,077500	0,1	2,711107
4,079167	0,1	2,707938
4,080833	0,1	2,671989
4,082500	0,1	2,696807
4,084167	0,1	2,712523
4,085833	0,1	2,704171
4,087500	0,1	2,700875
4,089167	0,1	2,751363
4,090833	0,1	2,742550
4,092500	0,1	2,765141
4,094167	0,1	2,739312
4,095833	0,1	2,816518
4,097500	0,1	2,829426
4,099167	0,1	2,829429
4,100833	0,1	2,823897
4,102500	0,1	2,839493
4,104167	0,1	2,830255
4,105833	0,1	2,867508
4,107500	0,1	2,877762
4,109167	0,1	2,860635
4,110833	0,1	2,873406
4,112500	0,1	2,934980
4,114167	0,1	2,922929
4,115833	0,1	2,970495
4,117500	0,1	2,988521
4,119167	0,1	3,018079
4,120833	0,1	3,014908
4,122500	0,1	3,031279
4,124167	0,1	3,080972
4,125833	0,1	3,089700
4,127500	0,1	3,126513
4,129167	0,1	3,164229
4,130833	0,1	3,120950
4,132500	0,1	3,175759
4,134167	0,1	3,145623
4,135833	0,1	3,214297
4,137500	0,1	3,258026
4,139167	0,1	3,290451
4,140833	0,1	3,285128
4,142500	0,1	3,334984
4,144167	0,1	3,329455
4,145833	0,1	3,326238
4,147500	0,1	3,333245
4,149167	0,1	3,394692
4,150833	0,1	3,435130
4,152500	0,1	3,444171
4,154167	0,1	3,482132
4,155833	0,1	3,437775
4,157500	0,1	3,528107
4,159167	0,1	3,489561
4,160833	0,1	3,553311
4,162500	0,1	3,628930
4,164167	0,1	3,540349
4,165833	0,1	3,648889
4,167500	0,1	3,660672
4,169167	0,1	3,628745
4,170833	0,1	3,691051
4,172500	0,1	3,666103
4,174167	0,1	3,683150
4,175833	0,1	3,678696
4,177500	0,1	3,699914
4,179167	0,1	3,736311
4,180833	0,1	3,772795
4,182500	0,1	3,823375
4,184167	0,1	3,822635
4,185833	0,1	3,832051
4,187500	0,1	3,818516
4,189167	0,1	3,851059
4,190833	0,1	3,848243
4,192500	0,1	3,917857
4,194167	0,1	3,902507
4,195833	0,1	3,890538
4,197500	0,1	3,899393
4,199167	0,1	3,964720
4,200833	0,1	3,959452
4,202500	0,1	3,951167
4,204167	0,1	3,960811
4,205833	0,1	3,998526
4,207500	0,1	4,006616
4,209167	0,1	3,992502
4,210833	0,1	4,005380
4,212500	0,1	4,001911
4,214167	0,1	4,052971
4,215833	0,1	4,060121
4,217500	0,1	4,049641
4,219167	0,1	4,007991
4,220833	0,1	4,047028
4,222500	0,1	4,076028
4,224167	0,1	4,053182
4,225833	0,1	4,081517
4,227500	0,1	4,005046
4,229167	0,1	4,066895
4,230833	0,1	4,049966
4,232500	0,1	4,074533
4,234167	0,1	4,106291
4,235833	0,1	4,057572
4,237500	0,1	4,063274
4,239167	0,1	4,065998
4,240833	0,1	4,064148
4,242500	0,1	4,077036
4,244167	0,1	4,036726
4,245833	0,1	4,056544
4,247500	0,1	4,033181
4,249167	0,1	4,030901
4,250833	0,1	4,023244
4,252500	0,1	4,055605
4,254167	0,1	3,998968
4,255833	0,1	4,028495
4,257500	0,1	4,009927
4,259167	0,1	4,015771
4,260833	0,1	4,024184
4,262500	0,1	3,972769
4,264167	0,1	3,970908
4,265833	0,1	3,977236
4,267500	0,1	3,971686
4,269167	0,1	3,931599
4,270833	0,1	3,939460
4,272500	0,1	3,903207
4,274167	0,1	3,934543
4,275833	0,1	3,908590
4,277500	0,1	3,890933
4,279167	0,1	3,883563
4,280833	0,1	3,862883
4,282500	0,1	3,863248
4,284167	0,1	3,816107
4,285833	0,1	3,872067
4,287500	0,1	3,821300
4,289167	0,1	3,769327
4,290833	0,1	3,799468
4,292500	0,1	3,776054
4,294167	0,1	3,719084
4,295833	0,1	3,767221
4,297500	0,1	3,724019
4,299167	0,1	3,681093
4,300833	0,1	3,702552
4,302500	0,1	3,688431
4,304167	0,1	3,660159
4,305833	0,1	3,616427
4,307500	0,1	3,618339
4,309167	0,1	3,615221
4,310833	0,1	3,602752
4,312500	0,1	3,570199
4,314167	0,1	3,581278
4,315833	0,1	3,517226
4,317500	0,1	3,533278
4,319167	0,1	3,539704
4,320833	0,1	3,501744
4,322500	0,1	3,465890
4,324167	0,1	3,473013
4,325833	0,1	3,434610
4,327500	0,1	3,415383
4,329167	0,1	3,386610
4,330833	0,1	3,408117
4,332500	0,1	3,352453
4,334167	0,1	3,342875
4,335833	0,1	3,345109
4,337500	0,1	3,334214
4,339167	0,1	3,271420
4,340833	0,1	3,249067
4,342500	0,1	3,273626
4,344167	0,1	3,245128
4,345833	0,1	3,214717
4,347500	0,1	3,194321
4,349167	0,1	3,184544
4,350833	0,1	3,187611
4,352500	0,1	3,120931
4,354167	0,1	3,167026
4,355833	0,1	3,114216
4,357500	0,1	3,093119
4,359167	0,1	3,068439
4,360833	0,1	3,066017
4,362500	0,1	3,036526
4,364167	0,1	2,982404
4,365833	0,1	3,005294
4,367500	0,1	2,955374
4,369167	0,1	2,985679
4,370833	0,1	2,904335
4,372500	0,1	2,934452
4,374167	0,1	2,932688
4,375833	0,1	2,821567
4,377500	0,1	2,891577
4,379167	0,1	2,831620
4,380833	0,1	2,811888
4,382500	0,1	2,818418
4,384167	0,1	2,801942
4,385833	0,1	2,773162
4,387500	0,1	2,722904
4,389167	0,1	2,741073
4,390833	0,1	2,711423
4,392500	0,1	2,691649
4,394167	0,1	2,691995
4,395833	0,1	2,662289
4,397500	0,1	2,651691
4,399167	0,1	2,636570
4,400833	0,1	2,608859
4,402500	0,1	2,561141
4,404167	0,1	2,574369
4,405833	0,1	2,541389
4,407500	0,1	2,518779
4,409167	0,1	2,503664
4,410833	0,1	2,540251
4,412500	0,1	2,466976
4,414167	0,1	2,474892
4,415833	0,1	2,457496
4,417500	0,1	2,451677
4,419167	0,1	2,433909
4,420833	0,1	2,398458
4,422500	0,1	2,392618
4,424167	0,1	2,385514
4,425833	0,1	2,362525
4,427500	0,1	2,364041
4,429167	0,1	2,300727
4,430833	0,1	2,313180
4,432500	0,1	2,309474
4,434167	0,1	2,300420
4,435833	0,1	2,258869
4,437500	0,1	2,265787
4,439167	0,1	2,228869
4,440833	0,1	2,216027
4,442500	0,1	2,216124
4,444167	0,1	2,167332
4,445833	0,1	2,186614
4,447500	0,1	2,144223
4,449167	0,1	2,171925
4,450833	0,1	2,114855
4,452500	0,1	2,104459
4,454167	0,1	2,116313
4,455833	0,1	2,068900
4,457500	0,1	2,093702
4,459167	0,1	2,050503
4,460833	0,1	2,037330
4,462500	0,1	1,993923
4,464167	0,1	2,056203
4,465833	0,1	2,009379
4,467500	0,1	1,967630
4,469167	0,1	1,984028
4,470833	0,1	1,972792
4,472500	0,1	1,955086
4,474167	0,1	1,970015
4,475833	0,1	1,909772
4,477500	0,1	1,929839
4,479167	0,1	1,933370
4,480833	0,1	1,939831
4,482500	0,1	1,869804
4,484167	0,1	1,865079
4,485833	0,1	1,841048
4,487500	0,1	1,866681
4,489167	0,1	1,817280
4,490833	0,1	1,821144
4,492500	0,1	1,794689
4,494167	0,1	1,800743
4,495833	0,1	1,792933
4,497500	0,1	1,752923
4,499167	0,1	1,771315
4,500833	0,1	1,737848
4,502500	0,1	1,752341
4,504167	0,1	1,722157
4,505833	0,1	1,698826
4,507500	0,1	1,721928
4,509167	0,1	1,719888
4,510833	0,1	1,666997
4,512500	0,1	1,668007
4,514167	0,1	1,650790
4,515833	0,1	1,630342
4,517500	0,1	1,644085
4,519167	0,1	1,615169
4,520833	0,1	1,602521
4,522500	0,1	1,615402
4,524167	0,1	1,569867
4,525833	0,1	1,570313
4,527500	0,1	1,608159
4,529167	0,1	1,565080
4,530833	0,1	1,570985
4,532500	0,1	1,553233
4,534167	0,1	1,536697
4,535833	0,1	1,533572
4,537500	0,1	1,510252
4,539167	0,1	1,485109
4,540833	0,1	1,481231
4,542500	0,1	1,496126
4,544167	0,1	1,465501
4,545833	0,1	1,484526
4,547500	0,1	1,469201
4,549167	0,1	1,466520
4,550833	0,1	1,448334
4,552500	0,1	1,446130
4,554167	0,1	1,427819
4,555833	0,1	1,448166
4,557500	0,1	1,392731
4,559167	0,1	1,411885
4,560833	0,1	1,439879
4,562500	0,1	1,418784
4,564167	0,1	1,380570
4,565833	0,1	1,329349
4,567500	0,1	1,388918
4,569167	0,1	1,367276
4,570833	0,1	1,336547
4,572500	0,1	1,313698
4,574167	0,1	1,323091
4,575833	0,1	1,371409
4,577500	0,1	1,364706
4,579167	0,1	1,304812
4,580833	0,1	1,333097
4,582500	0,1	1,306740
4,584167	0,1	1,302706
4,585833	0,1	1,312102
4,587500	0,1	1,272162
4,589167	0,1	1,298828
4,590833	0,1	1,317751
4,592500	0,1	1,274483
4,594167	0,1	1,302019
4,595833	0,1	1,272894
4,597500	0,1	1,278380
4,599167	0,1	1,287707
4,600833	0,1	1,231030
4,602500	0,1	1,259227
4,604167	0,1	1,223231
4,605833	0,1	1,195541
4,607500	0,1	1,238964
4,609167	0,1	1,258043
4,610833	0,1	1,195936
4,612500	0,1	1,217745
4,614167	0,1	1,216914
4,615833	0,1	1,235670
4,617500	0,1	1,238031
4,619167	0,1	1,207786
4,620833	0,1	1,148407
4,622500	0,1	1,173248
4,624167	0,1	1,189904
4,625833	0,1	1,134346
4,627500	0,1	1,183935
4,629167	0,1	1,185082
4,630833	0,1	1,166756
4,632500	0,1	1,192868
4,634167	0,1	1,178094
4,635833	0,1	1,166780
4,637500	0,1	1,156666
4,639167	0,1	1,140388
4,640833	0,1	1,160426
4,642500	0,1	1,114504
4,644167	0,1	1,123263
4,645833	0,1	1,101560
4,647500	0,1	1,115535
4,649167	0,1	1,154705
4,650833	0,1	1,091046
4,652500	0,1	1,109973
4,654167	0,1	1,086470
4,655833	0,1	1,128867
4,657500	0,1	1,101834
4,659167	0,1	1,085731
4,660833	0,1	1,090189
4,662500	0,1	1,067717
4,664167	0,1	1,099715
4,665833	0,1	1,065978
4,667500	0,1	1,089825
4,669167	0,1	1,053348
4,670833	0,1	1,054157
4,672500	0,1	1,050300
4,674167	0,1	1,105594
4,675833	0,1	1,077831
4,677500	0,1	1,080220
4,679167	0,1	1,047481
4,680833	0,1	1,051392
4,682500	0,1	1,025995
4,684167	0,1	1,052472
4,685833	0,1	1,028574
4,687500	0,1	0,992732
4,689167	0,1	1,044032
4,690833	0,1	1,044393
4,692500	0,1	1,036053
4,694167	0,1	1,029011
4,695833	0,1	1,015583
4,697500	0,1	1,025630
4,699167	0,1	1,033582
4,700833	0,1	1,025593
4,702500	0,1	1,026032
4,704167	0,1	1,028425
4,705833	0,1	1,035660
4,707500	0,1	1,016620
4,709167	0,1	1,066449
4,710833	0,1	1,007110
4,712500	0,1	1,001345
4,714167	0,1	0,994294
4,715833	0,1	0,983191
4,717500	0,1	0,976647
4,719167	0,1	0,986968
4,720833	0,1	1,003562
4,722500	0,1	0,938326
4,724167	0,1	0,995272
4,725833	0,1	0,973614
4,727500	0,1	1,009656
4,729167	0,1	0,983287
4,730833	0,1	0,957700
4,732500	0,1	0,975005
4,734167	0,1	0,963696
4,735833	0,1	0,991767
4,737500	0,1	0,963706
4,739167	0,1	0,972225
4,740833	0,1	0,988834
4,742500	0,1	0,960874
4,744167	0,1	0,964236
4,745833	0,1	0,976433
4,747500	0,1	0,968006
4,749167	0,1	0,975237
4,750833	0,1	0,958430
4,752500	0,1	0,924923
4,754167	0,1	0,964233
4,755833	0,1	0,981742
4,757500	0,1	0,970245
4,759167	0,1	0,975405
4,760833	0,1	0,964239
4,762500	0,1	0,909654
4,764167	0,1	0,938245
4,765833	0,1	0,958826
4,767500	0,1	0,918031
4,769167	0,1	0,935019
4,770833	0,1	0,943364
4,772500	0,1	0,921743
4,774167	0,1	0,901708
4,775833	0,1	0,916387
4,777500	0,1	0,944641
4,779167	0,1	0,932351
4,780833	0,1	0,894334
4,782500	0,1	0,939184
4,784167	0,1	0,942265
4,785833	0,1	0,943004
4,787500	0,1	0,906078
4,789167	0,1	0,930808
4,790833	0,1	0,897354
4,792500	0,1	0,927234
4,794167	0,1	0,913260
4,795833	0,1	0,897048
4,797500	0,1	0,930861
4,799167	0,1	0,923628
4,800833	0,1	0,921541
4,802500	0,1	0,915930
4,804167	0,1	0,932049
4,805833	0,1	0,917777
4,807500	0,1	0,891194
4,809167	0,1	0,872452
4,810833	0,1	0,887522
4,812500	0,1	0,897193
4,814167	0,1	0,913548
4,815833	0,1	0,925059
4,817500	0,1	0,870826
4,819167	0,1	0,890780
4,820833	0,1	0,902944
4,822500	0,1	0,934616
4,824167	0,1	0,916590
4,825833	0,1	0,953955
4,827500	0,1	0,918516
4,829167	0,1	0,901416
4,830833	0,1	0,919691
4,832500	0,1	0,884553
4,834167	0,1	0,875824
4,835833	0,1	0,886778
4,837500	0,1	0,880678
4,839167	0,1	0,960690
4,840833	0,1	0,843671
4,842500	0,1	0,895792
4,844167	0,1	0,910679
4,845833	0,1	0,899070
4,847500	0,1	0,894311
4,849167	0,1	0,893032
4,850833	0,1	0,886133
4,852500	0,1	0,924649
4,854167	0,1	0,923222
4,855833	0,1	0,876921
4,857500	0,1	0,880233
4,859167	0,1	0,874681
4,860833	0,1	0,892181
4,862500	0,1	0,860013
4,864167	0,1	0,895843
4,865833	0,1	0,880781
4,867500	0,1	0,889548
4,869167	0,1	0,920883
4,870833	0,1	0,889665
4,872500	0,1	0,886378
4,874167	0,1	0,904821
4,875833	0,1	0,852384
4,877500	0,1	0,855437
4,879167	0,1	0,906006
4,880833	0,1	0,882566
4,882500	0,1	0,871111
4,884167	0,1	0,848303
4,885833	0,1	0,857124
4,887500	0,1	0,871005
4,889167	0,1	0,846969
4,890833	0,1	0,871898
4,892500	0,1	0,820256
4,894167	0,1	0,870650
4,895833	0,1	0,861489
4,897500	0,1	0,874375
4,899167	0,1	0,890885
4,900833	0,1	0,861394
4,902500	0,1	0,887066
4,904167	0,1	0,861990
4,905833	0,1	0,885475
4,907500	0,1	0,869773
4,909167	0,1	0,828583
4,910833	0,1	0,890975
4,912500	0,1	0,855848
4,914167	0,1	0,824458
4,915833	0,1	0,896623
4,917500	0,1	0,873391
4,919167	0,1	0,887170
4,920833	0,1	0,853864
4,922500	0,1	0,850731
4,924167	0,1	0,890386
4,925833	0,1	0,864816
4,927500	0,1	0,849345
4,929167	0,1	0,837248
4,930833	0,1	0,854145
4,932500	0,1	0,856431
4,934167	0,1	0,829317
4,935833	0,1	0,858308
4,937500	0,1	0,862970
4,939167	0,1	0,813016
4,940833	0,1	0,847006
4,942500	0,1	0,843243
4,944167	0,1	0,818761
4,945833	0,1	0,823905
4,947500	0,1	0,824649
4,949167	0,1	0,859294
4,950833	0,1	0,818015
4,952500	0,1	0,868071
4,954167	0,1	0,829914
4,955833	0,1	0,847010
4,957500	0,1	0,812268
4,959167	0,1	0,824247
4,960833	0,1	0,835054
4,962500	0,1	0,828863
4,964167	0,1	0,850968
4,965833	0,1	0,840072
4,967500	0,1	0,846711
4,969167	0,1	0,823365
4,970833	0,1	0,836249
4,972500	0,1	0,859548
4,974167	0,1	0,868226
4,975833	0,1	0,871400
4,977500	0,1	0,797304
4,979167	0,1	0,827320
4,980833	0,1	0,840510
4,982500	0,1	0,838635
4,984167	0,1	0,865794
4,985833	0,1	0,829365
4,987500	0,1	0,825790
4,989167	0,1	0,806460
4,990833	0,1	0,815130
4,992500	0,1	0,788220
4,994167	0,1	0,843226
4,995833	0,1	0,832629
4,997500	0,1	0,834068
4,999167	0,1	0,816819
5,000833	0,1	0,832429
5,002500	0,1	0,828567
5,004167	0,1	0,839916
5,005833	0,1	0,817417
5,007500	0,1	0,838030
5,009167	0,1	0,822669
5,010833	0,1	0,853946
5,012500	0,1	0,824458
5,014167	0,1	0,820783
5,015833	0,1	0,831530
5,017500	0,1	0,795358
5,019167	0,1	0,835445
5,020833	0,1	0,834116
5,022500	0,1	0,841898
5,024167	0,1	0,836346
5,025833	0,1	0,827081
5,027500	0,1	0,872780
5,029167	0,1	0,831848
5,030833	0,1	0,827028
5,032500	0,1	0,862215
5,034167	0,1	0,835361
5,035833	0,1	0,817714
5,037500	0,1	0,821471
5,039167	0,1	0,824398
5,040833	0,1	0,828364
5,042500	0,1	0,828167
5,044167	0,1	0,832133
5,045833	0,1	0,848537
5,047500	0,1	0,814491
5,049167	0,1	0,835994
5,050833	0,1	0,815781
5,052500	0,1	0,814782
5,054167	0,1	0,818203
5,055833	0,1	0,791592
5,057500	0,1	0,842133
5,059167	0,1	0,820193
5,060833	0,1	0,838324
5,062500	0,1	0,809828
5,064167	0,1	0,818002
5,065833	0,1	0,793470
5,067500	0,1	0,809722
5,069167	0,1	0,790498
5,070833	0,1	0,823646
5,072500	0,1	0,792533
5,074167	0,1	0,795597
5,075833	0,1	0,796388
5,077500	0,1	0,769927
5,079167	0,1	0,808329
5,080833	0,1	0,783605
5,082500	0,1	0,755302
5,084167	0,1	0,769173
5,085833	0,1	0,803323
5,087500	0,1	0,822460
5,089167	0,1	0,802493
5,090833	0,1	0,812253
5,092500	0,1	0,824147
5,094167	0,1	0,778159
5,095833	0,1	0,772400
5,097500	0,1	0,789793
5,099167	0,1	0,778745
5,100833	0,1	0,810363
5,102500	0,1	0,801696
5,104167	0,1	0,809669
5,105833	0,1	0,792429
5,107500	0,1	0,794853
5,109167	0,1	0,770916
5,110833	0,1	0,814370
5,112500	0,1	0,807894
5,114167	0,1	0,790346
5,115833	0,1	0,781372
5,117500	0,1	0,832070
5,119167	0,1	0,795656
5,120833	0,1	0,782314
5,122500	0,1	0,789052
5,124167	0,1	0,774431
5,125833	0,1	0,796137
5,127500	0,1	0,755803
5,129167	0,1	0,782208
5,130833	0,1	0,813531
5,132500	0,1	0,822313
5,134167	0,1	0,805514
5,135833	0,1	0,779693
5,137500	0,1	0,776760
5,139167	0,1	0,815512
5,140833	0,1	0,804668
5,142500	0,1	0,760315
5,144167	0,1	0,816102
5,145833	0,1	0,793716
5,147500	0,1	0,745395
5,149167	0,1	0,778041
5,150833	0,1	0,780327
5,152500	0,1	0,800350
5,154167	0,1	0,801443
5,155833	0,1	0,807042
5,157500	0,1	0,795995
5,159167	0,1	0,817204
5,160833	0,1	0,757293
5,162500	0,1	0,816002
5,164167	0,1	0,772159
5,165833	0,1	0,749501
5,167500	0,1	0,784189
5,169167	0,1	0,806794
5,170833	0,1	0,791585
5,172500	0,1	0,776169
5,174167	0,1	0,803965
5,175833	0,1	0,793812
5,177500	0,1	0,810760
5,179167	0,1	0,763139
5,180833	0,1	0,775119
5,182500	0,1	0,762337
5,184167	0,1	0,778290
5,185833	0,1	0,809418
5,187500	0,1	0,810910
5,189167	0,1	0,790197
5,190833	0,1	0,792766
5,192500	0,1	0,757088
5,194167	0,1	0,773530
5,195833	0,1	0,791527
5,197500	0,1	0,798564
5,199167	0,1	0,776416
5,200833	0,1	0,769473
5,202500	0,1	0,767838
5,204167	0,1	0,776013
5,205833	0,1	0,750346
5,207500	0,1	0,801135
5,209167	0,1	0,794111
5,210833	0,1	0,761351
5,212500	0,1	0,784883
5,214167	0,1	0,772893
5,215833	0,1	0,769423
5,217500	0,1	0,788301
5,219167	0,1	0,774975
5,220833	0,1	0,761394
5,222500	0,1	0,745932
5,224167	0,1	0,752221
5,225833	0,1	0,750041
5,227500	0,1	0,752966
5,229167	0,1	0,819766
5,230833	0,1	0,745003
5,232500	0,1	0,746274
5,234167	0,1	0,779230
5,235833	0,1	0,784537
5,237500	0,1	0,754459
5,239167	0,1	0,760153
5,240833	0,1	0,777446
5,242500	0,1	0,757974
5,244167	0,1	0,774224
5,245833	0,1	0,773684
5,247500	0,1	0,754506
5,249167	0,1	0,747070
5,250833	0,1	0,801875
5,252500	0,1	0,767298
5,254167	0,1	0,799846
5,255833	0,1	0,742867
5,257500	0,1	0,772587
5,259167	0,1	0,761197
5,260833	0,1	0,799601
5,262500	0,1	0,775868
5,264167	0,1	0,741327
5,265833	0,1	0,754894
5,267500	0,1	0,773629
5,269167	0,1	0,763924
5,270833	0,1	0,716845
5,272500	0,1	0,748645
5,274167	0,1	0,777988
5,275833	0,1	0,776460
5,277500	0,1	0,770018
5,279167	0,1	0,755545
5,280833	0,1	0,725859
5,282500	0,1	0,774612
5,284167	0,1	0,708918
5,285833	0,1	0,766877
5,287500	0,1	0,741322
5,289167	0,1	0,781705
5,290833	0,1	0,763527
5,292500	0,1	0,769171
5,294167	0,1	0,754903
5,295833	0,1	0,742558
5,297500	0,1	0,754844
5,299167	0,1	0,751529
5,300833	0,1	0,792805
5,302500	0,1	0,744646
5,304167	0,1	0,735768
5,305833	0,1	0,760989
5,307500	0,1	0,795336
5,309167	0,1	0,736422
5,310833	0,1	0,754594
5,312500	0,1	0,773725
5,314167	0,1	0,737160
5,315833	0,1	0,796273
5,317500	0,1	0,715811
5,319167	0,1	0,741260
5,320833	0,1	0,763122
5,322500	0,1	0,740279
5,324167	0,1	0,741813
5,325833	0,1	0,745875
5,327500	0,1	0,758710
5,329167	0,1	0,732650
5,330833	0,1	0,735566
5,332500	0,1	0,713914
5,334167	0,1	0,762172
5,335833	0,1	0,753710
5,337500	0,1	0,721003
5,339167	0,1	0,760490
5,340833	0,1	0,710649
5,342500	0,1	0,760386
5,344167	0,1	0,736958
5,345833	0,1	0,704302
5,347500	0,1	0,760733
5,349167	0,1	0,746176
5,350833	0,1	0,712678
5,352500	0,1	0,727981
5,354167	0,1	0,740024
5,355833	0,1	0,710942
5,357500	0,1	0,722628
5,359167	0,1	0,752113
5,360833	0,1	0,733094
5,362500	0,1	0,739431
5,364167	0,1	0,745676
5,365833	0,1	0,769413
5,367500	0,1	0,732404
5,369167	0,1	0,709651
5,370833	0,1	0,730604
5,372500	0,1	0,742156
5,374167	0,1	0,719168
5,375833	0,1	0,751172
5,377500	0,1	0,768969
5,379167	0,1	0,742363
5,380833	0,1	0,741018
5,382500	0,1	0,750384
5,384167	0,1	0,734382
5,385833	0,1	0,745130
5,387500	0,1	0,717236
5,389167	0,1	0,688787
5,390833	0,1	0,711128
5,392500	0,1	0,783926
5,394167	0,1	0,758221
5,395833	0,1	0,732548
5,397500	0,1	0,732990
5,399167	0,1	0,721790
5,400833	0,1	0,737247
5,402500	0,1	0,733732
5,404167	0,1	0,720899
5,405833	0,1	0,728378
5,407500	0,1	0,752756
5,409167	0,1	0,712331
5,410833	0,1	0,752755
5,412500	0,1	0,731605
5,414167	0,1	0,707174
5,415833	0,1	0,743536
5,417500	0,1	0,729127
5,419167	0,1	0,725853
5,420833	0,1	0,715546
5,422500	0,1	0,713561
5,424167	0,1	0,724064
5,425833	0,1	0,719560
5,427500	0,1	0,755038
5,429167	0,1	0,709360
5,430833	0,1	0,724361
5,432500	0,1	0,722731
5,434167	0,1	0,737842
5,435833	0,1	0,713567
5,437500	0,1	0,733580
5,439167	0,1	0,753308
5,440833	0,1	0,749395
5,442500	0,1	0,724322
5,444167	0,1	0,727139
5,445833	0,1	0,730957
5,447500	0,1	0,760095
5,449167	0,1	0,704952
5,450833	0,1	0,709000
5,452500	0,1	0,708753
5,454167	0,1	0,757363
5,455833	0,1	0,687559
5,457500	0,1	0,716725
5,459167	0,1	0,742895
5,460833	0,1	0,719614
5,462500	0,1	0,704694
5,464167	0,1	0,712666
5,465833	0,1	0,755876
5,467500	0,1	0,715603
5,469167	0,1	0,738634
5,470833	0,1	0,710050
5,472500	0,1	0,737245
5,474167	0,1	0,706581
5,475833	0,1	0,685069
5,477500	0,1	0,724703
5,479167	0,1	0,735266
5,480833	0,1	0,713121
5,482500	0,1	0,721934
5,484167	0,1	0,695527
5,485833	0,1	0,738878
5,487500	0,1	0,714212
5,489167	0,1	0,756223
5,490833	0,1	0,696427
5,492500	0,1	0,734170
5,494167	0,1	0,721394
5,495833	0,1	0,719856
5,497500	0,1	0,741853
5,499167	0,1	0,737648
5,500833	0,1	0,705391
5,502500	0,1	0,739770
5,504167	0,1	0,770301
5,505833	0,1	0,726259
5,507500	0,1	0,704646
5,509167	0,1	0,713410
5,510833	0,1	0,728921
5,512500	0,1	0,760984
5,514167	0,1	0,722936
5,515833	0,1	0,711035
5,517500	0,1	0,676996
5,519167	0,1	0,731589
5,520833	0,1	0,719512
5,522500	0,1	0,714107
5,524167	0,1	0,753201
5,525833	0,1	0,742458
5,527500	0,1	0,734825
5,529167	0,1	0,728282
5,530833	0,1	0,745474
5,532500	0,1	0,749045
5,534167	0,1	0,696576
5,535833	0,1	0,724359
5,537500	0,1	0,695034
5,539167	0,1	0,714200
5,540833	0,1	0,750624
5,542500	0,1	0,753309
5,544167	0,1	0,731804
5,545833	0,1	0,745574
5,547500	0,1	0,702669
5,549167	0,1	0,764495
5,550833	0,1	0,717735
5,552500	0,1	0,759942
5,554167	0,1	0,748849
5,555833	0,1	0,749789
5,557500	0,1	0,743497
5,559167	0,1	0,698110
5,560833	0,1	0,754289
5,562500	0,1	0,716741
5,564167	0,1	0,749038
5,565833	0,1	0,713420
5,567500	0,1	0,703900
5,569167	0,1	0,733130
5,570833	0,1	0,721294
5,572500	0,1	0,748146
5,574167	0,1	0,721645
5,575833	0,1	0,712969
5,577500	0,1	0,755777
5,579167	0,1	0,728633
5,580833	0,1	0,725010
5,582500	0,1	0,748547
5,584167	0,1	0,734973
5,585833	0,1	0,691270
5,587500	0,1	0,699782
5,589167	0,1	0,744428
5,590833	0,1	0,740176
5,592500	0,1	0,744238
5,594167	0,1	0,737251
5,595833	0,1	0,755288
5,597500	0,1	0,719566
5,599167	0,1	0,731598
5,600833	0,1	0,733485
5,602500	0,1	0,710295
5,604167	0,1	0,719059
5,605833	0,1	0,709748
5,607500	0,1	0,746459
5,609167	0,1	0,748351
5,610833	0,1	0,730317
5,612500	0,1	0,728528
5,614167	0,1	0,737299
5,615833	0,1	0,745128
5,617500	0,1	0,757419
5,619167	0,1	0,714662
5,620833	0,1	0,735809
5,622500	0,1	0,746515
5,624167	0,1	0,702372
5,625833	0,1	0,766825
5,627500	0,1	0,716151
5,629167	0,1	0,754738
5,630833	0,1	0,755389
5,632500	0,1	0,727445
5,634167	0,1	0,747454
5,635833	0,1	0,783536
5,637500	0,1	0,724676
5,639167	0,1	0,758852
5,640833	0,1	0,748155
5,642500	0,1	0,769068
5,644167	0,1	0,775960
5,645833	0,1	0,763025
5,647500	0,1	0,793402
5,649167	0,1	0,753070
5,650833	0,1	0,777391
5,652500	0,1	0,750493
5,654167	0,1	0,776994
5,655833	0,1	0,776403
5,657500	0,1	0,752621
5,659167	0,1	0,771496
5,660833	0,1	0,764016
5,662500	0,1	0,740081
5,664167	0,1	0,802956
5,665833	0,1	0,771953
5,667500	0,1	0,780270
5,669167	0,1	0,764911
5,670833	0,1	0,791221
5,672500	0,1	0,815113
5,674167	0,1	0,773690
5,675833	0,1	0,770063
5,677500	0,1	0,750637
5,679167	0,1	0,797809
5,680833	0,1	0,799799
5,682500	0,1	0,774134
5,684167	0,1	0,755397
5,685833	0,1	0,831056
5,687500	0,1	0,790592
5,689167	0,1	0,791971
5,690833	0,1	0,794100
5,692500	0,1	0,824129
5,694167	0,1	0,791730
5,695833	0,1	0,843655
5,697500	0,1	0,821220
5,699167	0,1	0,836427
5,700833	0,1	0,812693
5,702500	0,1	0,850948
5,704167	0,1	0,803431
5,705833	0,1	0,804114
5,707500	0,1	0,806047
5,709167	0,1	0,854620
5,710833	0,1	0,788466
5,712500	0,1	0,855798
5,714167	0,1	0,854824
5,715833	0,1	0,801451
5,717500	0,1	0,863982
5,719167	0,1	0,838719
5,720833	0,1	0,811259
5,722500	0,1	0,847031
5,724167	0,1	0,811411
5,725833	0,1	0,822895
5,727500	0,1	0,861655
5,729167	0,1	0,842784
5,730833	0,1	0,858988
5,732500	0,1	0,835203
5,734167	0,1	0,859036
5,735833	0,1	0,855871
5,737500	0,1	0,834954
5,739167	0,1	0,862504
5,740833	0,1	0,861913
5,742500	0,1	0,859285
5,744167	0,1	0,860568
5,745833	0,1	0,862164
5,747500	0,1	0,852151
5,749167	0,1	0,824293
5,750833	0,1	0,869287
5,752500	0,1	0,897548
5,754167	0,1	0,834269
5,755833	0,1	0,887381
5,757500	0,1	0,849429
5,759167	0,1	0,837627
5,760833	0,1	0,889362
5,762500	0,1	0,862960
5,764167	0,1	0,872669
5,765833	0,1	0,848979
5,767500	0,1	0,879055
5,769167	0,1	0,909693
5,770833	0,1	0,881949
5,772500	0,1	0,855628
5,774167	0,1	0,876580
5,775833	0,1	0,906420
5,777500	0,1	0,888784
5,779167	0,1	0,833229
5,780833	0,1	0,884904
5,782500	0,1	0,897699
5,784167	0,1	0,900536
5,785833	0,1	0,905832
5,787500	0,1	0,903402
5,789167	0,1	0,880165
5,790833	0,1	0,898094
5,792500	0,1	0,911828
5,794167	0,1	0,896270
5,795833	0,1	0,904448
5,797500	0,1	0,915595
5,799167	0,1	0,878531
5,800833	0,1	0,903400
5,802500	0,1	0,903615
5,804167	0,1	0,901278
5,805833	0,1	0,894582
5,807500	0,1	0,910442
5,809167	0,1	0,883141
5,810833	0,1	0,894084
5,812500	0,1	0,900132
5,814167	0,1	0,917286
5,815833	0,1	0,879967
5,817500	0,1	0,877331
5,819167	0,1	0,870287
5,820833	0,1	0,923230
5,822500	0,1	0,865797
5,824167	0,1	0,867320
5,825833	0,1	0,884516
5,827500	0,1	0,898157
5,829167	0,1	0,874959
5,830833	0,1	0,882780
5,832500	0,1	0,867173
5,834167	0,1	0,928428
5,835833	0,1	0,914468
5,837500	0,1	0,882487
5,839167	0,1	0,921696
5,840833	0,1	0,883435
5,842500	0,1	0,920749
5,844167	0,1	0,904997
5,845833	0,1	0,877139
5,847500	0,1	0,907273
5,849167	0,1	0,889181
5,850833	0,1	0,920505
5,852500	0,1	0,871391
5,854167	0,1	0,869792
5,855833	0,1	0,894478
5,857500	0,1	0,888439
5,859167	0,1	0,889227
5,860833	0,1	0,876940
5,862500	0,1	0,878025
5,864167	0,1	0,857356
5,865833	0,1	0,869990
5,867500	0,1	0,887940
5,869167	0,1	0,870990
5,870833	0,1	0,821327
5,872500	0,1	0,865326
5,874167	0,1	0,886241
5,875833	0,1	0,866379
5,877500	0,1	0,880348
5,879167	0,1	0,839911
5,880833	0,1	0,851049
5,882500	0,1	0,868649
5,884167	0,1	0,887238
5,885833	0,1	0,812555
5,887500	0,1	0,903089
5,889167	0,1	0,894828
5,890833	0,1	0,859887
5,892500	0,1	0,883568
5,894167	0,1	0,891497
5,895833	0,1	0,883921
5,897500	0,1	0,864646
5,899167	0,1	0,856360
5,900833	0,1	0,826726
5,902500	0,1	0,853478
5,904167	0,1	0,876821
5,905833	0,1	0,847544
5,907500	0,1	0,842081
5,909167	0,1	0,875584
5,910833	0,1	0,857350
5,912500	0,1	0,857795
5,914167	0,1	0,901609
5,915833	0,1	0,809242
5,917500	0,1	0,812391
5,919167	0,1	0,831469
5,920833	0,1	0,843266
5,922500	0,1	0,828205
5,924167	0,1	0,839500
5,925833	0,1	0,824434
5,927500	0,1	0,815415
5,929167	0,1	0,868439
5,930833	0,1	0,838865
5,932500	0,1	0,868596
5,934167	0,1	0,816316
5,935833	0,1	0,794450
5,937500	0,1	0,826556
5,939167	0,1	0,831768
5,940833	0,1	0,826909
5,942500	0,1	0,835734
5,944167	0,1	0,831369
5,945833	0,1	0,840094
5,947500	0,1	0,832220
5,949167	0,1	0,836427
5,950833	0,1	0,865223
5,952500	0,1	0,799615
5,954167	0,1	0,817886
5,955833	0,1	0,803369
5,957500	0,1	0,803916
5,959167	0,1	0,782606
5,960833	0,1	0,848902
5,962500	0,1	0,817748
5,964167	0,1	0,808967
5,965833	0,1	0,786718
5,967500	0,1	0,832751
5,969167	0,1	0,837315
5,970833	0,1	0,816953
5,972500	0,1	0,837907
5,974167	0,1	0,804168
5,975833	0,1	0,814666
5,977500	0,1	0,774579
5,979167	0,1	0,794884
5,980833	0,1	0,780372
5,982500	0,1	0,850985
5,984167	0,1	0,810514
5,985833	0,1	0,819867
5,987500	0,1	0,819524
5,989167	0,1	0,809466
5,990833	0,1	0,773389
5,992500	0,1	0,806630
5,994167	0,1	0,806588
5,995833	0,1	0,817538
5,997500	0,1	0,812288
5,999167	0,1	0,769969
6,000833	0,1	0,811881
