File Path	chrom://chromeleon01/ikbm_chromeleon/2022/Rezex/Esteban/220612_chitin_4_7.seq/462.smp/UV_VIS_1.channel/UV_VIS_1.chm
Channel	UV_VIS_1

Injection Information:
Data Vault	ikbm_chromeleon
Injection	A2ox 200
Injection Number	8
Position	RA5
Comment	
Processing Method	New ProcMethod
Instrument Method	Short_Rezex_6min_194nm
Type	Calibration Standard
Status	Finished
Injection Date	12.06.2022
Injection Time	17:59:18
Injection Volume (µl)	8,000
Dilution Factor	1,0000
Weight	1,0000

Chromatogram Data Information:
Time Min. (min)	0,000833
Time Max. (min)	6,000833
Data Points	3601
Detector	UV
Generating Data System	Chromeleon 7.2.9.11323
Exporting Data System	Chromeleon 7.2.9.0
Operator	Instrument Controller
Signal Quantity	Absorbance
Signal Unit	mAU
Signal Min.	-0,107409
Signal Max.	149,474522
Channel	UV_VIS_1
Driver Name	VWD3000.dll
Channel Type	Evaluation
Min. Step (s)	0,1
Max. Step (s)	0,1
Average Step (s)	0,1

Signal Parameter Information:
Signal Info	WVL:194 nm

Chromatogram Data:
Time (min)	Step (s)	Value (mAU)
0,000833	n.a.	-0,013300
0,002500	0,1	-0,057818
0,004167	0,1	-0,015874
0,005833	0,1	-0,050773
0,007500	0,1	-0,064158
0,009167	0,1	-0,064162
0,010833	0,1	-0,037825
0,012500	0,1	-0,051230
0,014167	0,1	-0,037790
0,015833	0,1	-0,027383
0,017500	0,1	-0,032075
0,019167	0,1	-0,074295
0,020833	0,1	-0,045900
0,022500	0,1	-0,050798
0,024167	0,1	-0,082876
0,025833	0,1	-0,053592
0,027500	0,1	-0,046644
0,029167	0,1	-0,041354
0,030833	0,1	-0,044710
0,032500	0,1	-0,042969
0,034167	0,1	-0,058311
0,035833	0,1	-0,089071
0,037500	0,1	-0,061890
0,039167	0,1	-0,064077
0,040833	0,1	-0,029720
0,042500	0,1	-0,040378
0,044167	0,1	-0,050503
0,045833	0,1	-0,041704
0,047500	0,1	-0,047456
0,049167	0,1	-0,042571
0,050833	0,1	-0,040118
0,052500	0,1	-0,035055
0,054167	0,1	-0,007639
0,055833	0,1	-0,021719
0,057500	0,1	-0,047661
0,059167	0,1	-0,058872
0,060833	0,1	-0,080790
0,062500	0,1	-0,042040
0,064167	0,1	-0,055789
0,065833	0,1	-0,028399
0,067500	0,1	-0,024404
0,069167	0,1	-0,057453
0,070833	0,1	-0,027144
0,072500	0,1	-0,081912
0,074167	0,1	-0,062637
0,075833	0,1	-0,054804
0,077500	0,1	-0,060909
0,079167	0,1	-0,043533
0,080833	0,1	-0,057983
0,082500	0,1	-0,056804
0,084167	0,1	-0,046225
0,085833	0,1	-0,056171
0,087500	0,1	-0,026849
0,089167	0,1	-0,071861
0,090833	0,1	-0,028329
0,092500	0,1	-0,058518
0,094167	0,1	-0,088914
0,095833	0,1	-0,053278
0,097500	0,1	-0,075310
0,099167	0,1	-0,041900
0,100833	0,1	-0,048257
0,102500	0,1	-0,070751
0,104167	0,1	-0,016882
0,105833	0,1	-0,061558
0,107500	0,1	-0,054979
0,109167	0,1	-0,089260
0,110833	0,1	-0,034634
0,112500	0,1	-0,038777
0,114167	0,1	-0,073882
0,115833	0,1	-0,033500
0,117500	0,1	-0,030009
0,119167	0,1	-0,061928
0,120833	0,1	-0,029719
0,122500	0,1	-0,027920
0,124167	0,1	-0,047366
0,125833	0,1	-0,047234
0,127500	0,1	-0,052488
0,129167	0,1	-0,094026
0,130833	0,1	-0,001047
0,132500	0,1	-0,068218
0,134167	0,1	-0,085192
0,135833	0,1	-0,010942
0,137500	0,1	-0,061560
0,139167	0,1	-0,030397
0,140833	0,1	-0,063181
0,142500	0,1	-0,036401
0,144167	0,1	-0,046430
0,145833	0,1	-0,028849
0,147500	0,1	-0,066104
0,149167	0,1	-0,031113
0,150833	0,1	-0,033450
0,152500	0,1	-0,065823
0,154167	0,1	-0,063973
0,155833	0,1	-0,050107
0,157500	0,1	-0,035005
0,159167	0,1	-0,007955
0,160833	0,1	-0,044006
0,162500	0,1	-0,046831
0,164167	0,1	-0,060750
0,165833	0,1	-0,048682
0,167500	0,1	-0,077030
0,169167	0,1	-0,036055
0,170833	0,1	-0,060122
0,172500	0,1	-0,069033
0,174167	0,1	-0,053378
0,175833	0,1	-0,040956
0,177500	0,1	-0,007935
0,179167	0,1	-0,107409
0,180833	0,1	-0,030513
0,182500	0,1	-0,031243
0,184167	0,1	-0,047091
0,185833	0,1	-0,052054
0,187500	0,1	-0,078371
0,189167	0,1	-0,012641
0,190833	0,1	-0,046319
0,192500	0,1	-0,002492
0,194167	0,1	-0,001733
0,195833	0,1	-0,075490
0,197500	0,1	-0,032647
0,199167	0,1	-0,027506
0,200833	0,1	-0,024615
0,202500	0,1	-0,040324
0,204167	0,1	-0,056939
0,205833	0,1	-0,011454
0,207500	0,1	-0,013130
0,209167	0,1	-0,055317
0,210833	0,1	-0,023145
0,212500	0,1	0,009849
0,214167	0,1	-0,036296
0,215833	0,1	-0,050744
0,217500	0,1	-0,025403
0,219167	0,1	-0,045179
0,220833	0,1	-0,040744
0,222500	0,1	-0,055789
0,224167	0,1	-0,016096
0,225833	0,1	-0,006295
0,227500	0,1	-0,062322
0,229167	0,1	-0,026207
0,230833	0,1	-0,047891
0,232500	0,1	-0,017625
0,234167	0,1	-0,040756
0,235833	0,1	-0,054764
0,237500	0,1	-0,042086
0,239167	0,1	0,001318
0,240833	0,1	-0,030190
0,242500	0,1	-0,008734
0,244167	0,1	-0,009406
0,245833	0,1	-0,004953
0,247500	0,1	-0,054895
0,249167	0,1	-0,049061
0,250833	0,1	-0,018341
0,252500	0,1	-0,005979
0,254167	0,1	-0,031934
0,255833	0,1	-0,005339
0,257500	0,1	-0,003262
0,259167	0,1	0,021926
0,260833	0,1	-0,012722
0,262500	0,1	-0,065733
0,264167	0,1	0,000341
0,265833	0,1	-0,020294
0,267500	0,1	0,032033
0,269167	0,1	0,000345
0,270833	0,1	-0,024051
0,272500	0,1	-0,006718
0,274167	0,1	0,007764
0,275833	0,1	-0,006794
0,277500	0,1	0,008810
0,279167	0,1	-0,002299
0,280833	0,1	-0,039118
0,282500	0,1	-0,004527
0,284167	0,1	0,005264
0,285833	0,1	-0,012863
0,287500	0,1	-0,021034
0,289167	0,1	-0,030966
0,290833	0,1	0,015324
0,292500	0,1	0,022997
0,294167	0,1	-0,004268
0,295833	0,1	-0,021771
0,297500	0,1	0,019591
0,299167	0,1	-0,042502
0,300833	0,1	-0,004980
0,302500	0,1	-0,002219
0,304167	0,1	-0,017878
0,305833	0,1	0,006526
0,307500	0,1	0,025771
0,309167	0,1	-0,001587
0,310833	0,1	0,014202
0,312500	0,1	-0,011140
0,314167	0,1	-0,013130
0,315833	0,1	0,003437
0,317500	0,1	0,004495
0,319167	0,1	-0,003471
0,320833	0,1	0,012134
0,322500	0,1	-0,027213
0,324167	0,1	-0,004333
0,325833	0,1	-0,035953
0,327500	0,1	0,005637
0,329167	0,1	0,028798
0,330833	0,1	0,005811
0,332500	0,1	0,014573
0,334167	0,1	-0,007067
0,335833	0,1	-0,024538
0,337500	0,1	-0,005389
0,339167	0,1	0,015488
0,340833	0,1	-0,050350
0,342500	0,1	-0,030360
0,344167	0,1	0,006470
0,345833	0,1	-0,029966
0,347500	0,1	-0,043609
0,349167	0,1	-0,008854
0,350833	0,1	0,033439
0,352500	0,1	-0,010250
0,354167	0,1	0,008565
0,355833	0,1	-0,002235
0,357500	0,1	-0,002343
0,359167	0,1	0,001993
0,360833	0,1	0,040807
0,362500	0,1	0,013654
0,364167	0,1	0,029519
0,365833	0,1	0,040952
0,367500	0,1	-0,014299
0,369167	0,1	0,035653
0,370833	0,1	-0,002334
0,372500	0,1	-0,000984
0,374167	0,1	-0,008327
0,375833	0,1	0,012566
0,377500	0,1	-0,028015
0,379167	0,1	0,032402
0,380833	0,1	-0,002473
0,382500	0,1	0,054175
0,384167	0,1	0,033421
0,385833	0,1	0,042535
0,387500	0,1	-0,043855
0,389167	0,1	0,027763
0,390833	0,1	0,006263
0,392500	0,1	-0,015267
0,394167	0,1	-0,053229
0,395833	0,1	-0,001870
0,397500	0,1	0,023669
0,399167	0,1	0,007454
0,400833	0,1	0,024748
0,402500	0,1	-0,003519
0,404167	0,1	0,045406
0,405833	0,1	-0,013688
0,407500	0,1	-0,004363
0,409167	0,1	0,026326
0,410833	0,1	0,016572
0,412500	0,1	0,002672
0,414167	0,1	0,001973
0,415833	0,1	-0,032542
0,417500	0,1	-0,031822
0,419167	0,1	-0,032562
0,420833	0,1	0,018489
0,422500	0,1	-0,011244
0,424167	0,1	0,017049
0,425833	0,1	-0,010929
0,427500	0,1	-0,026681
0,429167	0,1	0,006260
0,430833	0,1	0,026867
0,432500	0,1	-0,009639
0,434167	0,1	0,011783
0,435833	0,1	-0,009210
0,437500	0,1	0,029227
0,439167	0,1	-0,019052
0,440833	0,1	-0,013639
0,442500	0,1	0,006075
0,444167	0,1	-0,036542
0,445833	0,1	0,017118
0,447500	0,1	-0,011139
0,449167	0,1	0,011730
0,450833	0,1	-0,020765
0,452500	0,1	-0,001166
0,454167	0,1	-0,001563
0,455833	0,1	0,007260
0,457500	0,1	0,029274
0,459167	0,1	0,021026
0,460833	0,1	-0,004998
0,462500	0,1	0,016756
0,464167	0,1	0,030511
0,465833	0,1	-0,017752
0,467500	0,1	-0,014558
0,469167	0,1	0,009240
0,470833	0,1	-0,027824
0,472500	0,1	0,001807
0,474167	0,1	-0,009667
0,475833	0,1	-0,009026
0,477500	0,1	-0,014838
0,479167	0,1	0,018810
0,480833	0,1	0,000531
0,482500	0,1	0,001539
0,484167	0,1	-0,040646
0,485833	0,1	0,010657
0,487500	0,1	-0,017630
0,489167	0,1	-0,009724
0,490833	0,1	-0,025065
0,492500	0,1	-0,022336
0,494167	0,1	0,006664
0,495833	0,1	0,018036
0,497500	0,1	-0,024498
0,499167	0,1	-0,017258
0,500833	0,1	-0,008437
0,502500	0,1	-0,014417
0,504167	0,1	0,002856
0,505833	0,1	-0,024712
0,507500	0,1	-0,017048
0,509167	0,1	-0,006800
0,510833	0,1	0,007628
0,512500	0,1	0,003103
0,514167	0,1	-0,043465
0,515833	0,1	0,021705
0,517500	0,1	-0,001294
0,519167	0,1	-0,003716
0,520833	0,1	-0,012243
0,522500	0,1	-0,006260
0,524167	0,1	-0,013983
0,525833	0,1	0,026674
0,527500	0,1	-0,023695
0,529167	0,1	0,043923
0,530833	0,1	0,008958
0,532500	0,1	-0,033165
0,534167	0,1	0,038098
0,535833	0,1	0,019879
0,537500	0,1	-0,029551
0,539167	0,1	-0,026843
0,540833	0,1	-0,025849
0,542500	0,1	0,008192
0,544167	0,1	0,025844
0,545833	0,1	-0,022049
0,547500	0,1	-0,034964
0,549167	0,1	-0,034949
0,550833	0,1	-0,041732
0,552500	0,1	-0,024745
0,554167	0,1	-0,002190
0,555833	0,1	-0,012295
0,557500	0,1	-0,015968
0,559167	0,1	-0,021573
0,560833	0,1	-0,021658
0,562500	0,1	-0,038742
0,564167	0,1	-0,009813
0,565833	0,1	-0,029484
0,567500	0,1	-0,023940
0,569167	0,1	-0,008069
0,570833	0,1	-0,012519
0,572500	0,1	-0,007811
0,574167	0,1	-0,038476
0,575833	0,1	-0,001708
0,577500	0,1	0,022382
0,579167	0,1	-0,055151
0,580833	0,1	-0,025719
0,582500	0,1	-0,022271
0,584167	0,1	-0,017100
0,585833	0,1	-0,014768
0,587500	0,1	0,007204
0,589167	0,1	0,012758
0,590833	0,1	-0,029163
0,592500	0,1	0,025551
0,594167	0,1	-0,013595
0,595833	0,1	0,006105
0,597500	0,1	0,014395
0,599167	0,1	-0,011911
0,600833	0,1	-0,012297
0,602500	0,1	0,006877
0,604167	0,1	-0,015406
0,605833	0,1	0,014526
0,607500	0,1	-0,000061
0,609167	0,1	-0,001130
0,610833	0,1	0,012568
0,612500	0,1	-0,005611
0,614167	0,1	-0,051419
0,615833	0,1	-0,013297
0,617500	0,1	-0,024369
0,619167	0,1	-0,031641
0,620833	0,1	0,004034
0,622500	0,1	-0,032646
0,624167	0,1	-0,002595
0,625833	0,1	-0,025496
0,627500	0,1	-0,029553
0,629167	0,1	0,009026
0,630833	0,1	-0,018624
0,632500	0,1	-0,046063
0,634167	0,1	-0,033630
0,635833	0,1	-0,015310
0,637500	0,1	-0,032422
0,639167	0,1	-0,013884
0,640833	0,1	-0,011812
0,642500	0,1	-0,016834
0,644167	0,1	-0,003234
0,645833	0,1	-0,001786
0,647500	0,1	-0,016590
0,649167	0,1	0,023560
0,650833	0,1	-0,000914
0,652500	0,1	-0,021792
0,654167	0,1	-0,020562
0,655833	0,1	-0,016403
0,657500	0,1	-0,054219
0,659167	0,1	0,016417
0,660833	0,1	-0,004303
0,662500	0,1	-0,005129
0,664167	0,1	0,018770
0,665833	0,1	0,017963
0,667500	0,1	-0,010465
0,669167	0,1	0,019993
0,670833	0,1	0,043554
0,672500	0,1	0,017220
0,674167	0,1	-0,004533
0,675833	0,1	0,004737
0,677500	0,1	-0,023477
0,679167	0,1	-0,019919
0,680833	0,1	-0,020475
0,682500	0,1	-0,001515
0,684167	0,1	0,002721
0,685833	0,1	-0,016778
0,687500	0,1	-0,023674
0,689167	0,1	0,016804
0,690833	0,1	0,022492
0,692500	0,1	-0,011751
0,694167	0,1	0,002751
0,695833	0,1	-0,028890
0,697500	0,1	-0,009780
0,699167	0,1	-0,004626
0,700833	0,1	0,053660
0,702500	0,1	-0,033956
0,704167	0,1	0,014521
0,705833	0,1	-0,019285
0,707500	0,1	0,004173
0,709167	0,1	-0,027373
0,710833	0,1	0,004784
0,712500	0,1	0,049450
0,714167	0,1	0,015534
0,715833	0,1	0,021267
0,717500	0,1	0,026818
0,719167	0,1	0,034523
0,720833	0,1	0,039960
0,722500	0,1	0,025779
0,724167	0,1	0,015687
0,725833	0,1	0,011578
0,727500	0,1	0,023408
0,729167	0,1	0,047092
0,730833	0,1	0,077068
0,732500	0,1	0,028362
0,734167	0,1	0,049941
0,735833	0,1	0,070253
0,737500	0,1	0,025162
0,739167	0,1	0,028317
0,740833	0,1	0,031811
0,742500	0,1	0,013969
0,744167	0,1	0,009647
0,745833	0,1	0,038857
0,747500	0,1	0,042536
0,749167	0,1	0,046749
0,750833	0,1	0,056436
0,752500	0,1	0,037740
0,754167	0,1	0,031624
0,755833	0,1	0,045806
0,757500	0,1	0,067107
0,759167	0,1	0,037128
0,760833	0,1	0,019361
0,762500	0,1	0,037381
0,764167	0,1	0,067031
0,765833	0,1	0,050353
0,767500	0,1	0,038465
0,769167	0,1	0,047853
0,770833	0,1	0,016630
0,772500	0,1	0,035535
0,774167	0,1	0,036236
0,775833	0,1	0,039190
0,777500	0,1	0,045249
0,779167	0,1	0,025209
0,780833	0,1	0,021184
0,782500	0,1	0,014937
0,784167	0,1	-0,003121
0,785833	0,1	0,029070
0,787500	0,1	-0,023144
0,789167	0,1	-0,000819
0,790833	0,1	0,051086
0,792500	0,1	0,044829
0,794167	0,1	0,041608
0,795833	0,1	0,027119
0,797500	0,1	0,039694
0,799167	0,1	-0,019956
0,800833	0,1	0,017069
0,802500	0,1	-0,002952
0,804167	0,1	-0,002238
0,805833	0,1	0,007048
0,807500	0,1	0,000106
0,809167	0,1	-0,018561
0,810833	0,1	0,007982
0,812500	0,1	-0,009823
0,814167	0,1	0,003775
0,815833	0,1	0,013084
0,817500	0,1	0,003992
0,819167	0,1	-0,008590
0,820833	0,1	-0,009131
0,822500	0,1	-0,061857
0,824167	0,1	-0,017964
0,825833	0,1	0,008890
0,827500	0,1	-0,008103
0,829167	0,1	-0,018142
0,830833	0,1	-0,021815
0,832500	0,1	0,016319
0,834167	0,1	-0,007594
0,835833	0,1	-0,012591
0,837500	0,1	-0,017729
0,839167	0,1	-0,004511
0,840833	0,1	0,003291
0,842500	0,1	-0,017496
0,844167	0,1	-0,054430
0,845833	0,1	-0,005299
0,847500	0,1	-0,019828
0,849167	0,1	0,045211
0,850833	0,1	-0,040013
0,852500	0,1	-0,036624
0,854167	0,1	-0,044780
0,855833	0,1	-0,000761
0,857500	0,1	-0,022751
0,859167	0,1	-0,034447
0,860833	0,1	0,005562
0,862500	0,1	-0,012693
0,864167	0,1	-0,018490
0,865833	0,1	-0,041854
0,867500	0,1	0,025168
0,869167	0,1	-0,012688
0,870833	0,1	-0,023417
0,872500	0,1	-0,037907
0,874167	0,1	-0,004896
0,875833	0,1	-0,028861
0,877500	0,1	0,005785
0,879167	0,1	-0,028574
0,880833	0,1	0,001005
0,882500	0,1	0,003356
0,884167	0,1	-0,045624
0,885833	0,1	-0,019891
0,887500	0,1	-0,012182
0,889167	0,1	0,019065
0,890833	0,1	0,016095
0,892500	0,1	-0,046719
0,894167	0,1	0,013389
0,895833	0,1	-0,001560
0,897500	0,1	-0,018837
0,899167	0,1	-0,012266
0,900833	0,1	-0,045680
0,902500	0,1	0,015575
0,904167	0,1	-0,032349
0,905833	0,1	-0,003690
0,907500	0,1	0,019014
0,909167	0,1	-0,036399
0,910833	0,1	-0,008788
0,912500	0,1	-0,011672
0,914167	0,1	-0,028704
0,915833	0,1	-0,013366
0,917500	0,1	0,011413
0,919167	0,1	-0,025100
0,920833	0,1	-0,042539
0,922500	0,1	-0,029176
0,924167	0,1	-0,019645
0,925833	0,1	-0,008478
0,927500	0,1	0,006486
0,929167	0,1	-0,013305
0,930833	0,1	-0,018648
0,932500	0,1	0,019011
0,934167	0,1	0,013573
0,935833	0,1	-0,005230
0,937500	0,1	0,005866
0,939167	0,1	0,015396
0,940833	0,1	-0,005960
0,942500	0,1	-0,006628
0,944167	0,1	-0,029811
0,945833	0,1	0,000477
0,947500	0,1	0,017589
0,949167	0,1	0,004182
0,950833	0,1	0,005308
0,952500	0,1	0,027058
0,954167	0,1	0,014463
0,955833	0,1	-0,034364
0,957500	0,1	0,018225
0,959167	0,1	-0,008902
0,960833	0,1	0,052030
0,962500	0,1	0,005425
0,964167	0,1	-0,006711
0,965833	0,1	0,010127
0,967500	0,1	0,015017
0,969167	0,1	0,016675
0,970833	0,1	0,023842
0,972500	0,1	0,027600
0,974167	0,1	0,014305
0,975833	0,1	0,022584
0,977500	0,1	0,028729
0,979167	0,1	0,011192
0,980833	0,1	0,024652
0,982500	0,1	0,048282
0,984167	0,1	0,030772
0,985833	0,1	0,029586
0,987500	0,1	0,043565
0,989167	0,1	0,040985
0,990833	0,1	0,036943
0,992500	0,1	0,018433
0,994167	0,1	0,047017
0,995833	0,1	0,063631
0,997500	0,1	-0,002402
0,999167	0,1	0,047738
1,000833	0,1	0,080506
1,002500	0,1	0,053763
1,004167	0,1	0,037052
1,005833	0,1	0,039484
1,007500	0,1	0,082995
1,009167	0,1	0,097329
1,010833	0,1	0,078609
1,012500	0,1	0,080748
1,014167	0,1	0,132822
1,015833	0,1	0,080549
1,017500	0,1	0,088558
1,019167	0,1	0,116563
1,020833	0,1	0,127733
1,022500	0,1	0,105899
1,024167	0,1	0,105757
1,025833	0,1	0,116568
1,027500	0,1	0,149785
1,029167	0,1	0,156018
1,030833	0,1	0,140029
1,032500	0,1	0,130178
1,034167	0,1	0,134198
1,035833	0,1	0,112415
1,037500	0,1	0,149193
1,039167	0,1	0,122129
1,040833	0,1	0,145036
1,042500	0,1	0,151480
1,044167	0,1	0,167876
1,045833	0,1	0,188565
1,047500	0,1	0,185968
1,049167	0,1	0,158709
1,050833	0,1	0,198464
1,052500	0,1	0,246236
1,054167	0,1	0,256929
1,055833	0,1	0,307411
1,057500	0,1	0,361557
1,059167	0,1	0,532958
1,060833	0,1	0,647781
1,062500	0,1	0,884379
1,064167	0,1	1,147966
1,065833	0,1	1,477642
1,067500	0,1	1,973244
1,069167	0,1	2,580050
1,070833	0,1	3,297178
1,072500	0,1	4,264651
1,074167	0,1	5,402191
1,075833	0,1	6,759152
1,077500	0,1	8,310712
1,079167	0,1	10,120908
1,080833	0,1	12,137495
1,082500	0,1	14,370877
1,084167	0,1	16,723077
1,085833	0,1	19,392766
1,087500	0,1	22,180894
1,089167	0,1	24,953826
1,090833	0,1	27,899870
1,092500	0,1	30,790503
1,094167	0,1	33,692018
1,095833	0,1	36,524179
1,097500	0,1	39,283491
1,099167	0,1	41,861040
1,100833	0,1	44,302877
1,102500	0,1	46,566445
1,104167	0,1	48,627461
1,105833	0,1	50,483603
1,107500	0,1	52,098597
1,109167	0,1	53,477008
1,110833	0,1	54,637603
1,112500	0,1	55,567388
1,114167	0,1	56,286301
1,115833	0,1	56,735239
1,117500	0,1	56,929435
1,119167	0,1	57,070159
1,120833	0,1	56,884786
1,122500	0,1	56,562432
1,124167	0,1	56,000782
1,125833	0,1	55,373270
1,127500	0,1	54,534011
1,129167	0,1	53,599749
1,130833	0,1	52,533915
1,132500	0,1	51,313856
1,134167	0,1	50,060695
1,135833	0,1	48,727917
1,137500	0,1	47,337551
1,139167	0,1	45,864367
1,140833	0,1	44,359568
1,142500	0,1	42,883999
1,144167	0,1	41,334873
1,145833	0,1	39,816936
1,147500	0,1	38,259347
1,149167	0,1	36,785152
1,150833	0,1	35,249136
1,152500	0,1	33,776535
1,154167	0,1	32,341968
1,155833	0,1	30,953354
1,157500	0,1	29,551619
1,159167	0,1	28,256481
1,160833	0,1	26,906150
1,162500	0,1	25,686517
1,164167	0,1	24,474644
1,165833	0,1	23,351585
1,167500	0,1	22,183859
1,169167	0,1	21,120195
1,170833	0,1	20,083682
1,172500	0,1	19,099477
1,174167	0,1	18,125219
1,175833	0,1	17,284402
1,177500	0,1	16,405353
1,179167	0,1	15,540271
1,180833	0,1	14,825005
1,182500	0,1	14,030038
1,184167	0,1	13,315445
1,185833	0,1	12,632648
1,187500	0,1	11,962879
1,189167	0,1	11,377631
1,190833	0,1	10,836702
1,192500	0,1	10,270044
1,194167	0,1	9,710058
1,195833	0,1	9,231016
1,197500	0,1	8,758984
1,199167	0,1	8,324315
1,200833	0,1	7,867375
1,202500	0,1	7,512283
1,204167	0,1	7,097760
1,205833	0,1	6,754231
1,207500	0,1	6,444943
1,209167	0,1	6,098607
1,210833	0,1	5,828079
1,212500	0,1	5,547872
1,214167	0,1	5,298427
1,215833	0,1	5,047848
1,217500	0,1	4,807957
1,219167	0,1	4,563477
1,220833	0,1	4,361818
1,222500	0,1	4,230319
1,224167	0,1	4,047622
1,225833	0,1	3,861215
1,227500	0,1	3,693446
1,229167	0,1	3,487210
1,230833	0,1	3,401353
1,232500	0,1	3,275280
1,234167	0,1	3,118292
1,235833	0,1	3,022520
1,237500	0,1	2,875243
1,239167	0,1	2,785536
1,240833	0,1	2,669707
1,242500	0,1	2,615347
1,244167	0,1	2,480949
1,245833	0,1	2,445325
1,247500	0,1	2,321413
1,249167	0,1	2,239751
1,250833	0,1	2,176394
1,252500	0,1	2,107566
1,254167	0,1	2,052576
1,255833	0,1	1,987607
1,257500	0,1	1,944624
1,259167	0,1	1,841596
1,260833	0,1	1,816494
1,262500	0,1	1,711316
1,264167	0,1	1,680489
1,265833	0,1	1,660281
1,267500	0,1	1,605485
1,269167	0,1	1,549975
1,270833	0,1	1,533283
1,272500	0,1	1,506146
1,274167	0,1	1,419604
1,275833	0,1	1,376729
1,277500	0,1	1,358757
1,279167	0,1	1,348422
1,280833	0,1	1,283154
1,282500	0,1	1,281850
1,284167	0,1	1,242177
1,285833	0,1	1,178209
1,287500	0,1	1,196795
1,289167	0,1	1,153904
1,290833	0,1	1,108017
1,292500	0,1	1,098100
1,294167	0,1	1,081144
1,295833	0,1	1,061315
1,297500	0,1	1,063118
1,299167	0,1	1,026986
1,300833	0,1	0,980012
1,302500	0,1	0,974662
1,304167	0,1	0,976357
1,305833	0,1	0,927344
1,307500	0,1	0,896949
1,309167	0,1	0,892292
1,310833	0,1	0,877365
1,312500	0,1	0,921743
1,314167	0,1	0,866568
1,315833	0,1	0,868320
1,317500	0,1	0,834084
1,319167	0,1	0,830918
1,320833	0,1	0,813157
1,322500	0,1	0,783127
1,324167	0,1	0,805269
1,325833	0,1	0,775624
1,327500	0,1	0,771316
1,329167	0,1	0,765932
1,330833	0,1	0,772799
1,332500	0,1	0,751467
1,334167	0,1	0,697933
1,335833	0,1	0,760068
1,337500	0,1	0,732470
1,339167	0,1	0,683985
1,340833	0,1	0,748221
1,342500	0,1	0,690213
1,344167	0,1	0,679630
1,345833	0,1	0,685555
1,347500	0,1	0,654487
1,349167	0,1	0,694393
1,350833	0,1	0,635039
1,352500	0,1	0,657513
1,354167	0,1	0,663904
1,355833	0,1	0,679638
1,357500	0,1	0,658520
1,359167	0,1	0,682176
1,360833	0,1	0,659491
1,362500	0,1	0,627552
1,364167	0,1	0,658962
1,365833	0,1	0,624255
1,367500	0,1	0,621079
1,369167	0,1	0,655960
1,370833	0,1	0,662781
1,372500	0,1	0,640666
1,374167	0,1	0,659203
1,375833	0,1	0,630056
1,377500	0,1	0,601577
1,379167	0,1	0,620170
1,380833	0,1	0,643694
1,382500	0,1	0,624692
1,384167	0,1	0,620931
1,385833	0,1	0,599641
1,387500	0,1	0,628293
1,389167	0,1	0,605978
1,390833	0,1	0,652089
1,392500	0,1	0,641657
1,394167	0,1	0,594363
1,395833	0,1	0,620538
1,397500	0,1	0,615517
1,399167	0,1	0,608648
1,400833	0,1	0,583564
1,402500	0,1	0,630516
1,404167	0,1	0,600288
1,405833	0,1	0,641885
1,407500	0,1	0,629703
1,409167	0,1	0,609829
1,410833	0,1	0,620965
1,412500	0,1	0,571634
1,414167	0,1	0,596169
1,415833	0,1	0,605436
1,417500	0,1	0,592899
1,419167	0,1	0,589322
1,420833	0,1	0,594663
1,422500	0,1	0,604202
1,424167	0,1	0,616874
1,425833	0,1	0,564709
1,427500	0,1	0,568525
1,429167	0,1	0,598340
1,430833	0,1	0,615990
1,432500	0,1	0,596896
1,434167	0,1	0,580189
1,435833	0,1	0,616041
1,437500	0,1	0,583400
1,439167	0,1	0,540046
1,440833	0,1	0,599567
1,442500	0,1	0,588773
1,444167	0,1	0,611421
1,445833	0,1	0,565297
1,447500	0,1	0,599058
1,449167	0,1	0,579803
1,450833	0,1	0,576669
1,452500	0,1	0,543156
1,454167	0,1	0,572517
1,455833	0,1	0,576482
1,457500	0,1	0,578160
1,459167	0,1	0,576263
1,460833	0,1	0,573353
1,462500	0,1	0,549728
1,464167	0,1	0,567639
1,465833	0,1	0,583148
1,467500	0,1	0,566137
1,469167	0,1	0,577880
1,470833	0,1	0,600718
1,472500	0,1	0,555885
1,474167	0,1	0,626531
1,475833	0,1	0,589441
1,477500	0,1	0,555790
1,479167	0,1	0,583402
1,480833	0,1	0,564994
1,482500	0,1	0,573313
1,484167	0,1	0,607806
1,485833	0,1	0,599583
1,487500	0,1	0,597666
1,489167	0,1	0,580668
1,490833	0,1	0,617991
1,492500	0,1	0,614888
1,494167	0,1	0,605772
1,495833	0,1	0,613469
1,497500	0,1	0,613727
1,499167	0,1	0,620244
1,500833	0,1	0,614062
1,502500	0,1	0,625551
1,504167	0,1	0,632938
1,505833	0,1	0,614836
1,507500	0,1	0,621040
1,509167	0,1	0,623287
1,510833	0,1	0,649770
1,512500	0,1	0,597089
1,514167	0,1	0,638383
1,515833	0,1	0,598819
1,517500	0,1	0,661367
1,519167	0,1	0,628252
1,520833	0,1	0,602996
1,522500	0,1	0,564651
1,524167	0,1	0,599592
1,525833	0,1	0,619396
1,527500	0,1	0,606454
1,529167	0,1	0,631422
1,530833	0,1	0,620436
1,532500	0,1	0,640983
1,534167	0,1	0,629792
1,535833	0,1	0,603953
1,537500	0,1	0,595236
1,539167	0,1	0,592213
1,540833	0,1	0,612544
1,542500	0,1	0,578628
1,544167	0,1	0,597183
1,545833	0,1	0,605160
1,547500	0,1	0,580136
1,549167	0,1	0,606812
1,550833	0,1	0,585201
1,552500	0,1	0,544116
1,554167	0,1	0,550899
1,555833	0,1	0,566754
1,557500	0,1	0,585357
1,559167	0,1	0,532957
1,560833	0,1	0,562331
1,562500	0,1	0,537077
1,564167	0,1	0,540218
1,565833	0,1	0,526151
1,567500	0,1	0,538650
1,569167	0,1	0,559755
1,570833	0,1	0,515680
1,572500	0,1	0,500185
1,574167	0,1	0,523050
1,575833	0,1	0,516535
1,577500	0,1	0,509500
1,579167	0,1	0,483873
1,580833	0,1	0,548751
1,582500	0,1	0,483151
1,584167	0,1	0,507895
1,585833	0,1	0,471534
1,587500	0,1	0,500728
1,589167	0,1	0,526031
1,590833	0,1	0,522320
1,592500	0,1	0,517515
1,594167	0,1	0,508471
1,595833	0,1	0,494992
1,597500	0,1	0,507821
1,599167	0,1	0,471940
1,600833	0,1	0,499439
1,602500	0,1	0,504656
1,604167	0,1	0,493867
1,605833	0,1	0,554092
1,607500	0,1	0,494468
1,609167	0,1	0,541830
1,610833	0,1	0,551139
1,612500	0,1	0,550184
1,614167	0,1	0,559574
1,615833	0,1	0,627266
1,617500	0,1	0,604340
1,619167	0,1	0,613947
1,620833	0,1	0,645071
1,622500	0,1	0,711437
1,624167	0,1	0,741626
1,625833	0,1	0,796257
1,627500	0,1	0,810457
1,629167	0,1	0,906730
1,630833	0,1	0,938642
1,632500	0,1	1,010664
1,634167	0,1	1,102186
1,635833	0,1	1,212151
1,637500	0,1	1,422522
1,639167	0,1	1,483863
1,640833	0,1	1,699337
1,642500	0,1	1,878404
1,644167	0,1	2,047979
1,645833	0,1	2,224555
1,647500	0,1	2,509804
1,649167	0,1	2,750177
1,650833	0,1	3,137773
1,652500	0,1	3,491330
1,654167	0,1	3,878363
1,655833	0,1	4,316800
1,657500	0,1	4,838640
1,659167	0,1	5,352455
1,660833	0,1	5,978271
1,662500	0,1	6,589107
1,664167	0,1	7,278781
1,665833	0,1	8,054608
1,667500	0,1	8,921912
1,669167	0,1	9,824256
1,670833	0,1	10,823892
1,672500	0,1	11,872756
1,674167	0,1	13,046754
1,675833	0,1	14,282932
1,677500	0,1	15,546932
1,679167	0,1	17,004357
1,680833	0,1	18,460514
1,682500	0,1	20,035014
1,684167	0,1	21,719831
1,685833	0,1	23,512858
1,687500	0,1	25,393195
1,689167	0,1	27,352692
1,690833	0,1	29,473088
1,692500	0,1	31,604051
1,694167	0,1	33,898219
1,695833	0,1	36,277819
1,697500	0,1	38,668552
1,699167	0,1	41,163883
1,700833	0,1	43,853503
1,702500	0,1	46,536811
1,704167	0,1	49,337168
1,705833	0,1	52,197666
1,707500	0,1	55,108891
1,709167	0,1	58,092841
1,710833	0,1	61,081001
1,712500	0,1	64,214931
1,714167	0,1	67,399617
1,715833	0,1	70,546697
1,717500	0,1	73,780485
1,719167	0,1	76,966870
1,720833	0,1	80,287611
1,722500	0,1	83,488700
1,724167	0,1	86,732764
1,725833	0,1	89,991033
1,727500	0,1	93,185260
1,729167	0,1	96,389838
1,730833	0,1	99,561106
1,732500	0,1	102,733000
1,734167	0,1	105,774646
1,735833	0,1	108,750989
1,737500	0,1	111,746722
1,739167	0,1	114,608844
1,740833	0,1	117,393758
1,742500	0,1	120,146714
1,744167	0,1	122,716771
1,745833	0,1	125,283147
1,747500	0,1	127,677939
1,749167	0,1	129,978596
1,750833	0,1	132,195556
1,752500	0,1	134,260517
1,754167	0,1	136,209793
1,755833	0,1	138,088747
1,757500	0,1	139,753311
1,759167	0,1	141,271664
1,760833	0,1	142,738598
1,762500	0,1	144,053983
1,764167	0,1	145,137458
1,765833	0,1	146,233783
1,767500	0,1	147,069882
1,769167	0,1	147,841842
1,770833	0,1	148,462877
1,772500	0,1	148,904276
1,774167	0,1	149,245623
1,775833	0,1	149,457312
1,777500	0,1	149,474522
1,779167	0,1	149,442430
1,780833	0,1	149,242186
1,782500	0,1	148,909029
1,784167	0,1	148,558200
1,785833	0,1	147,893246
1,787500	0,1	147,228094
1,789167	0,1	146,483871
1,790833	0,1	145,551502
1,792500	0,1	144,638416
1,794167	0,1	143,495881
1,795833	0,1	142,326242
1,797500	0,1	141,002117
1,799167	0,1	139,683919
1,800833	0,1	138,201890
1,802500	0,1	136,657619
1,804167	0,1	135,092246
1,805833	0,1	133,370897
1,807500	0,1	131,689928
1,809167	0,1	129,896364
1,810833	0,1	128,056529
1,812500	0,1	126,141298
1,814167	0,1	124,233934
1,815833	0,1	122,242266
1,817500	0,1	120,235583
1,819167	0,1	118,179818
1,820833	0,1	116,130832
1,822500	0,1	114,034441
1,824167	0,1	111,933209
1,825833	0,1	109,757498
1,827500	0,1	107,642666
1,829167	0,1	105,464156
1,830833	0,1	103,344674
1,832500	0,1	101,153513
1,834167	0,1	99,012227
1,835833	0,1	96,897661
1,837500	0,1	94,776741
1,839167	0,1	92,618958
1,840833	0,1	90,545866
1,842500	0,1	88,432003
1,844167	0,1	86,326361
1,845833	0,1	84,322050
1,847500	0,1	82,259642
1,849167	0,1	80,266934
1,850833	0,1	78,288773
1,852500	0,1	76,306522
1,854167	0,1	74,384731
1,855833	0,1	72,498695
1,857500	0,1	70,626403
1,859167	0,1	68,789651
1,860833	0,1	66,942245
1,862500	0,1	65,162216
1,864167	0,1	63,415587
1,865833	0,1	61,757807
1,867500	0,1	60,097308
1,869167	0,1	58,445206
1,870833	0,1	56,787774
1,872500	0,1	55,258357
1,874167	0,1	53,789315
1,875833	0,1	52,252749
1,877500	0,1	50,771999
1,879167	0,1	49,376404
1,880833	0,1	47,977268
1,882500	0,1	46,630451
1,884167	0,1	45,318314
1,885833	0,1	44,032520
1,887500	0,1	42,858011
1,889167	0,1	41,558406
1,890833	0,1	40,408722
1,892500	0,1	39,271734
1,894167	0,1	38,162777
1,895833	0,1	37,061617
1,897500	0,1	35,973563
1,899167	0,1	34,926855
1,900833	0,1	33,970834
1,902500	0,1	32,969270
1,904167	0,1	32,016448
1,905833	0,1	31,112392
1,907500	0,1	30,191139
1,909167	0,1	29,333650
1,910833	0,1	28,513022
1,912500	0,1	27,710297
1,914167	0,1	26,883993
1,915833	0,1	26,105726
1,917500	0,1	25,373088
1,919167	0,1	24,629822
1,920833	0,1	23,887605
1,922500	0,1	23,291100
1,924167	0,1	22,599726
1,925833	0,1	21,970722
1,927500	0,1	21,346915
1,929167	0,1	20,755744
1,930833	0,1	20,138447
1,932500	0,1	19,615724
1,934167	0,1	19,019809
1,935833	0,1	18,525975
1,937500	0,1	18,011676
1,939167	0,1	17,517396
1,940833	0,1	17,004141
1,942500	0,1	16,512630
1,944167	0,1	16,102607
1,945833	0,1	15,689776
1,947500	0,1	15,232457
1,949167	0,1	14,818012
1,950833	0,1	14,449835
1,952500	0,1	14,063281
1,954167	0,1	13,694838
1,955833	0,1	13,314511
1,957500	0,1	12,953375
1,959167	0,1	12,627769
1,960833	0,1	12,291604
1,962500	0,1	11,975584
1,964167	0,1	11,712607
1,965833	0,1	11,412525
1,967500	0,1	11,106839
1,969167	0,1	10,805319
1,970833	0,1	10,555020
1,972500	0,1	10,324891
1,974167	0,1	10,047247
1,975833	0,1	9,784756
1,977500	0,1	9,553015
1,979167	0,1	9,360045
1,980833	0,1	9,152608
1,982500	0,1	8,954843
1,984167	0,1	8,749749
1,985833	0,1	8,567369
1,987500	0,1	8,358167
1,989167	0,1	8,170193
1,990833	0,1	8,000689
1,992500	0,1	7,855276
1,994167	0,1	7,649789
1,995833	0,1	7,543246
1,997500	0,1	7,387668
1,999167	0,1	7,235464
2,000833	0,1	7,118986
2,002500	0,1	6,941071
2,004167	0,1	6,819860
2,005833	0,1	6,685824
2,007500	0,1	6,608388
2,009167	0,1	6,451644
2,010833	0,1	6,368163
2,012500	0,1	6,222961
2,014167	0,1	6,083839
2,015833	0,1	6,063062
2,017500	0,1	5,940088
2,019167	0,1	5,847318
2,020833	0,1	5,791197
2,022500	0,1	5,653293
2,024167	0,1	5,593352
2,025833	0,1	5,497432
2,027500	0,1	5,448714
2,029167	0,1	5,366401
2,030833	0,1	5,303963
2,032500	0,1	5,196991
2,034167	0,1	5,154341
2,035833	0,1	5,133397
2,037500	0,1	5,084021
2,039167	0,1	5,011734
2,040833	0,1	4,960874
2,042500	0,1	4,870966
2,044167	0,1	4,859295
2,045833	0,1	4,805636
2,047500	0,1	4,767741
2,049167	0,1	4,751390
2,050833	0,1	4,673666
2,052500	0,1	4,627606
2,054167	0,1	4,577942
2,055833	0,1	4,556969
2,057500	0,1	4,531096
2,059167	0,1	4,524732
2,060833	0,1	4,497198
2,062500	0,1	4,439463
2,064167	0,1	4,408746
2,065833	0,1	4,392123
2,067500	0,1	4,399991
2,069167	0,1	4,313531
2,070833	0,1	4,340306
2,072500	0,1	4,269316
2,074167	0,1	4,263162
2,075833	0,1	4,251750
2,077500	0,1	4,216366
2,079167	0,1	4,198519
2,080833	0,1	4,212597
2,082500	0,1	4,197654
2,084167	0,1	4,153887
2,085833	0,1	4,154672
2,087500	0,1	4,098870
2,089167	0,1	4,089776
2,090833	0,1	4,093657
2,092500	0,1	4,108530
2,094167	0,1	4,054178
2,095833	0,1	4,021825
2,097500	0,1	4,019510
2,099167	0,1	4,008325
2,100833	0,1	3,976761
2,102500	0,1	3,947250
2,104167	0,1	3,949201
2,105833	0,1	3,911235
2,107500	0,1	3,870962
2,109167	0,1	3,869363
2,110833	0,1	3,858035
2,112500	0,1	3,873645
2,114167	0,1	3,805660
2,115833	0,1	3,799233
2,117500	0,1	3,815232
2,119167	0,1	3,766552
2,120833	0,1	3,760919
2,122500	0,1	3,769112
2,124167	0,1	3,727590
2,125833	0,1	3,678938
2,127500	0,1	3,700942
2,129167	0,1	3,677026
2,130833	0,1	3,659358
2,132500	0,1	3,620757
2,134167	0,1	3,605959
2,135833	0,1	3,615316
2,137500	0,1	3,574976
2,139167	0,1	3,559170
2,140833	0,1	3,507310
2,142500	0,1	3,559322
2,144167	0,1	3,512023
2,145833	0,1	3,514026
2,147500	0,1	3,450531
2,149167	0,1	3,464703
2,150833	0,1	3,411425
2,152500	0,1	3,362628
2,154167	0,1	3,382617
2,155833	0,1	3,342583
2,157500	0,1	3,323543
2,159167	0,1	3,279305
2,160833	0,1	3,293269
2,162500	0,1	3,295934
2,164167	0,1	3,232566
2,165833	0,1	3,262154
2,167500	0,1	3,194615
2,169167	0,1	3,204906
2,170833	0,1	3,168200
2,172500	0,1	3,168077
2,174167	0,1	3,143016
2,175833	0,1	3,096296
2,177500	0,1	3,066086
2,179167	0,1	3,058632
2,180833	0,1	3,065468
2,182500	0,1	3,026026
2,184167	0,1	2,962902
2,185833	0,1	3,008912
2,187500	0,1	2,968917
2,189167	0,1	2,937869
2,190833	0,1	2,933842
2,192500	0,1	2,900897
2,194167	0,1	2,847275
2,195833	0,1	2,895198
2,197500	0,1	2,846334
2,199167	0,1	2,849075
2,200833	0,1	2,808324
2,202500	0,1	2,820752
2,204167	0,1	2,760353
2,205833	0,1	2,755514
2,207500	0,1	2,738445
2,209167	0,1	2,738312
2,210833	0,1	2,695696
2,212500	0,1	2,696044
2,214167	0,1	2,693324
2,215833	0,1	2,639541
2,217500	0,1	2,615180
2,219167	0,1	2,597015
2,220833	0,1	2,600410
2,222500	0,1	2,540814
2,224167	0,1	2,556826
2,225833	0,1	2,559029
2,227500	0,1	2,543073
2,229167	0,1	2,476292
2,230833	0,1	2,457278
2,232500	0,1	2,479837
2,234167	0,1	2,437962
2,235833	0,1	2,432710
2,237500	0,1	2,354554
2,239167	0,1	2,372402
2,240833	0,1	2,359006
2,242500	0,1	2,350796
2,244167	0,1	2,329399
2,245833	0,1	2,301864
2,247500	0,1	2,287914
2,249167	0,1	2,289120
2,250833	0,1	2,264454
2,252500	0,1	2,223918
2,254167	0,1	2,212201
2,255833	0,1	2,197070
2,257500	0,1	2,179810
2,259167	0,1	2,167308
2,260833	0,1	2,164258
2,262500	0,1	2,128310
2,264167	0,1	2,153608
2,265833	0,1	2,115683
2,267500	0,1	2,090265
2,269167	0,1	2,055187
2,270833	0,1	2,116724
2,272500	0,1	2,029171
2,274167	0,1	2,089075
2,275833	0,1	2,008276
2,277500	0,1	2,027808
2,279167	0,1	2,007321
2,280833	0,1	1,985332
2,282500	0,1	1,959759
2,284167	0,1	1,963370
2,285833	0,1	1,913608
2,287500	0,1	1,936268
2,289167	0,1	1,918650
2,290833	0,1	1,922108
2,292500	0,1	1,862251
2,294167	0,1	1,843065
2,295833	0,1	1,836266
2,297500	0,1	1,863681
2,299167	0,1	1,845309
2,300833	0,1	1,829377
2,302500	0,1	1,830435
2,304167	0,1	1,810399
2,305833	0,1	1,802053
2,307500	0,1	1,797233
2,309167	0,1	1,750572
2,310833	0,1	1,801320
2,312500	0,1	1,771665
2,314167	0,1	1,726778
2,315833	0,1	1,710312
2,317500	0,1	1,729458
2,319167	0,1	1,662147
2,320833	0,1	1,734264
2,322500	0,1	1,674432
2,324167	0,1	1,691267
2,325833	0,1	1,694201
2,327500	0,1	1,651396
2,329167	0,1	1,672405
2,330833	0,1	1,628128
2,332500	0,1	1,612965
2,334167	0,1	1,593470
2,335833	0,1	1,644845
2,337500	0,1	1,592126
2,339167	0,1	1,609739
2,340833	0,1	1,609384
2,342500	0,1	1,559407
2,344167	0,1	1,572200
2,345833	0,1	1,590170
2,347500	0,1	1,543907
2,349167	0,1	1,520763
2,350833	0,1	1,527802
2,352500	0,1	1,545356
2,354167	0,1	1,474909
2,355833	0,1	1,527607
2,357500	0,1	1,507723
2,359167	0,1	1,501022
2,360833	0,1	1,495738
2,362500	0,1	1,466614
2,364167	0,1	1,489093
2,365833	0,1	1,441078
2,367500	0,1	1,444765
2,369167	0,1	1,476289
2,370833	0,1	1,463381
2,372500	0,1	1,444828
2,374167	0,1	1,430087
2,375833	0,1	1,431788
2,377500	0,1	1,409660
2,379167	0,1	1,438823
2,380833	0,1	1,383833
2,382500	0,1	1,402897
2,384167	0,1	1,363752
2,385833	0,1	1,394850
2,387500	0,1	1,391396
2,389167	0,1	1,364100
2,390833	0,1	1,335277
2,392500	0,1	1,372655
2,394167	0,1	1,348131
2,395833	0,1	1,334335
2,397500	0,1	1,327289
2,399167	0,1	1,357510
2,400833	0,1	1,342787
2,402500	0,1	1,313556
2,404167	0,1	1,320182
2,405833	0,1	1,280337
2,407500	0,1	1,316535
2,409167	0,1	1,254929
2,410833	0,1	1,289536
2,412500	0,1	1,238548
2,414167	0,1	1,255089
2,415833	0,1	1,228858
2,417500	0,1	1,243170
2,419167	0,1	1,222169
2,420833	0,1	1,217413
2,422500	0,1	1,204209
2,424167	0,1	1,207554
2,425833	0,1	1,212771
2,427500	0,1	1,220227
2,429167	0,1	1,185847
2,430833	0,1	1,197335
2,432500	0,1	1,209133
2,434167	0,1	1,199404
2,435833	0,1	1,170117
2,437500	0,1	1,184081
2,439167	0,1	1,156211
2,440833	0,1	1,179026
2,442500	0,1	1,128341
2,444167	0,1	1,142175
2,445833	0,1	1,139135
2,447500	0,1	1,135262
2,449167	0,1	1,118600
2,450833	0,1	1,133553
2,452500	0,1	1,082640
2,454167	0,1	1,110319
2,455833	0,1	1,144116
2,457500	0,1	1,085286
2,459167	0,1	1,078232
2,460833	0,1	1,065207
2,462500	0,1	1,106382
2,464167	0,1	1,102409
2,465833	0,1	1,079049
2,467500	0,1	1,081164
2,469167	0,1	1,070546
2,470833	0,1	1,038229
2,472500	0,1	1,061096
2,474167	0,1	1,048557
2,475833	0,1	1,057463
2,477500	0,1	1,061866
2,479167	0,1	1,048664
2,480833	0,1	1,028360
2,482500	0,1	1,019740
2,484167	0,1	1,021085
2,485833	0,1	1,007611
2,487500	0,1	1,019515
2,489167	0,1	1,041680
2,490833	0,1	1,003208
2,492500	0,1	1,009297
2,494167	0,1	1,009486
2,495833	0,1	1,019563
2,497500	0,1	1,013645
2,499167	0,1	1,006713
2,500833	0,1	1,016280
2,502500	0,1	1,047004
2,504167	0,1	0,998358
2,505833	0,1	0,957817
2,507500	0,1	0,972414
2,509167	0,1	0,982254
2,510833	0,1	0,993696
2,512500	0,1	0,964248
2,514167	0,1	0,979198
2,515833	0,1	1,006899
2,517500	0,1	0,964258
2,519167	0,1	0,988941
2,520833	0,1	1,002386
2,522500	0,1	0,950666
2,524167	0,1	0,963250
2,525833	0,1	0,971353
2,527500	0,1	0,956217
2,529167	0,1	0,925660
2,530833	0,1	0,966174
2,532500	0,1	0,968365
2,534167	0,1	0,959441
2,535833	0,1	0,941436
2,537500	0,1	0,967649
2,539167	0,1	0,993000
2,540833	0,1	0,978930
2,542500	0,1	0,969772
2,544167	0,1	0,949528
2,545833	0,1	0,982894
2,547500	0,1	0,983832
2,549167	0,1	0,959919
2,550833	0,1	0,946748
2,552500	0,1	1,016618
2,554167	0,1	1,001741
2,555833	0,1	0,983316
2,557500	0,1	1,007122
2,559167	0,1	1,000922
2,560833	0,1	1,003850
2,562500	0,1	0,989415
2,564167	0,1	0,985362
2,565833	0,1	0,972271
2,567500	0,1	0,985782
2,569167	0,1	1,016275
2,570833	0,1	1,021967
2,572500	0,1	0,988367
2,574167	0,1	0,980276
2,575833	0,1	1,023608
2,577500	0,1	1,016923
2,579167	0,1	1,030245
2,580833	0,1	1,052076
2,582500	0,1	0,987084
2,584167	0,1	1,023199
2,585833	0,1	0,996344
2,587500	0,1	1,010996
2,589167	0,1	1,014870
2,590833	0,1	1,052179
2,592500	0,1	1,037703
2,594167	0,1	1,061561
2,595833	0,1	1,060041
2,597500	0,1	1,043273
2,599167	0,1	1,066144
2,600833	0,1	1,057697
2,602500	0,1	1,025848
2,604167	0,1	1,073294
2,605833	0,1	1,084158
2,607500	0,1	1,088670
2,609167	0,1	1,076470
2,610833	0,1	1,074252
2,612500	0,1	1,095650
2,614167	0,1	1,073661
2,615833	0,1	1,080695
2,617500	0,1	1,092133
2,619167	0,1	1,111665
2,620833	0,1	1,085088
2,622500	0,1	1,132373
2,624167	0,1	1,121065
2,625833	0,1	1,080464
2,627500	0,1	1,111955
2,629167	0,1	1,113610
2,630833	0,1	1,092671
2,632500	0,1	1,133020
2,634167	0,1	1,120824
2,635833	0,1	1,124289
2,637500	0,1	1,148694
2,639167	0,1	1,137377
2,640833	0,1	1,092964
2,642500	0,1	1,135255
2,644167	0,1	1,125230
2,645833	0,1	1,133728
2,647500	0,1	1,116196
2,649167	0,1	1,096185
2,650833	0,1	1,114016
2,652500	0,1	1,087152
2,654167	0,1	1,109152
2,655833	0,1	1,106277
2,657500	0,1	1,119012
2,659167	0,1	1,115439
2,660833	0,1	1,141950
2,662500	0,1	1,082757
2,664167	0,1	1,085209
2,665833	0,1	1,117597
2,667500	0,1	1,094370
2,669167	0,1	1,106630
2,670833	0,1	1,100819
2,672500	0,1	1,141006
2,674167	0,1	1,121486
2,675833	0,1	1,130751
2,677500	0,1	1,077898
2,679167	0,1	1,080576
2,680833	0,1	1,073837
2,682500	0,1	1,079227
2,684167	0,1	1,054832
2,685833	0,1	1,035645
2,687500	0,1	1,066722
2,689167	0,1	1,083689
2,690833	0,1	1,050197
2,692500	0,1	1,051651
2,694167	0,1	1,060345
2,695833	0,1	1,066908
2,697500	0,1	1,039404
2,699167	0,1	1,071304
2,700833	0,1	1,040466
2,702500	0,1	1,015236
2,704167	0,1	1,028074
2,705833	0,1	1,016981
2,707500	0,1	1,003495
2,709167	0,1	0,997867
2,710833	0,1	1,056218
2,712500	0,1	0,981287
2,714167	0,1	1,022848
2,715833	0,1	1,003570
2,717500	0,1	0,995687
2,719167	0,1	1,003147
2,720833	0,1	1,006603
2,722500	0,1	1,004392
2,724167	0,1	1,038873
2,725833	0,1	1,021506
2,727500	0,1	0,993887
2,729167	0,1	1,020392
2,730833	0,1	0,989019
2,732500	0,1	0,988709
2,734167	0,1	1,009237
2,735833	0,1	1,017284
2,737500	0,1	0,978469
2,739167	0,1	1,028180
2,740833	0,1	1,029898
2,742500	0,1	1,021503
2,744167	0,1	0,973360
2,745833	0,1	1,006719
2,747500	0,1	0,991293
2,749167	0,1	0,978398
2,750833	0,1	0,987833
2,752500	0,1	0,990587
2,754167	0,1	0,980733
2,755833	0,1	1,005015
2,757500	0,1	0,973403
2,759167	0,1	0,992471
2,760833	0,1	0,976161
2,762500	0,1	1,004016
2,764167	0,1	1,023849
2,765833	0,1	1,020857
2,767500	0,1	1,030713
2,769167	0,1	1,028844
2,770833	0,1	1,012945
2,772500	0,1	1,008655
2,774167	0,1	1,040975
2,775833	0,1	1,021750
2,777500	0,1	1,021444
2,779167	0,1	1,004551
2,780833	0,1	1,022739
2,782500	0,1	1,031537
2,784167	0,1	1,045259
2,785833	0,1	1,014118
2,787500	0,1	1,028653
2,789167	0,1	1,058934
2,790833	0,1	1,068971
2,792500	0,1	1,075647
2,794167	0,1	1,054058
2,795833	0,1	1,044441
2,797500	0,1	1,069900
2,799167	0,1	1,058108
2,800833	0,1	1,060390
2,802500	0,1	1,091252
2,804167	0,1	1,072727
2,805833	0,1	1,044322
2,807500	0,1	1,087382
2,809167	0,1	1,040226
2,810833	0,1	1,094478
2,812500	0,1	1,040279
2,814167	0,1	1,078521
2,815833	0,1	1,068318
2,817500	0,1	1,099577
2,819167	0,1	1,083577
2,820833	0,1	1,109144
2,822500	0,1	1,135438
2,824167	0,1	1,058424
2,825833	0,1	1,115183
2,827500	0,1	1,091093
2,829167	0,1	1,077818
2,830833	0,1	1,079936
2,832500	0,1	1,108735
2,834167	0,1	1,095723
2,835833	0,1	1,114662
2,837500	0,1	1,070217
2,839167	0,1	1,058586
2,840833	0,1	1,077293
2,842500	0,1	1,072839
2,844167	0,1	1,053363
2,845833	0,1	1,045321
2,847500	0,1	1,038690
2,849167	0,1	1,070779
2,850833	0,1	1,080522
2,852500	0,1	1,057714
2,854167	0,1	1,046148
2,855833	0,1	1,024684
2,857500	0,1	1,029726
2,859167	0,1	1,007140
2,860833	0,1	1,013455
2,862500	0,1	1,004851
2,864167	0,1	1,005084
2,865833	0,1	0,972180
2,867500	0,1	0,918228
2,869167	0,1	0,981075
2,870833	0,1	1,026610
2,872500	0,1	0,953013
2,874167	0,1	0,982733
2,875833	0,1	0,968190
2,877500	0,1	0,982263
2,879167	0,1	0,947254
2,880833	0,1	0,989001
2,882500	0,1	0,944430
2,884167	0,1	0,933237
2,885833	0,1	0,987775
2,887500	0,1	0,929310
2,889167	0,1	0,963149
2,890833	0,1	0,920456
2,892500	0,1	0,937462
2,894167	0,1	0,876370
2,895833	0,1	0,886604
2,897500	0,1	0,890533
2,899167	0,1	0,895648
2,900833	0,1	0,879458
2,902500	0,1	0,865663
2,904167	0,1	0,872653
2,905833	0,1	0,833601
2,907500	0,1	0,835945
2,909167	0,1	0,818899
2,910833	0,1	0,831960
2,912500	0,1	0,830923
2,914167	0,1	0,836081
2,915833	0,1	0,815999
2,917500	0,1	0,791563
2,919167	0,1	0,808138
2,920833	0,1	0,822804
2,922500	0,1	0,819414
2,924167	0,1	0,799496
2,925833	0,1	0,784549
2,927500	0,1	0,759150
2,929167	0,1	0,770805
2,930833	0,1	0,769238
2,932500	0,1	0,747766
2,934167	0,1	0,780642
2,935833	0,1	0,756962
2,937500	0,1	0,755415
2,939167	0,1	0,732388
2,940833	0,1	0,716770
2,942500	0,1	0,733218
2,944167	0,1	0,734695
2,945833	0,1	0,704118
2,947500	0,1	0,684518
2,949167	0,1	0,667514
2,950833	0,1	0,701579
2,952500	0,1	0,706100
2,954167	0,1	0,708272
2,955833	0,1	0,707628
2,957500	0,1	0,673520
2,959167	0,1	0,705041
2,960833	0,1	0,661202
2,962500	0,1	0,663070
2,964167	0,1	0,689021
2,965833	0,1	0,706166
2,967500	0,1	0,686944
2,969167	0,1	0,669425
2,970833	0,1	0,625115
2,972500	0,1	0,670883
2,974167	0,1	0,647251
2,975833	0,1	0,622865
2,977500	0,1	0,641990
2,979167	0,1	0,639988
2,980833	0,1	0,594378
2,982500	0,1	0,628375
2,984167	0,1	0,612899
2,985833	0,1	0,622690
2,987500	0,1	0,646117
2,989167	0,1	0,607119
2,990833	0,1	0,631841
2,992500	0,1	0,616712
2,994167	0,1	0,577708
2,995833	0,1	0,603181
2,997500	0,1	0,615506
2,999167	0,1	0,627387
3,000833	0,1	0,565320
3,002500	0,1	0,612311
3,004167	0,1	0,589122
3,005833	0,1	0,620825
3,007500	0,1	0,683383
3,009167	0,1	0,627475
3,010833	0,1	0,600615
3,012500	0,1	0,642318
3,014167	0,1	0,593106
3,015833	0,1	0,635887
3,017500	0,1	0,613580
3,019167	0,1	0,589307
3,020833	0,1	0,640564
3,022500	0,1	0,651533
3,024167	0,1	0,632956
3,025833	0,1	0,605127
3,027500	0,1	0,632556
3,029167	0,1	0,642986
3,030833	0,1	0,620949
3,032500	0,1	0,597964
3,034167	0,1	0,621820
3,035833	0,1	0,615510
3,037500	0,1	0,642615
3,039167	0,1	0,620431
3,040833	0,1	0,598920
3,042500	0,1	0,641433
3,044167	0,1	0,622530
3,045833	0,1	0,655229
3,047500	0,1	0,641336
3,049167	0,1	0,604413
3,050833	0,1	0,631911
3,052500	0,1	0,630373
3,054167	0,1	0,598334
3,055833	0,1	0,648152
3,057500	0,1	0,621906
3,059167	0,1	0,602124
3,060833	0,1	0,637822
3,062500	0,1	0,634149
3,064167	0,1	0,625569
3,065833	0,1	0,597210
3,067500	0,1	0,637584
3,069167	0,1	0,664075
3,070833	0,1	0,625043
3,072500	0,1	0,588243
3,074167	0,1	0,609501
3,075833	0,1	0,578055
3,077500	0,1	0,583222
3,079167	0,1	0,592099
3,080833	0,1	0,599061
3,082500	0,1	0,603648
3,084167	0,1	0,566675
3,085833	0,1	0,610101
3,087500	0,1	0,620645
3,089167	0,1	0,527667
3,090833	0,1	0,554671
3,092500	0,1	0,587581
3,094167	0,1	0,577608
3,095833	0,1	0,562582
3,097500	0,1	0,589129
3,099167	0,1	0,576634
3,100833	0,1	0,528539
3,102500	0,1	0,566088
3,104167	0,1	0,573847
3,105833	0,1	0,591892
3,107500	0,1	0,580573
3,109167	0,1	0,558237
3,110833	0,1	0,558252
3,112500	0,1	0,557311
3,114167	0,1	0,552911
3,115833	0,1	0,580105
3,117500	0,1	0,523681
3,119167	0,1	0,550180
3,120833	0,1	0,530907
3,122500	0,1	0,538029
3,124167	0,1	0,507728
3,125833	0,1	0,519981
3,127500	0,1	0,559125
3,129167	0,1	0,507953
3,130833	0,1	0,566836
3,132500	0,1	0,525425
3,134167	0,1	0,547124
3,135833	0,1	0,511376
3,137500	0,1	0,518418
3,139167	0,1	0,530348
3,140833	0,1	0,463727
3,142500	0,1	0,521369
3,144167	0,1	0,508847
3,145833	0,1	0,480034
3,147500	0,1	0,513146
3,149167	0,1	0,478322
3,150833	0,1	0,526493
3,152500	0,1	0,477475
3,154167	0,1	0,507237
3,155833	0,1	0,478027
3,157500	0,1	0,450809
3,159167	0,1	0,497142
3,160833	0,1	0,448366
3,162500	0,1	0,509144
3,164167	0,1	0,488007
3,165833	0,1	0,493874
3,167500	0,1	0,488278
3,169167	0,1	0,442718
3,170833	0,1	0,444421
3,172500	0,1	0,478492
3,174167	0,1	0,454366
3,175833	0,1	0,464614
3,177500	0,1	0,463021
3,179167	0,1	0,475700
3,180833	0,1	0,437814
3,182500	0,1	0,449737
3,184167	0,1	0,418764
3,185833	0,1	0,452255
3,187500	0,1	0,435033
3,189167	0,1	0,448142
3,190833	0,1	0,440154
3,192500	0,1	0,458648
3,194167	0,1	0,463087
3,195833	0,1	0,421933
3,197500	0,1	0,435802
3,199167	0,1	0,413903
3,200833	0,1	0,415970
3,202500	0,1	0,433092
3,204167	0,1	0,410014
3,205833	0,1	0,427347
3,207500	0,1	0,430814
3,209167	0,1	0,436152
3,210833	0,1	0,404162
3,212500	0,1	0,409526
3,214167	0,1	0,423352
3,215833	0,1	0,347367
3,217500	0,1	0,414689
3,219167	0,1	0,404617
3,220833	0,1	0,400988
3,222500	0,1	0,396294
3,224167	0,1	0,389010
3,225833	0,1	0,427954
3,227500	0,1	0,396049
3,229167	0,1	0,424712
3,230833	0,1	0,422306
3,232500	0,1	0,416180
3,234167	0,1	0,394649
3,235833	0,1	0,384183
3,237500	0,1	0,428434
3,239167	0,1	0,398823
3,240833	0,1	0,381390
3,242500	0,1	0,402752
3,244167	0,1	0,393367
3,245833	0,1	0,388235
3,247500	0,1	0,438500
3,249167	0,1	0,382721
3,250833	0,1	0,420844
3,252500	0,1	0,413603
3,254167	0,1	0,389985
3,255833	0,1	0,401837
3,257500	0,1	0,407375
3,259167	0,1	0,402322
3,260833	0,1	0,423230
3,262500	0,1	0,401561
3,264167	0,1	0,383511
3,265833	0,1	0,367085
3,267500	0,1	0,395499
3,269167	0,1	0,420519
3,270833	0,1	0,407294
3,272500	0,1	0,398862
3,274167	0,1	0,369875
3,275833	0,1	0,411386
3,277500	0,1	0,397115
3,279167	0,1	0,353400
3,280833	0,1	0,397516
3,282500	0,1	0,375647
3,284167	0,1	0,393702
3,285833	0,1	0,396739
3,287500	0,1	0,386576
3,289167	0,1	0,397569
3,290833	0,1	0,412605
3,292500	0,1	0,376374
3,294167	0,1	0,366548
3,295833	0,1	0,413972
3,297500	0,1	0,412773
3,299167	0,1	0,340117
3,300833	0,1	0,394392
3,302500	0,1	0,422342
3,304167	0,1	0,376887
3,305833	0,1	0,370008
3,307500	0,1	0,362758
3,309167	0,1	0,360903
3,310833	0,1	0,343140
3,312500	0,1	0,388332
3,314167	0,1	0,361575
3,315833	0,1	0,367800
3,317500	0,1	0,343569
3,319167	0,1	0,381936
3,320833	0,1	0,399313
3,322500	0,1	0,385527
3,324167	0,1	0,386486
3,325833	0,1	0,374435
3,327500	0,1	0,376582
3,329167	0,1	0,390729
3,330833	0,1	0,404731
3,332500	0,1	0,387594
3,334167	0,1	0,397863
3,335833	0,1	0,362067
3,337500	0,1	0,396275
3,339167	0,1	0,369578
3,340833	0,1	0,352988
3,342500	0,1	0,378392
3,344167	0,1	0,359300
3,345833	0,1	0,364851
3,347500	0,1	0,388041
3,349167	0,1	0,402088
3,350833	0,1	0,401329
3,352500	0,1	0,399318
3,354167	0,1	0,381018
3,355833	0,1	0,390195
3,357500	0,1	0,412440
3,359167	0,1	0,395380
3,360833	0,1	0,429221
3,362500	0,1	0,383680
3,364167	0,1	0,377150
3,365833	0,1	0,411868
3,367500	0,1	0,407084
3,369167	0,1	0,394299
3,370833	0,1	0,416197
3,372500	0,1	0,397849
3,374167	0,1	0,423741
3,375833	0,1	0,383329
3,377500	0,1	0,371888
3,379167	0,1	0,432831
3,380833	0,1	0,414710
3,382500	0,1	0,395828
3,384167	0,1	0,433348
3,385833	0,1	0,417069
3,387500	0,1	0,418571
3,389167	0,1	0,397477
3,390833	0,1	0,426536
3,392500	0,1	0,371681
3,394167	0,1	0,379856
3,395833	0,1	0,376211
3,397500	0,1	0,418398
3,399167	0,1	0,410327
3,400833	0,1	0,393359
3,402500	0,1	0,414428
3,404167	0,1	0,414859
3,405833	0,1	0,432306
3,407500	0,1	0,430136
3,409167	0,1	0,428870
3,410833	0,1	0,434788
3,412500	0,1	0,437660
3,414167	0,1	0,449596
3,415833	0,1	0,401885
3,417500	0,1	0,404658
3,419167	0,1	0,431265
3,420833	0,1	0,414754
3,422500	0,1	0,446533
3,424167	0,1	0,396776
3,425833	0,1	0,431123
3,427500	0,1	0,412273
3,429167	0,1	0,422217
3,430833	0,1	0,424129
3,432500	0,1	0,439961
3,434167	0,1	0,468059
3,435833	0,1	0,420571
3,437500	0,1	0,482777
3,439167	0,1	0,433720
3,440833	0,1	0,434626
3,442500	0,1	0,432268
3,444167	0,1	0,452149
3,445833	0,1	0,422575
3,447500	0,1	0,421388
3,449167	0,1	0,446348
3,450833	0,1	0,403139
3,452500	0,1	0,454348
3,454167	0,1	0,415949
3,455833	0,1	0,419859
3,457500	0,1	0,438160
3,459167	0,1	0,439300
3,460833	0,1	0,426229
3,462500	0,1	0,455053
3,464167	0,1	0,416243
3,465833	0,1	0,401931
3,467500	0,1	0,432225
3,469167	0,1	0,440150
3,470833	0,1	0,457894
3,472500	0,1	0,423898
3,474167	0,1	0,424883
3,475833	0,1	0,415700
3,477500	0,1	0,425068
3,479167	0,1	0,457356
3,480833	0,1	0,414607
3,482500	0,1	0,490471
3,484167	0,1	0,430150
3,485833	0,1	0,414600
3,487500	0,1	0,437198
3,489167	0,1	0,483663
3,490833	0,1	0,428380
3,492500	0,1	0,447912
3,494167	0,1	0,471480
3,495833	0,1	0,500738
3,497500	0,1	0,439499
3,499167	0,1	0,470376
3,500833	0,1	0,448218
3,502500	0,1	0,471721
3,504167	0,1	0,432440
3,505833	0,1	0,458962
3,507500	0,1	0,435221
3,509167	0,1	0,417931
3,510833	0,1	0,443880
3,512500	0,1	0,449301
3,514167	0,1	0,466567
3,515833	0,1	0,453796
3,517500	0,1	0,458760
3,519167	0,1	0,455521
3,520833	0,1	0,444349
3,522500	0,1	0,468203
3,524167	0,1	0,443598
3,525833	0,1	0,442804
3,527500	0,1	0,462842
3,529167	0,1	0,458872
3,530833	0,1	0,460256
3,532500	0,1	0,467324
3,534167	0,1	0,457749
3,535833	0,1	0,453224
3,537500	0,1	0,471865
3,539167	0,1	0,463200
3,540833	0,1	0,471628
3,542500	0,1	0,443818
3,544167	0,1	0,428425
3,545833	0,1	0,450785
3,547500	0,1	0,412213
3,549167	0,1	0,446990
3,550833	0,1	0,442762
3,552500	0,1	0,468279
3,554167	0,1	0,437156
3,555833	0,1	0,489037
3,557500	0,1	0,454150
3,559167	0,1	0,426877
3,560833	0,1	0,430169
3,562500	0,1	0,458056
3,564167	0,1	0,462868
3,565833	0,1	0,459812
3,567500	0,1	0,426792
3,569167	0,1	0,462455
3,570833	0,1	0,416834
3,572500	0,1	0,428125
3,574167	0,1	0,451745
3,575833	0,1	0,446574
3,577500	0,1	0,434574
3,579167	0,1	0,464741
3,580833	0,1	0,445769
3,582500	0,1	0,456401
3,584167	0,1	0,430361
3,585833	0,1	0,452718
3,587500	0,1	0,437872
3,589167	0,1	0,420138
3,590833	0,1	0,444360
3,592500	0,1	0,467449
3,594167	0,1	0,453961
3,595833	0,1	0,432643
3,597500	0,1	0,464499
3,599167	0,1	0,458731
3,600833	0,1	0,449023
3,602500	0,1	0,459719
3,604167	0,1	0,427675
3,605833	0,1	0,454943
3,607500	0,1	0,474889
3,609167	0,1	0,425464
3,610833	0,1	0,443128
3,612500	0,1	0,427323
3,614167	0,1	0,450051
3,615833	0,1	0,445144
3,617500	0,1	0,422279
3,619167	0,1	0,432066
3,620833	0,1	0,434090
3,622500	0,1	0,445707
3,624167	0,1	0,464099
3,625833	0,1	0,441685
3,627500	0,1	0,432661
3,629167	0,1	0,392403
3,630833	0,1	0,426371
3,632500	0,1	0,418683
3,634167	0,1	0,444469
3,635833	0,1	0,429682
3,637500	0,1	0,438053
3,639167	0,1	0,386181
3,640833	0,1	0,418585
3,642500	0,1	0,419751
3,644167	0,1	0,437472
3,645833	0,1	0,429953
3,647500	0,1	0,418551
3,649167	0,1	0,434533
3,650833	0,1	0,423160
3,652500	0,1	0,409172
3,654167	0,1	0,452994
3,655833	0,1	0,375978
3,657500	0,1	0,398078
3,659167	0,1	0,405356
3,660833	0,1	0,380672
3,662500	0,1	0,413617
3,664167	0,1	0,412368
3,665833	0,1	0,416123
3,667500	0,1	0,421410
3,669167	0,1	0,419565
3,670833	0,1	0,385151
3,672500	0,1	0,420005
3,674167	0,1	0,373318
3,675833	0,1	0,425963
3,677500	0,1	0,446501
3,679167	0,1	0,429070
3,680833	0,1	0,429252
3,682500	0,1	0,412743
3,684167	0,1	0,378632
3,685833	0,1	0,428007
3,687500	0,1	0,434242
3,689167	0,1	0,439854
3,690833	0,1	0,420050
3,692500	0,1	0,435822
3,694167	0,1	0,413848
3,695833	0,1	0,414781
3,697500	0,1	0,427426
3,699167	0,1	0,382685
3,700833	0,1	0,409163
3,702500	0,1	0,423853
3,704167	0,1	0,436283
3,705833	0,1	0,402175
3,707500	0,1	0,463979
3,709167	0,1	0,409159
3,710833	0,1	0,435100
3,712500	0,1	0,415409
3,714167	0,1	0,483973
3,715833	0,1	0,416382
3,717500	0,1	0,467977
3,719167	0,1	0,443728
3,720833	0,1	0,457808
3,722500	0,1	0,465336
3,724167	0,1	0,437285
3,725833	0,1	0,461266
3,727500	0,1	0,438627
3,729167	0,1	0,476009
3,730833	0,1	0,483324
3,732500	0,1	0,465397
3,734167	0,1	0,449252
3,735833	0,1	0,502537
3,737500	0,1	0,531672
3,739167	0,1	0,493536
3,740833	0,1	0,454872
3,742500	0,1	0,488822
3,744167	0,1	0,519353
3,745833	0,1	0,500435
3,747500	0,1	0,505880
3,749167	0,1	0,499179
3,750833	0,1	0,508457
3,752500	0,1	0,507336
3,754167	0,1	0,559087
3,755833	0,1	0,481116
3,757500	0,1	0,572778
3,759167	0,1	0,538224
3,760833	0,1	0,570986
3,762500	0,1	0,540581
3,764167	0,1	0,549447
3,765833	0,1	0,561251
3,767500	0,1	0,580124
3,769167	0,1	0,563760
3,770833	0,1	0,558491
3,772500	0,1	0,579075
3,774167	0,1	0,553229
3,775833	0,1	0,622417
3,777500	0,1	0,611293
3,779167	0,1	0,607846
3,780833	0,1	0,602985
3,782500	0,1	0,559772
3,784167	0,1	0,643502
3,785833	0,1	0,614464
3,787500	0,1	0,627769
3,789167	0,1	0,605604
3,790833	0,1	0,674300
3,792500	0,1	0,643236
3,794167	0,1	0,630339
3,795833	0,1	0,624702
3,797500	0,1	0,660937
3,799167	0,1	0,656894
3,800833	0,1	0,650137
3,802500	0,1	0,635441
3,804167	0,1	0,665785
3,805833	0,1	0,695766
3,807500	0,1	0,672778
3,809167	0,1	0,654208
3,810833	0,1	0,700834
3,812500	0,1	0,701029
3,814167	0,1	0,668338
3,815833	0,1	0,692220
3,817500	0,1	0,674415
3,819167	0,1	0,682146
3,820833	0,1	0,671176
3,822500	0,1	0,704778
3,824167	0,1	0,645415
3,825833	0,1	0,676982
3,827500	0,1	0,695794
3,829167	0,1	0,678284
3,830833	0,1	0,716757
3,832500	0,1	0,706611
3,834167	0,1	0,687352
3,835833	0,1	0,749862
3,837500	0,1	0,622319
3,839167	0,1	0,693258
3,840833	0,1	0,679701
3,842500	0,1	0,650605
3,844167	0,1	0,727515
3,845833	0,1	0,694994
3,847500	0,1	0,698393
3,849167	0,1	0,707767
3,850833	0,1	0,715281
3,852500	0,1	0,696409
3,854167	0,1	0,675500
3,855833	0,1	0,670655
3,857500	0,1	0,669661
3,859167	0,1	0,651502
3,860833	0,1	0,680614
3,862500	0,1	0,658410
3,864167	0,1	0,659512
3,865833	0,1	0,689026
3,867500	0,1	0,649478
3,869167	0,1	0,686317
3,870833	0,1	0,632209
3,872500	0,1	0,712517
3,874167	0,1	0,647183
3,875833	0,1	0,677993
3,877500	0,1	0,651004
3,879167	0,1	0,664515
3,880833	0,1	0,653968
3,882500	0,1	0,636286
3,884167	0,1	0,656077
3,885833	0,1	0,641943
3,887500	0,1	0,643484
3,889167	0,1	0,571232
3,890833	0,1	0,619748
3,892500	0,1	0,585553
3,894167	0,1	0,647671
3,895833	0,1	0,611484
3,897500	0,1	0,584887
3,899167	0,1	0,599240
3,900833	0,1	0,630861
3,902500	0,1	0,611496
3,904167	0,1	0,591257
3,905833	0,1	0,602538
3,907500	0,1	0,540182
3,909167	0,1	0,583985
3,910833	0,1	0,590384
3,912500	0,1	0,605337
3,914167	0,1	0,543073
3,915833	0,1	0,544310
3,917500	0,1	0,548011
3,919167	0,1	0,570620
3,920833	0,1	0,551756
3,922500	0,1	0,590377
3,924167	0,1	0,536110
3,925833	0,1	0,523854
3,927500	0,1	0,545135
3,929167	0,1	0,550533
3,930833	0,1	0,528389
3,932500	0,1	0,524166
3,934167	0,1	0,492539
3,935833	0,1	0,557905
3,937500	0,1	0,552600
3,939167	0,1	0,574618
3,940833	0,1	0,512839
3,942500	0,1	0,508849
3,944167	0,1	0,509418
3,945833	0,1	0,478288
3,947500	0,1	0,501365
3,949167	0,1	0,529094
3,950833	0,1	0,465372
3,952500	0,1	0,531039
3,954167	0,1	0,525107
3,955833	0,1	0,469785
3,957500	0,1	0,507660
3,959167	0,1	0,461350
3,960833	0,1	0,451862
3,962500	0,1	0,482181
3,964167	0,1	0,471639
3,965833	0,1	0,473180
3,967500	0,1	0,477306
3,969167	0,1	0,488314
3,970833	0,1	0,439223
3,972500	0,1	0,480958
3,974167	0,1	0,457356
3,975833	0,1	0,433070
3,977500	0,1	0,469859
3,979167	0,1	0,480326
3,980833	0,1	0,443656
3,982500	0,1	0,432443
3,984167	0,1	0,474075
3,985833	0,1	0,459213
3,987500	0,1	0,469646
3,989167	0,1	0,441097
3,990833	0,1	0,428447
3,992500	0,1	0,499494
3,994167	0,1	0,417487
3,995833	0,1	0,407883
3,997500	0,1	0,452481
3,999167	0,1	0,400400
4,000833	0,1	0,446234
4,002500	0,1	0,429539
4,004167	0,1	0,418411
4,005833	0,1	0,446609
4,007500	0,1	0,442161
4,009167	0,1	0,434889
4,010833	0,1	0,430399
4,012500	0,1	0,435977
4,014167	0,1	0,409066
4,015833	0,1	0,416276
4,017500	0,1	0,384452
4,019167	0,1	0,427919
4,020833	0,1	0,436928
4,022500	0,1	0,435314
4,024167	0,1	0,465830
4,025833	0,1	0,460793
4,027500	0,1	0,442406
4,029167	0,1	0,422060
4,030833	0,1	0,440113
4,032500	0,1	0,432465
4,034167	0,1	0,488802
4,035833	0,1	0,480956
4,037500	0,1	0,486807
4,039167	0,1	0,405943
4,040833	0,1	0,465584
4,042500	0,1	0,439643
4,044167	0,1	0,429571
4,045833	0,1	0,450402
4,047500	0,1	0,467067
4,049167	0,1	0,461602
4,050833	0,1	0,485939
4,052500	0,1	0,525963
4,054167	0,1	0,463069
4,055833	0,1	0,446468
4,057500	0,1	0,508634
4,059167	0,1	0,505996
4,060833	0,1	0,496477
4,062500	0,1	0,489922
4,064167	0,1	0,506761
4,065833	0,1	0,568586
4,067500	0,1	0,576829
4,069167	0,1	0,545241
4,070833	0,1	0,544809
4,072500	0,1	0,566460
4,074167	0,1	0,582224
4,075833	0,1	0,567794
4,077500	0,1	0,514511
4,079167	0,1	0,589853
4,080833	0,1	0,584716
4,082500	0,1	0,584568
4,084167	0,1	0,557631
4,085833	0,1	0,566721
4,087500	0,1	0,646703
4,089167	0,1	0,630762
4,090833	0,1	0,608163
4,092500	0,1	0,621268
4,094167	0,1	0,678116
4,095833	0,1	0,659383
4,097500	0,1	0,677575
4,099167	0,1	0,659954
4,100833	0,1	0,658294
4,102500	0,1	0,752280
4,104167	0,1	0,721389
4,105833	0,1	0,702839
4,107500	0,1	0,727879
4,109167	0,1	0,777648
4,110833	0,1	0,703274
4,112500	0,1	0,744751
4,114167	0,1	0,781845
4,115833	0,1	0,800056
4,117500	0,1	0,809663
4,119167	0,1	0,814936
4,120833	0,1	0,838850
4,122500	0,1	0,837034
4,124167	0,1	0,824670
4,125833	0,1	0,858433
4,127500	0,1	0,860488
4,129167	0,1	0,872923
4,130833	0,1	0,873105
4,132500	0,1	0,946385
4,134167	0,1	0,936357
4,135833	0,1	0,890465
4,137500	0,1	0,959581
4,139167	0,1	0,910393
4,140833	0,1	0,933135
4,142500	0,1	0,960122
4,144167	0,1	0,950446
4,145833	0,1	0,997830
4,147500	0,1	0,993905
4,149167	0,1	0,982465
4,150833	0,1	0,992725
4,152500	0,1	1,007090
4,154167	0,1	1,024633
4,155833	0,1	1,019525
4,157500	0,1	1,064752
4,159167	0,1	1,018956
4,160833	0,1	1,075891
4,162500	0,1	1,062122
4,164167	0,1	1,046106
4,165833	0,1	1,096369
4,167500	0,1	1,060479
4,169167	0,1	1,099364
4,170833	0,1	1,123768
4,172500	0,1	1,117145
4,174167	0,1	1,126411
4,175833	0,1	1,106303
4,177500	0,1	1,121477
4,179167	0,1	1,143188
4,180833	0,1	1,130231
4,182500	0,1	1,157565
4,184167	0,1	1,139556
4,185833	0,1	1,183373
4,187500	0,1	1,169316
4,189167	0,1	1,136150
4,190833	0,1	1,137914
4,192500	0,1	1,197748
4,194167	0,1	1,181514
4,195833	0,1	1,163500
4,197500	0,1	1,198873
4,199167	0,1	1,196177
4,200833	0,1	1,188025
4,202500	0,1	1,216535
4,204167	0,1	1,207447
4,205833	0,1	1,189550
4,207500	0,1	1,172473
4,209167	0,1	1,192536
4,210833	0,1	1,199762
4,212500	0,1	1,162622
4,214167	0,1	1,210487
4,215833	0,1	1,203046
4,217500	0,1	1,182917
4,219167	0,1	1,189015
4,220833	0,1	1,198698
4,222500	0,1	1,227454
4,224167	0,1	1,186860
4,225833	0,1	1,181100
4,227500	0,1	1,212892
4,229167	0,1	1,161398
4,230833	0,1	1,159739
4,232500	0,1	1,181091
4,234167	0,1	1,168952
4,235833	0,1	1,179218
4,237500	0,1	1,178459
4,239167	0,1	1,171830
4,240833	0,1	1,195704
4,242500	0,1	1,186207
4,244167	0,1	1,160567
4,245833	0,1	1,152876
4,247500	0,1	1,149191
4,249167	0,1	1,145063
4,250833	0,1	1,175983
4,252500	0,1	1,171592
4,254167	0,1	1,111999
4,255833	0,1	1,131693
4,257500	0,1	1,159148
4,259167	0,1	1,150940
4,260833	0,1	1,114985
4,262500	0,1	1,118018
4,264167	0,1	1,118664
4,265833	0,1	1,154628
4,267500	0,1	1,144833
4,269167	0,1	1,108348
4,270833	0,1	1,130045
4,272500	0,1	1,144833
4,274167	0,1	1,124431
4,275833	0,1	1,119614
4,277500	0,1	1,157450
4,279167	0,1	1,128828
4,280833	0,1	1,076500
4,282500	0,1	1,085282
4,284167	0,1	1,088925
4,285833	0,1	1,086345
4,287500	0,1	1,090745
4,289167	0,1	1,099018
4,290833	0,1	1,114562
4,292500	0,1	1,055787
4,294167	0,1	1,090438
4,295833	0,1	1,051150
4,297500	0,1	1,095253
4,299167	0,1	1,067350
4,300833	0,1	1,092614
4,302500	0,1	1,012626
4,304167	0,1	1,035586
4,305833	0,1	1,053023
4,307500	0,1	1,061644
4,309167	0,1	1,063816
4,310833	0,1	1,034323
4,312500	0,1	1,011672
4,314167	0,1	1,025737
4,315833	0,1	1,040942
4,317500	0,1	1,041175
4,319167	0,1	0,994953
4,320833	0,1	1,041393
4,322500	0,1	1,048624
4,324167	0,1	0,982118
4,325833	0,1	0,998587
4,327500	0,1	0,988500
4,329167	0,1	0,999113
4,330833	0,1	0,979879
4,332500	0,1	0,964754
4,334167	0,1	0,987154
4,335833	0,1	0,994426
4,337500	0,1	0,983943
4,339167	0,1	0,988220
4,340833	0,1	0,992320
4,342500	0,1	0,963695
4,344167	0,1	0,962398
4,345833	0,1	0,984392
4,347500	0,1	0,966405
4,349167	0,1	0,948798
4,350833	0,1	0,947379
4,352500	0,1	0,952435
4,354167	0,1	0,995079
4,355833	0,1	0,952086
4,357500	0,1	0,954200
4,359167	0,1	0,960062
4,360833	0,1	0,970619
4,362500	0,1	0,968099
4,364167	0,1	0,970678
4,365833	0,1	0,965918
4,367500	0,1	0,911628
4,369167	0,1	0,921336
4,370833	0,1	0,900881
4,372500	0,1	0,894382
4,374167	0,1	0,918943
4,375833	0,1	0,920475
4,377500	0,1	0,901898
4,379167	0,1	0,880907
4,380833	0,1	0,903585
4,382500	0,1	0,902405
4,384167	0,1	0,902300
4,385833	0,1	0,892958
4,387500	0,1	0,836921
4,389167	0,1	0,845642
4,390833	0,1	0,866933
4,392500	0,1	0,905698
4,394167	0,1	0,903659
4,395833	0,1	0,879495
4,397500	0,1	0,872339
4,399167	0,1	0,872856
4,400833	0,1	0,879667
4,402500	0,1	0,812248
4,404167	0,1	0,845999
4,405833	0,1	0,850733
4,407500	0,1	0,838507
4,409167	0,1	0,865937
4,410833	0,1	0,794248
4,412500	0,1	0,850269
4,414167	0,1	0,832817
4,415833	0,1	0,820519
4,417500	0,1	0,786151
4,419167	0,1	0,804615
4,420833	0,1	0,776140
4,422500	0,1	0,821193
4,424167	0,1	0,825717
4,425833	0,1	0,784568
4,427500	0,1	0,802441
4,429167	0,1	0,793827
4,430833	0,1	0,753391
4,432500	0,1	0,784520
4,434167	0,1	0,764712
4,435833	0,1	0,763574
4,437500	0,1	0,754504
4,439167	0,1	0,775427
4,440833	0,1	0,773078
4,442500	0,1	0,750218
4,444167	0,1	0,744510
4,445833	0,1	0,747885
4,447500	0,1	0,740250
4,449167	0,1	0,703742
4,450833	0,1	0,730975
4,452500	0,1	0,708015
4,454167	0,1	0,707588
4,455833	0,1	0,718576
4,457500	0,1	0,674422
4,459167	0,1	0,698793
4,460833	0,1	0,647991
4,462500	0,1	0,696194
4,464167	0,1	0,718557
4,465833	0,1	0,699814
4,467500	0,1	0,683291
4,469167	0,1	0,688865
4,470833	0,1	0,669976
4,472500	0,1	0,646862
4,474167	0,1	0,650724
4,475833	0,1	0,691937
4,477500	0,1	0,635355
4,479167	0,1	0,634975
4,480833	0,1	0,638786
4,482500	0,1	0,624260
4,484167	0,1	0,588223
4,485833	0,1	0,604840
4,487500	0,1	0,636386
4,489167	0,1	0,608164
4,490833	0,1	0,642020
4,492500	0,1	0,598905
4,494167	0,1	0,629533
4,495833	0,1	0,650292
4,497500	0,1	0,608096
4,499167	0,1	0,596541
4,500833	0,1	0,592744
4,502500	0,1	0,588453
4,504167	0,1	0,559474
4,505833	0,1	0,583530
4,507500	0,1	0,581235
4,509167	0,1	0,557484
4,510833	0,1	0,552138
4,512500	0,1	0,580766
4,514167	0,1	0,531377
4,515833	0,1	0,535857
4,517500	0,1	0,523875
4,519167	0,1	0,518937
4,520833	0,1	0,557801
4,522500	0,1	0,514490
4,524167	0,1	0,548889
4,525833	0,1	0,514637
4,527500	0,1	0,548851
4,529167	0,1	0,544442
4,530833	0,1	0,538439
4,532500	0,1	0,506903
4,534167	0,1	0,487252
4,535833	0,1	0,530125
4,537500	0,1	0,491493
4,539167	0,1	0,489900
4,540833	0,1	0,483566
4,542500	0,1	0,505196
4,544167	0,1	0,506181
4,545833	0,1	0,513763
4,547500	0,1	0,521881
4,549167	0,1	0,472602
4,550833	0,1	0,471472
4,552500	0,1	0,458294
4,554167	0,1	0,477412
4,555833	0,1	0,497704
4,557500	0,1	0,485893
4,559167	0,1	0,453898
4,560833	0,1	0,435350
4,562500	0,1	0,460067
4,564167	0,1	0,450375
4,565833	0,1	0,456869
4,567500	0,1	0,418035
4,569167	0,1	0,445375
4,570833	0,1	0,456114
4,572500	0,1	0,462833
4,574167	0,1	0,426005
4,575833	0,1	0,402732
4,577500	0,1	0,456989
4,579167	0,1	0,436345
4,580833	0,1	0,448491
4,582500	0,1	0,451093
4,584167	0,1	0,441420
4,585833	0,1	0,412824
4,587500	0,1	0,417510
4,589167	0,1	0,421005
4,590833	0,1	0,439195
4,592500	0,1	0,406600
4,594167	0,1	0,429049
4,595833	0,1	0,401792
4,597500	0,1	0,386862
4,599167	0,1	0,445738
4,600833	0,1	0,432040
4,602500	0,1	0,451383
4,604167	0,1	0,410488
4,605833	0,1	0,405980
4,607500	0,1	0,375749
4,609167	0,1	0,356607
4,610833	0,1	0,362320
4,612500	0,1	0,429171
4,614167	0,1	0,355951
4,615833	0,1	0,392191
4,617500	0,1	0,368716
4,619167	0,1	0,385130
4,620833	0,1	0,406631
4,622500	0,1	0,318754
4,624167	0,1	0,394214
4,625833	0,1	0,380660
4,627500	0,1	0,343456
4,629167	0,1	0,378126
4,630833	0,1	0,387981
4,632500	0,1	0,387635
4,634167	0,1	0,353792
4,635833	0,1	0,372571
4,637500	0,1	0,355373
4,639167	0,1	0,351744
4,640833	0,1	0,347614
4,642500	0,1	0,366479
4,644167	0,1	0,357225
4,645833	0,1	0,377289
4,647500	0,1	0,331713
4,649167	0,1	0,367709
4,650833	0,1	0,364497
4,652500	0,1	0,350374
4,654167	0,1	0,390333
4,655833	0,1	0,308098
4,657500	0,1	0,367616
4,659167	0,1	0,341869
4,660833	0,1	0,329387
4,662500	0,1	0,324075
4,664167	0,1	0,370384
4,665833	0,1	0,363155
4,667500	0,1	0,357140
4,669167	0,1	0,373860
4,670833	0,1	0,387523
4,672500	0,1	0,316384
4,674167	0,1	0,341972
4,675833	0,1	0,363094
4,677500	0,1	0,315976
4,679167	0,1	0,344277
4,680833	0,1	0,302507
4,682500	0,1	0,306572
4,684167	0,1	0,335414
4,685833	0,1	0,344173
4,687500	0,1	0,357352
4,689167	0,1	0,351932
4,690833	0,1	0,328612
4,692500	0,1	0,388637
4,694167	0,1	0,317407
4,695833	0,1	0,348569
4,697500	0,1	0,294510
4,699167	0,1	0,304342
4,700833	0,1	0,318646
4,702500	0,1	0,345211
4,704167	0,1	0,352037
4,705833	0,1	0,325717
4,707500	0,1	0,333005
4,709167	0,1	0,303787
4,710833	0,1	0,323286
4,712500	0,1	0,307059
4,714167	0,1	0,330992
4,715833	0,1	0,290237
4,717500	0,1	0,315477
4,719167	0,1	0,306251
4,720833	0,1	0,312748
4,722500	0,1	0,275850
4,724167	0,1	0,327547
4,725833	0,1	0,284013
4,727500	0,1	0,336324
4,729167	0,1	0,279264
4,730833	0,1	0,345712
4,732500	0,1	0,303525
4,734167	0,1	0,334374
4,735833	0,1	0,338905
4,737500	0,1	0,334405
4,739167	0,1	0,294530
4,740833	0,1	0,311156
4,742500	0,1	0,302548
4,744167	0,1	0,322695
4,745833	0,1	0,303411
4,747500	0,1	0,323448
4,749167	0,1	0,328876
4,750833	0,1	0,286777
4,752500	0,1	0,274370
4,754167	0,1	0,287890
4,755833	0,1	0,339678
4,757500	0,1	0,275641
4,759167	0,1	0,340559
4,760833	0,1	0,329361
4,762500	0,1	0,307944
4,764167	0,1	0,296509
4,765833	0,1	0,318884
4,767500	0,1	0,327797
4,769167	0,1	0,295360
4,770833	0,1	0,319955
4,772500	0,1	0,277490
4,774167	0,1	0,293390
4,775833	0,1	0,250171
4,777500	0,1	0,349276
4,779167	0,1	0,329093
4,780833	0,1	0,329655
4,782500	0,1	0,318194
4,784167	0,1	0,346506
4,785833	0,1	0,289381
4,787500	0,1	0,264121
4,789167	0,1	0,320484
4,790833	0,1	0,292945
4,792500	0,1	0,255966
4,794167	0,1	0,322391
4,795833	0,1	0,275343
4,797500	0,1	0,324621
4,799167	0,1	0,334908
4,800833	0,1	0,312296
4,802500	0,1	0,293719
4,804167	0,1	0,307858
4,805833	0,1	0,325617
4,807500	0,1	0,300404
4,809167	0,1	0,335336
4,810833	0,1	0,321712
4,812500	0,1	0,334907
4,814167	0,1	0,339658
4,815833	0,1	0,311702
4,817500	0,1	0,334507
4,819167	0,1	0,284739
4,820833	0,1	0,285047
4,822500	0,1	0,308258
4,824167	0,1	0,269062
4,825833	0,1	0,324830
4,827500	0,1	0,291952
4,829167	0,1	0,314671
4,830833	0,1	0,306413
4,832500	0,1	0,277834
4,834167	0,1	0,311043
4,835833	0,1	0,286877
4,837500	0,1	0,289043
4,839167	0,1	0,336946
4,840833	0,1	0,300808
4,842500	0,1	0,287788
4,844167	0,1	0,278848
4,845833	0,1	0,286117
4,847500	0,1	0,281585
4,849167	0,1	0,313164
4,850833	0,1	0,309633
4,852500	0,1	0,280627
4,854167	0,1	0,276432
4,855833	0,1	0,277584
4,857500	0,1	0,286897
4,859167	0,1	0,288831
4,860833	0,1	0,273615
4,862500	0,1	0,297307
4,864167	0,1	0,311880
4,865833	0,1	0,289881
4,867500	0,1	0,315261
4,869167	0,1	0,303054
4,870833	0,1	0,319285
4,872500	0,1	0,286343
4,874167	0,1	0,271926
4,875833	0,1	0,279650
4,877500	0,1	0,334897
4,879167	0,1	0,300086
4,880833	0,1	0,277165
4,882500	0,1	0,310562
4,884167	0,1	0,326803
4,885833	0,1	0,302660
4,887500	0,1	0,254143
4,889167	0,1	0,312542
4,890833	0,1	0,308610
4,892500	0,1	0,302548
4,894167	0,1	0,297448
4,895833	0,1	0,274585
4,897500	0,1	0,315388
4,899167	0,1	0,321436
4,900833	0,1	0,313715
4,902500	0,1	0,293183
4,904167	0,1	0,244268
4,905833	0,1	0,321311
4,907500	0,1	0,270943
4,909167	0,1	0,292501
4,910833	0,1	0,296506
4,912500	0,1	0,253497
4,914167	0,1	0,352573
4,915833	0,1	0,294480
4,917500	0,1	0,303910
4,919167	0,1	0,239950
4,920833	0,1	0,279372
4,922500	0,1	0,317532
4,924167	0,1	0,308936
4,925833	0,1	0,284112
4,927500	0,1	0,305569
4,929167	0,1	0,298171
4,930833	0,1	0,299191
4,932500	0,1	0,293850
4,934167	0,1	0,260582
4,935833	0,1	0,298992
4,937500	0,1	0,275631
4,939167	0,1	0,319144
4,940833	0,1	0,292860
4,942500	0,1	0,326420
4,944167	0,1	0,295144
4,945833	0,1	0,279308
4,947500	0,1	0,312813
4,949167	0,1	0,307026
4,950833	0,1	0,295031
4,952500	0,1	0,276274
4,954167	0,1	0,276805
4,955833	0,1	0,322179
4,957500	0,1	0,321358
4,959167	0,1	0,296805
4,960833	0,1	0,291405
4,962500	0,1	0,301575
4,964167	0,1	0,263451
4,965833	0,1	0,283646
4,967500	0,1	0,247939
4,969167	0,1	0,276370
4,970833	0,1	0,243270
4,972500	0,1	0,268669
4,974167	0,1	0,292204
4,975833	0,1	0,290116
4,977500	0,1	0,305570
4,979167	0,1	0,262996
4,980833	0,1	0,298426
4,982500	0,1	0,296479
4,984167	0,1	0,257199
4,985833	0,1	0,236103
4,987500	0,1	0,312749
4,989167	0,1	0,302116
4,990833	0,1	0,285719
4,992500	0,1	0,282067
4,994167	0,1	0,307634
4,995833	0,1	0,270508
4,997500	0,1	0,280775
4,999167	0,1	0,279783
5,000833	0,1	0,312278
5,002500	0,1	0,274454
5,004167	0,1	0,280267
5,005833	0,1	0,274099
5,007500	0,1	0,281663
5,009167	0,1	0,264895
5,010833	0,1	0,282628
5,012500	0,1	0,301465
5,014167	0,1	0,288560
5,015833	0,1	0,283676
5,017500	0,1	0,277933
5,019167	0,1	0,267470
5,020833	0,1	0,286782
5,022500	0,1	0,272890
5,024167	0,1	0,296581
5,025833	0,1	0,251404
5,027500	0,1	0,288043
5,029167	0,1	0,247617
5,030833	0,1	0,245920
5,032500	0,1	0,286807
5,034167	0,1	0,289849
5,035833	0,1	0,291272
5,037500	0,1	0,306029
5,039167	0,1	0,297203
5,040833	0,1	0,253390
5,042500	0,1	0,292628
5,044167	0,1	0,274877
5,045833	0,1	0,289872
5,047500	0,1	0,316706
5,049167	0,1	0,276707
5,050833	0,1	0,260064
5,052500	0,1	0,241012
5,054167	0,1	0,321256
5,055833	0,1	0,276600
5,057500	0,1	0,261888
5,059167	0,1	0,229905
5,060833	0,1	0,282586
5,062500	0,1	0,291937
5,064167	0,1	0,289580
5,065833	0,1	0,243247
5,067500	0,1	0,252811
5,069167	0,1	0,259980
5,070833	0,1	0,278976
5,072500	0,1	0,283272
5,074167	0,1	0,267040
5,075833	0,1	0,275596
5,077500	0,1	0,261351
5,079167	0,1	0,297002
5,080833	0,1	0,295913
5,082500	0,1	0,308147
5,084167	0,1	0,285642
5,085833	0,1	0,249416
5,087500	0,1	0,247798
5,089167	0,1	0,288227
5,090833	0,1	0,305330
5,092500	0,1	0,271903
5,094167	0,1	0,260682
5,095833	0,1	0,301514
5,097500	0,1	0,283949
5,099167	0,1	0,258778
5,100833	0,1	0,266417
5,102500	0,1	0,286246
5,104167	0,1	0,296152
5,105833	0,1	0,271739
5,107500	0,1	0,295717
5,109167	0,1	0,260604
5,110833	0,1	0,267062
5,112500	0,1	0,268540
5,114167	0,1	0,269076
5,115833	0,1	0,272002
5,117500	0,1	0,274687
5,119167	0,1	0,284023
5,120833	0,1	0,307392
5,122500	0,1	0,278367
5,124167	0,1	0,227548
5,125833	0,1	0,250743
5,127500	0,1	0,246832
5,129167	0,1	0,262231
5,130833	0,1	0,251288
5,132500	0,1	0,282621
5,134167	0,1	0,265405
5,135833	0,1	0,263763
5,137500	0,1	0,301056
5,139167	0,1	0,258111
5,140833	0,1	0,260625
5,142500	0,1	0,272345
5,144167	0,1	0,275651
5,145833	0,1	0,246273
5,147500	0,1	0,261719
5,149167	0,1	0,259201
5,150833	0,1	0,233070
5,152500	0,1	0,292569
5,154167	0,1	0,280699
5,155833	0,1	0,241982
5,157500	0,1	0,260858
5,159167	0,1	0,256089
5,160833	0,1	0,264808
5,162500	0,1	0,269746
5,164167	0,1	0,314684
5,165833	0,1	0,270510
5,167500	0,1	0,273931
5,169167	0,1	0,249009
5,170833	0,1	0,240178
5,172500	0,1	0,226841
5,174167	0,1	0,293346
5,175833	0,1	0,245124
5,177500	0,1	0,256783
5,179167	0,1	0,243506
5,180833	0,1	0,237226
5,182500	0,1	0,247069
5,184167	0,1	0,267756
5,185833	0,1	0,270070
5,187500	0,1	0,247828
5,189167	0,1	0,265558
5,190833	0,1	0,259552
5,192500	0,1	0,272024
5,194167	0,1	0,243510
5,195833	0,1	0,220647
5,197500	0,1	0,231157
5,199167	0,1	0,271317
5,200833	0,1	0,284824
5,202500	0,1	0,226933
5,204167	0,1	0,277410
5,205833	0,1	0,267952
5,207500	0,1	0,257699
5,209167	0,1	0,264270
5,210833	0,1	0,291393
5,212500	0,1	0,274338
5,214167	0,1	0,237473
5,215833	0,1	0,238858
5,217500	0,1	0,247765
5,219167	0,1	0,281279
5,220833	0,1	0,257408
5,222500	0,1	0,222688
5,224167	0,1	0,232416
5,225833	0,1	0,240764
5,227500	0,1	0,258980
5,229167	0,1	0,284983
5,230833	0,1	0,258401
5,232500	0,1	0,282701
5,234167	0,1	0,270847
5,235833	0,1	0,246218
5,237500	0,1	0,232182
5,239167	0,1	0,252916
5,240833	0,1	0,250694
5,242500	0,1	0,240043
5,244167	0,1	0,241248
5,245833	0,1	0,291657
5,247500	0,1	0,288904
5,249167	0,1	0,244587
5,250833	0,1	0,260215
5,252500	0,1	0,266094
5,254167	0,1	0,271678
5,255833	0,1	0,226902
5,257500	0,1	0,250124
5,259167	0,1	0,222229
5,260833	0,1	0,238668
5,262500	0,1	0,224372
5,264167	0,1	0,261765
5,265833	0,1	0,262232
5,267500	0,1	0,258530
5,269167	0,1	0,245946
5,270833	0,1	0,216945
5,272500	0,1	0,270325
5,274167	0,1	0,247748
5,275833	0,1	0,221184
5,277500	0,1	0,267130
5,279167	0,1	0,260380
5,280833	0,1	0,270575
5,282500	0,1	0,231087
5,284167	0,1	0,226920
5,285833	0,1	0,283499
5,287500	0,1	0,218080
5,289167	0,1	0,246501
5,290833	0,1	0,245382
5,292500	0,1	0,238485
5,294167	0,1	0,243098
5,295833	0,1	0,218686
5,297500	0,1	0,227962
5,299167	0,1	0,224398
5,300833	0,1	0,229870
5,302500	0,1	0,279744
5,304167	0,1	0,210057
5,305833	0,1	0,212805
5,307500	0,1	0,256773
5,309167	0,1	0,216544
5,310833	0,1	0,226917
5,312500	0,1	0,226544
5,314167	0,1	0,266596
5,315833	0,1	0,258663
5,317500	0,1	0,238462
5,319167	0,1	0,273924
5,320833	0,1	0,214348
5,322500	0,1	0,255835
5,324167	0,1	0,242378
5,325833	0,1	0,215495
5,327500	0,1	0,235930
5,329167	0,1	0,223567
5,330833	0,1	0,278104
5,332500	0,1	0,249116
5,334167	0,1	0,214209
5,335833	0,1	0,240919
5,337500	0,1	0,240766
5,339167	0,1	0,197226
5,340833	0,1	0,268065
5,342500	0,1	0,229744
5,344167	0,1	0,247523
5,345833	0,1	0,226495
5,347500	0,1	0,231773
5,349167	0,1	0,239501
5,350833	0,1	0,220724
5,352500	0,1	0,221552
5,354167	0,1	0,245668
5,355833	0,1	0,244386
5,357500	0,1	0,262896
5,359167	0,1	0,195676
5,360833	0,1	0,245101
5,362500	0,1	0,233817
5,364167	0,1	0,282101
5,365833	0,1	0,227094
5,367500	0,1	0,219970
5,369167	0,1	0,227561
5,370833	0,1	0,247630
5,372500	0,1	0,254879
5,374167	0,1	0,200985
5,375833	0,1	0,216423
5,377500	0,1	0,219753
5,379167	0,1	0,216616
5,380833	0,1	0,239311
5,382500	0,1	0,243233
5,384167	0,1	0,253588
5,385833	0,1	0,269714
5,387500	0,1	0,245787
5,389167	0,1	0,251872
5,390833	0,1	0,230896
5,392500	0,1	0,234752
5,394167	0,1	0,250476
5,395833	0,1	0,268452
5,397500	0,1	0,243963
5,399167	0,1	0,226065
5,400833	0,1	0,214122
5,402500	0,1	0,235769
5,404167	0,1	0,219142
5,405833	0,1	0,244916
5,407500	0,1	0,222310
5,409167	0,1	0,214014
5,410833	0,1	0,279173
5,412500	0,1	0,227683
5,414167	0,1	0,246849
5,415833	0,1	0,227969
5,417500	0,1	0,243552
5,419167	0,1	0,225582
5,420833	0,1	0,223832
5,422500	0,1	0,243873
5,424167	0,1	0,212409
5,425833	0,1	0,245237
5,427500	0,1	0,238138
5,429167	0,1	0,190117
5,430833	0,1	0,226213
5,432500	0,1	0,179117
5,434167	0,1	0,235545
5,435833	0,1	0,221073
5,437500	0,1	0,209292
5,439167	0,1	0,230670
5,440833	0,1	0,262706
5,442500	0,1	0,250642
5,444167	0,1	0,241812
5,445833	0,1	0,242722
5,447500	0,1	0,195295
5,449167	0,1	0,219641
5,450833	0,1	0,205618
5,452500	0,1	0,270535
5,454167	0,1	0,236773
5,455833	0,1	0,230596
5,457500	0,1	0,251839
5,459167	0,1	0,224189
5,460833	0,1	0,217555
5,462500	0,1	0,212217
5,464167	0,1	0,209694
5,465833	0,1	0,261063
5,467500	0,1	0,230709
5,469167	0,1	0,252566
5,470833	0,1	0,250987
5,472500	0,1	0,241948
5,474167	0,1	0,232690
5,475833	0,1	0,198915
5,477500	0,1	0,262723
5,479167	0,1	0,234331
5,480833	0,1	0,238535
5,482500	0,1	0,264613
5,484167	0,1	0,212629
5,485833	0,1	0,263642
5,487500	0,1	0,260783
5,489167	0,1	0,228509
5,490833	0,1	0,232900
5,492500	0,1	0,290364
5,494167	0,1	0,225351
5,495833	0,1	0,216457
5,497500	0,1	0,274347
5,499167	0,1	0,251343
5,500833	0,1	0,197578
5,502500	0,1	0,249983
5,504167	0,1	0,217561
5,505833	0,1	0,268417
5,507500	0,1	0,231622
5,509167	0,1	0,252645
5,510833	0,1	0,269231
5,512500	0,1	0,239562
5,514167	0,1	0,215252
5,515833	0,1	0,234507
5,517500	0,1	0,259703
5,519167	0,1	0,238516
5,520833	0,1	0,243043
5,522500	0,1	0,229685
5,524167	0,1	0,257127
5,525833	0,1	0,225986
5,527500	0,1	0,270968
5,529167	0,1	0,230847
5,530833	0,1	0,265926
5,532500	0,1	0,253243
5,534167	0,1	0,263358
5,535833	0,1	0,233981
5,537500	0,1	0,252594
5,539167	0,1	0,256755
5,540833	0,1	0,239399
5,542500	0,1	0,213911
5,544167	0,1	0,252748
5,545833	0,1	0,231647
5,547500	0,1	0,250071
5,549167	0,1	0,243449
5,550833	0,1	0,260673
5,552500	0,1	0,284147
5,554167	0,1	0,252418
5,555833	0,1	0,228481
5,557500	0,1	0,232686
5,559167	0,1	0,271991
5,560833	0,1	0,219634
5,562500	0,1	0,255031
5,564167	0,1	0,246508
5,565833	0,1	0,259652
5,567500	0,1	0,265771
5,569167	0,1	0,215634
5,570833	0,1	0,275982
5,572500	0,1	0,244584
5,574167	0,1	0,229231
5,575833	0,1	0,238105
5,577500	0,1	0,225392
5,579167	0,1	0,270111
5,580833	0,1	0,267732
5,582500	0,1	0,222555
5,584167	0,1	0,257877
5,585833	0,1	0,240151
5,587500	0,1	0,260669
5,589167	0,1	0,264055
5,590833	0,1	0,259843
5,592500	0,1	0,271245
5,594167	0,1	0,257161
5,595833	0,1	0,279669
5,597500	0,1	0,254857
5,599167	0,1	0,262712
5,600833	0,1	0,275268
5,602500	0,1	0,271195
5,604167	0,1	0,301458
5,605833	0,1	0,236942
5,607500	0,1	0,270941
5,609167	0,1	0,287022
5,610833	0,1	0,290971
5,612500	0,1	0,238577
5,614167	0,1	0,250984
5,615833	0,1	0,252035
5,617500	0,1	0,237413
5,619167	0,1	0,301504
5,620833	0,1	0,275682
5,622500	0,1	0,264274
5,624167	0,1	0,248361
5,625833	0,1	0,272126
5,627500	0,1	0,267679
5,629167	0,1	0,285467
5,630833	0,1	0,278894
5,632500	0,1	0,306423
5,634167	0,1	0,280133
5,635833	0,1	0,279109
5,637500	0,1	0,219661
5,639167	0,1	0,270886
5,640833	0,1	0,273099
5,642500	0,1	0,265936
5,644167	0,1	0,315250
5,645833	0,1	0,276757
5,647500	0,1	0,284073
5,649167	0,1	0,318685
5,650833	0,1	0,286821
5,652500	0,1	0,329259
5,654167	0,1	0,274161
5,655833	0,1	0,303444
5,657500	0,1	0,252018
5,659167	0,1	0,298473
5,660833	0,1	0,263154
5,662500	0,1	0,320634
5,664167	0,1	0,310242
5,665833	0,1	0,299319
5,667500	0,1	0,302860
5,669167	0,1	0,305249
5,670833	0,1	0,285314
5,672500	0,1	0,283539
5,674167	0,1	0,285201
5,675833	0,1	0,316939
5,677500	0,1	0,311614
5,679167	0,1	0,296074
5,680833	0,1	0,346432
5,682500	0,1	0,313685
5,684167	0,1	0,279309
5,685833	0,1	0,320909
5,687500	0,1	0,337770
5,689167	0,1	0,332492
5,690833	0,1	0,295543
5,692500	0,1	0,341303
5,694167	0,1	0,342152
5,695833	0,1	0,356234
5,697500	0,1	0,308134
5,699167	0,1	0,325130
5,700833	0,1	0,334768
5,702500	0,1	0,339893
5,704167	0,1	0,337379
5,705833	0,1	0,315424
5,707500	0,1	0,341579
5,709167	0,1	0,316314
5,710833	0,1	0,324782
5,712500	0,1	0,322829
5,714167	0,1	0,378025
5,715833	0,1	0,328800
5,717500	0,1	0,359614
5,719167	0,1	0,343528
5,720833	0,1	0,324819
5,722500	0,1	0,361142
5,724167	0,1	0,358760
5,725833	0,1	0,390885
5,727500	0,1	0,325287
5,729167	0,1	0,381542
5,730833	0,1	0,343450
5,732500	0,1	0,338024
5,734167	0,1	0,378108
5,735833	0,1	0,386248
5,737500	0,1	0,386655
5,739167	0,1	0,385313
5,740833	0,1	0,388019
5,742500	0,1	0,382976
5,744167	0,1	0,394513
5,745833	0,1	0,350428
5,747500	0,1	0,373896
5,749167	0,1	0,377154
5,750833	0,1	0,363359
5,752500	0,1	0,386486
5,754167	0,1	0,406697
5,755833	0,1	0,354806
5,757500	0,1	0,415117
5,759167	0,1	0,429052
5,760833	0,1	0,395168
5,762500	0,1	0,402487
5,764167	0,1	0,434069
5,765833	0,1	0,388139
5,767500	0,1	0,382791
5,769167	0,1	0,395408
5,770833	0,1	0,382684
5,772500	0,1	0,428377
5,774167	0,1	0,381186
5,775833	0,1	0,410703
5,777500	0,1	0,401986
5,779167	0,1	0,398515
5,780833	0,1	0,428173
5,782500	0,1	0,429284
5,784167	0,1	0,431795
5,785833	0,1	0,417255
5,787500	0,1	0,428255
5,789167	0,1	0,378238
5,790833	0,1	0,395156
5,792500	0,1	0,372627
5,794167	0,1	0,400549
5,795833	0,1	0,418426
5,797500	0,1	0,402731
5,799167	0,1	0,390064
5,800833	0,1	0,363796
5,802500	0,1	0,448745
5,804167	0,1	0,425500
5,805833	0,1	0,405561
5,807500	0,1	0,439694
5,809167	0,1	0,406873
5,810833	0,1	0,396593
5,812500	0,1	0,388318
5,814167	0,1	0,436751
5,815833	0,1	0,370938
5,817500	0,1	0,426257
5,819167	0,1	0,425330
5,820833	0,1	0,394774
5,822500	0,1	0,417781
5,824167	0,1	0,414784
5,825833	0,1	0,424793
5,827500	0,1	0,406413
5,829167	0,1	0,415664
5,830833	0,1	0,416846
5,832500	0,1	0,425679
5,834167	0,1	0,439481
5,835833	0,1	0,405936
5,837500	0,1	0,408558
5,839167	0,1	0,405687
5,840833	0,1	0,437083
5,842500	0,1	0,399276
5,844167	0,1	0,402246
5,845833	0,1	0,381452
5,847500	0,1	0,432919
5,849167	0,1	0,398205
5,850833	0,1	0,422345
5,852500	0,1	0,415429
5,854167	0,1	0,420580
5,855833	0,1	0,419543
5,857500	0,1	0,407240
5,859167	0,1	0,403590
5,860833	0,1	0,386877
5,862500	0,1	0,419820
5,864167	0,1	0,422568
5,865833	0,1	0,431696
5,867500	0,1	0,442211
5,869167	0,1	0,392247
5,870833	0,1	0,381930
5,872500	0,1	0,412918
5,874167	0,1	0,394203
5,875833	0,1	0,412495
5,877500	0,1	0,418242
5,879167	0,1	0,413550
5,880833	0,1	0,406540
5,882500	0,1	0,395831
5,884167	0,1	0,384081
5,885833	0,1	0,390976
5,887500	0,1	0,431033
5,889167	0,1	0,392725
5,890833	0,1	0,380882
5,892500	0,1	0,399535
5,894167	0,1	0,355658
5,895833	0,1	0,408196
5,897500	0,1	0,375787
5,899167	0,1	0,412174
5,900833	0,1	0,380266
5,902500	0,1	0,376023
5,904167	0,1	0,359494
5,905833	0,1	0,384901
5,907500	0,1	0,408946
5,909167	0,1	0,366749
5,910833	0,1	0,382033
5,912500	0,1	0,378575
5,914167	0,1	0,395211
5,915833	0,1	0,381853
5,917500	0,1	0,371591
5,919167	0,1	0,359888
5,920833	0,1	0,395850
5,922500	0,1	0,388293
5,924167	0,1	0,370391
5,925833	0,1	0,406345
5,927500	0,1	0,386890
5,929167	0,1	0,343155
5,930833	0,1	0,362489
5,932500	0,1	0,358706
5,934167	0,1	0,362602
5,935833	0,1	0,368344
5,937500	0,1	0,350234
5,939167	0,1	0,339709
5,940833	0,1	0,358787
5,942500	0,1	0,375240
5,944167	0,1	0,322733
5,945833	0,1	0,369699
5,947500	0,1	0,343842
5,949167	0,1	0,365601
5,950833	0,1	0,304538
5,952500	0,1	0,337068
5,954167	0,1	0,339706
5,955833	0,1	0,339840
5,957500	0,1	0,377673
5,959167	0,1	0,351332
5,960833	0,1	0,353902
5,962500	0,1	0,333621
5,964167	0,1	0,322025
5,965833	0,1	0,343939
5,967500	0,1	0,348235
5,969167	0,1	0,342635
5,970833	0,1	0,340833
5,972500	0,1	0,370535
5,974167	0,1	0,369873
5,975833	0,1	0,332283
5,977500	0,1	0,348156
5,979167	0,1	0,315751
5,980833	0,1	0,335218
5,982500	0,1	0,353363
5,984167	0,1	0,313254
5,985833	0,1	0,343720
5,987500	0,1	0,340616
5,989167	0,1	0,322801
5,990833	0,1	0,348501
5,992500	0,1	0,327072
5,994167	0,1	0,337501
5,995833	0,1	0,359640
5,997500	0,1	0,318244
5,999167	0,1	0,302834
6,000833	0,1	0,268468
