File Path	chrom://chromeleon01/ikbm_chromeleon/2022/Rezex/Esteban/220612_chitin_4_7.seq/951.smp/UV_VIS_1.channel/UV_VIS_1.chm
Channel	UV_VIS_1

Injection Information:
Data Vault	ikbm_chromeleon
Injection	A2ox 400
Injection Number	60
Position	RA6
Comment	
Processing Method	New ProcMethod
Instrument Method	Short_Rezex_6min_194nm
Type	Calibration Standard
Status	Finished
Injection Date	12.06.2022
Injection Time	23:35:44
Injection Volume (µl)	8,000
Dilution Factor	1,0000
Weight	1,0000

Chromatogram Data Information:
Time Min. (min)	0,000833
Time Max. (min)	6,000833
Data Points	3601
Detector	UV
Generating Data System	Chromeleon 7.2.9.11323
Exporting Data System	Chromeleon 7.2.9.0
Operator	Instrument Controller
Signal Quantity	Absorbance
Signal Unit	mAU
Signal Min.	-0,126895
Signal Max.	215,598775
Channel	UV_VIS_1
Driver Name	VWD3000.dll
Channel Type	Evaluation
Min. Step (s)	0,1
Max. Step (s)	0,1
Average Step (s)	0,1

Signal Parameter Information:
Signal Info	WVL:194 nm

Chromatogram Data:
Time (min)	Step (s)	Value (mAU)
0,000833	n.a.	-0,039769
0,002500	0,1	-0,041987
0,004167	0,1	-0,032926
0,005833	0,1	-0,037565
0,007500	0,1	-0,100959
0,009167	0,1	-0,107554
0,010833	0,1	-0,071285
0,012500	0,1	-0,045350
0,014167	0,1	-0,073180
0,015833	0,1	-0,029676
0,017500	0,1	-0,032114
0,019167	0,1	-0,086387
0,020833	0,1	-0,094984
0,022500	0,1	-0,072124
0,024167	0,1	-0,064891
0,025833	0,1	-0,017414
0,027500	0,1	-0,063029
0,029167	0,1	-0,057774
0,030833	0,1	-0,071992
0,032500	0,1	-0,062276
0,034167	0,1	-0,060177
0,035833	0,1	-0,050367
0,037500	0,1	-0,073857
0,039167	0,1	-0,124274
0,040833	0,1	-0,032029
0,042500	0,1	-0,067699
0,044167	0,1	-0,057148
0,045833	0,1	-0,084435
0,047500	0,1	-0,042105
0,049167	0,1	-0,115284
0,050833	0,1	-0,034309
0,052500	0,1	-0,091054
0,054167	0,1	-0,062598
0,055833	0,1	-0,030043
0,057500	0,1	-0,048810
0,059167	0,1	-0,060862
0,060833	0,1	-0,084527
0,062500	0,1	-0,074522
0,064167	0,1	-0,049436
0,065833	0,1	-0,086514
0,067500	0,1	-0,050251
0,069167	0,1	-0,080560
0,070833	0,1	-0,075196
0,072500	0,1	-0,070053
0,074167	0,1	-0,080626
0,075833	0,1	-0,060058
0,077500	0,1	-0,097029
0,079167	0,1	-0,064562
0,080833	0,1	-0,065796
0,082500	0,1	-0,090006
0,084167	0,1	-0,118064
0,085833	0,1	-0,063238
0,087500	0,1	-0,084314
0,089167	0,1	-0,080065
0,090833	0,1	-0,062998
0,092500	0,1	-0,104515
0,094167	0,1	-0,094562
0,095833	0,1	-0,093639
0,097500	0,1	-0,107339
0,099167	0,1	-0,102965
0,100833	0,1	-0,070305
0,102500	0,1	-0,104058
0,104167	0,1	-0,088011
0,105833	0,1	-0,078947
0,107500	0,1	-0,077537
0,109167	0,1	-0,071628
0,110833	0,1	-0,062796
0,112500	0,1	-0,087528
0,114167	0,1	-0,078120
0,115833	0,1	-0,060718
0,117500	0,1	-0,089517
0,119167	0,1	-0,079944
0,120833	0,1	-0,106339
0,122500	0,1	-0,048801
0,124167	0,1	-0,103226
0,125833	0,1	-0,080864
0,127500	0,1	-0,119303
0,129167	0,1	-0,037983
0,130833	0,1	-0,057661
0,132500	0,1	-0,067539
0,134167	0,1	-0,096327
0,135833	0,1	-0,069538
0,137500	0,1	-0,072666
0,139167	0,1	-0,103246
0,140833	0,1	-0,054339
0,142500	0,1	-0,071684
0,144167	0,1	-0,086595
0,145833	0,1	-0,126895
0,147500	0,1	-0,112121
0,149167	0,1	-0,104571
0,150833	0,1	-0,085776
0,152500	0,1	-0,113931
0,154167	0,1	-0,085489
0,155833	0,1	-0,073804
0,157500	0,1	-0,098166
0,159167	0,1	-0,090000
0,160833	0,1	-0,064824
0,162500	0,1	-0,062001
0,164167	0,1	-0,069284
0,165833	0,1	-0,077519
0,167500	0,1	-0,036976
0,169167	0,1	-0,072218
0,170833	0,1	-0,081745
0,172500	0,1	-0,092827
0,174167	0,1	-0,053863
0,175833	0,1	-0,083637
0,177500	0,1	-0,056494
0,179167	0,1	-0,092485
0,180833	0,1	-0,069749
0,182500	0,1	-0,058865
0,184167	0,1	-0,047134
0,185833	0,1	-0,077330
0,187500	0,1	-0,053752
0,189167	0,1	-0,086161
0,190833	0,1	-0,111928
0,192500	0,1	-0,038578
0,194167	0,1	-0,047711
0,195833	0,1	-0,107787
0,197500	0,1	-0,098098
0,199167	0,1	-0,069689
0,200833	0,1	-0,094691
0,202500	0,1	-0,052824
0,204167	0,1	-0,100273
0,205833	0,1	-0,041940
0,207500	0,1	-0,075476
0,209167	0,1	-0,089673
0,210833	0,1	-0,049944
0,212500	0,1	-0,075586
0,214167	0,1	-0,076481
0,215833	0,1	-0,063105
0,217500	0,1	-0,073907
0,219167	0,1	-0,108497
0,220833	0,1	-0,076734
0,222500	0,1	-0,074033
0,224167	0,1	-0,066072
0,225833	0,1	-0,079234
0,227500	0,1	-0,059292
0,229167	0,1	-0,096985
0,230833	0,1	-0,090458
0,232500	0,1	-0,080464
0,234167	0,1	-0,086492
0,235833	0,1	-0,078701
0,237500	0,1	-0,070115
0,239167	0,1	-0,079202
0,240833	0,1	-0,068187
0,242500	0,1	-0,086472
0,244167	0,1	-0,052072
0,245833	0,1	-0,060202
0,247500	0,1	-0,033284
0,249167	0,1	-0,050924
0,250833	0,1	-0,037570
0,252500	0,1	-0,065941
0,254167	0,1	-0,029259
0,255833	0,1	-0,064502
0,257500	0,1	-0,040876
0,259167	0,1	-0,028506
0,260833	0,1	-0,052562
0,262500	0,1	-0,028613
0,264167	0,1	-0,056480
0,265833	0,1	-0,078448
0,267500	0,1	-0,066196
0,269167	0,1	-0,068183
0,270833	0,1	-0,082326
0,272500	0,1	-0,074598
0,274167	0,1	-0,071505
0,275833	0,1	-0,080626
0,277500	0,1	-0,008628
0,279167	0,1	-0,074843
0,280833	0,1	-0,099528
0,282500	0,1	-0,024432
0,284167	0,1	-0,006537
0,285833	0,1	-0,051394
0,287500	0,1	-0,103624
0,289167	0,1	-0,111014
0,290833	0,1	-0,075327
0,292500	0,1	-0,079616
0,294167	0,1	-0,050935
0,295833	0,1	-0,056732
0,297500	0,1	-0,064183
0,299167	0,1	-0,126247
0,300833	0,1	-0,053333
0,302500	0,1	-0,033695
0,304167	0,1	-0,053603
0,305833	0,1	-0,055675
0,307500	0,1	-0,025999
0,309167	0,1	-0,026970
0,310833	0,1	-0,057105
0,312500	0,1	-0,092713
0,314167	0,1	-0,067775
0,315833	0,1	-0,013311
0,317500	0,1	-0,062844
0,319167	0,1	-0,065365
0,320833	0,1	-0,052340
0,322500	0,1	-0,026623
0,324167	0,1	-0,033873
0,325833	0,1	-0,041774
0,327500	0,1	-0,027035
0,329167	0,1	-0,055468
0,330833	0,1	-0,033344
0,332500	0,1	-0,039141
0,334167	0,1	-0,027246
0,335833	0,1	-0,072428
0,337500	0,1	-0,038261
0,339167	0,1	-0,051568
0,340833	0,1	-0,035226
0,342500	0,1	-0,020482
0,344167	0,1	-0,030306
0,345833	0,1	-0,068800
0,347500	0,1	-0,030010
0,349167	0,1	-0,032175
0,350833	0,1	-0,035575
0,352500	0,1	-0,003766
0,354167	0,1	-0,043864
0,355833	0,1	-0,047008
0,357500	0,1	-0,038132
0,359167	0,1	-0,055856
0,360833	0,1	-0,026581
0,362500	0,1	-0,034727
0,364167	0,1	-0,008530
0,365833	0,1	-0,032002
0,367500	0,1	-0,042628
0,369167	0,1	-0,022659
0,370833	0,1	-0,025576
0,372500	0,1	-0,013943
0,374167	0,1	-0,064877
0,375833	0,1	-0,034721
0,377500	0,1	-0,031102
0,379167	0,1	-0,017617
0,380833	0,1	-0,041815
0,382500	0,1	-0,045571
0,384167	0,1	0,001420
0,385833	0,1	-0,025096
0,387500	0,1	-0,037379
0,389167	0,1	-0,018781
0,390833	0,1	-0,011019
0,392500	0,1	-0,011784
0,394167	0,1	-0,014479
0,395833	0,1	-0,060334
0,397500	0,1	-0,043339
0,399167	0,1	-0,031887
0,400833	0,1	0,002894
0,402500	0,1	-0,070431
0,404167	0,1	-0,019036
0,405833	0,1	-0,072961
0,407500	0,1	-0,069788
0,409167	0,1	-0,047737
0,410833	0,1	-0,001400
0,412500	0,1	-0,060728
0,414167	0,1	0,006416
0,415833	0,1	-0,017504
0,417500	0,1	-0,024581
0,419167	0,1	-0,049178
0,420833	0,1	-0,059331
0,422500	0,1	-0,014903
0,424167	0,1	-0,059418
0,425833	0,1	-0,016445
0,427500	0,1	-0,063090
0,429167	0,1	-0,045225
0,430833	0,1	-0,042939
0,432500	0,1	-0,040289
0,434167	0,1	-0,011957
0,435833	0,1	-0,016927
0,437500	0,1	-0,038143
0,439167	0,1	-0,073381
0,440833	0,1	-0,062215
0,442500	0,1	-0,070613
0,444167	0,1	-0,039592
0,445833	0,1	0,001025
0,447500	0,1	-0,026505
0,449167	0,1	-0,043473
0,450833	0,1	-0,036756
0,452500	0,1	-0,022992
0,454167	0,1	-0,018030
0,455833	0,1	-0,033397
0,457500	0,1	-0,018280
0,459167	0,1	-0,046192
0,460833	0,1	-0,034354
0,462500	0,1	-0,054843
0,464167	0,1	-0,012807
0,465833	0,1	-0,026843
0,467500	0,1	-0,047726
0,469167	0,1	-0,020193
0,470833	0,1	-0,027153
0,472500	0,1	-0,060230
0,474167	0,1	-0,020858
0,475833	0,1	-0,051748
0,477500	0,1	-0,047151
0,479167	0,1	-0,033007
0,480833	0,1	-0,053864
0,482500	0,1	-0,042590
0,484167	0,1	-0,044913
0,485833	0,1	-0,052750
0,487500	0,1	-0,045681
0,489167	0,1	-0,068988
0,490833	0,1	-0,068351
0,492500	0,1	-0,046952
0,494167	0,1	-0,018634
0,495833	0,1	-0,023832
0,497500	0,1	-0,012385
0,499167	0,1	-0,048639
0,500833	0,1	-0,076579
0,502500	0,1	-0,018933
0,504167	0,1	-0,043806
0,505833	0,1	-0,026120
0,507500	0,1	-0,050587
0,509167	0,1	-0,064323
0,510833	0,1	-0,045057
0,512500	0,1	-0,055445
0,514167	0,1	-0,092528
0,515833	0,1	-0,050357
0,517500	0,1	-0,060527
0,519167	0,1	-0,058875
0,520833	0,1	-0,089041
0,522500	0,1	-0,036336
0,524167	0,1	-0,032758
0,525833	0,1	-0,045111
0,527500	0,1	-0,052062
0,529167	0,1	-0,052063
0,530833	0,1	-0,061232
0,532500	0,1	-0,032060
0,534167	0,1	-0,060461
0,535833	0,1	-0,080562
0,537500	0,1	-0,041874
0,539167	0,1	-0,054494
0,540833	0,1	-0,058062
0,542500	0,1	-0,025497
0,544167	0,1	-0,082421
0,545833	0,1	-0,033120
0,547500	0,1	-0,051646
0,549167	0,1	-0,053657
0,550833	0,1	-0,027073
0,552500	0,1	-0,068235
0,554167	0,1	-0,025860
0,555833	0,1	-0,068250
0,557500	0,1	-0,053504
0,559167	0,1	-0,064797
0,560833	0,1	-0,044352
0,562500	0,1	-0,042754
0,564167	0,1	-0,049077
0,565833	0,1	-0,029670
0,567500	0,1	-0,078030
0,569167	0,1	-0,048689
0,570833	0,1	-0,080866
0,572500	0,1	-0,077645
0,574167	0,1	-0,059371
0,575833	0,1	-0,043569
0,577500	0,1	-0,083147
0,579167	0,1	-0,098980
0,580833	0,1	-0,058487
0,582500	0,1	-0,061892
0,584167	0,1	-0,037862
0,585833	0,1	-0,109421
0,587500	0,1	-0,080697
0,589167	0,1	-0,062921
0,590833	0,1	-0,060881
0,592500	0,1	-0,107559
0,594167	0,1	-0,074391
0,595833	0,1	-0,068185
0,597500	0,1	-0,073846
0,599167	0,1	-0,074321
0,600833	0,1	-0,070526
0,602500	0,1	-0,059139
0,604167	0,1	-0,058601
0,605833	0,1	-0,056337
0,607500	0,1	-0,036559
0,609167	0,1	-0,061748
0,610833	0,1	-0,049998
0,612500	0,1	-0,045927
0,614167	0,1	-0,056211
0,615833	0,1	-0,046737
0,617500	0,1	-0,070811
0,619167	0,1	-0,060135
0,620833	0,1	-0,110636
0,622500	0,1	-0,086482
0,624167	0,1	-0,071630
0,625833	0,1	-0,046433
0,627500	0,1	-0,032364
0,629167	0,1	-0,069873
0,630833	0,1	-0,096374
0,632500	0,1	-0,067302
0,634167	0,1	-0,103184
0,635833	0,1	-0,063954
0,637500	0,1	-0,022849
0,639167	0,1	-0,045093
0,640833	0,1	-0,096368
0,642500	0,1	-0,058364
0,644167	0,1	-0,073216
0,645833	0,1	-0,084483
0,647500	0,1	-0,056678
0,649167	0,1	-0,082597
0,650833	0,1	-0,047906
0,652500	0,1	-0,074925
0,654167	0,1	-0,061053
0,655833	0,1	-0,024758
0,657500	0,1	-0,046394
0,659167	0,1	-0,096187
0,660833	0,1	-0,089800
0,662500	0,1	-0,065387
0,664167	0,1	-0,034402
0,665833	0,1	-0,046778
0,667500	0,1	-0,095711
0,669167	0,1	-0,042812
0,670833	0,1	-0,056456
0,672500	0,1	-0,113802
0,674167	0,1	-0,093907
0,675833	0,1	-0,033246
0,677500	0,1	-0,031118
0,679167	0,1	-0,046485
0,680833	0,1	-0,051130
0,682500	0,1	-0,070628
0,684167	0,1	-0,094554
0,685833	0,1	-0,057490
0,687500	0,1	-0,050456
0,689167	0,1	-0,041639
0,690833	0,1	-0,061916
0,692500	0,1	-0,042715
0,694167	0,1	-0,038607
0,695833	0,1	-0,085425
0,697500	0,1	-0,065617
0,699167	0,1	-0,012395
0,700833	0,1	-0,055083
0,702500	0,1	-0,024467
0,704167	0,1	-0,081258
0,705833	0,1	-0,068433
0,707500	0,1	-0,041351
0,709167	0,1	-0,062346
0,710833	0,1	-0,043983
0,712500	0,1	-0,024754
0,714167	0,1	-0,030597
0,715833	0,1	-0,052255
0,717500	0,1	-0,042590
0,719167	0,1	-0,033861
0,720833	0,1	-0,006312
0,722500	0,1	-0,017965
0,724167	0,1	-0,049926
0,725833	0,1	-0,072679
0,727500	0,1	0,002180
0,729167	0,1	0,020242
0,730833	0,1	-0,033018
0,732500	0,1	-0,000983
0,734167	0,1	-0,062779
0,735833	0,1	0,013755
0,737500	0,1	-0,038698
0,739167	0,1	-0,017602
0,740833	0,1	0,004703
0,742500	0,1	-0,007322
0,744167	0,1	-0,003240
0,745833	0,1	0,027790
0,747500	0,1	-0,034256
0,749167	0,1	-0,021599
0,750833	0,1	-0,045108
0,752500	0,1	-0,001424
0,754167	0,1	-0,021961
0,755833	0,1	-0,007224
0,757500	0,1	-0,029995
0,759167	0,1	0,030417
0,760833	0,1	-0,007546
0,762500	0,1	-0,012345
0,764167	0,1	0,018292
0,765833	0,1	-0,018787
0,767500	0,1	-0,026449
0,769167	0,1	-0,007287
0,770833	0,1	-0,041355
0,772500	0,1	-0,012953
0,774167	0,1	-0,037253
0,775833	0,1	-0,020359
0,777500	0,1	-0,068490
0,779167	0,1	-0,037478
0,780833	0,1	-0,037944
0,782500	0,1	-0,032070
0,784167	0,1	-0,067822
0,785833	0,1	-0,035310
0,787500	0,1	-0,045280
0,789167	0,1	-0,049017
0,790833	0,1	-0,034460
0,792500	0,1	-0,011604
0,794167	0,1	-0,037437
0,795833	0,1	-0,056710
0,797500	0,1	-0,035000
0,799167	0,1	-0,045385
0,800833	0,1	-0,018819
0,802500	0,1	-0,062448
0,804167	0,1	-0,037696
0,805833	0,1	-0,045078
0,807500	0,1	-0,051588
0,809167	0,1	-0,073200
0,810833	0,1	-0,073343
0,812500	0,1	-0,062797
0,814167	0,1	-0,064006
0,815833	0,1	-0,097445
0,817500	0,1	-0,099045
0,819167	0,1	-0,080405
0,820833	0,1	-0,067162
0,822500	0,1	-0,112764
0,824167	0,1	-0,053699
0,825833	0,1	-0,053060
0,827500	0,1	-0,044350
0,829167	0,1	-0,070107
0,830833	0,1	-0,093666
0,832500	0,1	-0,088882
0,834167	0,1	-0,102424
0,835833	0,1	-0,090153
0,837500	0,1	-0,122948
0,839167	0,1	-0,093970
0,840833	0,1	-0,091559
0,842500	0,1	-0,101200
0,844167	0,1	-0,096642
0,845833	0,1	-0,082040
0,847500	0,1	-0,062294
0,849167	0,1	-0,092010
0,850833	0,1	-0,072397
0,852500	0,1	-0,096959
0,854167	0,1	-0,071633
0,855833	0,1	-0,094539
0,857500	0,1	-0,069888
0,859167	0,1	-0,073053
0,860833	0,1	-0,094998
0,862500	0,1	-0,101034
0,864167	0,1	-0,043949
0,865833	0,1	-0,090647
0,867500	0,1	-0,098737
0,869167	0,1	-0,093672
0,870833	0,1	-0,107873
0,872500	0,1	-0,104128
0,874167	0,1	-0,065575
0,875833	0,1	-0,118963
0,877500	0,1	-0,096707
0,879167	0,1	-0,075446
0,880833	0,1	-0,106998
0,882500	0,1	-0,063798
0,884167	0,1	-0,076294
0,885833	0,1	-0,069822
0,887500	0,1	-0,067452
0,889167	0,1	-0,105480
0,890833	0,1	-0,103683
0,892500	0,1	-0,087491
0,894167	0,1	-0,079026
0,895833	0,1	-0,117436
0,897500	0,1	-0,087953
0,899167	0,1	-0,120192
0,900833	0,1	-0,097596
0,902500	0,1	-0,073456
0,904167	0,1	-0,105756
0,905833	0,1	-0,067824
0,907500	0,1	-0,090144
0,909167	0,1	-0,107382
0,910833	0,1	-0,108169
0,912500	0,1	-0,111795
0,914167	0,1	-0,042789
0,915833	0,1	-0,078893
0,917500	0,1	-0,095412
0,919167	0,1	-0,106863
0,920833	0,1	-0,085257
0,922500	0,1	-0,103617
0,924167	0,1	-0,099733
0,925833	0,1	-0,043075
0,927500	0,1	-0,087690
0,929167	0,1	-0,082146
0,930833	0,1	-0,092245
0,932500	0,1	-0,071281
0,934167	0,1	-0,068950
0,935833	0,1	-0,077581
0,937500	0,1	-0,098856
0,939167	0,1	-0,056759
0,940833	0,1	-0,092774
0,942500	0,1	-0,026528
0,944167	0,1	-0,068189
0,945833	0,1	-0,090223
0,947500	0,1	-0,110490
0,949167	0,1	-0,092498
0,950833	0,1	-0,063813
0,952500	0,1	-0,051408
0,954167	0,1	-0,054345
0,955833	0,1	-0,095637
0,957500	0,1	-0,062070
0,959167	0,1	-0,092071
0,960833	0,1	-0,089005
0,962500	0,1	-0,059540
0,964167	0,1	-0,076600
0,965833	0,1	-0,099697
0,967500	0,1	-0,053899
0,969167	0,1	-0,054927
0,970833	0,1	-0,031766
0,972500	0,1	-0,110062
0,974167	0,1	-0,046645
0,975833	0,1	-0,078049
0,977500	0,1	-0,071769
0,979167	0,1	-0,045975
0,980833	0,1	-0,045037
0,982500	0,1	-0,093107
0,984167	0,1	-0,045691
0,985833	0,1	-0,023760
0,987500	0,1	-0,051001
0,989167	0,1	-0,016645
0,990833	0,1	-0,045029
0,992500	0,1	-0,054695
0,994167	0,1	-0,051818
0,995833	0,1	-0,033879
0,997500	0,1	-0,058577
0,999167	0,1	-0,023013
1,000833	0,1	-0,040593
1,002500	0,1	-0,038942
1,004167	0,1	-0,028074
1,005833	0,1	-0,025269
1,007500	0,1	-0,016515
1,009167	0,1	-0,058741
1,010833	0,1	-0,039774
1,012500	0,1	0,005526
1,014167	0,1	0,012527
1,015833	0,1	0,012301
1,017500	0,1	0,001953
1,019167	0,1	-0,028372
1,020833	0,1	0,007499
1,022500	0,1	0,040360
1,024167	0,1	0,043250
1,025833	0,1	0,039973
1,027500	0,1	0,062188
1,029167	0,1	0,042550
1,030833	0,1	0,041135
1,032500	0,1	0,022094
1,034167	0,1	0,062930
1,035833	0,1	0,074163
1,037500	0,1	0,052988
1,039167	0,1	0,028942
1,040833	0,1	0,058390
1,042500	0,1	0,027241
1,044167	0,1	0,089649
1,045833	0,1	0,071492
1,047500	0,1	0,091546
1,049167	0,1	0,116320
1,050833	0,1	0,125785
1,052500	0,1	0,178006
1,054167	0,1	0,229225
1,055833	0,1	0,273789
1,057500	0,1	0,426154
1,059167	0,1	0,543268
1,060833	0,1	0,763829
1,062500	0,1	1,061207
1,064167	0,1	1,430709
1,065833	0,1	2,021132
1,067500	0,1	2,732420
1,069167	0,1	3,591996
1,070833	0,1	4,726377
1,072500	0,1	6,045668
1,074167	0,1	7,722763
1,075833	0,1	9,662858
1,077500	0,1	11,944145
1,079167	0,1	14,545522
1,080833	0,1	17,495163
1,082500	0,1	20,777537
1,084167	0,1	24,313809
1,085833	0,1	28,150746
1,087500	0,1	32,215498
1,089167	0,1	36,414493
1,090833	0,1	40,723347
1,092500	0,1	45,121209
1,094167	0,1	49,571841
1,095833	0,1	53,938644
1,097500	0,1	58,166742
1,099167	0,1	62,286418
1,100833	0,1	66,150667
1,102500	0,1	69,815141
1,104167	0,1	73,221966
1,105833	0,1	76,332981
1,107500	0,1	79,149272
1,109167	0,1	81,607892
1,110833	0,1	83,750672
1,112500	0,1	85,534804
1,114167	0,1	86,898275
1,115833	0,1	88,069607
1,117500	0,1	88,800994
1,119167	0,1	89,269518
1,120833	0,1	89,355129
1,122500	0,1	89,217472
1,124167	0,1	88,734980
1,125833	0,1	87,992044
1,127500	0,1	87,010208
1,129167	0,1	85,764786
1,130833	0,1	84,358647
1,132500	0,1	82,701455
1,134167	0,1	80,941360
1,135833	0,1	79,008132
1,137500	0,1	76,977108
1,139167	0,1	74,844897
1,140833	0,1	72,619546
1,142500	0,1	70,258675
1,144167	0,1	68,008249
1,145833	0,1	65,566393
1,147500	0,1	63,199283
1,149167	0,1	60,800508
1,150833	0,1	58,443227
1,152500	0,1	56,101549
1,154167	0,1	53,776060
1,155833	0,1	51,504727
1,157500	0,1	49,267850
1,159167	0,1	47,092220
1,160833	0,1	44,921668
1,162500	0,1	42,902113
1,164167	0,1	40,917876
1,165833	0,1	38,990560
1,167500	0,1	37,141060
1,169167	0,1	35,351290
1,170833	0,1	33,635663
1,172500	0,1	31,985337
1,174167	0,1	30,411658
1,175833	0,1	28,890527
1,177500	0,1	27,467149
1,179167	0,1	26,067228
1,180833	0,1	24,712150
1,182500	0,1	23,471949
1,184167	0,1	22,270294
1,185833	0,1	21,137322
1,187500	0,1	20,029828
1,189167	0,1	18,981555
1,190833	0,1	17,968114
1,192500	0,1	17,118082
1,194167	0,1	16,189302
1,195833	0,1	15,348385
1,197500	0,1	14,568379
1,199167	0,1	13,813767
1,200833	0,1	13,087545
1,202500	0,1	12,408899
1,204167	0,1	11,788097
1,205833	0,1	11,225747
1,207500	0,1	10,581071
1,209167	0,1	10,078740
1,210833	0,1	9,602252
1,212500	0,1	9,124141
1,214167	0,1	8,650934
1,215833	0,1	8,225580
1,217500	0,1	7,866096
1,219167	0,1	7,442184
1,220833	0,1	7,144412
1,222500	0,1	6,800878
1,224167	0,1	6,467587
1,225833	0,1	6,187433
1,227500	0,1	5,907729
1,229167	0,1	5,654200
1,230833	0,1	5,438169
1,232500	0,1	5,135106
1,234167	0,1	4,955067
1,235833	0,1	4,756132
1,237500	0,1	4,549067
1,239167	0,1	4,363490
1,240833	0,1	4,197800
1,242500	0,1	4,025567
1,244167	0,1	3,874881
1,245833	0,1	3,727080
1,247500	0,1	3,573514
1,249167	0,1	3,421610
1,250833	0,1	3,324724
1,252500	0,1	3,180042
1,254167	0,1	3,070192
1,255833	0,1	2,907334
1,257500	0,1	2,808292
1,259167	0,1	2,728893
1,260833	0,1	2,644770
1,262500	0,1	2,530205
1,264167	0,1	2,459259
1,265833	0,1	2,392439
1,267500	0,1	2,296255
1,269167	0,1	2,217745
1,270833	0,1	2,155552
1,272500	0,1	2,082957
1,274167	0,1	2,022362
1,275833	0,1	1,956115
1,277500	0,1	1,933285
1,279167	0,1	1,870062
1,280833	0,1	1,785616
1,282500	0,1	1,730856
1,284167	0,1	1,652605
1,285833	0,1	1,661783
1,287500	0,1	1,570783
1,289167	0,1	1,522604
1,290833	0,1	1,526806
1,292500	0,1	1,482611
1,294167	0,1	1,413158
1,295833	0,1	1,396879
1,297500	0,1	1,356634
1,299167	0,1	1,358643
1,300833	0,1	1,277951
1,302500	0,1	1,300346
1,304167	0,1	1,232052
1,305833	0,1	1,223693
1,307500	0,1	1,177031
1,309167	0,1	1,152610
1,310833	0,1	1,138356
1,312500	0,1	1,150089
1,314167	0,1	1,114084
1,315833	0,1	1,054647
1,317500	0,1	1,069277
1,319167	0,1	1,044566
1,320833	0,1	1,029118
1,322500	0,1	0,984492
1,324167	0,1	0,943557
1,325833	0,1	0,962166
1,327500	0,1	0,917887
1,329167	0,1	0,902768
1,330833	0,1	0,893903
1,332500	0,1	0,914411
1,334167	0,1	0,905857
1,335833	0,1	0,863494
1,337500	0,1	0,844421
1,339167	0,1	0,865675
1,340833	0,1	0,878683
1,342500	0,1	0,809798
1,344167	0,1	0,839702
1,345833	0,1	0,815585
1,347500	0,1	0,820706
1,349167	0,1	0,825177
1,350833	0,1	0,820381
1,352500	0,1	0,766211
1,354167	0,1	0,818461
1,355833	0,1	0,796295
1,357500	0,1	0,772972
1,359167	0,1	0,765460
1,360833	0,1	0,768997
1,362500	0,1	0,739828
1,364167	0,1	0,789022
1,365833	0,1	0,781427
1,367500	0,1	0,787287
1,369167	0,1	0,774120
1,370833	0,1	0,791702
1,372500	0,1	0,770199
1,374167	0,1	0,759403
1,375833	0,1	0,746231
1,377500	0,1	0,775303
1,379167	0,1	0,715778
1,380833	0,1	0,756430
1,382500	0,1	0,735152
1,384167	0,1	0,750025
1,385833	0,1	0,735671
1,387500	0,1	0,742129
1,389167	0,1	0,744679
1,390833	0,1	0,750417
1,392500	0,1	0,750121
1,394167	0,1	0,764646
1,395833	0,1	0,765293
1,397500	0,1	0,758562
1,399167	0,1	0,735986
1,400833	0,1	0,746514
1,402500	0,1	0,697610
1,404167	0,1	0,721713
1,405833	0,1	0,749638
1,407500	0,1	0,701373
1,409167	0,1	0,717497
1,410833	0,1	0,764507
1,412500	0,1	0,735761
1,414167	0,1	0,733020
1,415833	0,1	0,722592
1,417500	0,1	0,730795
1,419167	0,1	0,729189
1,420833	0,1	0,746129
1,422500	0,1	0,722688
1,424167	0,1	0,693291
1,425833	0,1	0,742958
1,427500	0,1	0,738942
1,429167	0,1	0,697831
1,430833	0,1	0,697339
1,432500	0,1	0,720036
1,434167	0,1	0,677641
1,435833	0,1	0,680685
1,437500	0,1	0,674732
1,439167	0,1	0,711339
1,440833	0,1	0,709253
1,442500	0,1	0,666336
1,444167	0,1	0,678495
1,445833	0,1	0,674602
1,447500	0,1	0,705829
1,449167	0,1	0,683652
1,450833	0,1	0,648494
1,452500	0,1	0,666771
1,454167	0,1	0,681423
1,455833	0,1	0,724540
1,457500	0,1	0,692129
1,459167	0,1	0,618620
1,460833	0,1	0,684599
1,462500	0,1	0,662596
1,464167	0,1	0,682613
1,465833	0,1	0,682489
1,467500	0,1	0,725156
1,469167	0,1	0,688974
1,470833	0,1	0,732269
1,472500	0,1	0,705589
1,474167	0,1	0,699986
1,475833	0,1	0,689191
1,477500	0,1	0,697656
1,479167	0,1	0,708800
1,480833	0,1	0,700530
1,482500	0,1	0,742607
1,484167	0,1	0,674815
1,485833	0,1	0,723445
1,487500	0,1	0,736207
1,489167	0,1	0,710611
1,490833	0,1	0,729924
1,492500	0,1	0,742200
1,494167	0,1	0,740815
1,495833	0,1	0,733737
1,497500	0,1	0,729162
1,499167	0,1	0,704204
1,500833	0,1	0,735654
1,502500	0,1	0,756623
1,504167	0,1	0,743596
1,505833	0,1	0,736567
1,507500	0,1	0,774722
1,509167	0,1	0,737739
1,510833	0,1	0,756589
1,512500	0,1	0,753089
1,514167	0,1	0,734542
1,515833	0,1	0,754916
1,517500	0,1	0,758662
1,519167	0,1	0,757180
1,520833	0,1	0,739531
1,522500	0,1	0,755915
1,524167	0,1	0,750225
1,525833	0,1	0,740179
1,527500	0,1	0,752051
1,529167	0,1	0,735730
1,530833	0,1	0,704880
1,532500	0,1	0,763447
1,534167	0,1	0,727070
1,535833	0,1	0,726808
1,537500	0,1	0,710934
1,539167	0,1	0,744186
1,540833	0,1	0,739079
1,542500	0,1	0,721305
1,544167	0,1	0,704428
1,545833	0,1	0,726672
1,547500	0,1	0,722359
1,549167	0,1	0,683596
1,550833	0,1	0,693147
1,552500	0,1	0,663724
1,554167	0,1	0,687575
1,555833	0,1	0,686487
1,557500	0,1	0,644020
1,559167	0,1	0,666867
1,560833	0,1	0,681003
1,562500	0,1	0,675794
1,564167	0,1	0,672411
1,565833	0,1	0,652482
1,567500	0,1	0,641887
1,569167	0,1	0,603414
1,570833	0,1	0,623427
1,572500	0,1	0,620762
1,574167	0,1	0,582390
1,575833	0,1	0,566831
1,577500	0,1	0,591776
1,579167	0,1	0,572242
1,580833	0,1	0,586498
1,582500	0,1	0,580193
1,584167	0,1	0,553990
1,585833	0,1	0,557619
1,587500	0,1	0,579735
1,589167	0,1	0,541630
1,590833	0,1	0,588518
1,592500	0,1	0,537318
1,594167	0,1	0,560739
1,595833	0,1	0,557813
1,597500	0,1	0,572298
1,599167	0,1	0,578516
1,600833	0,1	0,579418
1,602500	0,1	0,572015
1,604167	0,1	0,584310
1,605833	0,1	0,522448
1,607500	0,1	0,571839
1,609167	0,1	0,615212
1,610833	0,1	0,595424
1,612500	0,1	0,624198
1,614167	0,1	0,662002
1,615833	0,1	0,656569
1,617500	0,1	0,731358
1,619167	0,1	0,708193
1,620833	0,1	0,727803
1,622500	0,1	0,777203
1,624167	0,1	0,854536
1,625833	0,1	0,872173
1,627500	0,1	0,935930
1,629167	0,1	1,024821
1,630833	0,1	1,114164
1,632500	0,1	1,258039
1,634167	0,1	1,326832
1,635833	0,1	1,441130
1,637500	0,1	1,651763
1,639167	0,1	1,834699
1,640833	0,1	2,007527
1,642500	0,1	2,280291
1,644167	0,1	2,488085
1,645833	0,1	2,832112
1,647500	0,1	3,121582
1,649167	0,1	3,498025
1,650833	0,1	3,936462
1,652500	0,1	4,377549
1,654167	0,1	4,930144
1,655833	0,1	5,493286
1,657500	0,1	6,122194
1,659167	0,1	6,861561
1,660833	0,1	7,632291
1,662500	0,1	8,435032
1,664167	0,1	9,416886
1,665833	0,1	10,431125
1,667500	0,1	11,561116
1,669167	0,1	12,742863
1,670833	0,1	14,064025
1,672500	0,1	15,484584
1,674167	0,1	16,993808
1,675833	0,1	18,680126
1,677500	0,1	20,412128
1,679167	0,1	22,294180
1,680833	0,1	24,341038
1,682500	0,1	26,493749
1,684167	0,1	28,795884
1,685833	0,1	31,234374
1,687500	0,1	33,819171
1,689167	0,1	36,449621
1,690833	0,1	39,338180
1,692500	0,1	42,271073
1,694167	0,1	45,371588
1,695833	0,1	48,647071
1,697500	0,1	52,009524
1,699167	0,1	55,576925
1,700833	0,1	59,195544
1,702500	0,1	62,952251
1,704167	0,1	66,841258
1,705833	0,1	70,876989
1,707500	0,1	74,932300
1,709167	0,1	79,158681
1,710833	0,1	83,395625
1,712500	0,1	87,846800
1,714167	0,1	92,290241
1,715833	0,1	96,755366
1,717500	0,1	101,330052
1,719167	0,1	105,964201
1,720833	0,1	110,595447
1,722500	0,1	115,264259
1,724167	0,1	119,906202
1,725833	0,1	124,625121
1,727500	0,1	129,273234
1,729167	0,1	133,876365
1,730833	0,1	138,458380
1,732500	0,1	143,039335
1,734167	0,1	147,577230
1,735833	0,1	151,939248
1,737500	0,1	156,253499
1,739167	0,1	160,571035
1,740833	0,1	164,678367
1,742500	0,1	168,772520
1,744167	0,1	172,695914
1,745833	0,1	176,447667
1,747500	0,1	180,079902
1,749167	0,1	183,526819
1,750833	0,1	186,885818
1,752500	0,1	190,099715
1,754167	0,1	193,068499
1,755833	0,1	195,932466
1,757500	0,1	198,627909
1,759167	0,1	201,081366
1,760833	0,1	203,318715
1,762500	0,1	205,410599
1,764167	0,1	207,324000
1,765833	0,1	209,011708
1,767500	0,1	210,551085
1,769167	0,1	211,816566
1,770833	0,1	212,998874
1,772500	0,1	213,888766
1,774167	0,1	214,606615
1,775833	0,1	215,119722
1,777500	0,1	215,430303
1,779167	0,1	215,598775
1,780833	0,1	215,520174
1,782500	0,1	215,319879
1,784167	0,1	214,885881
1,785833	0,1	214,325478
1,787500	0,1	213,543099
1,789167	0,1	212,630016
1,790833	0,1	211,536392
1,792500	0,1	210,262376
1,794167	0,1	208,941127
1,795833	0,1	207,331442
1,797500	0,1	205,660376
1,799167	0,1	203,850906
1,800833	0,1	201,892753
1,802500	0,1	199,862239
1,804167	0,1	197,669124
1,805833	0,1	195,403746
1,807500	0,1	193,020847
1,809167	0,1	190,561840
1,810833	0,1	187,967806
1,812500	0,1	185,361783
1,814167	0,1	182,630433
1,815833	0,1	179,872654
1,817500	0,1	176,996687
1,819167	0,1	174,138701
1,820833	0,1	171,186576
1,822500	0,1	168,227209
1,824167	0,1	165,185847
1,825833	0,1	162,139335
1,827500	0,1	159,084322
1,829167	0,1	155,998954
1,830833	0,1	152,904376
1,832500	0,1	149,809342
1,834167	0,1	146,680575
1,835833	0,1	143,576875
1,837500	0,1	140,464677
1,839167	0,1	137,390351
1,840833	0,1	134,295457
1,842500	0,1	131,278987
1,844167	0,1	128,197191
1,845833	0,1	125,200254
1,847500	0,1	122,197880
1,849167	0,1	119,270891
1,850833	0,1	116,336446
1,852500	0,1	113,439786
1,854167	0,1	110,648967
1,855833	0,1	107,792701
1,857500	0,1	105,052060
1,859167	0,1	102,367937
1,860833	0,1	99,674946
1,862500	0,1	97,089226
1,864167	0,1	94,473659
1,865833	0,1	91,916289
1,867500	0,1	89,494291
1,869167	0,1	87,028783
1,870833	0,1	84,667187
1,872500	0,1	82,365493
1,874167	0,1	80,119951
1,875833	0,1	77,929186
1,877500	0,1	75,729179
1,879167	0,1	73,588960
1,880833	0,1	71,527024
1,882500	0,1	69,521049
1,884167	0,1	67,541595
1,885833	0,1	65,652621
1,887500	0,1	63,796997
1,889167	0,1	62,004808
1,890833	0,1	60,197021
1,892500	0,1	58,517855
1,894167	0,1	56,795487
1,895833	0,1	55,180445
1,897500	0,1	53,636538
1,899167	0,1	52,096676
1,900833	0,1	50,577642
1,902500	0,1	49,105141
1,904167	0,1	47,732699
1,905833	0,1	46,353308
1,907500	0,1	44,983709
1,909167	0,1	43,693282
1,910833	0,1	42,428258
1,912500	0,1	41,236078
1,914167	0,1	40,089472
1,915833	0,1	38,923333
1,917500	0,1	37,814333
1,919167	0,1	36,718440
1,920833	0,1	35,699552
1,922500	0,1	34,723017
1,924167	0,1	33,673636
1,925833	0,1	32,734425
1,927500	0,1	31,782261
1,929167	0,1	30,892137
1,930833	0,1	30,047196
1,932500	0,1	29,169844
1,934167	0,1	28,332912
1,935833	0,1	27,598658
1,937500	0,1	26,761276
1,939167	0,1	26,071307
1,940833	0,1	25,304856
1,942500	0,1	24,624234
1,944167	0,1	23,995113
1,945833	0,1	23,327674
1,947500	0,1	22,627124
1,949167	0,1	22,105376
1,950833	0,1	21,456630
1,952500	0,1	20,908828
1,954167	0,1	20,280653
1,955833	0,1	19,815275
1,957500	0,1	19,310351
1,959167	0,1	18,790892
1,960833	0,1	18,276634
1,962500	0,1	17,808030
1,964167	0,1	17,307653
1,965833	0,1	16,941468
1,967500	0,1	16,489130
1,969167	0,1	16,082534
1,970833	0,1	15,668990
1,972500	0,1	15,346272
1,974167	0,1	14,967940
1,975833	0,1	14,589873
1,977500	0,1	14,196677
1,979167	0,1	13,857235
1,980833	0,1	13,545745
1,982500	0,1	13,249062
1,984167	0,1	12,984207
1,985833	0,1	12,654498
1,987500	0,1	12,383194
1,989167	0,1	12,102110
1,990833	0,1	11,856431
1,992500	0,1	11,585706
1,994167	0,1	11,343038
1,995833	0,1	11,107997
1,997500	0,1	10,878085
1,999167	0,1	10,671250
2,000833	0,1	10,458586
2,002500	0,1	10,259520
2,004167	0,1	10,069711
2,005833	0,1	9,901017
2,007500	0,1	9,698304
2,009167	0,1	9,513682
2,010833	0,1	9,342011
2,012500	0,1	9,183720
2,014167	0,1	9,036656
2,015833	0,1	8,897332
2,017500	0,1	8,735970
2,019167	0,1	8,611213
2,020833	0,1	8,441388
2,022500	0,1	8,330476
2,024167	0,1	8,192089
2,025833	0,1	8,083161
2,027500	0,1	7,990857
2,029167	0,1	7,836110
2,030833	0,1	7,798845
2,032500	0,1	7,637969
2,034167	0,1	7,573140
2,035833	0,1	7,470714
2,037500	0,1	7,378365
2,039167	0,1	7,306616
2,040833	0,1	7,213578
2,042500	0,1	7,168818
2,044167	0,1	7,070405
2,045833	0,1	7,040043
2,047500	0,1	6,947825
2,049167	0,1	6,873981
2,050833	0,1	6,805669
2,052500	0,1	6,733716
2,054167	0,1	6,682224
2,055833	0,1	6,631003
2,057500	0,1	6,578860
2,059167	0,1	6,522436
2,060833	0,1	6,475343
2,062500	0,1	6,441026
2,064167	0,1	6,397383
2,065833	0,1	6,356830
2,067500	0,1	6,291954
2,069167	0,1	6,301004
2,070833	0,1	6,240526
2,072500	0,1	6,240231
2,074167	0,1	6,214717
2,075833	0,1	6,110987
2,077500	0,1	6,087607
2,079167	0,1	6,115473
2,080833	0,1	6,053897
2,082500	0,1	6,072331
2,084167	0,1	6,004980
2,085833	0,1	5,970785
2,087500	0,1	5,945286
2,089167	0,1	5,914295
2,090833	0,1	5,892375
2,092500	0,1	5,873823
2,094167	0,1	5,812196
2,095833	0,1	5,836152
2,097500	0,1	5,788292
2,099167	0,1	5,766907
2,100833	0,1	5,751314
2,102500	0,1	5,688966
2,104167	0,1	5,695661
2,105833	0,1	5,643618
2,107500	0,1	5,651509
2,109167	0,1	5,655267
2,110833	0,1	5,599430
2,112500	0,1	5,592731
2,114167	0,1	5,530992
2,115833	0,1	5,518109
2,117500	0,1	5,523182
2,119167	0,1	5,444880
2,120833	0,1	5,456235
2,122500	0,1	5,433796
2,124167	0,1	5,403244
2,125833	0,1	5,382161
2,127500	0,1	5,367750
2,129167	0,1	5,348072
2,130833	0,1	5,304351
2,132500	0,1	5,261869
2,134167	0,1	5,247994
2,135833	0,1	5,193391
2,137500	0,1	5,136887
2,139167	0,1	5,138429
2,140833	0,1	5,126296
2,142500	0,1	5,108956
2,144167	0,1	5,068956
2,145833	0,1	5,018386
2,147500	0,1	4,994174
2,149167	0,1	4,979514
2,150833	0,1	4,912732
2,152500	0,1	4,914751
2,154167	0,1	4,916032
2,155833	0,1	4,879956
2,157500	0,1	4,813151
2,159167	0,1	4,785432
2,160833	0,1	4,758042
2,162500	0,1	4,726753
2,164167	0,1	4,722680
2,165833	0,1	4,647750
2,167500	0,1	4,646825
2,169167	0,1	4,634205
2,170833	0,1	4,588909
2,172500	0,1	4,588056
2,174167	0,1	4,531397
2,175833	0,1	4,533093
2,177500	0,1	4,454251
2,179167	0,1	4,447614
2,180833	0,1	4,408156
2,182500	0,1	4,391018
2,184167	0,1	4,359961
2,185833	0,1	4,348265
2,187500	0,1	4,270625
2,189167	0,1	4,248979
2,190833	0,1	4,261071
2,192500	0,1	4,218910
2,194167	0,1	4,169403
2,195833	0,1	4,135753
2,197500	0,1	4,137051
2,199167	0,1	4,097417
2,200833	0,1	4,094454
2,202500	0,1	4,039043
2,204167	0,1	4,032051
2,205833	0,1	4,000174
2,207500	0,1	3,985939
2,209167	0,1	3,882798
2,210833	0,1	3,880955
2,212500	0,1	3,868488
2,214167	0,1	3,869733
2,215833	0,1	3,823995
2,217500	0,1	3,767559
2,219167	0,1	3,760254
2,220833	0,1	3,758849
2,222500	0,1	3,704301
2,224167	0,1	3,663700
2,225833	0,1	3,681118
2,227500	0,1	3,652384
2,229167	0,1	3,591154
2,230833	0,1	3,577448
2,232500	0,1	3,557248
2,234167	0,1	3,526415
2,235833	0,1	3,488216
2,237500	0,1	3,486863
2,239167	0,1	3,449924
2,240833	0,1	3,447246
2,242500	0,1	3,352685
2,244167	0,1	3,300549
2,245833	0,1	3,339826
2,247500	0,1	3,297401
2,249167	0,1	3,280376
2,250833	0,1	3,253221
2,252500	0,1	3,243422
2,254167	0,1	3,195206
2,255833	0,1	3,180583
2,257500	0,1	3,135171
2,259167	0,1	3,112211
2,260833	0,1	3,116224
2,262500	0,1	3,135921
2,264167	0,1	3,058500
2,265833	0,1	3,031634
2,267500	0,1	2,994861
2,269167	0,1	2,989735
2,270833	0,1	2,967152
2,272500	0,1	2,957797
2,274167	0,1	2,945510
2,275833	0,1	2,903794
2,277500	0,1	2,865077
2,279167	0,1	2,843385
2,280833	0,1	2,827752
2,282500	0,1	2,805960
2,284167	0,1	2,786033
2,285833	0,1	2,792573
2,287500	0,1	2,764752
2,289167	0,1	2,734502
2,290833	0,1	2,708173
2,292500	0,1	2,698741
2,294167	0,1	2,667851
2,295833	0,1	2,629031
2,297500	0,1	2,678587
2,299167	0,1	2,616738
2,300833	0,1	2,610674
2,302500	0,1	2,573465
2,304167	0,1	2,576820
2,305833	0,1	2,587668
2,307500	0,1	2,548795
2,309167	0,1	2,515169
2,310833	0,1	2,531895
2,312500	0,1	2,518027
2,314167	0,1	2,499845
2,315833	0,1	2,439856
2,317500	0,1	2,437260
2,319167	0,1	2,415273
2,320833	0,1	2,424325
2,322500	0,1	2,399326
2,324167	0,1	2,430785
2,325833	0,1	2,408376
2,327500	0,1	2,352276
2,329167	0,1	2,329639
2,330833	0,1	2,289416
2,332500	0,1	2,329696
2,334167	0,1	2,286042
2,335833	0,1	2,285458
2,337500	0,1	2,271239
2,339167	0,1	2,281073
2,340833	0,1	2,186007
2,342500	0,1	2,204363
2,344167	0,1	2,250466
2,345833	0,1	2,205171
2,347500	0,1	2,166676
2,349167	0,1	2,184687
2,350833	0,1	2,164665
2,352500	0,1	2,158338
2,354167	0,1	2,145271
2,355833	0,1	2,124233
2,357500	0,1	2,137078
2,359167	0,1	2,105280
2,360833	0,1	2,122575
2,362500	0,1	2,073836
2,364167	0,1	2,055664
2,365833	0,1	2,042955
2,367500	0,1	2,015177
2,369167	0,1	2,059166
2,370833	0,1	2,056243
2,372500	0,1	2,025232
2,374167	0,1	2,027309
2,375833	0,1	2,057167
2,377500	0,1	2,049069
2,379167	0,1	1,972779
2,380833	0,1	1,978919
2,382500	0,1	1,957474
2,384167	0,1	1,916196
2,385833	0,1	1,931326
2,387500	0,1	1,973471
2,389167	0,1	1,918801
2,390833	0,1	1,887358
2,392500	0,1	1,893738
2,394167	0,1	1,901488
2,395833	0,1	1,883769
2,397500	0,1	1,857642
2,399167	0,1	1,872992
2,400833	0,1	1,851695
2,402500	0,1	1,814952
2,404167	0,1	1,788970
2,405833	0,1	1,776698
2,407500	0,1	1,804325
2,409167	0,1	1,851103
2,410833	0,1	1,777856
2,412500	0,1	1,804552
2,414167	0,1	1,740691
2,415833	0,1	1,774401
2,417500	0,1	1,744278
2,419167	0,1	1,735891
2,420833	0,1	1,686546
2,422500	0,1	1,745123
2,424167	0,1	1,723419
2,425833	0,1	1,689392
2,427500	0,1	1,696090
2,429167	0,1	1,663302
2,430833	0,1	1,669979
2,432500	0,1	1,667873
2,434167	0,1	1,641284
2,435833	0,1	1,614519
2,437500	0,1	1,614502
2,439167	0,1	1,607729
2,440833	0,1	1,606549
2,442500	0,1	1,608866
2,444167	0,1	1,593518
2,445833	0,1	1,597523
2,447500	0,1	1,555995
2,449167	0,1	1,599519
2,450833	0,1	1,520715
2,452500	0,1	1,536277
2,454167	0,1	1,533853
2,455833	0,1	1,513220
2,457500	0,1	1,530126
2,459167	0,1	1,549664
2,460833	0,1	1,496984
2,462500	0,1	1,513032
2,464167	0,1	1,474464
2,465833	0,1	1,460802
2,467500	0,1	1,459629
2,469167	0,1	1,484227
2,470833	0,1	1,411173
2,472500	0,1	1,495827
2,474167	0,1	1,432834
2,475833	0,1	1,498647
2,477500	0,1	1,456324
2,479167	0,1	1,427937
2,480833	0,1	1,428385
2,482500	0,1	1,411227
2,484167	0,1	1,418842
2,485833	0,1	1,396763
2,487500	0,1	1,381142
2,489167	0,1	1,404272
2,490833	0,1	1,425018
2,492500	0,1	1,413890
2,494167	0,1	1,404094
2,495833	0,1	1,422456
2,497500	0,1	1,371270
2,499167	0,1	1,369289
2,500833	0,1	1,389384
2,502500	0,1	1,329172
2,504167	0,1	1,357618
2,505833	0,1	1,369437
2,507500	0,1	1,362278
2,509167	0,1	1,374598
2,510833	0,1	1,325877
2,512500	0,1	1,316411
2,514167	0,1	1,326102
2,515833	0,1	1,348147
2,517500	0,1	1,343792
2,519167	0,1	1,309102
2,520833	0,1	1,354898
2,522500	0,1	1,353313
2,524167	0,1	1,318949
2,525833	0,1	1,336420
2,527500	0,1	1,331620
2,529167	0,1	1,279062
2,530833	0,1	1,337326
2,532500	0,1	1,294712
2,534167	0,1	1,315134
2,535833	0,1	1,354493
2,537500	0,1	1,307103
2,539167	0,1	1,318040
2,540833	0,1	1,338864
2,542500	0,1	1,293625
2,544167	0,1	1,281755
2,545833	0,1	1,301147
2,547500	0,1	1,324605
2,549167	0,1	1,285526
2,550833	0,1	1,300385
2,552500	0,1	1,294855
2,554167	0,1	1,298281
2,555833	0,1	1,317407
2,557500	0,1	1,313455
2,559167	0,1	1,330393
2,560833	0,1	1,328887
2,562500	0,1	1,303312
2,564167	0,1	1,307023
2,565833	0,1	1,325013
2,567500	0,1	1,290840
2,569167	0,1	1,363516
2,570833	0,1	1,310819
2,572500	0,1	1,345005
2,574167	0,1	1,346371
2,575833	0,1	1,286858
2,577500	0,1	1,330522
2,579167	0,1	1,364271
2,580833	0,1	1,320850
2,582500	0,1	1,294755
2,584167	0,1	1,325145
2,585833	0,1	1,319208
2,587500	0,1	1,349606
2,589167	0,1	1,373018
2,590833	0,1	1,388536
2,592500	0,1	1,317564
2,594167	0,1	1,375013
2,595833	0,1	1,395410
2,597500	0,1	1,394261
2,599167	0,1	1,369378
2,600833	0,1	1,388332
2,602500	0,1	1,390475
2,604167	0,1	1,385588
2,605833	0,1	1,372907
2,607500	0,1	1,382426
2,609167	0,1	1,423640
2,610833	0,1	1,440080
2,612500	0,1	1,443596
2,614167	0,1	1,412672
2,615833	0,1	1,436753
2,617500	0,1	1,427523
2,619167	0,1	1,438623
2,620833	0,1	1,491181
2,622500	0,1	1,443358
2,624167	0,1	1,407089
2,625833	0,1	1,439110
2,627500	0,1	1,450609
2,629167	0,1	1,465995
2,630833	0,1	1,457203
2,632500	0,1	1,438204
2,634167	0,1	1,460899
2,635833	0,1	1,427544
2,637500	0,1	1,436026
2,639167	0,1	1,528091
2,640833	0,1	1,456488
2,642500	0,1	1,472021
2,644167	0,1	1,486673
2,645833	0,1	1,525619
2,647500	0,1	1,468661
2,649167	0,1	1,497995
2,650833	0,1	1,467583
2,652500	0,1	1,496196
2,654167	0,1	1,423567
2,655833	0,1	1,519152
2,657500	0,1	1,474701
2,659167	0,1	1,482227
2,660833	0,1	1,473757
2,662500	0,1	1,502512
2,664167	0,1	1,431682
2,665833	0,1	1,448078
2,667500	0,1	1,473052
2,669167	0,1	1,417431
2,670833	0,1	1,474570
2,672500	0,1	1,474059
2,674167	0,1	1,486081
2,675833	0,1	1,428636
2,677500	0,1	1,462249
2,679167	0,1	1,453451
2,680833	0,1	1,466739
2,682500	0,1	1,415275
2,684167	0,1	1,444321
2,685833	0,1	1,408598
2,687500	0,1	1,454336
2,689167	0,1	1,423285
2,690833	0,1	1,439063
2,692500	0,1	1,427438
2,694167	0,1	1,429524
2,695833	0,1	1,403656
2,697500	0,1	1,390393
2,699167	0,1	1,397945
2,700833	0,1	1,359060
2,702500	0,1	1,383491
2,704167	0,1	1,385703
2,705833	0,1	1,374826
2,707500	0,1	1,411942
2,709167	0,1	1,394317
2,710833	0,1	1,382210
2,712500	0,1	1,398485
2,714167	0,1	1,335930
2,715833	0,1	1,393024
2,717500	0,1	1,366153
2,719167	0,1	1,328809
2,720833	0,1	1,324998
2,722500	0,1	1,333910
2,724167	0,1	1,334844
2,725833	0,1	1,336389
2,727500	0,1	1,376884
2,729167	0,1	1,332884
2,730833	0,1	1,330533
2,732500	0,1	1,360420
2,734167	0,1	1,317200
2,735833	0,1	1,318276
2,737500	0,1	1,329749
2,739167	0,1	1,315413
2,740833	0,1	1,335891
2,742500	0,1	1,326003
2,744167	0,1	1,327068
2,745833	0,1	1,330785
2,747500	0,1	1,305653
2,749167	0,1	1,327744
2,750833	0,1	1,308569
2,752500	0,1	1,326080
2,754167	0,1	1,294911
2,755833	0,1	1,310158
2,757500	0,1	1,338911
2,759167	0,1	1,296714
2,760833	0,1	1,325162
2,762500	0,1	1,332246
2,764167	0,1	1,346520
2,765833	0,1	1,360288
2,767500	0,1	1,343353
2,769167	0,1	1,358844
2,770833	0,1	1,340961
2,772500	0,1	1,355992
2,774167	0,1	1,353842
2,775833	0,1	1,379197
2,777500	0,1	1,331988
2,779167	0,1	1,334624
2,780833	0,1	1,347555
2,782500	0,1	1,338785
2,784167	0,1	1,350987
2,785833	0,1	1,358829
2,787500	0,1	1,375751
2,789167	0,1	1,348787
2,790833	0,1	1,379535
2,792500	0,1	1,392899
2,794167	0,1	1,369548
2,795833	0,1	1,413264
2,797500	0,1	1,417485
2,799167	0,1	1,355824
2,800833	0,1	1,387937
2,802500	0,1	1,404122
2,804167	0,1	1,371112
2,805833	0,1	1,389706
2,807500	0,1	1,427544
2,809167	0,1	1,398428
2,810833	0,1	1,383636
2,812500	0,1	1,383701
2,814167	0,1	1,378032
2,815833	0,1	1,419023
2,817500	0,1	1,405944
2,819167	0,1	1,395825
2,820833	0,1	1,390749
2,822500	0,1	1,424051
2,824167	0,1	1,412040
2,825833	0,1	1,418979
2,827500	0,1	1,393893
2,829167	0,1	1,393038
2,830833	0,1	1,432383
2,832500	0,1	1,414468
2,834167	0,1	1,412902
2,835833	0,1	1,383963
2,837500	0,1	1,393088
2,839167	0,1	1,371738
2,840833	0,1	1,411382
2,842500	0,1	1,406436
2,844167	0,1	1,378750
2,845833	0,1	1,365946
2,847500	0,1	1,360071
2,849167	0,1	1,364772
2,850833	0,1	1,366146
2,852500	0,1	1,332985
2,854167	0,1	1,346197
2,855833	0,1	1,321153
2,857500	0,1	1,325999
2,859167	0,1	1,339850
2,860833	0,1	1,307252
2,862500	0,1	1,283127
2,864167	0,1	1,309665
2,865833	0,1	1,301491
2,867500	0,1	1,282499
2,869167	0,1	1,267259
2,870833	0,1	1,294030
2,872500	0,1	1,264105
2,874167	0,1	1,251694
2,875833	0,1	1,232327
2,877500	0,1	1,250415
2,879167	0,1	1,241152
2,880833	0,1	1,237908
2,882500	0,1	1,209154
2,884167	0,1	1,214863
2,885833	0,1	1,169003
2,887500	0,1	1,226767
2,889167	0,1	1,174386
2,890833	0,1	1,186999
2,892500	0,1	1,169797
2,894167	0,1	1,179973
2,895833	0,1	1,144364
2,897500	0,1	1,155959
2,899167	0,1	1,113551
2,900833	0,1	1,098183
2,902500	0,1	1,110471
2,904167	0,1	1,098028
2,905833	0,1	1,046440
2,907500	0,1	1,094100
2,909167	0,1	1,082510
2,910833	0,1	1,038589
2,912500	0,1	1,050071
2,914167	0,1	1,062299
2,915833	0,1	1,031633
2,917500	0,1	1,005849
2,919167	0,1	0,985907
2,920833	0,1	1,014569
2,922500	0,1	0,976111
2,924167	0,1	1,013189
2,925833	0,1	0,983265
2,927500	0,1	0,981417
2,929167	0,1	0,910870
2,930833	0,1	0,928471
2,932500	0,1	0,956274
2,934167	0,1	0,935570
2,935833	0,1	0,893398
2,937500	0,1	0,926115
2,939167	0,1	0,880024
2,940833	0,1	0,841492
2,942500	0,1	0,902461
2,944167	0,1	0,886407
2,945833	0,1	0,895344
2,947500	0,1	0,832320
2,949167	0,1	0,836421
2,950833	0,1	0,837132
2,952500	0,1	0,846570
2,954167	0,1	0,845192
2,955833	0,1	0,827116
2,957500	0,1	0,809824
2,959167	0,1	0,822506
2,960833	0,1	0,799740
2,962500	0,1	0,795478
2,964167	0,1	0,759381
2,965833	0,1	0,789288
2,967500	0,1	0,758605
2,969167	0,1	0,804515
2,970833	0,1	0,760055
2,972500	0,1	0,760884
2,974167	0,1	0,765841
2,975833	0,1	0,760141
2,977500	0,1	0,768670
2,979167	0,1	0,747296
2,980833	0,1	0,772699
2,982500	0,1	0,730459
2,984167	0,1	0,777204
2,985833	0,1	0,757993
2,987500	0,1	0,709718
2,989167	0,1	0,743123
2,990833	0,1	0,696321
2,992500	0,1	0,715598
2,994167	0,1	0,706262
2,995833	0,1	0,732469
2,997500	0,1	0,676644
2,999167	0,1	0,716556
3,000833	0,1	0,667176
3,002500	0,1	0,718458
3,004167	0,1	0,658547
3,005833	0,1	0,711756
3,007500	0,1	0,671908
3,009167	0,1	0,674992
3,010833	0,1	0,710181
3,012500	0,1	0,688521
3,014167	0,1	0,674155
3,015833	0,1	0,738706
3,017500	0,1	0,679930
3,019167	0,1	0,712595
3,020833	0,1	0,703008
3,022500	0,1	0,686652
3,024167	0,1	0,674798
3,025833	0,1	0,683199
3,027500	0,1	0,709246
3,029167	0,1	0,664019
3,030833	0,1	0,677883
3,032500	0,1	0,658569
3,034167	0,1	0,672313
3,035833	0,1	0,693178
3,037500	0,1	0,596215
3,039167	0,1	0,691422
3,040833	0,1	0,663821
3,042500	0,1	0,648716
3,044167	0,1	0,661814
3,045833	0,1	0,645914
3,047500	0,1	0,691855
3,049167	0,1	0,678537
3,050833	0,1	0,661403
3,052500	0,1	0,629365
3,054167	0,1	0,655082
3,055833	0,1	0,652604
3,057500	0,1	0,632840
3,059167	0,1	0,639016
3,060833	0,1	0,612490
3,062500	0,1	0,635632
3,064167	0,1	0,621602
3,065833	0,1	0,622565
3,067500	0,1	0,624977
3,069167	0,1	0,628617
3,070833	0,1	0,622051
3,072500	0,1	0,560436
3,074167	0,1	0,635650
3,075833	0,1	0,604313
3,077500	0,1	0,646477
3,079167	0,1	0,583843
3,080833	0,1	0,611609
3,082500	0,1	0,623623
3,084167	0,1	0,585125
3,085833	0,1	0,586437
3,087500	0,1	0,598636
3,089167	0,1	0,571375
3,090833	0,1	0,592163
3,092500	0,1	0,577264
3,094167	0,1	0,579096
3,095833	0,1	0,580706
3,097500	0,1	0,563840
3,099167	0,1	0,566955
3,100833	0,1	0,566669
3,102500	0,1	0,540433
3,104167	0,1	0,585718
3,105833	0,1	0,554314
3,107500	0,1	0,531869
3,109167	0,1	0,551240
3,110833	0,1	0,511753
3,112500	0,1	0,532730
3,114167	0,1	0,542583
3,115833	0,1	0,538787
3,117500	0,1	0,514005
3,119167	0,1	0,506211
3,120833	0,1	0,530186
3,122500	0,1	0,522822
3,124167	0,1	0,516928
3,125833	0,1	0,511101
3,127500	0,1	0,558287
3,129167	0,1	0,508021
3,130833	0,1	0,551299
3,132500	0,1	0,539887
3,134167	0,1	0,531965
3,135833	0,1	0,499615
3,137500	0,1	0,502826
3,139167	0,1	0,475149
3,140833	0,1	0,513958
3,142500	0,1	0,513967
3,144167	0,1	0,472097
3,145833	0,1	0,480774
3,147500	0,1	0,448756
3,149167	0,1	0,462619
3,150833	0,1	0,491330
3,152500	0,1	0,471060
3,154167	0,1	0,478587
3,155833	0,1	0,488244
3,157500	0,1	0,485576
3,159167	0,1	0,450724
3,160833	0,1	0,491292
3,162500	0,1	0,487380
3,164167	0,1	0,467713
3,165833	0,1	0,465262
3,167500	0,1	0,479102
3,169167	0,1	0,445249
3,170833	0,1	0,455960
3,172500	0,1	0,433404
3,174167	0,1	0,452833
3,175833	0,1	0,439675
3,177500	0,1	0,448427
3,179167	0,1	0,442285
3,180833	0,1	0,436391
3,182500	0,1	0,380466
3,184167	0,1	0,441461
3,185833	0,1	0,405275
3,187500	0,1	0,404559
3,189167	0,1	0,401079
3,190833	0,1	0,436220
3,192500	0,1	0,406815
3,194167	0,1	0,415916
3,195833	0,1	0,407525
3,197500	0,1	0,402465
3,199167	0,1	0,382870
3,200833	0,1	0,413500
3,202500	0,1	0,435422
3,204167	0,1	0,407819
3,205833	0,1	0,403506
3,207500	0,1	0,388145
3,209167	0,1	0,393705
3,210833	0,1	0,369779
3,212500	0,1	0,390004
3,214167	0,1	0,377148
3,215833	0,1	0,417592
3,217500	0,1	0,373484
3,219167	0,1	0,415754
3,220833	0,1	0,344908
3,222500	0,1	0,405387
3,224167	0,1	0,363449
3,225833	0,1	0,406062
3,227500	0,1	0,358317
3,229167	0,1	0,375400
3,230833	0,1	0,397092
3,232500	0,1	0,375571
3,234167	0,1	0,347799
3,235833	0,1	0,399623
3,237500	0,1	0,346480
3,239167	0,1	0,366614
3,240833	0,1	0,373570
3,242500	0,1	0,349792
3,244167	0,1	0,360082
3,245833	0,1	0,395484
3,247500	0,1	0,359386
3,249167	0,1	0,368829
3,250833	0,1	0,333832
3,252500	0,1	0,407993
3,254167	0,1	0,407396
3,255833	0,1	0,379761
3,257500	0,1	0,394093
3,259167	0,1	0,343588
3,260833	0,1	0,309503
3,262500	0,1	0,350810
3,264167	0,1	0,348282
3,265833	0,1	0,347603
3,267500	0,1	0,351073
3,269167	0,1	0,403222
3,270833	0,1	0,363211
3,272500	0,1	0,373988
3,274167	0,1	0,369068
3,275833	0,1	0,362724
3,277500	0,1	0,348566
3,279167	0,1	0,371055
3,280833	0,1	0,333024
3,282500	0,1	0,416938
3,284167	0,1	0,335620
3,285833	0,1	0,304669
3,287500	0,1	0,317503
3,289167	0,1	0,341604
3,290833	0,1	0,364131
3,292500	0,1	0,365068
3,294167	0,1	0,392966
3,295833	0,1	0,332171
3,297500	0,1	0,336724
3,299167	0,1	0,358918
3,300833	0,1	0,309569
3,302500	0,1	0,365572
3,304167	0,1	0,356450
3,305833	0,1	0,336301
3,307500	0,1	0,362298
3,309167	0,1	0,342902
3,310833	0,1	0,351941
3,312500	0,1	0,350620
3,314167	0,1	0,376204
3,315833	0,1	0,355331
3,317500	0,1	0,352840
3,319167	0,1	0,359112
3,320833	0,1	0,312167
3,322500	0,1	0,341891
3,324167	0,1	0,363814
3,325833	0,1	0,369547
3,327500	0,1	0,358990
3,329167	0,1	0,367489
3,330833	0,1	0,343139
3,332500	0,1	0,321562
3,334167	0,1	0,336040
3,335833	0,1	0,345821
3,337500	0,1	0,375559
3,339167	0,1	0,365008
3,340833	0,1	0,352853
3,342500	0,1	0,360663
3,344167	0,1	0,395095
3,345833	0,1	0,338378
3,347500	0,1	0,341746
3,349167	0,1	0,360178
3,350833	0,1	0,340932
3,352500	0,1	0,368635
3,354167	0,1	0,368750
3,355833	0,1	0,356768
3,357500	0,1	0,335960
3,359167	0,1	0,359942
3,360833	0,1	0,319383
3,362500	0,1	0,373232
3,364167	0,1	0,378783
3,365833	0,1	0,351686
3,367500	0,1	0,357797
3,369167	0,1	0,355126
3,370833	0,1	0,352080
3,372500	0,1	0,362013
3,374167	0,1	0,348893
3,375833	0,1	0,364938
3,377500	0,1	0,363201
3,379167	0,1	0,385668
3,380833	0,1	0,365682
3,382500	0,1	0,377459
3,384167	0,1	0,385409
3,385833	0,1	0,378523
3,387500	0,1	0,389562
3,389167	0,1	0,370032
3,390833	0,1	0,373245
3,392500	0,1	0,363267
3,394167	0,1	0,345476
3,395833	0,1	0,399985
3,397500	0,1	0,367007
3,399167	0,1	0,365623
3,400833	0,1	0,385017
3,402500	0,1	0,348065
3,404167	0,1	0,410536
3,405833	0,1	0,400382
3,407500	0,1	0,384809
3,409167	0,1	0,401443
3,410833	0,1	0,380939
3,412500	0,1	0,400955
3,414167	0,1	0,407331
3,415833	0,1	0,402918
3,417500	0,1	0,374150
3,419167	0,1	0,367771
3,420833	0,1	0,394381
3,422500	0,1	0,359966
3,424167	0,1	0,347430
3,425833	0,1	0,405126
3,427500	0,1	0,382207
3,429167	0,1	0,378560
3,430833	0,1	0,387920
3,432500	0,1	0,365074
3,434167	0,1	0,390237
3,435833	0,1	0,382458
3,437500	0,1	0,363760
3,439167	0,1	0,330096
3,440833	0,1	0,359624
3,442500	0,1	0,352426
3,444167	0,1	0,389971
3,445833	0,1	0,366942
3,447500	0,1	0,409961
3,449167	0,1	0,359288
3,450833	0,1	0,383347
3,452500	0,1	0,414178
3,454167	0,1	0,391082
3,455833	0,1	0,370359
3,457500	0,1	0,391744
3,459167	0,1	0,391522
3,460833	0,1	0,403849
3,462500	0,1	0,413214
3,464167	0,1	0,402348
3,465833	0,1	0,431622
3,467500	0,1	0,390761
3,469167	0,1	0,404718
3,470833	0,1	0,392050
3,472500	0,1	0,417398
3,474167	0,1	0,391464
3,475833	0,1	0,392075
3,477500	0,1	0,405136
3,479167	0,1	0,416241
3,480833	0,1	0,376502
3,482500	0,1	0,362862
3,484167	0,1	0,414102
3,485833	0,1	0,398960
3,487500	0,1	0,410193
3,489167	0,1	0,397609
3,490833	0,1	0,418914
3,492500	0,1	0,427476
3,494167	0,1	0,419528
3,495833	0,1	0,386317
3,497500	0,1	0,405622
3,499167	0,1	0,352627
3,500833	0,1	0,396144
3,502500	0,1	0,393291
3,504167	0,1	0,392555
3,505833	0,1	0,423062
3,507500	0,1	0,392210
3,509167	0,1	0,421966
3,510833	0,1	0,403086
3,512500	0,1	0,373481
3,514167	0,1	0,371416
3,515833	0,1	0,400563
3,517500	0,1	0,410130
3,519167	0,1	0,373635
3,520833	0,1	0,420809
3,522500	0,1	0,386571
3,524167	0,1	0,413726
3,525833	0,1	0,360414
3,527500	0,1	0,401077
3,529167	0,1	0,416947
3,530833	0,1	0,402539
3,532500	0,1	0,397615
3,534167	0,1	0,383801
3,535833	0,1	0,438371
3,537500	0,1	0,385805
3,539167	0,1	0,431554
3,540833	0,1	0,412577
3,542500	0,1	0,423231
3,544167	0,1	0,422774
3,545833	0,1	0,406756
3,547500	0,1	0,449445
3,549167	0,1	0,383914
3,550833	0,1	0,423281
3,552500	0,1	0,422519
3,554167	0,1	0,427795
3,555833	0,1	0,448940
3,557500	0,1	0,391472
3,559167	0,1	0,430778
3,560833	0,1	0,428893
3,562500	0,1	0,365565
3,564167	0,1	0,416740
3,565833	0,1	0,426506
3,567500	0,1	0,442568
3,569167	0,1	0,421525
3,570833	0,1	0,429280
3,572500	0,1	0,389130
3,574167	0,1	0,378198
3,575833	0,1	0,407127
3,577500	0,1	0,431298
3,579167	0,1	0,378118
3,580833	0,1	0,418872
3,582500	0,1	0,408622
3,584167	0,1	0,400183
3,585833	0,1	0,378365
3,587500	0,1	0,376074
3,589167	0,1	0,398342
3,590833	0,1	0,347830
3,592500	0,1	0,355514
3,594167	0,1	0,400297
3,595833	0,1	0,379978
3,597500	0,1	0,393259
3,599167	0,1	0,380646
3,600833	0,1	0,436121
3,602500	0,1	0,388895
3,604167	0,1	0,372152
3,605833	0,1	0,372376
3,607500	0,1	0,394480
3,609167	0,1	0,356130
3,610833	0,1	0,360147
3,612500	0,1	0,335405
3,614167	0,1	0,378121
3,615833	0,1	0,385184
3,617500	0,1	0,327517
3,619167	0,1	0,355671
3,620833	0,1	0,360625
3,622500	0,1	0,360953
3,624167	0,1	0,373470
3,625833	0,1	0,357992
3,627500	0,1	0,372091
3,629167	0,1	0,332898
3,630833	0,1	0,368478
3,632500	0,1	0,338462
3,634167	0,1	0,339552
3,635833	0,1	0,321952
3,637500	0,1	0,381662
3,639167	0,1	0,326087
3,640833	0,1	0,313106
3,642500	0,1	0,350457
3,644167	0,1	0,342319
3,645833	0,1	0,355576
3,647500	0,1	0,356194
3,649167	0,1	0,357218
3,650833	0,1	0,359022
3,652500	0,1	0,368775
3,654167	0,1	0,356416
3,655833	0,1	0,367830
3,657500	0,1	0,362016
3,659167	0,1	0,339822
3,660833	0,1	0,364039
3,662500	0,1	0,326915
3,664167	0,1	0,313939
3,665833	0,1	0,302797
3,667500	0,1	0,352121
3,669167	0,1	0,332857
3,670833	0,1	0,349782
3,672500	0,1	0,291489
3,674167	0,1	0,356397
3,675833	0,1	0,323622
3,677500	0,1	0,318896
3,679167	0,1	0,363545
3,680833	0,1	0,329363
3,682500	0,1	0,305537
3,684167	0,1	0,340413
3,685833	0,1	0,345115
3,687500	0,1	0,306954
3,689167	0,1	0,330889
3,690833	0,1	0,367989
3,692500	0,1	0,339015
3,694167	0,1	0,340828
3,695833	0,1	0,350653
3,697500	0,1	0,330066
3,699167	0,1	0,307542
3,700833	0,1	0,328871
3,702500	0,1	0,351522
3,704167	0,1	0,309694
3,705833	0,1	0,326930
3,707500	0,1	0,321949
3,709167	0,1	0,324359
3,710833	0,1	0,350877
3,712500	0,1	0,316065
3,714167	0,1	0,289614
3,715833	0,1	0,368569
3,717500	0,1	0,306607
3,719167	0,1	0,361267
3,720833	0,1	0,354319
3,722500	0,1	0,329159
3,724167	0,1	0,360910
3,725833	0,1	0,292198
3,727500	0,1	0,347579
3,729167	0,1	0,374146
3,730833	0,1	0,374688
3,732500	0,1	0,368352
3,734167	0,1	0,344316
3,735833	0,1	0,364420
3,737500	0,1	0,339168
3,739167	0,1	0,351223
3,740833	0,1	0,356865
3,742500	0,1	0,367225
3,744167	0,1	0,362850
3,745833	0,1	0,400786
3,747500	0,1	0,383196
3,749167	0,1	0,412374
3,750833	0,1	0,396005
3,752500	0,1	0,404647
3,754167	0,1	0,425931
3,755833	0,1	0,406622
3,757500	0,1	0,451024
3,759167	0,1	0,436748
3,760833	0,1	0,412316
3,762500	0,1	0,470558
3,764167	0,1	0,470672
3,765833	0,1	0,402163
3,767500	0,1	0,464858
3,769167	0,1	0,429545
3,770833	0,1	0,421968
3,772500	0,1	0,442597
3,774167	0,1	0,439059
3,775833	0,1	0,455026
3,777500	0,1	0,429958
3,779167	0,1	0,445073
3,780833	0,1	0,482634
3,782500	0,1	0,481777
3,784167	0,1	0,500858
3,785833	0,1	0,492915
3,787500	0,1	0,457539
3,789167	0,1	0,507129
3,790833	0,1	0,492500
3,792500	0,1	0,492944
3,794167	0,1	0,497322
3,795833	0,1	0,512416
3,797500	0,1	0,516250
3,799167	0,1	0,526003
3,800833	0,1	0,481719
3,802500	0,1	0,536908
3,804167	0,1	0,517479
3,805833	0,1	0,518922
3,807500	0,1	0,510650
3,809167	0,1	0,554777
3,810833	0,1	0,532740
3,812500	0,1	0,493274
3,814167	0,1	0,542574
3,815833	0,1	0,559325
3,817500	0,1	0,550252
3,819167	0,1	0,548897
3,820833	0,1	0,529101
3,822500	0,1	0,538172
3,824167	0,1	0,552369
3,825833	0,1	0,533672
3,827500	0,1	0,544095
3,829167	0,1	0,496175
3,830833	0,1	0,547853
3,832500	0,1	0,512172
3,834167	0,1	0,535981
3,835833	0,1	0,481721
3,837500	0,1	0,512608
3,839167	0,1	0,521301
3,840833	0,1	0,544383
3,842500	0,1	0,528648
3,844167	0,1	0,517349
3,845833	0,1	0,537526
3,847500	0,1	0,557070
3,849167	0,1	0,553821
3,850833	0,1	0,528135
3,852500	0,1	0,530287
3,854167	0,1	0,544708
3,855833	0,1	0,527780
3,857500	0,1	0,523367
3,859167	0,1	0,541875
3,860833	0,1	0,521695
3,862500	0,1	0,486643
3,864167	0,1	0,503594
3,865833	0,1	0,524360
3,867500	0,1	0,559192
3,869167	0,1	0,542493
3,870833	0,1	0,534441
3,872500	0,1	0,507856
3,874167	0,1	0,500901
3,875833	0,1	0,495265
3,877500	0,1	0,523038
3,879167	0,1	0,517831
3,880833	0,1	0,464306
3,882500	0,1	0,479257
3,884167	0,1	0,526285
3,885833	0,1	0,469909
3,887500	0,1	0,494230
3,889167	0,1	0,448823
3,890833	0,1	0,459562
3,892500	0,1	0,463681
3,894167	0,1	0,464170
3,895833	0,1	0,457856
3,897500	0,1	0,487015
3,899167	0,1	0,521717
3,900833	0,1	0,417739
3,902500	0,1	0,471622
3,904167	0,1	0,474986
3,905833	0,1	0,456280
3,907500	0,1	0,449685
3,909167	0,1	0,444371
3,910833	0,1	0,427220
3,912500	0,1	0,432972
3,914167	0,1	0,426447
3,915833	0,1	0,412732
3,917500	0,1	0,411667
3,919167	0,1	0,425416
3,920833	0,1	0,397774
3,922500	0,1	0,402818
3,924167	0,1	0,392523
3,925833	0,1	0,376975
3,927500	0,1	0,447641
3,929167	0,1	0,377986
3,930833	0,1	0,382674
3,932500	0,1	0,395706
3,934167	0,1	0,392230
3,935833	0,1	0,399951
3,937500	0,1	0,366909
3,939167	0,1	0,385888
3,940833	0,1	0,393332
3,942500	0,1	0,395518
3,944167	0,1	0,367044
3,945833	0,1	0,358282
3,947500	0,1	0,397469
3,949167	0,1	0,357583
3,950833	0,1	0,385332
3,952500	0,1	0,371771
3,954167	0,1	0,383740
3,955833	0,1	0,351788
3,957500	0,1	0,366035
3,959167	0,1	0,303263
3,960833	0,1	0,348967
3,962500	0,1	0,345156
3,964167	0,1	0,356283
3,965833	0,1	0,332996
3,967500	0,1	0,298977
3,969167	0,1	0,347299
3,970833	0,1	0,316908
3,972500	0,1	0,327473
3,974167	0,1	0,309436
3,975833	0,1	0,307853
3,977500	0,1	0,307374
3,979167	0,1	0,289738
3,980833	0,1	0,328855
3,982500	0,1	0,279135
3,984167	0,1	0,265801
3,985833	0,1	0,320722
3,987500	0,1	0,322957
3,989167	0,1	0,294926
3,990833	0,1	0,285825
3,992500	0,1	0,291965
3,994167	0,1	0,294692
3,995833	0,1	0,290896
3,997500	0,1	0,255637
3,999167	0,1	0,243946
4,000833	0,1	0,308228
4,002500	0,1	0,271950
4,004167	0,1	0,316915
4,005833	0,1	0,300210
4,007500	0,1	0,269995
4,009167	0,1	0,324963
4,010833	0,1	0,311314
4,012500	0,1	0,268054
4,014167	0,1	0,303694
4,015833	0,1	0,255551
4,017500	0,1	0,323711
4,019167	0,1	0,288203
4,020833	0,1	0,300999
4,022500	0,1	0,268277
4,024167	0,1	0,291735
4,025833	0,1	0,265513
4,027500	0,1	0,271562
4,029167	0,1	0,259492
4,030833	0,1	0,290181
4,032500	0,1	0,293985
4,034167	0,1	0,290126
4,035833	0,1	0,260492
4,037500	0,1	0,267223
4,039167	0,1	0,271689
4,040833	0,1	0,260942
4,042500	0,1	0,273680
4,044167	0,1	0,295431
4,045833	0,1	0,301479
4,047500	0,1	0,306955
4,049167	0,1	0,315246
4,050833	0,1	0,255831
4,052500	0,1	0,323384
4,054167	0,1	0,301588
4,055833	0,1	0,353382
4,057500	0,1	0,336300
4,059167	0,1	0,268223
4,060833	0,1	0,321066
4,062500	0,1	0,354537
4,064167	0,1	0,347566
4,065833	0,1	0,367676
4,067500	0,1	0,307780
4,069167	0,1	0,339091
4,070833	0,1	0,293315
4,072500	0,1	0,353659
4,074167	0,1	0,371792
4,075833	0,1	0,335672
4,077500	0,1	0,361844
4,079167	0,1	0,384147
4,080833	0,1	0,356156
4,082500	0,1	0,417291
4,084167	0,1	0,377951
4,085833	0,1	0,408605
4,087500	0,1	0,420140
4,089167	0,1	0,424929
4,090833	0,1	0,424387
4,092500	0,1	0,404111
4,094167	0,1	0,439536
4,095833	0,1	0,448330
4,097500	0,1	0,469124
4,099167	0,1	0,465359
4,100833	0,1	0,432408
4,102500	0,1	0,485239
4,104167	0,1	0,501731
4,105833	0,1	0,495942
4,107500	0,1	0,542705
4,109167	0,1	0,530969
4,110833	0,1	0,562893
4,112500	0,1	0,528428
4,114167	0,1	0,530931
4,115833	0,1	0,555201
4,117500	0,1	0,566052
4,119167	0,1	0,561935
4,120833	0,1	0,590325
4,122500	0,1	0,600022
4,124167	0,1	0,622881
4,125833	0,1	0,569610
4,127500	0,1	0,597314
4,129167	0,1	0,633856
4,130833	0,1	0,671340
4,132500	0,1	0,644598
4,134167	0,1	0,667608
4,135833	0,1	0,674697
4,137500	0,1	0,710565
4,139167	0,1	0,678056
4,140833	0,1	0,670803
4,142500	0,1	0,752685
4,144167	0,1	0,688401
4,145833	0,1	0,738551
4,147500	0,1	0,737984
4,149167	0,1	0,735473
4,150833	0,1	0,749127
4,152500	0,1	0,765941
4,154167	0,1	0,764562
4,155833	0,1	0,754126
4,157500	0,1	0,795728
4,159167	0,1	0,759865
4,160833	0,1	0,783491
4,162500	0,1	0,783823
4,164167	0,1	0,787783
4,165833	0,1	0,794065
4,167500	0,1	0,831754
4,169167	0,1	0,805512
4,170833	0,1	0,800958
4,172500	0,1	0,845760
4,174167	0,1	0,851896
4,175833	0,1	0,795015
4,177500	0,1	0,854264
4,179167	0,1	0,859366
4,180833	0,1	0,845549
4,182500	0,1	0,843929
4,184167	0,1	0,896044
4,185833	0,1	0,818803
4,187500	0,1	0,865800
4,189167	0,1	0,847511
4,190833	0,1	0,891614
4,192500	0,1	0,879174
4,194167	0,1	0,895277
4,195833	0,1	0,897386
4,197500	0,1	0,875770
4,199167	0,1	0,877119
4,200833	0,1	0,875765
4,202500	0,1	0,908359
4,204167	0,1	0,886174
4,205833	0,1	0,887614
4,207500	0,1	0,874598
4,209167	0,1	0,920468
4,210833	0,1	0,900416
4,212500	0,1	0,885369
4,214167	0,1	0,907453
4,215833	0,1	0,886239
4,217500	0,1	0,909452
4,219167	0,1	0,898190
4,220833	0,1	0,864818
4,222500	0,1	0,879890
4,224167	0,1	0,854256
4,225833	0,1	0,918045
4,227500	0,1	0,883415
4,229167	0,1	0,905336
4,230833	0,1	0,888197
4,232500	0,1	0,894347
4,234167	0,1	0,867078
4,235833	0,1	0,863879
4,237500	0,1	0,900718
4,239167	0,1	0,854064
4,240833	0,1	0,903199
4,242500	0,1	0,865110
4,244167	0,1	0,895471
4,245833	0,1	0,855314
4,247500	0,1	0,872764
4,249167	0,1	0,859724
4,250833	0,1	0,886544
4,252500	0,1	0,882131
4,254167	0,1	0,841008
4,255833	0,1	0,865121
4,257500	0,1	0,827131
4,259167	0,1	0,863410
4,260833	0,1	0,834125
4,262500	0,1	0,835275
4,264167	0,1	0,857363
4,265833	0,1	0,818905
4,267500	0,1	0,819128
4,269167	0,1	0,828175
4,270833	0,1	0,828596
4,272500	0,1	0,821249
4,274167	0,1	0,829304
4,275833	0,1	0,805315
4,277500	0,1	0,806019
4,279167	0,1	0,803656
4,280833	0,1	0,818696
4,282500	0,1	0,791365
4,284167	0,1	0,814743
4,285833	0,1	0,757968
4,287500	0,1	0,797886
4,289167	0,1	0,799315
4,290833	0,1	0,784920
4,292500	0,1	0,760023
4,294167	0,1	0,757729
4,295833	0,1	0,813859
4,297500	0,1	0,805050
4,299167	0,1	0,785334
4,300833	0,1	0,771521
4,302500	0,1	0,769325
4,304167	0,1	0,769166
4,305833	0,1	0,783681
4,307500	0,1	0,753298
4,309167	0,1	0,771643
4,310833	0,1	0,722056
4,312500	0,1	0,754499
4,314167	0,1	0,729390
4,315833	0,1	0,753213
4,317500	0,1	0,754123
4,319167	0,1	0,705339
4,320833	0,1	0,723873
4,322500	0,1	0,706106
4,324167	0,1	0,727164
4,325833	0,1	0,720139
4,327500	0,1	0,755527
4,329167	0,1	0,727684
4,330833	0,1	0,700469
4,332500	0,1	0,718590
4,334167	0,1	0,740042
4,335833	0,1	0,735053
4,337500	0,1	0,692424
4,339167	0,1	0,752395
4,340833	0,1	0,704983
4,342500	0,1	0,728700
4,344167	0,1	0,700215
4,345833	0,1	0,737619
4,347500	0,1	0,723909
4,349167	0,1	0,696929
4,350833	0,1	0,653778
4,352500	0,1	0,690374
4,354167	0,1	0,709253
4,355833	0,1	0,710444
4,357500	0,1	0,691097
4,359167	0,1	0,652201
4,360833	0,1	0,674919
4,362500	0,1	0,716008
4,364167	0,1	0,667402
4,365833	0,1	0,700070
4,367500	0,1	0,683979
4,369167	0,1	0,626764
4,370833	0,1	0,699318
4,372500	0,1	0,664272
4,374167	0,1	0,649231
4,375833	0,1	0,666836
4,377500	0,1	0,617778
4,379167	0,1	0,646997
4,380833	0,1	0,686088
4,382500	0,1	0,623576
4,384167	0,1	0,628038
4,385833	0,1	0,657881
4,387500	0,1	0,642756
4,389167	0,1	0,631100
4,390833	0,1	0,622180
4,392500	0,1	0,625655
4,394167	0,1	0,636794
4,395833	0,1	0,626945
4,397500	0,1	0,627072
4,399167	0,1	0,594366
4,400833	0,1	0,631184
4,402500	0,1	0,622533
4,404167	0,1	0,584610
4,405833	0,1	0,610353
4,407500	0,1	0,641814
4,409167	0,1	0,604091
4,410833	0,1	0,625101
4,412500	0,1	0,593302
4,414167	0,1	0,598123
4,415833	0,1	0,562942
4,417500	0,1	0,603943
4,419167	0,1	0,596163
4,420833	0,1	0,589110
4,422500	0,1	0,559236
4,424167	0,1	0,526304
4,425833	0,1	0,580243
4,427500	0,1	0,547778
4,429167	0,1	0,521280
4,430833	0,1	0,567525
4,432500	0,1	0,567408
4,434167	0,1	0,548902
4,435833	0,1	0,482496
4,437500	0,1	0,578816
4,439167	0,1	0,518553
4,440833	0,1	0,520049
4,442500	0,1	0,500611
4,444167	0,1	0,554323
4,445833	0,1	0,515908
4,447500	0,1	0,513968
4,449167	0,1	0,532375
4,450833	0,1	0,568914
4,452500	0,1	0,509570
4,454167	0,1	0,480492
4,455833	0,1	0,506523
4,457500	0,1	0,502219
4,459167	0,1	0,465878
4,460833	0,1	0,507807
4,462500	0,1	0,497231
4,464167	0,1	0,494202
4,465833	0,1	0,508973
4,467500	0,1	0,472160
4,469167	0,1	0,494615
4,470833	0,1	0,470220
4,472500	0,1	0,469545
4,474167	0,1	0,477172
4,475833	0,1	0,467971
4,477500	0,1	0,441385
4,479167	0,1	0,479224
4,480833	0,1	0,452589
4,482500	0,1	0,465680
4,484167	0,1	0,437650
4,485833	0,1	0,433329
4,487500	0,1	0,440448
4,489167	0,1	0,407523
4,490833	0,1	0,420032
4,492500	0,1	0,437320
4,494167	0,1	0,437543
4,495833	0,1	0,441991
4,497500	0,1	0,402601
4,499167	0,1	0,388217
4,500833	0,1	0,398599
4,502500	0,1	0,409190
4,504167	0,1	0,393494
4,505833	0,1	0,395547
4,507500	0,1	0,419040
4,509167	0,1	0,369424
4,510833	0,1	0,388526
4,512500	0,1	0,380844
4,514167	0,1	0,376528
4,515833	0,1	0,361917
4,517500	0,1	0,371892
4,519167	0,1	0,392359
4,520833	0,1	0,387923
4,522500	0,1	0,364114
4,524167	0,1	0,386240
4,525833	0,1	0,365682
4,527500	0,1	0,343581
4,529167	0,1	0,368899
4,530833	0,1	0,344580
4,532500	0,1	0,379965
4,534167	0,1	0,358865
4,535833	0,1	0,331836
4,537500	0,1	0,324045
4,539167	0,1	0,344116
4,540833	0,1	0,358793
4,542500	0,1	0,343580
4,544167	0,1	0,348787
4,545833	0,1	0,287211
4,547500	0,1	0,284334
4,549167	0,1	0,322420
4,550833	0,1	0,314720
4,552500	0,1	0,284756
4,554167	0,1	0,308049
4,555833	0,1	0,322525
4,557500	0,1	0,295632
4,559167	0,1	0,333941
4,560833	0,1	0,348812
4,562500	0,1	0,295097
4,564167	0,1	0,283590
4,565833	0,1	0,274746
4,567500	0,1	0,288859
4,569167	0,1	0,277862
4,570833	0,1	0,324992
4,572500	0,1	0,257487
4,574167	0,1	0,316433
4,575833	0,1	0,306379
4,577500	0,1	0,246295
4,579167	0,1	0,286354
4,580833	0,1	0,306537
4,582500	0,1	0,295187
4,584167	0,1	0,310462
4,585833	0,1	0,282964
4,587500	0,1	0,217430
4,589167	0,1	0,293198
4,590833	0,1	0,265779
4,592500	0,1	0,292464
4,594167	0,1	0,284183
4,595833	0,1	0,276676
4,597500	0,1	0,269243
4,599167	0,1	0,288783
4,600833	0,1	0,215940
4,602500	0,1	0,259642
4,604167	0,1	0,259589
4,605833	0,1	0,281274
4,607500	0,1	0,237660
4,609167	0,1	0,267507
4,610833	0,1	0,253347
4,612500	0,1	0,216174
4,614167	0,1	0,233950
4,615833	0,1	0,216963
4,617500	0,1	0,235865
4,619167	0,1	0,244851
4,620833	0,1	0,237817
4,622500	0,1	0,234950
4,624167	0,1	0,257505
4,625833	0,1	0,215556
4,627500	0,1	0,235943
4,629167	0,1	0,248851
4,630833	0,1	0,211654
4,632500	0,1	0,218925
4,634167	0,1	0,222372
4,635833	0,1	0,217666
4,637500	0,1	0,233533
4,639167	0,1	0,251094
4,640833	0,1	0,262552
4,642500	0,1	0,251038
4,644167	0,1	0,219681
4,645833	0,1	0,242603
4,647500	0,1	0,263548
4,649167	0,1	0,230290
4,650833	0,1	0,238959
4,652500	0,1	0,238810
4,654167	0,1	0,202333
4,655833	0,1	0,218860
4,657500	0,1	0,232209
4,659167	0,1	0,221277
4,660833	0,1	0,220214
4,662500	0,1	0,229863
4,664167	0,1	0,230320
4,665833	0,1	0,209447
4,667500	0,1	0,245565
4,669167	0,1	0,183973
4,670833	0,1	0,194476
4,672500	0,1	0,241524
4,674167	0,1	0,238356
4,675833	0,1	0,202161
4,677500	0,1	0,204938
4,679167	0,1	0,216994
4,680833	0,1	0,220003
4,682500	0,1	0,242251
4,684167	0,1	0,230803
4,685833	0,1	0,237751
4,687500	0,1	0,236755
4,689167	0,1	0,166813
4,690833	0,1	0,211817
4,692500	0,1	0,204297
4,694167	0,1	0,179231
4,695833	0,1	0,197527
4,697500	0,1	0,191805
4,699167	0,1	0,229275
4,700833	0,1	0,202911
4,702500	0,1	0,181202
4,704167	0,1	0,177752
4,705833	0,1	0,237157
4,707500	0,1	0,217168
4,709167	0,1	0,217828
4,710833	0,1	0,225839
4,712500	0,1	0,230595
4,714167	0,1	0,213329
4,715833	0,1	0,232789
4,717500	0,1	0,198246
4,719167	0,1	0,180266
4,720833	0,1	0,224418
4,722500	0,1	0,177887
4,724167	0,1	0,159578
4,725833	0,1	0,183285
4,727500	0,1	0,187174
4,729167	0,1	0,221784
4,730833	0,1	0,200753
4,732500	0,1	0,190018
4,734167	0,1	0,223815
4,735833	0,1	0,177494
4,737500	0,1	0,180717
4,739167	0,1	0,242922
4,740833	0,1	0,209529
4,742500	0,1	0,178738
4,744167	0,1	0,179472
4,745833	0,1	0,154495
4,747500	0,1	0,204572
4,749167	0,1	0,167508
4,750833	0,1	0,192667
4,752500	0,1	0,198980
4,754167	0,1	0,170038
4,755833	0,1	0,223042
4,757500	0,1	0,207930
4,759167	0,1	0,146659
4,760833	0,1	0,200506
4,762500	0,1	0,181719
4,764167	0,1	0,208792
4,765833	0,1	0,246045
4,767500	0,1	0,226339
4,769167	0,1	0,205069
4,770833	0,1	0,189272
4,772500	0,1	0,170184
4,774167	0,1	0,195241
4,775833	0,1	0,184228
4,777500	0,1	0,192358
4,779167	0,1	0,169268
4,780833	0,1	0,221300
4,782500	0,1	0,197884
4,784167	0,1	0,187115
4,785833	0,1	0,206902
4,787500	0,1	0,211205
4,789167	0,1	0,181886
4,790833	0,1	0,244915
4,792500	0,1	0,223891
4,794167	0,1	0,154733
4,795833	0,1	0,149138
4,797500	0,1	0,215443
4,799167	0,1	0,201976
4,800833	0,1	0,211951
4,802500	0,1	0,192184
4,804167	0,1	0,199185
4,805833	0,1	0,190495
4,807500	0,1	0,181905
4,809167	0,1	0,214911
4,810833	0,1	0,223014
4,812500	0,1	0,209634
4,814167	0,1	0,182118
4,815833	0,1	0,220456
4,817500	0,1	0,165314
4,819167	0,1	0,172251
4,820833	0,1	0,155199
4,822500	0,1	0,169363
4,824167	0,1	0,216053
4,825833	0,1	0,151869
4,827500	0,1	0,190257
4,829167	0,1	0,194848
4,830833	0,1	0,201908
4,832500	0,1	0,200269
4,834167	0,1	0,187178
4,835833	0,1	0,164371
4,837500	0,1	0,172563
4,839167	0,1	0,226095
4,840833	0,1	0,206230
4,842500	0,1	0,177469
4,844167	0,1	0,175782
4,845833	0,1	0,206987
4,847500	0,1	0,190270
4,849167	0,1	0,168210
4,850833	0,1	0,195407
4,852500	0,1	0,204230
4,854167	0,1	0,203071
4,855833	0,1	0,131637
4,857500	0,1	0,199525
4,859167	0,1	0,214498
4,860833	0,1	0,169172
4,862500	0,1	0,154969
4,864167	0,1	0,192476
4,865833	0,1	0,165865
4,867500	0,1	0,181420
4,869167	0,1	0,197566
4,870833	0,1	0,196057
4,872500	0,1	0,208341
4,874167	0,1	0,181367
4,875833	0,1	0,204102
4,877500	0,1	0,180518
4,879167	0,1	0,230057
4,880833	0,1	0,204489
4,882500	0,1	0,211308
4,884167	0,1	0,189173
4,885833	0,1	0,222921
4,887500	0,1	0,163862
4,889167	0,1	0,202623
4,890833	0,1	0,196781
4,892500	0,1	0,166241
4,894167	0,1	0,181443
4,895833	0,1	0,186131
4,897500	0,1	0,189000
4,899167	0,1	0,155680
4,900833	0,1	0,181667
4,902500	0,1	0,175801
4,904167	0,1	0,209598
4,905833	0,1	0,160249
4,907500	0,1	0,208992
4,909167	0,1	0,180105
4,910833	0,1	0,206838
4,912500	0,1	0,183502
4,914167	0,1	0,213192
4,915833	0,1	0,196600
4,917500	0,1	0,185310
4,919167	0,1	0,196839
4,920833	0,1	0,217739
4,922500	0,1	0,200422
4,924167	0,1	0,213943
4,925833	0,1	0,225854
4,927500	0,1	0,208097
4,929167	0,1	0,186286
4,930833	0,1	0,161759
4,932500	0,1	0,188744
4,934167	0,1	0,196344
4,935833	0,1	0,239546
4,937500	0,1	0,183162
4,939167	0,1	0,188585
4,940833	0,1	0,201114
4,942500	0,1	0,207094
4,944167	0,1	0,165517
4,945833	0,1	0,211070
4,947500	0,1	0,186287
4,949167	0,1	0,208188
4,950833	0,1	0,185643
4,952500	0,1	0,195779
4,954167	0,1	0,209439
4,955833	0,1	0,198491
4,957500	0,1	0,193359
4,959167	0,1	0,150223
4,960833	0,1	0,179361
4,962500	0,1	0,197322
4,964167	0,1	0,189851
4,965833	0,1	0,184477
4,967500	0,1	0,218935
4,969167	0,1	0,169855
4,970833	0,1	0,196631
4,972500	0,1	0,191593
4,974167	0,1	0,206865
4,975833	0,1	0,206765
4,977500	0,1	0,187406
4,979167	0,1	0,173251
4,980833	0,1	0,220783
4,982500	0,1	0,167077
4,984167	0,1	0,199909
4,985833	0,1	0,146947
4,987500	0,1	0,205606
4,989167	0,1	0,173443
4,990833	0,1	0,178997
4,992500	0,1	0,206257
4,994167	0,1	0,197492
4,995833	0,1	0,205476
4,997500	0,1	0,197487
4,999167	0,1	0,188982
5,000833	0,1	0,200659
5,002500	0,1	0,201242
5,004167	0,1	0,179168
5,005833	0,1	0,215867
5,007500	0,1	0,192783
5,009167	0,1	0,183129
5,010833	0,1	0,170034
5,012500	0,1	0,189845
5,014167	0,1	0,179332
5,015833	0,1	0,198664
5,017500	0,1	0,197303
5,019167	0,1	0,167319
5,020833	0,1	0,195924
5,022500	0,1	0,178377
5,024167	0,1	0,211694
5,025833	0,1	0,167367
5,027500	0,1	0,172064
5,029167	0,1	0,170219
5,030833	0,1	0,208310
5,032500	0,1	0,175602
5,034167	0,1	0,207379
5,035833	0,1	0,167759
5,037500	0,1	0,157997
5,039167	0,1	0,200567
5,040833	0,1	0,187985
5,042500	0,1	0,205491
5,044167	0,1	0,167115
5,045833	0,1	0,170155
5,047500	0,1	0,171585
5,049167	0,1	0,200654
5,050833	0,1	0,168234
5,052500	0,1	0,205047
5,054167	0,1	0,184895
5,055833	0,1	0,196447
5,057500	0,1	0,177216
5,059167	0,1	0,185532
5,060833	0,1	0,202361
5,062500	0,1	0,220847
5,064167	0,1	0,171290
5,065833	0,1	0,198766
5,067500	0,1	0,172902
5,069167	0,1	0,196005
5,070833	0,1	0,187984
5,072500	0,1	0,159249
5,074167	0,1	0,189883
5,075833	0,1	0,195764
5,077500	0,1	0,159746
5,079167	0,1	0,210278
5,080833	0,1	0,221021
5,082500	0,1	0,170231
5,084167	0,1	0,192834
5,085833	0,1	0,170367
5,087500	0,1	0,168557
5,089167	0,1	0,191986
5,090833	0,1	0,199476
5,092500	0,1	0,157466
5,094167	0,1	0,167330
5,095833	0,1	0,179097
5,097500	0,1	0,210533
5,099167	0,1	0,183964
5,100833	0,1	0,178893
5,102500	0,1	0,162357
5,104167	0,1	0,173951
5,105833	0,1	0,180051
5,107500	0,1	0,156238
5,109167	0,1	0,191419
5,110833	0,1	0,143604
5,112500	0,1	0,127288
5,114167	0,1	0,180517
5,115833	0,1	0,176507
5,117500	0,1	0,163892
5,119167	0,1	0,182229
5,120833	0,1	0,175614
5,122500	0,1	0,190882
5,124167	0,1	0,176947
5,125833	0,1	0,179225
5,127500	0,1	0,158831
5,129167	0,1	0,198329
5,130833	0,1	0,189688
5,132500	0,1	0,178376
5,134167	0,1	0,204352
5,135833	0,1	0,148276
5,137500	0,1	0,181832
5,139167	0,1	0,186405
5,140833	0,1	0,172524
5,142500	0,1	0,160509
5,144167	0,1	0,220240
5,145833	0,1	0,143673
5,147500	0,1	0,209222
5,149167	0,1	0,196741
5,150833	0,1	0,216844
5,152500	0,1	0,173901
5,154167	0,1	0,185075
5,155833	0,1	0,166011
5,157500	0,1	0,209306
5,159167	0,1	0,200061
5,160833	0,1	0,206826
5,162500	0,1	0,177344
5,164167	0,1	0,221013
5,165833	0,1	0,220481
5,167500	0,1	0,193010
5,169167	0,1	0,219934
5,170833	0,1	0,209633
5,172500	0,1	0,183092
5,174167	0,1	0,210785
5,175833	0,1	0,200994
5,177500	0,1	0,171491
5,179167	0,1	0,172917
5,180833	0,1	0,158290
5,182500	0,1	0,176877
5,184167	0,1	0,173641
5,185833	0,1	0,179224
5,187500	0,1	0,182379
5,189167	0,1	0,209043
5,190833	0,1	0,166660
5,192500	0,1	0,170423
5,194167	0,1	0,162063
5,195833	0,1	0,208057
5,197500	0,1	0,170808
5,199167	0,1	0,190613
5,200833	0,1	0,193295
5,202500	0,1	0,142466
5,204167	0,1	0,159507
5,205833	0,1	0,215345
5,207500	0,1	0,200210
5,209167	0,1	0,164419
5,210833	0,1	0,161731
5,212500	0,1	0,198872
5,214167	0,1	0,159354
5,215833	0,1	0,197084
5,217500	0,1	0,209352
5,219167	0,1	0,197385
5,220833	0,1	0,196676
5,222500	0,1	0,204874
5,224167	0,1	0,199564
5,225833	0,1	0,186180
5,227500	0,1	0,185325
5,229167	0,1	0,202549
5,230833	0,1	0,170848
5,232500	0,1	0,191524
5,234167	0,1	0,205742
5,235833	0,1	0,207283
5,237500	0,1	0,179917
5,239167	0,1	0,180553
5,240833	0,1	0,172669
5,242500	0,1	0,160590
5,244167	0,1	0,191813
5,245833	0,1	0,192071
5,247500	0,1	0,142029
5,249167	0,1	0,198554
5,250833	0,1	0,151034
5,252500	0,1	0,155650
5,254167	0,1	0,182498
5,255833	0,1	0,189017
5,257500	0,1	0,159580
5,259167	0,1	0,180736
5,260833	0,1	0,218299
5,262500	0,1	0,172013
5,264167	0,1	0,197438
5,265833	0,1	0,155369
5,267500	0,1	0,155815
5,269167	0,1	0,156688
5,270833	0,1	0,171126
5,272500	0,1	0,201690
5,274167	0,1	0,192529
5,275833	0,1	0,160618
5,277500	0,1	0,188619
5,279167	0,1	0,164726
5,280833	0,1	0,183891
5,282500	0,1	0,179244
5,284167	0,1	0,159659
5,285833	0,1	0,148785
5,287500	0,1	0,171336
5,289167	0,1	0,171752
5,290833	0,1	0,221671
5,292500	0,1	0,179236
5,294167	0,1	0,179785
5,295833	0,1	0,156008
5,297500	0,1	0,166978
5,299167	0,1	0,170423
5,300833	0,1	0,148226
5,302500	0,1	0,166354
5,304167	0,1	0,151253
5,305833	0,1	0,156520
5,307500	0,1	0,166562
5,309167	0,1	0,155093
5,310833	0,1	0,203866
5,312500	0,1	0,155912
5,314167	0,1	0,194674
5,315833	0,1	0,171615
5,317500	0,1	0,168102
5,319167	0,1	0,124948
5,320833	0,1	0,192493
5,322500	0,1	0,144789
5,324167	0,1	0,173366
5,325833	0,1	0,187460
5,327500	0,1	0,135016
5,329167	0,1	0,170689
5,330833	0,1	0,153788
5,332500	0,1	0,161291
5,334167	0,1	0,184863
5,335833	0,1	0,182046
5,337500	0,1	0,165594
5,339167	0,1	0,187893
5,340833	0,1	0,159911
5,342500	0,1	0,157207
5,344167	0,1	0,166130
5,345833	0,1	0,171584
5,347500	0,1	0,179286
5,349167	0,1	0,154558
5,350833	0,1	0,144904
5,352500	0,1	0,189675
5,354167	0,1	0,141366
5,355833	0,1	0,173076
5,357500	0,1	0,165654
5,359167	0,1	0,145613
5,360833	0,1	0,160669
5,362500	0,1	0,167893
5,364167	0,1	0,149842
5,365833	0,1	0,150692
5,367500	0,1	0,116957
5,369167	0,1	0,184686
5,370833	0,1	0,191551
5,372500	0,1	0,189725
5,374167	0,1	0,185513
5,375833	0,1	0,196714
5,377500	0,1	0,200827
5,379167	0,1	0,152798
5,380833	0,1	0,151335
5,382500	0,1	0,154840
5,384167	0,1	0,175503
5,385833	0,1	0,161257
5,387500	0,1	0,157394
5,389167	0,1	0,149446
5,390833	0,1	0,157100
5,392500	0,1	0,155196
5,394167	0,1	0,182248
5,395833	0,1	0,157918
5,397500	0,1	0,209179
5,399167	0,1	0,166285
5,400833	0,1	0,174511
5,402500	0,1	0,146402
5,404167	0,1	0,152701
5,405833	0,1	0,183450
5,407500	0,1	0,187793
5,409167	0,1	0,146300
5,410833	0,1	0,158055
5,412500	0,1	0,161565
5,414167	0,1	0,176854
5,415833	0,1	0,204806
5,417500	0,1	0,184645
5,419167	0,1	0,157814
5,420833	0,1	0,157433
5,422500	0,1	0,171832
5,424167	0,1	0,185179
5,425833	0,1	0,200140
5,427500	0,1	0,147839
5,429167	0,1	0,200092
5,430833	0,1	0,166739
5,432500	0,1	0,134325
5,434167	0,1	0,203156
5,435833	0,1	0,173710
5,437500	0,1	0,197856
5,439167	0,1	0,164228
5,440833	0,1	0,194801
5,442500	0,1	0,181364
5,444167	0,1	0,190240
5,445833	0,1	0,150783
5,447500	0,1	0,143201
5,449167	0,1	0,147993
5,450833	0,1	0,158448
5,452500	0,1	0,201624
5,454167	0,1	0,206388
5,455833	0,1	0,164668
5,457500	0,1	0,153744
5,459167	0,1	0,180234
5,460833	0,1	0,170450
5,462500	0,1	0,162586
5,464167	0,1	0,161254
5,465833	0,1	0,177747
5,467500	0,1	0,169681
5,469167	0,1	0,146296
5,470833	0,1	0,144840
5,472500	0,1	0,174089
5,474167	0,1	0,145155
5,475833	0,1	0,188427
5,477500	0,1	0,166882
5,479167	0,1	0,170840
5,480833	0,1	0,199744
5,482500	0,1	0,171199
5,484167	0,1	0,181775
5,485833	0,1	0,192399
5,487500	0,1	0,200763
5,489167	0,1	0,151967
5,490833	0,1	0,150731
5,492500	0,1	0,202328
5,494167	0,1	0,158068
5,495833	0,1	0,165981
5,497500	0,1	0,154180
5,499167	0,1	0,164512
5,500833	0,1	0,188456
5,502500	0,1	0,146155
5,504167	0,1	0,200877
5,505833	0,1	0,187091
5,507500	0,1	0,143147
5,509167	0,1	0,197824
5,510833	0,1	0,162444
5,512500	0,1	0,167935
5,514167	0,1	0,137708
5,515833	0,1	0,185272
5,517500	0,1	0,211718
5,519167	0,1	0,187386
5,520833	0,1	0,213130
5,522500	0,1	0,180374
5,524167	0,1	0,193627
5,525833	0,1	0,194040
5,527500	0,1	0,159290
5,529167	0,1	0,177952
5,530833	0,1	0,164679
5,532500	0,1	0,186008
5,534167	0,1	0,136426
5,535833	0,1	0,155355
5,537500	0,1	0,200863
5,539167	0,1	0,216805
5,540833	0,1	0,186122
5,542500	0,1	0,170097
5,544167	0,1	0,195925
5,545833	0,1	0,198025
5,547500	0,1	0,172610
5,549167	0,1	0,169617
5,550833	0,1	0,147936
5,552500	0,1	0,166851
5,554167	0,1	0,179657
5,555833	0,1	0,224911
5,557500	0,1	0,132452
5,559167	0,1	0,191782
5,560833	0,1	0,166633
5,562500	0,1	0,177852
5,564167	0,1	0,195055
5,565833	0,1	0,184250
5,567500	0,1	0,194789
5,569167	0,1	0,204661
5,570833	0,1	0,181140
5,572500	0,1	0,208814
5,574167	0,1	0,186930
5,575833	0,1	0,189372
5,577500	0,1	0,167007
5,579167	0,1	0,196192
5,580833	0,1	0,186659
5,582500	0,1	0,188398
5,584167	0,1	0,196156
5,585833	0,1	0,195640
5,587500	0,1	0,191137
5,589167	0,1	0,164185
5,590833	0,1	0,160798
5,592500	0,1	0,223535
5,594167	0,1	0,177080
5,595833	0,1	0,224000
5,597500	0,1	0,178655
5,599167	0,1	0,215246
5,600833	0,1	0,156660
5,602500	0,1	0,181253
5,604167	0,1	0,176608
5,605833	0,1	0,194766
5,607500	0,1	0,191968
5,609167	0,1	0,239834
5,610833	0,1	0,221357
5,612500	0,1	0,213054
5,614167	0,1	0,185102
5,615833	0,1	0,202571
5,617500	0,1	0,196639
5,619167	0,1	0,202072
5,620833	0,1	0,222014
5,622500	0,1	0,199404
5,624167	0,1	0,201454
5,625833	0,1	0,218634
5,627500	0,1	0,217477
5,629167	0,1	0,253741
5,630833	0,1	0,216387
5,632500	0,1	0,198242
5,634167	0,1	0,227058
5,635833	0,1	0,209861
5,637500	0,1	0,214776
5,639167	0,1	0,235337
5,640833	0,1	0,240159
5,642500	0,1	0,248751
5,644167	0,1	0,245120
5,645833	0,1	0,227713
5,647500	0,1	0,212914
5,649167	0,1	0,215608
5,650833	0,1	0,219695
5,652500	0,1	0,253413
5,654167	0,1	0,226946
5,655833	0,1	0,199569
5,657500	0,1	0,199979
5,659167	0,1	0,231584
5,660833	0,1	0,273547
5,662500	0,1	0,238253
5,664167	0,1	0,248171
5,665833	0,1	0,245223
5,667500	0,1	0,225783
5,669167	0,1	0,228907
5,670833	0,1	0,264603
5,672500	0,1	0,251494
5,674167	0,1	0,247656
5,675833	0,1	0,228498
5,677500	0,1	0,255825
5,679167	0,1	0,242526
5,680833	0,1	0,253381
5,682500	0,1	0,257635
5,684167	0,1	0,257762
5,685833	0,1	0,257862
5,687500	0,1	0,276670
5,689167	0,1	0,289263
5,690833	0,1	0,234031
5,692500	0,1	0,285028
5,694167	0,1	0,276753
5,695833	0,1	0,251662
5,697500	0,1	0,291794
5,699167	0,1	0,250191
5,700833	0,1	0,279418
5,702500	0,1	0,243574
5,704167	0,1	0,271557
5,705833	0,1	0,247787
5,707500	0,1	0,302806
5,709167	0,1	0,248930
5,710833	0,1	0,279530
5,712500	0,1	0,274682
5,714167	0,1	0,309471
5,715833	0,1	0,286535
5,717500	0,1	0,258146
5,719167	0,1	0,290194
5,720833	0,1	0,282342
5,722500	0,1	0,296885
5,724167	0,1	0,342833
5,725833	0,1	0,290629
5,727500	0,1	0,288132
5,729167	0,1	0,275617
5,730833	0,1	0,291674
5,732500	0,1	0,292925
5,734167	0,1	0,293770
5,735833	0,1	0,292736
5,737500	0,1	0,306688
5,739167	0,1	0,320569
5,740833	0,1	0,335308
5,742500	0,1	0,320676
5,744167	0,1	0,295316
5,745833	0,1	0,296988
5,747500	0,1	0,344953
5,749167	0,1	0,302462
5,750833	0,1	0,337170
5,752500	0,1	0,335601
5,754167	0,1	0,293946
5,755833	0,1	0,359108
5,757500	0,1	0,324277
5,759167	0,1	0,301498
5,760833	0,1	0,308533
5,762500	0,1	0,327873
5,764167	0,1	0,287282
5,765833	0,1	0,327741
5,767500	0,1	0,340050
5,769167	0,1	0,355259
5,770833	0,1	0,337310
5,772500	0,1	0,345252
5,774167	0,1	0,336210
5,775833	0,1	0,316804
5,777500	0,1	0,331573
5,779167	0,1	0,361954
5,780833	0,1	0,290949
5,782500	0,1	0,319820
5,784167	0,1	0,352817
5,785833	0,1	0,359158
5,787500	0,1	0,308066
5,789167	0,1	0,366243
5,790833	0,1	0,313014
5,792500	0,1	0,342862
5,794167	0,1	0,348154
5,795833	0,1	0,329106
5,797500	0,1	0,353262
5,799167	0,1	0,353937
5,800833	0,1	0,335024
5,802500	0,1	0,356886
5,804167	0,1	0,341006
5,805833	0,1	0,363887
5,807500	0,1	0,321543
5,809167	0,1	0,339383
5,810833	0,1	0,336462
5,812500	0,1	0,360241
5,814167	0,1	0,367616
5,815833	0,1	0,320609
5,817500	0,1	0,320573
5,819167	0,1	0,345564
5,820833	0,1	0,343868
5,822500	0,1	0,352876
5,824167	0,1	0,308546
5,825833	0,1	0,361004
5,827500	0,1	0,374377
5,829167	0,1	0,335346
5,830833	0,1	0,341292
5,832500	0,1	0,352558
5,834167	0,1	0,330066
5,835833	0,1	0,339712
5,837500	0,1	0,351423
5,839167	0,1	0,326940
5,840833	0,1	0,362422
5,842500	0,1	0,336932
5,844167	0,1	0,340421
5,845833	0,1	0,315620
5,847500	0,1	0,346333
5,849167	0,1	0,312768
5,850833	0,1	0,300524
5,852500	0,1	0,327544
5,854167	0,1	0,351420
5,855833	0,1	0,362012
5,857500	0,1	0,323824
5,859167	0,1	0,328674
5,860833	0,1	0,380123
5,862500	0,1	0,353021
5,864167	0,1	0,319420
5,865833	0,1	0,314833
5,867500	0,1	0,317998
5,869167	0,1	0,335585
5,870833	0,1	0,340648
5,872500	0,1	0,338466
5,874167	0,1	0,331551
5,875833	0,1	0,293163
5,877500	0,1	0,309956
5,879167	0,1	0,357207
5,880833	0,1	0,281449
5,882500	0,1	0,323162
5,884167	0,1	0,304778
5,885833	0,1	0,307058
5,887500	0,1	0,300549
5,889167	0,1	0,315962
5,890833	0,1	0,287117
5,892500	0,1	0,300809
5,894167	0,1	0,301330
5,895833	0,1	0,281814
5,897500	0,1	0,323654
5,899167	0,1	0,308764
5,900833	0,1	0,345825
5,902500	0,1	0,267824
5,904167	0,1	0,297372
5,905833	0,1	0,333108
5,907500	0,1	0,283676
5,909167	0,1	0,255281
5,910833	0,1	0,297495
5,912500	0,1	0,328450
5,914167	0,1	0,311630
5,915833	0,1	0,308019
5,917500	0,1	0,325362
5,919167	0,1	0,317104
5,920833	0,1	0,334699
5,922500	0,1	0,310736
5,924167	0,1	0,281123
5,925833	0,1	0,311367
5,927500	0,1	0,284062
5,929167	0,1	0,301741
5,930833	0,1	0,290102
5,932500	0,1	0,269867
5,934167	0,1	0,274906
5,935833	0,1	0,266872
5,937500	0,1	0,267931
5,939167	0,1	0,284884
5,940833	0,1	0,296922
5,942500	0,1	0,268896
5,944167	0,1	0,282828
5,945833	0,1	0,271378
5,947500	0,1	0,295987
5,949167	0,1	0,264204
5,950833	0,1	0,299770
5,952500	0,1	0,241815
5,954167	0,1	0,278092
5,955833	0,1	0,314291
5,957500	0,1	0,277364
5,959167	0,1	0,234342
5,960833	0,1	0,282996
5,962500	0,1	0,295572
5,964167	0,1	0,257088
5,965833	0,1	0,258113
5,967500	0,1	0,284277
5,969167	0,1	0,309248
5,970833	0,1	0,279661
5,972500	0,1	0,258991
5,974167	0,1	0,246331
5,975833	0,1	0,243355
5,977500	0,1	0,264935
5,979167	0,1	0,277126
5,980833	0,1	0,264465
5,982500	0,1	0,269923
5,984167	0,1	0,271752
5,985833	0,1	0,274757
5,987500	0,1	0,263341
5,989167	0,1	0,277428
5,990833	0,1	0,233651
5,992500	0,1	0,264807
5,994167	0,1	0,221197
5,995833	0,1	0,231378
5,997500	0,1	0,268918
5,999167	0,1	0,251849
6,000833	0,1	0,236946
