File Path	chrom://chromeleon01/ikbm_chromeleon/2022/Rezex/Esteban/220612_chitin_4_7.seq/384.smp/UV_VIS_1.channel/UV_VIS_1.chm
Channel	UV_VIS_1

Injection Information:
Data Vault	ikbm_chromeleon
Injection	A2ox 25
Injection Number	56
Position	RA2
Comment	
Processing Method	New ProcMethod
Instrument Method	Short_Rezex_6min_194nm
Type	Calibration Standard
Status	Finished
Injection Date	12.06.2022
Injection Time	23:09:43
Injection Volume (µl)	8,000
Dilution Factor	1,0000
Weight	1,0000

Chromatogram Data Information:
Time Min. (min)	0,000833
Time Max. (min)	6,000833
Data Points	3601
Detector	UV
Generating Data System	Chromeleon 7.2.9.11323
Exporting Data System	Chromeleon 7.2.9.0
Operator	Instrument Controller
Signal Quantity	Absorbance
Signal Unit	mAU
Signal Min.	-0,315778
Signal Max.	16,767625
Channel	UV_VIS_1
Driver Name	VWD3000.dll
Channel Type	Evaluation
Min. Step (s)	0,1
Max. Step (s)	0,1
Average Step (s)	0,1

Signal Parameter Information:
Signal Info	WVL:194 nm

Chromatogram Data:
Time (min)	Step (s)	Value (mAU)
0,000833	n.a.	-0,086651
0,002500	0,1	-0,067425
0,004167	0,1	-0,078269
0,005833	0,1	-0,038532
0,007500	0,1	-0,077128
0,009167	0,1	-0,055992
0,010833	0,1	-0,057048
0,012500	0,1	-0,062523
0,014167	0,1	-0,084108
0,015833	0,1	-0,058832
0,017500	0,1	-0,069310
0,019167	0,1	-0,086103
0,020833	0,1	-0,073366
0,022500	0,1	-0,093244
0,024167	0,1	-0,087296
0,025833	0,1	-0,070666
0,027500	0,1	-0,051778
0,029167	0,1	-0,089833
0,030833	0,1	-0,077997
0,032500	0,1	-0,112333
0,034167	0,1	-0,096321
0,035833	0,1	-0,056478
0,037500	0,1	-0,065993
0,039167	0,1	-0,060304
0,040833	0,1	-0,077031
0,042500	0,1	-0,107312
0,044167	0,1	-0,071681
0,045833	0,1	-0,107726
0,047500	0,1	-0,115643
0,049167	0,1	-0,096056
0,050833	0,1	-0,058128
0,052500	0,1	-0,126167
0,054167	0,1	-0,061190
0,055833	0,1	-0,041000
0,057500	0,1	-0,050168
0,059167	0,1	-0,068021
0,060833	0,1	-0,052622
0,062500	0,1	-0,031828
0,064167	0,1	-0,072231
0,065833	0,1	-0,038077
0,067500	0,1	-0,053863
0,069167	0,1	-0,064868
0,070833	0,1	-0,078382
0,072500	0,1	-0,074461
0,074167	0,1	-0,098971
0,075833	0,1	-0,097541
0,077500	0,1	-0,086690
0,079167	0,1	-0,086083
0,080833	0,1	-0,063110
0,082500	0,1	-0,053932
0,084167	0,1	-0,073560
0,085833	0,1	-0,075293
0,087500	0,1	-0,096348
0,089167	0,1	-0,124724
0,090833	0,1	-0,099690
0,092500	0,1	-0,064172
0,094167	0,1	-0,091729
0,095833	0,1	-0,110884
0,097500	0,1	-0,063721
0,099167	0,1	-0,048042
0,100833	0,1	-0,101223
0,102500	0,1	-0,089556
0,104167	0,1	-0,034474
0,105833	0,1	-0,087736
0,107500	0,1	-0,102646
0,109167	0,1	-0,052793
0,110833	0,1	-0,080663
0,112500	0,1	-0,084756
0,114167	0,1	-0,098950
0,115833	0,1	-0,113436
0,117500	0,1	-0,086355
0,119167	0,1	-0,065582
0,120833	0,1	-0,087932
0,122500	0,1	-0,144916
0,124167	0,1	-0,067337
0,125833	0,1	-0,103473
0,127500	0,1	-0,080486
0,129167	0,1	-0,102833
0,130833	0,1	-0,091006
0,132500	0,1	-0,051566
0,134167	0,1	-0,063959
0,135833	0,1	-0,106500
0,137500	0,1	-0,142551
0,139167	0,1	-0,092922
0,140833	0,1	-0,103934
0,142500	0,1	-0,092293
0,144167	0,1	-0,097815
0,145833	0,1	-0,097793
0,147500	0,1	-0,068008
0,149167	0,1	-0,110627
0,150833	0,1	-0,097630
0,152500	0,1	-0,099849
0,154167	0,1	-0,073787
0,155833	0,1	-0,096461
0,157500	0,1	-0,121948
0,159167	0,1	-0,082812
0,160833	0,1	-0,102419
0,162500	0,1	-0,064426
0,164167	0,1	-0,126380
0,165833	0,1	-0,074019
0,167500	0,1	-0,073805
0,169167	0,1	-0,102125
0,170833	0,1	-0,086628
0,172500	0,1	-0,097727
0,174167	0,1	-0,114291
0,175833	0,1	-0,094162
0,177500	0,1	-0,088911
0,179167	0,1	-0,103000
0,180833	0,1	-0,072829
0,182500	0,1	-0,109922
0,184167	0,1	-0,056883
0,185833	0,1	-0,091993
0,187500	0,1	-0,081190
0,189167	0,1	-0,039581
0,190833	0,1	-0,063415
0,192500	0,1	-0,084563
0,194167	0,1	-0,075713
0,195833	0,1	-0,098948
0,197500	0,1	-0,091270
0,199167	0,1	-0,100176
0,200833	0,1	-0,086011
0,202500	0,1	-0,055742
0,204167	0,1	-0,090251
0,205833	0,1	-0,104287
0,207500	0,1	-0,130642
0,209167	0,1	-0,072898
0,210833	0,1	-0,069313
0,212500	0,1	-0,112683
0,214167	0,1	-0,074181
0,215833	0,1	-0,035276
0,217500	0,1	-0,091822
0,219167	0,1	-0,073380
0,220833	0,1	-0,095857
0,222500	0,1	-0,093060
0,224167	0,1	-0,097424
0,225833	0,1	-0,084471
0,227500	0,1	-0,080127
0,229167	0,1	-0,040941
0,230833	0,1	-0,075198
0,232500	0,1	-0,095300
0,234167	0,1	-0,103102
0,235833	0,1	-0,051621
0,237500	0,1	-0,111823
0,239167	0,1	-0,054942
0,240833	0,1	-0,124651
0,242500	0,1	-0,074625
0,244167	0,1	-0,094014
0,245833	0,1	-0,057536
0,247500	0,1	-0,078771
0,249167	0,1	-0,088881
0,250833	0,1	-0,048956
0,252500	0,1	-0,085292
0,254167	0,1	-0,079119
0,255833	0,1	-0,062174
0,257500	0,1	-0,065778
0,259167	0,1	-0,052583
0,260833	0,1	-0,093441
0,262500	0,1	-0,097829
0,264167	0,1	-0,079487
0,265833	0,1	-0,079028
0,267500	0,1	-0,066287
0,269167	0,1	-0,097785
0,270833	0,1	-0,093730
0,272500	0,1	-0,048666
0,274167	0,1	-0,063619
0,275833	0,1	-0,116416
0,277500	0,1	-0,097734
0,279167	0,1	-0,051532
0,280833	0,1	-0,032823
0,282500	0,1	-0,086714
0,284167	0,1	-0,092845
0,285833	0,1	-0,114933
0,287500	0,1	-0,072805
0,289167	0,1	-0,089573
0,290833	0,1	-0,044705
0,292500	0,1	-0,079335
0,294167	0,1	-0,092124
0,295833	0,1	-0,100302
0,297500	0,1	-0,068412
0,299167	0,1	-0,065617
0,300833	0,1	-0,069212
0,302500	0,1	-0,047147
0,304167	0,1	-0,085644
0,305833	0,1	-0,070377
0,307500	0,1	-0,033481
0,309167	0,1	-0,063552
0,310833	0,1	-0,083113
0,312500	0,1	-0,072508
0,314167	0,1	-0,055639
0,315833	0,1	-0,045794
0,317500	0,1	-0,030248
0,319167	0,1	-0,067475
0,320833	0,1	-0,059372
0,322500	0,1	-0,077611
0,324167	0,1	-0,065354
0,325833	0,1	-0,094505
0,327500	0,1	-0,053209
0,329167	0,1	-0,028874
0,330833	0,1	-0,080379
0,332500	0,1	-0,059095
0,334167	0,1	-0,093632
0,335833	0,1	-0,066973
0,337500	0,1	-0,049858
0,339167	0,1	-0,043445
0,340833	0,1	-0,042219
0,342500	0,1	-0,010908
0,344167	0,1	-0,039247
0,345833	0,1	-0,055505
0,347500	0,1	-0,073978
0,349167	0,1	-0,064103
0,350833	0,1	-0,039134
0,352500	0,1	-0,042900
0,354167	0,1	-0,026967
0,355833	0,1	-0,054669
0,357500	0,1	-0,042285
0,359167	0,1	-0,016544
0,360833	0,1	-0,044270
0,362500	0,1	-0,050521
0,364167	0,1	-0,062230
0,365833	0,1	-0,070282
0,367500	0,1	-0,057063
0,369167	0,1	-0,012535
0,370833	0,1	-0,064972
0,372500	0,1	-0,021307
0,374167	0,1	-0,019921
0,375833	0,1	-0,019858
0,377500	0,1	-0,042304
0,379167	0,1	-0,086438
0,380833	0,1	-0,052335
0,382500	0,1	-0,054383
0,384167	0,1	-0,021052
0,385833	0,1	-0,020892
0,387500	0,1	-0,036550
0,389167	0,1	-0,026775
0,390833	0,1	-0,057116
0,392500	0,1	-0,070055
0,394167	0,1	-0,020376
0,395833	0,1	-0,048359
0,397500	0,1	-0,034109
0,399167	0,1	-0,036011
0,400833	0,1	-0,039127
0,402500	0,1	-0,027799
0,404167	0,1	-0,034821
0,405833	0,1	-0,007635
0,407500	0,1	-0,017978
0,409167	0,1	-0,086230
0,410833	0,1	-0,035985
0,412500	0,1	-0,052323
0,414167	0,1	-0,005509
0,415833	0,1	-0,023413
0,417500	0,1	-0,030949
0,419167	0,1	-0,023268
0,420833	0,1	-0,042179
0,422500	0,1	-0,043759
0,424167	0,1	-0,074074
0,425833	0,1	-0,052296
0,427500	0,1	-0,014290
0,429167	0,1	-0,043274
0,430833	0,1	-0,019156
0,432500	0,1	0,001352
0,434167	0,1	-0,040116
0,435833	0,1	-0,090576
0,437500	0,1	-0,039530
0,439167	0,1	-0,021919
0,440833	0,1	-0,043023
0,442500	0,1	-0,023081
0,444167	0,1	-0,002447
0,445833	0,1	-0,058006
0,447500	0,1	-0,020067
0,449167	0,1	-0,037421
0,450833	0,1	-0,078387
0,452500	0,1	-0,011307
0,454167	0,1	-0,030151
0,455833	0,1	0,010266
0,457500	0,1	-0,045641
0,459167	0,1	-0,039129
0,460833	0,1	-0,022753
0,462500	0,1	-0,038835
0,464167	0,1	-0,038674
0,465833	0,1	-0,053132
0,467500	0,1	0,002884
0,469167	0,1	-0,053501
0,470833	0,1	-0,041807
0,472500	0,1	-0,034825
0,474167	0,1	-0,053131
0,475833	0,1	-0,053451
0,477500	0,1	-0,047080
0,479167	0,1	-0,024330
0,480833	0,1	-0,028920
0,482500	0,1	-0,066338
0,484167	0,1	-0,040649
0,485833	0,1	-0,067856
0,487500	0,1	-0,069249
0,489167	0,1	-0,083542
0,490833	0,1	-0,051427
0,492500	0,1	-0,064389
0,494167	0,1	-0,079807
0,495833	0,1	0,001943
0,497500	0,1	-0,093176
0,499167	0,1	-0,016937
0,500833	0,1	-0,048232
0,502500	0,1	-0,027069
0,504167	0,1	-0,074777
0,505833	0,1	-0,045471
0,507500	0,1	-0,046309
0,509167	0,1	-0,043092
0,510833	0,1	-0,020795
0,512500	0,1	-0,032362
0,514167	0,1	-0,022361
0,515833	0,1	-0,043881
0,517500	0,1	-0,026133
0,519167	0,1	-0,044437
0,520833	0,1	-0,034410
0,522500	0,1	-0,053874
0,524167	0,1	-0,027676
0,525833	0,1	-0,103251
0,527500	0,1	-0,074341
0,529167	0,1	-0,043604
0,530833	0,1	-0,029730
0,532500	0,1	-0,039843
0,534167	0,1	-0,021955
0,535833	0,1	-0,023582
0,537500	0,1	-0,017475
0,539167	0,1	-0,013486
0,540833	0,1	-0,038379
0,542500	0,1	-0,002378
0,544167	0,1	-0,012864
0,545833	0,1	-0,052179
0,547500	0,1	-0,045213
0,549167	0,1	-0,049487
0,550833	0,1	-0,058559
0,552500	0,1	-0,032726
0,554167	0,1	-0,060233
0,555833	0,1	-0,019921
0,557500	0,1	-0,054213
0,559167	0,1	-0,064880
0,560833	0,1	-0,075366
0,562500	0,1	-0,087241
0,564167	0,1	-0,025275
0,565833	0,1	-0,060294
0,567500	0,1	-0,034656
0,569167	0,1	-0,064800
0,570833	0,1	-0,032436
0,572500	0,1	-0,052033
0,574167	0,1	-0,068021
0,575833	0,1	-0,076200
0,577500	0,1	-0,058439
0,579167	0,1	-0,038907
0,580833	0,1	-0,063553
0,582500	0,1	-0,084274
0,584167	0,1	-0,054845
0,585833	0,1	-0,061008
0,587500	0,1	-0,061881
0,589167	0,1	-0,057275
0,590833	0,1	-0,067379
0,592500	0,1	-0,091249
0,594167	0,1	-0,027143
0,595833	0,1	-0,012353
0,597500	0,1	-0,023288
0,599167	0,1	-0,037383
0,600833	0,1	-0,039317
0,602500	0,1	-0,033463
0,604167	0,1	-0,052121
0,605833	0,1	-0,008299
0,607500	0,1	-0,076690
0,609167	0,1	-0,050947
0,610833	0,1	-0,048757
0,612500	0,1	-0,057564
0,614167	0,1	-0,030704
0,615833	0,1	-0,051224
0,617500	0,1	-0,075970
0,619167	0,1	-0,004906
0,620833	0,1	-0,044140
0,622500	0,1	-0,052743
0,624167	0,1	-0,049263
0,625833	0,1	-0,040934
0,627500	0,1	-0,015511
0,629167	0,1	-0,045457
0,630833	0,1	-0,085921
0,632500	0,1	-0,043643
0,634167	0,1	-0,028999
0,635833	0,1	-0,034069
0,637500	0,1	-0,031823
0,639167	0,1	-0,028605
0,640833	0,1	-0,037321
0,642500	0,1	-0,068763
0,644167	0,1	-0,047728
0,645833	0,1	-0,039193
0,647500	0,1	-0,046939
0,649167	0,1	-0,056931
0,650833	0,1	-0,044634
0,652500	0,1	-0,006604
0,654167	0,1	-0,063834
0,655833	0,1	-0,026366
0,657500	0,1	-0,044753
0,659167	0,1	-0,041615
0,660833	0,1	-0,051480
0,662500	0,1	-0,017253
0,664167	0,1	-0,037519
0,665833	0,1	-0,022398
0,667500	0,1	-0,057368
0,669167	0,1	-0,040029
0,670833	0,1	-0,039546
0,672500	0,1	-0,030474
0,674167	0,1	-0,035328
0,675833	0,1	-0,025906
0,677500	0,1	-0,000761
0,679167	0,1	-0,052089
0,680833	0,1	-0,078505
0,682500	0,1	-0,043036
0,684167	0,1	-0,027800
0,685833	0,1	-0,064964
0,687500	0,1	-0,046830
0,689167	0,1	-0,018476
0,690833	0,1	-0,042656
0,692500	0,1	-0,009656
0,694167	0,1	-0,040924
0,695833	0,1	-0,058848
0,697500	0,1	-0,026745
0,699167	0,1	-0,031857
0,700833	0,1	-0,050166
0,702500	0,1	-0,023272
0,704167	0,1	-0,081640
0,705833	0,1	-0,030393
0,707500	0,1	-0,033753
0,709167	0,1	-0,005087
0,710833	0,1	-0,044847
0,712500	0,1	-0,020279
0,714167	0,1	-0,082370
0,715833	0,1	-0,021058
0,717500	0,1	-0,011455
0,719167	0,1	0,008395
0,720833	0,1	0,041964
0,722500	0,1	-0,008840
0,724167	0,1	0,008433
0,725833	0,1	-0,006871
0,727500	0,1	0,003828
0,729167	0,1	-0,023449
0,730833	0,1	0,017918
0,732500	0,1	-0,005565
0,734167	0,1	0,003802
0,735833	0,1	-0,010162
0,737500	0,1	0,026705
0,739167	0,1	-0,001220
0,740833	0,1	-0,018655
0,742500	0,1	0,020239
0,744167	0,1	0,016959
0,745833	0,1	0,000036
0,747500	0,1	0,060370
0,749167	0,1	0,011722
0,750833	0,1	0,034269
0,752500	0,1	0,028066
0,754167	0,1	-0,025029
0,755833	0,1	0,032938
0,757500	0,1	0,018675
0,759167	0,1	0,001967
0,760833	0,1	-0,008587
0,762500	0,1	0,020495
0,764167	0,1	-0,014573
0,765833	0,1	0,023812
0,767500	0,1	-0,000479
0,769167	0,1	0,023816
0,770833	0,1	-0,029915
0,772500	0,1	-0,005830
0,774167	0,1	0,003222
0,775833	0,1	-0,009166
0,777500	0,1	0,022590
0,779167	0,1	0,008821
0,780833	0,1	0,032120
0,782500	0,1	-0,013410
0,784167	0,1	0,016154
0,785833	0,1	-0,006298
0,787500	0,1	-0,060807
0,789167	0,1	0,001821
0,790833	0,1	-0,021682
0,792500	0,1	0,006889
0,794167	0,1	-0,046940
0,795833	0,1	-0,025518
0,797500	0,1	0,000153
0,799167	0,1	-0,021292
0,800833	0,1	-0,042758
0,802500	0,1	0,000893
0,804167	0,1	-0,065952
0,805833	0,1	-0,060469
0,807500	0,1	-0,043675
0,809167	0,1	-0,073332
0,810833	0,1	-0,045482
0,812500	0,1	-0,083046
0,814167	0,1	-0,053937
0,815833	0,1	-0,064844
0,817500	0,1	-0,076743
0,819167	0,1	-0,031932
0,820833	0,1	-0,018574
0,822500	0,1	-0,020754
0,824167	0,1	-0,063320
0,825833	0,1	-0,079870
0,827500	0,1	-0,030674
0,829167	0,1	-0,038292
0,830833	0,1	-0,068535
0,832500	0,1	-0,072213
0,834167	0,1	-0,062981
0,835833	0,1	-0,074332
0,837500	0,1	-0,068733
0,839167	0,1	-0,032194
0,840833	0,1	-0,060686
0,842500	0,1	-0,020410
0,844167	0,1	-0,073768
0,845833	0,1	-0,040904
0,847500	0,1	-0,090474
0,849167	0,1	-0,062441
0,850833	0,1	-0,025748
0,852500	0,1	-0,086384
0,854167	0,1	-0,041045
0,855833	0,1	-0,059011
0,857500	0,1	-0,075581
0,859167	0,1	-0,094342
0,860833	0,1	-0,057575
0,862500	0,1	-0,074520
0,864167	0,1	-0,082307
0,865833	0,1	-0,046634
0,867500	0,1	-0,066129
0,869167	0,1	-0,078042
0,870833	0,1	-0,070502
0,872500	0,1	-0,064165
0,874167	0,1	-0,047878
0,875833	0,1	-0,094777
0,877500	0,1	-0,059920
0,879167	0,1	-0,084916
0,880833	0,1	-0,066869
0,882500	0,1	-0,087870
0,884167	0,1	-0,057092
0,885833	0,1	-0,071278
0,887500	0,1	-0,079835
0,889167	0,1	-0,048726
0,890833	0,1	-0,054283
0,892500	0,1	-0,060213
0,894167	0,1	-0,101618
0,895833	0,1	-0,033580
0,897500	0,1	-0,049523
0,899167	0,1	-0,091802
0,900833	0,1	-0,075688
0,902500	0,1	-0,058403
0,904167	0,1	-0,055900
0,905833	0,1	-0,069474
0,907500	0,1	-0,033699
0,909167	0,1	-0,016869
0,910833	0,1	-0,023100
0,912500	0,1	-0,083936
0,914167	0,1	-0,021150
0,915833	0,1	-0,039514
0,917500	0,1	-0,051972
0,919167	0,1	-0,009142
0,920833	0,1	-0,047749
0,922500	0,1	-0,056186
0,924167	0,1	-0,087111
0,925833	0,1	-0,027532
0,927500	0,1	-0,060685
0,929167	0,1	-0,019477
0,930833	0,1	-0,050479
0,932500	0,1	-0,058133
0,934167	0,1	-0,047208
0,935833	0,1	-0,056667
0,937500	0,1	-0,037999
0,939167	0,1	-0,049461
0,940833	0,1	-0,054157
0,942500	0,1	-0,027423
0,944167	0,1	-0,070048
0,945833	0,1	0,011027
0,947500	0,1	-0,017340
0,949167	0,1	-0,027125
0,950833	0,1	-0,068117
0,952500	0,1	-0,037295
0,954167	0,1	-0,048363
0,955833	0,1	0,011866
0,957500	0,1	-0,031848
0,959167	0,1	-0,011876
0,960833	0,1	-0,010292
0,962500	0,1	-0,061135
0,964167	0,1	-0,009724
0,965833	0,1	-0,007946
0,967500	0,1	-0,007917
0,969167	0,1	-0,034173
0,970833	0,1	-0,056373
0,972500	0,1	-0,067517
0,974167	0,1	-0,034732
0,975833	0,1	-0,039418
0,977500	0,1	-0,019789
0,979167	0,1	-0,001777
0,980833	0,1	-0,039801
0,982500	0,1	-0,012103
0,984167	0,1	-0,025847
0,985833	0,1	-0,034051
0,987500	0,1	-0,025716
0,989167	0,1	-0,033751
0,990833	0,1	0,037872
0,992500	0,1	0,009884
0,994167	0,1	0,001486
0,995833	0,1	0,020463
0,997500	0,1	-0,018181
0,999167	0,1	0,004659
1,000833	0,1	0,043115
1,002500	0,1	0,017581
1,004167	0,1	0,009917
1,005833	0,1	0,031956
1,007500	0,1	0,023079
1,009167	0,1	0,053324
1,010833	0,1	0,058707
1,012500	0,1	0,030003
1,014167	0,1	0,051361
1,015833	0,1	0,107622
1,017500	0,1	0,051095
1,019167	0,1	0,035467
1,020833	0,1	0,108325
1,022500	0,1	0,080822
1,024167	0,1	0,043613
1,025833	0,1	0,137232
1,027500	0,1	0,126052
1,029167	0,1	0,086172
1,030833	0,1	0,091215
1,032500	0,1	0,094950
1,034167	0,1	0,065478
1,035833	0,1	0,078725
1,037500	0,1	0,107176
1,039167	0,1	0,099459
1,040833	0,1	0,132509
1,042500	0,1	0,102295
1,044167	0,1	0,157486
1,045833	0,1	0,142921
1,047500	0,1	0,130393
1,049167	0,1	0,075487
1,050833	0,1	0,125679
1,052500	0,1	0,145905
1,054167	0,1	0,166573
1,055833	0,1	0,141085
1,057500	0,1	0,151219
1,059167	0,1	0,171436
1,060833	0,1	0,205625
1,062500	0,1	0,209818
1,064167	0,1	0,268890
1,065833	0,1	0,302614
1,067500	0,1	0,314408
1,069167	0,1	0,398908
1,070833	0,1	0,465984
1,072500	0,1	0,573396
1,074167	0,1	0,683419
1,075833	0,1	0,742900
1,077500	0,1	0,970441
1,079167	0,1	1,078619
1,080833	0,1	1,248558
1,082500	0,1	1,396763
1,084167	0,1	1,584276
1,085833	0,1	1,794482
1,087500	0,1	1,914659
1,089167	0,1	2,045414
1,090833	0,1	2,273436
1,092500	0,1	2,435958
1,094167	0,1	2,487556
1,095833	0,1	2,576044
1,097500	0,1	2,675633
1,099167	0,1	2,741630
1,100833	0,1	2,779913
1,102500	0,1	2,794975
1,104167	0,1	2,758345
1,105833	0,1	2,744988
1,107500	0,1	2,663204
1,109167	0,1	2,592317
1,110833	0,1	2,499666
1,112500	0,1	2,411221
1,114167	0,1	2,283381
1,115833	0,1	2,183223
1,117500	0,1	2,044111
1,119167	0,1	1,945530
1,120833	0,1	1,859257
1,122500	0,1	1,657147
1,124167	0,1	1,588502
1,125833	0,1	1,430049
1,127500	0,1	1,310011
1,129167	0,1	1,213190
1,130833	0,1	1,104619
1,132500	0,1	0,995868
1,134167	0,1	0,907220
1,135833	0,1	0,815862
1,137500	0,1	0,706656
1,139167	0,1	0,646337
1,140833	0,1	0,583881
1,142500	0,1	0,535698
1,144167	0,1	0,465268
1,145833	0,1	0,411144
1,147500	0,1	0,369657
1,149167	0,1	0,344496
1,150833	0,1	0,360206
1,152500	0,1	0,318346
1,154167	0,1	0,320077
1,155833	0,1	0,230447
1,157500	0,1	0,229041
1,159167	0,1	0,297357
1,160833	0,1	0,323001
1,162500	0,1	0,259453
1,164167	0,1	0,283133
1,165833	0,1	0,297016
1,167500	0,1	0,279602
1,169167	0,1	0,277827
1,170833	0,1	0,346434
1,172500	0,1	0,284927
1,174167	0,1	0,303680
1,175833	0,1	0,317952
1,177500	0,1	0,354788
1,179167	0,1	0,322792
1,180833	0,1	0,358551
1,182500	0,1	0,370391
1,184167	0,1	0,363467
1,185833	0,1	0,375312
1,187500	0,1	0,354192
1,189167	0,1	0,382271
1,190833	0,1	0,401305
1,192500	0,1	0,429193
1,194167	0,1	0,395259
1,195833	0,1	0,433000
1,197500	0,1	0,456843
1,199167	0,1	0,454942
1,200833	0,1	0,450854
1,202500	0,1	0,468480
1,204167	0,1	0,456459
1,205833	0,1	0,468564
1,207500	0,1	0,464964
1,209167	0,1	0,476111
1,210833	0,1	0,489089
1,212500	0,1	0,474828
1,214167	0,1	0,510770
1,215833	0,1	0,459279
1,217500	0,1	0,451994
1,219167	0,1	0,507634
1,220833	0,1	0,484627
1,222500	0,1	0,473314
1,224167	0,1	0,482740
1,225833	0,1	0,445744
1,227500	0,1	0,465734
1,229167	0,1	0,497527
1,230833	0,1	0,514312
1,232500	0,1	0,466853
1,234167	0,1	0,503141
1,235833	0,1	0,491672
1,237500	0,1	0,477813
1,239167	0,1	0,450543
1,240833	0,1	0,479497
1,242500	0,1	0,486447
1,244167	0,1	0,515176
1,245833	0,1	0,470482
1,247500	0,1	0,466410
1,249167	0,1	0,477568
1,250833	0,1	0,483648
1,252500	0,1	0,507222
1,254167	0,1	0,489321
1,255833	0,1	0,422361
1,257500	0,1	0,460454
1,259167	0,1	0,466698
1,260833	0,1	0,459781
1,262500	0,1	0,442809
1,264167	0,1	0,455266
1,265833	0,1	0,433976
1,267500	0,1	0,446340
1,269167	0,1	0,465956
1,270833	0,1	0,442996
1,272500	0,1	0,462381
1,274167	0,1	0,473981
1,275833	0,1	0,480557
1,277500	0,1	0,420818
1,279167	0,1	0,418871
1,280833	0,1	0,441828
1,282500	0,1	0,416133
1,284167	0,1	0,416546
1,285833	0,1	0,436449
1,287500	0,1	0,430012
1,289167	0,1	0,404790
1,290833	0,1	0,375034
1,292500	0,1	0,421558
1,294167	0,1	0,414775
1,295833	0,1	0,391847
1,297500	0,1	0,401364
1,299167	0,1	0,392162
1,300833	0,1	0,381276
1,302500	0,1	0,410770
1,304167	0,1	0,381729
1,305833	0,1	0,396701
1,307500	0,1	0,419156
1,309167	0,1	0,386463
1,310833	0,1	0,385718
1,312500	0,1	0,374574
1,314167	0,1	0,348909
1,315833	0,1	0,373921
1,317500	0,1	0,334422
1,319167	0,1	0,394592
1,320833	0,1	0,324089
1,322500	0,1	0,332413
1,324167	0,1	0,370347
1,325833	0,1	0,338765
1,327500	0,1	0,342780
1,329167	0,1	0,300798
1,330833	0,1	0,316822
1,332500	0,1	0,316312
1,334167	0,1	0,305525
1,335833	0,1	0,293291
1,337500	0,1	0,332406
1,339167	0,1	0,309167
1,340833	0,1	0,312766
1,342500	0,1	0,307097
1,344167	0,1	0,285623
1,345833	0,1	0,300331
1,347500	0,1	0,330920
1,349167	0,1	0,302629
1,350833	0,1	0,328025
1,352500	0,1	0,267407
1,354167	0,1	0,284199
1,355833	0,1	0,287581
1,357500	0,1	0,295859
1,359167	0,1	0,263278
1,360833	0,1	0,297976
1,362500	0,1	0,291448
1,364167	0,1	0,256162
1,365833	0,1	0,291179
1,367500	0,1	0,271776
1,369167	0,1	0,272674
1,370833	0,1	0,245373
1,372500	0,1	0,284129
1,374167	0,1	0,281177
1,375833	0,1	0,283138
1,377500	0,1	0,292474
1,379167	0,1	0,270844
1,380833	0,1	0,262240
1,382500	0,1	0,295529
1,384167	0,1	0,223488
1,385833	0,1	0,270052
1,387500	0,1	0,267587
1,389167	0,1	0,248429
1,390833	0,1	0,260949
1,392500	0,1	0,254255
1,394167	0,1	0,247494
1,395833	0,1	0,235387
1,397500	0,1	0,236479
1,399167	0,1	0,231231
1,400833	0,1	0,255824
1,402500	0,1	0,208993
1,404167	0,1	0,256594
1,405833	0,1	0,249973
1,407500	0,1	0,283807
1,409167	0,1	0,237456
1,410833	0,1	0,255537
1,412500	0,1	0,246142
1,414167	0,1	0,245754
1,415833	0,1	0,223830
1,417500	0,1	0,216711
1,419167	0,1	0,232612
1,420833	0,1	0,236188
1,422500	0,1	0,219642
1,424167	0,1	0,236828
1,425833	0,1	0,244623
1,427500	0,1	0,227468
1,429167	0,1	0,254473
1,430833	0,1	0,227084
1,432500	0,1	0,259107
1,434167	0,1	0,204969
1,435833	0,1	0,253020
1,437500	0,1	0,277883
1,439167	0,1	0,231789
1,440833	0,1	0,229234
1,442500	0,1	0,269121
1,444167	0,1	0,186688
1,445833	0,1	0,293709
1,447500	0,1	0,250594
1,449167	0,1	0,258566
1,450833	0,1	0,238062
1,452500	0,1	0,248649
1,454167	0,1	0,254060
1,455833	0,1	0,211439
1,457500	0,1	0,230292
1,459167	0,1	0,242626
1,460833	0,1	0,207540
1,462500	0,1	0,240336
1,464167	0,1	0,249967
1,465833	0,1	0,215911
1,467500	0,1	0,234638
1,469167	0,1	0,211048
1,470833	0,1	0,216451
1,472500	0,1	0,274978
1,474167	0,1	0,235811
1,475833	0,1	0,241210
1,477500	0,1	0,248006
1,479167	0,1	0,235839
1,480833	0,1	0,252477
1,482500	0,1	0,218778
1,484167	0,1	0,275366
1,485833	0,1	0,255032
1,487500	0,1	0,286836
1,489167	0,1	0,223937
1,490833	0,1	0,256695
1,492500	0,1	0,240765
1,494167	0,1	0,193860
1,495833	0,1	0,238659
1,497500	0,1	0,236576
1,499167	0,1	0,234806
1,500833	0,1	0,258403
1,502500	0,1	0,228566
1,504167	0,1	0,286636
1,505833	0,1	0,210352
1,507500	0,1	0,247420
1,509167	0,1	0,257859
1,510833	0,1	0,249458
1,512500	0,1	0,253289
1,514167	0,1	0,229080
1,515833	0,1	0,257564
1,517500	0,1	0,230948
1,519167	0,1	0,220478
1,520833	0,1	0,259364
1,522500	0,1	0,225442
1,524167	0,1	0,268703
1,525833	0,1	0,229470
1,527500	0,1	0,221701
1,529167	0,1	0,231712
1,530833	0,1	0,243498
1,532500	0,1	0,275437
1,534167	0,1	0,236521
1,535833	0,1	0,223668
1,537500	0,1	0,219382
1,539167	0,1	0,275367
1,540833	0,1	0,237777
1,542500	0,1	0,250418
1,544167	0,1	0,261273
1,545833	0,1	0,250521
1,547500	0,1	0,265651
1,549167	0,1	0,240832
1,550833	0,1	0,236448
1,552500	0,1	0,252190
1,554167	0,1	0,268838
1,555833	0,1	0,251875
1,557500	0,1	0,201910
1,559167	0,1	0,273107
1,560833	0,1	0,251426
1,562500	0,1	0,240539
1,564167	0,1	0,304219
1,565833	0,1	0,243224
1,567500	0,1	0,240410
1,569167	0,1	0,254702
1,570833	0,1	0,253836
1,572500	0,1	0,273381
1,574167	0,1	0,289996
1,575833	0,1	0,244573
1,577500	0,1	0,325569
1,579167	0,1	0,283663
1,580833	0,1	0,253005
1,582500	0,1	0,254899
1,584167	0,1	0,245530
1,585833	0,1	0,288410
1,587500	0,1	0,271843
1,589167	0,1	0,256221
1,590833	0,1	0,268034
1,592500	0,1	0,291571
1,594167	0,1	0,315628
1,595833	0,1	0,250952
1,597500	0,1	0,301905
1,599167	0,1	0,303619
1,600833	0,1	0,270909
1,602500	0,1	0,273577
1,604167	0,1	0,310602
1,605833	0,1	0,277673
1,607500	0,1	0,336325
1,609167	0,1	0,269600
1,610833	0,1	0,290027
1,612500	0,1	0,276542
1,614167	0,1	0,300814
1,615833	0,1	0,282696
1,617500	0,1	0,288099
1,619167	0,1	0,273934
1,620833	0,1	0,325766
1,622500	0,1	0,336563
1,624167	0,1	0,295677
1,625833	0,1	0,321235
1,627500	0,1	0,331379
1,629167	0,1	0,312612
1,630833	0,1	0,332506
1,632500	0,1	0,358365
1,634167	0,1	0,346459
1,635833	0,1	0,392735
1,637500	0,1	0,388752
1,639167	0,1	0,388590
1,640833	0,1	0,430674
1,642500	0,1	0,438554
1,644167	0,1	0,489185
1,645833	0,1	0,509103
1,647500	0,1	0,502703
1,649167	0,1	0,599269
1,650833	0,1	0,571519
1,652500	0,1	0,644280
1,654167	0,1	0,708082
1,655833	0,1	0,740748
1,657500	0,1	0,786502
1,659167	0,1	0,856411
1,660833	0,1	0,927311
1,662500	0,1	0,969737
1,664167	0,1	1,062119
1,665833	0,1	1,151035
1,667500	0,1	1,247329
1,669167	0,1	1,319740
1,670833	0,1	1,457468
1,672500	0,1	1,558727
1,674167	0,1	1,656281
1,675833	0,1	1,774390
1,677500	0,1	1,964930
1,679167	0,1	2,074948
1,680833	0,1	2,264828
1,682500	0,1	2,449205
1,684167	0,1	2,634495
1,685833	0,1	2,803051
1,687500	0,1	3,015754
1,689167	0,1	3,266912
1,690833	0,1	3,462094
1,692500	0,1	3,691325
1,694167	0,1	3,957031
1,695833	0,1	4,185547
1,697500	0,1	4,433947
1,699167	0,1	4,744332
1,700833	0,1	5,006125
1,702500	0,1	5,366507
1,704167	0,1	5,622182
1,705833	0,1	5,928478
1,707500	0,1	6,243951
1,709167	0,1	6,612651
1,710833	0,1	6,911997
1,712500	0,1	7,245274
1,714167	0,1	7,646614
1,715833	0,1	7,936057
1,717500	0,1	8,307663
1,719167	0,1	8,674818
1,720833	0,1	9,011773
1,722500	0,1	9,390766
1,724167	0,1	9,708521
1,725833	0,1	10,073616
1,727500	0,1	10,441513
1,729167	0,1	10,817208
1,730833	0,1	11,146012
1,732500	0,1	11,535450
1,734167	0,1	11,808347
1,735833	0,1	12,119231
1,737500	0,1	12,513664
1,739167	0,1	12,826537
1,740833	0,1	13,105086
1,742500	0,1	13,418893
1,744167	0,1	13,739900
1,745833	0,1	13,981493
1,747500	0,1	14,257783
1,749167	0,1	14,550787
1,750833	0,1	14,753419
1,752500	0,1	14,985628
1,754167	0,1	15,249007
1,755833	0,1	15,431459
1,757500	0,1	15,599964
1,759167	0,1	15,801086
1,760833	0,1	15,920341
1,762500	0,1	16,070731
1,764167	0,1	16,265112
1,765833	0,1	16,308876
1,767500	0,1	16,420086
1,769167	0,1	16,558439
1,770833	0,1	16,596325
1,772500	0,1	16,680293
1,774167	0,1	16,767625
1,775833	0,1	16,705658
1,777500	0,1	16,746815
1,779167	0,1	16,692125
1,780833	0,1	16,701350
1,782500	0,1	16,688342
1,784167	0,1	16,648358
1,785833	0,1	16,583530
1,787500	0,1	16,480559
1,789167	0,1	16,439075
1,790833	0,1	16,300359
1,792500	0,1	16,232562
1,794167	0,1	16,103132
1,795833	0,1	15,968067
1,797500	0,1	15,835622
1,799167	0,1	15,681841
1,800833	0,1	15,504514
1,802500	0,1	15,308582
1,804167	0,1	15,179095
1,805833	0,1	14,977333
1,807500	0,1	14,805202
1,809167	0,1	14,591214
1,810833	0,1	14,381980
1,812500	0,1	14,207036
1,814167	0,1	13,993630
1,815833	0,1	13,738527
1,817500	0,1	13,529605
1,819167	0,1	13,298119
1,820833	0,1	13,094490
1,822500	0,1	12,860367
1,824167	0,1	12,631596
1,825833	0,1	12,387813
1,827500	0,1	12,148832
1,829167	0,1	11,924382
1,830833	0,1	11,676720
1,832500	0,1	11,458775
1,834167	0,1	11,188470
1,835833	0,1	10,986294
1,837500	0,1	10,731855
1,839167	0,1	10,483635
1,840833	0,1	10,323196
1,842500	0,1	10,024624
1,844167	0,1	9,875269
1,845833	0,1	9,584638
1,847500	0,1	9,382760
1,849167	0,1	9,190196
1,850833	0,1	8,975176
1,852500	0,1	8,755383
1,854167	0,1	8,560805
1,855833	0,1	8,339753
1,857500	0,1	8,122429
1,859167	0,1	7,916395
1,860833	0,1	7,752818
1,862500	0,1	7,537102
1,864167	0,1	7,323595
1,865833	0,1	7,173778
1,867500	0,1	6,970975
1,869167	0,1	6,818596
1,870833	0,1	6,628564
1,872500	0,1	6,474810
1,874167	0,1	6,294444
1,875833	0,1	6,131850
1,877500	0,1	5,990038
1,879167	0,1	5,806489
1,880833	0,1	5,685571
1,882500	0,1	5,504173
1,884167	0,1	5,385569
1,885833	0,1	5,298936
1,887500	0,1	5,154655
1,889167	0,1	5,048168
1,890833	0,1	4,880753
1,892500	0,1	4,755445
1,894167	0,1	4,670504
1,895833	0,1	4,528089
1,897500	0,1	4,385689
1,899167	0,1	4,308258
1,900833	0,1	4,201904
1,902500	0,1	4,109710
1,904167	0,1	4,001942
1,905833	0,1	3,904714
1,907500	0,1	3,772776
1,909167	0,1	3,744425
1,910833	0,1	3,683009
1,912500	0,1	3,548394
1,914167	0,1	3,429730
1,915833	0,1	3,387102
1,917500	0,1	3,328470
1,919167	0,1	3,194063
1,920833	0,1	3,172771
1,922500	0,1	3,100174
1,924167	0,1	2,995695
1,925833	0,1	2,972804
1,927500	0,1	2,875486
1,929167	0,1	2,831361
1,930833	0,1	2,750583
1,932500	0,1	2,716678
1,934167	0,1	2,664688
1,935833	0,1	2,613649
1,937500	0,1	2,523369
1,939167	0,1	2,522676
1,940833	0,1	2,456661
1,942500	0,1	2,414509
1,944167	0,1	2,357791
1,945833	0,1	2,310457
1,947500	0,1	2,268325
1,949167	0,1	2,238713
1,950833	0,1	2,205218
1,952500	0,1	2,152751
1,954167	0,1	2,142245
1,955833	0,1	2,128158
1,957500	0,1	2,024776
1,959167	0,1	2,034733
1,960833	0,1	1,959749
1,962500	0,1	1,960089
1,964167	0,1	1,930785
1,965833	0,1	1,909233
1,967500	0,1	1,896229
1,969167	0,1	1,803811
1,970833	0,1	1,785271
1,972500	0,1	1,798761
1,974167	0,1	1,767892
1,975833	0,1	1,752088
1,977500	0,1	1,744406
1,979167	0,1	1,684534
1,980833	0,1	1,658609
1,982500	0,1	1,628237
1,984167	0,1	1,620768
1,985833	0,1	1,608568
1,987500	0,1	1,595718
1,989167	0,1	1,578788
1,990833	0,1	1,583528
1,992500	0,1	1,554314
1,994167	0,1	1,582947
1,995833	0,1	1,468501
1,997500	0,1	1,516192
1,999167	0,1	1,514532
2,000833	0,1	1,452778
2,002500	0,1	1,427504
2,004167	0,1	1,442557
2,005833	0,1	1,494231
2,007500	0,1	1,436623
2,009167	0,1	1,425556
2,010833	0,1	1,440699
2,012500	0,1	1,383531
2,014167	0,1	1,355531
2,015833	0,1	1,388180
2,017500	0,1	1,397802
2,019167	0,1	1,364077
2,020833	0,1	1,371030
2,022500	0,1	1,408354
2,024167	0,1	1,367168
2,025833	0,1	1,375917
2,027500	0,1	1,350872
2,029167	0,1	1,343626
2,030833	0,1	1,320526
2,032500	0,1	1,319506
2,034167	0,1	1,357533
2,035833	0,1	1,361861
2,037500	0,1	1,325290
2,039167	0,1	1,307187
2,040833	0,1	1,333288
2,042500	0,1	1,327922
2,044167	0,1	1,303176
2,045833	0,1	1,349942
2,047500	0,1	1,296359
2,049167	0,1	1,328480
2,050833	0,1	1,266250
2,052500	0,1	1,338740
2,054167	0,1	1,305701
2,055833	0,1	1,286654
2,057500	0,1	1,292125
2,059167	0,1	1,277638
2,060833	0,1	1,308177
2,062500	0,1	1,270542
2,064167	0,1	1,303909
2,065833	0,1	1,337887
2,067500	0,1	1,285545
2,069167	0,1	1,297634
2,070833	0,1	1,296218
2,072500	0,1	1,283816
2,074167	0,1	1,300515
2,075833	0,1	1,252321
2,077500	0,1	1,319502
2,079167	0,1	1,322676
2,080833	0,1	1,290405
2,082500	0,1	1,298936
2,084167	0,1	1,296218
2,085833	0,1	1,275126
2,087500	0,1	1,351076
2,089167	0,1	1,313128
2,090833	0,1	1,341463
2,092500	0,1	1,291423
2,094167	0,1	1,321020
2,095833	0,1	1,290197
2,097500	0,1	1,320594
2,099167	0,1	1,340898
2,100833	0,1	1,331073
2,102500	0,1	1,301332
2,104167	0,1	1,344766
2,105833	0,1	1,334748
2,107500	0,1	1,291340
2,109167	0,1	1,338876
2,110833	0,1	1,359483
2,112500	0,1	1,303391
2,114167	0,1	1,341829
2,115833	0,1	1,312861
2,117500	0,1	1,323676
2,119167	0,1	1,339252
2,120833	0,1	1,386606
2,122500	0,1	1,304550
2,124167	0,1	1,336575
2,125833	0,1	1,321896
2,127500	0,1	1,370166
2,129167	0,1	1,318526
2,130833	0,1	1,338327
2,132500	0,1	1,371311
2,134167	0,1	1,395652
2,135833	0,1	1,383949
2,137500	0,1	1,354309
2,139167	0,1	1,330708
2,140833	0,1	1,344753
2,142500	0,1	1,341124
2,144167	0,1	1,370955
2,145833	0,1	1,338805
2,147500	0,1	1,371531
2,149167	0,1	1,340889
2,150833	0,1	1,377600
2,152500	0,1	1,352163
2,154167	0,1	1,374116
2,155833	0,1	1,372185
2,157500	0,1	1,337822
2,159167	0,1	1,378918
2,160833	0,1	1,384660
2,162500	0,1	1,398872
2,164167	0,1	1,356331
2,165833	0,1	1,380642
2,167500	0,1	1,374749
2,169167	0,1	1,398155
2,170833	0,1	1,378576
2,172500	0,1	1,356117
2,174167	0,1	1,340816
2,175833	0,1	1,369734
2,177500	0,1	1,373753
2,179167	0,1	1,375323
2,180833	0,1	1,393976
2,182500	0,1	1,373044
2,184167	0,1	1,390121
2,185833	0,1	1,392418
2,187500	0,1	1,386469
2,189167	0,1	1,381434
2,190833	0,1	1,383528
2,192500	0,1	1,404168
2,194167	0,1	1,355895
2,195833	0,1	1,444703
2,197500	0,1	1,361069
2,199167	0,1	1,404170
2,200833	0,1	1,394856
2,202500	0,1	1,356191
2,204167	0,1	1,369003
2,205833	0,1	1,391539
2,207500	0,1	1,383868
2,209167	0,1	1,387820
2,210833	0,1	1,352443
2,212500	0,1	1,394546
2,214167	0,1	1,420677
2,215833	0,1	1,394860
2,217500	0,1	1,375635
2,219167	0,1	1,379206
2,220833	0,1	1,418169
2,222500	0,1	1,395486
2,224167	0,1	1,372905
2,225833	0,1	1,374686
2,227500	0,1	1,355103
2,229167	0,1	1,406751
2,230833	0,1	1,398294
2,232500	0,1	1,403028
2,234167	0,1	1,408927
2,235833	0,1	1,382581
2,237500	0,1	1,418092
2,239167	0,1	1,376923
2,240833	0,1	1,389953
2,242500	0,1	1,395062
2,244167	0,1	1,375328
2,245833	0,1	1,394412
2,247500	0,1	1,371753
2,249167	0,1	1,387032
2,250833	0,1	1,425910
2,252500	0,1	1,407755
2,254167	0,1	1,393416
2,255833	0,1	1,393482
2,257500	0,1	1,373689
2,259167	0,1	1,406957
2,260833	0,1	1,389612
2,262500	0,1	1,436468
2,264167	0,1	1,415086
2,265833	0,1	1,403399
2,267500	0,1	1,337461
2,269167	0,1	1,385454
2,270833	0,1	1,395567
2,272500	0,1	1,414431
2,274167	0,1	1,409498
2,275833	0,1	1,425549
2,277500	0,1	1,377857
2,279167	0,1	1,379843
2,280833	0,1	1,394553
2,282500	0,1	1,386094
2,284167	0,1	1,377491
2,285833	0,1	1,398565
2,287500	0,1	1,421533
2,289167	0,1	1,415659
2,290833	0,1	1,395871
2,292500	0,1	1,394476
2,294167	0,1	1,415791
2,295833	0,1	1,404473
2,297500	0,1	1,376472
2,299167	0,1	1,423978
2,300833	0,1	1,385375
2,302500	0,1	1,410493
2,304167	0,1	1,413936
2,305833	0,1	1,414644
2,307500	0,1	1,417811
2,309167	0,1	1,451307
2,310833	0,1	1,417959
2,312500	0,1	1,393855
2,314167	0,1	1,414926
2,315833	0,1	1,414286
2,317500	0,1	1,412576
2,319167	0,1	1,355518
2,320833	0,1	1,353150
2,322500	0,1	1,384078
2,324167	0,1	1,402371
2,325833	0,1	1,413211
2,327500	0,1	1,432816
2,329167	0,1	1,407485
2,330833	0,1	1,408543
2,332500	0,1	1,421902
2,334167	0,1	1,361619
2,335833	0,1	1,428696
2,337500	0,1	1,424699
2,339167	0,1	1,420842
2,340833	0,1	1,451534
2,342500	0,1	1,399665
2,344167	0,1	1,442480
2,345833	0,1	1,390694
2,347500	0,1	1,452895
2,349167	0,1	1,423333
2,350833	0,1	1,435603
2,352500	0,1	1,469187
2,354167	0,1	1,388108
2,355833	0,1	1,409114
2,357500	0,1	1,411991
2,359167	0,1	1,430164
2,360833	0,1	1,403244
2,362500	0,1	1,462576
2,364167	0,1	1,404404
2,365833	0,1	1,440824
2,367500	0,1	1,422398
2,369167	0,1	1,433883
2,370833	0,1	1,373242
2,372500	0,1	1,468037
2,374167	0,1	1,422412
2,375833	0,1	1,426345
2,377500	0,1	1,450880
2,379167	0,1	1,442929
2,380833	0,1	1,441209
2,382500	0,1	1,430939
2,384167	0,1	1,450306
2,385833	0,1	1,441568
2,387500	0,1	1,437412
2,389167	0,1	1,464801
2,390833	0,1	1,411576
2,392500	0,1	1,434736
2,394167	0,1	1,471553
2,395833	0,1	1,434533
2,397500	0,1	1,437264
2,399167	0,1	1,456834
2,400833	0,1	1,468610
2,402500	0,1	1,471787
2,404167	0,1	1,449819
2,405833	0,1	1,426065
2,407500	0,1	1,440620
2,409167	0,1	1,399513
2,410833	0,1	1,449243
2,412500	0,1	1,421109
2,414167	0,1	1,502474
2,415833	0,1	1,444006
2,417500	0,1	1,441183
2,419167	0,1	1,460874
2,420833	0,1	1,476996
2,422500	0,1	1,450962
2,424167	0,1	1,432871
2,425833	0,1	1,421828
2,427500	0,1	1,470895
2,429167	0,1	1,441276
2,430833	0,1	1,448215
2,432500	0,1	1,408135
2,434167	0,1	1,423124
2,435833	0,1	1,479594
2,437500	0,1	1,412434
2,439167	0,1	1,451376
2,440833	0,1	1,460425
2,442500	0,1	1,454632
2,444167	0,1	1,457843
2,445833	0,1	1,475347
2,447500	0,1	1,452969
2,449167	0,1	1,445146
2,450833	0,1	1,460274
2,452500	0,1	1,437183
2,454167	0,1	1,432159
2,455833	0,1	1,469476
2,457500	0,1	1,470417
2,459167	0,1	1,497747
2,460833	0,1	1,428649
2,462500	0,1	1,458708
2,464167	0,1	1,455627
2,465833	0,1	1,502622
2,467500	0,1	1,452470
2,469167	0,1	1,433098
2,470833	0,1	1,483020
2,472500	0,1	1,445938
2,474167	0,1	1,452955
2,475833	0,1	1,447083
2,477500	0,1	1,456846
2,479167	0,1	1,499479
2,480833	0,1	1,461648
2,482500	0,1	1,426993
2,484167	0,1	1,444564
2,485833	0,1	1,438042
2,487500	0,1	1,430868
2,489167	0,1	1,487911
2,490833	0,1	1,480387
2,492500	0,1	1,432379
2,494167	0,1	1,428563
2,495833	0,1	1,438387
2,497500	0,1	1,481806
2,499167	0,1	1,495526
2,500833	0,1	1,468410
2,502500	0,1	1,470410
2,504167	0,1	1,448162
2,505833	0,1	1,489045
2,507500	0,1	1,442774
2,509167	0,1	1,455623
2,510833	0,1	1,475423
2,512500	0,1	1,438119
2,514167	0,1	1,473265
2,515833	0,1	1,495944
2,517500	0,1	1,475582
2,519167	0,1	1,465393
2,520833	0,1	1,520276
2,522500	0,1	1,453915
2,524167	0,1	1,469106
2,525833	0,1	1,453403
2,527500	0,1	1,466446
2,529167	0,1	1,465158
2,530833	0,1	1,486037
2,532500	0,1	1,468102
2,534167	0,1	1,462802
2,535833	0,1	1,442366
2,537500	0,1	1,484609
2,539167	0,1	1,439265
2,540833	0,1	1,472534
2,542500	0,1	1,475777
2,544167	0,1	1,464601
2,545833	0,1	1,480591
2,547500	0,1	1,451469
2,549167	0,1	1,470040
2,550833	0,1	1,438826
2,552500	0,1	1,487462
2,554167	0,1	1,498896
2,555833	0,1	1,443499
2,557500	0,1	1,478572
2,559167	0,1	1,468615
2,560833	0,1	1,427211
2,562500	0,1	1,480436
2,564167	0,1	1,500627
2,565833	0,1	1,470339
2,567500	0,1	1,499248
2,569167	0,1	1,479613
2,570833	0,1	1,466313
2,572500	0,1	1,458857
2,574167	0,1	1,475713
2,575833	0,1	1,471974
2,577500	0,1	1,475576
2,579167	0,1	1,464242
2,580833	0,1	1,459127
2,582500	0,1	1,461709
2,584167	0,1	1,431711
2,585833	0,1	1,442394
2,587500	0,1	1,473632
2,589167	0,1	1,476423
2,590833	0,1	1,466102
2,592500	0,1	1,491709
2,594167	0,1	1,468819
2,595833	0,1	1,470394
2,597500	0,1	1,460865
2,599167	0,1	1,513508
2,600833	0,1	1,508237
2,602500	0,1	1,481823
2,604167	0,1	1,463371
2,605833	0,1	1,458761
2,607500	0,1	1,482240
2,609167	0,1	1,452099
2,610833	0,1	1,472544
2,612500	0,1	1,487059
2,614167	0,1	1,463156
2,615833	0,1	1,488628
2,617500	0,1	1,483895
2,619167	0,1	1,487263
2,620833	0,1	1,483600
2,622500	0,1	1,469176
2,624167	0,1	1,438808
2,625833	0,1	1,481730
2,627500	0,1	1,452527
2,629167	0,1	1,455679
2,630833	0,1	1,448148
2,632500	0,1	1,461715
2,634167	0,1	1,487111
2,635833	0,1	1,479025
2,637500	0,1	1,431656
2,639167	0,1	1,476429
2,640833	0,1	1,437187
2,642500	0,1	1,481294
2,644167	0,1	1,468740
2,645833	0,1	1,435894
2,647500	0,1	1,464225
2,649167	0,1	1,442768
2,650833	0,1	1,448784
2,652500	0,1	1,446725
2,654167	0,1	1,461426
2,655833	0,1	1,485610
2,657500	0,1	1,507997
2,659167	0,1	1,467331
2,660833	0,1	1,502190
2,662500	0,1	1,439975
2,664167	0,1	1,465431
2,665833	0,1	1,468603
2,667500	0,1	1,482538
2,669167	0,1	1,422042
2,670833	0,1	1,419086
2,672500	0,1	1,449937
2,674167	0,1	1,409279
2,675833	0,1	1,460135
2,677500	0,1	1,433309
2,679167	0,1	1,437812
2,680833	0,1	1,461713
2,682500	0,1	1,399360
2,684167	0,1	1,398648
2,685833	0,1	1,438606
2,687500	0,1	1,461930
2,689167	0,1	1,443490
2,690833	0,1	1,472418
2,692500	0,1	1,417597
2,694167	0,1	1,433725
2,695833	0,1	1,428930
2,697500	0,1	1,401010
2,699167	0,1	1,400794
2,700833	0,1	1,409554
2,702500	0,1	1,442196
2,704167	0,1	1,428995
2,705833	0,1	1,408768
2,707500	0,1	1,393338
2,709167	0,1	1,461413
2,710833	0,1	1,429872
2,712500	0,1	1,430859
2,714167	0,1	1,410485
2,715833	0,1	1,410184
2,717500	0,1	1,423620
2,719167	0,1	1,421242
2,720833	0,1	1,412053
2,722500	0,1	1,401233
2,724167	0,1	1,417084
2,725833	0,1	1,387747
2,727500	0,1	1,415919
2,729167	0,1	1,393171
2,730833	0,1	1,413286
2,732500	0,1	1,415228
2,734167	0,1	1,403809
2,735833	0,1	1,404599
2,737500	0,1	1,400149
2,739167	0,1	1,383633
2,740833	0,1	1,407466
2,742500	0,1	1,362192
2,744167	0,1	1,411115
2,745833	0,1	1,389087
2,747500	0,1	1,368504
2,749167	0,1	1,402228
2,750833	0,1	1,347192
2,752500	0,1	1,451064
2,754167	0,1	1,369512
2,755833	0,1	1,397133
2,757500	0,1	1,378905
2,759167	0,1	1,403363
2,760833	0,1	1,406407
2,762500	0,1	1,387447
2,764167	0,1	1,361620
2,765833	0,1	1,408095
2,767500	0,1	1,386743
2,769167	0,1	1,407833
2,770833	0,1	1,376831
2,772500	0,1	1,417636
2,774167	0,1	1,423552
2,775833	0,1	1,402230
2,777500	0,1	1,376630
2,779167	0,1	1,401375
2,780833	0,1	1,367433
2,782500	0,1	1,426691
2,784167	0,1	1,376836
2,785833	0,1	1,374826
2,787500	0,1	1,375830
2,789167	0,1	1,364349
2,790833	0,1	1,375380
2,792500	0,1	1,385286
2,794167	0,1	1,389529
2,795833	0,1	1,371810
2,797500	0,1	1,405882
2,799167	0,1	1,376124
2,800833	0,1	1,387520
2,802500	0,1	1,453866
2,804167	0,1	1,382881
2,805833	0,1	1,400929
2,807500	0,1	1,358395
2,809167	0,1	1,342605
2,810833	0,1	1,336940
2,812500	0,1	1,388513
2,814167	0,1	1,380480
2,815833	0,1	1,396926
2,817500	0,1	1,411838
2,819167	0,1	1,380775
2,820833	0,1	1,335936
2,822500	0,1	1,372365
2,824167	0,1	1,379692
2,825833	0,1	1,386517
2,827500	0,1	1,375265
2,829167	0,1	1,380627
2,830833	0,1	1,357548
2,832500	0,1	1,327170
2,834167	0,1	1,354664
2,835833	0,1	1,381137
2,837500	0,1	1,365283
2,839167	0,1	1,356253
2,840833	0,1	1,336458
2,842500	0,1	1,354229
2,844167	0,1	1,347928
2,845833	0,1	1,337161
2,847500	0,1	1,328894
2,849167	0,1	1,327094
2,850833	0,1	1,412565
2,852500	0,1	1,318089
2,854167	0,1	1,303013
2,855833	0,1	1,333495
2,857500	0,1	1,360556
2,859167	0,1	1,341046
2,860833	0,1	1,328020
2,862500	0,1	1,319993
2,864167	0,1	1,317283
2,865833	0,1	1,328265
2,867500	0,1	1,311038
2,869167	0,1	1,329316
2,870833	0,1	1,296779
2,872500	0,1	1,299375
2,874167	0,1	1,314328
2,875833	0,1	1,280271
2,877500	0,1	1,268092
2,879167	0,1	1,292812
2,880833	0,1	1,295548
2,882500	0,1	1,295987
2,884167	0,1	1,314787
2,885833	0,1	1,290887
2,887500	0,1	1,310047
2,889167	0,1	1,305533
2,890833	0,1	1,258832
2,892500	0,1	1,293386
2,894167	0,1	1,255591
2,895833	0,1	1,287932
2,897500	0,1	1,195064
2,899167	0,1	1,209540
2,900833	0,1	1,236717
2,902500	0,1	1,220865
2,904167	0,1	1,247564
2,905833	0,1	1,203387
2,907500	0,1	1,221471
2,909167	0,1	1,256599
2,910833	0,1	1,230068
2,912500	0,1	1,241827
2,914167	0,1	1,219312
2,915833	0,1	1,184242
2,917500	0,1	1,205677
2,919167	0,1	1,171910
2,920833	0,1	1,204590
2,922500	0,1	1,217874
2,924167	0,1	1,205479
2,925833	0,1	1,171978
2,927500	0,1	1,164075
2,929167	0,1	1,168960
2,930833	0,1	1,180427
2,932500	0,1	1,188543
2,934167	0,1	1,183945
2,935833	0,1	1,172042
2,937500	0,1	1,181855
2,939167	0,1	1,169843
2,940833	0,1	1,147601
2,942500	0,1	1,178292
2,944167	0,1	1,155058
2,945833	0,1	1,160352
2,947500	0,1	1,175633
2,949167	0,1	1,159079
2,950833	0,1	1,181864
2,952500	0,1	1,160028
2,954167	0,1	1,173876
2,955833	0,1	1,163018
2,957500	0,1	1,143082
2,959167	0,1	1,123047
2,960833	0,1	1,131612
2,962500	0,1	1,142430
2,964167	0,1	1,097611
2,965833	0,1	1,102270
2,967500	0,1	1,103835
2,969167	0,1	1,142067
2,970833	0,1	1,112261
2,972500	0,1	1,077895
2,974167	0,1	1,119767
2,975833	0,1	1,129744
2,977500	0,1	1,103347
2,979167	0,1	1,087061
2,980833	0,1	1,091808
2,982500	0,1	1,088127
2,984167	0,1	1,124051
2,985833	0,1	1,133205
2,987500	0,1	1,102771
2,989167	0,1	1,050153
2,990833	0,1	1,133651
2,992500	0,1	1,132973
2,994167	0,1	1,117473
2,995833	0,1	1,072545
2,997500	0,1	1,141141
2,999167	0,1	1,083145
3,000833	0,1	1,129530
3,002500	0,1	1,095468
3,004167	0,1	1,110862
3,005833	0,1	1,120791
3,007500	0,1	1,099968
3,009167	0,1	1,064344
3,010833	0,1	1,100545
3,012500	0,1	1,096820
3,014167	0,1	1,104864
3,015833	0,1	1,071933
3,017500	0,1	1,114385
3,019167	0,1	1,097113
3,020833	0,1	1,119992
3,022500	0,1	1,107877
3,024167	0,1	1,075586
3,025833	0,1	1,102158
3,027500	0,1	1,044193
3,029167	0,1	1,094174
3,030833	0,1	1,131097
3,032500	0,1	1,093465
3,034167	0,1	1,089025
3,035833	0,1	1,117218
3,037500	0,1	1,127573
3,039167	0,1	1,065519
3,040833	0,1	1,098186
3,042500	0,1	1,087060
3,044167	0,1	1,117696
3,045833	0,1	1,078655
3,047500	0,1	1,057530
3,049167	0,1	1,111716
3,050833	0,1	1,084937
3,052500	0,1	1,082282
3,054167	0,1	1,053660
3,055833	0,1	1,095535
3,057500	0,1	1,058111
3,059167	0,1	1,046390
3,060833	0,1	1,078234
3,062500	0,1	1,064490
3,064167	0,1	1,110252
3,065833	0,1	1,091336
3,067500	0,1	1,093472
3,069167	0,1	1,081434
3,070833	0,1	1,041777
3,072500	0,1	1,081680
3,074167	0,1	1,059211
3,075833	0,1	1,049512
3,077500	0,1	1,076825
3,079167	0,1	1,064930
3,080833	0,1	1,058781
3,082500	0,1	1,007602
3,084167	0,1	1,066031
3,085833	0,1	1,038328
3,087500	0,1	1,039695
3,089167	0,1	1,032108
3,090833	0,1	1,053257
3,092500	0,1	1,016376
3,094167	0,1	1,023496
3,095833	0,1	1,030882
3,097500	0,1	1,012296
3,099167	0,1	1,041168
3,100833	0,1	1,052614
3,102500	0,1	1,007669
3,104167	0,1	1,013682
3,105833	0,1	1,005012
3,107500	0,1	1,016262
3,109167	0,1	1,005148
3,110833	0,1	0,982978
3,112500	0,1	1,020093
3,114167	0,1	0,998258
3,115833	0,1	1,017976
3,117500	0,1	0,977022
3,119167	0,1	0,997245
3,120833	0,1	0,960641
3,122500	0,1	0,960103
3,124167	0,1	0,981338
3,125833	0,1	0,972246
3,127500	0,1	0,968884
3,129167	0,1	0,971156
3,130833	0,1	0,978116
3,132500	0,1	0,938470
3,134167	0,1	0,927446
3,135833	0,1	0,963762
3,137500	0,1	0,941812
3,139167	0,1	0,935476
3,140833	0,1	0,921999
3,142500	0,1	0,947792
3,144167	0,1	0,954008
3,145833	0,1	0,947732
3,147500	0,1	0,965143
3,149167	0,1	0,904932
3,150833	0,1	0,926334
3,152500	0,1	0,927579
3,154167	0,1	0,877280
3,155833	0,1	0,882380
3,157500	0,1	0,893053
3,159167	0,1	0,930525
3,160833	0,1	0,935558
3,162500	0,1	0,883780
3,164167	0,1	0,872026
3,165833	0,1	0,856123
3,167500	0,1	0,877196
3,169167	0,1	0,872708
3,170833	0,1	0,880693
3,172500	0,1	0,846346
3,174167	0,1	0,837104
3,175833	0,1	0,840237
3,177500	0,1	0,884238
3,179167	0,1	0,850748
3,180833	0,1	0,841772
3,182500	0,1	0,804382
3,184167	0,1	0,880379
3,185833	0,1	0,852479
3,187500	0,1	0,829328
3,189167	0,1	0,836232
3,190833	0,1	0,848398
3,192500	0,1	0,835372
3,194167	0,1	0,802022
3,195833	0,1	0,842673
3,197500	0,1	0,813517
3,199167	0,1	0,797392
3,200833	0,1	0,823021
3,202500	0,1	0,765763
3,204167	0,1	0,845090
3,205833	0,1	0,811073
3,207500	0,1	0,779318
3,209167	0,1	0,764263
3,210833	0,1	0,799691
3,212500	0,1	0,840470
3,214167	0,1	0,809891
3,215833	0,1	0,759357
3,217500	0,1	0,797290
3,219167	0,1	0,799900
3,220833	0,1	0,757754
3,222500	0,1	0,737116
3,224167	0,1	0,772031
3,225833	0,1	0,796933
3,227500	0,1	0,765777
3,229167	0,1	0,766658
3,230833	0,1	0,732494
3,232500	0,1	0,741422
3,234167	0,1	0,742246
3,235833	0,1	0,770721
3,237500	0,1	0,742209
3,239167	0,1	0,735623
3,240833	0,1	0,735488
3,242500	0,1	0,715615
3,244167	0,1	0,716212
3,245833	0,1	0,749241
3,247500	0,1	0,712063
3,249167	0,1	0,686492
3,250833	0,1	0,738055
3,252500	0,1	0,739089
3,254167	0,1	0,732576
3,255833	0,1	0,751269
3,257500	0,1	0,710063
3,259167	0,1	0,744149
3,260833	0,1	0,726687
3,262500	0,1	0,686234
3,264167	0,1	0,715470
3,265833	0,1	0,685474
3,267500	0,1	0,735543
3,269167	0,1	0,672544
3,270833	0,1	0,707823
3,272500	0,1	0,698429
3,274167	0,1	0,698049
3,275833	0,1	0,672734
3,277500	0,1	0,663237
3,279167	0,1	0,704441
3,280833	0,1	0,696071
3,282500	0,1	0,682891
3,284167	0,1	0,665040
3,285833	0,1	0,682618
3,287500	0,1	0,682398
3,289167	0,1	0,663619
3,290833	0,1	0,681594
3,292500	0,1	0,693155
3,294167	0,1	0,633420
3,295833	0,1	0,661184
3,297500	0,1	0,636792
3,299167	0,1	0,692699
3,300833	0,1	0,642618
3,302500	0,1	0,635407
3,304167	0,1	0,622137
3,305833	0,1	0,648648
3,307500	0,1	0,610540
3,309167	0,1	0,659178
3,310833	0,1	0,660100
3,312500	0,1	0,673082
3,314167	0,1	0,643660
3,315833	0,1	0,614984
3,317500	0,1	0,651537
3,319167	0,1	0,657122
3,320833	0,1	0,641277
3,322500	0,1	0,593049
3,324167	0,1	0,674468
3,325833	0,1	0,618702
3,327500	0,1	0,600314
3,329167	0,1	0,581662
3,330833	0,1	0,590729
3,332500	0,1	0,584105
3,334167	0,1	0,620257
3,335833	0,1	0,601339
3,337500	0,1	0,605638
3,339167	0,1	0,642645
3,340833	0,1	0,586920
3,342500	0,1	0,621547
3,344167	0,1	0,600183
3,345833	0,1	0,620733
3,347500	0,1	0,596274
3,349167	0,1	0,607777
3,350833	0,1	0,581070
3,352500	0,1	0,589218
3,354167	0,1	0,588930
3,355833	0,1	0,589888
3,357500	0,1	0,641750
3,359167	0,1	0,578411
3,360833	0,1	0,601171
3,362500	0,1	0,585291
3,364167	0,1	0,613773
3,365833	0,1	0,578982
3,367500	0,1	0,625262
3,369167	0,1	0,595829
3,370833	0,1	0,617153
3,372500	0,1	0,564427
3,374167	0,1	0,600011
3,375833	0,1	0,614619
3,377500	0,1	0,608872
3,379167	0,1	0,573850
3,380833	0,1	0,577750
3,382500	0,1	0,599148
3,384167	0,1	0,591668
3,385833	0,1	0,545378
3,387500	0,1	0,566327
3,389167	0,1	0,560770
3,390833	0,1	0,556549
3,392500	0,1	0,560256
3,394167	0,1	0,566082
3,395833	0,1	0,544530
3,397500	0,1	0,590092
3,399167	0,1	0,577886
3,400833	0,1	0,581195
3,402500	0,1	0,584814
3,404167	0,1	0,549308
3,405833	0,1	0,599412
3,407500	0,1	0,554560
3,409167	0,1	0,566699
3,410833	0,1	0,524151
3,412500	0,1	0,553187
3,414167	0,1	0,526067
3,415833	0,1	0,536276
3,417500	0,1	0,567917
3,419167	0,1	0,546464
3,420833	0,1	0,564278
3,422500	0,1	0,529645
3,424167	0,1	0,580985
3,425833	0,1	0,540841
3,427500	0,1	0,563947
3,429167	0,1	0,542506
3,430833	0,1	0,513348
3,432500	0,1	0,565583
3,434167	0,1	0,539126
3,435833	0,1	0,532019
3,437500	0,1	0,552413
3,439167	0,1	0,565475
3,440833	0,1	0,551264
3,442500	0,1	0,538571
3,444167	0,1	0,553059
3,445833	0,1	0,528222
3,447500	0,1	0,573567
3,449167	0,1	0,565507
3,450833	0,1	0,497341
3,452500	0,1	0,530339
3,454167	0,1	0,533675
3,455833	0,1	0,512058
3,457500	0,1	0,497775
3,459167	0,1	0,525434
3,460833	0,1	0,534699
3,462500	0,1	0,519211
3,464167	0,1	0,491700
3,465833	0,1	0,547183
3,467500	0,1	0,545419
3,469167	0,1	0,495309
3,470833	0,1	0,490368
3,472500	0,1	0,519910
3,474167	0,1	0,470981
3,475833	0,1	0,519867
3,477500	0,1	0,554828
3,479167	0,1	0,519400
3,480833	0,1	0,504586
3,482500	0,1	0,475935
3,484167	0,1	0,527469
3,485833	0,1	0,494858
3,487500	0,1	0,468333
3,489167	0,1	0,528953
3,490833	0,1	0,522102
3,492500	0,1	0,505612
3,494167	0,1	0,499193
3,495833	0,1	0,508499
3,497500	0,1	0,490240
3,499167	0,1	0,471328
3,500833	0,1	0,456032
3,502500	0,1	0,512711
3,504167	0,1	0,496524
3,505833	0,1	0,479901
3,507500	0,1	0,492100
3,509167	0,1	0,507591
3,510833	0,1	0,443867
3,512500	0,1	0,469963
3,514167	0,1	0,481565
3,515833	0,1	0,470841
3,517500	0,1	0,442138
3,519167	0,1	0,462811
3,520833	0,1	0,447999
3,522500	0,1	0,467966
3,524167	0,1	0,451839
3,525833	0,1	0,515772
3,527500	0,1	0,461252
3,529167	0,1	0,494530
3,530833	0,1	0,459853
3,532500	0,1	0,475662
3,534167	0,1	0,470287
3,535833	0,1	0,431514
3,537500	0,1	0,498557
3,539167	0,1	0,456961
3,540833	0,1	0,462078
3,542500	0,1	0,453022
3,544167	0,1	0,466194
3,545833	0,1	0,462528
3,547500	0,1	0,438719
3,549167	0,1	0,446930
3,550833	0,1	0,452002
3,552500	0,1	0,438017
3,554167	0,1	0,426644
3,555833	0,1	0,428573
3,557500	0,1	0,453985
3,559167	0,1	0,440165
3,560833	0,1	0,422257
3,562500	0,1	0,472917
3,564167	0,1	0,465460
3,565833	0,1	0,438824
3,567500	0,1	0,414432
3,569167	0,1	0,443871
3,570833	0,1	0,386867
3,572500	0,1	0,411881
3,574167	0,1	0,404859
3,575833	0,1	0,452654
3,577500	0,1	0,400686
3,579167	0,1	0,440666
3,580833	0,1	0,428930
3,582500	0,1	0,445584
3,584167	0,1	0,388025
3,585833	0,1	0,430262
3,587500	0,1	0,398104
3,589167	0,1	0,416868
3,590833	0,1	0,392818
3,592500	0,1	0,423599
3,594167	0,1	0,437208
3,595833	0,1	0,423767
3,597500	0,1	0,423158
3,599167	0,1	0,421897
3,600833	0,1	0,402228
3,602500	0,1	0,425831
3,604167	0,1	0,405384
3,605833	0,1	0,409945
3,607500	0,1	0,398330
3,609167	0,1	0,429911
3,610833	0,1	0,420069
3,612500	0,1	0,444928
3,614167	0,1	0,365519
3,615833	0,1	0,413901
3,617500	0,1	0,374687
3,619167	0,1	0,408910
3,620833	0,1	0,442469
3,622500	0,1	0,410315
3,624167	0,1	0,368636
3,625833	0,1	0,407498
3,627500	0,1	0,399256
3,629167	0,1	0,401448
3,630833	0,1	0,396100
3,632500	0,1	0,354624
3,634167	0,1	0,414245
3,635833	0,1	0,402123
3,637500	0,1	0,388203
3,639167	0,1	0,421086
3,640833	0,1	0,383736
3,642500	0,1	0,383156
3,644167	0,1	0,385499
3,645833	0,1	0,412712
3,647500	0,1	0,347252
3,649167	0,1	0,359049
3,650833	0,1	0,383142
3,652500	0,1	0,407333
3,654167	0,1	0,373332
3,655833	0,1	0,407722
3,657500	0,1	0,407565
3,659167	0,1	0,367254
3,660833	0,1	0,334711
3,662500	0,1	0,373185
3,664167	0,1	0,369460
3,665833	0,1	0,356673
3,667500	0,1	0,356156
3,669167	0,1	0,356091
3,670833	0,1	0,343990
3,672500	0,1	0,402845
3,674167	0,1	0,364800
3,675833	0,1	0,367881
3,677500	0,1	0,354704
3,679167	0,1	0,377149
3,680833	0,1	0,351362
3,682500	0,1	0,345944
3,684167	0,1	0,412442
3,685833	0,1	0,319206
3,687500	0,1	0,399423
3,689167	0,1	0,366369
3,690833	0,1	0,378598
3,692500	0,1	0,390615
3,694167	0,1	0,384243
3,695833	0,1	0,398419
3,697500	0,1	0,391011
3,699167	0,1	0,395127
3,700833	0,1	0,355456
3,702500	0,1	0,365018
3,704167	0,1	0,385104
3,705833	0,1	0,374645
3,707500	0,1	0,398118
3,709167	0,1	0,370240
3,710833	0,1	0,395801
3,712500	0,1	0,413546
3,714167	0,1	0,333764
3,715833	0,1	0,425618
3,717500	0,1	0,415877
3,719167	0,1	0,371823
3,720833	0,1	0,392834
3,722500	0,1	0,413385
3,724167	0,1	0,418647
3,725833	0,1	0,376816
3,727500	0,1	0,421336
3,729167	0,1	0,385508
3,730833	0,1	0,412973
3,732500	0,1	0,415649
3,734167	0,1	0,436262
3,735833	0,1	0,392213
3,737500	0,1	0,385343
3,739167	0,1	0,414419
3,740833	0,1	0,424984
3,742500	0,1	0,427920
3,744167	0,1	0,410948
3,745833	0,1	0,453300
3,747500	0,1	0,439819
3,749167	0,1	0,453660
3,750833	0,1	0,446420
3,752500	0,1	0,470226
3,754167	0,1	0,433933
3,755833	0,1	0,459326
3,757500	0,1	0,461042
3,759167	0,1	0,427647
3,760833	0,1	0,506577
3,762500	0,1	0,472238
3,764167	0,1	0,463397
3,765833	0,1	0,490742
3,767500	0,1	0,502568
3,769167	0,1	0,495327
3,770833	0,1	0,497230
3,772500	0,1	0,495523
3,774167	0,1	0,489342
3,775833	0,1	0,515743
3,777500	0,1	0,568688
3,779167	0,1	0,527398
3,780833	0,1	0,528638
3,782500	0,1	0,530058
3,784167	0,1	0,545759
3,785833	0,1	0,560963
3,787500	0,1	0,521019
3,789167	0,1	0,532173
3,790833	0,1	0,523879
3,792500	0,1	0,548164
3,794167	0,1	0,567236
3,795833	0,1	0,567990
3,797500	0,1	0,568596
3,799167	0,1	0,602457
3,800833	0,1	0,556559
3,802500	0,1	0,536377
3,804167	0,1	0,533164
3,805833	0,1	0,605671
3,807500	0,1	0,592380
3,809167	0,1	0,607529
3,810833	0,1	0,592421
3,812500	0,1	0,566998
3,814167	0,1	0,557590
3,815833	0,1	0,541164
3,817500	0,1	0,615960
3,819167	0,1	0,612532
3,820833	0,1	0,608624
3,822500	0,1	0,586912
3,824167	0,1	0,557778
3,825833	0,1	0,592435
3,827500	0,1	0,595665
3,829167	0,1	0,576242
3,830833	0,1	0,586481
3,832500	0,1	0,573440
3,834167	0,1	0,608060
3,835833	0,1	0,573050
3,837500	0,1	0,579039
3,839167	0,1	0,627106
3,840833	0,1	0,591583
3,842500	0,1	0,577044
3,844167	0,1	0,583104
3,845833	0,1	0,639484
3,847500	0,1	0,614850
3,849167	0,1	0,562005
3,850833	0,1	0,602654
3,852500	0,1	0,637463
3,854167	0,1	0,556277
3,855833	0,1	0,550683
3,857500	0,1	0,577850
3,859167	0,1	0,563168
3,860833	0,1	0,572278
3,862500	0,1	0,621989
3,864167	0,1	0,568450
3,865833	0,1	0,563861
3,867500	0,1	0,548212
3,869167	0,1	0,610476
3,870833	0,1	0,585399
3,872500	0,1	0,543866
3,874167	0,1	0,567721
3,875833	0,1	0,562191
3,877500	0,1	0,603894
3,879167	0,1	0,536624
3,880833	0,1	0,557410
3,882500	0,1	0,535549
3,884167	0,1	0,553924
3,885833	0,1	0,576655
3,887500	0,1	0,492030
3,889167	0,1	0,544408
3,890833	0,1	0,537676
3,892500	0,1	0,533992
3,894167	0,1	0,548284
3,895833	0,1	0,512061
3,897500	0,1	0,512462
3,899167	0,1	0,519837
3,900833	0,1	0,487244
3,902500	0,1	0,504381
3,904167	0,1	0,504582
3,905833	0,1	0,478774
3,907500	0,1	0,536805
3,909167	0,1	0,485578
3,910833	0,1	0,502475
3,912500	0,1	0,514142
3,914167	0,1	0,458002
3,915833	0,1	0,498050
3,917500	0,1	0,464178
3,919167	0,1	0,423111
3,920833	0,1	0,497726
3,922500	0,1	0,486306
3,924167	0,1	0,453289
3,925833	0,1	0,449034
3,927500	0,1	0,447969
3,929167	0,1	0,457108
3,930833	0,1	0,438587
3,932500	0,1	0,445194
3,934167	0,1	0,484398
3,935833	0,1	0,446297
3,937500	0,1	0,398629
3,939167	0,1	0,415784
3,940833	0,1	0,388895
3,942500	0,1	0,440186
3,944167	0,1	0,449020
3,945833	0,1	0,411896
3,947500	0,1	0,410178
3,949167	0,1	0,405698
3,950833	0,1	0,392106
3,952500	0,1	0,372236
3,954167	0,1	0,410067
3,955833	0,1	0,403801
3,957500	0,1	0,395138
3,959167	0,1	0,404817
3,960833	0,1	0,405697
3,962500	0,1	0,404248
3,964167	0,1	0,355075
3,965833	0,1	0,402818
3,967500	0,1	0,352368
3,969167	0,1	0,350424
3,970833	0,1	0,365302
3,972500	0,1	0,353458
3,974167	0,1	0,391058
3,975833	0,1	0,380060
3,977500	0,1	0,361438
3,979167	0,1	0,355288
3,980833	0,1	0,330364
3,982500	0,1	0,351032
3,984167	0,1	0,325211
3,985833	0,1	0,373473
3,987500	0,1	0,321837
3,989167	0,1	0,326297
3,990833	0,1	0,371244
3,992500	0,1	0,331557
3,994167	0,1	0,325946
3,995833	0,1	0,275619
3,997500	0,1	0,340550
3,999167	0,1	0,328683
4,000833	0,1	0,319765
4,002500	0,1	0,303822
4,004167	0,1	0,325973
4,005833	0,1	0,316508
4,007500	0,1	0,306267
4,009167	0,1	0,320853
4,010833	0,1	0,305689
4,012500	0,1	0,358200
4,014167	0,1	0,328243
4,015833	0,1	0,319311
4,017500	0,1	0,293389
4,019167	0,1	0,299308
4,020833	0,1	0,316632
4,022500	0,1	0,306976
4,024167	0,1	0,298055
4,025833	0,1	0,286915
4,027500	0,1	0,303331
4,029167	0,1	0,297637
4,030833	0,1	0,304172
4,032500	0,1	0,292323
4,034167	0,1	0,307326
4,035833	0,1	0,258937
4,037500	0,1	0,280401
4,039167	0,1	0,311795
4,040833	0,1	0,278094
4,042500	0,1	0,277474
4,044167	0,1	0,267107
4,045833	0,1	0,328701
4,047500	0,1	0,323819
4,049167	0,1	0,259714
4,050833	0,1	0,311891
4,052500	0,1	0,317055
4,054167	0,1	0,311585
4,055833	0,1	0,275356
4,057500	0,1	0,301365
4,059167	0,1	0,304656
4,060833	0,1	0,306523
4,062500	0,1	0,328581
4,064167	0,1	0,318861
4,065833	0,1	0,364554
4,067500	0,1	0,357025
4,069167	0,1	0,371230
4,070833	0,1	0,361347
4,072500	0,1	0,357192
4,074167	0,1	0,340250
4,075833	0,1	0,339117
4,077500	0,1	0,326207
4,079167	0,1	0,374638
4,080833	0,1	0,353649
4,082500	0,1	0,409092
4,084167	0,1	0,337302
4,085833	0,1	0,383816
4,087500	0,1	0,396674
4,089167	0,1	0,393587
4,090833	0,1	0,466693
4,092500	0,1	0,398887
4,094167	0,1	0,428436
4,095833	0,1	0,427024
4,097500	0,1	0,451437
4,099167	0,1	0,417629
4,100833	0,1	0,469603
4,102500	0,1	0,439178
4,104167	0,1	0,500175
4,105833	0,1	0,489619
4,107500	0,1	0,492681
4,109167	0,1	0,439998
4,110833	0,1	0,529656
4,112500	0,1	0,501354
4,114167	0,1	0,537545
4,115833	0,1	0,522277
4,117500	0,1	0,532003
4,119167	0,1	0,552452
4,120833	0,1	0,525304
4,122500	0,1	0,591270
4,124167	0,1	0,589683
4,125833	0,1	0,575821
4,127500	0,1	0,623305
4,129167	0,1	0,607024
4,130833	0,1	0,609175
4,132500	0,1	0,618422
4,134167	0,1	0,663584
4,135833	0,1	0,621723
4,137500	0,1	0,640848
4,139167	0,1	0,690056
4,140833	0,1	0,660000
4,142500	0,1	0,668390
4,144167	0,1	0,636835
4,145833	0,1	0,644339
4,147500	0,1	0,697969
4,149167	0,1	0,668535
4,150833	0,1	0,671192
4,152500	0,1	0,713133
4,154167	0,1	0,707920
4,155833	0,1	0,692316
4,157500	0,1	0,728454
4,159167	0,1	0,731395
4,160833	0,1	0,725283
4,162500	0,1	0,729129
4,164167	0,1	0,755537
4,165833	0,1	0,723268
4,167500	0,1	0,785853
4,169167	0,1	0,792876
4,170833	0,1	0,790207
4,172500	0,1	0,778716
4,174167	0,1	0,750191
4,175833	0,1	0,765699
4,177500	0,1	0,788222
4,179167	0,1	0,752194
4,180833	0,1	0,804071
4,182500	0,1	0,827469
4,184167	0,1	0,823251
4,185833	0,1	0,815048
4,187500	0,1	0,808822
4,189167	0,1	0,819069
4,190833	0,1	0,816023
4,192500	0,1	0,832938
4,194167	0,1	0,805044
4,195833	0,1	0,826093
4,197500	0,1	0,784169
4,199167	0,1	0,765310
4,200833	0,1	0,821724
4,202500	0,1	0,849376
4,204167	0,1	0,786533
4,205833	0,1	0,806147
4,207500	0,1	0,823514
4,209167	0,1	0,877478
4,210833	0,1	0,806191
4,212500	0,1	0,877492
4,214167	0,1	0,826707
4,215833	0,1	0,841264
4,217500	0,1	0,796888
4,219167	0,1	0,843768
4,220833	0,1	0,835282
4,222500	0,1	0,815185
4,224167	0,1	0,834832
4,225833	0,1	0,827744
4,227500	0,1	0,824318
4,229167	0,1	0,830522
4,230833	0,1	0,850157
4,232500	0,1	0,868967
4,234167	0,1	0,818305
4,235833	0,1	0,806620
4,237500	0,1	0,819203
4,239167	0,1	0,792194
4,240833	0,1	0,802389
4,242500	0,1	0,827181
4,244167	0,1	0,808423
4,245833	0,1	0,792635
4,247500	0,1	0,785984
4,249167	0,1	0,779781
4,250833	0,1	0,774778
4,252500	0,1	0,741009
4,254167	0,1	0,737800
4,255833	0,1	0,788862
4,257500	0,1	0,745347
4,259167	0,1	0,760964
4,260833	0,1	0,772505
4,262500	0,1	0,783445
4,264167	0,1	0,708249
4,265833	0,1	0,754864
4,267500	0,1	0,736047
4,269167	0,1	0,776077
4,270833	0,1	0,768130
4,272500	0,1	0,758058
4,274167	0,1	0,755099
4,275833	0,1	0,739915
4,277500	0,1	0,723442
4,279167	0,1	0,742730
4,280833	0,1	0,709283
4,282500	0,1	0,713454
4,284167	0,1	0,669891
4,285833	0,1	0,721313
4,287500	0,1	0,700811
4,289167	0,1	0,732167
4,290833	0,1	0,731352
4,292500	0,1	0,727574
4,294167	0,1	0,696434
4,295833	0,1	0,665019
4,297500	0,1	0,687794
4,299167	0,1	0,716094
4,300833	0,1	0,678293
4,302500	0,1	0,648371
4,304167	0,1	0,664056
4,305833	0,1	0,678817
4,307500	0,1	0,710536
4,309167	0,1	0,666690
4,310833	0,1	0,692485
4,312500	0,1	0,643841
4,314167	0,1	0,642142
4,315833	0,1	0,658807
4,317500	0,1	0,631990
4,319167	0,1	0,636092
4,320833	0,1	0,624022
4,322500	0,1	0,687564
4,324167	0,1	0,644617
4,325833	0,1	0,644142
4,327500	0,1	0,606252
4,329167	0,1	0,634978
4,330833	0,1	0,609645
4,332500	0,1	0,615910
4,334167	0,1	0,609689
4,335833	0,1	0,629890
4,337500	0,1	0,583074
4,339167	0,1	0,619440
4,340833	0,1	0,598173
4,342500	0,1	0,578598
4,344167	0,1	0,619191
4,345833	0,1	0,602866
4,347500	0,1	0,564894
4,349167	0,1	0,601260
4,350833	0,1	0,562571
4,352500	0,1	0,576459
4,354167	0,1	0,586365
4,355833	0,1	0,582039
4,357500	0,1	0,565971
4,359167	0,1	0,559035
4,360833	0,1	0,548370
4,362500	0,1	0,604032
4,364167	0,1	0,551180
4,365833	0,1	0,532496
4,367500	0,1	0,560723
4,369167	0,1	0,593764
4,370833	0,1	0,581175
4,372500	0,1	0,546020
4,374167	0,1	0,559189
4,375833	0,1	0,542308
4,377500	0,1	0,538254
4,379167	0,1	0,527037
4,380833	0,1	0,531569
4,382500	0,1	0,541300
4,384167	0,1	0,501685
4,385833	0,1	0,505845
4,387500	0,1	0,513762
4,389167	0,1	0,533696
4,390833	0,1	0,528127
4,392500	0,1	0,498395
4,394167	0,1	0,478995
4,395833	0,1	0,503249
4,397500	0,1	0,481547
4,399167	0,1	0,479609
4,400833	0,1	0,503341
4,402500	0,1	0,462498
4,404167	0,1	0,469705
4,405833	0,1	0,473743
4,407500	0,1	0,448816
4,409167	0,1	0,428383
4,410833	0,1	0,419425
4,412500	0,1	0,461676
4,414167	0,1	0,457662
4,415833	0,1	0,423585
4,417500	0,1	0,446479
4,419167	0,1	0,458975
4,420833	0,1	0,428739
4,422500	0,1	0,460390
4,424167	0,1	0,426545
4,425833	0,1	0,440999
4,427500	0,1	0,419203
4,429167	0,1	0,390568
4,430833	0,1	0,405794
4,432500	0,1	0,440125
4,434167	0,1	0,432955
4,435833	0,1	0,378817
4,437500	0,1	0,390079
4,439167	0,1	0,380478
4,440833	0,1	0,394480
4,442500	0,1	0,357388
4,444167	0,1	0,369428
4,445833	0,1	0,390257
4,447500	0,1	0,402546
4,449167	0,1	0,377065
4,450833	0,1	0,326666
4,452500	0,1	0,333128
4,454167	0,1	0,331901
4,455833	0,1	0,323209
4,457500	0,1	0,335285
4,459167	0,1	0,327235
4,460833	0,1	0,323564
4,462500	0,1	0,325978
4,464167	0,1	0,309331
4,465833	0,1	0,340976
4,467500	0,1	0,325468
4,469167	0,1	0,304308
4,470833	0,1	0,286978
4,472500	0,1	0,299112
4,474167	0,1	0,319787
4,475833	0,1	0,287849
4,477500	0,1	0,299047
4,479167	0,1	0,286077
4,480833	0,1	0,270296
4,482500	0,1	0,258896
4,484167	0,1	0,270645
4,485833	0,1	0,245083
4,487500	0,1	0,261237
4,489167	0,1	0,243763
4,490833	0,1	0,265135
4,492500	0,1	0,252649
4,494167	0,1	0,249328
4,495833	0,1	0,256957
4,497500	0,1	0,218939
4,499167	0,1	0,192340
4,500833	0,1	0,229354
4,502500	0,1	0,228044
4,504167	0,1	0,256405
4,505833	0,1	0,228081
4,507500	0,1	0,228688
4,509167	0,1	0,183458
4,510833	0,1	0,208847
4,512500	0,1	0,206728
4,514167	0,1	0,205955
4,515833	0,1	0,186383
4,517500	0,1	0,211873
4,519167	0,1	0,170225
4,520833	0,1	0,154279
4,522500	0,1	0,155341
4,524167	0,1	0,141787
4,525833	0,1	0,166570
4,527500	0,1	0,145108
4,529167	0,1	0,136183
4,530833	0,1	0,142686
4,532500	0,1	0,159745
4,534167	0,1	0,151188
4,535833	0,1	0,139407
4,537500	0,1	0,105735
4,539167	0,1	0,124174
4,540833	0,1	0,093086
4,542500	0,1	0,097224
4,544167	0,1	0,142484
4,545833	0,1	0,157528
4,547500	0,1	0,169440
4,549167	0,1	0,076650
4,550833	0,1	0,137586
4,552500	0,1	0,076551
4,554167	0,1	0,103820
4,555833	0,1	0,105407
4,557500	0,1	0,129004
4,559167	0,1	0,103802
4,560833	0,1	0,084458
4,562500	0,1	0,084806
4,564167	0,1	0,055708
4,565833	0,1	0,063595
4,567500	0,1	0,104046
4,569167	0,1	0,068076
4,570833	0,1	0,068040
4,572500	0,1	0,057792
4,574167	0,1	0,058504
4,575833	0,1	0,110614
4,577500	0,1	0,075130
4,579167	0,1	0,061471
4,580833	0,1	0,045539
4,582500	0,1	-0,004180
4,584167	0,1	0,061225
4,585833	0,1	0,029670
4,587500	0,1	0,034239
4,589167	0,1	0,041446
4,590833	0,1	0,001447
4,592500	0,1	0,029817
4,594167	0,1	0,050654
4,595833	0,1	0,041350
4,597500	0,1	0,009977
4,599167	0,1	0,012933
4,600833	0,1	0,034107
4,602500	0,1	0,031920
4,604167	0,1	0,029345
4,605833	0,1	0,018467
4,607500	0,1	0,002956
4,609167	0,1	0,024706
4,610833	0,1	0,006501
4,612500	0,1	-0,007635
4,614167	0,1	0,037482
4,615833	0,1	-0,007916
4,617500	0,1	0,014225
4,619167	0,1	-0,038394
4,620833	0,1	0,013020
4,622500	0,1	-0,018862
4,624167	0,1	-0,027209
4,625833	0,1	0,021968
4,627500	0,1	-0,001475
4,629167	0,1	0,018659
4,630833	0,1	-0,016061
4,632500	0,1	0,008330
4,634167	0,1	-0,041170
4,635833	0,1	-0,006930
4,637500	0,1	-0,032407
4,639167	0,1	-0,005222
4,640833	0,1	0,032334
4,642500	0,1	-0,016121
4,644167	0,1	-0,035663
4,645833	0,1	-0,035351
4,647500	0,1	0,011344
4,649167	0,1	-0,020339
4,650833	0,1	-0,050073
4,652500	0,1	-0,033125
4,654167	0,1	-0,049017
4,655833	0,1	-0,024506
4,657500	0,1	-0,057771
4,659167	0,1	-0,053073
4,660833	0,1	-0,038372
4,662500	0,1	-0,035869
4,664167	0,1	-0,040298
4,665833	0,1	-0,045158
4,667500	0,1	-0,087927
4,669167	0,1	-0,031946
4,670833	0,1	-0,049432
4,672500	0,1	-0,059253
4,674167	0,1	-0,026917
4,675833	0,1	-0,041709
4,677500	0,1	-0,033059
4,679167	0,1	-0,026939
4,680833	0,1	-0,059121
4,682500	0,1	-0,078495
4,684167	0,1	-0,075346
4,685833	0,1	-0,048901
4,687500	0,1	-0,070191
4,689167	0,1	-0,054110
4,690833	0,1	-0,079654
4,692500	0,1	-0,073542
4,694167	0,1	-0,075823
4,695833	0,1	-0,060772
4,697500	0,1	-0,070131
4,699167	0,1	-0,076832
4,700833	0,1	-0,112636
4,702500	0,1	-0,082949
4,704167	0,1	-0,085969
4,705833	0,1	-0,103757
4,707500	0,1	-0,040240
4,709167	0,1	-0,047152
4,710833	0,1	-0,072347
4,712500	0,1	-0,070260
4,714167	0,1	-0,109026
4,715833	0,1	-0,114928
4,717500	0,1	-0,055787
4,719167	0,1	-0,123554
4,720833	0,1	-0,082308
4,722500	0,1	-0,124180
4,724167	0,1	-0,111260
4,725833	0,1	-0,085672
4,727500	0,1	-0,095645
4,729167	0,1	-0,085253
4,730833	0,1	-0,100666
4,732500	0,1	-0,088697
4,734167	0,1	-0,094169
4,735833	0,1	-0,068308
4,737500	0,1	-0,063596
4,739167	0,1	-0,124591
4,740833	0,1	-0,093143
4,742500	0,1	-0,102661
4,744167	0,1	-0,107999
4,745833	0,1	-0,123151
4,747500	0,1	-0,138507
4,749167	0,1	-0,103858
4,750833	0,1	-0,114913
4,752500	0,1	-0,088020
4,754167	0,1	-0,126755
4,755833	0,1	-0,121632
4,757500	0,1	-0,083909
4,759167	0,1	-0,136593
4,760833	0,1	-0,094042
4,762500	0,1	-0,087057
4,764167	0,1	-0,093450
4,765833	0,1	-0,128724
4,767500	0,1	-0,120457
4,769167	0,1	-0,125891
4,770833	0,1	-0,147640
4,772500	0,1	-0,131398
4,774167	0,1	-0,147578
4,775833	0,1	-0,091888
4,777500	0,1	-0,100378
4,779167	0,1	-0,087347
4,780833	0,1	-0,131044
4,782500	0,1	-0,146881
4,784167	0,1	-0,107946
4,785833	0,1	-0,138717
4,787500	0,1	-0,074741
4,789167	0,1	-0,119409
4,790833	0,1	-0,081335
4,792500	0,1	-0,106544
4,794167	0,1	-0,134691
4,795833	0,1	-0,130109
4,797500	0,1	-0,122802
4,799167	0,1	-0,124959
4,800833	0,1	-0,099514
4,802500	0,1	-0,122152
4,804167	0,1	-0,081108
4,805833	0,1	-0,107098
4,807500	0,1	-0,139563
4,809167	0,1	-0,121063
4,810833	0,1	-0,117982
4,812500	0,1	-0,118436
4,814167	0,1	-0,141873
4,815833	0,1	-0,132229
4,817500	0,1	-0,124089
4,819167	0,1	-0,141749
4,820833	0,1	-0,177008
4,822500	0,1	-0,132818
4,824167	0,1	-0,152662
4,825833	0,1	-0,132912
4,827500	0,1	-0,144801
4,829167	0,1	-0,155693
4,830833	0,1	-0,159414
4,832500	0,1	-0,142652
4,834167	0,1	-0,139321
4,835833	0,1	-0,119588
4,837500	0,1	-0,127946
4,839167	0,1	-0,144903
4,840833	0,1	-0,161178
4,842500	0,1	-0,118409
4,844167	0,1	-0,137244
4,845833	0,1	-0,082070
4,847500	0,1	-0,115943
4,849167	0,1	-0,159923
4,850833	0,1	-0,125423
4,852500	0,1	-0,142392
4,854167	0,1	-0,153496
4,855833	0,1	-0,128889
4,857500	0,1	-0,139946
4,859167	0,1	-0,133781
4,860833	0,1	-0,118551
4,862500	0,1	-0,134797
4,864167	0,1	-0,130312
4,865833	0,1	-0,164554
4,867500	0,1	-0,176433
4,869167	0,1	-0,115548
4,870833	0,1	-0,135288
4,872500	0,1	-0,151564
4,874167	0,1	-0,142147
4,875833	0,1	-0,120069
4,877500	0,1	-0,109478
4,879167	0,1	-0,138340
4,880833	0,1	-0,136809
4,882500	0,1	-0,174017
4,884167	0,1	-0,187433
4,885833	0,1	-0,134725
4,887500	0,1	-0,199684
4,889167	0,1	-0,128735
4,890833	0,1	-0,188622
4,892500	0,1	-0,154175
4,894167	0,1	-0,152667
4,895833	0,1	-0,137315
4,897500	0,1	-0,144388
4,899167	0,1	-0,128973
4,900833	0,1	-0,168021
4,902500	0,1	-0,138417
4,904167	0,1	-0,139797
4,905833	0,1	-0,131145
4,907500	0,1	-0,166359
4,909167	0,1	-0,114865
4,910833	0,1	-0,156627
4,912500	0,1	-0,135135
4,914167	0,1	-0,143792
4,915833	0,1	-0,165100
4,917500	0,1	-0,198155
4,919167	0,1	-0,134084
4,920833	0,1	-0,158327
4,922500	0,1	-0,139332
4,924167	0,1	-0,186302
4,925833	0,1	-0,110340
4,927500	0,1	-0,201152
4,929167	0,1	-0,146559
4,930833	0,1	-0,174311
4,932500	0,1	-0,181001
4,934167	0,1	-0,182265
4,935833	0,1	-0,147615
4,937500	0,1	-0,173338
4,939167	0,1	-0,162032
4,940833	0,1	-0,171349
4,942500	0,1	-0,172575
4,944167	0,1	-0,203764
4,945833	0,1	-0,137202
4,947500	0,1	-0,157395
4,949167	0,1	-0,187468
4,950833	0,1	-0,136326
4,952500	0,1	-0,188812
4,954167	0,1	-0,170650
4,955833	0,1	-0,143587
4,957500	0,1	-0,159311
4,959167	0,1	-0,168296
4,960833	0,1	-0,178426
4,962500	0,1	-0,193075
4,964167	0,1	-0,149422
4,965833	0,1	-0,176760
4,967500	0,1	-0,167948
4,969167	0,1	-0,190022
4,970833	0,1	-0,153987
4,972500	0,1	-0,159744
4,974167	0,1	-0,174541
4,975833	0,1	-0,160479
4,977500	0,1	-0,166884
4,979167	0,1	-0,177303
4,980833	0,1	-0,147636
4,982500	0,1	-0,166802
4,984167	0,1	-0,182967
4,985833	0,1	-0,164300
4,987500	0,1	-0,149500
4,989167	0,1	-0,217265
4,990833	0,1	-0,186964
4,992500	0,1	-0,201501
4,994167	0,1	-0,188122
4,995833	0,1	-0,157100
4,997500	0,1	-0,143812
4,999167	0,1	-0,172130
5,000833	0,1	-0,174920
5,002500	0,1	-0,160188
5,004167	0,1	-0,112642
5,005833	0,1	-0,171918
5,007500	0,1	-0,137634
5,009167	0,1	-0,211263
5,010833	0,1	-0,171587
5,012500	0,1	-0,204401
5,014167	0,1	-0,144592
5,015833	0,1	-0,190163
5,017500	0,1	-0,192583
5,019167	0,1	-0,177083
5,020833	0,1	-0,194155
5,022500	0,1	-0,159464
5,024167	0,1	-0,169708
5,025833	0,1	-0,198862
5,027500	0,1	-0,161458
5,029167	0,1	-0,200772
5,030833	0,1	-0,191880
5,032500	0,1	-0,198891
5,034167	0,1	-0,179303
5,035833	0,1	-0,166371
5,037500	0,1	-0,187345
5,039167	0,1	-0,228954
5,040833	0,1	-0,197363
5,042500	0,1	-0,200468
5,044167	0,1	-0,185715
5,045833	0,1	-0,177645
5,047500	0,1	-0,182970
5,049167	0,1	-0,189091
5,050833	0,1	-0,191978
5,052500	0,1	-0,206878
5,054167	0,1	-0,193645
5,055833	0,1	-0,184966
5,057500	0,1	-0,196379
5,059167	0,1	-0,209160
5,060833	0,1	-0,189268
5,062500	0,1	-0,171464
5,064167	0,1	-0,161678
5,065833	0,1	-0,184127
5,067500	0,1	-0,190816
5,069167	0,1	-0,209221
5,070833	0,1	-0,199372
5,072500	0,1	-0,190507
5,074167	0,1	-0,213229
5,075833	0,1	-0,162418
5,077500	0,1	-0,228865
5,079167	0,1	-0,179499
5,080833	0,1	-0,186604
5,082500	0,1	-0,170875
5,084167	0,1	-0,179463
5,085833	0,1	-0,164378
5,087500	0,1	-0,171600
5,089167	0,1	-0,183966
5,090833	0,1	-0,179801
5,092500	0,1	-0,197247
5,094167	0,1	-0,197999
5,095833	0,1	-0,207213
5,097500	0,1	-0,202400
5,099167	0,1	-0,168535
5,100833	0,1	-0,173610
5,102500	0,1	-0,196272
5,104167	0,1	-0,174369
5,105833	0,1	-0,216936
5,107500	0,1	-0,212467
5,109167	0,1	-0,199271
5,110833	0,1	-0,204556
5,112500	0,1	-0,225016
5,114167	0,1	-0,173687
5,115833	0,1	-0,188553
5,117500	0,1	-0,194596
5,119167	0,1	-0,189219
5,120833	0,1	-0,185758
5,122500	0,1	-0,202481
5,124167	0,1	-0,197253
5,125833	0,1	-0,200923
5,127500	0,1	-0,218064
5,129167	0,1	-0,207009
5,130833	0,1	-0,193707
5,132500	0,1	-0,203558
5,134167	0,1	-0,211883
5,135833	0,1	-0,193395
5,137500	0,1	-0,225365
5,139167	0,1	-0,210909
5,140833	0,1	-0,215619
5,142500	0,1	-0,232281
5,144167	0,1	-0,202343
5,145833	0,1	-0,226716
5,147500	0,1	-0,181076
5,149167	0,1	-0,203846
5,150833	0,1	-0,171899
5,152500	0,1	-0,214237
5,154167	0,1	-0,182548
5,155833	0,1	-0,184737
5,157500	0,1	-0,196623
5,159167	0,1	-0,224847
5,160833	0,1	-0,193461
5,162500	0,1	-0,204555
5,164167	0,1	-0,169342
5,165833	0,1	-0,234074
5,167500	0,1	-0,209500
5,169167	0,1	-0,199702
5,170833	0,1	-0,192812
5,172500	0,1	-0,233976
5,174167	0,1	-0,214401
5,175833	0,1	-0,182109
5,177500	0,1	-0,201625
5,179167	0,1	-0,172746
5,180833	0,1	-0,259717
5,182500	0,1	-0,192889
5,184167	0,1	-0,206940
5,185833	0,1	-0,201012
5,187500	0,1	-0,231093
5,189167	0,1	-0,234857
5,190833	0,1	-0,212864
5,192500	0,1	-0,211424
5,194167	0,1	-0,214041
5,195833	0,1	-0,212818
5,197500	0,1	-0,201615
5,199167	0,1	-0,264600
5,200833	0,1	-0,193801
5,202500	0,1	-0,213310
5,204167	0,1	-0,241098
5,205833	0,1	-0,208095
5,207500	0,1	-0,180860
5,209167	0,1	-0,238537
5,210833	0,1	-0,190728
5,212500	0,1	-0,237066
5,214167	0,1	-0,200188
5,215833	0,1	-0,188538
5,217500	0,1	-0,220611
5,219167	0,1	-0,265290
5,220833	0,1	-0,236545
5,222500	0,1	-0,229546
5,224167	0,1	-0,205457
5,225833	0,1	-0,191944
5,227500	0,1	-0,247045
5,229167	0,1	-0,212849
5,230833	0,1	-0,212198
5,232500	0,1	-0,222882
5,234167	0,1	-0,232840
5,235833	0,1	-0,236102
5,237500	0,1	-0,211953
5,239167	0,1	-0,207526
5,240833	0,1	-0,207876
5,242500	0,1	-0,193269
5,244167	0,1	-0,212461
5,245833	0,1	-0,200141
5,247500	0,1	-0,251612
5,249167	0,1	-0,217477
5,250833	0,1	-0,254854
5,252500	0,1	-0,216273
5,254167	0,1	-0,220373
5,255833	0,1	-0,220225
5,257500	0,1	-0,254252
5,259167	0,1	-0,248845
5,260833	0,1	-0,216977
5,262500	0,1	-0,249916
5,264167	0,1	-0,254134
5,265833	0,1	-0,218077
5,267500	0,1	-0,200910
5,269167	0,1	-0,214768
5,270833	0,1	-0,236658
5,272500	0,1	-0,220771
5,274167	0,1	-0,222093
5,275833	0,1	-0,269169
5,277500	0,1	-0,217521
5,279167	0,1	-0,225995
5,280833	0,1	-0,228051
5,282500	0,1	-0,237554
5,284167	0,1	-0,244113
5,285833	0,1	-0,250730
5,287500	0,1	-0,239903
5,289167	0,1	-0,243510
5,290833	0,1	-0,233469
5,292500	0,1	-0,241683
5,294167	0,1	-0,204400
5,295833	0,1	-0,222836
5,297500	0,1	-0,273901
5,299167	0,1	-0,228394
5,300833	0,1	-0,242200
5,302500	0,1	-0,245108
5,304167	0,1	-0,267911
5,305833	0,1	-0,218432
5,307500	0,1	-0,238815
5,309167	0,1	-0,279112
5,310833	0,1	-0,193168
5,312500	0,1	-0,209534
5,314167	0,1	-0,238773
5,315833	0,1	-0,218074
5,317500	0,1	-0,211532
5,319167	0,1	-0,241180
5,320833	0,1	-0,248740
5,322500	0,1	-0,242744
5,324167	0,1	-0,257390
5,325833	0,1	-0,227083
5,327500	0,1	-0,234131
5,329167	0,1	-0,215976
5,330833	0,1	-0,203399
5,332500	0,1	-0,276364
5,334167	0,1	-0,254515
5,335833	0,1	-0,269012
5,337500	0,1	-0,221672
5,339167	0,1	-0,258423
5,340833	0,1	-0,272456
5,342500	0,1	-0,207191
5,344167	0,1	-0,227466
5,345833	0,1	-0,214586
5,347500	0,1	-0,245578
5,349167	0,1	-0,226749
5,350833	0,1	-0,239627
5,352500	0,1	-0,288842
5,354167	0,1	-0,256158
5,355833	0,1	-0,222830
5,357500	0,1	-0,244149
5,359167	0,1	-0,244466
5,360833	0,1	-0,267556
5,362500	0,1	-0,257708
5,364167	0,1	-0,212021
5,365833	0,1	-0,263670
5,367500	0,1	-0,254679
5,369167	0,1	-0,272061
5,370833	0,1	-0,253270
5,372500	0,1	-0,250423
5,374167	0,1	-0,237724
5,375833	0,1	-0,264215
5,377500	0,1	-0,252148
5,379167	0,1	-0,282682
5,380833	0,1	-0,284494
5,382500	0,1	-0,261010
5,384167	0,1	-0,274510
5,385833	0,1	-0,253726
5,387500	0,1	-0,262975
5,389167	0,1	-0,286192
5,390833	0,1	-0,224767
5,392500	0,1	-0,301077
5,394167	0,1	-0,248049
5,395833	0,1	-0,200337
5,397500	0,1	-0,258811
5,399167	0,1	-0,272912
5,400833	0,1	-0,257605
5,402500	0,1	-0,242769
5,404167	0,1	-0,260836
5,405833	0,1	-0,237106
5,407500	0,1	-0,251145
5,409167	0,1	-0,282309
5,410833	0,1	-0,263188
5,412500	0,1	-0,280631
5,414167	0,1	-0,276549
5,415833	0,1	-0,294680
5,417500	0,1	-0,257361
5,419167	0,1	-0,255569
5,420833	0,1	-0,280402
5,422500	0,1	-0,256051
5,424167	0,1	-0,283804
5,425833	0,1	-0,287856
5,427500	0,1	-0,281240
5,429167	0,1	-0,272212
5,430833	0,1	-0,276878
5,432500	0,1	-0,279929
5,434167	0,1	-0,257213
5,435833	0,1	-0,249489
5,437500	0,1	-0,264861
5,439167	0,1	-0,264408
5,440833	0,1	-0,282685
5,442500	0,1	-0,273416
5,444167	0,1	-0,254245
5,445833	0,1	-0,259924
5,447500	0,1	-0,255757
5,449167	0,1	-0,271004
5,450833	0,1	-0,289034
5,452500	0,1	-0,260057
5,454167	0,1	-0,299737
5,455833	0,1	-0,238090
5,457500	0,1	-0,248159
5,459167	0,1	-0,268181
5,460833	0,1	-0,281505
5,462500	0,1	-0,270200
5,464167	0,1	-0,278060
5,465833	0,1	-0,289017
5,467500	0,1	-0,264788
5,469167	0,1	-0,274573
5,470833	0,1	-0,277210
5,472500	0,1	-0,268063
5,474167	0,1	-0,247460
5,475833	0,1	-0,266064
5,477500	0,1	-0,270590
5,479167	0,1	-0,256340
5,480833	0,1	-0,295691
5,482500	0,1	-0,257216
5,484167	0,1	-0,284923
5,485833	0,1	-0,260783
5,487500	0,1	-0,300255
5,489167	0,1	-0,290868
5,490833	0,1	-0,271801
5,492500	0,1	-0,254349
5,494167	0,1	-0,271481
5,495833	0,1	-0,250966
5,497500	0,1	-0,240608
5,499167	0,1	-0,268635
5,500833	0,1	-0,261525
5,502500	0,1	-0,269968
5,504167	0,1	-0,247855
5,505833	0,1	-0,309921
5,507500	0,1	-0,275684
5,509167	0,1	-0,257939
5,510833	0,1	-0,265403
5,512500	0,1	-0,285133
5,514167	0,1	-0,310614
5,515833	0,1	-0,277219
5,517500	0,1	-0,293207
5,519167	0,1	-0,242466
5,520833	0,1	-0,293426
5,522500	0,1	-0,260599
5,524167	0,1	-0,283141
5,525833	0,1	-0,262628
5,527500	0,1	-0,262189
5,529167	0,1	-0,221397
5,530833	0,1	-0,286906
5,532500	0,1	-0,277962
5,534167	0,1	-0,271985
5,535833	0,1	-0,281525
5,537500	0,1	-0,280946
5,539167	0,1	-0,270532
5,540833	0,1	-0,268746
5,542500	0,1	-0,285985
5,544167	0,1	-0,295365
5,545833	0,1	-0,264396
5,547500	0,1	-0,287954
5,549167	0,1	-0,287608
5,550833	0,1	-0,299100
5,552500	0,1	-0,267383
5,554167	0,1	-0,219718
5,555833	0,1	-0,288319
5,557500	0,1	-0,265162
5,559167	0,1	-0,251837
5,560833	0,1	-0,305314
5,562500	0,1	-0,293919
5,564167	0,1	-0,256573
5,565833	0,1	-0,307307
5,567500	0,1	-0,290953
5,569167	0,1	-0,288023
5,570833	0,1	-0,263853
5,572500	0,1	-0,276400
5,574167	0,1	-0,290302
5,575833	0,1	-0,277982
5,577500	0,1	-0,295261
5,579167	0,1	-0,285638
5,580833	0,1	-0,281715
5,582500	0,1	-0,277917
5,584167	0,1	-0,245533
5,585833	0,1	-0,234342
5,587500	0,1	-0,279151
5,589167	0,1	-0,282045
5,590833	0,1	-0,242775
5,592500	0,1	-0,250004
5,594167	0,1	-0,242954
5,595833	0,1	-0,289092
5,597500	0,1	-0,281010
5,599167	0,1	-0,249869
5,600833	0,1	-0,248077
5,602500	0,1	-0,301374
5,604167	0,1	-0,263360
5,605833	0,1	-0,273162
5,607500	0,1	-0,279845
5,609167	0,1	-0,259122
5,610833	0,1	-0,279117
5,612500	0,1	-0,315778
5,614167	0,1	-0,271475
5,615833	0,1	-0,265987
5,617500	0,1	-0,272063
5,619167	0,1	-0,231195
5,620833	0,1	-0,247970
5,622500	0,1	-0,248076
5,624167	0,1	-0,259528
5,625833	0,1	-0,285961
5,627500	0,1	-0,267566
5,629167	0,1	-0,257417
5,630833	0,1	-0,256938
5,632500	0,1	-0,273036
5,634167	0,1	-0,217045
5,635833	0,1	-0,255435
5,637500	0,1	-0,307058
5,639167	0,1	-0,266742
5,640833	0,1	-0,253124
5,642500	0,1	-0,257560
5,644167	0,1	-0,294902
5,645833	0,1	-0,274354
5,647500	0,1	-0,264410
5,649167	0,1	-0,268142
5,650833	0,1	-0,255323
5,652500	0,1	-0,256377
5,654167	0,1	-0,223473
5,655833	0,1	-0,227926
5,657500	0,1	-0,250355
5,659167	0,1	-0,282495
5,660833	0,1	-0,197460
5,662500	0,1	-0,230472
5,664167	0,1	-0,201369
5,665833	0,1	-0,181776
5,667500	0,1	-0,227023
5,669167	0,1	-0,230354
5,670833	0,1	-0,268239
5,672500	0,1	-0,203787
5,674167	0,1	-0,200907
5,675833	0,1	-0,227962
5,677500	0,1	-0,220602
5,679167	0,1	-0,212593
5,680833	0,1	-0,219023
5,682500	0,1	-0,207259
5,684167	0,1	-0,192233
5,685833	0,1	-0,192167
5,687500	0,1	-0,221112
5,689167	0,1	-0,224210
5,690833	0,1	-0,214792
5,692500	0,1	-0,185263
5,694167	0,1	-0,244327
5,695833	0,1	-0,222184
5,697500	0,1	-0,164225
5,699167	0,1	-0,224675
5,700833	0,1	-0,192362
5,702500	0,1	-0,202396
5,704167	0,1	-0,213250
5,705833	0,1	-0,193333
5,707500	0,1	-0,191360
5,709167	0,1	-0,200153
5,710833	0,1	-0,179680
5,712500	0,1	-0,223413
5,714167	0,1	-0,202320
5,715833	0,1	-0,187520
5,717500	0,1	-0,188762
5,719167	0,1	-0,194200
5,720833	0,1	-0,228872
5,722500	0,1	-0,176574
5,724167	0,1	-0,191749
5,725833	0,1	-0,200177
5,727500	0,1	-0,181814
5,729167	0,1	-0,180005
5,730833	0,1	-0,183614
5,732500	0,1	-0,182039
5,734167	0,1	-0,184901
5,735833	0,1	-0,165917
5,737500	0,1	-0,174087
5,739167	0,1	-0,200629
5,740833	0,1	-0,187854
5,742500	0,1	-0,175897
5,744167	0,1	-0,183199
5,745833	0,1	-0,203180
5,747500	0,1	-0,182128
5,749167	0,1	-0,222831
5,750833	0,1	-0,182424
5,752500	0,1	-0,180109
5,754167	0,1	-0,201211
5,755833	0,1	-0,178702
5,757500	0,1	-0,157860
5,759167	0,1	-0,182801
5,760833	0,1	-0,148548
5,762500	0,1	-0,177441
5,764167	0,1	-0,134127
5,765833	0,1	-0,166030
5,767500	0,1	-0,138376
5,769167	0,1	-0,161176
5,770833	0,1	-0,144974
5,772500	0,1	-0,164473
5,774167	0,1	-0,160122
5,775833	0,1	-0,156780
5,777500	0,1	-0,141277
5,779167	0,1	-0,160801
5,780833	0,1	-0,137480
5,782500	0,1	-0,151464
5,784167	0,1	-0,130442
5,785833	0,1	-0,136918
5,787500	0,1	-0,151543
5,789167	0,1	-0,148392
5,790833	0,1	-0,145944
5,792500	0,1	-0,131335
5,794167	0,1	-0,189579
5,795833	0,1	-0,175420
5,797500	0,1	-0,178758
5,799167	0,1	-0,149544
5,800833	0,1	-0,158001
5,802500	0,1	-0,145868
5,804167	0,1	-0,132167
5,805833	0,1	-0,156836
5,807500	0,1	-0,150575
5,809167	0,1	-0,159743
5,810833	0,1	-0,167301
5,812500	0,1	-0,137922
5,814167	0,1	-0,156673
5,815833	0,1	-0,150888
5,817500	0,1	-0,137001
5,819167	0,1	-0,150859
5,820833	0,1	-0,199086
5,822500	0,1	-0,122238
5,824167	0,1	-0,151169
5,825833	0,1	-0,143230
5,827500	0,1	-0,150760
5,829167	0,1	-0,168937
5,830833	0,1	-0,168941
5,832500	0,1	-0,116959
5,834167	0,1	-0,169032
5,835833	0,1	-0,194689
5,837500	0,1	-0,115161
5,839167	0,1	-0,159633
5,840833	0,1	-0,187492
5,842500	0,1	-0,143443
5,844167	0,1	-0,129819
5,845833	0,1	-0,153141
5,847500	0,1	-0,148870
5,849167	0,1	-0,191656
5,850833	0,1	-0,155667
5,852500	0,1	-0,149727
5,854167	0,1	-0,134121
5,855833	0,1	-0,149760
5,857500	0,1	-0,173685
5,859167	0,1	-0,182906
5,860833	0,1	-0,175958
5,862500	0,1	-0,187246
5,864167	0,1	-0,157595
5,865833	0,1	-0,181946
5,867500	0,1	-0,181810
5,869167	0,1	-0,163531
5,870833	0,1	-0,166721
5,872500	0,1	-0,167883
5,874167	0,1	-0,153009
5,875833	0,1	-0,231685
5,877500	0,1	-0,167089
5,879167	0,1	-0,185047
5,880833	0,1	-0,188347
5,882500	0,1	-0,170320
5,884167	0,1	-0,185190
5,885833	0,1	-0,186957
5,887500	0,1	-0,178494
5,889167	0,1	-0,180710
5,890833	0,1	-0,194073
5,892500	0,1	-0,164736
5,894167	0,1	-0,217389
5,895833	0,1	-0,175803
5,897500	0,1	-0,144498
5,899167	0,1	-0,231184
5,900833	0,1	-0,236764
5,902500	0,1	-0,217617
5,904167	0,1	-0,165698
5,905833	0,1	-0,176973
5,907500	0,1	-0,211752
5,909167	0,1	-0,195968
5,910833	0,1	-0,219225
5,912500	0,1	-0,173519
5,914167	0,1	-0,190938
5,915833	0,1	-0,189054
5,917500	0,1	-0,228704
5,919167	0,1	-0,189689
5,920833	0,1	-0,177747
5,922500	0,1	-0,194343
5,924167	0,1	-0,204014
5,925833	0,1	-0,207381
5,927500	0,1	-0,233316
5,929167	0,1	-0,203567
5,930833	0,1	-0,209224
5,932500	0,1	-0,228670
5,934167	0,1	-0,225914
5,935833	0,1	-0,228818
5,937500	0,1	-0,218777
5,939167	0,1	-0,217095
5,940833	0,1	-0,210475
5,942500	0,1	-0,202424
5,944167	0,1	-0,218002
5,945833	0,1	-0,170389
5,947500	0,1	-0,251627
5,949167	0,1	-0,218845
5,950833	0,1	-0,223464
5,952500	0,1	-0,227158
5,954167	0,1	-0,190889
5,955833	0,1	-0,209989
5,957500	0,1	-0,214332
5,959167	0,1	-0,211823
5,960833	0,1	-0,236782
5,962500	0,1	-0,188610
5,964167	0,1	-0,206859
5,965833	0,1	-0,193707
5,967500	0,1	-0,246612
5,969167	0,1	-0,224715
5,970833	0,1	-0,235476
5,972500	0,1	-0,256788
5,974167	0,1	-0,249594
5,975833	0,1	-0,255545
5,977500	0,1	-0,222163
5,979167	0,1	-0,210122
5,980833	0,1	-0,216843
5,982500	0,1	-0,242510
5,984167	0,1	-0,220004
5,985833	0,1	-0,261867
5,987500	0,1	-0,228659
5,989167	0,1	-0,263405
5,990833	0,1	-0,253579
5,992500	0,1	-0,226813
5,994167	0,1	-0,226971
5,995833	0,1	-0,248757
5,997500	0,1	-0,207037
5,999167	0,1	-0,286822
6,000833	0,1	-0,216364
