File Path	chrom://chromeleon01/ikbm_chromeleon/2022/Rezex/Esteban/220612_chitin_4_7.seq/956.smp/UV_VIS_1.channel/UV_VIS_1.chm
Channel	UV_VIS_1

Injection Information:
Data Vault	ikbm_chromeleon
Injection	A2ox 25
Injection Number	127
Position	RA2
Comment	
Processing Method	New ProcMethod
Instrument Method	Short_Rezex_6min_194nm
Type	Calibration Standard
Status	Finished
Injection Date	13.06.2022
Injection Time	06:49:25
Injection Volume (µl)	8,000
Dilution Factor	1,0000
Weight	1,0000

Chromatogram Data Information:
Time Min. (min)	0,000833
Time Max. (min)	6,000833
Data Points	3601
Detector	UV
Generating Data System	Chromeleon 7.2.9.11323
Exporting Data System	Chromeleon 7.2.9.0
Operator	Instrument Controller
Signal Quantity	Absorbance
Signal Unit	mAU
Signal Min.	-0,088336
Signal Max.	15,044755
Channel	UV_VIS_1
Driver Name	VWD3000.dll
Channel Type	Evaluation
Min. Step (s)	0,1
Max. Step (s)	0,1
Average Step (s)	0,1

Signal Parameter Information:
Signal Info	WVL:194 nm

Chromatogram Data:
Time (min)	Step (s)	Value (mAU)
0,000833	n.a.	-0,019866
0,002500	0,1	-0,028301
0,004167	0,1	-0,046426
0,005833	0,1	-0,061699
0,007500	0,1	-0,031577
0,009167	0,1	-0,041128
0,010833	0,1	-0,056688
0,012500	0,1	-0,009844
0,014167	0,1	-0,061369
0,015833	0,1	-0,056685
0,017500	0,1	0,004455
0,019167	0,1	-0,054825
0,020833	0,1	-0,044981
0,022500	0,1	-0,019158
0,024167	0,1	-0,004695
0,025833	0,1	-0,046011
0,027500	0,1	-0,032976
0,029167	0,1	-0,070091
0,030833	0,1	-0,018815
0,032500	0,1	-0,055160
0,034167	0,1	-0,050872
0,035833	0,1	-0,030922
0,037500	0,1	-0,046086
0,039167	0,1	-0,075704
0,040833	0,1	-0,073128
0,042500	0,1	-0,047078
0,044167	0,1	-0,020031
0,045833	0,1	-0,030273
0,047500	0,1	-0,073067
0,049167	0,1	-0,024816
0,050833	0,1	-0,043050
0,052500	0,1	-0,025100
0,054167	0,1	-0,014315
0,055833	0,1	-0,018170
0,057500	0,1	-0,017800
0,059167	0,1	-0,056273
0,060833	0,1	0,022861
0,062500	0,1	-0,049680
0,064167	0,1	-0,052022
0,065833	0,1	0,009043
0,067500	0,1	-0,013955
0,069167	0,1	-0,030864
0,070833	0,1	-0,034644
0,072500	0,1	-0,065494
0,074167	0,1	-0,037178
0,075833	0,1	-0,020719
0,077500	0,1	-0,023921
0,079167	0,1	-0,029272
0,080833	0,1	-0,046257
0,082500	0,1	-0,043336
0,084167	0,1	-0,007736
0,085833	0,1	-0,042293
0,087500	0,1	-0,048184
0,089167	0,1	-0,063274
0,090833	0,1	-0,046907
0,092500	0,1	-0,021543
0,094167	0,1	-0,063969
0,095833	0,1	-0,087702
0,097500	0,1	-0,069302
0,099167	0,1	-0,062065
0,100833	0,1	-0,066363
0,102500	0,1	-0,037049
0,104167	0,1	-0,041530
0,105833	0,1	-0,035200
0,107500	0,1	-0,065825
0,109167	0,1	-0,052487
0,110833	0,1	-0,058214
0,112500	0,1	0,009343
0,114167	0,1	-0,045375
0,115833	0,1	-0,079191
0,117500	0,1	-0,044695
0,119167	0,1	-0,066127
0,120833	0,1	-0,051284
0,122500	0,1	-0,013921
0,124167	0,1	-0,050922
0,125833	0,1	-0,068104
0,127500	0,1	-0,053789
0,129167	0,1	-0,034080
0,130833	0,1	-0,025508
0,132500	0,1	-0,029172
0,134167	0,1	-0,052849
0,135833	0,1	-0,048175
0,137500	0,1	-0,026333
0,139167	0,1	-0,056736
0,140833	0,1	-0,060439
0,142500	0,1	-0,071560
0,144167	0,1	-0,029605
0,145833	0,1	-0,025859
0,147500	0,1	-0,055583
0,149167	0,1	-0,038569
0,150833	0,1	-0,022474
0,152500	0,1	-0,047257
0,154167	0,1	-0,001785
0,155833	0,1	-0,008186
0,157500	0,1	-0,027305
0,159167	0,1	-0,026900
0,160833	0,1	-0,067484
0,162500	0,1	-0,043871
0,164167	0,1	-0,016644
0,165833	0,1	-0,045853
0,167500	0,1	-0,051671
0,169167	0,1	-0,078832
0,170833	0,1	-0,031049
0,172500	0,1	-0,062388
0,174167	0,1	-0,037929
0,175833	0,1	-0,043803
0,177500	0,1	-0,010460
0,179167	0,1	-0,026724
0,180833	0,1	-0,058199
0,182500	0,1	-0,044040
0,184167	0,1	-0,021735
0,185833	0,1	-0,064850
0,187500	0,1	-0,023362
0,189167	0,1	-0,020435
0,190833	0,1	-0,001610
0,192500	0,1	-0,088336
0,194167	0,1	-0,041190
0,195833	0,1	-0,017815
0,197500	0,1	-0,027066
0,199167	0,1	-0,019144
0,200833	0,1	-0,031676
0,202500	0,1	-0,019736
0,204167	0,1	-0,039783
0,205833	0,1	0,007316
0,207500	0,1	-0,022923
0,209167	0,1	-0,032489
0,210833	0,1	-0,035177
0,212500	0,1	-0,041719
0,214167	0,1	-0,008828
0,215833	0,1	-0,039479
0,217500	0,1	-0,064494
0,219167	0,1	-0,009595
0,220833	0,1	-0,045732
0,222500	0,1	-0,024348
0,224167	0,1	-0,038791
0,225833	0,1	-0,067288
0,227500	0,1	-0,015256
0,229167	0,1	-0,038427
0,230833	0,1	-0,035308
0,232500	0,1	-0,063620
0,234167	0,1	-0,059720
0,235833	0,1	-0,048818
0,237500	0,1	0,024737
0,239167	0,1	-0,057485
0,240833	0,1	-0,021497
0,242500	0,1	-0,007261
0,244167	0,1	-0,043034
0,245833	0,1	-0,023977
0,247500	0,1	-0,022470
0,249167	0,1	-0,040425
0,250833	0,1	-0,052432
0,252500	0,1	-0,038628
0,254167	0,1	-0,005389
0,255833	0,1	-0,045129
0,257500	0,1	-0,000212
0,259167	0,1	-0,014078
0,260833	0,1	-0,032376
0,262500	0,1	-0,007613
0,264167	0,1	-0,015422
0,265833	0,1	-0,021306
0,267500	0,1	0,010768
0,269167	0,1	-0,033423
0,270833	0,1	-0,011752
0,272500	0,1	-0,024461
0,274167	0,1	0,014374
0,275833	0,1	0,021316
0,277500	0,1	-0,022047
0,279167	0,1	0,013139
0,280833	0,1	-0,008884
0,282500	0,1	-0,009943
0,284167	0,1	0,012742
0,285833	0,1	-0,008513
0,287500	0,1	-0,014410
0,289167	0,1	-0,014313
0,290833	0,1	-0,003700
0,292500	0,1	0,001201
0,294167	0,1	0,020091
0,295833	0,1	-0,050502
0,297500	0,1	0,016170
0,299167	0,1	-0,010265
0,300833	0,1	-0,002188
0,302500	0,1	-0,013897
0,304167	0,1	0,001090
0,305833	0,1	-0,010411
0,307500	0,1	-0,022407
0,309167	0,1	-0,012572
0,310833	0,1	-0,037156
0,312500	0,1	-0,009417
0,314167	0,1	-0,007185
0,315833	0,1	-0,007826
0,317500	0,1	-0,027985
0,319167	0,1	0,007017
0,320833	0,1	-0,038434
0,322500	0,1	-0,021032
0,324167	0,1	0,021960
0,325833	0,1	-0,025365
0,327500	0,1	0,010573
0,329167	0,1	0,026664
0,330833	0,1	0,002903
0,332500	0,1	-0,002233
0,334167	0,1	0,006683
0,335833	0,1	-0,001422
0,337500	0,1	0,001624
0,339167	0,1	0,022365
0,340833	0,1	-0,016228
0,342500	0,1	0,019023
0,344167	0,1	-0,021686
0,345833	0,1	-0,045322
0,347500	0,1	0,044910
0,349167	0,1	-0,018826
0,350833	0,1	0,008422
0,352500	0,1	-0,011501
0,354167	0,1	-0,031854
0,355833	0,1	0,007197
0,357500	0,1	0,010000
0,359167	0,1	-0,002412
0,360833	0,1	-0,013268
0,362500	0,1	0,022180
0,364167	0,1	0,052986
0,365833	0,1	-0,002716
0,367500	0,1	0,014560
0,369167	0,1	0,037591
0,370833	0,1	-0,002456
0,372500	0,1	0,037769
0,374167	0,1	-0,006484
0,375833	0,1	0,034790
0,377500	0,1	0,038866
0,379167	0,1	-0,016272
0,380833	0,1	0,010588
0,382500	0,1	-0,006431
0,384167	0,1	0,064099
0,385833	0,1	-0,002811
0,387500	0,1	-0,000310
0,389167	0,1	0,007386
0,390833	0,1	0,019210
0,392500	0,1	-0,015406
0,394167	0,1	0,002712
0,395833	0,1	0,023104
0,397500	0,1	0,009121
0,399167	0,1	0,021823
0,400833	0,1	0,006470
0,402500	0,1	0,034249
0,404167	0,1	0,049127
0,405833	0,1	0,026284
0,407500	0,1	0,031470
0,409167	0,1	0,056897
0,410833	0,1	0,044582
0,412500	0,1	-0,020169
0,414167	0,1	0,027939
0,415833	0,1	0,011640
0,417500	0,1	0,020094
0,419167	0,1	0,033684
0,420833	0,1	0,009838
0,422500	0,1	0,015386
0,424167	0,1	0,039442
0,425833	0,1	0,039326
0,427500	0,1	0,024116
0,429167	0,1	0,018633
0,430833	0,1	0,065630
0,432500	0,1	0,010377
0,434167	0,1	0,036996
0,435833	0,1	0,015030
0,437500	0,1	0,024281
0,439167	0,1	0,034592
0,440833	0,1	0,030770
0,442500	0,1	0,049126
0,444167	0,1	0,035602
0,445833	0,1	0,021611
0,447500	0,1	0,029437
0,449167	0,1	0,013685
0,450833	0,1	-0,005217
0,452500	0,1	0,001952
0,454167	0,1	0,017634
0,455833	0,1	-0,000125
0,457500	0,1	0,026564
0,459167	0,1	0,007621
0,460833	0,1	0,062225
0,462500	0,1	0,027110
0,464167	0,1	0,043873
0,465833	0,1	0,026683
0,467500	0,1	-0,005846
0,469167	0,1	0,016108
0,470833	0,1	0,008031
0,472500	0,1	0,028719
0,474167	0,1	0,058916
0,475833	0,1	0,038703
0,477500	0,1	0,024818
0,479167	0,1	0,021719
0,480833	0,1	0,021258
0,482500	0,1	0,008502
0,484167	0,1	0,055305
0,485833	0,1	0,019692
0,487500	0,1	0,016647
0,489167	0,1	0,026857
0,490833	0,1	0,019976
0,492500	0,1	0,041138
0,494167	0,1	0,007916
0,495833	0,1	0,023118
0,497500	0,1	0,029642
0,499167	0,1	0,036433
0,500833	0,1	0,020680
0,502500	0,1	0,051785
0,504167	0,1	-0,003443
0,505833	0,1	0,034840
0,507500	0,1	0,014026
0,509167	0,1	0,016996
0,510833	0,1	0,028553
0,512500	0,1	0,012583
0,514167	0,1	0,039890
0,515833	0,1	0,042026
0,517500	0,1	0,064813
0,519167	0,1	0,023434
0,520833	0,1	0,008070
0,522500	0,1	0,027279
0,524167	0,1	0,007561
0,525833	0,1	-0,013775
0,527500	0,1	0,053497
0,529167	0,1	0,039985
0,530833	0,1	-0,019938
0,532500	0,1	0,024525
0,534167	0,1	0,043705
0,535833	0,1	-0,013416
0,537500	0,1	0,022834
0,539167	0,1	0,041841
0,540833	0,1	0,057758
0,542500	0,1	-0,023032
0,544167	0,1	0,046390
0,545833	0,1	0,004238
0,547500	0,1	0,040601
0,549167	0,1	0,027555
0,550833	0,1	-0,022446
0,552500	0,1	0,033842
0,554167	0,1	0,019928
0,555833	0,1	0,045264
0,557500	0,1	-0,016502
0,559167	0,1	0,054730
0,560833	0,1	0,045055
0,562500	0,1	0,035722
0,564167	0,1	0,018585
0,565833	0,1	0,066029
0,567500	0,1	0,001580
0,569167	0,1	-0,015360
0,570833	0,1	0,005458
0,572500	0,1	0,026505
0,574167	0,1	0,055648
0,575833	0,1	0,019523
0,577500	0,1	0,033392
0,579167	0,1	0,041915
0,580833	0,1	0,009548
0,582500	0,1	0,021144
0,584167	0,1	0,025166
0,585833	0,1	0,035307
0,587500	0,1	0,000740
0,589167	0,1	-0,021703
0,590833	0,1	0,021247
0,592500	0,1	0,017639
0,594167	0,1	0,026689
0,595833	0,1	0,018754
0,597500	0,1	0,003190
0,599167	0,1	0,037236
0,600833	0,1	0,022302
0,602500	0,1	0,035377
0,604167	0,1	0,017823
0,605833	0,1	-0,004455
0,607500	0,1	-0,017324
0,609167	0,1	0,034424
0,610833	0,1	0,027903
0,612500	0,1	-0,016506
0,614167	0,1	0,034813
0,615833	0,1	0,019397
0,617500	0,1	0,024874
0,619167	0,1	-0,001126
0,620833	0,1	0,055653
0,622500	0,1	0,041667
0,624167	0,1	0,014920
0,625833	0,1	0,008901
0,627500	0,1	0,043869
0,629167	0,1	0,004539
0,630833	0,1	0,000393
0,632500	0,1	0,023707
0,634167	0,1	0,013392
0,635833	0,1	-0,002291
0,637500	0,1	0,025100
0,639167	0,1	0,040861
0,640833	0,1	0,012164
0,642500	0,1	0,033501
0,644167	0,1	-0,008349
0,645833	0,1	0,006260
0,647500	0,1	0,029239
0,649167	0,1	0,038102
0,650833	0,1	0,039665
0,652500	0,1	0,024697
0,654167	0,1	0,018402
0,655833	0,1	0,046789
0,657500	0,1	0,029020
0,659167	0,1	0,009754
0,660833	0,1	0,046071
0,662500	0,1	0,002435
0,664167	0,1	0,032505
0,665833	0,1	0,038176
0,667500	0,1	-0,000542
0,669167	0,1	0,023116
0,670833	0,1	0,026086
0,672500	0,1	0,038393
0,674167	0,1	0,031231
0,675833	0,1	0,023292
0,677500	0,1	0,057632
0,679167	0,1	0,051698
0,680833	0,1	0,038762
0,682500	0,1	0,028159
0,684167	0,1	0,031047
0,685833	0,1	0,061361
0,687500	0,1	0,005997
0,689167	0,1	0,057119
0,690833	0,1	0,053500
0,692500	0,1	0,056126
0,694167	0,1	0,021337
0,695833	0,1	0,031529
0,697500	0,1	0,068488
0,699167	0,1	0,042661
0,700833	0,1	0,087030
0,702500	0,1	0,067496
0,704167	0,1	0,016320
0,705833	0,1	0,036128
0,707500	0,1	0,011071
0,709167	0,1	0,033729
0,710833	0,1	0,100944
0,712500	0,1	0,057373
0,714167	0,1	0,019594
0,715833	0,1	0,072853
0,717500	0,1	0,133651
0,719167	0,1	0,080748
0,720833	0,1	0,097180
0,722500	0,1	0,079684
0,724167	0,1	0,093684
0,725833	0,1	0,070198
0,727500	0,1	0,124118
0,729167	0,1	0,067458
0,730833	0,1	0,063547
0,732500	0,1	0,127965
0,734167	0,1	0,122742
0,735833	0,1	0,107927
0,737500	0,1	0,105175
0,739167	0,1	0,090604
0,740833	0,1	0,094909
0,742500	0,1	0,107644
0,744167	0,1	0,137004
0,745833	0,1	0,102629
0,747500	0,1	0,117881
0,749167	0,1	0,103497
0,750833	0,1	0,083549
0,752500	0,1	0,105276
0,754167	0,1	0,109954
0,755833	0,1	0,073167
0,757500	0,1	0,085937
0,759167	0,1	0,061738
0,760833	0,1	0,108952
0,762500	0,1	0,075778
0,764167	0,1	0,078977
0,765833	0,1	0,107795
0,767500	0,1	0,090313
0,769167	0,1	0,095717
0,770833	0,1	0,089973
0,772500	0,1	0,075702
0,774167	0,1	0,100617
0,775833	0,1	0,095322
0,777500	0,1	0,076841
0,779167	0,1	0,056131
0,780833	0,1	0,052933
0,782500	0,1	0,054383
0,784167	0,1	0,063472
0,785833	0,1	0,024364
0,787500	0,1	0,064335
0,789167	0,1	0,097116
0,790833	0,1	0,064705
0,792500	0,1	0,050430
0,794167	0,1	0,018602
0,795833	0,1	0,072564
0,797500	0,1	0,021814
0,799167	0,1	0,076413
0,800833	0,1	0,019868
0,802500	0,1	0,037882
0,804167	0,1	0,052687
0,805833	0,1	0,047342
0,807500	0,1	0,024108
0,809167	0,1	0,048725
0,810833	0,1	0,014039
0,812500	0,1	0,029882
0,814167	0,1	0,044262
0,815833	0,1	0,043236
0,817500	0,1	0,008968
0,819167	0,1	0,001858
0,820833	0,1	0,026383
0,822500	0,1	0,055552
0,824167	0,1	0,032870
0,825833	0,1	-0,013829
0,827500	0,1	0,010227
0,829167	0,1	0,010884
0,830833	0,1	0,019791
0,832500	0,1	0,017239
0,834167	0,1	0,007739
0,835833	0,1	0,040722
0,837500	0,1	0,022713
0,839167	0,1	-0,029152
0,840833	0,1	-0,012380
0,842500	0,1	-0,004402
0,844167	0,1	0,032396
0,845833	0,1	-0,014241
0,847500	0,1	-0,017967
0,849167	0,1	0,000388
0,850833	0,1	-0,004109
0,852500	0,1	0,023236
0,854167	0,1	0,007089
0,855833	0,1	-0,005609
0,857500	0,1	0,033315
0,859167	0,1	0,031098
0,860833	0,1	0,023124
0,862500	0,1	0,027319
0,864167	0,1	0,013974
0,865833	0,1	-0,017741
0,867500	0,1	0,007029
0,869167	0,1	-0,028304
0,870833	0,1	0,010804
0,872500	0,1	0,003988
0,874167	0,1	0,059719
0,875833	0,1	0,021811
0,877500	0,1	-0,028270
0,879167	0,1	0,000604
0,880833	0,1	0,049058
0,882500	0,1	0,019448
0,884167	0,1	0,068061
0,885833	0,1	0,009484
0,887500	0,1	-0,009587
0,889167	0,1	0,013336
0,890833	0,1	0,044814
0,892500	0,1	-0,015048
0,894167	0,1	0,026259
0,895833	0,1	0,025517
0,897500	0,1	0,029075
0,899167	0,1	-0,000956
0,900833	0,1	-0,000672
0,902500	0,1	0,006392
0,904167	0,1	0,024800
0,905833	0,1	-0,019602
0,907500	0,1	0,048291
0,909167	0,1	0,001988
0,910833	0,1	0,049301
0,912500	0,1	0,005521
0,914167	0,1	0,029990
0,915833	0,1	0,040257
0,917500	0,1	0,032624
0,919167	0,1	0,018984
0,920833	0,1	0,000165
0,922500	0,1	-0,001484
0,924167	0,1	0,003538
0,925833	0,1	0,010060
0,927500	0,1	0,040142
0,929167	0,1	0,019349
0,930833	0,1	0,062762
0,932500	0,1	0,011007
0,934167	0,1	0,046206
0,935833	0,1	0,037368
0,937500	0,1	0,052287
0,939167	0,1	0,022729
0,940833	0,1	0,080019
0,942500	0,1	0,062061
0,944167	0,1	0,030609
0,945833	0,1	0,037981
0,947500	0,1	0,034669
0,949167	0,1	0,063346
0,950833	0,1	0,034433
0,952500	0,1	0,031764
0,954167	0,1	0,032162
0,955833	0,1	0,038284
0,957500	0,1	0,066722
0,959167	0,1	0,053153
0,960833	0,1	0,054433
0,962500	0,1	0,070418
0,964167	0,1	0,087955
0,965833	0,1	0,013541
0,967500	0,1	0,027317
0,969167	0,1	0,072046
0,970833	0,1	0,104112
0,972500	0,1	0,083136
0,974167	0,1	0,053096
0,975833	0,1	0,078816
0,977500	0,1	0,068730
0,979167	0,1	0,105348
0,980833	0,1	0,064935
0,982500	0,1	0,077767
0,984167	0,1	0,064772
0,985833	0,1	0,070469
0,987500	0,1	0,088550
0,989167	0,1	0,115738
0,990833	0,1	0,079062
0,992500	0,1	0,092037
0,994167	0,1	0,100864
0,995833	0,1	0,093784
0,997500	0,1	0,157191
0,999167	0,1	0,135502
1,000833	0,1	0,123385
1,002500	0,1	0,117427
1,004167	0,1	0,163656
1,005833	0,1	0,152229
1,007500	0,1	0,116258
1,009167	0,1	0,169782
1,010833	0,1	0,141827
1,012500	0,1	0,153995
1,014167	0,1	0,143795
1,015833	0,1	0,174996
1,017500	0,1	0,139339
1,019167	0,1	0,200703
1,020833	0,1	0,191232
1,022500	0,1	0,161430
1,024167	0,1	0,221405
1,025833	0,1	0,235596
1,027500	0,1	0,213345
1,029167	0,1	0,242897
1,030833	0,1	0,207053
1,032500	0,1	0,253619
1,034167	0,1	0,208584
1,035833	0,1	0,195083
1,037500	0,1	0,244422
1,039167	0,1	0,210994
1,040833	0,1	0,248567
1,042500	0,1	0,233466
1,044167	0,1	0,211023
1,045833	0,1	0,236542
1,047500	0,1	0,266812
1,049167	0,1	0,219293
1,050833	0,1	0,245650
1,052500	0,1	0,228439
1,054167	0,1	0,276908
1,055833	0,1	0,249409
1,057500	0,1	0,231771
1,059167	0,1	0,286641
1,060833	0,1	0,302652
1,062500	0,1	0,338841
1,064167	0,1	0,334937
1,065833	0,1	0,393010
1,067500	0,1	0,441186
1,069167	0,1	0,496923
1,070833	0,1	0,498408
1,072500	0,1	0,609704
1,074167	0,1	0,694961
1,075833	0,1	0,821921
1,077500	0,1	0,977490
1,079167	0,1	1,081276
1,080833	0,1	1,234752
1,082500	0,1	1,400384
1,084167	0,1	1,550811
1,085833	0,1	1,738990
1,087500	0,1	1,898876
1,089167	0,1	2,076590
1,090833	0,1	2,223496
1,092500	0,1	2,331316
1,094167	0,1	2,474786
1,095833	0,1	2,569349
1,097500	0,1	2,648295
1,099167	0,1	2,725673
1,100833	0,1	2,732138
1,102500	0,1	2,729497
1,104167	0,1	2,725475
1,105833	0,1	2,636719
1,107500	0,1	2,575266
1,109167	0,1	2,495267
1,110833	0,1	2,417503
1,112500	0,1	2,283236
1,114167	0,1	2,159381
1,115833	0,1	2,032254
1,117500	0,1	1,907264
1,119167	0,1	1,660431
1,120833	0,1	1,592821
1,122500	0,1	1,470642
1,124167	0,1	1,332475
1,125833	0,1	1,150796
1,127500	0,1	1,043485
1,129167	0,1	0,909680
1,130833	0,1	0,752681
1,132500	0,1	0,697092
1,134167	0,1	0,581156
1,135833	0,1	0,490560
1,137500	0,1	0,398246
1,139167	0,1	0,334148
1,140833	0,1	0,267309
1,142500	0,1	0,236924
1,144167	0,1	0,184580
1,145833	0,1	0,130223
1,147500	0,1	0,120958
1,149167	0,1	0,101053
1,150833	0,1	0,076952
1,152500	0,1	0,073630
1,154167	0,1	0,092932
1,155833	0,1	0,037368
1,157500	0,1	0,078630
1,159167	0,1	0,051595
1,160833	0,1	0,082482
1,162500	0,1	0,125343
1,164167	0,1	0,116847
1,165833	0,1	0,127978
1,167500	0,1	0,166883
1,169167	0,1	0,173765
1,170833	0,1	0,214964
1,172500	0,1	0,223744
1,174167	0,1	0,260304
1,175833	0,1	0,263732
1,177500	0,1	0,313037
1,179167	0,1	0,321910
1,180833	0,1	0,345719
1,182500	0,1	0,356803
1,184167	0,1	0,371400
1,185833	0,1	0,384696
1,187500	0,1	0,430998
1,189167	0,1	0,437281
1,190833	0,1	0,434715
1,192500	0,1	0,431652
1,194167	0,1	0,445462
1,195833	0,1	0,473194
1,197500	0,1	0,468683
1,199167	0,1	0,488732
1,200833	0,1	0,489855
1,202500	0,1	0,530986
1,204167	0,1	0,529649
1,205833	0,1	0,536937
1,207500	0,1	0,543297
1,209167	0,1	0,618391
1,210833	0,1	0,582094
1,212500	0,1	0,590118
1,214167	0,1	0,596466
1,215833	0,1	0,602965
1,217500	0,1	0,611830
1,219167	0,1	0,632146
1,220833	0,1	0,620086
1,222500	0,1	0,627337
1,224167	0,1	0,637488
1,225833	0,1	0,605795
1,227500	0,1	0,604479
1,229167	0,1	0,600134
1,230833	0,1	0,597627
1,232500	0,1	0,622647
1,234167	0,1	0,632612
1,235833	0,1	0,655019
1,237500	0,1	0,627834
1,239167	0,1	0,641341
1,240833	0,1	0,605607
1,242500	0,1	0,617058
1,244167	0,1	0,643427
1,245833	0,1	0,648308
1,247500	0,1	0,596480
1,249167	0,1	0,630441
1,250833	0,1	0,588293
1,252500	0,1	0,590272
1,254167	0,1	0,624407
1,255833	0,1	0,633079
1,257500	0,1	0,579883
1,259167	0,1	0,610882
1,260833	0,1	0,625054
1,262500	0,1	0,605189
1,264167	0,1	0,589028
1,265833	0,1	0,547704
1,267500	0,1	0,589557
1,269167	0,1	0,568893
1,270833	0,1	0,598085
1,272500	0,1	0,557751
1,274167	0,1	0,570458
1,275833	0,1	0,569216
1,277500	0,1	0,564165
1,279167	0,1	0,564518
1,280833	0,1	0,548403
1,282500	0,1	0,539472
1,284167	0,1	0,539862
1,285833	0,1	0,539360
1,287500	0,1	0,548120
1,289167	0,1	0,536716
1,290833	0,1	0,515463
1,292500	0,1	0,503823
1,294167	0,1	0,515806
1,295833	0,1	0,522997
1,297500	0,1	0,485949
1,299167	0,1	0,546207
1,300833	0,1	0,520931
1,302500	0,1	0,518403
1,304167	0,1	0,537702
1,305833	0,1	0,500697
1,307500	0,1	0,486853
1,309167	0,1	0,512257
1,310833	0,1	0,496009
1,312500	0,1	0,472915
1,314167	0,1	0,473284
1,315833	0,1	0,453196
1,317500	0,1	0,497113
1,319167	0,1	0,419988
1,320833	0,1	0,476374
1,322500	0,1	0,484962
1,324167	0,1	0,437170
1,325833	0,1	0,478265
1,327500	0,1	0,432760
1,329167	0,1	0,449808
1,330833	0,1	0,420970
1,332500	0,1	0,439660
1,334167	0,1	0,423721
1,335833	0,1	0,414938
1,337500	0,1	0,409283
1,339167	0,1	0,428829
1,340833	0,1	0,416825
1,342500	0,1	0,426241
1,344167	0,1	0,429289
1,345833	0,1	0,435417
1,347500	0,1	0,368148
1,349167	0,1	0,359724
1,350833	0,1	0,412872
1,352500	0,1	0,395121
1,354167	0,1	0,416732
1,355833	0,1	0,428520
1,357500	0,1	0,374958
1,359167	0,1	0,374095
1,360833	0,1	0,375090
1,362500	0,1	0,355691
1,364167	0,1	0,376245
1,365833	0,1	0,346542
1,367500	0,1	0,376076
1,369167	0,1	0,335155
1,370833	0,1	0,366840
1,372500	0,1	0,342751
1,374167	0,1	0,366553
1,375833	0,1	0,375938
1,377500	0,1	0,399604
1,379167	0,1	0,376173
1,380833	0,1	0,353225
1,382500	0,1	0,329954
1,384167	0,1	0,337917
1,385833	0,1	0,337919
1,387500	0,1	0,351646
1,389167	0,1	0,371027
1,390833	0,1	0,363206
1,392500	0,1	0,291058
1,394167	0,1	0,345465
1,395833	0,1	0,293517
1,397500	0,1	0,300272
1,399167	0,1	0,325345
1,400833	0,1	0,291110
1,402500	0,1	0,306153
1,404167	0,1	0,338329
1,405833	0,1	0,334048
1,407500	0,1	0,309495
1,409167	0,1	0,308662
1,410833	0,1	0,307556
1,412500	0,1	0,288805
1,414167	0,1	0,298118
1,415833	0,1	0,290981
1,417500	0,1	0,279386
1,419167	0,1	0,264852
1,420833	0,1	0,279010
1,422500	0,1	0,298660
1,424167	0,1	0,265087
1,425833	0,1	0,304591
1,427500	0,1	0,303343
1,429167	0,1	0,278210
1,430833	0,1	0,310000
1,432500	0,1	0,303114
1,434167	0,1	0,284030
1,435833	0,1	0,262059
1,437500	0,1	0,294822
1,439167	0,1	0,293258
1,440833	0,1	0,287437
1,442500	0,1	0,296650
1,444167	0,1	0,266535
1,445833	0,1	0,274888
1,447500	0,1	0,268974
1,449167	0,1	0,268700
1,450833	0,1	0,248274
1,452500	0,1	0,251538
1,454167	0,1	0,235102
1,455833	0,1	0,258048
1,457500	0,1	0,266561
1,459167	0,1	0,236862
1,460833	0,1	0,258013
1,462500	0,1	0,236280
1,464167	0,1	0,280822
1,465833	0,1	0,257110
1,467500	0,1	0,309995
1,469167	0,1	0,289120
1,470833	0,1	0,244383
1,472500	0,1	0,263007
1,474167	0,1	0,251788
1,475833	0,1	0,244681
1,477500	0,1	0,260291
1,479167	0,1	0,233057
1,480833	0,1	0,246417
1,482500	0,1	0,250316
1,484167	0,1	0,284121
1,485833	0,1	0,277916
1,487500	0,1	0,244380
1,489167	0,1	0,251642
1,490833	0,1	0,240693
1,492500	0,1	0,285500
1,494167	0,1	0,253331
1,495833	0,1	0,274516
1,497500	0,1	0,221941
1,499167	0,1	0,330711
1,500833	0,1	0,267292
1,502500	0,1	0,244562
1,504167	0,1	0,277019
1,505833	0,1	0,247711
1,507500	0,1	0,243458
1,509167	0,1	0,273642
1,510833	0,1	0,268428
1,512500	0,1	0,281164
1,514167	0,1	0,279841
1,515833	0,1	0,265309
1,517500	0,1	0,249372
1,519167	0,1	0,233282
1,520833	0,1	0,254697
1,522500	0,1	0,249492
1,524167	0,1	0,265075
1,525833	0,1	0,274888
1,527500	0,1	0,234740
1,529167	0,1	0,237760
1,530833	0,1	0,274820
1,532500	0,1	0,240453
1,534167	0,1	0,250542
1,535833	0,1	0,247828
1,537500	0,1	0,259818
1,539167	0,1	0,227037
1,540833	0,1	0,233583
1,542500	0,1	0,242964
1,544167	0,1	0,248848
1,545833	0,1	0,238890
1,547500	0,1	0,230986
1,549167	0,1	0,254574
1,550833	0,1	0,243076
1,552500	0,1	0,252486
1,554167	0,1	0,203603
1,555833	0,1	0,252827
1,557500	0,1	0,205192
1,559167	0,1	0,277774
1,560833	0,1	0,272886
1,562500	0,1	0,213567
1,564167	0,1	0,259810
1,565833	0,1	0,213975
1,567500	0,1	0,235750
1,569167	0,1	0,243317
1,570833	0,1	0,220527
1,572500	0,1	0,232633
1,574167	0,1	0,232759
1,575833	0,1	0,274097
1,577500	0,1	0,264148
1,579167	0,1	0,249802
1,580833	0,1	0,189532
1,582500	0,1	0,266159
1,584167	0,1	0,216911
1,585833	0,1	0,210468
1,587500	0,1	0,277880
1,589167	0,1	0,209611
1,590833	0,1	0,217355
1,592500	0,1	0,222551
1,594167	0,1	0,204130
1,595833	0,1	0,265521
1,597500	0,1	0,223434
1,599167	0,1	0,233567
1,600833	0,1	0,224479
1,602500	0,1	0,209125
1,604167	0,1	0,235795
1,605833	0,1	0,267681
1,607500	0,1	0,217141
1,609167	0,1	0,245115
1,610833	0,1	0,269151
1,612500	0,1	0,238895
1,614167	0,1	0,254956
1,615833	0,1	0,224899
1,617500	0,1	0,246170
1,619167	0,1	0,217900
1,620833	0,1	0,268487
1,622500	0,1	0,214100
1,624167	0,1	0,316735
1,625833	0,1	0,262832
1,627500	0,1	0,275837
1,629167	0,1	0,277211
1,630833	0,1	0,309733
1,632500	0,1	0,309593
1,634167	0,1	0,277650
1,635833	0,1	0,309955
1,637500	0,1	0,305516
1,639167	0,1	0,343378
1,640833	0,1	0,299000
1,642500	0,1	0,369128
1,644167	0,1	0,389851
1,645833	0,1	0,418201
1,647500	0,1	0,442455
1,649167	0,1	0,470584
1,650833	0,1	0,492686
1,652500	0,1	0,522123
1,654167	0,1	0,565641
1,655833	0,1	0,638340
1,657500	0,1	0,652223
1,659167	0,1	0,691152
1,660833	0,1	0,785848
1,662500	0,1	0,831290
1,664167	0,1	0,877178
1,665833	0,1	0,953504
1,667500	0,1	1,095377
1,669167	0,1	1,139194
1,670833	0,1	1,246892
1,672500	0,1	1,319064
1,674167	0,1	1,431685
1,675833	0,1	1,559606
1,677500	0,1	1,695366
1,679167	0,1	1,866894
1,680833	0,1	1,983727
1,682500	0,1	2,170274
1,684167	0,1	2,326729
1,685833	0,1	2,467762
1,687500	0,1	2,688341
1,689167	0,1	2,865162
1,690833	0,1	3,046991
1,692500	0,1	3,267154
1,694167	0,1	3,477757
1,695833	0,1	3,743264
1,697500	0,1	3,919710
1,699167	0,1	4,235781
1,700833	0,1	4,501321
1,702500	0,1	4,745812
1,704167	0,1	5,017966
1,705833	0,1	5,290779
1,707500	0,1	5,590137
1,709167	0,1	5,863174
1,710833	0,1	6,172741
1,712500	0,1	6,458827
1,714167	0,1	6,761369
1,715833	0,1	7,116386
1,717500	0,1	7,422953
1,719167	0,1	7,710612
1,720833	0,1	8,054551
1,722500	0,1	8,375875
1,724167	0,1	8,733010
1,725833	0,1	9,036911
1,727500	0,1	9,328852
1,729167	0,1	9,653919
1,730833	0,1	9,964971
1,732500	0,1	10,299854
1,734167	0,1	10,584866
1,735833	0,1	10,879902
1,737500	0,1	11,211494
1,739167	0,1	11,520513
1,740833	0,1	11,777430
1,742500	0,1	12,077707
1,744167	0,1	12,317292
1,745833	0,1	12,555887
1,747500	0,1	12,794854
1,749167	0,1	13,019152
1,750833	0,1	13,284409
1,752500	0,1	13,496948
1,754167	0,1	13,681898
1,755833	0,1	13,846343
1,757500	0,1	14,047737
1,759167	0,1	14,192696
1,760833	0,1	14,350952
1,762500	0,1	14,437558
1,764167	0,1	14,584707
1,765833	0,1	14,706101
1,767500	0,1	14,774588
1,769167	0,1	14,839234
1,770833	0,1	14,924474
1,772500	0,1	14,978370
1,774167	0,1	15,026015
1,775833	0,1	15,022158
1,777500	0,1	15,032803
1,779167	0,1	15,044755
1,780833	0,1	15,010006
1,782500	0,1	14,962563
1,784167	0,1	14,951446
1,785833	0,1	14,905637
1,787500	0,1	14,764684
1,789167	0,1	14,771470
1,790833	0,1	14,657615
1,792500	0,1	14,566158
1,794167	0,1	14,464739
1,795833	0,1	14,293912
1,797500	0,1	14,245391
1,799167	0,1	14,115229
1,800833	0,1	13,930435
1,802500	0,1	13,750196
1,804167	0,1	13,566348
1,805833	0,1	13,456151
1,807500	0,1	13,296296
1,809167	0,1	13,086069
1,810833	0,1	12,925520
1,812500	0,1	12,709507
1,814167	0,1	12,521582
1,815833	0,1	12,334517
1,817500	0,1	12,119840
1,819167	0,1	11,898463
1,820833	0,1	11,701594
1,822500	0,1	11,518495
1,824167	0,1	11,324889
1,825833	0,1	11,048165
1,827500	0,1	10,868116
1,829167	0,1	10,654335
1,830833	0,1	10,419870
1,832500	0,1	10,225977
1,834167	0,1	9,994885
1,835833	0,1	9,787652
1,837500	0,1	9,585497
1,839167	0,1	9,406550
1,840833	0,1	9,150036
1,842500	0,1	8,922345
1,844167	0,1	8,732130
1,845833	0,1	8,574287
1,847500	0,1	8,336356
1,849167	0,1	8,146921
1,850833	0,1	7,940442
1,852500	0,1	7,738805
1,854167	0,1	7,556106
1,855833	0,1	7,354479
1,857500	0,1	7,173244
1,859167	0,1	6,987249
1,860833	0,1	6,778630
1,862500	0,1	6,640537
1,864167	0,1	6,484425
1,865833	0,1	6,263473
1,867500	0,1	6,146009
1,869167	0,1	5,995750
1,870833	0,1	5,820226
1,872500	0,1	5,661808
1,874167	0,1	5,520814
1,875833	0,1	5,400135
1,877500	0,1	5,253370
1,879167	0,1	5,080335
1,880833	0,1	4,908591
1,882500	0,1	4,819542
1,884167	0,1	4,686937
1,885833	0,1	4,585550
1,887500	0,1	4,442199
1,889167	0,1	4,341039
1,890833	0,1	4,223579
1,892500	0,1	4,104908
1,894167	0,1	4,015339
1,895833	0,1	3,883074
1,897500	0,1	3,804681
1,899167	0,1	3,697935
1,900833	0,1	3,590808
1,902500	0,1	3,531264
1,904167	0,1	3,394303
1,905833	0,1	3,346402
1,907500	0,1	3,203975
1,909167	0,1	3,120698
1,910833	0,1	3,053280
1,912500	0,1	2,990996
1,914167	0,1	2,953165
1,915833	0,1	2,843710
1,917500	0,1	2,776764
1,919167	0,1	2,693077
1,920833	0,1	2,659362
1,922500	0,1	2,549613
1,924167	0,1	2,497412
1,925833	0,1	2,420802
1,927500	0,1	2,391258
1,929167	0,1	2,317185
1,930833	0,1	2,263435
1,932500	0,1	2,186424
1,934167	0,1	2,143031
1,935833	0,1	2,032449
1,937500	0,1	2,006582
1,939167	0,1	1,980599
1,940833	0,1	1,950546
1,942500	0,1	1,902298
1,944167	0,1	1,865438
1,945833	0,1	1,830666
1,947500	0,1	1,768964
1,949167	0,1	1,774335
1,950833	0,1	1,716967
1,952500	0,1	1,663284
1,954167	0,1	1,659138
1,955833	0,1	1,611573
1,957500	0,1	1,536838
1,959167	0,1	1,537464
1,960833	0,1	1,509235
1,962500	0,1	1,446862
1,964167	0,1	1,432026
1,965833	0,1	1,351630
1,967500	0,1	1,420489
1,969167	0,1	1,355065
1,970833	0,1	1,296493
1,972500	0,1	1,269400
1,974167	0,1	1,296918
1,975833	0,1	1,244252
1,977500	0,1	1,227585
1,979167	0,1	1,169418
1,980833	0,1	1,184193
1,982500	0,1	1,180563
1,984167	0,1	1,167084
1,985833	0,1	1,151399
1,987500	0,1	1,091885
1,989167	0,1	1,096510
1,990833	0,1	1,088376
1,992500	0,1	1,072237
1,994167	0,1	1,021228
1,995833	0,1	0,988241
1,997500	0,1	1,025188
1,999167	0,1	0,995151
2,000833	0,1	0,974254
2,002500	0,1	0,994144
2,004167	0,1	0,963521
2,005833	0,1	0,980834
2,007500	0,1	0,946585
2,009167	0,1	0,952197
2,010833	0,1	0,927137
2,012500	0,1	0,886197
2,014167	0,1	0,895795
2,015833	0,1	0,942322
2,017500	0,1	0,889670
2,019167	0,1	0,867361
2,020833	0,1	0,885445
2,022500	0,1	0,840181
2,024167	0,1	0,854404
2,025833	0,1	0,857778
2,027500	0,1	0,806090
2,029167	0,1	0,833673
2,030833	0,1	0,857229
2,032500	0,1	0,768058
2,034167	0,1	0,818343
2,035833	0,1	0,800813
2,037500	0,1	0,828982
2,039167	0,1	0,761788
2,040833	0,1	0,765818
2,042500	0,1	0,785573
2,044167	0,1	0,756669
2,045833	0,1	0,785380
2,047500	0,1	0,782694
2,049167	0,1	0,767113
2,050833	0,1	0,770895
2,052500	0,1	0,786736
2,054167	0,1	0,743116
2,055833	0,1	0,774715
2,057500	0,1	0,763478
2,059167	0,1	0,743816
2,060833	0,1	0,766746
2,062500	0,1	0,790011
2,064167	0,1	0,767948
2,065833	0,1	0,745490
2,067500	0,1	0,755890
2,069167	0,1	0,711992
2,070833	0,1	0,727109
2,072500	0,1	0,736902
2,074167	0,1	0,730969
2,075833	0,1	0,739472
2,077500	0,1	0,734978
2,079167	0,1	0,756048
2,080833	0,1	0,757407
2,082500	0,1	0,720208
2,084167	0,1	0,756659
2,085833	0,1	0,769352
2,087500	0,1	0,716611
2,089167	0,1	0,725662
2,090833	0,1	0,704912
2,092500	0,1	0,729225
2,094167	0,1	0,716575
2,095833	0,1	0,696398
2,097500	0,1	0,753278
2,099167	0,1	0,708391
2,100833	0,1	0,745057
2,102500	0,1	0,751011
2,104167	0,1	0,728657
2,105833	0,1	0,719947
2,107500	0,1	0,700189
2,109167	0,1	0,751028
2,110833	0,1	0,784965
2,112500	0,1	0,749799
2,114167	0,1	0,728945
2,115833	0,1	0,735457
2,117500	0,1	0,721749
2,119167	0,1	0,707163
2,120833	0,1	0,734237
2,122500	0,1	0,721651
2,124167	0,1	0,719303
2,125833	0,1	0,740691
2,127500	0,1	0,677397
2,129167	0,1	0,726937
2,130833	0,1	0,746580
2,132500	0,1	0,716515
2,134167	0,1	0,701536
2,135833	0,1	0,725434
2,137500	0,1	0,741886
2,139167	0,1	0,729806
2,140833	0,1	0,741208
2,142500	0,1	0,717642
2,144167	0,1	0,743042
2,145833	0,1	0,731061
2,147500	0,1	0,707553
2,149167	0,1	0,729162
2,150833	0,1	0,733182
2,152500	0,1	0,707971
2,154167	0,1	0,736934
2,155833	0,1	0,700518
2,157500	0,1	0,748431
2,159167	0,1	0,704375
2,160833	0,1	0,719915
2,162500	0,1	0,719691
2,164167	0,1	0,719523
2,165833	0,1	0,716028
2,167500	0,1	0,718181
2,169167	0,1	0,706456
2,170833	0,1	0,664616
2,172500	0,1	0,729667
2,174167	0,1	0,675882
2,175833	0,1	0,669763
2,177500	0,1	0,667582
2,179167	0,1	0,705894
2,180833	0,1	0,721129
2,182500	0,1	0,703790
2,184167	0,1	0,721868
2,185833	0,1	0,702894
2,187500	0,1	0,679378
2,189167	0,1	0,738182
2,190833	0,1	0,710703
2,192500	0,1	0,692767
2,194167	0,1	0,720327
2,195833	0,1	0,703084
2,197500	0,1	0,712072
2,199167	0,1	0,676973
2,200833	0,1	0,676486
2,202500	0,1	0,664600
2,204167	0,1	0,680173
2,205833	0,1	0,708247
2,207500	0,1	0,701669
2,209167	0,1	0,701322
2,210833	0,1	0,700418
2,212500	0,1	0,700383
2,214167	0,1	0,679349
2,215833	0,1	0,657788
2,217500	0,1	0,731980
2,219167	0,1	0,691623
2,220833	0,1	0,673984
2,222500	0,1	0,695302
2,224167	0,1	0,672346
2,225833	0,1	0,681712
2,227500	0,1	0,672723
2,229167	0,1	0,680944
2,230833	0,1	0,730799
2,232500	0,1	0,637954
2,234167	0,1	0,664401
2,235833	0,1	0,647807
2,237500	0,1	0,671784
2,239167	0,1	0,663766
2,240833	0,1	0,672076
2,242500	0,1	0,668098
2,244167	0,1	0,680246
2,245833	0,1	0,684419
2,247500	0,1	0,649251
2,249167	0,1	0,672563
2,250833	0,1	0,625612
2,252500	0,1	0,619833
2,254167	0,1	0,634527
2,255833	0,1	0,663793
2,257500	0,1	0,638465
2,259167	0,1	0,674613
2,260833	0,1	0,652460
2,262500	0,1	0,643537
2,264167	0,1	0,659362
2,265833	0,1	0,632962
2,267500	0,1	0,633661
2,269167	0,1	0,635977
2,270833	0,1	0,675825
2,272500	0,1	0,661262
2,274167	0,1	0,628304
2,275833	0,1	0,657685
2,277500	0,1	0,630077
2,279167	0,1	0,704220
2,280833	0,1	0,655751
2,282500	0,1	0,665462
2,284167	0,1	0,611104
2,285833	0,1	0,641590
2,287500	0,1	0,643433
2,289167	0,1	0,662121
2,290833	0,1	0,665374
2,292500	0,1	0,601042
2,294167	0,1	0,633474
2,295833	0,1	0,663792
2,297500	0,1	0,641297
2,299167	0,1	0,631332
2,300833	0,1	0,637752
2,302500	0,1	0,635399
2,304167	0,1	0,636946
2,305833	0,1	0,651882
2,307500	0,1	0,657374
2,309167	0,1	0,630340
2,310833	0,1	0,600467
2,312500	0,1	0,631537
2,314167	0,1	0,641416
2,315833	0,1	0,624142
2,317500	0,1	0,601336
2,319167	0,1	0,642114
2,320833	0,1	0,658331
2,322500	0,1	0,606190
2,324167	0,1	0,640919
2,325833	0,1	0,635400
2,327500	0,1	0,627983
2,329167	0,1	0,661956
2,330833	0,1	0,620988
2,332500	0,1	0,631352
2,334167	0,1	0,613865
2,335833	0,1	0,624802
2,337500	0,1	0,646713
2,339167	0,1	0,647325
2,340833	0,1	0,634317
2,342500	0,1	0,662508
2,344167	0,1	0,632874
2,345833	0,1	0,601878
2,347500	0,1	0,583023
2,349167	0,1	0,638309
2,350833	0,1	0,635336
2,352500	0,1	0,648895
2,354167	0,1	0,633939
2,355833	0,1	0,647259
2,357500	0,1	0,621084
2,359167	0,1	0,635721
2,360833	0,1	0,614734
2,362500	0,1	0,600652
2,364167	0,1	0,626627
2,365833	0,1	0,647030
2,367500	0,1	0,623136
2,369167	0,1	0,604936
2,370833	0,1	0,603030
2,372500	0,1	0,632569
2,374167	0,1	0,622554
2,375833	0,1	0,631163
2,377500	0,1	0,656844
2,379167	0,1	0,554038
2,380833	0,1	0,675135
2,382500	0,1	0,619076
2,384167	0,1	0,635974
2,385833	0,1	0,623940
2,387500	0,1	0,638455
2,389167	0,1	0,600985
2,390833	0,1	0,607701
2,392500	0,1	0,650363
2,394167	0,1	0,578500
2,395833	0,1	0,641554
2,397500	0,1	0,614888
2,399167	0,1	0,611470
2,400833	0,1	0,634662
2,402500	0,1	0,632868
2,404167	0,1	0,626544
2,405833	0,1	0,626543
2,407500	0,1	0,589033
2,409167	0,1	0,606174
2,410833	0,1	0,621175
2,412500	0,1	0,636907
2,414167	0,1	0,612255
2,415833	0,1	0,577611
2,417500	0,1	0,650709
2,419167	0,1	0,616301
2,420833	0,1	0,629968
2,422500	0,1	0,612215
2,424167	0,1	0,614692
2,425833	0,1	0,607980
2,427500	0,1	0,599531
2,429167	0,1	0,617282
2,430833	0,1	0,620536
2,432500	0,1	0,654346
2,434167	0,1	0,602651
2,435833	0,1	0,630028
2,437500	0,1	0,618385
2,439167	0,1	0,640669
2,440833	0,1	0,624167
2,442500	0,1	0,602419
2,444167	0,1	0,639181
2,445833	0,1	0,643134
2,447500	0,1	0,644202
2,449167	0,1	0,634165
2,450833	0,1	0,588078
2,452500	0,1	0,630878
2,454167	0,1	0,635345
2,455833	0,1	0,630461
2,457500	0,1	0,635825
2,459167	0,1	0,613312
2,460833	0,1	0,619854
2,462500	0,1	0,603324
2,464167	0,1	0,635492
2,465833	0,1	0,620249
2,467500	0,1	0,652257
2,469167	0,1	0,640151
2,470833	0,1	0,620214
2,472500	0,1	0,642596
2,474167	0,1	0,635537
2,475833	0,1	0,625035
2,477500	0,1	0,636101
2,479167	0,1	0,602974
2,480833	0,1	0,644999
2,482500	0,1	0,620441
2,484167	0,1	0,674736
2,485833	0,1	0,637573
2,487500	0,1	0,658820
2,489167	0,1	0,610145
2,490833	0,1	0,651268
2,492500	0,1	0,606668
2,494167	0,1	0,639761
2,495833	0,1	0,606186
2,497500	0,1	0,639925
2,499167	0,1	0,582351
2,500833	0,1	0,634782
2,502500	0,1	0,618185
2,504167	0,1	0,635910
2,505833	0,1	0,632731
2,507500	0,1	0,670088
2,509167	0,1	0,635670
2,510833	0,1	0,618638
2,512500	0,1	0,651334
2,514167	0,1	0,610584
2,515833	0,1	0,657908
2,517500	0,1	0,595363
2,519167	0,1	0,644734
2,520833	0,1	0,628474
2,522500	0,1	0,638871
2,524167	0,1	0,631620
2,525833	0,1	0,652523
2,527500	0,1	0,610711
2,529167	0,1	0,644611
2,530833	0,1	0,605281
2,532500	0,1	0,642304
2,534167	0,1	0,632063
2,535833	0,1	0,618637
2,537500	0,1	0,594271
2,539167	0,1	0,639091
2,540833	0,1	0,624682
2,542500	0,1	0,683991
2,544167	0,1	0,637474
2,545833	0,1	0,644881
2,547500	0,1	0,655826
2,549167	0,1	0,631813
2,550833	0,1	0,613791
2,552500	0,1	0,636614
2,554167	0,1	0,618828
2,555833	0,1	0,647951
2,557500	0,1	0,641799
2,559167	0,1	0,664364
2,560833	0,1	0,657893
2,562500	0,1	0,615460
2,564167	0,1	0,651877
2,565833	0,1	0,636398
2,567500	0,1	0,646253
2,569167	0,1	0,654994
2,570833	0,1	0,668999
2,572500	0,1	0,645113
2,574167	0,1	0,688716
2,575833	0,1	0,666918
2,577500	0,1	0,679957
2,579167	0,1	0,685605
2,580833	0,1	0,658569
2,582500	0,1	0,693379
2,584167	0,1	0,701602
2,585833	0,1	0,648648
2,587500	0,1	0,669478
2,589167	0,1	0,671021
2,590833	0,1	0,662390
2,592500	0,1	0,724237
2,594167	0,1	0,679092
2,595833	0,1	0,691331
2,597500	0,1	0,682080
2,599167	0,1	0,683616
2,600833	0,1	0,665633
2,602500	0,1	0,659080
2,604167	0,1	0,658977
2,605833	0,1	0,659657
2,607500	0,1	0,641865
2,609167	0,1	0,663822
2,610833	0,1	0,682163
2,612500	0,1	0,690128
2,614167	0,1	0,669007
2,615833	0,1	0,726039
2,617500	0,1	0,668601
2,619167	0,1	0,672947
2,620833	0,1	0,682844
2,622500	0,1	0,692579
2,624167	0,1	0,695948
2,625833	0,1	0,720193
2,627500	0,1	0,672289
2,629167	0,1	0,664662
2,630833	0,1	0,700536
2,632500	0,1	0,678191
2,634167	0,1	0,710908
2,635833	0,1	0,688309
2,637500	0,1	0,713070
2,639167	0,1	0,684038
2,640833	0,1	0,685733
2,642500	0,1	0,687407
2,644167	0,1	0,671604
2,645833	0,1	0,705485
2,647500	0,1	0,688405
2,649167	0,1	0,705355
2,650833	0,1	0,663385
2,652500	0,1	0,682615
2,654167	0,1	0,691223
2,655833	0,1	0,723213
2,657500	0,1	0,687839
2,659167	0,1	0,697457
2,660833	0,1	0,695016
2,662500	0,1	0,700027
2,664167	0,1	0,711310
2,665833	0,1	0,699714
2,667500	0,1	0,737129
2,669167	0,1	0,684144
2,670833	0,1	0,681589
2,672500	0,1	0,659235
2,674167	0,1	0,694077
2,675833	0,1	0,709437
2,677500	0,1	0,707712
2,679167	0,1	0,687602
2,680833	0,1	0,675809
2,682500	0,1	0,702494
2,684167	0,1	0,727846
2,685833	0,1	0,651097
2,687500	0,1	0,710711
2,689167	0,1	0,689014
2,690833	0,1	0,709634
2,692500	0,1	0,660147
2,694167	0,1	0,735765
2,695833	0,1	0,695063
2,697500	0,1	0,698582
2,699167	0,1	0,676780
2,700833	0,1	0,653429
2,702500	0,1	0,669251
2,704167	0,1	0,699995
2,705833	0,1	0,675821
2,707500	0,1	0,679669
2,709167	0,1	0,689079
2,710833	0,1	0,682269
2,712500	0,1	0,706701
2,714167	0,1	0,700229
2,715833	0,1	0,668911
2,717500	0,1	0,677063
2,719167	0,1	0,663894
2,720833	0,1	0,675161
2,722500	0,1	0,696748
2,724167	0,1	0,657891
2,725833	0,1	0,663058
2,727500	0,1	0,690964
2,729167	0,1	0,709788
2,730833	0,1	0,655272
2,732500	0,1	0,668385
2,734167	0,1	0,711583
2,735833	0,1	0,696693
2,737500	0,1	0,746345
2,739167	0,1	0,679389
2,740833	0,1	0,697074
2,742500	0,1	0,704561
2,744167	0,1	0,695470
2,745833	0,1	0,707645
2,747500	0,1	0,691554
2,749167	0,1	0,723504
2,750833	0,1	0,679553
2,752500	0,1	0,674108
2,754167	0,1	0,716823
2,755833	0,1	0,682365
2,757500	0,1	0,681914
2,759167	0,1	0,711559
2,760833	0,1	0,678421
2,762500	0,1	0,705453
2,764167	0,1	0,694857
2,765833	0,1	0,693026
2,767500	0,1	0,736837
2,769167	0,1	0,730454
2,770833	0,1	0,773108
2,772500	0,1	0,733002
2,774167	0,1	0,718600
2,775833	0,1	0,696116
2,777500	0,1	0,713299
2,779167	0,1	0,725825
2,780833	0,1	0,721712
2,782500	0,1	0,733886
2,784167	0,1	0,701223
2,785833	0,1	0,757261
2,787500	0,1	0,753744
2,789167	0,1	0,727661
2,790833	0,1	0,733275
2,792500	0,1	0,721748
2,794167	0,1	0,728389
2,795833	0,1	0,767869
2,797500	0,1	0,758789
2,799167	0,1	0,750823
2,800833	0,1	0,789266
2,802500	0,1	0,717937
2,804167	0,1	0,735876
2,805833	0,1	0,759556
2,807500	0,1	0,767653
2,809167	0,1	0,729501
2,810833	0,1	0,739020
2,812500	0,1	0,796109
2,814167	0,1	0,781057
2,815833	0,1	0,762998
2,817500	0,1	0,768423
2,819167	0,1	0,750020
2,820833	0,1	0,765693
2,822500	0,1	0,734696
2,824167	0,1	0,747633
2,825833	0,1	0,757823
2,827500	0,1	0,751944
2,829167	0,1	0,790327
2,830833	0,1	0,768048
2,832500	0,1	0,735436
2,834167	0,1	0,789621
2,835833	0,1	0,763706
2,837500	0,1	0,716971
2,839167	0,1	0,762955
2,840833	0,1	0,763439
2,842500	0,1	0,747513
2,844167	0,1	0,753736
2,845833	0,1	0,764919
2,847500	0,1	0,747831
2,849167	0,1	0,755254
2,850833	0,1	0,720921
2,852500	0,1	0,772428
2,854167	0,1	0,789143
2,855833	0,1	0,728857
2,857500	0,1	0,741887
2,859167	0,1	0,732445
2,860833	0,1	0,708196
2,862500	0,1	0,695120
2,864167	0,1	0,750484
2,865833	0,1	0,710064
2,867500	0,1	0,767190
2,869167	0,1	0,761555
2,870833	0,1	0,743313
2,872500	0,1	0,735303
2,874167	0,1	0,738098
2,875833	0,1	0,742792
2,877500	0,1	0,750847
2,879167	0,1	0,699364
2,880833	0,1	0,751224
2,882500	0,1	0,751337
2,884167	0,1	0,754130
2,885833	0,1	0,747771
2,887500	0,1	0,718477
2,889167	0,1	0,791640
2,890833	0,1	0,727065
2,892500	0,1	0,721937
2,894167	0,1	0,716155
2,895833	0,1	0,688281
2,897500	0,1	0,709380
2,899167	0,1	0,690036
2,900833	0,1	0,666565
2,902500	0,1	0,751222
2,904167	0,1	0,738517
2,905833	0,1	0,661403
2,907500	0,1	0,691255
2,909167	0,1	0,694093
2,910833	0,1	0,691289
2,912500	0,1	0,703048
2,914167	0,1	0,692938
2,915833	0,1	0,693451
2,917500	0,1	0,690203
2,919167	0,1	0,669396
2,920833	0,1	0,717364
2,922500	0,1	0,688987
2,924167	0,1	0,706005
2,925833	0,1	0,679857
2,927500	0,1	0,698840
2,929167	0,1	0,676590
2,930833	0,1	0,642637
2,932500	0,1	0,694081
2,934167	0,1	0,646330
2,935833	0,1	0,649603
2,937500	0,1	0,668773
2,939167	0,1	0,655642
2,940833	0,1	0,685608
2,942500	0,1	0,639906
2,944167	0,1	0,653167
2,945833	0,1	0,653559
2,947500	0,1	0,689868
2,949167	0,1	0,665255
2,950833	0,1	0,695461
2,952500	0,1	0,631886
2,954167	0,1	0,655092
2,955833	0,1	0,679439
2,957500	0,1	0,633521
2,959167	0,1	0,668769
2,960833	0,1	0,691447
2,962500	0,1	0,637791
2,964167	0,1	0,623046
2,965833	0,1	0,645418
2,967500	0,1	0,677184
2,969167	0,1	0,658918
2,970833	0,1	0,644180
2,972500	0,1	0,663089
2,974167	0,1	0,646902
2,975833	0,1	0,678596
2,977500	0,1	0,671763
2,979167	0,1	0,682047
2,980833	0,1	0,670995
2,982500	0,1	0,623595
2,984167	0,1	0,670601
2,985833	0,1	0,653083
2,987500	0,1	0,655286
2,989167	0,1	0,619587
2,990833	0,1	0,646323
2,992500	0,1	0,653431
2,994167	0,1	0,680948
2,995833	0,1	0,671637
2,997500	0,1	0,687205
2,999167	0,1	0,672154
3,000833	0,1	0,687982
3,002500	0,1	0,645697
3,004167	0,1	0,699989
3,005833	0,1	0,694991
3,007500	0,1	0,667597
3,009167	0,1	0,662317
3,010833	0,1	0,702245
3,012500	0,1	0,701097
3,014167	0,1	0,708408
3,015833	0,1	0,706779
3,017500	0,1	0,683685
3,019167	0,1	0,706900
3,020833	0,1	0,677487
3,022500	0,1	0,690299
3,024167	0,1	0,667624
3,025833	0,1	0,701179
3,027500	0,1	0,725277
3,029167	0,1	0,671069
3,030833	0,1	0,667746
3,032500	0,1	0,685023
3,034167	0,1	0,655066
3,035833	0,1	0,648195
3,037500	0,1	0,693757
3,039167	0,1	0,714221
3,040833	0,1	0,714263
3,042500	0,1	0,712751
3,044167	0,1	0,720783
3,045833	0,1	0,723963
3,047500	0,1	0,734536
3,049167	0,1	0,685817
3,050833	0,1	0,710112
3,052500	0,1	0,730157
3,054167	0,1	0,708938
3,055833	0,1	0,684299
3,057500	0,1	0,691070
3,059167	0,1	0,714997
3,060833	0,1	0,715160
3,062500	0,1	0,745129
3,064167	0,1	0,718315
3,065833	0,1	0,736906
3,067500	0,1	0,720337
3,069167	0,1	0,677038
3,070833	0,1	0,725435
3,072500	0,1	0,682820
3,074167	0,1	0,670606
3,075833	0,1	0,717852
3,077500	0,1	0,717610
3,079167	0,1	0,683688
3,080833	0,1	0,698233
3,082500	0,1	0,712422
3,084167	0,1	0,734753
3,085833	0,1	0,716901
3,087500	0,1	0,706844
3,089167	0,1	0,694667
3,090833	0,1	0,722157
3,092500	0,1	0,696505
3,094167	0,1	0,693634
3,095833	0,1	0,693477
3,097500	0,1	0,705427
3,099167	0,1	0,699742
3,100833	0,1	0,699902
3,102500	0,1	0,679830
3,104167	0,1	0,677002
3,105833	0,1	0,654134
3,107500	0,1	0,676607
3,109167	0,1	0,674594
3,110833	0,1	0,662283
3,112500	0,1	0,708795
3,114167	0,1	0,666534
3,115833	0,1	0,666369
3,117500	0,1	0,634058
3,119167	0,1	0,640184
3,120833	0,1	0,682520
3,122500	0,1	0,659172
3,124167	0,1	0,616693
3,125833	0,1	0,643654
3,127500	0,1	0,674036
3,129167	0,1	0,640240
3,130833	0,1	0,623135
3,132500	0,1	0,646124
3,134167	0,1	0,668129
3,135833	0,1	0,649447
3,137500	0,1	0,639167
3,139167	0,1	0,631230
3,140833	0,1	0,677832
3,142500	0,1	0,623383
3,144167	0,1	0,647861
3,145833	0,1	0,661518
3,147500	0,1	0,634095
3,149167	0,1	0,626029
3,150833	0,1	0,617678
3,152500	0,1	0,638163
3,154167	0,1	0,590687
3,155833	0,1	0,607308
3,157500	0,1	0,627496
3,159167	0,1	0,609394
3,160833	0,1	0,622598
3,162500	0,1	0,633265
3,164167	0,1	0,605995
3,165833	0,1	0,565912
3,167500	0,1	0,612917
3,169167	0,1	0,606080
3,170833	0,1	0,588614
3,172500	0,1	0,562509
3,174167	0,1	0,610977
3,175833	0,1	0,562868
3,177500	0,1	0,596220
3,179167	0,1	0,549067
3,180833	0,1	0,574385
3,182500	0,1	0,582020
3,184167	0,1	0,595987
3,185833	0,1	0,550148
3,187500	0,1	0,562891
3,189167	0,1	0,552167
3,190833	0,1	0,550075
3,192500	0,1	0,611931
3,194167	0,1	0,507339
3,195833	0,1	0,560463
3,197500	0,1	0,570750
3,199167	0,1	0,570789
3,200833	0,1	0,519095
3,202500	0,1	0,553543
3,204167	0,1	0,548124
3,205833	0,1	0,543262
3,207500	0,1	0,556431
3,209167	0,1	0,554962
3,210833	0,1	0,541651
3,212500	0,1	0,523911
3,214167	0,1	0,531965
3,215833	0,1	0,543108
3,217500	0,1	0,561856
3,219167	0,1	0,521473
3,220833	0,1	0,530906
3,222500	0,1	0,511193
3,224167	0,1	0,541906
3,225833	0,1	0,532634
3,227500	0,1	0,526768
3,229167	0,1	0,567985
3,230833	0,1	0,563702
3,232500	0,1	0,513998
3,234167	0,1	0,510259
3,235833	0,1	0,503008
3,237500	0,1	0,488616
3,239167	0,1	0,512405
3,240833	0,1	0,515307
3,242500	0,1	0,507792
3,244167	0,1	0,520984
3,245833	0,1	0,502494
3,247500	0,1	0,509222
3,249167	0,1	0,529807
3,250833	0,1	0,503489
3,252500	0,1	0,502819
3,254167	0,1	0,520833
3,255833	0,1	0,495040
3,257500	0,1	0,507248
3,259167	0,1	0,484452
3,260833	0,1	0,508655
3,262500	0,1	0,504292
3,264167	0,1	0,468673
3,265833	0,1	0,505400
3,267500	0,1	0,490518
3,269167	0,1	0,529239
3,270833	0,1	0,493695
3,272500	0,1	0,495880
3,274167	0,1	0,492091
3,275833	0,1	0,500662
3,277500	0,1	0,464384
3,279167	0,1	0,511052
3,280833	0,1	0,442334
3,282500	0,1	0,484083
3,284167	0,1	0,472270
3,285833	0,1	0,472865
3,287500	0,1	0,498731
3,289167	0,1	0,496936
3,290833	0,1	0,502072
3,292500	0,1	0,480224
3,294167	0,1	0,497511
3,295833	0,1	0,473394
3,297500	0,1	0,454977
3,299167	0,1	0,440496
3,300833	0,1	0,496259
3,302500	0,1	0,472603
3,304167	0,1	0,476324
3,305833	0,1	0,472640
3,307500	0,1	0,476262
3,309167	0,1	0,457584
3,310833	0,1	0,455654
3,312500	0,1	0,450043
3,314167	0,1	0,502352
3,315833	0,1	0,461317
3,317500	0,1	0,480298
3,319167	0,1	0,441331
3,320833	0,1	0,462404
3,322500	0,1	0,449010
3,324167	0,1	0,459402
3,325833	0,1	0,453378
3,327500	0,1	0,462509
3,329167	0,1	0,434639
3,330833	0,1	0,452831
3,332500	0,1	0,465469
3,334167	0,1	0,427019
3,335833	0,1	0,452312
3,337500	0,1	0,448284
3,339167	0,1	0,427823
3,340833	0,1	0,478961
3,342500	0,1	0,451540
3,344167	0,1	0,442608
3,345833	0,1	0,428670
3,347500	0,1	0,433698
3,349167	0,1	0,445855
3,350833	0,1	0,432667
3,352500	0,1	0,454655
3,354167	0,1	0,435630
3,355833	0,1	0,447514
3,357500	0,1	0,405771
3,359167	0,1	0,414043
3,360833	0,1	0,480429
3,362500	0,1	0,451769
3,364167	0,1	0,475490
3,365833	0,1	0,440524
3,367500	0,1	0,441694
3,369167	0,1	0,457763
3,370833	0,1	0,461205
3,372500	0,1	0,426792
3,374167	0,1	0,442478
3,375833	0,1	0,418607
3,377500	0,1	0,444257
3,379167	0,1	0,480044
3,380833	0,1	0,442470
3,382500	0,1	0,463229
3,384167	0,1	0,450169
3,385833	0,1	0,435236
3,387500	0,1	0,431796
3,389167	0,1	0,429579
3,390833	0,1	0,428916
3,392500	0,1	0,430488
3,394167	0,1	0,438525
3,395833	0,1	0,420554
3,397500	0,1	0,437819
3,399167	0,1	0,443060
3,400833	0,1	0,411402
3,402500	0,1	0,446967
3,404167	0,1	0,460561
3,405833	0,1	0,431698
3,407500	0,1	0,441879
3,409167	0,1	0,432604
3,410833	0,1	0,428193
3,412500	0,1	0,450366
3,414167	0,1	0,430516
3,415833	0,1	0,399246
3,417500	0,1	0,447648
3,419167	0,1	0,401278
3,420833	0,1	0,438538
3,422500	0,1	0,414755
3,424167	0,1	0,461171
3,425833	0,1	0,435880
3,427500	0,1	0,450121
3,429167	0,1	0,472241
3,430833	0,1	0,433315
3,432500	0,1	0,407237
3,434167	0,1	0,474133
3,435833	0,1	0,455307
3,437500	0,1	0,433871
3,439167	0,1	0,434714
3,440833	0,1	0,447906
3,442500	0,1	0,431157
3,444167	0,1	0,400530
3,445833	0,1	0,439137
3,447500	0,1	0,419952
3,449167	0,1	0,458566
3,450833	0,1	0,428363
3,452500	0,1	0,435355
3,454167	0,1	0,419725
3,455833	0,1	0,401664
3,457500	0,1	0,431228
3,459167	0,1	0,381668
3,460833	0,1	0,480939
3,462500	0,1	0,446820
3,464167	0,1	0,442751
3,465833	0,1	0,413534
3,467500	0,1	0,408228
3,469167	0,1	0,394995
3,470833	0,1	0,431538
3,472500	0,1	0,441961
3,474167	0,1	0,407427
3,475833	0,1	0,438271
3,477500	0,1	0,423161
3,479167	0,1	0,447861
3,480833	0,1	0,455508
3,482500	0,1	0,433933
3,484167	0,1	0,421132
3,485833	0,1	0,440737
3,487500	0,1	0,397985
3,489167	0,1	0,391058
3,490833	0,1	0,425573
3,492500	0,1	0,402370
3,494167	0,1	0,426175
3,495833	0,1	0,435105
3,497500	0,1	0,398812
3,499167	0,1	0,427212
3,500833	0,1	0,392204
3,502500	0,1	0,390830
3,504167	0,1	0,398843
3,505833	0,1	0,437024
3,507500	0,1	0,380116
3,509167	0,1	0,413044
3,510833	0,1	0,417152
3,512500	0,1	0,427816
3,514167	0,1	0,419867
3,515833	0,1	0,400982
3,517500	0,1	0,431663
3,519167	0,1	0,416679
3,520833	0,1	0,392926
3,522500	0,1	0,406669
3,524167	0,1	0,400089
3,525833	0,1	0,396960
3,527500	0,1	0,414643
3,529167	0,1	0,383714
3,530833	0,1	0,407743
3,532500	0,1	0,354684
3,534167	0,1	0,408440
3,535833	0,1	0,436902
3,537500	0,1	0,418566
3,539167	0,1	0,406945
3,540833	0,1	0,375387
3,542500	0,1	0,399233
3,544167	0,1	0,418950
3,545833	0,1	0,369595
3,547500	0,1	0,381011
3,549167	0,1	0,434515
3,550833	0,1	0,382206
3,552500	0,1	0,418199
3,554167	0,1	0,407090
3,555833	0,1	0,384580
3,557500	0,1	0,377722
3,559167	0,1	0,379045
3,560833	0,1	0,392917
3,562500	0,1	0,385364
3,564167	0,1	0,385279
3,565833	0,1	0,416317
3,567500	0,1	0,376115
3,569167	0,1	0,397865
3,570833	0,1	0,382466
3,572500	0,1	0,356706
3,574167	0,1	0,337800
3,575833	0,1	0,409264
3,577500	0,1	0,359922
3,579167	0,1	0,408360
3,580833	0,1	0,362055
3,582500	0,1	0,379953
3,584167	0,1	0,393333
3,585833	0,1	0,364867
3,587500	0,1	0,399394
3,589167	0,1	0,365700
3,590833	0,1	0,365917
3,592500	0,1	0,340763
3,594167	0,1	0,391274
3,595833	0,1	0,353357
3,597500	0,1	0,347820
3,599167	0,1	0,341006
3,600833	0,1	0,375538
3,602500	0,1	0,373392
3,604167	0,1	0,391840
3,605833	0,1	0,351285
3,607500	0,1	0,350572
3,609167	0,1	0,374921
3,610833	0,1	0,393145
3,612500	0,1	0,359691
3,614167	0,1	0,385833
3,615833	0,1	0,341304
3,617500	0,1	0,331193
3,619167	0,1	0,362369
3,620833	0,1	0,352353
3,622500	0,1	0,413431
3,624167	0,1	0,345950
3,625833	0,1	0,342454
3,627500	0,1	0,361707
3,629167	0,1	0,381152
3,630833	0,1	0,375052
3,632500	0,1	0,316108
3,634167	0,1	0,342282
3,635833	0,1	0,341670
3,637500	0,1	0,343781
3,639167	0,1	0,381356
3,640833	0,1	0,350208
3,642500	0,1	0,355002
3,644167	0,1	0,320390
3,645833	0,1	0,324911
3,647500	0,1	0,313262
3,649167	0,1	0,333709
3,650833	0,1	0,362846
3,652500	0,1	0,315093
3,654167	0,1	0,342344
3,655833	0,1	0,313180
3,657500	0,1	0,362365
3,659167	0,1	0,352479
3,660833	0,1	0,368419
3,662500	0,1	0,371673
3,664167	0,1	0,301038
3,665833	0,1	0,316798
3,667500	0,1	0,363463
3,669167	0,1	0,344260
3,670833	0,1	0,363243
3,672500	0,1	0,358008
3,674167	0,1	0,317387
3,675833	0,1	0,345577
3,677500	0,1	0,349163
3,679167	0,1	0,336865
3,680833	0,1	0,328272
3,682500	0,1	0,348912
3,684167	0,1	0,372787
3,685833	0,1	0,365795
3,687500	0,1	0,344885
3,689167	0,1	0,386119
3,690833	0,1	0,398221
3,692500	0,1	0,344807
3,694167	0,1	0,366409
3,695833	0,1	0,326127
3,697500	0,1	0,356074
3,699167	0,1	0,379393
3,700833	0,1	0,349669
3,702500	0,1	0,372083
3,704167	0,1	0,354884
3,705833	0,1	0,349825
3,707500	0,1	0,361296
3,709167	0,1	0,375999
3,710833	0,1	0,391344
3,712500	0,1	0,379671
3,714167	0,1	0,369936
3,715833	0,1	0,382190
3,717500	0,1	0,390518
3,719167	0,1	0,381596
3,720833	0,1	0,387619
3,722500	0,1	0,403169
3,724167	0,1	0,395512
3,725833	0,1	0,389380
3,727500	0,1	0,429175
3,729167	0,1	0,425893
3,730833	0,1	0,422414
3,732500	0,1	0,400652
3,734167	0,1	0,399114
3,735833	0,1	0,437938
3,737500	0,1	0,447845
3,739167	0,1	0,447392
3,740833	0,1	0,441883
3,742500	0,1	0,425088
3,744167	0,1	0,453222
3,745833	0,1	0,454307
3,747500	0,1	0,489575
3,749167	0,1	0,484095
3,750833	0,1	0,468442
3,752500	0,1	0,521968
3,754167	0,1	0,525732
3,755833	0,1	0,494899
3,757500	0,1	0,544132
3,759167	0,1	0,526041
3,760833	0,1	0,553442
3,762500	0,1	0,521142
3,764167	0,1	0,523806
3,765833	0,1	0,574177
3,767500	0,1	0,552007
3,769167	0,1	0,606354
3,770833	0,1	0,550730
3,772500	0,1	0,606203
3,774167	0,1	0,577950
3,775833	0,1	0,660894
3,777500	0,1	0,648487
3,779167	0,1	0,655675
3,780833	0,1	0,612863
3,782500	0,1	0,673105
3,784167	0,1	0,641489
3,785833	0,1	0,671944
3,787500	0,1	0,701534
3,789167	0,1	0,670294
3,790833	0,1	0,719200
3,792500	0,1	0,686510
3,794167	0,1	0,698262
3,795833	0,1	0,749779
3,797500	0,1	0,718958
3,799167	0,1	0,749684
3,800833	0,1	0,739159
3,802500	0,1	0,787331
3,804167	0,1	0,788696
3,805833	0,1	0,814074
3,807500	0,1	0,822880
3,809167	0,1	0,803480
3,810833	0,1	0,837625
3,812500	0,1	0,822499
3,814167	0,1	0,864453
3,815833	0,1	0,861637
3,817500	0,1	0,860672
3,819167	0,1	0,882937
3,820833	0,1	0,905176
3,822500	0,1	0,912409
3,824167	0,1	0,907432
3,825833	0,1	0,899270
3,827500	0,1	0,941360
3,829167	0,1	0,945449
3,830833	0,1	0,962964
3,832500	0,1	0,963420
3,834167	0,1	0,972350
3,835833	0,1	0,995683
3,837500	0,1	1,011757
3,839167	0,1	0,994472
3,840833	0,1	1,018444
3,842500	0,1	1,022625
3,844167	0,1	1,033074
3,845833	0,1	1,016164
3,847500	0,1	1,023208
3,849167	0,1	1,053032
3,850833	0,1	1,060462
3,852500	0,1	1,019520
3,854167	0,1	1,083561
3,855833	0,1	1,053081
3,857500	0,1	1,100023
3,859167	0,1	1,087055
3,860833	0,1	1,090592
3,862500	0,1	1,069088
3,864167	0,1	1,071237
3,865833	0,1	1,090588
3,867500	0,1	1,101653
3,869167	0,1	1,094415
3,870833	0,1	1,126019
3,872500	0,1	1,125319
3,874167	0,1	1,111817
3,875833	0,1	1,109399
3,877500	0,1	1,139002
3,879167	0,1	1,097425
3,880833	0,1	1,130717
3,882500	0,1	1,132774
3,884167	0,1	1,122840
3,885833	0,1	1,111947
3,887500	0,1	1,204165
3,889167	0,1	1,095539
3,890833	0,1	1,125246
3,892500	0,1	1,091822
3,894167	0,1	1,161370
3,895833	0,1	1,130144
3,897500	0,1	1,116727
3,899167	0,1	1,103196
3,900833	0,1	1,148736
3,902500	0,1	1,110629
3,904167	0,1	1,114216
3,905833	0,1	1,110268
3,907500	0,1	1,102327
3,909167	0,1	1,054696
3,910833	0,1	1,061171
3,912500	0,1	1,156321
3,914167	0,1	1,099535
3,915833	0,1	1,095478
3,917500	0,1	1,093930
3,919167	0,1	1,052181
3,920833	0,1	1,045974
3,922500	0,1	1,051621
3,924167	0,1	1,055357
3,925833	0,1	1,062031
3,927500	0,1	1,037129
3,929167	0,1	1,048470
3,930833	0,1	1,006726
3,932500	0,1	1,016612
3,934167	0,1	1,044513
3,935833	0,1	1,020001
3,937500	0,1	1,011473
3,939167	0,1	1,021690
3,940833	0,1	1,010058
3,942500	0,1	1,030660
3,944167	0,1	0,948845
3,945833	0,1	0,986325
3,947500	0,1	0,961110
3,949167	0,1	0,926080
3,950833	0,1	0,932112
3,952500	0,1	0,921895
3,954167	0,1	0,918647
3,955833	0,1	0,913312
3,957500	0,1	0,892845
3,959167	0,1	0,929563
3,960833	0,1	0,880127
3,962500	0,1	0,886476
3,964167	0,1	0,886637
3,965833	0,1	0,866911
3,967500	0,1	0,847822
3,969167	0,1	0,871142
3,970833	0,1	0,873302
3,972500	0,1	0,879630
3,974167	0,1	0,811622
3,975833	0,1	0,825516
3,977500	0,1	0,808812
3,979167	0,1	0,837723
3,980833	0,1	0,833520
3,982500	0,1	0,825458
3,984167	0,1	0,762111
3,985833	0,1	0,764602
3,987500	0,1	0,779345
3,989167	0,1	0,755804
3,990833	0,1	0,781234
3,992500	0,1	0,780251
3,994167	0,1	0,749635
3,995833	0,1	0,758042
3,997500	0,1	0,730268
3,999167	0,1	0,699584
4,000833	0,1	0,768701
4,002500	0,1	0,698308
4,004167	0,1	0,723315
4,005833	0,1	0,710248
4,007500	0,1	0,693997
4,009167	0,1	0,701793
4,010833	0,1	0,686768
4,012500	0,1	0,672183
4,014167	0,1	0,668098
4,015833	0,1	0,691129
4,017500	0,1	0,663227
4,019167	0,1	0,646287
4,020833	0,1	0,628123
4,022500	0,1	0,647510
4,024167	0,1	0,690390
4,025833	0,1	0,665859
4,027500	0,1	0,632900
4,029167	0,1	0,643883
4,030833	0,1	0,666582
4,032500	0,1	0,616983
4,034167	0,1	0,702007
4,035833	0,1	0,649806
4,037500	0,1	0,617006
4,039167	0,1	0,632811
4,040833	0,1	0,641795
4,042500	0,1	0,633410
4,044167	0,1	0,685375
4,045833	0,1	0,668718
4,047500	0,1	0,609556
4,049167	0,1	0,616705
4,050833	0,1	0,620914
4,052500	0,1	0,634827
4,054167	0,1	0,648860
4,055833	0,1	0,635991
4,057500	0,1	0,628650
4,059167	0,1	0,660219
4,060833	0,1	0,629915
4,062500	0,1	0,613184
4,064167	0,1	0,667669
4,065833	0,1	0,654620
4,067500	0,1	0,681492
4,069167	0,1	0,650181
4,070833	0,1	0,686782
4,072500	0,1	0,684006
4,074167	0,1	0,681715
4,075833	0,1	0,706413
4,077500	0,1	0,671897
4,079167	0,1	0,723499
4,080833	0,1	0,701483
4,082500	0,1	0,732436
4,084167	0,1	0,752420
4,085833	0,1	0,757049
4,087500	0,1	0,781303
4,089167	0,1	0,754295
4,090833	0,1	0,760967
4,092500	0,1	0,785924
4,094167	0,1	0,795155
4,095833	0,1	0,766596
4,097500	0,1	0,805075
4,099167	0,1	0,832451
4,100833	0,1	0,802198
4,102500	0,1	0,796856
4,104167	0,1	0,872158
4,105833	0,1	0,865270
4,107500	0,1	0,879597
4,109167	0,1	0,862572
4,110833	0,1	0,895371
4,112500	0,1	0,912376
4,114167	0,1	0,917680
4,115833	0,1	0,885071
4,117500	0,1	0,911602
4,119167	0,1	0,922373
4,120833	0,1	0,950296
4,122500	0,1	0,971772
4,124167	0,1	0,953169
4,125833	0,1	0,970423
4,127500	0,1	0,973928
4,129167	0,1	1,020945
4,130833	0,1	1,011284
4,132500	0,1	1,033136
4,134167	0,1	1,012124
4,135833	0,1	1,066816
4,137500	0,1	1,016149
4,139167	0,1	1,045734
4,140833	0,1	1,069590
4,142500	0,1	1,044656
4,144167	0,1	1,131689
4,145833	0,1	1,136239
4,147500	0,1	1,082339
4,149167	0,1	1,096469
4,150833	0,1	1,137488
4,152500	0,1	1,158428
4,154167	0,1	1,141295
4,155833	0,1	1,148494
4,157500	0,1	1,177311
4,159167	0,1	1,196793
4,160833	0,1	1,221285
4,162500	0,1	1,199219
4,164167	0,1	1,201181
4,165833	0,1	1,249332
4,167500	0,1	1,240867
4,169167	0,1	1,215273
4,170833	0,1	1,250416
4,172500	0,1	1,231116
4,174167	0,1	1,256010
4,175833	0,1	1,237719
4,177500	0,1	1,262823
4,179167	0,1	1,262918
4,180833	0,1	1,260570
4,182500	0,1	1,259942
4,184167	0,1	1,245949
4,185833	0,1	1,275622
4,187500	0,1	1,240389
4,189167	0,1	1,244790
4,190833	0,1	1,233149
4,192500	0,1	1,294270
4,194167	0,1	1,261903
4,195833	0,1	1,254689
4,197500	0,1	1,301571
4,199167	0,1	1,268115
4,200833	0,1	1,288151
4,202500	0,1	1,267782
4,204167	0,1	1,262145
4,205833	0,1	1,287334
4,207500	0,1	1,254063
4,209167	0,1	1,234057
4,210833	0,1	1,298994
4,212500	0,1	1,270331
4,214167	0,1	1,271637
4,215833	0,1	1,296875
4,217500	0,1	1,291159
4,219167	0,1	1,293417
4,220833	0,1	1,274700
4,222500	0,1	1,259969
4,224167	0,1	1,282122
4,225833	0,1	1,240193
4,227500	0,1	1,241155
4,229167	0,1	1,274961
4,230833	0,1	1,269774
4,232500	0,1	1,242828
4,234167	0,1	1,229974
4,235833	0,1	1,218486
4,237500	0,1	1,259510
4,239167	0,1	1,223204
4,240833	0,1	1,277034
4,242500	0,1	1,236767
4,244167	0,1	1,186113
4,245833	0,1	1,210956
4,247500	0,1	1,233613
4,249167	0,1	1,197777
4,250833	0,1	1,239488
4,252500	0,1	1,177661
4,254167	0,1	1,220403
4,255833	0,1	1,206252
4,257500	0,1	1,163207
4,259167	0,1	1,207209
4,260833	0,1	1,172300
4,262500	0,1	1,212514
4,264167	0,1	1,144759
4,265833	0,1	1,173649
4,267500	0,1	1,136576
4,269167	0,1	1,141748
4,270833	0,1	1,115454
4,272500	0,1	1,161256
4,274167	0,1	1,100253
4,275833	0,1	1,125786
4,277500	0,1	1,100411
4,279167	0,1	1,102932
4,280833	0,1	1,139774
4,282500	0,1	1,086002
4,284167	0,1	1,065100
4,285833	0,1	1,109258
4,287500	0,1	1,117143
4,289167	0,1	1,080501
4,290833	0,1	1,072330
4,292500	0,1	1,073584
4,294167	0,1	1,060888
4,295833	0,1	1,053393
4,297500	0,1	1,024407
4,299167	0,1	1,019672
4,300833	0,1	1,012121
4,302500	0,1	1,072471
4,304167	0,1	1,009692
4,305833	0,1	1,016843
4,307500	0,1	1,026255
4,309167	0,1	1,007558
4,310833	0,1	1,059456
4,312500	0,1	1,025082
4,314167	0,1	1,004824
4,315833	0,1	0,989232
4,317500	0,1	0,951374
4,319167	0,1	1,008473
4,320833	0,1	0,988207
4,322500	0,1	0,991157
4,324167	0,1	0,991157
4,325833	0,1	0,974030
4,327500	0,1	0,965445
4,329167	0,1	0,960272
4,330833	0,1	0,968496
4,332500	0,1	0,910274
4,334167	0,1	0,979888
4,335833	0,1	0,979198
4,337500	0,1	0,938553
4,339167	0,1	0,912645
4,340833	0,1	0,917038
4,342500	0,1	0,922214
4,344167	0,1	0,897025
4,345833	0,1	0,909100
4,347500	0,1	0,908459
4,349167	0,1	0,889953
4,350833	0,1	0,903859
4,352500	0,1	0,901035
4,354167	0,1	0,910159
4,355833	0,1	0,869936
4,357500	0,1	0,903276
4,359167	0,1	0,864762
4,360833	0,1	0,815502
4,362500	0,1	0,884885
4,364167	0,1	0,882717
4,365833	0,1	0,913175
4,367500	0,1	0,886900
4,369167	0,1	0,822546
4,370833	0,1	0,859153
4,372500	0,1	0,836738
4,374167	0,1	0,846178
4,375833	0,1	0,826455
4,377500	0,1	0,804702
4,379167	0,1	0,810799
4,380833	0,1	0,851600
4,382500	0,1	0,833268
4,384167	0,1	0,816172
4,385833	0,1	0,805310
4,387500	0,1	0,852404
4,389167	0,1	0,852253
4,390833	0,1	0,790124
4,392500	0,1	0,803600
4,394167	0,1	0,792590
4,395833	0,1	0,793549
4,397500	0,1	0,775688
4,399167	0,1	0,763993
4,400833	0,1	0,750049
4,402500	0,1	0,774972
4,404167	0,1	0,791071
4,405833	0,1	0,730240
4,407500	0,1	0,780331
4,409167	0,1	0,768652
4,410833	0,1	0,733476
4,412500	0,1	0,711952
4,414167	0,1	0,748561
4,415833	0,1	0,740607
4,417500	0,1	0,771184
4,419167	0,1	0,691371
4,420833	0,1	0,707898
4,422500	0,1	0,690108
4,424167	0,1	0,699611
4,425833	0,1	0,712296
4,427500	0,1	0,697111
4,429167	0,1	0,665788
4,430833	0,1	0,676610
4,432500	0,1	0,672497
4,434167	0,1	0,670831
4,435833	0,1	0,716277
4,437500	0,1	0,686130
4,439167	0,1	0,667497
4,440833	0,1	0,648503
4,442500	0,1	0,672237
4,444167	0,1	0,659116
4,445833	0,1	0,667715
4,447500	0,1	0,619351
4,449167	0,1	0,635370
4,450833	0,1	0,655156
4,452500	0,1	0,639646
4,454167	0,1	0,632037
4,455833	0,1	0,643304
4,457500	0,1	0,604587
4,459167	0,1	0,598723
4,460833	0,1	0,597603
4,462500	0,1	0,605698
4,464167	0,1	0,599795
4,465833	0,1	0,588940
4,467500	0,1	0,604664
4,469167	0,1	0,587807
4,470833	0,1	0,601969
4,472500	0,1	0,518586
4,474167	0,1	0,567440
4,475833	0,1	0,554197
4,477500	0,1	0,551585
4,479167	0,1	0,532902
4,480833	0,1	0,561314
4,482500	0,1	0,532350
4,484167	0,1	0,512478
4,485833	0,1	0,525063
4,487500	0,1	0,521176
4,489167	0,1	0,513054
4,490833	0,1	0,519826
4,492500	0,1	0,475922
4,494167	0,1	0,537253
4,495833	0,1	0,493469
4,497500	0,1	0,493146
4,499167	0,1	0,469229
4,500833	0,1	0,470466
4,502500	0,1	0,506851
4,504167	0,1	0,443823
4,505833	0,1	0,444906
4,507500	0,1	0,472136
4,509167	0,1	0,435552
4,510833	0,1	0,448712
4,512500	0,1	0,458430
4,514167	0,1	0,423042
4,515833	0,1	0,445273
4,517500	0,1	0,428838
4,519167	0,1	0,431566
4,520833	0,1	0,465113
4,522500	0,1	0,446505
4,524167	0,1	0,355106
4,525833	0,1	0,395004
4,527500	0,1	0,441186
4,529167	0,1	0,454202
4,530833	0,1	0,412606
4,532500	0,1	0,406509
4,534167	0,1	0,355720
4,535833	0,1	0,400843
4,537500	0,1	0,392882
4,539167	0,1	0,413067
4,540833	0,1	0,387419
4,542500	0,1	0,386625
4,544167	0,1	0,380331
4,545833	0,1	0,343001
4,547500	0,1	0,368249
4,549167	0,1	0,393330
4,550833	0,1	0,354641
4,552500	0,1	0,342333
4,554167	0,1	0,367568
4,555833	0,1	0,337658
4,557500	0,1	0,372762
4,559167	0,1	0,372191
4,560833	0,1	0,322363
4,562500	0,1	0,358227
4,564167	0,1	0,342790
4,565833	0,1	0,344361
4,567500	0,1	0,368458
4,569167	0,1	0,291746
4,570833	0,1	0,331266
4,572500	0,1	0,308298
4,574167	0,1	0,302332
4,575833	0,1	0,300442
4,577500	0,1	0,301725
4,579167	0,1	0,314226
4,580833	0,1	0,294465
4,582500	0,1	0,295928
4,584167	0,1	0,320129
4,585833	0,1	0,335518
4,587500	0,1	0,311278
4,589167	0,1	0,303485
4,590833	0,1	0,315991
4,592500	0,1	0,318208
4,594167	0,1	0,312577
4,595833	0,1	0,289244
4,597500	0,1	0,293176
4,599167	0,1	0,262853
4,600833	0,1	0,263899
4,602500	0,1	0,279159
4,604167	0,1	0,268517
4,605833	0,1	0,279757
4,607500	0,1	0,224948
4,609167	0,1	0,279931
4,610833	0,1	0,269266
4,612500	0,1	0,230158
4,614167	0,1	0,257063
4,615833	0,1	0,278490
4,617500	0,1	0,262312
4,619167	0,1	0,260920
4,620833	0,1	0,215002
4,622500	0,1	0,218762
4,624167	0,1	0,277259
4,625833	0,1	0,215017
4,627500	0,1	0,257744
4,629167	0,1	0,245475
4,630833	0,1	0,241834
4,632500	0,1	0,208687
4,634167	0,1	0,212023
4,635833	0,1	0,229346
4,637500	0,1	0,235598
4,639167	0,1	0,206087
4,640833	0,1	0,237870
4,642500	0,1	0,179509
4,644167	0,1	0,221410
4,645833	0,1	0,221621
4,647500	0,1	0,206497
4,649167	0,1	0,238862
4,650833	0,1	0,243088
4,652500	0,1	0,226788
4,654167	0,1	0,249863
4,655833	0,1	0,182828
4,657500	0,1	0,231967
4,659167	0,1	0,221652
4,660833	0,1	0,188289
4,662500	0,1	0,206046
4,664167	0,1	0,233087
4,665833	0,1	0,186137
4,667500	0,1	0,193214
4,669167	0,1	0,179301
4,670833	0,1	0,160647
4,672500	0,1	0,190199
4,674167	0,1	0,210919
4,675833	0,1	0,171729
4,677500	0,1	0,228649
4,679167	0,1	0,157451
4,680833	0,1	0,163971
4,682500	0,1	0,184671
4,684167	0,1	0,179024
4,685833	0,1	0,167934
4,687500	0,1	0,165562
4,689167	0,1	0,209400
4,690833	0,1	0,217524
4,692500	0,1	0,195161
4,694167	0,1	0,160423
4,695833	0,1	0,188166
4,697500	0,1	0,205603
4,699167	0,1	0,186483
4,700833	0,1	0,192205
4,702500	0,1	0,164041
4,704167	0,1	0,203795
4,705833	0,1	0,154055
4,707500	0,1	0,212194
4,709167	0,1	0,149399
4,710833	0,1	0,166888
4,712500	0,1	0,179950
4,714167	0,1	0,193931
4,715833	0,1	0,178446
4,717500	0,1	0,173341
4,719167	0,1	0,162556
4,720833	0,1	0,189436
4,722500	0,1	0,150507
4,724167	0,1	0,163542
4,725833	0,1	0,126186
4,727500	0,1	0,151089
4,729167	0,1	0,146130
4,730833	0,1	0,153935
4,732500	0,1	0,192244
4,734167	0,1	0,167937
4,735833	0,1	0,147189
4,737500	0,1	0,164688
4,739167	0,1	0,161149
4,740833	0,1	0,142392
4,742500	0,1	0,171010
4,744167	0,1	0,201230
4,745833	0,1	0,169222
4,747500	0,1	0,136390
4,749167	0,1	0,174200
4,750833	0,1	0,133630
4,752500	0,1	0,174277
4,754167	0,1	0,196740
4,755833	0,1	0,181807
4,757500	0,1	0,148751
4,759167	0,1	0,163359
4,760833	0,1	0,163073
4,762500	0,1	0,144025
4,764167	0,1	0,166795
4,765833	0,1	0,133182
4,767500	0,1	0,116740
4,769167	0,1	0,140274
4,770833	0,1	0,135972
4,772500	0,1	0,159981
4,774167	0,1	0,190657
4,775833	0,1	0,142412
4,777500	0,1	0,116575
4,779167	0,1	0,114446
4,780833	0,1	0,167796
4,782500	0,1	0,127181
4,784167	0,1	0,149668
4,785833	0,1	0,152409
4,787500	0,1	0,131607
4,789167	0,1	0,173574
4,790833	0,1	0,129518
4,792500	0,1	0,142782
4,794167	0,1	0,124837
4,795833	0,1	0,164530
4,797500	0,1	0,125195
4,799167	0,1	0,127216
4,800833	0,1	0,144308
4,802500	0,1	0,132185
4,804167	0,1	0,147806
4,805833	0,1	0,155952
4,807500	0,1	0,150653
4,809167	0,1	0,104882
4,810833	0,1	0,134970
4,812500	0,1	0,117491
4,814167	0,1	0,153759
4,815833	0,1	0,156503
4,817500	0,1	0,164704
4,819167	0,1	0,126539
4,820833	0,1	0,145819
4,822500	0,1	0,114575
4,824167	0,1	0,135979
4,825833	0,1	0,137408
4,827500	0,1	0,108159
4,829167	0,1	0,155667
4,830833	0,1	0,140588
4,832500	0,1	0,141730
4,834167	0,1	0,125466
4,835833	0,1	0,086591
4,837500	0,1	0,120886
4,839167	0,1	0,126054
4,840833	0,1	0,080468
4,842500	0,1	0,112176
4,844167	0,1	0,151711
4,845833	0,1	0,160229
4,847500	0,1	0,131089
4,849167	0,1	0,129386
4,850833	0,1	0,143911
4,852500	0,1	0,139700
4,854167	0,1	0,104736
4,855833	0,1	0,111191
4,857500	0,1	0,117409
4,859167	0,1	0,105986
4,860833	0,1	0,120736
4,862500	0,1	0,121564
4,864167	0,1	0,093815
4,865833	0,1	0,158230
4,867500	0,1	0,125726
4,869167	0,1	0,100109
4,870833	0,1	0,100866
4,872500	0,1	0,124997
4,874167	0,1	0,122942
4,875833	0,1	0,145407
4,877500	0,1	0,150375
4,879167	0,1	0,115339
4,880833	0,1	0,126405
4,882500	0,1	0,133327
4,884167	0,1	0,130076
4,885833	0,1	0,123141
4,887500	0,1	0,118175
4,889167	0,1	0,151272
4,890833	0,1	0,114470
4,892500	0,1	0,110901
4,894167	0,1	0,130664
4,895833	0,1	0,073596
4,897500	0,1	0,112235
4,899167	0,1	0,126770
4,900833	0,1	0,090899
4,902500	0,1	0,115845
4,904167	0,1	0,136669
4,905833	0,1	0,088882
4,907500	0,1	0,160458
4,909167	0,1	0,112183
4,910833	0,1	0,096607
4,912500	0,1	0,123880
4,914167	0,1	0,114496
4,915833	0,1	0,114920
4,917500	0,1	0,106168
4,919167	0,1	0,122372
4,920833	0,1	0,091323
4,922500	0,1	0,096298
4,924167	0,1	0,145920
4,925833	0,1	0,144021
4,927500	0,1	0,101795
4,929167	0,1	0,146685
4,930833	0,1	0,133758
4,932500	0,1	0,098430
4,934167	0,1	0,134631
4,935833	0,1	0,096688
4,937500	0,1	0,105367
4,939167	0,1	0,147327
4,940833	0,1	0,081756
4,942500	0,1	0,106376
4,944167	0,1	0,123533
4,945833	0,1	0,112141
4,947500	0,1	0,071835
4,949167	0,1	0,105638
4,950833	0,1	0,089660
4,952500	0,1	0,128093
4,954167	0,1	0,123612
4,955833	0,1	0,115029
4,957500	0,1	0,142914
4,959167	0,1	0,106163
4,960833	0,1	0,074631
4,962500	0,1	0,076426
4,964167	0,1	0,092340
4,965833	0,1	0,117939
4,967500	0,1	0,073533
4,969167	0,1	0,097470
4,970833	0,1	0,127271
4,972500	0,1	0,072131
4,974167	0,1	0,136017
4,975833	0,1	0,098321
4,977500	0,1	0,083027
4,979167	0,1	0,114682
4,980833	0,1	0,074269
4,982500	0,1	0,094977
4,984167	0,1	0,073683
4,985833	0,1	0,110818
4,987500	0,1	0,095494
4,989167	0,1	0,085881
4,990833	0,1	0,086919
4,992500	0,1	0,103732
4,994167	0,1	0,075560
4,995833	0,1	0,100279
4,997500	0,1	0,124921
4,999167	0,1	0,089190
5,000833	0,1	0,066627
5,002500	0,1	0,096307
5,004167	0,1	0,071130
5,005833	0,1	0,107915
5,007500	0,1	0,096788
5,009167	0,1	0,118521
5,010833	0,1	0,103868
5,012500	0,1	0,120967
5,014167	0,1	0,093755
5,015833	0,1	0,112058
5,017500	0,1	0,066718
5,019167	0,1	0,096307
5,020833	0,1	0,145629
5,022500	0,1	0,116608
5,024167	0,1	0,088042
5,025833	0,1	0,086764
5,027500	0,1	0,094725
5,029167	0,1	0,081183
5,030833	0,1	0,104573
5,032500	0,1	0,084297
5,034167	0,1	0,074030
5,035833	0,1	0,109259
5,037500	0,1	0,144410
5,039167	0,1	0,077434
5,040833	0,1	0,111886
5,042500	0,1	0,074158
5,044167	0,1	0,087728
5,045833	0,1	0,062102
5,047500	0,1	0,077657
5,049167	0,1	0,083372
5,050833	0,1	0,084220
5,052500	0,1	0,110544
5,054167	0,1	0,065167
5,055833	0,1	0,103180
5,057500	0,1	0,082096
5,059167	0,1	0,082105
5,060833	0,1	0,103412
5,062500	0,1	0,106518
5,064167	0,1	0,068096
5,065833	0,1	0,082668
5,067500	0,1	0,115095
5,069167	0,1	0,085597
5,070833	0,1	0,059764
5,072500	0,1	0,107486
5,074167	0,1	0,083353
5,075833	0,1	0,097992
5,077500	0,1	0,079893
5,079167	0,1	0,097761
5,080833	0,1	0,121911
5,082500	0,1	0,078881
5,084167	0,1	0,103074
5,085833	0,1	0,092285
5,087500	0,1	0,028860
5,089167	0,1	0,085455
5,090833	0,1	0,114609
5,092500	0,1	0,084022
5,094167	0,1	0,090079
5,095833	0,1	0,052165
5,097500	0,1	0,094608
5,099167	0,1	0,083133
5,100833	0,1	0,118226
5,102500	0,1	0,083963
5,104167	0,1	0,100145
5,105833	0,1	0,094194
5,107500	0,1	0,084491
5,109167	0,1	0,060853
5,110833	0,1	0,060050
5,112500	0,1	0,079690
5,114167	0,1	0,078932
5,115833	0,1	0,096295
5,117500	0,1	0,057650
5,119167	0,1	0,091888
5,120833	0,1	0,085409
5,122500	0,1	0,029671
5,124167	0,1	0,075254
5,125833	0,1	0,072456
5,127500	0,1	0,136049
5,129167	0,1	0,095622
5,130833	0,1	0,087866
5,132500	0,1	0,054501
5,134167	0,1	0,100733
5,135833	0,1	0,078125
5,137500	0,1	0,078822
5,139167	0,1	0,075785
5,140833	0,1	0,038187
5,142500	0,1	0,130983
5,144167	0,1	0,113443
5,145833	0,1	0,089431
5,147500	0,1	0,092889
5,149167	0,1	0,052058
5,150833	0,1	0,074895
5,152500	0,1	0,102021
5,154167	0,1	0,069958
5,155833	0,1	0,111459
5,157500	0,1	0,058537
5,159167	0,1	0,055136
5,160833	0,1	0,111300
5,162500	0,1	0,091984
5,164167	0,1	0,077178
5,165833	0,1	0,086978
5,167500	0,1	0,108836
5,169167	0,1	0,059940
5,170833	0,1	0,079811
5,172500	0,1	0,123020
5,174167	0,1	0,091770
5,175833	0,1	0,046286
5,177500	0,1	0,071227
5,179167	0,1	0,071415
5,180833	0,1	0,085526
5,182500	0,1	0,087560
5,184167	0,1	0,076732
5,185833	0,1	0,066624
5,187500	0,1	0,078530
5,189167	0,1	0,068777
5,190833	0,1	0,066223
5,192500	0,1	0,091817
5,194167	0,1	0,043781
5,195833	0,1	0,119913
5,197500	0,1	0,057655
5,199167	0,1	0,098324
5,200833	0,1	0,103052
5,202500	0,1	0,084467
5,204167	0,1	0,053350
5,205833	0,1	0,058584
5,207500	0,1	0,043639
5,209167	0,1	0,086294
5,210833	0,1	0,058638
5,212500	0,1	0,057701
5,214167	0,1	0,031128
5,215833	0,1	0,044177
5,217500	0,1	0,052809
5,219167	0,1	0,022317
5,220833	0,1	0,046669
5,222500	0,1	0,099677
5,224167	0,1	0,078342
5,225833	0,1	0,071767
5,227500	0,1	0,085208
5,229167	0,1	0,068429
5,230833	0,1	0,058513
5,232500	0,1	0,048783
5,234167	0,1	0,072329
5,235833	0,1	0,082293
5,237500	0,1	0,023656
5,239167	0,1	0,073192
5,240833	0,1	0,116178
5,242500	0,1	0,049741
5,244167	0,1	0,044594
5,245833	0,1	0,083656
5,247500	0,1	0,098053
5,249167	0,1	0,046420
5,250833	0,1	0,043008
5,252500	0,1	0,025534
5,254167	0,1	0,018221
5,255833	0,1	0,041259
5,257500	0,1	0,060152
5,259167	0,1	0,035194
5,260833	0,1	0,054258
5,262500	0,1	0,056368
5,264167	0,1	0,056247
5,265833	0,1	0,042430
5,267500	0,1	0,052203
5,269167	0,1	0,049651
5,270833	0,1	0,054891
5,272500	0,1	0,013050
5,274167	0,1	0,079118
5,275833	0,1	0,066792
5,277500	0,1	0,085282
5,279167	0,1	0,036252
5,280833	0,1	0,049490
5,282500	0,1	0,039329
5,284167	0,1	0,059040
5,285833	0,1	0,040325
5,287500	0,1	0,043937
5,289167	0,1	0,076176
5,290833	0,1	0,044879
5,292500	0,1	0,078559
5,294167	0,1	0,080613
5,295833	0,1	0,043077
5,297500	0,1	0,057587
5,299167	0,1	0,059273
5,300833	0,1	0,081830
5,302500	0,1	0,062086
5,304167	0,1	0,062021
5,305833	0,1	0,053491
5,307500	0,1	0,078331
5,309167	0,1	0,046911
5,310833	0,1	0,072158
5,312500	0,1	0,037531
5,314167	0,1	0,048899
5,315833	0,1	0,059791
5,317500	0,1	0,049086
5,319167	0,1	0,048200
5,320833	0,1	0,071566
5,322500	0,1	0,051701
5,324167	0,1	0,009890
5,325833	0,1	0,029531
5,327500	0,1	0,038743
5,329167	0,1	0,048547
5,330833	0,1	0,077627
5,332500	0,1	0,064422
5,334167	0,1	0,047210
5,335833	0,1	0,077384
5,337500	0,1	0,067690
5,339167	0,1	0,019151
5,340833	0,1	0,029302
5,342500	0,1	0,079790
5,344167	0,1	0,073619
5,345833	0,1	0,061721
5,347500	0,1	0,008841
5,349167	0,1	0,044692
5,350833	0,1	0,046963
5,352500	0,1	0,011245
5,354167	0,1	0,030002
5,355833	0,1	0,021381
5,357500	0,1	0,037919
5,359167	0,1	0,041021
5,360833	0,1	0,023657
5,362500	0,1	0,045276
5,364167	0,1	0,046154
5,365833	0,1	0,035299
5,367500	0,1	0,032634
5,369167	0,1	0,039603
5,370833	0,1	0,032624
5,372500	0,1	0,052454
5,374167	0,1	0,034441
5,375833	0,1	0,062014
5,377500	0,1	0,056662
5,379167	0,1	0,061959
5,380833	0,1	0,029131
5,382500	0,1	0,042484
5,384167	0,1	0,016821
5,385833	0,1	0,009193
5,387500	0,1	0,054422
5,389167	0,1	0,048842
5,390833	0,1	0,058002
5,392500	0,1	0,076806
5,394167	0,1	0,014556
5,395833	0,1	0,034724
5,397500	0,1	0,035890
5,399167	0,1	0,023196
5,400833	0,1	0,040629
5,402500	0,1	0,053593
5,404167	0,1	0,015433
5,405833	0,1	0,012459
5,407500	0,1	0,047671
5,409167	0,1	0,035191
5,410833	0,1	0,004017
5,412500	0,1	0,041836
5,414167	0,1	0,058677
5,415833	0,1	0,023711
5,417500	0,1	0,041200
5,419167	0,1	-0,002357
5,420833	0,1	0,036365
5,422500	0,1	-0,009060
5,424167	0,1	0,029997
5,425833	0,1	0,054548
5,427500	0,1	0,018942
5,429167	0,1	0,002781
5,430833	0,1	0,083680
5,432500	0,1	0,028025
5,434167	0,1	0,053433
5,435833	0,1	0,035240
5,437500	0,1	0,018575
5,439167	0,1	0,054424
5,440833	0,1	-0,001579
5,442500	0,1	0,015020
5,444167	0,1	0,002669
5,445833	0,1	0,006323
5,447500	0,1	0,046725
5,449167	0,1	0,034610
5,450833	0,1	0,010769
5,452500	0,1	0,022477
5,454167	0,1	0,009594
5,455833	0,1	0,040373
5,457500	0,1	0,042533
5,459167	0,1	0,038820
5,460833	0,1	0,041082
5,462500	0,1	0,018576
5,464167	0,1	-0,003222
5,465833	0,1	0,027071
5,467500	0,1	0,071087
5,469167	0,1	0,030718
5,470833	0,1	-0,008470
5,472500	0,1	0,004396
5,474167	0,1	0,046205
5,475833	0,1	0,042125
5,477500	0,1	0,038856
5,479167	0,1	0,033507
5,480833	0,1	0,024175
5,482500	0,1	0,023884
5,484167	0,1	0,036697
5,485833	0,1	-0,017275
5,487500	0,1	0,024042
5,489167	0,1	0,063113
5,490833	0,1	0,032798
5,492500	0,1	0,040778
5,494167	0,1	0,054066
5,495833	0,1	-0,007992
5,497500	0,1	0,031572
5,499167	0,1	0,007622
5,500833	0,1	0,041001
5,502500	0,1	0,035492
5,504167	0,1	0,028134
5,505833	0,1	0,006799
5,507500	0,1	0,027909
5,509167	0,1	0,026400
5,510833	0,1	0,018633
5,512500	0,1	0,027210
5,514167	0,1	0,045690
5,515833	0,1	0,035251
5,517500	0,1	0,044117
5,519167	0,1	0,013057
5,520833	0,1	-0,002122
5,522500	0,1	-0,013958
5,524167	0,1	0,036701
5,525833	0,1	-0,000834
5,527500	0,1	0,057274
5,529167	0,1	0,053319
5,530833	0,1	0,029952
5,532500	0,1	0,030830
5,534167	0,1	0,038683
5,535833	0,1	0,028474
5,537500	0,1	0,017072
5,539167	0,1	0,074063
5,540833	0,1	0,014918
5,542500	0,1	0,037507
5,544167	0,1	0,008846
5,545833	0,1	0,008137
5,547500	0,1	0,050464
5,549167	0,1	0,004870
5,550833	0,1	0,031394
5,552500	0,1	0,033227
5,554167	0,1	0,024333
5,555833	0,1	0,003664
5,557500	0,1	0,035289
5,559167	0,1	0,021030
5,560833	0,1	0,038342
5,562500	0,1	0,021020
5,564167	0,1	0,033902
5,565833	0,1	0,035067
5,567500	0,1	0,060963
5,569167	0,1	0,036840
5,570833	0,1	0,022967
5,572500	0,1	0,025529
5,574167	0,1	0,015014
5,575833	0,1	0,035231
5,577500	0,1	0,013055
5,579167	0,1	0,048965
5,580833	0,1	0,034030
5,582500	0,1	0,038976
5,584167	0,1	0,028025
5,585833	0,1	0,040196
5,587500	0,1	0,060430
5,589167	0,1	0,038230
5,590833	0,1	0,046199
5,592500	0,1	0,018625
5,594167	0,1	0,041198
5,595833	0,1	0,006500
5,597500	0,1	0,024582
5,599167	0,1	0,060597
5,600833	0,1	0,014032
5,602500	0,1	0,022186
5,604167	0,1	0,000156
5,605833	0,1	0,041654
5,607500	0,1	0,028243
5,609167	0,1	0,087751
5,610833	0,1	0,047906
5,612500	0,1	0,037647
5,614167	0,1	0,055348
5,615833	0,1	0,051455
5,617500	0,1	0,059381
5,619167	0,1	0,039042
5,620833	0,1	0,040028
5,622500	0,1	0,005170
5,624167	0,1	0,057119
5,625833	0,1	0,018339
5,627500	0,1	0,040896
5,629167	0,1	0,062343
5,630833	0,1	0,031781
5,632500	0,1	0,042545
5,634167	0,1	0,076066
5,635833	0,1	0,027563
5,637500	0,1	0,004475
5,639167	0,1	0,059018
5,640833	0,1	0,053779
5,642500	0,1	0,056949
5,644167	0,1	0,090870
5,645833	0,1	0,018878
5,647500	0,1	0,044320
5,649167	0,1	0,043115
5,650833	0,1	0,054213
5,652500	0,1	0,093568
5,654167	0,1	0,066507
5,655833	0,1	0,035196
5,657500	0,1	0,055298
5,659167	0,1	0,084118
5,660833	0,1	0,097108
5,662500	0,1	0,067160
5,664167	0,1	0,041777
5,665833	0,1	0,062839
5,667500	0,1	0,088731
5,669167	0,1	0,063770
5,670833	0,1	0,048324
5,672500	0,1	0,046843
5,674167	0,1	0,055543
5,675833	0,1	0,091402
5,677500	0,1	0,062441
5,679167	0,1	0,084166
5,680833	0,1	0,044143
5,682500	0,1	0,132483
5,684167	0,1	0,052599
5,685833	0,1	0,077932
5,687500	0,1	0,046828
5,689167	0,1	0,075171
5,690833	0,1	0,095315
5,692500	0,1	0,084416
5,694167	0,1	0,069711
5,695833	0,1	0,086323
5,697500	0,1	0,102711
5,699167	0,1	0,061329
5,700833	0,1	0,100397
5,702500	0,1	0,059817
5,704167	0,1	0,084347
5,705833	0,1	0,076211
5,707500	0,1	0,113904
5,709167	0,1	0,094744
5,710833	0,1	0,065635
5,712500	0,1	0,097636
5,714167	0,1	0,103781
5,715833	0,1	0,087579
5,717500	0,1	0,147904
5,719167	0,1	0,131118
5,720833	0,1	0,112647
5,722500	0,1	0,082618
5,724167	0,1	0,117551
5,725833	0,1	0,129491
5,727500	0,1	0,101898
5,729167	0,1	0,136483
5,730833	0,1	0,097315
5,732500	0,1	0,138602
5,734167	0,1	0,094218
5,735833	0,1	0,167805
5,737500	0,1	0,093584
5,739167	0,1	0,119709
5,740833	0,1	0,138485
5,742500	0,1	0,120407
5,744167	0,1	0,128957
5,745833	0,1	0,139039
5,747500	0,1	0,123143
5,749167	0,1	0,133172
5,750833	0,1	0,119184
5,752500	0,1	0,178520
5,754167	0,1	0,130221
5,755833	0,1	0,121521
5,757500	0,1	0,121491
5,759167	0,1	0,146597
5,760833	0,1	0,124717
5,762500	0,1	0,103328
5,764167	0,1	0,145721
5,765833	0,1	0,139287
5,767500	0,1	0,127402
5,769167	0,1	0,154707
5,770833	0,1	0,143917
5,772500	0,1	0,151368
5,774167	0,1	0,170676
5,775833	0,1	0,173414
5,777500	0,1	0,169062
5,779167	0,1	0,174774
5,780833	0,1	0,161348
5,782500	0,1	0,152547
5,784167	0,1	0,185995
5,785833	0,1	0,169677
5,787500	0,1	0,146487
5,789167	0,1	0,171011
5,790833	0,1	0,190094
5,792500	0,1	0,139083
5,794167	0,1	0,173131
5,795833	0,1	0,165197
5,797500	0,1	0,148686
5,799167	0,1	0,176969
5,800833	0,1	0,232071
5,802500	0,1	0,155069
5,804167	0,1	0,176023
5,805833	0,1	0,167122
5,807500	0,1	0,172130
5,809167	0,1	0,146074
5,810833	0,1	0,150404
5,812500	0,1	0,174892
5,814167	0,1	0,156155
5,815833	0,1	0,133025
5,817500	0,1	0,145118
5,819167	0,1	0,176265
5,820833	0,1	0,190692
5,822500	0,1	0,113473
5,824167	0,1	0,141678
5,825833	0,1	0,188056
5,827500	0,1	0,158693
5,829167	0,1	0,194354
5,830833	0,1	0,217167
5,832500	0,1	0,181904
5,834167	0,1	0,205082
5,835833	0,1	0,150909
5,837500	0,1	0,147826
5,839167	0,1	0,175516
5,840833	0,1	0,140086
5,842500	0,1	0,159034
5,844167	0,1	0,172189
5,845833	0,1	0,123805
5,847500	0,1	0,128790
5,849167	0,1	0,141329
5,850833	0,1	0,148937
5,852500	0,1	0,143807
5,854167	0,1	0,171835
5,855833	0,1	0,150734
5,857500	0,1	0,143214
5,859167	0,1	0,187751
5,860833	0,1	0,164925
5,862500	0,1	0,187665
5,864167	0,1	0,141404
5,865833	0,1	0,181472
5,867500	0,1	0,164008
5,869167	0,1	0,174131
5,870833	0,1	0,150321
5,872500	0,1	0,137655
5,874167	0,1	0,150969
5,875833	0,1	0,153539
5,877500	0,1	0,137974
5,879167	0,1	0,146235
5,880833	0,1	0,143366
5,882500	0,1	0,171880
5,884167	0,1	0,159362
5,885833	0,1	0,154702
5,887500	0,1	0,183966
5,889167	0,1	0,136759
5,890833	0,1	0,127982
5,892500	0,1	0,150188
5,894167	0,1	0,160717
5,895833	0,1	0,138116
5,897500	0,1	0,135039
5,899167	0,1	0,108617
5,900833	0,1	0,137308
5,902500	0,1	0,107991
5,904167	0,1	0,113177
5,905833	0,1	0,122812
5,907500	0,1	0,127049
5,909167	0,1	0,143789
5,910833	0,1	0,129498
5,912500	0,1	0,135113
5,914167	0,1	0,128822
5,915833	0,1	0,124606
5,917500	0,1	0,130013
5,919167	0,1	0,068283
5,920833	0,1	0,118803
5,922500	0,1	0,112598
5,924167	0,1	0,143785
5,925833	0,1	0,141807
5,927500	0,1	0,115857
5,929167	0,1	0,106366
5,930833	0,1	0,112641
5,932500	0,1	0,102623
5,934167	0,1	0,117118
5,935833	0,1	0,161793
5,937500	0,1	0,082231
5,939167	0,1	0,095210
5,940833	0,1	0,063664
5,942500	0,1	0,097711
5,944167	0,1	0,120425
5,945833	0,1	0,119120
5,947500	0,1	0,069852
5,949167	0,1	0,131067
5,950833	0,1	0,095997
5,952500	0,1	0,073467
5,954167	0,1	0,089435
5,955833	0,1	0,120152
5,957500	0,1	0,119579
5,959167	0,1	0,098992
5,960833	0,1	0,080341
5,962500	0,1	0,099274
5,964167	0,1	0,050777
5,965833	0,1	0,084272
5,967500	0,1	0,128611
5,969167	0,1	0,077950
5,970833	0,1	0,099165
5,972500	0,1	0,110776
5,974167	0,1	0,096026
5,975833	0,1	0,057019
5,977500	0,1	0,113365
5,979167	0,1	0,085293
5,980833	0,1	0,095366
5,982500	0,1	0,083304
5,984167	0,1	0,090125
5,985833	0,1	0,038711
5,987500	0,1	0,092547
5,989167	0,1	0,046975
5,990833	0,1	0,101723
5,992500	0,1	0,078174
5,994167	0,1	0,065402
5,995833	0,1	0,072116
5,997500	0,1	0,090886
5,999167	0,1	0,074275
6,000833	0,1	0,103945
