File Path	chrom://chromeleon01/ikbm_chromeleon/2022/Rezex/Esteban/220612_chitin_4_7.seq/565.smp/UV_VIS_1.channel/UV_VIS_1.chm
Channel	UV_VIS_1

Injection Information:
Data Vault	ikbm_chromeleon
Injection	Blank__01
Injection Number	1
Position	RA1
Comment	
Processing Method	New ProcMethod
Instrument Method	Short_Rezex_6min_194nm
Type	Blank
Status	Finished
Injection Date	12.06.2022
Injection Time	17:14:16
Injection Volume (µl)	8,000
Dilution Factor	1,0000
Weight	1,0000

Chromatogram Data Information:
Time Min. (min)	0,000833
Time Max. (min)	6,000833
Data Points	3601
Detector	UV
Generating Data System	Chromeleon 7.2.9.11323
Exporting Data System	Chromeleon 7.2.9.0
Operator	Instrument Controller
Signal Quantity	Absorbance
Signal Unit	mAU
Signal Min.	-0,073311
Signal Max.	1,145697
Channel	UV_VIS_1
Driver Name	VWD3000.dll
Channel Type	Evaluation
Min. Step (s)	0,1
Max. Step (s)	0,1
Average Step (s)	0,1

Signal Parameter Information:
Signal Info	WVL:194 nm

Chromatogram Data:
Time (min)	Step (s)	Value (mAU)
0,000833	n.a.	0,004064
0,002500	0,1	-0,073311
0,004167	0,1	-0,022904
0,005833	0,1	-0,012840
0,007500	0,1	-0,012305
0,009167	0,1	-0,001117
0,010833	0,1	-0,038379
0,012500	0,1	-0,009172
0,014167	0,1	-0,024063
0,015833	0,1	-0,047196
0,017500	0,1	0,001896
0,019167	0,1	-0,039176
0,020833	0,1	-0,021041
0,022500	0,1	-0,002294
0,024167	0,1	-0,025831
0,025833	0,1	0,020689
0,027500	0,1	-0,026176
0,029167	0,1	-0,005691
0,030833	0,1	-0,016764
0,032500	0,1	-0,001457
0,034167	0,1	0,020200
0,035833	0,1	-0,011959
0,037500	0,1	0,028028
0,039167	0,1	-0,018914
0,040833	0,1	0,012448
0,042500	0,1	0,037672
0,044167	0,1	0,019309
0,045833	0,1	-0,003339
0,047500	0,1	-0,026742
0,049167	0,1	-0,030152
0,050833	0,1	-0,047986
0,052500	0,1	-0,024715
0,054167	0,1	0,008143
0,055833	0,1	-0,013272
0,057500	0,1	-0,013407
0,059167	0,1	-0,014996
0,060833	0,1	0,002480
0,062500	0,1	-0,020352
0,064167	0,1	-0,012904
0,065833	0,1	0,014909
0,067500	0,1	-0,007462
0,069167	0,1	-0,019289
0,070833	0,1	0,005471
0,072500	0,1	0,026599
0,074167	0,1	-0,007835
0,075833	0,1	-0,011275
0,077500	0,1	-0,025834
0,079167	0,1	-0,001946
0,080833	0,1	0,007091
0,082500	0,1	0,004560
0,084167	0,1	0,004900
0,085833	0,1	-0,047153
0,087500	0,1	-0,001831
0,089167	0,1	-0,014754
0,090833	0,1	0,003618
0,092500	0,1	-0,034219
0,094167	0,1	-0,011623
0,095833	0,1	0,011854
0,097500	0,1	-0,036640
0,099167	0,1	-0,012266
0,100833	0,1	-0,006357
0,102500	0,1	0,020924
0,104167	0,1	-0,017088
0,105833	0,1	-0,019593
0,107500	0,1	0,020433
0,109167	0,1	-0,061465
0,110833	0,1	-0,020430
0,112500	0,1	0,016082
0,114167	0,1	-0,000505
0,115833	0,1	0,001797
0,117500	0,1	0,022329
0,119167	0,1	0,005547
0,120833	0,1	-0,008437
0,122500	0,1	-0,007090
0,124167	0,1	-0,015919
0,125833	0,1	-0,009882
0,127500	0,1	0,018728
0,129167	0,1	-0,029901
0,130833	0,1	-0,022845
0,132500	0,1	-0,022954
0,134167	0,1	0,002066
0,135833	0,1	-0,018718
0,137500	0,1	-0,019292
0,139167	0,1	-0,012482
0,140833	0,1	0,015441
0,142500	0,1	0,002681
0,144167	0,1	-0,010025
0,145833	0,1	0,005466
0,147500	0,1	-0,019213
0,149167	0,1	-0,008818
0,150833	0,1	-0,021071
0,152500	0,1	-0,012674
0,154167	0,1	0,021271
0,155833	0,1	-0,024459
0,157500	0,1	-0,001679
0,159167	0,1	-0,052888
0,160833	0,1	-0,026100
0,162500	0,1	0,026140
0,164167	0,1	0,002721
0,165833	0,1	-0,021141
0,167500	0,1	-0,028397
0,169167	0,1	0,042056
0,170833	0,1	-0,045168
0,172500	0,1	0,009999
0,174167	0,1	-0,008664
0,175833	0,1	0,026338
0,177500	0,1	-0,040336
0,179167	0,1	-0,013174
0,180833	0,1	-0,031084
0,182500	0,1	-0,013704
0,184167	0,1	-0,013131
0,185833	0,1	-0,002355
0,187500	0,1	-0,011193
0,189167	0,1	0,030835
0,190833	0,1	-0,039050
0,192500	0,1	-0,016496
0,194167	0,1	0,004675
0,195833	0,1	0,010536
0,197500	0,1	-0,002350
0,199167	0,1	0,028157
0,200833	0,1	0,010512
0,202500	0,1	-0,026947
0,204167	0,1	-0,017851
0,205833	0,1	0,036580
0,207500	0,1	0,005183
0,209167	0,1	0,028755
0,210833	0,1	0,008320
0,212500	0,1	-0,028317
0,214167	0,1	0,012345
0,215833	0,1	-0,014556
0,217500	0,1	0,019985
0,219167	0,1	0,022637
0,220833	0,1	0,013191
0,222500	0,1	-0,013502
0,224167	0,1	-0,008056
0,225833	0,1	0,020740
0,227500	0,1	-0,027708
0,229167	0,1	-0,027342
0,230833	0,1	-0,005865
0,232500	0,1	0,012093
0,234167	0,1	0,029556
0,235833	0,1	-0,011340
0,237500	0,1	-0,013655
0,239167	0,1	0,003280
0,240833	0,1	-0,016148
0,242500	0,1	-0,009268
0,244167	0,1	-0,002923
0,245833	0,1	0,004374
0,247500	0,1	0,014244
0,249167	0,1	0,008618
0,250833	0,1	0,010885
0,252500	0,1	0,003782
0,254167	0,1	-0,024342
0,255833	0,1	-0,009645
0,257500	0,1	-0,045171
0,259167	0,1	-0,012268
0,260833	0,1	-0,013691
0,262500	0,1	0,002866
0,264167	0,1	0,021539
0,265833	0,1	0,024719
0,267500	0,1	-0,032810
0,269167	0,1	-0,007610
0,270833	0,1	0,015938
0,272500	0,1	-0,009103
0,274167	0,1	0,002408
0,275833	0,1	0,046902
0,277500	0,1	-0,035594
0,279167	0,1	0,034491
0,280833	0,1	-0,027583
0,282500	0,1	0,021193
0,284167	0,1	-0,030010
0,285833	0,1	0,021458
0,287500	0,1	0,002261
0,289167	0,1	0,003053
0,290833	0,1	0,004265
0,292500	0,1	-0,016441
0,294167	0,1	-0,004808
0,295833	0,1	0,044330
0,297500	0,1	-0,000671
0,299167	0,1	0,005211
0,300833	0,1	0,012618
0,302500	0,1	0,003551
0,304167	0,1	-0,005905
0,305833	0,1	0,020473
0,307500	0,1	0,006876
0,309167	0,1	0,001578
0,310833	0,1	0,004753
0,312500	0,1	0,010011
0,314167	0,1	0,016815
0,315833	0,1	-0,017999
0,317500	0,1	0,036165
0,319167	0,1	-0,013412
0,320833	0,1	0,003582
0,322500	0,1	0,004871
0,324167	0,1	-0,003591
0,325833	0,1	0,013864
0,327500	0,1	-0,023782
0,329167	0,1	-0,013235
0,330833	0,1	-0,026696
0,332500	0,1	0,035594
0,334167	0,1	0,010323
0,335833	0,1	-0,000414
0,337500	0,1	-0,016791
0,339167	0,1	0,009400
0,340833	0,1	-0,021176
0,342500	0,1	0,024903
0,344167	0,1	-0,003099
0,345833	0,1	0,002299
0,347500	0,1	-0,011456
0,349167	0,1	0,004298
0,350833	0,1	-0,026996
0,352500	0,1	0,036694
0,354167	0,1	0,003300
0,355833	0,1	0,008047
0,357500	0,1	-0,024194
0,359167	0,1	0,006784
0,360833	0,1	-0,013797
0,362500	0,1	-0,011085
0,364167	0,1	-0,016757
0,365833	0,1	-0,030735
0,367500	0,1	-0,001827
0,369167	0,1	0,006265
0,370833	0,1	0,007331
0,372500	0,1	-0,009263
0,374167	0,1	0,008613
0,375833	0,1	-0,002911
0,377500	0,1	0,013948
0,379167	0,1	0,021542
0,380833	0,1	0,038827
0,382500	0,1	0,037995
0,384167	0,1	0,034428
0,385833	0,1	0,000079
0,387500	0,1	0,007781
0,389167	0,1	0,035338
0,390833	0,1	-0,009862
0,392500	0,1	0,014809
0,394167	0,1	0,023085
0,395833	0,1	0,038745
0,397500	0,1	-0,014285
0,399167	0,1	0,022104
0,400833	0,1	0,010511
0,402500	0,1	0,003286
0,404167	0,1	0,007561
0,405833	0,1	0,005250
0,407500	0,1	-0,008427
0,409167	0,1	0,017829
0,410833	0,1	-0,004532
0,412500	0,1	0,000676
0,414167	0,1	0,000263
0,415833	0,1	0,003210
0,417500	0,1	0,021208
0,419167	0,1	0,011447
0,420833	0,1	0,067133
0,422500	0,1	-0,021684
0,424167	0,1	0,040855
0,425833	0,1	0,061881
0,427500	0,1	0,017514
0,429167	0,1	-0,006048
0,430833	0,1	0,011671
0,432500	0,1	0,041048
0,434167	0,1	0,009377
0,435833	0,1	0,051254
0,437500	0,1	0,011244
0,439167	0,1	-0,000157
0,440833	0,1	-0,025664
0,442500	0,1	0,010382
0,444167	0,1	0,006224
0,445833	0,1	0,005404
0,447500	0,1	-0,031566
0,449167	0,1	0,039073
0,450833	0,1	0,037162
0,452500	0,1	0,011083
0,454167	0,1	0,006947
0,455833	0,1	0,025057
0,457500	0,1	0,002005
0,459167	0,1	0,007661
0,460833	0,1	0,002871
0,462500	0,1	-0,005674
0,464167	0,1	0,008312
0,465833	0,1	0,023625
0,467500	0,1	-0,017160
0,469167	0,1	-0,002797
0,470833	0,1	0,020969
0,472500	0,1	0,058058
0,474167	0,1	0,002839
0,475833	0,1	0,023614
0,477500	0,1	0,021434
0,479167	0,1	0,052312
0,480833	0,1	0,017622
0,482500	0,1	0,017697
0,484167	0,1	0,007408
0,485833	0,1	-0,008694
0,487500	0,1	-0,027411
0,489167	0,1	-0,000240
0,490833	0,1	0,002604
0,492500	0,1	-0,011989
0,494167	0,1	0,017232
0,495833	0,1	-0,010315
0,497500	0,1	0,034433
0,499167	0,1	-0,025656
0,500833	0,1	-0,003819
0,502500	0,1	0,006991
0,504167	0,1	0,038135
0,505833	0,1	0,010856
0,507500	0,1	0,039762
0,509167	0,1	0,018463
0,510833	0,1	0,014779
0,512500	0,1	0,000276
0,514167	0,1	0,011827
0,515833	0,1	0,030352
0,517500	0,1	-0,023766
0,519167	0,1	-0,013382
0,520833	0,1	0,037562
0,522500	0,1	0,032516
0,524167	0,1	-0,004723
0,525833	0,1	0,015728
0,527500	0,1	0,004231
0,529167	0,1	-0,013228
0,530833	0,1	0,012393
0,532500	0,1	-0,012694
0,534167	0,1	0,022408
0,535833	0,1	0,013650
0,537500	0,1	0,036667
0,539167	0,1	0,008175
0,540833	0,1	0,021018
0,542500	0,1	0,038221
0,544167	0,1	0,016371
0,545833	0,1	0,015539
0,547500	0,1	0,022606
0,549167	0,1	0,006014
0,550833	0,1	-0,006840
0,552500	0,1	0,014957
0,554167	0,1	-0,004606
0,555833	0,1	0,019352
0,557500	0,1	0,005297
0,559167	0,1	0,008506
0,560833	0,1	-0,009674
0,562500	0,1	0,020415
0,564167	0,1	0,036026
0,565833	0,1	0,025750
0,567500	0,1	0,010254
0,569167	0,1	0,028461
0,570833	0,1	0,024758
0,572500	0,1	0,014293
0,574167	0,1	-0,012124
0,575833	0,1	0,012999
0,577500	0,1	0,000698
0,579167	0,1	0,029028
0,580833	0,1	0,051117
0,582500	0,1	0,000854
0,584167	0,1	-0,016101
0,585833	0,1	0,004307
0,587500	0,1	0,009570
0,589167	0,1	0,034179
0,590833	0,1	0,006438
0,592500	0,1	-0,004490
0,594167	0,1	-0,019049
0,595833	0,1	0,034541
0,597500	0,1	0,046916
0,599167	0,1	0,009958
0,600833	0,1	0,019925
0,602500	0,1	0,010326
0,604167	0,1	0,018907
0,605833	0,1	0,025023
0,607500	0,1	0,053339
0,609167	0,1	0,011850
0,610833	0,1	-0,034135
0,612500	0,1	-0,007665
0,614167	0,1	0,039232
0,615833	0,1	-0,002563
0,617500	0,1	0,005137
0,619167	0,1	0,014629
0,620833	0,1	0,042413
0,622500	0,1	-0,036274
0,624167	0,1	0,028761
0,625833	0,1	0,018948
0,627500	0,1	0,019632
0,629167	0,1	0,024993
0,630833	0,1	0,005492
0,632500	0,1	0,025257
0,634167	0,1	-0,000364
0,635833	0,1	0,018821
0,637500	0,1	0,010253
0,639167	0,1	-0,018062
0,640833	0,1	0,021544
0,642500	0,1	-0,003356
0,644167	0,1	0,007256
0,645833	0,1	0,006542
0,647500	0,1	0,024237
0,649167	0,1	0,030777
0,650833	0,1	0,043933
0,652500	0,1	0,023412
0,654167	0,1	0,017662
0,655833	0,1	0,035429
0,657500	0,1	0,013047
0,659167	0,1	0,026544
0,660833	0,1	-0,002896
0,662500	0,1	0,028541
0,664167	0,1	0,033806
0,665833	0,1	-0,001271
0,667500	0,1	-0,009522
0,669167	0,1	0,014405
0,670833	0,1	-0,007470
0,672500	0,1	-0,004153
0,674167	0,1	-0,006310
0,675833	0,1	0,025402
0,677500	0,1	0,014256
0,679167	0,1	0,031159
0,680833	0,1	0,011266
0,682500	0,1	0,048158
0,684167	0,1	0,031278
0,685833	0,1	-0,001647
0,687500	0,1	0,018867
0,689167	0,1	0,042792
0,690833	0,1	0,002963
0,692500	0,1	0,015730
0,694167	0,1	0,051298
0,695833	0,1	-0,009718
0,697500	0,1	0,048685
0,699167	0,1	-0,011933
0,700833	0,1	0,019130
0,702500	0,1	-0,002825
0,704167	0,1	0,003631
0,705833	0,1	0,002385
0,707500	0,1	0,025521
0,709167	0,1	0,024168
0,710833	0,1	0,059019
0,712500	0,1	0,056790
0,714167	0,1	0,018845
0,715833	0,1	0,014860
0,717500	0,1	-0,002671
0,719167	0,1	0,014370
0,720833	0,1	-0,002377
0,722500	0,1	0,045858
0,724167	0,1	0,015931
0,725833	0,1	0,022726
0,727500	0,1	0,056218
0,729167	0,1	0,068244
0,730833	0,1	0,009585
0,732500	0,1	0,019998
0,734167	0,1	-0,005772
0,735833	0,1	0,038590
0,737500	0,1	0,003117
0,739167	0,1	0,004908
0,740833	0,1	-0,002178
0,742500	0,1	0,023592
0,744167	0,1	0,026583
0,745833	0,1	0,052438
0,747500	0,1	0,063367
0,749167	0,1	0,002737
0,750833	0,1	0,018832
0,752500	0,1	0,012484
0,754167	0,1	0,026728
0,755833	0,1	0,023067
0,757500	0,1	0,028400
0,759167	0,1	0,020986
0,760833	0,1	0,042836
0,762500	0,1	-0,002554
0,764167	0,1	0,021437
0,765833	0,1	0,024130
0,767500	0,1	0,033347
0,769167	0,1	0,023069
0,770833	0,1	0,009722
0,772500	0,1	0,039089
0,774167	0,1	0,048358
0,775833	0,1	0,028590
0,777500	0,1	0,022619
0,779167	0,1	0,031803
0,780833	0,1	0,046162
0,782500	0,1	0,022660
0,784167	0,1	0,012034
0,785833	0,1	0,034813
0,787500	0,1	0,049347
0,789167	0,1	0,029461
0,790833	0,1	0,040757
0,792500	0,1	0,035773
0,794167	0,1	0,059050
0,795833	0,1	0,002516
0,797500	0,1	0,020217
0,799167	0,1	0,021396
0,800833	0,1	0,066956
0,802500	0,1	-0,016975
0,804167	0,1	0,035264
0,805833	0,1	0,029531
0,807500	0,1	0,038230
0,809167	0,1	0,055352
0,810833	0,1	0,035660
0,812500	0,1	0,017407
0,814167	0,1	0,040376
0,815833	0,1	0,049303
0,817500	0,1	0,015253
0,819167	0,1	0,047784
0,820833	0,1	0,049609
0,822500	0,1	0,023267
0,824167	0,1	0,018496
0,825833	0,1	0,059009
0,827500	0,1	0,015743
0,829167	0,1	0,039770
0,830833	0,1	0,024971
0,832500	0,1	0,013771
0,834167	0,1	0,005828
0,835833	0,1	0,024953
0,837500	0,1	0,016642
0,839167	0,1	0,034602
0,840833	0,1	0,008972
0,842500	0,1	0,036334
0,844167	0,1	0,033734
0,845833	0,1	0,032175
0,847500	0,1	0,007880
0,849167	0,1	0,023484
0,850833	0,1	0,012071
0,852500	0,1	0,023863
0,854167	0,1	0,028400
0,855833	0,1	0,044618
0,857500	0,1	0,009057
0,859167	0,1	0,035049
0,860833	0,1	0,075690
0,862500	0,1	0,046135
0,864167	0,1	0,017290
0,865833	0,1	0,012638
0,867500	0,1	0,024084
0,869167	0,1	0,038643
0,870833	0,1	0,018499
0,872500	0,1	0,048396
0,874167	0,1	0,055775
0,875833	0,1	0,054071
0,877500	0,1	0,045386
0,879167	0,1	0,071570
0,880833	0,1	-0,020076
0,882500	0,1	0,019733
0,884167	0,1	0,021332
0,885833	0,1	0,014871
0,887500	0,1	0,061092
0,889167	0,1	0,020478
0,890833	0,1	0,060863
0,892500	0,1	0,021837
0,894167	0,1	0,052932
0,895833	0,1	0,034491
0,897500	0,1	0,018609
0,899167	0,1	0,026398
0,900833	0,1	0,035431
0,902500	0,1	0,023675
0,904167	0,1	0,040303
0,905833	0,1	0,047000
0,907500	0,1	0,017859
0,909167	0,1	0,055879
0,910833	0,1	0,029124
0,912500	0,1	0,030218
0,914167	0,1	0,028814
0,915833	0,1	0,052632
0,917500	0,1	0,053087
0,919167	0,1	0,051506
0,920833	0,1	0,019750
0,922500	0,1	0,021028
0,924167	0,1	0,016192
0,925833	0,1	0,066196
0,927500	0,1	0,009742
0,929167	0,1	0,031763
0,930833	0,1	-0,000501
0,932500	0,1	0,055047
0,934167	0,1	0,024433
0,935833	0,1	0,024278
0,937500	0,1	0,049336
0,939167	0,1	0,029661
0,940833	0,1	0,044692
0,942500	0,1	0,021603
0,944167	0,1	0,013924
0,945833	0,1	0,041890
0,947500	0,1	0,052368
0,949167	0,1	0,037402
0,950833	0,1	0,038601
0,952500	0,1	0,035361
0,954167	0,1	0,044244
0,955833	0,1	0,023228
0,957500	0,1	0,057276
0,959167	0,1	0,013675
0,960833	0,1	0,045257
0,962500	0,1	0,064053
0,964167	0,1	0,054906
0,965833	0,1	0,011252
0,967500	0,1	0,005727
0,969167	0,1	0,007569
0,970833	0,1	0,035353
0,972500	0,1	0,027155
0,974167	0,1	0,028749
0,975833	0,1	0,035358
0,977500	0,1	0,027576
0,979167	0,1	0,039367
0,980833	0,1	0,017977
0,982500	0,1	0,049417
0,984167	0,1	0,030488
0,985833	0,1	0,023262
0,987500	0,1	0,002701
0,989167	0,1	0,026732
0,990833	0,1	0,036458
0,992500	0,1	0,029879
0,994167	0,1	0,020618
0,995833	0,1	0,012980
0,997500	0,1	0,048727
0,999167	0,1	0,027269
1,000833	0,1	0,029050
1,002500	0,1	0,014880
1,004167	0,1	0,003874
1,005833	0,1	0,033167
1,007500	0,1	0,021188
1,009167	0,1	0,031234
1,010833	0,1	0,057630
1,012500	0,1	0,057327
1,014167	0,1	0,056383
1,015833	0,1	0,038989
1,017500	0,1	0,019151
1,019167	0,1	0,048766
1,020833	0,1	0,031093
1,022500	0,1	0,057926
1,024167	0,1	0,044065
1,025833	0,1	0,036573
1,027500	0,1	0,048969
1,029167	0,1	0,046550
1,030833	0,1	0,034483
1,032500	0,1	0,047263
1,034167	0,1	0,020924
1,035833	0,1	0,089036
1,037500	0,1	0,071131
1,039167	0,1	0,034990
1,040833	0,1	0,066132
1,042500	0,1	0,008347
1,044167	0,1	0,045034
1,045833	0,1	0,028596
1,047500	0,1	0,031125
1,049167	0,1	0,011320
1,050833	0,1	-0,001303
1,052500	0,1	0,059129
1,054167	0,1	0,053361
1,055833	0,1	-0,002019
1,057500	0,1	0,023445
1,059167	0,1	0,033620
1,060833	0,1	0,035440
1,062500	0,1	0,027383
1,064167	0,1	0,049197
1,065833	0,1	0,009554
1,067500	0,1	0,096510
1,069167	0,1	0,072950
1,070833	0,1	0,051474
1,072500	0,1	0,036839
1,074167	0,1	0,029732
1,075833	0,1	0,046435
1,077500	0,1	0,032792
1,079167	0,1	0,027923
1,080833	0,1	0,031319
1,082500	0,1	0,035365
1,084167	0,1	0,068702
1,085833	0,1	0,052420
1,087500	0,1	0,031583
1,089167	0,1	0,035513
1,090833	0,1	0,057816
1,092500	0,1	0,039337
1,094167	0,1	0,030027
1,095833	0,1	0,017259
1,097500	0,1	0,019943
1,099167	0,1	0,054904
1,100833	0,1	0,051316
1,102500	0,1	0,071918
1,104167	0,1	0,059974
1,105833	0,1	0,007060
1,107500	0,1	0,049457
1,109167	0,1	0,044475
1,110833	0,1	0,076525
1,112500	0,1	0,042216
1,114167	0,1	0,053499
1,115833	0,1	0,033517
1,117500	0,1	0,019408
1,119167	0,1	0,055620
1,120833	0,1	0,050074
1,122500	0,1	0,038545
1,124167	0,1	0,038994
1,125833	0,1	0,036424
1,127500	0,1	0,055320
1,129167	0,1	0,042816
1,130833	0,1	0,055581
1,132500	0,1	0,063907
1,134167	0,1	0,033181
1,135833	0,1	0,048400
1,137500	0,1	0,038161
1,139167	0,1	0,047915
1,140833	0,1	0,086654
1,142500	0,1	0,035646
1,144167	0,1	0,060196
1,145833	0,1	0,028416
1,147500	0,1	0,013367
1,149167	0,1	0,021789
1,150833	0,1	0,057202
1,152500	0,1	0,037750
1,154167	0,1	0,051170
1,155833	0,1	0,058013
1,157500	0,1	0,028224
1,159167	0,1	0,052106
1,160833	0,1	0,029551
1,162500	0,1	0,045829
1,164167	0,1	0,056417
1,165833	0,1	0,001432
1,167500	0,1	0,074056
1,169167	0,1	0,048557
1,170833	0,1	0,029092
1,172500	0,1	0,069684
1,174167	0,1	0,035826
1,175833	0,1	0,057285
1,177500	0,1	0,043007
1,179167	0,1	0,036047
1,180833	0,1	0,037936
1,182500	0,1	0,038773
1,184167	0,1	0,026446
1,185833	0,1	0,001462
1,187500	0,1	0,028853
1,189167	0,1	0,080945
1,190833	0,1	0,011489
1,192500	0,1	0,067715
1,194167	0,1	0,030723
1,195833	0,1	0,069079
1,197500	0,1	0,022030
1,199167	0,1	0,041862
1,200833	0,1	0,027193
1,202500	0,1	0,016010
1,204167	0,1	0,065603
1,205833	0,1	0,053474
1,207500	0,1	0,030609
1,209167	0,1	0,039561
1,210833	0,1	0,034762
1,212500	0,1	0,012120
1,214167	0,1	0,037894
1,215833	0,1	0,051244
1,217500	0,1	0,043384
1,219167	0,1	0,042856
1,220833	0,1	0,054230
1,222500	0,1	0,051737
1,224167	0,1	0,067124
1,225833	0,1	0,047700
1,227500	0,1	0,043263
1,229167	0,1	0,049090
1,230833	0,1	0,027165
1,232500	0,1	0,021277
1,234167	0,1	0,049617
1,235833	0,1	0,020814
1,237500	0,1	0,029426
1,239167	0,1	0,054869
1,240833	0,1	0,087154
1,242500	0,1	0,038932
1,244167	0,1	0,070778
1,245833	0,1	0,029408
1,247500	0,1	0,056950
1,249167	0,1	0,054794
1,250833	0,1	0,023844
1,252500	0,1	0,048443
1,254167	0,1	0,046743
1,255833	0,1	0,065640
1,257500	0,1	0,030123
1,259167	0,1	0,055171
1,260833	0,1	0,020889
1,262500	0,1	0,015942
1,264167	0,1	0,032948
1,265833	0,1	0,070933
1,267500	0,1	0,077631
1,269167	0,1	0,095884
1,270833	0,1	0,065208
1,272500	0,1	0,031365
1,274167	0,1	0,074750
1,275833	0,1	0,060100
1,277500	0,1	0,032086
1,279167	0,1	0,062881
1,280833	0,1	0,072909
1,282500	0,1	0,059266
1,284167	0,1	0,027626
1,285833	0,1	0,048259
1,287500	0,1	0,097662
1,289167	0,1	0,054280
1,290833	0,1	0,061337
1,292500	0,1	0,044745
1,294167	0,1	0,082011
1,295833	0,1	0,038399
1,297500	0,1	0,030421
1,299167	0,1	0,084882
1,300833	0,1	0,055451
1,302500	0,1	0,063492
1,304167	0,1	0,045351
1,305833	0,1	0,047769
1,307500	0,1	0,023604
1,309167	0,1	0,067340
1,310833	0,1	0,069883
1,312500	0,1	0,036696
1,314167	0,1	0,023950
1,315833	0,1	0,056491
1,317500	0,1	0,033407
1,319167	0,1	0,062993
1,320833	0,1	0,059523
1,322500	0,1	0,114977
1,324167	0,1	0,062222
1,325833	0,1	0,080656
1,327500	0,1	0,040369
1,329167	0,1	0,047648
1,330833	0,1	0,045126
1,332500	0,1	0,041270
1,334167	0,1	0,102423
1,335833	0,1	0,032665
1,337500	0,1	0,049656
1,339167	0,1	0,036811
1,340833	0,1	0,072409
1,342500	0,1	0,072190
1,344167	0,1	0,074006
1,345833	0,1	0,084354
1,347500	0,1	0,052091
1,349167	0,1	0,037335
1,350833	0,1	0,065151
1,352500	0,1	0,045994
1,354167	0,1	0,117236
1,355833	0,1	0,071786
1,357500	0,1	0,090531
1,359167	0,1	0,043925
1,360833	0,1	0,052945
1,362500	0,1	0,063722
1,364167	0,1	0,029858
1,365833	0,1	0,019488
1,367500	0,1	0,062841
1,369167	0,1	0,078494
1,370833	0,1	0,053374
1,372500	0,1	0,050872
1,374167	0,1	0,069430
1,375833	0,1	0,038780
1,377500	0,1	0,101211
1,379167	0,1	0,062750
1,380833	0,1	0,075820
1,382500	0,1	0,070721
1,384167	0,1	0,043957
1,385833	0,1	0,081784
1,387500	0,1	0,078313
1,389167	0,1	0,045702
1,390833	0,1	0,050603
1,392500	0,1	0,093690
1,394167	0,1	0,073937
1,395833	0,1	0,030650
1,397500	0,1	0,074145
1,399167	0,1	0,047281
1,400833	0,1	0,026596
1,402500	0,1	0,053848
1,404167	0,1	0,081786
1,405833	0,1	0,041618
1,407500	0,1	0,048180
1,409167	0,1	0,089989
1,410833	0,1	0,052240
1,412500	0,1	0,060546
1,414167	0,1	0,061270
1,415833	0,1	0,041385
1,417500	0,1	0,077402
1,419167	0,1	0,063048
1,420833	0,1	0,003555
1,422500	0,1	0,105548
1,424167	0,1	0,071902
1,425833	0,1	0,088710
1,427500	0,1	0,032019
1,429167	0,1	0,076752
1,430833	0,1	0,087308
1,432500	0,1	0,082244
1,434167	0,1	0,045245
1,435833	0,1	0,069730
1,437500	0,1	0,052005
1,439167	0,1	0,015344
1,440833	0,1	0,052796
1,442500	0,1	0,066667
1,444167	0,1	0,101448
1,445833	0,1	0,061880
1,447500	0,1	0,065837
1,449167	0,1	0,040513
1,450833	0,1	0,111228
1,452500	0,1	0,047333
1,454167	0,1	0,076909
1,455833	0,1	0,046719
1,457500	0,1	0,080084
1,459167	0,1	0,072877
1,460833	0,1	0,006090
1,462500	0,1	0,055017
1,464167	0,1	0,019687
1,465833	0,1	0,073801
1,467500	0,1	0,072907
1,469167	0,1	0,074760
1,470833	0,1	0,107121
1,472500	0,1	0,083880
1,474167	0,1	0,063840
1,475833	0,1	0,056768
1,477500	0,1	0,079452
1,479167	0,1	0,059873
1,480833	0,1	0,051627
1,482500	0,1	0,058928
1,484167	0,1	0,083831
1,485833	0,1	0,068491
1,487500	0,1	0,103072
1,489167	0,1	0,060823
1,490833	0,1	0,089651
1,492500	0,1	0,081869
1,494167	0,1	0,070159
1,495833	0,1	0,073628
1,497500	0,1	0,059946
1,499167	0,1	0,079218
1,500833	0,1	0,056962
1,502500	0,1	0,059299
1,504167	0,1	0,062777
1,505833	0,1	0,087539
1,507500	0,1	0,084023
1,509167	0,1	0,079755
1,510833	0,1	0,079413
1,512500	0,1	0,072612
1,514167	0,1	0,078805
1,515833	0,1	0,081760
1,517500	0,1	0,074009
1,519167	0,1	0,095518
1,520833	0,1	0,077262
1,522500	0,1	0,080136
1,524167	0,1	0,081266
1,525833	0,1	0,105344
1,527500	0,1	0,049975
1,529167	0,1	0,078153
1,530833	0,1	0,060663
1,532500	0,1	0,078884
1,534167	0,1	0,090491
1,535833	0,1	0,061877
1,537500	0,1	0,058090
1,539167	0,1	0,108135
1,540833	0,1	0,072352
1,542500	0,1	0,108893
1,544167	0,1	0,038301
1,545833	0,1	0,096338
1,547500	0,1	0,077978
1,549167	0,1	0,075335
1,550833	0,1	0,069737
1,552500	0,1	0,041424
1,554167	0,1	0,064288
1,555833	0,1	0,095664
1,557500	0,1	0,096575
1,559167	0,1	0,086299
1,560833	0,1	0,087656
1,562500	0,1	0,094081
1,564167	0,1	0,077489
1,565833	0,1	0,060515
1,567500	0,1	0,071285
1,569167	0,1	0,064036
1,570833	0,1	0,088441
1,572500	0,1	0,089925
1,574167	0,1	0,075753
1,575833	0,1	0,078621
1,577500	0,1	0,107653
1,579167	0,1	0,086264
1,580833	0,1	0,119444
1,582500	0,1	0,083730
1,584167	0,1	0,069858
1,585833	0,1	0,098199
1,587500	0,1	0,057572
1,589167	0,1	0,101408
1,590833	0,1	0,099454
1,592500	0,1	0,050432
1,594167	0,1	0,042142
1,595833	0,1	0,081264
1,597500	0,1	0,073445
1,599167	0,1	0,072499
1,600833	0,1	0,063047
1,602500	0,1	0,051222
1,604167	0,1	0,100233
1,605833	0,1	0,110455
1,607500	0,1	0,110495
1,609167	0,1	0,124515
1,610833	0,1	0,099571
1,612500	0,1	0,075311
1,614167	0,1	0,045929
1,615833	0,1	0,065912
1,617500	0,1	0,101830
1,619167	0,1	0,080975
1,620833	0,1	0,058890
1,622500	0,1	0,091277
1,624167	0,1	0,101948
1,625833	0,1	0,077411
1,627500	0,1	0,084139
1,629167	0,1	0,040490
1,630833	0,1	0,074802
1,632500	0,1	0,066080
1,634167	0,1	0,112520
1,635833	0,1	0,067900
1,637500	0,1	0,086440
1,639167	0,1	0,073447
1,640833	0,1	0,063616
1,642500	0,1	0,102695
1,644167	0,1	0,058904
1,645833	0,1	0,078204
1,647500	0,1	0,042305
1,649167	0,1	0,086323
1,650833	0,1	0,059881
1,652500	0,1	0,125792
1,654167	0,1	0,089444
1,655833	0,1	0,071866
1,657500	0,1	0,106137
1,659167	0,1	0,051496
1,660833	0,1	0,076799
1,662500	0,1	0,091817
1,664167	0,1	0,101495
1,665833	0,1	0,062380
1,667500	0,1	0,104893
1,669167	0,1	0,093862
1,670833	0,1	0,101231
1,672500	0,1	0,044238
1,674167	0,1	0,048610
1,675833	0,1	0,074273
1,677500	0,1	0,083192
1,679167	0,1	0,096353
1,680833	0,1	0,092538
1,682500	0,1	0,091779
1,684167	0,1	0,096808
1,685833	0,1	0,114306
1,687500	0,1	0,109285
1,689167	0,1	0,075004
1,690833	0,1	0,072352
1,692500	0,1	0,081005
1,694167	0,1	0,094692
1,695833	0,1	0,055570
1,697500	0,1	0,116339
1,699167	0,1	0,114013
1,700833	0,1	0,087971
1,702500	0,1	0,087890
1,704167	0,1	0,107692
1,705833	0,1	0,100325
1,707500	0,1	0,084602
1,709167	0,1	0,098429
1,710833	0,1	0,071905
1,712500	0,1	0,078479
1,714167	0,1	0,068762
1,715833	0,1	0,130102
1,717500	0,1	0,087258
1,719167	0,1	0,102478
1,720833	0,1	0,101806
1,722500	0,1	0,083916
1,724167	0,1	0,072354
1,725833	0,1	0,081346
1,727500	0,1	0,078054
1,729167	0,1	0,053758
1,730833	0,1	0,103038
1,732500	0,1	0,042732
1,734167	0,1	0,071509
1,735833	0,1	0,085275
1,737500	0,1	0,067132
1,739167	0,1	0,108330
1,740833	0,1	0,118583
1,742500	0,1	0,090011
1,744167	0,1	0,024200
1,745833	0,1	0,073555
1,747500	0,1	0,067175
1,749167	0,1	0,096806
1,750833	0,1	0,101269
1,752500	0,1	0,106982
1,754167	0,1	0,102976
1,755833	0,1	0,057241
1,757500	0,1	0,115814
1,759167	0,1	0,081089
1,760833	0,1	0,077987
1,762500	0,1	0,032859
1,764167	0,1	0,033454
1,765833	0,1	0,099368
1,767500	0,1	0,072778
1,769167	0,1	0,055269
1,770833	0,1	0,111161
1,772500	0,1	0,097986
1,774167	0,1	0,084680
1,775833	0,1	0,087205
1,777500	0,1	0,082590
1,779167	0,1	0,041138
1,780833	0,1	0,074913
1,782500	0,1	0,057655
1,784167	0,1	0,047815
1,785833	0,1	0,068342
1,787500	0,1	0,097864
1,789167	0,1	0,109738
1,790833	0,1	0,106795
1,792500	0,1	0,092808
1,794167	0,1	0,082450
1,795833	0,1	0,077300
1,797500	0,1	0,103122
1,799167	0,1	0,093862
1,800833	0,1	0,125805
1,802500	0,1	0,077121
1,804167	0,1	0,079721
1,805833	0,1	0,091330
1,807500	0,1	0,095448
1,809167	0,1	0,106754
1,810833	0,1	0,083286
1,812500	0,1	0,055618
1,814167	0,1	0,075522
1,815833	0,1	0,115362
1,817500	0,1	0,098782
1,819167	0,1	0,093638
1,820833	0,1	0,043031
1,822500	0,1	0,075784
1,824167	0,1	0,100399
1,825833	0,1	0,089939
1,827500	0,1	0,103767
1,829167	0,1	0,076972
1,830833	0,1	0,084330
1,832500	0,1	0,096650
1,834167	0,1	0,105804
1,835833	0,1	0,087820
1,837500	0,1	0,071903
1,839167	0,1	0,116423
1,840833	0,1	0,071497
1,842500	0,1	0,088636
1,844167	0,1	0,114764
1,845833	0,1	0,086983
1,847500	0,1	0,101994
1,849167	0,1	0,072660
1,850833	0,1	0,069329
1,852500	0,1	0,111925
1,854167	0,1	0,100482
1,855833	0,1	0,090236
1,857500	0,1	0,105617
1,859167	0,1	0,062537
1,860833	0,1	0,098691
1,862500	0,1	0,057993
1,864167	0,1	0,084782
1,865833	0,1	0,059127
1,867500	0,1	0,109390
1,869167	0,1	0,100258
1,870833	0,1	0,104635
1,872500	0,1	0,077541
1,874167	0,1	0,087888
1,875833	0,1	0,093524
1,877500	0,1	0,114160
1,879167	0,1	0,061365
1,880833	0,1	0,129951
1,882500	0,1	0,126833
1,884167	0,1	0,077546
1,885833	0,1	0,102145
1,887500	0,1	0,099533
1,889167	0,1	0,098704
1,890833	0,1	0,073833
1,892500	0,1	0,086639
1,894167	0,1	0,099722
1,895833	0,1	0,096925
1,897500	0,1	0,107816
1,899167	0,1	0,072508
1,900833	0,1	0,095900
1,902500	0,1	0,128413
1,904167	0,1	0,079054
1,905833	0,1	0,052215
1,907500	0,1	0,112563
1,909167	0,1	0,036421
1,910833	0,1	0,081646
1,912500	0,1	0,095074
1,914167	0,1	0,073382
1,915833	0,1	0,075947
1,917500	0,1	0,093294
1,919167	0,1	0,106981
1,920833	0,1	0,093454
1,922500	0,1	0,093785
1,924167	0,1	0,090350
1,925833	0,1	0,109742
1,927500	0,1	0,071990
1,929167	0,1	0,102935
1,930833	0,1	0,107625
1,932500	0,1	0,115867
1,934167	0,1	0,089412
1,935833	0,1	0,100821
1,937500	0,1	0,129774
1,939167	0,1	0,050484
1,940833	0,1	0,102016
1,942500	0,1	0,119876
1,944167	0,1	0,144784
1,945833	0,1	0,086434
1,947500	0,1	0,114577
1,949167	0,1	0,114813
1,950833	0,1	0,078148
1,952500	0,1	0,084794
1,954167	0,1	0,110607
1,955833	0,1	0,124258
1,957500	0,1	0,134011
1,959167	0,1	0,126116
1,960833	0,1	0,113829
1,962500	0,1	0,075845
1,964167	0,1	0,116800
1,965833	0,1	0,078717
1,967500	0,1	0,094770
1,969167	0,1	0,091865
1,970833	0,1	0,098635
1,972500	0,1	0,086571
1,974167	0,1	0,076555
1,975833	0,1	0,082674
1,977500	0,1	0,051425
1,979167	0,1	0,098885
1,980833	0,1	0,102974
1,982500	0,1	0,102258
1,984167	0,1	0,046666
1,985833	0,1	0,088449
1,987500	0,1	0,109248
1,989167	0,1	0,141267
1,990833	0,1	0,131938
1,992500	0,1	0,086809
1,994167	0,1	0,116430
1,995833	0,1	0,132953
1,997500	0,1	0,092287
1,999167	0,1	0,080449
2,000833	0,1	0,138610
2,002500	0,1	0,109785
2,004167	0,1	0,079514
2,005833	0,1	0,106145
2,007500	0,1	0,125958
2,009167	0,1	0,117911
2,010833	0,1	0,111257
2,012500	0,1	0,055398
2,014167	0,1	0,094913
2,015833	0,1	0,130344
2,017500	0,1	0,095309
2,019167	0,1	0,072053
2,020833	0,1	0,073678
2,022500	0,1	0,110412
2,024167	0,1	0,127508
2,025833	0,1	0,123849
2,027500	0,1	0,115793
2,029167	0,1	0,110354
2,030833	0,1	0,079996
2,032500	0,1	0,079766
2,034167	0,1	0,124139
2,035833	0,1	0,099162
2,037500	0,1	0,105210
2,039167	0,1	0,111034
2,040833	0,1	0,110538
2,042500	0,1	0,057893
2,044167	0,1	0,095444
2,045833	0,1	0,073271
2,047500	0,1	0,139446
2,049167	0,1	0,097658
2,050833	0,1	0,073536
2,052500	0,1	0,084983
2,054167	0,1	0,080484
2,055833	0,1	0,075113
2,057500	0,1	0,077991
2,059167	0,1	0,106527
2,060833	0,1	0,120929
2,062500	0,1	0,133709
2,064167	0,1	0,096562
2,065833	0,1	0,110687
2,067500	0,1	0,063977
2,069167	0,1	0,083543
2,070833	0,1	0,066238
2,072500	0,1	0,090499
2,074167	0,1	0,114196
2,075833	0,1	0,105893
2,077500	0,1	0,138019
2,079167	0,1	0,091720
2,080833	0,1	0,092358
2,082500	0,1	0,107666
2,084167	0,1	0,083966
2,085833	0,1	0,074966
2,087500	0,1	0,069108
2,089167	0,1	0,113893
2,090833	0,1	0,107252
2,092500	0,1	0,098446
2,094167	0,1	0,107063
2,095833	0,1	0,086803
2,097500	0,1	0,097720
2,099167	0,1	0,097690
2,100833	0,1	0,077769
2,102500	0,1	0,118203
2,104167	0,1	0,073121
2,105833	0,1	0,108409
2,107500	0,1	0,113304
2,109167	0,1	0,100110
2,110833	0,1	0,095647
2,112500	0,1	0,113561
2,114167	0,1	0,105967
2,115833	0,1	0,112506
2,117500	0,1	0,100943
2,119167	0,1	0,087407
2,120833	0,1	0,120170
2,122500	0,1	0,082956
2,124167	0,1	0,140962
2,125833	0,1	0,095427
2,127500	0,1	0,095045
2,129167	0,1	0,070553
2,130833	0,1	0,086341
2,132500	0,1	0,105281
2,134167	0,1	0,109671
2,135833	0,1	0,088130
2,137500	0,1	0,085889
2,139167	0,1	0,063328
2,140833	0,1	0,106071
2,142500	0,1	0,124369
2,144167	0,1	0,112739
2,145833	0,1	0,095272
2,147500	0,1	0,077316
2,149167	0,1	0,128598
2,150833	0,1	0,098562
2,152500	0,1	0,100297
2,154167	0,1	0,125922
2,155833	0,1	0,088245
2,157500	0,1	0,090430
2,159167	0,1	0,109705
2,160833	0,1	0,099163
2,162500	0,1	0,105061
2,164167	0,1	0,076528
2,165833	0,1	0,120059
2,167500	0,1	0,091797
2,169167	0,1	0,098973
2,170833	0,1	0,132384
2,172500	0,1	0,143957
2,174167	0,1	0,124951
2,175833	0,1	0,107749
2,177500	0,1	0,124831
2,179167	0,1	0,093804
2,180833	0,1	0,106795
2,182500	0,1	0,104302
2,184167	0,1	0,092893
2,185833	0,1	0,128757
2,187500	0,1	0,068861
2,189167	0,1	0,108983
2,190833	0,1	0,096025
2,192500	0,1	0,087936
2,194167	0,1	0,108801
2,195833	0,1	0,121312
2,197500	0,1	0,099734
2,199167	0,1	0,098143
2,200833	0,1	0,095535
2,202500	0,1	0,096256
2,204167	0,1	0,092211
2,205833	0,1	0,112837
2,207500	0,1	0,078420
2,209167	0,1	0,065032
2,210833	0,1	0,088156
2,212500	0,1	0,132229
2,214167	0,1	0,100342
2,215833	0,1	0,091117
2,217500	0,1	0,109594
2,219167	0,1	0,087334
2,220833	0,1	0,104527
2,222500	0,1	0,106915
2,224167	0,1	0,099508
2,225833	0,1	0,114469
2,227500	0,1	0,129063
2,229167	0,1	0,073519
2,230833	0,1	0,152981
2,232500	0,1	0,138222
2,234167	0,1	0,136518
2,235833	0,1	0,109456
2,237500	0,1	0,069795
2,239167	0,1	0,123155
2,240833	0,1	0,123656
2,242500	0,1	0,130537
2,244167	0,1	0,093616
2,245833	0,1	0,105776
2,247500	0,1	0,110652
2,249167	0,1	0,091651
2,250833	0,1	0,100863
2,252500	0,1	0,103851
2,254167	0,1	0,125929
2,255833	0,1	0,076385
2,257500	0,1	0,104981
2,259167	0,1	0,102374
2,260833	0,1	0,113228
2,262500	0,1	0,090510
2,264167	0,1	0,101580
2,265833	0,1	0,094021
2,267500	0,1	0,111904
2,269167	0,1	0,110735
2,270833	0,1	0,157071
2,272500	0,1	0,120420
2,274167	0,1	0,113381
2,275833	0,1	0,134128
2,277500	0,1	0,117695
2,279167	0,1	0,117989
2,280833	0,1	0,124116
2,282500	0,1	0,123320
2,284167	0,1	0,130313
2,285833	0,1	0,108514
2,287500	0,1	0,110085
2,289167	0,1	0,087228
2,290833	0,1	0,106384
2,292500	0,1	0,122711
2,294167	0,1	0,107147
2,295833	0,1	0,121767
2,297500	0,1	0,100829
2,299167	0,1	0,145160
2,300833	0,1	0,115010
2,302500	0,1	0,064250
2,304167	0,1	0,134495
2,305833	0,1	0,120455
2,307500	0,1	0,084883
2,309167	0,1	0,119987
2,310833	0,1	0,085829
2,312500	0,1	0,143421
2,314167	0,1	0,134890
2,315833	0,1	0,104654
2,317500	0,1	0,133937
2,319167	0,1	0,157075
2,320833	0,1	0,149865
2,322500	0,1	0,138067
2,324167	0,1	0,127864
2,325833	0,1	0,157492
2,327500	0,1	0,123064
2,329167	0,1	0,117879
2,330833	0,1	0,103027
2,332500	0,1	0,169769
2,334167	0,1	0,127490
2,335833	0,1	0,117576
2,337500	0,1	0,140853
2,339167	0,1	0,135081
2,340833	0,1	0,160970
2,342500	0,1	0,108670
2,344167	0,1	0,113754
2,345833	0,1	0,128911
2,347500	0,1	0,113048
2,349167	0,1	0,157789
2,350833	0,1	0,148429
2,352500	0,1	0,114592
2,354167	0,1	0,149322
2,355833	0,1	0,114974
2,357500	0,1	0,127477
2,359167	0,1	0,139123
2,360833	0,1	0,165092
2,362500	0,1	0,126319
2,364167	0,1	0,133001
2,365833	0,1	0,103629
2,367500	0,1	0,113377
2,369167	0,1	0,110654
2,370833	0,1	0,168599
2,372500	0,1	0,136786
2,374167	0,1	0,144942
2,375833	0,1	0,178057
2,377500	0,1	0,116644
2,379167	0,1	0,122794
2,380833	0,1	0,132014
2,382500	0,1	0,130958
2,384167	0,1	0,144605
2,385833	0,1	0,185314
2,387500	0,1	0,121106
2,389167	0,1	0,131710
2,390833	0,1	0,132165
2,392500	0,1	0,170568
2,394167	0,1	0,159885
2,395833	0,1	0,154287
2,397500	0,1	0,153493
2,399167	0,1	0,164946
2,400833	0,1	0,149260
2,402500	0,1	0,170048
2,404167	0,1	0,144196
2,405833	0,1	0,163166
2,407500	0,1	0,119400
2,409167	0,1	0,175556
2,410833	0,1	0,084674
2,412500	0,1	0,142586
2,414167	0,1	0,128539
2,415833	0,1	0,158854
2,417500	0,1	0,122873
2,419167	0,1	0,142297
2,420833	0,1	0,157383
2,422500	0,1	0,123977
2,424167	0,1	0,166449
2,425833	0,1	0,144464
2,427500	0,1	0,149295
2,429167	0,1	0,157417
2,430833	0,1	0,138450
2,432500	0,1	0,164408
2,434167	0,1	0,136561
2,435833	0,1	0,158893
2,437500	0,1	0,124918
2,439167	0,1	0,180167
2,440833	0,1	0,179388
2,442500	0,1	0,142233
2,444167	0,1	0,145663
2,445833	0,1	0,183236
2,447500	0,1	0,162154
2,449167	0,1	0,174056
2,450833	0,1	0,162000
2,452500	0,1	0,169822
2,454167	0,1	0,123899
2,455833	0,1	0,160362
2,457500	0,1	0,174544
2,459167	0,1	0,186722
2,460833	0,1	0,180032
2,462500	0,1	0,166612
2,464167	0,1	0,193484
2,465833	0,1	0,187707
2,467500	0,1	0,170357
2,469167	0,1	0,174359
2,470833	0,1	0,172924
2,472500	0,1	0,185321
2,474167	0,1	0,180676
2,475833	0,1	0,174512
2,477500	0,1	0,125642
2,479167	0,1	0,212865
2,480833	0,1	0,142166
2,482500	0,1	0,179266
2,484167	0,1	0,221231
2,485833	0,1	0,172556
2,487500	0,1	0,165776
2,489167	0,1	0,189249
2,490833	0,1	0,199348
2,492500	0,1	0,184647
2,494167	0,1	0,202146
2,495833	0,1	0,157505
2,497500	0,1	0,157723
2,499167	0,1	0,189210
2,500833	0,1	0,180109
2,502500	0,1	0,192958
2,504167	0,1	0,169829
2,505833	0,1	0,194921
2,507500	0,1	0,214960
2,509167	0,1	0,190888
2,510833	0,1	0,133958
2,512500	0,1	0,191586
2,514167	0,1	0,170208
2,515833	0,1	0,174925
2,517500	0,1	0,167291
2,519167	0,1	0,208188
2,520833	0,1	0,154824
2,522500	0,1	0,196428
2,524167	0,1	0,181282
2,525833	0,1	0,219379
2,527500	0,1	0,230956
2,529167	0,1	0,218144
2,530833	0,1	0,169041
2,532500	0,1	0,212233
2,534167	0,1	0,217763
2,535833	0,1	0,197314
2,537500	0,1	0,189370
2,539167	0,1	0,203317
2,540833	0,1	0,236397
2,542500	0,1	0,237047
2,544167	0,1	0,224837
2,545833	0,1	0,206199
2,547500	0,1	0,184194
2,549167	0,1	0,190087
2,550833	0,1	0,228002
2,552500	0,1	0,232925
2,554167	0,1	0,220148
2,555833	0,1	0,245549
2,557500	0,1	0,194901
2,559167	0,1	0,211559
2,560833	0,1	0,199770
2,562500	0,1	0,235715
2,564167	0,1	0,247480
2,565833	0,1	0,236786
2,567500	0,1	0,239314
2,569167	0,1	0,208507
2,570833	0,1	0,221919
2,572500	0,1	0,194028
2,574167	0,1	0,213448
2,575833	0,1	0,236511
2,577500	0,1	0,249483
2,579167	0,1	0,216449
2,580833	0,1	0,238290
2,582500	0,1	0,224195
2,584167	0,1	0,232772
2,585833	0,1	0,209715
2,587500	0,1	0,209142
2,589167	0,1	0,224869
2,590833	0,1	0,258214
2,592500	0,1	0,199819
2,594167	0,1	0,217456
2,595833	0,1	0,266187
2,597500	0,1	0,263780
2,599167	0,1	0,242233
2,600833	0,1	0,232133
2,602500	0,1	0,275075
2,604167	0,1	0,252176
2,605833	0,1	0,226618
2,607500	0,1	0,254321
2,609167	0,1	0,260073
2,610833	0,1	0,253458
2,612500	0,1	0,248164
2,614167	0,1	0,255346
2,615833	0,1	0,271642
2,617500	0,1	0,245448
2,619167	0,1	0,247746
2,620833	0,1	0,279466
2,622500	0,1	0,221446
2,624167	0,1	0,255301
2,625833	0,1	0,295459
2,627500	0,1	0,276375
2,629167	0,1	0,250135
2,630833	0,1	0,275269
2,632500	0,1	0,293498
2,634167	0,1	0,281402
2,635833	0,1	0,268510
2,637500	0,1	0,242459
2,639167	0,1	0,278632
2,640833	0,1	0,230101
2,642500	0,1	0,238783
2,644167	0,1	0,299422
2,645833	0,1	0,281783
2,647500	0,1	0,257623
2,649167	0,1	0,266197
2,650833	0,1	0,272664
2,652500	0,1	0,306124
2,654167	0,1	0,269612
2,655833	0,1	0,295612
2,657500	0,1	0,295051
2,659167	0,1	0,293766
2,660833	0,1	0,302273
2,662500	0,1	0,269535
2,664167	0,1	0,311756
2,665833	0,1	0,261825
2,667500	0,1	0,310468
2,669167	0,1	0,290933
2,670833	0,1	0,269760
2,672500	0,1	0,306841
2,674167	0,1	0,300272
2,675833	0,1	0,320985
2,677500	0,1	0,287874
2,679167	0,1	0,265412
2,680833	0,1	0,253988
2,682500	0,1	0,313984
2,684167	0,1	0,298079
2,685833	0,1	0,296299
2,687500	0,1	0,287792
2,689167	0,1	0,298038
2,690833	0,1	0,283901
2,692500	0,1	0,284955
2,694167	0,1	0,346614
2,695833	0,1	0,284138
2,697500	0,1	0,329603
2,699167	0,1	0,271545
2,700833	0,1	0,319202
2,702500	0,1	0,323337
2,704167	0,1	0,301865
2,705833	0,1	0,303899
2,707500	0,1	0,349761
2,709167	0,1	0,345879
2,710833	0,1	0,335026
2,712500	0,1	0,320732
2,714167	0,1	0,281902
2,715833	0,1	0,345519
2,717500	0,1	0,356010
2,719167	0,1	0,318770
2,720833	0,1	0,374645
2,722500	0,1	0,337338
2,724167	0,1	0,313247
2,725833	0,1	0,345187
2,727500	0,1	0,331661
2,729167	0,1	0,332943
2,730833	0,1	0,351806
2,732500	0,1	0,351854
2,734167	0,1	0,368033
2,735833	0,1	0,379118
2,737500	0,1	0,348833
2,739167	0,1	0,357334
2,740833	0,1	0,317903
2,742500	0,1	0,344851
2,744167	0,1	0,351242
2,745833	0,1	0,342099
2,747500	0,1	0,380436
2,749167	0,1	0,351409
2,750833	0,1	0,334009
2,752500	0,1	0,332301
2,754167	0,1	0,334496
2,755833	0,1	0,336578
2,757500	0,1	0,351812
2,759167	0,1	0,326748
2,760833	0,1	0,364137
2,762500	0,1	0,355185
2,764167	0,1	0,345955
2,765833	0,1	0,349771
2,767500	0,1	0,379037
2,769167	0,1	0,354470
2,770833	0,1	0,366072
2,772500	0,1	0,376584
2,774167	0,1	0,352579
2,775833	0,1	0,376885
2,777500	0,1	0,388423
2,779167	0,1	0,405629
2,780833	0,1	0,365253
2,782500	0,1	0,376888
2,784167	0,1	0,380748
2,785833	0,1	0,394395
2,787500	0,1	0,355341
2,789167	0,1	0,384522
2,790833	0,1	0,386720
2,792500	0,1	0,408881
2,794167	0,1	0,358861
2,795833	0,1	0,373292
2,797500	0,1	0,386494
2,799167	0,1	0,406991
2,800833	0,1	0,366008
2,802500	0,1	0,381465
2,804167	0,1	0,375264
2,805833	0,1	0,375646
2,807500	0,1	0,403208
2,809167	0,1	0,393534
2,810833	0,1	0,414365
2,812500	0,1	0,401436
2,814167	0,1	0,393988
2,815833	0,1	0,413414
2,817500	0,1	0,393156
2,819167	0,1	0,436866
2,820833	0,1	0,405036
2,822500	0,1	0,430820
2,824167	0,1	0,392105
2,825833	0,1	0,422048
2,827500	0,1	0,415092
2,829167	0,1	0,412629
2,830833	0,1	0,405485
2,832500	0,1	0,388885
2,834167	0,1	0,455958
2,835833	0,1	0,384166
2,837500	0,1	0,401886
2,839167	0,1	0,456869
2,840833	0,1	0,442173
2,842500	0,1	0,445994
2,844167	0,1	0,449397
2,845833	0,1	0,420545
2,847500	0,1	0,401972
2,849167	0,1	0,399504
2,850833	0,1	0,400377
2,852500	0,1	0,426730
2,854167	0,1	0,443225
2,855833	0,1	0,455445
2,857500	0,1	0,477533
2,859167	0,1	0,450464
2,860833	0,1	0,456393
2,862500	0,1	0,437678
2,864167	0,1	0,469132
2,865833	0,1	0,436428
2,867500	0,1	0,434986
2,869167	0,1	0,407419
2,870833	0,1	0,442200
2,872500	0,1	0,432493
2,874167	0,1	0,460401
2,875833	0,1	0,454047
2,877500	0,1	0,479236
2,879167	0,1	0,457685
2,880833	0,1	0,466455
2,882500	0,1	0,485241
2,884167	0,1	0,483179
2,885833	0,1	0,471753
2,887500	0,1	0,465289
2,889167	0,1	0,483244
2,890833	0,1	0,439840
2,892500	0,1	0,421224
2,894167	0,1	0,486194
2,895833	0,1	0,476827
2,897500	0,1	0,468459
2,899167	0,1	0,493162
2,900833	0,1	0,496753
2,902500	0,1	0,503757
2,904167	0,1	0,465025
2,905833	0,1	0,484615
2,907500	0,1	0,486510
2,909167	0,1	0,484048
2,910833	0,1	0,461202
2,912500	0,1	0,459988
2,914167	0,1	0,472847
2,915833	0,1	0,464879
2,917500	0,1	0,507190
2,919167	0,1	0,513326
2,920833	0,1	0,476229
2,922500	0,1	0,463888
2,924167	0,1	0,464079
2,925833	0,1	0,477690
2,927500	0,1	0,478026
2,929167	0,1	0,480118
2,930833	0,1	0,470544
2,932500	0,1	0,501969
2,934167	0,1	0,498528
2,935833	0,1	0,444234
2,937500	0,1	0,493799
2,939167	0,1	0,509730
2,940833	0,1	0,488095
2,942500	0,1	0,509494
2,944167	0,1	0,478684
2,945833	0,1	0,485322
2,947500	0,1	0,506053
2,949167	0,1	0,506370
2,950833	0,1	0,494485
2,952500	0,1	0,517446
2,954167	0,1	0,523998
2,955833	0,1	0,528228
2,957500	0,1	0,526417
2,959167	0,1	0,519800
2,960833	0,1	0,523305
2,962500	0,1	0,566468
2,964167	0,1	0,521808
2,965833	0,1	0,496047
2,967500	0,1	0,544910
2,969167	0,1	0,490004
2,970833	0,1	0,493506
2,972500	0,1	0,512983
2,974167	0,1	0,519048
2,975833	0,1	0,524369
2,977500	0,1	0,532651
2,979167	0,1	0,532019
2,980833	0,1	0,535655
2,982500	0,1	0,574948
2,984167	0,1	0,524430
2,985833	0,1	0,549722
2,987500	0,1	0,532405
2,989167	0,1	0,549567
2,990833	0,1	0,547760
2,992500	0,1	0,552943
2,994167	0,1	0,544963
2,995833	0,1	0,538413
2,997500	0,1	0,536131
2,999167	0,1	0,521158
3,000833	0,1	0,508264
3,002500	0,1	0,543510
3,004167	0,1	0,533885
3,005833	0,1	0,516286
3,007500	0,1	0,569431
3,009167	0,1	0,543945
3,010833	0,1	0,524609
3,012500	0,1	0,535272
3,014167	0,1	0,525668
3,015833	0,1	0,527255
3,017500	0,1	0,520630
3,019167	0,1	0,560653
3,020833	0,1	0,545464
3,022500	0,1	0,517272
3,024167	0,1	0,520441
3,025833	0,1	0,547870
3,027500	0,1	0,542576
3,029167	0,1	0,607670
3,030833	0,1	0,612569
3,032500	0,1	0,559533
3,034167	0,1	0,551738
3,035833	0,1	0,573601
3,037500	0,1	0,557516
3,039167	0,1	0,591649
3,040833	0,1	0,613615
3,042500	0,1	0,573156
3,044167	0,1	0,576743
3,045833	0,1	0,598556
3,047500	0,1	0,568232
3,049167	0,1	0,557214
3,050833	0,1	0,557894
3,052500	0,1	0,561449
3,054167	0,1	0,589142
3,055833	0,1	0,600424
3,057500	0,1	0,562155
3,059167	0,1	0,596165
3,060833	0,1	0,574438
3,062500	0,1	0,616985
3,064167	0,1	0,559730
3,065833	0,1	0,564704
3,067500	0,1	0,600890
3,069167	0,1	0,616952
3,070833	0,1	0,588591
3,072500	0,1	0,557219
3,074167	0,1	0,610928
3,075833	0,1	0,613356
3,077500	0,1	0,602542
3,079167	0,1	0,606319
3,080833	0,1	0,564480
3,082500	0,1	0,616864
3,084167	0,1	0,570691
3,085833	0,1	0,583134
3,087500	0,1	0,616001
3,089167	0,1	0,617256
3,090833	0,1	0,593646
3,092500	0,1	0,570500
3,094167	0,1	0,605447
3,095833	0,1	0,617675
3,097500	0,1	0,571267
3,099167	0,1	0,600144
3,100833	0,1	0,639565
3,102500	0,1	0,647688
3,104167	0,1	0,611332
3,105833	0,1	0,605653
3,107500	0,1	0,570124
3,109167	0,1	0,577043
3,110833	0,1	0,581206
3,112500	0,1	0,609333
3,114167	0,1	0,645998
3,115833	0,1	0,593507
3,117500	0,1	0,641572
3,119167	0,1	0,603113
3,120833	0,1	0,624288
3,122500	0,1	0,621235
3,124167	0,1	0,626118
3,125833	0,1	0,596954
3,127500	0,1	0,641691
3,129167	0,1	0,578582
3,130833	0,1	0,629546
3,132500	0,1	0,623627
3,134167	0,1	0,598686
3,135833	0,1	0,632150
3,137500	0,1	0,644797
3,139167	0,1	0,646531
3,140833	0,1	0,616541
3,142500	0,1	0,619291
3,144167	0,1	0,633035
3,145833	0,1	0,610042
3,147500	0,1	0,632165
3,149167	0,1	0,649418
3,150833	0,1	0,619011
3,152500	0,1	0,601678
3,154167	0,1	0,609049
3,155833	0,1	0,650659
3,157500	0,1	0,656681
3,159167	0,1	0,615415
3,160833	0,1	0,649034
3,162500	0,1	0,637043
3,164167	0,1	0,597745
3,165833	0,1	0,616004
3,167500	0,1	0,666361
3,169167	0,1	0,666175
3,170833	0,1	0,652143
3,172500	0,1	0,664256
3,174167	0,1	0,661949
3,175833	0,1	0,637062
3,177500	0,1	0,630912
3,179167	0,1	0,643787
3,180833	0,1	0,618063
3,182500	0,1	0,629634
3,184167	0,1	0,649681
3,185833	0,1	0,662668
3,187500	0,1	0,670271
3,189167	0,1	0,639937
3,190833	0,1	0,683654
3,192500	0,1	0,659707
3,194167	0,1	0,652601
3,195833	0,1	0,670609
3,197500	0,1	0,652184
3,199167	0,1	0,659779
3,200833	0,1	0,636600
3,202500	0,1	0,623995
3,204167	0,1	0,704837
3,205833	0,1	0,649109
3,207500	0,1	0,637083
3,209167	0,1	0,686082
3,210833	0,1	0,676431
3,212500	0,1	0,649755
3,214167	0,1	0,681203
3,215833	0,1	0,651662
3,217500	0,1	0,643897
3,219167	0,1	0,712965
3,220833	0,1	0,681399
3,222500	0,1	0,694097
3,224167	0,1	0,709437
3,225833	0,1	0,624171
3,227500	0,1	0,648812
3,229167	0,1	0,680018
3,230833	0,1	0,676563
3,232500	0,1	0,677086
3,234167	0,1	0,685893
3,235833	0,1	0,670418
3,237500	0,1	0,678776
3,239167	0,1	0,670680
3,240833	0,1	0,665507
3,242500	0,1	0,666475
3,244167	0,1	0,641826
3,245833	0,1	0,687774
3,247500	0,1	0,682903
3,249167	0,1	0,684568
3,250833	0,1	0,676391
3,252500	0,1	0,658736
3,254167	0,1	0,682752
3,255833	0,1	0,683242
3,257500	0,1	0,687824
3,259167	0,1	0,725698
3,260833	0,1	0,702629
3,262500	0,1	0,678801
3,264167	0,1	0,696828
3,265833	0,1	0,702463
3,267500	0,1	0,610845
3,269167	0,1	0,701918
3,270833	0,1	0,693961
3,272500	0,1	0,697396
3,274167	0,1	0,686201
3,275833	0,1	0,664383
3,277500	0,1	0,684747
3,279167	0,1	0,695464
3,280833	0,1	0,656970
3,282500	0,1	0,663194
3,284167	0,1	0,715639
3,285833	0,1	0,691850
3,287500	0,1	0,682196
3,289167	0,1	0,676889
3,290833	0,1	0,701211
3,292500	0,1	0,723590
3,294167	0,1	0,697078
3,295833	0,1	0,718863
3,297500	0,1	0,688978
3,299167	0,1	0,699747
3,300833	0,1	0,726447
3,302500	0,1	0,719633
3,304167	0,1	0,702446
3,305833	0,1	0,709922
3,307500	0,1	0,725060
3,309167	0,1	0,700598
3,310833	0,1	0,685193
3,312500	0,1	0,713031
3,314167	0,1	0,686888
3,315833	0,1	0,709616
3,317500	0,1	0,694946
3,319167	0,1	0,725843
3,320833	0,1	0,668578
3,322500	0,1	0,701472
3,324167	0,1	0,713519
3,325833	0,1	0,746852
3,327500	0,1	0,683821
3,329167	0,1	0,728613
3,330833	0,1	0,728121
3,332500	0,1	0,737406
3,334167	0,1	0,714957
3,335833	0,1	0,727514
3,337500	0,1	0,724341
3,339167	0,1	0,722913
3,340833	0,1	0,712620
3,342500	0,1	0,729223
3,344167	0,1	0,704179
3,345833	0,1	0,721518
3,347500	0,1	0,704677
3,349167	0,1	0,700997
3,350833	0,1	0,727973
3,352500	0,1	0,711739
3,354167	0,1	0,711631
3,355833	0,1	0,705119
3,357500	0,1	0,731634
3,359167	0,1	0,724241
3,360833	0,1	0,719736
3,362500	0,1	0,729025
3,364167	0,1	0,729044
3,365833	0,1	0,730051
3,367500	0,1	0,768349
3,369167	0,1	0,689712
3,370833	0,1	0,735951
3,372500	0,1	0,725669
3,374167	0,1	0,728803
3,375833	0,1	0,716781
3,377500	0,1	0,748766
3,379167	0,1	0,757817
3,380833	0,1	0,712689
3,382500	0,1	0,718407
3,384167	0,1	0,764908
3,385833	0,1	0,713393
3,387500	0,1	0,702706
3,389167	0,1	0,774615
3,390833	0,1	0,756659
3,392500	0,1	0,693974
3,394167	0,1	0,729942
3,395833	0,1	0,693808
3,397500	0,1	0,710404
3,399167	0,1	0,707192
3,400833	0,1	0,747597
3,402500	0,1	0,729612
3,404167	0,1	0,744686
3,405833	0,1	0,741310
3,407500	0,1	0,716625
3,409167	0,1	0,739214
3,410833	0,1	0,759565
3,412500	0,1	0,747467
3,414167	0,1	0,706233
3,415833	0,1	0,737181
3,417500	0,1	0,690467
3,419167	0,1	0,757703
3,420833	0,1	0,756956
3,422500	0,1	0,751669
3,424167	0,1	0,717834
3,425833	0,1	0,739977
3,427500	0,1	0,767628
3,429167	0,1	0,752075
3,430833	0,1	0,761841
3,432500	0,1	0,721999
3,434167	0,1	0,771321
3,435833	0,1	0,716991
3,437500	0,1	0,745870
3,439167	0,1	0,725331
3,440833	0,1	0,782863
3,442500	0,1	0,720757
3,444167	0,1	0,757831
3,445833	0,1	0,737796
3,447500	0,1	0,716164
3,449167	0,1	0,709742
3,450833	0,1	0,760544
3,452500	0,1	0,740414
3,454167	0,1	0,727983
3,455833	0,1	0,760205
3,457500	0,1	0,751430
3,459167	0,1	0,757698
3,460833	0,1	0,742100
3,462500	0,1	0,731240
3,464167	0,1	0,764709
3,465833	0,1	0,741861
3,467500	0,1	0,744329
3,469167	0,1	0,778083
3,470833	0,1	0,762853
3,472500	0,1	0,718440
3,474167	0,1	0,752280
3,475833	0,1	0,753155
3,477500	0,1	0,746362
3,479167	0,1	0,751043
3,480833	0,1	0,780436
3,482500	0,1	0,767495
3,484167	0,1	0,790492
3,485833	0,1	0,689884
3,487500	0,1	0,770752
3,489167	0,1	0,753459
3,490833	0,1	0,734036
3,492500	0,1	0,797561
3,494167	0,1	0,744039
3,495833	0,1	0,780898
3,497500	0,1	0,759374
3,499167	0,1	0,760455
3,500833	0,1	0,744513
3,502500	0,1	0,755183
3,504167	0,1	0,750642
3,505833	0,1	0,731605
3,507500	0,1	0,753653
3,509167	0,1	0,793022
3,510833	0,1	0,757750
3,512500	0,1	0,747546
3,514167	0,1	0,755104
3,515833	0,1	0,780115
3,517500	0,1	0,764461
3,519167	0,1	0,777101
3,520833	0,1	0,745781
3,522500	0,1	0,781077
3,524167	0,1	0,758488
3,525833	0,1	0,787053
3,527500	0,1	0,756560
3,529167	0,1	0,776979
3,530833	0,1	0,767837
3,532500	0,1	0,758768
3,534167	0,1	0,790029
3,535833	0,1	0,773087
3,537500	0,1	0,770289
3,539167	0,1	0,752596
3,540833	0,1	0,744512
3,542500	0,1	0,735964
3,544167	0,1	0,740345
3,545833	0,1	0,791209
3,547500	0,1	0,751517
3,549167	0,1	0,773037
3,550833	0,1	0,759232
3,552500	0,1	0,737437
3,554167	0,1	0,776893
3,555833	0,1	0,774070
3,557500	0,1	0,765183
3,559167	0,1	0,780018
3,560833	0,1	0,765104
3,562500	0,1	0,783597
3,564167	0,1	0,762832
3,565833	0,1	0,786349
3,567500	0,1	0,723451
3,569167	0,1	0,774960
3,570833	0,1	0,794214
3,572500	0,1	0,791624
3,574167	0,1	0,786900
3,575833	0,1	0,806339
3,577500	0,1	0,782660
3,579167	0,1	0,743533
3,580833	0,1	0,814673
3,582500	0,1	0,817606
3,584167	0,1	0,780853
3,585833	0,1	0,763917
3,587500	0,1	0,781323
3,589167	0,1	0,778071
3,590833	0,1	0,746828
3,592500	0,1	0,776958
3,594167	0,1	0,791279
3,595833	0,1	0,811810
3,597500	0,1	0,793821
3,599167	0,1	0,799586
3,600833	0,1	0,796230
3,602500	0,1	0,783805
3,604167	0,1	0,770091
3,605833	0,1	0,774832
3,607500	0,1	0,790453
3,609167	0,1	0,751094
3,610833	0,1	0,813751
3,612500	0,1	0,788492
3,614167	0,1	0,776003
3,615833	0,1	0,787298
3,617500	0,1	0,798078
3,619167	0,1	0,781634
3,620833	0,1	0,804349
3,622500	0,1	0,809439
3,624167	0,1	0,800272
3,625833	0,1	0,781332
3,627500	0,1	0,796708
3,629167	0,1	0,798903
3,630833	0,1	0,788269
3,632500	0,1	0,731814
3,634167	0,1	0,777477
3,635833	0,1	0,799381
3,637500	0,1	0,754495
3,639167	0,1	0,799254
3,640833	0,1	0,818708
3,642500	0,1	0,783127
3,644167	0,1	0,797371
3,645833	0,1	0,778999
3,647500	0,1	0,821960
3,649167	0,1	0,782785
3,650833	0,1	0,805132
3,652500	0,1	0,800856
3,654167	0,1	0,806905
3,655833	0,1	0,807108
3,657500	0,1	0,803631
3,659167	0,1	0,791707
3,660833	0,1	0,803748
3,662500	0,1	0,813763
3,664167	0,1	0,765515
3,665833	0,1	0,838504
3,667500	0,1	0,779835
3,669167	0,1	0,802177
3,670833	0,1	0,821181
3,672500	0,1	0,828906
3,674167	0,1	0,836248
3,675833	0,1	0,790610
3,677500	0,1	0,832779
3,679167	0,1	0,835727
3,680833	0,1	0,826036
3,682500	0,1	0,796738
3,684167	0,1	0,832942
3,685833	0,1	0,819337
3,687500	0,1	0,794185
3,689167	0,1	0,782237
3,690833	0,1	0,803926
3,692500	0,1	0,813723
3,694167	0,1	0,798968
3,695833	0,1	0,803589
3,697500	0,1	0,799087
3,699167	0,1	0,832600
3,700833	0,1	0,793826
3,702500	0,1	0,786839
3,704167	0,1	0,807384
3,705833	0,1	0,803591
3,707500	0,1	0,793296
3,709167	0,1	0,803869
3,710833	0,1	0,852061
3,712500	0,1	0,810094
3,714167	0,1	0,827294
3,715833	0,1	0,781579
3,717500	0,1	0,768764
3,719167	0,1	0,819987
3,720833	0,1	0,842576
3,722500	0,1	0,784318
3,724167	0,1	0,826667
3,725833	0,1	0,771728
3,727500	0,1	0,820672
3,729167	0,1	0,828583
3,730833	0,1	0,818573
3,732500	0,1	0,826514
3,734167	0,1	0,839603
3,735833	0,1	0,832751
3,737500	0,1	0,793603
3,739167	0,1	0,841868
3,740833	0,1	0,796099
3,742500	0,1	0,860909
3,744167	0,1	0,803845
3,745833	0,1	0,806485
3,747500	0,1	0,850960
3,749167	0,1	0,801167
3,750833	0,1	0,832317
3,752500	0,1	0,822657
3,754167	0,1	0,844668
3,755833	0,1	0,832449
3,757500	0,1	0,816866
3,759167	0,1	0,857438
3,760833	0,1	0,804166
3,762500	0,1	0,796653
3,764167	0,1	0,794721
3,765833	0,1	0,791584
3,767500	0,1	0,786276
3,769167	0,1	0,780264
3,770833	0,1	0,831669
3,772500	0,1	0,834719
3,774167	0,1	0,819781
3,775833	0,1	0,796356
3,777500	0,1	0,880091
3,779167	0,1	0,818727
3,780833	0,1	0,840204
3,782500	0,1	0,810735
3,784167	0,1	0,794724
3,785833	0,1	0,818989
3,787500	0,1	0,826935
3,789167	0,1	0,833232
3,790833	0,1	0,817086
3,792500	0,1	0,829670
3,794167	0,1	0,820363
3,795833	0,1	0,845271
3,797500	0,1	0,839829
3,799167	0,1	0,812364
3,800833	0,1	0,774741
3,802500	0,1	0,861126
3,804167	0,1	0,831126
3,805833	0,1	0,803557
3,807500	0,1	0,855783
3,809167	0,1	0,844093
3,810833	0,1	0,842100
3,812500	0,1	0,800522
3,814167	0,1	0,842874
3,815833	0,1	0,813268
3,817500	0,1	0,840081
3,819167	0,1	0,837898
3,820833	0,1	0,816966
3,822500	0,1	0,806105
3,824167	0,1	0,861753
3,825833	0,1	0,821475
3,827500	0,1	0,826090
3,829167	0,1	0,831720
3,830833	0,1	0,847527
3,832500	0,1	0,833797
3,834167	0,1	0,826858
3,835833	0,1	0,807474
3,837500	0,1	0,829907
3,839167	0,1	0,825429
3,840833	0,1	0,818250
3,842500	0,1	0,821828
3,844167	0,1	0,829449
3,845833	0,1	0,830434
3,847500	0,1	0,859226
3,849167	0,1	0,821596
3,850833	0,1	0,884742
3,852500	0,1	0,792048
3,854167	0,1	0,809195
3,855833	0,1	0,819273
3,857500	0,1	0,825749
3,859167	0,1	0,859711
3,860833	0,1	0,853785
3,862500	0,1	0,844335
3,864167	0,1	0,858910
3,865833	0,1	0,804225
3,867500	0,1	0,882498
3,869167	0,1	0,810061
3,870833	0,1	0,837972
3,872500	0,1	0,846323
3,874167	0,1	0,858970
3,875833	0,1	0,831670
3,877500	0,1	0,862767
3,879167	0,1	0,788022
3,880833	0,1	0,830084
3,882500	0,1	0,851829
3,884167	0,1	0,820209
3,885833	0,1	0,825406
3,887500	0,1	0,814170
3,889167	0,1	0,824078
3,890833	0,1	0,839262
3,892500	0,1	0,858787
3,894167	0,1	0,885469
3,895833	0,1	0,856746
3,897500	0,1	0,841722
3,899167	0,1	0,868458
3,900833	0,1	0,841462
3,902500	0,1	0,832529
3,904167	0,1	0,826113
3,905833	0,1	0,802287
3,907500	0,1	0,805720
3,909167	0,1	0,831355
3,910833	0,1	0,842561
3,912500	0,1	0,874411
3,914167	0,1	0,830287
3,915833	0,1	0,858044
3,917500	0,1	0,880931
3,919167	0,1	0,869592
3,920833	0,1	0,863039
3,922500	0,1	0,836273
3,924167	0,1	0,849135
3,925833	0,1	0,805992
3,927500	0,1	0,864367
3,929167	0,1	0,836796
3,930833	0,1	0,822716
3,932500	0,1	0,823315
3,934167	0,1	0,858640
3,935833	0,1	0,819143
3,937500	0,1	0,844970
3,939167	0,1	0,868221
3,940833	0,1	0,895870
3,942500	0,1	0,840967
3,944167	0,1	0,830599
3,945833	0,1	0,863511
3,947500	0,1	0,812590
3,949167	0,1	0,833085
3,950833	0,1	0,845553
3,952500	0,1	0,858484
3,954167	0,1	0,850167
3,955833	0,1	0,867914
3,957500	0,1	0,854755
3,959167	0,1	0,868623
3,960833	0,1	0,844942
3,962500	0,1	0,846745
3,964167	0,1	0,883942
3,965833	0,1	0,825984
3,967500	0,1	0,832243
3,969167	0,1	0,838035
3,970833	0,1	0,864196
3,972500	0,1	0,841602
3,974167	0,1	0,856052
3,975833	0,1	0,849140
3,977500	0,1	0,803539
3,979167	0,1	0,858054
3,980833	0,1	0,856197
3,982500	0,1	0,864520
3,984167	0,1	0,825215
3,985833	0,1	0,836989
3,987500	0,1	0,836146
3,989167	0,1	0,814574
3,990833	0,1	0,871628
3,992500	0,1	0,854489
3,994167	0,1	0,875539
3,995833	0,1	0,876331
3,997500	0,1	0,841505
3,999167	0,1	0,862405
4,000833	0,1	0,891186
4,002500	0,1	0,875066
4,004167	0,1	0,872627
4,005833	0,1	0,825883
4,007500	0,1	0,876859
4,009167	0,1	0,859880
4,010833	0,1	0,853523
4,012500	0,1	0,833478
4,014167	0,1	0,883033
4,015833	0,1	0,869233
4,017500	0,1	0,860603
4,019167	0,1	0,846186
4,020833	0,1	0,863271
4,022500	0,1	0,842667
4,024167	0,1	0,869767
4,025833	0,1	0,843352
4,027500	0,1	0,884666
4,029167	0,1	0,858660
4,030833	0,1	0,902221
4,032500	0,1	0,846317
4,034167	0,1	0,857502
4,035833	0,1	0,845623
4,037500	0,1	0,856215
4,039167	0,1	0,904576
4,040833	0,1	0,840527
4,042500	0,1	0,877366
4,044167	0,1	0,846955
4,045833	0,1	0,864361
4,047500	0,1	0,893011
4,049167	0,1	0,870863
4,050833	0,1	0,871160
4,052500	0,1	0,892353
4,054167	0,1	0,854999
4,055833	0,1	0,913281
4,057500	0,1	0,905355
4,059167	0,1	0,856410
4,060833	0,1	0,857864
4,062500	0,1	0,862368
4,064167	0,1	0,866995
4,065833	0,1	0,879321
4,067500	0,1	0,892315
4,069167	0,1	0,860365
4,070833	0,1	0,871174
4,072500	0,1	0,846792
4,074167	0,1	0,878713
4,075833	0,1	0,902747
4,077500	0,1	0,916446
4,079167	0,1	0,860152
4,080833	0,1	0,860219
4,082500	0,1	0,879057
4,084167	0,1	0,887289
4,085833	0,1	0,862197
4,087500	0,1	0,859455
4,089167	0,1	0,878698
4,090833	0,1	0,918575
4,092500	0,1	0,872899
4,094167	0,1	0,888109
4,095833	0,1	0,844522
4,097500	0,1	0,916554
4,099167	0,1	0,845533
4,100833	0,1	0,888380
4,102500	0,1	0,862359
4,104167	0,1	0,873186
4,105833	0,1	0,866795
4,107500	0,1	0,848980
4,109167	0,1	0,840271
4,110833	0,1	0,875395
4,112500	0,1	0,844560
4,114167	0,1	0,931491
4,115833	0,1	0,870891
4,117500	0,1	0,859538
4,119167	0,1	0,914243
4,120833	0,1	0,848813
4,122500	0,1	0,886516
4,124167	0,1	0,867604
4,125833	0,1	0,907592
4,127500	0,1	0,887093
4,129167	0,1	0,872108
4,130833	0,1	0,876208
4,132500	0,1	0,892314
4,134167	0,1	0,889319
4,135833	0,1	0,931420
4,137500	0,1	0,859269
4,139167	0,1	0,896529
4,140833	0,1	0,897123
4,142500	0,1	0,898672
4,144167	0,1	0,842032
4,145833	0,1	0,882573
4,147500	0,1	0,899752
4,149167	0,1	0,877561
4,150833	0,1	0,874379
4,152500	0,1	0,884308
4,154167	0,1	0,862734
4,155833	0,1	0,890340
4,157500	0,1	0,867380
4,159167	0,1	0,865409
4,160833	0,1	0,885877
4,162500	0,1	0,879529
4,164167	0,1	0,866112
4,165833	0,1	0,884768
4,167500	0,1	0,889701
4,169167	0,1	0,869756
4,170833	0,1	0,899106
4,172500	0,1	0,872232
4,174167	0,1	0,881212
4,175833	0,1	0,864688
4,177500	0,1	0,889493
4,179167	0,1	0,895006
4,180833	0,1	0,871304
4,182500	0,1	0,888249
4,184167	0,1	0,892536
4,185833	0,1	0,891771
4,187500	0,1	0,888676
4,189167	0,1	0,876271
4,190833	0,1	0,900557
4,192500	0,1	0,878905
4,194167	0,1	0,880667
4,195833	0,1	0,895751
4,197500	0,1	0,882464
4,199167	0,1	0,871341
4,200833	0,1	0,876649
4,202500	0,1	0,892451
4,204167	0,1	0,912021
4,205833	0,1	0,868313
4,207500	0,1	0,925062
4,209167	0,1	0,872395
4,210833	0,1	0,901980
4,212500	0,1	0,887107
4,214167	0,1	0,877215
4,215833	0,1	0,878499
4,217500	0,1	0,910006
4,219167	0,1	0,890994
4,220833	0,1	0,903574
4,222500	0,1	0,933916
4,224167	0,1	0,900268
4,225833	0,1	0,885763
4,227500	0,1	0,860040
4,229167	0,1	0,873145
4,230833	0,1	0,864946
4,232500	0,1	0,911467
4,234167	0,1	0,879853
4,235833	0,1	0,872425
4,237500	0,1	0,864964
4,239167	0,1	0,919433
4,240833	0,1	0,928758
4,242500	0,1	0,882731
4,244167	0,1	0,898684
4,245833	0,1	0,886185
4,247500	0,1	0,898685
4,249167	0,1	0,884133
4,250833	0,1	0,909160
4,252500	0,1	0,891312
4,254167	0,1	0,906189
4,255833	0,1	0,924005
4,257500	0,1	0,847343
4,259167	0,1	0,886010
4,260833	0,1	0,889580
4,262500	0,1	0,913665
4,264167	0,1	0,913313
4,265833	0,1	0,893585
4,267500	0,1	0,899111
4,269167	0,1	0,898306
4,270833	0,1	0,916046
4,272500	0,1	0,912440
4,274167	0,1	0,902470
4,275833	0,1	0,913106
4,277500	0,1	0,944337
4,279167	0,1	0,900833
4,280833	0,1	0,909187
4,282500	0,1	0,894896
4,284167	0,1	0,909748
4,285833	0,1	0,894308
4,287500	0,1	0,917047
4,289167	0,1	0,889906
4,290833	0,1	0,918510
4,292500	0,1	0,869298
4,294167	0,1	0,901761
4,295833	0,1	0,918694
4,297500	0,1	0,898515
4,299167	0,1	0,924906
4,300833	0,1	0,897570
4,302500	0,1	0,917333
4,304167	0,1	0,903596
4,305833	0,1	0,898526
4,307500	0,1	0,918294
4,309167	0,1	0,933961
4,310833	0,1	0,872438
4,312500	0,1	0,887222
4,314167	0,1	0,907856
4,315833	0,1	0,934301
4,317500	0,1	0,904871
4,319167	0,1	0,897728
4,320833	0,1	0,909871
4,322500	0,1	0,890344
4,324167	0,1	0,901000
4,325833	0,1	0,899291
4,327500	0,1	0,887571
4,329167	0,1	0,926834
4,330833	0,1	0,865840
4,332500	0,1	0,952568
4,334167	0,1	0,909421
4,335833	0,1	0,913408
4,337500	0,1	0,915601
4,339167	0,1	0,928250
4,340833	0,1	0,890086
4,342500	0,1	0,936201
4,344167	0,1	0,929542
4,345833	0,1	0,882813
4,347500	0,1	0,913786
4,349167	0,1	0,905991
4,350833	0,1	0,941819
4,352500	0,1	0,884805
4,354167	0,1	0,892731
4,355833	0,1	0,912664
4,357500	0,1	0,875066
4,359167	0,1	0,921847
4,360833	0,1	0,909454
4,362500	0,1	0,853676
4,364167	0,1	0,933179
4,365833	0,1	0,924353
4,367500	0,1	0,909732
4,369167	0,1	0,919502
4,370833	0,1	0,952404
4,372500	0,1	0,916677
4,374167	0,1	0,904704
4,375833	0,1	0,938339
4,377500	0,1	0,912032
4,379167	0,1	0,899963
4,380833	0,1	0,935423
4,382500	0,1	0,896685
4,384167	0,1	0,888955
4,385833	0,1	0,920304
4,387500	0,1	0,855828
4,389167	0,1	0,912932
4,390833	0,1	0,917654
4,392500	0,1	0,891533
4,394167	0,1	0,893539
4,395833	0,1	0,910009
4,397500	0,1	0,922035
4,399167	0,1	0,924432
4,400833	0,1	0,941302
4,402500	0,1	0,932420
4,404167	0,1	0,929558
4,405833	0,1	0,893507
4,407500	0,1	0,915294
4,409167	0,1	0,889440
4,410833	0,1	0,931380
4,412500	0,1	0,935308
4,414167	0,1	0,903063
4,415833	0,1	0,907013
4,417500	0,1	0,911177
4,419167	0,1	0,934098
4,420833	0,1	0,924027
4,422500	0,1	0,899322
4,424167	0,1	0,963573
4,425833	0,1	0,907974
4,427500	0,1	0,944955
4,429167	0,1	0,906641
4,430833	0,1	0,946803
4,432500	0,1	0,925343
4,434167	0,1	0,918641
4,435833	0,1	0,914534
4,437500	0,1	0,918394
4,439167	0,1	0,932016
4,440833	0,1	0,902818
4,442500	0,1	0,896196
4,444167	0,1	0,902507
4,445833	0,1	0,904480
4,447500	0,1	0,891149
4,449167	0,1	0,925344
4,450833	0,1	0,918903
4,452500	0,1	0,899761
4,454167	0,1	0,891170
4,455833	0,1	0,895487
4,457500	0,1	0,909203
4,459167	0,1	0,901745
4,460833	0,1	0,909604
4,462500	0,1	0,888617
4,464167	0,1	0,865409
4,465833	0,1	0,907607
4,467500	0,1	0,924844
4,469167	0,1	0,918821
4,470833	0,1	0,930784
4,472500	0,1	0,940619
4,474167	0,1	0,931010
4,475833	0,1	0,931008
4,477500	0,1	0,949203
4,479167	0,1	0,911749
4,480833	0,1	0,913752
4,482500	0,1	0,906634
4,484167	0,1	0,932027
4,485833	0,1	0,929241
4,487500	0,1	0,914880
4,489167	0,1	0,938603
4,490833	0,1	0,884642
4,492500	0,1	0,922370
4,494167	0,1	0,903419
4,495833	0,1	0,919256
4,497500	0,1	0,909250
4,499167	0,1	0,929853
4,500833	0,1	0,891055
4,502500	0,1	0,943704
4,504167	0,1	0,896484
4,505833	0,1	0,955986
4,507500	0,1	0,938092
4,509167	0,1	0,893306
4,510833	0,1	0,927659
4,512500	0,1	0,921410
4,514167	0,1	0,902994
4,515833	0,1	0,902249
4,517500	0,1	0,898226
4,519167	0,1	0,890845
4,520833	0,1	0,965240
4,522500	0,1	0,898241
4,524167	0,1	0,936121
4,525833	0,1	0,947315
4,527500	0,1	0,912652
4,529167	0,1	0,921652
4,530833	0,1	0,936511
4,532500	0,1	0,965717
4,534167	0,1	0,929182
4,535833	0,1	0,931447
4,537500	0,1	0,933157
4,539167	0,1	0,907859
4,540833	0,1	0,922529
4,542500	0,1	0,926598
4,544167	0,1	0,909951
4,545833	0,1	0,945092
4,547500	0,1	0,951617
4,549167	0,1	0,943035
4,550833	0,1	0,883053
4,552500	0,1	0,972235
4,554167	0,1	0,952553
4,555833	0,1	0,918924
4,557500	0,1	0,909608
4,559167	0,1	0,938534
4,560833	0,1	0,932954
4,562500	0,1	0,937662
4,564167	0,1	0,921617
4,565833	0,1	0,973531
4,567500	0,1	0,955430
4,569167	0,1	0,909617
4,570833	0,1	0,935521
4,572500	0,1	0,941141
4,574167	0,1	0,941265
4,575833	0,1	0,952684
4,577500	0,1	0,947196
4,579167	0,1	0,935980
4,580833	0,1	0,919401
4,582500	0,1	0,941576
4,584167	0,1	0,924974
4,585833	0,1	0,936291
4,587500	0,1	0,947437
4,589167	0,1	0,983190
4,590833	0,1	0,942781
4,592500	0,1	0,915608
4,594167	0,1	0,971381
4,595833	0,1	0,961865
4,597500	0,1	0,932905
4,599167	0,1	0,910759
4,600833	0,1	0,926417
4,602500	0,1	0,910416
4,604167	0,1	0,947870
4,605833	0,1	0,952973
4,607500	0,1	0,940063
4,609167	0,1	0,945524
4,610833	0,1	0,895337
4,612500	0,1	0,962683
4,614167	0,1	0,963204
4,615833	0,1	0,935918
4,617500	0,1	0,920728
4,619167	0,1	0,937056
4,620833	0,1	0,918702
4,622500	0,1	0,966972
4,624167	0,1	0,949293
4,625833	0,1	0,929015
4,627500	0,1	0,925053
4,629167	0,1	0,916810
4,630833	0,1	0,913564
4,632500	0,1	0,933714
4,634167	0,1	0,941482
4,635833	0,1	0,950615
4,637500	0,1	0,961832
4,639167	0,1	0,946173
4,640833	0,1	0,929122
4,642500	0,1	0,957707
4,644167	0,1	0,989451
4,645833	0,1	0,940552
4,647500	0,1	0,960968
4,649167	0,1	0,950620
4,650833	0,1	0,955315
4,652500	0,1	0,958370
4,654167	0,1	0,966887
4,655833	0,1	0,949871
4,657500	0,1	0,927329
4,659167	0,1	0,899575
4,660833	0,1	0,919800
4,662500	0,1	0,938921
4,664167	0,1	0,926520
4,665833	0,1	0,960416
4,667500	0,1	0,931373
4,669167	0,1	0,939510
4,670833	0,1	0,950328
4,672500	0,1	0,932494
4,674167	0,1	0,964786
4,675833	0,1	0,958961
4,677500	0,1	0,957891
4,679167	0,1	0,964489
4,680833	0,1	0,939136
4,682500	0,1	0,963637
4,684167	0,1	0,926730
4,685833	0,1	0,961526
4,687500	0,1	0,959342
4,689167	0,1	0,940381
4,690833	0,1	0,913855
4,692500	0,1	0,950268
4,694167	0,1	0,910160
4,695833	0,1	0,921887
4,697500	0,1	0,941836
4,699167	0,1	0,973372
4,700833	0,1	0,944984
4,702500	0,1	0,939489
4,704167	0,1	0,954025
4,705833	0,1	0,952442
4,707500	0,1	0,933039
4,709167	0,1	0,969468
4,710833	0,1	0,959319
4,712500	0,1	0,942407
4,714167	0,1	0,958408
4,715833	0,1	0,993886
4,717500	0,1	0,936130
4,719167	0,1	0,941938
4,720833	0,1	0,920526
4,722500	0,1	0,985773
4,724167	0,1	0,936786
4,725833	0,1	0,961226
4,727500	0,1	0,954456
4,729167	0,1	0,978961
4,730833	0,1	0,941329
4,732500	0,1	0,967937
4,734167	0,1	0,959783
4,735833	0,1	0,969761
4,737500	0,1	0,963205
4,739167	0,1	0,936055
4,740833	0,1	0,906998
4,742500	0,1	0,933028
4,744167	0,1	0,972618
4,745833	0,1	0,952651
4,747500	0,1	0,967201
4,749167	0,1	0,962479
4,750833	0,1	0,960207
4,752500	0,1	0,927730
4,754167	0,1	0,990649
4,755833	0,1	0,987925
4,757500	0,1	0,956914
4,759167	0,1	0,962518
4,760833	0,1	0,969106
4,762500	0,1	0,968833
4,764167	0,1	0,971463
4,765833	0,1	0,951639
4,767500	0,1	0,953606
4,769167	0,1	0,936298
4,770833	0,1	0,926822
4,772500	0,1	0,961703
4,774167	0,1	0,942969
4,775833	0,1	0,996266
4,777500	0,1	0,943566
4,779167	0,1	0,938763
4,780833	0,1	0,958873
4,782500	0,1	0,928455
4,784167	0,1	0,929612
4,785833	0,1	0,961101
4,787500	0,1	0,968695
4,789167	0,1	0,939192
4,790833	0,1	0,973686
4,792500	0,1	0,958936
4,794167	0,1	0,929824
4,795833	0,1	0,922561
4,797500	0,1	0,935238
4,799167	0,1	0,966333
4,800833	0,1	0,952486
4,802500	0,1	0,943253
4,804167	0,1	0,955559
4,805833	0,1	0,959616
4,807500	0,1	0,971584
4,809167	0,1	0,918946
4,810833	0,1	0,935483
4,812500	0,1	1,002070
4,814167	0,1	0,978808
4,815833	0,1	0,977503
4,817500	0,1	0,945124
4,819167	0,1	0,918296
4,820833	0,1	0,949737
4,822500	0,1	0,962737
4,824167	0,1	0,974720
4,825833	0,1	0,982650
4,827500	0,1	0,962360
4,829167	0,1	0,949390
4,830833	0,1	0,975127
4,832500	0,1	0,976228
4,834167	0,1	0,938975
4,835833	0,1	0,962173
4,837500	0,1	0,966806
4,839167	0,1	0,969353
4,840833	0,1	0,949365
4,842500	0,1	0,960970
4,844167	0,1	0,999350
4,845833	0,1	0,977644
4,847500	0,1	0,946027
4,849167	0,1	0,990542
4,850833	0,1	0,949948
4,852500	0,1	0,982944
4,854167	0,1	0,969536
4,855833	0,1	0,973858
4,857500	0,1	0,965289
4,859167	0,1	0,980266
4,860833	0,1	0,962716
4,862500	0,1	0,948859
4,864167	0,1	0,970594
4,865833	0,1	0,976391
4,867500	0,1	0,951231
4,869167	0,1	0,939188
4,870833	0,1	0,955012
4,872500	0,1	0,983343
4,874167	0,1	0,952654
4,875833	0,1	0,977415
4,877500	0,1	0,940865
4,879167	0,1	0,941596
4,880833	0,1	0,937898
4,882500	0,1	0,967800
4,884167	0,1	0,965533
4,885833	0,1	0,975241
4,887500	0,1	0,941865
4,889167	0,1	0,993418
4,890833	0,1	0,943361
4,892500	0,1	0,989242
4,894167	0,1	0,965800
4,895833	0,1	0,982743
4,897500	0,1	0,952888
4,899167	0,1	1,009083
4,900833	0,1	0,974854
4,902500	0,1	0,930243
4,904167	0,1	0,990718
4,905833	0,1	1,002698
4,907500	0,1	0,970869
4,909167	0,1	0,967136
4,910833	0,1	0,987973
4,912500	0,1	0,969537
4,914167	0,1	0,976829
4,915833	0,1	0,955158
4,917500	0,1	0,971198
4,919167	0,1	0,965247
4,920833	0,1	0,957647
4,922500	0,1	0,948759
4,924167	0,1	0,986394
4,925833	0,1	0,959967
4,927500	0,1	0,995406
4,929167	0,1	0,977986
4,930833	0,1	0,973109
4,932500	0,1	0,991768
4,934167	0,1	0,924660
4,935833	0,1	0,947083
4,937500	0,1	0,988174
4,939167	0,1	0,957914
4,940833	0,1	0,956579
4,942500	0,1	0,984850
4,944167	0,1	0,984255
4,945833	0,1	0,983132
4,947500	0,1	0,968454
4,949167	0,1	0,998147
4,950833	0,1	0,983476
4,952500	0,1	0,953913
4,954167	0,1	0,958247
4,955833	0,1	0,930947
4,957500	0,1	0,987624
4,959167	0,1	0,980792
4,960833	0,1	0,952023
4,962500	0,1	0,973210
4,964167	0,1	0,970313
4,965833	0,1	0,951664
4,967500	0,1	0,971021
4,969167	0,1	0,965329
4,970833	0,1	1,003952
4,972500	0,1	0,968459
4,974167	0,1	1,002610
4,975833	0,1	0,960696
4,977500	0,1	0,956961
4,979167	0,1	0,975224
4,980833	0,1	0,972108
4,982500	0,1	0,960825
4,984167	0,1	0,997598
4,985833	0,1	0,962900
4,987500	0,1	0,971118
4,989167	0,1	0,978747
4,990833	0,1	0,959199
4,992500	0,1	1,011235
4,994167	0,1	0,981823
4,995833	0,1	0,986061
4,997500	0,1	0,949971
4,999167	0,1	0,948553
5,000833	0,1	0,958712
5,002500	0,1	0,994421
5,004167	0,1	1,002616
5,005833	0,1	0,988338
5,007500	0,1	0,968345
5,009167	0,1	1,033390
5,010833	0,1	0,952036
5,012500	0,1	1,021186
5,014167	0,1	1,012496
5,015833	0,1	0,997131
5,017500	0,1	0,977220
5,019167	0,1	0,974093
5,020833	0,1	0,996902
5,022500	0,1	0,970442
5,024167	0,1	0,998791
5,025833	0,1	0,953055
5,027500	0,1	0,932631
5,029167	0,1	0,986842
5,030833	0,1	0,976559
5,032500	0,1	1,016770
5,034167	0,1	0,975156
5,035833	0,1	1,004666
5,037500	0,1	0,986039
5,039167	0,1	0,989362
5,040833	0,1	0,980997
5,042500	0,1	1,016688
5,044167	0,1	0,941671
5,045833	0,1	0,982998
5,047500	0,1	1,002231
5,049167	0,1	1,000893
5,050833	0,1	0,988255
5,052500	0,1	0,989101
5,054167	0,1	1,007901
5,055833	0,1	0,985601
5,057500	0,1	1,004039
5,059167	0,1	1,008972
5,060833	0,1	1,027171
5,062500	0,1	0,999271
5,064167	0,1	1,025922
5,065833	0,1	0,964194
5,067500	0,1	0,974692
5,069167	0,1	1,016222
5,070833	0,1	0,999322
5,072500	0,1	0,990570
5,074167	0,1	0,998549
5,075833	0,1	0,958257
5,077500	0,1	0,986848
5,079167	0,1	0,982325
5,080833	0,1	1,010515
5,082500	0,1	0,974568
5,084167	0,1	0,971506
5,085833	0,1	1,012963
5,087500	0,1	1,004046
5,089167	0,1	0,968570
5,090833	0,1	0,960155
5,092500	0,1	0,977991
5,094167	0,1	0,981253
5,095833	0,1	1,027288
5,097500	0,1	0,977486
5,099167	0,1	0,990700
5,100833	0,1	1,007696
5,102500	0,1	0,993378
5,104167	0,1	1,012366
5,105833	0,1	1,008809
5,107500	0,1	0,995788
5,109167	0,1	0,974549
5,110833	0,1	0,978597
5,112500	0,1	0,975121
5,114167	0,1	0,964604
5,115833	0,1	0,951556
5,117500	0,1	0,993256
5,119167	0,1	1,038875
5,120833	0,1	0,978092
5,122500	0,1	0,962129
5,124167	0,1	0,983962
5,125833	0,1	0,983967
5,127500	0,1	0,977012
5,129167	0,1	1,016399
5,130833	0,1	0,987548
5,132500	0,1	0,991990
5,134167	0,1	1,007135
5,135833	0,1	0,969924
5,137500	0,1	1,005925
5,139167	0,1	1,021502
5,140833	0,1	0,977103
5,142500	0,1	1,007378
5,144167	0,1	1,023213
5,145833	0,1	0,969902
5,147500	0,1	0,999311
5,149167	0,1	0,980918
5,150833	0,1	1,020003
5,152500	0,1	1,002884
5,154167	0,1	1,018077
5,155833	0,1	0,993107
5,157500	0,1	1,008299
5,159167	0,1	1,049488
5,160833	0,1	0,997017
5,162500	0,1	0,971621
5,164167	0,1	1,016084
5,165833	0,1	1,026746
5,167500	0,1	0,993109
5,169167	0,1	1,025987
5,170833	0,1	0,993671
5,172500	0,1	1,010394
5,174167	0,1	0,980154
5,175833	0,1	1,023000
5,177500	0,1	0,963795
5,179167	0,1	0,978855
5,180833	0,1	0,993057
5,182500	0,1	0,989294
5,184167	0,1	0,999068
5,185833	0,1	1,009367
5,187500	0,1	1,000307
5,189167	0,1	1,015626
5,190833	0,1	0,965273
5,192500	0,1	0,938864
5,194167	0,1	0,989281
5,195833	0,1	0,988473
5,197500	0,1	1,006749
5,199167	0,1	0,957275
5,200833	0,1	0,968379
5,202500	0,1	0,970955
5,204167	0,1	0,975722
5,205833	0,1	0,989331
5,207500	0,1	0,965185
5,209167	0,1	0,988905
5,210833	0,1	0,972645
5,212500	0,1	0,983198
5,214167	0,1	1,005502
5,215833	0,1	1,009930
5,217500	0,1	1,042244
5,219167	0,1	0,990498
5,220833	0,1	0,953287
5,222500	0,1	1,023337
5,224167	0,1	1,016234
5,225833	0,1	0,973377
5,227500	0,1	0,970231
5,229167	0,1	0,983620
5,230833	0,1	1,011200
5,232500	0,1	0,985028
5,234167	0,1	0,991387
5,235833	0,1	1,003711
5,237500	0,1	0,997306
5,239167	0,1	1,007533
5,240833	0,1	0,984534
5,242500	0,1	1,009434
5,244167	0,1	0,990023
5,245833	0,1	1,013226
5,247500	0,1	0,995898
5,249167	0,1	0,991856
5,250833	0,1	1,039363
5,252500	0,1	1,001737
5,254167	0,1	0,979247
5,255833	0,1	1,018195
5,257500	0,1	1,025515
5,259167	0,1	1,021903
5,260833	0,1	1,011988
5,262500	0,1	1,004401
5,264167	0,1	1,005986
5,265833	0,1	1,028633
5,267500	0,1	1,008169
5,269167	0,1	0,998512
5,270833	0,1	0,995074
5,272500	0,1	1,005108
5,274167	0,1	1,031851
5,275833	0,1	1,006924
5,277500	0,1	0,983027
5,279167	0,1	1,002149
5,280833	0,1	1,025676
5,282500	0,1	1,013234
5,284167	0,1	0,997828
5,285833	0,1	1,005506
5,287500	0,1	0,987531
5,289167	0,1	1,009966
5,290833	0,1	1,034261
5,292500	0,1	0,991754
5,294167	0,1	1,012200
5,295833	0,1	0,964122
5,297500	0,1	0,983319
5,299167	0,1	0,992209
5,300833	0,1	0,995578
5,302500	0,1	1,016115
5,304167	0,1	0,990710
5,305833	0,1	0,997317
5,307500	0,1	0,994443
5,309167	0,1	0,991621
5,310833	0,1	1,008381
5,312500	0,1	0,990969
5,314167	0,1	1,008257
5,315833	0,1	1,018516
5,317500	0,1	1,024924
5,319167	0,1	0,991711
5,320833	0,1	0,997576
5,322500	0,1	0,994540
5,324167	0,1	1,015691
5,325833	0,1	0,999856
5,327500	0,1	1,007096
5,329167	0,1	1,024690
5,330833	0,1	1,001049
5,332500	0,1	1,049226
5,334167	0,1	0,987406
5,335833	0,1	0,990964
5,337500	0,1	0,999289
5,339167	0,1	0,995430
5,340833	0,1	0,992130
5,342500	0,1	1,005683
5,344167	0,1	1,012039
5,345833	0,1	1,011136
5,347500	0,1	1,034481
5,349167	0,1	1,035595
5,350833	0,1	1,015990
5,352500	0,1	0,986384
5,354167	0,1	1,002423
5,355833	0,1	1,019843
5,357500	0,1	0,973475
5,359167	0,1	1,003625
5,360833	0,1	1,044597
5,362500	0,1	1,014526
5,364167	0,1	0,998390
5,365833	0,1	1,002549
5,367500	0,1	0,990803
5,369167	0,1	1,023016
5,370833	0,1	1,017917
5,372500	0,1	1,027869
5,374167	0,1	0,981539
5,375833	0,1	1,009295
5,377500	0,1	0,998732
5,379167	0,1	1,026371
5,380833	0,1	1,010975
5,382500	0,1	1,009684
5,384167	0,1	1,026456
5,385833	0,1	0,998105
5,387500	0,1	1,030864
5,389167	0,1	0,995397
5,390833	0,1	1,023579
5,392500	0,1	1,009620
5,394167	0,1	1,036191
5,395833	0,1	0,994152
5,397500	0,1	1,006107
5,399167	0,1	1,006712
5,400833	0,1	1,034136
5,402500	0,1	1,003651
5,404167	0,1	1,032246
5,405833	0,1	1,003803
5,407500	0,1	1,013502
5,409167	0,1	0,991435
5,410833	0,1	0,974453
5,412500	0,1	1,047560
5,414167	0,1	1,025260
5,415833	0,1	0,987153
5,417500	0,1	1,006243
5,419167	0,1	1,006371
5,420833	0,1	1,025729
5,422500	0,1	0,967481
5,424167	0,1	0,968958
5,425833	0,1	0,978008
5,427500	0,1	1,024094
5,429167	0,1	0,993682
5,430833	0,1	1,010720
5,432500	0,1	1,031126
5,434167	0,1	0,999175
5,435833	0,1	1,009942
5,437500	0,1	0,990353
5,439167	0,1	1,027191
5,440833	0,1	1,011442
5,442500	0,1	0,993462
5,444167	0,1	1,025437
5,445833	0,1	1,013548
5,447500	0,1	1,017230
5,449167	0,1	1,017366
5,450833	0,1	1,045309
5,452500	0,1	1,014593
5,454167	0,1	1,027827
5,455833	0,1	1,021188
5,457500	0,1	1,003169
5,459167	0,1	1,019087
5,460833	0,1	1,004373
5,462500	0,1	1,065463
5,464167	0,1	1,010902
5,465833	0,1	0,992351
5,467500	0,1	1,014322
5,469167	0,1	0,985356
5,470833	0,1	1,045508
5,472500	0,1	1,020261
5,474167	0,1	1,031896
5,475833	0,1	1,034662
5,477500	0,1	1,025216
5,479167	0,1	1,037400
5,480833	0,1	1,017932
5,482500	0,1	1,035220
5,484167	0,1	1,001762
5,485833	0,1	0,998401
5,487500	0,1	1,005094
5,489167	0,1	0,994829
5,490833	0,1	1,014610
5,492500	0,1	1,037889
5,494167	0,1	1,040703
5,495833	0,1	1,019467
5,497500	0,1	1,008140
5,499167	0,1	1,004235
5,500833	0,1	1,022211
5,502500	0,1	1,021228
5,504167	0,1	1,073024
5,505833	0,1	1,030167
5,507500	0,1	0,979105
5,509167	0,1	1,035719
5,510833	0,1	0,994425
5,512500	0,1	1,014008
5,514167	0,1	1,016463
5,515833	0,1	1,037659
5,517500	0,1	1,026518
5,519167	0,1	1,024925
5,520833	0,1	1,048872
5,522500	0,1	1,002491
5,524167	0,1	1,019282
5,525833	0,1	1,028306
5,527500	0,1	1,016767
5,529167	0,1	1,019132
5,530833	0,1	1,000718
5,532500	0,1	1,023019
5,534167	0,1	1,045465
5,535833	0,1	1,023932
5,537500	0,1	1,067876
5,539167	0,1	1,030727
5,540833	0,1	1,018192
5,542500	0,1	1,029087
5,544167	0,1	1,020848
5,545833	0,1	1,012918
5,547500	0,1	1,026168
5,549167	0,1	0,988015
5,550833	0,1	1,051396
5,552500	0,1	1,024879
5,554167	0,1	1,063881
5,555833	0,1	1,006303
5,557500	0,1	1,020251
5,559167	0,1	0,996804
5,560833	0,1	1,008572
5,562500	0,1	1,038872
5,564167	0,1	1,020110
5,565833	0,1	1,027894
5,567500	0,1	1,023982
5,569167	0,1	1,021625
5,570833	0,1	1,020681
5,572500	0,1	1,012439
5,574167	0,1	1,035042
5,575833	0,1	1,042385
5,577500	0,1	1,022946
5,579167	0,1	1,023379
5,580833	0,1	1,032688
5,582500	0,1	1,038482
5,584167	0,1	1,001640
5,585833	0,1	1,057137
5,587500	0,1	1,035996
5,589167	0,1	1,036978
5,590833	0,1	1,025354
5,592500	0,1	1,045365
5,594167	0,1	1,055956
5,595833	0,1	1,032217
5,597500	0,1	1,014414
5,599167	0,1	1,018708
5,600833	0,1	1,018612
5,602500	0,1	1,066151
5,604167	0,1	1,064493
5,605833	0,1	1,010849
5,607500	0,1	1,061561
5,609167	0,1	1,051732
5,610833	0,1	1,001643
5,612500	0,1	1,028481
5,614167	0,1	0,990604
5,615833	0,1	0,988526
5,617500	0,1	1,014073
5,619167	0,1	1,058386
5,620833	0,1	1,057453
5,622500	0,1	1,031629
5,624167	0,1	1,041317
5,625833	0,1	1,058829
5,627500	0,1	1,034025
5,629167	0,1	1,026517
5,630833	0,1	1,021779
5,632500	0,1	1,058866
5,634167	0,1	1,023346
5,635833	0,1	1,032471
5,637500	0,1	1,042645
5,639167	0,1	1,008187
5,640833	0,1	1,021662
5,642500	0,1	1,046078
5,644167	0,1	1,070114
5,645833	0,1	1,046420
5,647500	0,1	1,028956
5,649167	0,1	1,054228
5,650833	0,1	1,008119
5,652500	0,1	1,034793
5,654167	0,1	1,018657
5,655833	0,1	1,022432
5,657500	0,1	1,048215
5,659167	0,1	1,017497
5,660833	0,1	1,003127
5,662500	0,1	1,064041
5,664167	0,1	1,052182
5,665833	0,1	1,008982
5,667500	0,1	1,047499
5,669167	0,1	1,040240
5,670833	0,1	1,058092
5,672500	0,1	1,040980
5,674167	0,1	1,057325
5,675833	0,1	1,027331
5,677500	0,1	1,052982
5,679167	0,1	1,035228
5,680833	0,1	1,035348
5,682500	0,1	1,095128
5,684167	0,1	1,025066
5,685833	0,1	1,081527
5,687500	0,1	1,038029
5,689167	0,1	1,027543
5,690833	0,1	1,001925
5,692500	0,1	1,050141
5,694167	0,1	1,037158
5,695833	0,1	1,034759
5,697500	0,1	1,032556
5,699167	0,1	1,026940
5,700833	0,1	1,041877
5,702500	0,1	1,043728
5,704167	0,1	1,019344
5,705833	0,1	1,028402
5,707500	0,1	1,079037
5,709167	0,1	1,053307
5,710833	0,1	1,055614
5,712500	0,1	1,041622
5,714167	0,1	1,046591
5,715833	0,1	1,045523
5,717500	0,1	1,013253
5,719167	0,1	1,042434
5,720833	0,1	1,028873
5,722500	0,1	1,041275
5,724167	0,1	1,049561
5,725833	0,1	1,057078
5,727500	0,1	1,043388
5,729167	0,1	1,048026
5,730833	0,1	1,041703
5,732500	0,1	1,051562
5,734167	0,1	1,074143
5,735833	0,1	1,036107
5,737500	0,1	1,035568
5,739167	0,1	1,065005
5,740833	0,1	1,039925
5,742500	0,1	1,049561
5,744167	0,1	1,048731
5,745833	0,1	1,046125
5,747500	0,1	1,032600
5,749167	0,1	1,058744
5,750833	0,1	1,007121
5,752500	0,1	1,048348
5,754167	0,1	1,047660
5,755833	0,1	1,066980
5,757500	0,1	1,039914
5,759167	0,1	1,048834
5,760833	0,1	1,081616
5,762500	0,1	1,067071
5,764167	0,1	1,040434
5,765833	0,1	1,004037
5,767500	0,1	1,019855
5,769167	0,1	1,046721
5,770833	0,1	1,038994
5,772500	0,1	1,042482
5,774167	0,1	1,028106
5,775833	0,1	1,052308
5,777500	0,1	1,057617
5,779167	0,1	1,057422
5,780833	0,1	1,051234
5,782500	0,1	1,061064
5,784167	0,1	1,089300
5,785833	0,1	1,030515
5,787500	0,1	1,067412
5,789167	0,1	1,044502
5,790833	0,1	1,054025
5,792500	0,1	1,071964
5,794167	0,1	1,028291
5,795833	0,1	1,046092
5,797500	0,1	1,017481
5,799167	0,1	1,049170
5,800833	0,1	1,028025
5,802500	0,1	1,039272
5,804167	0,1	1,077586
5,805833	0,1	1,050430
5,807500	0,1	1,065059
5,809167	0,1	1,024976
5,810833	0,1	1,073846
5,812500	0,1	1,068200
5,814167	0,1	1,036408
5,815833	0,1	1,042275
5,817500	0,1	1,048905
5,819167	0,1	1,073591
5,820833	0,1	1,032029
5,822500	0,1	1,027118
5,824167	0,1	1,119374
5,825833	0,1	1,067350
5,827500	0,1	1,084838
5,829167	0,1	1,065151
5,830833	0,1	1,076045
5,832500	0,1	1,091027
5,834167	0,1	1,049625
5,835833	0,1	1,046824
5,837500	0,1	1,034542
5,839167	0,1	1,021834
5,840833	0,1	1,008714
5,842500	0,1	1,100830
5,844167	0,1	1,051038
5,845833	0,1	1,077360
5,847500	0,1	1,062326
5,849167	0,1	1,083247
5,850833	0,1	1,065150
5,852500	0,1	1,008806
5,854167	0,1	1,059767
5,855833	0,1	1,084887
5,857500	0,1	1,074804
5,859167	0,1	1,052632
5,860833	0,1	1,034337
5,862500	0,1	1,049229
5,864167	0,1	1,065951
5,865833	0,1	1,033273
5,867500	0,1	1,063864
5,869167	0,1	1,029670
5,870833	0,1	1,056895
5,872500	0,1	1,057421
5,874167	0,1	1,020907
5,875833	0,1	1,055772
5,877500	0,1	1,042362
5,879167	0,1	1,061716
5,880833	0,1	1,107246
5,882500	0,1	1,061845
5,884167	0,1	1,066349
5,885833	0,1	1,054767
5,887500	0,1	1,048040
5,889167	0,1	1,106890
5,890833	0,1	1,063321
5,892500	0,1	1,057901
5,894167	0,1	1,066609
5,895833	0,1	1,075755
5,897500	0,1	1,014944
5,899167	0,1	1,045009
5,900833	0,1	1,062401
5,902500	0,1	1,047563
5,904167	0,1	1,092826
5,905833	0,1	1,050227
5,907500	0,1	1,040430
5,909167	0,1	1,072614
5,910833	0,1	1,076266
5,912500	0,1	1,020735
5,914167	0,1	1,040764
5,915833	0,1	1,085692
5,917500	0,1	1,071681
5,919167	0,1	1,034820
5,920833	0,1	1,074024
5,922500	0,1	1,087506
5,924167	0,1	1,088880
5,925833	0,1	1,056661
5,927500	0,1	1,073210
5,929167	0,1	1,041816
5,930833	0,1	1,065057
5,932500	0,1	1,075330
5,934167	0,1	1,061507
5,935833	0,1	1,059136
5,937500	0,1	1,099128
5,939167	0,1	1,063567
5,940833	0,1	1,074126
5,942500	0,1	1,059658
5,944167	0,1	1,092734
5,945833	0,1	1,078667
5,947500	0,1	1,095064
5,949167	0,1	1,055813
5,950833	0,1	1,056914
5,952500	0,1	1,084035
5,954167	0,1	1,064258
5,955833	0,1	1,078972
5,957500	0,1	1,052154
5,959167	0,1	1,054133
5,960833	0,1	1,048122
5,962500	0,1	1,068537
5,964167	0,1	1,028002
5,965833	0,1	1,049486
5,967500	0,1	1,078751
5,969167	0,1	1,082276
5,970833	0,1	1,066998
5,972500	0,1	1,071262
5,974167	0,1	1,059273
5,975833	0,1	1,047521
5,977500	0,1	1,064510
5,979167	0,1	1,100375
5,980833	0,1	1,081472
5,982500	0,1	1,047651
5,984167	0,1	1,055874
5,985833	0,1	1,084669
5,987500	0,1	1,045297
5,989167	0,1	1,041000
5,990833	0,1	1,095698
5,992500	0,1	1,100436
5,994167	0,1	1,068238
5,995833	0,1	1,145697
5,997500	0,1	1,083102
5,999167	0,1	1,073341
6,000833	0,1	1,052070
