File Path	chrom://chromeleon01/ikbm_chromeleon/2022/Rezex/Esteban/220612_chitin_4_7.seq/761.smp/UV_VIS_1.channel/UV_VIS_1.chm
Channel	UV_VIS_1

Injection Information:
Data Vault	ikbm_chromeleon
Injection	Blank__07
Injection Number	53
Position	RA1
Comment	
Processing Method	New ProcMethod
Instrument Method	Short_Rezex_6min_194nm
Type	Blank
Status	Finished
Injection Date	12.06.2022
Injection Time	22:50:30
Injection Volume (µl)	8,000
Dilution Factor	1,0000
Weight	1,0000

Chromatogram Data Information:
Time Min. (min)	0,000833
Time Max. (min)	6,000833
Data Points	3601
Detector	UV
Generating Data System	Chromeleon 7.2.9.11323
Exporting Data System	Chromeleon 7.2.9.0
Operator	Instrument Controller
Signal Quantity	Absorbance
Signal Unit	mAU
Signal Min.	-0,075496
Signal Max.	8,406868
Channel	UV_VIS_1
Driver Name	VWD3000.dll
Channel Type	Evaluation
Min. Step (s)	0,1
Max. Step (s)	0,1
Average Step (s)	0,1

Signal Parameter Information:
Signal Info	WVL:194 nm

Chromatogram Data:
Time (min)	Step (s)	Value (mAU)
0,000833	n.a.	0,087369
0,002500	0,1	0,063223
0,004167	0,1	0,064729
0,005833	0,1	0,090453
0,007500	0,1	0,081606
0,009167	0,1	0,069370
0,010833	0,1	0,052754
0,012500	0,1	0,077669
0,014167	0,1	0,045514
0,015833	0,1	0,082785
0,017500	0,1	0,020502
0,019167	0,1	0,073508
0,020833	0,1	0,094513
0,022500	0,1	0,084022
0,024167	0,1	0,075035
0,025833	0,1	0,099888
0,027500	0,1	0,062132
0,029167	0,1	0,046476
0,030833	0,1	0,074610
0,032500	0,1	0,061674
0,034167	0,1	0,044158
0,035833	0,1	0,030376
0,037500	0,1	0,066493
0,039167	0,1	0,066372
0,040833	0,1	0,033214
0,042500	0,1	0,096370
0,044167	0,1	0,021148
0,045833	0,1	0,064173
0,047500	0,1	0,051079
0,049167	0,1	0,041418
0,050833	0,1	0,006813
0,052500	0,1	0,049747
0,054167	0,1	0,069458
0,055833	0,1	0,038945
0,057500	0,1	0,051331
0,059167	0,1	0,031311
0,060833	0,1	0,048947
0,062500	0,1	0,037459
0,064167	0,1	0,058735
0,065833	0,1	0,051819
0,067500	0,1	0,055261
0,069167	0,1	0,056614
0,070833	0,1	0,072968
0,072500	0,1	0,031508
0,074167	0,1	0,086516
0,075833	0,1	0,035151
0,077500	0,1	0,060601
0,079167	0,1	0,073871
0,080833	0,1	0,038238
0,082500	0,1	0,018207
0,084167	0,1	0,007772
0,085833	0,1	0,025539
0,087500	0,1	0,068776
0,089167	0,1	0,064344
0,090833	0,1	0,052786
0,092500	0,1	0,056227
0,094167	0,1	0,052751
0,095833	0,1	0,027095
0,097500	0,1	0,054387
0,099167	0,1	0,060477
0,100833	0,1	0,097083
0,102500	0,1	0,066861
0,104167	0,1	0,085238
0,105833	0,1	0,081088
0,107500	0,1	0,062930
0,109167	0,1	0,056359
0,110833	0,1	0,042676
0,112500	0,1	0,089576
0,114167	0,1	0,057266
0,115833	0,1	0,072067
0,117500	0,1	0,073938
0,119167	0,1	0,076256
0,120833	0,1	0,091873
0,122500	0,1	0,056043
0,124167	0,1	0,078120
0,125833	0,1	0,059228
0,127500	0,1	0,034531
0,129167	0,1	0,042895
0,130833	0,1	0,071388
0,132500	0,1	0,075517
0,134167	0,1	0,051983
0,135833	0,1	0,043157
0,137500	0,1	0,084330
0,139167	0,1	0,071559
0,140833	0,1	0,079444
0,142500	0,1	0,065569
0,144167	0,1	0,070107
0,145833	0,1	0,037529
0,147500	0,1	0,043669
0,149167	0,1	0,089514
0,150833	0,1	0,067761
0,152500	0,1	0,083466
0,154167	0,1	0,058650
0,155833	0,1	0,077540
0,157500	0,1	0,048347
0,159167	0,1	0,063759
0,160833	0,1	0,046477
0,162500	0,1	0,069940
0,164167	0,1	0,027421
0,165833	0,1	0,049880
0,167500	0,1	0,087551
0,169167	0,1	0,049895
0,170833	0,1	0,022360
0,172500	0,1	0,061404
0,174167	0,1	0,047313
0,175833	0,1	0,075511
0,177500	0,1	0,054430
0,179167	0,1	0,041162
0,180833	0,1	0,085585
0,182500	0,1	0,053982
0,184167	0,1	0,093184
0,185833	0,1	0,043909
0,187500	0,1	0,063758
0,189167	0,1	0,065277
0,190833	0,1	0,078121
0,192500	0,1	0,065216
0,194167	0,1	0,072231
0,195833	0,1	0,041037
0,197500	0,1	0,039420
0,199167	0,1	0,072513
0,200833	0,1	0,033795
0,202500	0,1	0,092249
0,204167	0,1	0,032544
0,205833	0,1	0,058960
0,207500	0,1	0,046313
0,209167	0,1	0,075252
0,210833	0,1	0,051339
0,212500	0,1	0,076058
0,214167	0,1	0,083081
0,215833	0,1	0,048315
0,217500	0,1	0,034176
0,219167	0,1	0,068746
0,220833	0,1	0,045350
0,222500	0,1	0,037876
0,224167	0,1	0,068812
0,225833	0,1	0,067983
0,227500	0,1	0,085818
0,229167	0,1	0,067051
0,230833	0,1	0,111765
0,232500	0,1	0,041175
0,234167	0,1	0,031887
0,235833	0,1	0,028023
0,237500	0,1	0,056705
0,239167	0,1	0,036432
0,240833	0,1	0,021585
0,242500	0,1	0,063237
0,244167	0,1	0,047023
0,245833	0,1	0,040259
0,247500	0,1	0,053103
0,249167	0,1	0,080728
0,250833	0,1	0,095544
0,252500	0,1	0,070209
0,254167	0,1	0,055943
0,255833	0,1	0,085300
0,257500	0,1	0,083697
0,259167	0,1	0,089685
0,260833	0,1	0,097572
0,262500	0,1	0,078516
0,264167	0,1	0,060612
0,265833	0,1	0,092899
0,267500	0,1	0,079995
0,269167	0,1	0,112480
0,270833	0,1	0,059043
0,272500	0,1	0,074805
0,274167	0,1	0,048411
0,275833	0,1	0,048178
0,277500	0,1	0,098239
0,279167	0,1	0,081124
0,280833	0,1	0,056589
0,282500	0,1	0,085942
0,284167	0,1	-0,000808
0,285833	0,1	0,080006
0,287500	0,1	0,106232
0,289167	0,1	0,096932
0,290833	0,1	0,068955
0,292500	0,1	0,064666
0,294167	0,1	0,032279
0,295833	0,1	0,095791
0,297500	0,1	0,079644
0,299167	0,1	0,090584
0,300833	0,1	0,053566
0,302500	0,1	0,052719
0,304167	0,1	0,116366
0,305833	0,1	0,071793
0,307500	0,1	0,056973
0,309167	0,1	0,067336
0,310833	0,1	0,057004
0,312500	0,1	0,078024
0,314167	0,1	0,082631
0,315833	0,1	0,085595
0,317500	0,1	0,082183
0,319167	0,1	0,060646
0,320833	0,1	0,088521
0,322500	0,1	0,079255
0,324167	0,1	0,074489
0,325833	0,1	0,095605
0,327500	0,1	0,047450
0,329167	0,1	0,011994
0,330833	0,1	0,065875
0,332500	0,1	0,081954
0,334167	0,1	0,079413
0,335833	0,1	0,106776
0,337500	0,1	0,062099
0,339167	0,1	0,072295
0,340833	0,1	0,095570
0,342500	0,1	0,082992
0,344167	0,1	0,076837
0,345833	0,1	0,061963
0,347500	0,1	0,062637
0,349167	0,1	0,038910
0,350833	0,1	0,069616
0,352500	0,1	0,059772
0,354167	0,1	0,054941
0,355833	0,1	0,093606
0,357500	0,1	0,067504
0,359167	0,1	0,042035
0,360833	0,1	0,043381
0,362500	0,1	0,086068
0,364167	0,1	0,085758
0,365833	0,1	0,088559
0,367500	0,1	0,056076
0,369167	0,1	0,048888
0,370833	0,1	0,103775
0,372500	0,1	0,064416
0,374167	0,1	0,068174
0,375833	0,1	0,065729
0,377500	0,1	0,089037
0,379167	0,1	0,096125
0,380833	0,1	0,100343
0,382500	0,1	0,084088
0,384167	0,1	0,045482
0,385833	0,1	0,085909
0,387500	0,1	0,079930
0,389167	0,1	0,054142
0,390833	0,1	0,046796
0,392500	0,1	0,119455
0,394167	0,1	0,085604
0,395833	0,1	0,071237
0,397500	0,1	0,085592
0,399167	0,1	0,075005
0,400833	0,1	0,091677
0,402500	0,1	0,060293
0,404167	0,1	0,074449
0,405833	0,1	0,111799
0,407500	0,1	0,090043
0,409167	0,1	0,078611
0,410833	0,1	0,079961
0,412500	0,1	0,098922
0,414167	0,1	0,056753
0,415833	0,1	0,053009
0,417500	0,1	0,080437
0,419167	0,1	0,114668
0,420833	0,1	0,093975
0,422500	0,1	0,076101
0,424167	0,1	0,063122
0,425833	0,1	0,069621
0,427500	0,1	0,107646
0,429167	0,1	0,089689
0,430833	0,1	0,086080
0,432500	0,1	0,073362
0,434167	0,1	0,088653
0,435833	0,1	0,066344
0,437500	0,1	0,137202
0,439167	0,1	0,112779
0,440833	0,1	0,073209
0,442500	0,1	0,082471
0,444167	0,1	0,081796
0,445833	0,1	0,059293
0,447500	0,1	0,089451
0,449167	0,1	0,094094
0,450833	0,1	0,078386
0,452500	0,1	0,057039
0,454167	0,1	0,099302
0,455833	0,1	0,062002
0,457500	0,1	0,082692
0,459167	0,1	0,060002
0,460833	0,1	0,085846
0,462500	0,1	0,121202
0,464167	0,1	0,104019
0,465833	0,1	0,106625
0,467500	0,1	0,087082
0,469167	0,1	0,089427
0,470833	0,1	0,085115
0,472500	0,1	0,119112
0,474167	0,1	0,091627
0,475833	0,1	0,082119
0,477500	0,1	0,109581
0,479167	0,1	0,109038
0,480833	0,1	0,106497
0,482500	0,1	0,079354
0,484167	0,1	0,112156
0,485833	0,1	0,065934
0,487500	0,1	0,097952
0,489167	0,1	0,116183
0,490833	0,1	0,112874
0,492500	0,1	0,123464
0,494167	0,1	0,100350
0,495833	0,1	0,120147
0,497500	0,1	0,120955
0,499167	0,1	0,100670
0,500833	0,1	0,112226
0,502500	0,1	0,067349
0,504167	0,1	0,119075
0,505833	0,1	0,086762
0,507500	0,1	0,086046
0,509167	0,1	0,081282
0,510833	0,1	0,110643
0,512500	0,1	0,080291
0,514167	0,1	0,126258
0,515833	0,1	0,126493
0,517500	0,1	0,084931
0,519167	0,1	0,120529
0,520833	0,1	0,098676
0,522500	0,1	0,101214
0,524167	0,1	0,130156
0,525833	0,1	0,093045
0,527500	0,1	0,122848
0,529167	0,1	0,121600
0,530833	0,1	0,134769
0,532500	0,1	0,108435
0,534167	0,1	0,113222
0,535833	0,1	0,094231
0,537500	0,1	0,091619
0,539167	0,1	0,109260
0,540833	0,1	0,138343
0,542500	0,1	0,059500
0,544167	0,1	0,136266
0,545833	0,1	0,111170
0,547500	0,1	0,126813
0,549167	0,1	0,131615
0,550833	0,1	0,101319
0,552500	0,1	0,114961
0,554167	0,1	0,115064
0,555833	0,1	0,097126
0,557500	0,1	0,088336
0,559167	0,1	0,091553
0,560833	0,1	0,142389
0,562500	0,1	0,104218
0,564167	0,1	0,165645
0,565833	0,1	0,093859
0,567500	0,1	0,085697
0,569167	0,1	0,072139
0,570833	0,1	0,120235
0,572500	0,1	0,120826
0,574167	0,1	0,099320
0,575833	0,1	0,119342
0,577500	0,1	0,135218
0,579167	0,1	0,106665
0,580833	0,1	0,097770
0,582500	0,1	0,126842
0,584167	0,1	0,121986
0,585833	0,1	0,157981
0,587500	0,1	0,138736
0,589167	0,1	0,095558
0,590833	0,1	0,118309
0,592500	0,1	0,144137
0,594167	0,1	0,138635
0,595833	0,1	0,117351
0,597500	0,1	0,150029
0,599167	0,1	0,098619
0,600833	0,1	0,083894
0,602500	0,1	0,122364
0,604167	0,1	0,138792
0,605833	0,1	0,123920
0,607500	0,1	0,107530
0,609167	0,1	0,103407
0,610833	0,1	0,121016
0,612500	0,1	0,127006
0,614167	0,1	0,139598
0,615833	0,1	0,132906
0,617500	0,1	0,113939
0,619167	0,1	0,133189
0,620833	0,1	0,156278
0,622500	0,1	0,126212
0,624167	0,1	0,182449
0,625833	0,1	0,125383
0,627500	0,1	0,084253
0,629167	0,1	0,078706
0,630833	0,1	0,116728
0,632500	0,1	0,143265
0,634167	0,1	0,125914
0,635833	0,1	0,141214
0,637500	0,1	0,091180
0,639167	0,1	0,120915
0,640833	0,1	0,139824
0,642500	0,1	0,131777
0,644167	0,1	0,097746
0,645833	0,1	0,136145
0,647500	0,1	0,127754
0,649167	0,1	0,114679
0,650833	0,1	0,144233
0,652500	0,1	0,118676
0,654167	0,1	0,106373
0,655833	0,1	0,110810
0,657500	0,1	0,170890
0,659167	0,1	0,134522
0,660833	0,1	0,140083
0,662500	0,1	0,121604
0,664167	0,1	0,150484
0,665833	0,1	0,168357
0,667500	0,1	0,128920
0,669167	0,1	0,086476
0,670833	0,1	0,162481
0,672500	0,1	0,140154
0,674167	0,1	0,145916
0,675833	0,1	0,125954
0,677500	0,1	0,195366
0,679167	0,1	0,167116
0,680833	0,1	0,164946
0,682500	0,1	0,147720
0,684167	0,1	0,163430
0,685833	0,1	0,156898
0,687500	0,1	0,151550
0,689167	0,1	0,177628
0,690833	0,1	0,155224
0,692500	0,1	0,145884
0,694167	0,1	0,149356
0,695833	0,1	0,162236
0,697500	0,1	0,148396
0,699167	0,1	0,139896
0,700833	0,1	0,184266
0,702500	0,1	0,128345
0,704167	0,1	0,166355
0,705833	0,1	0,185560
0,707500	0,1	0,180082
0,709167	0,1	0,154132
0,710833	0,1	0,127852
0,712500	0,1	0,190378
0,714167	0,1	0,138420
0,715833	0,1	0,159824
0,717500	0,1	0,142794
0,719167	0,1	0,165875
0,720833	0,1	0,136068
0,722500	0,1	0,149358
0,724167	0,1	0,136741
0,725833	0,1	0,166907
0,727500	0,1	0,163983
0,729167	0,1	0,159825
0,730833	0,1	0,190027
0,732500	0,1	0,140776
0,734167	0,1	0,162979
0,735833	0,1	0,176639
0,737500	0,1	0,144572
0,739167	0,1	0,177663
0,740833	0,1	0,180696
0,742500	0,1	0,141321
0,744167	0,1	0,190282
0,745833	0,1	0,196060
0,747500	0,1	0,189333
0,749167	0,1	0,174838
0,750833	0,1	0,214576
0,752500	0,1	0,149923
0,754167	0,1	0,160665
0,755833	0,1	0,182593
0,757500	0,1	0,162026
0,759167	0,1	0,163374
0,760833	0,1	0,200657
0,762500	0,1	0,156328
0,764167	0,1	0,207131
0,765833	0,1	0,179963
0,767500	0,1	0,160252
0,769167	0,1	0,190482
0,770833	0,1	0,209680
0,772500	0,1	0,187373
0,774167	0,1	0,213058
0,775833	0,1	0,181419
0,777500	0,1	0,195804
0,779167	0,1	0,158809
0,780833	0,1	0,159862
0,782500	0,1	0,165204
0,784167	0,1	0,189071
0,785833	0,1	0,209259
0,787500	0,1	0,243112
0,789167	0,1	0,192824
0,790833	0,1	0,171333
0,792500	0,1	0,193739
0,794167	0,1	0,245076
0,795833	0,1	0,167642
0,797500	0,1	0,217178
0,799167	0,1	0,168119
0,800833	0,1	0,187617
0,802500	0,1	0,219536
0,804167	0,1	0,171370
0,805833	0,1	0,168687
0,807500	0,1	0,215023
0,809167	0,1	0,168113
0,810833	0,1	0,197894
0,812500	0,1	0,191070
0,814167	0,1	0,227938
0,815833	0,1	0,184216
0,817500	0,1	0,219636
0,819167	0,1	0,218283
0,820833	0,1	0,170726
0,822500	0,1	0,195541
0,824167	0,1	0,227547
0,825833	0,1	0,220646
0,827500	0,1	0,244112
0,829167	0,1	0,199460
0,830833	0,1	0,248841
0,832500	0,1	0,213371
0,834167	0,1	0,213136
0,835833	0,1	0,220026
0,837500	0,1	0,198934
0,839167	0,1	0,232934
0,840833	0,1	0,254450
0,842500	0,1	0,242805
0,844167	0,1	0,228471
0,845833	0,1	0,209755
0,847500	0,1	0,208788
0,849167	0,1	0,199315
0,850833	0,1	0,234706
0,852500	0,1	0,235267
0,854167	0,1	0,220705
0,855833	0,1	0,244794
0,857500	0,1	0,246789
0,859167	0,1	0,207478
0,860833	0,1	0,245818
0,862500	0,1	0,211886
0,864167	0,1	0,204149
0,865833	0,1	0,219640
0,867500	0,1	0,262922
0,869167	0,1	0,250694
0,870833	0,1	0,221223
0,872500	0,1	0,223892
0,874167	0,1	0,246915
0,875833	0,1	0,241803
0,877500	0,1	0,218680
0,879167	0,1	0,243720
0,880833	0,1	0,220201
0,882500	0,1	0,225406
0,884167	0,1	0,202546
0,885833	0,1	0,261538
0,887500	0,1	0,260103
0,889167	0,1	0,250536
0,890833	0,1	0,259261
0,892500	0,1	0,239874
0,894167	0,1	0,268015
0,895833	0,1	0,302453
0,897500	0,1	0,285134
0,899167	0,1	0,269510
0,900833	0,1	0,252367
0,902500	0,1	0,262799
0,904167	0,1	0,265221
0,905833	0,1	0,245197
0,907500	0,1	0,271341
0,909167	0,1	0,273859
0,910833	0,1	0,238880
0,912500	0,1	0,268463
0,914167	0,1	0,233016
0,915833	0,1	0,303417
0,917500	0,1	0,269619
0,919167	0,1	0,269824
0,920833	0,1	0,257454
0,922500	0,1	0,314967
0,924167	0,1	0,269517
0,925833	0,1	0,263317
0,927500	0,1	0,269309
0,929167	0,1	0,291895
0,930833	0,1	0,243719
0,932500	0,1	0,281543
0,934167	0,1	0,272050
0,935833	0,1	0,265746
0,937500	0,1	0,335821
0,939167	0,1	0,300155
0,940833	0,1	0,255856
0,942500	0,1	0,312401
0,944167	0,1	0,277770
0,945833	0,1	0,278209
0,947500	0,1	0,328290
0,949167	0,1	0,300375
0,950833	0,1	0,317184
0,952500	0,1	0,277035
0,954167	0,1	0,288058
0,955833	0,1	0,304849
0,957500	0,1	0,265371
0,959167	0,1	0,314955
0,960833	0,1	0,308114
0,962500	0,1	0,325048
0,964167	0,1	0,300637
0,965833	0,1	0,301052
0,967500	0,1	0,310257
0,969167	0,1	0,305881
0,970833	0,1	0,343955
0,972500	0,1	0,328306
0,974167	0,1	0,277250
0,975833	0,1	0,296668
0,977500	0,1	0,321983
0,979167	0,1	0,356107
0,980833	0,1	0,342810
0,982500	0,1	0,347501
0,984167	0,1	0,349855
0,985833	0,1	0,338878
0,987500	0,1	0,318444
0,989167	0,1	0,334464
0,990833	0,1	0,341451
0,992500	0,1	0,325831
0,994167	0,1	0,413256
0,995833	0,1	0,366819
0,997500	0,1	0,327191
0,999167	0,1	0,365378
1,000833	0,1	0,376985
1,002500	0,1	0,359473
1,004167	0,1	0,345888
1,005833	0,1	0,343293
1,007500	0,1	0,341453
1,009167	0,1	0,340649
1,010833	0,1	0,332470
1,012500	0,1	0,362553
1,014167	0,1	0,370766
1,015833	0,1	0,416671
1,017500	0,1	0,319697
1,019167	0,1	0,353754
1,020833	0,1	0,353787
1,022500	0,1	0,388001
1,024167	0,1	0,401028
1,025833	0,1	0,365448
1,027500	0,1	0,402692
1,029167	0,1	0,426965
1,030833	0,1	0,409507
1,032500	0,1	0,375326
1,034167	0,1	0,439780
1,035833	0,1	0,362000
1,037500	0,1	0,384428
1,039167	0,1	0,395741
1,040833	0,1	0,403964
1,042500	0,1	0,420677
1,044167	0,1	0,375619
1,045833	0,1	0,375713
1,047500	0,1	0,398382
1,049167	0,1	0,448186
1,050833	0,1	0,412129
1,052500	0,1	0,421102
1,054167	0,1	0,434190
1,055833	0,1	0,441926
1,057500	0,1	0,441416
1,059167	0,1	0,405776
1,060833	0,1	0,455740
1,062500	0,1	0,463997
1,064167	0,1	0,442445
1,065833	0,1	0,394349
1,067500	0,1	0,405738
1,069167	0,1	0,459897
1,070833	0,1	0,441089
1,072500	0,1	0,457880
1,074167	0,1	0,460421
1,075833	0,1	0,458506
1,077500	0,1	0,469219
1,079167	0,1	0,447535
1,080833	0,1	0,449662
1,082500	0,1	0,427396
1,084167	0,1	0,501034
1,085833	0,1	0,489119
1,087500	0,1	0,444491
1,089167	0,1	0,474883
1,090833	0,1	0,495646
1,092500	0,1	0,488540
1,094167	0,1	0,495716
1,095833	0,1	0,459605
1,097500	0,1	0,470508
1,099167	0,1	0,485021
1,100833	0,1	0,493096
1,102500	0,1	0,534213
1,104167	0,1	0,454079
1,105833	0,1	0,511109
1,107500	0,1	0,504545
1,109167	0,1	0,528569
1,110833	0,1	0,538264
1,112500	0,1	0,535113
1,114167	0,1	0,502817
1,115833	0,1	0,495075
1,117500	0,1	0,476162
1,119167	0,1	0,533319
1,120833	0,1	0,563470
1,122500	0,1	0,499513
1,124167	0,1	0,530102
1,125833	0,1	0,534110
1,127500	0,1	0,539778
1,129167	0,1	0,536757
1,130833	0,1	0,561516
1,132500	0,1	0,513713
1,134167	0,1	0,538751
1,135833	0,1	0,546025
1,137500	0,1	0,554739
1,139167	0,1	0,565055
1,140833	0,1	0,587906
1,142500	0,1	0,587958
1,144167	0,1	0,563974
1,145833	0,1	0,581039
1,147500	0,1	0,575175
1,149167	0,1	0,599379
1,150833	0,1	0,562954
1,152500	0,1	0,597999
1,154167	0,1	0,578045
1,155833	0,1	0,637194
1,157500	0,1	0,605820
1,159167	0,1	0,595141
1,160833	0,1	0,609588
1,162500	0,1	0,626153
1,164167	0,1	0,611396
1,165833	0,1	0,564734
1,167500	0,1	0,623362
1,169167	0,1	0,650562
1,170833	0,1	0,659822
1,172500	0,1	0,643948
1,174167	0,1	0,632474
1,175833	0,1	0,669664
1,177500	0,1	0,620144
1,179167	0,1	0,678418
1,180833	0,1	0,679529
1,182500	0,1	0,629393
1,184167	0,1	0,683627
1,185833	0,1	0,679772
1,187500	0,1	0,668810
1,189167	0,1	0,688150
1,190833	0,1	0,688020
1,192500	0,1	0,694890
1,194167	0,1	0,677773
1,195833	0,1	0,688131
1,197500	0,1	0,687327
1,199167	0,1	0,689289
1,200833	0,1	0,704697
1,202500	0,1	0,708657
1,204167	0,1	0,711882
1,205833	0,1	0,723557
1,207500	0,1	0,717467
1,209167	0,1	0,712066
1,210833	0,1	0,776368
1,212500	0,1	0,762551
1,214167	0,1	0,762278
1,215833	0,1	0,742809
1,217500	0,1	0,730927
1,219167	0,1	0,766987
1,220833	0,1	0,764348
1,222500	0,1	0,778451
1,224167	0,1	0,797463
1,225833	0,1	0,767189
1,227500	0,1	0,774292
1,229167	0,1	0,757121
1,230833	0,1	0,799748
1,232500	0,1	0,779578
1,234167	0,1	0,817660
1,235833	0,1	0,801172
1,237500	0,1	0,788011
1,239167	0,1	0,809972
1,240833	0,1	0,843381
1,242500	0,1	0,849416
1,244167	0,1	0,837298
1,245833	0,1	0,836175
1,247500	0,1	0,809271
1,249167	0,1	0,835862
1,250833	0,1	0,855370
1,252500	0,1	0,895132
1,254167	0,1	0,905988
1,255833	0,1	0,893036
1,257500	0,1	0,875007
1,259167	0,1	0,896663
1,260833	0,1	0,917683
1,262500	0,1	0,881396
1,264167	0,1	0,912624
1,265833	0,1	0,882566
1,267500	0,1	0,892271
1,269167	0,1	0,917074
1,270833	0,1	0,951811
1,272500	0,1	0,907292
1,274167	0,1	0,972865
1,275833	0,1	0,914530
1,277500	0,1	0,929558
1,279167	0,1	1,015825
1,280833	0,1	0,932505
1,282500	0,1	0,959156
1,284167	0,1	0,934372
1,285833	0,1	0,961366
1,287500	0,1	0,995681
1,289167	0,1	0,986435
1,290833	0,1	0,980969
1,292500	0,1	1,009893
1,294167	0,1	1,015612
1,295833	0,1	0,985726
1,297500	0,1	1,028251
1,299167	0,1	1,054196
1,300833	0,1	1,004694
1,302500	0,1	1,015171
1,304167	0,1	1,024841
1,305833	0,1	1,044022
1,307500	0,1	1,053184
1,309167	0,1	1,086803
1,310833	0,1	1,042155
1,312500	0,1	1,040923
1,314167	0,1	1,103107
1,315833	0,1	1,076075
1,317500	0,1	1,127077
1,319167	0,1	1,123632
1,320833	0,1	1,128449
1,322500	0,1	1,157274
1,324167	0,1	1,141422
1,325833	0,1	1,135530
1,327500	0,1	1,132648
1,329167	0,1	1,136807
1,330833	0,1	1,175917
1,332500	0,1	1,197158
1,334167	0,1	1,151737
1,335833	0,1	1,175483
1,337500	0,1	1,185250
1,339167	0,1	1,200099
1,340833	0,1	1,208197
1,342500	0,1	1,233673
1,344167	0,1	1,222924
1,345833	0,1	1,192124
1,347500	0,1	1,249373
1,349167	0,1	1,271198
1,350833	0,1	1,250823
1,352500	0,1	1,245524
1,354167	0,1	1,270545
1,355833	0,1	1,291795
1,357500	0,1	1,304847
1,359167	0,1	1,299115
1,360833	0,1	1,306738
1,362500	0,1	1,319638
1,364167	0,1	1,304074
1,365833	0,1	1,308310
1,367500	0,1	1,346613
1,369167	0,1	1,318341
1,370833	0,1	1,346475
1,372500	0,1	1,370375
1,374167	0,1	1,403247
1,375833	0,1	1,366584
1,377500	0,1	1,379132
1,379167	0,1	1,400588
1,380833	0,1	1,422125
1,382500	0,1	1,393436
1,384167	0,1	1,385310
1,385833	0,1	1,405756
1,387500	0,1	1,434398
1,389167	0,1	1,445526
1,390833	0,1	1,444166
1,392500	0,1	1,445024
1,394167	0,1	1,491824
1,395833	0,1	1,455158
1,397500	0,1	1,493269
1,399167	0,1	1,483934
1,400833	0,1	1,530454
1,402500	0,1	1,500237
1,404167	0,1	1,504694
1,405833	0,1	1,554721
1,407500	0,1	1,549203
1,409167	0,1	1,568585
1,410833	0,1	1,553796
1,412500	0,1	1,629106
1,414167	0,1	1,552234
1,415833	0,1	1,593133
1,417500	0,1	1,613894
1,419167	0,1	1,626101
1,420833	0,1	1,638956
1,422500	0,1	1,632929
1,424167	0,1	1,653463
1,425833	0,1	1,652896
1,427500	0,1	1,641116
1,429167	0,1	1,675438
1,430833	0,1	1,690883
1,432500	0,1	1,672576
1,434167	0,1	1,705460
1,435833	0,1	1,726652
1,437500	0,1	1,713157
1,439167	0,1	1,776708
1,440833	0,1	1,747568
1,442500	0,1	1,797761
1,444167	0,1	1,738021
1,445833	0,1	1,804367
1,447500	0,1	1,816091
1,449167	0,1	1,833833
1,450833	0,1	1,805972
1,452500	0,1	1,799360
1,454167	0,1	1,815303
1,455833	0,1	1,846979
1,457500	0,1	1,887651
1,459167	0,1	1,865819
1,460833	0,1	1,858702
1,462500	0,1	1,898925
1,464167	0,1	1,876021
1,465833	0,1	1,940238
1,467500	0,1	1,892992
1,469167	0,1	1,907343
1,470833	0,1	1,966836
1,472500	0,1	1,972671
1,474167	0,1	1,966706
1,475833	0,1	1,948890
1,477500	0,1	1,996020
1,479167	0,1	2,004286
1,480833	0,1	2,019451
1,482500	0,1	2,011570
1,484167	0,1	2,067039
1,485833	0,1	2,068185
1,487500	0,1	2,052330
1,489167	0,1	2,064961
1,490833	0,1	2,085443
1,492500	0,1	2,092572
1,494167	0,1	2,137200
1,495833	0,1	2,113349
1,497500	0,1	2,164517
1,499167	0,1	2,159206
1,500833	0,1	2,148083
1,502500	0,1	2,187169
1,504167	0,1	2,214926
1,505833	0,1	2,169446
1,507500	0,1	2,217307
1,509167	0,1	2,237015
1,510833	0,1	2,221989
1,512500	0,1	2,235363
1,514167	0,1	2,300279
1,515833	0,1	2,320069
1,517500	0,1	2,294847
1,519167	0,1	2,331879
1,520833	0,1	2,305065
1,522500	0,1	2,334681
1,524167	0,1	2,375042
1,525833	0,1	2,354626
1,527500	0,1	2,353053
1,529167	0,1	2,358914
1,530833	0,1	2,400928
1,532500	0,1	2,408583
1,534167	0,1	2,416488
1,535833	0,1	2,445621
1,537500	0,1	2,459721
1,539167	0,1	2,476331
1,540833	0,1	2,531192
1,542500	0,1	2,500697
1,544167	0,1	2,523907
1,545833	0,1	2,538774
1,547500	0,1	2,520815
1,549167	0,1	2,607490
1,550833	0,1	2,537623
1,552500	0,1	2,637724
1,554167	0,1	2,625079
1,555833	0,1	2,614370
1,557500	0,1	2,641149
1,559167	0,1	2,618219
1,560833	0,1	2,649325
1,562500	0,1	2,703969
1,564167	0,1	2,690608
1,565833	0,1	2,668314
1,567500	0,1	2,720054
1,569167	0,1	2,691031
1,570833	0,1	2,746180
1,572500	0,1	2,738038
1,574167	0,1	2,792037
1,575833	0,1	2,777720
1,577500	0,1	2,828825
1,579167	0,1	2,799834
1,580833	0,1	2,830434
1,582500	0,1	2,823029
1,584167	0,1	2,849671
1,585833	0,1	2,931702
1,587500	0,1	2,895970
1,589167	0,1	2,943349
1,590833	0,1	2,953860
1,592500	0,1	2,938487
1,594167	0,1	2,959847
1,595833	0,1	2,970068
1,597500	0,1	3,005876
1,599167	0,1	3,044262
1,600833	0,1	2,997051
1,602500	0,1	2,994839
1,604167	0,1	3,075558
1,605833	0,1	3,063961
1,607500	0,1	3,119664
1,609167	0,1	3,104919
1,610833	0,1	3,125743
1,612500	0,1	3,126889
1,614167	0,1	3,142787
1,615833	0,1	3,182995
1,617500	0,1	3,147965
1,619167	0,1	3,217937
1,620833	0,1	3,195051
1,622500	0,1	3,196499
1,624167	0,1	3,231411
1,625833	0,1	3,270602
1,627500	0,1	3,272576
1,629167	0,1	3,334150
1,630833	0,1	3,305210
1,632500	0,1	3,309224
1,634167	0,1	3,317117
1,635833	0,1	3,369557
1,637500	0,1	3,398780
1,639167	0,1	3,416892
1,640833	0,1	3,389203
1,642500	0,1	3,445850
1,644167	0,1	3,431429
1,645833	0,1	3,493926
1,647500	0,1	3,483022
1,649167	0,1	3,488747
1,650833	0,1	3,488419
1,652500	0,1	3,504107
1,654167	0,1	3,583309
1,655833	0,1	3,584007
1,657500	0,1	3,604493
1,659167	0,1	3,627590
1,660833	0,1	3,618910
1,662500	0,1	3,642438
1,664167	0,1	3,637045
1,665833	0,1	3,648452
1,667500	0,1	3,712119
1,669167	0,1	3,686768
1,670833	0,1	3,709282
1,672500	0,1	3,791269
1,674167	0,1	3,758821
1,675833	0,1	3,789781
1,677500	0,1	3,805493
1,679167	0,1	3,849052
1,680833	0,1	3,823409
1,682500	0,1	3,880476
1,684167	0,1	3,871965
1,685833	0,1	3,851543
1,687500	0,1	3,878371
1,689167	0,1	3,941995
1,690833	0,1	3,957560
1,692500	0,1	3,952976
1,694167	0,1	4,004778
1,695833	0,1	4,016171
1,697500	0,1	4,004403
1,699167	0,1	4,063431
1,700833	0,1	4,029090
1,702500	0,1	4,093740
1,704167	0,1	4,127868
1,705833	0,1	4,141287
1,707500	0,1	4,123791
1,709167	0,1	4,183499
1,710833	0,1	4,157101
1,712500	0,1	4,194557
1,714167	0,1	4,201265
1,715833	0,1	4,222919
1,717500	0,1	4,249425
1,719167	0,1	4,250848
1,720833	0,1	4,258400
1,722500	0,1	4,294491
1,724167	0,1	4,340447
1,725833	0,1	4,343793
1,727500	0,1	4,328522
1,729167	0,1	4,385573
1,730833	0,1	4,389887
1,732500	0,1	4,420965
1,734167	0,1	4,417061
1,735833	0,1	4,428536
1,737500	0,1	4,442405
1,739167	0,1	4,448872
1,740833	0,1	4,473315
1,742500	0,1	4,539045
1,744167	0,1	4,544778
1,745833	0,1	4,559200
1,747500	0,1	4,626722
1,749167	0,1	4,595283
1,750833	0,1	4,610608
1,752500	0,1	4,621388
1,754167	0,1	4,662922
1,755833	0,1	4,694843
1,757500	0,1	4,646474
1,759167	0,1	4,740368
1,760833	0,1	4,714214
1,762500	0,1	4,746295
1,764167	0,1	4,767386
1,765833	0,1	4,820764
1,767500	0,1	4,817744
1,769167	0,1	4,825110
1,770833	0,1	4,845943
1,772500	0,1	4,905434
1,774167	0,1	4,876559
1,775833	0,1	4,919350
1,777500	0,1	4,948117
1,779167	0,1	4,946257
1,780833	0,1	4,959610
1,782500	0,1	5,012246
1,784167	0,1	5,005420
1,785833	0,1	5,034181
1,787500	0,1	5,051015
1,789167	0,1	5,059809
1,790833	0,1	5,074596
1,792500	0,1	5,081374
1,794167	0,1	5,118979
1,795833	0,1	5,132426
1,797500	0,1	5,165027
1,799167	0,1	5,134156
1,800833	0,1	5,166651
1,802500	0,1	5,247728
1,804167	0,1	5,247765
1,805833	0,1	5,290364
1,807500	0,1	5,271282
1,809167	0,1	5,317827
1,810833	0,1	5,324072
1,812500	0,1	5,325553
1,814167	0,1	5,366700
1,815833	0,1	5,377295
1,817500	0,1	5,356656
1,819167	0,1	5,400320
1,820833	0,1	5,456613
1,822500	0,1	5,446462
1,824167	0,1	5,462951
1,825833	0,1	5,529051
1,827500	0,1	5,514473
1,829167	0,1	5,532442
1,830833	0,1	5,521882
1,832500	0,1	5,561771
1,834167	0,1	5,639035
1,835833	0,1	5,605756
1,837500	0,1	5,621590
1,839167	0,1	5,679945
1,840833	0,1	5,624293
1,842500	0,1	5,650661
1,844167	0,1	5,686934
1,845833	0,1	5,716676
1,847500	0,1	5,737083
1,849167	0,1	5,790321
1,850833	0,1	5,764668
1,852500	0,1	5,797921
1,854167	0,1	5,802405
1,855833	0,1	5,807930
1,857500	0,1	5,803150
1,859167	0,1	5,845098
1,860833	0,1	5,855647
1,862500	0,1	5,909156
1,864167	0,1	5,956899
1,865833	0,1	5,903670
1,867500	0,1	5,946738
1,869167	0,1	5,985427
1,870833	0,1	5,999053
1,872500	0,1	6,027511
1,874167	0,1	6,018948
1,875833	0,1	6,061543
1,877500	0,1	6,079741
1,879167	0,1	6,086085
1,880833	0,1	6,159303
1,882500	0,1	6,112310
1,884167	0,1	6,161084
1,885833	0,1	6,159416
1,887500	0,1	6,214190
1,889167	0,1	6,204114
1,890833	0,1	6,224266
1,892500	0,1	6,197494
1,894167	0,1	6,250378
1,895833	0,1	6,288276
1,897500	0,1	6,255430
1,899167	0,1	6,310850
1,900833	0,1	6,340171
1,902500	0,1	6,351286
1,904167	0,1	6,348204
1,905833	0,1	6,427719
1,907500	0,1	6,391152
1,909167	0,1	6,426327
1,910833	0,1	6,418030
1,912500	0,1	6,446406
1,914167	0,1	6,491028
1,915833	0,1	6,499720
1,917500	0,1	6,486561
1,919167	0,1	6,533327
1,920833	0,1	6,531564
1,922500	0,1	6,566388
1,924167	0,1	6,603556
1,925833	0,1	6,600299
1,927500	0,1	6,579011
1,929167	0,1	6,649032
1,930833	0,1	6,663806
1,932500	0,1	6,649522
1,934167	0,1	6,652607
1,935833	0,1	6,676132
1,937500	0,1	6,715458
1,939167	0,1	6,739193
1,940833	0,1	6,776838
1,942500	0,1	6,783102
1,944167	0,1	6,787594
1,945833	0,1	6,810660
1,947500	0,1	6,860917
1,949167	0,1	6,823309
1,950833	0,1	6,834598
1,952500	0,1	6,873830
1,954167	0,1	6,885331
1,955833	0,1	6,875998
1,957500	0,1	6,900291
1,959167	0,1	6,959262
1,960833	0,1	6,956755
1,962500	0,1	6,945902
1,964167	0,1	6,988500
1,965833	0,1	7,020381
1,967500	0,1	7,016950
1,969167	0,1	7,011163
1,970833	0,1	7,017050
1,972500	0,1	7,009472
1,974167	0,1	7,098551
1,975833	0,1	7,074738
1,977500	0,1	7,122867
1,979167	0,1	7,091459
1,980833	0,1	7,118106
1,982500	0,1	7,116622
1,984167	0,1	7,172152
1,985833	0,1	7,180297
1,987500	0,1	7,175910
1,989167	0,1	7,192292
1,990833	0,1	7,206944
1,992500	0,1	7,250952
1,994167	0,1	7,227248
1,995833	0,1	7,289710
1,997500	0,1	7,305133
1,999167	0,1	7,276185
2,000833	0,1	7,299552
2,002500	0,1	7,361561
2,004167	0,1	7,387573
2,005833	0,1	7,353046
2,007500	0,1	7,397853
2,009167	0,1	7,395816
2,010833	0,1	7,378148
2,012500	0,1	7,452406
2,014167	0,1	7,464951
2,015833	0,1	7,445141
2,017500	0,1	7,466455
2,019167	0,1	7,460216
2,020833	0,1	7,441418
2,022500	0,1	7,517999
2,024167	0,1	7,490131
2,025833	0,1	7,493024
2,027500	0,1	7,535335
2,029167	0,1	7,543091
2,030833	0,1	7,539277
2,032500	0,1	7,585621
2,034167	0,1	7,569878
2,035833	0,1	7,606396
2,037500	0,1	7,581885
2,039167	0,1	7,631538
2,040833	0,1	7,639608
2,042500	0,1	7,662803
2,044167	0,1	7,665906
2,045833	0,1	7,663499
2,047500	0,1	7,668247
2,049167	0,1	7,717671
2,050833	0,1	7,714344
2,052500	0,1	7,750484
2,054167	0,1	7,726246
2,055833	0,1	7,743160
2,057500	0,1	7,728549
2,059167	0,1	7,808222
2,060833	0,1	7,791597
2,062500	0,1	7,810303
2,064167	0,1	7,785679
2,065833	0,1	7,816200
2,067500	0,1	7,859766
2,069167	0,1	7,825692
2,070833	0,1	7,840023
2,072500	0,1	7,787612
2,074167	0,1	7,872292
2,075833	0,1	7,856403
2,077500	0,1	7,898253
2,079167	0,1	7,915508
2,080833	0,1	7,904087
2,082500	0,1	7,890874
2,084167	0,1	7,954543
2,085833	0,1	7,910354
2,087500	0,1	7,941413
2,089167	0,1	7,950066
2,090833	0,1	7,951599
2,092500	0,1	7,953067
2,094167	0,1	7,936819
2,095833	0,1	8,013411
2,097500	0,1	8,008894
2,099167	0,1	8,005736
2,100833	0,1	8,044734
2,102500	0,1	8,033565
2,104167	0,1	8,027105
2,105833	0,1	8,075886
2,107500	0,1	8,022424
2,109167	0,1	8,088848
2,110833	0,1	8,090584
2,112500	0,1	8,088485
2,114167	0,1	8,070956
2,115833	0,1	8,105463
2,117500	0,1	8,081299
2,119167	0,1	8,103090
2,120833	0,1	8,076281
2,122500	0,1	8,104979
2,124167	0,1	8,149061
2,125833	0,1	8,151290
2,127500	0,1	8,120791
2,129167	0,1	8,149569
2,130833	0,1	8,128031
2,132500	0,1	8,144777
2,134167	0,1	8,147126
2,135833	0,1	8,177782
2,137500	0,1	8,186239
2,139167	0,1	8,202517
2,140833	0,1	8,182461
2,142500	0,1	8,179125
2,144167	0,1	8,174886
2,145833	0,1	8,193229
2,147500	0,1	8,212282
2,149167	0,1	8,209359
2,150833	0,1	8,254725
2,152500	0,1	8,235789
2,154167	0,1	8,229803
2,155833	0,1	8,222232
2,157500	0,1	8,213073
2,159167	0,1	8,256847
2,160833	0,1	8,240609
2,162500	0,1	8,231748
2,164167	0,1	8,248577
2,165833	0,1	8,227939
2,167500	0,1	8,280369
2,169167	0,1	8,254368
2,170833	0,1	8,265690
2,172500	0,1	8,293027
2,174167	0,1	8,300753
2,175833	0,1	8,273980
2,177500	0,1	8,259817
2,179167	0,1	8,287574
2,180833	0,1	8,342599
2,182500	0,1	8,298140
2,184167	0,1	8,312112
2,185833	0,1	8,312670
2,187500	0,1	8,335007
2,189167	0,1	8,315576
2,190833	0,1	8,326375
2,192500	0,1	8,322516
2,194167	0,1	8,312340
2,195833	0,1	8,359435
2,197500	0,1	8,332846
2,199167	0,1	8,307831
2,200833	0,1	8,327964
2,202500	0,1	8,324105
2,204167	0,1	8,321932
2,205833	0,1	8,340131
2,207500	0,1	8,362825
2,209167	0,1	8,329087
2,210833	0,1	8,333597
2,212500	0,1	8,384453
2,214167	0,1	8,328212
2,215833	0,1	8,406868
2,217500	0,1	8,337404
2,219167	0,1	8,357751
2,220833	0,1	8,335038
2,222500	0,1	8,372234
2,224167	0,1	8,326842
2,225833	0,1	8,355954
2,227500	0,1	8,354094
2,229167	0,1	8,315156
2,230833	0,1	8,341015
2,232500	0,1	8,341677
2,234167	0,1	8,337584
2,235833	0,1	8,331685
2,237500	0,1	8,361179
2,239167	0,1	8,375502
2,240833	0,1	8,318794
2,242500	0,1	8,333039
2,244167	0,1	8,337462
2,245833	0,1	8,351549
2,247500	0,1	8,346219
2,249167	0,1	8,303517
2,250833	0,1	8,386573
2,252500	0,1	8,326069
2,254167	0,1	8,343616
2,255833	0,1	8,372440
2,257500	0,1	8,321342
2,259167	0,1	8,324538
2,260833	0,1	8,374709
2,262500	0,1	8,292296
2,264167	0,1	8,306056
2,265833	0,1	8,348028
2,267500	0,1	8,274926
2,269167	0,1	8,314148
2,270833	0,1	8,326828
2,272500	0,1	8,300989
2,274167	0,1	8,315920
2,275833	0,1	8,243575
2,277500	0,1	8,336451
2,279167	0,1	8,308812
2,280833	0,1	8,309591
2,282500	0,1	8,252431
2,284167	0,1	8,302712
2,285833	0,1	8,268682
2,287500	0,1	8,257244
2,289167	0,1	8,273843
2,290833	0,1	8,265796
2,292500	0,1	8,265543
2,294167	0,1	8,269908
2,295833	0,1	8,259157
2,297500	0,1	8,252597
2,299167	0,1	8,228697
2,300833	0,1	8,250241
2,302500	0,1	8,226729
2,304167	0,1	8,198917
2,305833	0,1	8,204411
2,307500	0,1	8,250413
2,309167	0,1	8,201119
2,310833	0,1	8,202242
2,312500	0,1	8,189956
2,314167	0,1	8,204486
2,315833	0,1	8,174616
2,317500	0,1	8,180890
2,319167	0,1	8,190405
2,320833	0,1	8,202996
2,322500	0,1	8,198508
2,324167	0,1	8,195328
2,325833	0,1	8,164421
2,327500	0,1	8,114991
2,329167	0,1	8,111801
2,330833	0,1	8,119495
2,332500	0,1	8,159937
2,334167	0,1	8,145392
2,335833	0,1	8,153812
2,337500	0,1	8,151495
2,339167	0,1	8,115267
2,340833	0,1	8,099618
2,342500	0,1	8,081025
2,344167	0,1	8,115125
2,345833	0,1	8,052399
2,347500	0,1	8,100281
2,349167	0,1	8,082462
2,350833	0,1	8,058917
2,352500	0,1	8,067344
2,354167	0,1	8,029736
2,355833	0,1	8,013009
2,357500	0,1	8,012173
2,359167	0,1	8,030910
2,360833	0,1	8,010887
2,362500	0,1	7,987155
2,364167	0,1	7,984971
2,365833	0,1	7,955442
2,367500	0,1	7,964670
2,369167	0,1	7,939502
2,370833	0,1	7,940707
2,372500	0,1	7,951676
2,374167	0,1	7,973828
2,375833	0,1	7,908392
2,377500	0,1	7,941378
2,379167	0,1	7,923305
2,380833	0,1	7,927514
2,382500	0,1	7,901947
2,384167	0,1	7,896018
2,385833	0,1	7,909465
2,387500	0,1	7,884857
2,389167	0,1	7,894504
2,390833	0,1	7,840577
2,392500	0,1	7,840107
2,394167	0,1	7,842947
2,395833	0,1	7,822191
2,397500	0,1	7,785323
2,399167	0,1	7,785513
2,400833	0,1	7,810560
2,402500	0,1	7,787566
2,404167	0,1	7,764739
2,405833	0,1	7,775857
2,407500	0,1	7,789364
2,409167	0,1	7,776123
2,410833	0,1	7,720891
2,412500	0,1	7,725267
2,414167	0,1	7,712459
2,415833	0,1	7,703049
2,417500	0,1	7,704969
2,419167	0,1	7,710310
2,420833	0,1	7,688357
2,422500	0,1	7,671924
2,424167	0,1	7,669874
2,425833	0,1	7,631297
2,427500	0,1	7,636628
2,429167	0,1	7,584383
2,430833	0,1	7,608249
2,432500	0,1	7,596364
2,434167	0,1	7,617128
2,435833	0,1	7,593746
2,437500	0,1	7,545840
2,439167	0,1	7,544336
2,440833	0,1	7,565020
2,442500	0,1	7,504236
2,444167	0,1	7,522697
2,445833	0,1	7,500823
2,447500	0,1	7,465826
2,449167	0,1	7,479571
2,450833	0,1	7,455802
2,452500	0,1	7,449430
2,454167	0,1	7,447086
2,455833	0,1	7,440704
2,457500	0,1	7,435199
2,459167	0,1	7,423425
2,460833	0,1	7,367509
2,462500	0,1	7,377461
2,464167	0,1	7,382798
2,465833	0,1	7,356512
2,467500	0,1	7,358373
2,469167	0,1	7,327917
2,470833	0,1	7,339573
2,472500	0,1	7,315643
2,474167	0,1	7,305734
2,475833	0,1	7,295414
2,477500	0,1	7,284563
2,479167	0,1	7,308491
2,480833	0,1	7,255945
2,482500	0,1	7,264345
2,484167	0,1	7,182744
2,485833	0,1	7,210386
2,487500	0,1	7,217046
2,489167	0,1	7,192337
2,490833	0,1	7,178792
2,492500	0,1	7,190473
2,494167	0,1	7,141931
2,495833	0,1	7,120910
2,497500	0,1	7,136322
2,499167	0,1	7,097710
2,500833	0,1	7,069797
2,502500	0,1	7,088078
2,504167	0,1	7,050899
2,505833	0,1	7,073391
2,507500	0,1	7,069176
2,509167	0,1	7,065441
2,510833	0,1	7,044989
2,512500	0,1	7,024224
2,514167	0,1	6,961418
2,515833	0,1	6,971788
2,517500	0,1	6,983838
2,519167	0,1	6,962630
2,520833	0,1	6,912271
2,522500	0,1	6,914780
2,524167	0,1	6,945516
2,525833	0,1	6,913472
2,527500	0,1	6,885062
2,529167	0,1	6,869732
2,530833	0,1	6,853669
2,532500	0,1	6,824411
2,534167	0,1	6,820016
2,535833	0,1	6,871953
2,537500	0,1	6,785276
2,539167	0,1	6,795244
2,540833	0,1	6,750044
2,542500	0,1	6,748454
2,544167	0,1	6,697264
2,545833	0,1	6,720781
2,547500	0,1	6,678863
2,549167	0,1	6,684359
2,550833	0,1	6,752158
2,552500	0,1	6,700715
2,554167	0,1	6,692298
2,555833	0,1	6,665397
2,557500	0,1	6,626832
2,559167	0,1	6,618044
2,560833	0,1	6,603847
2,562500	0,1	6,582371
2,564167	0,1	6,586941
2,565833	0,1	6,542780
2,567500	0,1	6,582448
2,569167	0,1	6,570323
2,570833	0,1	6,543991
2,572500	0,1	6,493013
2,574167	0,1	6,514750
2,575833	0,1	6,483201
2,577500	0,1	6,459301
2,579167	0,1	6,482537
2,580833	0,1	6,438672
2,582500	0,1	6,443888
2,584167	0,1	6,415046
2,585833	0,1	6,400013
2,587500	0,1	6,383032
2,589167	0,1	6,342235
2,590833	0,1	6,367892
2,592500	0,1	6,355023
2,594167	0,1	6,359216
2,595833	0,1	6,331787
2,597500	0,1	6,297719
2,599167	0,1	6,283439
2,600833	0,1	6,271864
2,602500	0,1	6,277834
2,604167	0,1	6,201517
2,605833	0,1	6,184521
2,607500	0,1	6,190387
2,609167	0,1	6,229487
2,610833	0,1	6,190693
2,612500	0,1	6,151966
2,614167	0,1	6,153636
2,615833	0,1	6,147394
2,617500	0,1	6,093857
2,619167	0,1	6,097017
2,620833	0,1	6,091599
2,622500	0,1	6,041991
2,624167	0,1	6,060622
2,625833	0,1	6,024815
2,627500	0,1	6,031349
2,629167	0,1	5,989653
2,630833	0,1	6,006971
2,632500	0,1	5,995082
2,634167	0,1	5,960176
2,635833	0,1	5,975400
2,637500	0,1	5,974719
2,639167	0,1	5,888122
2,640833	0,1	5,896403
2,642500	0,1	5,921484
2,644167	0,1	5,866757
2,645833	0,1	5,891178
2,647500	0,1	5,835792
2,649167	0,1	5,849953
2,650833	0,1	5,834658
2,652500	0,1	5,812492
2,654167	0,1	5,833557
2,655833	0,1	5,773721
2,657500	0,1	5,800554
2,659167	0,1	5,774173
2,660833	0,1	5,751078
2,662500	0,1	5,687957
2,664167	0,1	5,727089
2,665833	0,1	5,680430
2,667500	0,1	5,673437
2,669167	0,1	5,720742
2,670833	0,1	5,668140
2,672500	0,1	5,668486
2,674167	0,1	5,628230
2,675833	0,1	5,622631
2,677500	0,1	5,602387
2,679167	0,1	5,580432
2,680833	0,1	5,610140
2,682500	0,1	5,579839
2,684167	0,1	5,526293
2,685833	0,1	5,521525
2,687500	0,1	5,535022
2,689167	0,1	5,511777
2,690833	0,1	5,506468
2,692500	0,1	5,499472
2,694167	0,1	5,486327
2,695833	0,1	5,474026
2,697500	0,1	5,443522
2,699167	0,1	5,440271
2,700833	0,1	5,420226
2,702500	0,1	5,402887
2,704167	0,1	5,391398
2,705833	0,1	5,361801
2,707500	0,1	5,343862
2,709167	0,1	5,360927
2,710833	0,1	5,264678
2,712500	0,1	5,309478
2,714167	0,1	5,309401
2,715833	0,1	5,285835
2,717500	0,1	5,263783
2,719167	0,1	5,207559
2,720833	0,1	5,251948
2,722500	0,1	5,216173
2,724167	0,1	5,200770
2,725833	0,1	5,202847
2,727500	0,1	5,206127
2,729167	0,1	5,180155
2,730833	0,1	5,151941
2,732500	0,1	5,149457
2,734167	0,1	5,128812
2,735833	0,1	5,115344
2,737500	0,1	5,119681
2,739167	0,1	5,094237
2,740833	0,1	5,096489
2,742500	0,1	5,079228
2,744167	0,1	5,062247
2,745833	0,1	5,042164
2,747500	0,1	5,051687
2,749167	0,1	5,002933
2,750833	0,1	4,999908
2,752500	0,1	4,962785
2,754167	0,1	5,005194
2,755833	0,1	4,962722
2,757500	0,1	4,935584
2,759167	0,1	4,939375
2,760833	0,1	4,920667
2,762500	0,1	4,894422
2,764167	0,1	4,920656
2,765833	0,1	4,903869
2,767500	0,1	4,878105
2,769167	0,1	4,852551
2,770833	0,1	4,826667
2,772500	0,1	4,845428
2,774167	0,1	4,812859
2,775833	0,1	4,782259
2,777500	0,1	4,805564
2,779167	0,1	4,763100
2,780833	0,1	4,743512
2,782500	0,1	4,747405
2,784167	0,1	4,760983
2,785833	0,1	4,746957
2,787500	0,1	4,714074
2,789167	0,1	4,706117
2,790833	0,1	4,695675
2,792500	0,1	4,670124
2,794167	0,1	4,682595
2,795833	0,1	4,663954
2,797500	0,1	4,652973
2,799167	0,1	4,615657
2,800833	0,1	4,599014
2,802500	0,1	4,588374
2,804167	0,1	4,572788
2,805833	0,1	4,569644
2,807500	0,1	4,567637
2,809167	0,1	4,511459
2,810833	0,1	4,548530
2,812500	0,1	4,522291
2,814167	0,1	4,476416
2,815833	0,1	4,504992
2,817500	0,1	4,505710
2,819167	0,1	4,468637
2,820833	0,1	4,460930
2,822500	0,1	4,467694
2,824167	0,1	4,420522
2,825833	0,1	4,439404
2,827500	0,1	4,368492
2,829167	0,1	4,401421
2,830833	0,1	4,402059
2,832500	0,1	4,421735
2,834167	0,1	4,351330
2,835833	0,1	4,355948
2,837500	0,1	4,337260
2,839167	0,1	4,347693
2,840833	0,1	4,327790
2,842500	0,1	4,300961
2,844167	0,1	4,283567
2,845833	0,1	4,283762
2,847500	0,1	4,286196
2,849167	0,1	4,252207
2,850833	0,1	4,246983
2,852500	0,1	4,246332
2,854167	0,1	4,245964
2,855833	0,1	4,202412
2,857500	0,1	4,202332
2,859167	0,1	4,202437
2,860833	0,1	4,209338
2,862500	0,1	4,143305
2,864167	0,1	4,133255
2,865833	0,1	4,161307
2,867500	0,1	4,164245
2,869167	0,1	4,115668
2,870833	0,1	4,132186
2,872500	0,1	4,106927
2,874167	0,1	4,150854
2,875833	0,1	4,067209
2,877500	0,1	4,062523
2,879167	0,1	4,068734
2,880833	0,1	4,088918
2,882500	0,1	4,027276
2,884167	0,1	4,030546
2,885833	0,1	3,983245
2,887500	0,1	4,003089
2,889167	0,1	3,981086
2,890833	0,1	4,003246
2,892500	0,1	3,935693
2,894167	0,1	3,942900
2,895833	0,1	3,979767
2,897500	0,1	3,916930
2,899167	0,1	3,952071
2,900833	0,1	3,930687
2,902500	0,1	3,914636
2,904167	0,1	3,912244
2,905833	0,1	3,886748
2,907500	0,1	3,855730
2,909167	0,1	3,858441
2,910833	0,1	3,873664
2,912500	0,1	3,851665
2,914167	0,1	3,829538
2,915833	0,1	3,824986
2,917500	0,1	3,814960
2,919167	0,1	3,810452
2,920833	0,1	3,785773
2,922500	0,1	3,824164
2,924167	0,1	3,737642
2,925833	0,1	3,764814
2,927500	0,1	3,764334
2,929167	0,1	3,774683
2,930833	0,1	3,741731
2,932500	0,1	3,711048
2,934167	0,1	3,709984
2,935833	0,1	3,683482
2,937500	0,1	3,729213
2,939167	0,1	3,683164
2,940833	0,1	3,677879
2,942500	0,1	3,684897
2,944167	0,1	3,686851
2,945833	0,1	3,633286
2,947500	0,1	3,638180
2,949167	0,1	3,599365
2,950833	0,1	3,593587
2,952500	0,1	3,594358
2,954167	0,1	3,614518
2,955833	0,1	3,591110
2,957500	0,1	3,572005
2,959167	0,1	3,593180
2,960833	0,1	3,600768
2,962500	0,1	3,519676
2,964167	0,1	3,563104
2,965833	0,1	3,539510
2,967500	0,1	3,511714
2,969167	0,1	3,542742
2,970833	0,1	3,510221
2,972500	0,1	3,497633
2,974167	0,1	3,503357
2,975833	0,1	3,465503
2,977500	0,1	3,468057
2,979167	0,1	3,480591
2,980833	0,1	3,467456
2,982500	0,1	3,421132
2,984167	0,1	3,435806
2,985833	0,1	3,438882
2,987500	0,1	3,426126
2,989167	0,1	3,385769
2,990833	0,1	3,349858
2,992500	0,1	3,397018
2,994167	0,1	3,365035
2,995833	0,1	3,369045
2,997500	0,1	3,308716
2,999167	0,1	3,380347
3,000833	0,1	3,313467
3,002500	0,1	3,342958
3,004167	0,1	3,308947
3,005833	0,1	3,308006
3,007500	0,1	3,306676
3,009167	0,1	3,333400
3,010833	0,1	3,261024
3,012500	0,1	3,279895
3,014167	0,1	3,258703
3,015833	0,1	3,252731
3,017500	0,1	3,254902
3,019167	0,1	3,254235
3,020833	0,1	3,218769
3,022500	0,1	3,234090
3,024167	0,1	3,241592
3,025833	0,1	3,194408
3,027500	0,1	3,215897
3,029167	0,1	3,168149
3,030833	0,1	3,213767
3,032500	0,1	3,158143
3,034167	0,1	3,181340
3,035833	0,1	3,159454
3,037500	0,1	3,165904
3,039167	0,1	3,140672
3,040833	0,1	3,116440
3,042500	0,1	3,114385
3,044167	0,1	3,124652
3,045833	0,1	3,073775
3,047500	0,1	3,097051
3,049167	0,1	3,078357
3,050833	0,1	3,071299
3,052500	0,1	3,045936
3,054167	0,1	3,036128
3,055833	0,1	3,005659
3,057500	0,1	3,055931
3,059167	0,1	3,087034
3,060833	0,1	3,013449
3,062500	0,1	3,023804
3,064167	0,1	3,015950
3,065833	0,1	2,983874
3,067500	0,1	3,000926
3,069167	0,1	3,016332
3,070833	0,1	3,001869
3,072500	0,1	2,989601
3,074167	0,1	2,987679
3,075833	0,1	2,953712
3,077500	0,1	2,968331
3,079167	0,1	2,925683
3,080833	0,1	2,952846
3,082500	0,1	2,933123
3,084167	0,1	2,947170
3,085833	0,1	2,887186
3,087500	0,1	2,916466
3,089167	0,1	2,887826
3,090833	0,1	2,863789
3,092500	0,1	2,857380
3,094167	0,1	2,890428
3,095833	0,1	2,891708
3,097500	0,1	2,889974
3,099167	0,1	2,823197
3,100833	0,1	2,847650
3,102500	0,1	2,882758
3,104167	0,1	2,845908
3,105833	0,1	2,798181
3,107500	0,1	2,837100
3,109167	0,1	2,849311
3,110833	0,1	2,790350
3,112500	0,1	2,814650
3,114167	0,1	2,790552
3,115833	0,1	2,832389
3,117500	0,1	2,775557
3,119167	0,1	2,759463
3,120833	0,1	2,804464
3,122500	0,1	2,760496
3,124167	0,1	2,730955
3,125833	0,1	2,750419
3,127500	0,1	2,711156
3,129167	0,1	2,741097
3,130833	0,1	2,712869
3,132500	0,1	2,711432
3,134167	0,1	2,705068
3,135833	0,1	2,696722
3,137500	0,1	2,652010
3,139167	0,1	2,696996
3,140833	0,1	2,668659
3,142500	0,1	2,702086
3,144167	0,1	2,681023
3,145833	0,1	2,678771
3,147500	0,1	2,652842
3,149167	0,1	2,655466
3,150833	0,1	2,627273
3,152500	0,1	2,645021
3,154167	0,1	2,637690
3,155833	0,1	2,610715
3,157500	0,1	2,636901
3,159167	0,1	2,587669
3,160833	0,1	2,584916
3,162500	0,1	2,607145
3,164167	0,1	2,568598
3,165833	0,1	2,578226
3,167500	0,1	2,539693
3,169167	0,1	2,555689
3,170833	0,1	2,585120
3,172500	0,1	2,542313
3,174167	0,1	2,568101
3,175833	0,1	2,554720
3,177500	0,1	2,547922
3,179167	0,1	2,528030
3,180833	0,1	2,496134
3,182500	0,1	2,502584
3,184167	0,1	2,475409
3,185833	0,1	2,487191
3,187500	0,1	2,522653
3,189167	0,1	2,500648
3,190833	0,1	2,474912
3,192500	0,1	2,496406
3,194167	0,1	2,452386
3,195833	0,1	2,462027
3,197500	0,1	2,428018
3,199167	0,1	2,435751
3,200833	0,1	2,452372
3,202500	0,1	2,383908
3,204167	0,1	2,394023
3,205833	0,1	2,425385
3,207500	0,1	2,450020
3,209167	0,1	2,432022
3,210833	0,1	2,400448
3,212500	0,1	2,414232
3,214167	0,1	2,398004
3,215833	0,1	2,363904
3,217500	0,1	2,375336
3,219167	0,1	2,416528
3,220833	0,1	2,362976
3,222500	0,1	2,345562
3,224167	0,1	2,327934
3,225833	0,1	2,344544
3,227500	0,1	2,337642
3,229167	0,1	2,338125
3,230833	0,1	2,322032
3,232500	0,1	2,316838
3,234167	0,1	2,331150
3,235833	0,1	2,267032
3,237500	0,1	2,314049
3,239167	0,1	2,284999
3,240833	0,1	2,301818
3,242500	0,1	2,283469
3,244167	0,1	2,279381
3,245833	0,1	2,267645
3,247500	0,1	2,256440
3,249167	0,1	2,274259
3,250833	0,1	2,229774
3,252500	0,1	2,244338
3,254167	0,1	2,254918
3,255833	0,1	2,247220
3,257500	0,1	2,244853
3,259167	0,1	2,181229
3,260833	0,1	2,228512
3,262500	0,1	2,236924
3,264167	0,1	2,209262
3,265833	0,1	2,187831
3,267500	0,1	2,244616
3,269167	0,1	2,216741
3,270833	0,1	2,194310
3,272500	0,1	2,174100
3,274167	0,1	2,169281
3,275833	0,1	2,154260
3,277500	0,1	2,161587
3,279167	0,1	2,176673
3,280833	0,1	2,202268
3,282500	0,1	2,132346
3,284167	0,1	2,172285
3,285833	0,1	2,132405
3,287500	0,1	2,137562
3,289167	0,1	2,131603
3,290833	0,1	2,151730
3,292500	0,1	2,087986
3,294167	0,1	2,098174
3,295833	0,1	2,104145
3,297500	0,1	2,131012
3,299167	0,1	2,081357
3,300833	0,1	2,089695
3,302500	0,1	2,115345
3,304167	0,1	2,094070
3,305833	0,1	2,081769
3,307500	0,1	2,098099
3,309167	0,1	2,011297
3,310833	0,1	2,037920
3,312500	0,1	2,074793
3,314167	0,1	2,013005
3,315833	0,1	2,075861
3,317500	0,1	2,037155
3,319167	0,1	2,032406
3,320833	0,1	2,015431
3,322500	0,1	2,020893
3,324167	0,1	1,978789
3,325833	0,1	2,021312
3,327500	0,1	1,987697
3,329167	0,1	1,974338
3,330833	0,1	2,032805
3,332500	0,1	1,978215
3,334167	0,1	1,997679
3,335833	0,1	1,999547
3,337500	0,1	1,964703
3,339167	0,1	1,983449
3,340833	0,1	1,968424
3,342500	0,1	1,972675
3,344167	0,1	1,941199
3,345833	0,1	1,975819
3,347500	0,1	1,931718
3,349167	0,1	1,923375
3,350833	0,1	1,942981
3,352500	0,1	1,937317
3,354167	0,1	1,882210
3,355833	0,1	1,937580
3,357500	0,1	1,903256
3,359167	0,1	1,907774
3,360833	0,1	1,873575
3,362500	0,1	1,901948
3,364167	0,1	1,932986
3,365833	0,1	1,886229
3,367500	0,1	1,916025
3,369167	0,1	1,863234
3,370833	0,1	1,825514
3,372500	0,1	1,862709
3,374167	0,1	1,859995
3,375833	0,1	1,851733
3,377500	0,1	1,846488
3,379167	0,1	1,809637
3,380833	0,1	1,864073
3,382500	0,1	1,832842
3,384167	0,1	1,807192
3,385833	0,1	1,851213
3,387500	0,1	1,820411
3,389167	0,1	1,782839
3,390833	0,1	1,818383
3,392500	0,1	1,778098
3,394167	0,1	1,804807
3,395833	0,1	1,810775
3,397500	0,1	1,775655
3,399167	0,1	1,792164
3,400833	0,1	1,756977
3,402500	0,1	1,729537
3,404167	0,1	1,789498
3,405833	0,1	1,769258
3,407500	0,1	1,787063
3,409167	0,1	1,728108
3,410833	0,1	1,735201
3,412500	0,1	1,718832
3,414167	0,1	1,707911
3,415833	0,1	1,736202
3,417500	0,1	1,730321
3,419167	0,1	1,772187
3,420833	0,1	1,736578
3,422500	0,1	1,683789
3,424167	0,1	1,721834
3,425833	0,1	1,730605
3,427500	0,1	1,705042
3,429167	0,1	1,680695
3,430833	0,1	1,705893
3,432500	0,1	1,677607
3,434167	0,1	1,693613
3,435833	0,1	1,693761
3,437500	0,1	1,692539
3,439167	0,1	1,669346
3,440833	0,1	1,675085
3,442500	0,1	1,651246
3,444167	0,1	1,651100
3,445833	0,1	1,679318
3,447500	0,1	1,635166
3,449167	0,1	1,655545
3,450833	0,1	1,628631
3,452500	0,1	1,642694
3,454167	0,1	1,617997
3,455833	0,1	1,607296
3,457500	0,1	1,621080
3,459167	0,1	1,605929
3,460833	0,1	1,642974
3,462500	0,1	1,633294
3,464167	0,1	1,578149
3,465833	0,1	1,624157
3,467500	0,1	1,602632
3,469167	0,1	1,576921
3,470833	0,1	1,572182
3,472500	0,1	1,587322
3,474167	0,1	1,594152
3,475833	0,1	1,621148
3,477500	0,1	1,559339
3,479167	0,1	1,544684
3,480833	0,1	1,564712
3,482500	0,1	1,545474
3,484167	0,1	1,505487
3,485833	0,1	1,529600
3,487500	0,1	1,547978
3,489167	0,1	1,559469
3,490833	0,1	1,503482
3,492500	0,1	1,522562
3,494167	0,1	1,520841
3,495833	0,1	1,493205
3,497500	0,1	1,545385
3,499167	0,1	1,487613
3,500833	0,1	1,481428
3,502500	0,1	1,523702
3,504167	0,1	1,500323
3,505833	0,1	1,462053
3,507500	0,1	1,508057
3,509167	0,1	1,481295
3,510833	0,1	1,482288
3,512500	0,1	1,478126
3,514167	0,1	1,485452
3,515833	0,1	1,487250
3,517500	0,1	1,454592
3,519167	0,1	1,464347
3,520833	0,1	1,475901
3,522500	0,1	1,430680
3,524167	0,1	1,482276
3,525833	0,1	1,422583
3,527500	0,1	1,451502
3,529167	0,1	1,440085
3,530833	0,1	1,441808
3,532500	0,1	1,400826
3,534167	0,1	1,393067
3,535833	0,1	1,399812
3,537500	0,1	1,424219
3,539167	0,1	1,399684
3,540833	0,1	1,433973
3,542500	0,1	1,401330
3,544167	0,1	1,419839
3,545833	0,1	1,403130
3,547500	0,1	1,421057
3,549167	0,1	1,380015
3,550833	0,1	1,378854
3,552500	0,1	1,366943
3,554167	0,1	1,386819
3,555833	0,1	1,373052
3,557500	0,1	1,392128
3,559167	0,1	1,392067
3,560833	0,1	1,357336
3,562500	0,1	1,346996
3,564167	0,1	1,364569
3,565833	0,1	1,361709
3,567500	0,1	1,361422
3,569167	0,1	1,338307
3,570833	0,1	1,310615
3,572500	0,1	1,358027
3,574167	0,1	1,349868
3,575833	0,1	1,357825
3,577500	0,1	1,339171
3,579167	0,1	1,304935
3,580833	0,1	1,315919
3,582500	0,1	1,293237
3,584167	0,1	1,296320
3,585833	0,1	1,287211
3,587500	0,1	1,318847
3,589167	0,1	1,258878
3,590833	0,1	1,320001
3,592500	0,1	1,258453
3,594167	0,1	1,269979
3,595833	0,1	1,263693
3,597500	0,1	1,266692
3,599167	0,1	1,256363
3,600833	0,1	1,296817
3,602500	0,1	1,258943
3,604167	0,1	1,260085
3,605833	0,1	1,272579
3,607500	0,1	1,258529
3,609167	0,1	1,273584
3,610833	0,1	1,276659
3,612500	0,1	1,249334
3,614167	0,1	1,217633
3,615833	0,1	1,268469
3,617500	0,1	1,253789
3,619167	0,1	1,252138
3,620833	0,1	1,244817
3,622500	0,1	1,198753
3,624167	0,1	1,191571
3,625833	0,1	1,213946
3,627500	0,1	1,225591
3,629167	0,1	1,221144
3,630833	0,1	1,192859
3,632500	0,1	1,203120
3,634167	0,1	1,197463
3,635833	0,1	1,224207
3,637500	0,1	1,226099
3,639167	0,1	1,201469
3,640833	0,1	1,177015
3,642500	0,1	1,153691
3,644167	0,1	1,168323
3,645833	0,1	1,170045
3,647500	0,1	1,153333
3,649167	0,1	1,180599
3,650833	0,1	1,191072
3,652500	0,1	1,194291
3,654167	0,1	1,178950
3,655833	0,1	1,107948
3,657500	0,1	1,209872
3,659167	0,1	1,129046
3,660833	0,1	1,157009
3,662500	0,1	1,137480
3,664167	0,1	1,115244
3,665833	0,1	1,174065
3,667500	0,1	1,121730
3,669167	0,1	1,131399
3,670833	0,1	1,134546
3,672500	0,1	1,140010
3,674167	0,1	1,131957
3,675833	0,1	1,132185
3,677500	0,1	1,114977
3,679167	0,1	1,103991
3,680833	0,1	1,082471
3,682500	0,1	1,099165
3,684167	0,1	1,141074
3,685833	0,1	1,064918
3,687500	0,1	1,093008
3,689167	0,1	1,123127
3,690833	0,1	1,097895
3,692500	0,1	1,116674
3,694167	0,1	1,118720
3,695833	0,1	1,071655
3,697500	0,1	1,087857
3,699167	0,1	1,085487
3,700833	0,1	1,072486
3,702500	0,1	1,127640
3,704167	0,1	1,078097
3,705833	0,1	1,030030
3,707500	0,1	1,038078
3,709167	0,1	1,049913
3,710833	0,1	1,064413
3,712500	0,1	1,039885
3,714167	0,1	1,021797
3,715833	0,1	1,031403
3,717500	0,1	1,049843
3,719167	0,1	1,069068
3,720833	0,1	1,010616
3,722500	0,1	1,049043
3,724167	0,1	1,038533
3,725833	0,1	1,022537
3,727500	0,1	1,057722
3,729167	0,1	1,011229
3,730833	0,1	0,992028
3,732500	0,1	1,002222
3,734167	0,1	0,996692
3,735833	0,1	1,012107
3,737500	0,1	0,991903
3,739167	0,1	0,997637
3,740833	0,1	0,986080
3,742500	0,1	0,999640
3,744167	0,1	0,999795
3,745833	0,1	0,994263
3,747500	0,1	1,001153
3,749167	0,1	0,995195
3,750833	0,1	0,977334
3,752500	0,1	0,969450
3,754167	0,1	0,997921
3,755833	0,1	0,959764
3,757500	0,1	0,994789
3,759167	0,1	0,976059
3,760833	0,1	0,953594
3,762500	0,1	0,972973
3,764167	0,1	0,945275
3,765833	0,1	0,997900
3,767500	0,1	0,943785
3,769167	0,1	0,935249
3,770833	0,1	0,967231
3,772500	0,1	0,911522
3,774167	0,1	0,943781
3,775833	0,1	0,930596
3,777500	0,1	0,939928
3,779167	0,1	0,946215
3,780833	0,1	0,909854
3,782500	0,1	0,972881
3,784167	0,1	0,885720
3,785833	0,1	0,944215
3,787500	0,1	0,925589
3,789167	0,1	0,940269
3,790833	0,1	0,924639
3,792500	0,1	0,916741
3,794167	0,1	0,927722
3,795833	0,1	0,922206
3,797500	0,1	0,936094
3,799167	0,1	0,899207
3,800833	0,1	0,914086
3,802500	0,1	0,914516
3,804167	0,1	0,882330
3,805833	0,1	0,875667
3,807500	0,1	0,911736
3,809167	0,1	0,871582
3,810833	0,1	0,873372
3,812500	0,1	0,839933
3,814167	0,1	0,906058
3,815833	0,1	0,877676
3,817500	0,1	0,844909
3,819167	0,1	0,871211
3,820833	0,1	0,892078
3,822500	0,1	0,880676
3,824167	0,1	0,878434
3,825833	0,1	0,850714
3,827500	0,1	0,869360
3,829167	0,1	0,857890
3,830833	0,1	0,884692
3,832500	0,1	0,854382
3,834167	0,1	0,841678
3,835833	0,1	0,829997
3,837500	0,1	0,845931
3,839167	0,1	0,849450
3,840833	0,1	0,836110
3,842500	0,1	0,845068
3,844167	0,1	0,831372
3,845833	0,1	0,814532
3,847500	0,1	0,841906
3,849167	0,1	0,819456
3,850833	0,1	0,826360
3,852500	0,1	0,822356
3,854167	0,1	0,814801
3,855833	0,1	0,824779
3,857500	0,1	0,859460
3,859167	0,1	0,799789
3,860833	0,1	0,810061
3,862500	0,1	0,800167
3,864167	0,1	0,819073
3,865833	0,1	0,805464
3,867500	0,1	0,779954
3,869167	0,1	0,800398
3,870833	0,1	0,820551
3,872500	0,1	0,815022
3,874167	0,1	0,803412
3,875833	0,1	0,791088
3,877500	0,1	0,780699
3,879167	0,1	0,806051
3,880833	0,1	0,797912
3,882500	0,1	0,777949
3,884167	0,1	0,779609
3,885833	0,1	0,775162
3,887500	0,1	0,782985
3,889167	0,1	0,766999
3,890833	0,1	0,777959
3,892500	0,1	0,779983
3,894167	0,1	0,764081
3,895833	0,1	0,775533
3,897500	0,1	0,773872
3,899167	0,1	0,808781
3,900833	0,1	0,738922
3,902500	0,1	0,756333
3,904167	0,1	0,751479
3,905833	0,1	0,757116
3,907500	0,1	0,767061
3,909167	0,1	0,734638
3,910833	0,1	0,771964
3,912500	0,1	0,765420
3,914167	0,1	0,718256
3,915833	0,1	0,713646
3,917500	0,1	0,722555
3,919167	0,1	0,751373
3,920833	0,1	0,704981
3,922500	0,1	0,745652
3,924167	0,1	0,738481
3,925833	0,1	0,686300
3,927500	0,1	0,727487
3,929167	0,1	0,728805
3,930833	0,1	0,769211
3,932500	0,1	0,738470
3,934167	0,1	0,751579
3,935833	0,1	0,700882
3,937500	0,1	0,736776
3,939167	0,1	0,700658
3,940833	0,1	0,705585
3,942500	0,1	0,687802
3,944167	0,1	0,725504
3,945833	0,1	0,715975
3,947500	0,1	0,746722
3,949167	0,1	0,693837
3,950833	0,1	0,740424
3,952500	0,1	0,719780
3,954167	0,1	0,686026
3,955833	0,1	0,710499
3,957500	0,1	0,698006
3,959167	0,1	0,675482
3,960833	0,1	0,693194
3,962500	0,1	0,674259
3,964167	0,1	0,662630
3,965833	0,1	0,670557
3,967500	0,1	0,685859
3,969167	0,1	0,703937
3,970833	0,1	0,691758
3,972500	0,1	0,666570
3,974167	0,1	0,701393
3,975833	0,1	0,647647
3,977500	0,1	0,671489
3,979167	0,1	0,721209
3,980833	0,1	0,677846
3,982500	0,1	0,663007
3,984167	0,1	0,682144
3,985833	0,1	0,675258
3,987500	0,1	0,693417
3,989167	0,1	0,652446
3,990833	0,1	0,672247
3,992500	0,1	0,630611
3,994167	0,1	0,700566
3,995833	0,1	0,597475
3,997500	0,1	0,639174
3,999167	0,1	0,628228
4,000833	0,1	0,679154
4,002500	0,1	0,627481
4,004167	0,1	0,678219
4,005833	0,1	0,651443
4,007500	0,1	0,653147
4,009167	0,1	0,619047
4,010833	0,1	0,624042
4,012500	0,1	0,615817
4,014167	0,1	0,640379
4,015833	0,1	0,630628
4,017500	0,1	0,659813
4,019167	0,1	0,616584
4,020833	0,1	0,679707
4,022500	0,1	0,645284
4,024167	0,1	0,620892
4,025833	0,1	0,631754
4,027500	0,1	0,586944
4,029167	0,1	0,670674
4,030833	0,1	0,608293
4,032500	0,1	0,630486
4,034167	0,1	0,648074
4,035833	0,1	0,628562
4,037500	0,1	0,573386
4,039167	0,1	0,642552
4,040833	0,1	0,591816
4,042500	0,1	0,639904
4,044167	0,1	0,591592
4,045833	0,1	0,615077
4,047500	0,1	0,599899
4,049167	0,1	0,632195
4,050833	0,1	0,615221
4,052500	0,1	0,642510
4,054167	0,1	0,608844
4,055833	0,1	0,607990
4,057500	0,1	0,607479
4,059167	0,1	0,609190
4,060833	0,1	0,603144
4,062500	0,1	0,601543
4,064167	0,1	0,572223
4,065833	0,1	0,583707
4,067500	0,1	0,596535
4,069167	0,1	0,638172
4,070833	0,1	0,574944
4,072500	0,1	0,609450
4,074167	0,1	0,573780
4,075833	0,1	0,582240
4,077500	0,1	0,610563
4,079167	0,1	0,598007
4,080833	0,1	0,597807
4,082500	0,1	0,580734
4,084167	0,1	0,574841
4,085833	0,1	0,553457
4,087500	0,1	0,587770
4,089167	0,1	0,627987
4,090833	0,1	0,566182
4,092500	0,1	0,542007
4,094167	0,1	0,570853
4,095833	0,1	0,561346
4,097500	0,1	0,593684
4,099167	0,1	0,571331
4,100833	0,1	0,565924
4,102500	0,1	0,569657
4,104167	0,1	0,552566
4,105833	0,1	0,527025
4,107500	0,1	0,550577
4,109167	0,1	0,606596
4,110833	0,1	0,523525
4,112500	0,1	0,541843
4,114167	0,1	0,520956
4,115833	0,1	0,558668
4,117500	0,1	0,528316
4,119167	0,1	0,580874
4,120833	0,1	0,535011
4,122500	0,1	0,543800
4,124167	0,1	0,539003
4,125833	0,1	0,516286
4,127500	0,1	0,520949
4,129167	0,1	0,541552
4,130833	0,1	0,513687
4,132500	0,1	0,560400
4,134167	0,1	0,513979
4,135833	0,1	0,535171
4,137500	0,1	0,516887
4,139167	0,1	0,516059
4,140833	0,1	0,521415
4,142500	0,1	0,535863
4,144167	0,1	0,519262
4,145833	0,1	0,517504
4,147500	0,1	0,510414
4,149167	0,1	0,529460
4,150833	0,1	0,540022
4,152500	0,1	0,527888
4,154167	0,1	0,544110
4,155833	0,1	0,510932
4,157500	0,1	0,511701
4,159167	0,1	0,481436
4,160833	0,1	0,535275
4,162500	0,1	0,506285
4,164167	0,1	0,506345
4,165833	0,1	0,496589
4,167500	0,1	0,522745
4,169167	0,1	0,520174
4,170833	0,1	0,537575
4,172500	0,1	0,502438
4,174167	0,1	0,492721
4,175833	0,1	0,520521
4,177500	0,1	0,498946
4,179167	0,1	0,552594
4,180833	0,1	0,465220
4,182500	0,1	0,520069
4,184167	0,1	0,519929
4,185833	0,1	0,473366
4,187500	0,1	0,520449
4,189167	0,1	0,507371
4,190833	0,1	0,524903
4,192500	0,1	0,482216
4,194167	0,1	0,510117
4,195833	0,1	0,465745
4,197500	0,1	0,485557
4,199167	0,1	0,478874
4,200833	0,1	0,520608
4,202500	0,1	0,472614
4,204167	0,1	0,481957
4,205833	0,1	0,505141
4,207500	0,1	0,477874
4,209167	0,1	0,453156
4,210833	0,1	0,532581
4,212500	0,1	0,456613
4,214167	0,1	0,469178
4,215833	0,1	0,458672
4,217500	0,1	0,499576
4,219167	0,1	0,464122
4,220833	0,1	0,470288
4,222500	0,1	0,440471
4,224167	0,1	0,468776
4,225833	0,1	0,459670
4,227500	0,1	0,444400
4,229167	0,1	0,477486
4,230833	0,1	0,482005
4,232500	0,1	0,457691
4,234167	0,1	0,451422
4,235833	0,1	0,441913
4,237500	0,1	0,477840
4,239167	0,1	0,485961
4,240833	0,1	0,425250
4,242500	0,1	0,472838
4,244167	0,1	0,487201
4,245833	0,1	0,463806
4,247500	0,1	0,423576
4,249167	0,1	0,471995
4,250833	0,1	0,422983
4,252500	0,1	0,447432
4,254167	0,1	0,459863
4,255833	0,1	0,447467
4,257500	0,1	0,439797
4,259167	0,1	0,438266
4,260833	0,1	0,403512
4,262500	0,1	0,451320
4,264167	0,1	0,442085
4,265833	0,1	0,434730
4,267500	0,1	0,427501
4,269167	0,1	0,482414
4,270833	0,1	0,454716
4,272500	0,1	0,428174
4,274167	0,1	0,423171
4,275833	0,1	0,431150
4,277500	0,1	0,448657
4,279167	0,1	0,435112
4,280833	0,1	0,418976
4,282500	0,1	0,423367
4,284167	0,1	0,433083
4,285833	0,1	0,449014
4,287500	0,1	0,455842
4,289167	0,1	0,451778
4,290833	0,1	0,429934
4,292500	0,1	0,448772
4,294167	0,1	0,459352
4,295833	0,1	0,414247
4,297500	0,1	0,393500
4,299167	0,1	0,412142
4,300833	0,1	0,418416
4,302500	0,1	0,376775
4,304167	0,1	0,422448
4,305833	0,1	0,398815
4,307500	0,1	0,421006
4,309167	0,1	0,399657
4,310833	0,1	0,376258
4,312500	0,1	0,404472
4,314167	0,1	0,398284
4,315833	0,1	0,360150
4,317500	0,1	0,374933
4,319167	0,1	0,403563
4,320833	0,1	0,409657
4,322500	0,1	0,377259
4,324167	0,1	0,385364
4,325833	0,1	0,398411
4,327500	0,1	0,389774
4,329167	0,1	0,399964
4,330833	0,1	0,403791
4,332500	0,1	0,402860
4,334167	0,1	0,381570
4,335833	0,1	0,380855
4,337500	0,1	0,389875
4,339167	0,1	0,407813
4,340833	0,1	0,401572
4,342500	0,1	0,385619
4,344167	0,1	0,391917
4,345833	0,1	0,428208
4,347500	0,1	0,356119
4,349167	0,1	0,412133
4,350833	0,1	0,380061
4,352500	0,1	0,401209
4,354167	0,1	0,400728
4,355833	0,1	0,380398
4,357500	0,1	0,364733
4,359167	0,1	0,394078
4,360833	0,1	0,370510
4,362500	0,1	0,368835
4,364167	0,1	0,395027
4,365833	0,1	0,363659
4,367500	0,1	0,393985
4,369167	0,1	0,356862
4,370833	0,1	0,367436
4,372500	0,1	0,349544
4,374167	0,1	0,389553
4,375833	0,1	0,363817
4,377500	0,1	0,333005
4,379167	0,1	0,371535
4,380833	0,1	0,375080
4,382500	0,1	0,350480
4,384167	0,1	0,368054
4,385833	0,1	0,345744
4,387500	0,1	0,351918
4,389167	0,1	0,333868
4,390833	0,1	0,343474
4,392500	0,1	0,367828
4,394167	0,1	0,377459
4,395833	0,1	0,366588
4,397500	0,1	0,379050
4,399167	0,1	0,348154
4,400833	0,1	0,309045
4,402500	0,1	0,355869
4,404167	0,1	0,367990
4,405833	0,1	0,339814
4,407500	0,1	0,350209
4,409167	0,1	0,355878
4,410833	0,1	0,301736
4,412500	0,1	0,341890
4,414167	0,1	0,329462
4,415833	0,1	0,336005
4,417500	0,1	0,315365
4,419167	0,1	0,326945
4,420833	0,1	0,370782
4,422500	0,1	0,334595
4,424167	0,1	0,358701
4,425833	0,1	0,345795
4,427500	0,1	0,333432
4,429167	0,1	0,353284
4,430833	0,1	0,357338
4,432500	0,1	0,351239
4,434167	0,1	0,295584
4,435833	0,1	0,325586
4,437500	0,1	0,307107
4,439167	0,1	0,319697
4,440833	0,1	0,326011
4,442500	0,1	0,353677
4,444167	0,1	0,341061
4,445833	0,1	0,380096
4,447500	0,1	0,303030
4,449167	0,1	0,301985
4,450833	0,1	0,303237
4,452500	0,1	0,308904
4,454167	0,1	0,290223
4,455833	0,1	0,356561
4,457500	0,1	0,326495
4,459167	0,1	0,299665
4,460833	0,1	0,331635
4,462500	0,1	0,327724
4,464167	0,1	0,324436
4,465833	0,1	0,304109
4,467500	0,1	0,301789
4,469167	0,1	0,314122
4,470833	0,1	0,268938
4,472500	0,1	0,314562
4,474167	0,1	0,307709
4,475833	0,1	0,350936
4,477500	0,1	0,314411
4,479167	0,1	0,307840
4,480833	0,1	0,323944
4,482500	0,1	0,292552
4,484167	0,1	0,310255
4,485833	0,1	0,305525
4,487500	0,1	0,317042
4,489167	0,1	0,323909
4,490833	0,1	0,316442
4,492500	0,1	0,285556
4,494167	0,1	0,305901
4,495833	0,1	0,316372
4,497500	0,1	0,268677
4,499167	0,1	0,317164
4,500833	0,1	0,247198
4,502500	0,1	0,299544
4,504167	0,1	0,303775
4,505833	0,1	0,270028
4,507500	0,1	0,262747
4,509167	0,1	0,288764
4,510833	0,1	0,270155
4,512500	0,1	0,260806
4,514167	0,1	0,257948
4,515833	0,1	0,306735
4,517500	0,1	0,270254
4,519167	0,1	0,285443
4,520833	0,1	0,279948
4,522500	0,1	0,234894
4,524167	0,1	0,293201
4,525833	0,1	0,275506
4,527500	0,1	0,265541
4,529167	0,1	0,260451
4,530833	0,1	0,267889
4,532500	0,1	0,244610
4,534167	0,1	0,269173
4,535833	0,1	0,292882
4,537500	0,1	0,279043
4,539167	0,1	0,256364
4,540833	0,1	0,284319
4,542500	0,1	0,224364
4,544167	0,1	0,259928
4,545833	0,1	0,259328
4,547500	0,1	0,257713
4,549167	0,1	0,287027
4,550833	0,1	0,284104
4,552500	0,1	0,280199
4,554167	0,1	0,247703
4,555833	0,1	0,257001
4,557500	0,1	0,270213
4,559167	0,1	0,286375
4,560833	0,1	0,235532
4,562500	0,1	0,223700
4,564167	0,1	0,238737
4,565833	0,1	0,231626
4,567500	0,1	0,273074
4,569167	0,1	0,264737
4,570833	0,1	0,255782
4,572500	0,1	0,251654
4,574167	0,1	0,266085
4,575833	0,1	0,268665
4,577500	0,1	0,233753
4,579167	0,1	0,248494
4,580833	0,1	0,231367
4,582500	0,1	0,276285
4,584167	0,1	0,244069
4,585833	0,1	0,247825
4,587500	0,1	0,236485
4,589167	0,1	0,236191
4,590833	0,1	0,230049
4,592500	0,1	0,244087
4,594167	0,1	0,225795
4,595833	0,1	0,205020
4,597500	0,1	0,203380
4,599167	0,1	0,258700
4,600833	0,1	0,263614
4,602500	0,1	0,223063
4,604167	0,1	0,240474
4,605833	0,1	0,201450
4,607500	0,1	0,212359
4,609167	0,1	0,214324
4,610833	0,1	0,225953
4,612500	0,1	0,250685
4,614167	0,1	0,226571
4,615833	0,1	0,212105
4,617500	0,1	0,273478
4,619167	0,1	0,209766
4,620833	0,1	0,252904
4,622500	0,1	0,225797
4,624167	0,1	0,245336
4,625833	0,1	0,261836
4,627500	0,1	0,212918
4,629167	0,1	0,200676
4,630833	0,1	0,216377
4,632500	0,1	0,231547
4,634167	0,1	0,223411
4,635833	0,1	0,229785
4,637500	0,1	0,189276
4,639167	0,1	0,209362
4,640833	0,1	0,249711
4,642500	0,1	0,207893
4,644167	0,1	0,219894
4,645833	0,1	0,252747
4,647500	0,1	0,229632
4,649167	0,1	0,210529
4,650833	0,1	0,200378
4,652500	0,1	0,230777
4,654167	0,1	0,189115
4,655833	0,1	0,238729
4,657500	0,1	0,248533
4,659167	0,1	0,173953
4,660833	0,1	0,170131
4,662500	0,1	0,170483
4,664167	0,1	0,210385
4,665833	0,1	0,212738
4,667500	0,1	0,182475
4,669167	0,1	0,188425
4,670833	0,1	0,179764
4,672500	0,1	0,221233
4,674167	0,1	0,213066
4,675833	0,1	0,237278
4,677500	0,1	0,230946
4,679167	0,1	0,192010
4,680833	0,1	0,184468
4,682500	0,1	0,200018
4,684167	0,1	0,205044
4,685833	0,1	0,209235
4,687500	0,1	0,205690
4,689167	0,1	0,204820
4,690833	0,1	0,188790
4,692500	0,1	0,191777
4,694167	0,1	0,186306
4,695833	0,1	0,207710
4,697500	0,1	0,159614
4,699167	0,1	0,201691
4,700833	0,1	0,190817
4,702500	0,1	0,185111
4,704167	0,1	0,165306
4,705833	0,1	0,186684
4,707500	0,1	0,164177
4,709167	0,1	0,213083
4,710833	0,1	0,164059
4,712500	0,1	0,160923
4,714167	0,1	0,164072
4,715833	0,1	0,194375
4,717500	0,1	0,151915
4,719167	0,1	0,148430
4,720833	0,1	0,182135
4,722500	0,1	0,132658
4,724167	0,1	0,165707
4,725833	0,1	0,192604
4,727500	0,1	0,203529
4,729167	0,1	0,188718
4,730833	0,1	0,170358
4,732500	0,1	0,192893
4,734167	0,1	0,164924
4,735833	0,1	0,187842
4,737500	0,1	0,159446
4,739167	0,1	0,157990
4,740833	0,1	0,114395
4,742500	0,1	0,148445
4,744167	0,1	0,176695
4,745833	0,1	0,145565
4,747500	0,1	0,177858
4,749167	0,1	0,131207
4,750833	0,1	0,165841
4,752500	0,1	0,172225
4,754167	0,1	0,170006
4,755833	0,1	0,192286
4,757500	0,1	0,134851
4,759167	0,1	0,175084
4,760833	0,1	0,155738
4,762500	0,1	0,142695
4,764167	0,1	0,164232
4,765833	0,1	0,152616
4,767500	0,1	0,181687
4,769167	0,1	0,140061
4,770833	0,1	0,184746
4,772500	0,1	0,129827
4,774167	0,1	0,180908
4,775833	0,1	0,154682
4,777500	0,1	0,165907
4,779167	0,1	0,121031
4,780833	0,1	0,174335
4,782500	0,1	0,155154
4,784167	0,1	0,152874
4,785833	0,1	0,136220
4,787500	0,1	0,145655
4,789167	0,1	0,117644
4,790833	0,1	0,117088
4,792500	0,1	0,125009
4,794167	0,1	0,165710
4,795833	0,1	0,122419
4,797500	0,1	0,136151
4,799167	0,1	0,164425
4,800833	0,1	0,110116
4,802500	0,1	0,149898
4,804167	0,1	0,153127
4,805833	0,1	0,158470
4,807500	0,1	0,134358
4,809167	0,1	0,136060
4,810833	0,1	0,146393
4,812500	0,1	0,163300
4,814167	0,1	0,109857
4,815833	0,1	0,110326
4,817500	0,1	0,158303
4,819167	0,1	0,126471
4,820833	0,1	0,114003
4,822500	0,1	0,119633
4,824167	0,1	0,175400
4,825833	0,1	0,105546
4,827500	0,1	0,147224
4,829167	0,1	0,139891
4,830833	0,1	0,167451
4,832500	0,1	0,097367
4,834167	0,1	0,116345
4,835833	0,1	0,146518
4,837500	0,1	0,157408
4,839167	0,1	0,111916
4,840833	0,1	0,145679
4,842500	0,1	0,152093
4,844167	0,1	0,084357
4,845833	0,1	0,100468
4,847500	0,1	0,132732
4,849167	0,1	0,108403
4,850833	0,1	0,127841
4,852500	0,1	0,101122
4,854167	0,1	0,130480
4,855833	0,1	0,103251
4,857500	0,1	0,136726
4,859167	0,1	0,116160
4,860833	0,1	0,152763
4,862500	0,1	0,149617
4,864167	0,1	0,144594
4,865833	0,1	0,101867
4,867500	0,1	0,101180
4,869167	0,1	0,100183
4,870833	0,1	0,117022
4,872500	0,1	0,122274
4,874167	0,1	0,109526
4,875833	0,1	0,140627
4,877500	0,1	0,140663
4,879167	0,1	0,095556
4,880833	0,1	0,121978
4,882500	0,1	0,101155
4,884167	0,1	0,117148
4,885833	0,1	0,110425
4,887500	0,1	0,135601
4,889167	0,1	0,100997
4,890833	0,1	0,103982
4,892500	0,1	0,094165
4,894167	0,1	0,100278
4,895833	0,1	0,098510
4,897500	0,1	0,100506
4,899167	0,1	0,125005
4,900833	0,1	0,113035
4,902500	0,1	0,118698
4,904167	0,1	0,131034
4,905833	0,1	0,084224
4,907500	0,1	0,115956
4,909167	0,1	0,099157
4,910833	0,1	0,084697
4,912500	0,1	0,059905
4,914167	0,1	0,095892
4,915833	0,1	0,105624
4,917500	0,1	0,092554
4,919167	0,1	0,106459
4,920833	0,1	0,089656
4,922500	0,1	0,050119
4,924167	0,1	0,100171
4,925833	0,1	0,076456
4,927500	0,1	0,099242
4,929167	0,1	0,122623
4,930833	0,1	0,074144
4,932500	0,1	0,132308
4,934167	0,1	0,070475
4,935833	0,1	0,121105
4,937500	0,1	0,101799
4,939167	0,1	0,116828
4,940833	0,1	0,080356
4,942500	0,1	0,096444
4,944167	0,1	0,079610
4,945833	0,1	0,063702
4,947500	0,1	0,088586
4,949167	0,1	0,086015
4,950833	0,1	0,080413
4,952500	0,1	0,090875
4,954167	0,1	0,099375
4,955833	0,1	0,083828
4,957500	0,1	0,093225
4,959167	0,1	0,099023
4,960833	0,1	0,059813
4,962500	0,1	0,113146
4,964167	0,1	0,065031
4,965833	0,1	0,097987
4,967500	0,1	0,100893
4,969167	0,1	0,078678
4,970833	0,1	0,112833
4,972500	0,1	0,054858
4,974167	0,1	0,101363
4,975833	0,1	0,093809
4,977500	0,1	0,119143
4,979167	0,1	0,092107
4,980833	0,1	0,102080
4,982500	0,1	0,088819
4,984167	0,1	0,096317
4,985833	0,1	0,093196
4,987500	0,1	0,107426
4,989167	0,1	0,048385
4,990833	0,1	0,132270
4,992500	0,1	0,164289
4,994167	0,1	0,096494
4,995833	0,1	0,100184
4,997500	0,1	0,081413
4,999167	0,1	0,078640
5,000833	0,1	0,090099
5,002500	0,1	0,114764
5,004167	0,1	0,071213
5,005833	0,1	0,069722
5,007500	0,1	0,085883
5,009167	0,1	0,048414
5,010833	0,1	0,096081
5,012500	0,1	0,093164
5,014167	0,1	0,073590
5,015833	0,1	0,098339
5,017500	0,1	0,096610
5,019167	0,1	0,081027
5,020833	0,1	0,008302
5,022500	0,1	0,077270
5,024167	0,1	0,092838
5,025833	0,1	0,108582
5,027500	0,1	0,123269
5,029167	0,1	0,074980
5,030833	0,1	0,085820
5,032500	0,1	0,096475
5,034167	0,1	0,085696
5,035833	0,1	0,070304
5,037500	0,1	0,044933
5,039167	0,1	0,052555
5,040833	0,1	0,061540
5,042500	0,1	0,051756
5,044167	0,1	0,083045
5,045833	0,1	0,073489
5,047500	0,1	0,088201
5,049167	0,1	0,080702
5,050833	0,1	0,070561
5,052500	0,1	0,045963
5,054167	0,1	0,112148
5,055833	0,1	0,104822
5,057500	0,1	0,082058
5,059167	0,1	0,051954
5,060833	0,1	0,060831
5,062500	0,1	0,062701
5,064167	0,1	0,042935
5,065833	0,1	0,109346
5,067500	0,1	0,066285
5,069167	0,1	0,105647
5,070833	0,1	0,062712
5,072500	0,1	0,098630
5,074167	0,1	0,046967
5,075833	0,1	0,090286
5,077500	0,1	0,062739
5,079167	0,1	0,062895
5,080833	0,1	0,026905
5,082500	0,1	0,084100
5,084167	0,1	0,050955
5,085833	0,1	0,084621
5,087500	0,1	0,072846
5,089167	0,1	0,095120
5,090833	0,1	0,083600
5,092500	0,1	0,069047
5,094167	0,1	0,065631
5,095833	0,1	0,017730
5,097500	0,1	0,066134
5,099167	0,1	0,084172
5,100833	0,1	0,096927
5,102500	0,1	0,095096
5,104167	0,1	0,042557
5,105833	0,1	0,077569
5,107500	0,1	0,043325
5,109167	0,1	0,057546
5,110833	0,1	0,062314
5,112500	0,1	0,046250
5,114167	0,1	0,070196
5,115833	0,1	0,047187
5,117500	0,1	0,059574
5,119167	0,1	0,045541
5,120833	0,1	0,061860
5,122500	0,1	0,038750
5,124167	0,1	0,019881
5,125833	0,1	0,090344
5,127500	0,1	0,072719
5,129167	0,1	0,041359
5,130833	0,1	0,041256
5,132500	0,1	0,065688
5,134167	0,1	0,051530
5,135833	0,1	0,030860
5,137500	0,1	0,040126
5,139167	0,1	0,071775
5,140833	0,1	0,074484
5,142500	0,1	0,023655
5,144167	0,1	0,041476
5,145833	0,1	0,052039
5,147500	0,1	0,064823
5,149167	0,1	0,087843
5,150833	0,1	0,037405
5,152500	0,1	0,052780
5,154167	0,1	0,044865
5,155833	0,1	0,040163
5,157500	0,1	0,056868
5,159167	0,1	0,050884
5,160833	0,1	0,018886
5,162500	0,1	0,082779
5,164167	0,1	0,044228
5,165833	0,1	0,040871
5,167500	0,1	0,035235
5,169167	0,1	0,034719
5,170833	0,1	0,100906
5,172500	0,1	0,038340
5,174167	0,1	0,061953
5,175833	0,1	0,029415
5,177500	0,1	0,084422
5,179167	0,1	0,070818
5,180833	0,1	0,062059
5,182500	0,1	0,063440
5,184167	0,1	0,076960
5,185833	0,1	0,027809
5,187500	0,1	0,062177
5,189167	0,1	0,015702
5,190833	0,1	0,065137
5,192500	0,1	0,034438
5,194167	0,1	0,049625
5,195833	0,1	0,082947
5,197500	0,1	0,074230
5,199167	0,1	0,068241
5,200833	0,1	0,041971
5,202500	0,1	0,057448
5,204167	0,1	0,063375
5,205833	0,1	0,025262
5,207500	0,1	0,047335
5,209167	0,1	0,040936
5,210833	0,1	0,051429
5,212500	0,1	0,055454
5,214167	0,1	0,083978
5,215833	0,1	0,037628
5,217500	0,1	0,046566
5,219167	0,1	0,054487
5,220833	0,1	0,060541
5,222500	0,1	0,042034
5,224167	0,1	0,033595
5,225833	0,1	0,043990
5,227500	0,1	0,034335
5,229167	0,1	0,050783
5,230833	0,1	0,033018
5,232500	0,1	0,059539
5,234167	0,1	0,055713
5,235833	0,1	0,096180
5,237500	0,1	0,074556
5,239167	0,1	0,095443
5,240833	0,1	0,090941
5,242500	0,1	0,015839
5,244167	0,1	0,047076
5,245833	0,1	0,072548
5,247500	0,1	0,091386
5,249167	0,1	0,076904
5,250833	0,1	0,028196
5,252500	0,1	0,051619
5,254167	0,1	0,071197
5,255833	0,1	0,046831
5,257500	0,1	0,043640
5,259167	0,1	0,059251
5,260833	0,1	-0,009085
5,262500	0,1	0,036802
5,264167	0,1	0,023002
5,265833	0,1	0,087381
5,267500	0,1	0,041685
5,269167	0,1	0,050077
5,270833	0,1	0,089449
5,272500	0,1	0,043457
5,274167	0,1	0,060057
5,275833	0,1	0,037720
5,277500	0,1	0,072384
5,279167	0,1	0,042389
5,280833	0,1	0,025998
5,282500	0,1	0,035683
5,284167	0,1	0,019559
5,285833	0,1	0,010993
5,287500	0,1	0,039446
5,289167	0,1	0,018787
5,290833	0,1	0,034877
5,292500	0,1	0,050364
5,294167	0,1	0,036718
5,295833	0,1	0,059025
5,297500	0,1	0,041196
5,299167	0,1	0,038712
5,300833	0,1	0,069971
5,302500	0,1	0,045350
5,304167	0,1	0,061602
5,305833	0,1	0,016604
5,307500	0,1	0,001592
5,309167	0,1	0,005804
5,310833	0,1	0,029338
5,312500	0,1	0,063497
5,314167	0,1	0,045897
5,315833	0,1	0,031923
5,317500	0,1	0,023163
5,319167	0,1	0,067971
5,320833	0,1	0,044739
5,322500	0,1	0,034755
5,324167	0,1	0,078369
5,325833	0,1	0,067855
5,327500	0,1	0,021563
5,329167	0,1	0,039192
5,330833	0,1	0,043025
5,332500	0,1	0,046343
5,334167	0,1	0,044477
5,335833	0,1	0,044863
5,337500	0,1	0,079854
5,339167	0,1	0,064346
5,340833	0,1	0,041293
5,342500	0,1	0,042158
5,344167	0,1	0,045441
5,345833	0,1	0,063050
5,347500	0,1	0,033116
5,349167	0,1	0,022293
5,350833	0,1	0,052841
5,352500	0,1	0,041066
5,354167	0,1	0,062502
5,355833	0,1	0,041421
5,357500	0,1	0,054164
5,359167	0,1	0,036946
5,360833	0,1	0,077856
5,362500	0,1	0,024107
5,364167	0,1	0,025446
5,365833	0,1	0,043151
5,367500	0,1	0,011000
5,369167	0,1	0,041893
5,370833	0,1	0,032596
5,372500	0,1	0,023258
5,374167	0,1	0,032141
5,375833	0,1	0,020717
5,377500	0,1	-0,004492
5,379167	0,1	0,014302
5,380833	0,1	0,039929
5,382500	0,1	0,068361
5,384167	0,1	0,019083
5,385833	0,1	0,061145
5,387500	0,1	0,017956
5,389167	0,1	0,044921
5,390833	0,1	0,017597
5,392500	0,1	0,066326
5,394167	0,1	0,065470
5,395833	0,1	0,044546
5,397500	0,1	0,026351
5,399167	0,1	0,044374
5,400833	0,1	0,047760
5,402500	0,1	0,052169
5,404167	0,1	0,050754
5,405833	0,1	0,043126
5,407500	0,1	0,056289
5,409167	0,1	0,050755
5,410833	0,1	0,027610
5,412500	0,1	0,036682
5,414167	0,1	0,028796
5,415833	0,1	0,047401
5,417500	0,1	0,040709
5,419167	0,1	0,015633
5,420833	0,1	0,024477
5,422500	0,1	0,048012
5,424167	0,1	0,034915
5,425833	0,1	0,047981
5,427500	0,1	0,041225
5,429167	0,1	0,013509
5,430833	0,1	0,040606
5,432500	0,1	0,033111
5,434167	0,1	0,055418
5,435833	0,1	0,035852
5,437500	0,1	0,057479
5,439167	0,1	-0,004096
5,440833	0,1	0,005161
5,442500	0,1	0,039445
5,444167	0,1	0,062855
5,445833	0,1	0,046636
5,447500	0,1	0,036074
5,449167	0,1	0,013443
5,450833	0,1	0,011537
5,452500	0,1	0,051937
5,454167	0,1	0,043350
5,455833	0,1	0,037747
5,457500	0,1	0,064176
5,459167	0,1	0,022012
5,460833	0,1	0,057154
5,462500	0,1	0,026711
5,464167	0,1	0,039386
5,465833	0,1	0,062051
5,467500	0,1	0,026549
5,469167	0,1	0,057734
5,470833	0,1	0,051013
5,472500	0,1	0,015893
5,474167	0,1	0,030594
5,475833	0,1	0,035040
5,477500	0,1	0,047209
5,479167	0,1	0,018306
5,480833	0,1	0,024607
5,482500	0,1	0,052035
5,484167	0,1	0,027546
5,485833	0,1	0,035330
5,487500	0,1	0,018945
5,489167	0,1	0,039384
5,490833	0,1	0,054840
5,492500	0,1	0,026097
5,494167	0,1	0,037614
5,495833	0,1	0,051106
5,497500	0,1	0,014413
5,499167	0,1	0,042762
5,500833	0,1	0,028991
5,502500	0,1	0,004557
5,504167	0,1	0,028307
5,505833	0,1	0,038966
5,507500	0,1	0,059347
5,509167	0,1	0,048181
5,510833	0,1	0,034047
5,512500	0,1	0,011415
5,514167	0,1	-0,004716
5,515833	0,1	0,055762
5,517500	0,1	0,044608
5,519167	0,1	0,012158
5,520833	0,1	0,021935
5,522500	0,1	0,023805
5,524167	0,1	0,040029
5,525833	0,1	0,041449
5,527500	0,1	0,076053
5,529167	0,1	0,018539
5,530833	0,1	0,035264
5,532500	0,1	0,022101
5,534167	0,1	0,033236
5,535833	0,1	0,052135
5,537500	0,1	0,011933
5,539167	0,1	0,020648
5,540833	0,1	0,036003
5,542500	0,1	-0,001427
5,544167	0,1	0,037512
5,545833	0,1	0,013766
5,547500	0,1	0,006936
5,549167	0,1	0,035132
5,550833	0,1	0,008323
5,552500	0,1	0,038769
5,554167	0,1	0,016951
5,555833	0,1	0,062914
5,557500	0,1	0,036433
5,559167	0,1	0,031341
5,560833	0,1	-0,002072
5,562500	0,1	0,033778
5,564167	0,1	0,030375
5,565833	0,1	0,067393
5,567500	0,1	0,007109
5,569167	0,1	-0,001018
5,570833	0,1	0,024894
5,572500	0,1	0,021231
5,574167	0,1	0,039063
5,575833	0,1	0,008454
5,577500	0,1	0,062623
5,579167	0,1	0,011905
5,580833	0,1	-0,022580
5,582500	0,1	0,014104
5,584167	0,1	-0,012828
5,585833	0,1	-0,000120
5,587500	0,1	0,063651
5,589167	0,1	0,018406
5,590833	0,1	0,007354
5,592500	0,1	0,030592
5,594167	0,1	0,020426
5,595833	0,1	0,017174
5,597500	0,1	0,069772
5,599167	0,1	-0,003577
5,600833	0,1	0,027018
5,602500	0,1	-0,020069
5,604167	0,1	0,015684
5,605833	0,1	-0,022774
5,607500	0,1	0,031069
5,609167	0,1	0,015760
5,610833	0,1	0,008771
5,612500	0,1	0,044597
5,614167	0,1	0,014412
5,615833	0,1	0,015271
5,617500	0,1	-0,010928
5,619167	0,1	0,047391
5,620833	0,1	0,038232
5,622500	0,1	0,019174
5,624167	0,1	0,023418
5,625833	0,1	-0,003490
5,627500	0,1	-0,021492
5,629167	0,1	0,021413
5,630833	0,1	0,036938
5,632500	0,1	0,019205
5,634167	0,1	0,005359
5,635833	0,1	0,040893
5,637500	0,1	0,010418
5,639167	0,1	0,009189
5,640833	0,1	0,012696
5,642500	0,1	0,044564
5,644167	0,1	0,045893
5,645833	0,1	0,005881
5,647500	0,1	0,045528
5,649167	0,1	0,028897
5,650833	0,1	0,005201
5,652500	0,1	0,066388
5,654167	0,1	0,061027
5,655833	0,1	0,013579
5,657500	0,1	0,007224
5,659167	0,1	0,020776
5,660833	0,1	0,007710
5,662500	0,1	0,011634
5,664167	0,1	0,024413
5,665833	0,1	0,027347
5,667500	0,1	0,025189
5,669167	0,1	0,018879
5,670833	0,1	0,006422
5,672500	0,1	-0,010094
5,674167	0,1	0,017359
5,675833	0,1	-0,007453
5,677500	0,1	-0,000407
5,679167	0,1	0,009798
5,680833	0,1	0,020196
5,682500	0,1	-0,009319
5,684167	0,1	-0,014377
5,685833	0,1	0,009312
5,687500	0,1	0,020872
5,689167	0,1	0,035458
5,690833	0,1	-0,038440
5,692500	0,1	0,005187
5,694167	0,1	-0,011123
5,695833	0,1	0,030266
5,697500	0,1	-0,014915
5,699167	0,1	0,027175
5,700833	0,1	0,032755
5,702500	0,1	0,020298
5,704167	0,1	-0,007067
5,705833	0,1	0,034356
5,707500	0,1	-0,007222
5,709167	0,1	0,002489
5,710833	0,1	-0,018012
5,712500	0,1	0,029783
5,714167	0,1	0,019301
5,715833	0,1	-0,016237
5,717500	0,1	0,032067
5,719167	0,1	0,026447
5,720833	0,1	0,005812
5,722500	0,1	0,016462
5,724167	0,1	0,000852
5,725833	0,1	-0,013702
5,727500	0,1	0,008184
5,729167	0,1	-0,044147
5,730833	0,1	0,009142
5,732500	0,1	0,009927
5,734167	0,1	0,008224
5,735833	0,1	0,015819
5,737500	0,1	-0,011796
5,739167	0,1	0,006029
5,740833	0,1	-0,008257
5,742500	0,1	0,019258
5,744167	0,1	-0,021128
5,745833	0,1	-0,001668
5,747500	0,1	0,000398
5,749167	0,1	0,023157
5,750833	0,1	-0,004198
5,752500	0,1	-0,000377
5,754167	0,1	-0,023227
5,755833	0,1	0,035318
5,757500	0,1	-0,029492
5,759167	0,1	0,023952
5,760833	0,1	-0,021805
5,762500	0,1	0,003065
5,764167	0,1	-0,011476
5,765833	0,1	-0,036328
5,767500	0,1	0,014681
5,769167	0,1	-0,011412
5,770833	0,1	-0,005686
5,772500	0,1	-0,042927
5,774167	0,1	0,006022
5,775833	0,1	0,017459
5,777500	0,1	-0,011152
5,779167	0,1	-0,019239
5,780833	0,1	-0,021685
5,782500	0,1	-0,029186
5,784167	0,1	-0,001155
5,785833	0,1	0,011405
5,787500	0,1	0,002108
5,789167	0,1	-0,039091
5,790833	0,1	-0,009331
5,792500	0,1	-0,020879
5,794167	0,1	-0,017406
5,795833	0,1	-0,038488
5,797500	0,1	0,047289
5,799167	0,1	0,018049
5,800833	0,1	-0,014048
5,802500	0,1	0,024892
5,804167	0,1	-0,021255
5,805833	0,1	-0,021301
5,807500	0,1	-0,005208
5,809167	0,1	0,009380
5,810833	0,1	-0,046397
5,812500	0,1	-0,023142
5,814167	0,1	-0,021654
5,815833	0,1	0,021701
5,817500	0,1	-0,034065
5,819167	0,1	0,026333
5,820833	0,1	-0,030526
5,822500	0,1	-0,042097
5,824167	0,1	-0,008912
5,825833	0,1	-0,020363
5,827500	0,1	-0,007363
5,829167	0,1	-0,021618
5,830833	0,1	0,005576
5,832500	0,1	0,043790
5,834167	0,1	-0,016715
5,835833	0,1	-0,004304
5,837500	0,1	-0,009162
5,839167	0,1	-0,001858
5,840833	0,1	-0,022164
5,842500	0,1	-0,009359
5,844167	0,1	-0,014732
5,845833	0,1	0,007703
5,847500	0,1	0,000948
5,849167	0,1	-0,036841
5,850833	0,1	-0,007429
5,852500	0,1	-0,051683
5,854167	0,1	-0,039684
5,855833	0,1	-0,001737
5,857500	0,1	0,026568
5,859167	0,1	-0,012598
5,860833	0,1	-0,008777
5,862500	0,1	-0,012187
5,864167	0,1	-0,020364
5,865833	0,1	-0,075496
5,867500	0,1	-0,002870
5,869167	0,1	-0,003144
5,870833	0,1	-0,024323
5,872500	0,1	0,027271
5,874167	0,1	0,004623
5,875833	0,1	0,000560
5,877500	0,1	0,001398
5,879167	0,1	0,013789
5,880833	0,1	0,036228
5,882500	0,1	-0,042273
5,884167	0,1	0,001999
5,885833	0,1	0,006321
5,887500	0,1	-0,007068
5,889167	0,1	-0,008038
5,890833	0,1	-0,002726
5,892500	0,1	-0,020169
5,894167	0,1	-0,014220
5,895833	0,1	-0,042797
5,897500	0,1	0,000067
5,899167	0,1	-0,031044
5,900833	0,1	-0,023330
5,902500	0,1	-0,030313
5,904167	0,1	-0,043025
5,905833	0,1	-0,008237
5,907500	0,1	-0,003017
5,909167	0,1	-0,015404
5,910833	0,1	0,000235
5,912500	0,1	0,000461
5,914167	0,1	-0,016982
5,915833	0,1	-0,050554
5,917500	0,1	-0,021532
5,919167	0,1	0,017679
5,920833	0,1	-0,007031
5,922500	0,1	-0,044439
5,924167	0,1	-0,026485
5,925833	0,1	-0,020015
5,927500	0,1	0,003196
5,929167	0,1	-0,008872
5,930833	0,1	-0,012737
5,932500	0,1	-0,066581
5,934167	0,1	-0,017094
5,935833	0,1	-0,023647
5,937500	0,1	0,013495
5,939167	0,1	-0,032008
5,940833	0,1	-0,012644
5,942500	0,1	0,006576
5,944167	0,1	-0,023613
5,945833	0,1	-0,014285
5,947500	0,1	-0,041026
5,949167	0,1	-0,045219
5,950833	0,1	0,000388
5,952500	0,1	-0,034685
5,954167	0,1	-0,039907
5,955833	0,1	-0,013677
5,957500	0,1	-0,017113
5,959167	0,1	-0,018177
5,960833	0,1	-0,000893
5,962500	0,1	-0,021905
5,964167	0,1	0,009634
5,965833	0,1	-0,016659
5,967500	0,1	0,019901
5,969167	0,1	-0,009124
5,970833	0,1	-0,036747
5,972500	0,1	-0,072607
5,974167	0,1	-0,014521
5,975833	0,1	-0,013155
5,977500	0,1	-0,022394
5,979167	0,1	-0,045182
5,980833	0,1	-0,058157
5,982500	0,1	-0,013393
5,984167	0,1	-0,037132
5,985833	0,1	-0,049435
5,987500	0,1	-0,043385
5,989167	0,1	-0,037203
5,990833	0,1	-0,035146
5,992500	0,1	-0,028452
5,994167	0,1	0,000103
5,995833	0,1	-0,050777
5,997500	0,1	-0,023819
5,999167	0,1	-0,016830
6,000833	0,1	-0,033626
