File Path	chrom://chromeleon01/ikbm_chromeleon/2022/Rezex/Esteban/220612_chitin_4_7.seq/919.smp/UV_VIS_1.channel/UV_VIS_1.chm
Channel	UV_VIS_1

Injection Information:
Data Vault	ikbm_chromeleon
Injection	Blank
Injection Number	125
Position	RA1
Comment	
Processing Method	New ProcMethod
Instrument Method	Short_Rezex_6min_194nm
Type	Blank
Status	Finished
Injection Date	13.06.2022
Injection Time	06:36:24
Injection Volume (µl)	8,000
Dilution Factor	1,0000
Weight	1,0000

Chromatogram Data Information:
Time Min. (min)	0,000833
Time Max. (min)	6,000833
Data Points	3601
Detector	UV
Generating Data System	Chromeleon 7.2.9.11323
Exporting Data System	Chromeleon 7.2.9.0
Operator	Instrument Controller
Signal Quantity	Absorbance
Signal Unit	mAU
Signal Min.	-0,109950
Signal Max.	0,606294
Channel	UV_VIS_1
Driver Name	VWD3000.dll
Channel Type	Evaluation
Min. Step (s)	0,1
Max. Step (s)	0,1
Average Step (s)	0,1

Signal Parameter Information:
Signal Info	WVL:194 nm

Chromatogram Data:
Time (min)	Step (s)	Value (mAU)
0,000833	n.a.	-0,038545
0,002500	0,1	-0,015463
0,004167	0,1	-0,049386
0,005833	0,1	-0,058874
0,007500	0,1	-0,034992
0,009167	0,1	-0,033535
0,010833	0,1	-0,021712
0,012500	0,1	-0,035684
0,014167	0,1	-0,035398
0,015833	0,1	-0,054213
0,017500	0,1	-0,031155
0,019167	0,1	0,003194
0,020833	0,1	-0,038243
0,022500	0,1	-0,049434
0,024167	0,1	-0,056559
0,025833	0,1	-0,036044
0,027500	0,1	-0,026711
0,029167	0,1	-0,033293
0,030833	0,1	-0,036800
0,032500	0,1	-0,059821
0,034167	0,1	-0,028239
0,035833	0,1	-0,031550
0,037500	0,1	-0,036729
0,039167	0,1	-0,060343
0,040833	0,1	-0,016410
0,042500	0,1	-0,030864
0,044167	0,1	-0,008949
0,045833	0,1	-0,036142
0,047500	0,1	-0,071889
0,049167	0,1	-0,049460
0,050833	0,1	-0,046368
0,052500	0,1	-0,040949
0,054167	0,1	-0,012978
0,055833	0,1	-0,035051
0,057500	0,1	-0,000122
0,059167	0,1	-0,023628
0,060833	0,1	-0,097871
0,062500	0,1	-0,049226
0,064167	0,1	-0,033598
0,065833	0,1	-0,022103
0,067500	0,1	-0,051773
0,069167	0,1	-0,030502
0,070833	0,1	-0,022934
0,072500	0,1	-0,032839
0,074167	0,1	-0,010051
0,075833	0,1	-0,032145
0,077500	0,1	-0,057615
0,079167	0,1	-0,040762
0,080833	0,1	-0,040187
0,082500	0,1	-0,045658
0,084167	0,1	-0,024621
0,085833	0,1	-0,005329
0,087500	0,1	-0,019891
0,089167	0,1	-0,037036
0,090833	0,1	-0,040707
0,092500	0,1	-0,025962
0,094167	0,1	-0,046936
0,095833	0,1	-0,047812
0,097500	0,1	-0,075157
0,099167	0,1	-0,011003
0,100833	0,1	-0,059516
0,102500	0,1	-0,043045
0,104167	0,1	-0,034058
0,105833	0,1	-0,027723
0,107500	0,1	-0,064307
0,109167	0,1	-0,024464
0,110833	0,1	-0,033251
0,112500	0,1	-0,039654
0,114167	0,1	-0,040997
0,115833	0,1	-0,014530
0,117500	0,1	-0,016098
0,119167	0,1	-0,056671
0,120833	0,1	-0,041864
0,122500	0,1	-0,043622
0,124167	0,1	-0,008591
0,125833	0,1	-0,015175
0,127500	0,1	-0,062029
0,129167	0,1	-0,024044
0,130833	0,1	-0,056381
0,132500	0,1	-0,035122
0,134167	0,1	-0,019669
0,135833	0,1	-0,018091
0,137500	0,1	-0,027247
0,139167	0,1	-0,037158
0,140833	0,1	-0,045065
0,142500	0,1	0,003931
0,144167	0,1	-0,078573
0,145833	0,1	-0,036279
0,147500	0,1	-0,053931
0,149167	0,1	-0,063380
0,150833	0,1	-0,041253
0,152500	0,1	-0,022345
0,154167	0,1	-0,035403
0,155833	0,1	-0,055735
0,157500	0,1	-0,037225
0,159167	0,1	-0,021301
0,160833	0,1	-0,041413
0,162500	0,1	-0,053017
0,164167	0,1	-0,036171
0,165833	0,1	-0,027183
0,167500	0,1	-0,049149
0,169167	0,1	-0,024270
0,170833	0,1	-0,071767
0,172500	0,1	-0,039603
0,174167	0,1	-0,011504
0,175833	0,1	-0,069020
0,177500	0,1	-0,027551
0,179167	0,1	-0,045253
0,180833	0,1	-0,053317
0,182500	0,1	-0,027547
0,184167	0,1	-0,052714
0,185833	0,1	-0,065303
0,187500	0,1	-0,075556
0,189167	0,1	-0,011764
0,190833	0,1	-0,035982
0,192500	0,1	-0,070079
0,194167	0,1	-0,038902
0,195833	0,1	-0,033194
0,197500	0,1	-0,067341
0,199167	0,1	-0,007735
0,200833	0,1	-0,051659
0,202500	0,1	-0,026205
0,204167	0,1	-0,057134
0,205833	0,1	-0,018982
0,207500	0,1	-0,082016
0,209167	0,1	-0,070850
0,210833	0,1	-0,052657
0,212500	0,1	-0,017510
0,214167	0,1	-0,079458
0,215833	0,1	-0,005042
0,217500	0,1	-0,032264
0,219167	0,1	-0,032372
0,220833	0,1	-0,053716
0,222500	0,1	-0,016997
0,224167	0,1	-0,049566
0,225833	0,1	-0,062858
0,227500	0,1	-0,023163
0,229167	0,1	-0,053696
0,230833	0,1	-0,065645
0,232500	0,1	-0,046724
0,234167	0,1	-0,029349
0,235833	0,1	-0,067639
0,237500	0,1	-0,043149
0,239167	0,1	-0,041470
0,240833	0,1	-0,035228
0,242500	0,1	-0,037228
0,244167	0,1	-0,053400
0,245833	0,1	-0,019734
0,247500	0,1	-0,040993
0,249167	0,1	-0,071242
0,250833	0,1	-0,028542
0,252500	0,1	-0,042756
0,254167	0,1	-0,029056
0,255833	0,1	-0,016350
0,257500	0,1	-0,025724
0,259167	0,1	-0,034072
0,260833	0,1	-0,017735
0,262500	0,1	-0,052472
0,264167	0,1	-0,037675
0,265833	0,1	-0,028185
0,267500	0,1	-0,052887
0,269167	0,1	-0,035882
0,270833	0,1	-0,082379
0,272500	0,1	-0,061703
0,274167	0,1	-0,042806
0,275833	0,1	-0,002769
0,277500	0,1	-0,056667
0,279167	0,1	0,012896
0,280833	0,1	-0,009519
0,282500	0,1	-0,051907
0,284167	0,1	-0,042181
0,285833	0,1	-0,015472
0,287500	0,1	-0,040932
0,289167	0,1	-0,032374
0,290833	0,1	-0,096770
0,292500	0,1	-0,034490
0,294167	0,1	-0,068454
0,295833	0,1	-0,055059
0,297500	0,1	-0,024762
0,299167	0,1	-0,016930
0,300833	0,1	-0,011679
0,302500	0,1	-0,043625
0,304167	0,1	-0,039025
0,305833	0,1	-0,040127
0,307500	0,1	-0,053428
0,309167	0,1	-0,055524
0,310833	0,1	-0,042294
0,312500	0,1	-0,036810
0,314167	0,1	-0,017525
0,315833	0,1	-0,072937
0,317500	0,1	-0,047255
0,319167	0,1	-0,069789
0,320833	0,1	-0,060460
0,322500	0,1	-0,040781
0,324167	0,1	-0,041357
0,325833	0,1	-0,059882
0,327500	0,1	-0,009946
0,329167	0,1	-0,026356
0,330833	0,1	-0,022873
0,332500	0,1	-0,019947
0,334167	0,1	-0,050729
0,335833	0,1	-0,019212
0,337500	0,1	-0,041352
0,339167	0,1	-0,013279
0,340833	0,1	-0,050498
0,342500	0,1	-0,071142
0,344167	0,1	-0,031039
0,345833	0,1	-0,021079
0,347500	0,1	-0,055330
0,349167	0,1	-0,029753
0,350833	0,1	-0,031858
0,352500	0,1	-0,042989
0,354167	0,1	-0,036109
0,355833	0,1	-0,025849
0,357500	0,1	-0,034181
0,359167	0,1	-0,021131
0,360833	0,1	-0,076426
0,362500	0,1	-0,065711
0,364167	0,1	-0,030224
0,365833	0,1	-0,007374
0,367500	0,1	-0,029929
0,369167	0,1	-0,058083
0,370833	0,1	-0,017631
0,372500	0,1	-0,036103
0,374167	0,1	-0,037622
0,375833	0,1	-0,076198
0,377500	0,1	-0,059190
0,379167	0,1	-0,054166
0,380833	0,1	-0,013723
0,382500	0,1	-0,045651
0,384167	0,1	-0,062677
0,385833	0,1	-0,020205
0,387500	0,1	0,000551
0,389167	0,1	-0,030560
0,390833	0,1	-0,074333
0,392500	0,1	0,002642
0,394167	0,1	-0,053929
0,395833	0,1	-0,061868
0,397500	0,1	-0,044388
0,399167	0,1	-0,042573
0,400833	0,1	-0,001146
0,402500	0,1	-0,055272
0,404167	0,1	-0,023761
0,405833	0,1	-0,050269
0,407500	0,1	-0,000097
0,409167	0,1	-0,004863
0,410833	0,1	-0,043092
0,412500	0,1	-0,013508
0,414167	0,1	-0,047994
0,415833	0,1	-0,050327
0,417500	0,1	-0,033940
0,419167	0,1	-0,046177
0,420833	0,1	0,001478
0,422500	0,1	-0,041279
0,424167	0,1	-0,029809
0,425833	0,1	-0,043218
0,427500	0,1	-0,025742
0,429167	0,1	-0,048398
0,430833	0,1	-0,030520
0,432500	0,1	-0,033833
0,434167	0,1	-0,042468
0,435833	0,1	-0,055634
0,437500	0,1	-0,033787
0,439167	0,1	-0,077599
0,440833	0,1	-0,089201
0,442500	0,1	-0,037353
0,444167	0,1	-0,071584
0,445833	0,1	-0,031620
0,447500	0,1	-0,034415
0,449167	0,1	-0,027543
0,450833	0,1	-0,065426
0,452500	0,1	-0,076145
0,454167	0,1	-0,033143
0,455833	0,1	-0,021652
0,457500	0,1	-0,049038
0,459167	0,1	-0,033778
0,460833	0,1	-0,016592
0,462500	0,1	-0,019433
0,464167	0,1	-0,050909
0,465833	0,1	-0,037153
0,467500	0,1	-0,018047
0,469167	0,1	-0,063561
0,470833	0,1	-0,049278
0,472500	0,1	-0,005627
0,474167	0,1	-0,008010
0,475833	0,1	-0,050455
0,477500	0,1	-0,098915
0,479167	0,1	-0,061006
0,480833	0,1	-0,005349
0,482500	0,1	-0,047530
0,484167	0,1	-0,045086
0,485833	0,1	-0,046667
0,487500	0,1	-0,055343
0,489167	0,1	-0,038669
0,490833	0,1	-0,000905
0,492500	0,1	-0,052760
0,494167	0,1	-0,059072
0,495833	0,1	-0,051440
0,497500	0,1	-0,051208
0,499167	0,1	-0,040359
0,500833	0,1	-0,015122
0,502500	0,1	-0,026766
0,504167	0,1	-0,052936
0,505833	0,1	-0,067406
0,507500	0,1	-0,043047
0,509167	0,1	-0,028546
0,510833	0,1	-0,056511
0,512500	0,1	-0,056064
0,514167	0,1	-0,067698
0,515833	0,1	-0,000683
0,517500	0,1	-0,058907
0,519167	0,1	-0,009305
0,520833	0,1	-0,035290
0,522500	0,1	-0,031398
0,524167	0,1	-0,023565
0,525833	0,1	-0,036104
0,527500	0,1	-0,055358
0,529167	0,1	-0,011459
0,530833	0,1	-0,021595
0,532500	0,1	-0,033209
0,534167	0,1	-0,051391
0,535833	0,1	-0,070843
0,537500	0,1	-0,048589
0,539167	0,1	-0,053071
0,540833	0,1	-0,069449
0,542500	0,1	-0,053076
0,544167	0,1	0,023325
0,545833	0,1	-0,013953
0,547500	0,1	-0,048343
0,549167	0,1	-0,049866
0,550833	0,1	-0,044625
0,552500	0,1	-0,045085
0,554167	0,1	-0,066583
0,555833	0,1	-0,089900
0,557500	0,1	-0,039738
0,559167	0,1	-0,053119
0,560833	0,1	-0,011928
0,562500	0,1	-0,071372
0,564167	0,1	-0,031920
0,565833	0,1	-0,029294
0,567500	0,1	-0,000914
0,569167	0,1	-0,015293
0,570833	0,1	-0,056508
0,572500	0,1	-0,063331
0,574167	0,1	-0,032559
0,575833	0,1	-0,058837
0,577500	0,1	0,008016
0,579167	0,1	-0,053706
0,580833	0,1	-0,016768
0,582500	0,1	-0,040249
0,584167	0,1	-0,048360
0,585833	0,1	-0,049668
0,587500	0,1	-0,016936
0,589167	0,1	-0,004987
0,590833	0,1	-0,076542
0,592500	0,1	-0,070095
0,594167	0,1	-0,024095
0,595833	0,1	-0,046774
0,597500	0,1	-0,048985
0,599167	0,1	-0,018570
0,600833	0,1	-0,021016
0,602500	0,1	-0,014665
0,604167	0,1	0,005633
0,605833	0,1	-0,068145
0,607500	0,1	0,014706
0,609167	0,1	-0,056311
0,610833	0,1	-0,050910
0,612500	0,1	-0,061396
0,614167	0,1	-0,048407
0,615833	0,1	-0,047531
0,617500	0,1	-0,030861
0,619167	0,1	0,002472
0,620833	0,1	-0,054162
0,622500	0,1	-0,065483
0,624167	0,1	-0,035653
0,625833	0,1	-0,037509
0,627500	0,1	-0,010393
0,629167	0,1	-0,047923
0,630833	0,1	-0,012969
0,632500	0,1	-0,023391
0,634167	0,1	-0,027128
0,635833	0,1	-0,065775
0,637500	0,1	-0,088803
0,639167	0,1	-0,017579
0,640833	0,1	-0,064953
0,642500	0,1	-0,022350
0,644167	0,1	0,017101
0,645833	0,1	-0,039360
0,647500	0,1	-0,038613
0,649167	0,1	-0,036408
0,650833	0,1	-0,052667
0,652500	0,1	-0,029880
0,654167	0,1	-0,027831
0,655833	0,1	-0,071007
0,657500	0,1	-0,000844
0,659167	0,1	-0,031262
0,660833	0,1	-0,002657
0,662500	0,1	-0,032023
0,664167	0,1	0,000428
0,665833	0,1	-0,034306
0,667500	0,1	-0,017514
0,669167	0,1	-0,024562
0,670833	0,1	-0,046355
0,672500	0,1	-0,065823
0,674167	0,1	-0,064615
0,675833	0,1	-0,024814
0,677500	0,1	-0,024575
0,679167	0,1	-0,066057
0,680833	0,1	-0,077035
0,682500	0,1	-0,051095
0,684167	0,1	-0,010296
0,685833	0,1	-0,018261
0,687500	0,1	-0,014184
0,689167	0,1	-0,039829
0,690833	0,1	-0,043914
0,692500	0,1	-0,021082
0,694167	0,1	-0,037456
0,695833	0,1	-0,027773
0,697500	0,1	-0,014899
0,699167	0,1	0,007605
0,700833	0,1	-0,026300
0,702500	0,1	-0,032550
0,704167	0,1	-0,052247
0,705833	0,1	-0,033317
0,707500	0,1	-0,035098
0,709167	0,1	-0,045716
0,710833	0,1	-0,052659
0,712500	0,1	-0,037675
0,714167	0,1	-0,017987
0,715833	0,1	-0,021417
0,717500	0,1	-0,071939
0,719167	0,1	-0,018456
0,720833	0,1	-0,029564
0,722500	0,1	-0,039371
0,724167	0,1	0,003583
0,725833	0,1	-0,021753
0,727500	0,1	-0,008886
0,729167	0,1	-0,059413
0,730833	0,1	-0,045670
0,732500	0,1	0,035281
0,734167	0,1	-0,008982
0,735833	0,1	-0,031504
0,737500	0,1	-0,029054
0,739167	0,1	-0,015840
0,740833	0,1	-0,017569
0,742500	0,1	-0,031367
0,744167	0,1	-0,084932
0,745833	0,1	-0,029408
0,747500	0,1	-0,045363
0,749167	0,1	-0,019500
0,750833	0,1	-0,060757
0,752500	0,1	-0,011870
0,754167	0,1	-0,018100
0,755833	0,1	-0,009126
0,757500	0,1	-0,005907
0,759167	0,1	-0,008130
0,760833	0,1	-0,001770
0,762500	0,1	-0,002530
0,764167	0,1	0,010465
0,765833	0,1	-0,011564
0,767500	0,1	-0,015176
0,769167	0,1	0,025438
0,770833	0,1	0,009178
0,772500	0,1	0,004185
0,774167	0,1	0,000508
0,775833	0,1	-0,025371
0,777500	0,1	-0,029052
0,779167	0,1	-0,069675
0,780833	0,1	0,030555
0,782500	0,1	-0,058702
0,784167	0,1	-0,004696
0,785833	0,1	-0,026073
0,787500	0,1	-0,013264
0,789167	0,1	-0,022998
0,790833	0,1	-0,007313
0,792500	0,1	-0,004103
0,794167	0,1	-0,069540
0,795833	0,1	-0,028943
0,797500	0,1	0,001242
0,799167	0,1	-0,010343
0,800833	0,1	-0,052171
0,802500	0,1	-0,039497
0,804167	0,1	-0,034758
0,805833	0,1	-0,031671
0,807500	0,1	-0,029747
0,809167	0,1	-0,006913
0,810833	0,1	0,004293
0,812500	0,1	0,016466
0,814167	0,1	-0,017622
0,815833	0,1	-0,027179
0,817500	0,1	-0,036097
0,819167	0,1	-0,032722
0,820833	0,1	-0,035345
0,822500	0,1	-0,035166
0,824167	0,1	-0,005564
0,825833	0,1	-0,014301
0,827500	0,1	-0,053395
0,829167	0,1	-0,003424
0,830833	0,1	-0,043451
0,832500	0,1	-0,003110
0,834167	0,1	0,006687
0,835833	0,1	-0,036457
0,837500	0,1	-0,008830
0,839167	0,1	0,002538
0,840833	0,1	-0,030440
0,842500	0,1	0,002123
0,844167	0,1	-0,007186
0,845833	0,1	-0,054685
0,847500	0,1	-0,026675
0,849167	0,1	-0,024095
0,850833	0,1	-0,033120
0,852500	0,1	-0,003228
0,854167	0,1	-0,001649
0,855833	0,1	-0,025440
0,857500	0,1	0,013373
0,859167	0,1	0,006501
0,860833	0,1	-0,027642
0,862500	0,1	-0,012495
0,864167	0,1	0,002588
0,865833	0,1	-0,037380
0,867500	0,1	-0,005985
0,869167	0,1	-0,032767
0,870833	0,1	-0,008477
0,872500	0,1	-0,014013
0,874167	0,1	-0,018491
0,875833	0,1	-0,026066
0,877500	0,1	-0,026420
0,879167	0,1	-0,002465
0,880833	0,1	0,000967
0,882500	0,1	0,024882
0,884167	0,1	-0,044128
0,885833	0,1	-0,018389
0,887500	0,1	0,014077
0,889167	0,1	-0,006783
0,890833	0,1	-0,006327
0,892500	0,1	-0,040228
0,894167	0,1	-0,021062
0,895833	0,1	0,011571
0,897500	0,1	-0,018275
0,899167	0,1	0,012044
0,900833	0,1	-0,006314
0,902500	0,1	0,044267
0,904167	0,1	0,021497
0,905833	0,1	-0,004737
0,907500	0,1	0,013270
0,909167	0,1	-0,007716
0,910833	0,1	-0,000848
0,912500	0,1	-0,010874
0,914167	0,1	-0,011849
0,915833	0,1	0,005583
0,917500	0,1	0,010295
0,919167	0,1	-0,034113
0,920833	0,1	-0,002939
0,922500	0,1	0,018349
0,924167	0,1	0,004238
0,925833	0,1	-0,028456
0,927500	0,1	0,019134
0,929167	0,1	-0,018022
0,930833	0,1	-0,039410
0,932500	0,1	-0,004291
0,934167	0,1	0,005344
0,935833	0,1	-0,003339
0,937500	0,1	-0,029467
0,939167	0,1	-0,002926
0,940833	0,1	0,000395
0,942500	0,1	-0,033747
0,944167	0,1	0,001890
0,945833	0,1	-0,000546
0,947500	0,1	0,003942
0,949167	0,1	0,037638
0,950833	0,1	0,000216
0,952500	0,1	-0,020122
0,954167	0,1	-0,002122
0,955833	0,1	-0,040939
0,957500	0,1	0,009983
0,959167	0,1	0,030805
0,960833	0,1	-0,006899
0,962500	0,1	0,044737
0,964167	0,1	-0,032582
0,965833	0,1	0,010638
0,967500	0,1	-0,001193
0,969167	0,1	0,002539
0,970833	0,1	-0,028235
0,972500	0,1	0,010278
0,974167	0,1	0,001440
0,975833	0,1	0,005045
0,977500	0,1	0,018862
0,979167	0,1	0,016301
0,980833	0,1	-0,012965
0,982500	0,1	-0,020886
0,984167	0,1	-0,009227
0,985833	0,1	0,005053
0,987500	0,1	-0,013128
0,989167	0,1	-0,012139
0,990833	0,1	0,006034
0,992500	0,1	-0,031489
0,994167	0,1	-0,024678
0,995833	0,1	0,031388
0,997500	0,1	0,006394
0,999167	0,1	-0,002749
1,000833	0,1	-0,020131
1,002500	0,1	-0,008193
1,004167	0,1	-0,006047
1,005833	0,1	0,013679
1,007500	0,1	-0,021990
1,009167	0,1	-0,022940
1,010833	0,1	0,012263
1,012500	0,1	-0,011263
1,014167	0,1	-0,004865
1,015833	0,1	-0,016284
1,017500	0,1	-0,017561
1,019167	0,1	-0,010858
1,020833	0,1	0,008368
1,022500	0,1	-0,011144
1,024167	0,1	0,010703
1,025833	0,1	-0,002527
1,027500	0,1	0,022127
1,029167	0,1	-0,011561
1,030833	0,1	-0,023560
1,032500	0,1	0,018163
1,034167	0,1	-0,000822
1,035833	0,1	0,005285
1,037500	0,1	-0,032884
1,039167	0,1	0,026608
1,040833	0,1	0,003940
1,042500	0,1	0,014675
1,044167	0,1	0,002494
1,045833	0,1	-0,001656
1,047500	0,1	0,016537
1,049167	0,1	-0,028401
1,050833	0,1	-0,007305
1,052500	0,1	-0,044135
1,054167	0,1	-0,005935
1,055833	0,1	0,003431
1,057500	0,1	0,008492
1,059167	0,1	-0,009008
1,060833	0,1	-0,022937
1,062500	0,1	-0,013244
1,064167	0,1	0,024569
1,065833	0,1	0,012795
1,067500	0,1	-0,004390
1,069167	0,1	-0,001197
1,070833	0,1	0,015243
1,072500	0,1	0,043631
1,074167	0,1	-0,015331
1,075833	0,1	-0,016920
1,077500	0,1	0,018204
1,079167	0,1	-0,008525
1,080833	0,1	-0,036812
1,082500	0,1	-0,015763
1,084167	0,1	0,000733
1,085833	0,1	0,006267
1,087500	0,1	-0,042039
1,089167	0,1	0,005166
1,090833	0,1	-0,006896
1,092500	0,1	0,012376
1,094167	0,1	0,031447
1,095833	0,1	-0,008533
1,097500	0,1	-0,036393
1,099167	0,1	0,016869
1,100833	0,1	-0,010228
1,102500	0,1	-0,021014
1,104167	0,1	0,041600
1,105833	0,1	-0,003922
1,107500	0,1	0,011046
1,109167	0,1	0,011350
1,110833	0,1	0,029111
1,112500	0,1	-0,009564
1,114167	0,1	0,033546
1,115833	0,1	-0,017498
1,117500	0,1	0,022945
1,119167	0,1	0,019978
1,120833	0,1	-0,004969
1,122500	0,1	0,010874
1,124167	0,1	0,004706
1,125833	0,1	0,020073
1,127500	0,1	0,015609
1,129167	0,1	-0,021059
1,130833	0,1	0,010009
1,132500	0,1	-0,053688
1,134167	0,1	0,042221
1,135833	0,1	-0,000135
1,137500	0,1	0,034759
1,139167	0,1	-0,048433
1,140833	0,1	-0,025031
1,142500	0,1	0,014827
1,144167	0,1	-0,011271
1,145833	0,1	-0,000028
1,147500	0,1	-0,009351
1,149167	0,1	0,003158
1,150833	0,1	-0,014880
1,152500	0,1	-0,025443
1,154167	0,1	-0,006443
1,155833	0,1	0,021834
1,157500	0,1	0,008135
1,159167	0,1	0,009125
1,160833	0,1	0,051915
1,162500	0,1	-0,006714
1,164167	0,1	-0,022527
1,165833	0,1	0,020560
1,167500	0,1	0,016542
1,169167	0,1	-0,002125
1,170833	0,1	0,018448
1,172500	0,1	-0,022000
1,174167	0,1	0,025208
1,175833	0,1	-0,004227
1,177500	0,1	0,018899
1,179167	0,1	-0,006031
1,180833	0,1	0,036281
1,182500	0,1	-0,003282
1,184167	0,1	0,015122
1,185833	0,1	-0,005320
1,187500	0,1	-0,005436
1,189167	0,1	0,031043
1,190833	0,1	0,029417
1,192500	0,1	0,000735
1,194167	0,1	0,006378
1,195833	0,1	-0,015351
1,197500	0,1	-0,010577
1,199167	0,1	0,020141
1,200833	0,1	0,021891
1,202500	0,1	0,031218
1,204167	0,1	0,015672
1,205833	0,1	-0,056892
1,207500	0,1	-0,023069
1,209167	0,1	-0,005100
1,210833	0,1	0,003652
1,212500	0,1	0,018028
1,214167	0,1	0,010118
1,215833	0,1	0,014023
1,217500	0,1	0,018003
1,219167	0,1	-0,009106
1,220833	0,1	0,000265
1,222500	0,1	0,019283
1,224167	0,1	0,018405
1,225833	0,1	0,008615
1,227500	0,1	0,004065
1,229167	0,1	-0,021231
1,230833	0,1	0,030227
1,232500	0,1	0,057910
1,234167	0,1	0,021500
1,235833	0,1	0,020669
1,237500	0,1	0,022482
1,239167	0,1	-0,014826
1,240833	0,1	0,022545
1,242500	0,1	0,035027
1,244167	0,1	0,010073
1,245833	0,1	0,045382
1,247500	0,1	0,011828
1,249167	0,1	0,052618
1,250833	0,1	0,003786
1,252500	0,1	0,023519
1,254167	0,1	0,004249
1,255833	0,1	0,007381
1,257500	0,1	0,009365
1,259167	0,1	0,005046
1,260833	0,1	0,053949
1,262500	0,1	-0,003968
1,264167	0,1	0,002479
1,265833	0,1	0,007281
1,267500	0,1	0,017921
1,269167	0,1	0,015599
1,270833	0,1	0,019566
1,272500	0,1	-0,021700
1,274167	0,1	0,036979
1,275833	0,1	0,001558
1,277500	0,1	0,028889
1,279167	0,1	-0,004206
1,280833	0,1	0,023409
1,282500	0,1	0,028425
1,284167	0,1	-0,001189
1,285833	0,1	0,060118
1,287500	0,1	0,044753
1,289167	0,1	0,045803
1,290833	0,1	0,009062
1,292500	0,1	0,036986
1,294167	0,1	0,050690
1,295833	0,1	0,012281
1,297500	0,1	-0,017383
1,299167	0,1	0,045195
1,300833	0,1	-0,005313
1,302500	0,1	0,015723
1,304167	0,1	0,012974
1,305833	0,1	0,014445
1,307500	0,1	0,013214
1,309167	0,1	0,047538
1,310833	0,1	0,076692
1,312500	0,1	0,020623
1,314167	0,1	0,020438
1,315833	0,1	0,041938
1,317500	0,1	0,012399
1,319167	0,1	0,014195
1,320833	0,1	0,037800
1,322500	0,1	0,053604
1,324167	0,1	0,005589
1,325833	0,1	-0,005783
1,327500	0,1	0,056172
1,329167	0,1	0,059091
1,330833	0,1	0,038741
1,332500	0,1	0,039510
1,334167	0,1	0,013570
1,335833	0,1	0,019834
1,337500	0,1	0,021491
1,339167	0,1	0,049172
1,340833	0,1	0,041786
1,342500	0,1	0,034501
1,344167	0,1	0,034729
1,345833	0,1	0,006916
1,347500	0,1	0,054118
1,349167	0,1	0,060554
1,350833	0,1	0,023545
1,352500	0,1	0,031231
1,354167	0,1	0,017005
1,355833	0,1	0,039105
1,357500	0,1	0,077174
1,359167	0,1	0,049027
1,360833	0,1	0,006690
1,362500	0,1	0,033039
1,364167	0,1	0,076181
1,365833	0,1	0,033977
1,367500	0,1	0,068063
1,369167	0,1	0,056650
1,370833	0,1	0,038981
1,372500	0,1	0,059376
1,374167	0,1	0,031700
1,375833	0,1	0,015904
1,377500	0,1	0,025045
1,379167	0,1	0,046560
1,380833	0,1	0,036245
1,382500	0,1	0,040490
1,384167	0,1	0,041615
1,385833	0,1	0,034769
1,387500	0,1	0,044506
1,389167	0,1	0,057272
1,390833	0,1	0,070113
1,392500	0,1	0,059856
1,394167	0,1	0,027512
1,395833	0,1	0,063052
1,397500	0,1	0,046969
1,399167	0,1	0,012882
1,400833	0,1	0,023934
1,402500	0,1	0,015721
1,404167	0,1	0,029727
1,405833	0,1	0,043574
1,407500	0,1	0,047736
1,409167	0,1	0,066952
1,410833	0,1	0,070515
1,412500	0,1	0,103161
1,414167	0,1	0,071528
1,415833	0,1	0,060387
1,417500	0,1	0,081016
1,419167	0,1	0,046523
1,420833	0,1	0,028490
1,422500	0,1	0,037403
1,424167	0,1	0,057391
1,425833	0,1	0,027801
1,427500	0,1	0,035428
1,429167	0,1	0,090629
1,430833	0,1	0,063115
1,432500	0,1	0,048843
1,434167	0,1	0,053620
1,435833	0,1	0,076573
1,437500	0,1	0,081648
1,439167	0,1	0,040803
1,440833	0,1	0,066081
1,442500	0,1	0,062310
1,444167	0,1	0,083461
1,445833	0,1	0,062002
1,447500	0,1	0,059153
1,449167	0,1	0,063460
1,450833	0,1	0,072727
1,452500	0,1	0,069644
1,454167	0,1	0,032052
1,455833	0,1	0,072659
1,457500	0,1	0,054556
1,459167	0,1	0,083869
1,460833	0,1	0,031715
1,462500	0,1	0,049537
1,464167	0,1	0,059560
1,465833	0,1	0,077215
1,467500	0,1	0,075430
1,469167	0,1	0,057061
1,470833	0,1	0,052520
1,472500	0,1	0,077214
1,474167	0,1	0,051582
1,475833	0,1	0,091902
1,477500	0,1	0,102646
1,479167	0,1	0,107548
1,480833	0,1	0,089411
1,482500	0,1	0,085039
1,484167	0,1	0,086951
1,485833	0,1	0,057295
1,487500	0,1	0,099382
1,489167	0,1	0,073377
1,490833	0,1	0,065628
1,492500	0,1	0,075934
1,494167	0,1	0,084152
1,495833	0,1	0,049489
1,497500	0,1	0,068417
1,499167	0,1	0,062481
1,500833	0,1	0,076974
1,502500	0,1	0,093084
1,504167	0,1	0,100263
1,505833	0,1	0,063470
1,507500	0,1	0,104745
1,509167	0,1	0,069302
1,510833	0,1	0,131244
1,512500	0,1	0,083004
1,514167	0,1	0,076532
1,515833	0,1	0,103466
1,517500	0,1	0,105963
1,519167	0,1	0,094965
1,520833	0,1	0,096658
1,522500	0,1	0,104511
1,524167	0,1	0,085516
1,525833	0,1	0,078927
1,527500	0,1	0,084335
1,529167	0,1	0,057415
1,530833	0,1	0,130458
1,532500	0,1	0,090082
1,534167	0,1	0,077599
1,535833	0,1	0,093786
1,537500	0,1	0,093316
1,539167	0,1	0,102864
1,540833	0,1	0,108250
1,542500	0,1	0,121795
1,544167	0,1	0,109840
1,545833	0,1	0,150980
1,547500	0,1	0,113563
1,549167	0,1	0,128932
1,550833	0,1	0,091123
1,552500	0,1	0,102707
1,554167	0,1	0,063601
1,555833	0,1	0,141883
1,557500	0,1	0,112810
1,559167	0,1	0,096431
1,560833	0,1	0,111516
1,562500	0,1	0,099976
1,564167	0,1	0,104113
1,565833	0,1	0,115184
1,567500	0,1	0,087671
1,569167	0,1	0,087399
1,570833	0,1	0,122295
1,572500	0,1	0,127833
1,574167	0,1	0,129394
1,575833	0,1	0,112119
1,577500	0,1	0,127311
1,579167	0,1	0,111766
1,580833	0,1	0,106620
1,582500	0,1	0,103533
1,584167	0,1	0,092339
1,585833	0,1	0,069733
1,587500	0,1	0,102545
1,589167	0,1	0,115946
1,590833	0,1	0,157410
1,592500	0,1	0,162934
1,594167	0,1	0,115683
1,595833	0,1	0,098573
1,597500	0,1	0,127599
1,599167	0,1	0,125743
1,600833	0,1	0,140095
1,602500	0,1	0,125442
1,604167	0,1	0,118107
1,605833	0,1	0,080000
1,607500	0,1	0,100029
1,609167	0,1	0,121429
1,610833	0,1	0,130751
1,612500	0,1	0,122935
1,614167	0,1	0,075622
1,615833	0,1	0,135423
1,617500	0,1	0,124595
1,619167	0,1	0,162650
1,620833	0,1	0,125656
1,622500	0,1	0,143105
1,624167	0,1	0,140194
1,625833	0,1	0,150239
1,627500	0,1	0,124694
1,629167	0,1	0,124061
1,630833	0,1	0,116775
1,632500	0,1	0,132989
1,634167	0,1	0,153274
1,635833	0,1	0,136603
1,637500	0,1	0,106868
1,639167	0,1	0,204278
1,640833	0,1	0,150969
1,642500	0,1	0,156656
1,644167	0,1	0,136193
1,645833	0,1	0,145566
1,647500	0,1	0,138525
1,649167	0,1	0,149582
1,650833	0,1	0,141490
1,652500	0,1	0,144008
1,654167	0,1	0,183074
1,655833	0,1	0,136732
1,657500	0,1	0,135669
1,659167	0,1	0,153248
1,660833	0,1	0,153981
1,662500	0,1	0,163347
1,664167	0,1	0,161729
1,665833	0,1	0,128680
1,667500	0,1	0,126335
1,669167	0,1	0,150512
1,670833	0,1	0,179686
1,672500	0,1	0,129205
1,674167	0,1	0,129265
1,675833	0,1	0,182002
1,677500	0,1	0,166297
1,679167	0,1	0,122037
1,680833	0,1	0,167687
1,682500	0,1	0,170877
1,684167	0,1	0,135507
1,685833	0,1	0,115145
1,687500	0,1	0,153331
1,689167	0,1	0,152516
1,690833	0,1	0,159389
1,692500	0,1	0,161680
1,694167	0,1	0,152734
1,695833	0,1	0,164183
1,697500	0,1	0,169211
1,699167	0,1	0,196948
1,700833	0,1	0,134447
1,702500	0,1	0,137119
1,704167	0,1	0,190770
1,705833	0,1	0,202588
1,707500	0,1	0,163343
1,709167	0,1	0,152047
1,710833	0,1	0,122421
1,712500	0,1	0,181908
1,714167	0,1	0,172009
1,715833	0,1	0,166586
1,717500	0,1	0,177932
1,719167	0,1	0,193878
1,720833	0,1	0,207676
1,722500	0,1	0,198882
1,724167	0,1	0,158315
1,725833	0,1	0,192516
1,727500	0,1	0,210485
1,729167	0,1	0,191993
1,730833	0,1	0,154815
1,732500	0,1	0,213439
1,734167	0,1	0,204015
1,735833	0,1	0,178140
1,737500	0,1	0,187665
1,739167	0,1	0,205366
1,740833	0,1	0,185411
1,742500	0,1	0,185528
1,744167	0,1	0,204541
1,745833	0,1	0,223057
1,747500	0,1	0,182634
1,749167	0,1	0,228780
1,750833	0,1	0,182331
1,752500	0,1	0,197545
1,754167	0,1	0,260157
1,755833	0,1	0,170273
1,757500	0,1	0,232413
1,759167	0,1	0,223369
1,760833	0,1	0,198061
1,762500	0,1	0,204544
1,764167	0,1	0,154407
1,765833	0,1	0,263247
1,767500	0,1	0,187118
1,769167	0,1	0,219357
1,770833	0,1	0,216859
1,772500	0,1	0,208305
1,774167	0,1	0,235277
1,775833	0,1	0,216055
1,777500	0,1	0,182572
1,779167	0,1	0,211827
1,780833	0,1	0,232636
1,782500	0,1	0,223691
1,784167	0,1	0,270778
1,785833	0,1	0,225503
1,787500	0,1	0,222390
1,789167	0,1	0,203834
1,790833	0,1	0,214748
1,792500	0,1	0,228466
1,794167	0,1	0,216206
1,795833	0,1	0,211085
1,797500	0,1	0,226694
1,799167	0,1	0,255198
1,800833	0,1	0,275399
1,802500	0,1	0,206962
1,804167	0,1	0,251009
1,805833	0,1	0,247156
1,807500	0,1	0,238188
1,809167	0,1	0,173873
1,810833	0,1	0,260486
1,812500	0,1	0,241338
1,814167	0,1	0,239043
1,815833	0,1	0,240402
1,817500	0,1	0,233299
1,819167	0,1	0,252849
1,820833	0,1	0,234052
1,822500	0,1	0,214588
1,824167	0,1	0,252495
1,825833	0,1	0,227223
1,827500	0,1	0,262774
1,829167	0,1	0,252016
1,830833	0,1	0,240405
1,832500	0,1	0,228931
1,834167	0,1	0,234626
1,835833	0,1	0,224042
1,837500	0,1	0,246997
1,839167	0,1	0,257909
1,840833	0,1	0,241888
1,842500	0,1	0,226090
1,844167	0,1	0,296275
1,845833	0,1	0,274082
1,847500	0,1	0,266255
1,849167	0,1	0,248334
1,850833	0,1	0,252748
1,852500	0,1	0,276497
1,854167	0,1	0,231383
1,855833	0,1	0,235055
1,857500	0,1	0,268672
1,859167	0,1	0,239890
1,860833	0,1	0,245321
1,862500	0,1	0,269640
1,864167	0,1	0,263062
1,865833	0,1	0,267107
1,867500	0,1	0,263731
1,869167	0,1	0,250748
1,870833	0,1	0,299382
1,872500	0,1	0,287326
1,874167	0,1	0,258575
1,875833	0,1	0,242637
1,877500	0,1	0,261895
1,879167	0,1	0,271796
1,880833	0,1	0,275756
1,882500	0,1	0,251302
1,884167	0,1	0,239673
1,885833	0,1	0,260199
1,887500	0,1	0,283117
1,889167	0,1	0,282570
1,890833	0,1	0,289538
1,892500	0,1	0,304385
1,894167	0,1	0,266217
1,895833	0,1	0,301126
1,897500	0,1	0,297592
1,899167	0,1	0,316121
1,900833	0,1	0,300312
1,902500	0,1	0,289085
1,904167	0,1	0,263145
1,905833	0,1	0,314845
1,907500	0,1	0,259972
1,909167	0,1	0,280489
1,910833	0,1	0,291137
1,912500	0,1	0,298857
1,914167	0,1	0,311937
1,915833	0,1	0,287252
1,917500	0,1	0,281076
1,919167	0,1	0,324536
1,920833	0,1	0,271768
1,922500	0,1	0,284676
1,924167	0,1	0,289705
1,925833	0,1	0,317752
1,927500	0,1	0,309418
1,929167	0,1	0,287648
1,930833	0,1	0,278236
1,932500	0,1	0,299714
1,934167	0,1	0,310697
1,935833	0,1	0,322022
1,937500	0,1	0,271126
1,939167	0,1	0,301480
1,940833	0,1	0,267622
1,942500	0,1	0,303220
1,944167	0,1	0,324006
1,945833	0,1	0,291992
1,947500	0,1	0,314729
1,949167	0,1	0,312748
1,950833	0,1	0,313927
1,952500	0,1	0,297780
1,954167	0,1	0,300861
1,955833	0,1	0,319057
1,957500	0,1	0,323596
1,959167	0,1	0,278245
1,960833	0,1	0,325864
1,962500	0,1	0,306976
1,964167	0,1	0,288138
1,965833	0,1	0,346108
1,967500	0,1	0,295555
1,969167	0,1	0,298567
1,970833	0,1	0,327256
1,972500	0,1	0,313727
1,974167	0,1	0,298298
1,975833	0,1	0,333215
1,977500	0,1	0,347217
1,979167	0,1	0,317846
1,980833	0,1	0,364435
1,982500	0,1	0,343147
1,984167	0,1	0,330889
1,985833	0,1	0,319557
1,987500	0,1	0,300973
1,989167	0,1	0,342034
1,990833	0,1	0,323866
1,992500	0,1	0,290417
1,994167	0,1	0,344886
1,995833	0,1	0,329412
1,997500	0,1	0,322499
1,999167	0,1	0,321548
2,000833	0,1	0,348974
2,002500	0,1	0,342415
2,004167	0,1	0,353969
2,005833	0,1	0,310087
2,007500	0,1	0,345471
2,009167	0,1	0,309901
2,010833	0,1	0,327585
2,012500	0,1	0,341810
2,014167	0,1	0,342500
2,015833	0,1	0,365001
2,017500	0,1	0,337784
2,019167	0,1	0,360737
2,020833	0,1	0,342294
2,022500	0,1	0,347281
2,024167	0,1	0,368272
2,025833	0,1	0,357097
2,027500	0,1	0,367053
2,029167	0,1	0,333873
2,030833	0,1	0,355578
2,032500	0,1	0,319527
2,034167	0,1	0,352613
2,035833	0,1	0,344445
2,037500	0,1	0,365268
2,039167	0,1	0,341592
2,040833	0,1	0,375515
2,042500	0,1	0,310258
2,044167	0,1	0,396790
2,045833	0,1	0,335164
2,047500	0,1	0,343633
2,049167	0,1	0,340365
2,050833	0,1	0,328999
2,052500	0,1	0,350917
2,054167	0,1	0,376512
2,055833	0,1	0,338552
2,057500	0,1	0,323311
2,059167	0,1	0,343426
2,060833	0,1	0,339082
2,062500	0,1	0,350278
2,064167	0,1	0,320518
2,065833	0,1	0,361227
2,067500	0,1	0,359559
2,069167	0,1	0,367135
2,070833	0,1	0,323995
2,072500	0,1	0,385716
2,074167	0,1	0,374681
2,075833	0,1	0,376659
2,077500	0,1	0,375314
2,079167	0,1	0,336257
2,080833	0,1	0,365537
2,082500	0,1	0,381999
2,084167	0,1	0,345508
2,085833	0,1	0,368477
2,087500	0,1	0,421832
2,089167	0,1	0,389899
2,090833	0,1	0,357287
2,092500	0,1	0,388020
2,094167	0,1	0,396703
2,095833	0,1	0,337150
2,097500	0,1	0,391577
2,099167	0,1	0,356752
2,100833	0,1	0,377111
2,102500	0,1	0,360888
2,104167	0,1	0,369226
2,105833	0,1	0,375892
2,107500	0,1	0,383162
2,109167	0,1	0,351160
2,110833	0,1	0,390856
2,112500	0,1	0,385962
2,114167	0,1	0,381963
2,115833	0,1	0,398750
2,117500	0,1	0,373167
2,119167	0,1	0,424937
2,120833	0,1	0,379238
2,122500	0,1	0,365980
2,124167	0,1	0,392143
2,125833	0,1	0,369253
2,127500	0,1	0,410609
2,129167	0,1	0,410061
2,130833	0,1	0,387995
2,132500	0,1	0,385275
2,134167	0,1	0,327435
2,135833	0,1	0,382985
2,137500	0,1	0,386890
2,139167	0,1	0,393329
2,140833	0,1	0,413349
2,142500	0,1	0,388263
2,144167	0,1	0,357349
2,145833	0,1	0,403051
2,147500	0,1	0,379774
2,149167	0,1	0,418706
2,150833	0,1	0,425465
2,152500	0,1	0,389426
2,154167	0,1	0,422665
2,155833	0,1	0,412342
2,157500	0,1	0,401448
2,159167	0,1	0,421756
2,160833	0,1	0,365390
2,162500	0,1	0,418600
2,164167	0,1	0,434038
2,165833	0,1	0,423730
2,167500	0,1	0,426542
2,169167	0,1	0,411906
2,170833	0,1	0,394371
2,172500	0,1	0,381612
2,174167	0,1	0,422517
2,175833	0,1	0,433521
2,177500	0,1	0,420750
2,179167	0,1	0,411948
2,180833	0,1	0,395982
2,182500	0,1	0,390246
2,184167	0,1	0,410471
2,185833	0,1	0,429686
2,187500	0,1	0,429154
2,189167	0,1	0,387087
2,190833	0,1	0,402831
2,192500	0,1	0,414405
2,194167	0,1	0,394619
2,195833	0,1	0,416682
2,197500	0,1	0,422960
2,199167	0,1	0,369137
2,200833	0,1	0,410528
2,202500	0,1	0,432421
2,204167	0,1	0,408472
2,205833	0,1	0,405028
2,207500	0,1	0,442750
2,209167	0,1	0,413237
2,210833	0,1	0,406583
2,212500	0,1	0,417203
2,214167	0,1	0,395032
2,215833	0,1	0,421215
2,217500	0,1	0,402113
2,219167	0,1	0,445792
2,220833	0,1	0,431704
2,222500	0,1	0,406587
2,224167	0,1	0,422068
2,225833	0,1	0,423956
2,227500	0,1	0,463789
2,229167	0,1	0,433137
2,230833	0,1	0,439836
2,232500	0,1	0,447022
2,234167	0,1	0,435452
2,235833	0,1	0,441929
2,237500	0,1	0,402203
2,239167	0,1	0,402565
2,240833	0,1	0,444446
2,242500	0,1	0,404789
2,244167	0,1	0,462025
2,245833	0,1	0,422183
2,247500	0,1	0,429069
2,249167	0,1	0,389445
2,250833	0,1	0,456700
2,252500	0,1	0,489182
2,254167	0,1	0,410287
2,255833	0,1	0,422856
2,257500	0,1	0,427578
2,259167	0,1	0,419319
2,260833	0,1	0,407474
2,262500	0,1	0,426932
2,264167	0,1	0,408285
2,265833	0,1	0,449913
2,267500	0,1	0,403465
2,269167	0,1	0,463164
2,270833	0,1	0,455703
2,272500	0,1	0,458061
2,274167	0,1	0,396037
2,275833	0,1	0,457903
2,277500	0,1	0,492599
2,279167	0,1	0,438691
2,280833	0,1	0,440771
2,282500	0,1	0,465223
2,284167	0,1	0,441686
2,285833	0,1	0,452386
2,287500	0,1	0,434998
2,289167	0,1	0,451638
2,290833	0,1	0,467668
2,292500	0,1	0,457485
2,294167	0,1	0,449574
2,295833	0,1	0,430399
2,297500	0,1	0,484061
2,299167	0,1	0,477075
2,300833	0,1	0,432747
2,302500	0,1	0,469672
2,304167	0,1	0,474009
2,305833	0,1	0,459287
2,307500	0,1	0,449801
2,309167	0,1	0,485061
2,310833	0,1	0,446184
2,312500	0,1	0,440648
2,314167	0,1	0,482324
2,315833	0,1	0,471651
2,317500	0,1	0,463367
2,319167	0,1	0,475167
2,320833	0,1	0,462042
2,322500	0,1	0,452618
2,324167	0,1	0,485101
2,325833	0,1	0,475337
2,327500	0,1	0,494053
2,329167	0,1	0,468029
2,330833	0,1	0,454318
2,332500	0,1	0,490610
2,334167	0,1	0,433804
2,335833	0,1	0,447498
2,337500	0,1	0,468682
2,339167	0,1	0,502645
2,340833	0,1	0,485860
2,342500	0,1	0,463164
2,344167	0,1	0,446926
2,345833	0,1	0,479634
2,347500	0,1	0,472417
2,349167	0,1	0,446761
2,350833	0,1	0,494004
2,352500	0,1	0,508075
2,354167	0,1	0,498325
2,355833	0,1	0,465443
2,357500	0,1	0,484898
2,359167	0,1	0,472873
2,360833	0,1	0,491524
2,362500	0,1	0,496065
2,364167	0,1	0,467823
2,365833	0,1	0,495771
2,367500	0,1	0,503769
2,369167	0,1	0,493212
2,370833	0,1	0,446766
2,372500	0,1	0,507321
2,374167	0,1	0,476170
2,375833	0,1	0,499209
2,377500	0,1	0,506855
2,379167	0,1	0,483005
2,380833	0,1	0,532216
2,382500	0,1	0,511294
2,384167	0,1	0,472775
2,385833	0,1	0,455498
2,387500	0,1	0,470754
2,389167	0,1	0,509871
2,390833	0,1	0,483916
2,392500	0,1	0,509006
2,394167	0,1	0,478820
2,395833	0,1	0,477283
2,397500	0,1	0,486226
2,399167	0,1	0,498673
2,400833	0,1	0,503232
2,402500	0,1	0,498098
2,404167	0,1	0,517747
2,405833	0,1	0,504521
2,407500	0,1	0,511992
2,409167	0,1	0,478781
2,410833	0,1	0,485752
2,412500	0,1	0,495277
2,414167	0,1	0,510269
2,415833	0,1	0,479050
2,417500	0,1	0,506562
2,419167	0,1	0,512634
2,420833	0,1	0,543120
2,422500	0,1	0,499578
2,424167	0,1	0,511265
2,425833	0,1	0,533962
2,427500	0,1	0,525025
2,429167	0,1	0,478804
2,430833	0,1	0,477447
2,432500	0,1	0,509896
2,434167	0,1	0,485157
2,435833	0,1	0,508965
2,437500	0,1	0,531251
2,439167	0,1	0,506177
2,440833	0,1	0,549759
2,442500	0,1	0,504879
2,444167	0,1	0,510066
2,445833	0,1	0,538375
2,447500	0,1	0,524919
2,449167	0,1	0,520053
2,450833	0,1	0,502016
2,452500	0,1	0,483872
2,454167	0,1	0,515901
2,455833	0,1	0,520340
2,457500	0,1	0,518581
2,459167	0,1	0,504458
2,460833	0,1	0,518310
2,462500	0,1	0,546372
2,464167	0,1	0,524490
2,465833	0,1	0,539124
2,467500	0,1	0,578969
2,469167	0,1	0,509876
2,470833	0,1	0,512284
2,472500	0,1	0,504558
2,474167	0,1	0,539182
2,475833	0,1	0,528857
2,477500	0,1	0,516782
2,479167	0,1	0,515558
2,480833	0,1	0,525163
2,482500	0,1	0,556082
2,484167	0,1	0,548370
2,485833	0,1	0,494837
2,487500	0,1	0,516070
2,489167	0,1	0,550819
2,490833	0,1	0,539607
2,492500	0,1	0,518069
2,494167	0,1	0,574344
2,495833	0,1	0,552163
2,497500	0,1	0,566423
2,499167	0,1	0,532715
2,500833	0,1	0,545130
2,502500	0,1	0,519728
2,504167	0,1	0,516034
2,505833	0,1	0,548773
2,507500	0,1	0,531364
2,509167	0,1	0,532502
2,510833	0,1	0,560249
2,512500	0,1	0,545177
2,514167	0,1	0,562115
2,515833	0,1	0,533731
2,517500	0,1	0,559857
2,519167	0,1	0,536978
2,520833	0,1	0,523225
2,522500	0,1	0,538628
2,524167	0,1	0,509268
2,525833	0,1	0,568611
2,527500	0,1	0,533896
2,529167	0,1	0,547886
2,530833	0,1	0,543270
2,532500	0,1	0,522851
2,534167	0,1	0,509639
2,535833	0,1	0,554237
2,537500	0,1	0,532445
2,539167	0,1	0,567953
2,540833	0,1	0,569574
2,542500	0,1	0,560546
2,544167	0,1	0,511779
2,545833	0,1	0,540593
2,547500	0,1	0,563295
2,549167	0,1	0,540956
2,550833	0,1	0,529419
2,552500	0,1	0,532251
2,554167	0,1	0,560249
2,555833	0,1	0,571623
2,557500	0,1	0,554956
2,559167	0,1	0,519645
2,560833	0,1	0,538128
2,562500	0,1	0,544927
2,564167	0,1	0,533726
2,565833	0,1	0,534695
2,567500	0,1	0,571931
2,569167	0,1	0,542533
2,570833	0,1	0,569177
2,572500	0,1	0,563677
2,574167	0,1	0,540026
2,575833	0,1	0,552609
2,577500	0,1	0,562743
2,579167	0,1	0,524226
2,580833	0,1	0,565774
2,582500	0,1	0,542491
2,584167	0,1	0,545423
2,585833	0,1	0,571495
2,587500	0,1	0,582791
2,589167	0,1	0,581196
2,590833	0,1	0,563571
2,592500	0,1	0,573801
2,594167	0,1	0,550651
2,595833	0,1	0,587443
2,597500	0,1	0,588824
2,599167	0,1	0,564199
2,600833	0,1	0,540168
2,602500	0,1	0,548012
2,604167	0,1	0,564809
2,605833	0,1	0,542469
2,607500	0,1	0,565159
2,609167	0,1	0,583532
2,610833	0,1	0,551915
2,612500	0,1	0,597528
2,614167	0,1	0,559497
2,615833	0,1	0,520766
2,617500	0,1	0,603527
2,619167	0,1	0,581991
2,620833	0,1	0,580388
2,622500	0,1	0,536779
2,624167	0,1	0,564227
2,625833	0,1	0,576635
2,627500	0,1	0,578210
2,629167	0,1	0,584944
2,630833	0,1	0,562867
2,632500	0,1	0,577377
2,634167	0,1	0,581759
2,635833	0,1	0,568629
2,637500	0,1	0,560383
2,639167	0,1	0,559056
2,640833	0,1	0,572954
2,642500	0,1	0,573136
2,644167	0,1	0,559701
2,645833	0,1	0,567646
2,647500	0,1	0,569433
2,649167	0,1	0,549594
2,650833	0,1	0,562116
2,652500	0,1	0,566738
2,654167	0,1	0,606294
2,655833	0,1	0,553556
2,657500	0,1	0,584525
2,659167	0,1	0,587639
2,660833	0,1	0,556699
2,662500	0,1	0,521821
2,664167	0,1	0,556770
2,665833	0,1	0,574996
2,667500	0,1	0,551105
2,669167	0,1	0,580506
2,670833	0,1	0,553449
2,672500	0,1	0,557419
2,674167	0,1	0,554477
2,675833	0,1	0,535530
2,677500	0,1	0,566544
2,679167	0,1	0,552387
2,680833	0,1	0,563423
2,682500	0,1	0,548246
2,684167	0,1	0,569075
2,685833	0,1	0,546610
2,687500	0,1	0,516308
2,689167	0,1	0,584767
2,690833	0,1	0,560612
2,692500	0,1	0,604341
2,694167	0,1	0,534775
2,695833	0,1	0,593837
2,697500	0,1	0,538850
2,699167	0,1	0,563085
2,700833	0,1	0,558352
2,702500	0,1	0,573321
2,704167	0,1	0,558270
2,705833	0,1	0,563049
2,707500	0,1	0,583556
2,709167	0,1	0,541023
2,710833	0,1	0,596141
2,712500	0,1	0,555166
2,714167	0,1	0,553731
2,715833	0,1	0,549857
2,717500	0,1	0,563360
2,719167	0,1	0,561562
2,720833	0,1	0,555017
2,722500	0,1	0,585330
2,724167	0,1	0,530669
2,725833	0,1	0,543141
2,727500	0,1	0,583010
2,729167	0,1	0,523253
2,730833	0,1	0,584477
2,732500	0,1	0,598203
2,734167	0,1	0,573684
2,735833	0,1	0,596876
2,737500	0,1	0,533840
2,739167	0,1	0,575469
2,740833	0,1	0,576246
2,742500	0,1	0,562536
2,744167	0,1	0,569329
2,745833	0,1	0,546985
2,747500	0,1	0,594505
2,749167	0,1	0,572233
2,750833	0,1	0,597658
2,752500	0,1	0,538413
2,754167	0,1	0,549562
2,755833	0,1	0,560354
2,757500	0,1	0,566597
2,759167	0,1	0,524682
2,760833	0,1	0,560043
2,762500	0,1	0,574583
2,764167	0,1	0,541909
2,765833	0,1	0,548154
2,767500	0,1	0,579676
2,769167	0,1	0,562287
2,770833	0,1	0,597947
2,772500	0,1	0,591949
2,774167	0,1	0,574011
2,775833	0,1	0,508198
2,777500	0,1	0,569394
2,779167	0,1	0,499749
2,780833	0,1	0,560946
2,782500	0,1	0,535986
2,784167	0,1	0,570396
2,785833	0,1	0,571422
2,787500	0,1	0,540028
2,789167	0,1	0,540866
2,790833	0,1	0,588411
2,792500	0,1	0,562226
2,794167	0,1	0,549568
2,795833	0,1	0,559548
2,797500	0,1	0,560772
2,799167	0,1	0,551143
2,800833	0,1	0,560667
2,802500	0,1	0,554791
2,804167	0,1	0,552714
2,805833	0,1	0,599996
2,807500	0,1	0,543220
2,809167	0,1	0,537203
2,810833	0,1	0,564994
2,812500	0,1	0,559715
2,814167	0,1	0,543085
2,815833	0,1	0,538549
2,817500	0,1	0,525605
2,819167	0,1	0,566893
2,820833	0,1	0,535759
2,822500	0,1	0,554659
2,824167	0,1	0,576304
2,825833	0,1	0,539199
2,827500	0,1	0,534201
2,829167	0,1	0,556419
2,830833	0,1	0,564019
2,832500	0,1	0,575451
2,834167	0,1	0,534063
2,835833	0,1	0,539932
2,837500	0,1	0,561573
2,839167	0,1	0,520163
2,840833	0,1	0,557904
2,842500	0,1	0,545715
2,844167	0,1	0,569857
2,845833	0,1	0,521262
2,847500	0,1	0,539186
2,849167	0,1	0,556562
2,850833	0,1	0,529979
2,852500	0,1	0,484252
2,854167	0,1	0,589102
2,855833	0,1	0,562477
2,857500	0,1	0,517263
2,859167	0,1	0,534650
2,860833	0,1	0,523577
2,862500	0,1	0,563786
2,864167	0,1	0,550398
2,865833	0,1	0,528984
2,867500	0,1	0,524569
2,869167	0,1	0,541425
2,870833	0,1	0,528958
2,872500	0,1	0,523303
2,874167	0,1	0,495512
2,875833	0,1	0,560490
2,877500	0,1	0,547517
2,879167	0,1	0,534182
2,880833	0,1	0,503012
2,882500	0,1	0,508470
2,884167	0,1	0,529946
2,885833	0,1	0,479801
2,887500	0,1	0,557606
2,889167	0,1	0,534621
2,890833	0,1	0,524980
2,892500	0,1	0,538975
2,894167	0,1	0,514817
2,895833	0,1	0,575527
2,897500	0,1	0,519400
2,899167	0,1	0,525493
2,900833	0,1	0,550242
2,902500	0,1	0,552650
2,904167	0,1	0,536813
2,905833	0,1	0,523533
2,907500	0,1	0,566604
2,909167	0,1	0,514553
2,910833	0,1	0,507916
2,912500	0,1	0,541563
2,914167	0,1	0,530634
2,915833	0,1	0,529847
2,917500	0,1	0,512265
2,919167	0,1	0,498225
2,920833	0,1	0,502465
2,922500	0,1	0,538806
2,924167	0,1	0,483219
2,925833	0,1	0,503808
2,927500	0,1	0,485198
2,929167	0,1	0,535013
2,930833	0,1	0,505330
2,932500	0,1	0,506194
2,934167	0,1	0,515698
2,935833	0,1	0,529157
2,937500	0,1	0,532001
2,939167	0,1	0,527030
2,940833	0,1	0,514419
2,942500	0,1	0,554113
2,944167	0,1	0,532195
2,945833	0,1	0,530781
2,947500	0,1	0,519555
2,949167	0,1	0,487746
2,950833	0,1	0,486042
2,952500	0,1	0,484199
2,954167	0,1	0,481961
2,955833	0,1	0,508176
2,957500	0,1	0,472588
2,959167	0,1	0,517098
2,960833	0,1	0,510940
2,962500	0,1	0,458717
2,964167	0,1	0,562486
2,965833	0,1	0,490927
2,967500	0,1	0,487160
2,969167	0,1	0,526027
2,970833	0,1	0,476342
2,972500	0,1	0,520514
2,974167	0,1	0,511354
2,975833	0,1	0,518971
2,977500	0,1	0,486568
2,979167	0,1	0,544994
2,980833	0,1	0,513490
2,982500	0,1	0,490067
2,984167	0,1	0,487078
2,985833	0,1	0,499336
2,987500	0,1	0,507640
2,989167	0,1	0,493232
2,990833	0,1	0,476085
2,992500	0,1	0,469122
2,994167	0,1	0,483575
2,995833	0,1	0,449560
2,997500	0,1	0,488889
2,999167	0,1	0,495278
3,000833	0,1	0,479232
3,002500	0,1	0,491300
3,004167	0,1	0,508717
3,005833	0,1	0,463624
3,007500	0,1	0,496576
3,009167	0,1	0,461945
3,010833	0,1	0,446448
3,012500	0,1	0,465886
3,014167	0,1	0,485540
3,015833	0,1	0,478546
3,017500	0,1	0,474486
3,019167	0,1	0,460862
3,020833	0,1	0,473156
3,022500	0,1	0,450094
3,024167	0,1	0,448950
3,025833	0,1	0,490507
3,027500	0,1	0,494761
3,029167	0,1	0,495609
3,030833	0,1	0,494949
3,032500	0,1	0,514825
3,034167	0,1	0,469567
3,035833	0,1	0,485252
3,037500	0,1	0,438732
3,039167	0,1	0,490255
3,040833	0,1	0,440783
3,042500	0,1	0,497211
3,044167	0,1	0,431446
3,045833	0,1	0,477023
3,047500	0,1	0,458109
3,049167	0,1	0,458082
3,050833	0,1	0,458000
3,052500	0,1	0,463426
3,054167	0,1	0,473697
3,055833	0,1	0,482145
3,057500	0,1	0,468193
3,059167	0,1	0,467093
3,060833	0,1	0,445993
3,062500	0,1	0,491416
3,064167	0,1	0,491427
3,065833	0,1	0,468153
3,067500	0,1	0,447237
3,069167	0,1	0,440649
3,070833	0,1	0,466402
3,072500	0,1	0,435352
3,074167	0,1	0,479506
3,075833	0,1	0,482189
3,077500	0,1	0,456061
3,079167	0,1	0,439036
3,080833	0,1	0,465573
3,082500	0,1	0,452061
3,084167	0,1	0,442120
3,085833	0,1	0,436816
3,087500	0,1	0,490398
3,089167	0,1	0,464695
3,090833	0,1	0,446491
3,092500	0,1	0,465162
3,094167	0,1	0,445000
3,095833	0,1	0,408931
3,097500	0,1	0,411198
3,099167	0,1	0,430722
3,100833	0,1	0,426876
3,102500	0,1	0,466317
3,104167	0,1	0,462930
3,105833	0,1	0,481127
3,107500	0,1	0,443637
3,109167	0,1	0,462945
3,110833	0,1	0,440197
3,112500	0,1	0,438452
3,114167	0,1	0,464682
3,115833	0,1	0,467609
3,117500	0,1	0,464441
3,119167	0,1	0,422971
3,120833	0,1	0,420146
3,122500	0,1	0,440704
3,124167	0,1	0,435057
3,125833	0,1	0,430439
3,127500	0,1	0,410667
3,129167	0,1	0,451240
3,130833	0,1	0,444066
3,132500	0,1	0,435141
3,134167	0,1	0,413732
3,135833	0,1	0,428778
3,137500	0,1	0,430106
3,139167	0,1	0,405365
3,140833	0,1	0,452688
3,142500	0,1	0,415453
3,144167	0,1	0,423623
3,145833	0,1	0,429546
3,147500	0,1	0,426959
3,149167	0,1	0,422051
3,150833	0,1	0,423023
3,152500	0,1	0,382260
3,154167	0,1	0,420818
3,155833	0,1	0,405159
3,157500	0,1	0,383707
3,159167	0,1	0,445353
3,160833	0,1	0,429301
3,162500	0,1	0,380460
3,164167	0,1	0,403595
3,165833	0,1	0,422792
3,167500	0,1	0,386155
3,169167	0,1	0,399414
3,170833	0,1	0,393602
3,172500	0,1	0,389480
3,174167	0,1	0,420222
3,175833	0,1	0,397002
3,177500	0,1	0,374536
3,179167	0,1	0,377221
3,180833	0,1	0,413262
3,182500	0,1	0,377872
3,184167	0,1	0,402311
3,185833	0,1	0,374661
3,187500	0,1	0,383638
3,189167	0,1	0,371695
3,190833	0,1	0,383717
3,192500	0,1	0,377556
3,194167	0,1	0,393992
3,195833	0,1	0,388153
3,197500	0,1	0,381943
3,199167	0,1	0,417675
3,200833	0,1	0,424535
3,202500	0,1	0,401557
3,204167	0,1	0,387495
3,205833	0,1	0,411587
3,207500	0,1	0,373898
3,209167	0,1	0,402351
3,210833	0,1	0,403850
3,212500	0,1	0,361721
3,214167	0,1	0,386782
3,215833	0,1	0,370430
3,217500	0,1	0,392578
3,219167	0,1	0,361059
3,220833	0,1	0,367839
3,222500	0,1	0,394755
3,224167	0,1	0,382710
3,225833	0,1	0,354349
3,227500	0,1	0,370261
3,229167	0,1	0,390302
3,230833	0,1	0,341475
3,232500	0,1	0,398537
3,234167	0,1	0,366318
3,235833	0,1	0,389992
3,237500	0,1	0,347583
3,239167	0,1	0,384129
3,240833	0,1	0,353251
3,242500	0,1	0,398496
3,244167	0,1	0,362114
3,245833	0,1	0,359189
3,247500	0,1	0,363845
3,249167	0,1	0,365149
3,250833	0,1	0,357800
3,252500	0,1	0,375248
3,254167	0,1	0,347185
3,255833	0,1	0,361024
3,257500	0,1	0,348403
3,259167	0,1	0,370321
3,260833	0,1	0,367347
3,262500	0,1	0,342419
3,264167	0,1	0,344277
3,265833	0,1	0,351151
3,267500	0,1	0,345691
3,269167	0,1	0,372537
3,270833	0,1	0,363473
3,272500	0,1	0,346109
3,274167	0,1	0,329685
3,275833	0,1	0,315749
3,277500	0,1	0,330319
3,279167	0,1	0,356589
3,280833	0,1	0,348859
3,282500	0,1	0,376405
3,284167	0,1	0,372273
3,285833	0,1	0,357160
3,287500	0,1	0,348753
3,289167	0,1	0,326811
3,290833	0,1	0,340342
3,292500	0,1	0,330720
3,294167	0,1	0,304614
3,295833	0,1	0,326466
3,297500	0,1	0,351541
3,299167	0,1	0,386323
3,300833	0,1	0,342116
3,302500	0,1	0,343845
3,304167	0,1	0,315525
3,305833	0,1	0,348849
3,307500	0,1	0,362349
3,309167	0,1	0,335402
3,310833	0,1	0,336760
3,312500	0,1	0,339044
3,314167	0,1	0,328902
3,315833	0,1	0,297080
3,317500	0,1	0,316075
3,319167	0,1	0,328562
3,320833	0,1	0,301694
3,322500	0,1	0,318293
3,324167	0,1	0,298361
3,325833	0,1	0,316717
3,327500	0,1	0,345061
3,329167	0,1	0,330371
3,330833	0,1	0,327924
3,332500	0,1	0,323141
3,334167	0,1	0,312523
3,335833	0,1	0,285757
3,337500	0,1	0,293907
3,339167	0,1	0,328143
3,340833	0,1	0,296423
3,342500	0,1	0,318414
3,344167	0,1	0,321090
3,345833	0,1	0,323719
3,347500	0,1	0,297079
3,349167	0,1	0,286457
3,350833	0,1	0,302844
3,352500	0,1	0,307474
3,354167	0,1	0,292295
3,355833	0,1	0,301151
3,357500	0,1	0,318581
3,359167	0,1	0,298054
3,360833	0,1	0,296142
3,362500	0,1	0,291159
3,364167	0,1	0,303426
3,365833	0,1	0,265452
3,367500	0,1	0,328699
3,369167	0,1	0,292573
3,370833	0,1	0,264228
3,372500	0,1	0,295536
3,374167	0,1	0,315417
3,375833	0,1	0,337957
3,377500	0,1	0,262894
3,379167	0,1	0,259747
3,380833	0,1	0,304121
3,382500	0,1	0,309872
3,384167	0,1	0,319497
3,385833	0,1	0,289713
3,387500	0,1	0,282833
3,389167	0,1	0,315599
3,390833	0,1	0,283711
3,392500	0,1	0,274033
3,394167	0,1	0,255973
3,395833	0,1	0,269993
3,397500	0,1	0,315577
3,399167	0,1	0,308530
3,400833	0,1	0,301198
3,402500	0,1	0,266262
3,404167	0,1	0,270514
3,405833	0,1	0,261930
3,407500	0,1	0,266419
3,409167	0,1	0,303404
3,410833	0,1	0,311920
3,412500	0,1	0,315148
3,414167	0,1	0,275766
3,415833	0,1	0,307422
3,417500	0,1	0,258457
3,419167	0,1	0,272041
3,420833	0,1	0,293613
3,422500	0,1	0,300061
3,424167	0,1	0,278301
3,425833	0,1	0,284420
3,427500	0,1	0,236243
3,429167	0,1	0,279200
3,430833	0,1	0,281486
3,432500	0,1	0,310984
3,434167	0,1	0,267302
3,435833	0,1	0,271080
3,437500	0,1	0,291442
3,439167	0,1	0,255826
3,440833	0,1	0,294312
3,442500	0,1	0,258378
3,444167	0,1	0,246486
3,445833	0,1	0,279538
3,447500	0,1	0,215683
3,449167	0,1	0,267172
3,450833	0,1	0,217696
3,452500	0,1	0,252831
3,454167	0,1	0,273535
3,455833	0,1	0,262756
3,457500	0,1	0,280060
3,459167	0,1	0,282769
3,460833	0,1	0,252785
3,462500	0,1	0,263745
3,464167	0,1	0,273264
3,465833	0,1	0,275756
3,467500	0,1	0,229170
3,469167	0,1	0,296476
3,470833	0,1	0,233849
3,472500	0,1	0,263038
3,474167	0,1	0,210394
3,475833	0,1	0,239693
3,477500	0,1	0,233543
3,479167	0,1	0,234764
3,480833	0,1	0,219384
3,482500	0,1	0,250615
3,484167	0,1	0,254825
3,485833	0,1	0,255193
3,487500	0,1	0,238023
3,489167	0,1	0,248115
3,490833	0,1	0,266433
3,492500	0,1	0,211847
3,494167	0,1	0,250721
3,495833	0,1	0,295532
3,497500	0,1	0,257156
3,499167	0,1	0,230859
3,500833	0,1	0,219306
3,502500	0,1	0,265187
3,504167	0,1	0,246672
3,505833	0,1	0,236966
3,507500	0,1	0,250056
3,509167	0,1	0,220702
3,510833	0,1	0,254800
3,512500	0,1	0,245905
3,514167	0,1	0,236080
3,515833	0,1	0,239407
3,517500	0,1	0,232765
3,519167	0,1	0,228868
3,520833	0,1	0,226820
3,522500	0,1	0,200138
3,524167	0,1	0,245647
3,525833	0,1	0,207230
3,527500	0,1	0,229520
3,529167	0,1	0,222438
3,530833	0,1	0,229385
3,532500	0,1	0,221810
3,534167	0,1	0,270366
3,535833	0,1	0,227991
3,537500	0,1	0,211838
3,539167	0,1	0,225947
3,540833	0,1	0,209669
3,542500	0,1	0,209023
3,544167	0,1	0,224891
3,545833	0,1	0,227889
3,547500	0,1	0,254452
3,549167	0,1	0,228232
3,550833	0,1	0,228669
3,552500	0,1	0,215504
3,554167	0,1	0,221488
3,555833	0,1	0,228559
3,557500	0,1	0,244905
3,559167	0,1	0,247796
3,560833	0,1	0,268034
3,562500	0,1	0,265076
3,564167	0,1	0,208287
3,565833	0,1	0,241783
3,567500	0,1	0,220530
3,569167	0,1	0,251213
3,570833	0,1	0,182458
3,572500	0,1	0,202340
3,574167	0,1	0,216764
3,575833	0,1	0,193477
3,577500	0,1	0,197351
3,579167	0,1	0,206927
3,580833	0,1	0,247909
3,582500	0,1	0,225405
3,584167	0,1	0,185813
3,585833	0,1	0,239473
3,587500	0,1	0,179187
3,589167	0,1	0,232232
3,590833	0,1	0,245119
3,592500	0,1	0,186075
3,594167	0,1	0,186183
3,595833	0,1	0,223205
3,597500	0,1	0,202093
3,599167	0,1	0,199077
3,600833	0,1	0,242836
3,602500	0,1	0,237379
3,604167	0,1	0,150749
3,605833	0,1	0,241708
3,607500	0,1	0,195163
3,609167	0,1	0,238053
3,610833	0,1	0,214451
3,612500	0,1	0,214506
3,614167	0,1	0,192819
3,615833	0,1	0,190417
3,617500	0,1	0,210943
3,619167	0,1	0,214736
3,620833	0,1	0,195904
3,622500	0,1	0,206913
3,624167	0,1	0,164992
3,625833	0,1	0,206386
3,627500	0,1	0,200790
3,629167	0,1	0,157950
3,630833	0,1	0,218633
3,632500	0,1	0,218648
3,634167	0,1	0,188695
3,635833	0,1	0,185635
3,637500	0,1	0,220150
3,639167	0,1	0,198991
3,640833	0,1	0,170839
3,642500	0,1	0,202705
3,644167	0,1	0,156729
3,645833	0,1	0,197141
3,647500	0,1	0,199552
3,649167	0,1	0,172885
3,650833	0,1	0,166754
3,652500	0,1	0,185508
3,654167	0,1	0,200631
3,655833	0,1	0,179589
3,657500	0,1	0,165931
3,659167	0,1	0,197817
3,660833	0,1	0,179880
3,662500	0,1	0,170652
3,664167	0,1	0,206509
3,665833	0,1	0,167573
3,667500	0,1	0,141388
3,669167	0,1	0,158760
3,670833	0,1	0,168662
3,672500	0,1	0,182836
3,674167	0,1	0,142599
3,675833	0,1	0,147586
3,677500	0,1	0,194255
3,679167	0,1	0,194219
3,680833	0,1	0,181774
3,682500	0,1	0,157122
3,684167	0,1	0,235770
3,685833	0,1	0,150153
3,687500	0,1	0,167605
3,689167	0,1	0,172558
3,690833	0,1	0,164951
3,692500	0,1	0,192579
3,694167	0,1	0,174853
3,695833	0,1	0,155959
3,697500	0,1	0,183994
3,699167	0,1	0,151593
3,700833	0,1	0,220709
3,702500	0,1	0,152317
3,704167	0,1	0,170861
3,705833	0,1	0,165625
3,707500	0,1	0,182146
3,709167	0,1	0,153517
3,710833	0,1	0,143355
3,712500	0,1	0,200377
3,714167	0,1	0,127104
3,715833	0,1	0,146494
3,717500	0,1	0,216750
3,719167	0,1	0,187842
3,720833	0,1	0,155427
3,722500	0,1	0,158398
3,724167	0,1	0,122205
3,725833	0,1	0,161139
3,727500	0,1	0,157771
3,729167	0,1	0,170586
3,730833	0,1	0,126770
3,732500	0,1	0,187422
3,734167	0,1	0,154692
3,735833	0,1	0,154198
3,737500	0,1	0,139750
3,739167	0,1	0,145154
3,740833	0,1	0,195079
3,742500	0,1	0,119527
3,744167	0,1	0,135604
3,745833	0,1	0,135547
3,747500	0,1	0,130584
3,749167	0,1	0,170625
3,750833	0,1	0,117089
3,752500	0,1	0,149410
3,754167	0,1	0,133046
3,755833	0,1	0,151046
3,757500	0,1	0,115729
3,759167	0,1	0,140996
3,760833	0,1	0,143522
3,762500	0,1	0,158745
3,764167	0,1	0,147663
3,765833	0,1	0,138560
3,767500	0,1	0,162897
3,769167	0,1	0,114219
3,770833	0,1	0,143455
3,772500	0,1	0,112931
3,774167	0,1	0,118237
3,775833	0,1	0,129878
3,777500	0,1	0,125527
3,779167	0,1	0,138581
3,780833	0,1	0,190587
3,782500	0,1	0,148665
3,784167	0,1	0,162136
3,785833	0,1	0,190593
3,787500	0,1	0,172181
3,789167	0,1	0,131924
3,790833	0,1	0,142021
3,792500	0,1	0,106735
3,794167	0,1	0,156569
3,795833	0,1	0,123716
3,797500	0,1	0,135469
3,799167	0,1	0,152971
3,800833	0,1	0,150181
3,802500	0,1	0,141661
3,804167	0,1	0,139518
3,805833	0,1	0,117637
3,807500	0,1	0,123187
3,809167	0,1	0,141579
3,810833	0,1	0,145507
3,812500	0,1	0,144149
3,814167	0,1	0,124126
3,815833	0,1	0,109417
3,817500	0,1	0,103303
3,819167	0,1	0,127202
3,820833	0,1	0,124703
3,822500	0,1	0,171752
3,824167	0,1	0,165564
3,825833	0,1	0,115779
3,827500	0,1	0,139740
3,829167	0,1	0,165158
3,830833	0,1	0,142366
3,832500	0,1	0,104412
3,834167	0,1	0,133798
3,835833	0,1	0,145323
3,837500	0,1	0,161299
3,839167	0,1	0,134790
3,840833	0,1	0,136815
3,842500	0,1	0,155281
3,844167	0,1	0,130117
3,845833	0,1	0,159478
3,847500	0,1	0,124190
3,849167	0,1	0,115951
3,850833	0,1	0,108592
3,852500	0,1	0,123982
3,854167	0,1	0,128657
3,855833	0,1	0,097282
3,857500	0,1	0,136118
3,859167	0,1	0,107449
3,860833	0,1	0,131753
3,862500	0,1	0,167311
3,864167	0,1	0,135965
3,865833	0,1	0,128553
3,867500	0,1	0,102776
3,869167	0,1	0,129874
3,870833	0,1	0,126905
3,872500	0,1	0,143807
3,874167	0,1	0,120217
3,875833	0,1	0,182013
3,877500	0,1	0,114561
3,879167	0,1	0,128291
3,880833	0,1	0,114961
3,882500	0,1	0,090938
3,884167	0,1	0,106722
3,885833	0,1	0,097459
3,887500	0,1	0,122939
3,889167	0,1	0,108426
3,890833	0,1	0,078523
3,892500	0,1	0,103587
3,894167	0,1	0,124333
3,895833	0,1	0,116133
3,897500	0,1	0,092391
3,899167	0,1	0,116937
3,900833	0,1	0,094134
3,902500	0,1	0,174342
3,904167	0,1	0,120259
3,905833	0,1	0,143043
3,907500	0,1	0,113608
3,909167	0,1	0,132733
3,910833	0,1	0,074862
3,912500	0,1	0,133897
3,914167	0,1	0,133414
3,915833	0,1	0,154606
3,917500	0,1	0,130805
3,919167	0,1	0,128404
3,920833	0,1	0,083366
3,922500	0,1	0,158138
3,924167	0,1	0,118912
3,925833	0,1	0,130447
3,927500	0,1	0,122779
3,929167	0,1	0,110361
3,930833	0,1	0,109171
3,932500	0,1	0,140536
3,934167	0,1	0,102245
3,935833	0,1	0,135646
3,937500	0,1	0,106637
3,939167	0,1	0,083653
3,940833	0,1	0,102947
3,942500	0,1	0,113491
3,944167	0,1	0,094482
3,945833	0,1	0,076475
3,947500	0,1	0,122691
3,949167	0,1	0,105522
3,950833	0,1	0,109074
3,952500	0,1	0,121235
3,954167	0,1	0,104880
3,955833	0,1	0,062900
3,957500	0,1	0,075826
3,959167	0,1	0,095938
3,960833	0,1	0,076935
3,962500	0,1	0,105497
3,964167	0,1	0,107549
3,965833	0,1	0,096116
3,967500	0,1	0,092736
3,969167	0,1	0,099668
3,970833	0,1	0,117168
3,972500	0,1	0,144097
3,974167	0,1	0,109119
3,975833	0,1	0,071419
3,977500	0,1	0,088714
3,979167	0,1	0,060791
3,980833	0,1	0,089510
3,982500	0,1	0,106565
3,984167	0,1	0,108518
3,985833	0,1	0,094011
3,987500	0,1	0,079111
3,989167	0,1	0,077099
3,990833	0,1	0,090227
3,992500	0,1	0,093849
3,994167	0,1	0,111152
3,995833	0,1	0,092572
3,997500	0,1	0,086215
3,999167	0,1	0,102474
4,000833	0,1	0,076138
4,002500	0,1	0,087227
4,004167	0,1	0,088355
4,005833	0,1	0,085619
4,007500	0,1	0,082436
4,009167	0,1	0,079387
4,010833	0,1	0,105971
4,012500	0,1	0,096949
4,014167	0,1	0,084752
4,015833	0,1	0,092105
4,017500	0,1	0,097224
4,019167	0,1	0,086202
4,020833	0,1	0,079098
4,022500	0,1	0,089404
4,024167	0,1	0,102827
4,025833	0,1	0,065817
4,027500	0,1	0,108351
4,029167	0,1	0,098172
4,030833	0,1	0,098968
4,032500	0,1	0,112860
4,034167	0,1	0,109354
4,035833	0,1	0,097495
4,037500	0,1	0,079729
4,039167	0,1	0,101517
4,040833	0,1	0,110683
4,042500	0,1	0,089643
4,044167	0,1	0,110388
4,045833	0,1	0,093139
4,047500	0,1	0,065500
4,049167	0,1	0,072970
4,050833	0,1	0,061140
4,052500	0,1	0,070695
4,054167	0,1	0,050467
4,055833	0,1	0,063639
4,057500	0,1	0,118719
4,059167	0,1	0,099675
4,060833	0,1	0,073451
4,062500	0,1	0,100258
4,064167	0,1	0,103108
4,065833	0,1	0,090924
4,067500	0,1	0,067943
4,069167	0,1	0,075874
4,070833	0,1	0,106779
4,072500	0,1	0,108130
4,074167	0,1	0,071469
4,075833	0,1	0,057654
4,077500	0,1	0,047489
4,079167	0,1	0,097202
4,080833	0,1	0,056294
4,082500	0,1	0,063929
4,084167	0,1	0,102747
4,085833	0,1	0,069483
4,087500	0,1	0,059564
4,089167	0,1	0,094761
4,090833	0,1	0,089130
4,092500	0,1	0,041472
4,094167	0,1	0,089106
4,095833	0,1	0,071041
4,097500	0,1	0,085483
4,099167	0,1	0,076110
4,100833	0,1	0,095296
4,102500	0,1	0,063818
4,104167	0,1	0,112584
4,105833	0,1	0,057070
4,107500	0,1	0,049533
4,109167	0,1	0,074527
4,110833	0,1	0,077860
4,112500	0,1	0,074933
4,114167	0,1	0,062349
4,115833	0,1	0,050887
4,117500	0,1	0,069119
4,119167	0,1	0,084853
4,120833	0,1	0,108295
4,122500	0,1	0,115997
4,124167	0,1	0,079092
4,125833	0,1	0,075417
4,127500	0,1	0,057413
4,129167	0,1	0,078366
4,130833	0,1	0,072442
4,132500	0,1	0,076879
4,134167	0,1	0,080137
4,135833	0,1	0,076579
4,137500	0,1	0,112601
4,139167	0,1	0,046531
4,140833	0,1	0,065501
4,142500	0,1	0,069001
4,144167	0,1	0,060666
4,145833	0,1	0,097327
4,147500	0,1	0,062609
4,149167	0,1	0,053429
4,150833	0,1	0,071382
4,152500	0,1	0,095526
4,154167	0,1	0,049723
4,155833	0,1	0,079778
4,157500	0,1	0,082810
4,159167	0,1	0,067857
4,160833	0,1	0,077872
4,162500	0,1	0,061020
4,164167	0,1	0,118996
4,165833	0,1	0,097811
4,167500	0,1	0,107764
4,169167	0,1	0,087887
4,170833	0,1	0,085982
4,172500	0,1	0,070809
4,174167	0,1	0,043305
4,175833	0,1	0,084907
4,177500	0,1	0,096474
4,179167	0,1	0,065682
4,180833	0,1	0,065614
4,182500	0,1	0,088991
4,184167	0,1	0,063877
4,185833	0,1	0,053430
4,187500	0,1	0,106532
4,189167	0,1	0,070294
4,190833	0,1	0,125365
4,192500	0,1	0,060729
4,194167	0,1	0,082285
4,195833	0,1	0,063465
4,197500	0,1	0,062950
4,199167	0,1	0,090078
4,200833	0,1	0,049722
4,202500	0,1	0,050753
4,204167	0,1	0,079077
4,205833	0,1	0,091959
4,207500	0,1	0,046335
4,209167	0,1	0,065501
4,210833	0,1	0,059503
4,212500	0,1	0,020387
4,214167	0,1	0,045905
4,215833	0,1	0,050594
4,217500	0,1	0,065200
4,219167	0,1	0,057690
4,220833	0,1	0,068539
4,222500	0,1	0,080776
4,224167	0,1	0,035299
4,225833	0,1	0,086576
4,227500	0,1	0,089346
4,229167	0,1	0,066019
4,230833	0,1	0,069159
4,232500	0,1	0,065856
4,234167	0,1	0,069606
4,235833	0,1	0,040219
4,237500	0,1	0,037926
4,239167	0,1	0,045630
4,240833	0,1	0,094406
4,242500	0,1	0,041314
4,244167	0,1	0,039269
4,245833	0,1	0,048656
4,247500	0,1	0,074479
4,249167	0,1	0,093422
4,250833	0,1	0,083686
4,252500	0,1	0,055552
4,254167	0,1	0,056247
4,255833	0,1	0,014034
4,257500	0,1	0,041596
4,259167	0,1	0,016135
4,260833	0,1	0,033273
4,262500	0,1	0,057803
4,264167	0,1	0,047149
4,265833	0,1	0,070390
4,267500	0,1	0,062688
4,269167	0,1	0,061366
4,270833	0,1	0,057508
4,272500	0,1	0,031458
4,274167	0,1	0,030350
4,275833	0,1	0,036642
4,277500	0,1	0,063562
4,279167	0,1	0,059419
4,280833	0,1	0,037157
4,282500	0,1	0,079073
4,284167	0,1	0,058214
4,285833	0,1	0,032461
4,287500	0,1	0,034427
4,289167	0,1	0,060708
4,290833	0,1	0,021901
4,292500	0,1	0,050334
4,294167	0,1	0,026375
4,295833	0,1	0,049634
4,297500	0,1	0,041655
4,299167	0,1	0,048186
4,300833	0,1	0,067073
4,302500	0,1	0,033965
4,304167	0,1	0,060587
4,305833	0,1	0,066193
4,307500	0,1	0,054144
4,309167	0,1	0,023011
4,310833	0,1	0,024878
4,312500	0,1	0,034037
4,314167	0,1	0,131873
4,315833	0,1	0,028911
4,317500	0,1	0,047831
4,319167	0,1	0,057686
4,320833	0,1	0,046847
4,322500	0,1	0,045912
4,324167	0,1	0,020736
4,325833	0,1	0,020197
4,327500	0,1	0,016470
4,329167	0,1	0,055583
4,330833	0,1	0,086652
4,332500	0,1	0,013741
4,334167	0,1	0,078487
4,335833	0,1	0,012637
4,337500	0,1	0,031375
4,339167	0,1	0,056460
4,340833	0,1	0,048590
4,342500	0,1	-0,012897
4,344167	0,1	0,044145
4,345833	0,1	0,058034
4,347500	0,1	0,022481
4,349167	0,1	0,010480
4,350833	0,1	0,040884
4,352500	0,1	0,007550
4,354167	0,1	0,053889
4,355833	0,1	0,038038
4,357500	0,1	0,051973
4,359167	0,1	0,034952
4,360833	0,1	0,036303
4,362500	0,1	0,041312
4,364167	0,1	0,079655
4,365833	0,1	0,020672
4,367500	0,1	0,042118
4,369167	0,1	0,026614
4,370833	0,1	0,044564
4,372500	0,1	0,057685
4,374167	0,1	-0,026127
4,375833	0,1	0,062446
4,377500	0,1	0,014337
4,379167	0,1	0,033191
4,380833	0,1	-0,028176
4,382500	0,1	0,020257
4,384167	0,1	0,036639
4,385833	0,1	0,010754
4,387500	0,1	0,050563
4,389167	0,1	-0,005972
4,390833	0,1	0,026142
4,392500	0,1	0,029346
4,394167	0,1	0,047711
4,395833	0,1	0,050051
4,397500	0,1	0,019042
4,399167	0,1	0,079300
4,400833	0,1	0,041262
4,402500	0,1	-0,010623
4,404167	0,1	0,046320
4,405833	0,1	0,043747
4,407500	0,1	-0,011556
4,409167	0,1	0,067931
4,410833	0,1	0,014329
4,412500	0,1	0,037568
4,414167	0,1	-0,014711
4,415833	0,1	0,013476
4,417500	0,1	0,021589
4,419167	0,1	0,029405
4,420833	0,1	-0,009996
4,422500	0,1	0,054053
4,424167	0,1	-0,008768
4,425833	0,1	0,015813
4,427500	0,1	0,043981
4,429167	0,1	0,024390
4,430833	0,1	0,050166
4,432500	0,1	0,028540
4,434167	0,1	0,029467
4,435833	0,1	0,023877
4,437500	0,1	0,039253
4,439167	0,1	0,031854
4,440833	0,1	0,019158
4,442500	0,1	-0,006842
4,444167	0,1	0,012195
4,445833	0,1	0,046897
4,447500	0,1	0,026726
4,449167	0,1	0,053713
4,450833	0,1	0,029522
4,452500	0,1	0,073179
4,454167	0,1	0,008780
4,455833	0,1	0,039722
4,457500	0,1	0,043383
4,459167	0,1	0,052313
4,460833	0,1	0,017652
4,462500	0,1	0,021659
4,464167	0,1	0,017464
4,465833	0,1	0,032960
4,467500	0,1	0,011756
4,469167	0,1	0,028301
4,470833	0,1	0,031280
4,472500	0,1	0,027424
4,474167	0,1	0,010072
4,475833	0,1	-0,000664
4,477500	0,1	0,027645
4,479167	0,1	0,053773
4,480833	0,1	0,045672
4,482500	0,1	0,023400
4,484167	0,1	0,047722
4,485833	0,1	0,009204
4,487500	0,1	0,011859
4,489167	0,1	0,023753
4,490833	0,1	0,016763
4,492500	0,1	0,039263
4,494167	0,1	-0,000837
4,495833	0,1	0,065138
4,497500	0,1	0,002486
4,499167	0,1	0,024151
4,500833	0,1	0,004641
4,502500	0,1	0,008531
4,504167	0,1	0,010997
4,505833	0,1	0,036056
4,507500	0,1	0,018497
4,509167	0,1	-0,005680
4,510833	0,1	0,025853
4,512500	0,1	-0,020375
4,514167	0,1	0,034293
4,515833	0,1	0,018969
4,517500	0,1	-0,014014
4,519167	0,1	0,019788
4,520833	0,1	0,008065
4,522500	0,1	0,015817
4,524167	0,1	0,031557
4,525833	0,1	0,002078
4,527500	0,1	0,022938
4,529167	0,1	0,024626
4,530833	0,1	0,012094
4,532500	0,1	-0,004650
4,534167	0,1	-0,000908
4,535833	0,1	-0,004923
4,537500	0,1	0,056670
4,539167	0,1	0,005530
4,540833	0,1	0,007080
4,542500	0,1	0,022457
4,544167	0,1	0,004348
4,545833	0,1	-0,002758
4,547500	0,1	0,000947
4,549167	0,1	0,034178
4,550833	0,1	0,006967
4,552500	0,1	0,003803
4,554167	0,1	-0,009582
4,555833	0,1	-0,016597
4,557500	0,1	-0,005399
4,559167	0,1	-0,001489
4,560833	0,1	0,023979
4,562500	0,1	0,028765
4,564167	0,1	0,005744
4,565833	0,1	0,020705
4,567500	0,1	0,009297
4,569167	0,1	0,012732
4,570833	0,1	0,022459
4,572500	0,1	0,023514
4,574167	0,1	0,042049
4,575833	0,1	0,016596
4,577500	0,1	-0,011671
4,579167	0,1	0,013608
4,580833	0,1	0,005900
4,582500	0,1	-0,003358
4,584167	0,1	0,003872
4,585833	0,1	-0,014610
4,587500	0,1	0,026540
4,589167	0,1	0,000493
4,590833	0,1	-0,013198
4,592500	0,1	0,004400
4,594167	0,1	-0,018566
4,595833	0,1	-0,013374
4,597500	0,1	0,005754
4,599167	0,1	-0,030908
4,600833	0,1	0,016798
4,602500	0,1	0,006722
4,604167	0,1	0,020145
4,605833	0,1	-0,010219
4,607500	0,1	-0,007970
4,609167	0,1	-0,024560
4,610833	0,1	0,012082
4,612500	0,1	0,016408
4,614167	0,1	-0,000382
4,615833	0,1	-0,003471
4,617500	0,1	0,021524
4,619167	0,1	-0,004517
4,620833	0,1	-0,020251
4,622500	0,1	0,012433
4,624167	0,1	0,023051
4,625833	0,1	-0,004748
4,627500	0,1	0,013430
4,629167	0,1	0,025325
4,630833	0,1	-0,011849
4,632500	0,1	0,017564
4,634167	0,1	0,010690
4,635833	0,1	-0,017803
4,637500	0,1	-0,005279
4,639167	0,1	0,023047
4,640833	0,1	-0,024203
4,642500	0,1	-0,004639
4,644167	0,1	-0,010233
4,645833	0,1	-0,003013
4,647500	0,1	0,056331
4,649167	0,1	0,015476
4,650833	0,1	-0,009227
4,652500	0,1	0,015692
4,654167	0,1	-0,011350
4,655833	0,1	0,002116
4,657500	0,1	0,004916
4,659167	0,1	0,014242
4,660833	0,1	-0,007083
4,662500	0,1	0,031891
4,664167	0,1	0,013547
4,665833	0,1	0,000430
4,667500	0,1	0,000728
4,669167	0,1	-0,039956
4,670833	0,1	0,028147
4,672500	0,1	0,010882
4,674167	0,1	0,013021
4,675833	0,1	-0,041277
4,677500	0,1	0,014231
4,679167	0,1	0,028871
4,680833	0,1	0,012456
4,682500	0,1	-0,011451
4,684167	0,1	0,010111
4,685833	0,1	-0,028163
4,687500	0,1	-0,031328
4,689167	0,1	-0,002477
4,690833	0,1	-0,005816
4,692500	0,1	-0,013671
4,694167	0,1	0,026350
4,695833	0,1	0,017985
4,697500	0,1	0,007484
4,699167	0,1	0,041744
4,700833	0,1	0,030960
4,702500	0,1	0,004811
4,704167	0,1	0,009633
4,705833	0,1	-0,000844
4,707500	0,1	0,011847
4,709167	0,1	0,003235
4,710833	0,1	0,046581
4,712500	0,1	-0,005332
4,714167	0,1	0,036802
4,715833	0,1	-0,014771
4,717500	0,1	0,018205
4,719167	0,1	-0,047293
4,720833	0,1	0,004964
4,722500	0,1	0,000188
4,724167	0,1	0,002992
4,725833	0,1	0,002351
4,727500	0,1	-0,020891
4,729167	0,1	-0,028950
4,730833	0,1	-0,035123
4,732500	0,1	-0,044392
4,734167	0,1	0,034288
4,735833	0,1	-0,023519
4,737500	0,1	0,021520
4,739167	0,1	-0,000501
4,740833	0,1	0,001017
4,742500	0,1	-0,016995
4,744167	0,1	0,004029
4,745833	0,1	0,014482
4,747500	0,1	-0,001144
4,749167	0,1	0,000246
4,750833	0,1	-0,029346
4,752500	0,1	0,012310
4,754167	0,1	-0,017121
4,755833	0,1	-0,022658
4,757500	0,1	-0,021950
4,759167	0,1	-0,010358
4,760833	0,1	-0,022348
4,762500	0,1	-0,016949
4,764167	0,1	0,004279
4,765833	0,1	-0,034654
4,767500	0,1	-0,001385
4,769167	0,1	-0,020843
4,770833	0,1	0,038712
4,772500	0,1	0,022877
4,774167	0,1	-0,041233
4,775833	0,1	-0,003189
4,777500	0,1	-0,009944
4,779167	0,1	-0,019622
4,780833	0,1	-0,009888
4,782500	0,1	-0,026383
4,784167	0,1	-0,007385
4,785833	0,1	-0,040137
4,787500	0,1	-0,046965
4,789167	0,1	-0,012358
4,790833	0,1	-0,025161
4,792500	0,1	-0,039902
4,794167	0,1	0,020414
4,795833	0,1	-0,037856
4,797500	0,1	-0,014909
4,799167	0,1	-0,017640
4,800833	0,1	-0,022538
4,802500	0,1	-0,068391
4,804167	0,1	-0,000691
4,805833	0,1	0,016516
4,807500	0,1	-0,015578
4,809167	0,1	0,022524
4,810833	0,1	-0,031256
4,812500	0,1	-0,029304
4,814167	0,1	0,015748
4,815833	0,1	-0,039960
4,817500	0,1	-0,029536
4,819167	0,1	-0,011132
4,820833	0,1	-0,016297
4,822500	0,1	-0,017821
4,824167	0,1	-0,033857
4,825833	0,1	-0,000454
4,827500	0,1	-0,006797
4,829167	0,1	-0,043632
4,830833	0,1	-0,018989
4,832500	0,1	-0,030172
4,834167	0,1	-0,023133
4,835833	0,1	0,007995
4,837500	0,1	-0,031380
4,839167	0,1	-0,045963
4,840833	0,1	0,004203
4,842500	0,1	0,001410
4,844167	0,1	-0,048529
4,845833	0,1	-0,021083
4,847500	0,1	-0,029651
4,849167	0,1	-0,024696
4,850833	0,1	-0,032037
4,852500	0,1	-0,026328
4,854167	0,1	-0,033911
4,855833	0,1	-0,037579
4,857500	0,1	-0,046725
4,859167	0,1	-0,024168
4,860833	0,1	0,007703
4,862500	0,1	-0,059007
4,864167	0,1	0,011602
4,865833	0,1	-0,015479
4,867500	0,1	-0,026856
4,869167	0,1	-0,052502
4,870833	0,1	-0,025872
4,872500	0,1	-0,030875
4,874167	0,1	0,003165
4,875833	0,1	0,034738
4,877500	0,1	-0,008772
4,879167	0,1	-0,011888
4,880833	0,1	-0,022016
4,882500	0,1	-0,033779
4,884167	0,1	-0,055889
4,885833	0,1	-0,012870
4,887500	0,1	-0,042351
4,889167	0,1	-0,012578
4,890833	0,1	-0,005467
4,892500	0,1	-0,003702
4,894167	0,1	-0,020723
4,895833	0,1	-0,019093
4,897500	0,1	-0,037625
4,899167	0,1	-0,016713
4,900833	0,1	0,003157
4,902500	0,1	-0,034996
4,904167	0,1	-0,025868
4,905833	0,1	-0,036816
4,907500	0,1	-0,054478
4,909167	0,1	-0,005657
4,910833	0,1	-0,062283
4,912500	0,1	-0,046671
4,914167	0,1	-0,031231
4,915833	0,1	-0,021840
4,917500	0,1	0,010500
4,919167	0,1	-0,021549
4,920833	0,1	-0,040831
4,922500	0,1	-0,051393
4,924167	0,1	-0,016255
4,925833	0,1	-0,008604
4,927500	0,1	-0,039504
4,929167	0,1	-0,082968
4,930833	0,1	-0,026872
4,932500	0,1	-0,042005
4,934167	0,1	-0,003962
4,935833	0,1	-0,047999
4,937500	0,1	-0,018068
4,939167	0,1	-0,043755
4,940833	0,1	-0,053130
4,942500	0,1	-0,026914
4,944167	0,1	-0,022251
4,945833	0,1	0,021448
4,947500	0,1	-0,008023
4,949167	0,1	-0,015655
4,950833	0,1	-0,050045
4,952500	0,1	0,001857
4,954167	0,1	-0,019800
4,955833	0,1	-0,024233
4,957500	0,1	-0,045158
4,959167	0,1	-0,081703
4,960833	0,1	-0,063756
4,962500	0,1	0,001634
4,964167	0,1	-0,033372
4,965833	0,1	-0,029073
4,967500	0,1	-0,017764
4,969167	0,1	-0,063381
4,970833	0,1	-0,024824
4,972500	0,1	-0,031226
4,974167	0,1	-0,038160
4,975833	0,1	-0,034015
4,977500	0,1	-0,019396
4,979167	0,1	-0,022017
4,980833	0,1	-0,002664
4,982500	0,1	-0,035818
4,984167	0,1	-0,053016
4,985833	0,1	0,014568
4,987500	0,1	-0,001954
4,989167	0,1	-0,021544
4,990833	0,1	-0,004647
4,992500	0,1	-0,029759
4,994167	0,1	-0,053947
4,995833	0,1	-0,031053
4,997500	0,1	-0,073598
4,999167	0,1	-0,042084
5,000833	0,1	-0,041615
5,002500	0,1	-0,033914
5,004167	0,1	-0,027090
5,005833	0,1	-0,055818
5,007500	0,1	-0,038004
5,009167	0,1	-0,052565
5,010833	0,1	-0,015754
5,012500	0,1	-0,028258
5,014167	0,1	-0,043006
5,015833	0,1	-0,056131
5,017500	0,1	-0,032404
5,019167	0,1	-0,065435
5,020833	0,1	-0,035072
5,022500	0,1	-0,019287
5,024167	0,1	-0,070091
5,025833	0,1	-0,036014
5,027500	0,1	-0,028672
5,029167	0,1	0,001390
5,030833	0,1	-0,011594
5,032500	0,1	-0,043292
5,034167	0,1	-0,009662
5,035833	0,1	-0,077141
5,037500	0,1	-0,030546
5,039167	0,1	-0,035603
5,040833	0,1	-0,018595
5,042500	0,1	-0,063099
5,044167	0,1	-0,056580
5,045833	0,1	-0,072851
5,047500	0,1	-0,031298
5,049167	0,1	-0,058555
5,050833	0,1	-0,035321
5,052500	0,1	-0,040965
5,054167	0,1	-0,016965
5,055833	0,1	-0,032394
5,057500	0,1	-0,039544
5,059167	0,1	-0,053778
5,060833	0,1	-0,035721
5,062500	0,1	0,003925
5,064167	0,1	-0,061872
5,065833	0,1	-0,058580
5,067500	0,1	-0,004075
5,069167	0,1	-0,043290
5,070833	0,1	-0,022255
5,072500	0,1	-0,057570
5,074167	0,1	-0,028730
5,075833	0,1	-0,071203
5,077500	0,1	-0,014276
5,079167	0,1	-0,048763
5,080833	0,1	-0,041437
5,082500	0,1	-0,012045
5,084167	0,1	-0,033094
5,085833	0,1	-0,052733
5,087500	0,1	-0,037250
5,089167	0,1	-0,025227
5,090833	0,1	-0,055697
5,092500	0,1	-0,020214
5,094167	0,1	-0,050106
5,095833	0,1	-0,066140
5,097500	0,1	-0,057348
5,099167	0,1	-0,061714
5,100833	0,1	-0,074187
5,102500	0,1	-0,036667
5,104167	0,1	-0,047144
5,105833	0,1	-0,032642
5,107500	0,1	-0,050528
5,109167	0,1	0,001457
5,110833	0,1	-0,065828
5,112500	0,1	-0,064921
5,114167	0,1	-0,028690
5,115833	0,1	-0,024655
5,117500	0,1	-0,055288
5,119167	0,1	-0,054303
5,120833	0,1	-0,023327
5,122500	0,1	-0,049645
5,124167	0,1	-0,020854
5,125833	0,1	-0,039619
5,127500	0,1	-0,023946
5,129167	0,1	-0,058501
5,130833	0,1	-0,037244
5,132500	0,1	-0,048307
5,134167	0,1	-0,051353
5,135833	0,1	-0,029778
5,137500	0,1	-0,054314
5,139167	0,1	-0,029490
5,140833	0,1	-0,069759
5,142500	0,1	-0,047152
5,144167	0,1	-0,035959
5,145833	0,1	-0,058095
5,147500	0,1	-0,001050
5,149167	0,1	-0,004883
5,150833	0,1	-0,039102
5,152500	0,1	-0,041889
5,154167	0,1	-0,041728
5,155833	0,1	-0,009973
5,157500	0,1	0,003851
5,159167	0,1	-0,058307
5,160833	0,1	-0,010026
5,162500	0,1	-0,047839
5,164167	0,1	-0,025230
5,165833	0,1	-0,070459
5,167500	0,1	-0,049889
5,169167	0,1	-0,058327
5,170833	0,1	-0,057269
5,172500	0,1	-0,036303
5,174167	0,1	-0,045093
5,175833	0,1	-0,069344
5,177500	0,1	-0,031586
5,179167	0,1	-0,051169
5,180833	0,1	-0,074936
5,182500	0,1	-0,048248
5,184167	0,1	-0,042891
5,185833	0,1	-0,051284
5,187500	0,1	-0,049183
5,189167	0,1	-0,040035
5,190833	0,1	-0,060548
5,192500	0,1	-0,033747
5,194167	0,1	-0,051282
5,195833	0,1	-0,034787
5,197500	0,1	-0,047725
5,199167	0,1	-0,073303
5,200833	0,1	-0,042196
5,202500	0,1	-0,040836
5,204167	0,1	-0,047317
5,205833	0,1	-0,029488
5,207500	0,1	-0,043056
5,209167	0,1	-0,038462
5,210833	0,1	-0,074770
5,212500	0,1	-0,032228
5,214167	0,1	-0,058563
5,215833	0,1	-0,052612
5,217500	0,1	-0,065552
5,219167	0,1	-0,026816
5,220833	0,1	-0,036655
5,222500	0,1	-0,083617
5,224167	0,1	-0,053157
5,225833	0,1	-0,016948
5,227500	0,1	-0,021908
5,229167	0,1	-0,016821
5,230833	0,1	-0,012692
5,232500	0,1	-0,061182
5,234167	0,1	-0,060954
5,235833	0,1	-0,012422
5,237500	0,1	-0,053200
5,239167	0,1	-0,043713
5,240833	0,1	-0,037061
5,242500	0,1	-0,049008
5,244167	0,1	-0,040387
5,245833	0,1	-0,066729
5,247500	0,1	-0,060068
5,249167	0,1	-0,015687
5,250833	0,1	-0,030924
5,252500	0,1	-0,055477
5,254167	0,1	-0,040089
5,255833	0,1	-0,025179
5,257500	0,1	-0,048603
5,259167	0,1	-0,051807
5,260833	0,1	-0,081877
5,262500	0,1	-0,057524
5,264167	0,1	-0,078322
5,265833	0,1	-0,058686
5,267500	0,1	0,002036
5,269167	0,1	-0,037159
5,270833	0,1	-0,036256
5,272500	0,1	-0,026329
5,274167	0,1	-0,059544
5,275833	0,1	-0,075459
5,277500	0,1	-0,046744
5,279167	0,1	-0,041778
5,280833	0,1	-0,053257
5,282500	0,1	-0,034438
5,284167	0,1	-0,023363
5,285833	0,1	-0,019626
5,287500	0,1	-0,079707
5,289167	0,1	-0,059387
5,290833	0,1	-0,063169
5,292500	0,1	-0,018541
5,294167	0,1	-0,078083
5,295833	0,1	-0,072029
5,297500	0,1	-0,056469
5,299167	0,1	-0,046508
5,300833	0,1	-0,047600
5,302500	0,1	-0,049644
5,304167	0,1	-0,085773
5,305833	0,1	-0,054440
5,307500	0,1	-0,063287
5,309167	0,1	-0,021968
5,310833	0,1	-0,058620
5,312500	0,1	-0,063937
5,314167	0,1	-0,032807
5,315833	0,1	-0,057221
5,317500	0,1	-0,063647
5,319167	0,1	-0,029132
5,320833	0,1	-0,079657
5,322500	0,1	-0,042709
5,324167	0,1	-0,016244
5,325833	0,1	-0,053842
5,327500	0,1	-0,070561
5,329167	0,1	-0,043947
5,330833	0,1	-0,048199
5,332500	0,1	-0,071388
5,334167	0,1	-0,049308
5,335833	0,1	-0,034096
5,337500	0,1	-0,042195
5,339167	0,1	-0,018828
5,340833	0,1	-0,077133
5,342500	0,1	-0,069242
5,344167	0,1	-0,080540
5,345833	0,1	-0,035607
5,347500	0,1	-0,066428
5,349167	0,1	-0,043117
5,350833	0,1	-0,060249
5,352500	0,1	-0,041380
5,354167	0,1	-0,048889
5,355833	0,1	-0,059320
5,357500	0,1	-0,056646
5,359167	0,1	-0,053380
5,360833	0,1	-0,043354
5,362500	0,1	-0,041890
5,364167	0,1	-0,070566
5,365833	0,1	-0,075940
5,367500	0,1	-0,042137
5,369167	0,1	-0,076976
5,370833	0,1	-0,069285
5,372500	0,1	-0,056419
5,374167	0,1	-0,062228
5,375833	0,1	-0,066562
5,377500	0,1	-0,026527
5,379167	0,1	-0,067596
5,380833	0,1	-0,027038
5,382500	0,1	-0,051963
5,384167	0,1	-0,036661
5,385833	0,1	-0,055411
5,387500	0,1	-0,066031
5,389167	0,1	-0,099411
5,390833	0,1	-0,052228
5,392500	0,1	-0,026805
5,394167	0,1	-0,051502
5,395833	0,1	-0,059278
5,397500	0,1	-0,041672
5,399167	0,1	-0,012177
5,400833	0,1	-0,067645
5,402500	0,1	-0,054323
5,404167	0,1	-0,076278
5,405833	0,1	-0,088755
5,407500	0,1	-0,035216
5,409167	0,1	-0,052504
5,410833	0,1	-0,052798
5,412500	0,1	-0,060670
5,414167	0,1	-0,064219
5,415833	0,1	-0,048655
5,417500	0,1	-0,053209
5,419167	0,1	-0,075929
5,420833	0,1	-0,062711
5,422500	0,1	-0,010668
5,424167	0,1	-0,049642
5,425833	0,1	-0,050173
5,427500	0,1	-0,059729
5,429167	0,1	-0,055244
5,430833	0,1	-0,043133
5,432500	0,1	-0,031171
5,434167	0,1	-0,082497
5,435833	0,1	-0,075704
5,437500	0,1	-0,064754
5,439167	0,1	-0,053622
5,440833	0,1	-0,104960
5,442500	0,1	-0,065804
5,444167	0,1	-0,036305
5,445833	0,1	-0,046623
5,447500	0,1	-0,032863
5,449167	0,1	-0,049820
5,450833	0,1	-0,026163
5,452500	0,1	-0,050868
5,454167	0,1	-0,046097
5,455833	0,1	-0,018657
5,457500	0,1	-0,012992
5,459167	0,1	-0,036780
5,460833	0,1	-0,029845
5,462500	0,1	-0,046963
5,464167	0,1	-0,055772
5,465833	0,1	-0,048892
5,467500	0,1	-0,057045
5,469167	0,1	-0,052559
5,470833	0,1	-0,088690
5,472500	0,1	-0,003341
5,474167	0,1	-0,064026
5,475833	0,1	-0,009738
5,477500	0,1	-0,089447
5,479167	0,1	-0,043472
5,480833	0,1	-0,051514
5,482500	0,1	-0,045876
5,484167	0,1	-0,063592
5,485833	0,1	-0,032578
5,487500	0,1	-0,058974
5,489167	0,1	-0,080126
5,490833	0,1	-0,063695
5,492500	0,1	-0,075699
5,494167	0,1	-0,029083
5,495833	0,1	-0,096496
5,497500	0,1	-0,043826
5,499167	0,1	-0,063644
5,500833	0,1	-0,061247
5,502500	0,1	-0,082700
5,504167	0,1	-0,031248
5,505833	0,1	-0,072144
5,507500	0,1	-0,061837
5,509167	0,1	-0,057699
5,510833	0,1	-0,070101
5,512500	0,1	-0,062820
5,514167	0,1	-0,062888
5,515833	0,1	-0,046082
5,517500	0,1	-0,084550
5,519167	0,1	-0,094869
5,520833	0,1	-0,029680
5,522500	0,1	-0,040893
5,524167	0,1	-0,035965
5,525833	0,1	-0,068701
5,527500	0,1	-0,055017
5,529167	0,1	-0,046729
5,530833	0,1	-0,074526
5,532500	0,1	-0,050700
5,534167	0,1	-0,046225
5,535833	0,1	-0,002449
5,537500	0,1	-0,075917
5,539167	0,1	-0,056650
5,540833	0,1	-0,065560
5,542500	0,1	-0,074358
5,544167	0,1	-0,066438
5,545833	0,1	-0,067024
5,547500	0,1	-0,036714
5,549167	0,1	-0,058085
5,550833	0,1	-0,060492
5,552500	0,1	-0,065322
5,554167	0,1	-0,042314
5,555833	0,1	-0,103848
5,557500	0,1	-0,059281
5,559167	0,1	-0,079544
5,560833	0,1	-0,024348
5,562500	0,1	-0,065605
5,564167	0,1	-0,066024
5,565833	0,1	-0,079307
5,567500	0,1	-0,075294
5,569167	0,1	-0,073898
5,570833	0,1	-0,079667
5,572500	0,1	-0,089388
5,574167	0,1	-0,043644
5,575833	0,1	-0,070745
5,577500	0,1	-0,034742
5,579167	0,1	-0,075463
5,580833	0,1	-0,040102
5,582500	0,1	-0,041607
5,584167	0,1	-0,082173
5,585833	0,1	-0,075132
5,587500	0,1	-0,054317
5,589167	0,1	-0,033037
5,590833	0,1	-0,068872
5,592500	0,1	-0,070110
5,594167	0,1	-0,049998
5,595833	0,1	-0,078200
5,597500	0,1	-0,079841
5,599167	0,1	-0,095814
5,600833	0,1	-0,035739
5,602500	0,1	-0,053195
5,604167	0,1	-0,064576
5,605833	0,1	-0,077101
5,607500	0,1	-0,030376
5,609167	0,1	-0,054486
5,610833	0,1	-0,048431
5,612500	0,1	-0,060951
5,614167	0,1	-0,091479
5,615833	0,1	-0,060271
5,617500	0,1	-0,070049
5,619167	0,1	-0,046451
5,620833	0,1	-0,045234
5,622500	0,1	-0,063412
5,624167	0,1	-0,038295
5,625833	0,1	-0,109950
5,627500	0,1	-0,064925
5,629167	0,1	-0,085547
5,630833	0,1	-0,083337
5,632500	0,1	-0,051635
5,634167	0,1	-0,070920
5,635833	0,1	-0,054077
5,637500	0,1	-0,036370
5,639167	0,1	-0,079652
5,640833	0,1	-0,065097
5,642500	0,1	-0,036305
5,644167	0,1	-0,052392
5,645833	0,1	-0,060321
5,647500	0,1	-0,068066
5,649167	0,1	-0,075932
5,650833	0,1	-0,054557
5,652500	0,1	-0,040448
5,654167	0,1	-0,036247
5,655833	0,1	-0,099068
5,657500	0,1	-0,043373
5,659167	0,1	-0,060890
5,660833	0,1	-0,054673
5,662500	0,1	-0,082399
5,664167	0,1	-0,055260
5,665833	0,1	-0,050678
5,667500	0,1	-0,032053
5,669167	0,1	-0,050341
5,670833	0,1	-0,082910
5,672500	0,1	-0,060670
5,674167	0,1	-0,037174
5,675833	0,1	-0,068000
5,677500	0,1	-0,027450
5,679167	0,1	-0,048255
5,680833	0,1	-0,077671
5,682500	0,1	-0,068591
5,684167	0,1	-0,092308
5,685833	0,1	-0,058116
5,687500	0,1	-0,079783
5,689167	0,1	-0,068542
5,690833	0,1	-0,027349
5,692500	0,1	-0,085708
5,694167	0,1	-0,075996
5,695833	0,1	-0,060207
5,697500	0,1	-0,071792
5,699167	0,1	-0,074479
5,700833	0,1	-0,087643
5,702500	0,1	-0,083620
5,704167	0,1	-0,027162
5,705833	0,1	-0,089435
5,707500	0,1	-0,050013
5,709167	0,1	-0,070345
5,710833	0,1	-0,047134
5,712500	0,1	-0,050112
5,714167	0,1	-0,064569
5,715833	0,1	-0,060785
5,717500	0,1	-0,033218
5,719167	0,1	-0,082341
5,720833	0,1	-0,035386
5,722500	0,1	-0,082454
5,724167	0,1	-0,082808
5,725833	0,1	-0,026179
5,727500	0,1	-0,027388
5,729167	0,1	-0,079649
5,730833	0,1	-0,067891
5,732500	0,1	-0,104531
5,734167	0,1	-0,085453
5,735833	0,1	-0,071396
5,737500	0,1	-0,065102
5,739167	0,1	-0,039210
5,740833	0,1	-0,052625
5,742500	0,1	-0,041371
5,744167	0,1	-0,079593
5,745833	0,1	-0,031307
5,747500	0,1	-0,054015
5,749167	0,1	-0,051107
5,750833	0,1	-0,029137
5,752500	0,1	-0,057153
5,754167	0,1	-0,061894
5,755833	0,1	-0,068315
5,757500	0,1	-0,071847
5,759167	0,1	-0,062418
5,760833	0,1	-0,041159
5,762500	0,1	-0,085532
5,764167	0,1	-0,070928
5,765833	0,1	-0,065616
5,767500	0,1	-0,091845
5,769167	0,1	-0,070468
5,770833	0,1	-0,053556
5,772500	0,1	-0,012761
5,774167	0,1	-0,098764
5,775833	0,1	-0,048092
5,777500	0,1	-0,048771
5,779167	0,1	-0,048190
5,780833	0,1	-0,017247
5,782500	0,1	-0,074518
5,784167	0,1	-0,069002
5,785833	0,1	-0,064444
5,787500	0,1	-0,054315
5,789167	0,1	-0,051516
5,790833	0,1	-0,089689
5,792500	0,1	-0,043550
5,794167	0,1	-0,076634
5,795833	0,1	-0,028974
5,797500	0,1	-0,033620
5,799167	0,1	-0,058802
5,800833	0,1	-0,059100
5,802500	0,1	-0,062817
5,804167	0,1	-0,055527
5,805833	0,1	-0,077740
5,807500	0,1	-0,055421
5,809167	0,1	-0,037173
5,810833	0,1	-0,054538
5,812500	0,1	-0,063228
5,814167	0,1	-0,051159
5,815833	0,1	-0,043763
5,817500	0,1	-0,072499
5,819167	0,1	-0,044179
5,820833	0,1	-0,021161
5,822500	0,1	-0,045911
5,824167	0,1	-0,078781
5,825833	0,1	-0,014859
5,827500	0,1	-0,075518
5,829167	0,1	-0,060855
5,830833	0,1	-0,067657
5,832500	0,1	-0,016611
5,834167	0,1	-0,077083
5,835833	0,1	-0,052514
5,837500	0,1	-0,048902
5,839167	0,1	-0,046738
5,840833	0,1	-0,045847
5,842500	0,1	-0,074190
5,844167	0,1	-0,062137
5,845833	0,1	-0,081418
5,847500	0,1	-0,015400
5,849167	0,1	-0,069636
5,850833	0,1	-0,076693
5,852500	0,1	-0,020288
5,854167	0,1	-0,056739
5,855833	0,1	-0,077451
5,857500	0,1	-0,059968
5,859167	0,1	-0,046860
5,860833	0,1	-0,064405
5,862500	0,1	-0,073135
5,864167	0,1	-0,067650
5,865833	0,1	-0,035612
5,867500	0,1	-0,062240
5,869167	0,1	-0,055023
5,870833	0,1	-0,091201
5,872500	0,1	-0,068893
5,874167	0,1	-0,104481
5,875833	0,1	-0,094770
5,877500	0,1	-0,018950
5,879167	0,1	-0,066484
5,880833	0,1	-0,069050
5,882500	0,1	-0,076043
5,884167	0,1	-0,071507
5,885833	0,1	-0,076000
5,887500	0,1	-0,061369
5,889167	0,1	-0,087529
5,890833	0,1	-0,050943
5,892500	0,1	-0,086707
5,894167	0,1	-0,043643
5,895833	0,1	-0,063045
5,897500	0,1	-0,045167
5,899167	0,1	-0,069241
5,900833	0,1	-0,035904
5,902500	0,1	-0,061128
5,904167	0,1	-0,066544
5,905833	0,1	-0,034681
5,907500	0,1	-0,083796
5,909167	0,1	-0,064235
5,910833	0,1	-0,054322
5,912500	0,1	-0,065869
5,914167	0,1	-0,076752
5,915833	0,1	-0,052043
5,917500	0,1	-0,032823
5,919167	0,1	-0,029443
5,920833	0,1	-0,077667
5,922500	0,1	-0,055959
5,924167	0,1	-0,079716
5,925833	0,1	-0,050522
5,927500	0,1	-0,051406
5,929167	0,1	-0,078201
5,930833	0,1	-0,032360
5,932500	0,1	-0,062289
5,934167	0,1	-0,089443
5,935833	0,1	-0,073835
5,937500	0,1	-0,043948
5,939167	0,1	-0,052327
5,940833	0,1	-0,052456
5,942500	0,1	-0,039856
5,944167	0,1	-0,081343
5,945833	0,1	-0,064978
5,947500	0,1	-0,014807
5,949167	0,1	-0,068815
5,950833	0,1	-0,046162
5,952500	0,1	-0,062532
5,954167	0,1	-0,106984
5,955833	0,1	-0,091377
5,957500	0,1	-0,033814
5,959167	0,1	-0,041486
5,960833	0,1	-0,040974
5,962500	0,1	-0,046556
5,964167	0,1	-0,058968
5,965833	0,1	-0,077159
5,967500	0,1	-0,058334
5,969167	0,1	-0,103143
5,970833	0,1	-0,043817
5,972500	0,1	-0,050164
5,974167	0,1	-0,066542
5,975833	0,1	-0,077623
5,977500	0,1	-0,108096
5,979167	0,1	-0,062599
5,980833	0,1	-0,087932
5,982500	0,1	-0,060030
5,984167	0,1	-0,079083
5,985833	0,1	-0,035795
5,987500	0,1	-0,038390
5,989167	0,1	-0,031691
5,990833	0,1	-0,054836
5,992500	0,1	-0,034900
5,994167	0,1	-0,076924
5,995833	0,1	-0,079661
5,997500	0,1	-0,044632
5,999167	0,1	-0,096962
6,000833	0,1	-0,038817
