File Path	chrom://chromeleon01/ikbm_chromeleon/2022/Rezex/Esteban/220612_chitin_4_7.seq/518.smp/UV_VIS_1.channel/UV_VIS_1.chm
Channel	UV_VIS_1

Injection Information:
Data Vault	ikbm_chromeleon
Injection	Blank__05
Injection Number	38
Position	RE1
Comment	
Processing Method	New ProcMethod
Instrument Method	Short_Rezex_6min_194nm
Type	Blank
Status	Finished
Injection Date	12.06.2022
Injection Time	21:13:42
Injection Volume (µl)	8,000
Dilution Factor	1,0000
Weight	1,0000

Chromatogram Data Information:
Time Min. (min)	0,000833
Time Max. (min)	6,000833
Data Points	3601
Detector	UV
Generating Data System	Chromeleon 7.2.9.11323
Exporting Data System	Chromeleon 7.2.9.0
Operator	Instrument Controller
Signal Quantity	Absorbance
Signal Unit	mAU
Signal Min.	-0,287983
Signal Max.	2,107552
Channel	UV_VIS_1
Driver Name	VWD3000.dll
Channel Type	Evaluation
Min. Step (s)	0,1
Max. Step (s)	0,1
Average Step (s)	0,1

Signal Parameter Information:
Signal Info	WVL:194 nm

Chromatogram Data:
Time (min)	Step (s)	Value (mAU)
0,000833	n.a.	0,023127
0,002500	0,1	0,038590
0,004167	0,1	0,026032
0,005833	0,1	-0,018329
0,007500	0,1	0,029591
0,009167	0,1	0,033532
0,010833	0,1	0,050671
0,012500	0,1	0,023681
0,014167	0,1	-0,028185
0,015833	0,1	0,014966
0,017500	0,1	-0,009310
0,019167	0,1	0,005628
0,020833	0,1	-0,003194
0,022500	0,1	0,035684
0,024167	0,1	0,014305
0,025833	0,1	-0,018877
0,027500	0,1	0,007495
0,029167	0,1	-0,026388
0,030833	0,1	0,009332
0,032500	0,1	0,030499
0,034167	0,1	-0,014297
0,035833	0,1	-0,014311
0,037500	0,1	0,011874
0,039167	0,1	0,015524
0,040833	0,1	0,022900
0,042500	0,1	0,020130
0,044167	0,1	-0,022128
0,045833	0,1	0,027143
0,047500	0,1	0,009986
0,049167	0,1	-0,020167
0,050833	0,1	-0,011575
0,052500	0,1	0,012134
0,054167	0,1	-0,015044
0,055833	0,1	0,016771
0,057500	0,1	0,012914
0,059167	0,1	-0,037014
0,060833	0,1	0,009164
0,062500	0,1	0,011078
0,064167	0,1	0,000672
0,065833	0,1	0,026988
0,067500	0,1	-0,002834
0,069167	0,1	-0,006706
0,070833	0,1	-0,046453
0,072500	0,1	-0,040376
0,074167	0,1	0,021245
0,075833	0,1	-0,058715
0,077500	0,1	0,004136
0,079167	0,1	-0,016335
0,080833	0,1	0,011876
0,082500	0,1	0,023706
0,084167	0,1	-0,046318
0,085833	0,1	0,016670
0,087500	0,1	0,044031
0,089167	0,1	0,033892
0,090833	0,1	-0,052304
0,092500	0,1	0,004330
0,094167	0,1	0,003763
0,095833	0,1	-0,044421
0,097500	0,1	-0,026813
0,099167	0,1	0,048594
0,100833	0,1	-0,013167
0,102500	0,1	0,010845
0,104167	0,1	-0,007315
0,105833	0,1	-0,056115
0,107500	0,1	-0,027912
0,109167	0,1	0,017864
0,110833	0,1	-0,016492
0,112500	0,1	0,008495
0,114167	0,1	-0,013049
0,115833	0,1	-0,024937
0,117500	0,1	0,000666
0,119167	0,1	0,006050
0,120833	0,1	-0,008569
0,122500	0,1	0,012520
0,124167	0,1	-0,019425
0,125833	0,1	-0,001845
0,127500	0,1	-0,010055
0,129167	0,1	-0,027449
0,130833	0,1	-0,054507
0,132500	0,1	-0,033129
0,134167	0,1	0,007780
0,135833	0,1	-0,039620
0,137500	0,1	-0,032709
0,139167	0,1	-0,052901
0,140833	0,1	-0,022470
0,142500	0,1	-0,027516
0,144167	0,1	-0,016922
0,145833	0,1	0,015741
0,147500	0,1	-0,053272
0,149167	0,1	-0,050457
0,150833	0,1	-0,052644
0,152500	0,1	-0,056737
0,154167	0,1	-0,019762
0,155833	0,1	-0,004454
0,157500	0,1	-0,015824
0,159167	0,1	-0,024069
0,160833	0,1	-0,012992
0,162500	0,1	-0,056919
0,164167	0,1	-0,046560
0,165833	0,1	-0,025621
0,167500	0,1	0,010909
0,169167	0,1	0,002669
0,170833	0,1	-0,052859
0,172500	0,1	-0,037382
0,174167	0,1	-0,039242
0,175833	0,1	-0,045720
0,177500	0,1	-0,020628
0,179167	0,1	-0,029252
0,180833	0,1	-0,019144
0,182500	0,1	-0,045551
0,184167	0,1	-0,042465
0,185833	0,1	-0,060083
0,187500	0,1	-0,085914
0,189167	0,1	-0,037677
0,190833	0,1	-0,032609
0,192500	0,1	-0,015955
0,194167	0,1	-0,056148
0,195833	0,1	0,005200
0,197500	0,1	0,006503
0,199167	0,1	-0,028313
0,200833	0,1	-0,055831
0,202500	0,1	-0,019730
0,204167	0,1	-0,029384
0,205833	0,1	-0,056892
0,207500	0,1	-0,081602
0,209167	0,1	-0,013202
0,210833	0,1	-0,044553
0,212500	0,1	-0,050130
0,214167	0,1	-0,020469
0,215833	0,1	-0,065136
0,217500	0,1	-0,041958
0,219167	0,1	-0,033451
0,220833	0,1	-0,035928
0,222500	0,1	-0,028744
0,224167	0,1	-0,054474
0,225833	0,1	-0,032905
0,227500	0,1	-0,041754
0,229167	0,1	-0,017214
0,230833	0,1	-0,070835
0,232500	0,1	-0,070875
0,234167	0,1	-0,016382
0,235833	0,1	-0,055695
0,237500	0,1	-0,035382
0,239167	0,1	-0,063685
0,240833	0,1	-0,073811
0,242500	0,1	-0,042955
0,244167	0,1	-0,039471
0,245833	0,1	-0,047036
0,247500	0,1	-0,040017
0,249167	0,1	-0,044076
0,250833	0,1	-0,022624
0,252500	0,1	-0,027968
0,254167	0,1	-0,016759
0,255833	0,1	-0,061654
0,257500	0,1	-0,011870
0,259167	0,1	-0,058496
0,260833	0,1	-0,020987
0,262500	0,1	-0,039142
0,264167	0,1	-0,042980
0,265833	0,1	-0,066105
0,267500	0,1	-0,037156
0,269167	0,1	-0,053704
0,270833	0,1	-0,048683
0,272500	0,1	-0,034900
0,274167	0,1	-0,040982
0,275833	0,1	-0,081179
0,277500	0,1	-0,038964
0,279167	0,1	-0,044491
0,280833	0,1	0,003786
0,282500	0,1	-0,037492
0,284167	0,1	-0,049420
0,285833	0,1	-0,029263
0,287500	0,1	-0,023909
0,289167	0,1	-0,026744
0,290833	0,1	-0,039595
0,292500	0,1	-0,024300
0,294167	0,1	-0,054251
0,295833	0,1	-0,033869
0,297500	0,1	-0,051937
0,299167	0,1	-0,038862
0,300833	0,1	-0,033673
0,302500	0,1	-0,043367
0,304167	0,1	-0,059280
0,305833	0,1	-0,042921
0,307500	0,1	-0,062531
0,309167	0,1	-0,012967
0,310833	0,1	-0,031282
0,312500	0,1	-0,025778
0,314167	0,1	-0,001138
0,315833	0,1	-0,033825
0,317500	0,1	-0,051579
0,319167	0,1	-0,054705
0,320833	0,1	-0,052645
0,322500	0,1	-0,091907
0,324167	0,1	-0,039350
0,325833	0,1	-0,033801
0,327500	0,1	-0,016344
0,329167	0,1	-0,018625
0,330833	0,1	-0,035536
0,332500	0,1	-0,030996
0,334167	0,1	-0,011702
0,335833	0,1	-0,018335
0,337500	0,1	-0,075632
0,339167	0,1	-0,044892
0,340833	0,1	-0,059892
0,342500	0,1	-0,044176
0,344167	0,1	-0,054802
0,345833	0,1	-0,033513
0,347500	0,1	-0,061954
0,349167	0,1	-0,083697
0,350833	0,1	-0,024246
0,352500	0,1	-0,031770
0,354167	0,1	-0,028970
0,355833	0,1	-0,056631
0,357500	0,1	-0,010712
0,359167	0,1	-0,013406
0,360833	0,1	0,003631
0,362500	0,1	-0,047803
0,364167	0,1	-0,021692
0,365833	0,1	-0,015021
0,367500	0,1	-0,020105
0,369167	0,1	-0,002233
0,370833	0,1	-0,057044
0,372500	0,1	-0,032806
0,374167	0,1	-0,038633
0,375833	0,1	-0,047552
0,377500	0,1	-0,065914
0,379167	0,1	-0,073231
0,380833	0,1	-0,019863
0,382500	0,1	-0,050960
0,384167	0,1	-0,047491
0,385833	0,1	-0,029711
0,387500	0,1	-0,050323
0,389167	0,1	-0,040662
0,390833	0,1	-0,059763
0,392500	0,1	-0,040183
0,394167	0,1	-0,021463
0,395833	0,1	-0,061754
0,397500	0,1	-0,038092
0,399167	0,1	-0,043043
0,400833	0,1	-0,028777
0,402500	0,1	-0,012314
0,404167	0,1	-0,014823
0,405833	0,1	-0,032023
0,407500	0,1	-0,043913
0,409167	0,1	-0,059989
0,410833	0,1	-0,049334
0,412500	0,1	-0,015319
0,414167	0,1	-0,053896
0,415833	0,1	-0,046912
0,417500	0,1	-0,017379
0,419167	0,1	-0,045582
0,420833	0,1	-0,064464
0,422500	0,1	-0,047367
0,424167	0,1	-0,082435
0,425833	0,1	-0,018448
0,427500	0,1	-0,072412
0,429167	0,1	0,004261
0,430833	0,1	-0,063164
0,432500	0,1	-0,074808
0,434167	0,1	-0,021860
0,435833	0,1	-0,048517
0,437500	0,1	-0,036188
0,439167	0,1	-0,017697
0,440833	0,1	-0,036853
0,442500	0,1	-0,058757
0,444167	0,1	-0,069684
0,445833	0,1	-0,055905
0,447500	0,1	-0,007171
0,449167	0,1	-0,065191
0,450833	0,1	-0,026946
0,452500	0,1	-0,034314
0,454167	0,1	-0,040206
0,455833	0,1	-0,043527
0,457500	0,1	-0,043080
0,459167	0,1	-0,077182
0,460833	0,1	-0,027397
0,462500	0,1	-0,059499
0,464167	0,1	-0,038992
0,465833	0,1	-0,044431
0,467500	0,1	-0,066977
0,469167	0,1	-0,036289
0,470833	0,1	-0,027712
0,472500	0,1	-0,047422
0,474167	0,1	-0,014700
0,475833	0,1	-0,069093
0,477500	0,1	-0,033129
0,479167	0,1	-0,035888
0,480833	0,1	-0,056280
0,482500	0,1	-0,038278
0,484167	0,1	-0,069482
0,485833	0,1	-0,040150
0,487500	0,1	-0,049776
0,489167	0,1	0,014509
0,490833	0,1	-0,059841
0,492500	0,1	-0,055287
0,494167	0,1	-0,070589
0,495833	0,1	-0,074584
0,497500	0,1	-0,014066
0,499167	0,1	-0,051603
0,500833	0,1	-0,062342
0,502500	0,1	-0,031618
0,504167	0,1	-0,057248
0,505833	0,1	-0,060539
0,507500	0,1	-0,060573
0,509167	0,1	-0,047657
0,510833	0,1	-0,064268
0,512500	0,1	-0,053647
0,514167	0,1	-0,054485
0,515833	0,1	-0,055030
0,517500	0,1	-0,066496
0,519167	0,1	-0,059345
0,520833	0,1	-0,078346
0,522500	0,1	-0,019315
0,524167	0,1	-0,041362
0,525833	0,1	-0,053577
0,527500	0,1	-0,080602
0,529167	0,1	-0,063021
0,530833	0,1	-0,059471
0,532500	0,1	-0,034514
0,534167	0,1	-0,070903
0,535833	0,1	-0,057286
0,537500	0,1	-0,017894
0,539167	0,1	-0,063170
0,540833	0,1	-0,038024
0,542500	0,1	-0,025588
0,544167	0,1	-0,061047
0,545833	0,1	-0,040567
0,547500	0,1	-0,038895
0,549167	0,1	-0,008000
0,550833	0,1	-0,019267
0,552500	0,1	-0,025775
0,554167	0,1	-0,031221
0,555833	0,1	-0,035244
0,557500	0,1	-0,054412
0,559167	0,1	-0,034837
0,560833	0,1	-0,026778
0,562500	0,1	0,009267
0,564167	0,1	-0,076491
0,565833	0,1	-0,031361
0,567500	0,1	-0,058176
0,569167	0,1	-0,019186
0,570833	0,1	-0,044524
0,572500	0,1	-0,046841
0,574167	0,1	-0,065653
0,575833	0,1	-0,063761
0,577500	0,1	-0,025497
0,579167	0,1	-0,009576
0,580833	0,1	-0,017335
0,582500	0,1	-0,026743
0,584167	0,1	0,005723
0,585833	0,1	-0,000967
0,587500	0,1	-0,007667
0,589167	0,1	-0,033502
0,590833	0,1	-0,030903
0,592500	0,1	-0,045810
0,594167	0,1	0,009004
0,595833	0,1	-0,038106
0,597500	0,1	-0,022850
0,599167	0,1	-0,018174
0,600833	0,1	-0,007931
0,602500	0,1	-0,037819
0,604167	0,1	-0,045975
0,605833	0,1	-0,035415
0,607500	0,1	-0,011736
0,609167	0,1	-0,026806
0,610833	0,1	-0,000655
0,612500	0,1	-0,014048
0,614167	0,1	-0,080368
0,615833	0,1	-0,033811
0,617500	0,1	-0,082721
0,619167	0,1	-0,025370
0,620833	0,1	-0,043656
0,622500	0,1	-0,013833
0,624167	0,1	0,000666
0,625833	0,1	-0,044130
0,627500	0,1	-0,026201
0,629167	0,1	-0,031801
0,630833	0,1	-0,002171
0,632500	0,1	0,009014
0,634167	0,1	-0,027672
0,635833	0,1	-0,058466
0,637500	0,1	-0,008972
0,639167	0,1	-0,041748
0,640833	0,1	-0,044205
0,642500	0,1	0,008713
0,644167	0,1	-0,015625
0,645833	0,1	0,022764
0,647500	0,1	0,002386
0,649167	0,1	-0,016783
0,650833	0,1	-0,006905
0,652500	0,1	-0,012117
0,654167	0,1	-0,009317
0,655833	0,1	-0,011989
0,657500	0,1	-0,028577
0,659167	0,1	-0,026422
0,660833	0,1	-0,030965
0,662500	0,1	-0,039497
0,664167	0,1	-0,029713
0,665833	0,1	0,025821
0,667500	0,1	-0,024255
0,669167	0,1	-0,057827
0,670833	0,1	0,003751
0,672500	0,1	-0,002096
0,674167	0,1	-0,014339
0,675833	0,1	0,019286
0,677500	0,1	-0,016459
0,679167	0,1	0,001604
0,680833	0,1	-0,029410
0,682500	0,1	0,050883
0,684167	0,1	0,010572
0,685833	0,1	0,034076
0,687500	0,1	-0,008017
0,689167	0,1	0,013875
0,690833	0,1	0,011336
0,692500	0,1	0,027378
0,694167	0,1	-0,033333
0,695833	0,1	0,021086
0,697500	0,1	-0,013562
0,699167	0,1	-0,045034
0,700833	0,1	-0,034127
0,702500	0,1	-0,021629
0,704167	0,1	-0,005034
0,705833	0,1	-0,012280
0,707500	0,1	0,057394
0,709167	0,1	0,008769
0,710833	0,1	-0,010664
0,712500	0,1	-0,006967
0,714167	0,1	0,013875
0,715833	0,1	-0,012983
0,717500	0,1	0,029241
0,719167	0,1	0,067421
0,720833	0,1	0,000012
0,722500	0,1	-0,039913
0,724167	0,1	0,016185
0,725833	0,1	-0,026735
0,727500	0,1	-0,038212
0,729167	0,1	-0,025976
0,730833	0,1	0,005980
0,732500	0,1	-0,023484
0,734167	0,1	0,006785
0,735833	0,1	0,019195
0,737500	0,1	0,030277
0,739167	0,1	-0,004669
0,740833	0,1	0,011267
0,742500	0,1	-0,006157
0,744167	0,1	-0,011828
0,745833	0,1	-0,009285
0,747500	0,1	0,013843
0,749167	0,1	-0,018746
0,750833	0,1	0,027465
0,752500	0,1	0,030310
0,754167	0,1	0,006381
0,755833	0,1	0,029081
0,757500	0,1	0,003545
0,759167	0,1	0,042129
0,760833	0,1	0,010923
0,762500	0,1	-0,013849
0,764167	0,1	0,038225
0,765833	0,1	0,044680
0,767500	0,1	0,019009
0,769167	0,1	0,005892
0,770833	0,1	0,010433
0,772500	0,1	0,037621
0,774167	0,1	-0,002443
0,775833	0,1	0,008175
0,777500	0,1	-0,025512
0,779167	0,1	0,041444
0,780833	0,1	0,013114
0,782500	0,1	-0,001968
0,784167	0,1	-0,009378
0,785833	0,1	-0,001231
0,787500	0,1	0,013780
0,789167	0,1	-0,044580
0,790833	0,1	0,009261
0,792500	0,1	0,010076
0,794167	0,1	0,060942
0,795833	0,1	0,023782
0,797500	0,1	0,010272
0,799167	0,1	0,032660
0,800833	0,1	0,026350
0,802500	0,1	0,023773
0,804167	0,1	0,031084
0,805833	0,1	-0,005185
0,807500	0,1	0,031205
0,809167	0,1	0,025384
0,810833	0,1	0,027991
0,812500	0,1	0,002192
0,814167	0,1	0,003054
0,815833	0,1	-0,008797
0,817500	0,1	0,011587
0,819167	0,1	0,023383
0,820833	0,1	0,030729
0,822500	0,1	0,017041
0,824167	0,1	0,042325
0,825833	0,1	0,030701
0,827500	0,1	0,042810
0,829167	0,1	-0,021575
0,830833	0,1	0,006398
0,832500	0,1	0,034592
0,834167	0,1	0,009023
0,835833	0,1	0,021610
0,837500	0,1	0,049349
0,839167	0,1	0,083115
0,840833	0,1	0,046915
0,842500	0,1	0,010796
0,844167	0,1	0,023318
0,845833	0,1	0,029376
0,847500	0,1	-0,001964
0,849167	0,1	0,042158
0,850833	0,1	0,050028
0,852500	0,1	0,035792
0,854167	0,1	0,018881
0,855833	0,1	0,054146
0,857500	0,1	0,038950
0,859167	0,1	0,055117
0,860833	0,1	0,025422
0,862500	0,1	0,027380
0,864167	0,1	0,097703
0,865833	0,1	0,016574
0,867500	0,1	0,036042
0,869167	0,1	0,079053
0,870833	0,1	0,037475
0,872500	0,1	0,040170
0,874167	0,1	0,048838
0,875833	0,1	0,031638
0,877500	0,1	0,072575
0,879167	0,1	0,043013
0,880833	0,1	0,073931
0,882500	0,1	0,050874
0,884167	0,1	0,051126
0,885833	0,1	0,033893
0,887500	0,1	0,049029
0,889167	0,1	0,068650
0,890833	0,1	0,120135
0,892500	0,1	0,029947
0,894167	0,1	0,024804
0,895833	0,1	0,024416
0,897500	0,1	0,044226
0,899167	0,1	0,090167
0,900833	0,1	0,019857
0,902500	0,1	0,054146
0,904167	0,1	0,037115
0,905833	0,1	0,102248
0,907500	0,1	0,069662
0,909167	0,1	0,081154
0,910833	0,1	0,080254
0,912500	0,1	0,088149
0,914167	0,1	0,057224
0,915833	0,1	0,059954
0,917500	0,1	0,060921
0,919167	0,1	0,086146
0,920833	0,1	0,059994
0,922500	0,1	0,049357
0,924167	0,1	0,076703
0,925833	0,1	0,027488
0,927500	0,1	0,070095
0,929167	0,1	0,043562
0,930833	0,1	0,087397
0,932500	0,1	0,073975
0,934167	0,1	0,075197
0,935833	0,1	0,108733
0,937500	0,1	0,050013
0,939167	0,1	0,106891
0,940833	0,1	0,078650
0,942500	0,1	0,057575
0,944167	0,1	0,058312
0,945833	0,1	0,087207
0,947500	0,1	0,071107
0,949167	0,1	0,095235
0,950833	0,1	0,123234
0,952500	0,1	0,093120
0,954167	0,1	0,101876
0,955833	0,1	0,135864
0,957500	0,1	0,100629
0,959167	0,1	0,124203
0,960833	0,1	0,076592
0,962500	0,1	0,107444
0,964167	0,1	0,100334
0,965833	0,1	0,075138
0,967500	0,1	0,144558
0,969167	0,1	0,108717
0,970833	0,1	0,069824
0,972500	0,1	0,160732
0,974167	0,1	0,130632
0,975833	0,1	0,100208
0,977500	0,1	0,144309
0,979167	0,1	0,109587
0,980833	0,1	0,117794
0,982500	0,1	0,139384
0,984167	0,1	0,097119
0,985833	0,1	0,100168
0,987500	0,1	0,148427
0,989167	0,1	0,121028
0,990833	0,1	0,090316
0,992500	0,1	0,151201
0,994167	0,1	0,132010
0,995833	0,1	0,140576
0,997500	0,1	0,103563
0,999167	0,1	0,147208
1,000833	0,1	0,122796
1,002500	0,1	0,148468
1,004167	0,1	0,120189
1,005833	0,1	0,129654
1,007500	0,1	0,158719
1,009167	0,1	0,182340
1,010833	0,1	0,121195
1,012500	0,1	0,165835
1,014167	0,1	0,141747
1,015833	0,1	0,153081
1,017500	0,1	0,163431
1,019167	0,1	0,160531
1,020833	0,1	0,173094
1,022500	0,1	0,168944
1,024167	0,1	0,139814
1,025833	0,1	0,158783
1,027500	0,1	0,151443
1,029167	0,1	0,157565
1,030833	0,1	0,164490
1,032500	0,1	0,171001
1,034167	0,1	0,187888
1,035833	0,1	0,170302
1,037500	0,1	0,196970
1,039167	0,1	0,163020
1,040833	0,1	0,167008
1,042500	0,1	0,202942
1,044167	0,1	0,206681
1,045833	0,1	0,198852
1,047500	0,1	0,212285
1,049167	0,1	0,185450
1,050833	0,1	0,207161
1,052500	0,1	0,199048
1,054167	0,1	0,163471
1,055833	0,1	0,178575
1,057500	0,1	0,194111
1,059167	0,1	0,228078
1,060833	0,1	0,176751
1,062500	0,1	0,225660
1,064167	0,1	0,209429
1,065833	0,1	0,232332
1,067500	0,1	0,235372
1,069167	0,1	0,197576
1,070833	0,1	0,246088
1,072500	0,1	0,218581
1,074167	0,1	0,189869
1,075833	0,1	0,213222
1,077500	0,1	0,237973
1,079167	0,1	0,220838
1,080833	0,1	0,252446
1,082500	0,1	0,248752
1,084167	0,1	0,256132
1,085833	0,1	0,227390
1,087500	0,1	0,226506
1,089167	0,1	0,251447
1,090833	0,1	0,226868
1,092500	0,1	0,225377
1,094167	0,1	0,193353
1,095833	0,1	0,230851
1,097500	0,1	0,259835
1,099167	0,1	0,225615
1,100833	0,1	0,245749
1,102500	0,1	0,250845
1,104167	0,1	0,249491
1,105833	0,1	0,249622
1,107500	0,1	0,270827
1,109167	0,1	0,274914
1,110833	0,1	0,243854
1,112500	0,1	0,249778
1,114167	0,1	0,263315
1,115833	0,1	0,288879
1,117500	0,1	0,268865
1,119167	0,1	0,284909
1,120833	0,1	0,271994
1,122500	0,1	0,254884
1,124167	0,1	0,277144
1,125833	0,1	0,246310
1,127500	0,1	0,280653
1,129167	0,1	0,298749
1,130833	0,1	0,241159
1,132500	0,1	0,260643
1,134167	0,1	0,290813
1,135833	0,1	0,315025
1,137500	0,1	0,252730
1,139167	0,1	0,348108
1,140833	0,1	0,299662
1,142500	0,1	0,294755
1,144167	0,1	0,306937
1,145833	0,1	0,317374
1,147500	0,1	0,286089
1,149167	0,1	0,318986
1,150833	0,1	0,322702
1,152500	0,1	0,285540
1,154167	0,1	0,310092
1,155833	0,1	0,276483
1,157500	0,1	0,329550
1,159167	0,1	0,340074
1,160833	0,1	0,302920
1,162500	0,1	0,298202
1,164167	0,1	0,284085
1,165833	0,1	0,288659
1,167500	0,1	0,310738
1,169167	0,1	0,336398
1,170833	0,1	0,337086
1,172500	0,1	0,323996
1,174167	0,1	0,317455
1,175833	0,1	0,291573
1,177500	0,1	0,341169
1,179167	0,1	0,346561
1,180833	0,1	0,317552
1,182500	0,1	0,327112
1,184167	0,1	0,383820
1,185833	0,1	0,328560
1,187500	0,1	0,362926
1,189167	0,1	0,321135
1,190833	0,1	0,340885
1,192500	0,1	0,357352
1,194167	0,1	0,327290
1,195833	0,1	0,379175
1,197500	0,1	0,394530
1,199167	0,1	0,343285
1,200833	0,1	0,336509
1,202500	0,1	0,331601
1,204167	0,1	0,324482
1,205833	0,1	0,414861
1,207500	0,1	0,360762
1,209167	0,1	0,394709
1,210833	0,1	0,344286
1,212500	0,1	0,368614
1,214167	0,1	0,397318
1,215833	0,1	0,361509
1,217500	0,1	0,357566
1,219167	0,1	0,373934
1,220833	0,1	0,369463
1,222500	0,1	0,359844
1,224167	0,1	0,391013
1,225833	0,1	0,381811
1,227500	0,1	0,400795
1,229167	0,1	0,398262
1,230833	0,1	0,423790
1,232500	0,1	0,392028
1,234167	0,1	0,381034
1,235833	0,1	0,385230
1,237500	0,1	0,429392
1,239167	0,1	0,427534
1,240833	0,1	0,428757
1,242500	0,1	0,405437
1,244167	0,1	0,425594
1,245833	0,1	0,451333
1,247500	0,1	0,424801
1,249167	0,1	0,459732
1,250833	0,1	0,445464
1,252500	0,1	0,465227
1,254167	0,1	0,455072
1,255833	0,1	0,428566
1,257500	0,1	0,434891
1,259167	0,1	0,465648
1,260833	0,1	0,457519
1,262500	0,1	0,474730
1,264167	0,1	0,459166
1,265833	0,1	0,474241
1,267500	0,1	0,468326
1,269167	0,1	0,466456
1,270833	0,1	0,487497
1,272500	0,1	0,478805
1,274167	0,1	0,475156
1,275833	0,1	0,530797
1,277500	0,1	0,478194
1,279167	0,1	0,503711
1,280833	0,1	0,493038
1,282500	0,1	0,458211
1,284167	0,1	0,470009
1,285833	0,1	0,506399
1,287500	0,1	0,482119
1,289167	0,1	0,516118
1,290833	0,1	0,472205
1,292500	0,1	0,496388
1,294167	0,1	0,499577
1,295833	0,1	0,472492
1,297500	0,1	0,529751
1,299167	0,1	0,561747
1,300833	0,1	0,506975
1,302500	0,1	0,519728
1,304167	0,1	0,527382
1,305833	0,1	0,528117
1,307500	0,1	0,516040
1,309167	0,1	0,556784
1,310833	0,1	0,520271
1,312500	0,1	0,527490
1,314167	0,1	0,517817
1,315833	0,1	0,538634
1,317500	0,1	0,577206
1,319167	0,1	0,569741
1,320833	0,1	0,523856
1,322500	0,1	0,567148
1,324167	0,1	0,553880
1,325833	0,1	0,570938
1,327500	0,1	0,578861
1,329167	0,1	0,563403
1,330833	0,1	0,585086
1,332500	0,1	0,553509
1,334167	0,1	0,568224
1,335833	0,1	0,598857
1,337500	0,1	0,616946
1,339167	0,1	0,572731
1,340833	0,1	0,622101
1,342500	0,1	0,631769
1,344167	0,1	0,570112
1,345833	0,1	0,610425
1,347500	0,1	0,580604
1,349167	0,1	0,613452
1,350833	0,1	0,634191
1,352500	0,1	0,640513
1,354167	0,1	0,615289
1,355833	0,1	0,651079
1,357500	0,1	0,660517
1,359167	0,1	0,609889
1,360833	0,1	0,645602
1,362500	0,1	0,666430
1,364167	0,1	0,637095
1,365833	0,1	0,656777
1,367500	0,1	0,661029
1,369167	0,1	0,654914
1,370833	0,1	0,655248
1,372500	0,1	0,686392
1,374167	0,1	0,683464
1,375833	0,1	0,677366
1,377500	0,1	0,718814
1,379167	0,1	0,646186
1,380833	0,1	0,666632
1,382500	0,1	0,666643
1,384167	0,1	0,708332
1,385833	0,1	0,696863
1,387500	0,1	0,760576
1,389167	0,1	0,711244
1,390833	0,1	0,739180
1,392500	0,1	0,699787
1,394167	0,1	0,735749
1,395833	0,1	0,685035
1,397500	0,1	0,739954
1,399167	0,1	0,714206
1,400833	0,1	0,708276
1,402500	0,1	0,750574
1,404167	0,1	0,726093
1,405833	0,1	0,727800
1,407500	0,1	0,727176
1,409167	0,1	0,755876
1,410833	0,1	0,760178
1,412500	0,1	0,718352
1,414167	0,1	0,738026
1,415833	0,1	0,795870
1,417500	0,1	0,772499
1,419167	0,1	0,749587
1,420833	0,1	0,787213
1,422500	0,1	0,786847
1,424167	0,1	0,762344
1,425833	0,1	0,803911
1,427500	0,1	0,782624
1,429167	0,1	0,779612
1,430833	0,1	0,842588
1,432500	0,1	0,770642
1,434167	0,1	0,847904
1,435833	0,1	0,837053
1,437500	0,1	0,812694
1,439167	0,1	0,820549
1,440833	0,1	0,817427
1,442500	0,1	0,824442
1,444167	0,1	0,868435
1,445833	0,1	0,810187
1,447500	0,1	0,835122
1,449167	0,1	0,865227
1,450833	0,1	0,833999
1,452500	0,1	0,808666
1,454167	0,1	0,864303
1,455833	0,1	0,845820
1,457500	0,1	0,907578
1,459167	0,1	0,879546
1,460833	0,1	0,899378
1,462500	0,1	0,908032
1,464167	0,1	0,872804
1,465833	0,1	0,902557
1,467500	0,1	0,878798
1,469167	0,1	0,866682
1,470833	0,1	0,898205
1,472500	0,1	0,930100
1,474167	0,1	0,943460
1,475833	0,1	0,902930
1,477500	0,1	0,901833
1,479167	0,1	0,931324
1,480833	0,1	0,963679
1,482500	0,1	0,930997
1,484167	0,1	0,948693
1,485833	0,1	0,969289
1,487500	0,1	0,944556
1,489167	0,1	0,977971
1,490833	0,1	0,981139
1,492500	0,1	0,974158
1,494167	0,1	1,006194
1,495833	0,1	0,968148
1,497500	0,1	0,962246
1,499167	0,1	0,953319
1,500833	0,1	0,991874
1,502500	0,1	0,971921
1,504167	0,1	0,975737
1,505833	0,1	0,983431
1,507500	0,1	0,989821
1,509167	0,1	1,015018
1,510833	0,1	0,980183
1,512500	0,1	1,011828
1,514167	0,1	1,023238
1,515833	0,1	1,032158
1,517500	0,1	1,036624
1,519167	0,1	1,003751
1,520833	0,1	1,044560
1,522500	0,1	1,035102
1,524167	0,1	1,057605
1,525833	0,1	1,070842
1,527500	0,1	1,064167
1,529167	0,1	1,052060
1,530833	0,1	1,058778
1,532500	0,1	1,091783
1,534167	0,1	1,086197
1,535833	0,1	1,075217
1,537500	0,1	1,098394
1,539167	0,1	1,102576
1,540833	0,1	1,099544
1,542500	0,1	1,086613
1,544167	0,1	1,105363
1,545833	0,1	1,094378
1,547500	0,1	1,132987
1,549167	0,1	1,089781
1,550833	0,1	1,143989
1,552500	0,1	1,148223
1,554167	0,1	1,128605
1,555833	0,1	1,144701
1,557500	0,1	1,126910
1,559167	0,1	1,151218
1,560833	0,1	1,143842
1,562500	0,1	1,157392
1,564167	0,1	1,141699
1,565833	0,1	1,140229
1,567500	0,1	1,141313
1,569167	0,1	1,190116
1,570833	0,1	1,179099
1,572500	0,1	1,198671
1,574167	0,1	1,205863
1,575833	0,1	1,200926
1,577500	0,1	1,167891
1,579167	0,1	1,207863
1,580833	0,1	1,236018
1,582500	0,1	1,234056
1,584167	0,1	1,186689
1,585833	0,1	1,195087
1,587500	0,1	1,242614
1,589167	0,1	1,265803
1,590833	0,1	1,267250
1,592500	0,1	1,264876
1,594167	0,1	1,295171
1,595833	0,1	1,244348
1,597500	0,1	1,237079
1,599167	0,1	1,251022
1,600833	0,1	1,293020
1,602500	0,1	1,242340
1,604167	0,1	1,268886
1,605833	0,1	1,252311
1,607500	0,1	1,276491
1,609167	0,1	1,291951
1,610833	0,1	1,306721
1,612500	0,1	1,274147
1,614167	0,1	1,315780
1,615833	0,1	1,324826
1,617500	0,1	1,320531
1,619167	0,1	1,282839
1,620833	0,1	1,316715
1,622500	0,1	1,326189
1,624167	0,1	1,333019
1,625833	0,1	1,372587
1,627500	0,1	1,358871
1,629167	0,1	1,322541
1,630833	0,1	1,331929
1,632500	0,1	1,344932
1,634167	0,1	1,332292
1,635833	0,1	1,370128
1,637500	0,1	1,389103
1,639167	0,1	1,339776
1,640833	0,1	1,373381
1,642500	0,1	1,386884
1,644167	0,1	1,421144
1,645833	0,1	1,357506
1,647500	0,1	1,378612
1,649167	0,1	1,441401
1,650833	0,1	1,398674
1,652500	0,1	1,380709
1,654167	0,1	1,427448
1,655833	0,1	1,434510
1,657500	0,1	1,436592
1,659167	0,1	1,449953
1,660833	0,1	1,462442
1,662500	0,1	1,390418
1,664167	0,1	1,469039
1,665833	0,1	1,422163
1,667500	0,1	1,440965
1,669167	0,1	1,477892
1,670833	0,1	1,453400
1,672500	0,1	1,483921
1,674167	0,1	1,500526
1,675833	0,1	1,498148
1,677500	0,1	1,493345
1,679167	0,1	1,439180
1,680833	0,1	1,428325
1,682500	0,1	1,517963
1,684167	0,1	1,518843
1,685833	0,1	1,479190
1,687500	0,1	1,556402
1,689167	0,1	1,527685
1,690833	0,1	1,522435
1,692500	0,1	1,542763
1,694167	0,1	1,518844
1,695833	0,1	1,534574
1,697500	0,1	1,545781
1,699167	0,1	1,544566
1,700833	0,1	1,535226
1,702500	0,1	1,563383
1,704167	0,1	1,560075
1,705833	0,1	1,566260
1,707500	0,1	1,569998
1,709167	0,1	1,559015
1,710833	0,1	1,579552
1,712500	0,1	1,605704
1,714167	0,1	1,582363
1,715833	0,1	1,608725
1,717500	0,1	1,549748
1,719167	0,1	1,594853
1,720833	0,1	1,592202
1,722500	0,1	1,588245
1,724167	0,1	1,576470
1,725833	0,1	1,584224
1,727500	0,1	1,639185
1,729167	0,1	1,636973
1,730833	0,1	1,646382
1,732500	0,1	1,648539
1,734167	0,1	1,635032
1,735833	0,1	1,679290
1,737500	0,1	1,662845
1,739167	0,1	1,647107
1,740833	0,1	1,665999
1,742500	0,1	1,639563
1,744167	0,1	1,705447
1,745833	0,1	1,685416
1,747500	0,1	1,720620
1,749167	0,1	1,657968
1,750833	0,1	1,702000
1,752500	0,1	1,739522
1,754167	0,1	1,725016
1,755833	0,1	1,724724
1,757500	0,1	1,693181
1,759167	0,1	1,690081
1,760833	0,1	1,718105
1,762500	0,1	1,679883
1,764167	0,1	1,744332
1,765833	0,1	1,733785
1,767500	0,1	1,709062
1,769167	0,1	1,738805
1,770833	0,1	1,737089
1,772500	0,1	1,731051
1,774167	0,1	1,706331
1,775833	0,1	1,737800
1,777500	0,1	1,766408
1,779167	0,1	1,749025
1,780833	0,1	1,756280
1,782500	0,1	1,787401
1,784167	0,1	1,771594
1,785833	0,1	1,765843
1,787500	0,1	1,796529
1,789167	0,1	1,758446
1,790833	0,1	1,768787
1,792500	0,1	1,791069
1,794167	0,1	1,822912
1,795833	0,1	1,809266
1,797500	0,1	1,824069
1,799167	0,1	1,808689
1,800833	0,1	1,815801
1,802500	0,1	1,823709
1,804167	0,1	1,807109
1,805833	0,1	1,826298
1,807500	0,1	1,797551
1,809167	0,1	1,809260
1,810833	0,1	1,847000
1,812500	0,1	1,835437
1,814167	0,1	1,871224
1,815833	0,1	1,840325
1,817500	0,1	1,866126
1,819167	0,1	1,876987
1,820833	0,1	1,872528
1,822500	0,1	1,862682
1,824167	0,1	1,857726
1,825833	0,1	1,880293
1,827500	0,1	1,836811
1,829167	0,1	1,887404
1,830833	0,1	1,868725
1,832500	0,1	1,851612
1,834167	0,1	1,865121
1,835833	0,1	1,866712
1,837500	0,1	1,895893
1,839167	0,1	1,921849
1,840833	0,1	1,886560
1,842500	0,1	1,872534
1,844167	0,1	1,910270
1,845833	0,1	1,936877
1,847500	0,1	1,899575
1,849167	0,1	1,904598
1,850833	0,1	1,886845
1,852500	0,1	1,880372
1,854167	0,1	1,952767
1,855833	0,1	1,965863
1,857500	0,1	1,946524
1,859167	0,1	1,928911
1,860833	0,1	1,906335
1,862500	0,1	1,931128
1,864167	0,1	1,915176
1,865833	0,1	1,903235
1,867500	0,1	1,955579
1,869167	0,1	1,972988
1,870833	0,1	1,935388
1,872500	0,1	1,969167
1,874167	0,1	1,971842
1,875833	0,1	1,993913
1,877500	0,1	1,974646
1,879167	0,1	1,952932
1,880833	0,1	1,974640
1,882500	0,1	1,972783
1,884167	0,1	1,968957
1,885833	0,1	1,984848
1,887500	0,1	1,974219
1,889167	0,1	2,008000
1,890833	0,1	1,955747
1,892500	0,1	1,968248
1,894167	0,1	1,940064
1,895833	0,1	2,027985
1,897500	0,1	2,008671
1,899167	0,1	1,995222
1,900833	0,1	2,001611
1,902500	0,1	1,989104
1,904167	0,1	2,030227
1,905833	0,1	1,961506
1,907500	0,1	1,983635
1,909167	0,1	2,026134
1,910833	0,1	1,993069
1,912500	0,1	2,028298
1,914167	0,1	2,029088
1,915833	0,1	2,005220
1,917500	0,1	2,029222
1,919167	0,1	2,024917
1,920833	0,1	2,023910
1,922500	0,1	2,064030
1,924167	0,1	2,045350
1,925833	0,1	1,990701
1,927500	0,1	1,997654
1,929167	0,1	2,026565
1,930833	0,1	2,031254
1,932500	0,1	2,059008
1,934167	0,1	2,056719
1,935833	0,1	2,047588
1,937500	0,1	2,067772
1,939167	0,1	2,051543
1,940833	0,1	2,038301
1,942500	0,1	2,057068
1,944167	0,1	2,082022
1,945833	0,1	2,032561
1,947500	0,1	2,054323
1,949167	0,1	2,060161
1,950833	0,1	2,023992
1,952500	0,1	2,067926
1,954167	0,1	2,051250
1,955833	0,1	2,061167
1,957500	0,1	2,051321
1,959167	0,1	2,054482
1,960833	0,1	2,040529
1,962500	0,1	2,073690
1,964167	0,1	2,057149
1,965833	0,1	2,075048
1,967500	0,1	2,089725
1,969167	0,1	2,050889
1,970833	0,1	2,090146
1,972500	0,1	2,041119
1,974167	0,1	2,072809
1,975833	0,1	2,055354
1,977500	0,1	2,092157
1,979167	0,1	2,046718
1,980833	0,1	2,047366
1,982500	0,1	2,054994
1,984167	0,1	2,057785
1,985833	0,1	2,080947
1,987500	0,1	2,083042
1,989167	0,1	2,080665
1,990833	0,1	2,052486
1,992500	0,1	2,047575
1,994167	0,1	2,068432
1,995833	0,1	2,094255
1,997500	0,1	2,061324
1,999167	0,1	2,073687
2,000833	0,1	2,059665
2,002500	0,1	2,107552
2,004167	0,1	2,062836
2,005833	0,1	2,080734
2,007500	0,1	2,064043
2,009167	0,1	2,073040
2,010833	0,1	2,042268
2,012500	0,1	2,069872
2,014167	0,1	2,056860
2,015833	0,1	2,090643
2,017500	0,1	2,075636
2,019167	0,1	2,088077
2,020833	0,1	2,067496
2,022500	0,1	2,036876
2,024167	0,1	2,086841
2,025833	0,1	2,088942
2,027500	0,1	2,084550
2,029167	0,1	2,031629
2,030833	0,1	2,051900
2,032500	0,1	2,048442
2,034167	0,1	2,041749
2,035833	0,1	2,061233
2,037500	0,1	2,032051
2,039167	0,1	2,077123
2,040833	0,1	2,075627
2,042500	0,1	2,053112
2,044167	0,1	2,048442
2,045833	0,1	2,044839
2,047500	0,1	2,048074
2,049167	0,1	2,048949
2,050833	0,1	2,067206
2,052500	0,1	2,050395
2,054167	0,1	2,059579
2,055833	0,1	2,076910
2,057500	0,1	2,044499
2,059167	0,1	2,066783
2,060833	0,1	2,077071
2,062500	0,1	2,024131
2,064167	0,1	2,056490
2,065833	0,1	2,052615
2,067500	0,1	2,049951
2,069167	0,1	2,037800
2,070833	0,1	2,069284
2,072500	0,1	2,027955
2,074167	0,1	2,074675
2,075833	0,1	2,032475
2,077500	0,1	2,054318
2,079167	0,1	2,029314
2,080833	0,1	2,040738
2,082500	0,1	2,015146
2,084167	0,1	2,054546
2,085833	0,1	2,042112
2,087500	0,1	2,008674
2,089167	0,1	1,999036
2,090833	0,1	2,063230
2,092500	0,1	2,027587
2,094167	0,1	2,056051
2,095833	0,1	2,035279
2,097500	0,1	2,065901
2,099167	0,1	2,037669
2,100833	0,1	2,020254
2,102500	0,1	2,022479
2,104167	0,1	2,002265
2,105833	0,1	1,991905
2,107500	0,1	2,023913
2,109167	0,1	2,028236
2,110833	0,1	2,030445
2,112500	0,1	2,012548
2,114167	0,1	2,003483
2,115833	0,1	2,017371
2,117500	0,1	1,998746
2,119167	0,1	1,992412
2,120833	0,1	2,000886
2,122500	0,1	2,009451
2,124167	0,1	1,976586
2,125833	0,1	1,983058
2,127500	0,1	2,022672
2,129167	0,1	2,010183
2,130833	0,1	2,003416
2,132500	0,1	1,996442
2,134167	0,1	1,969981
2,135833	0,1	1,985937
2,137500	0,1	1,999093
2,139167	0,1	1,978743
2,140833	0,1	1,987516
2,142500	0,1	1,980399
2,144167	0,1	1,955953
2,145833	0,1	1,985784
2,147500	0,1	1,964792
2,149167	0,1	1,963068
2,150833	0,1	1,968171
2,152500	0,1	1,973054
2,154167	0,1	1,944592
2,155833	0,1	1,963491
2,157500	0,1	1,963857
2,159167	0,1	1,955663
2,160833	0,1	1,942283
2,162500	0,1	1,970970
2,164167	0,1	1,912530
2,165833	0,1	1,941483
2,167500	0,1	1,913097
2,169167	0,1	1,904395
2,170833	0,1	1,932851
2,172500	0,1	1,946373
2,174167	0,1	1,934160
2,175833	0,1	1,926538
2,177500	0,1	1,903454
2,179167	0,1	1,930473
2,180833	0,1	1,907913
2,182500	0,1	1,905604
2,184167	0,1	1,899847
2,185833	0,1	1,932704
2,187500	0,1	1,883042
2,189167	0,1	1,919040
2,190833	0,1	1,853207
2,192500	0,1	1,925653
2,194167	0,1	1,897703
2,195833	0,1	1,892879
2,197500	0,1	1,893096
2,199167	0,1	1,868511
2,200833	0,1	1,874684
2,202500	0,1	1,891796
2,204167	0,1	1,840333
2,205833	0,1	1,880785
2,207500	0,1	1,868797
2,209167	0,1	1,852760
2,210833	0,1	1,866125
2,212500	0,1	1,830262
2,214167	0,1	1,863894
2,215833	0,1	1,877126
2,217500	0,1	1,852694
2,219167	0,1	1,843555
2,220833	0,1	1,849665
2,222500	0,1	1,831624
2,224167	0,1	1,819546
2,225833	0,1	1,827736
2,227500	0,1	1,841396
2,229167	0,1	1,869647
2,230833	0,1	1,814879
2,232500	0,1	1,849725
2,234167	0,1	1,809056
2,235833	0,1	1,838727
2,237500	0,1	1,803734
2,239167	0,1	1,774690
2,240833	0,1	1,803216
2,242500	0,1	1,835925
2,244167	0,1	1,793314
2,245833	0,1	1,791289
2,247500	0,1	1,795888
2,249167	0,1	1,762903
2,250833	0,1	1,783878
2,252500	0,1	1,791789
2,254167	0,1	1,776125
2,255833	0,1	1,786901
2,257500	0,1	1,810334
2,259167	0,1	1,772320
2,260833	0,1	1,815361
2,262500	0,1	1,773831
2,264167	0,1	1,765772
2,265833	0,1	1,802997
2,267500	0,1	1,792154
2,269167	0,1	1,767070
2,270833	0,1	1,756499
2,272500	0,1	1,756568
2,274167	0,1	1,752399
2,275833	0,1	1,728037
2,277500	0,1	1,727312
2,279167	0,1	1,743338
2,280833	0,1	1,709136
2,282500	0,1	1,733056
2,284167	0,1	1,723722
2,285833	0,1	1,755552
2,287500	0,1	1,743776
2,289167	0,1	1,715101
2,290833	0,1	1,718112
2,292500	0,1	1,707693
2,294167	0,1	1,711859
2,295833	0,1	1,721705
2,297500	0,1	1,686210
2,299167	0,1	1,686342
2,300833	0,1	1,699710
2,302500	0,1	1,701653
2,304167	0,1	1,677151
2,305833	0,1	1,713290
2,307500	0,1	1,689009
2,309167	0,1	1,717386
2,310833	0,1	1,630165
2,312500	0,1	1,641140
2,314167	0,1	1,648327
2,315833	0,1	1,658958
2,317500	0,1	1,676134
2,319167	0,1	1,615426
2,320833	0,1	1,658235
2,322500	0,1	1,658388
2,324167	0,1	1,618370
2,325833	0,1	1,612759
2,327500	0,1	1,656366
2,329167	0,1	1,653929
2,330833	0,1	1,631515
2,332500	0,1	1,607728
2,334167	0,1	1,615410
2,335833	0,1	1,618145
2,337500	0,1	1,611752
2,339167	0,1	1,607011
2,340833	0,1	1,597809
2,342500	0,1	1,599029
2,344167	0,1	1,617999
2,345833	0,1	1,596881
2,347500	0,1	1,566566
2,349167	0,1	1,638107
2,350833	0,1	1,597385
2,352500	0,1	1,585885
2,354167	0,1	1,598528
2,355833	0,1	1,602120
2,357500	0,1	1,526053
2,359167	0,1	1,544493
2,360833	0,1	1,535155
2,362500	0,1	1,531779
2,364167	0,1	1,537452
2,365833	0,1	1,539677
2,367500	0,1	1,542912
2,369167	0,1	1,519703
2,370833	0,1	1,577604
2,372500	0,1	1,520508
2,374167	0,1	1,537023
2,375833	0,1	1,526321
2,377500	0,1	1,527762
2,379167	0,1	1,522364
2,380833	0,1	1,517268
2,382500	0,1	1,517695
2,384167	0,1	1,535588
2,385833	0,1	1,508871
2,387500	0,1	1,476612
2,389167	0,1	1,485799
2,390833	0,1	1,523584
2,392500	0,1	1,448470
2,394167	0,1	1,441547
2,395833	0,1	1,516106
2,397500	0,1	1,468635
2,399167	0,1	1,477390
2,400833	0,1	1,449681
2,402500	0,1	1,462735
2,404167	0,1	1,463098
2,405833	0,1	1,481126
2,407500	0,1	1,447955
2,409167	0,1	1,486091
2,410833	0,1	1,463684
2,412500	0,1	1,444864
2,414167	0,1	1,465118
2,415833	0,1	1,449166
2,417500	0,1	1,407223
2,419167	0,1	1,400969
2,420833	0,1	1,399962
2,422500	0,1	1,425173
2,424167	0,1	1,429497
2,425833	0,1	1,409157
2,427500	0,1	1,425533
2,429167	0,1	1,391152
2,430833	0,1	1,413174
2,432500	0,1	1,396447
2,434167	0,1	1,408734
2,435833	0,1	1,399753
2,437500	0,1	1,409655
2,439167	0,1	1,391492
2,440833	0,1	1,377060
2,442500	0,1	1,380850
2,444167	0,1	1,408006
2,445833	0,1	1,396375
2,447500	0,1	1,350351
2,449167	0,1	1,371158
2,450833	0,1	1,354868
2,452500	0,1	1,341301
2,454167	0,1	1,325845
2,455833	0,1	1,326487
2,457500	0,1	1,350545
2,459167	0,1	1,315805
2,460833	0,1	1,299277
2,462500	0,1	1,330141
2,464167	0,1	1,322401
2,465833	0,1	1,287858
2,467500	0,1	1,319886
2,469167	0,1	1,293543
2,470833	0,1	1,306099
2,472500	0,1	1,292824
2,474167	0,1	1,302222
2,475833	0,1	1,325564
2,477500	0,1	1,260158
2,479167	0,1	1,265869
2,480833	0,1	1,289234
2,482500	0,1	1,268688
2,484167	0,1	1,268543
2,485833	0,1	1,278810
2,487500	0,1	1,301792
2,489167	0,1	1,255700
2,490833	0,1	1,251952
2,492500	0,1	1,272214
2,494167	0,1	1,253039
2,495833	0,1	1,266759
2,497500	0,1	1,253831
2,499167	0,1	1,245569
2,500833	0,1	1,238043
2,502500	0,1	1,246500
2,504167	0,1	1,237099
2,505833	0,1	1,240029
2,507500	0,1	1,224606
2,509167	0,1	1,211324
2,510833	0,1	1,261519
2,512500	0,1	1,205023
2,514167	0,1	1,194663
2,515833	0,1	1,210751
2,517500	0,1	1,182841
2,519167	0,1	1,204576
2,520833	0,1	1,197418
2,522500	0,1	1,169907
2,524167	0,1	1,194527
2,525833	0,1	1,217072
2,527500	0,1	1,161874
2,529167	0,1	1,170683
2,530833	0,1	1,145287
2,532500	0,1	1,180091
2,534167	0,1	1,167111
2,535833	0,1	1,163084
2,537500	0,1	1,149507
2,539167	0,1	1,145134
2,540833	0,1	1,156274
2,542500	0,1	1,131157
2,544167	0,1	1,118360
2,545833	0,1	1,129474
2,547500	0,1	1,150606
2,549167	0,1	1,174279
2,550833	0,1	1,153767
2,552500	0,1	1,102081
2,554167	0,1	1,097907
2,555833	0,1	1,134442
2,557500	0,1	1,110900
2,559167	0,1	1,092397
2,560833	0,1	1,106035
2,562500	0,1	1,119866
2,564167	0,1	1,098927
2,565833	0,1	1,054062
2,567500	0,1	1,093962
2,569167	0,1	1,085152
2,570833	0,1	1,065243
2,572500	0,1	1,083320
2,574167	0,1	1,098120
2,575833	0,1	1,100268
2,577500	0,1	1,076896
2,579167	0,1	1,072922
2,580833	0,1	1,056019
2,582500	0,1	1,067392
2,584167	0,1	1,056692
2,585833	0,1	1,069851
2,587500	0,1	1,050895
2,589167	0,1	1,076595
2,590833	0,1	1,073923
2,592500	0,1	1,039560
2,594167	0,1	1,039854
2,595833	0,1	1,018450
2,597500	0,1	1,022484
2,599167	0,1	1,040427
2,600833	0,1	1,043194
2,602500	0,1	1,034635
2,604167	0,1	1,030346
2,605833	0,1	1,013943
2,607500	0,1	1,020121
2,609167	0,1	1,009723
2,610833	0,1	1,030520
2,612500	0,1	1,030674
2,614167	0,1	1,015013
2,615833	0,1	1,009653
2,617500	0,1	1,021178
2,619167	0,1	0,985463
2,620833	0,1	0,977335
2,622500	0,1	0,975161
2,624167	0,1	1,019547
2,625833	0,1	0,981794
2,627500	0,1	1,014577
2,629167	0,1	0,991491
2,630833	0,1	0,976978
2,632500	0,1	0,965917
2,634167	0,1	1,007552
2,635833	0,1	0,980885
2,637500	0,1	0,949573
2,639167	0,1	0,927530
2,640833	0,1	0,989327
2,642500	0,1	0,959204
2,644167	0,1	0,962274
2,645833	0,1	0,955764
2,647500	0,1	0,951875
2,649167	0,1	0,897853
2,650833	0,1	0,955325
2,652500	0,1	0,915383
2,654167	0,1	0,959998
2,655833	0,1	0,893792
2,657500	0,1	0,910613
2,659167	0,1	0,887583
2,660833	0,1	0,891975
2,662500	0,1	0,876620
2,664167	0,1	0,905308
2,665833	0,1	0,893391
2,667500	0,1	0,911819
2,669167	0,1	0,888380
2,670833	0,1	0,891383
2,672500	0,1	0,880987
2,674167	0,1	0,884212
2,675833	0,1	0,912530
2,677500	0,1	0,911278
2,679167	0,1	0,881093
2,680833	0,1	0,834461
2,682500	0,1	0,899284
2,684167	0,1	0,862931
2,685833	0,1	0,870177
2,687500	0,1	0,883342
2,689167	0,1	0,862403
2,690833	0,1	0,843016
2,692500	0,1	0,890658
2,694167	0,1	0,890821
2,695833	0,1	0,857834
2,697500	0,1	0,855516
2,699167	0,1	0,822889
2,700833	0,1	0,847135
2,702500	0,1	0,835030
2,704167	0,1	0,839307
2,705833	0,1	0,857957
2,707500	0,1	0,832519
2,709167	0,1	0,822680
2,710833	0,1	0,822949
2,712500	0,1	0,823746
2,714167	0,1	0,847407
2,715833	0,1	0,804016
2,717500	0,1	0,794835
2,719167	0,1	0,818508
2,720833	0,1	0,846980
2,722500	0,1	0,806940
2,724167	0,1	0,834952
2,725833	0,1	0,828896
2,727500	0,1	0,823408
2,729167	0,1	0,782936
2,730833	0,1	0,762718
2,732500	0,1	0,781495
2,734167	0,1	0,814055
2,735833	0,1	0,812705
2,737500	0,1	0,785599
2,739167	0,1	0,791026
2,740833	0,1	0,831705
2,742500	0,1	0,774819
2,744167	0,1	0,837204
2,745833	0,1	0,778557
2,747500	0,1	0,753953
2,749167	0,1	0,790477
2,750833	0,1	0,766659
2,752500	0,1	0,781071
2,754167	0,1	0,713503
2,755833	0,1	0,783216
2,757500	0,1	0,732678
2,759167	0,1	0,748375
2,760833	0,1	0,749871
2,762500	0,1	0,743862
2,764167	0,1	0,725995
2,765833	0,1	0,725519
2,767500	0,1	0,754363
2,769167	0,1	0,755323
2,770833	0,1	0,746512
2,772500	0,1	0,760773
2,774167	0,1	0,767893
2,775833	0,1	0,732386
2,777500	0,1	0,726436
2,779167	0,1	0,706209
2,780833	0,1	0,694706
2,782500	0,1	0,710005
2,784167	0,1	0,714728
2,785833	0,1	0,708613
2,787500	0,1	0,693328
2,789167	0,1	0,730720
2,790833	0,1	0,725414
2,792500	0,1	0,713529
2,794167	0,1	0,646830
2,795833	0,1	0,671464
2,797500	0,1	0,686530
2,799167	0,1	0,695924
2,800833	0,1	0,723690
2,802500	0,1	0,710483
2,804167	0,1	0,712388
2,805833	0,1	0,718245
2,807500	0,1	0,702846
2,809167	0,1	0,684046
2,810833	0,1	0,713874
2,812500	0,1	0,620514
2,814167	0,1	0,661068
2,815833	0,1	0,698316
2,817500	0,1	0,693965
2,819167	0,1	0,667180
2,820833	0,1	0,626085
2,822500	0,1	0,610238
2,824167	0,1	0,700132
2,825833	0,1	0,652385
2,827500	0,1	0,642609
2,829167	0,1	0,650771
2,830833	0,1	0,660296
2,832500	0,1	0,654358
2,834167	0,1	0,665478
2,835833	0,1	0,662213
2,837500	0,1	0,726880
2,839167	0,1	0,624832
2,840833	0,1	0,626298
2,842500	0,1	0,650834
2,844167	0,1	0,605571
2,845833	0,1	0,604360
2,847500	0,1	0,605894
2,849167	0,1	0,610367
2,850833	0,1	0,578670
2,852500	0,1	0,626020
2,854167	0,1	0,621181
2,855833	0,1	0,602362
2,857500	0,1	0,615681
2,859167	0,1	0,585232
2,860833	0,1	0,593854
2,862500	0,1	0,612319
2,864167	0,1	0,620198
2,865833	0,1	0,599447
2,867500	0,1	0,586363
2,869167	0,1	0,582711
2,870833	0,1	0,586692
2,872500	0,1	0,595435
2,874167	0,1	0,595080
2,875833	0,1	0,587252
2,877500	0,1	0,611007
2,879167	0,1	0,590792
2,880833	0,1	0,621239
2,882500	0,1	0,591216
2,884167	0,1	0,591476
2,885833	0,1	0,572215
2,887500	0,1	0,547165
2,889167	0,1	0,580012
2,890833	0,1	0,575393
2,892500	0,1	0,557376
2,894167	0,1	0,548654
2,895833	0,1	0,580079
2,897500	0,1	0,559579
2,899167	0,1	0,554480
2,900833	0,1	0,529480
2,902500	0,1	0,544242
2,904167	0,1	0,527030
2,905833	0,1	0,558409
2,907500	0,1	0,524166
2,909167	0,1	0,558854
2,910833	0,1	0,486447
2,912500	0,1	0,540561
2,914167	0,1	0,510172
2,915833	0,1	0,563653
2,917500	0,1	0,530996
2,919167	0,1	0,565082
2,920833	0,1	0,505373
2,922500	0,1	0,520549
2,924167	0,1	0,503361
2,925833	0,1	0,496487
2,927500	0,1	0,490191
2,929167	0,1	0,489257
2,930833	0,1	0,505023
2,932500	0,1	0,510120
2,934167	0,1	0,540970
2,935833	0,1	0,515999
2,937500	0,1	0,517463
2,939167	0,1	0,511612
2,940833	0,1	0,507102
2,942500	0,1	0,497620
2,944167	0,1	0,481405
2,945833	0,1	0,505691
2,947500	0,1	0,466425
2,949167	0,1	0,492210
2,950833	0,1	0,494664
2,952500	0,1	0,447407
2,954167	0,1	0,475661
2,955833	0,1	0,476356
2,957500	0,1	0,480671
2,959167	0,1	0,509981
2,960833	0,1	0,434802
2,962500	0,1	0,472591
2,964167	0,1	0,453206
2,965833	0,1	0,463692
2,967500	0,1	0,459097
2,969167	0,1	0,435990
2,970833	0,1	0,479124
2,972500	0,1	0,479183
2,974167	0,1	0,464302
2,975833	0,1	0,459676
2,977500	0,1	0,463339
2,979167	0,1	0,446110
2,980833	0,1	0,437102
2,982500	0,1	0,414862
2,984167	0,1	0,438202
2,985833	0,1	0,472014
2,987500	0,1	0,432808
2,989167	0,1	0,455693
2,990833	0,1	0,412221
2,992500	0,1	0,421751
2,994167	0,1	0,421621
2,995833	0,1	0,437873
2,997500	0,1	0,432745
2,999167	0,1	0,449995
3,000833	0,1	0,434830
3,002500	0,1	0,434388
3,004167	0,1	0,432585
3,005833	0,1	0,423243
3,007500	0,1	0,420754
3,009167	0,1	0,414741
3,010833	0,1	0,454571
3,012500	0,1	0,417262
3,014167	0,1	0,392026
3,015833	0,1	0,412694
3,017500	0,1	0,376460
3,019167	0,1	0,415609
3,020833	0,1	0,421976
3,022500	0,1	0,384751
3,024167	0,1	0,396663
3,025833	0,1	0,382259
3,027500	0,1	0,378585
3,029167	0,1	0,389122
3,030833	0,1	0,371560
3,032500	0,1	0,371937
3,034167	0,1	0,414003
3,035833	0,1	0,395945
3,037500	0,1	0,394336
3,039167	0,1	0,417077
3,040833	0,1	0,430647
3,042500	0,1	0,348057
3,044167	0,1	0,407931
3,045833	0,1	0,420436
3,047500	0,1	0,381198
3,049167	0,1	0,370491
3,050833	0,1	0,380253
3,052500	0,1	0,382543
3,054167	0,1	0,398822
3,055833	0,1	0,366404
3,057500	0,1	0,394146
3,059167	0,1	0,359139
3,060833	0,1	0,388261
3,062500	0,1	0,384532
3,064167	0,1	0,390084
3,065833	0,1	0,345086
3,067500	0,1	0,369536
3,069167	0,1	0,352120
3,070833	0,1	0,362102
3,072500	0,1	0,345173
3,074167	0,1	0,372510
3,075833	0,1	0,334898
3,077500	0,1	0,339981
3,079167	0,1	0,354838
3,080833	0,1	0,380565
3,082500	0,1	0,339861
3,084167	0,1	0,361902
3,085833	0,1	0,367093
3,087500	0,1	0,320546
3,089167	0,1	0,334729
3,090833	0,1	0,354021
3,092500	0,1	0,328250
3,094167	0,1	0,348229
3,095833	0,1	0,340498
3,097500	0,1	0,350141
3,099167	0,1	0,340986
3,100833	0,1	0,322959
3,102500	0,1	0,358124
3,104167	0,1	0,312397
3,105833	0,1	0,312059
3,107500	0,1	0,355029
3,109167	0,1	0,302308
3,110833	0,1	0,322345
3,112500	0,1	0,327533
3,114167	0,1	0,335915
3,115833	0,1	0,320641
3,117500	0,1	0,313968
3,119167	0,1	0,297364
3,120833	0,1	0,309767
3,122500	0,1	0,302585
3,124167	0,1	0,343488
3,125833	0,1	0,322409
3,127500	0,1	0,307025
3,129167	0,1	0,299073
3,130833	0,1	0,328922
3,132500	0,1	0,283317
3,134167	0,1	0,329092
3,135833	0,1	0,262820
3,137500	0,1	0,307891
3,139167	0,1	0,296037
3,140833	0,1	0,283861
3,142500	0,1	0,308632
3,144167	0,1	0,300428
3,145833	0,1	0,305769
3,147500	0,1	0,266617
3,149167	0,1	0,336927
3,150833	0,1	0,274098
3,152500	0,1	0,284723
3,154167	0,1	0,322526
3,155833	0,1	0,264913
3,157500	0,1	0,266898
3,159167	0,1	0,286946
3,160833	0,1	0,330365
3,162500	0,1	0,283896
3,164167	0,1	0,261129
3,165833	0,1	0,279714
3,167500	0,1	0,302316
3,169167	0,1	0,319307
3,170833	0,1	0,284277
3,172500	0,1	0,269125
3,174167	0,1	0,263032
3,175833	0,1	0,270504
3,177500	0,1	0,268899
3,179167	0,1	0,280014
3,180833	0,1	0,257812
3,182500	0,1	0,250296
3,184167	0,1	0,233117
3,185833	0,1	0,250485
3,187500	0,1	0,261186
3,189167	0,1	0,244177
3,190833	0,1	0,228958
3,192500	0,1	0,238659
3,194167	0,1	0,254384
3,195833	0,1	0,260955
3,197500	0,1	0,255330
3,199167	0,1	0,243692
3,200833	0,1	0,236468
3,202500	0,1	0,250282
3,204167	0,1	0,259505
3,205833	0,1	0,276117
3,207500	0,1	0,266414
3,209167	0,1	0,267534
3,210833	0,1	0,239175
3,212500	0,1	0,245323
3,214167	0,1	0,254443
3,215833	0,1	0,276974
3,217500	0,1	0,211883
3,219167	0,1	0,215192
3,220833	0,1	0,235519
3,222500	0,1	0,226154
3,224167	0,1	0,216868
3,225833	0,1	0,225505
3,227500	0,1	0,193413
3,229167	0,1	0,205743
3,230833	0,1	0,231817
3,232500	0,1	0,247377
3,234167	0,1	0,221035
3,235833	0,1	0,219771
3,237500	0,1	0,193931
3,239167	0,1	0,229881
3,240833	0,1	0,204463
3,242500	0,1	0,188766
3,244167	0,1	0,238677
3,245833	0,1	0,239203
3,247500	0,1	0,212555
3,249167	0,1	0,206879
3,250833	0,1	0,264716
3,252500	0,1	0,242367
3,254167	0,1	0,212265
3,255833	0,1	0,216221
3,257500	0,1	0,215475
3,259167	0,1	0,197306
3,260833	0,1	0,202392
3,262500	0,1	0,197463
3,264167	0,1	0,211929
3,265833	0,1	0,228885
3,267500	0,1	0,213262
3,269167	0,1	0,176589
3,270833	0,1	0,183604
3,272500	0,1	0,225816
3,274167	0,1	0,194925
3,275833	0,1	0,223755
3,277500	0,1	0,172369
3,279167	0,1	0,179960
3,280833	0,1	0,203069
3,282500	0,1	0,186542
3,284167	0,1	0,206126
3,285833	0,1	0,196885
3,287500	0,1	0,189118
3,289167	0,1	0,193757
3,290833	0,1	0,201908
3,292500	0,1	0,167175
3,294167	0,1	0,196454
3,295833	0,1	0,225624
3,297500	0,1	0,158872
3,299167	0,1	0,179663
3,300833	0,1	0,193105
3,302500	0,1	0,195728
3,304167	0,1	0,152194
3,305833	0,1	0,210700
3,307500	0,1	0,183807
3,309167	0,1	0,166944
3,310833	0,1	0,159017
3,312500	0,1	0,184338
3,314167	0,1	0,184830
3,315833	0,1	0,165497
3,317500	0,1	0,175512
3,319167	0,1	0,148610
3,320833	0,1	0,167775
3,322500	0,1	0,180408
3,324167	0,1	0,177870
3,325833	0,1	0,206994
3,327500	0,1	0,188312
3,329167	0,1	0,167590
3,330833	0,1	0,212213
3,332500	0,1	0,149682
3,334167	0,1	0,178856
3,335833	0,1	0,199066
3,337500	0,1	0,160313
3,339167	0,1	0,129146
3,340833	0,1	0,165094
3,342500	0,1	0,138557
3,344167	0,1	0,171899
3,345833	0,1	0,125156
3,347500	0,1	0,175988
3,349167	0,1	0,148449
3,350833	0,1	0,161395
3,352500	0,1	0,134593
3,354167	0,1	0,187430
3,355833	0,1	0,122420
3,357500	0,1	0,200601
3,359167	0,1	0,161695
3,360833	0,1	0,100957
3,362500	0,1	0,144435
3,364167	0,1	0,142512
3,365833	0,1	0,180722
3,367500	0,1	0,130925
3,369167	0,1	0,139417
3,370833	0,1	0,147605
3,372500	0,1	0,182563
3,374167	0,1	0,140106
3,375833	0,1	0,162617
3,377500	0,1	0,131789
3,379167	0,1	0,195417
3,380833	0,1	0,120457
3,382500	0,1	0,161129
3,384167	0,1	0,150958
3,385833	0,1	0,111649
3,387500	0,1	0,126880
3,389167	0,1	0,154946
3,390833	0,1	0,174897
3,392500	0,1	0,085044
3,394167	0,1	0,085215
3,395833	0,1	0,111022
3,397500	0,1	0,151367
3,399167	0,1	0,122056
3,400833	0,1	0,099529
3,402500	0,1	0,145691
3,404167	0,1	0,132688
3,405833	0,1	0,109261
3,407500	0,1	0,084354
3,409167	0,1	0,073330
3,410833	0,1	0,126645
3,412500	0,1	0,119052
3,414167	0,1	0,138287
3,415833	0,1	0,089159
3,417500	0,1	0,130353
3,419167	0,1	0,109487
3,420833	0,1	0,110609
3,422500	0,1	0,126718
3,424167	0,1	0,110646
3,425833	0,1	0,141571
3,427500	0,1	0,089903
3,429167	0,1	0,136956
3,430833	0,1	0,112967
3,432500	0,1	0,105583
3,434167	0,1	0,114539
3,435833	0,1	0,099334
3,437500	0,1	0,145241
3,439167	0,1	0,129110
3,440833	0,1	0,122148
3,442500	0,1	0,096887
3,444167	0,1	0,106096
3,445833	0,1	0,096787
3,447500	0,1	0,088248
3,449167	0,1	0,142081
3,450833	0,1	0,100148
3,452500	0,1	0,124556
3,454167	0,1	0,098112
3,455833	0,1	0,113152
3,457500	0,1	0,109291
3,459167	0,1	0,093696
3,460833	0,1	0,128294
3,462500	0,1	0,068797
3,464167	0,1	0,114657
3,465833	0,1	0,090541
3,467500	0,1	0,080934
3,469167	0,1	0,088309
3,470833	0,1	0,126422
3,472500	0,1	0,109486
3,474167	0,1	0,106551
3,475833	0,1	0,098752
3,477500	0,1	0,085962
3,479167	0,1	0,086956
3,480833	0,1	0,158190
3,482500	0,1	0,079629
3,484167	0,1	0,099875
3,485833	0,1	0,110284
3,487500	0,1	0,066151
3,489167	0,1	0,111178
3,490833	0,1	0,082099
3,492500	0,1	0,083574
3,494167	0,1	0,093691
3,495833	0,1	0,101003
3,497500	0,1	0,074623
3,499167	0,1	0,046815
3,500833	0,1	0,091393
3,502500	0,1	0,084058
3,504167	0,1	0,093464
3,505833	0,1	0,107705
3,507500	0,1	0,086415
3,509167	0,1	0,026686
3,510833	0,1	0,057434
3,512500	0,1	0,067878
3,514167	0,1	0,071102
3,515833	0,1	0,083894
3,517500	0,1	0,053873
3,519167	0,1	0,106213
3,520833	0,1	0,073014
3,522500	0,1	0,070879
3,524167	0,1	0,077159
3,525833	0,1	0,078708
3,527500	0,1	0,097426
3,529167	0,1	0,049366
3,530833	0,1	0,088494
3,532500	0,1	0,066115
3,534167	0,1	0,040146
3,535833	0,1	0,034923
3,537500	0,1	0,111268
3,539167	0,1	0,113379
3,540833	0,1	0,088832
3,542500	0,1	0,043373
3,544167	0,1	0,084691
3,545833	0,1	0,061347
3,547500	0,1	0,096713
3,549167	0,1	0,061574
3,550833	0,1	0,109180
3,552500	0,1	0,045986
3,554167	0,1	0,097321
3,555833	0,1	0,094240
3,557500	0,1	0,053038
3,559167	0,1	0,062143
3,560833	0,1	0,081731
3,562500	0,1	0,063343
3,564167	0,1	0,086564
3,565833	0,1	0,081836
3,567500	0,1	0,073618
3,569167	0,1	0,075582
3,570833	0,1	0,037828
3,572500	0,1	0,056117
3,574167	0,1	0,080828
3,575833	0,1	0,057351
3,577500	0,1	0,060052
3,579167	0,1	0,097709
3,580833	0,1	0,092404
3,582500	0,1	0,079419
3,584167	0,1	0,074326
3,585833	0,1	0,042628
3,587500	0,1	0,025582
3,589167	0,1	0,082882
3,590833	0,1	0,077291
3,592500	0,1	0,048395
3,594167	0,1	0,108660
3,595833	0,1	0,057938
3,597500	0,1	0,033346
3,599167	0,1	0,033954
3,600833	0,1	0,029411
3,602500	0,1	0,065457
3,604167	0,1	0,089335
3,605833	0,1	0,031326
3,607500	0,1	0,083528
3,609167	0,1	0,052293
3,610833	0,1	0,032056
3,612500	0,1	0,077085
3,614167	0,1	0,012898
3,615833	0,1	0,082656
3,617500	0,1	0,052971
3,619167	0,1	0,039272
3,620833	0,1	0,050899
3,622500	0,1	0,020909
3,624167	0,1	0,056435
3,625833	0,1	0,050066
3,627500	0,1	0,069874
3,629167	0,1	0,068044
3,630833	0,1	0,062533
3,632500	0,1	0,023296
3,634167	0,1	0,028892
3,635833	0,1	0,047482
3,637500	0,1	0,075414
3,639167	0,1	0,035511
3,640833	0,1	0,048901
3,642500	0,1	0,025228
3,644167	0,1	0,043517
3,645833	0,1	0,053735
3,647500	0,1	0,063465
3,649167	0,1	0,065852
3,650833	0,1	0,041563
3,652500	0,1	0,020973
3,654167	0,1	0,039169
3,655833	0,1	0,049160
3,657500	0,1	0,016562
3,659167	0,1	0,046350
3,660833	0,1	0,035631
3,662500	0,1	0,071644
3,664167	0,1	0,052677
3,665833	0,1	0,007383
3,667500	0,1	0,042741
3,669167	0,1	0,068295
3,670833	0,1	0,013346
3,672500	0,1	0,055209
3,674167	0,1	0,013698
3,675833	0,1	0,023963
3,677500	0,1	0,040973
3,679167	0,1	0,046712
3,680833	0,1	0,033699
3,682500	0,1	0,029702
3,684167	0,1	0,035272
3,685833	0,1	0,044100
3,687500	0,1	0,061079
3,689167	0,1	0,077448
3,690833	0,1	0,073651
3,692500	0,1	0,041017
3,694167	0,1	0,014467
3,695833	0,1	0,053244
3,697500	0,1	0,043524
3,699167	0,1	0,030735
3,700833	0,1	0,056855
3,702500	0,1	0,050194
3,704167	0,1	0,029029
3,705833	0,1	0,034370
3,707500	0,1	0,021937
3,709167	0,1	0,037461
3,710833	0,1	0,052218
3,712500	0,1	0,027677
3,714167	0,1	0,004865
3,715833	0,1	0,056302
3,717500	0,1	0,024296
3,719167	0,1	0,072187
3,720833	0,1	0,037989
3,722500	0,1	0,026225
3,724167	0,1	0,027703
3,725833	0,1	-0,001029
3,727500	0,1	0,014136
3,729167	0,1	0,031630
3,730833	0,1	0,006152
3,732500	0,1	0,046897
3,734167	0,1	0,026418
3,735833	0,1	0,012852
3,737500	0,1	0,021322
3,739167	0,1	0,019777
3,740833	0,1	0,013208
3,742500	0,1	0,037201
3,744167	0,1	0,017914
3,745833	0,1	0,048188
3,747500	0,1	0,007962
3,749167	0,1	0,057785
3,750833	0,1	0,055735
3,752500	0,1	0,010252
3,754167	0,1	0,018517
3,755833	0,1	0,022290
3,757500	0,1	0,068354
3,759167	0,1	0,038761
3,760833	0,1	0,015819
3,762500	0,1	0,069479
3,764167	0,1	0,006067
3,765833	0,1	0,033819
3,767500	0,1	0,052315
3,769167	0,1	0,042880
3,770833	0,1	0,064782
3,772500	0,1	0,034863
3,774167	0,1	0,071223
3,775833	0,1	0,075904
3,777500	0,1	0,025170
3,779167	0,1	-0,000094
3,780833	0,1	0,091479
3,782500	0,1	0,087120
3,784167	0,1	0,058191
3,785833	0,1	0,023490
3,787500	0,1	0,057982
3,789167	0,1	0,057539
3,790833	0,1	0,062015
3,792500	0,1	0,032157
3,794167	0,1	0,049446
3,795833	0,1	0,025904
3,797500	0,1	0,017684
3,799167	0,1	0,015977
3,800833	0,1	0,018003
3,802500	0,1	0,035432
3,804167	0,1	0,027221
3,805833	0,1	0,050059
3,807500	0,1	0,018174
3,809167	0,1	0,013753
3,810833	0,1	0,057271
3,812500	0,1	0,067590
3,814167	0,1	0,042368
3,815833	0,1	0,046648
3,817500	0,1	0,049096
3,819167	0,1	0,005450
3,820833	0,1	0,019516
3,822500	0,1	0,019455
3,824167	0,1	0,042614
3,825833	0,1	0,028995
3,827500	0,1	0,054633
3,829167	0,1	0,028771
3,830833	0,1	0,037140
3,832500	0,1	0,014500
3,834167	0,1	0,029504
3,835833	0,1	0,019845
3,837500	0,1	0,043034
3,839167	0,1	0,012374
3,840833	0,1	-0,002639
3,842500	0,1	0,046861
3,844167	0,1	0,028577
3,845833	0,1	0,041491
3,847500	0,1	0,071258
3,849167	0,1	0,019919
3,850833	0,1	0,034561
3,852500	0,1	0,032473
3,854167	0,1	0,051250
3,855833	0,1	0,003229
3,857500	0,1	0,049826
3,859167	0,1	0,026516
3,860833	0,1	0,021742
3,862500	0,1	0,028926
3,864167	0,1	0,039622
3,865833	0,1	0,017915
3,867500	0,1	0,010147
3,869167	0,1	0,022224
3,870833	0,1	0,017138
3,872500	0,1	0,044773
3,874167	0,1	0,033634
3,875833	0,1	0,072545
3,877500	0,1	0,039890
3,879167	0,1	0,034630
3,880833	0,1	0,030218
3,882500	0,1	0,043360
3,884167	0,1	0,022714
3,885833	0,1	0,005542
3,887500	0,1	0,048345
3,889167	0,1	0,065139
3,890833	0,1	0,063211
3,892500	0,1	0,010573
3,894167	0,1	0,025895
3,895833	0,1	0,027090
3,897500	0,1	0,049028
3,899167	0,1	0,026323
3,900833	0,1	0,059979
3,902500	0,1	0,039532
3,904167	0,1	0,006800
3,905833	0,1	0,019227
3,907500	0,1	0,009888
3,909167	0,1	0,037428
3,910833	0,1	0,044423
3,912500	0,1	0,036371
3,914167	0,1	0,052218
3,915833	0,1	0,064269
3,917500	0,1	0,006905
3,919167	0,1	0,031885
3,920833	0,1	0,043295
3,922500	0,1	0,041267
3,924167	0,1	0,015404
3,925833	0,1	0,069672
3,927500	0,1	0,025588
3,929167	0,1	0,031311
3,930833	0,1	0,022422
3,932500	0,1	0,033015
3,934167	0,1	0,020295
3,935833	0,1	0,047223
3,937500	0,1	0,005933
3,939167	0,1	0,042031
3,940833	0,1	0,015338
3,942500	0,1	0,017489
3,944167	0,1	0,002900
3,945833	0,1	0,033753
3,947500	0,1	0,067744
3,949167	0,1	0,051259
3,950833	0,1	0,038305
3,952500	0,1	0,008989
3,954167	0,1	0,010786
3,955833	0,1	0,044029
3,957500	0,1	0,035568
3,959167	0,1	0,008636
3,960833	0,1	0,012368
3,962500	0,1	0,038974
3,964167	0,1	0,021230
3,965833	0,1	0,016523
3,967500	0,1	0,029828
3,969167	0,1	0,041684
3,970833	0,1	0,074639
3,972500	0,1	0,009837
3,974167	0,1	0,037750
3,975833	0,1	0,046324
3,977500	0,1	0,038820
3,979167	0,1	0,037465
3,980833	0,1	0,042330
3,982500	0,1	0,028963
3,984167	0,1	-0,022671
3,985833	0,1	0,037579
3,987500	0,1	0,048030
3,989167	0,1	0,021589
3,990833	0,1	0,005508
3,992500	0,1	0,046863
3,994167	0,1	0,037531
3,995833	0,1	0,022455
3,997500	0,1	0,015075
3,999167	0,1	0,011691
4,000833	0,1	0,032821
4,002500	0,1	0,043359
4,004167	0,1	0,032540
4,005833	0,1	0,009116
4,007500	0,1	0,005956
4,009167	0,1	0,042934
4,010833	0,1	-0,027821
4,012500	0,1	0,045729
4,014167	0,1	0,008897
4,015833	0,1	0,029662
4,017500	0,1	-0,012335
4,019167	0,1	0,040481
4,020833	0,1	-0,009852
4,022500	0,1	0,035457
4,024167	0,1	0,023163
4,025833	0,1	0,054310
4,027500	0,1	0,026453
4,029167	0,1	0,026382
4,030833	0,1	0,044871
4,032500	0,1	0,016143
4,034167	0,1	0,044065
4,035833	0,1	0,023457
4,037500	0,1	0,063587
4,039167	0,1	0,035250
4,040833	0,1	0,013791
4,042500	0,1	0,027989
4,044167	0,1	-0,025991
4,045833	0,1	0,018832
4,047500	0,1	0,038620
4,049167	0,1	0,000682
4,050833	0,1	0,034525
4,052500	0,1	0,000905
4,054167	0,1	0,049117
4,055833	0,1	-0,002441
4,057500	0,1	-0,008635
4,059167	0,1	0,011041
4,060833	0,1	-0,017621
4,062500	0,1	0,020831
4,064167	0,1	0,049894
4,065833	0,1	0,016207
4,067500	0,1	-0,001256
4,069167	0,1	0,012428
4,070833	0,1	0,021869
4,072500	0,1	-0,014879
4,074167	0,1	0,014325
4,075833	0,1	0,022482
4,077500	0,1	0,055629
4,079167	0,1	0,013473
4,080833	0,1	0,027087
4,082500	0,1	0,005800
4,084167	0,1	0,016102
4,085833	0,1	0,044516
4,087500	0,1	0,059564
4,089167	0,1	-0,004210
4,090833	0,1	0,044317
4,092500	0,1	-0,008239
4,094167	0,1	0,017454
4,095833	0,1	-0,027315
4,097500	0,1	0,018543
4,099167	0,1	0,013721
4,100833	0,1	0,043516
4,102500	0,1	0,017303
4,104167	0,1	0,021290
4,105833	0,1	0,013818
4,107500	0,1	-0,007958
4,109167	0,1	0,002795
4,110833	0,1	0,003958
4,112500	0,1	0,032497
4,114167	0,1	0,032890
4,115833	0,1	0,068839
4,117500	0,1	0,006486
4,119167	0,1	-0,014014
4,120833	0,1	0,012040
4,122500	0,1	0,065002
4,124167	0,1	0,021366
4,125833	0,1	0,021067
4,127500	0,1	-0,001092
4,129167	0,1	0,007178
4,130833	0,1	0,012010
4,132500	0,1	0,025961
4,134167	0,1	0,036852
4,135833	0,1	0,032118
4,137500	0,1	0,070514
4,139167	0,1	0,051775
4,140833	0,1	0,054317
4,142500	0,1	0,023716
4,144167	0,1	-0,011628
4,145833	0,1	0,007627
4,147500	0,1	0,049023
4,149167	0,1	0,000395
4,150833	0,1	0,032078
4,152500	0,1	0,053183
4,154167	0,1	0,003906
4,155833	0,1	0,041579
4,157500	0,1	0,025132
4,159167	0,1	0,047804
4,160833	0,1	-0,004822
4,162500	0,1	-0,008155
4,164167	0,1	0,027825
4,165833	0,1	0,011149
4,167500	0,1	0,039812
4,169167	0,1	0,044423
4,170833	0,1	0,020460
4,172500	0,1	-0,011818
4,174167	0,1	0,021671
4,175833	0,1	0,033887
4,177500	0,1	-0,029303
4,179167	0,1	0,009847
4,180833	0,1	-0,021743
4,182500	0,1	0,021345
4,184167	0,1	0,043486
4,185833	0,1	0,009410
4,187500	0,1	-0,014013
4,189167	0,1	0,015776
4,190833	0,1	0,000067
4,192500	0,1	0,016037
4,194167	0,1	0,038555
4,195833	0,1	0,017593
4,197500	0,1	-0,014203
4,199167	0,1	-0,000039
4,200833	0,1	0,008467
4,202500	0,1	-0,002899
4,204167	0,1	0,007597
4,205833	0,1	-0,018070
4,207500	0,1	-0,005258
4,209167	0,1	0,036746
4,210833	0,1	0,003293
4,212500	0,1	-0,016880
4,214167	0,1	0,008754
4,215833	0,1	-0,004995
4,217500	0,1	0,043738
4,219167	0,1	-0,003019
4,220833	0,1	0,027375
4,222500	0,1	-0,008631
4,224167	0,1	0,044509
4,225833	0,1	0,014598
4,227500	0,1	-0,009438
4,229167	0,1	0,021928
4,230833	0,1	0,018554
4,232500	0,1	0,007311
4,234167	0,1	0,014202
4,235833	0,1	-0,018489
4,237500	0,1	0,032298
4,239167	0,1	0,009827
4,240833	0,1	0,019808
4,242500	0,1	-0,030531
4,244167	0,1	0,001988
4,245833	0,1	-0,003417
4,247500	0,1	-0,025291
4,249167	0,1	-0,008483
4,250833	0,1	-0,015594
4,252500	0,1	0,015776
4,254167	0,1	0,022549
4,255833	0,1	-0,018131
4,257500	0,1	-0,001265
4,259167	0,1	0,055335
4,260833	0,1	0,015922
4,262500	0,1	-0,013400
4,264167	0,1	0,029593
4,265833	0,1	0,016332
4,267500	0,1	-0,000676
4,269167	0,1	0,006181
4,270833	0,1	0,012045
4,272500	0,1	0,025026
4,274167	0,1	0,008312
4,275833	0,1	0,025059
4,277500	0,1	0,021678
4,279167	0,1	-0,006088
4,280833	0,1	-0,045127
4,282500	0,1	0,028202
4,284167	0,1	-0,000513
4,285833	0,1	0,003377
4,287500	0,1	0,021544
4,289167	0,1	-0,009241
4,290833	0,1	0,036264
4,292500	0,1	-0,025601
4,294167	0,1	-0,008900
4,295833	0,1	0,022637
4,297500	0,1	-0,014330
4,299167	0,1	-0,045257
4,300833	0,1	-0,019179
4,302500	0,1	0,002793
4,304167	0,1	0,001804
4,305833	0,1	0,005989
4,307500	0,1	0,030951
4,309167	0,1	0,010375
4,310833	0,1	0,011497
4,312500	0,1	0,000451
4,314167	0,1	-0,010247
4,315833	0,1	-0,026801
4,317500	0,1	0,007076
4,319167	0,1	0,016905
4,320833	0,1	0,012820
4,322500	0,1	-0,033881
4,324167	0,1	0,006333
4,325833	0,1	0,014009
4,327500	0,1	-0,028152
4,329167	0,1	-0,040692
4,330833	0,1	-0,002334
4,332500	0,1	0,039132
4,334167	0,1	0,035404
4,335833	0,1	0,023936
4,337500	0,1	-0,011305
4,339167	0,1	-0,004904
4,340833	0,1	-0,000906
4,342500	0,1	0,010819
4,344167	0,1	0,036944
4,345833	0,1	-0,021897
4,347500	0,1	-0,006451
4,349167	0,1	-0,026063
4,350833	0,1	0,002342
4,352500	0,1	-0,007961
4,354167	0,1	-0,019106
4,355833	0,1	-0,010312
4,357500	0,1	0,026566
4,359167	0,1	0,006059
4,360833	0,1	-0,005028
4,362500	0,1	0,004729
4,364167	0,1	-0,002938
4,365833	0,1	-0,013756
4,367500	0,1	0,009816
4,369167	0,1	0,006764
4,370833	0,1	0,044029
4,372500	0,1	0,031381
4,374167	0,1	0,003192
4,375833	0,1	0,036138
4,377500	0,1	0,002742
4,379167	0,1	0,006246
4,380833	0,1	0,027377
4,382500	0,1	0,012533
4,384167	0,1	0,003412
4,385833	0,1	-0,021228
4,387500	0,1	0,024729
4,389167	0,1	0,010245
4,390833	0,1	0,015684
4,392500	0,1	0,027572
4,394167	0,1	0,010245
4,395833	0,1	-0,002805
4,397500	0,1	0,009722
4,399167	0,1	-0,014589
4,400833	0,1	-0,000136
4,402500	0,1	0,020126
4,404167	0,1	-0,020677
4,405833	0,1	-0,002169
4,407500	0,1	0,010238
4,409167	0,1	0,011142
4,410833	0,1	0,018004
4,412500	0,1	0,024512
4,414167	0,1	0,007024
4,415833	0,1	-0,023324
4,417500	0,1	0,040447
4,419167	0,1	-0,035163
4,420833	0,1	0,002436
4,422500	0,1	0,004599
4,424167	0,1	-0,011338
4,425833	0,1	0,002121
4,427500	0,1	-0,008285
4,429167	0,1	-0,006480
4,430833	0,1	0,004988
4,432500	0,1	-0,046737
4,434167	0,1	0,034193
4,435833	0,1	0,032216
4,437500	0,1	-0,016873
4,439167	0,1	0,036162
4,440833	0,1	-0,010366
4,442500	0,1	-0,009413
4,444167	0,1	0,016323
4,445833	0,1	0,010630
4,447500	0,1	-0,004478
4,449167	0,1	0,002604
4,450833	0,1	-0,000551
4,452500	0,1	0,022866
4,454167	0,1	-0,017038
4,455833	0,1	-0,051251
4,457500	0,1	-0,006650
4,459167	0,1	-0,024259
4,460833	0,1	0,023020
4,462500	0,1	0,003482
4,464167	0,1	-0,027314
4,465833	0,1	-0,028581
4,467500	0,1	-0,002588
4,469167	0,1	-0,047411
4,470833	0,1	-0,035283
4,472500	0,1	0,034548
4,474167	0,1	-0,028566
4,475833	0,1	0,023535
4,477500	0,1	-0,026248
4,479167	0,1	0,025115
4,480833	0,1	0,004803
4,482500	0,1	-0,063419
4,484167	0,1	-0,021568
4,485833	0,1	-0,010348
4,487500	0,1	-0,037500
4,489167	0,1	-0,021882
4,490833	0,1	0,040479
4,492500	0,1	-0,029238
4,494167	0,1	0,023920
4,495833	0,1	-0,009725
4,497500	0,1	-0,020360
4,499167	0,1	0,003535
4,500833	0,1	0,008630
4,502500	0,1	-0,005508
4,504167	0,1	-0,011405
4,505833	0,1	0,012522
4,507500	0,1	-0,017297
4,509167	0,1	-0,005097
4,510833	0,1	-0,065418
4,512500	0,1	-0,043017
4,514167	0,1	-0,038955
4,515833	0,1	-0,006776
4,517500	0,1	-0,014789
4,519167	0,1	-0,010443
4,520833	0,1	-0,039880
4,522500	0,1	0,000983
4,524167	0,1	0,000480
4,525833	0,1	-0,046255
4,527500	0,1	-0,015091
4,529167	0,1	-0,026258
4,530833	0,1	0,010136
4,532500	0,1	-0,021515
4,534167	0,1	-0,002685
4,535833	0,1	0,002251
4,537500	0,1	-0,032311
4,539167	0,1	-0,054991
4,540833	0,1	-0,042211
4,542500	0,1	-0,033702
4,544167	0,1	0,014644
4,545833	0,1	0,003544
4,547500	0,1	-0,010630
4,549167	0,1	-0,082937
4,550833	0,1	-0,027207
4,552500	0,1	-0,022748
4,554167	0,1	-0,040847
4,555833	0,1	0,006978
4,557500	0,1	-0,026733
4,559167	0,1	-0,034890
4,560833	0,1	-0,046263
4,562500	0,1	-0,031546
4,564167	0,1	-0,035052
4,565833	0,1	-0,042365
4,567500	0,1	-0,022787
4,569167	0,1	-0,050092
4,570833	0,1	-0,036896
4,572500	0,1	-0,043074
4,574167	0,1	-0,038891
4,575833	0,1	-0,042911
4,577500	0,1	-0,052382
4,579167	0,1	-0,032869
4,580833	0,1	-0,041754
4,582500	0,1	-0,044716
4,584167	0,1	-0,031254
4,585833	0,1	-0,029899
4,587500	0,1	-0,034151
4,589167	0,1	-0,048034
4,590833	0,1	-0,050711
4,592500	0,1	-0,054444
4,594167	0,1	-0,072415
4,595833	0,1	-0,054710
4,597500	0,1	-0,036185
4,599167	0,1	-0,055572
4,600833	0,1	-0,033509
4,602500	0,1	-0,023390
4,604167	0,1	-0,072699
4,605833	0,1	-0,040667
4,607500	0,1	-0,046196
4,609167	0,1	-0,064006
4,610833	0,1	-0,063661
4,612500	0,1	-0,049005
4,614167	0,1	-0,043844
4,615833	0,1	-0,026873
4,617500	0,1	-0,043135
4,619167	0,1	-0,047357
4,620833	0,1	-0,051450
4,622500	0,1	-0,054960
4,624167	0,1	-0,075021
4,625833	0,1	-0,076545
4,627500	0,1	-0,078380
4,629167	0,1	-0,061119
4,630833	0,1	-0,057383
4,632500	0,1	-0,071771
4,634167	0,1	-0,041150
4,635833	0,1	-0,081492
4,637500	0,1	-0,045725
4,639167	0,1	-0,036247
4,640833	0,1	-0,081363
4,642500	0,1	-0,095225
4,644167	0,1	-0,082085
4,645833	0,1	-0,080992
4,647500	0,1	-0,042052
4,649167	0,1	-0,034122
4,650833	0,1	-0,059240
4,652500	0,1	-0,072346
4,654167	0,1	-0,112124
4,655833	0,1	-0,103279
4,657500	0,1	-0,032877
4,659167	0,1	-0,031411
4,660833	0,1	-0,069863
4,662500	0,1	-0,071549
4,664167	0,1	-0,058632
4,665833	0,1	-0,109545
4,667500	0,1	-0,083082
4,669167	0,1	-0,067785
4,670833	0,1	-0,098109
4,672500	0,1	-0,106496
4,674167	0,1	-0,083993
4,675833	0,1	-0,053258
4,677500	0,1	-0,097696
4,679167	0,1	-0,049622
4,680833	0,1	-0,101523
4,682500	0,1	-0,094941
4,684167	0,1	-0,078349
4,685833	0,1	-0,092520
4,687500	0,1	-0,051136
4,689167	0,1	-0,068294
4,690833	0,1	-0,093574
4,692500	0,1	-0,099312
4,694167	0,1	-0,090395
4,695833	0,1	-0,072326
4,697500	0,1	-0,122462
4,699167	0,1	-0,101413
4,700833	0,1	-0,080601
4,702500	0,1	-0,060800
4,704167	0,1	-0,092864
4,705833	0,1	-0,107528
4,707500	0,1	-0,100121
4,709167	0,1	-0,064697
4,710833	0,1	-0,069452
4,712500	0,1	-0,092739
4,714167	0,1	-0,090615
4,715833	0,1	-0,071460
4,717500	0,1	-0,095188
4,719167	0,1	-0,114803
4,720833	0,1	-0,089755
4,722500	0,1	-0,096706
4,724167	0,1	-0,103949
4,725833	0,1	-0,086951
4,727500	0,1	-0,101086
4,729167	0,1	-0,104403
4,730833	0,1	-0,085727
4,732500	0,1	-0,112389
4,734167	0,1	-0,118772
4,735833	0,1	-0,110076
4,737500	0,1	-0,116612
4,739167	0,1	-0,119706
4,740833	0,1	-0,130846
4,742500	0,1	-0,075167
4,744167	0,1	-0,126038
4,745833	0,1	-0,104019
4,747500	0,1	-0,109844
4,749167	0,1	-0,082444
4,750833	0,1	-0,117604
4,752500	0,1	-0,108334
4,754167	0,1	-0,105756
4,755833	0,1	-0,126072
4,757500	0,1	-0,103601
4,759167	0,1	-0,122732
4,760833	0,1	-0,114132
4,762500	0,1	-0,147787
4,764167	0,1	-0,118391
4,765833	0,1	-0,120181
4,767500	0,1	-0,108107
4,769167	0,1	-0,108104
4,770833	0,1	-0,100313
4,772500	0,1	-0,100602
4,774167	0,1	-0,120829
4,775833	0,1	-0,144334
4,777500	0,1	-0,108150
4,779167	0,1	-0,110073
4,780833	0,1	-0,132868
4,782500	0,1	-0,088210
4,784167	0,1	-0,134150
4,785833	0,1	-0,120410
4,787500	0,1	-0,133875
4,789167	0,1	-0,120709
4,790833	0,1	-0,152614
4,792500	0,1	-0,108859
4,794167	0,1	-0,124785
4,795833	0,1	-0,107883
4,797500	0,1	-0,122889
4,799167	0,1	-0,135545
4,800833	0,1	-0,132946
4,802500	0,1	-0,123086
4,804167	0,1	-0,133486
4,805833	0,1	-0,119957
4,807500	0,1	-0,148071
4,809167	0,1	-0,117421
4,810833	0,1	-0,129167
4,812500	0,1	-0,107502
4,814167	0,1	-0,107950
4,815833	0,1	-0,141429
4,817500	0,1	-0,151486
4,819167	0,1	-0,181081
4,820833	0,1	-0,166887
4,822500	0,1	-0,149142
4,824167	0,1	-0,169226
4,825833	0,1	-0,131883
4,827500	0,1	-0,096484
4,829167	0,1	-0,165941
4,830833	0,1	-0,135945
4,832500	0,1	-0,165750
4,834167	0,1	-0,137678
4,835833	0,1	-0,111177
4,837500	0,1	-0,143561
4,839167	0,1	-0,126309
4,840833	0,1	-0,139092
4,842500	0,1	-0,141734
4,844167	0,1	-0,186167
4,845833	0,1	-0,164284
4,847500	0,1	-0,141832
4,849167	0,1	-0,161444
4,850833	0,1	-0,109795
4,852500	0,1	-0,145493
4,854167	0,1	-0,169327
4,855833	0,1	-0,135230
4,857500	0,1	-0,117355
4,859167	0,1	-0,130810
4,860833	0,1	-0,169197
4,862500	0,1	-0,145507
4,864167	0,1	-0,186976
4,865833	0,1	-0,156458
4,867500	0,1	-0,117161
4,869167	0,1	-0,167107
4,870833	0,1	-0,153713
4,872500	0,1	-0,112016
4,874167	0,1	-0,169671
4,875833	0,1	-0,144889
4,877500	0,1	-0,184401
4,879167	0,1	-0,179892
4,880833	0,1	-0,107189
4,882500	0,1	-0,154733
4,884167	0,1	-0,144596
4,885833	0,1	-0,140185
4,887500	0,1	-0,154668
4,889167	0,1	-0,162154
4,890833	0,1	-0,154102
4,892500	0,1	-0,168812
4,894167	0,1	-0,172098
4,895833	0,1	-0,142704
4,897500	0,1	-0,166877
4,899167	0,1	-0,177538
4,900833	0,1	-0,165408
4,902500	0,1	-0,157186
4,904167	0,1	-0,139962
4,905833	0,1	-0,141827
4,907500	0,1	-0,179692
4,909167	0,1	-0,189976
4,910833	0,1	-0,156875
4,912500	0,1	-0,174491
4,914167	0,1	-0,132629
4,915833	0,1	-0,161206
4,917500	0,1	-0,126313
4,919167	0,1	-0,193183
4,920833	0,1	-0,152758
4,922500	0,1	-0,117012
4,924167	0,1	-0,138310
4,925833	0,1	-0,170775
4,927500	0,1	-0,154332
4,929167	0,1	-0,163569
4,930833	0,1	-0,182435
4,932500	0,1	-0,161190
4,934167	0,1	-0,174883
4,935833	0,1	-0,202979
4,937500	0,1	-0,158711
4,939167	0,1	-0,158282
4,940833	0,1	-0,159887
4,942500	0,1	-0,164960
4,944167	0,1	-0,172815
4,945833	0,1	-0,157588
4,947500	0,1	-0,187560
4,949167	0,1	-0,148087
4,950833	0,1	-0,206899
4,952500	0,1	-0,177195
4,954167	0,1	-0,159774
4,955833	0,1	-0,137714
4,957500	0,1	-0,177823
4,959167	0,1	-0,130308
4,960833	0,1	-0,159573
4,962500	0,1	-0,122992
4,964167	0,1	-0,154927
4,965833	0,1	-0,221168
4,967500	0,1	-0,173445
4,969167	0,1	-0,144156
4,970833	0,1	-0,175196
4,972500	0,1	-0,159295
4,974167	0,1	-0,131528
4,975833	0,1	-0,159880
4,977500	0,1	-0,133876
4,979167	0,1	-0,177921
4,980833	0,1	-0,165081
4,982500	0,1	-0,147955
4,984167	0,1	-0,174768
4,985833	0,1	-0,154232
4,987500	0,1	-0,153583
4,989167	0,1	-0,213225
4,990833	0,1	-0,183699
4,992500	0,1	-0,172201
4,994167	0,1	-0,175354
4,995833	0,1	-0,180443
4,997500	0,1	-0,172935
4,999167	0,1	-0,180115
5,000833	0,1	-0,161190
5,002500	0,1	-0,174862
5,004167	0,1	-0,175809
5,005833	0,1	-0,172980
5,007500	0,1	-0,196441
5,009167	0,1	-0,194325
5,010833	0,1	-0,158037
5,012500	0,1	-0,181058
5,014167	0,1	-0,135749
5,015833	0,1	-0,190747
5,017500	0,1	-0,195611
5,019167	0,1	-0,164188
5,020833	0,1	-0,198571
5,022500	0,1	-0,172496
5,024167	0,1	-0,192186
5,025833	0,1	-0,123898
5,027500	0,1	-0,177439
5,029167	0,1	-0,205456
5,030833	0,1	-0,187445
5,032500	0,1	-0,183148
5,034167	0,1	-0,182995
5,035833	0,1	-0,135169
5,037500	0,1	-0,176861
5,039167	0,1	-0,190619
5,040833	0,1	-0,169855
5,042500	0,1	-0,175318
5,044167	0,1	-0,153490
5,045833	0,1	-0,155743
5,047500	0,1	-0,167296
5,049167	0,1	-0,144219
5,050833	0,1	-0,202039
5,052500	0,1	-0,181965
5,054167	0,1	-0,193512
5,055833	0,1	-0,203501
5,057500	0,1	-0,167146
5,059167	0,1	-0,206690
5,060833	0,1	-0,161678
5,062500	0,1	-0,153712
5,064167	0,1	-0,179959
5,065833	0,1	-0,192805
5,067500	0,1	-0,155134
5,069167	0,1	-0,201725
5,070833	0,1	-0,187458
5,072500	0,1	-0,191519
5,074167	0,1	-0,194714
5,075833	0,1	-0,171169
5,077500	0,1	-0,141933
5,079167	0,1	-0,178820
5,080833	0,1	-0,212512
5,082500	0,1	-0,206788
5,084167	0,1	-0,180098
5,085833	0,1	-0,220846
5,087500	0,1	-0,192234
5,089167	0,1	-0,161728
5,090833	0,1	-0,205034
5,092500	0,1	-0,216420
5,094167	0,1	-0,156808
5,095833	0,1	-0,164822
5,097500	0,1	-0,206097
5,099167	0,1	-0,195122
5,100833	0,1	-0,188428
5,102500	0,1	-0,191483
5,104167	0,1	-0,191203
5,105833	0,1	-0,183705
5,107500	0,1	-0,167049
5,109167	0,1	-0,190680
5,110833	0,1	-0,159225
5,112500	0,1	-0,169003
5,114167	0,1	-0,231055
5,115833	0,1	-0,160748
5,117500	0,1	-0,214995
5,119167	0,1	-0,172082
5,120833	0,1	-0,210515
5,122500	0,1	-0,181841
5,124167	0,1	-0,187882
5,125833	0,1	-0,201469
5,127500	0,1	-0,191371
5,129167	0,1	-0,172139
5,130833	0,1	-0,186339
5,132500	0,1	-0,197996
5,134167	0,1	-0,214929
5,135833	0,1	-0,191817
5,137500	0,1	-0,192417
5,139167	0,1	-0,182153
5,140833	0,1	-0,167313
5,142500	0,1	-0,204656
5,144167	0,1	-0,247451
5,145833	0,1	-0,161269
5,147500	0,1	-0,195604
5,149167	0,1	-0,187467
5,150833	0,1	-0,169337
5,152500	0,1	-0,214922
5,154167	0,1	-0,205944
5,155833	0,1	-0,202836
5,157500	0,1	-0,194263
5,159167	0,1	-0,183857
5,160833	0,1	-0,192200
5,162500	0,1	-0,190232
5,164167	0,1	-0,196354
5,165833	0,1	-0,172949
5,167500	0,1	-0,188144
5,169167	0,1	-0,217818
5,170833	0,1	-0,174369
5,172500	0,1	-0,192135
5,174167	0,1	-0,221303
5,175833	0,1	-0,172174
5,177500	0,1	-0,182275
5,179167	0,1	-0,184536
5,180833	0,1	-0,186595
5,182500	0,1	-0,215507
5,184167	0,1	-0,204896
5,185833	0,1	-0,207482
5,187500	0,1	-0,181513
5,189167	0,1	-0,207590
5,190833	0,1	-0,208884
5,192500	0,1	-0,178811
5,194167	0,1	-0,191745
5,195833	0,1	-0,248799
5,197500	0,1	-0,225848
5,199167	0,1	-0,213230
5,200833	0,1	-0,221763
5,202500	0,1	-0,210100
5,204167	0,1	-0,189441
5,205833	0,1	-0,188036
5,207500	0,1	-0,221378
5,209167	0,1	-0,209947
5,210833	0,1	-0,166059
5,212500	0,1	-0,152263
5,214167	0,1	-0,184945
5,215833	0,1	-0,201342
5,217500	0,1	-0,202077
5,219167	0,1	-0,178581
5,220833	0,1	-0,240589
5,222500	0,1	-0,200786
5,224167	0,1	-0,196522
5,225833	0,1	-0,217351
5,227500	0,1	-0,184253
5,229167	0,1	-0,206011
5,230833	0,1	-0,217645
5,232500	0,1	-0,207472
5,234167	0,1	-0,185767
5,235833	0,1	-0,197187
5,237500	0,1	-0,221696
5,239167	0,1	-0,182449
5,240833	0,1	-0,215127
5,242500	0,1	-0,192169
5,244167	0,1	-0,206973
5,245833	0,1	-0,160289
5,247500	0,1	-0,195565
5,249167	0,1	-0,181510
5,250833	0,1	-0,170015
5,252500	0,1	-0,154069
5,254167	0,1	-0,214275
5,255833	0,1	-0,203443
5,257500	0,1	-0,200991
5,259167	0,1	-0,173683
5,260833	0,1	-0,145698
5,262500	0,1	-0,195865
5,264167	0,1	-0,218576
5,265833	0,1	-0,202258
5,267500	0,1	-0,198289
5,269167	0,1	-0,189438
5,270833	0,1	-0,194587
5,272500	0,1	-0,205472
5,274167	0,1	-0,182561
5,275833	0,1	-0,181215
5,277500	0,1	-0,204406
5,279167	0,1	-0,221595
5,280833	0,1	-0,183385
5,282500	0,1	-0,198991
5,284167	0,1	-0,223336
5,285833	0,1	-0,177815
5,287500	0,1	-0,204141
5,289167	0,1	-0,212834
5,290833	0,1	-0,182285
5,292500	0,1	-0,202349
5,294167	0,1	-0,195804
5,295833	0,1	-0,213767
5,297500	0,1	-0,167120
5,299167	0,1	-0,190708
5,300833	0,1	-0,213285
5,302500	0,1	-0,209048
5,304167	0,1	-0,230421
5,305833	0,1	-0,205884
5,307500	0,1	-0,152790
5,309167	0,1	-0,195021
5,310833	0,1	-0,196963
5,312500	0,1	-0,195585
5,314167	0,1	-0,167597
5,315833	0,1	-0,176869
5,317500	0,1	-0,239540
5,319167	0,1	-0,181873
5,320833	0,1	-0,184726
5,322500	0,1	-0,199383
5,324167	0,1	-0,190715
5,325833	0,1	-0,196899
5,327500	0,1	-0,191078
5,329167	0,1	-0,220229
5,330833	0,1	-0,176175
5,332500	0,1	-0,197350
5,334167	0,1	-0,215573
5,335833	0,1	-0,164446
5,337500	0,1	-0,195261
5,339167	0,1	-0,243294
5,340833	0,1	-0,203224
5,342500	0,1	-0,176941
5,344167	0,1	-0,181252
5,345833	0,1	-0,230314
5,347500	0,1	-0,219065
5,349167	0,1	-0,240207
5,350833	0,1	-0,179969
5,352500	0,1	-0,194965
5,354167	0,1	-0,226896
5,355833	0,1	-0,232483
5,357500	0,1	-0,208851
5,359167	0,1	-0,192724
5,360833	0,1	-0,182695
5,362500	0,1	-0,222814
5,364167	0,1	-0,208951
5,365833	0,1	-0,205475
5,367500	0,1	-0,156942
5,369167	0,1	-0,212988
5,370833	0,1	-0,192042
5,372500	0,1	-0,177417
5,374167	0,1	-0,191263
5,375833	0,1	-0,197568
5,377500	0,1	-0,186824
5,379167	0,1	-0,201595
5,380833	0,1	-0,197482
5,382500	0,1	-0,218401
5,384167	0,1	-0,181072
5,385833	0,1	-0,171267
5,387500	0,1	-0,208572
5,389167	0,1	-0,193937
5,390833	0,1	-0,211872
5,392500	0,1	-0,176324
5,394167	0,1	-0,217662
5,395833	0,1	-0,211778
5,397500	0,1	-0,193520
5,399167	0,1	-0,222173
5,400833	0,1	-0,199064
5,402500	0,1	-0,244583
5,404167	0,1	-0,186255
5,405833	0,1	-0,216061
5,407500	0,1	-0,151314
5,409167	0,1	-0,184656
5,410833	0,1	-0,169879
5,412500	0,1	-0,223910
5,414167	0,1	-0,219379
5,415833	0,1	-0,201930
5,417500	0,1	-0,205209
5,419167	0,1	-0,214059
5,420833	0,1	-0,200413
5,422500	0,1	-0,235028
5,424167	0,1	-0,218838
5,425833	0,1	-0,209530
5,427500	0,1	-0,210235
5,429167	0,1	-0,195514
5,430833	0,1	-0,257066
5,432500	0,1	-0,254709
5,434167	0,1	-0,208402
5,435833	0,1	-0,202572
5,437500	0,1	-0,242489
5,439167	0,1	-0,199096
5,440833	0,1	-0,192457
5,442500	0,1	-0,211998
5,444167	0,1	-0,228138
5,445833	0,1	-0,223635
5,447500	0,1	-0,216247
5,449167	0,1	-0,248552
5,450833	0,1	-0,203060
5,452500	0,1	-0,243940
5,454167	0,1	-0,167054
5,455833	0,1	-0,222684
5,457500	0,1	-0,231194
5,459167	0,1	-0,209217
5,460833	0,1	-0,217935
5,462500	0,1	-0,212548
5,464167	0,1	-0,190564
5,465833	0,1	-0,248798
5,467500	0,1	-0,223285
5,469167	0,1	-0,197930
5,470833	0,1	-0,220306
5,472500	0,1	-0,223404
5,474167	0,1	-0,204543
5,475833	0,1	-0,175425
5,477500	0,1	-0,232395
5,479167	0,1	-0,217474
5,480833	0,1	-0,191754
5,482500	0,1	-0,220722
5,484167	0,1	-0,193181
5,485833	0,1	-0,196647
5,487500	0,1	-0,218437
5,489167	0,1	-0,197940
5,490833	0,1	-0,232602
5,492500	0,1	-0,212639
5,494167	0,1	-0,212457
5,495833	0,1	-0,200957
5,497500	0,1	-0,226682
5,499167	0,1	-0,180810
5,500833	0,1	-0,226577
5,502500	0,1	-0,184255
5,504167	0,1	-0,231500
5,505833	0,1	-0,241295
5,507500	0,1	-0,227525
5,509167	0,1	-0,205441
5,510833	0,1	-0,215512
5,512500	0,1	-0,219768
5,514167	0,1	-0,238415
5,515833	0,1	-0,281729
5,517500	0,1	-0,260220
5,519167	0,1	-0,249748
5,520833	0,1	-0,206054
5,522500	0,1	-0,199731
5,524167	0,1	-0,244191
5,525833	0,1	-0,204927
5,527500	0,1	-0,217795
5,529167	0,1	-0,216321
5,530833	0,1	-0,245635
5,532500	0,1	-0,215584
5,534167	0,1	-0,241620
5,535833	0,1	-0,214660
5,537500	0,1	-0,218733
5,539167	0,1	-0,223695
5,540833	0,1	-0,216575
5,542500	0,1	-0,191427
5,544167	0,1	-0,195611
5,545833	0,1	-0,181345
5,547500	0,1	-0,168263
5,549167	0,1	-0,214239
5,550833	0,1	-0,190920
5,552500	0,1	-0,251171
5,554167	0,1	-0,211458
5,555833	0,1	-0,173939
5,557500	0,1	-0,216235
5,559167	0,1	-0,204984
5,560833	0,1	-0,204238
5,562500	0,1	-0,225422
5,564167	0,1	-0,226714
5,565833	0,1	-0,192172
5,567500	0,1	-0,214600
5,569167	0,1	-0,212003
5,570833	0,1	-0,271108
5,572500	0,1	-0,233907
5,574167	0,1	-0,209976
5,575833	0,1	-0,236444
5,577500	0,1	-0,223017
5,579167	0,1	-0,205629
5,580833	0,1	-0,215828
5,582500	0,1	-0,218051
5,584167	0,1	-0,264837
5,585833	0,1	-0,216687
5,587500	0,1	-0,248161
5,589167	0,1	-0,251551
5,590833	0,1	-0,210143
5,592500	0,1	-0,240281
5,594167	0,1	-0,207628
5,595833	0,1	-0,174846
5,597500	0,1	-0,249186
5,599167	0,1	-0,226100
5,600833	0,1	-0,230325
5,602500	0,1	-0,240754
5,604167	0,1	-0,192404
5,605833	0,1	-0,207000
5,607500	0,1	-0,229753
5,609167	0,1	-0,204698
5,610833	0,1	-0,213099
5,612500	0,1	-0,206472
5,614167	0,1	-0,207596
5,615833	0,1	-0,198100
5,617500	0,1	-0,205169
5,619167	0,1	-0,221433
5,620833	0,1	-0,253210
5,622500	0,1	-0,210826
5,624167	0,1	-0,190338
5,625833	0,1	-0,257168
5,627500	0,1	-0,238928
5,629167	0,1	-0,196429
5,630833	0,1	-0,239066
5,632500	0,1	-0,229393
5,634167	0,1	-0,237760
5,635833	0,1	-0,207086
5,637500	0,1	-0,254660
5,639167	0,1	-0,264177
5,640833	0,1	-0,185189
5,642500	0,1	-0,207970
5,644167	0,1	-0,206661
5,645833	0,1	-0,217417
5,647500	0,1	-0,253664
5,649167	0,1	-0,216835
5,650833	0,1	-0,188824
5,652500	0,1	-0,214446
5,654167	0,1	-0,213709
5,655833	0,1	-0,204441
5,657500	0,1	-0,237794
5,659167	0,1	-0,264387
5,660833	0,1	-0,180693
5,662500	0,1	-0,250701
5,664167	0,1	-0,240506
5,665833	0,1	-0,234318
5,667500	0,1	-0,251673
5,669167	0,1	-0,238323
5,670833	0,1	-0,225138
5,672500	0,1	-0,242203
5,674167	0,1	-0,188731
5,675833	0,1	-0,224747
5,677500	0,1	-0,236309
5,679167	0,1	-0,245879
5,680833	0,1	-0,190462
5,682500	0,1	-0,265246
5,684167	0,1	-0,211107
5,685833	0,1	-0,193029
5,687500	0,1	-0,231024
5,689167	0,1	-0,225883
5,690833	0,1	-0,229263
5,692500	0,1	-0,206401
5,694167	0,1	-0,176450
5,695833	0,1	-0,224392
5,697500	0,1	-0,211942
5,699167	0,1	-0,224843
5,700833	0,1	-0,229452
5,702500	0,1	-0,195455
5,704167	0,1	-0,229572
5,705833	0,1	-0,232510
5,707500	0,1	-0,235743
5,709167	0,1	-0,249477
5,710833	0,1	-0,227401
5,712500	0,1	-0,220881
5,714167	0,1	-0,260065
5,715833	0,1	-0,229082
5,717500	0,1	-0,205986
5,719167	0,1	-0,194024
5,720833	0,1	-0,218765
5,722500	0,1	-0,201311
5,724167	0,1	-0,235885
5,725833	0,1	-0,228167
5,727500	0,1	-0,242104
5,729167	0,1	-0,245489
5,730833	0,1	-0,214586
5,732500	0,1	-0,201084
5,734167	0,1	-0,235015
5,735833	0,1	-0,196645
5,737500	0,1	-0,218274
5,739167	0,1	-0,266377
5,740833	0,1	-0,233933
5,742500	0,1	-0,250349
5,744167	0,1	-0,211015
5,745833	0,1	-0,270944
5,747500	0,1	-0,221283
5,749167	0,1	-0,236597
5,750833	0,1	-0,211656
5,752500	0,1	-0,216509
5,754167	0,1	-0,225133
5,755833	0,1	-0,272424
5,757500	0,1	-0,217901
5,759167	0,1	-0,242290
5,760833	0,1	-0,241842
5,762500	0,1	-0,244971
5,764167	0,1	-0,210169
5,765833	0,1	-0,236305
5,767500	0,1	-0,206114
5,769167	0,1	-0,226710
5,770833	0,1	-0,178640
5,772500	0,1	-0,254121
5,774167	0,1	-0,229321
5,775833	0,1	-0,225819
5,777500	0,1	-0,226221
5,779167	0,1	-0,210844
5,780833	0,1	-0,227000
5,782500	0,1	-0,211615
5,784167	0,1	-0,210994
5,785833	0,1	-0,191134
5,787500	0,1	-0,235239
5,789167	0,1	-0,189852
5,790833	0,1	-0,218941
5,792500	0,1	-0,239500
5,794167	0,1	-0,235668
5,795833	0,1	-0,240629
5,797500	0,1	-0,251220
5,799167	0,1	-0,231354
5,800833	0,1	-0,241145
5,802500	0,1	-0,233800
5,804167	0,1	-0,216894
5,805833	0,1	-0,251669
5,807500	0,1	-0,203807
5,809167	0,1	-0,222567
5,810833	0,1	-0,227318
5,812500	0,1	-0,246750
5,814167	0,1	-0,237449
5,815833	0,1	-0,270533
5,817500	0,1	-0,244348
5,819167	0,1	-0,239924
5,820833	0,1	-0,261003
5,822500	0,1	-0,242062
5,824167	0,1	-0,256334
5,825833	0,1	-0,257473
5,827500	0,1	-0,190666
5,829167	0,1	-0,240618
5,830833	0,1	-0,245817
5,832500	0,1	-0,213677
5,834167	0,1	-0,237265
5,835833	0,1	-0,251119
5,837500	0,1	-0,254216
5,839167	0,1	-0,228235
5,840833	0,1	-0,209394
5,842500	0,1	-0,260518
5,844167	0,1	-0,207242
5,845833	0,1	-0,228615
5,847500	0,1	-0,231461
5,849167	0,1	-0,249452
5,850833	0,1	-0,266916
5,852500	0,1	-0,242731
5,854167	0,1	-0,239884
5,855833	0,1	-0,228649
5,857500	0,1	-0,251406
5,859167	0,1	-0,234320
5,860833	0,1	-0,215191
5,862500	0,1	-0,244374
5,864167	0,1	-0,242460
5,865833	0,1	-0,267175
5,867500	0,1	-0,239701
5,869167	0,1	-0,223851
5,870833	0,1	-0,253147
5,872500	0,1	-0,223186
5,874167	0,1	-0,231775
5,875833	0,1	-0,234316
5,877500	0,1	-0,245527
5,879167	0,1	-0,226945
5,880833	0,1	-0,232699
5,882500	0,1	-0,240539
5,884167	0,1	-0,274334
5,885833	0,1	-0,213849
5,887500	0,1	-0,222494
5,889167	0,1	-0,246506
5,890833	0,1	-0,278630
5,892500	0,1	-0,236611
5,894167	0,1	-0,256622
5,895833	0,1	-0,266990
5,897500	0,1	-0,262486
5,899167	0,1	-0,231911
5,900833	0,1	-0,248214
5,902500	0,1	-0,258101
5,904167	0,1	-0,263293
5,905833	0,1	-0,242793
5,907500	0,1	-0,224143
5,909167	0,1	-0,220628
5,910833	0,1	-0,232899
5,912500	0,1	-0,198411
5,914167	0,1	-0,245050
5,915833	0,1	-0,261499
5,917500	0,1	-0,202988
5,919167	0,1	-0,239307
5,920833	0,1	-0,275040
5,922500	0,1	-0,252150
5,924167	0,1	-0,227262
5,925833	0,1	-0,255119
5,927500	0,1	-0,218403
5,929167	0,1	-0,240044
5,930833	0,1	-0,247649
5,932500	0,1	-0,270284
5,934167	0,1	-0,232998
5,935833	0,1	-0,218383
5,937500	0,1	-0,230513
5,939167	0,1	-0,255927
5,940833	0,1	-0,254469
5,942500	0,1	-0,270474
5,944167	0,1	-0,264899
5,945833	0,1	-0,229462
5,947500	0,1	-0,196226
5,949167	0,1	-0,249115
5,950833	0,1	-0,206243
5,952500	0,1	-0,259518
5,954167	0,1	-0,287983
5,955833	0,1	-0,231399
5,957500	0,1	-0,264371
5,959167	0,1	-0,241279
5,960833	0,1	-0,217831
5,962500	0,1	-0,258107
5,964167	0,1	-0,238916
5,965833	0,1	-0,231679
5,967500	0,1	-0,234857
5,969167	0,1	-0,219698
5,970833	0,1	-0,287951
5,972500	0,1	-0,248075
5,974167	0,1	-0,252346
5,975833	0,1	-0,235545
5,977500	0,1	-0,244655
5,979167	0,1	-0,249668
5,980833	0,1	-0,259781
5,982500	0,1	-0,246718
5,984167	0,1	-0,236338
5,985833	0,1	-0,251119
5,987500	0,1	-0,238535
5,989167	0,1	-0,242611
5,990833	0,1	-0,261421
5,992500	0,1	-0,243071
5,994167	0,1	-0,237637
5,995833	0,1	-0,228294
5,997500	0,1	-0,234793
5,999167	0,1	-0,280089
6,000833	0,1	-0,234036
