File Path	chrom://chromeleon01/ikbm_chromeleon/2022/Rezex/Esteban/220612_chitin_4_7.seq/209.smp/UV_VIS_1.channel/UV_VIS_1.chm
Channel	UV_VIS_1

Injection Information:
Data Vault	ikbm_chromeleon
Injection	Blank__06
Injection Number	52
Position	RA1
Comment	
Processing Method	New ProcMethod
Instrument Method	Short_Rezex_6min_194nm
Type	Blank
Status	Finished
Injection Date	12.06.2022
Injection Time	22:44:17
Injection Volume (µl)	8,000
Dilution Factor	1,0000
Weight	1,0000

Chromatogram Data Information:
Time Min. (min)	0,000833
Time Max. (min)	6,000833
Data Points	3601
Detector	UV
Generating Data System	Chromeleon 7.2.9.11323
Exporting Data System	Chromeleon 7.2.9.0
Operator	Instrument Controller
Signal Quantity	Absorbance
Signal Unit	mAU
Signal Min.	-0,433675
Signal Max.	7,601582
Channel	UV_VIS_1
Driver Name	VWD3000.dll
Channel Type	Evaluation
Min. Step (s)	0,1
Max. Step (s)	0,1
Average Step (s)	0,1

Signal Parameter Information:
Signal Info	WVL:194 nm

Chromatogram Data:
Time (min)	Step (s)	Value (mAU)
0,000833	n.a.	-0,014302
0,002500	0,1	-0,007660
0,004167	0,1	-0,020884
0,005833	0,1	-0,007817
0,007500	0,1	-0,006211
0,009167	0,1	-0,016680
0,010833	0,1	-0,002836
0,012500	0,1	-0,021834
0,014167	0,1	0,018540
0,015833	0,1	-0,031915
0,017500	0,1	-0,009621
0,019167	0,1	0,018186
0,020833	0,1	-0,012385
0,022500	0,1	0,013633
0,024167	0,1	0,018434
0,025833	0,1	-0,022960
0,027500	0,1	0,005607
0,029167	0,1	-0,034298
0,030833	0,1	-0,025328
0,032500	0,1	-0,002953
0,034167	0,1	-0,018008
0,035833	0,1	-0,040576
0,037500	0,1	-0,020869
0,039167	0,1	-0,051496
0,040833	0,1	0,005732
0,042500	0,1	-0,008679
0,044167	0,1	-0,008475
0,045833	0,1	0,018013
0,047500	0,1	-0,020514
0,049167	0,1	-0,039987
0,050833	0,1	-0,009127
0,052500	0,1	-0,029569
0,054167	0,1	0,003318
0,055833	0,1	-0,042520
0,057500	0,1	-0,001024
0,059167	0,1	-0,021808
0,060833	0,1	0,002560
0,062500	0,1	-0,008498
0,064167	0,1	-0,033319
0,065833	0,1	-0,013729
0,067500	0,1	-0,032148
0,069167	0,1	0,032540
0,070833	0,1	-0,026575
0,072500	0,1	0,022097
0,074167	0,1	-0,007625
0,075833	0,1	0,026012
0,077500	0,1	-0,048116
0,079167	0,1	-0,030643
0,080833	0,1	-0,014505
0,082500	0,1	0,001256
0,084167	0,1	0,002770
0,085833	0,1	-0,040494
0,087500	0,1	-0,019414
0,089167	0,1	-0,017030
0,090833	0,1	-0,050140
0,092500	0,1	0,006558
0,094167	0,1	-0,005828
0,095833	0,1	-0,061628
0,097500	0,1	-0,055894
0,099167	0,1	-0,046466
0,100833	0,1	-0,005130
0,102500	0,1	0,012461
0,104167	0,1	-0,053379
0,105833	0,1	-0,022729
0,107500	0,1	-0,020550
0,109167	0,1	-0,002232
0,110833	0,1	-0,002872
0,112500	0,1	-0,034276
0,114167	0,1	-0,029393
0,115833	0,1	-0,020129
0,117500	0,1	-0,023722
0,119167	0,1	0,011588
0,120833	0,1	-0,023986
0,122500	0,1	-0,001258
0,124167	0,1	-0,030565
0,125833	0,1	-0,029772
0,127500	0,1	-0,000327
0,129167	0,1	-0,022386
0,130833	0,1	-0,039988
0,132500	0,1	-0,021173
0,134167	0,1	-0,031637
0,135833	0,1	-0,022393
0,137500	0,1	-0,029258
0,139167	0,1	-0,051324
0,140833	0,1	-0,026175
0,142500	0,1	-0,011834
0,144167	0,1	-0,024718
0,145833	0,1	-0,035834
0,147500	0,1	0,012339
0,149167	0,1	-0,028629
0,150833	0,1	0,001880
0,152500	0,1	-0,022031
0,154167	0,1	-0,035255
0,155833	0,1	-0,051418
0,157500	0,1	-0,041310
0,159167	0,1	-0,027501
0,160833	0,1	0,003252
0,162500	0,1	-0,019784
0,164167	0,1	-0,025953
0,165833	0,1	-0,047682
0,167500	0,1	-0,027222
0,169167	0,1	-0,038478
0,170833	0,1	-0,028765
0,172500	0,1	0,002780
0,174167	0,1	0,005101
0,175833	0,1	-0,038603
0,177500	0,1	-0,042794
0,179167	0,1	-0,040952
0,180833	0,1	0,018451
0,182500	0,1	-0,039426
0,184167	0,1	-0,096036
0,185833	0,1	-0,009497
0,187500	0,1	0,003297
0,189167	0,1	-0,035653
0,190833	0,1	-0,006525
0,192500	0,1	-0,008475
0,194167	0,1	-0,056921
0,195833	0,1	0,003401
0,197500	0,1	-0,008432
0,199167	0,1	-0,007765
0,200833	0,1	-0,053897
0,202500	0,1	0,030114
0,204167	0,1	-0,021909
0,205833	0,1	-0,004926
0,207500	0,1	-0,043496
0,209167	0,1	-0,028262
0,210833	0,1	-0,035505
0,212500	0,1	-0,026525
0,214167	0,1	-0,034992
0,215833	0,1	-0,044040
0,217500	0,1	-0,055655
0,219167	0,1	-0,037997
0,220833	0,1	-0,051275
0,222500	0,1	-0,046531
0,224167	0,1	-0,060442
0,225833	0,1	-0,036445
0,227500	0,1	-0,022817
0,229167	0,1	-0,002903
0,230833	0,1	-0,022297
0,232500	0,1	-0,030034
0,234167	0,1	-0,007680
0,235833	0,1	-0,071294
0,237500	0,1	-0,050666
0,239167	0,1	0,001313
0,240833	0,1	-0,032894
0,242500	0,1	-0,000725
0,244167	0,1	-0,041256
0,245833	0,1	-0,038308
0,247500	0,1	-0,102703
0,249167	0,1	0,016370
0,250833	0,1	0,004552
0,252500	0,1	-0,023254
0,254167	0,1	-0,007282
0,255833	0,1	-0,009740
0,257500	0,1	0,008213
0,259167	0,1	0,012151
0,260833	0,1	-0,026712
0,262500	0,1	-0,073654
0,264167	0,1	-0,007979
0,265833	0,1	0,000498
0,267500	0,1	0,005722
0,269167	0,1	0,008258
0,270833	0,1	0,001906
0,272500	0,1	-0,032117
0,274167	0,1	-0,023014
0,275833	0,1	-0,047169
0,277500	0,1	-0,042637
0,279167	0,1	-0,017571
0,280833	0,1	0,009253
0,282500	0,1	-0,043888
0,284167	0,1	-0,030525
0,285833	0,1	-0,039858
0,287500	0,1	0,012626
0,289167	0,1	-0,010717
0,290833	0,1	-0,015012
0,292500	0,1	0,006055
0,294167	0,1	-0,008587
0,295833	0,1	0,015837
0,297500	0,1	-0,013981
0,299167	0,1	0,010459
0,300833	0,1	-0,012892
0,302500	0,1	-0,020968
0,304167	0,1	0,000164
0,305833	0,1	0,010794
0,307500	0,1	-0,007049
0,309167	0,1	-0,039052
0,310833	0,1	0,008652
0,312500	0,1	-0,011759
0,314167	0,1	-0,021232
0,315833	0,1	-0,020500
0,317500	0,1	-0,030520
0,319167	0,1	-0,010192
0,320833	0,1	0,004347
0,322500	0,1	-0,050896
0,324167	0,1	-0,011328
0,325833	0,1	0,021390
0,327500	0,1	0,039064
0,329167	0,1	-0,017512
0,330833	0,1	-0,022258
0,332500	0,1	0,005121
0,334167	0,1	-0,016337
0,335833	0,1	-0,023811
0,337500	0,1	0,028855
0,339167	0,1	0,019642
0,340833	0,1	0,008442
0,342500	0,1	0,008770
0,344167	0,1	0,001443
0,345833	0,1	-0,034299
0,347500	0,1	-0,002532
0,349167	0,1	0,002456
0,350833	0,1	-0,021873
0,352500	0,1	-0,031059
0,354167	0,1	0,000763
0,355833	0,1	-0,005052
0,357500	0,1	0,013635
0,359167	0,1	0,003642
0,360833	0,1	-0,015676
0,362500	0,1	-0,021325
0,364167	0,1	-0,009304
0,365833	0,1	-0,008211
0,367500	0,1	-0,022900
0,369167	0,1	0,011565
0,370833	0,1	-0,002184
0,372500	0,1	-0,036011
0,374167	0,1	0,012025
0,375833	0,1	0,043886
0,377500	0,1	-0,034843
0,379167	0,1	-0,021974
0,380833	0,1	-0,014750
0,382500	0,1	0,016789
0,384167	0,1	-0,045580
0,385833	0,1	0,020093
0,387500	0,1	0,015615
0,389167	0,1	-0,018492
0,390833	0,1	0,020430
0,392500	0,1	-0,015937
0,394167	0,1	-0,022191
0,395833	0,1	0,024742
0,397500	0,1	0,045443
0,399167	0,1	0,028360
0,400833	0,1	-0,003403
0,402500	0,1	0,024326
0,404167	0,1	0,023711
0,405833	0,1	-0,000982
0,407500	0,1	0,013460
0,409167	0,1	0,029840
0,410833	0,1	-0,030402
0,412500	0,1	-0,015017
0,414167	0,1	0,015986
0,415833	0,1	0,000395
0,417500	0,1	-0,007498
0,419167	0,1	0,006056
0,420833	0,1	-0,004763
0,422500	0,1	0,018434
0,424167	0,1	0,016440
0,425833	0,1	0,024041
0,427500	0,1	-0,015093
0,429167	0,1	-0,030099
0,430833	0,1	0,033921
0,432500	0,1	0,013247
0,434167	0,1	0,062377
0,435833	0,1	0,013453
0,437500	0,1	-0,016071
0,439167	0,1	0,010163
0,440833	0,1	-0,022185
0,442500	0,1	0,001254
0,444167	0,1	0,013924
0,445833	0,1	0,046641
0,447500	0,1	0,007358
0,449167	0,1	0,006060
0,450833	0,1	0,009210
0,452500	0,1	0,040707
0,454167	0,1	-0,021732
0,455833	0,1	0,027165
0,457500	0,1	0,017749
0,459167	0,1	-0,016608
0,460833	0,1	-0,020681
0,462500	0,1	0,002031
0,464167	0,1	0,038017
0,465833	0,1	0,035068
0,467500	0,1	0,064582
0,469167	0,1	0,025673
0,470833	0,1	-0,016672
0,472500	0,1	0,011475
0,474167	0,1	0,030418
0,475833	0,1	0,055270
0,477500	0,1	-0,000819
0,479167	0,1	0,007258
0,480833	0,1	0,020992
0,482500	0,1	0,030283
0,484167	0,1	0,033177
0,485833	0,1	0,053824
0,487500	0,1	0,045896
0,489167	0,1	0,005071
0,490833	0,1	0,050041
0,492500	0,1	0,039295
0,494167	0,1	0,021578
0,495833	0,1	0,040997
0,497500	0,1	0,050116
0,499167	0,1	0,037336
0,500833	0,1	0,059205
0,502500	0,1	0,052674
0,504167	0,1	0,022200
0,505833	0,1	0,042087
0,507500	0,1	0,038781
0,509167	0,1	0,039248
0,510833	0,1	0,020511
0,512500	0,1	0,069090
0,514167	0,1	0,033606
0,515833	0,1	0,060938
0,517500	0,1	0,038789
0,519167	0,1	0,034913
0,520833	0,1	0,044959
0,522500	0,1	0,054117
0,524167	0,1	0,079610
0,525833	0,1	0,061082
0,527500	0,1	0,058143
0,529167	0,1	0,052519
0,530833	0,1	0,076544
0,532500	0,1	0,101555
0,534167	0,1	0,045727
0,535833	0,1	0,051406
0,537500	0,1	0,079921
0,539167	0,1	0,071104
0,540833	0,1	0,064236
0,542500	0,1	0,070879
0,544167	0,1	0,042920
0,545833	0,1	0,053268
0,547500	0,1	0,047895
0,549167	0,1	0,099390
0,550833	0,1	0,087534
0,552500	0,1	0,034148
0,554167	0,1	0,066826
0,555833	0,1	0,037564
0,557500	0,1	0,080986
0,559167	0,1	0,089376
0,560833	0,1	0,064216
0,562500	0,1	0,105196
0,564167	0,1	0,103229
0,565833	0,1	0,030013
0,567500	0,1	0,050047
0,569167	0,1	0,080520
0,570833	0,1	0,087130
0,572500	0,1	0,095599
0,574167	0,1	0,080244
0,575833	0,1	0,077304
0,577500	0,1	0,079261
0,579167	0,1	0,062792
0,580833	0,1	0,069545
0,582500	0,1	0,102685
0,584167	0,1	0,060084
0,585833	0,1	0,073432
0,587500	0,1	0,106109
0,589167	0,1	0,060597
0,590833	0,1	0,108974
0,592500	0,1	0,077156
0,594167	0,1	0,076949
0,595833	0,1	0,087350
0,597500	0,1	0,070083
0,599167	0,1	0,073858
0,600833	0,1	0,106309
0,602500	0,1	0,088601
0,604167	0,1	0,118050
0,605833	0,1	0,100097
0,607500	0,1	0,113363
0,609167	0,1	0,111609
0,610833	0,1	0,069555
0,612500	0,1	0,071146
0,614167	0,1	0,113422
0,615833	0,1	0,142217
0,617500	0,1	0,109461
0,619167	0,1	0,104362
0,620833	0,1	0,097803
0,622500	0,1	0,123432
0,624167	0,1	0,120747
0,625833	0,1	0,119102
0,627500	0,1	0,106453
0,629167	0,1	0,102673
0,630833	0,1	0,136125
0,632500	0,1	0,097566
0,634167	0,1	0,146148
0,635833	0,1	0,131289
0,637500	0,1	0,128463
0,639167	0,1	0,145711
0,640833	0,1	0,131690
0,642500	0,1	0,146601
0,644167	0,1	0,123131
0,645833	0,1	0,099720
0,647500	0,1	0,124588
0,649167	0,1	0,141442
0,650833	0,1	0,137868
0,652500	0,1	0,124597
0,654167	0,1	0,114035
0,655833	0,1	0,131125
0,657500	0,1	0,141600
0,659167	0,1	0,142358
0,660833	0,1	0,138713
0,662500	0,1	0,131866
0,664167	0,1	0,155893
0,665833	0,1	0,162546
0,667500	0,1	0,157500
0,669167	0,1	0,176485
0,670833	0,1	0,135498
0,672500	0,1	0,156896
0,674167	0,1	0,148096
0,675833	0,1	0,150028
0,677500	0,1	0,162545
0,679167	0,1	0,132205
0,680833	0,1	0,195153
0,682500	0,1	0,170692
0,684167	0,1	0,168261
0,685833	0,1	0,174310
0,687500	0,1	0,174044
0,689167	0,1	0,159083
0,690833	0,1	0,137271
0,692500	0,1	0,177613
0,694167	0,1	0,136564
0,695833	0,1	0,133598
0,697500	0,1	0,143291
0,699167	0,1	0,166168
0,700833	0,1	0,160925
0,702500	0,1	0,202852
0,704167	0,1	0,184921
0,705833	0,1	0,192944
0,707500	0,1	0,173203
0,709167	0,1	0,184445
0,710833	0,1	0,208329
0,712500	0,1	0,176254
0,714167	0,1	0,199632
0,715833	0,1	0,200435
0,717500	0,1	0,160422
0,719167	0,1	0,205497
0,720833	0,1	0,216845
0,722500	0,1	0,183658
0,724167	0,1	0,198947
0,725833	0,1	0,200308
0,727500	0,1	0,166936
0,729167	0,1	0,158016
0,730833	0,1	0,208478
0,732500	0,1	0,193572
0,734167	0,1	0,189011
0,735833	0,1	0,207685
0,737500	0,1	0,200042
0,739167	0,1	0,189476
0,740833	0,1	0,198815
0,742500	0,1	0,225311
0,744167	0,1	0,223410
0,745833	0,1	0,195778
0,747500	0,1	0,239415
0,749167	0,1	0,211655
0,750833	0,1	0,209289
0,752500	0,1	0,243376
0,754167	0,1	0,255278
0,755833	0,1	0,243292
0,757500	0,1	0,225370
0,759167	0,1	0,247777
0,760833	0,1	0,248275
0,762500	0,1	0,214169
0,764167	0,1	0,230124
0,765833	0,1	0,269992
0,767500	0,1	0,258066
0,769167	0,1	0,259508
0,770833	0,1	0,241848
0,772500	0,1	0,289763
0,774167	0,1	0,227764
0,775833	0,1	0,261435
0,777500	0,1	0,250347
0,779167	0,1	0,210789
0,780833	0,1	0,262076
0,782500	0,1	0,293906
0,784167	0,1	0,315570
0,785833	0,1	0,266346
0,787500	0,1	0,253215
0,789167	0,1	0,270267
0,790833	0,1	0,250463
0,792500	0,1	0,259486
0,794167	0,1	0,279517
0,795833	0,1	0,320101
0,797500	0,1	0,286240
0,799167	0,1	0,274548
0,800833	0,1	0,282369
0,802500	0,1	0,308301
0,804167	0,1	0,298347
0,805833	0,1	0,271990
0,807500	0,1	0,324546
0,809167	0,1	0,314355
0,810833	0,1	0,292359
0,812500	0,1	0,307899
0,814167	0,1	0,289154
0,815833	0,1	0,283173
0,817500	0,1	0,295356
0,819167	0,1	0,302298
0,820833	0,1	0,335429
0,822500	0,1	0,273828
0,824167	0,1	0,301293
0,825833	0,1	0,367202
0,827500	0,1	0,314416
0,829167	0,1	0,348314
0,830833	0,1	0,321407
0,832500	0,1	0,342222
0,834167	0,1	0,346963
0,835833	0,1	0,309049
0,837500	0,1	0,372668
0,839167	0,1	0,347445
0,840833	0,1	0,349951
0,842500	0,1	0,395543
0,844167	0,1	0,357499
0,845833	0,1	0,373785
0,847500	0,1	0,353182
0,849167	0,1	0,380131
0,850833	0,1	0,368373
0,852500	0,1	0,388604
0,854167	0,1	0,403802
0,855833	0,1	0,378378
0,857500	0,1	0,411759
0,859167	0,1	0,404588
0,860833	0,1	0,403093
0,862500	0,1	0,373455
0,864167	0,1	0,379423
0,865833	0,1	0,368170
0,867500	0,1	0,377351
0,869167	0,1	0,418159
0,870833	0,1	0,408951
0,872500	0,1	0,411683
0,874167	0,1	0,419765
0,875833	0,1	0,394779
0,877500	0,1	0,440063
0,879167	0,1	0,428886
0,880833	0,1	0,396275
0,882500	0,1	0,453762
0,884167	0,1	0,481076
0,885833	0,1	0,425093
0,887500	0,1	0,469814
0,889167	0,1	0,477717
0,890833	0,1	0,457873
0,892500	0,1	0,437802
0,894167	0,1	0,470326
0,895833	0,1	0,461370
0,897500	0,1	0,456358
0,899167	0,1	0,477935
0,900833	0,1	0,481795
0,902500	0,1	0,472255
0,904167	0,1	0,479889
0,905833	0,1	0,499437
0,907500	0,1	0,503821
0,909167	0,1	0,467099
0,910833	0,1	0,508108
0,912500	0,1	0,522945
0,914167	0,1	0,522111
0,915833	0,1	0,505048
0,917500	0,1	0,559763
0,919167	0,1	0,486536
0,920833	0,1	0,527759
0,922500	0,1	0,520724
0,924167	0,1	0,554496
0,925833	0,1	0,551936
0,927500	0,1	0,542615
0,929167	0,1	0,568023
0,930833	0,1	0,573592
0,932500	0,1	0,511907
0,934167	0,1	0,550074
0,935833	0,1	0,577967
0,937500	0,1	0,596028
0,939167	0,1	0,579983
0,940833	0,1	0,576340
0,942500	0,1	0,560317
0,944167	0,1	0,632685
0,945833	0,1	0,616003
0,947500	0,1	0,606250
0,949167	0,1	0,616261
0,950833	0,1	0,576184
0,952500	0,1	0,608013
0,954167	0,1	0,601350
0,955833	0,1	0,639342
0,957500	0,1	0,668580
0,959167	0,1	0,613035
0,960833	0,1	0,615603
0,962500	0,1	0,626220
0,964167	0,1	0,673855
0,965833	0,1	0,639442
0,967500	0,1	0,666748
0,969167	0,1	0,633331
0,970833	0,1	0,646763
0,972500	0,1	0,663592
0,974167	0,1	0,684191
0,975833	0,1	0,699964
0,977500	0,1	0,698183
0,979167	0,1	0,689653
0,980833	0,1	0,713971
0,982500	0,1	0,687846
0,984167	0,1	0,686907
0,985833	0,1	0,702629
0,987500	0,1	0,726953
0,989167	0,1	0,719650
0,990833	0,1	0,709356
0,992500	0,1	0,753063
0,994167	0,1	0,720073
0,995833	0,1	0,743243
0,997500	0,1	0,766906
0,999167	0,1	0,756145
1,000833	0,1	0,791573
1,002500	0,1	0,782561
1,004167	0,1	0,830126
1,005833	0,1	0,792105
1,007500	0,1	0,779036
1,009167	0,1	0,795401
1,010833	0,1	0,812837
1,012500	0,1	0,799272
1,014167	0,1	0,860251
1,015833	0,1	0,840110
1,017500	0,1	0,846412
1,019167	0,1	0,844034
1,020833	0,1	0,866500
1,022500	0,1	0,810313
1,024167	0,1	0,848405
1,025833	0,1	0,885237
1,027500	0,1	0,844775
1,029167	0,1	0,885741
1,030833	0,1	0,883028
1,032500	0,1	0,904463
1,034167	0,1	0,923273
1,035833	0,1	0,858841
1,037500	0,1	0,937118
1,039167	0,1	0,937278
1,040833	0,1	0,925794
1,042500	0,1	0,944962
1,044167	0,1	0,940285
1,045833	0,1	0,921344
1,047500	0,1	0,957295
1,049167	0,1	0,972581
1,050833	0,1	0,971082
1,052500	0,1	0,981493
1,054167	0,1	0,996069
1,055833	0,1	0,984005
1,057500	0,1	0,982706
1,059167	0,1	1,020467
1,060833	0,1	1,022622
1,062500	0,1	0,996567
1,064167	0,1	1,050403
1,065833	0,1	1,036490
1,067500	0,1	1,046890
1,069167	0,1	1,074312
1,070833	0,1	1,051997
1,072500	0,1	1,072522
1,074167	0,1	1,103746
1,075833	0,1	1,072962
1,077500	0,1	1,087237
1,079167	0,1	1,090253
1,080833	0,1	1,144530
1,082500	0,1	1,132197
1,084167	0,1	1,129822
1,085833	0,1	1,122068
1,087500	0,1	1,125944
1,089167	0,1	1,140948
1,090833	0,1	1,147916
1,092500	0,1	1,158903
1,094167	0,1	1,174485
1,095833	0,1	1,202421
1,097500	0,1	1,128762
1,099167	0,1	1,177419
1,100833	0,1	1,220013
1,102500	0,1	1,194103
1,104167	0,1	1,170545
1,105833	0,1	1,194734
1,107500	0,1	1,223247
1,109167	0,1	1,220310
1,110833	0,1	1,218085
1,112500	0,1	1,266410
1,114167	0,1	1,241360
1,115833	0,1	1,261964
1,117500	0,1	1,298667
1,119167	0,1	1,248333
1,120833	0,1	1,301751
1,122500	0,1	1,293505
1,124167	0,1	1,305999
1,125833	0,1	1,286468
1,127500	0,1	1,335445
1,129167	0,1	1,355424
1,130833	0,1	1,339196
1,132500	0,1	1,371088
1,134167	0,1	1,370517
1,135833	0,1	1,362471
1,137500	0,1	1,389693
1,139167	0,1	1,388989
1,140833	0,1	1,379790
1,142500	0,1	1,392210
1,144167	0,1	1,423681
1,145833	0,1	1,442731
1,147500	0,1	1,456169
1,149167	0,1	1,445675
1,150833	0,1	1,410547
1,152500	0,1	1,462548
1,154167	0,1	1,495043
1,155833	0,1	1,489589
1,157500	0,1	1,467100
1,159167	0,1	1,489218
1,160833	0,1	1,503884
1,162500	0,1	1,491677
1,164167	0,1	1,537794
1,165833	0,1	1,552190
1,167500	0,1	1,550966
1,169167	0,1	1,533292
1,170833	0,1	1,553048
1,172500	0,1	1,548087
1,174167	0,1	1,573744
1,175833	0,1	1,561034
1,177500	0,1	1,569151
1,179167	0,1	1,617232
1,180833	0,1	1,562477
1,182500	0,1	1,623117
1,184167	0,1	1,655549
1,185833	0,1	1,651028
1,187500	0,1	1,697025
1,189167	0,1	1,694965
1,190833	0,1	1,691941
1,192500	0,1	1,693087
1,194167	0,1	1,684318
1,195833	0,1	1,721182
1,197500	0,1	1,738512
1,199167	0,1	1,717257
1,200833	0,1	1,727910
1,202500	0,1	1,731056
1,204167	0,1	1,780785
1,205833	0,1	1,773126
1,207500	0,1	1,769250
1,209167	0,1	1,799791
1,210833	0,1	1,866096
1,212500	0,1	1,792485
1,214167	0,1	1,830945
1,215833	0,1	1,823687
1,217500	0,1	1,841732
1,219167	0,1	1,890487
1,220833	0,1	1,861397
1,222500	0,1	1,913445
1,224167	0,1	1,900064
1,225833	0,1	1,936372
1,227500	0,1	1,944971
1,229167	0,1	1,931017
1,230833	0,1	1,947683
1,232500	0,1	1,980987
1,234167	0,1	2,019116
1,235833	0,1	1,941467
1,237500	0,1	2,001702
1,239167	0,1	2,007784
1,240833	0,1	2,017225
1,242500	0,1	2,028130
1,244167	0,1	2,053367
1,245833	0,1	2,057484
1,247500	0,1	2,068629
1,249167	0,1	2,075272
1,250833	0,1	2,087005
1,252500	0,1	2,114054
1,254167	0,1	2,110312
1,255833	0,1	2,119183
1,257500	0,1	2,144651
1,259167	0,1	2,143843
1,260833	0,1	2,155860
1,262500	0,1	2,144409
1,264167	0,1	2,178699
1,265833	0,1	2,238126
1,267500	0,1	2,209088
1,269167	0,1	2,215558
1,270833	0,1	2,281558
1,272500	0,1	2,194445
1,274167	0,1	2,258536
1,275833	0,1	2,274365
1,277500	0,1	2,307904
1,279167	0,1	2,278130
1,280833	0,1	2,329952
1,282500	0,1	2,343913
1,284167	0,1	2,327970
1,285833	0,1	2,339894
1,287500	0,1	2,386660
1,289167	0,1	2,406155
1,290833	0,1	2,406213
1,292500	0,1	2,422623
1,294167	0,1	2,408909
1,295833	0,1	2,450018
1,297500	0,1	2,432267
1,299167	0,1	2,460109
1,300833	0,1	2,486642
1,302500	0,1	2,467020
1,304167	0,1	2,491358
1,305833	0,1	2,537129
1,307500	0,1	2,499955
1,309167	0,1	2,532124
1,310833	0,1	2,524823
1,312500	0,1	2,562181
1,314167	0,1	2,611436
1,315833	0,1	2,609970
1,317500	0,1	2,605353
1,319167	0,1	2,602707
1,320833	0,1	2,651488
1,322500	0,1	2,640970
1,324167	0,1	2,676139
1,325833	0,1	2,653529
1,327500	0,1	2,718937
1,329167	0,1	2,695585
1,330833	0,1	2,700924
1,332500	0,1	2,769297
1,334167	0,1	2,756735
1,335833	0,1	2,743218
1,337500	0,1	2,751254
1,339167	0,1	2,816684
1,340833	0,1	2,811728
1,342500	0,1	2,777793
1,344167	0,1	2,841733
1,345833	0,1	2,872238
1,347500	0,1	2,910254
1,349167	0,1	2,873473
1,350833	0,1	2,910364
1,352500	0,1	2,907619
1,354167	0,1	2,954094
1,355833	0,1	2,946305
1,357500	0,1	2,967968
1,359167	0,1	2,959161
1,360833	0,1	3,026009
1,362500	0,1	3,003516
1,364167	0,1	3,047116
1,365833	0,1	3,051703
1,367500	0,1	3,041070
1,369167	0,1	3,043105
1,370833	0,1	3,121309
1,372500	0,1	3,130663
1,374167	0,1	3,133868
1,375833	0,1	3,161213
1,377500	0,1	3,120199
1,379167	0,1	3,143763
1,380833	0,1	3,201178
1,382500	0,1	3,186502
1,384167	0,1	3,241889
1,385833	0,1	3,211795
1,387500	0,1	3,301471
1,389167	0,1	3,248167
1,390833	0,1	3,252736
1,392500	0,1	3,250265
1,394167	0,1	3,307812
1,395833	0,1	3,342120
1,397500	0,1	3,343670
1,399167	0,1	3,341397
1,400833	0,1	3,374600
1,402500	0,1	3,390927
1,404167	0,1	3,410335
1,405833	0,1	3,437702
1,407500	0,1	3,431373
1,409167	0,1	3,509773
1,410833	0,1	3,451897
1,412500	0,1	3,481439
1,414167	0,1	3,508086
1,415833	0,1	3,506225
1,417500	0,1	3,558069
1,419167	0,1	3,537782
1,420833	0,1	3,559094
1,422500	0,1	3,617258
1,424167	0,1	3,605575
1,425833	0,1	3,586333
1,427500	0,1	3,692438
1,429167	0,1	3,697464
1,430833	0,1	3,654946
1,432500	0,1	3,665252
1,434167	0,1	3,722935
1,435833	0,1	3,742047
1,437500	0,1	3,732007
1,439167	0,1	3,760818
1,440833	0,1	3,793563
1,442500	0,1	3,749463
1,444167	0,1	3,806363
1,445833	0,1	3,810394
1,447500	0,1	3,863025
1,449167	0,1	3,885461
1,450833	0,1	3,872512
1,452500	0,1	3,903804
1,454167	0,1	3,878135
1,455833	0,1	3,932334
1,457500	0,1	3,958025
1,459167	0,1	3,925420
1,460833	0,1	3,974084
1,462500	0,1	3,994823
1,464167	0,1	4,021211
1,465833	0,1	4,006856
1,467500	0,1	4,073476
1,469167	0,1	4,053210
1,470833	0,1	4,084237
1,472500	0,1	4,114254
1,474167	0,1	4,108859
1,475833	0,1	4,117628
1,477500	0,1	4,132901
1,479167	0,1	4,154887
1,480833	0,1	4,179276
1,482500	0,1	4,196399
1,484167	0,1	4,240313
1,485833	0,1	4,260444
1,487500	0,1	4,241150
1,489167	0,1	4,283078
1,490833	0,1	4,313283
1,492500	0,1	4,311114
1,494167	0,1	4,292661
1,495833	0,1	4,350415
1,497500	0,1	4,356003
1,499167	0,1	4,389512
1,500833	0,1	4,398154
1,502500	0,1	4,429038
1,504167	0,1	4,409415
1,505833	0,1	4,442099
1,507500	0,1	4,449576
1,509167	0,1	4,464725
1,510833	0,1	4,463647
1,512500	0,1	4,548252
1,514167	0,1	4,528563
1,515833	0,1	4,540407
1,517500	0,1	4,559387
1,519167	0,1	4,623716
1,520833	0,1	4,648028
1,522500	0,1	4,616790
1,524167	0,1	4,639145
1,525833	0,1	4,686051
1,527500	0,1	4,673404
1,529167	0,1	4,734988
1,530833	0,1	4,698626
1,532500	0,1	4,741266
1,534167	0,1	4,754717
1,535833	0,1	4,783436
1,537500	0,1	4,765033
1,539167	0,1	4,823487
1,540833	0,1	4,797893
1,542500	0,1	4,853083
1,544167	0,1	4,856706
1,545833	0,1	4,862484
1,547500	0,1	4,884836
1,549167	0,1	4,910156
1,550833	0,1	4,926932
1,552500	0,1	4,906060
1,554167	0,1	4,984871
1,555833	0,1	4,936747
1,557500	0,1	5,018004
1,559167	0,1	4,983296
1,560833	0,1	5,012488
1,562500	0,1	5,071218
1,564167	0,1	5,061913
1,565833	0,1	5,054233
1,567500	0,1	5,099904
1,569167	0,1	5,113621
1,570833	0,1	5,118634
1,572500	0,1	5,139580
1,574167	0,1	5,152551
1,575833	0,1	5,159727
1,577500	0,1	5,202389
1,579167	0,1	5,185725
1,580833	0,1	5,250970
1,582500	0,1	5,239962
1,584167	0,1	5,242096
1,585833	0,1	5,259708
1,587500	0,1	5,328886
1,589167	0,1	5,326586
1,590833	0,1	5,294583
1,592500	0,1	5,290764
1,594167	0,1	5,336970
1,595833	0,1	5,396669
1,597500	0,1	5,354702
1,599167	0,1	5,407746
1,600833	0,1	5,469229
1,602500	0,1	5,457106
1,604167	0,1	5,507547
1,605833	0,1	5,489365
1,607500	0,1	5,493584
1,609167	0,1	5,517998
1,610833	0,1	5,533760
1,612500	0,1	5,535722
1,614167	0,1	5,603615
1,615833	0,1	5,559319
1,617500	0,1	5,601360
1,619167	0,1	5,604825
1,620833	0,1	5,613418
1,622500	0,1	5,638038
1,624167	0,1	5,695885
1,625833	0,1	5,679007
1,627500	0,1	5,692985
1,629167	0,1	5,713235
1,630833	0,1	5,728633
1,632500	0,1	5,772491
1,634167	0,1	5,770914
1,635833	0,1	5,753088
1,637500	0,1	5,819235
1,639167	0,1	5,791631
1,640833	0,1	5,825868
1,642500	0,1	5,826345
1,644167	0,1	5,841084
1,645833	0,1	5,886808
1,647500	0,1	5,891865
1,649167	0,1	5,912770
1,650833	0,1	5,937883
1,652500	0,1	5,949085
1,654167	0,1	5,983249
1,655833	0,1	5,962630
1,657500	0,1	6,028714
1,659167	0,1	5,995966
1,660833	0,1	6,034883
1,662500	0,1	6,012208
1,664167	0,1	6,032086
1,665833	0,1	6,063177
1,667500	0,1	6,119204
1,669167	0,1	6,090368
1,670833	0,1	6,104365
1,672500	0,1	6,146853
1,674167	0,1	6,130054
1,675833	0,1	6,145273
1,677500	0,1	6,172168
1,679167	0,1	6,170961
1,680833	0,1	6,181886
1,682500	0,1	6,246236
1,684167	0,1	6,206376
1,685833	0,1	6,265198
1,687500	0,1	6,259516
1,689167	0,1	6,313777
1,690833	0,1	6,278024
1,692500	0,1	6,317153
1,694167	0,1	6,322122
1,695833	0,1	6,380412
1,697500	0,1	6,362192
1,699167	0,1	6,361175
1,700833	0,1	6,420859
1,702500	0,1	6,395756
1,704167	0,1	6,431163
1,705833	0,1	6,434062
1,707500	0,1	6,413048
1,709167	0,1	6,438267
1,710833	0,1	6,445088
1,712500	0,1	6,486025
1,714167	0,1	6,503888
1,715833	0,1	6,491280
1,717500	0,1	6,542740
1,719167	0,1	6,514459
1,720833	0,1	6,514171
1,722500	0,1	6,572105
1,724167	0,1	6,593901
1,725833	0,1	6,614574
1,727500	0,1	6,648955
1,729167	0,1	6,626828
1,730833	0,1	6,652717
1,732500	0,1	6,646172
1,734167	0,1	6,639548
1,735833	0,1	6,646368
1,737500	0,1	6,653578
1,739167	0,1	6,713875
1,740833	0,1	6,685662
1,742500	0,1	6,724154
1,744167	0,1	6,720448
1,745833	0,1	6,728463
1,747500	0,1	6,756642
1,749167	0,1	6,776630
1,750833	0,1	6,759830
1,752500	0,1	6,798523
1,754167	0,1	6,787413
1,755833	0,1	6,851436
1,757500	0,1	6,831083
1,759167	0,1	6,839418
1,760833	0,1	6,851750
1,762500	0,1	6,854833
1,764167	0,1	6,851863
1,765833	0,1	6,868595
1,767500	0,1	6,889162
1,769167	0,1	6,945602
1,770833	0,1	6,920427
1,772500	0,1	6,890883
1,774167	0,1	6,977552
1,775833	0,1	6,964671
1,777500	0,1	6,958886
1,779167	0,1	7,020153
1,780833	0,1	6,981930
1,782500	0,1	7,042857
1,784167	0,1	7,013734
1,785833	0,1	7,019051
1,787500	0,1	7,018772
1,789167	0,1	7,035968
1,790833	0,1	7,052431
1,792500	0,1	7,124782
1,794167	0,1	7,088558
1,795833	0,1	7,059496
1,797500	0,1	7,114611
1,799167	0,1	7,060926
1,800833	0,1	7,082303
1,802500	0,1	7,127393
1,804167	0,1	7,128910
1,805833	0,1	7,142928
1,807500	0,1	7,181259
1,809167	0,1	7,181318
1,810833	0,1	7,153391
1,812500	0,1	7,171517
1,814167	0,1	7,194192
1,815833	0,1	7,161438
1,817500	0,1	7,200068
1,819167	0,1	7,230218
1,820833	0,1	7,202346
1,822500	0,1	7,218262
1,824167	0,1	7,195726
1,825833	0,1	7,246717
1,827500	0,1	7,274493
1,829167	0,1	7,258054
1,830833	0,1	7,269766
1,832500	0,1	7,281467
1,834167	0,1	7,272572
1,835833	0,1	7,286098
1,837500	0,1	7,314560
1,839167	0,1	7,308723
1,840833	0,1	7,320024
1,842500	0,1	7,330315
1,844167	0,1	7,284317
1,845833	0,1	7,344807
1,847500	0,1	7,348137
1,849167	0,1	7,309506
1,850833	0,1	7,374507
1,852500	0,1	7,388664
1,854167	0,1	7,367890
1,855833	0,1	7,366396
1,857500	0,1	7,372692
1,859167	0,1	7,418739
1,860833	0,1	7,416861
1,862500	0,1	7,396601
1,864167	0,1	7,427942
1,865833	0,1	7,439473
1,867500	0,1	7,472770
1,869167	0,1	7,416281
1,870833	0,1	7,436328
1,872500	0,1	7,456720
1,874167	0,1	7,467372
1,875833	0,1	7,434871
1,877500	0,1	7,435560
1,879167	0,1	7,475112
1,880833	0,1	7,454026
1,882500	0,1	7,492642
1,884167	0,1	7,483472
1,885833	0,1	7,480269
1,887500	0,1	7,493703
1,889167	0,1	7,543016
1,890833	0,1	7,483028
1,892500	0,1	7,492549
1,894167	0,1	7,484148
1,895833	0,1	7,474909
1,897500	0,1	7,521597
1,899167	0,1	7,518286
1,900833	0,1	7,549347
1,902500	0,1	7,526105
1,904167	0,1	7,506828
1,905833	0,1	7,533428
1,907500	0,1	7,524710
1,909167	0,1	7,514596
1,910833	0,1	7,533230
1,912500	0,1	7,537648
1,914167	0,1	7,505439
1,915833	0,1	7,561825
1,917500	0,1	7,538410
1,919167	0,1	7,542616
1,920833	0,1	7,548897
1,922500	0,1	7,574595
1,924167	0,1	7,584493
1,925833	0,1	7,546972
1,927500	0,1	7,527515
1,929167	0,1	7,556463
1,930833	0,1	7,551724
1,932500	0,1	7,577730
1,934167	0,1	7,573301
1,935833	0,1	7,593829
1,937500	0,1	7,561269
1,939167	0,1	7,581266
1,940833	0,1	7,578271
1,942500	0,1	7,553517
1,944167	0,1	7,569861
1,945833	0,1	7,558261
1,947500	0,1	7,585324
1,949167	0,1	7,600436
1,950833	0,1	7,524314
1,952500	0,1	7,585939
1,954167	0,1	7,526413
1,955833	0,1	7,588541
1,957500	0,1	7,508930
1,959167	0,1	7,558426
1,960833	0,1	7,584799
1,962500	0,1	7,553854
1,964167	0,1	7,554291
1,965833	0,1	7,577754
1,967500	0,1	7,551484
1,969167	0,1	7,542086
1,970833	0,1	7,533436
1,972500	0,1	7,595987
1,974167	0,1	7,601582
1,975833	0,1	7,592115
1,977500	0,1	7,544340
1,979167	0,1	7,574594
1,980833	0,1	7,578236
1,982500	0,1	7,584394
1,984167	0,1	7,533290
1,985833	0,1	7,557776
1,987500	0,1	7,558914
1,989167	0,1	7,526606
1,990833	0,1	7,533156
1,992500	0,1	7,545082
1,994167	0,1	7,573927
1,995833	0,1	7,538946
1,997500	0,1	7,551696
1,999167	0,1	7,538764
2,000833	0,1	7,529980
2,002500	0,1	7,567988
2,004167	0,1	7,542623
2,005833	0,1	7,524912
2,007500	0,1	7,508359
2,009167	0,1	7,499768
2,010833	0,1	7,548108
2,012500	0,1	7,466658
2,014167	0,1	7,483865
2,015833	0,1	7,529544
2,017500	0,1	7,466953
2,019167	0,1	7,472876
2,020833	0,1	7,477509
2,022500	0,1	7,503438
2,024167	0,1	7,506543
2,025833	0,1	7,476919
2,027500	0,1	7,446082
2,029167	0,1	7,459123
2,030833	0,1	7,461492
2,032500	0,1	7,446236
2,034167	0,1	7,426524
2,035833	0,1	7,435340
2,037500	0,1	7,484171
2,039167	0,1	7,432651
2,040833	0,1	7,369509
2,042500	0,1	7,473309
2,044167	0,1	7,412804
2,045833	0,1	7,393857
2,047500	0,1	7,405553
2,049167	0,1	7,393380
2,050833	0,1	7,367653
2,052500	0,1	7,413593
2,054167	0,1	7,385296
2,055833	0,1	7,372874
2,057500	0,1	7,449609
2,059167	0,1	7,351958
2,060833	0,1	7,368278
2,062500	0,1	7,360200
2,064167	0,1	7,331575
2,065833	0,1	7,357966
2,067500	0,1	7,339917
2,069167	0,1	7,319953
2,070833	0,1	7,304874
2,072500	0,1	7,311226
2,074167	0,1	7,272085
2,075833	0,1	7,283809
2,077500	0,1	7,270346
2,079167	0,1	7,308057
2,080833	0,1	7,293128
2,082500	0,1	7,256093
2,084167	0,1	7,261784
2,085833	0,1	7,261508
2,087500	0,1	7,278267
2,089167	0,1	7,206405
2,090833	0,1	7,246538
2,092500	0,1	7,188525
2,094167	0,1	7,193196
2,095833	0,1	7,210479
2,097500	0,1	7,177526
2,099167	0,1	7,199352
2,100833	0,1	7,195721
2,102500	0,1	7,188399
2,104167	0,1	7,192984
2,105833	0,1	7,167513
2,107500	0,1	7,173945
2,109167	0,1	7,096607
2,110833	0,1	7,102534
2,112500	0,1	7,111626
2,114167	0,1	7,059237
2,115833	0,1	7,059505
2,117500	0,1	7,113647
2,119167	0,1	7,061301
2,120833	0,1	7,133742
2,122500	0,1	7,064092
2,124167	0,1	7,045291
2,125833	0,1	7,077336
2,127500	0,1	7,051007
2,129167	0,1	7,040980
2,130833	0,1	7,030860
2,132500	0,1	6,989319
2,134167	0,1	6,991468
2,135833	0,1	7,030278
2,137500	0,1	7,014943
2,139167	0,1	7,004740
2,140833	0,1	6,954382
2,142500	0,1	6,939822
2,144167	0,1	6,948972
2,145833	0,1	6,899572
2,147500	0,1	6,954357
2,149167	0,1	6,906581
2,150833	0,1	6,887703
2,152500	0,1	6,903960
2,154167	0,1	6,888357
2,155833	0,1	6,911149
2,157500	0,1	6,881340
2,159167	0,1	6,840353
2,160833	0,1	6,891411
2,162500	0,1	6,838949
2,164167	0,1	6,837143
2,165833	0,1	6,818651
2,167500	0,1	6,798730
2,169167	0,1	6,774891
2,170833	0,1	6,799181
2,172500	0,1	6,804873
2,174167	0,1	6,759171
2,175833	0,1	6,736789
2,177500	0,1	6,744263
2,179167	0,1	6,679587
2,180833	0,1	6,734826
2,182500	0,1	6,747544
2,184167	0,1	6,699499
2,185833	0,1	6,653293
2,187500	0,1	6,688332
2,189167	0,1	6,671806
2,190833	0,1	6,650285
2,192500	0,1	6,644949
2,194167	0,1	6,647102
2,195833	0,1	6,627594
2,197500	0,1	6,588696
2,199167	0,1	6,608961
2,200833	0,1	6,592337
2,202500	0,1	6,575864
2,204167	0,1	6,544833
2,205833	0,1	6,576507
2,207500	0,1	6,524184
2,209167	0,1	6,499872
2,210833	0,1	6,515293
2,212500	0,1	6,524538
2,214167	0,1	6,453238
2,215833	0,1	6,463128
2,217500	0,1	6,455566
2,219167	0,1	6,427914
2,220833	0,1	6,454600
2,222500	0,1	6,445472
2,224167	0,1	6,435833
2,225833	0,1	6,424069
2,227500	0,1	6,380904
2,229167	0,1	6,404614
2,230833	0,1	6,335949
2,232500	0,1	6,372192
2,234167	0,1	6,335571
2,235833	0,1	6,295029
2,237500	0,1	6,317154
2,239167	0,1	6,291194
2,240833	0,1	6,307251
2,242500	0,1	6,303981
2,244167	0,1	6,258872
2,245833	0,1	6,218233
2,247500	0,1	6,283600
2,249167	0,1	6,234869
2,250833	0,1	6,239054
2,252500	0,1	6,205714
2,254167	0,1	6,141742
2,255833	0,1	6,189163
2,257500	0,1	6,181049
2,259167	0,1	6,137812
2,260833	0,1	6,178606
2,262500	0,1	6,129875
2,264167	0,1	6,093637
2,265833	0,1	6,133216
2,267500	0,1	6,101668
2,269167	0,1	6,076824
2,270833	0,1	6,024540
2,272500	0,1	6,082407
2,274167	0,1	6,033129
2,275833	0,1	6,009968
2,277500	0,1	6,020324
2,279167	0,1	5,989521
2,280833	0,1	6,007158
2,282500	0,1	5,969823
2,284167	0,1	5,948157
2,285833	0,1	5,962062
2,287500	0,1	5,905596
2,289167	0,1	5,927702
2,290833	0,1	5,895044
2,292500	0,1	5,868073
2,294167	0,1	5,856957
2,295833	0,1	5,878041
2,297500	0,1	5,850241
2,299167	0,1	5,838756
2,300833	0,1	5,843702
2,302500	0,1	5,822431
2,304167	0,1	5,816079
2,305833	0,1	5,826338
2,307500	0,1	5,769142
2,309167	0,1	5,795445
2,310833	0,1	5,717545
2,312500	0,1	5,719485
2,314167	0,1	5,699334
2,315833	0,1	5,678160
2,317500	0,1	5,676295
2,319167	0,1	5,658391
2,320833	0,1	5,671067
2,322500	0,1	5,632458
2,324167	0,1	5,639343
2,325833	0,1	5,629930
2,327500	0,1	5,642886
2,329167	0,1	5,604667
2,330833	0,1	5,590941
2,332500	0,1	5,576585
2,334167	0,1	5,545862
2,335833	0,1	5,533585
2,337500	0,1	5,500641
2,339167	0,1	5,521056
2,340833	0,1	5,511559
2,342500	0,1	5,529858
2,344167	0,1	5,501673
2,345833	0,1	5,447506
2,347500	0,1	5,477704
2,349167	0,1	5,431740
2,350833	0,1	5,409822
2,352500	0,1	5,403130
2,354167	0,1	5,416360
2,355833	0,1	5,399558
2,357500	0,1	5,371036
2,359167	0,1	5,395373
2,360833	0,1	5,328559
2,362500	0,1	5,308103
2,364167	0,1	5,304467
2,365833	0,1	5,320965
2,367500	0,1	5,300296
2,369167	0,1	5,306715
2,370833	0,1	5,272297
2,372500	0,1	5,227944
2,374167	0,1	5,212458
2,375833	0,1	5,228044
2,377500	0,1	5,224302
2,379167	0,1	5,197866
2,380833	0,1	5,218450
2,382500	0,1	5,161164
2,384167	0,1	5,184065
2,385833	0,1	5,137623
2,387500	0,1	5,139880
2,389167	0,1	5,117708
2,390833	0,1	5,103179
2,392500	0,1	5,089585
2,394167	0,1	5,092384
2,395833	0,1	5,099986
2,397500	0,1	5,059769
2,399167	0,1	5,002373
2,400833	0,1	5,003412
2,402500	0,1	4,970770
2,404167	0,1	4,998915
2,405833	0,1	4,997352
2,407500	0,1	4,943037
2,409167	0,1	4,994434
2,410833	0,1	4,952531
2,412500	0,1	4,978154
2,414167	0,1	4,935123
2,415833	0,1	4,878284
2,417500	0,1	4,890670
2,419167	0,1	4,891960
2,420833	0,1	4,862121
2,422500	0,1	4,845171
2,424167	0,1	4,835918
2,425833	0,1	4,835075
2,427500	0,1	4,856030
2,429167	0,1	4,798213
2,430833	0,1	4,817397
2,432500	0,1	4,789169
2,434167	0,1	4,731154
2,435833	0,1	4,728902
2,437500	0,1	4,741575
2,439167	0,1	4,712442
2,440833	0,1	4,673172
2,442500	0,1	4,662849
2,444167	0,1	4,714091
2,445833	0,1	4,653262
2,447500	0,1	4,639698
2,449167	0,1	4,604152
2,450833	0,1	4,627311
2,452500	0,1	4,608013
2,454167	0,1	4,608770
2,455833	0,1	4,600781
2,457500	0,1	4,562353
2,459167	0,1	4,570419
2,460833	0,1	4,531824
2,462500	0,1	4,547922
2,464167	0,1	4,531427
2,465833	0,1	4,531272
2,467500	0,1	4,495323
2,469167	0,1	4,503568
2,470833	0,1	4,495364
2,472500	0,1	4,458838
2,474167	0,1	4,493645
2,475833	0,1	4,443531
2,477500	0,1	4,407145
2,479167	0,1	4,430342
2,480833	0,1	4,458688
2,482500	0,1	4,390531
2,484167	0,1	4,399569
2,485833	0,1	4,401953
2,487500	0,1	4,346484
2,489167	0,1	4,359798
2,490833	0,1	4,323777
2,492500	0,1	4,356990
2,494167	0,1	4,295504
2,495833	0,1	4,291189
2,497500	0,1	4,296757
2,499167	0,1	4,270731
2,500833	0,1	4,263591
2,502500	0,1	4,216988
2,504167	0,1	4,229936
2,505833	0,1	4,254328
2,507500	0,1	4,151944
2,509167	0,1	4,221882
2,510833	0,1	4,168569
2,512500	0,1	4,153479
2,514167	0,1	4,151920
2,515833	0,1	4,163123
2,517500	0,1	4,159758
2,519167	0,1	4,146320
2,520833	0,1	4,136445
2,522500	0,1	4,119978
2,524167	0,1	4,121672
2,525833	0,1	4,109709
2,527500	0,1	4,058394
2,529167	0,1	4,074023
2,530833	0,1	4,041501
2,532500	0,1	4,008572
2,534167	0,1	4,013201
2,535833	0,1	4,011963
2,537500	0,1	3,991212
2,539167	0,1	3,993611
2,540833	0,1	3,982492
2,542500	0,1	3,999576
2,544167	0,1	3,933948
2,545833	0,1	3,928130
2,547500	0,1	3,925329
2,549167	0,1	3,927059
2,550833	0,1	3,885578
2,552500	0,1	3,905442
2,554167	0,1	3,900077
2,555833	0,1	3,863746
2,557500	0,1	3,843215
2,559167	0,1	3,879087
2,560833	0,1	3,862507
2,562500	0,1	3,821808
2,564167	0,1	3,790743
2,565833	0,1	3,774234
2,567500	0,1	3,819622
2,569167	0,1	3,780460
2,570833	0,1	3,777482
2,572500	0,1	3,751376
2,574167	0,1	3,752670
2,575833	0,1	3,752325
2,577500	0,1	3,785395
2,579167	0,1	3,724726
2,580833	0,1	3,753784
2,582500	0,1	3,692903
2,584167	0,1	3,704625
2,585833	0,1	3,684077
2,587500	0,1	3,670908
2,589167	0,1	3,634675
2,590833	0,1	3,689377
2,592500	0,1	3,618269
2,594167	0,1	3,638965
2,595833	0,1	3,598312
2,597500	0,1	3,617597
2,599167	0,1	3,593997
2,600833	0,1	3,585755
2,602500	0,1	3,578238
2,604167	0,1	3,564509
2,605833	0,1	3,541324
2,607500	0,1	3,566809
2,609167	0,1	3,504164
2,610833	0,1	3,489492
2,612500	0,1	3,496635
2,614167	0,1	3,540448
2,615833	0,1	3,490309
2,617500	0,1	3,495658
2,619167	0,1	3,506949
2,620833	0,1	3,487422
2,622500	0,1	3,479743
2,624167	0,1	3,444214
2,625833	0,1	3,437267
2,627500	0,1	3,436455
2,629167	0,1	3,420903
2,630833	0,1	3,407501
2,632500	0,1	3,436766
2,634167	0,1	3,387694
2,635833	0,1	3,355575
2,637500	0,1	3,360397
2,639167	0,1	3,361495
2,640833	0,1	3,331011
2,642500	0,1	3,339002
2,644167	0,1	3,313795
2,645833	0,1	3,312573
2,647500	0,1	3,322435
2,649167	0,1	3,279904
2,650833	0,1	3,298523
2,652500	0,1	3,274990
2,654167	0,1	3,231271
2,655833	0,1	3,217223
2,657500	0,1	3,253257
2,659167	0,1	3,220962
2,660833	0,1	3,224120
2,662500	0,1	3,235490
2,664167	0,1	3,200873
2,665833	0,1	3,214945
2,667500	0,1	3,216574
2,669167	0,1	3,140254
2,670833	0,1	3,174715
2,672500	0,1	3,142921
2,674167	0,1	3,190383
2,675833	0,1	3,142436
2,677500	0,1	3,123432
2,679167	0,1	3,168672
2,680833	0,1	3,123358
2,682500	0,1	3,100637
2,684167	0,1	3,126961
2,685833	0,1	3,119507
2,687500	0,1	3,077670
2,689167	0,1	3,111829
2,690833	0,1	3,085183
2,692500	0,1	3,100185
2,694167	0,1	3,047379
2,695833	0,1	3,037620
2,697500	0,1	3,021586
2,699167	0,1	3,057537
2,700833	0,1	3,012517
2,702500	0,1	3,013441
2,704167	0,1	3,017061
2,705833	0,1	3,013315
2,707500	0,1	3,014261
2,709167	0,1	2,991092
2,710833	0,1	2,996723
2,712500	0,1	2,935033
2,714167	0,1	2,920838
2,715833	0,1	2,971240
2,717500	0,1	2,964273
2,719167	0,1	2,898613
2,720833	0,1	2,936608
2,722500	0,1	2,936886
2,724167	0,1	2,901250
2,725833	0,1	2,893898
2,727500	0,1	2,897110
2,729167	0,1	2,909675
2,730833	0,1	2,857541
2,732500	0,1	2,878492
2,734167	0,1	2,873498
2,735833	0,1	2,856185
2,737500	0,1	2,884505
2,739167	0,1	2,814122
2,740833	0,1	2,814785
2,742500	0,1	2,793173
2,744167	0,1	2,831182
2,745833	0,1	2,795979
2,747500	0,1	2,796226
2,749167	0,1	2,785444
2,750833	0,1	2,777756
2,752500	0,1	2,768026
2,754167	0,1	2,765302
2,755833	0,1	2,779649
2,757500	0,1	2,760116
2,759167	0,1	2,752250
2,760833	0,1	2,751962
2,762500	0,1	2,694452
2,764167	0,1	2,733762
2,765833	0,1	2,719453
2,767500	0,1	2,728159
2,769167	0,1	2,659328
2,770833	0,1	2,692175
2,772500	0,1	2,689016
2,774167	0,1	2,660226
2,775833	0,1	2,670438
2,777500	0,1	2,706490
2,779167	0,1	2,675324
2,780833	0,1	2,611853
2,782500	0,1	2,627501
2,784167	0,1	2,581836
2,785833	0,1	2,652107
2,787500	0,1	2,598412
2,789167	0,1	2,620702
2,790833	0,1	2,601855
2,792500	0,1	2,596248
2,794167	0,1	2,576693
2,795833	0,1	2,602363
2,797500	0,1	2,561450
2,799167	0,1	2,528946
2,800833	0,1	2,564853
2,802500	0,1	2,530166
2,804167	0,1	2,523937
2,805833	0,1	2,529121
2,807500	0,1	2,511930
2,809167	0,1	2,481718
2,810833	0,1	2,511664
2,812500	0,1	2,507830
2,814167	0,1	2,493908
2,815833	0,1	2,514021
2,817500	0,1	2,516180
2,819167	0,1	2,459898
2,820833	0,1	2,458897
2,822500	0,1	2,487260
2,824167	0,1	2,462977
2,825833	0,1	2,434424
2,827500	0,1	2,468511
2,829167	0,1	2,415445
2,830833	0,1	2,450205
2,832500	0,1	2,428094
2,834167	0,1	2,436798
2,835833	0,1	2,414458
2,837500	0,1	2,403382
2,839167	0,1	2,414483
2,840833	0,1	2,383030
2,842500	0,1	2,403792
2,844167	0,1	2,401753
2,845833	0,1	2,381116
2,847500	0,1	2,350503
2,849167	0,1	2,351965
2,850833	0,1	2,364640
2,852500	0,1	2,323040
2,854167	0,1	2,369851
2,855833	0,1	2,370817
2,857500	0,1	2,336837
2,859167	0,1	2,293725
2,860833	0,1	2,301908
2,862500	0,1	2,338764
2,864167	0,1	2,304623
2,865833	0,1	2,310543
2,867500	0,1	2,298654
2,869167	0,1	2,329575
2,870833	0,1	2,286786
2,872500	0,1	2,271227
2,874167	0,1	2,243045
2,875833	0,1	2,259975
2,877500	0,1	2,239194
2,879167	0,1	2,206857
2,880833	0,1	2,257891
2,882500	0,1	2,270897
2,884167	0,1	2,252399
2,885833	0,1	2,256891
2,887500	0,1	2,193734
2,889167	0,1	2,180957
2,890833	0,1	2,202861
2,892500	0,1	2,205497
2,894167	0,1	2,173188
2,895833	0,1	2,149898
2,897500	0,1	2,191042
2,899167	0,1	2,161769
2,900833	0,1	2,174605
2,902500	0,1	2,165961
2,904167	0,1	2,167314
2,905833	0,1	2,147859
2,907500	0,1	2,140200
2,909167	0,1	2,127776
2,910833	0,1	2,146293
2,912500	0,1	2,106373
2,914167	0,1	2,119996
2,915833	0,1	2,117527
2,917500	0,1	2,108251
2,919167	0,1	2,087887
2,920833	0,1	2,121632
2,922500	0,1	2,104140
2,924167	0,1	2,071773
2,925833	0,1	2,072247
2,927500	0,1	2,036439
2,929167	0,1	2,038010
2,930833	0,1	2,033344
2,932500	0,1	2,059949
2,934167	0,1	1,982636
2,935833	0,1	2,054472
2,937500	0,1	2,033227
2,939167	0,1	2,035420
2,940833	0,1	2,006782
2,942500	0,1	2,019302
2,944167	0,1	2,056256
2,945833	0,1	1,988462
2,947500	0,1	2,029869
2,949167	0,1	2,019804
2,950833	0,1	1,988318
2,952500	0,1	1,994757
2,954167	0,1	2,004107
2,955833	0,1	2,047188
2,957500	0,1	1,957208
2,959167	0,1	2,021007
2,960833	0,1	1,940187
2,962500	0,1	1,954757
2,964167	0,1	1,972090
2,965833	0,1	1,976761
2,967500	0,1	1,963767
2,969167	0,1	1,952036
2,970833	0,1	1,913331
2,972500	0,1	1,898221
2,974167	0,1	1,901753
2,975833	0,1	1,901181
2,977500	0,1	1,944690
2,979167	0,1	1,913839
2,980833	0,1	1,910246
2,982500	0,1	1,873923
2,984167	0,1	1,911208
2,985833	0,1	1,905205
2,987500	0,1	1,875118
2,989167	0,1	1,857458
2,990833	0,1	1,841400
2,992500	0,1	1,849949
2,994167	0,1	1,847424
2,995833	0,1	1,841874
2,997500	0,1	1,871731
2,999167	0,1	1,849073
3,000833	0,1	1,841822
3,002500	0,1	1,842966
3,004167	0,1	1,851794
3,005833	0,1	1,827374
3,007500	0,1	1,799540
3,009167	0,1	1,837143
3,010833	0,1	1,796019
3,012500	0,1	1,790749
3,014167	0,1	1,840876
3,015833	0,1	1,802058
3,017500	0,1	1,733254
3,019167	0,1	1,758824
3,020833	0,1	1,758043
3,022500	0,1	1,799375
3,024167	0,1	1,769989
3,025833	0,1	1,772773
3,027500	0,1	1,772357
3,029167	0,1	1,745023
3,030833	0,1	1,734598
3,032500	0,1	1,753851
3,034167	0,1	1,747829
3,035833	0,1	1,708996
3,037500	0,1	1,709496
3,039167	0,1	1,683492
3,040833	0,1	1,706845
3,042500	0,1	1,686352
3,044167	0,1	1,713158
3,045833	0,1	1,702960
3,047500	0,1	1,722147
3,049167	0,1	1,675421
3,050833	0,1	1,675419
3,052500	0,1	1,703018
3,054167	0,1	1,661831
3,055833	0,1	1,693236
3,057500	0,1	1,631947
3,059167	0,1	1,628396
3,060833	0,1	1,659226
3,062500	0,1	1,610290
3,064167	0,1	1,657995
3,065833	0,1	1,648876
3,067500	0,1	1,659598
3,069167	0,1	1,619208
3,070833	0,1	1,602367
3,072500	0,1	1,582031
3,074167	0,1	1,587986
3,075833	0,1	1,637501
3,077500	0,1	1,586420
3,079167	0,1	1,586694
3,080833	0,1	1,586120
3,082500	0,1	1,598543
3,084167	0,1	1,583902
3,085833	0,1	1,552932
3,087500	0,1	1,590432
3,089167	0,1	1,563845
3,090833	0,1	1,589349
3,092500	0,1	1,582967
3,094167	0,1	1,542931
3,095833	0,1	1,567945
3,097500	0,1	1,511311
3,099167	0,1	1,515324
3,100833	0,1	1,529980
3,102500	0,1	1,540974
3,104167	0,1	1,519994
3,105833	0,1	1,494418
3,107500	0,1	1,493401
3,109167	0,1	1,519050
3,110833	0,1	1,495988
3,112500	0,1	1,517542
3,114167	0,1	1,484567
3,115833	0,1	1,484346
3,117500	0,1	1,473849
3,119167	0,1	1,502089
3,120833	0,1	1,467176
3,122500	0,1	1,498204
3,124167	0,1	1,460787
3,125833	0,1	1,473778
3,127500	0,1	1,475646
3,129167	0,1	1,446047
3,130833	0,1	1,423339
3,132500	0,1	1,471538
3,134167	0,1	1,462277
3,135833	0,1	1,453944
3,137500	0,1	1,393386
3,139167	0,1	1,422678
3,140833	0,1	1,408384
3,142500	0,1	1,372326
3,144167	0,1	1,418219
3,145833	0,1	1,404581
3,147500	0,1	1,367799
3,149167	0,1	1,390490
3,150833	0,1	1,395953
3,152500	0,1	1,356882
3,154167	0,1	1,392070
3,155833	0,1	1,366074
3,157500	0,1	1,341429
3,159167	0,1	1,386821
3,160833	0,1	1,338418
3,162500	0,1	1,365056
3,164167	0,1	1,338843
3,165833	0,1	1,337186
3,167500	0,1	1,330286
3,169167	0,1	1,307447
3,170833	0,1	1,329635
3,172500	0,1	1,342136
3,174167	0,1	1,315422
3,175833	0,1	1,325256
3,177500	0,1	1,306941
3,179167	0,1	1,295016
3,180833	0,1	1,272174
3,182500	0,1	1,298527
3,184167	0,1	1,331644
3,185833	0,1	1,345946
3,187500	0,1	1,321310
3,189167	0,1	1,273473
3,190833	0,1	1,262762
3,192500	0,1	1,301541
3,194167	0,1	1,277779
3,195833	0,1	1,299245
3,197500	0,1	1,258819
3,199167	0,1	1,259311
3,200833	0,1	1,251554
3,202500	0,1	1,237910
3,204167	0,1	1,245230
3,205833	0,1	1,216651
3,207500	0,1	1,197902
3,209167	0,1	1,240698
3,210833	0,1	1,223401
3,212500	0,1	1,232230
3,214167	0,1	1,204943
3,215833	0,1	1,214202
3,217500	0,1	1,222247
3,219167	0,1	1,222320
3,220833	0,1	1,225767
3,222500	0,1	1,221530
3,224167	0,1	1,205661
3,225833	0,1	1,185624
3,227500	0,1	1,233514
3,229167	0,1	1,195539
3,230833	0,1	1,179231
3,232500	0,1	1,185979
3,234167	0,1	1,177147
3,235833	0,1	1,184468
3,237500	0,1	1,175641
3,239167	0,1	1,136651
3,240833	0,1	1,109285
3,242500	0,1	1,153431
3,244167	0,1	1,104836
3,245833	0,1	1,123854
3,247500	0,1	1,103965
3,249167	0,1	1,117464
3,250833	0,1	1,133620
3,252500	0,1	1,132479
3,254167	0,1	1,141164
3,255833	0,1	1,136072
3,257500	0,1	1,105919
3,259167	0,1	1,127802
3,260833	0,1	1,100888
3,262500	0,1	1,097580
3,264167	0,1	1,116820
3,265833	0,1	1,076046
3,267500	0,1	1,051479
3,269167	0,1	1,081987
3,270833	0,1	1,098790
3,272500	0,1	1,126797
3,274167	0,1	1,037505
3,275833	0,1	1,080983
3,277500	0,1	1,082503
3,279167	0,1	1,061255
3,280833	0,1	1,108554
3,282500	0,1	1,072236
3,284167	0,1	1,038492
3,285833	0,1	1,068779
3,287500	0,1	1,015593
3,289167	0,1	1,034815
3,290833	0,1	1,025926
3,292500	0,1	1,049971
3,294167	0,1	1,032172
3,295833	0,1	1,028076
3,297500	0,1	1,009917
3,299167	0,1	1,003312
3,300833	0,1	1,021680
3,302500	0,1	1,005818
3,304167	0,1	1,022401
3,305833	0,1	1,001946
3,307500	0,1	0,998641
3,309167	0,1	0,969996
3,310833	0,1	0,969926
3,312500	0,1	0,976890
3,314167	0,1	1,033523
3,315833	0,1	1,007116
3,317500	0,1	0,955079
3,319167	0,1	0,958583
3,320833	0,1	0,968131
3,322500	0,1	0,997488
3,324167	0,1	1,008985
3,325833	0,1	0,983217
3,327500	0,1	0,958667
3,329167	0,1	0,981854
3,330833	0,1	0,936419
3,332500	0,1	0,909915
3,334167	0,1	0,910212
3,335833	0,1	0,939779
3,337500	0,1	0,942855
3,339167	0,1	0,906702
3,340833	0,1	0,907123
3,342500	0,1	0,915299
3,344167	0,1	0,917463
3,345833	0,1	0,899592
3,347500	0,1	0,888393
3,349167	0,1	0,887230
3,350833	0,1	0,901662
3,352500	0,1	0,881725
3,354167	0,1	0,914866
3,355833	0,1	0,901102
3,357500	0,1	0,865862
3,359167	0,1	0,881997
3,360833	0,1	0,865577
3,362500	0,1	0,848985
3,364167	0,1	0,878180
3,365833	0,1	0,881991
3,367500	0,1	0,890893
3,369167	0,1	0,846198
3,370833	0,1	0,867707
3,372500	0,1	0,856814
3,374167	0,1	0,851279
3,375833	0,1	0,823659
3,377500	0,1	0,881131
3,379167	0,1	0,845480
3,380833	0,1	0,829539
3,382500	0,1	0,872162
3,384167	0,1	0,828690
3,385833	0,1	0,837067
3,387500	0,1	0,821579
3,389167	0,1	0,844977
3,390833	0,1	0,820212
3,392500	0,1	0,800121
3,394167	0,1	0,807435
3,395833	0,1	0,844031
3,397500	0,1	0,827112
3,399167	0,1	0,799694
3,400833	0,1	0,798179
3,402500	0,1	0,771151
3,404167	0,1	0,806922
3,405833	0,1	0,806582
3,407500	0,1	0,788724
3,409167	0,1	0,766560
3,410833	0,1	0,764657
3,412500	0,1	0,790413
3,414167	0,1	0,766619
3,415833	0,1	0,791297
3,417500	0,1	0,779532
3,419167	0,1	0,733464
3,420833	0,1	0,760211
3,422500	0,1	0,760295
3,424167	0,1	0,783119
3,425833	0,1	0,755704
3,427500	0,1	0,761655
3,429167	0,1	0,749162
3,430833	0,1	0,757056
3,432500	0,1	0,778162
3,434167	0,1	0,771007
3,435833	0,1	0,731962
3,437500	0,1	0,741419
3,439167	0,1	0,712580
3,440833	0,1	0,750163
3,442500	0,1	0,704467
3,444167	0,1	0,732751
3,445833	0,1	0,742878
3,447500	0,1	0,744114
3,449167	0,1	0,730387
3,450833	0,1	0,684969
3,452500	0,1	0,751667
3,454167	0,1	0,700270
3,455833	0,1	0,659156
3,457500	0,1	0,704914
3,459167	0,1	0,731967
3,460833	0,1	0,732402
3,462500	0,1	0,699954
3,464167	0,1	0,704348
3,465833	0,1	0,676640
3,467500	0,1	0,677361
3,469167	0,1	0,676209
3,470833	0,1	0,645134
3,472500	0,1	0,683969
3,474167	0,1	0,680531
3,475833	0,1	0,644293
3,477500	0,1	0,651615
3,479167	0,1	0,662602
3,480833	0,1	0,698082
3,482500	0,1	0,667684
3,484167	0,1	0,670420
3,485833	0,1	0,642699
3,487500	0,1	0,666321
3,489167	0,1	0,653971
3,490833	0,1	0,633905
3,492500	0,1	0,676060
3,494167	0,1	0,648026
3,495833	0,1	0,675866
3,497500	0,1	0,630200
3,499167	0,1	0,649883
3,500833	0,1	0,625155
3,502500	0,1	0,651034
3,504167	0,1	0,619198
3,505833	0,1	0,631395
3,507500	0,1	0,639432
3,509167	0,1	0,612509
3,510833	0,1	0,607064
3,512500	0,1	0,619996
3,514167	0,1	0,624491
3,515833	0,1	0,619398
3,517500	0,1	0,606283
3,519167	0,1	0,590723
3,520833	0,1	0,613237
3,522500	0,1	0,594157
3,524167	0,1	0,588482
3,525833	0,1	0,561019
3,527500	0,1	0,593594
3,529167	0,1	0,568985
3,530833	0,1	0,588270
3,532500	0,1	0,585843
3,534167	0,1	0,578086
3,535833	0,1	0,573636
3,537500	0,1	0,582765
3,539167	0,1	0,594013
3,540833	0,1	0,583977
3,542500	0,1	0,563038
3,544167	0,1	0,586783
3,545833	0,1	0,540946
3,547500	0,1	0,594221
3,549167	0,1	0,581353
3,550833	0,1	0,620058
3,552500	0,1	0,564982
3,554167	0,1	0,573782
3,555833	0,1	0,534930
3,557500	0,1	0,562160
3,559167	0,1	0,542823
3,560833	0,1	0,549340
3,562500	0,1	0,536352
3,564167	0,1	0,574448
3,565833	0,1	0,531059
3,567500	0,1	0,530116
3,569167	0,1	0,555088
3,570833	0,1	0,551840
3,572500	0,1	0,518849
3,574167	0,1	0,487445
3,575833	0,1	0,524517
3,577500	0,1	0,477123
3,579167	0,1	0,506230
3,580833	0,1	0,542451
3,582500	0,1	0,509827
3,584167	0,1	0,522026
3,585833	0,1	0,526819
3,587500	0,1	0,508686
3,589167	0,1	0,520021
3,590833	0,1	0,519213
3,592500	0,1	0,495712
3,594167	0,1	0,494634
3,595833	0,1	0,490665
3,597500	0,1	0,478269
3,599167	0,1	0,503649
3,600833	0,1	0,483791
3,602500	0,1	0,488043
3,604167	0,1	0,496705
3,605833	0,1	0,479615
3,607500	0,1	0,502457
3,609167	0,1	0,493469
3,610833	0,1	0,473207
3,612500	0,1	0,460132
3,614167	0,1	0,455902
3,615833	0,1	0,444017
3,617500	0,1	0,462160
3,619167	0,1	0,487956
3,620833	0,1	0,475923
3,622500	0,1	0,469506
3,624167	0,1	0,466599
3,625833	0,1	0,460892
3,627500	0,1	0,445512
3,629167	0,1	0,458934
3,630833	0,1	0,437040
3,632500	0,1	0,459342
3,634167	0,1	0,461282
3,635833	0,1	0,407759
3,637500	0,1	0,428914
3,639167	0,1	0,437423
3,640833	0,1	0,450887
3,642500	0,1	0,467018
3,644167	0,1	0,420491
3,645833	0,1	0,406270
3,647500	0,1	0,473831
3,649167	0,1	0,434531
3,650833	0,1	0,423369
3,652500	0,1	0,404573
3,654167	0,1	0,439063
3,655833	0,1	0,402728
3,657500	0,1	0,436603
3,659167	0,1	0,434182
3,660833	0,1	0,445012
3,662500	0,1	0,427922
3,664167	0,1	0,415608
3,665833	0,1	0,402364
3,667500	0,1	0,392754
3,669167	0,1	0,415464
3,670833	0,1	0,440151
3,672500	0,1	0,379711
3,674167	0,1	0,381835
3,675833	0,1	0,437767
3,677500	0,1	0,350973
3,679167	0,1	0,381912
3,680833	0,1	0,422066
3,682500	0,1	0,412619
3,684167	0,1	0,368094
3,685833	0,1	0,367948
3,687500	0,1	0,394035
3,689167	0,1	0,415754
3,690833	0,1	0,368943
3,692500	0,1	0,407581
3,694167	0,1	0,382129
3,695833	0,1	0,403986
3,697500	0,1	0,389377
3,699167	0,1	0,379612
3,700833	0,1	0,387878
3,702500	0,1	0,411829
3,704167	0,1	0,345077
3,705833	0,1	0,364444
3,707500	0,1	0,366299
3,709167	0,1	0,331742
3,710833	0,1	0,338031
3,712500	0,1	0,402228
3,714167	0,1	0,362641
3,715833	0,1	0,387670
3,717500	0,1	0,375557
3,719167	0,1	0,379099
3,720833	0,1	0,393072
3,722500	0,1	0,367460
3,724167	0,1	0,315312
3,725833	0,1	0,352233
3,727500	0,1	0,383220
3,729167	0,1	0,391323
3,730833	0,1	0,344070
3,732500	0,1	0,361831
3,734167	0,1	0,323204
3,735833	0,1	0,292884
3,737500	0,1	0,331166
3,739167	0,1	0,370621
3,740833	0,1	0,304791
3,742500	0,1	0,328570
3,744167	0,1	0,323233
3,745833	0,1	0,347823
3,747500	0,1	0,342008
3,749167	0,1	0,336847
3,750833	0,1	0,293869
3,752500	0,1	0,339193
3,754167	0,1	0,357995
3,755833	0,1	0,371457
3,757500	0,1	0,349157
3,759167	0,1	0,355466
3,760833	0,1	0,328754
3,762500	0,1	0,341562
3,764167	0,1	0,313850
3,765833	0,1	0,300350
3,767500	0,1	0,319897
3,769167	0,1	0,285009
3,770833	0,1	0,307282
3,772500	0,1	0,318423
3,774167	0,1	0,321786
3,775833	0,1	0,321364
3,777500	0,1	0,328272
3,779167	0,1	0,302471
3,780833	0,1	0,336548
3,782500	0,1	0,341802
3,784167	0,1	0,319347
3,785833	0,1	0,299977
3,787500	0,1	0,300942
3,789167	0,1	0,282628
3,790833	0,1	0,358065
3,792500	0,1	0,329351
3,794167	0,1	0,273999
3,795833	0,1	0,289858
3,797500	0,1	0,277744
3,799167	0,1	0,294508
3,800833	0,1	0,312396
3,802500	0,1	0,283246
3,804167	0,1	0,306367
3,805833	0,1	0,248451
3,807500	0,1	0,254886
3,809167	0,1	0,299844
3,810833	0,1	0,267968
3,812500	0,1	0,289511
3,814167	0,1	0,308293
3,815833	0,1	0,319972
3,817500	0,1	0,317339
3,819167	0,1	0,291138
3,820833	0,1	0,301807
3,822500	0,1	0,318036
3,824167	0,1	0,294990
3,825833	0,1	0,268053
3,827500	0,1	0,272302
3,829167	0,1	0,302582
3,830833	0,1	0,217231
3,832500	0,1	0,240374
3,834167	0,1	0,290255
3,835833	0,1	0,274857
3,837500	0,1	0,286086
3,839167	0,1	0,244953
3,840833	0,1	0,283567
3,842500	0,1	0,264075
3,844167	0,1	0,250174
3,845833	0,1	0,265753
3,847500	0,1	0,225738
3,849167	0,1	0,236287
3,850833	0,1	0,233044
3,852500	0,1	0,269820
3,854167	0,1	0,276854
3,855833	0,1	0,262669
3,857500	0,1	0,252994
3,859167	0,1	0,236871
3,860833	0,1	0,252967
3,862500	0,1	0,238341
3,864167	0,1	0,267394
3,865833	0,1	0,275497
3,867500	0,1	0,238078
3,869167	0,1	0,239936
3,870833	0,1	0,310823
3,872500	0,1	0,261743
3,874167	0,1	0,254793
3,875833	0,1	0,257948
3,877500	0,1	0,226623
3,879167	0,1	0,217521
3,880833	0,1	0,272809
3,882500	0,1	0,313901
3,884167	0,1	0,272841
3,885833	0,1	0,266556
3,887500	0,1	0,211997
3,889167	0,1	0,262431
3,890833	0,1	0,218597
3,892500	0,1	0,267035
3,894167	0,1	0,251060
3,895833	0,1	0,286165
3,897500	0,1	0,247975
3,899167	0,1	0,205698
3,900833	0,1	0,213607
3,902500	0,1	0,203024
3,904167	0,1	0,246531
3,905833	0,1	0,253769
3,907500	0,1	0,254646
3,909167	0,1	0,257417
3,910833	0,1	0,250432
3,912500	0,1	0,230288
3,914167	0,1	0,227173
3,915833	0,1	0,223459
3,917500	0,1	0,217010
3,919167	0,1	0,235842
3,920833	0,1	0,213164
3,922500	0,1	0,201821
3,924167	0,1	0,237235
3,925833	0,1	0,259609
3,927500	0,1	0,244119
3,929167	0,1	0,231353
3,930833	0,1	0,246181
3,932500	0,1	0,253192
3,934167	0,1	0,230308
3,935833	0,1	0,219859
3,937500	0,1	0,219924
3,939167	0,1	0,190817
3,940833	0,1	0,262273
3,942500	0,1	0,189053
3,944167	0,1	0,249107
3,945833	0,1	0,223867
3,947500	0,1	0,201268
3,949167	0,1	0,227456
3,950833	0,1	0,202517
3,952500	0,1	0,248108
3,954167	0,1	0,227977
3,955833	0,1	0,207426
3,957500	0,1	0,242529
3,959167	0,1	0,184219
3,960833	0,1	0,186474
3,962500	0,1	0,216201
3,964167	0,1	0,205201
3,965833	0,1	0,241346
3,967500	0,1	0,205342
3,969167	0,1	0,224851
3,970833	0,1	0,221409
3,972500	0,1	0,201401
3,974167	0,1	0,193679
3,975833	0,1	0,201395
3,977500	0,1	0,196593
3,979167	0,1	0,188102
3,980833	0,1	0,212596
3,982500	0,1	0,215025
3,984167	0,1	0,196354
3,985833	0,1	0,221805
3,987500	0,1	0,191864
3,989167	0,1	0,192103
3,990833	0,1	0,203750
3,992500	0,1	0,185700
3,994167	0,1	0,216155
3,995833	0,1	0,177255
3,997500	0,1	0,182470
3,999167	0,1	0,215596
4,000833	0,1	0,210225
4,002500	0,1	0,177522
4,004167	0,1	0,219377
4,005833	0,1	0,199687
4,007500	0,1	0,240391
4,009167	0,1	0,191687
4,010833	0,1	0,194523
4,012500	0,1	0,163401
4,014167	0,1	0,220085
4,015833	0,1	0,167699
4,017500	0,1	0,186183
4,019167	0,1	0,187879
4,020833	0,1	0,183852
4,022500	0,1	0,184473
4,024167	0,1	0,187100
4,025833	0,1	0,175138
4,027500	0,1	0,159972
4,029167	0,1	0,198074
4,030833	0,1	0,202529
4,032500	0,1	0,201087
4,034167	0,1	0,190925
4,035833	0,1	0,138925
4,037500	0,1	0,205228
4,039167	0,1	0,188302
4,040833	0,1	0,155619
4,042500	0,1	0,129848
4,044167	0,1	0,190109
4,045833	0,1	0,219157
4,047500	0,1	0,178902
4,049167	0,1	0,194922
4,050833	0,1	0,185210
4,052500	0,1	0,185185
4,054167	0,1	0,190943
4,055833	0,1	0,181876
4,057500	0,1	0,173756
4,059167	0,1	0,207502
4,060833	0,1	0,231009
4,062500	0,1	0,168146
4,064167	0,1	0,174221
4,065833	0,1	0,141921
4,067500	0,1	0,203451
4,069167	0,1	0,168159
4,070833	0,1	0,163948
4,072500	0,1	0,189071
4,074167	0,1	0,171781
4,075833	0,1	0,198542
4,077500	0,1	0,160092
4,079167	0,1	0,188470
4,080833	0,1	0,150018
4,082500	0,1	0,215722
4,084167	0,1	0,143287
4,085833	0,1	0,187888
4,087500	0,1	0,169068
4,089167	0,1	0,203476
4,090833	0,1	0,179033
4,092500	0,1	0,158307
4,094167	0,1	0,177107
4,095833	0,1	0,158306
4,097500	0,1	0,154500
4,099167	0,1	0,174084
4,100833	0,1	0,162397
4,102500	0,1	0,171219
4,104167	0,1	0,171643
4,105833	0,1	0,173222
4,107500	0,1	0,185405
4,109167	0,1	0,195590
4,110833	0,1	0,169360
4,112500	0,1	0,166351
4,114167	0,1	0,165552
4,115833	0,1	0,151569
4,117500	0,1	0,173528
4,119167	0,1	0,182537
4,120833	0,1	0,131742
4,122500	0,1	0,166121
4,124167	0,1	0,214369
4,125833	0,1	0,150956
4,127500	0,1	0,197804
4,129167	0,1	0,151753
4,130833	0,1	0,166547
4,132500	0,1	0,169821
4,134167	0,1	0,204411
4,135833	0,1	0,154911
4,137500	0,1	0,169504
4,139167	0,1	0,178332
4,140833	0,1	0,181647
4,142500	0,1	0,156195
4,144167	0,1	0,157813
4,145833	0,1	0,188000
4,147500	0,1	0,152860
4,149167	0,1	0,143716
4,150833	0,1	0,133734
4,152500	0,1	0,150359
4,154167	0,1	0,187845
4,155833	0,1	0,162043
4,157500	0,1	0,169104
4,159167	0,1	0,128472
4,160833	0,1	0,169344
4,162500	0,1	0,150434
4,164167	0,1	0,181331
4,165833	0,1	0,177691
4,167500	0,1	0,126697
4,169167	0,1	0,160605
4,170833	0,1	0,149901
4,172500	0,1	0,151809
4,174167	0,1	0,147163
4,175833	0,1	0,181107
4,177500	0,1	0,157819
4,179167	0,1	0,162527
4,180833	0,1	0,183670
4,182500	0,1	0,174205
4,184167	0,1	0,184404
4,185833	0,1	0,162466
4,187500	0,1	0,134694
4,189167	0,1	0,127729
4,190833	0,1	0,127840
4,192500	0,1	0,117858
4,194167	0,1	0,184323
4,195833	0,1	0,201922
4,197500	0,1	0,128590
4,199167	0,1	0,157162
4,200833	0,1	0,169681
4,202500	0,1	0,167152
4,204167	0,1	0,124314
4,205833	0,1	0,150423
4,207500	0,1	0,134958
4,209167	0,1	0,140224
4,210833	0,1	0,102902
4,212500	0,1	0,137037
4,214167	0,1	0,175835
4,215833	0,1	0,143344
4,217500	0,1	0,102192
4,219167	0,1	0,131168
4,220833	0,1	0,140110
4,222500	0,1	0,147003
4,224167	0,1	0,153097
4,225833	0,1	0,104373
4,227500	0,1	0,151220
4,229167	0,1	0,184111
4,230833	0,1	0,160820
4,232500	0,1	0,108064
4,234167	0,1	0,145175
4,235833	0,1	0,146226
4,237500	0,1	0,181307
4,239167	0,1	0,151526
4,240833	0,1	0,170726
4,242500	0,1	0,130250
4,244167	0,1	0,140267
4,245833	0,1	0,115416
4,247500	0,1	0,173320
4,249167	0,1	0,128583
4,250833	0,1	0,145711
4,252500	0,1	0,151785
4,254167	0,1	0,131290
4,255833	0,1	0,146490
4,257500	0,1	0,138291
4,259167	0,1	0,165875
4,260833	0,1	0,178555
4,262500	0,1	0,148436
4,264167	0,1	0,162257
4,265833	0,1	0,140806
4,267500	0,1	0,137824
4,269167	0,1	0,118040
4,270833	0,1	0,138574
4,272500	0,1	0,142868
4,274167	0,1	0,125310
4,275833	0,1	0,126150
4,277500	0,1	0,168919
4,279167	0,1	0,139986
4,280833	0,1	0,163120
4,282500	0,1	0,103552
4,284167	0,1	0,139171
4,285833	0,1	0,109348
4,287500	0,1	0,127369
4,289167	0,1	0,085827
4,290833	0,1	0,118472
4,292500	0,1	0,160693
4,294167	0,1	0,155436
4,295833	0,1	0,126067
4,297500	0,1	0,141576
4,299167	0,1	0,144759
4,300833	0,1	0,181550
4,302500	0,1	0,173932
4,304167	0,1	0,127451
4,305833	0,1	0,116214
4,307500	0,1	0,113743
4,309167	0,1	0,130727
4,310833	0,1	0,099054
4,312500	0,1	0,163311
4,314167	0,1	0,145386
4,315833	0,1	0,170013
4,317500	0,1	0,146299
4,319167	0,1	0,182996
4,320833	0,1	0,143012
4,322500	0,1	0,142802
4,324167	0,1	0,115150
4,325833	0,1	0,141553
4,327500	0,1	0,132310
4,329167	0,1	0,098367
4,330833	0,1	0,129901
4,332500	0,1	0,120283
4,334167	0,1	0,106009
4,335833	0,1	0,155620
4,337500	0,1	0,092126
4,339167	0,1	0,117184
4,340833	0,1	0,128370
4,342500	0,1	0,110235
4,344167	0,1	0,094760
4,345833	0,1	0,142236
4,347500	0,1	0,117350
4,349167	0,1	0,137218
4,350833	0,1	0,126374
4,352500	0,1	0,118993
4,354167	0,1	0,133194
4,355833	0,1	0,132866
4,357500	0,1	0,152493
4,359167	0,1	0,168591
4,360833	0,1	0,129184
4,362500	0,1	0,130864
4,364167	0,1	0,144713
4,365833	0,1	0,098569
4,367500	0,1	0,096758
4,369167	0,1	0,131033
4,370833	0,1	0,134308
4,372500	0,1	0,083363
4,374167	0,1	0,097777
4,375833	0,1	0,131588
4,377500	0,1	0,160850
4,379167	0,1	0,122779
4,380833	0,1	0,166697
4,382500	0,1	0,127737
4,384167	0,1	0,107944
4,385833	0,1	0,118831
4,387500	0,1	0,119990
4,389167	0,1	0,118434
4,390833	0,1	0,132461
4,392500	0,1	0,101345
4,394167	0,1	0,148661
4,395833	0,1	0,102616
4,397500	0,1	0,149152
4,399167	0,1	0,134624
4,400833	0,1	0,109302
4,402500	0,1	0,128746
4,404167	0,1	0,131819
4,405833	0,1	0,140067
4,407500	0,1	0,160698
4,409167	0,1	0,161836
4,410833	0,1	0,124713
4,412500	0,1	0,152401
4,414167	0,1	0,153496
4,415833	0,1	0,123288
4,417500	0,1	0,155581
4,419167	0,1	0,111909
4,420833	0,1	0,120744
4,422500	0,1	0,118791
4,424167	0,1	0,110544
4,425833	0,1	0,087915
4,427500	0,1	0,133610
4,429167	0,1	0,090320
4,430833	0,1	0,126740
4,432500	0,1	0,143489
4,434167	0,1	0,119462
4,435833	0,1	0,115968
4,437500	0,1	0,153267
4,439167	0,1	0,113219
4,440833	0,1	0,133927
4,442500	0,1	0,101257
4,444167	0,1	0,083846
4,445833	0,1	0,124651
4,447500	0,1	0,119280
4,449167	0,1	0,112034
4,450833	0,1	0,109898
4,452500	0,1	0,123434
4,454167	0,1	0,125705
4,455833	0,1	0,110546
4,457500	0,1	0,097160
4,459167	0,1	0,101536
4,460833	0,1	0,101870
4,462500	0,1	0,097582
4,464167	0,1	0,105159
4,465833	0,1	0,072752
4,467500	0,1	0,090926
4,469167	0,1	0,121717
4,470833	0,1	0,073159
4,472500	0,1	0,145698
4,474167	0,1	0,115508
4,475833	0,1	0,114344
4,477500	0,1	0,110964
4,479167	0,1	0,099584
4,480833	0,1	0,053926
4,482500	0,1	0,081677
4,484167	0,1	0,104065
4,485833	0,1	0,084112
4,487500	0,1	0,075084
4,489167	0,1	0,101664
4,490833	0,1	0,106473
4,492500	0,1	0,117408
4,494167	0,1	0,107342
4,495833	0,1	0,107340
4,497500	0,1	0,062798
4,499167	0,1	0,108240
4,500833	0,1	0,111741
4,502500	0,1	0,078800
4,504167	0,1	0,095909
4,505833	0,1	0,139701
4,507500	0,1	0,106058
4,509167	0,1	0,086246
4,510833	0,1	0,072885
4,512500	0,1	0,079148
4,514167	0,1	0,095776
4,515833	0,1	0,088711
4,517500	0,1	0,086775
4,519167	0,1	0,098577
4,520833	0,1	0,122941
4,522500	0,1	0,094385
4,524167	0,1	0,066749
4,525833	0,1	0,086258
4,527500	0,1	0,072282
4,529167	0,1	0,092151
4,530833	0,1	0,080687
4,532500	0,1	0,058679
4,534167	0,1	0,048115
4,535833	0,1	0,097768
4,537500	0,1	0,089755
4,539167	0,1	0,054147
4,540833	0,1	0,064053
4,542500	0,1	0,096438
4,544167	0,1	0,023923
4,545833	0,1	0,064267
4,547500	0,1	0,066988
4,549167	0,1	0,053652
4,550833	0,1	0,055137
4,552500	0,1	0,056028
4,554167	0,1	0,070187
4,555833	0,1	0,084259
4,557500	0,1	0,063059
4,559167	0,1	0,052207
4,560833	0,1	0,065674
4,562500	0,1	0,047563
4,564167	0,1	0,068585
4,565833	0,1	0,077035
4,567500	0,1	0,022298
4,569167	0,1	0,054244
4,570833	0,1	0,081610
4,572500	0,1	0,045501
4,574167	0,1	0,008219
4,575833	0,1	0,053572
4,577500	0,1	0,050650
4,579167	0,1	0,057250
4,580833	0,1	0,023829
4,582500	0,1	0,027217
4,584167	0,1	0,014751
4,585833	0,1	0,068464
4,587500	0,1	-0,011176
4,589167	0,1	0,075482
4,590833	0,1	0,028032
4,592500	0,1	0,060957
4,594167	0,1	0,061078
4,595833	0,1	0,046074
4,597500	0,1	0,008112
4,599167	0,1	-0,014991
4,600833	0,1	0,012030
4,602500	0,1	0,038862
4,604167	0,1	0,046116
4,605833	0,1	-0,015468
4,607500	0,1	0,027075
4,609167	0,1	0,008372
4,610833	0,1	0,006788
4,612500	0,1	0,036994
4,614167	0,1	0,023088
4,615833	0,1	-0,007806
4,617500	0,1	0,000696
4,619167	0,1	-0,009969
4,620833	0,1	0,062883
4,622500	0,1	-0,004221
4,624167	0,1	0,027523
4,625833	0,1	0,021152
4,627500	0,1	0,025441
4,629167	0,1	0,014972
4,630833	0,1	-0,016054
4,632500	0,1	0,010030
4,634167	0,1	-0,022565
4,635833	0,1	-0,002126
4,637500	0,1	-0,025569
4,639167	0,1	-0,042395
4,640833	0,1	-0,026487
4,642500	0,1	0,019695
4,644167	0,1	-0,029100
4,645833	0,1	-0,016619
4,647500	0,1	0,015120
4,649167	0,1	-0,021120
4,650833	0,1	-0,028613
4,652500	0,1	-0,009415
4,654167	0,1	-0,004080
4,655833	0,1	-0,048543
4,657500	0,1	-0,033825
4,659167	0,1	-0,002351
4,660833	0,1	-0,009300
4,662500	0,1	-0,060419
4,664167	0,1	-0,038009
4,665833	0,1	-0,053838
4,667500	0,1	-0,036510
4,669167	0,1	-0,039688
4,670833	0,1	-0,045198
4,672500	0,1	-0,059573
4,674167	0,1	0,003996
4,675833	0,1	-0,057050
4,677500	0,1	-0,036246
4,679167	0,1	-0,022421
4,680833	0,1	-0,000904
4,682500	0,1	-0,026345
4,684167	0,1	-0,010710
4,685833	0,1	-0,024100
4,687500	0,1	-0,038974
4,689167	0,1	-0,060375
4,690833	0,1	-0,045245
4,692500	0,1	-0,086188
4,694167	0,1	-0,022036
4,695833	0,1	-0,069589
4,697500	0,1	-0,045511
4,699167	0,1	-0,021042
4,700833	0,1	-0,039790
4,702500	0,1	-0,065727
4,704167	0,1	-0,065865
4,705833	0,1	-0,072399
4,707500	0,1	-0,065247
4,709167	0,1	-0,028267
4,710833	0,1	-0,011397
4,712500	0,1	-0,052741
4,714167	0,1	-0,052867
4,715833	0,1	-0,095370
4,717500	0,1	-0,054076
4,719167	0,1	-0,065467
4,720833	0,1	-0,057240
4,722500	0,1	-0,102483
4,724167	0,1	-0,074316
4,725833	0,1	-0,077202
4,727500	0,1	-0,039803
4,729167	0,1	-0,083676
4,730833	0,1	-0,082962
4,732500	0,1	-0,069958
4,734167	0,1	-0,069574
4,735833	0,1	-0,075504
4,737500	0,1	-0,070957
4,739167	0,1	-0,087864
4,740833	0,1	-0,061097
4,742500	0,1	-0,094990
4,744167	0,1	-0,097403
4,745833	0,1	-0,043518
4,747500	0,1	-0,093579
4,749167	0,1	-0,071934
4,750833	0,1	-0,102237
4,752500	0,1	-0,078207
4,754167	0,1	-0,054492
4,755833	0,1	-0,092568
4,757500	0,1	-0,101269
4,759167	0,1	-0,059943
4,760833	0,1	-0,104970
4,762500	0,1	-0,069201
4,764167	0,1	-0,070061
4,765833	0,1	-0,108128
4,767500	0,1	-0,113461
4,769167	0,1	-0,116067
4,770833	0,1	-0,107245
4,772500	0,1	-0,086979
4,774167	0,1	-0,115154
4,775833	0,1	-0,120287
4,777500	0,1	-0,080210
4,779167	0,1	-0,073310
4,780833	0,1	-0,068286
4,782500	0,1	-0,097240
4,784167	0,1	-0,101442
4,785833	0,1	-0,116261
4,787500	0,1	-0,102985
4,789167	0,1	-0,148369
4,790833	0,1	-0,137205
4,792500	0,1	-0,114494
4,794167	0,1	-0,119026
4,795833	0,1	-0,116528
4,797500	0,1	-0,132437
4,799167	0,1	-0,076229
4,800833	0,1	-0,145180
4,802500	0,1	-0,096825
4,804167	0,1	-0,147697
4,805833	0,1	-0,109658
4,807500	0,1	-0,173821
4,809167	0,1	-0,124494
4,810833	0,1	-0,126797
4,812500	0,1	-0,139842
4,814167	0,1	-0,134190
4,815833	0,1	-0,131506
4,817500	0,1	-0,111534
4,819167	0,1	-0,106284
4,820833	0,1	-0,139033
4,822500	0,1	-0,130509
4,824167	0,1	-0,099936
4,825833	0,1	-0,131275
4,827500	0,1	-0,165677
4,829167	0,1	-0,159139
4,830833	0,1	-0,152509
4,832500	0,1	-0,136824
4,834167	0,1	-0,119081
4,835833	0,1	-0,170789
4,837500	0,1	-0,142980
4,839167	0,1	-0,144196
4,840833	0,1	-0,121372
4,842500	0,1	-0,164387
4,844167	0,1	-0,128386
4,845833	0,1	-0,152847
4,847500	0,1	-0,171059
4,849167	0,1	-0,165396
4,850833	0,1	-0,139851
4,852500	0,1	-0,150087
4,854167	0,1	-0,151928
4,855833	0,1	-0,120940
4,857500	0,1	-0,134080
4,859167	0,1	-0,133598
4,860833	0,1	-0,166424
4,862500	0,1	-0,170297
4,864167	0,1	-0,150972
4,865833	0,1	-0,120926
4,867500	0,1	-0,129057
4,869167	0,1	-0,154369
4,870833	0,1	-0,193000
4,872500	0,1	-0,165663
4,874167	0,1	-0,151327
4,875833	0,1	-0,164310
4,877500	0,1	-0,195644
4,879167	0,1	-0,175579
4,880833	0,1	-0,160404
4,882500	0,1	-0,154929
4,884167	0,1	-0,149643
4,885833	0,1	-0,159316
4,887500	0,1	-0,161240
4,889167	0,1	-0,183758
4,890833	0,1	-0,189365
4,892500	0,1	-0,177800
4,894167	0,1	-0,172906
4,895833	0,1	-0,162663
4,897500	0,1	-0,208070
4,899167	0,1	-0,207118
4,900833	0,1	-0,186954
4,902500	0,1	-0,209494
4,904167	0,1	-0,188112
4,905833	0,1	-0,206105
4,907500	0,1	-0,161540
4,909167	0,1	-0,136892
4,910833	0,1	-0,159918
4,912500	0,1	-0,208778
4,914167	0,1	-0,170336
4,915833	0,1	-0,219766
4,917500	0,1	-0,190178
4,919167	0,1	-0,178379
4,920833	0,1	-0,211713
4,922500	0,1	-0,201770
4,924167	0,1	-0,191275
4,925833	0,1	-0,202083
4,927500	0,1	-0,183666
4,929167	0,1	-0,157287
4,930833	0,1	-0,187530
4,932500	0,1	-0,151005
4,934167	0,1	-0,169492
4,935833	0,1	-0,200733
4,937500	0,1	-0,202186
4,939167	0,1	-0,211112
4,940833	0,1	-0,200452
4,942500	0,1	-0,201346
4,944167	0,1	-0,162801
4,945833	0,1	-0,201628
4,947500	0,1	-0,236030
4,949167	0,1	-0,222576
4,950833	0,1	-0,200354
4,952500	0,1	-0,216488
4,954167	0,1	-0,221283
4,955833	0,1	-0,182709
4,957500	0,1	-0,200315
4,959167	0,1	-0,204727
4,960833	0,1	-0,196455
4,962500	0,1	-0,194812
4,964167	0,1	-0,232612
4,965833	0,1	-0,193149
4,967500	0,1	-0,183412
4,969167	0,1	-0,222346
4,970833	0,1	-0,198196
4,972500	0,1	-0,176131
4,974167	0,1	-0,217221
4,975833	0,1	-0,203152
4,977500	0,1	-0,200638
4,979167	0,1	-0,199936
4,980833	0,1	-0,218738
4,982500	0,1	-0,196263
4,984167	0,1	-0,178969
4,985833	0,1	-0,227853
4,987500	0,1	-0,225830
4,989167	0,1	-0,218008
4,990833	0,1	-0,222998
4,992500	0,1	-0,222478
4,994167	0,1	-0,242445
4,995833	0,1	-0,201003
4,997500	0,1	-0,236194
4,999167	0,1	-0,213819
5,000833	0,1	-0,179356
5,002500	0,1	-0,219285
5,004167	0,1	-0,199419
5,005833	0,1	-0,217710
5,007500	0,1	-0,216717
5,009167	0,1	-0,228404
5,010833	0,1	-0,220071
5,012500	0,1	-0,203574
5,014167	0,1	-0,214072
5,015833	0,1	-0,252916
5,017500	0,1	-0,235984
5,019167	0,1	-0,199562
5,020833	0,1	-0,210682
5,022500	0,1	-0,233809
5,024167	0,1	-0,192345
5,025833	0,1	-0,208085
5,027500	0,1	-0,199163
5,029167	0,1	-0,210756
5,030833	0,1	-0,217583
5,032500	0,1	-0,208306
5,034167	0,1	-0,269140
5,035833	0,1	-0,240113
5,037500	0,1	-0,245865
5,039167	0,1	-0,227935
5,040833	0,1	-0,206031
5,042500	0,1	-0,260157
5,044167	0,1	-0,215793
5,045833	0,1	-0,239360
5,047500	0,1	-0,210086
5,049167	0,1	-0,216873
5,050833	0,1	-0,250015
5,052500	0,1	-0,245449
5,054167	0,1	-0,218235
5,055833	0,1	-0,196524
5,057500	0,1	-0,209010
5,059167	0,1	-0,209182
5,060833	0,1	-0,237101
5,062500	0,1	-0,215564
5,064167	0,1	-0,236842
5,065833	0,1	-0,249345
5,067500	0,1	-0,207968
5,069167	0,1	-0,209078
5,070833	0,1	-0,218387
5,072500	0,1	-0,246309
5,074167	0,1	-0,180754
5,075833	0,1	-0,244600
5,077500	0,1	-0,241683
5,079167	0,1	-0,218981
5,080833	0,1	-0,246027
5,082500	0,1	-0,242163
5,084167	0,1	-0,222007
5,085833	0,1	-0,204097
5,087500	0,1	-0,247631
5,089167	0,1	-0,215436
5,090833	0,1	-0,240418
5,092500	0,1	-0,240524
5,094167	0,1	-0,232058
5,095833	0,1	-0,258137
5,097500	0,1	-0,273790
5,099167	0,1	-0,238116
5,100833	0,1	-0,218850
5,102500	0,1	-0,240063
5,104167	0,1	-0,269501
5,105833	0,1	-0,236053
5,107500	0,1	-0,281064
5,109167	0,1	-0,231677
5,110833	0,1	-0,213283
5,112500	0,1	-0,262062
5,114167	0,1	-0,244229
5,115833	0,1	-0,238463
5,117500	0,1	-0,229865
5,119167	0,1	-0,257298
5,120833	0,1	-0,279332
5,122500	0,1	-0,226421
5,124167	0,1	-0,201875
5,125833	0,1	-0,227120
5,127500	0,1	-0,260393
5,129167	0,1	-0,267799
5,130833	0,1	-0,238499
5,132500	0,1	-0,269057
5,134167	0,1	-0,212099
5,135833	0,1	-0,245019
5,137500	0,1	-0,249768
5,139167	0,1	-0,267311
5,140833	0,1	-0,266129
5,142500	0,1	-0,266453
5,144167	0,1	-0,256892
5,145833	0,1	-0,253468
5,147500	0,1	-0,216117
5,149167	0,1	-0,263540
5,150833	0,1	-0,224941
5,152500	0,1	-0,267571
5,154167	0,1	-0,254536
5,155833	0,1	-0,232799
5,157500	0,1	-0,248217
5,159167	0,1	-0,283708
5,160833	0,1	-0,239890
5,162500	0,1	-0,234439
5,164167	0,1	-0,232180
5,165833	0,1	-0,291622
5,167500	0,1	-0,278275
5,169167	0,1	-0,268417
5,170833	0,1	-0,235148
5,172500	0,1	-0,261742
5,174167	0,1	-0,250190
5,175833	0,1	-0,253503
5,177500	0,1	-0,241781
5,179167	0,1	-0,263645
5,180833	0,1	-0,268509
5,182500	0,1	-0,245937
5,184167	0,1	-0,266158
5,185833	0,1	-0,222496
5,187500	0,1	-0,264641
5,189167	0,1	-0,260721
5,190833	0,1	-0,278912
5,192500	0,1	-0,263843
5,194167	0,1	-0,278009
5,195833	0,1	-0,256151
5,197500	0,1	-0,308307
5,199167	0,1	-0,299017
5,200833	0,1	-0,288872
5,202500	0,1	-0,243012
5,204167	0,1	-0,253406
5,205833	0,1	-0,258047
5,207500	0,1	-0,258782
5,209167	0,1	-0,265033
5,210833	0,1	-0,265518
5,212500	0,1	-0,293790
5,214167	0,1	-0,270189
5,215833	0,1	-0,281230
5,217500	0,1	-0,288738
5,219167	0,1	-0,256993
5,220833	0,1	-0,280555
5,222500	0,1	-0,250616
5,224167	0,1	-0,274401
5,225833	0,1	-0,281203
5,227500	0,1	-0,249486
5,229167	0,1	-0,280646
5,230833	0,1	-0,245268
5,232500	0,1	-0,264386
5,234167	0,1	-0,261365
5,235833	0,1	-0,287344
5,237500	0,1	-0,254126
5,239167	0,1	-0,298874
5,240833	0,1	-0,280079
5,242500	0,1	-0,227682
5,244167	0,1	-0,256362
5,245833	0,1	-0,267615
5,247500	0,1	-0,291765
5,249167	0,1	-0,284487
5,250833	0,1	-0,297500
5,252500	0,1	-0,274124
5,254167	0,1	-0,246815
5,255833	0,1	-0,261720
5,257500	0,1	-0,269122
5,259167	0,1	-0,290667
5,260833	0,1	-0,315338
5,262500	0,1	-0,293802
5,264167	0,1	-0,291641
5,265833	0,1	-0,284297
5,267500	0,1	-0,276502
5,269167	0,1	-0,305675
5,270833	0,1	-0,298979
5,272500	0,1	-0,265461
5,274167	0,1	-0,269772
5,275833	0,1	-0,313272
5,277500	0,1	-0,248010
5,279167	0,1	-0,326534
5,280833	0,1	-0,322107
5,282500	0,1	-0,302082
5,284167	0,1	-0,278467
5,285833	0,1	-0,276571
5,287500	0,1	-0,288895
5,289167	0,1	-0,321519
5,290833	0,1	-0,312061
5,292500	0,1	-0,288844
5,294167	0,1	-0,274382
5,295833	0,1	-0,278178
5,297500	0,1	-0,328118
5,299167	0,1	-0,294481
5,300833	0,1	-0,259729
5,302500	0,1	-0,284095
5,304167	0,1	-0,286905
5,305833	0,1	-0,248843
5,307500	0,1	-0,274307
5,309167	0,1	-0,282556
5,310833	0,1	-0,271160
5,312500	0,1	-0,290896
5,314167	0,1	-0,313083
5,315833	0,1	-0,293838
5,317500	0,1	-0,280309
5,319167	0,1	-0,327568
5,320833	0,1	-0,285947
5,322500	0,1	-0,277051
5,324167	0,1	-0,279591
5,325833	0,1	-0,285328
5,327500	0,1	-0,299202
5,329167	0,1	-0,295281
5,330833	0,1	-0,286230
5,332500	0,1	-0,292344
5,334167	0,1	-0,337554
5,335833	0,1	-0,299219
5,337500	0,1	-0,254679
5,339167	0,1	-0,298939
5,340833	0,1	-0,287329
5,342500	0,1	-0,262368
5,344167	0,1	-0,315940
5,345833	0,1	-0,299055
5,347500	0,1	-0,301752
5,349167	0,1	-0,322199
5,350833	0,1	-0,273551
5,352500	0,1	-0,295181
5,354167	0,1	-0,293898
5,355833	0,1	-0,323096
5,357500	0,1	-0,319145
5,359167	0,1	-0,257673
5,360833	0,1	-0,276306
5,362500	0,1	-0,294663
5,364167	0,1	-0,322129
5,365833	0,1	-0,299729
5,367500	0,1	-0,278472
5,369167	0,1	-0,273925
5,370833	0,1	-0,318554
5,372500	0,1	-0,292940
5,374167	0,1	-0,278182
5,375833	0,1	-0,292825
5,377500	0,1	-0,285910
5,379167	0,1	-0,306744
5,380833	0,1	-0,303945
5,382500	0,1	-0,269587
5,384167	0,1	-0,340930
5,385833	0,1	-0,302504
5,387500	0,1	-0,330023
5,389167	0,1	-0,298184
5,390833	0,1	-0,307293
5,392500	0,1	-0,327416
5,394167	0,1	-0,265858
5,395833	0,1	-0,345081
5,397500	0,1	-0,292492
5,399167	0,1	-0,295955
5,400833	0,1	-0,302655
5,402500	0,1	-0,284749
5,404167	0,1	-0,287549
5,405833	0,1	-0,299238
5,407500	0,1	-0,291417
5,409167	0,1	-0,301654
5,410833	0,1	-0,289646
5,412500	0,1	-0,299142
5,414167	0,1	-0,287034
5,415833	0,1	-0,322771
5,417500	0,1	-0,342713
5,419167	0,1	-0,262028
5,420833	0,1	-0,317713
5,422500	0,1	-0,294961
5,424167	0,1	-0,285396
5,425833	0,1	-0,322615
5,427500	0,1	-0,276512
5,429167	0,1	-0,287547
5,430833	0,1	-0,331501
5,432500	0,1	-0,301854
5,434167	0,1	-0,323842
5,435833	0,1	-0,339558
5,437500	0,1	-0,344713
5,439167	0,1	-0,300893
5,440833	0,1	-0,319978
5,442500	0,1	-0,299210
5,444167	0,1	-0,322615
5,445833	0,1	-0,316663
5,447500	0,1	-0,323166
5,449167	0,1	-0,327323
5,450833	0,1	-0,296830
5,452500	0,1	-0,352333
5,454167	0,1	-0,313965
5,455833	0,1	-0,295349
5,457500	0,1	-0,345540
5,459167	0,1	-0,320601
5,460833	0,1	-0,289197
5,462500	0,1	-0,336812
5,464167	0,1	-0,313806
5,465833	0,1	-0,351534
5,467500	0,1	-0,279518
5,469167	0,1	-0,329568
5,470833	0,1	-0,340139
5,472500	0,1	-0,336213
5,474167	0,1	-0,309878
5,475833	0,1	-0,310062
5,477500	0,1	-0,290547
5,479167	0,1	-0,297307
5,480833	0,1	-0,313408
5,482500	0,1	-0,331408
5,484167	0,1	-0,316187
5,485833	0,1	-0,343097
5,487500	0,1	-0,301472
5,489167	0,1	-0,321360
5,490833	0,1	-0,359616
5,492500	0,1	-0,300637
5,494167	0,1	-0,322583
5,495833	0,1	-0,331089
5,497500	0,1	-0,348187
5,499167	0,1	-0,321116
5,500833	0,1	-0,348732
5,502500	0,1	-0,328582
5,504167	0,1	-0,319561
5,505833	0,1	-0,330477
5,507500	0,1	-0,317920
5,509167	0,1	-0,316762
5,510833	0,1	-0,309290
5,512500	0,1	-0,297859
5,514167	0,1	-0,331210
5,515833	0,1	-0,279414
5,517500	0,1	-0,323837
5,519167	0,1	-0,328934
5,520833	0,1	-0,293356
5,522500	0,1	-0,303428
5,524167	0,1	-0,298278
5,525833	0,1	-0,332177
5,527500	0,1	-0,349736
5,529167	0,1	-0,311104
5,530833	0,1	-0,325806
5,532500	0,1	-0,300824
5,534167	0,1	-0,314921
5,535833	0,1	-0,324489
5,537500	0,1	-0,310548
5,539167	0,1	-0,312092
5,540833	0,1	-0,320046
5,542500	0,1	-0,326966
5,544167	0,1	-0,313060
5,545833	0,1	-0,324230
5,547500	0,1	-0,335309
5,549167	0,1	-0,317246
5,550833	0,1	-0,299639
5,552500	0,1	-0,325324
5,554167	0,1	-0,302852
5,555833	0,1	-0,340135
5,557500	0,1	-0,309684
5,559167	0,1	-0,282533
5,560833	0,1	-0,362309
5,562500	0,1	-0,326268
5,564167	0,1	-0,345965
5,565833	0,1	-0,324850
5,567500	0,1	-0,340461
5,569167	0,1	-0,331385
5,570833	0,1	-0,286787
5,572500	0,1	-0,361087
5,574167	0,1	-0,321375
5,575833	0,1	-0,347767
5,577500	0,1	-0,336988
5,579167	0,1	-0,296354
5,580833	0,1	-0,334788
5,582500	0,1	-0,374814
5,584167	0,1	-0,364328
5,585833	0,1	-0,335542
5,587500	0,1	-0,332830
5,589167	0,1	-0,330224
5,590833	0,1	-0,313805
5,592500	0,1	-0,340135
5,594167	0,1	-0,306914
5,595833	0,1	-0,324678
5,597500	0,1	-0,364638
5,599167	0,1	-0,334575
5,600833	0,1	-0,345838
5,602500	0,1	-0,310938
5,604167	0,1	-0,326773
5,605833	0,1	-0,291359
5,607500	0,1	-0,327897
5,609167	0,1	-0,336598
5,610833	0,1	-0,325233
5,612500	0,1	-0,288364
5,614167	0,1	-0,323904
5,615833	0,1	-0,301114
5,617500	0,1	-0,349050
5,619167	0,1	-0,375976
5,620833	0,1	-0,327303
5,622500	0,1	-0,318632
5,624167	0,1	-0,329962
5,625833	0,1	-0,286532
5,627500	0,1	-0,335524
5,629167	0,1	-0,359718
5,630833	0,1	-0,295745
5,632500	0,1	-0,318589
5,634167	0,1	-0,296763
5,635833	0,1	-0,353750
5,637500	0,1	-0,358205
5,639167	0,1	-0,342013
5,640833	0,1	-0,327072
5,642500	0,1	-0,326648
5,644167	0,1	-0,346127
5,645833	0,1	-0,324785
5,647500	0,1	-0,356428
5,649167	0,1	-0,320121
5,650833	0,1	-0,339201
5,652500	0,1	-0,336889
5,654167	0,1	-0,361035
5,655833	0,1	-0,318126
5,657500	0,1	-0,340330
5,659167	0,1	-0,328165
5,660833	0,1	-0,328421
5,662500	0,1	-0,334602
5,664167	0,1	-0,318987
5,665833	0,1	-0,356428
5,667500	0,1	-0,336925
5,669167	0,1	-0,305723
5,670833	0,1	-0,356649
5,672500	0,1	-0,345684
5,674167	0,1	-0,304956
5,675833	0,1	-0,363281
5,677500	0,1	-0,316997
5,679167	0,1	-0,310711
5,680833	0,1	-0,328608
5,682500	0,1	-0,336983
5,684167	0,1	-0,369405
5,685833	0,1	-0,315196
5,687500	0,1	-0,307520
5,689167	0,1	-0,338975
5,690833	0,1	-0,287534
5,692500	0,1	-0,353908
5,694167	0,1	-0,293102
5,695833	0,1	-0,365725
5,697500	0,1	-0,313360
5,699167	0,1	-0,344451
5,700833	0,1	-0,338469
5,702500	0,1	-0,306338
5,704167	0,1	-0,330118
5,705833	0,1	-0,340977
5,707500	0,1	-0,345584
5,709167	0,1	-0,348737
5,710833	0,1	-0,305049
5,712500	0,1	-0,337589
5,714167	0,1	-0,323980
5,715833	0,1	-0,342648
5,717500	0,1	-0,331609
5,719167	0,1	-0,343682
5,720833	0,1	-0,378906
5,722500	0,1	-0,342920
5,724167	0,1	-0,350800
5,725833	0,1	-0,371019
5,727500	0,1	-0,387249
5,729167	0,1	-0,371898
5,730833	0,1	-0,282159
5,732500	0,1	-0,372870
5,734167	0,1	-0,350710
5,735833	0,1	-0,371469
5,737500	0,1	-0,357214
5,739167	0,1	-0,333900
5,740833	0,1	-0,356464
5,742500	0,1	-0,357725
5,744167	0,1	-0,343333
5,745833	0,1	-0,324816
5,747500	0,1	-0,349799
5,749167	0,1	-0,362648
5,750833	0,1	-0,348455
5,752500	0,1	-0,349126
5,754167	0,1	-0,362745
5,755833	0,1	-0,312845
5,757500	0,1	-0,359741
5,759167	0,1	-0,337861
5,760833	0,1	-0,357752
5,762500	0,1	-0,329490
5,764167	0,1	-0,353241
5,765833	0,1	-0,335510
5,767500	0,1	-0,315159
5,769167	0,1	-0,339944
5,770833	0,1	-0,328039
5,772500	0,1	-0,349442
5,774167	0,1	-0,359364
5,775833	0,1	-0,377557
5,777500	0,1	-0,382005
5,779167	0,1	-0,336579
5,780833	0,1	-0,339723
5,782500	0,1	-0,375974
5,784167	0,1	-0,369029
5,785833	0,1	-0,343500
5,787500	0,1	-0,406335
5,789167	0,1	-0,383523
5,790833	0,1	-0,362110
5,792500	0,1	-0,358435
5,794167	0,1	-0,344750
5,795833	0,1	-0,356305
5,797500	0,1	-0,373338
5,799167	0,1	-0,384288
5,800833	0,1	-0,345303
5,802500	0,1	-0,363097
5,804167	0,1	-0,359561
5,805833	0,1	-0,338087
5,807500	0,1	-0,337212
5,809167	0,1	-0,335859
5,810833	0,1	-0,358008
5,812500	0,1	-0,363391
5,814167	0,1	-0,340632
5,815833	0,1	-0,380644
5,817500	0,1	-0,331203
5,819167	0,1	-0,358845
5,820833	0,1	-0,370377
5,822500	0,1	-0,387733
5,824167	0,1	-0,381523
5,825833	0,1	-0,364973
5,827500	0,1	-0,351482
5,829167	0,1	-0,356565
5,830833	0,1	-0,354057
5,832500	0,1	-0,377394
5,834167	0,1	-0,361303
5,835833	0,1	-0,389148
5,837500	0,1	-0,346915
5,839167	0,1	-0,357402
5,840833	0,1	-0,341950
5,842500	0,1	-0,328233
5,844167	0,1	-0,360840
5,845833	0,1	-0,381388
5,847500	0,1	-0,325728
5,849167	0,1	-0,361195
5,850833	0,1	-0,376657
5,852500	0,1	-0,395106
5,854167	0,1	-0,328887
5,855833	0,1	-0,396060
5,857500	0,1	-0,345115
5,859167	0,1	-0,373820
5,860833	0,1	-0,378656
5,862500	0,1	-0,378528
5,864167	0,1	-0,406245
5,865833	0,1	-0,352588
5,867500	0,1	-0,366512
5,869167	0,1	-0,367838
5,870833	0,1	-0,406276
5,872500	0,1	-0,347887
5,874167	0,1	-0,371180
5,875833	0,1	-0,356473
5,877500	0,1	-0,356116
5,879167	0,1	-0,361041
5,880833	0,1	-0,357306
5,882500	0,1	-0,396260
5,884167	0,1	-0,335456
5,885833	0,1	-0,336150
5,887500	0,1	-0,395418
5,889167	0,1	-0,380495
5,890833	0,1	-0,358568
5,892500	0,1	-0,398354
5,894167	0,1	-0,354225
5,895833	0,1	-0,359593
5,897500	0,1	-0,404180
5,899167	0,1	-0,390124
5,900833	0,1	-0,369967
5,902500	0,1	-0,361012
5,904167	0,1	-0,311945
5,905833	0,1	-0,364442
5,907500	0,1	-0,347297
5,909167	0,1	-0,387213
5,910833	0,1	-0,373765
5,912500	0,1	-0,377175
5,914167	0,1	-0,345304
5,915833	0,1	-0,339886
5,917500	0,1	-0,416249
5,919167	0,1	-0,361282
5,920833	0,1	-0,388085
5,922500	0,1	-0,343922
5,924167	0,1	-0,368700
5,925833	0,1	-0,401319
5,927500	0,1	-0,391700
5,929167	0,1	-0,383070
5,930833	0,1	-0,390248
5,932500	0,1	-0,373154
5,934167	0,1	-0,385610
5,935833	0,1	-0,412041
5,937500	0,1	-0,372935
5,939167	0,1	-0,371089
5,940833	0,1	-0,344852
5,942500	0,1	-0,375688
5,944167	0,1	-0,395590
5,945833	0,1	-0,383779
5,947500	0,1	-0,364429
5,949167	0,1	-0,378139
5,950833	0,1	-0,366745
5,952500	0,1	-0,390081
5,954167	0,1	-0,362692
5,955833	0,1	-0,381551
5,957500	0,1	-0,374409
5,959167	0,1	-0,348717
5,960833	0,1	-0,366447
5,962500	0,1	-0,348715
5,964167	0,1	-0,424523
5,965833	0,1	-0,361251
5,967500	0,1	-0,378846
5,969167	0,1	-0,374601
5,970833	0,1	-0,350549
5,972500	0,1	-0,358305
5,974167	0,1	-0,414708
5,975833	0,1	-0,394569
5,977500	0,1	-0,387354
5,979167	0,1	-0,368099
5,980833	0,1	-0,359403
5,982500	0,1	-0,370700
5,984167	0,1	-0,394494
5,985833	0,1	-0,377438
5,987500	0,1	-0,384869
5,989167	0,1	-0,381394
5,990833	0,1	-0,390664
5,992500	0,1	-0,433675
5,994167	0,1	-0,380538
5,995833	0,1	-0,352129
5,997500	0,1	-0,405306
5,999167	0,1	-0,386872
6,000833	0,1	-0,394207
