File Path	chrom://chromeleon01/ikbm_chromeleon/2022/Rezex/Esteban/220612_chitin_4_7.seq/251.smp/UV_VIS_1.channel/UV_VIS_1.chm
Channel	UV_VIS_1

Injection Information:
Data Vault	ikbm_chromeleon
Injection	Blank
Injection Number	123
Position	RA1
Comment	
Processing Method	New ProcMethod
Instrument Method	Short_Rezex_6min_194nm
Type	Blank
Status	Finished
Injection Date	13.06.2022
Injection Time	06:24:00
Injection Volume (µl)	8,000
Dilution Factor	1,0000
Weight	1,0000

Chromatogram Data Information:
Time Min. (min)	0,000833
Time Max. (min)	6,000833
Data Points	3601
Detector	UV
Generating Data System	Chromeleon 7.2.9.11323
Exporting Data System	Chromeleon 7.2.9.0
Operator	Instrument Controller
Signal Quantity	Absorbance
Signal Unit	mAU
Signal Min.	-0,361104
Signal Max.	0,472617
Channel	UV_VIS_1
Driver Name	VWD3000.dll
Channel Type	Evaluation
Min. Step (s)	0,1
Max. Step (s)	0,1
Average Step (s)	0,1

Signal Parameter Information:
Signal Info	WVL:194 nm

Chromatogram Data:
Time (min)	Step (s)	Value (mAU)
0,000833	n.a.	-0,053267
0,002500	0,1	-0,070591
0,004167	0,1	-0,108797
0,005833	0,1	-0,065057
0,007500	0,1	-0,055423
0,009167	0,1	-0,087009
0,010833	0,1	-0,029429
0,012500	0,1	-0,077780
0,014167	0,1	-0,110417
0,015833	0,1	-0,079356
0,017500	0,1	-0,055795
0,019167	0,1	-0,066266
0,020833	0,1	-0,030726
0,022500	0,1	-0,057050
0,024167	0,1	-0,077403
0,025833	0,1	-0,059337
0,027500	0,1	-0,068422
0,029167	0,1	-0,088681
0,030833	0,1	-0,056561
0,032500	0,1	-0,052354
0,034167	0,1	-0,043828
0,035833	0,1	-0,047841
0,037500	0,1	-0,053801
0,039167	0,1	-0,059147
0,040833	0,1	-0,070408
0,042500	0,1	-0,077573
0,044167	0,1	-0,056559
0,045833	0,1	-0,064648
0,047500	0,1	-0,090940
0,049167	0,1	-0,083017
0,050833	0,1	-0,071089
0,052500	0,1	-0,082036
0,054167	0,1	-0,068215
0,055833	0,1	-0,081087
0,057500	0,1	-0,068979
0,059167	0,1	-0,059976
0,060833	0,1	-0,059913
0,062500	0,1	-0,071998
0,064167	0,1	-0,038531
0,065833	0,1	-0,074999
0,067500	0,1	-0,040502
0,069167	0,1	-0,082013
0,070833	0,1	-0,096689
0,072500	0,1	-0,082914
0,074167	0,1	-0,065404
0,075833	0,1	-0,094620
0,077500	0,1	-0,018127
0,079167	0,1	-0,066214
0,080833	0,1	-0,062437
0,082500	0,1	-0,071815
0,084167	0,1	-0,056910
0,085833	0,1	-0,085820
0,087500	0,1	-0,049134
0,089167	0,1	-0,078534
0,090833	0,1	-0,073163
0,092500	0,1	-0,072474
0,094167	0,1	-0,058482
0,095833	0,1	-0,056081
0,097500	0,1	-0,042588
0,099167	0,1	-0,046838
0,100833	0,1	-0,068618
0,102500	0,1	-0,094163
0,104167	0,1	-0,061618
0,105833	0,1	-0,074580
0,107500	0,1	-0,086422
0,109167	0,1	-0,099469
0,110833	0,1	-0,068966
0,112500	0,1	-0,030604
0,114167	0,1	-0,055890
0,115833	0,1	-0,062039
0,117500	0,1	-0,092802
0,119167	0,1	-0,058014
0,120833	0,1	-0,120571
0,122500	0,1	-0,072654
0,124167	0,1	-0,053518
0,125833	0,1	-0,065808
0,127500	0,1	-0,052998
0,129167	0,1	-0,023066
0,130833	0,1	-0,079811
0,132500	0,1	-0,065252
0,134167	0,1	-0,087152
0,135833	0,1	-0,080969
0,137500	0,1	-0,092119
0,139167	0,1	-0,084546
0,140833	0,1	-0,078726
0,142500	0,1	-0,097207
0,144167	0,1	-0,078131
0,145833	0,1	-0,105316
0,147500	0,1	-0,040483
0,149167	0,1	-0,059635
0,150833	0,1	-0,053926
0,152500	0,1	-0,087394
0,154167	0,1	-0,097606
0,155833	0,1	-0,076593
0,157500	0,1	-0,032012
0,159167	0,1	-0,040139
0,160833	0,1	-0,063546
0,162500	0,1	-0,036789
0,164167	0,1	-0,093041
0,165833	0,1	-0,051702
0,167500	0,1	-0,120278
0,169167	0,1	-0,020807
0,170833	0,1	-0,078862
0,172500	0,1	-0,099024
0,174167	0,1	-0,069334
0,175833	0,1	-0,088652
0,177500	0,1	-0,050955
0,179167	0,1	-0,070227
0,180833	0,1	-0,074690
0,182500	0,1	-0,067526
0,184167	0,1	-0,074001
0,185833	0,1	-0,078875
0,187500	0,1	-0,090608
0,189167	0,1	-0,074861
0,190833	0,1	-0,073177
0,192500	0,1	-0,087064
0,194167	0,1	-0,102569
0,195833	0,1	-0,091378
0,197500	0,1	-0,075229
0,199167	0,1	-0,088621
0,200833	0,1	-0,106558
0,202500	0,1	-0,076746
0,204167	0,1	-0,077027
0,205833	0,1	-0,078022
0,207500	0,1	-0,045959
0,209167	0,1	0,002916
0,210833	0,1	-0,066436
0,212500	0,1	-0,070855
0,214167	0,1	-0,043418
0,215833	0,1	-0,074330
0,217500	0,1	-0,078890
0,219167	0,1	-0,108676
0,220833	0,1	-0,078195
0,222500	0,1	-0,096915
0,224167	0,1	-0,062153
0,225833	0,1	-0,055333
0,227500	0,1	-0,065765
0,229167	0,1	-0,068534
0,230833	0,1	-0,049499
0,232500	0,1	-0,069340
0,234167	0,1	-0,093857
0,235833	0,1	-0,084914
0,237500	0,1	-0,030977
0,239167	0,1	-0,097960
0,240833	0,1	-0,087131
0,242500	0,1	-0,103196
0,244167	0,1	-0,042573
0,245833	0,1	-0,061333
0,247500	0,1	-0,087367
0,249167	0,1	-0,080161
0,250833	0,1	-0,046708
0,252500	0,1	-0,055637
0,254167	0,1	-0,066880
0,255833	0,1	-0,090605
0,257500	0,1	-0,086365
0,259167	0,1	-0,055646
0,260833	0,1	-0,072365
0,262500	0,1	-0,095403
0,264167	0,1	-0,062628
0,265833	0,1	-0,085671
0,267500	0,1	-0,106709
0,269167	0,1	-0,079251
0,270833	0,1	-0,065111
0,272500	0,1	-0,088082
0,274167	0,1	-0,083384
0,275833	0,1	-0,103454
0,277500	0,1	-0,087071
0,279167	0,1	-0,082742
0,280833	0,1	-0,118055
0,282500	0,1	-0,078259
0,284167	0,1	-0,025700
0,285833	0,1	-0,098326
0,287500	0,1	-0,101044
0,289167	0,1	-0,042019
0,290833	0,1	-0,086018
0,292500	0,1	-0,085124
0,294167	0,1	-0,083964
0,295833	0,1	-0,072617
0,297500	0,1	-0,090361
0,299167	0,1	-0,095390
0,300833	0,1	-0,079230
0,302500	0,1	-0,064733
0,304167	0,1	-0,076902
0,305833	0,1	-0,073635
0,307500	0,1	-0,121767
0,309167	0,1	-0,089624
0,310833	0,1	-0,085143
0,312500	0,1	-0,106631
0,314167	0,1	-0,109234
0,315833	0,1	-0,075629
0,317500	0,1	-0,073681
0,319167	0,1	-0,072431
0,320833	0,1	-0,073818
0,322500	0,1	-0,101390
0,324167	0,1	-0,106818
0,325833	0,1	-0,070391
0,327500	0,1	-0,064440
0,329167	0,1	-0,087977
0,330833	0,1	-0,104432
0,332500	0,1	-0,085832
0,334167	0,1	-0,090563
0,335833	0,1	-0,082638
0,337500	0,1	-0,052772
0,339167	0,1	-0,080626
0,340833	0,1	-0,106233
0,342500	0,1	-0,052946
0,344167	0,1	-0,123792
0,345833	0,1	-0,074807
0,347500	0,1	-0,066823
0,349167	0,1	-0,057243
0,350833	0,1	-0,058171
0,352500	0,1	-0,100348
0,354167	0,1	-0,078835
0,355833	0,1	-0,024848
0,357500	0,1	-0,109535
0,359167	0,1	-0,054580
0,360833	0,1	-0,118171
0,362500	0,1	-0,067079
0,364167	0,1	-0,102092
0,365833	0,1	-0,121132
0,367500	0,1	-0,064498
0,369167	0,1	-0,065215
0,370833	0,1	-0,070075
0,372500	0,1	-0,071788
0,374167	0,1	-0,105834
0,375833	0,1	-0,089973
0,377500	0,1	-0,081539
0,379167	0,1	-0,068353
0,380833	0,1	-0,053656
0,382500	0,1	-0,094574
0,384167	0,1	-0,051080
0,385833	0,1	-0,072699
0,387500	0,1	-0,083978
0,389167	0,1	-0,052376
0,390833	0,1	-0,050947
0,392500	0,1	-0,103537
0,394167	0,1	-0,037563
0,395833	0,1	-0,059407
0,397500	0,1	-0,066819
0,399167	0,1	-0,051960
0,400833	0,1	-0,118476
0,402500	0,1	-0,096619
0,404167	0,1	-0,071442
0,405833	0,1	-0,089262
0,407500	0,1	-0,104036
0,409167	0,1	-0,060783
0,410833	0,1	-0,104426
0,412500	0,1	-0,066726
0,414167	0,1	-0,045114
0,415833	0,1	-0,106682
0,417500	0,1	-0,096036
0,419167	0,1	-0,065088
0,420833	0,1	-0,081638
0,422500	0,1	-0,074235
0,424167	0,1	-0,114160
0,425833	0,1	-0,043797
0,427500	0,1	-0,077646
0,429167	0,1	-0,109562
0,430833	0,1	-0,079251
0,432500	0,1	-0,076862
0,434167	0,1	-0,072933
0,435833	0,1	-0,049623
0,437500	0,1	-0,042990
0,439167	0,1	-0,061210
0,440833	0,1	-0,065598
0,442500	0,1	-0,067066
0,444167	0,1	-0,057382
0,445833	0,1	-0,083957
0,447500	0,1	-0,038595
0,449167	0,1	-0,095150
0,450833	0,1	-0,105306
0,452500	0,1	-0,084978
0,454167	0,1	-0,056683
0,455833	0,1	-0,113117
0,457500	0,1	-0,078899
0,459167	0,1	-0,059309
0,460833	0,1	-0,056861
0,462500	0,1	-0,087060
0,464167	0,1	-0,083218
0,465833	0,1	-0,039801
0,467500	0,1	-0,057314
0,469167	0,1	-0,050552
0,470833	0,1	-0,060647
0,472500	0,1	-0,090557
0,474167	0,1	-0,080134
0,475833	0,1	-0,049213
0,477500	0,1	-0,047957
0,479167	0,1	-0,078411
0,480833	0,1	-0,096213
0,482500	0,1	-0,077569
0,484167	0,1	-0,103957
0,485833	0,1	-0,063791
0,487500	0,1	-0,055852
0,489167	0,1	-0,065290
0,490833	0,1	-0,088651
0,492500	0,1	-0,054302
0,494167	0,1	-0,061167
0,495833	0,1	-0,094849
0,497500	0,1	-0,045779
0,499167	0,1	-0,110243
0,500833	0,1	-0,033381
0,502500	0,1	-0,071077
0,504167	0,1	-0,095526
0,505833	0,1	-0,083677
0,507500	0,1	-0,082680
0,509167	0,1	-0,071301
0,510833	0,1	-0,077823
0,512500	0,1	-0,044553
0,514167	0,1	-0,065517
0,515833	0,1	-0,118435
0,517500	0,1	-0,098622
0,519167	0,1	-0,054869
0,520833	0,1	-0,123792
0,522500	0,1	-0,065183
0,524167	0,1	-0,093751
0,525833	0,1	-0,071153
0,527500	0,1	-0,067587
0,529167	0,1	-0,048734
0,530833	0,1	-0,051726
0,532500	0,1	-0,103097
0,534167	0,1	-0,076911
0,535833	0,1	-0,058237
0,537500	0,1	-0,086401
0,539167	0,1	-0,107578
0,540833	0,1	-0,064265
0,542500	0,1	-0,066759
0,544167	0,1	-0,059291
0,545833	0,1	-0,071249
0,547500	0,1	-0,095447
0,549167	0,1	-0,046878
0,550833	0,1	-0,077496
0,552500	0,1	-0,102567
0,554167	0,1	-0,081877
0,555833	0,1	-0,083094
0,557500	0,1	-0,078496
0,559167	0,1	-0,078234
0,560833	0,1	-0,065357
0,562500	0,1	-0,048322
0,564167	0,1	-0,102773
0,565833	0,1	-0,034135
0,567500	0,1	-0,083371
0,569167	0,1	-0,084835
0,570833	0,1	-0,088058
0,572500	0,1	-0,086163
0,574167	0,1	-0,064444
0,575833	0,1	-0,042855
0,577500	0,1	-0,069216
0,579167	0,1	-0,030208
0,580833	0,1	-0,048990
0,582500	0,1	-0,074746
0,584167	0,1	-0,106981
0,585833	0,1	-0,052655
0,587500	0,1	-0,055684
0,589167	0,1	-0,051193
0,590833	0,1	-0,040943
0,592500	0,1	-0,101581
0,594167	0,1	-0,057356
0,595833	0,1	-0,063233
0,597500	0,1	-0,122558
0,599167	0,1	-0,019602
0,600833	0,1	-0,041561
0,602500	0,1	-0,079692
0,604167	0,1	-0,071315
0,605833	0,1	-0,083549
0,607500	0,1	-0,048035
0,609167	0,1	-0,048687
0,610833	0,1	-0,075661
0,612500	0,1	-0,052208
0,614167	0,1	-0,071477
0,615833	0,1	-0,052726
0,617500	0,1	-0,091867
0,619167	0,1	-0,066186
0,620833	0,1	-0,059272
0,622500	0,1	-0,072762
0,624167	0,1	-0,026068
0,625833	0,1	-0,036095
0,627500	0,1	-0,050836
0,629167	0,1	-0,057424
0,630833	0,1	-0,039645
0,632500	0,1	-0,023328
0,634167	0,1	-0,058286
0,635833	0,1	-0,078764
0,637500	0,1	-0,054222
0,639167	0,1	-0,029175
0,640833	0,1	-0,010782
0,642500	0,1	-0,048571
0,644167	0,1	-0,008492
0,645833	0,1	-0,025271
0,647500	0,1	-0,007704
0,649167	0,1	-0,050936
0,650833	0,1	-0,052122
0,652500	0,1	-0,048749
0,654167	0,1	-0,066694
0,655833	0,1	-0,051899
0,657500	0,1	-0,024806
0,659167	0,1	-0,079274
0,660833	0,1	-0,072097
0,662500	0,1	-0,048217
0,664167	0,1	-0,033269
0,665833	0,1	-0,030945
0,667500	0,1	-0,086351
0,669167	0,1	-0,045303
0,670833	0,1	-0,053573
0,672500	0,1	-0,040224
0,674167	0,1	-0,051048
0,675833	0,1	-0,044696
0,677500	0,1	-0,027345
0,679167	0,1	-0,050695
0,680833	0,1	-0,041092
0,682500	0,1	-0,048025
0,684167	0,1	-0,028048
0,685833	0,1	-0,050026
0,687500	0,1	-0,047051
0,689167	0,1	-0,018881
0,690833	0,1	-0,009126
0,692500	0,1	-0,004694
0,694167	0,1	-0,039095
0,695833	0,1	-0,070314
0,697500	0,1	-0,059580
0,699167	0,1	-0,049604
0,700833	0,1	-0,044530
0,702500	0,1	-0,022484
0,704167	0,1	-0,040198
0,705833	0,1	-0,013483
0,707500	0,1	-0,032577
0,709167	0,1	-0,077045
0,710833	0,1	-0,025120
0,712500	0,1	-0,058701
0,714167	0,1	-0,030232
0,715833	0,1	-0,031174
0,717500	0,1	-0,045809
0,719167	0,1	-0,038359
0,720833	0,1	-0,008489
0,722500	0,1	-0,066485
0,724167	0,1	-0,028079
0,725833	0,1	-0,065406
0,727500	0,1	-0,009532
0,729167	0,1	-0,037628
0,730833	0,1	-0,061040
0,732500	0,1	-0,001350
0,734167	0,1	0,006567
0,735833	0,1	-0,040394
0,737500	0,1	-0,028821
0,739167	0,1	-0,024635
0,740833	0,1	-0,037862
0,742500	0,1	-0,074329
0,744167	0,1	-0,046004
0,745833	0,1	-0,053800
0,747500	0,1	-0,032752
0,749167	0,1	-0,069714
0,750833	0,1	-0,029302
0,752500	0,1	-0,030452
0,754167	0,1	-0,011449
0,755833	0,1	-0,048659
0,757500	0,1	-0,052229
0,759167	0,1	-0,033228
0,760833	0,1	0,008237
0,762500	0,1	-0,042864
0,764167	0,1	-0,051813
0,765833	0,1	0,002766
0,767500	0,1	-0,006949
0,769167	0,1	-0,012228
0,770833	0,1	0,000666
0,772500	0,1	-0,006827
0,774167	0,1	-0,022273
0,775833	0,1	-0,017144
0,777500	0,1	-0,024052
0,779167	0,1	-0,008671
0,780833	0,1	-0,003060
0,782500	0,1	0,018926
0,784167	0,1	-0,003510
0,785833	0,1	-0,013905
0,787500	0,1	-0,044337
0,789167	0,1	-0,039914
0,790833	0,1	-0,032337
0,792500	0,1	-0,027264
0,794167	0,1	-0,037098
0,795833	0,1	-0,017682
0,797500	0,1	-0,049056
0,799167	0,1	-0,039581
0,800833	0,1	-0,013827
0,802500	0,1	-0,040733
0,804167	0,1	-0,060734
0,805833	0,1	-0,018226
0,807500	0,1	0,004453
0,809167	0,1	-0,032511
0,810833	0,1	-0,016891
0,812500	0,1	-0,017986
0,814167	0,1	-0,031444
0,815833	0,1	-0,060793
0,817500	0,1	0,001254
0,819167	0,1	0,016755
0,820833	0,1	-0,007941
0,822500	0,1	-0,002357
0,824167	0,1	0,007541
0,825833	0,1	0,005515
0,827500	0,1	-0,019140
0,829167	0,1	-0,014198
0,830833	0,1	0,014782
0,832500	0,1	-0,004609
0,834167	0,1	-0,032222
0,835833	0,1	-0,032361
0,837500	0,1	-0,034506
0,839167	0,1	-0,023810
0,840833	0,1	-0,023930
0,842500	0,1	-0,016334
0,844167	0,1	0,006686
0,845833	0,1	-0,012328
0,847500	0,1	-0,002173
0,849167	0,1	0,015303
0,850833	0,1	-0,012265
0,852500	0,1	-0,012896
0,854167	0,1	-0,025914
0,855833	0,1	-0,003415
0,857500	0,1	-0,033258
0,859167	0,1	-0,009376
0,860833	0,1	-0,004201
0,862500	0,1	-0,027730
0,864167	0,1	-0,021653
0,865833	0,1	-0,031672
0,867500	0,1	0,033160
0,869167	0,1	-0,021269
0,870833	0,1	-0,014594
0,872500	0,1	-0,031029
0,874167	0,1	-0,034882
0,875833	0,1	-0,006255
0,877500	0,1	0,007474
0,879167	0,1	0,007334
0,880833	0,1	-0,007696
0,882500	0,1	-0,008420
0,884167	0,1	-0,061017
0,885833	0,1	-0,015018
0,887500	0,1	0,005695
0,889167	0,1	-0,054264
0,890833	0,1	-0,022469
0,892500	0,1	-0,022478
0,894167	0,1	-0,022997
0,895833	0,1	-0,025810
0,897500	0,1	-0,007931
0,899167	0,1	-0,014072
0,900833	0,1	-0,003288
0,902500	0,1	-0,023679
0,904167	0,1	0,000349
0,905833	0,1	0,009196
0,907500	0,1	-0,018498
0,909167	0,1	0,020391
0,910833	0,1	0,030562
0,912500	0,1	-0,013791
0,914167	0,1	-0,012563
0,915833	0,1	-0,020262
0,917500	0,1	0,025401
0,919167	0,1	-0,010505
0,920833	0,1	0,006503
0,922500	0,1	-0,006141
0,924167	0,1	-0,009765
0,925833	0,1	-0,006829
0,927500	0,1	-0,021771
0,929167	0,1	-0,019270
0,930833	0,1	-0,011799
0,932500	0,1	0,005281
0,934167	0,1	-0,001754
0,935833	0,1	-0,023510
0,937500	0,1	-0,011114
0,939167	0,1	-0,005406
0,940833	0,1	-0,011462
0,942500	0,1	0,039685
0,944167	0,1	-0,018306
0,945833	0,1	0,005711
0,947500	0,1	0,030540
0,949167	0,1	-0,017851
0,950833	0,1	-0,000266
0,952500	0,1	0,019877
0,954167	0,1	0,028162
0,955833	0,1	-0,007050
0,957500	0,1	0,002093
0,959167	0,1	0,023333
0,960833	0,1	0,010171
0,962500	0,1	0,032361
0,964167	0,1	-0,003857
0,965833	0,1	0,015735
0,967500	0,1	0,004666
0,969167	0,1	0,064282
0,970833	0,1	-0,009106
0,972500	0,1	0,013081
0,974167	0,1	0,050848
0,975833	0,1	0,043612
0,977500	0,1	0,015519
0,979167	0,1	-0,024932
0,980833	0,1	0,043120
0,982500	0,1	0,033714
0,984167	0,1	-0,003753
0,985833	0,1	0,016150
0,987500	0,1	0,047537
0,989167	0,1	0,028952
0,990833	0,1	0,015286
0,992500	0,1	0,041328
0,994167	0,1	0,032327
0,995833	0,1	0,038309
0,997500	0,1	0,033860
0,999167	0,1	0,036446
1,000833	0,1	0,026550
1,002500	0,1	0,021932
1,004167	0,1	0,048739
1,005833	0,1	0,024337
1,007500	0,1	0,046773
1,009167	0,1	0,046323
1,010833	0,1	0,026200
1,012500	0,1	0,027107
1,014167	0,1	0,042096
1,015833	0,1	0,027255
1,017500	0,1	0,025553
1,019167	0,1	0,051846
1,020833	0,1	0,024134
1,022500	0,1	0,037622
1,024167	0,1	0,012038
1,025833	0,1	0,090017
1,027500	0,1	0,039916
1,029167	0,1	0,035306
1,030833	0,1	0,020916
1,032500	0,1	0,056275
1,034167	0,1	0,031171
1,035833	0,1	0,054020
1,037500	0,1	0,039845
1,039167	0,1	0,076193
1,040833	0,1	0,036722
1,042500	0,1	0,042864
1,044167	0,1	0,038515
1,045833	0,1	0,057210
1,047500	0,1	0,044294
1,049167	0,1	0,069695
1,050833	0,1	0,056658
1,052500	0,1	0,018563
1,054167	0,1	0,097472
1,055833	0,1	0,046482
1,057500	0,1	0,061681
1,059167	0,1	-0,157687
1,060833	0,1	0,065982
1,062500	0,1	0,073551
1,064167	0,1	0,097194
1,065833	0,1	0,049544
1,067500	0,1	0,056839
1,069167	0,1	0,107915
1,070833	0,1	0,098921
1,072500	0,1	0,047928
1,074167	0,1	0,087292
1,075833	0,1	0,049789
1,077500	0,1	0,092240
1,079167	0,1	0,044511
1,080833	0,1	0,031230
1,082500	0,1	0,069317
1,084167	0,1	0,038004
1,085833	0,1	0,007255
1,087500	0,1	0,099290
1,089167	0,1	0,077968
1,090833	0,1	0,069598
1,092500	0,1	0,089430
1,094167	0,1	0,103079
1,095833	0,1	0,086334
1,097500	0,1	0,048072
1,099167	0,1	0,061331
1,100833	0,1	0,073342
1,102500	0,1	0,093861
1,104167	0,1	0,071010
1,105833	0,1	0,032790
1,107500	0,1	0,098986
1,109167	0,1	0,107161
1,110833	0,1	0,079833
1,112500	0,1	0,050594
1,114167	0,1	0,101642
1,115833	0,1	0,077721
1,117500	0,1	0,030287
1,119167	0,1	0,131326
1,120833	0,1	0,093150
1,122500	0,1	0,068154
1,124167	0,1	0,089203
1,125833	0,1	0,089621
1,127500	0,1	0,093038
1,129167	0,1	0,144509
1,130833	0,1	0,111332
1,132500	0,1	0,092671
1,134167	0,1	0,122230
1,135833	0,1	0,111719
1,137500	0,1	0,110891
1,139167	0,1	0,082442
1,140833	0,1	0,104070
1,142500	0,1	0,123062
1,144167	0,1	0,097932
1,145833	0,1	0,101258
1,147500	0,1	0,069272
1,149167	0,1	0,111025
1,150833	0,1	0,097845
1,152500	0,1	0,109644
1,154167	0,1	0,086376
1,155833	0,1	0,114527
1,157500	0,1	0,115051
1,159167	0,1	0,122776
1,160833	0,1	0,086317
1,162500	0,1	0,064921
1,164167	0,1	0,092430
1,165833	0,1	0,107530
1,167500	0,1	0,096685
1,169167	0,1	0,114716
1,170833	0,1	0,129751
1,172500	0,1	0,103979
1,174167	0,1	0,114367
1,175833	0,1	0,144514
1,177500	0,1	0,104189
1,179167	0,1	0,145858
1,180833	0,1	0,080215
1,182500	0,1	0,160514
1,184167	0,1	0,112910
1,185833	0,1	0,106438
1,187500	0,1	0,082751
1,189167	0,1	0,112892
1,190833	0,1	0,132734
1,192500	0,1	0,094084
1,194167	0,1	0,135565
1,195833	0,1	0,093213
1,197500	0,1	0,125627
1,199167	0,1	0,103687
1,200833	0,1	0,104966
1,202500	0,1	0,114367
1,204167	0,1	0,154683
1,205833	0,1	0,116678
1,207500	0,1	0,094577
1,209167	0,1	0,119271
1,210833	0,1	0,085861
1,212500	0,1	0,118400
1,214167	0,1	0,091575
1,215833	0,1	0,125793
1,217500	0,1	0,123483
1,219167	0,1	0,138802
1,220833	0,1	0,160300
1,222500	0,1	0,134504
1,224167	0,1	0,130067
1,225833	0,1	0,136714
1,227500	0,1	0,137046
1,229167	0,1	0,138062
1,230833	0,1	0,108930
1,232500	0,1	0,121553
1,234167	0,1	0,145469
1,235833	0,1	0,107192
1,237500	0,1	0,108942
1,239167	0,1	0,126334
1,240833	0,1	0,124517
1,242500	0,1	0,104931
1,244167	0,1	0,135879
1,245833	0,1	0,119094
1,247500	0,1	0,116172
1,249167	0,1	0,120664
1,250833	0,1	0,117787
1,252500	0,1	0,109193
1,254167	0,1	0,161225
1,255833	0,1	0,146225
1,257500	0,1	0,137648
1,259167	0,1	0,118288
1,260833	0,1	0,149195
1,262500	0,1	0,127546
1,264167	0,1	0,160235
1,265833	0,1	0,136866
1,267500	0,1	0,114663
1,269167	0,1	0,152115
1,270833	0,1	0,151090
1,272500	0,1	0,146243
1,274167	0,1	0,117171
1,275833	0,1	0,164936
1,277500	0,1	0,147366
1,279167	0,1	0,126573
1,280833	0,1	0,135593
1,282500	0,1	0,147752
1,284167	0,1	0,153633
1,285833	0,1	0,129846
1,287500	0,1	0,121142
1,289167	0,1	0,100332
1,290833	0,1	0,147515
1,292500	0,1	0,139885
1,294167	0,1	0,129344
1,295833	0,1	0,143525
1,297500	0,1	0,156449
1,299167	0,1	0,130384
1,300833	0,1	0,134952
1,302500	0,1	0,136653
1,304167	0,1	0,151978
1,305833	0,1	0,153117
1,307500	0,1	0,174012
1,309167	0,1	0,172192
1,310833	0,1	0,128026
1,312500	0,1	0,182577
1,314167	0,1	0,121839
1,315833	0,1	0,166732
1,317500	0,1	0,170806
1,319167	0,1	0,135211
1,320833	0,1	0,169140
1,322500	0,1	0,136661
1,324167	0,1	0,160715
1,325833	0,1	0,161526
1,327500	0,1	0,129268
1,329167	0,1	0,176512
1,330833	0,1	0,182425
1,332500	0,1	0,155715
1,334167	0,1	0,143718
1,335833	0,1	0,155893
1,337500	0,1	0,155415
1,339167	0,1	0,172399
1,340833	0,1	0,150204
1,342500	0,1	0,158751
1,344167	0,1	0,150613
1,345833	0,1	0,193787
1,347500	0,1	0,167249
1,349167	0,1	0,181452
1,350833	0,1	0,159709
1,352500	0,1	0,157137
1,354167	0,1	0,124689
1,355833	0,1	0,174998
1,357500	0,1	0,144529
1,359167	0,1	0,126137
1,360833	0,1	0,181379
1,362500	0,1	0,174620
1,364167	0,1	0,196711
1,365833	0,1	0,183777
1,367500	0,1	0,140848
1,369167	0,1	0,163322
1,370833	0,1	0,182297
1,372500	0,1	0,162090
1,374167	0,1	0,170701
1,375833	0,1	0,159876
1,377500	0,1	0,180284
1,379167	0,1	0,184328
1,380833	0,1	0,182427
1,382500	0,1	0,175945
1,384167	0,1	0,159521
1,385833	0,1	0,169809
1,387500	0,1	0,136557
1,389167	0,1	0,151086
1,390833	0,1	0,159435
1,392500	0,1	0,148750
1,394167	0,1	0,196830
1,395833	0,1	0,153253
1,397500	0,1	0,207165
1,399167	0,1	0,173859
1,400833	0,1	0,195514
1,402500	0,1	0,173255
1,404167	0,1	0,178948
1,405833	0,1	0,194498
1,407500	0,1	0,174584
1,409167	0,1	0,167331
1,410833	0,1	0,188222
1,412500	0,1	0,184125
1,414167	0,1	0,189902
1,415833	0,1	0,193859
1,417500	0,1	0,216767
1,419167	0,1	0,174566
1,420833	0,1	0,191725
1,422500	0,1	0,185826
1,424167	0,1	0,151098
1,425833	0,1	0,184054
1,427500	0,1	0,204667
1,429167	0,1	0,179181
1,430833	0,1	0,201598
1,432500	0,1	0,228175
1,434167	0,1	0,202526
1,435833	0,1	0,188435
1,437500	0,1	0,194522
1,439167	0,1	0,208171
1,440833	0,1	0,210867
1,442500	0,1	0,169078
1,444167	0,1	0,186814
1,445833	0,1	0,213947
1,447500	0,1	0,171480
1,449167	0,1	0,175134
1,450833	0,1	0,203507
1,452500	0,1	0,168229
1,454167	0,1	0,171282
1,455833	0,1	0,155341
1,457500	0,1	0,182896
1,459167	0,1	0,182677
1,460833	0,1	0,184586
1,462500	0,1	0,187438
1,464167	0,1	0,194296
1,465833	0,1	0,199825
1,467500	0,1	0,223994
1,469167	0,1	0,235117
1,470833	0,1	0,218412
1,472500	0,1	0,224452
1,474167	0,1	0,237397
1,475833	0,1	0,229039
1,477500	0,1	0,212069
1,479167	0,1	0,207180
1,480833	0,1	0,254148
1,482500	0,1	0,210299
1,484167	0,1	0,193142
1,485833	0,1	0,215333
1,487500	0,1	0,204449
1,489167	0,1	0,219955
1,490833	0,1	0,219921
1,492500	0,1	0,206665
1,494167	0,1	0,216457
1,495833	0,1	0,223544
1,497500	0,1	0,230294
1,499167	0,1	0,213604
1,500833	0,1	0,193535
1,502500	0,1	0,216579
1,504167	0,1	0,244417
1,505833	0,1	0,206091
1,507500	0,1	0,224324
1,509167	0,1	0,198282
1,510833	0,1	0,214654
1,512500	0,1	0,204221
1,514167	0,1	0,204923
1,515833	0,1	0,197594
1,517500	0,1	0,222750
1,519167	0,1	0,217454
1,520833	0,1	0,202812
1,522500	0,1	0,257004
1,524167	0,1	0,197977
1,525833	0,1	0,206637
1,527500	0,1	0,191050
1,529167	0,1	0,218442
1,530833	0,1	0,239610
1,532500	0,1	0,189485
1,534167	0,1	0,241366
1,535833	0,1	0,222908
1,537500	0,1	0,178443
1,539167	0,1	0,235545
1,540833	0,1	0,229884
1,542500	0,1	0,233820
1,544167	0,1	0,224847
1,545833	0,1	0,216953
1,547500	0,1	0,242163
1,549167	0,1	0,237980
1,550833	0,1	0,219158
1,552500	0,1	0,248396
1,554167	0,1	0,262316
1,555833	0,1	0,224588
1,557500	0,1	0,230320
1,559167	0,1	0,236967
1,560833	0,1	0,240947
1,562500	0,1	0,228210
1,564167	0,1	0,252125
1,565833	0,1	0,196651
1,567500	0,1	0,272726
1,569167	0,1	0,229955
1,570833	0,1	0,216751
1,572500	0,1	0,236776
1,574167	0,1	0,230925
1,575833	0,1	0,225160
1,577500	0,1	0,217683
1,579167	0,1	0,190223
1,580833	0,1	0,266304
1,582500	0,1	0,212682
1,584167	0,1	0,251228
1,585833	0,1	0,256108
1,587500	0,1	0,228918
1,589167	0,1	0,265648
1,590833	0,1	0,266159
1,592500	0,1	0,257019
1,594167	0,1	0,242878
1,595833	0,1	0,236203
1,597500	0,1	0,227213
1,599167	0,1	0,239926
1,600833	0,1	0,238379
1,602500	0,1	0,225375
1,604167	0,1	0,237671
1,605833	0,1	0,263810
1,607500	0,1	0,261099
1,609167	0,1	0,230351
1,610833	0,1	0,242104
1,612500	0,1	0,261431
1,614167	0,1	0,264458
1,615833	0,1	0,269118
1,617500	0,1	0,247249
1,619167	0,1	0,213075
1,620833	0,1	0,266700
1,622500	0,1	0,268602
1,624167	0,1	0,279806
1,625833	0,1	0,244433
1,627500	0,1	0,232579
1,629167	0,1	0,289618
1,630833	0,1	0,263131
1,632500	0,1	0,234986
1,634167	0,1	0,232146
1,635833	0,1	0,267435
1,637500	0,1	0,258555
1,639167	0,1	0,286642
1,640833	0,1	0,231885
1,642500	0,1	0,284809
1,644167	0,1	0,290249
1,645833	0,1	0,301619
1,647500	0,1	0,258386
1,649167	0,1	0,248203
1,650833	0,1	0,239993
1,652500	0,1	0,269854
1,654167	0,1	0,264725
1,655833	0,1	0,265077
1,657500	0,1	0,272769
1,659167	0,1	0,289793
1,660833	0,1	0,295387
1,662500	0,1	0,275156
1,664167	0,1	0,273364
1,665833	0,1	0,267257
1,667500	0,1	0,276910
1,669167	0,1	0,242757
1,670833	0,1	0,262464
1,672500	0,1	0,296299
1,674167	0,1	0,300223
1,675833	0,1	0,282055
1,677500	0,1	0,289669
1,679167	0,1	0,265712
1,680833	0,1	0,272832
1,682500	0,1	0,262825
1,684167	0,1	0,271736
1,685833	0,1	0,287386
1,687500	0,1	0,275670
1,689167	0,1	0,291141
1,690833	0,1	0,275029
1,692500	0,1	0,283849
1,694167	0,1	0,278426
1,695833	0,1	0,314206
1,697500	0,1	0,267316
1,699167	0,1	0,299195
1,700833	0,1	0,260577
1,702500	0,1	0,274568
1,704167	0,1	0,293418
1,705833	0,1	0,328741
1,707500	0,1	0,278663
1,709167	0,1	0,267132
1,710833	0,1	0,278234
1,712500	0,1	0,259351
1,714167	0,1	0,267025
1,715833	0,1	0,262784
1,717500	0,1	0,343541
1,719167	0,1	0,267777
1,720833	0,1	0,281921
1,722500	0,1	0,324632
1,724167	0,1	0,322401
1,725833	0,1	0,341113
1,727500	0,1	0,348635
1,729167	0,1	0,320760
1,730833	0,1	0,283407
1,732500	0,1	0,315505
1,734167	0,1	0,298502
1,735833	0,1	0,274501
1,737500	0,1	0,299197
1,739167	0,1	0,307389
1,740833	0,1	0,261158
1,742500	0,1	0,341362
1,744167	0,1	0,287807
1,745833	0,1	0,319145
1,747500	0,1	0,310541
1,749167	0,1	0,329387
1,750833	0,1	0,295900
1,752500	0,1	0,306872
1,754167	0,1	0,254886
1,755833	0,1	0,297746
1,757500	0,1	0,301192
1,759167	0,1	0,334585
1,760833	0,1	0,344552
1,762500	0,1	0,328237
1,764167	0,1	0,314633
1,765833	0,1	0,332437
1,767500	0,1	0,291406
1,769167	0,1	0,306907
1,770833	0,1	0,319591
1,772500	0,1	0,308651
1,774167	0,1	0,345188
1,775833	0,1	0,331195
1,777500	0,1	0,340109
1,779167	0,1	0,333247
1,780833	0,1	0,360987
1,782500	0,1	0,301459
1,784167	0,1	0,323053
1,785833	0,1	0,349950
1,787500	0,1	0,338099
1,789167	0,1	0,372070
1,790833	0,1	0,322212
1,792500	0,1	0,334176
1,794167	0,1	0,327378
1,795833	0,1	0,347056
1,797500	0,1	0,370497
1,799167	0,1	0,312894
1,800833	0,1	0,330899
1,802500	0,1	0,339884
1,804167	0,1	0,391562
1,805833	0,1	0,346268
1,807500	0,1	0,362755
1,809167	0,1	0,367742
1,810833	0,1	0,352067
1,812500	0,1	0,339293
1,814167	0,1	0,372133
1,815833	0,1	0,300015
1,817500	0,1	0,342228
1,819167	0,1	0,333121
1,820833	0,1	0,338726
1,822500	0,1	0,345259
1,824167	0,1	0,375055
1,825833	0,1	0,362851
1,827500	0,1	0,349044
1,829167	0,1	0,390436
1,830833	0,1	0,356027
1,832500	0,1	0,379718
1,834167	0,1	0,371890
1,835833	0,1	0,380816
1,837500	0,1	0,344338
1,839167	0,1	0,351836
1,840833	0,1	0,386491
1,842500	0,1	0,375673
1,844167	0,1	0,337010
1,845833	0,1	0,344897
1,847500	0,1	0,335655
1,849167	0,1	0,383051
1,850833	0,1	0,352488
1,852500	0,1	0,349821
1,854167	0,1	0,359833
1,855833	0,1	0,348917
1,857500	0,1	0,381199
1,859167	0,1	0,374966
1,860833	0,1	0,399767
1,862500	0,1	0,369162
1,864167	0,1	0,376092
1,865833	0,1	0,393625
1,867500	0,1	0,357059
1,869167	0,1	0,356687
1,870833	0,1	0,389613
1,872500	0,1	0,376350
1,874167	0,1	0,380808
1,875833	0,1	0,370669
1,877500	0,1	0,367861
1,879167	0,1	0,408847
1,880833	0,1	0,384062
1,882500	0,1	0,398731
1,884167	0,1	0,416591
1,885833	0,1	0,353689
1,887500	0,1	0,370979
1,889167	0,1	0,381231
1,890833	0,1	0,390840
1,892500	0,1	0,431460
1,894167	0,1	0,402540
1,895833	0,1	0,373940
1,897500	0,1	0,400536
1,899167	0,1	0,399728
1,900833	0,1	0,360072
1,902500	0,1	0,394871
1,904167	0,1	0,376769
1,905833	0,1	0,395390
1,907500	0,1	0,395784
1,909167	0,1	0,388013
1,910833	0,1	0,398314
1,912500	0,1	0,394563
1,914167	0,1	0,376317
1,915833	0,1	0,387519
1,917500	0,1	0,423336
1,919167	0,1	0,393636
1,920833	0,1	0,370156
1,922500	0,1	0,395614
1,924167	0,1	0,417882
1,925833	0,1	0,412996
1,927500	0,1	0,395407
1,929167	0,1	0,352564
1,930833	0,1	0,419762
1,932500	0,1	0,391193
1,934167	0,1	0,429443
1,935833	0,1	0,435069
1,937500	0,1	0,392418
1,939167	0,1	0,394913
1,940833	0,1	0,409559
1,942500	0,1	0,424048
1,944167	0,1	0,442197
1,945833	0,1	0,420744
1,947500	0,1	0,437539
1,949167	0,1	0,384386
1,950833	0,1	0,411095
1,952500	0,1	0,465928
1,954167	0,1	0,394225
1,955833	0,1	0,418842
1,957500	0,1	0,427740
1,959167	0,1	0,416632
1,960833	0,1	0,437762
1,962500	0,1	0,420877
1,964167	0,1	0,418651
1,965833	0,1	0,443320
1,967500	0,1	0,422417
1,969167	0,1	0,443093
1,970833	0,1	0,400452
1,972500	0,1	0,399123
1,974167	0,1	0,436376
1,975833	0,1	0,427456
1,977500	0,1	0,432981
1,979167	0,1	0,428034
1,980833	0,1	0,408376
1,982500	0,1	0,396746
1,984167	0,1	0,420027
1,985833	0,1	0,420929
1,987500	0,1	0,419588
1,989167	0,1	0,423083
1,990833	0,1	0,440878
1,992500	0,1	0,411717
1,994167	0,1	0,445309
1,995833	0,1	0,377965
1,997500	0,1	0,410036
1,999167	0,1	0,435864
2,000833	0,1	0,470654
2,002500	0,1	0,421232
2,004167	0,1	0,444441
2,005833	0,1	0,441011
2,007500	0,1	0,421931
2,009167	0,1	0,427162
2,010833	0,1	0,416505
2,012500	0,1	0,426040
2,014167	0,1	0,423563
2,015833	0,1	0,435994
2,017500	0,1	0,441721
2,019167	0,1	0,456715
2,020833	0,1	0,472617
2,022500	0,1	0,447666
2,024167	0,1	0,451132
2,025833	0,1	0,410308
2,027500	0,1	0,435701
2,029167	0,1	0,465551
2,030833	0,1	0,451582
2,032500	0,1	0,455723
2,034167	0,1	0,440308
2,035833	0,1	0,401799
2,037500	0,1	0,436474
2,039167	0,1	0,392735
2,040833	0,1	0,426740
2,042500	0,1	0,418489
2,044167	0,1	0,414796
2,045833	0,1	0,418556
2,047500	0,1	0,455557
2,049167	0,1	0,443616
2,050833	0,1	0,459609
2,052500	0,1	0,431055
2,054167	0,1	0,422698
2,055833	0,1	0,450159
2,057500	0,1	0,444160
2,059167	0,1	0,427168
2,060833	0,1	0,446625
2,062500	0,1	0,435682
2,064167	0,1	0,426496
2,065833	0,1	0,413865
2,067500	0,1	0,444249
2,069167	0,1	0,442874
2,070833	0,1	0,459412
2,072500	0,1	0,397046
2,074167	0,1	0,407345
2,075833	0,1	0,430655
2,077500	0,1	0,469532
2,079167	0,1	0,423644
2,080833	0,1	0,405353
2,082500	0,1	0,428670
2,084167	0,1	0,444958
2,085833	0,1	0,429964
2,087500	0,1	0,417432
2,089167	0,1	0,446531
2,090833	0,1	0,459031
2,092500	0,1	0,383009
2,094167	0,1	0,450504
2,095833	0,1	0,458968
2,097500	0,1	0,423444
2,099167	0,1	0,427199
2,100833	0,1	0,438210
2,102500	0,1	0,415795
2,104167	0,1	0,434581
2,105833	0,1	0,415054
2,107500	0,1	0,435032
2,109167	0,1	0,435064
2,110833	0,1	0,420354
2,112500	0,1	0,426964
2,114167	0,1	0,441873
2,115833	0,1	0,410171
2,117500	0,1	0,413028
2,119167	0,1	0,405612
2,120833	0,1	0,461590
2,122500	0,1	0,434110
2,124167	0,1	0,434458
2,125833	0,1	0,435967
2,127500	0,1	0,416276
2,129167	0,1	0,414442
2,130833	0,1	0,427415
2,132500	0,1	0,420105
2,134167	0,1	0,413703
2,135833	0,1	0,432426
2,137500	0,1	0,416372
2,139167	0,1	0,438562
2,140833	0,1	0,424527
2,142500	0,1	0,412128
2,144167	0,1	0,450417
2,145833	0,1	0,445160
2,147500	0,1	0,424408
2,149167	0,1	0,421157
2,150833	0,1	0,410271
2,152500	0,1	0,457159
2,154167	0,1	0,450719
2,155833	0,1	0,457105
2,157500	0,1	0,415702
2,159167	0,1	0,405513
2,160833	0,1	0,428416
2,162500	0,1	0,437505
2,164167	0,1	0,436038
2,165833	0,1	0,410756
2,167500	0,1	0,458092
2,169167	0,1	0,397879
2,170833	0,1	0,412510
2,172500	0,1	0,401822
2,174167	0,1	0,391027
2,175833	0,1	0,433896
2,177500	0,1	0,446950
2,179167	0,1	0,450265
2,180833	0,1	0,428454
2,182500	0,1	0,398966
2,184167	0,1	0,422851
2,185833	0,1	0,400313
2,187500	0,1	0,411996
2,189167	0,1	0,446303
2,190833	0,1	0,447659
2,192500	0,1	0,430704
2,194167	0,1	0,391576
2,195833	0,1	0,383868
2,197500	0,1	0,440775
2,199167	0,1	0,413651
2,200833	0,1	0,426293
2,202500	0,1	0,426140
2,204167	0,1	0,418200
2,205833	0,1	0,468341
2,207500	0,1	0,419883
2,209167	0,1	0,415600
2,210833	0,1	0,411203
2,212500	0,1	0,408887
2,214167	0,1	0,376320
2,215833	0,1	0,422049
2,217500	0,1	0,404230
2,219167	0,1	0,408214
2,220833	0,1	0,440330
2,222500	0,1	0,390873
2,224167	0,1	0,465089
2,225833	0,1	0,397563
2,227500	0,1	0,414220
2,229167	0,1	0,417301
2,230833	0,1	0,417690
2,232500	0,1	0,406544
2,234167	0,1	0,388278
2,235833	0,1	0,406114
2,237500	0,1	0,436927
2,239167	0,1	0,422161
2,240833	0,1	0,366753
2,242500	0,1	0,405284
2,244167	0,1	0,412321
2,245833	0,1	0,379478
2,247500	0,1	0,378177
2,249167	0,1	0,425352
2,250833	0,1	0,395474
2,252500	0,1	0,398416
2,254167	0,1	0,432683
2,255833	0,1	0,384549
2,257500	0,1	0,371012
2,259167	0,1	0,376827
2,260833	0,1	0,413121
2,262500	0,1	0,381232
2,264167	0,1	0,400366
2,265833	0,1	0,381520
2,267500	0,1	0,358113
2,269167	0,1	0,391495
2,270833	0,1	0,407497
2,272500	0,1	0,383385
2,274167	0,1	0,404482
2,275833	0,1	0,363383
2,277500	0,1	0,374671
2,279167	0,1	0,440352
2,280833	0,1	0,401149
2,282500	0,1	0,430172
2,284167	0,1	0,369333
2,285833	0,1	0,377106
2,287500	0,1	0,377280
2,289167	0,1	0,381223
2,290833	0,1	0,367420
2,292500	0,1	0,388159
2,294167	0,1	0,421825
2,295833	0,1	0,396361
2,297500	0,1	0,367905
2,299167	0,1	0,392050
2,300833	0,1	0,393755
2,302500	0,1	0,393277
2,304167	0,1	0,351902
2,305833	0,1	0,374190
2,307500	0,1	0,379975
2,309167	0,1	0,368353
2,310833	0,1	0,381737
2,312500	0,1	0,371726
2,314167	0,1	0,350938
2,315833	0,1	0,377300
2,317500	0,1	0,374965
2,319167	0,1	0,388524
2,320833	0,1	0,340035
2,322500	0,1	0,350478
2,324167	0,1	0,451144
2,325833	0,1	0,373635
2,327500	0,1	0,387104
2,329167	0,1	0,330553
2,330833	0,1	0,372068
2,332500	0,1	0,368757
2,334167	0,1	0,388929
2,335833	0,1	0,401372
2,337500	0,1	0,330142
2,339167	0,1	0,334139
2,340833	0,1	0,380862
2,342500	0,1	0,346670
2,344167	0,1	0,347468
2,345833	0,1	0,357165
2,347500	0,1	0,329236
2,349167	0,1	0,352836
2,350833	0,1	0,360729
2,352500	0,1	0,375802
2,354167	0,1	0,385891
2,355833	0,1	0,363631
2,357500	0,1	0,336337
2,359167	0,1	0,363945
2,360833	0,1	0,348640
2,362500	0,1	0,332256
2,364167	0,1	0,363204
2,365833	0,1	0,332347
2,367500	0,1	0,347110
2,369167	0,1	0,354504
2,370833	0,1	0,312374
2,372500	0,1	0,361336
2,374167	0,1	0,327978
2,375833	0,1	0,371261
2,377500	0,1	0,344968
2,379167	0,1	0,338249
2,380833	0,1	0,343433
2,382500	0,1	0,350678
2,384167	0,1	0,353021
2,385833	0,1	0,335531
2,387500	0,1	0,342411
2,389167	0,1	0,341624
2,390833	0,1	0,318604
2,392500	0,1	0,351539
2,394167	0,1	0,319311
2,395833	0,1	0,290470
2,397500	0,1	0,324146
2,399167	0,1	0,326948
2,400833	0,1	0,325348
2,402500	0,1	0,330222
2,404167	0,1	0,283145
2,405833	0,1	0,349579
2,407500	0,1	0,338225
2,409167	0,1	0,332769
2,410833	0,1	0,330325
2,412500	0,1	0,352033
2,414167	0,1	0,306759
2,415833	0,1	0,300540
2,417500	0,1	0,343098
2,419167	0,1	0,358331
2,420833	0,1	0,317765
2,422500	0,1	0,326079
2,424167	0,1	0,307017
2,425833	0,1	0,335393
2,427500	0,1	0,322746
2,429167	0,1	0,288670
2,430833	0,1	0,308745
2,432500	0,1	0,310185
2,434167	0,1	0,325372
2,435833	0,1	0,334429
2,437500	0,1	0,310506
2,439167	0,1	0,347532
2,440833	0,1	0,341860
2,442500	0,1	0,309841
2,444167	0,1	0,264809
2,445833	0,1	0,310969
2,447500	0,1	0,309090
2,449167	0,1	0,295958
2,450833	0,1	0,333780
2,452500	0,1	0,287590
2,454167	0,1	0,289280
2,455833	0,1	0,319008
2,457500	0,1	0,282576
2,459167	0,1	0,286860
2,460833	0,1	0,304301
2,462500	0,1	0,327171
2,464167	0,1	0,270944
2,465833	0,1	0,309470
2,467500	0,1	0,300328
2,469167	0,1	0,303245
2,470833	0,1	0,294031
2,472500	0,1	0,318946
2,474167	0,1	0,328006
2,475833	0,1	0,304965
2,477500	0,1	0,271643
2,479167	0,1	0,285738
2,480833	0,1	0,262851
2,482500	0,1	0,297748
2,484167	0,1	0,267223
2,485833	0,1	0,283910
2,487500	0,1	0,286900
2,489167	0,1	0,298558
2,490833	0,1	0,272800
2,492500	0,1	0,295308
2,494167	0,1	0,236491
2,495833	0,1	0,304514
2,497500	0,1	0,265778
2,499167	0,1	0,293152
2,500833	0,1	0,288537
2,502500	0,1	0,281800
2,504167	0,1	0,292804
2,505833	0,1	0,250842
2,507500	0,1	0,290820
2,509167	0,1	0,285200
2,510833	0,1	0,272069
2,512500	0,1	0,266826
2,514167	0,1	0,286379
2,515833	0,1	0,234914
2,517500	0,1	0,276902
2,519167	0,1	0,256971
2,520833	0,1	0,274365
2,522500	0,1	0,251228
2,524167	0,1	0,256713
2,525833	0,1	0,232442
2,527500	0,1	0,250311
2,529167	0,1	0,242939
2,530833	0,1	0,277774
2,532500	0,1	0,248347
2,534167	0,1	0,249085
2,535833	0,1	0,266053
2,537500	0,1	0,252864
2,539167	0,1	0,235197
2,540833	0,1	0,227589
2,542500	0,1	0,239848
2,544167	0,1	0,250478
2,545833	0,1	0,250746
2,547500	0,1	0,271832
2,549167	0,1	0,229047
2,550833	0,1	0,256582
2,552500	0,1	0,202517
2,554167	0,1	0,245786
2,555833	0,1	0,272222
2,557500	0,1	0,261087
2,559167	0,1	0,260026
2,560833	0,1	0,251062
2,562500	0,1	0,197418
2,564167	0,1	0,266269
2,565833	0,1	0,220057
2,567500	0,1	0,231854
2,569167	0,1	0,242167
2,570833	0,1	0,230903
2,572500	0,1	0,265658
2,574167	0,1	0,229068
2,575833	0,1	0,233328
2,577500	0,1	0,240883
2,579167	0,1	0,250202
2,580833	0,1	0,205309
2,582500	0,1	0,210122
2,584167	0,1	0,225885
2,585833	0,1	0,278677
2,587500	0,1	0,213161
2,589167	0,1	0,238664
2,590833	0,1	0,238191
2,592500	0,1	0,223308
2,594167	0,1	0,217150
2,595833	0,1	0,264159
2,597500	0,1	0,229584
2,599167	0,1	0,235292
2,600833	0,1	0,190768
2,602500	0,1	0,174667
2,604167	0,1	0,229806
2,605833	0,1	0,206275
2,607500	0,1	0,246278
2,609167	0,1	0,226661
2,610833	0,1	0,226819
2,612500	0,1	0,227251
2,614167	0,1	0,189670
2,615833	0,1	0,192887
2,617500	0,1	0,178873
2,619167	0,1	0,206514
2,620833	0,1	0,213043
2,622500	0,1	0,171400
2,624167	0,1	0,186735
2,625833	0,1	0,197693
2,627500	0,1	0,203849
2,629167	0,1	0,208345
2,630833	0,1	0,195068
2,632500	0,1	0,228612
2,634167	0,1	0,197616
2,635833	0,1	0,174356
2,637500	0,1	0,202968
2,639167	0,1	0,219212
2,640833	0,1	0,246595
2,642500	0,1	0,148009
2,644167	0,1	0,180951
2,645833	0,1	0,229690
2,647500	0,1	0,154175
2,649167	0,1	0,215787
2,650833	0,1	0,207268
2,652500	0,1	0,225117
2,654167	0,1	0,197640
2,655833	0,1	0,196717
2,657500	0,1	0,212625
2,659167	0,1	0,190825
2,660833	0,1	0,191212
2,662500	0,1	0,202643
2,664167	0,1	0,187300
2,665833	0,1	0,225566
2,667500	0,1	0,163780
2,669167	0,1	0,178161
2,670833	0,1	0,202123
2,672500	0,1	0,176245
2,674167	0,1	0,198646
2,675833	0,1	0,165102
2,677500	0,1	0,180973
2,679167	0,1	0,153789
2,680833	0,1	0,216116
2,682500	0,1	0,218057
2,684167	0,1	0,197739
2,685833	0,1	0,180567
2,687500	0,1	0,178949
2,689167	0,1	0,179033
2,690833	0,1	0,180875
2,692500	0,1	0,184068
2,694167	0,1	0,171434
2,695833	0,1	0,160477
2,697500	0,1	0,114318
2,699167	0,1	0,173444
2,700833	0,1	0,116309
2,702500	0,1	0,197676
2,704167	0,1	0,185061
2,705833	0,1	0,138634
2,707500	0,1	0,170327
2,709167	0,1	0,178326
2,710833	0,1	0,105667
2,712500	0,1	0,147209
2,714167	0,1	0,162955
2,715833	0,1	0,147118
2,717500	0,1	0,138356
2,719167	0,1	0,170656
2,720833	0,1	0,160700
2,722500	0,1	0,205241
2,724167	0,1	0,160815
2,725833	0,1	0,141091
2,727500	0,1	0,113590
2,729167	0,1	0,109627
2,730833	0,1	0,149031
2,732500	0,1	0,187388
2,734167	0,1	0,160231
2,735833	0,1	0,106782
2,737500	0,1	0,173279
2,739167	0,1	0,144533
2,740833	0,1	0,149183
2,742500	0,1	0,163928
2,744167	0,1	0,163227
2,745833	0,1	0,187103
2,747500	0,1	0,180398
2,749167	0,1	0,127763
2,750833	0,1	0,134396
2,752500	0,1	0,129138
2,754167	0,1	0,152038
2,755833	0,1	0,156225
2,757500	0,1	0,148089
2,759167	0,1	0,128250
2,760833	0,1	0,132575
2,762500	0,1	0,080811
2,764167	0,1	0,120469
2,765833	0,1	0,165350
2,767500	0,1	0,126371
2,769167	0,1	0,109590
2,770833	0,1	0,128241
2,772500	0,1	0,126569
2,774167	0,1	0,133049
2,775833	0,1	0,117295
2,777500	0,1	0,162657
2,779167	0,1	0,136411
2,780833	0,1	0,136179
2,782500	0,1	0,121871
2,784167	0,1	0,074681
2,785833	0,1	0,119992
2,787500	0,1	0,144416
2,789167	0,1	0,121064
2,790833	0,1	0,114764
2,792500	0,1	0,122301
2,794167	0,1	0,075655
2,795833	0,1	0,109392
2,797500	0,1	0,107390
2,799167	0,1	0,118654
2,800833	0,1	0,129942
2,802500	0,1	0,114766
2,804167	0,1	0,139134
2,805833	0,1	0,103961
2,807500	0,1	0,089501
2,809167	0,1	0,107159
2,810833	0,1	0,100620
2,812500	0,1	0,089271
2,814167	0,1	0,091007
2,815833	0,1	0,080118
2,817500	0,1	0,113097
2,819167	0,1	0,135737
2,820833	0,1	0,106423
2,822500	0,1	0,097141
2,824167	0,1	0,136913
2,825833	0,1	0,079943
2,827500	0,1	0,080075
2,829167	0,1	0,093553
2,830833	0,1	0,101259
2,832500	0,1	0,069603
2,834167	0,1	0,083468
2,835833	0,1	0,095418
2,837500	0,1	0,083142
2,839167	0,1	0,147510
2,840833	0,1	0,046425
2,842500	0,1	0,135266
2,844167	0,1	0,142057
2,845833	0,1	0,104728
2,847500	0,1	0,093352
2,849167	0,1	0,108918
2,850833	0,1	0,121988
2,852500	0,1	0,066440
2,854167	0,1	0,100672
2,855833	0,1	0,085856
2,857500	0,1	0,099930
2,859167	0,1	0,075172
2,860833	0,1	0,105561
2,862500	0,1	0,122711
2,864167	0,1	0,081574
2,865833	0,1	0,084485
2,867500	0,1	0,071751
2,869167	0,1	0,075828
2,870833	0,1	0,078356
2,872500	0,1	0,120033
2,874167	0,1	0,075198
2,875833	0,1	0,083054
2,877500	0,1	0,105189
2,879167	0,1	0,050806
2,880833	0,1	0,117397
2,882500	0,1	0,075529
2,884167	0,1	0,070757
2,885833	0,1	0,101377
2,887500	0,1	0,082666
2,889167	0,1	0,077797
2,890833	0,1	0,074525
2,892500	0,1	0,097651
2,894167	0,1	0,079375
2,895833	0,1	0,059909
2,897500	0,1	0,094004
2,899167	0,1	0,068173
2,900833	0,1	0,077400
2,902500	0,1	0,088998
2,904167	0,1	0,041650
2,905833	0,1	0,047520
2,907500	0,1	0,073730
2,909167	0,1	0,107424
2,910833	0,1	0,050227
2,912500	0,1	0,078784
2,914167	0,1	0,069226
2,915833	0,1	0,074110
2,917500	0,1	0,098687
2,919167	0,1	0,084324
2,920833	0,1	0,063513
2,922500	0,1	0,063013
2,924167	0,1	0,097440
2,925833	0,1	0,054593
2,927500	0,1	0,049055
2,929167	0,1	0,098141
2,930833	0,1	0,062999
2,932500	0,1	0,035061
2,934167	0,1	0,049258
2,935833	0,1	0,035723
2,937500	0,1	0,068407
2,939167	0,1	0,102452
2,940833	0,1	0,014971
2,942500	0,1	0,048550
2,944167	0,1	0,049860
2,945833	0,1	0,065492
2,947500	0,1	0,029822
2,949167	0,1	0,068325
2,950833	0,1	0,034421
2,952500	0,1	0,071429
2,954167	0,1	0,004240
2,955833	0,1	0,045295
2,957500	0,1	0,037480
2,959167	0,1	0,027852
2,960833	0,1	0,063270
2,962500	0,1	0,050111
2,964167	0,1	0,059074
2,965833	0,1	0,029658
2,967500	0,1	0,051205
2,969167	0,1	0,033798
2,970833	0,1	0,036028
2,972500	0,1	0,067808
2,974167	0,1	0,050816
2,975833	0,1	0,053525
2,977500	0,1	-0,013071
2,979167	0,1	0,013142
2,980833	0,1	0,050908
2,982500	0,1	0,046610
2,984167	0,1	0,028287
2,985833	0,1	0,058986
2,987500	0,1	0,079447
2,989167	0,1	0,070386
2,990833	0,1	0,006350
2,992500	0,1	0,022896
2,994167	0,1	0,018033
2,995833	0,1	0,002383
2,997500	0,1	0,021199
2,999167	0,1	0,016897
3,000833	0,1	0,018406
3,002500	0,1	0,045528
3,004167	0,1	0,050686
3,005833	0,1	0,001934
3,007500	0,1	-0,003169
3,009167	0,1	0,024406
3,010833	0,1	-0,016121
3,012500	0,1	0,011339
3,014167	0,1	0,007083
3,015833	0,1	0,031715
3,017500	0,1	0,012116
3,019167	0,1	0,050992
3,020833	0,1	0,031334
3,022500	0,1	0,021638
3,024167	0,1	0,024783
3,025833	0,1	0,042444
3,027500	0,1	0,061060
3,029167	0,1	0,022225
3,030833	0,1	0,049835
3,032500	0,1	0,034767
3,034167	0,1	0,013400
3,035833	0,1	0,003604
3,037500	0,1	0,036934
3,039167	0,1	0,016572
3,040833	0,1	0,009318
3,042500	0,1	0,008366
3,044167	0,1	0,020040
3,045833	0,1	0,044865
3,047500	0,1	0,045596
3,049167	0,1	0,021954
3,050833	0,1	0,037080
3,052500	0,1	0,021269
3,054167	0,1	0,012985
3,055833	0,1	0,028031
3,057500	0,1	-0,005396
3,059167	0,1	0,006956
3,060833	0,1	-0,016019
3,062500	0,1	0,002108
3,064167	0,1	0,035441
3,065833	0,1	0,019608
3,067500	0,1	-0,006021
3,069167	0,1	0,006664
3,070833	0,1	-0,009375
3,072500	0,1	-0,015426
3,074167	0,1	-0,002013
3,075833	0,1	0,012275
3,077500	0,1	0,004060
3,079167	0,1	-0,018631
3,080833	0,1	0,034671
3,082500	0,1	-0,014790
3,084167	0,1	0,007798
3,085833	0,1	0,030164
3,087500	0,1	0,011227
3,089167	0,1	-0,001197
3,090833	0,1	0,035587
3,092500	0,1	-0,004795
3,094167	0,1	0,022875
3,095833	0,1	0,020789
3,097500	0,1	0,042299
3,099167	0,1	0,015557
3,100833	0,1	0,011655
3,102500	0,1	0,027018
3,104167	0,1	0,005697
3,105833	0,1	-0,007389
3,107500	0,1	0,020967
3,109167	0,1	-0,005415
3,110833	0,1	-0,014511
3,112500	0,1	0,003683
3,114167	0,1	0,000023
3,115833	0,1	0,002816
3,117500	0,1	0,021199
3,119167	0,1	0,046977
3,120833	0,1	0,008314
3,122500	0,1	-0,005006
3,124167	0,1	-0,010765
3,125833	0,1	0,017531
3,127500	0,1	-0,023761
3,129167	0,1	0,013719
3,130833	0,1	-0,048998
3,132500	0,1	0,018267
3,134167	0,1	-0,001030
3,135833	0,1	-0,020389
3,137500	0,1	0,037075
3,139167	0,1	0,009780
3,140833	0,1	0,017577
3,142500	0,1	-0,010575
3,144167	0,1	-0,027284
3,145833	0,1	-0,035365
3,147500	0,1	-0,016777
3,149167	0,1	-0,026855
3,150833	0,1	0,005149
3,152500	0,1	0,011845
3,154167	0,1	-0,014883
3,155833	0,1	-0,033252
3,157500	0,1	0,014773
3,159167	0,1	0,029439
3,160833	0,1	-0,057398
3,162500	0,1	-0,004924
3,164167	0,1	-0,030929
3,165833	0,1	0,038333
3,167500	0,1	0,006984
3,169167	0,1	-0,004883
3,170833	0,1	-0,031483
3,172500	0,1	0,023676
3,174167	0,1	-0,021420
3,175833	0,1	-0,016087
3,177500	0,1	-0,024700
3,179167	0,1	-0,032175
3,180833	0,1	-0,018121
3,182500	0,1	-0,014100
3,184167	0,1	-0,034325
3,185833	0,1	-0,007152
3,187500	0,1	-0,020576
3,189167	0,1	-0,003315
3,190833	0,1	-0,025154
3,192500	0,1	0,012998
3,194167	0,1	-0,020800
3,195833	0,1	-0,028094
3,197500	0,1	0,003779
3,199167	0,1	0,017329
3,200833	0,1	-0,042659
3,202500	0,1	-0,041117
3,204167	0,1	-0,022016
3,205833	0,1	-0,026004
3,207500	0,1	-0,032772
3,209167	0,1	-0,034329
3,210833	0,1	-0,026296
3,212500	0,1	-0,021970
3,214167	0,1	-0,015718
3,215833	0,1	0,002128
3,217500	0,1	-0,021338
3,219167	0,1	0,023284
3,220833	0,1	-0,037102
3,222500	0,1	-0,001105
3,224167	0,1	-0,032565
3,225833	0,1	0,006349
3,227500	0,1	-0,025417
3,229167	0,1	-0,012572
3,230833	0,1	-0,012112
3,232500	0,1	-0,009466
3,234167	0,1	-0,001432
3,235833	0,1	-0,000912
3,237500	0,1	-0,004577
3,239167	0,1	-0,035563
3,240833	0,1	-0,020952
3,242500	0,1	-0,030661
3,244167	0,1	-0,033995
3,245833	0,1	0,010841
3,247500	0,1	-0,052592
3,249167	0,1	0,004851
3,250833	0,1	-0,009437
3,252500	0,1	-0,020683
3,254167	0,1	-0,043740
3,255833	0,1	-0,031616
3,257500	0,1	-0,045194
3,259167	0,1	-0,014686
3,260833	0,1	-0,042701
3,262500	0,1	-0,012472
3,264167	0,1	-0,009441
3,265833	0,1	-0,044424
3,267500	0,1	-0,001440
3,269167	0,1	-0,042102
3,270833	0,1	-0,032195
3,272500	0,1	-0,020811
3,274167	0,1	-0,031928
3,275833	0,1	-0,053121
3,277500	0,1	-0,067840
3,279167	0,1	-0,023798
3,280833	0,1	-0,014911
3,282500	0,1	-0,068242
3,284167	0,1	-0,033346
3,285833	0,1	-0,051961
3,287500	0,1	-0,029385
3,289167	0,1	0,003038
3,290833	0,1	-0,050485
3,292500	0,1	-0,046482
3,294167	0,1	-0,055049
3,295833	0,1	-0,059331
3,297500	0,1	-0,025906
3,299167	0,1	-0,056954
3,300833	0,1	-0,030151
3,302500	0,1	-0,001701
3,304167	0,1	-0,054670
3,305833	0,1	-0,084872
3,307500	0,1	-0,034131
3,309167	0,1	-0,032212
3,310833	0,1	-0,036519
3,312500	0,1	-0,061736
3,314167	0,1	-0,052944
3,315833	0,1	-0,077691
3,317500	0,1	-0,006829
3,319167	0,1	-0,048731
3,320833	0,1	-0,032505
3,322500	0,1	-0,064566
3,324167	0,1	-0,070286
3,325833	0,1	-0,054643
3,327500	0,1	-0,043625
3,329167	0,1	-0,070555
3,330833	0,1	-0,079559
3,332500	0,1	-0,036803
3,334167	0,1	-0,044035
3,335833	0,1	-0,042911
3,337500	0,1	-0,062564
3,339167	0,1	-0,059897
3,340833	0,1	-0,080321
3,342500	0,1	-0,035397
3,344167	0,1	-0,035025
3,345833	0,1	-0,039578
3,347500	0,1	-0,071088
3,349167	0,1	-0,033152
3,350833	0,1	-0,082635
3,352500	0,1	-0,049302
3,354167	0,1	-0,068269
3,355833	0,1	-0,089564
3,357500	0,1	-0,063665
3,359167	0,1	-0,074547
3,360833	0,1	-0,069875
3,362500	0,1	-0,041353
3,364167	0,1	-0,064629
3,365833	0,1	-0,072193
3,367500	0,1	-0,052305
3,369167	0,1	-0,093961
3,370833	0,1	-0,012608
3,372500	0,1	-0,063935
3,374167	0,1	-0,064739
3,375833	0,1	-0,061258
3,377500	0,1	-0,075066
3,379167	0,1	-0,043860
3,380833	0,1	-0,088077
3,382500	0,1	-0,084803
3,384167	0,1	-0,037400
3,385833	0,1	-0,086716
3,387500	0,1	-0,092852
3,389167	0,1	-0,028069
3,390833	0,1	-0,086256
3,392500	0,1	-0,052054
3,394167	0,1	-0,117544
3,395833	0,1	-0,094099
3,397500	0,1	-0,066945
3,399167	0,1	-0,060021
3,400833	0,1	-0,095429
3,402500	0,1	-0,057004
3,404167	0,1	-0,076550
3,405833	0,1	-0,064972
3,407500	0,1	-0,082293
3,409167	0,1	-0,102842
3,410833	0,1	-0,074679
3,412500	0,1	-0,042838
3,414167	0,1	-0,056930
3,415833	0,1	-0,086112
3,417500	0,1	-0,060422
3,419167	0,1	-0,056020
3,420833	0,1	-0,062232
3,422500	0,1	-0,067886
3,424167	0,1	-0,084936
3,425833	0,1	-0,071618
3,427500	0,1	-0,072931
3,429167	0,1	-0,053042
3,430833	0,1	-0,050225
3,432500	0,1	-0,061027
3,434167	0,1	-0,073386
3,435833	0,1	-0,111868
3,437500	0,1	-0,068373
3,439167	0,1	-0,066542
3,440833	0,1	-0,091398
3,442500	0,1	-0,078922
3,444167	0,1	-0,064270
3,445833	0,1	-0,073326
3,447500	0,1	-0,086159
3,449167	0,1	-0,070212
3,450833	0,1	-0,023053
3,452500	0,1	-0,079364
3,454167	0,1	-0,068181
3,455833	0,1	-0,068439
3,457500	0,1	-0,071297
3,459167	0,1	-0,067765
3,460833	0,1	-0,040024
3,462500	0,1	-0,036275
3,464167	0,1	-0,083400
3,465833	0,1	-0,088713
3,467500	0,1	-0,057003
3,469167	0,1	-0,079768
3,470833	0,1	-0,062714
3,472500	0,1	-0,083208
3,474167	0,1	-0,068885
3,475833	0,1	-0,073769
3,477500	0,1	-0,083120
3,479167	0,1	-0,042744
3,480833	0,1	-0,100893
3,482500	0,1	-0,077519
3,484167	0,1	-0,073498
3,485833	0,1	-0,111562
3,487500	0,1	-0,066157
3,489167	0,1	-0,100272
3,490833	0,1	-0,077598
3,492500	0,1	-0,062149
3,494167	0,1	-0,081298
3,495833	0,1	-0,045179
3,497500	0,1	-0,103766
3,499167	0,1	-0,087511
3,500833	0,1	-0,057521
3,502500	0,1	-0,086782
3,504167	0,1	-0,073929
3,505833	0,1	-0,045009
3,507500	0,1	-0,064876
3,509167	0,1	-0,081194
3,510833	0,1	-0,118971
3,512500	0,1	-0,092113
3,514167	0,1	-0,057249
3,515833	0,1	-0,077465
3,517500	0,1	-0,094775
3,519167	0,1	-0,096079
3,520833	0,1	-0,094292
3,522500	0,1	-0,074327
3,524167	0,1	-0,091338
3,525833	0,1	-0,077228
3,527500	0,1	-0,073988
3,529167	0,1	-0,072625
3,530833	0,1	-0,087136
3,532500	0,1	-0,088256
3,534167	0,1	-0,081567
3,535833	0,1	-0,046321
3,537500	0,1	-0,057818
3,539167	0,1	-0,080381
3,540833	0,1	-0,057704
3,542500	0,1	-0,057849
3,544167	0,1	-0,104288
3,545833	0,1	-0,060672
3,547500	0,1	-0,094954
3,549167	0,1	-0,119327
3,550833	0,1	-0,113451
3,552500	0,1	-0,054654
3,554167	0,1	-0,102865
3,555833	0,1	-0,095026
3,557500	0,1	-0,099471
3,559167	0,1	-0,075980
3,560833	0,1	-0,084984
3,562500	0,1	-0,036655
3,564167	0,1	-0,059495
3,565833	0,1	-0,088127
3,567500	0,1	-0,036118
3,569167	0,1	-0,080606
3,570833	0,1	-0,082480
3,572500	0,1	-0,093816
3,574167	0,1	-0,072798
3,575833	0,1	-0,080799
3,577500	0,1	-0,088482
3,579167	0,1	-0,085539
3,580833	0,1	-0,092931
3,582500	0,1	-0,112558
3,584167	0,1	-0,066114
3,585833	0,1	-0,081148
3,587500	0,1	-0,095557
3,589167	0,1	-0,057919
3,590833	0,1	-0,079098
3,592500	0,1	-0,067432
3,594167	0,1	-0,031306
3,595833	0,1	-0,067773
3,597500	0,1	-0,054843
3,599167	0,1	-0,050287
3,600833	0,1	-0,084352
3,602500	0,1	-0,061554
3,604167	0,1	-0,074565
3,605833	0,1	-0,064760
3,607500	0,1	-0,093031
3,609167	0,1	-0,051106
3,610833	0,1	-0,092984
3,612500	0,1	-0,073606
3,614167	0,1	-0,123369
3,615833	0,1	-0,093916
3,617500	0,1	-0,066567
3,619167	0,1	-0,100196
3,620833	0,1	-0,081156
3,622500	0,1	-0,087657
3,624167	0,1	-0,096290
3,625833	0,1	-0,059983
3,627500	0,1	-0,092557
3,629167	0,1	-0,122487
3,630833	0,1	-0,082278
3,632500	0,1	-0,084283
3,634167	0,1	-0,041084
3,635833	0,1	-0,091832
3,637500	0,1	-0,077974
3,639167	0,1	-0,066624
3,640833	0,1	-0,061216
3,642500	0,1	-0,085576
3,644167	0,1	-0,079519
3,645833	0,1	-0,062652
3,647500	0,1	-0,093322
3,649167	0,1	-0,096537
3,650833	0,1	-0,074433
3,652500	0,1	-0,063035
3,654167	0,1	-0,096361
3,655833	0,1	-0,060274
3,657500	0,1	-0,093213
3,659167	0,1	-0,087645
3,660833	0,1	-0,077761
3,662500	0,1	-0,086679
3,664167	0,1	-0,035476
3,665833	0,1	-0,071210
3,667500	0,1	-0,094377
3,669167	0,1	-0,072034
3,670833	0,1	-0,042180
3,672500	0,1	-0,041424
3,674167	0,1	-0,079386
3,675833	0,1	-0,053440
3,677500	0,1	-0,041718
3,679167	0,1	-0,067758
3,680833	0,1	-0,072808
3,682500	0,1	-0,094500
3,684167	0,1	-0,083872
3,685833	0,1	-0,040731
3,687500	0,1	-0,110088
3,689167	0,1	-0,083771
3,690833	0,1	-0,117536
3,692500	0,1	-0,061317
3,694167	0,1	-0,038055
3,695833	0,1	-0,055312
3,697500	0,1	-0,037957
3,699167	0,1	-0,076739
3,700833	0,1	-0,097358
3,702500	0,1	-0,016994
3,704167	0,1	-0,053593
3,705833	0,1	-0,071478
3,707500	0,1	-0,050625
3,709167	0,1	-0,065807
3,710833	0,1	-0,083530
3,712500	0,1	-0,063049
3,714167	0,1	-0,097416
3,715833	0,1	-0,093957
3,717500	0,1	-0,121846
3,719167	0,1	-0,092265
3,720833	0,1	-0,089707
3,722500	0,1	-0,071100
3,724167	0,1	-0,080201
3,725833	0,1	-0,042824
3,727500	0,1	-0,068937
3,729167	0,1	-0,043171
3,730833	0,1	-0,054714
3,732500	0,1	-0,049707
3,734167	0,1	-0,048898
3,735833	0,1	-0,074986
3,737500	0,1	-0,064681
3,739167	0,1	-0,087274
3,740833	0,1	-0,087413
3,742500	0,1	-0,028042
3,744167	0,1	-0,092258
3,745833	0,1	-0,053531
3,747500	0,1	-0,021475
3,749167	0,1	-0,051624
3,750833	0,1	-0,061010
3,752500	0,1	-0,064158
3,754167	0,1	-0,073221
3,755833	0,1	-0,037767
3,757500	0,1	-0,062167
3,759167	0,1	-0,046731
3,760833	0,1	-0,060535
3,762500	0,1	-0,058034
3,764167	0,1	-0,050456
3,765833	0,1	-0,009862
3,767500	0,1	-0,061899
3,769167	0,1	-0,054534
3,770833	0,1	-0,032902
3,772500	0,1	-0,051734
3,774167	0,1	-0,069808
3,775833	0,1	-0,073572
3,777500	0,1	-0,039429
3,779167	0,1	-0,078849
3,780833	0,1	-0,049405
3,782500	0,1	-0,052379
3,784167	0,1	-0,053294
3,785833	0,1	-0,062004
3,787500	0,1	-0,050562
3,789167	0,1	-0,047535
3,790833	0,1	-0,041575
3,792500	0,1	-0,054222
3,794167	0,1	-0,051905
3,795833	0,1	-0,060598
3,797500	0,1	-0,031973
3,799167	0,1	-0,048418
3,800833	0,1	-0,039958
3,802500	0,1	-0,100050
3,804167	0,1	-0,053718
3,805833	0,1	-0,051324
3,807500	0,1	-0,040723
3,809167	0,1	-0,074069
3,810833	0,1	-0,046469
3,812500	0,1	-0,048695
3,814167	0,1	-0,074406
3,815833	0,1	-0,055425
3,817500	0,1	-0,043748
3,819167	0,1	-0,027643
3,820833	0,1	-0,052356
3,822500	0,1	-0,067840
3,824167	0,1	-0,029389
3,825833	0,1	-0,074981
3,827500	0,1	-0,008815
3,829167	0,1	-0,033225
3,830833	0,1	-0,057351
3,832500	0,1	-0,068299
3,834167	0,1	-0,063353
3,835833	0,1	0,010563
3,837500	0,1	-0,047916
3,839167	0,1	-0,042094
3,840833	0,1	-0,062978
3,842500	0,1	-0,021337
3,844167	0,1	-0,036824
3,845833	0,1	-0,043147
3,847500	0,1	-0,068065
3,849167	0,1	-0,016530
3,850833	0,1	-0,071233
3,852500	0,1	-0,040405
3,854167	0,1	-0,040520
3,855833	0,1	-0,086259
3,857500	0,1	-0,006066
3,859167	0,1	-0,039245
3,860833	0,1	-0,061491
3,862500	0,1	-0,042651
3,864167	0,1	-0,052939
3,865833	0,1	-0,069351
3,867500	0,1	-0,009657
3,869167	0,1	-0,013395
3,870833	0,1	-0,020331
3,872500	0,1	-0,041219
3,874167	0,1	-0,043929
3,875833	0,1	-0,035861
3,877500	0,1	-0,038902
3,879167	0,1	-0,016568
3,880833	0,1	-0,024016
3,882500	0,1	-0,007519
3,884167	0,1	-0,024409
3,885833	0,1	-0,039356
3,887500	0,1	-0,044950
3,889167	0,1	-0,030650
3,890833	0,1	-0,057842
3,892500	0,1	0,023961
3,894167	0,1	-0,015558
3,895833	0,1	-0,046535
3,897500	0,1	-0,021227
3,899167	0,1	-0,041342
3,900833	0,1	0,016529
3,902500	0,1	-0,022725
3,904167	0,1	-0,020518
3,905833	0,1	0,016207
3,907500	0,1	-0,051872
3,909167	0,1	-0,015971
3,910833	0,1	-0,035090
3,912500	0,1	0,000013
3,914167	0,1	-0,008822
3,915833	0,1	-0,025544
3,917500	0,1	-0,022135
3,919167	0,1	-0,040163
3,920833	0,1	-0,029048
3,922500	0,1	-0,019174
3,924167	0,1	-0,034264
3,925833	0,1	0,000408
3,927500	0,1	0,004247
3,929167	0,1	0,033749
3,930833	0,1	-0,035078
3,932500	0,1	-0,029838
3,934167	0,1	-0,028738
3,935833	0,1	-0,004600
3,937500	0,1	-0,020180
3,939167	0,1	-0,044074
3,940833	0,1	-0,048467
3,942500	0,1	-0,033033
3,944167	0,1	-0,008785
3,945833	0,1	-0,034077
3,947500	0,1	-0,059952
3,949167	0,1	-0,008996
3,950833	0,1	0,004159
3,952500	0,1	0,012257
3,954167	0,1	-0,039866
3,955833	0,1	-0,029612
3,957500	0,1	-0,003337
3,959167	0,1	-0,028566
3,960833	0,1	-0,006965
3,962500	0,1	-0,029893
3,964167	0,1	-0,004794
3,965833	0,1	-0,040923
3,967500	0,1	-0,030438
3,969167	0,1	0,028003
3,970833	0,1	0,021785
3,972500	0,1	0,015161
3,974167	0,1	-0,026698
3,975833	0,1	-0,014225
3,977500	0,1	-0,008509
3,979167	0,1	-0,070009
3,980833	0,1	-0,053772
3,982500	0,1	0,004209
3,984167	0,1	-0,046696
3,985833	0,1	-0,028470
3,987500	0,1	-0,046431
3,989167	0,1	-0,013818
3,990833	0,1	-0,008139
3,992500	0,1	-0,029209
3,994167	0,1	-0,006755
3,995833	0,1	-0,013932
3,997500	0,1	-0,001346
3,999167	0,1	-0,026394
4,000833	0,1	-0,072263
4,002500	0,1	0,003065
4,004167	0,1	-0,023344
4,005833	0,1	-0,020369
4,007500	0,1	-0,028736
4,009167	0,1	-0,002843
4,010833	0,1	-0,000307
4,012500	0,1	-0,009332
4,014167	0,1	-0,047402
4,015833	0,1	-0,060017
4,017500	0,1	-0,018786
4,019167	0,1	-0,029834
4,020833	0,1	-0,033933
4,022500	0,1	-0,036880
4,024167	0,1	-0,023564
4,025833	0,1	0,007285
4,027500	0,1	-0,024817
4,029167	0,1	-0,029106
4,030833	0,1	-0,023332
4,032500	0,1	-0,045131
4,034167	0,1	-0,000527
4,035833	0,1	-0,052122
4,037500	0,1	-0,059604
4,039167	0,1	-0,023340
4,040833	0,1	-0,036287
4,042500	0,1	-0,036562
4,044167	0,1	0,000388
4,045833	0,1	-0,024608
4,047500	0,1	-0,018963
4,049167	0,1	-0,034545
4,050833	0,1	-0,041511
4,052500	0,1	-0,030869
4,054167	0,1	0,009973
4,055833	0,1	-0,033712
4,057500	0,1	-0,000690
4,059167	0,1	-0,033760
4,060833	0,1	-0,007168
4,062500	0,1	-0,020867
4,064167	0,1	-0,049683
4,065833	0,1	-0,051096
4,067500	0,1	-0,017378
4,069167	0,1	-0,032954
4,070833	0,1	-0,030725
4,072500	0,1	-0,034698
4,074167	0,1	-0,042610
4,075833	0,1	-0,010169
4,077500	0,1	-0,033762
4,079167	0,1	0,010885
4,080833	0,1	-0,011834
4,082500	0,1	-0,041551
4,084167	0,1	-0,044801
4,085833	0,1	-0,028469
4,087500	0,1	-0,045501
4,089167	0,1	-0,004543
4,090833	0,1	-0,008815
4,092500	0,1	0,017308
4,094167	0,1	-0,044118
4,095833	0,1	-0,063101
4,097500	0,1	-0,038601
4,099167	0,1	-0,018016
4,100833	0,1	-0,010269
4,102500	0,1	-0,012254
4,104167	0,1	-0,023143
4,105833	0,1	-0,039126
4,107500	0,1	-0,038365
4,109167	0,1	-0,060595
4,110833	0,1	-0,039565
4,112500	0,1	0,014710
4,114167	0,1	-0,048495
4,115833	0,1	-0,054927
4,117500	0,1	0,000384
4,119167	0,1	-0,044026
4,120833	0,1	-0,016401
4,122500	0,1	-0,038317
4,124167	0,1	-0,034868
4,125833	0,1	0,000803
4,127500	0,1	-0,013314
4,129167	0,1	-0,045647
4,130833	0,1	-0,045732
4,132500	0,1	-0,018433
4,134167	0,1	-0,036480
4,135833	0,1	-0,060303
4,137500	0,1	-0,025705
4,139167	0,1	0,006827
4,140833	0,1	-0,007265
4,142500	0,1	-0,022685
4,144167	0,1	-0,006981
4,145833	0,1	-0,030324
4,147500	0,1	-0,022490
4,149167	0,1	-0,016483
4,150833	0,1	-0,052706
4,152500	0,1	-0,023111
4,154167	0,1	-0,044823
4,155833	0,1	0,018188
4,157500	0,1	-0,024896
4,159167	0,1	-0,034803
4,160833	0,1	-0,058958
4,162500	0,1	-0,036111
4,164167	0,1	-0,034533
4,165833	0,1	-0,013753
4,167500	0,1	-0,065844
4,169167	0,1	-0,041764
4,170833	0,1	-0,006697
4,172500	0,1	-0,028110
4,174167	0,1	-0,052021
4,175833	0,1	-0,040250
4,177500	0,1	-0,016487
4,179167	0,1	-0,027328
4,180833	0,1	-0,051275
4,182500	0,1	-0,035037
4,184167	0,1	-0,047120
4,185833	0,1	-0,055691
4,187500	0,1	-0,060844
4,189167	0,1	-0,042923
4,190833	0,1	-0,021060
4,192500	0,1	-0,049533
4,194167	0,1	-0,034994
4,195833	0,1	-0,059019
4,197500	0,1	-0,044909
4,199167	0,1	-0,046603
4,200833	0,1	-0,066353
4,202500	0,1	-0,045860
4,204167	0,1	-0,053662
4,205833	0,1	-0,059938
4,207500	0,1	-0,010279
4,209167	0,1	-0,054153
4,210833	0,1	-0,034045
4,212500	0,1	-0,054528
4,214167	0,1	-0,023980
4,215833	0,1	-0,075655
4,217500	0,1	-0,034893
4,219167	0,1	-0,031993
4,220833	0,1	-0,063037
4,222500	0,1	-0,052548
4,224167	0,1	-0,041288
4,225833	0,1	-0,056454
4,227500	0,1	-0,033773
4,229167	0,1	-0,073180
4,230833	0,1	-0,001649
4,232500	0,1	-0,027713
4,234167	0,1	-0,098490
4,235833	0,1	-0,020202
4,237500	0,1	-0,056952
4,239167	0,1	-0,053250
4,240833	0,1	-0,057022
4,242500	0,1	-0,067227
4,244167	0,1	-0,032597
4,245833	0,1	-0,055706
4,247500	0,1	-0,050360
4,249167	0,1	-0,009036
4,250833	0,1	-0,024322
4,252500	0,1	-0,019649
4,254167	0,1	-0,024182
4,255833	0,1	-0,077562
4,257500	0,1	-0,077102
4,259167	0,1	-0,092990
4,260833	0,1	-0,046139
4,262500	0,1	-0,038824
4,264167	0,1	-0,026316
4,265833	0,1	-0,008301
4,267500	0,1	-0,012876
4,269167	0,1	-0,068595
4,270833	0,1	-0,086493
4,272500	0,1	-0,062820
4,274167	0,1	-0,085439
4,275833	0,1	-0,058040
4,277500	0,1	-0,022619
4,279167	0,1	-0,075348
4,280833	0,1	-0,089429
4,282500	0,1	-0,029747
4,284167	0,1	-0,055030
4,285833	0,1	-0,049646
4,287500	0,1	0,009554
4,289167	0,1	-0,039856
4,290833	0,1	-0,085405
4,292500	0,1	-0,026677
4,294167	0,1	-0,084832
4,295833	0,1	-0,054435
4,297500	0,1	-0,043502
4,299167	0,1	-0,047702
4,300833	0,1	-0,026026
4,302500	0,1	-0,026021
4,304167	0,1	-0,068994
4,305833	0,1	-0,078902
4,307500	0,1	-0,025788
4,309167	0,1	-0,065267
4,310833	0,1	-0,054949
4,312500	0,1	-0,047828
4,314167	0,1	-0,040204
4,315833	0,1	-0,051858
4,317500	0,1	-0,049522
4,319167	0,1	-0,039274
4,320833	0,1	-0,019942
4,322500	0,1	-0,003088
4,324167	0,1	-0,064313
4,325833	0,1	-0,040192
4,327500	0,1	-0,069805
4,329167	0,1	-0,047708
4,330833	0,1	-0,026422
4,332500	0,1	-0,080006
4,334167	0,1	-0,053897
4,335833	0,1	-0,083177
4,337500	0,1	-0,042332
4,339167	0,1	-0,048282
4,340833	0,1	-0,035758
4,342500	0,1	-0,030603
4,344167	0,1	-0,031508
4,345833	0,1	-0,052436
4,347500	0,1	-0,052810
4,349167	0,1	-0,047263
4,350833	0,1	-0,043957
4,352500	0,1	-0,078147
4,354167	0,1	-0,016059
4,355833	0,1	-0,027698
4,357500	0,1	-0,107672
4,359167	0,1	-0,029813
4,360833	0,1	-0,022963
4,362500	0,1	-0,032298
4,364167	0,1	-0,043331
4,365833	0,1	-0,055313
4,367500	0,1	-0,061468
4,369167	0,1	-0,072913
4,370833	0,1	-0,060146
4,372500	0,1	-0,024315
4,374167	0,1	-0,017679
4,375833	0,1	-0,098779
4,377500	0,1	-0,043804
4,379167	0,1	-0,063469
4,380833	0,1	-0,062050
4,382500	0,1	-0,024623
4,384167	0,1	-0,052416
4,385833	0,1	-0,027188
4,387500	0,1	-0,077685
4,389167	0,1	-0,040730
4,390833	0,1	-0,075932
4,392500	0,1	-0,055348
4,394167	0,1	-0,032798
4,395833	0,1	-0,045440
4,397500	0,1	-0,042585
4,399167	0,1	-0,065041
4,400833	0,1	-0,060951
4,402500	0,1	-0,021107
4,404167	0,1	-0,059780
4,405833	0,1	-0,051722
4,407500	0,1	-0,063911
4,409167	0,1	-0,081633
4,410833	0,1	-0,067494
4,412500	0,1	-0,068574
4,414167	0,1	-0,032536
4,415833	0,1	-0,047427
4,417500	0,1	-0,053739
4,419167	0,1	-0,077842
4,420833	0,1	-0,063582
4,422500	0,1	-0,023113
4,424167	0,1	-0,042334
4,425833	0,1	-0,048774
4,427500	0,1	-0,079204
4,429167	0,1	-0,039220
4,430833	0,1	-0,079263
4,432500	0,1	-0,042682
4,434167	0,1	-0,094081
4,435833	0,1	-0,054868
4,437500	0,1	-0,042176
4,439167	0,1	-0,049354
4,440833	0,1	-0,042771
4,442500	0,1	-0,050603
4,444167	0,1	-0,054059
4,445833	0,1	-0,098373
4,447500	0,1	-0,062761
4,449167	0,1	-0,017980
4,450833	0,1	-0,047730
4,452500	0,1	-0,065027
4,454167	0,1	-0,014130
4,455833	0,1	-0,068304
4,457500	0,1	-0,077879
4,459167	0,1	-0,041248
4,460833	0,1	-0,042111
4,462500	0,1	-0,043683
4,464167	0,1	-0,041820
4,465833	0,1	-0,021867
4,467500	0,1	-0,108570
4,469167	0,1	-0,090659
4,470833	0,1	-0,058910
4,472500	0,1	-0,022302
4,474167	0,1	-0,035399
4,475833	0,1	-0,000999
4,477500	0,1	-0,093167
4,479167	0,1	-0,039389
4,480833	0,1	-0,058686
4,482500	0,1	-0,056063
4,484167	0,1	-0,059254
4,485833	0,1	-0,046008
4,487500	0,1	-0,064569
4,489167	0,1	-0,093628
4,490833	0,1	-0,077016
4,492500	0,1	-0,042866
4,494167	0,1	-0,053431
4,495833	0,1	-0,062189
4,497500	0,1	-0,054123
4,499167	0,1	-0,051404
4,500833	0,1	-0,078228
4,502500	0,1	-0,095478
4,504167	0,1	-0,042993
4,505833	0,1	-0,069271
4,507500	0,1	-0,045615
4,509167	0,1	-0,105032
4,510833	0,1	-0,074268
4,512500	0,1	-0,044378
4,514167	0,1	-0,063285
4,515833	0,1	-0,065838
4,517500	0,1	-0,063122
4,519167	0,1	-0,064678
4,520833	0,1	-0,039796
4,522500	0,1	-0,065086
4,524167	0,1	-0,075754
4,525833	0,1	-0,058326
4,527500	0,1	-0,034996
4,529167	0,1	-0,097666
4,530833	0,1	-0,089603
4,532500	0,1	-0,080969
4,534167	0,1	-0,038041
4,535833	0,1	-0,016584
4,537500	0,1	-0,055457
4,539167	0,1	-0,036252
4,540833	0,1	-0,062473
4,542500	0,1	-0,044514
4,544167	0,1	-0,091224
4,545833	0,1	-0,070750
4,547500	0,1	-0,087092
4,549167	0,1	-0,070476
4,550833	0,1	-0,049588
4,552500	0,1	-0,038737
4,554167	0,1	-0,059250
4,555833	0,1	-0,063166
4,557500	0,1	-0,037502
4,559167	0,1	-0,059081
4,560833	0,1	-0,066681
4,562500	0,1	-0,048761
4,564167	0,1	-0,053064
4,565833	0,1	-0,053891
4,567500	0,1	-0,078441
4,569167	0,1	-0,073145
4,570833	0,1	-0,080230
4,572500	0,1	-0,060973
4,574167	0,1	-0,094374
4,575833	0,1	-0,074539
4,577500	0,1	-0,035534
4,579167	0,1	-0,097118
4,580833	0,1	-0,054438
4,582500	0,1	-0,050621
4,584167	0,1	-0,064297
4,585833	0,1	-0,050124
4,587500	0,1	-0,085328
4,589167	0,1	-0,075774
4,590833	0,1	-0,052094
4,592500	0,1	-0,078974
4,594167	0,1	-0,098747
4,595833	0,1	-0,029389
4,597500	0,1	-0,059678
4,599167	0,1	-0,043108
4,600833	0,1	-0,050180
4,602500	0,1	-0,036689
4,604167	0,1	-0,070753
4,605833	0,1	-0,069462
4,607500	0,1	-0,045158
4,609167	0,1	-0,045671
4,610833	0,1	-0,073825
4,612500	0,1	-0,082371
4,614167	0,1	-0,066088
4,615833	0,1	-0,084463
4,617500	0,1	-0,113626
4,619167	0,1	-0,046575
4,620833	0,1	-0,055814
4,622500	0,1	-0,045753
4,624167	0,1	-0,037410
4,625833	0,1	-0,053675
4,627500	0,1	-0,053556
4,629167	0,1	-0,064218
4,630833	0,1	-0,025742
4,632500	0,1	-0,077685
4,634167	0,1	-0,093095
4,635833	0,1	-0,095820
4,637500	0,1	-0,045533
4,639167	0,1	-0,114489
4,640833	0,1	-0,086504
4,642500	0,1	-0,061386
4,644167	0,1	-0,076349
4,645833	0,1	-0,075880
4,647500	0,1	-0,081362
4,649167	0,1	-0,088086
4,650833	0,1	-0,123083
4,652500	0,1	-0,035942
4,654167	0,1	-0,107797
4,655833	0,1	-0,103536
4,657500	0,1	-0,089666
4,659167	0,1	-0,085522
4,660833	0,1	-0,076830
4,662500	0,1	-0,105346
4,664167	0,1	-0,090492
4,665833	0,1	-0,067085
4,667500	0,1	-0,122925
4,669167	0,1	-0,067231
4,670833	0,1	-0,068835
4,672500	0,1	-0,101786
4,674167	0,1	-0,085614
4,675833	0,1	-0,121342
4,677500	0,1	-0,104700
4,679167	0,1	-0,116947
4,680833	0,1	-0,072881
4,682500	0,1	-0,118925
4,684167	0,1	-0,116217
4,685833	0,1	-0,130971
4,687500	0,1	-0,095797
4,689167	0,1	-0,074432
4,690833	0,1	-0,043726
4,692500	0,1	-0,097823
4,694167	0,1	-0,107978
4,695833	0,1	-0,123394
4,697500	0,1	-0,106015
4,699167	0,1	-0,106178
4,700833	0,1	-0,106423
4,702500	0,1	-0,087054
4,704167	0,1	-0,141273
4,705833	0,1	-0,106936
4,707500	0,1	-0,112366
4,709167	0,1	-0,043489
4,710833	0,1	-0,071810
4,712500	0,1	-0,115334
4,714167	0,1	-0,074470
4,715833	0,1	-0,108967
4,717500	0,1	-0,099702
4,719167	0,1	-0,106666
4,720833	0,1	-0,069364
4,722500	0,1	-0,099007
4,724167	0,1	-0,109614
4,725833	0,1	-0,114871
4,727500	0,1	-0,133184
4,729167	0,1	-0,105834
4,730833	0,1	-0,087468
4,732500	0,1	-0,122777
4,734167	0,1	-0,128818
4,735833	0,1	-0,115042
4,737500	0,1	-0,085773
4,739167	0,1	-0,144358
4,740833	0,1	-0,149215
4,742500	0,1	-0,150879
4,744167	0,1	-0,114558
4,745833	0,1	-0,099414
4,747500	0,1	-0,094523
4,749167	0,1	-0,161802
4,750833	0,1	-0,132387
4,752500	0,1	-0,092924
4,754167	0,1	-0,104892
4,755833	0,1	-0,126203
4,757500	0,1	-0,117044
4,759167	0,1	-0,114307
4,760833	0,1	-0,129091
4,762500	0,1	-0,094300
4,764167	0,1	-0,148988
4,765833	0,1	-0,120760
4,767500	0,1	-0,175326
4,769167	0,1	-0,171795
4,770833	0,1	-0,163485
4,772500	0,1	-0,154932
4,774167	0,1	-0,117723
4,775833	0,1	-0,130711
4,777500	0,1	-0,117792
4,779167	0,1	-0,165643
4,780833	0,1	-0,142805
4,782500	0,1	-0,165082
4,784167	0,1	-0,153938
4,785833	0,1	-0,106647
4,787500	0,1	-0,128678
4,789167	0,1	-0,097753
4,790833	0,1	-0,127362
4,792500	0,1	-0,167813
4,794167	0,1	-0,186377
4,795833	0,1	-0,171506
4,797500	0,1	-0,150321
4,799167	0,1	-0,133057
4,800833	0,1	-0,155121
4,802500	0,1	-0,159205
4,804167	0,1	-0,144484
4,805833	0,1	-0,132200
4,807500	0,1	-0,144324
4,809167	0,1	-0,129862
4,810833	0,1	-0,153121
4,812500	0,1	-0,128184
4,814167	0,1	-0,197474
4,815833	0,1	-0,138811
4,817500	0,1	-0,185594
4,819167	0,1	-0,134607
4,820833	0,1	-0,155535
4,822500	0,1	-0,165421
4,824167	0,1	-0,136329
4,825833	0,1	-0,145150
4,827500	0,1	-0,131681
4,829167	0,1	-0,167997
4,830833	0,1	-0,127135
4,832500	0,1	-0,177663
4,834167	0,1	-0,173201
4,835833	0,1	-0,182529
4,837500	0,1	-0,171749
4,839167	0,1	-0,184392
4,840833	0,1	-0,157975
4,842500	0,1	-0,183337
4,844167	0,1	-0,159074
4,845833	0,1	-0,163972
4,847500	0,1	-0,195160
4,849167	0,1	-0,169767
4,850833	0,1	-0,186945
4,852500	0,1	-0,200905
4,854167	0,1	-0,154191
4,855833	0,1	-0,165100
4,857500	0,1	-0,147447
4,859167	0,1	-0,124395
4,860833	0,1	-0,150920
4,862500	0,1	-0,190497
4,864167	0,1	-0,184965
4,865833	0,1	-0,213839
4,867500	0,1	-0,199155
4,869167	0,1	-0,156192
4,870833	0,1	-0,203099
4,872500	0,1	-0,170471
4,874167	0,1	-0,151037
4,875833	0,1	-0,157293
4,877500	0,1	-0,179075
4,879167	0,1	-0,176697
4,880833	0,1	-0,224099
4,882500	0,1	-0,160274
4,884167	0,1	-0,190162
4,885833	0,1	-0,165231
4,887500	0,1	-0,175350
4,889167	0,1	-0,183569
4,890833	0,1	-0,184976
4,892500	0,1	-0,148780
4,894167	0,1	-0,206775
4,895833	0,1	-0,213832
4,897500	0,1	-0,195294
4,899167	0,1	-0,210972
4,900833	0,1	-0,157308
4,902500	0,1	-0,162779
4,904167	0,1	-0,180664
4,905833	0,1	-0,206798
4,907500	0,1	-0,192174
4,909167	0,1	-0,156876
4,910833	0,1	-0,195922
4,912500	0,1	-0,179039
4,914167	0,1	-0,175110
4,915833	0,1	-0,184150
4,917500	0,1	-0,209653
4,919167	0,1	-0,198008
4,920833	0,1	-0,199747
4,922500	0,1	-0,227785
4,924167	0,1	-0,190990
4,925833	0,1	-0,208345
4,927500	0,1	-0,168596
4,929167	0,1	-0,160460
4,930833	0,1	-0,197677
4,932500	0,1	-0,174334
4,934167	0,1	-0,192017
4,935833	0,1	-0,186491
4,937500	0,1	-0,215232
4,939167	0,1	-0,197933
4,940833	0,1	-0,194600
4,942500	0,1	-0,200068
4,944167	0,1	-0,136779
4,945833	0,1	-0,200252
4,947500	0,1	-0,190585
4,949167	0,1	-0,197793
4,950833	0,1	-0,161964
4,952500	0,1	-0,198683
4,954167	0,1	-0,174610
4,955833	0,1	-0,219935
4,957500	0,1	-0,207482
4,959167	0,1	-0,190417
4,960833	0,1	-0,188826
4,962500	0,1	-0,162665
4,964167	0,1	-0,200076
4,965833	0,1	-0,183104
4,967500	0,1	-0,235235
4,969167	0,1	-0,204595
4,970833	0,1	-0,209840
4,972500	0,1	-0,175483
4,974167	0,1	-0,191342
4,975833	0,1	-0,194173
4,977500	0,1	-0,210588
4,979167	0,1	-0,193990
4,980833	0,1	-0,202345
4,982500	0,1	-0,216105
4,984167	0,1	-0,199155
4,985833	0,1	-0,189944
4,987500	0,1	-0,209810
4,989167	0,1	-0,197339
4,990833	0,1	-0,197518
4,992500	0,1	-0,229466
4,994167	0,1	-0,211527
4,995833	0,1	-0,221834
4,997500	0,1	-0,238148
4,999167	0,1	-0,175733
5,000833	0,1	-0,189342
5,002500	0,1	-0,210417
5,004167	0,1	-0,200789
5,005833	0,1	-0,192266
5,007500	0,1	-0,164603
5,009167	0,1	-0,209542
5,010833	0,1	-0,224107
5,012500	0,1	-0,178539
5,014167	0,1	-0,227078
5,015833	0,1	-0,170875
5,017500	0,1	-0,228007
5,019167	0,1	-0,220433
5,020833	0,1	-0,244971
5,022500	0,1	-0,221842
5,024167	0,1	-0,217407
5,025833	0,1	-0,189717
5,027500	0,1	-0,228519
5,029167	0,1	-0,202353
5,030833	0,1	-0,247714
5,032500	0,1	-0,214435
5,034167	0,1	-0,228707
5,035833	0,1	-0,205682
5,037500	0,1	-0,155536
5,039167	0,1	-0,234526
5,040833	0,1	-0,192396
5,042500	0,1	-0,199575
5,044167	0,1	-0,205289
5,045833	0,1	-0,236413
5,047500	0,1	-0,184010
5,049167	0,1	-0,185511
5,050833	0,1	-0,234242
5,052500	0,1	-0,218693
5,054167	0,1	-0,201952
5,055833	0,1	-0,220089
5,057500	0,1	-0,204868
5,059167	0,1	-0,217862
5,060833	0,1	-0,242298
5,062500	0,1	-0,218802
5,064167	0,1	-0,244005
5,065833	0,1	-0,219349
5,067500	0,1	-0,219559
5,069167	0,1	-0,210884
5,070833	0,1	-0,218517
5,072500	0,1	-0,226675
5,074167	0,1	-0,217165
5,075833	0,1	-0,207676
5,077500	0,1	-0,193259
5,079167	0,1	-0,208482
5,080833	0,1	-0,194448
5,082500	0,1	-0,200068
5,084167	0,1	-0,237284
5,085833	0,1	-0,212751
5,087500	0,1	-0,209891
5,089167	0,1	-0,199397
5,090833	0,1	-0,213736
5,092500	0,1	-0,237807
5,094167	0,1	-0,187326
5,095833	0,1	-0,203301
5,097500	0,1	-0,221953
5,099167	0,1	-0,230766
5,100833	0,1	-0,223364
5,102500	0,1	-0,249657
5,104167	0,1	-0,241083
5,105833	0,1	-0,190197
5,107500	0,1	-0,225919
5,109167	0,1	-0,199462
5,110833	0,1	-0,202434
5,112500	0,1	-0,234306
5,114167	0,1	-0,251231
5,115833	0,1	-0,232515
5,117500	0,1	-0,188316
5,119167	0,1	-0,260537
5,120833	0,1	-0,227557
5,122500	0,1	-0,230695
5,124167	0,1	-0,232802
5,125833	0,1	-0,204871
5,127500	0,1	-0,200159
5,129167	0,1	-0,218515
5,130833	0,1	-0,234324
5,132500	0,1	-0,228022
5,134167	0,1	-0,226521
5,135833	0,1	-0,247673
5,137500	0,1	-0,233953
5,139167	0,1	-0,205190
5,140833	0,1	-0,240382
5,142500	0,1	-0,236023
5,144167	0,1	-0,252866
5,145833	0,1	-0,247206
5,147500	0,1	-0,212754
5,149167	0,1	-0,229314
5,150833	0,1	-0,206931
5,152500	0,1	-0,233680
5,154167	0,1	-0,265849
5,155833	0,1	-0,219995
5,157500	0,1	-0,258282
5,159167	0,1	-0,240990
5,160833	0,1	-0,233614
5,162500	0,1	-0,246513
5,164167	0,1	-0,260686
5,165833	0,1	-0,246688
5,167500	0,1	-0,222423
5,169167	0,1	-0,202318
5,170833	0,1	-0,270573
5,172500	0,1	-0,230549
5,174167	0,1	-0,245216
5,175833	0,1	-0,244653
5,177500	0,1	-0,228848
5,179167	0,1	-0,231519
5,180833	0,1	-0,240111
5,182500	0,1	-0,243537
5,184167	0,1	-0,172129
5,185833	0,1	-0,266426
5,187500	0,1	-0,253743
5,189167	0,1	-0,204721
5,190833	0,1	-0,215081
5,192500	0,1	-0,246677
5,194167	0,1	-0,234221
5,195833	0,1	-0,273193
5,197500	0,1	-0,264116
5,199167	0,1	-0,244874
5,200833	0,1	-0,239872
5,202500	0,1	-0,222326
5,204167	0,1	-0,249778
5,205833	0,1	-0,237949
5,207500	0,1	-0,234194
5,209167	0,1	-0,255175
5,210833	0,1	-0,236898
5,212500	0,1	-0,288295
5,214167	0,1	-0,240766
5,215833	0,1	-0,250869
5,217500	0,1	-0,244472
5,219167	0,1	-0,278218
5,220833	0,1	-0,242216
5,222500	0,1	-0,267265
5,224167	0,1	-0,255959
5,225833	0,1	-0,260674
5,227500	0,1	-0,225367
5,229167	0,1	-0,252682
5,230833	0,1	-0,234853
5,232500	0,1	-0,237486
5,234167	0,1	-0,250348
5,235833	0,1	-0,238928
5,237500	0,1	-0,289045
5,239167	0,1	-0,233530
5,240833	0,1	-0,222709
5,242500	0,1	-0,258561
5,244167	0,1	-0,238000
5,245833	0,1	-0,224175
5,247500	0,1	-0,228432
5,249167	0,1	-0,255490
5,250833	0,1	-0,242090
5,252500	0,1	-0,300662
5,254167	0,1	-0,279246
5,255833	0,1	-0,226461
5,257500	0,1	-0,222080
5,259167	0,1	-0,223362
5,260833	0,1	-0,233514
5,262500	0,1	-0,266320
5,264167	0,1	-0,258125
5,265833	0,1	-0,218832
5,267500	0,1	-0,255595
5,269167	0,1	-0,296236
5,270833	0,1	-0,285755
5,272500	0,1	-0,244674
5,274167	0,1	-0,249709
5,275833	0,1	-0,229091
5,277500	0,1	-0,253311
5,279167	0,1	-0,213992
5,280833	0,1	-0,253321
5,282500	0,1	-0,281185
5,284167	0,1	-0,269430
5,285833	0,1	-0,315246
5,287500	0,1	-0,254179
5,289167	0,1	-0,247267
5,290833	0,1	-0,236024
5,292500	0,1	-0,261421
5,294167	0,1	-0,273333
5,295833	0,1	-0,256602
5,297500	0,1	-0,211002
5,299167	0,1	-0,273660
5,300833	0,1	-0,262881
5,302500	0,1	-0,224013
5,304167	0,1	-0,272573
5,305833	0,1	-0,242747
5,307500	0,1	-0,252287
5,309167	0,1	-0,270753
5,310833	0,1	-0,257303
5,312500	0,1	-0,246120
5,314167	0,1	-0,268199
5,315833	0,1	-0,220747
5,317500	0,1	-0,263933
5,319167	0,1	-0,226639
5,320833	0,1	-0,296471
5,322500	0,1	-0,260516
5,324167	0,1	-0,268542
5,325833	0,1	-0,247163
5,327500	0,1	-0,312434
5,329167	0,1	-0,283012
5,330833	0,1	-0,277368
5,332500	0,1	-0,270601
5,334167	0,1	-0,248082
5,335833	0,1	-0,276597
5,337500	0,1	-0,256251
5,339167	0,1	-0,246337
5,340833	0,1	-0,246395
5,342500	0,1	-0,260443
5,344167	0,1	-0,248080
5,345833	0,1	-0,270644
5,347500	0,1	-0,290808
5,349167	0,1	-0,252359
5,350833	0,1	-0,273610
5,352500	0,1	-0,227803
5,354167	0,1	-0,224403
5,355833	0,1	-0,267553
5,357500	0,1	-0,244996
5,359167	0,1	-0,302355
5,360833	0,1	-0,239825
5,362500	0,1	-0,265693
5,364167	0,1	-0,238219
5,365833	0,1	-0,272697
5,367500	0,1	-0,236611
5,369167	0,1	-0,286684
5,370833	0,1	-0,267447
5,372500	0,1	-0,276770
5,374167	0,1	-0,271655
5,375833	0,1	-0,287565
5,377500	0,1	-0,259873
5,379167	0,1	-0,287018
5,380833	0,1	-0,269200
5,382500	0,1	-0,232060
5,384167	0,1	-0,283006
5,385833	0,1	-0,259351
5,387500	0,1	-0,278161
5,389167	0,1	-0,263487
5,390833	0,1	-0,290175
5,392500	0,1	-0,259534
5,394167	0,1	-0,279394
5,395833	0,1	-0,276131
5,397500	0,1	-0,262774
5,399167	0,1	-0,265867
5,400833	0,1	-0,257652
5,402500	0,1	-0,256078
5,404167	0,1	-0,268541
5,405833	0,1	-0,270468
5,407500	0,1	-0,286850
5,409167	0,1	-0,273678
5,410833	0,1	-0,273433
5,412500	0,1	-0,298974
5,414167	0,1	-0,289774
5,415833	0,1	-0,276013
5,417500	0,1	-0,300499
5,419167	0,1	-0,280796
5,420833	0,1	-0,255720
5,422500	0,1	-0,253053
5,424167	0,1	-0,254382
5,425833	0,1	-0,252857
5,427500	0,1	-0,292388
5,429167	0,1	-0,285623
5,430833	0,1	-0,239856
5,432500	0,1	-0,275893
5,434167	0,1	-0,246232
5,435833	0,1	-0,272725
5,437500	0,1	-0,270116
5,439167	0,1	-0,281139
5,440833	0,1	-0,258528
5,442500	0,1	-0,269666
5,444167	0,1	-0,275078
5,445833	0,1	-0,264939
5,447500	0,1	-0,281308
5,449167	0,1	-0,217191
5,450833	0,1	-0,275875
5,452500	0,1	-0,272514
5,454167	0,1	-0,293072
5,455833	0,1	-0,288550
5,457500	0,1	-0,248800
5,459167	0,1	-0,282936
5,460833	0,1	-0,260282
5,462500	0,1	-0,250307
5,464167	0,1	-0,283809
5,465833	0,1	-0,282135
5,467500	0,1	-0,270421
5,469167	0,1	-0,268954
5,470833	0,1	-0,297643
5,472500	0,1	-0,294723
5,474167	0,1	-0,251259
5,475833	0,1	-0,277179
5,477500	0,1	-0,281963
5,479167	0,1	-0,263766
5,480833	0,1	-0,259236
5,482500	0,1	-0,256246
5,484167	0,1	-0,271117
5,485833	0,1	-0,264465
5,487500	0,1	-0,245697
5,489167	0,1	-0,267800
5,490833	0,1	-0,257181
5,492500	0,1	-0,278402
5,494167	0,1	-0,285049
5,495833	0,1	-0,275965
5,497500	0,1	-0,279616
5,499167	0,1	-0,250419
5,500833	0,1	-0,281073
5,502500	0,1	-0,242338
5,504167	0,1	-0,305681
5,505833	0,1	-0,279116
5,507500	0,1	-0,266331
5,509167	0,1	-0,303172
5,510833	0,1	-0,287911
5,512500	0,1	-0,279971
5,514167	0,1	-0,298045
5,515833	0,1	-0,276535
5,517500	0,1	-0,261854
5,519167	0,1	-0,287089
5,520833	0,1	-0,295603
5,522500	0,1	-0,285805
5,524167	0,1	-0,253167
5,525833	0,1	-0,272277
5,527500	0,1	-0,266100
5,529167	0,1	-0,265831
5,530833	0,1	-0,298562
5,532500	0,1	-0,284304
5,534167	0,1	-0,271063
5,535833	0,1	-0,298405
5,537500	0,1	-0,285345
5,539167	0,1	-0,265570
5,540833	0,1	-0,259468
5,542500	0,1	-0,270815
5,544167	0,1	-0,248154
5,545833	0,1	-0,256582
5,547500	0,1	-0,246700
5,549167	0,1	-0,277141
5,550833	0,1	-0,283175
5,552500	0,1	-0,256205
5,554167	0,1	-0,279225
5,555833	0,1	-0,283646
5,557500	0,1	-0,292164
5,559167	0,1	-0,257248
5,560833	0,1	-0,317166
5,562500	0,1	-0,276480
5,564167	0,1	-0,302000
5,565833	0,1	-0,312266
5,567500	0,1	-0,312621
5,569167	0,1	-0,227824
5,570833	0,1	-0,273131
5,572500	0,1	-0,257932
5,574167	0,1	-0,261800
5,575833	0,1	-0,282771
5,577500	0,1	-0,257306
5,579167	0,1	-0,269606
5,580833	0,1	-0,306427
5,582500	0,1	-0,269799
5,584167	0,1	-0,259469
5,585833	0,1	-0,277990
5,587500	0,1	-0,361104
5,589167	0,1	-0,246070
5,590833	0,1	-0,269553
5,592500	0,1	-0,324782
5,594167	0,1	-0,260110
5,595833	0,1	-0,283060
5,597500	0,1	-0,288595
5,599167	0,1	-0,303600
5,600833	0,1	-0,296029
5,602500	0,1	-0,277589
5,604167	0,1	-0,268557
5,605833	0,1	-0,321016
5,607500	0,1	-0,260049
5,609167	0,1	-0,273683
5,610833	0,1	-0,263838
5,612500	0,1	-0,270538
5,614167	0,1	-0,263656
5,615833	0,1	-0,285918
5,617500	0,1	-0,290301
5,619167	0,1	-0,270594
5,620833	0,1	-0,290879
5,622500	0,1	-0,265716
5,624167	0,1	-0,288373
5,625833	0,1	-0,274814
5,627500	0,1	-0,309816
5,629167	0,1	-0,295098
5,630833	0,1	-0,315712
5,632500	0,1	-0,251735
5,634167	0,1	-0,302490
5,635833	0,1	-0,285296
5,637500	0,1	-0,223403
5,639167	0,1	-0,264467
5,640833	0,1	-0,289957
5,642500	0,1	-0,260344
5,644167	0,1	-0,262261
5,645833	0,1	-0,296648
5,647500	0,1	-0,273111
5,649167	0,1	-0,286622
5,650833	0,1	-0,301263
5,652500	0,1	-0,271540
5,654167	0,1	-0,310929
5,655833	0,1	-0,283787
5,657500	0,1	-0,292856
5,659167	0,1	-0,265609
5,660833	0,1	-0,306086
5,662500	0,1	-0,299115
5,664167	0,1	-0,313802
5,665833	0,1	-0,310298
5,667500	0,1	-0,281779
5,669167	0,1	-0,293047
5,670833	0,1	-0,301227
5,672500	0,1	-0,276791
5,674167	0,1	-0,271837
5,675833	0,1	-0,281092
5,677500	0,1	-0,314099
5,679167	0,1	-0,277701
5,680833	0,1	-0,294087
5,682500	0,1	-0,310013
5,684167	0,1	-0,315776
5,685833	0,1	-0,262855
5,687500	0,1	-0,282503
5,689167	0,1	-0,314328
5,690833	0,1	-0,274240
5,692500	0,1	-0,301079
5,694167	0,1	-0,310765
5,695833	0,1	-0,287924
5,697500	0,1	-0,283201
5,699167	0,1	-0,267289
5,700833	0,1	-0,310817
5,702500	0,1	-0,277435
5,704167	0,1	-0,278357
5,705833	0,1	-0,288849
5,707500	0,1	-0,314088
5,709167	0,1	-0,252134
5,710833	0,1	-0,287668
5,712500	0,1	-0,274149
5,714167	0,1	-0,305870
5,715833	0,1	-0,265346
5,717500	0,1	-0,336696
5,719167	0,1	-0,306637
5,720833	0,1	-0,283253
5,722500	0,1	-0,262316
5,724167	0,1	-0,282020
5,725833	0,1	-0,315661
5,727500	0,1	-0,315329
5,729167	0,1	-0,296019
5,730833	0,1	-0,287037
5,732500	0,1	-0,273471
5,734167	0,1	-0,266524
5,735833	0,1	-0,277122
5,737500	0,1	-0,309137
5,739167	0,1	-0,284948
5,740833	0,1	-0,271173
5,742500	0,1	-0,290758
5,744167	0,1	-0,266636
5,745833	0,1	-0,266933
5,747500	0,1	-0,294557
5,749167	0,1	-0,283541
5,750833	0,1	-0,310290
5,752500	0,1	-0,293768
5,754167	0,1	-0,338275
5,755833	0,1	-0,301676
5,757500	0,1	-0,289073
5,759167	0,1	-0,310120
5,760833	0,1	-0,279624
5,762500	0,1	-0,311921
5,764167	0,1	-0,308663
5,765833	0,1	-0,308722
5,767500	0,1	-0,272835
5,769167	0,1	-0,297812
5,770833	0,1	-0,281629
5,772500	0,1	-0,253882
5,774167	0,1	-0,288732
5,775833	0,1	-0,283950
5,777500	0,1	-0,305450
5,779167	0,1	-0,273864
5,780833	0,1	-0,291413
5,782500	0,1	-0,314200
5,784167	0,1	-0,302203
5,785833	0,1	-0,287052
5,787500	0,1	-0,295663
5,789167	0,1	-0,276135
5,790833	0,1	-0,255320
5,792500	0,1	-0,276126
5,794167	0,1	-0,289006
5,795833	0,1	-0,287979
5,797500	0,1	-0,316993
5,799167	0,1	-0,353308
5,800833	0,1	-0,328731
5,802500	0,1	-0,277644
5,804167	0,1	-0,314787
5,805833	0,1	-0,325576
5,807500	0,1	-0,275914
5,809167	0,1	-0,302603
5,810833	0,1	-0,290426
5,812500	0,1	-0,323647
5,814167	0,1	-0,300802
5,815833	0,1	-0,298594
5,817500	0,1	-0,302307
5,819167	0,1	-0,283033
5,820833	0,1	-0,298878
5,822500	0,1	-0,306215
5,824167	0,1	-0,288372
5,825833	0,1	-0,307797
5,827500	0,1	-0,268638
5,829167	0,1	-0,309245
5,830833	0,1	-0,311820
5,832500	0,1	-0,285107
5,834167	0,1	-0,323115
5,835833	0,1	-0,291666
5,837500	0,1	-0,311404
5,839167	0,1	-0,285009
5,840833	0,1	-0,293339
5,842500	0,1	-0,287351
5,844167	0,1	-0,344965
5,845833	0,1	-0,309784
5,847500	0,1	-0,322321
5,849167	0,1	-0,277437
5,850833	0,1	-0,300912
5,852500	0,1	-0,298654
5,854167	0,1	-0,292181
5,855833	0,1	-0,326624
5,857500	0,1	-0,298238
5,859167	0,1	-0,269106
5,860833	0,1	-0,337218
5,862500	0,1	-0,292600
5,864167	0,1	-0,327365
5,865833	0,1	-0,258043
5,867500	0,1	-0,300894
5,869167	0,1	-0,250631
5,870833	0,1	-0,294395
5,872500	0,1	-0,289323
5,874167	0,1	-0,271295
5,875833	0,1	-0,274629
5,877500	0,1	-0,315297
5,879167	0,1	-0,310720
5,880833	0,1	-0,311821
5,882500	0,1	-0,291180
5,884167	0,1	-0,320272
5,885833	0,1	-0,288399
5,887500	0,1	-0,270701
5,889167	0,1	-0,293625
5,890833	0,1	-0,291525
5,892500	0,1	-0,283081
5,894167	0,1	-0,299630
5,895833	0,1	-0,311225
5,897500	0,1	-0,326858
5,899167	0,1	-0,278600
5,900833	0,1	-0,305350
5,902500	0,1	-0,283967
5,904167	0,1	-0,280622
5,905833	0,1	-0,279872
5,907500	0,1	-0,290991
5,909167	0,1	-0,260757
5,910833	0,1	-0,323941
5,912500	0,1	-0,290021
5,914167	0,1	-0,309721
5,915833	0,1	-0,294736
5,917500	0,1	-0,287993
5,919167	0,1	-0,277768
5,920833	0,1	-0,298105
5,922500	0,1	-0,300275
5,924167	0,1	-0,306107
5,925833	0,1	-0,273526
5,927500	0,1	-0,302374
5,929167	0,1	-0,290909
5,930833	0,1	-0,295674
5,932500	0,1	-0,317467
5,934167	0,1	-0,303315
5,935833	0,1	-0,312520
5,937500	0,1	-0,302142
5,939167	0,1	-0,300045
5,940833	0,1	-0,305597
5,942500	0,1	-0,307451
5,944167	0,1	-0,319854
5,945833	0,1	-0,280811
5,947500	0,1	-0,305280
5,949167	0,1	-0,300616
5,950833	0,1	-0,305285
5,952500	0,1	-0,301499
5,954167	0,1	-0,327268
5,955833	0,1	-0,277680
5,957500	0,1	-0,312371
5,959167	0,1	-0,303253
5,960833	0,1	-0,309133
5,962500	0,1	-0,292244
5,964167	0,1	-0,271078
5,965833	0,1	-0,336517
5,967500	0,1	-0,348936
5,969167	0,1	-0,335976
5,970833	0,1	-0,315382
5,972500	0,1	-0,290661
5,974167	0,1	-0,348765
5,975833	0,1	-0,289628
5,977500	0,1	-0,325811
5,979167	0,1	-0,336961
5,980833	0,1	-0,309602
5,982500	0,1	-0,289145
5,984167	0,1	-0,294683
5,985833	0,1	-0,285234
5,987500	0,1	-0,324528
5,989167	0,1	-0,306523
5,990833	0,1	-0,279865
5,992500	0,1	-0,291995
5,994167	0,1	-0,330411
5,995833	0,1	-0,309902
5,997500	0,1	-0,295510
5,999167	0,1	-0,280335
6,000833	0,1	-0,297656
