File Path	chrom://chromeleon01/ikbm_chromeleon/2022/Rezex/Esteban/220612_chitin_4_7.seq/558.smp/UV_VIS_1.channel/UV_VIS_1.chm
Channel	UV_VIS_1

Injection Information:
Data Vault	ikbm_chromeleon
Injection	Blank__04
Injection Number	24
Position	RC4
Comment	
Processing Method	New ProcMethod
Instrument Method	Short_Rezex_6min_194nm
Type	Blank
Status	Finished
Injection Date	12.06.2022
Injection Time	19:43:10
Injection Volume (µl)	8,000
Dilution Factor	1,0000
Weight	1,0000

Chromatogram Data Information:
Time Min. (min)	0,000833
Time Max. (min)	6,000833
Data Points	3601
Detector	UV
Generating Data System	Chromeleon 7.2.9.11323
Exporting Data System	Chromeleon 7.2.9.0
Operator	Instrument Controller
Signal Quantity	Absorbance
Signal Unit	mAU
Signal Min.	-0,393569
Signal Max.	2,864351
Channel	UV_VIS_1
Driver Name	VWD3000.dll
Channel Type	Evaluation
Min. Step (s)	0,1
Max. Step (s)	0,1
Average Step (s)	0,1

Signal Parameter Information:
Signal Info	WVL:194 nm

Chromatogram Data:
Time (min)	Step (s)	Value (mAU)
0,000833	n.a.	-0,019668
0,002500	0,1	-0,000141
0,004167	0,1	-0,022660
0,005833	0,1	-0,036632
0,007500	0,1	-0,018572
0,009167	0,1	-0,045302
0,010833	0,1	-0,061461
0,012500	0,1	-0,032799
0,014167	0,1	-0,058093
0,015833	0,1	-0,035681
0,017500	0,1	-0,007198
0,019167	0,1	-0,029271
0,020833	0,1	-0,038567
0,022500	0,1	-0,017323
0,024167	0,1	-0,012225
0,025833	0,1	-0,032039
0,027500	0,1	-0,068697
0,029167	0,1	-0,033405
0,030833	0,1	-0,035990
0,032500	0,1	-0,033915
0,034167	0,1	-0,033270
0,035833	0,1	-0,049007
0,037500	0,1	-0,058034
0,039167	0,1	-0,068059
0,040833	0,1	-0,032382
0,042500	0,1	-0,057159
0,044167	0,1	-0,022837
0,045833	0,1	-0,055679
0,047500	0,1	-0,043880
0,049167	0,1	-0,069651
0,050833	0,1	-0,042280
0,052500	0,1	-0,070839
0,054167	0,1	-0,029956
0,055833	0,1	-0,060608
0,057500	0,1	-0,040455
0,059167	0,1	-0,085126
0,060833	0,1	-0,037709
0,062500	0,1	-0,042751
0,064167	0,1	-0,064896
0,065833	0,1	-0,058164
0,067500	0,1	-0,067980
0,069167	0,1	-0,069870
0,070833	0,1	-0,040558
0,072500	0,1	-0,054189
0,074167	0,1	-0,007618
0,075833	0,1	-0,052600
0,077500	0,1	-0,015164
0,079167	0,1	-0,060085
0,080833	0,1	-0,044171
0,082500	0,1	-0,062733
0,084167	0,1	-0,076502
0,085833	0,1	-0,044238
0,087500	0,1	-0,073212
0,089167	0,1	-0,042014
0,090833	0,1	-0,061506
0,092500	0,1	-0,040659
0,094167	0,1	-0,039073
0,095833	0,1	-0,049259
0,097500	0,1	-0,043980
0,099167	0,1	-0,065169
0,100833	0,1	-0,035667
0,102500	0,1	-0,060278
0,104167	0,1	-0,054383
0,105833	0,1	-0,035461
0,107500	0,1	-0,092939
0,109167	0,1	-0,048816
0,110833	0,1	-0,051840
0,112500	0,1	-0,070305
0,114167	0,1	-0,085172
0,115833	0,1	-0,028607
0,117500	0,1	-0,118799
0,119167	0,1	-0,049696
0,120833	0,1	-0,082156
0,122500	0,1	-0,055857
0,124167	0,1	-0,062195
0,125833	0,1	-0,058392
0,127500	0,1	-0,074299
0,129167	0,1	-0,074052
0,130833	0,1	-0,039562
0,132500	0,1	-0,036432
0,134167	0,1	-0,045149
0,135833	0,1	-0,047390
0,137500	0,1	-0,053609
0,139167	0,1	-0,040695
0,140833	0,1	-0,062795
0,142500	0,1	-0,064114
0,144167	0,1	-0,080620
0,145833	0,1	-0,051643
0,147500	0,1	-0,055686
0,149167	0,1	-0,033338
0,150833	0,1	-0,071322
0,152500	0,1	-0,094093
0,154167	0,1	-0,084637
0,155833	0,1	-0,060457
0,157500	0,1	-0,038622
0,159167	0,1	-0,075851
0,160833	0,1	-0,064259
0,162500	0,1	-0,049872
0,164167	0,1	-0,073879
0,165833	0,1	-0,084796
0,167500	0,1	-0,042699
0,169167	0,1	-0,037558
0,170833	0,1	-0,062048
0,172500	0,1	-0,045775
0,174167	0,1	-0,048365
0,175833	0,1	-0,044004
0,177500	0,1	-0,062277
0,179167	0,1	-0,072342
0,180833	0,1	-0,054219
0,182500	0,1	-0,056793
0,184167	0,1	-0,057684
0,185833	0,1	-0,056605
0,187500	0,1	-0,064066
0,189167	0,1	-0,059892
0,190833	0,1	-0,038292
0,192500	0,1	-0,023021
0,194167	0,1	-0,071838
0,195833	0,1	-0,018832
0,197500	0,1	-0,054687
0,199167	0,1	-0,050451
0,200833	0,1	-0,039138
0,202500	0,1	-0,037416
0,204167	0,1	-0,059697
0,205833	0,1	-0,035147
0,207500	0,1	-0,061505
0,209167	0,1	-0,081114
0,210833	0,1	-0,040460
0,212500	0,1	-0,078162
0,214167	0,1	-0,066215
0,215833	0,1	-0,077147
0,217500	0,1	-0,079561
0,219167	0,1	-0,007587
0,220833	0,1	-0,066365
0,222500	0,1	-0,073343
0,224167	0,1	-0,060413
0,225833	0,1	-0,042363
0,227500	0,1	-0,049867
0,229167	0,1	-0,040883
0,230833	0,1	-0,055831
0,232500	0,1	-0,033819
0,234167	0,1	-0,069946
0,235833	0,1	-0,051657
0,237500	0,1	-0,057163
0,239167	0,1	-0,054215
0,240833	0,1	-0,049719
0,242500	0,1	-0,039720
0,244167	0,1	-0,045606
0,245833	0,1	-0,050905
0,247500	0,1	-0,079516
0,249167	0,1	-0,022994
0,250833	0,1	-0,050340
0,252500	0,1	0,001218
0,254167	0,1	-0,064513
0,255833	0,1	-0,063281
0,257500	0,1	-0,108246
0,259167	0,1	-0,050612
0,260833	0,1	-0,054025
0,262500	0,1	-0,095273
0,264167	0,1	-0,055262
0,265833	0,1	-0,047267
0,267500	0,1	-0,047871
0,269167	0,1	-0,048705
0,270833	0,1	-0,040845
0,272500	0,1	-0,057325
0,274167	0,1	-0,039180
0,275833	0,1	-0,063879
0,277500	0,1	-0,056874
0,279167	0,1	-0,051615
0,280833	0,1	-0,047329
0,282500	0,1	-0,038933
0,284167	0,1	-0,084812
0,285833	0,1	-0,060211
0,287500	0,1	-0,051679
0,289167	0,1	-0,052485
0,290833	0,1	-0,056792
0,292500	0,1	-0,095316
0,294167	0,1	-0,038734
0,295833	0,1	-0,054189
0,297500	0,1	-0,057022
0,299167	0,1	-0,061510
0,300833	0,1	-0,060787
0,302500	0,1	-0,046608
0,304167	0,1	-0,049198
0,305833	0,1	-0,029039
0,307500	0,1	-0,052999
0,309167	0,1	-0,046065
0,310833	0,1	-0,030491
0,312500	0,1	-0,018344
0,314167	0,1	-0,074227
0,315833	0,1	-0,040103
0,317500	0,1	-0,046351
0,319167	0,1	-0,035789
0,320833	0,1	-0,028114
0,322500	0,1	-0,032499
0,324167	0,1	-0,011836
0,325833	0,1	-0,053475
0,327500	0,1	-0,045915
0,329167	0,1	-0,065353
0,330833	0,1	-0,049746
0,332500	0,1	-0,004016
0,334167	0,1	-0,027173
0,335833	0,1	-0,030565
0,337500	0,1	-0,036885
0,339167	0,1	-0,044914
0,340833	0,1	-0,038948
0,342500	0,1	-0,014290
0,344167	0,1	-0,035718
0,345833	0,1	-0,039930
0,347500	0,1	-0,070838
0,349167	0,1	-0,053055
0,350833	0,1	-0,009348
0,352500	0,1	-0,048608
0,354167	0,1	-0,045332
0,355833	0,1	-0,034210
0,357500	0,1	-0,054707
0,359167	0,1	-0,008515
0,360833	0,1	-0,054370
0,362500	0,1	-0,049760
0,364167	0,1	-0,045646
0,365833	0,1	-0,057869
0,367500	0,1	-0,039643
0,369167	0,1	-0,030404
0,370833	0,1	-0,042648
0,372500	0,1	-0,018284
0,374167	0,1	-0,027843
0,375833	0,1	-0,006993
0,377500	0,1	-0,014219
0,379167	0,1	-0,018733
0,380833	0,1	-0,066761
0,382500	0,1	-0,029914
0,384167	0,1	-0,004163
0,385833	0,1	-0,046446
0,387500	0,1	-0,038722
0,389167	0,1	-0,043814
0,390833	0,1	-0,055228
0,392500	0,1	-0,043440
0,394167	0,1	-0,021278
0,395833	0,1	-0,049217
0,397500	0,1	-0,061218
0,399167	0,1	-0,077624
0,400833	0,1	-0,016296
0,402500	0,1	-0,056322
0,404167	0,1	-0,027082
0,405833	0,1	0,026174
0,407500	0,1	-0,039183
0,409167	0,1	0,009790
0,410833	0,1	-0,020180
0,412500	0,1	-0,024331
0,414167	0,1	-0,031501
0,415833	0,1	-0,018571
0,417500	0,1	-0,048610
0,419167	0,1	-0,030925
0,420833	0,1	-0,052464
0,422500	0,1	-0,041427
0,424167	0,1	-0,036535
0,425833	0,1	-0,020443
0,427500	0,1	-0,047510
0,429167	0,1	0,022427
0,430833	0,1	-0,022755
0,432500	0,1	-0,018961
0,434167	0,1	-0,020856
0,435833	0,1	-0,032852
0,437500	0,1	-0,038678
0,439167	0,1	-0,006288
0,440833	0,1	-0,053599
0,442500	0,1	0,029162
0,444167	0,1	-0,043011
0,445833	0,1	-0,030631
0,447500	0,1	-0,043419
0,449167	0,1	-0,048632
0,450833	0,1	-0,038100
0,452500	0,1	-0,055123
0,454167	0,1	0,006955
0,455833	0,1	0,018370
0,457500	0,1	-0,007601
0,459167	0,1	-0,028007
0,460833	0,1	-0,016361
0,462500	0,1	-0,061148
0,464167	0,1	-0,014169
0,465833	0,1	-0,003641
0,467500	0,1	-0,027054
0,469167	0,1	-0,030046
0,470833	0,1	-0,007031
0,472500	0,1	-0,018920
0,474167	0,1	-0,000104
0,475833	0,1	-0,029090
0,477500	0,1	0,016820
0,479167	0,1	-0,044775
0,480833	0,1	0,010244
0,482500	0,1	0,007805
0,484167	0,1	-0,014364
0,485833	0,1	0,039196
0,487500	0,1	-0,009696
0,489167	0,1	0,021437
0,490833	0,1	0,008907
0,492500	0,1	0,005578
0,494167	0,1	0,003847
0,495833	0,1	-0,027460
0,497500	0,1	-0,020581
0,499167	0,1	0,003056
0,500833	0,1	-0,014758
0,502500	0,1	-0,001455
0,504167	0,1	0,014095
0,505833	0,1	-0,053177
0,507500	0,1	0,005085
0,509167	0,1	-0,011864
0,510833	0,1	0,017013
0,512500	0,1	-0,031491
0,514167	0,1	0,016427
0,515833	0,1	-0,011469
0,517500	0,1	0,000519
0,519167	0,1	0,009192
0,520833	0,1	-0,011496
0,522500	0,1	0,006078
0,524167	0,1	-0,019765
0,525833	0,1	-0,036616
0,527500	0,1	0,037762
0,529167	0,1	-0,014309
0,530833	0,1	0,013992
0,532500	0,1	0,001612
0,534167	0,1	0,020177
0,535833	0,1	-0,014691
0,537500	0,1	-0,000960
0,539167	0,1	-0,019019
0,540833	0,1	0,015935
0,542500	0,1	-0,018396
0,544167	0,1	0,009605
0,545833	0,1	-0,001360
0,547500	0,1	0,059045
0,549167	0,1	0,039403
0,550833	0,1	-0,032294
0,552500	0,1	-0,005946
0,554167	0,1	-0,016797
0,555833	0,1	0,021169
0,557500	0,1	-0,004921
0,559167	0,1	0,010758
0,560833	0,1	0,022465
0,562500	0,1	0,048001
0,564167	0,1	-0,007634
0,565833	0,1	-0,003929
0,567500	0,1	0,023727
0,569167	0,1	-0,005250
0,570833	0,1	0,035746
0,572500	0,1	0,006622
0,574167	0,1	0,012795
0,575833	0,1	0,029533
0,577500	0,1	0,019223
0,579167	0,1	-0,016562
0,580833	0,1	0,051405
0,582500	0,1	0,009356
0,584167	0,1	0,008891
0,585833	0,1	0,007183
0,587500	0,1	0,051628
0,589167	0,1	0,008004
0,590833	0,1	0,041072
0,592500	0,1	0,061861
0,594167	0,1	0,036344
0,595833	0,1	0,006129
0,597500	0,1	0,043346
0,599167	0,1	0,030019
0,600833	0,1	-0,001773
0,602500	0,1	0,033358
0,604167	0,1	0,030472
0,605833	0,1	0,002171
0,607500	0,1	0,053774
0,609167	0,1	0,034182
0,610833	0,1	0,034177
0,612500	0,1	0,013409
0,614167	0,1	0,023858
0,615833	0,1	0,047610
0,617500	0,1	0,087978
0,619167	0,1	0,063844
0,620833	0,1	0,070247
0,622500	0,1	0,047597
0,624167	0,1	0,073985
0,625833	0,1	0,041630
0,627500	0,1	0,043809
0,629167	0,1	0,004134
0,630833	0,1	0,041171
0,632500	0,1	0,070696
0,634167	0,1	0,052525
0,635833	0,1	0,087335
0,637500	0,1	0,065134
0,639167	0,1	0,051425
0,640833	0,1	0,021186
0,642500	0,1	0,041189
0,644167	0,1	0,075501
0,645833	0,1	0,088795
0,647500	0,1	0,048689
0,649167	0,1	0,050903
0,650833	0,1	0,127664
0,652500	0,1	0,086810
0,654167	0,1	0,051595
0,655833	0,1	0,049653
0,657500	0,1	0,047098
0,659167	0,1	0,064353
0,660833	0,1	0,043715
0,662500	0,1	0,086498
0,664167	0,1	0,070126
0,665833	0,1	0,096365
0,667500	0,1	0,035608
0,669167	0,1	0,058093
0,670833	0,1	0,085656
0,672500	0,1	0,090322
0,674167	0,1	0,101328
0,675833	0,1	0,078295
0,677500	0,1	0,028599
0,679167	0,1	0,081047
0,680833	0,1	0,083438
0,682500	0,1	0,121713
0,684167	0,1	0,048368
0,685833	0,1	0,114314
0,687500	0,1	0,071978
0,689167	0,1	0,084471
0,690833	0,1	0,135699
0,692500	0,1	0,100958
0,694167	0,1	0,120775
0,695833	0,1	0,092991
0,697500	0,1	0,089824
0,699167	0,1	0,124485
0,700833	0,1	0,091210
0,702500	0,1	0,094055
0,704167	0,1	0,080608
0,705833	0,1	0,096787
0,707500	0,1	0,133224
0,709167	0,1	0,105889
0,710833	0,1	0,079474
0,712500	0,1	0,111587
0,714167	0,1	0,115200
0,715833	0,1	0,093660
0,717500	0,1	0,113071
0,719167	0,1	0,123782
0,720833	0,1	0,107339
0,722500	0,1	0,092861
0,724167	0,1	0,109774
0,725833	0,1	0,101243
0,727500	0,1	0,097563
0,729167	0,1	0,117495
0,730833	0,1	0,118171
0,732500	0,1	0,097539
0,734167	0,1	0,171104
0,735833	0,1	0,112927
0,737500	0,1	0,124591
0,739167	0,1	0,099830
0,740833	0,1	0,143051
0,742500	0,1	0,091288
0,744167	0,1	0,123424
0,745833	0,1	0,140387
0,747500	0,1	0,123363
0,749167	0,1	0,111172
0,750833	0,1	0,111106
0,752500	0,1	0,130284
0,754167	0,1	0,175364
0,755833	0,1	0,152133
0,757500	0,1	0,101470
0,759167	0,1	0,182097
0,760833	0,1	0,147494
0,762500	0,1	0,131811
0,764167	0,1	0,125877
0,765833	0,1	0,155282
0,767500	0,1	0,140004
0,769167	0,1	0,177656
0,770833	0,1	0,119920
0,772500	0,1	0,163082
0,774167	0,1	0,165706
0,775833	0,1	0,177152
0,777500	0,1	0,193660
0,779167	0,1	0,141656
0,780833	0,1	0,139937
0,782500	0,1	0,147510
0,784167	0,1	0,143253
0,785833	0,1	0,196584
0,787500	0,1	0,180347
0,789167	0,1	0,088327
0,790833	0,1	0,177486
0,792500	0,1	0,143452
0,794167	0,1	0,168018
0,795833	0,1	0,141714
0,797500	0,1	0,149801
0,799167	0,1	0,189656
0,800833	0,1	0,124919
0,802500	0,1	0,172749
0,804167	0,1	0,207038
0,805833	0,1	0,183738
0,807500	0,1	0,204688
0,809167	0,1	0,167163
0,810833	0,1	0,169024
0,812500	0,1	0,183437
0,814167	0,1	0,190181
0,815833	0,1	0,153228
0,817500	0,1	0,169891
0,819167	0,1	0,187760
0,820833	0,1	0,200175
0,822500	0,1	0,184445
0,824167	0,1	0,179827
0,825833	0,1	0,183087
0,827500	0,1	0,174987
0,829167	0,1	0,229522
0,830833	0,1	0,193770
0,832500	0,1	0,225686
0,834167	0,1	0,249617
0,835833	0,1	0,236694
0,837500	0,1	0,226597
0,839167	0,1	0,266165
0,840833	0,1	0,211771
0,842500	0,1	0,192570
0,844167	0,1	0,233357
0,845833	0,1	0,224954
0,847500	0,1	0,220790
0,849167	0,1	0,227495
0,850833	0,1	0,220727
0,852500	0,1	0,226368
0,854167	0,1	0,271611
0,855833	0,1	0,223220
0,857500	0,1	0,222756
0,859167	0,1	0,255908
0,860833	0,1	0,270170
0,862500	0,1	0,225055
0,864167	0,1	0,235167
0,865833	0,1	0,224017
0,867500	0,1	0,245426
0,869167	0,1	0,272167
0,870833	0,1	0,244439
0,872500	0,1	0,268843
0,874167	0,1	0,274367
0,875833	0,1	0,279751
0,877500	0,1	0,268206
0,879167	0,1	0,275719
0,880833	0,1	0,295524
0,882500	0,1	0,292626
0,884167	0,1	0,273627
0,885833	0,1	0,266658
0,887500	0,1	0,311132
0,889167	0,1	0,288790
0,890833	0,1	0,289142
0,892500	0,1	0,266565
0,894167	0,1	0,285006
0,895833	0,1	0,258372
0,897500	0,1	0,285263
0,899167	0,1	0,312973
0,900833	0,1	0,289436
0,902500	0,1	0,290913
0,904167	0,1	0,332876
0,905833	0,1	0,289732
0,907500	0,1	0,356583
0,909167	0,1	0,305799
0,910833	0,1	0,331879
0,912500	0,1	0,294213
0,914167	0,1	0,330909
0,915833	0,1	0,310954
0,917500	0,1	0,348394
0,919167	0,1	0,319795
0,920833	0,1	0,297858
0,922500	0,1	0,349165
0,924167	0,1	0,328212
0,925833	0,1	0,348174
0,927500	0,1	0,315795
0,929167	0,1	0,317174
0,930833	0,1	0,316593
0,932500	0,1	0,348559
0,934167	0,1	0,355048
0,935833	0,1	0,301250
0,937500	0,1	0,380068
0,939167	0,1	0,376928
0,940833	0,1	0,350573
0,942500	0,1	0,356405
0,944167	0,1	0,378504
0,945833	0,1	0,404087
0,947500	0,1	0,381834
0,949167	0,1	0,376316
0,950833	0,1	0,366475
0,952500	0,1	0,374312
0,954167	0,1	0,386183
0,955833	0,1	0,403379
0,957500	0,1	0,380192
0,959167	0,1	0,406574
0,960833	0,1	0,399513
0,962500	0,1	0,378385
0,964167	0,1	0,386249
0,965833	0,1	0,402769
0,967500	0,1	0,430518
0,969167	0,1	0,444424
0,970833	0,1	0,441948
0,972500	0,1	0,413232
0,974167	0,1	0,431910
0,975833	0,1	0,474593
0,977500	0,1	0,397723
0,979167	0,1	0,436678
0,980833	0,1	0,449429
0,982500	0,1	0,411141
0,984167	0,1	0,428548
0,985833	0,1	0,427233
0,987500	0,1	0,400396
0,989167	0,1	0,456422
0,990833	0,1	0,450404
0,992500	0,1	0,455375
0,994167	0,1	0,468211
0,995833	0,1	0,466182
0,997500	0,1	0,495409
0,999167	0,1	0,438892
1,000833	0,1	0,485534
1,002500	0,1	0,497676
1,004167	0,1	0,456640
1,005833	0,1	0,472502
1,007500	0,1	0,532326
1,009167	0,1	0,501401
1,010833	0,1	0,478097
1,012500	0,1	0,518233
1,014167	0,1	0,517306
1,015833	0,1	0,526567
1,017500	0,1	0,497013
1,019167	0,1	0,535493
1,020833	0,1	0,584292
1,022500	0,1	0,523029
1,024167	0,1	0,550438
1,025833	0,1	0,549744
1,027500	0,1	0,586785
1,029167	0,1	0,535524
1,030833	0,1	0,539152
1,032500	0,1	0,577035
1,034167	0,1	0,583656
1,035833	0,1	0,552530
1,037500	0,1	0,539192
1,039167	0,1	0,603339
1,040833	0,1	0,568566
1,042500	0,1	0,588501
1,044167	0,1	0,602257
1,045833	0,1	0,564955
1,047500	0,1	0,578792
1,049167	0,1	0,592956
1,050833	0,1	0,589126
1,052500	0,1	0,624628
1,054167	0,1	0,583810
1,055833	0,1	0,581761
1,057500	0,1	0,596130
1,059167	0,1	0,645800
1,060833	0,1	0,639093
1,062500	0,1	0,592113
1,064167	0,1	0,651700
1,065833	0,1	0,597083
1,067500	0,1	0,626698
1,069167	0,1	0,645069
1,070833	0,1	0,682361
1,072500	0,1	0,640077
1,074167	0,1	0,660052
1,075833	0,1	0,656565
1,077500	0,1	0,685576
1,079167	0,1	0,676254
1,080833	0,1	0,690365
1,082500	0,1	0,663806
1,084167	0,1	0,731706
1,085833	0,1	0,697993
1,087500	0,1	0,717196
1,089167	0,1	0,687237
1,090833	0,1	0,733493
1,092500	0,1	0,744256
1,094167	0,1	0,706165
1,095833	0,1	0,691348
1,097500	0,1	0,734114
1,099167	0,1	0,737353
1,100833	0,1	0,728513
1,102500	0,1	0,734190
1,104167	0,1	0,739714
1,105833	0,1	0,738110
1,107500	0,1	0,730808
1,109167	0,1	0,721988
1,110833	0,1	0,733874
1,112500	0,1	0,788099
1,114167	0,1	0,802386
1,115833	0,1	0,755939
1,117500	0,1	0,764811
1,119167	0,1	0,793985
1,120833	0,1	0,778405
1,122500	0,1	0,762723
1,124167	0,1	0,763122
1,125833	0,1	0,800421
1,127500	0,1	0,760127
1,129167	0,1	0,804896
1,130833	0,1	0,818135
1,132500	0,1	0,825709
1,134167	0,1	0,857581
1,135833	0,1	0,816010
1,137500	0,1	0,857980
1,139167	0,1	0,825809
1,140833	0,1	0,845019
1,142500	0,1	0,797633
1,144167	0,1	0,843609
1,145833	0,1	0,818299
1,147500	0,1	0,886845
1,149167	0,1	0,849222
1,150833	0,1	0,891953
1,152500	0,1	0,835926
1,154167	0,1	0,885133
1,155833	0,1	0,886081
1,157500	0,1	0,894900
1,159167	0,1	0,911118
1,160833	0,1	0,882299
1,162500	0,1	0,893387
1,164167	0,1	0,890873
1,165833	0,1	0,880356
1,167500	0,1	0,947176
1,169167	0,1	0,917833
1,170833	0,1	0,930167
1,172500	0,1	0,922642
1,174167	0,1	0,964271
1,175833	0,1	0,971099
1,177500	0,1	0,970415
1,179167	0,1	0,965265
1,180833	0,1	0,961859
1,182500	0,1	0,957290
1,184167	0,1	0,957423
1,185833	0,1	0,960538
1,187500	0,1	0,944504
1,189167	0,1	0,983773
1,190833	0,1	0,999374
1,192500	0,1	0,987865
1,194167	0,1	1,017841
1,195833	0,1	1,008697
1,197500	0,1	0,968572
1,199167	0,1	1,028001
1,200833	0,1	1,013801
1,202500	0,1	1,007510
1,204167	0,1	1,036904
1,205833	0,1	1,021577
1,207500	0,1	1,046193
1,209167	0,1	1,047523
1,210833	0,1	1,038494
1,212500	0,1	1,051550
1,214167	0,1	1,020133
1,215833	0,1	1,069571
1,217500	0,1	1,042531
1,219167	0,1	1,087909
1,220833	0,1	1,084928
1,222500	0,1	1,068653
1,224167	0,1	1,070025
1,225833	0,1	1,077202
1,227500	0,1	1,079517
1,229167	0,1	1,082238
1,230833	0,1	1,078090
1,232500	0,1	1,098597
1,234167	0,1	1,082242
1,235833	0,1	1,137459
1,237500	0,1	1,084326
1,239167	0,1	1,088957
1,240833	0,1	1,182498
1,242500	0,1	1,162894
1,244167	0,1	1,194523
1,245833	0,1	1,151824
1,247500	0,1	1,170794
1,249167	0,1	1,139980
1,250833	0,1	1,192038
1,252500	0,1	1,143828
1,254167	0,1	1,221513
1,255833	0,1	1,194370
1,257500	0,1	1,138983
1,259167	0,1	1,156489
1,260833	0,1	1,202330
1,262500	0,1	1,199810
1,264167	0,1	1,258868
1,265833	0,1	1,223397
1,267500	0,1	1,239534
1,269167	0,1	1,246292
1,270833	0,1	1,242375
1,272500	0,1	1,222717
1,274167	0,1	1,225837
1,275833	0,1	1,261254
1,277500	0,1	1,245582
1,279167	0,1	1,243995
1,280833	0,1	1,261808
1,282500	0,1	1,258512
1,284167	0,1	1,288537
1,285833	0,1	1,258243
1,287500	0,1	1,279555
1,289167	0,1	1,298404
1,290833	0,1	1,298397
1,292500	0,1	1,318727
1,294167	0,1	1,331430
1,295833	0,1	1,329080
1,297500	0,1	1,305516
1,299167	0,1	1,377651
1,300833	0,1	1,333108
1,302500	0,1	1,357450
1,304167	0,1	1,372836
1,305833	0,1	1,396627
1,307500	0,1	1,353447
1,309167	0,1	1,366369
1,310833	0,1	1,356535
1,312500	0,1	1,387016
1,314167	0,1	1,414599
1,315833	0,1	1,353728
1,317500	0,1	1,367455
1,319167	0,1	1,386543
1,320833	0,1	1,389643
1,322500	0,1	1,439531
1,324167	0,1	1,432846
1,325833	0,1	1,411572
1,327500	0,1	1,452540
1,329167	0,1	1,450520
1,330833	0,1	1,472530
1,332500	0,1	1,461679
1,334167	0,1	1,451815
1,335833	0,1	1,440761
1,337500	0,1	1,498538
1,339167	0,1	1,495449
1,340833	0,1	1,497827
1,342500	0,1	1,516017
1,344167	0,1	1,518251
1,345833	0,1	1,485024
1,347500	0,1	1,492948
1,349167	0,1	1,540177
1,350833	0,1	1,542408
1,352500	0,1	1,543695
1,354167	0,1	1,531544
1,355833	0,1	1,554113
1,357500	0,1	1,580579
1,359167	0,1	1,544928
1,360833	0,1	1,574241
1,362500	0,1	1,608973
1,364167	0,1	1,583103
1,365833	0,1	1,605164
1,367500	0,1	1,598916
1,369167	0,1	1,554766
1,370833	0,1	1,602350
1,372500	0,1	1,599703
1,374167	0,1	1,633720
1,375833	0,1	1,599564
1,377500	0,1	1,614662
1,379167	0,1	1,635657
1,380833	0,1	1,650838
1,382500	0,1	1,649120
1,384167	0,1	1,637311
1,385833	0,1	1,667375
1,387500	0,1	1,630192
1,389167	0,1	1,686201
1,390833	0,1	1,690532
1,392500	0,1	1,701106
1,394167	0,1	1,707074
1,395833	0,1	1,674207
1,397500	0,1	1,700295
1,399167	0,1	1,728069
1,400833	0,1	1,706504
1,402500	0,1	1,754746
1,404167	0,1	1,747281
1,405833	0,1	1,715993
1,407500	0,1	1,731227
1,409167	0,1	1,786258
1,410833	0,1	1,801513
1,412500	0,1	1,759087
1,414167	0,1	1,769429
1,415833	0,1	1,778779
1,417500	0,1	1,763966
1,419167	0,1	1,781216
1,420833	0,1	1,796547
1,422500	0,1	1,833381
1,424167	0,1	1,794691
1,425833	0,1	1,798850
1,427500	0,1	1,856104
1,429167	0,1	1,852523
1,430833	0,1	1,831014
1,432500	0,1	1,837839
1,434167	0,1	1,852367
1,435833	0,1	1,848276
1,437500	0,1	1,862226
1,439167	0,1	1,839068
1,440833	0,1	1,867976
1,442500	0,1	1,872732
1,444167	0,1	1,860862
1,445833	0,1	1,909633
1,447500	0,1	1,879216
1,449167	0,1	1,875178
1,450833	0,1	1,934529
1,452500	0,1	1,914616
1,454167	0,1	1,948136
1,455833	0,1	1,936561
1,457500	0,1	1,914330
1,459167	0,1	2,000081
1,460833	0,1	1,962185
1,462500	0,1	1,953544
1,464167	0,1	1,939224
1,465833	0,1	2,006347
1,467500	0,1	1,975064
1,469167	0,1	1,999808
1,470833	0,1	2,019456
1,472500	0,1	2,011188
1,474167	0,1	1,990462
1,475833	0,1	2,006432
1,477500	0,1	2,008304
1,479167	0,1	1,988160
1,480833	0,1	2,019527
1,482500	0,1	2,024785
1,484167	0,1	2,026803
1,485833	0,1	2,032487
1,487500	0,1	2,030617
1,489167	0,1	2,042779
1,490833	0,1	2,012127
1,492500	0,1	2,057670
1,494167	0,1	2,085169
1,495833	0,1	2,071000
1,497500	0,1	2,067903
1,499167	0,1	2,075385
1,500833	0,1	2,081429
1,502500	0,1	2,085823
1,504167	0,1	2,092663
1,505833	0,1	2,112023
1,507500	0,1	2,092883
1,509167	0,1	2,060998
1,510833	0,1	2,084812
1,512500	0,1	2,123102
1,514167	0,1	2,137075
1,515833	0,1	2,159103
1,517500	0,1	2,154721
1,519167	0,1	2,142987
1,520833	0,1	2,175016
1,522500	0,1	2,208196
1,524167	0,1	2,219515
1,525833	0,1	2,156170
1,527500	0,1	2,154936
1,529167	0,1	2,226632
1,530833	0,1	2,193243
1,532500	0,1	2,192949
1,534167	0,1	2,247940
1,535833	0,1	2,222408
1,537500	0,1	2,214978
1,539167	0,1	2,213324
1,540833	0,1	2,215419
1,542500	0,1	2,263795
1,544167	0,1	2,223200
1,545833	0,1	2,259188
1,547500	0,1	2,214776
1,549167	0,1	2,279200
1,550833	0,1	2,271652
1,552500	0,1	2,292667
1,554167	0,1	2,272962
1,555833	0,1	2,286847
1,557500	0,1	2,297642
1,559167	0,1	2,290444
1,560833	0,1	2,299812
1,562500	0,1	2,314934
1,564167	0,1	2,303058
1,565833	0,1	2,325516
1,567500	0,1	2,350134
1,569167	0,1	2,331294
1,570833	0,1	2,287150
1,572500	0,1	2,367637
1,574167	0,1	2,314087
1,575833	0,1	2,322921
1,577500	0,1	2,299954
1,579167	0,1	2,362235
1,580833	0,1	2,367655
1,582500	0,1	2,343971
1,584167	0,1	2,366275
1,585833	0,1	2,348001
1,587500	0,1	2,396031
1,589167	0,1	2,419794
1,590833	0,1	2,399068
1,592500	0,1	2,407768
1,594167	0,1	2,409722
1,595833	0,1	2,412184
1,597500	0,1	2,391921
1,599167	0,1	2,417496
1,600833	0,1	2,397329
1,602500	0,1	2,415341
1,604167	0,1	2,456394
1,605833	0,1	2,465120
1,607500	0,1	2,473401
1,609167	0,1	2,455464
1,610833	0,1	2,425881
1,612500	0,1	2,484050
1,614167	0,1	2,429186
1,615833	0,1	2,435369
1,617500	0,1	2,482330
1,619167	0,1	2,459366
1,620833	0,1	2,499711
1,622500	0,1	2,481049
1,624167	0,1	2,517340
1,625833	0,1	2,499928
1,627500	0,1	2,486383
1,629167	0,1	2,487602
1,630833	0,1	2,508508
1,632500	0,1	2,510521
1,634167	0,1	2,504464
1,635833	0,1	2,517069
1,637500	0,1	2,519645
1,639167	0,1	2,510441
1,640833	0,1	2,487756
1,642500	0,1	2,541914
1,644167	0,1	2,573636
1,645833	0,1	2,521559
1,647500	0,1	2,610729
1,649167	0,1	2,571620
1,650833	0,1	2,538056
1,652500	0,1	2,567936
1,654167	0,1	2,560674
1,655833	0,1	2,581347
1,657500	0,1	2,583531
1,659167	0,1	2,594458
1,660833	0,1	2,561741
1,662500	0,1	2,545120
1,664167	0,1	2,613043
1,665833	0,1	2,603183
1,667500	0,1	2,598790
1,669167	0,1	2,632585
1,670833	0,1	2,590229
1,672500	0,1	2,608664
1,674167	0,1	2,585735
1,675833	0,1	2,611032
1,677500	0,1	2,614142
1,679167	0,1	2,623286
1,680833	0,1	2,610542
1,682500	0,1	2,640021
1,684167	0,1	2,660592
1,685833	0,1	2,670714
1,687500	0,1	2,635183
1,689167	0,1	2,701401
1,690833	0,1	2,621222
1,692500	0,1	2,666588
1,694167	0,1	2,675829
1,695833	0,1	2,655801
1,697500	0,1	2,657119
1,699167	0,1	2,684243
1,700833	0,1	2,685198
1,702500	0,1	2,685424
1,704167	0,1	2,650477
1,705833	0,1	2,652503
1,707500	0,1	2,684467
1,709167	0,1	2,663859
1,710833	0,1	2,720158
1,712500	0,1	2,719495
1,714167	0,1	2,702193
1,715833	0,1	2,725567
1,717500	0,1	2,730871
1,719167	0,1	2,732997
1,720833	0,1	2,751370
1,722500	0,1	2,724193
1,724167	0,1	2,693865
1,725833	0,1	2,735098
1,727500	0,1	2,725077
1,729167	0,1	2,703111
1,730833	0,1	2,723922
1,732500	0,1	2,709597
1,734167	0,1	2,688249
1,735833	0,1	2,728835
1,737500	0,1	2,751506
1,739167	0,1	2,729997
1,740833	0,1	2,734081
1,742500	0,1	2,715607
1,744167	0,1	2,746690
1,745833	0,1	2,785106
1,747500	0,1	2,737626
1,749167	0,1	2,760393
1,750833	0,1	2,762706
1,752500	0,1	2,795067
1,754167	0,1	2,786174
1,755833	0,1	2,707215
1,757500	0,1	2,797995
1,759167	0,1	2,745141
1,760833	0,1	2,743815
1,762500	0,1	2,785619
1,764167	0,1	2,781796
1,765833	0,1	2,772442
1,767500	0,1	2,749312
1,769167	0,1	2,763368
1,770833	0,1	2,769934
1,772500	0,1	2,757171
1,774167	0,1	2,759717
1,775833	0,1	2,779452
1,777500	0,1	2,795013
1,779167	0,1	2,809618
1,780833	0,1	2,785711
1,782500	0,1	2,779746
1,784167	0,1	2,787437
1,785833	0,1	2,783894
1,787500	0,1	2,813752
1,789167	0,1	2,801265
1,790833	0,1	2,786372
1,792500	0,1	2,809043
1,794167	0,1	2,806756
1,795833	0,1	2,803241
1,797500	0,1	2,820423
1,799167	0,1	2,820956
1,800833	0,1	2,815632
1,802500	0,1	2,832028
1,804167	0,1	2,792293
1,805833	0,1	2,790307
1,807500	0,1	2,811656
1,809167	0,1	2,799545
1,810833	0,1	2,822476
1,812500	0,1	2,812718
1,814167	0,1	2,846755
1,815833	0,1	2,832777
1,817500	0,1	2,798616
1,819167	0,1	2,844156
1,820833	0,1	2,828099
1,822500	0,1	2,832788
1,824167	0,1	2,831931
1,825833	0,1	2,829242
1,827500	0,1	2,833740
1,829167	0,1	2,844647
1,830833	0,1	2,841345
1,832500	0,1	2,840021
1,834167	0,1	2,842280
1,835833	0,1	2,836020
1,837500	0,1	2,830407
1,839167	0,1	2,813537
1,840833	0,1	2,838003
1,842500	0,1	2,837829
1,844167	0,1	2,850487
1,845833	0,1	2,803025
1,847500	0,1	2,828586
1,849167	0,1	2,807849
1,850833	0,1	2,834729
1,852500	0,1	2,854319
1,854167	0,1	2,827452
1,855833	0,1	2,752857
1,857500	0,1	2,815162
1,859167	0,1	2,843815
1,860833	0,1	2,833483
1,862500	0,1	2,819467
1,864167	0,1	2,829163
1,865833	0,1	2,817007
1,867500	0,1	2,830975
1,869167	0,1	2,788386
1,870833	0,1	2,840758
1,872500	0,1	2,830905
1,874167	0,1	2,830524
1,875833	0,1	2,810351
1,877500	0,1	2,810169
1,879167	0,1	2,773474
1,880833	0,1	2,826499
1,882500	0,1	2,832199
1,884167	0,1	2,817942
1,885833	0,1	2,828287
1,887500	0,1	2,836211
1,889167	0,1	2,819875
1,890833	0,1	2,864351
1,892500	0,1	2,806694
1,894167	0,1	2,834426
1,895833	0,1	2,794285
1,897500	0,1	2,805650
1,899167	0,1	2,835514
1,900833	0,1	2,845117
1,902500	0,1	2,820028
1,904167	0,1	2,798627
1,905833	0,1	2,834922
1,907500	0,1	2,835943
1,909167	0,1	2,806628
1,910833	0,1	2,799107
1,912500	0,1	2,832160
1,914167	0,1	2,808769
1,915833	0,1	2,748973
1,917500	0,1	2,773309
1,919167	0,1	2,808452
1,920833	0,1	2,808688
1,922500	0,1	2,753124
1,924167	0,1	2,775091
1,925833	0,1	2,790017
1,927500	0,1	2,783835
1,929167	0,1	2,793246
1,930833	0,1	2,789507
1,932500	0,1	2,760842
1,934167	0,1	2,752238
1,935833	0,1	2,759824
1,937500	0,1	2,759885
1,939167	0,1	2,749008
1,940833	0,1	2,784458
1,942500	0,1	2,752922
1,944167	0,1	2,756731
1,945833	0,1	2,771636
1,947500	0,1	2,763917
1,949167	0,1	2,750879
1,950833	0,1	2,788487
1,952500	0,1	2,783609
1,954167	0,1	2,780347
1,955833	0,1	2,730988
1,957500	0,1	2,752742
1,959167	0,1	2,689058
1,960833	0,1	2,774276
1,962500	0,1	2,748801
1,964167	0,1	2,737165
1,965833	0,1	2,676097
1,967500	0,1	2,765040
1,969167	0,1	2,748285
1,970833	0,1	2,741447
1,972500	0,1	2,712030
1,974167	0,1	2,714981
1,975833	0,1	2,725557
1,977500	0,1	2,720718
1,979167	0,1	2,722131
1,980833	0,1	2,722751
1,982500	0,1	2,708770
1,984167	0,1	2,727712
1,985833	0,1	2,691935
1,987500	0,1	2,653660
1,989167	0,1	2,694286
1,990833	0,1	2,708913
1,992500	0,1	2,640593
1,994167	0,1	2,673315
1,995833	0,1	2,686991
1,997500	0,1	2,680584
1,999167	0,1	2,639376
2,000833	0,1	2,654795
2,002500	0,1	2,686912
2,004167	0,1	2,615607
2,005833	0,1	2,629197
2,007500	0,1	2,650587
2,009167	0,1	2,692264
2,010833	0,1	2,659408
2,012500	0,1	2,631439
2,014167	0,1	2,672113
2,015833	0,1	2,639213
2,017500	0,1	2,636697
2,019167	0,1	2,611904
2,020833	0,1	2,638275
2,022500	0,1	2,630624
2,024167	0,1	2,602538
2,025833	0,1	2,606721
2,027500	0,1	2,616076
2,029167	0,1	2,593256
2,030833	0,1	2,591568
2,032500	0,1	2,612131
2,034167	0,1	2,600800
2,035833	0,1	2,593813
2,037500	0,1	2,575869
2,039167	0,1	2,583656
2,040833	0,1	2,585104
2,042500	0,1	2,618077
2,044167	0,1	2,601524
2,045833	0,1	2,558650
2,047500	0,1	2,577220
2,049167	0,1	2,581912
2,050833	0,1	2,532574
2,052500	0,1	2,572538
2,054167	0,1	2,510814
2,055833	0,1	2,517431
2,057500	0,1	2,545312
2,059167	0,1	2,518587
2,060833	0,1	2,565241
2,062500	0,1	2,486621
2,064167	0,1	2,566828
2,065833	0,1	2,524650
2,067500	0,1	2,559196
2,069167	0,1	2,523215
2,070833	0,1	2,501577
2,072500	0,1	2,526208
2,074167	0,1	2,495520
2,075833	0,1	2,493791
2,077500	0,1	2,498265
2,079167	0,1	2,502211
2,080833	0,1	2,468158
2,082500	0,1	2,479300
2,084167	0,1	2,471886
2,085833	0,1	2,466920
2,087500	0,1	2,477429
2,089167	0,1	2,429251
2,090833	0,1	2,418573
2,092500	0,1	2,448461
2,094167	0,1	2,428613
2,095833	0,1	2,409720
2,097500	0,1	2,451348
2,099167	0,1	2,433060
2,100833	0,1	2,410581
2,102500	0,1	2,405407
2,104167	0,1	2,366010
2,105833	0,1	2,405447
2,107500	0,1	2,381866
2,109167	0,1	2,383783
2,110833	0,1	2,385750
2,112500	0,1	2,366005
2,114167	0,1	2,382342
2,115833	0,1	2,403160
2,117500	0,1	2,316969
2,119167	0,1	2,375127
2,120833	0,1	2,341021
2,122500	0,1	2,358563
2,124167	0,1	2,345900
2,125833	0,1	2,355626
2,127500	0,1	2,316097
2,129167	0,1	2,302772
2,130833	0,1	2,354532
2,132500	0,1	2,304217
2,134167	0,1	2,307873
2,135833	0,1	2,343363
2,137500	0,1	2,339337
2,139167	0,1	2,323295
2,140833	0,1	2,265685
2,142500	0,1	2,310883
2,144167	0,1	2,284974
2,145833	0,1	2,250481
2,147500	0,1	2,239531
2,149167	0,1	2,254144
2,150833	0,1	2,295409
2,152500	0,1	2,202181
2,154167	0,1	2,256727
2,155833	0,1	2,259980
2,157500	0,1	2,242633
2,159167	0,1	2,212971
2,160833	0,1	2,237229
2,162500	0,1	2,229955
2,164167	0,1	2,222112
2,165833	0,1	2,214119
2,167500	0,1	2,233551
2,169167	0,1	2,256080
2,170833	0,1	2,207290
2,172500	0,1	2,216777
2,174167	0,1	2,167837
2,175833	0,1	2,222374
2,177500	0,1	2,204609
2,179167	0,1	2,186825
2,180833	0,1	2,153860
2,182500	0,1	2,136870
2,184167	0,1	2,134199
2,185833	0,1	2,219273
2,187500	0,1	2,127528
2,189167	0,1	2,162262
2,190833	0,1	2,146730
2,192500	0,1	2,133915
2,194167	0,1	2,097928
2,195833	0,1	2,160312
2,197500	0,1	2,127872
2,199167	0,1	2,104903
2,200833	0,1	2,124620
2,202500	0,1	2,124836
2,204167	0,1	2,090081
2,205833	0,1	2,114541
2,207500	0,1	2,087199
2,209167	0,1	2,037393
2,210833	0,1	2,097544
2,212500	0,1	2,076398
2,214167	0,1	2,047824
2,215833	0,1	2,005582
2,217500	0,1	2,082567
2,219167	0,1	2,049915
2,220833	0,1	2,072645
2,222500	0,1	2,049410
2,224167	0,1	2,073289
2,225833	0,1	2,082148
2,227500	0,1	2,021061
2,229167	0,1	2,027663
2,230833	0,1	2,004929
2,232500	0,1	2,006073
2,234167	0,1	2,010175
2,235833	0,1	2,020898
2,237500	0,1	1,980752
2,239167	0,1	2,026647
2,240833	0,1	1,990250
2,242500	0,1	1,979882
2,244167	0,1	1,956208
2,245833	0,1	1,999730
2,247500	0,1	1,968589
2,249167	0,1	1,974983
2,250833	0,1	1,985274
2,252500	0,1	1,975708
2,254167	0,1	1,952467
2,255833	0,1	1,914981
2,257500	0,1	1,930943
2,259167	0,1	1,939509
2,260833	0,1	1,976848
2,262500	0,1	1,903119
2,264167	0,1	1,943818
2,265833	0,1	1,906852
2,267500	0,1	1,920221
2,269167	0,1	1,896774
2,270833	0,1	1,894683
2,272500	0,1	1,898710
2,274167	0,1	1,886200
2,275833	0,1	1,895471
2,277500	0,1	1,865765
2,279167	0,1	1,898270
2,280833	0,1	1,834113
2,282500	0,1	1,850647
2,284167	0,1	1,856978
2,285833	0,1	1,860578
2,287500	0,1	1,832885
2,289167	0,1	1,854388
2,290833	0,1	1,861443
2,292500	0,1	1,825689
2,294167	0,1	1,782105
2,295833	0,1	1,874587
2,297500	0,1	1,801250
2,299167	0,1	1,804468
2,300833	0,1	1,806335
2,302500	0,1	1,806051
2,304167	0,1	1,773474
2,305833	0,1	1,851644
2,307500	0,1	1,801744
2,309167	0,1	1,816833
2,310833	0,1	1,810297
2,312500	0,1	1,810438
2,314167	0,1	1,770091
2,315833	0,1	1,785975
2,317500	0,1	1,780872
2,319167	0,1	1,759938
2,320833	0,1	1,750096
2,322500	0,1	1,760723
2,324167	0,1	1,756417
2,325833	0,1	1,694298
2,327500	0,1	1,755113
2,329167	0,1	1,734200
2,330833	0,1	1,708104
2,332500	0,1	1,705856
2,334167	0,1	1,717570
2,335833	0,1	1,723695
2,337500	0,1	1,692412
2,339167	0,1	1,676364
2,340833	0,1	1,695632
2,342500	0,1	1,680040
2,344167	0,1	1,638198
2,345833	0,1	1,659456
2,347500	0,1	1,707064
2,349167	0,1	1,653162
2,350833	0,1	1,685289
2,352500	0,1	1,646757
2,354167	0,1	1,643225
2,355833	0,1	1,622732
2,357500	0,1	1,662988
2,359167	0,1	1,595430
2,360833	0,1	1,625589
2,362500	0,1	1,603169
2,364167	0,1	1,620351
2,365833	0,1	1,599075
2,367500	0,1	1,623734
2,369167	0,1	1,610636
2,370833	0,1	1,643715
2,372500	0,1	1,607351
2,374167	0,1	1,580802
2,375833	0,1	1,577570
2,377500	0,1	1,569743
2,379167	0,1	1,550405
2,380833	0,1	1,566495
2,382500	0,1	1,550317
2,384167	0,1	1,527393
2,385833	0,1	1,533359
2,387500	0,1	1,559296
2,389167	0,1	1,570293
2,390833	0,1	1,507198
2,392500	0,1	1,533065
2,394167	0,1	1,535221
2,395833	0,1	1,494095
2,397500	0,1	1,527677
2,399167	0,1	1,519416
2,400833	0,1	1,479014
2,402500	0,1	1,504291
2,404167	0,1	1,505757
2,405833	0,1	1,552994
2,407500	0,1	1,466156
2,409167	0,1	1,440208
2,410833	0,1	1,442329
2,412500	0,1	1,462560
2,414167	0,1	1,466135
2,415833	0,1	1,504385
2,417500	0,1	1,483418
2,419167	0,1	1,456876
2,420833	0,1	1,465188
2,422500	0,1	1,462324
2,424167	0,1	1,452703
2,425833	0,1	1,438195
2,427500	0,1	1,419923
2,429167	0,1	1,428973
2,430833	0,1	1,458963
2,432500	0,1	1,453141
2,434167	0,1	1,395571
2,435833	0,1	1,448100
2,437500	0,1	1,371344
2,439167	0,1	1,396003
2,440833	0,1	1,401806
2,442500	0,1	1,386219
2,444167	0,1	1,360499
2,445833	0,1	1,392478
2,447500	0,1	1,369460
2,449167	0,1	1,438544
2,450833	0,1	1,374945
2,452500	0,1	1,362737
2,454167	0,1	1,341234
2,455833	0,1	1,335134
2,457500	0,1	1,313330
2,459167	0,1	1,378171
2,460833	0,1	1,379110
2,462500	0,1	1,346850
2,464167	0,1	1,346428
2,465833	0,1	1,302066
2,467500	0,1	1,293665
2,469167	0,1	1,351947
2,470833	0,1	1,324504
2,472500	0,1	1,310178
2,474167	0,1	1,308331
2,475833	0,1	1,304382
2,477500	0,1	1,300927
2,479167	0,1	1,261023
2,480833	0,1	1,304440
2,482500	0,1	1,328535
2,484167	0,1	1,295982
2,485833	0,1	1,299716
2,487500	0,1	1,290858
2,489167	0,1	1,282245
2,490833	0,1	1,266371
2,492500	0,1	1,277866
2,494167	0,1	1,286285
2,495833	0,1	1,229085
2,497500	0,1	1,284391
2,499167	0,1	1,235836
2,500833	0,1	1,276332
2,502500	0,1	1,252847
2,504167	0,1	1,282978
2,505833	0,1	1,216528
2,507500	0,1	1,243880
2,509167	0,1	1,231386
2,510833	0,1	1,203284
2,512500	0,1	1,206082
2,514167	0,1	1,201643
2,515833	0,1	1,200449
2,517500	0,1	1,231526
2,519167	0,1	1,205596
2,520833	0,1	1,213415
2,522500	0,1	1,208092
2,524167	0,1	1,188922
2,525833	0,1	1,199615
2,527500	0,1	1,187368
2,529167	0,1	1,169595
2,530833	0,1	1,207110
2,532500	0,1	1,198221
2,534167	0,1	1,143556
2,535833	0,1	1,126488
2,537500	0,1	1,163491
2,539167	0,1	1,144262
2,540833	0,1	1,157610
2,542500	0,1	1,141355
2,544167	0,1	1,129632
2,545833	0,1	1,180583
2,547500	0,1	1,133537
2,549167	0,1	1,153781
2,550833	0,1	1,154022
2,552500	0,1	1,106268
2,554167	0,1	1,114351
2,555833	0,1	1,097619
2,557500	0,1	1,162633
2,559167	0,1	1,110302
2,560833	0,1	1,103555
2,562500	0,1	1,140949
2,564167	0,1	1,085655
2,565833	0,1	1,076459
2,567500	0,1	1,116487
2,569167	0,1	1,096618
2,570833	0,1	1,053675
2,572500	0,1	1,045061
2,574167	0,1	1,060654
2,575833	0,1	1,071506
2,577500	0,1	1,073854
2,579167	0,1	1,037911
2,580833	0,1	1,100867
2,582500	0,1	1,066857
2,584167	0,1	1,089533
2,585833	0,1	1,072024
2,587500	0,1	0,994585
2,589167	0,1	1,053822
2,590833	0,1	1,067696
2,592500	0,1	1,004090
2,594167	0,1	1,067684
2,595833	0,1	1,064843
2,597500	0,1	1,074755
2,599167	0,1	1,056002
2,600833	0,1	1,035542
2,602500	0,1	1,050516
2,604167	0,1	1,009119
2,605833	0,1	1,007952
2,607500	0,1	1,035937
2,609167	0,1	1,012038
2,610833	0,1	1,017133
2,612500	0,1	1,031811
2,614167	0,1	1,001227
2,615833	0,1	1,002561
2,617500	0,1	0,977299
2,619167	0,1	0,998148
2,620833	0,1	0,959121
2,622500	0,1	0,976217
2,624167	0,1	0,983838
2,625833	0,1	0,996029
2,627500	0,1	0,986629
2,629167	0,1	0,970458
2,630833	0,1	0,972236
2,632500	0,1	0,970455
2,634167	0,1	0,953119
2,635833	0,1	0,951891
2,637500	0,1	0,955053
2,639167	0,1	0,958890
2,640833	0,1	0,976844
2,642500	0,1	0,975305
2,644167	0,1	0,982017
2,645833	0,1	0,933770
2,647500	0,1	0,930749
2,649167	0,1	0,955317
2,650833	0,1	0,956171
2,652500	0,1	0,951286
2,654167	0,1	0,916120
2,655833	0,1	0,964107
2,657500	0,1	0,897903
2,659167	0,1	0,931386
2,660833	0,1	0,951374
2,662500	0,1	0,918413
2,664167	0,1	0,929274
2,665833	0,1	0,907718
2,667500	0,1	0,933528
2,669167	0,1	0,927071
2,670833	0,1	0,885867
2,672500	0,1	0,905235
2,674167	0,1	0,911850
2,675833	0,1	0,937043
2,677500	0,1	0,851260
2,679167	0,1	0,893375
2,680833	0,1	0,898666
2,682500	0,1	0,894879
2,684167	0,1	0,852742
2,685833	0,1	0,875581
2,687500	0,1	0,883692
2,689167	0,1	0,854631
2,690833	0,1	0,853445
2,692500	0,1	0,864134
2,694167	0,1	0,876274
2,695833	0,1	0,865277
2,697500	0,1	0,846632
2,699167	0,1	0,847319
2,700833	0,1	0,845135
2,702500	0,1	0,860434
2,704167	0,1	0,853179
2,705833	0,1	0,871727
2,707500	0,1	0,856254
2,709167	0,1	0,832867
2,710833	0,1	0,839720
2,712500	0,1	0,822218
2,714167	0,1	0,806606
2,715833	0,1	0,832209
2,717500	0,1	0,821215
2,719167	0,1	0,841144
2,720833	0,1	0,805698
2,722500	0,1	0,813748
2,724167	0,1	0,806091
2,725833	0,1	0,819896
2,727500	0,1	0,837781
2,729167	0,1	0,788595
2,730833	0,1	0,807332
2,732500	0,1	0,811702
2,734167	0,1	0,805691
2,735833	0,1	0,795424
2,737500	0,1	0,787515
2,739167	0,1	0,809469
2,740833	0,1	0,792842
2,742500	0,1	0,771191
2,744167	0,1	0,771366
2,745833	0,1	0,821734
2,747500	0,1	0,774651
2,749167	0,1	0,815656
2,750833	0,1	0,784424
2,752500	0,1	0,773174
2,754167	0,1	0,750663
2,755833	0,1	0,801711
2,757500	0,1	0,733503
2,759167	0,1	0,747046
2,760833	0,1	0,735848
2,762500	0,1	0,751385
2,764167	0,1	0,717722
2,765833	0,1	0,737043
2,767500	0,1	0,757709
2,769167	0,1	0,744890
2,770833	0,1	0,734291
2,772500	0,1	0,715475
2,774167	0,1	0,724195
2,775833	0,1	0,712268
2,777500	0,1	0,682716
2,779167	0,1	0,720181
2,780833	0,1	0,731348
2,782500	0,1	0,745241
2,784167	0,1	0,761054
2,785833	0,1	0,737053
2,787500	0,1	0,723091
2,789167	0,1	0,682547
2,790833	0,1	0,729848
2,792500	0,1	0,718544
2,794167	0,1	0,675037
2,795833	0,1	0,716130
2,797500	0,1	0,697235
2,799167	0,1	0,713305
2,800833	0,1	0,689538
2,802500	0,1	0,703463
2,804167	0,1	0,697034
2,805833	0,1	0,689708
2,807500	0,1	0,670048
2,809167	0,1	0,678264
2,810833	0,1	0,708161
2,812500	0,1	0,699263
2,814167	0,1	0,701039
2,815833	0,1	0,661700
2,817500	0,1	0,686826
2,819167	0,1	0,655175
2,820833	0,1	0,670553
2,822500	0,1	0,648966
2,824167	0,1	0,687694
2,825833	0,1	0,640842
2,827500	0,1	0,664121
2,829167	0,1	0,609338
2,830833	0,1	0,646817
2,832500	0,1	0,645219
2,834167	0,1	0,636022
2,835833	0,1	0,656836
2,837500	0,1	0,640900
2,839167	0,1	0,664899
2,840833	0,1	0,653706
2,842500	0,1	0,637474
2,844167	0,1	0,655702
2,845833	0,1	0,613564
2,847500	0,1	0,611091
2,849167	0,1	0,617545
2,850833	0,1	0,598025
2,852500	0,1	0,647394
2,854167	0,1	0,614564
2,855833	0,1	0,602806
2,857500	0,1	0,587009
2,859167	0,1	0,546421
2,860833	0,1	0,603723
2,862500	0,1	0,580541
2,864167	0,1	0,575557
2,865833	0,1	0,588174
2,867500	0,1	0,591141
2,869167	0,1	0,583331
2,870833	0,1	0,619001
2,872500	0,1	0,564107
2,874167	0,1	0,565413
2,875833	0,1	0,570034
2,877500	0,1	0,548382
2,879167	0,1	0,607268
2,880833	0,1	0,587088
2,882500	0,1	0,599215
2,884167	0,1	0,580660
2,885833	0,1	0,588175
2,887500	0,1	0,554353
2,889167	0,1	0,584350
2,890833	0,1	0,587913
2,892500	0,1	0,559133
2,894167	0,1	0,547116
2,895833	0,1	0,606387
2,897500	0,1	0,565106
2,899167	0,1	0,540729
2,900833	0,1	0,547730
2,902500	0,1	0,555251
2,904167	0,1	0,546797
2,905833	0,1	0,560862
2,907500	0,1	0,537183
2,909167	0,1	0,556670
2,910833	0,1	0,539793
2,912500	0,1	0,540480
2,914167	0,1	0,511329
2,915833	0,1	0,536264
2,917500	0,1	0,522560
2,919167	0,1	0,540663
2,920833	0,1	0,544625
2,922500	0,1	0,529247
2,924167	0,1	0,535819
2,925833	0,1	0,509980
2,927500	0,1	0,498995
2,929167	0,1	0,484643
2,930833	0,1	0,488961
2,932500	0,1	0,520125
2,934167	0,1	0,533911
2,935833	0,1	0,510391
2,937500	0,1	0,484769
2,939167	0,1	0,465122
2,940833	0,1	0,516277
2,942500	0,1	0,479384
2,944167	0,1	0,493898
2,945833	0,1	0,461985
2,947500	0,1	0,468982
2,949167	0,1	0,502051
2,950833	0,1	0,444797
2,952500	0,1	0,492599
2,954167	0,1	0,455048
2,955833	0,1	0,442265
2,957500	0,1	0,459782
2,959167	0,1	0,464232
2,960833	0,1	0,458078
2,962500	0,1	0,465274
2,964167	0,1	0,490239
2,965833	0,1	0,457049
2,967500	0,1	0,462789
2,969167	0,1	0,498600
2,970833	0,1	0,446761
2,972500	0,1	0,470399
2,974167	0,1	0,427369
2,975833	0,1	0,475491
2,977500	0,1	0,410173
2,979167	0,1	0,449706
2,980833	0,1	0,428394
2,982500	0,1	0,440482
2,984167	0,1	0,459717
2,985833	0,1	0,420200
2,987500	0,1	0,437449
2,989167	0,1	0,443390
2,990833	0,1	0,409487
2,992500	0,1	0,409930
2,994167	0,1	0,416090
2,995833	0,1	0,423419
2,997500	0,1	0,443126
2,999167	0,1	0,427613
3,000833	0,1	0,420420
3,002500	0,1	0,412257
3,004167	0,1	0,389513
3,005833	0,1	0,420958
3,007500	0,1	0,420349
3,009167	0,1	0,390192
3,010833	0,1	0,376540
3,012500	0,1	0,442826
3,014167	0,1	0,388486
3,015833	0,1	0,404958
3,017500	0,1	0,389641
3,019167	0,1	0,412924
3,020833	0,1	0,394577
3,022500	0,1	0,415798
3,024167	0,1	0,370192
3,025833	0,1	0,401468
3,027500	0,1	0,370059
3,029167	0,1	0,435728
3,030833	0,1	0,404808
3,032500	0,1	0,367833
3,034167	0,1	0,375082
3,035833	0,1	0,415372
3,037500	0,1	0,411222
3,039167	0,1	0,372642
3,040833	0,1	0,366505
3,042500	0,1	0,366792
3,044167	0,1	0,361373
3,045833	0,1	0,377920
3,047500	0,1	0,351183
3,049167	0,1	0,346049
3,050833	0,1	0,376367
3,052500	0,1	0,360247
3,054167	0,1	0,384307
3,055833	0,1	0,370377
3,057500	0,1	0,365277
3,059167	0,1	0,368855
3,060833	0,1	0,351989
3,062500	0,1	0,368304
3,064167	0,1	0,315961
3,065833	0,1	0,336590
3,067500	0,1	0,344628
3,069167	0,1	0,316407
3,070833	0,1	0,336365
3,072500	0,1	0,372527
3,074167	0,1	0,355117
3,075833	0,1	0,340985
3,077500	0,1	0,352240
3,079167	0,1	0,347629
3,080833	0,1	0,352241
3,082500	0,1	0,314603
3,084167	0,1	0,314627
3,085833	0,1	0,353266
3,087500	0,1	0,347436
3,089167	0,1	0,271549
3,090833	0,1	0,367285
3,092500	0,1	0,316317
3,094167	0,1	0,292503
3,095833	0,1	0,302172
3,097500	0,1	0,320945
3,099167	0,1	0,297922
3,100833	0,1	0,319654
3,102500	0,1	0,303564
3,104167	0,1	0,309689
3,105833	0,1	0,316269
3,107500	0,1	0,296726
3,109167	0,1	0,274727
3,110833	0,1	0,286560
3,112500	0,1	0,349935
3,114167	0,1	0,296155
3,115833	0,1	0,309751
3,117500	0,1	0,305015
3,119167	0,1	0,330880
3,120833	0,1	0,326113
3,122500	0,1	0,297568
3,124167	0,1	0,258086
3,125833	0,1	0,266528
3,127500	0,1	0,289040
3,129167	0,1	0,306171
3,130833	0,1	0,235614
3,132500	0,1	0,288356
3,134167	0,1	0,274984
3,135833	0,1	0,294236
3,137500	0,1	0,295432
3,139167	0,1	0,296949
3,140833	0,1	0,293369
3,142500	0,1	0,293981
3,144167	0,1	0,251606
3,145833	0,1	0,246048
3,147500	0,1	0,216252
3,149167	0,1	0,271969
3,150833	0,1	0,262983
3,152500	0,1	0,257917
3,154167	0,1	0,244921
3,155833	0,1	0,269878
3,157500	0,1	0,271209
3,159167	0,1	0,260534
3,160833	0,1	0,280782
3,162500	0,1	0,251055
3,164167	0,1	0,254047
3,165833	0,1	0,241534
3,167500	0,1	0,225216
3,169167	0,1	0,277388
3,170833	0,1	0,282111
3,172500	0,1	0,253699
3,174167	0,1	0,260626
3,175833	0,1	0,203392
3,177500	0,1	0,287124
3,179167	0,1	0,217488
3,180833	0,1	0,233274
3,182500	0,1	0,256912
3,184167	0,1	0,266755
3,185833	0,1	0,247698
3,187500	0,1	0,246921
3,189167	0,1	0,293680
3,190833	0,1	0,213232
3,192500	0,1	0,244978
3,194167	0,1	0,207129
3,195833	0,1	0,213279
3,197500	0,1	0,235753
3,199167	0,1	0,215249
3,200833	0,1	0,240559
3,202500	0,1	0,204648
3,204167	0,1	0,180519
3,205833	0,1	0,222365
3,207500	0,1	0,255526
3,209167	0,1	0,204552
3,210833	0,1	0,165135
3,212500	0,1	0,192662
3,214167	0,1	0,184711
3,215833	0,1	0,196797
3,217500	0,1	0,196800
3,219167	0,1	0,204441
3,220833	0,1	0,213348
3,222500	0,1	0,200284
3,224167	0,1	0,222595
3,225833	0,1	0,201292
3,227500	0,1	0,204086
3,229167	0,1	0,180972
3,230833	0,1	0,191156
3,232500	0,1	0,184285
3,234167	0,1	0,235977
3,235833	0,1	0,217672
3,237500	0,1	0,200385
3,239167	0,1	0,189999
3,240833	0,1	0,213052
3,242500	0,1	0,211183
3,244167	0,1	0,243623
3,245833	0,1	0,182114
3,247500	0,1	0,232688
3,249167	0,1	0,172724
3,250833	0,1	0,189214
3,252500	0,1	0,199185
3,254167	0,1	0,158141
3,255833	0,1	0,200985
3,257500	0,1	0,127281
3,259167	0,1	0,183305
3,260833	0,1	0,180095
3,262500	0,1	0,186025
3,264167	0,1	0,158782
3,265833	0,1	0,167031
3,267500	0,1	0,148206
3,269167	0,1	0,180250
3,270833	0,1	0,177323
3,272500	0,1	0,144040
3,274167	0,1	0,128175
3,275833	0,1	0,139388
3,277500	0,1	0,140688
3,279167	0,1	0,172511
3,280833	0,1	0,146146
3,282500	0,1	0,152587
3,284167	0,1	0,158355
3,285833	0,1	0,172421
3,287500	0,1	0,172646
3,289167	0,1	0,181701
3,290833	0,1	0,170550
3,292500	0,1	0,134502
3,294167	0,1	0,164862
3,295833	0,1	0,188537
3,297500	0,1	0,128767
3,299167	0,1	0,184979
3,300833	0,1	0,139765
3,302500	0,1	0,145329
3,304167	0,1	0,147065
3,305833	0,1	0,083718
3,307500	0,1	0,106884
3,309167	0,1	0,185718
3,310833	0,1	0,126251
3,312500	0,1	0,137816
3,314167	0,1	0,120020
3,315833	0,1	0,126172
3,317500	0,1	0,137689
3,319167	0,1	0,132207
3,320833	0,1	0,150995
3,322500	0,1	0,154785
3,324167	0,1	0,106320
3,325833	0,1	0,139581
3,327500	0,1	0,099844
3,329167	0,1	0,126332
3,330833	0,1	0,092040
3,332500	0,1	0,119663
3,334167	0,1	0,134363
3,335833	0,1	0,118022
3,337500	0,1	0,128525
3,339167	0,1	0,114152
3,340833	0,1	0,121148
3,342500	0,1	0,124793
3,344167	0,1	0,124565
3,345833	0,1	0,102445
3,347500	0,1	0,115235
3,349167	0,1	0,144842
3,350833	0,1	0,086469
3,352500	0,1	0,115339
3,354167	0,1	0,139257
3,355833	0,1	0,111376
3,357500	0,1	0,101469
3,359167	0,1	0,123045
3,360833	0,1	0,114732
3,362500	0,1	0,097294
3,364167	0,1	0,127493
3,365833	0,1	0,101727
3,367500	0,1	0,131363
3,369167	0,1	0,116541
3,370833	0,1	0,059730
3,372500	0,1	0,081280
3,374167	0,1	0,108564
3,375833	0,1	0,104422
3,377500	0,1	0,093515
3,379167	0,1	0,131141
3,380833	0,1	0,097390
3,382500	0,1	0,068205
3,384167	0,1	0,090509
3,385833	0,1	0,080971
3,387500	0,1	0,102218
3,389167	0,1	0,093187
3,390833	0,1	0,082451
3,392500	0,1	0,066976
3,394167	0,1	0,076389
3,395833	0,1	0,078871
3,397500	0,1	0,108118
3,399167	0,1	0,063924
3,400833	0,1	0,088538
3,402500	0,1	0,027591
3,404167	0,1	0,077669
3,405833	0,1	0,062082
3,407500	0,1	0,092505
3,409167	0,1	0,106670
3,410833	0,1	0,076754
3,412500	0,1	0,054737
3,414167	0,1	0,079193
3,415833	0,1	0,104024
3,417500	0,1	0,076017
3,419167	0,1	0,074520
3,420833	0,1	0,118623
3,422500	0,1	0,066023
3,424167	0,1	0,054699
3,425833	0,1	0,058564
3,427500	0,1	0,079356
3,429167	0,1	0,052566
3,430833	0,1	0,074525
3,432500	0,1	0,095995
3,434167	0,1	0,084322
3,435833	0,1	0,062538
3,437500	0,1	0,091416
3,439167	0,1	0,040649
3,440833	0,1	0,087697
3,442500	0,1	0,059015
3,444167	0,1	0,095928
3,445833	0,1	0,064439
3,447500	0,1	0,053599
3,449167	0,1	0,046731
3,450833	0,1	0,030451
3,452500	0,1	0,069933
3,454167	0,1	0,043057
3,455833	0,1	0,042382
3,457500	0,1	0,056272
3,459167	0,1	0,038707
3,460833	0,1	0,071717
3,462500	0,1	0,024403
3,464167	0,1	0,056496
3,465833	0,1	0,043319
3,467500	0,1	0,057498
3,469167	0,1	0,042575
3,470833	0,1	0,058534
3,472500	0,1	0,052989
3,474167	0,1	0,097733
3,475833	0,1	0,058965
3,477500	0,1	0,025131
3,479167	0,1	0,058102
3,480833	0,1	0,067780
3,482500	0,1	0,012407
3,484167	0,1	0,018587
3,485833	0,1	0,057365
3,487500	0,1	0,030390
3,489167	0,1	0,047434
3,490833	0,1	0,050926
3,492500	0,1	0,054114
3,494167	0,1	0,062859
3,495833	0,1	0,000096
3,497500	0,1	0,057779
3,499167	0,1	0,054733
3,500833	0,1	0,056666
3,502500	0,1	0,060383
3,504167	0,1	0,058538
3,505833	0,1	0,003670
3,507500	0,1	0,084792
3,509167	0,1	0,035199
3,510833	0,1	0,026707
3,512500	0,1	0,025718
3,514167	0,1	0,041378
3,515833	0,1	0,006181
3,517500	0,1	0,048527
3,519167	0,1	0,008180
3,520833	0,1	-0,015868
3,522500	0,1	0,033988
3,524167	0,1	0,015243
3,525833	0,1	0,027712
3,527500	0,1	0,023040
3,529167	0,1	0,034539
3,530833	0,1	-0,008190
3,532500	0,1	0,020327
3,534167	0,1	0,030129
3,535833	0,1	0,010212
3,537500	0,1	0,021328
3,539167	0,1	0,011094
3,540833	0,1	0,060080
3,542500	0,1	0,025626
3,544167	0,1	0,040607
3,545833	0,1	-0,027132
3,547500	0,1	0,051034
3,549167	0,1	0,052318
3,550833	0,1	0,048324
3,552500	0,1	0,037479
3,554167	0,1	0,011653
3,555833	0,1	0,025109
3,557500	0,1	0,018590
3,559167	0,1	0,034779
3,560833	0,1	0,013865
3,562500	0,1	0,009650
3,564167	0,1	-0,003973
3,565833	0,1	0,031057
3,567500	0,1	0,017302
3,569167	0,1	-0,005034
3,570833	0,1	-0,001691
3,572500	0,1	0,008081
3,574167	0,1	0,004861
3,575833	0,1	-0,040791
3,577500	0,1	0,031530
3,579167	0,1	0,000707
3,580833	0,1	0,007068
3,582500	0,1	-0,019546
3,584167	0,1	0,030535
3,585833	0,1	0,014053
3,587500	0,1	-0,027531
3,589167	0,1	-0,006042
3,590833	0,1	-0,003333
3,592500	0,1	0,002924
3,594167	0,1	0,008813
3,595833	0,1	0,006921
3,597500	0,1	0,009851
3,599167	0,1	-0,001106
3,600833	0,1	-0,017930
3,602500	0,1	-0,015733
3,604167	0,1	-0,034210
3,605833	0,1	0,001249
3,607500	0,1	-0,025852
3,609167	0,1	0,034793
3,610833	0,1	-0,010453
3,612500	0,1	0,004501
3,614167	0,1	-0,015161
3,615833	0,1	-0,018844
3,617500	0,1	0,001984
3,619167	0,1	0,000158
3,620833	0,1	0,013441
3,622500	0,1	-0,009458
3,624167	0,1	0,014588
3,625833	0,1	-0,016156
3,627500	0,1	-0,013963
3,629167	0,1	0,015584
3,630833	0,1	0,031670
3,632500	0,1	-0,027627
3,634167	0,1	0,017807
3,635833	0,1	-0,027364
3,637500	0,1	0,004460
3,639167	0,1	0,005339
3,640833	0,1	0,009953
3,642500	0,1	0,011446
3,644167	0,1	-0,030273
3,645833	0,1	0,024744
3,647500	0,1	0,024567
3,649167	0,1	0,009377
3,650833	0,1	0,012154
3,652500	0,1	-0,017305
3,654167	0,1	-0,019804
3,655833	0,1	-0,017604
3,657500	0,1	-0,000365
3,659167	0,1	-0,037036
3,660833	0,1	0,006797
3,662500	0,1	-0,030111
3,664167	0,1	-0,003843
3,665833	0,1	-0,046807
3,667500	0,1	-0,057042
3,669167	0,1	0,011706
3,670833	0,1	-0,011418
3,672500	0,1	-0,028534
3,674167	0,1	-0,007561
3,675833	0,1	-0,044105
3,677500	0,1	-0,025359
3,679167	0,1	-0,036171
3,680833	0,1	0,025350
3,682500	0,1	-0,008444
3,684167	0,1	-0,002486
3,685833	0,1	-0,018156
3,687500	0,1	0,007825
3,689167	0,1	-0,042771
3,690833	0,1	0,013202
3,692500	0,1	-0,031813
3,694167	0,1	-0,025898
3,695833	0,1	-0,041657
3,697500	0,1	-0,007916
3,699167	0,1	-0,038908
3,700833	0,1	0,018422
3,702500	0,1	-0,016407
3,704167	0,1	-0,011588
3,705833	0,1	-0,043295
3,707500	0,1	-0,021036
3,709167	0,1	0,011957
3,710833	0,1	-0,008737
3,712500	0,1	-0,012217
3,714167	0,1	0,010694
3,715833	0,1	-0,016560
3,717500	0,1	-0,039124
3,719167	0,1	-0,025610
3,720833	0,1	-0,042072
3,722500	0,1	-0,053513
3,724167	0,1	-0,045883
3,725833	0,1	-0,044240
3,727500	0,1	-0,073178
3,729167	0,1	-0,048616
3,730833	0,1	-0,066881
3,732500	0,1	-0,021395
3,734167	0,1	-0,045372
3,735833	0,1	0,003596
3,737500	0,1	-0,025230
3,739167	0,1	-0,043424
3,740833	0,1	-0,013780
3,742500	0,1	-0,035272
3,744167	0,1	0,010941
3,745833	0,1	-0,050379
3,747500	0,1	0,018609
3,749167	0,1	-0,033290
3,750833	0,1	-0,018794
3,752500	0,1	-0,041489
3,754167	0,1	-0,024863
3,755833	0,1	-0,040037
3,757500	0,1	-0,028793
3,759167	0,1	-0,031116
3,760833	0,1	-0,009581
3,762500	0,1	-0,009553
3,764167	0,1	-0,027521
3,765833	0,1	-0,051032
3,767500	0,1	-0,014097
3,769167	0,1	-0,028597
3,770833	0,1	-0,031660
3,772500	0,1	-0,051247
3,774167	0,1	-0,031640
3,775833	0,1	-0,022471
3,777500	0,1	-0,037192
3,779167	0,1	0,007276
3,780833	0,1	-0,040297
3,782500	0,1	-0,037149
3,784167	0,1	-0,044866
3,785833	0,1	-0,026900
3,787500	0,1	0,017199
3,789167	0,1	-0,038399
3,790833	0,1	0,005305
3,792500	0,1	-0,008094
3,794167	0,1	-0,001678
3,795833	0,1	-0,023793
3,797500	0,1	-0,064235
3,799167	0,1	-0,002891
3,800833	0,1	0,009141
3,802500	0,1	-0,003229
3,804167	0,1	-0,016767
3,805833	0,1	-0,023316
3,807500	0,1	-0,043093
3,809167	0,1	-0,007054
3,810833	0,1	-0,030011
3,812500	0,1	0,006015
3,814167	0,1	-0,022336
3,815833	0,1	-0,018617
3,817500	0,1	-0,054378
3,819167	0,1	-0,039312
3,820833	0,1	-0,057087
3,822500	0,1	-0,058421
3,824167	0,1	-0,019358
3,825833	0,1	-0,035273
3,827500	0,1	-0,037877
3,829167	0,1	-0,084028
3,830833	0,1	-0,033088
3,832500	0,1	0,008692
3,834167	0,1	-0,017535
3,835833	0,1	-0,018437
3,837500	0,1	-0,078680
3,839167	0,1	-0,054434
3,840833	0,1	-0,051951
3,842500	0,1	-0,024880
3,844167	0,1	-0,018021
3,845833	0,1	-0,068494
3,847500	0,1	-0,034122
3,849167	0,1	-0,009874
3,850833	0,1	-0,057347
3,852500	0,1	-0,022415
3,854167	0,1	-0,076103
3,855833	0,1	-0,052232
3,857500	0,1	-0,023451
3,859167	0,1	-0,038371
3,860833	0,1	-0,066008
3,862500	0,1	-0,013912
3,864167	0,1	-0,005357
3,865833	0,1	-0,039325
3,867500	0,1	-0,032989
3,869167	0,1	-0,050100
3,870833	0,1	-0,049042
3,872500	0,1	-0,065571
3,874167	0,1	-0,018323
3,875833	0,1	-0,054378
3,877500	0,1	-0,003723
3,879167	0,1	-0,046289
3,880833	0,1	-0,047484
3,882500	0,1	-0,029879
3,884167	0,1	-0,044777
3,885833	0,1	-0,030312
3,887500	0,1	-0,040557
3,889167	0,1	-0,046737
3,890833	0,1	-0,041102
3,892500	0,1	-0,062410
3,894167	0,1	-0,005635
3,895833	0,1	-0,016916
3,897500	0,1	-0,028394
3,899167	0,1	-0,020222
3,900833	0,1	-0,029206
3,902500	0,1	-0,030497
3,904167	0,1	0,012686
3,905833	0,1	-0,047636
3,907500	0,1	-0,020997
3,909167	0,1	-0,025502
3,910833	0,1	-0,050035
3,912500	0,1	-0,058772
3,914167	0,1	-0,004494
3,915833	0,1	-0,072294
3,917500	0,1	-0,073122
3,919167	0,1	-0,053001
3,920833	0,1	-0,051872
3,922500	0,1	-0,016905
3,924167	0,1	-0,037725
3,925833	0,1	0,002498
3,927500	0,1	-0,045932
3,929167	0,1	-0,013844
3,930833	0,1	-0,037787
3,932500	0,1	-0,019958
3,934167	0,1	-0,044092
3,935833	0,1	-0,008524
3,937500	0,1	-0,023921
3,939167	0,1	-0,002592
3,940833	0,1	-0,056592
3,942500	0,1	-0,040768
3,944167	0,1	-0,058936
3,945833	0,1	-0,030708
3,947500	0,1	-0,025379
3,949167	0,1	-0,003615
3,950833	0,1	-0,035936
3,952500	0,1	-0,030954
3,954167	0,1	-0,040847
3,955833	0,1	-0,017484
3,957500	0,1	-0,006166
3,959167	0,1	-0,055123
3,960833	0,1	-0,047361
3,962500	0,1	-0,054489
3,964167	0,1	-0,054821
3,965833	0,1	-0,055550
3,967500	0,1	-0,014972
3,969167	0,1	-0,011055
3,970833	0,1	-0,061340
3,972500	0,1	-0,047717
3,974167	0,1	-0,001813
3,975833	0,1	-0,060278
3,977500	0,1	-0,000894
3,979167	0,1	-0,060944
3,980833	0,1	-0,047755
3,982500	0,1	-0,036428
3,984167	0,1	-0,015219
3,985833	0,1	-0,007683
3,987500	0,1	-0,032629
3,989167	0,1	-0,012363
3,990833	0,1	-0,029597
3,992500	0,1	-0,019311
3,994167	0,1	-0,019286
3,995833	0,1	-0,045356
3,997500	0,1	-0,019874
3,999167	0,1	-0,052068
4,000833	0,1	-0,031870
4,002500	0,1	-0,081449
4,004167	0,1	-0,101062
4,005833	0,1	-0,058101
4,007500	0,1	-0,005405
4,009167	0,1	-0,017538
4,010833	0,1	-0,043422
4,012500	0,1	-0,026633
4,014167	0,1	-0,028248
4,015833	0,1	-0,030472
4,017500	0,1	-0,020160
4,019167	0,1	-0,069076
4,020833	0,1	-0,050564
4,022500	0,1	-0,042392
4,024167	0,1	-0,035442
4,025833	0,1	-0,035362
4,027500	0,1	-0,047790
4,029167	0,1	-0,052452
4,030833	0,1	-0,057964
4,032500	0,1	-0,037342
4,034167	0,1	-0,124562
4,035833	0,1	-0,030976
4,037500	0,1	-0,035943
4,039167	0,1	-0,029147
4,040833	0,1	-0,062901
4,042500	0,1	-0,061251
4,044167	0,1	-0,045366
4,045833	0,1	-0,057670
4,047500	0,1	-0,060355
4,049167	0,1	-0,062971
4,050833	0,1	-0,027053
4,052500	0,1	-0,058766
4,054167	0,1	-0,050065
4,055833	0,1	-0,062764
4,057500	0,1	-0,049337
4,059167	0,1	-0,012518
4,060833	0,1	-0,057247
4,062500	0,1	-0,069046
4,064167	0,1	-0,077591
4,065833	0,1	-0,013688
4,067500	0,1	-0,043069
4,069167	0,1	-0,049709
4,070833	0,1	-0,025258
4,072500	0,1	-0,104437
4,074167	0,1	-0,050469
4,075833	0,1	-0,040295
4,077500	0,1	-0,041368
4,079167	0,1	-0,076940
4,080833	0,1	-0,035727
4,082500	0,1	-0,071870
4,084167	0,1	-0,018528
4,085833	0,1	-0,047792
4,087500	0,1	-0,071890
4,089167	0,1	-0,044434
4,090833	0,1	-0,073885
4,092500	0,1	-0,031089
4,094167	0,1	-0,054586
4,095833	0,1	-0,034534
4,097500	0,1	-0,084483
4,099167	0,1	-0,021157
4,100833	0,1	-0,075458
4,102500	0,1	-0,046595
4,104167	0,1	-0,092449
4,105833	0,1	-0,036061
4,107500	0,1	-0,062864
4,109167	0,1	-0,071420
4,110833	0,1	-0,060049
4,112500	0,1	-0,055677
4,114167	0,1	-0,082266
4,115833	0,1	-0,084415
4,117500	0,1	-0,088010
4,119167	0,1	-0,045498
4,120833	0,1	-0,039209
4,122500	0,1	-0,039293
4,124167	0,1	-0,058250
4,125833	0,1	-0,036634
4,127500	0,1	-0,041266
4,129167	0,1	-0,060869
4,130833	0,1	-0,084866
4,132500	0,1	-0,050009
4,134167	0,1	-0,086901
4,135833	0,1	-0,027477
4,137500	0,1	-0,051639
4,139167	0,1	-0,042622
4,140833	0,1	-0,068956
4,142500	0,1	-0,054909
4,144167	0,1	-0,044783
4,145833	0,1	-0,056963
4,147500	0,1	-0,088316
4,149167	0,1	-0,033608
4,150833	0,1	-0,053448
4,152500	0,1	-0,082680
4,154167	0,1	-0,064211
4,155833	0,1	-0,086054
4,157500	0,1	-0,030815
4,159167	0,1	-0,055089
4,160833	0,1	-0,005453
4,162500	0,1	-0,102377
4,164167	0,1	-0,085687
4,165833	0,1	-0,075766
4,167500	0,1	-0,025682
4,169167	0,1	-0,084192
4,170833	0,1	-0,064604
4,172500	0,1	-0,106213
4,174167	0,1	-0,025712
4,175833	0,1	-0,080182
4,177500	0,1	-0,013437
4,179167	0,1	-0,085101
4,180833	0,1	-0,085722
4,182500	0,1	-0,060509
4,184167	0,1	-0,050672
4,185833	0,1	-0,073281
4,187500	0,1	-0,089630
4,189167	0,1	-0,063606
4,190833	0,1	-0,024768
4,192500	0,1	-0,048454
4,194167	0,1	-0,031209
4,195833	0,1	-0,067295
4,197500	0,1	-0,060089
4,199167	0,1	-0,047512
4,200833	0,1	-0,041480
4,202500	0,1	-0,058543
4,204167	0,1	-0,057091
4,205833	0,1	-0,035305
4,207500	0,1	-0,035236
4,209167	0,1	-0,071657
4,210833	0,1	-0,039451
4,212500	0,1	-0,050375
4,214167	0,1	-0,026572
4,215833	0,1	-0,022951
4,217500	0,1	-0,040351
4,219167	0,1	-0,029500
4,220833	0,1	-0,072199
4,222500	0,1	-0,065268
4,224167	0,1	-0,095219
4,225833	0,1	-0,059326
4,227500	0,1	-0,065093
4,229167	0,1	-0,066115
4,230833	0,1	-0,059860
4,232500	0,1	-0,062854
4,234167	0,1	-0,072475
4,235833	0,1	-0,043435
4,237500	0,1	-0,077397
4,239167	0,1	-0,070135
4,240833	0,1	-0,057676
4,242500	0,1	-0,082225
4,244167	0,1	-0,059967
4,245833	0,1	-0,043205
4,247500	0,1	-0,059439
4,249167	0,1	-0,035079
4,250833	0,1	-0,062367
4,252500	0,1	-0,114446
4,254167	0,1	-0,048249
4,255833	0,1	-0,057837
4,257500	0,1	-0,087774
4,259167	0,1	-0,076164
4,260833	0,1	-0,070880
4,262500	0,1	-0,061668
4,264167	0,1	-0,079484
4,265833	0,1	-0,062110
4,267500	0,1	-0,068693
4,269167	0,1	-0,094928
4,270833	0,1	-0,048659
4,272500	0,1	-0,066341
4,274167	0,1	-0,059483
4,275833	0,1	-0,041523
4,277500	0,1	-0,108871
4,279167	0,1	-0,031035
4,280833	0,1	-0,038546
4,282500	0,1	-0,088602
4,284167	0,1	-0,068699
4,285833	0,1	-0,052127
4,287500	0,1	-0,054905
4,289167	0,1	-0,068440
4,290833	0,1	-0,069464
4,292500	0,1	-0,079423
4,294167	0,1	-0,055368
4,295833	0,1	-0,073139
4,297500	0,1	-0,040882
4,299167	0,1	-0,053016
4,300833	0,1	-0,033914
4,302500	0,1	-0,068003
4,304167	0,1	-0,070108
4,305833	0,1	-0,081771
4,307500	0,1	-0,062897
4,309167	0,1	-0,110353
4,310833	0,1	-0,109344
4,312500	0,1	-0,042368
4,314167	0,1	-0,080601
4,315833	0,1	-0,088886
4,317500	0,1	-0,066828
4,319167	0,1	-0,086072
4,320833	0,1	-0,061571
4,322500	0,1	-0,058632
4,324167	0,1	-0,064330
4,325833	0,1	-0,063687
4,327500	0,1	-0,050752
4,329167	0,1	-0,085361
4,330833	0,1	-0,074665
4,332500	0,1	-0,081191
4,334167	0,1	-0,088549
4,335833	0,1	-0,086555
4,337500	0,1	-0,034400
4,339167	0,1	-0,062430
4,340833	0,1	-0,081250
4,342500	0,1	-0,065248
4,344167	0,1	-0,077196
4,345833	0,1	-0,101624
4,347500	0,1	-0,088223
4,349167	0,1	-0,095932
4,350833	0,1	-0,043010
4,352500	0,1	-0,069378
4,354167	0,1	-0,038948
4,355833	0,1	-0,054989
4,357500	0,1	-0,063371
4,359167	0,1	-0,072354
4,360833	0,1	-0,057889
4,362500	0,1	-0,057697
4,364167	0,1	-0,089999
4,365833	0,1	-0,060321
4,367500	0,1	-0,060503
4,369167	0,1	-0,093723
4,370833	0,1	-0,046169
4,372500	0,1	-0,039499
4,374167	0,1	-0,051287
4,375833	0,1	-0,057090
4,377500	0,1	-0,045239
4,379167	0,1	-0,076673
4,380833	0,1	-0,086928
4,382500	0,1	-0,061011
4,384167	0,1	-0,085176
4,385833	0,1	-0,056767
4,387500	0,1	-0,041089
4,389167	0,1	-0,095941
4,390833	0,1	-0,059640
4,392500	0,1	-0,058553
4,394167	0,1	-0,102452
4,395833	0,1	-0,058227
4,397500	0,1	-0,089063
4,399167	0,1	-0,094455
4,400833	0,1	-0,048495
4,402500	0,1	-0,061914
4,404167	0,1	-0,078485
4,405833	0,1	-0,071549
4,407500	0,1	-0,069071
4,409167	0,1	-0,108878
4,410833	0,1	-0,056710
4,412500	0,1	-0,085157
4,414167	0,1	-0,052838
4,415833	0,1	-0,074201
4,417500	0,1	-0,057095
4,419167	0,1	-0,087341
4,420833	0,1	-0,102083
4,422500	0,1	-0,050720
4,424167	0,1	-0,080352
4,425833	0,1	-0,049199
4,427500	0,1	-0,060044
4,429167	0,1	-0,055702
4,430833	0,1	-0,080479
4,432500	0,1	-0,072337
4,434167	0,1	-0,100916
4,435833	0,1	-0,050242
4,437500	0,1	-0,046699
4,439167	0,1	-0,041332
4,440833	0,1	-0,070746
4,442500	0,1	-0,105821
4,444167	0,1	-0,077851
4,445833	0,1	-0,040528
4,447500	0,1	-0,117162
4,449167	0,1	-0,072363
4,450833	0,1	-0,066180
4,452500	0,1	-0,058508
4,454167	0,1	-0,045617
4,455833	0,1	-0,086858
4,457500	0,1	-0,071238
4,459167	0,1	-0,087007
4,460833	0,1	-0,090153
4,462500	0,1	-0,069761
4,464167	0,1	-0,050092
4,465833	0,1	-0,100496
4,467500	0,1	-0,063546
4,469167	0,1	-0,110872
4,470833	0,1	-0,035758
4,472500	0,1	-0,070038
4,474167	0,1	-0,050319
4,475833	0,1	-0,058214
4,477500	0,1	-0,054639
4,479167	0,1	-0,090601
4,480833	0,1	-0,066938
4,482500	0,1	-0,066015
4,484167	0,1	-0,059319
4,485833	0,1	-0,105092
4,487500	0,1	-0,066936
4,489167	0,1	-0,116774
4,490833	0,1	-0,112651
4,492500	0,1	-0,071927
4,494167	0,1	-0,069694
4,495833	0,1	-0,085160
4,497500	0,1	-0,088466
4,499167	0,1	-0,051842
4,500833	0,1	-0,120493
4,502500	0,1	-0,083427
4,504167	0,1	-0,048949
4,505833	0,1	-0,064241
4,507500	0,1	-0,058155
4,509167	0,1	-0,083764
4,510833	0,1	-0,057914
4,512500	0,1	-0,097920
4,514167	0,1	-0,062838
4,515833	0,1	-0,098587
4,517500	0,1	-0,045878
4,519167	0,1	-0,097956
4,520833	0,1	-0,093670
4,522500	0,1	-0,093752
4,524167	0,1	-0,083483
4,525833	0,1	-0,052382
4,527500	0,1	-0,099417
4,529167	0,1	-0,099595
4,530833	0,1	-0,045108
4,532500	0,1	-0,073325
4,534167	0,1	-0,061464
4,535833	0,1	-0,082226
4,537500	0,1	-0,086828
4,539167	0,1	-0,092772
4,540833	0,1	-0,066043
4,542500	0,1	-0,076347
4,544167	0,1	-0,102749
4,545833	0,1	-0,103045
4,547500	0,1	-0,078825
4,549167	0,1	-0,141720
4,550833	0,1	-0,095094
4,552500	0,1	-0,069738
4,554167	0,1	-0,087446
4,555833	0,1	-0,101919
4,557500	0,1	-0,043882
4,559167	0,1	-0,081162
4,560833	0,1	-0,087055
4,562500	0,1	-0,114994
4,564167	0,1	-0,068249
4,565833	0,1	-0,088633
4,567500	0,1	-0,103665
4,569167	0,1	-0,071280
4,570833	0,1	-0,094141
4,572500	0,1	-0,123600
4,574167	0,1	-0,083780
4,575833	0,1	-0,101876
4,577500	0,1	-0,081072
4,579167	0,1	-0,056641
4,580833	0,1	-0,099874
4,582500	0,1	-0,057126
4,584167	0,1	-0,110829
4,585833	0,1	-0,133914
4,587500	0,1	-0,077401
4,589167	0,1	-0,098734
4,590833	0,1	-0,125369
4,592500	0,1	-0,094548
4,594167	0,1	-0,106158
4,595833	0,1	-0,112816
4,597500	0,1	-0,108951
4,599167	0,1	-0,092816
4,600833	0,1	-0,118111
4,602500	0,1	-0,127222
4,604167	0,1	-0,083718
4,605833	0,1	-0,128338
4,607500	0,1	-0,087152
4,609167	0,1	-0,122227
4,610833	0,1	-0,092825
4,612500	0,1	-0,074148
4,614167	0,1	-0,137708
4,615833	0,1	-0,104365
4,617500	0,1	-0,088579
4,619167	0,1	-0,101338
4,620833	0,1	-0,097662
4,622500	0,1	-0,099427
4,624167	0,1	-0,089055
4,625833	0,1	-0,107325
4,627500	0,1	-0,139275
4,629167	0,1	-0,131448
4,630833	0,1	-0,124960
4,632500	0,1	-0,101221
4,634167	0,1	-0,096311
4,635833	0,1	-0,119257
4,637500	0,1	-0,100614
4,639167	0,1	-0,126615
4,640833	0,1	-0,088873
4,642500	0,1	-0,094082
4,644167	0,1	-0,127571
4,645833	0,1	-0,124588
4,647500	0,1	-0,112841
4,649167	0,1	-0,142228
4,650833	0,1	-0,155641
4,652500	0,1	-0,105841
4,654167	0,1	-0,115163
4,655833	0,1	-0,124604
4,657500	0,1	-0,119804
4,659167	0,1	-0,084173
4,660833	0,1	-0,112041
4,662500	0,1	-0,131754
4,664167	0,1	-0,141963
4,665833	0,1	-0,091998
4,667500	0,1	-0,119900
4,669167	0,1	-0,114316
4,670833	0,1	-0,185876
4,672500	0,1	-0,162282
4,674167	0,1	-0,139725
4,675833	0,1	-0,147681
4,677500	0,1	-0,170191
4,679167	0,1	-0,129604
4,680833	0,1	-0,100622
4,682500	0,1	-0,123624
4,684167	0,1	-0,134623
4,685833	0,1	-0,136789
4,687500	0,1	-0,126582
4,689167	0,1	-0,154454
4,690833	0,1	-0,122430
4,692500	0,1	-0,145245
4,694167	0,1	-0,142361
4,695833	0,1	-0,138849
4,697500	0,1	-0,158385
4,699167	0,1	-0,156582
4,700833	0,1	-0,159346
4,702500	0,1	-0,151947
4,704167	0,1	-0,158700
4,705833	0,1	-0,157391
4,707500	0,1	-0,144879
4,709167	0,1	-0,163541
4,710833	0,1	-0,147999
4,712500	0,1	-0,160445
4,714167	0,1	-0,125860
4,715833	0,1	-0,147034
4,717500	0,1	-0,169298
4,719167	0,1	-0,128441
4,720833	0,1	-0,176775
4,722500	0,1	-0,169887
4,724167	0,1	-0,176683
4,725833	0,1	-0,134472
4,727500	0,1	-0,152003
4,729167	0,1	-0,185073
4,730833	0,1	-0,173630
4,732500	0,1	-0,117386
4,734167	0,1	-0,177666
4,735833	0,1	-0,133660
4,737500	0,1	-0,138577
4,739167	0,1	-0,127457
4,740833	0,1	-0,153767
4,742500	0,1	-0,149431
4,744167	0,1	-0,157243
4,745833	0,1	-0,122764
4,747500	0,1	-0,165905
4,749167	0,1	-0,153154
4,750833	0,1	-0,158056
4,752500	0,1	-0,184806
4,754167	0,1	-0,125328
4,755833	0,1	-0,185337
4,757500	0,1	-0,191337
4,759167	0,1	-0,163407
4,760833	0,1	-0,166892
4,762500	0,1	-0,158891
4,764167	0,1	-0,159741
4,765833	0,1	-0,129602
4,767500	0,1	-0,157469
4,769167	0,1	-0,178861
4,770833	0,1	-0,148999
4,772500	0,1	-0,167325
4,774167	0,1	-0,182166
4,775833	0,1	-0,180573
4,777500	0,1	-0,153510
4,779167	0,1	-0,168698
4,780833	0,1	-0,164917
4,782500	0,1	-0,194638
4,784167	0,1	-0,195954
4,785833	0,1	-0,159417
4,787500	0,1	-0,184368
4,789167	0,1	-0,160454
4,790833	0,1	-0,191165
4,792500	0,1	-0,194955
4,794167	0,1	-0,217090
4,795833	0,1	-0,210715
4,797500	0,1	-0,182740
4,799167	0,1	-0,190567
4,800833	0,1	-0,162243
4,802500	0,1	-0,191375
4,804167	0,1	-0,171263
4,805833	0,1	-0,209892
4,807500	0,1	-0,178520
4,809167	0,1	-0,179968
4,810833	0,1	-0,175605
4,812500	0,1	-0,199047
4,814167	0,1	-0,195725
4,815833	0,1	-0,185167
4,817500	0,1	-0,251063
4,819167	0,1	-0,198253
4,820833	0,1	-0,182569
4,822500	0,1	-0,207256
4,824167	0,1	-0,176275
4,825833	0,1	-0,204636
4,827500	0,1	-0,199010
4,829167	0,1	-0,187185
4,830833	0,1	-0,202103
4,832500	0,1	-0,211542
4,834167	0,1	-0,199221
4,835833	0,1	-0,178579
4,837500	0,1	-0,178138
4,839167	0,1	-0,195969
4,840833	0,1	-0,179453
4,842500	0,1	-0,218207
4,844167	0,1	-0,187189
4,845833	0,1	-0,208336
4,847500	0,1	-0,200196
4,849167	0,1	-0,191651
4,850833	0,1	-0,256572
4,852500	0,1	-0,176411
4,854167	0,1	-0,193164
4,855833	0,1	-0,203059
4,857500	0,1	-0,206927
4,859167	0,1	-0,221124
4,860833	0,1	-0,216577
4,862500	0,1	-0,167777
4,864167	0,1	-0,231505
4,865833	0,1	-0,213772
4,867500	0,1	-0,194316
4,869167	0,1	-0,236062
4,870833	0,1	-0,193783
4,872500	0,1	-0,200588
4,874167	0,1	-0,171284
4,875833	0,1	-0,179114
4,877500	0,1	-0,227914
4,879167	0,1	-0,211362
4,880833	0,1	-0,210403
4,882500	0,1	-0,231119
4,884167	0,1	-0,222563
4,885833	0,1	-0,210903
4,887500	0,1	-0,199136
4,889167	0,1	-0,220933
4,890833	0,1	-0,205519
4,892500	0,1	-0,206785
4,894167	0,1	-0,187809
4,895833	0,1	-0,193043
4,897500	0,1	-0,245621
4,899167	0,1	-0,215312
4,900833	0,1	-0,198493
4,902500	0,1	-0,232384
4,904167	0,1	-0,252964
4,905833	0,1	-0,196861
4,907500	0,1	-0,218397
4,909167	0,1	-0,237085
4,910833	0,1	-0,235801
4,912500	0,1	-0,222293
4,914167	0,1	-0,218279
4,915833	0,1	-0,263830
4,917500	0,1	-0,219267
4,919167	0,1	-0,227942
4,920833	0,1	-0,218281
4,922500	0,1	-0,231975
4,924167	0,1	-0,211278
4,925833	0,1	-0,232742
4,927500	0,1	-0,220755
4,929167	0,1	-0,192114
4,930833	0,1	-0,207155
4,932500	0,1	-0,224801
4,934167	0,1	-0,218839
4,935833	0,1	-0,195356
4,937500	0,1	-0,183900
4,939167	0,1	-0,246821
4,940833	0,1	-0,247150
4,942500	0,1	-0,258208
4,944167	0,1	-0,250914
4,945833	0,1	-0,234474
4,947500	0,1	-0,215540
4,949167	0,1	-0,220521
4,950833	0,1	-0,253772
4,952500	0,1	-0,247172
4,954167	0,1	-0,204152
4,955833	0,1	-0,221331
4,957500	0,1	-0,234219
4,959167	0,1	-0,212026
4,960833	0,1	-0,233070
4,962500	0,1	-0,243364
4,964167	0,1	-0,234682
4,965833	0,1	-0,219009
4,967500	0,1	-0,244921
4,969167	0,1	-0,221669
4,970833	0,1	-0,240554
4,972500	0,1	-0,255085
4,974167	0,1	-0,204549
4,975833	0,1	-0,230701
4,977500	0,1	-0,219963
4,979167	0,1	-0,247788
4,980833	0,1	-0,235513
4,982500	0,1	-0,242014
4,984167	0,1	-0,248396
4,985833	0,1	-0,244426
4,987500	0,1	-0,245217
4,989167	0,1	-0,209017
4,990833	0,1	-0,209736
4,992500	0,1	-0,214993
4,994167	0,1	-0,231764
4,995833	0,1	-0,225847
4,997500	0,1	-0,248744
4,999167	0,1	-0,254839
5,000833	0,1	-0,232628
5,002500	0,1	-0,249558
5,004167	0,1	-0,275725
5,005833	0,1	-0,270825
5,007500	0,1	-0,272695
5,009167	0,1	-0,248235
5,010833	0,1	-0,247815
5,012500	0,1	-0,271134
5,014167	0,1	-0,232130
5,015833	0,1	-0,236278
5,017500	0,1	-0,222583
5,019167	0,1	-0,219420
5,020833	0,1	-0,209715
5,022500	0,1	-0,262453
5,024167	0,1	-0,264963
5,025833	0,1	-0,209954
5,027500	0,1	-0,259859
5,029167	0,1	-0,252327
5,030833	0,1	-0,253569
5,032500	0,1	-0,290665
5,034167	0,1	-0,268852
5,035833	0,1	-0,252057
5,037500	0,1	-0,240482
5,039167	0,1	-0,227634
5,040833	0,1	-0,268361
5,042500	0,1	-0,297399
5,044167	0,1	-0,266797
5,045833	0,1	-0,267206
5,047500	0,1	-0,235078
5,049167	0,1	-0,246627
5,050833	0,1	-0,224686
5,052500	0,1	-0,234009
5,054167	0,1	-0,271831
5,055833	0,1	-0,280054
5,057500	0,1	-0,273693
5,059167	0,1	-0,318594
5,060833	0,1	-0,214996
5,062500	0,1	-0,265348
5,064167	0,1	-0,243310
5,065833	0,1	-0,252922
5,067500	0,1	-0,246235
5,069167	0,1	-0,247505
5,070833	0,1	-0,280956
5,072500	0,1	-0,286302
5,074167	0,1	-0,267562
5,075833	0,1	-0,266146
5,077500	0,1	-0,286510
5,079167	0,1	-0,208213
5,080833	0,1	-0,248784
5,082500	0,1	-0,275142
5,084167	0,1	-0,286867
5,085833	0,1	-0,282670
5,087500	0,1	-0,245016
5,089167	0,1	-0,274286
5,090833	0,1	-0,294446
5,092500	0,1	-0,250358
5,094167	0,1	-0,266327
5,095833	0,1	-0,266666
5,097500	0,1	-0,261760
5,099167	0,1	-0,262007
5,100833	0,1	-0,236533
5,102500	0,1	-0,256786
5,104167	0,1	-0,229012
5,105833	0,1	-0,292503
5,107500	0,1	-0,239221
5,109167	0,1	-0,279145
5,110833	0,1	-0,267085
5,112500	0,1	-0,257524
5,114167	0,1	-0,237986
5,115833	0,1	-0,290801
5,117500	0,1	-0,276750
5,119167	0,1	-0,281900
5,120833	0,1	-0,273147
5,122500	0,1	-0,269553
5,124167	0,1	-0,238219
5,125833	0,1	-0,256415
5,127500	0,1	-0,270610
5,129167	0,1	-0,311986
5,130833	0,1	-0,282198
5,132500	0,1	-0,283541
5,134167	0,1	-0,234358
5,135833	0,1	-0,266262
5,137500	0,1	-0,287297
5,139167	0,1	-0,276662
5,140833	0,1	-0,240860
5,142500	0,1	-0,264190
5,144167	0,1	-0,271689
5,145833	0,1	-0,252285
5,147500	0,1	-0,247338
5,149167	0,1	-0,276262
5,150833	0,1	-0,256300
5,152500	0,1	-0,298349
5,154167	0,1	-0,257985
5,155833	0,1	-0,305770
5,157500	0,1	-0,247784
5,159167	0,1	-0,216995
5,160833	0,1	-0,310993
5,162500	0,1	-0,287396
5,164167	0,1	-0,247904
5,165833	0,1	-0,255649
5,167500	0,1	-0,253862
5,169167	0,1	-0,265993
5,170833	0,1	-0,286777
5,172500	0,1	-0,294121
5,174167	0,1	-0,302789
5,175833	0,1	-0,302869
5,177500	0,1	-0,310721
5,179167	0,1	-0,322378
5,180833	0,1	-0,279149
5,182500	0,1	-0,291728
5,184167	0,1	-0,254012
5,185833	0,1	-0,255398
5,187500	0,1	-0,283658
5,189167	0,1	-0,279510
5,190833	0,1	-0,287096
5,192500	0,1	-0,286119
5,194167	0,1	-0,273466
5,195833	0,1	-0,225564
5,197500	0,1	-0,288267
5,199167	0,1	-0,252351
5,200833	0,1	-0,237509
5,202500	0,1	-0,291526
5,204167	0,1	-0,296487
5,205833	0,1	-0,306627
5,207500	0,1	-0,281491
5,209167	0,1	-0,243331
5,210833	0,1	-0,306182
5,212500	0,1	-0,272782
5,214167	0,1	-0,293447
5,215833	0,1	-0,265800
5,217500	0,1	-0,322121
5,219167	0,1	-0,258139
5,220833	0,1	-0,246150
5,222500	0,1	-0,244945
5,224167	0,1	-0,241328
5,225833	0,1	-0,279871
5,227500	0,1	-0,246552
5,229167	0,1	-0,270253
5,230833	0,1	-0,289813
5,232500	0,1	-0,270308
5,234167	0,1	-0,305518
5,235833	0,1	-0,273302
5,237500	0,1	-0,277159
5,239167	0,1	-0,288738
5,240833	0,1	-0,282440
5,242500	0,1	-0,292038
5,244167	0,1	-0,308142
5,245833	0,1	-0,309064
5,247500	0,1	-0,308482
5,249167	0,1	-0,300128
5,250833	0,1	-0,258382
5,252500	0,1	-0,284013
5,254167	0,1	-0,293742
5,255833	0,1	-0,303618
5,257500	0,1	-0,252982
5,259167	0,1	-0,261881
5,260833	0,1	-0,290084
5,262500	0,1	-0,283234
5,264167	0,1	-0,316559
5,265833	0,1	-0,275026
5,267500	0,1	-0,265962
5,269167	0,1	-0,285717
5,270833	0,1	-0,263697
5,272500	0,1	-0,315220
5,274167	0,1	-0,271082
5,275833	0,1	-0,266042
5,277500	0,1	-0,302879
5,279167	0,1	-0,318724
5,280833	0,1	-0,290026
5,282500	0,1	-0,283543
5,284167	0,1	-0,307805
5,285833	0,1	-0,298088
5,287500	0,1	-0,291108
5,289167	0,1	-0,281012
5,290833	0,1	-0,289357
5,292500	0,1	-0,277596
5,294167	0,1	-0,242810
5,295833	0,1	-0,261279
5,297500	0,1	-0,271961
5,299167	0,1	-0,277097
5,300833	0,1	-0,268286
5,302500	0,1	-0,279858
5,304167	0,1	-0,295338
5,305833	0,1	-0,322772
5,307500	0,1	-0,306738
5,309167	0,1	-0,315690
5,310833	0,1	-0,277586
5,312500	0,1	-0,266564
5,314167	0,1	-0,283078
5,315833	0,1	-0,284680
5,317500	0,1	-0,318156
5,319167	0,1	-0,293273
5,320833	0,1	-0,283729
5,322500	0,1	-0,312236
5,324167	0,1	-0,281476
5,325833	0,1	-0,311052
5,327500	0,1	-0,288613
5,329167	0,1	-0,299001
5,330833	0,1	-0,281755
5,332500	0,1	-0,323123
5,334167	0,1	-0,292259
5,335833	0,1	-0,270098
5,337500	0,1	-0,281836
5,339167	0,1	-0,282041
5,340833	0,1	-0,305980
5,342500	0,1	-0,327652
5,344167	0,1	-0,272126
5,345833	0,1	-0,319025
5,347500	0,1	-0,307169
5,349167	0,1	-0,330627
5,350833	0,1	-0,320682
5,352500	0,1	-0,296406
5,354167	0,1	-0,268105
5,355833	0,1	-0,293950
5,357500	0,1	-0,336068
5,359167	0,1	-0,286439
5,360833	0,1	-0,323167
5,362500	0,1	-0,322902
5,364167	0,1	-0,327243
5,365833	0,1	-0,299469
5,367500	0,1	-0,307149
5,369167	0,1	-0,256778
5,370833	0,1	-0,285821
5,372500	0,1	-0,283746
5,374167	0,1	-0,313567
5,375833	0,1	-0,302968
5,377500	0,1	-0,285771
5,379167	0,1	-0,342076
5,380833	0,1	-0,331969
5,382500	0,1	-0,280810
5,384167	0,1	-0,292392
5,385833	0,1	-0,255159
5,387500	0,1	-0,306405
5,389167	0,1	-0,291064
5,390833	0,1	-0,281611
5,392500	0,1	-0,308599
5,394167	0,1	-0,318285
5,395833	0,1	-0,306386
5,397500	0,1	-0,331825
5,399167	0,1	-0,293462
5,400833	0,1	-0,271386
5,402500	0,1	-0,313105
5,404167	0,1	-0,307214
5,405833	0,1	-0,281279
5,407500	0,1	-0,289126
5,409167	0,1	-0,337601
5,410833	0,1	-0,288187
5,412500	0,1	-0,276184
5,414167	0,1	-0,336893
5,415833	0,1	-0,313016
5,417500	0,1	-0,327285
5,419167	0,1	-0,320591
5,420833	0,1	-0,325018
5,422500	0,1	-0,276150
5,424167	0,1	-0,321957
5,425833	0,1	-0,311247
5,427500	0,1	-0,303056
5,429167	0,1	-0,307458
5,430833	0,1	-0,322149
5,432500	0,1	-0,327533
5,434167	0,1	-0,312034
5,435833	0,1	-0,298363
5,437500	0,1	-0,316686
5,439167	0,1	-0,310142
5,440833	0,1	-0,327946
5,442500	0,1	-0,285838
5,444167	0,1	-0,320317
5,445833	0,1	-0,303810
5,447500	0,1	-0,303470
5,449167	0,1	-0,291233
5,450833	0,1	-0,259457
5,452500	0,1	-0,308612
5,454167	0,1	-0,390304
5,455833	0,1	-0,320819
5,457500	0,1	-0,301727
5,459167	0,1	-0,282982
5,460833	0,1	-0,289878
5,462500	0,1	-0,286366
5,464167	0,1	-0,322055
5,465833	0,1	-0,347437
5,467500	0,1	-0,306913
5,469167	0,1	-0,323896
5,470833	0,1	-0,299839
5,472500	0,1	-0,303840
5,474167	0,1	-0,315723
5,475833	0,1	-0,280409
5,477500	0,1	-0,296943
5,479167	0,1	-0,323786
5,480833	0,1	-0,336596
5,482500	0,1	-0,249620
5,484167	0,1	-0,274490
5,485833	0,1	-0,317235
5,487500	0,1	-0,339399
5,489167	0,1	-0,299306
5,490833	0,1	-0,297919
5,492500	0,1	-0,307376
5,494167	0,1	-0,304636
5,495833	0,1	-0,322438
5,497500	0,1	-0,312951
5,499167	0,1	-0,269599
5,500833	0,1	-0,304230
5,502500	0,1	-0,309973
5,504167	0,1	-0,325228
5,505833	0,1	-0,306943
5,507500	0,1	-0,344628
5,509167	0,1	-0,304079
5,510833	0,1	-0,304882
5,512500	0,1	-0,286494
5,514167	0,1	-0,365337
5,515833	0,1	-0,279732
5,517500	0,1	-0,310796
5,519167	0,1	-0,329339
5,520833	0,1	-0,323566
5,522500	0,1	-0,277041
5,524167	0,1	-0,316053
5,525833	0,1	-0,297781
5,527500	0,1	-0,295386
5,529167	0,1	-0,328479
5,530833	0,1	-0,319991
5,532500	0,1	-0,314300
5,534167	0,1	-0,366465
5,535833	0,1	-0,350269
5,537500	0,1	-0,301257
5,539167	0,1	-0,301537
5,540833	0,1	-0,315230
5,542500	0,1	-0,313011
5,544167	0,1	-0,310080
5,545833	0,1	-0,351359
5,547500	0,1	-0,330850
5,549167	0,1	-0,329221
5,550833	0,1	-0,284154
5,552500	0,1	-0,320104
5,554167	0,1	-0,368460
5,555833	0,1	-0,283643
5,557500	0,1	-0,300924
5,559167	0,1	-0,319386
5,560833	0,1	-0,286578
5,562500	0,1	-0,295321
5,564167	0,1	-0,302242
5,565833	0,1	-0,308499
5,567500	0,1	-0,332084
5,569167	0,1	-0,324562
5,570833	0,1	-0,290655
5,572500	0,1	-0,333861
5,574167	0,1	-0,307605
5,575833	0,1	-0,311182
5,577500	0,1	-0,271557
5,579167	0,1	-0,303983
5,580833	0,1	-0,321273
5,582500	0,1	-0,328390
5,584167	0,1	-0,341996
5,585833	0,1	-0,333106
5,587500	0,1	-0,300072
5,589167	0,1	-0,300434
5,590833	0,1	-0,284306
5,592500	0,1	-0,301426
5,594167	0,1	-0,304758
5,595833	0,1	-0,308146
5,597500	0,1	-0,291400
5,599167	0,1	-0,321131
5,600833	0,1	-0,342331
5,602500	0,1	-0,316068
5,604167	0,1	-0,353752
5,605833	0,1	-0,304540
5,607500	0,1	-0,327467
5,609167	0,1	-0,304472
5,610833	0,1	-0,302518
5,612500	0,1	-0,313652
5,614167	0,1	-0,295972
5,615833	0,1	-0,277685
5,617500	0,1	-0,290644
5,619167	0,1	-0,325806
5,620833	0,1	-0,333269
5,622500	0,1	-0,343514
5,624167	0,1	-0,340850
5,625833	0,1	-0,315196
5,627500	0,1	-0,315128
5,629167	0,1	-0,314589
5,630833	0,1	-0,324003
5,632500	0,1	-0,318042
5,634167	0,1	-0,318410
5,635833	0,1	-0,336364
5,637500	0,1	-0,318184
5,639167	0,1	-0,296786
5,640833	0,1	-0,332053
5,642500	0,1	-0,297310
5,644167	0,1	-0,253538
5,645833	0,1	-0,344782
5,647500	0,1	-0,321637
5,649167	0,1	-0,307277
5,650833	0,1	-0,309727
5,652500	0,1	-0,327715
5,654167	0,1	-0,334742
5,655833	0,1	-0,328198
5,657500	0,1	-0,309026
5,659167	0,1	-0,294868
5,660833	0,1	-0,307792
5,662500	0,1	-0,328192
5,664167	0,1	-0,337839
5,665833	0,1	-0,328735
5,667500	0,1	-0,326416
5,669167	0,1	-0,286622
5,670833	0,1	-0,314751
5,672500	0,1	-0,314052
5,674167	0,1	-0,312656
5,675833	0,1	-0,316979
5,677500	0,1	-0,303473
5,679167	0,1	-0,336838
5,680833	0,1	-0,310915
5,682500	0,1	-0,316431
5,684167	0,1	-0,342804
5,685833	0,1	-0,332893
5,687500	0,1	-0,321237
5,689167	0,1	-0,322442
5,690833	0,1	-0,327012
5,692500	0,1	-0,315208
5,694167	0,1	-0,332181
5,695833	0,1	-0,318457
5,697500	0,1	-0,320219
5,699167	0,1	-0,356224
5,700833	0,1	-0,296750
5,702500	0,1	-0,342799
5,704167	0,1	-0,286151
5,705833	0,1	-0,336849
5,707500	0,1	-0,334701
5,709167	0,1	-0,338010
5,710833	0,1	-0,320347
5,712500	0,1	-0,338481
5,714167	0,1	-0,315944
5,715833	0,1	-0,300851
5,717500	0,1	-0,309679
5,719167	0,1	-0,317102
5,720833	0,1	-0,324407
5,722500	0,1	-0,330076
5,724167	0,1	-0,319701
5,725833	0,1	-0,346777
5,727500	0,1	-0,296933
5,729167	0,1	-0,296982
5,730833	0,1	-0,305479
5,732500	0,1	-0,336361
5,734167	0,1	-0,333489
5,735833	0,1	-0,344819
5,737500	0,1	-0,296580
5,739167	0,1	-0,327360
5,740833	0,1	-0,334637
5,742500	0,1	-0,357975
5,744167	0,1	-0,301613
5,745833	0,1	-0,302348
5,747500	0,1	-0,323602
5,749167	0,1	-0,316726
5,750833	0,1	-0,357157
5,752500	0,1	-0,328540
5,754167	0,1	-0,317449
5,755833	0,1	-0,330093
5,757500	0,1	-0,322154
5,759167	0,1	-0,296972
5,760833	0,1	-0,316427
5,762500	0,1	-0,367753
5,764167	0,1	-0,315095
5,765833	0,1	-0,313778
5,767500	0,1	-0,321753
5,769167	0,1	-0,346503
5,770833	0,1	-0,312470
5,772500	0,1	-0,308182
5,774167	0,1	-0,337834
5,775833	0,1	-0,331509
5,777500	0,1	-0,331064
5,779167	0,1	-0,320882
5,780833	0,1	-0,322442
5,782500	0,1	-0,342654
5,784167	0,1	-0,355691
5,785833	0,1	-0,309526
5,787500	0,1	-0,312982
5,789167	0,1	-0,366693
5,790833	0,1	-0,307597
5,792500	0,1	-0,344506
5,794167	0,1	-0,322448
5,795833	0,1	-0,332042
5,797500	0,1	-0,351549
5,799167	0,1	-0,303235
5,800833	0,1	-0,373607
5,802500	0,1	-0,330873
5,804167	0,1	-0,341827
5,805833	0,1	-0,275201
5,807500	0,1	-0,318339
5,809167	0,1	-0,337026
5,810833	0,1	-0,309688
5,812500	0,1	-0,337668
5,814167	0,1	-0,338055
5,815833	0,1	-0,343656
5,817500	0,1	-0,339500
5,819167	0,1	-0,314305
5,820833	0,1	-0,335047
5,822500	0,1	-0,311161
5,824167	0,1	-0,315065
5,825833	0,1	-0,334341
5,827500	0,1	-0,321237
5,829167	0,1	-0,353876
5,830833	0,1	-0,304709
5,832500	0,1	-0,297982
5,834167	0,1	-0,335274
5,835833	0,1	-0,374750
5,837500	0,1	-0,337268
5,839167	0,1	-0,306345
5,840833	0,1	-0,330688
5,842500	0,1	-0,327705
5,844167	0,1	-0,330067
5,845833	0,1	-0,347377
5,847500	0,1	-0,319644
5,849167	0,1	-0,354122
5,850833	0,1	-0,350020
5,852500	0,1	-0,361611
5,854167	0,1	-0,297704
5,855833	0,1	-0,393569
5,857500	0,1	-0,358940
5,859167	0,1	-0,332879
5,860833	0,1	-0,342826
5,862500	0,1	-0,351827
5,864167	0,1	-0,353717
5,865833	0,1	-0,310875
5,867500	0,1	-0,337991
5,869167	0,1	-0,339253
5,870833	0,1	-0,306133
5,872500	0,1	-0,314790
5,874167	0,1	-0,318718
5,875833	0,1	-0,341763
5,877500	0,1	-0,327880
5,879167	0,1	-0,321941
5,880833	0,1	-0,355595
5,882500	0,1	-0,336283
5,884167	0,1	-0,356995
5,885833	0,1	-0,337695
5,887500	0,1	-0,354357
5,889167	0,1	-0,308528
5,890833	0,1	-0,314729
5,892500	0,1	-0,316706
5,894167	0,1	-0,307689
5,895833	0,1	-0,341883
5,897500	0,1	-0,311162
5,899167	0,1	-0,326014
5,900833	0,1	-0,335078
5,902500	0,1	-0,344802
5,904167	0,1	-0,326312
5,905833	0,1	-0,276167
5,907500	0,1	-0,370106
5,909167	0,1	-0,346866
5,910833	0,1	-0,343181
5,912500	0,1	-0,359526
5,914167	0,1	-0,322806
5,915833	0,1	-0,370407
5,917500	0,1	-0,321123
5,919167	0,1	-0,374440
5,920833	0,1	-0,316369
5,922500	0,1	-0,310161
5,924167	0,1	-0,307935
5,925833	0,1	-0,337024
5,927500	0,1	-0,375425
5,929167	0,1	-0,330553
5,930833	0,1	-0,351610
5,932500	0,1	-0,342907
5,934167	0,1	-0,341355
5,935833	0,1	-0,319932
5,937500	0,1	-0,367294
5,939167	0,1	-0,309051
5,940833	0,1	-0,369317
5,942500	0,1	-0,334752
5,944167	0,1	-0,344252
5,945833	0,1	-0,362040
5,947500	0,1	-0,340839
5,949167	0,1	-0,365643
5,950833	0,1	-0,318422
5,952500	0,1	-0,348220
5,954167	0,1	-0,304450
5,955833	0,1	-0,331947
5,957500	0,1	-0,335803
5,959167	0,1	-0,347932
5,960833	0,1	-0,319290
5,962500	0,1	-0,351256
5,964167	0,1	-0,356785
5,965833	0,1	-0,345636
5,967500	0,1	-0,357948
5,969167	0,1	-0,331699
5,970833	0,1	-0,361103
5,972500	0,1	-0,332007
5,974167	0,1	-0,318722
5,975833	0,1	-0,358709
5,977500	0,1	-0,313083
5,979167	0,1	-0,367079
5,980833	0,1	-0,297600
5,982500	0,1	-0,355343
5,984167	0,1	-0,332896
5,985833	0,1	-0,330269
5,987500	0,1	-0,351382
5,989167	0,1	-0,334122
5,990833	0,1	-0,337751
5,992500	0,1	-0,364093
5,994167	0,1	-0,335826
5,995833	0,1	-0,323459
5,997500	0,1	-0,310761
5,999167	0,1	-0,356804
6,000833	0,1	-0,334598
