File Path	chrom://chromeleon01/ikbm_chromeleon/2022/Rezex/Esteban/220612_chitin_4_7.seq/732.smp/UV_VIS_1.channel/UV_VIS_1.chm
Channel	UV_VIS_1

Injection Information:
Data Vault	ikbm_chromeleon
Injection	Blank
Injection Number	124
Position	RA1
Comment	
Processing Method	New ProcMethod
Instrument Method	Short_Rezex_6min_194nm
Type	Blank
Status	Finished
Injection Date	13.06.2022
Injection Time	06:30:11
Injection Volume (µl)	8,000
Dilution Factor	1,0000
Weight	1,0000

Chromatogram Data Information:
Time Min. (min)	0,000833
Time Max. (min)	6,000833
Data Points	3601
Detector	UV
Generating Data System	Chromeleon 7.2.9.11323
Exporting Data System	Chromeleon 7.2.9.0
Operator	Instrument Controller
Signal Quantity	Absorbance
Signal Unit	mAU
Signal Min.	-0,100898
Signal Max.	0,517523
Channel	UV_VIS_1
Driver Name	VWD3000.dll
Channel Type	Evaluation
Min. Step (s)	0,1
Max. Step (s)	0,1
Average Step (s)	0,1

Signal Parameter Information:
Signal Info	WVL:194 nm

Chromatogram Data:
Time (min)	Step (s)	Value (mAU)
0,000833	n.a.	0,028151
0,002500	0,1	0,015085
0,004167	0,1	0,008679
0,005833	0,1	0,029175
0,007500	0,1	0,019936
0,009167	0,1	0,004363
0,010833	0,1	0,053263
0,012500	0,1	0,013929
0,014167	0,1	0,047071
0,015833	0,1	0,049486
0,017500	0,1	0,034969
0,019167	0,1	0,033912
0,020833	0,1	0,001510
0,022500	0,1	0,064963
0,024167	0,1	0,029201
0,025833	0,1	0,024583
0,027500	0,1	0,038375
0,029167	0,1	0,021729
0,030833	0,1	0,051672
0,032500	0,1	0,053976
0,034167	0,1	0,030529
0,035833	0,1	0,053380
0,037500	0,1	0,054255
0,039167	0,1	0,004311
0,040833	0,1	0,012162
0,042500	0,1	0,026103
0,044167	0,1	0,023300
0,045833	0,1	0,065549
0,047500	0,1	0,037585
0,049167	0,1	0,037239
0,050833	0,1	0,045395
0,052500	0,1	0,059917
0,054167	0,1	0,030060
0,055833	0,1	-0,043134
0,057500	0,1	0,034185
0,059167	0,1	0,031699
0,060833	0,1	0,043191
0,062500	0,1	0,046269
0,064167	0,1	-0,014927
0,065833	0,1	0,037398
0,067500	0,1	0,030477
0,069167	0,1	0,017651
0,070833	0,1	0,008851
0,072500	0,1	0,030722
0,074167	0,1	0,033101
0,075833	0,1	0,037047
0,077500	0,1	0,000047
0,079167	0,1	0,023704
0,080833	0,1	0,031854
0,082500	0,1	0,032968
0,084167	0,1	0,026556
0,085833	0,1	-0,035742
0,087500	0,1	0,038396
0,089167	0,1	0,043001
0,090833	0,1	-0,006231
0,092500	0,1	0,029111
0,094167	0,1	0,040675
0,095833	0,1	0,047151
0,097500	0,1	0,052850
0,099167	0,1	0,035490
0,100833	0,1	0,056648
0,102500	0,1	0,006416
0,104167	0,1	-0,003335
0,105833	0,1	0,057569
0,107500	0,1	0,066490
0,109167	0,1	0,021288
0,110833	0,1	0,021255
0,112500	0,1	0,023759
0,114167	0,1	0,024544
0,115833	0,1	0,053547
0,117500	0,1	-0,000298
0,119167	0,1	-0,009941
0,120833	0,1	0,054240
0,122500	0,1	0,053047
0,124167	0,1	0,079957
0,125833	0,1	0,029484
0,127500	0,1	0,054407
0,129167	0,1	0,023136
0,130833	0,1	0,009520
0,132500	0,1	0,021442
0,134167	0,1	0,026166
0,135833	0,1	0,067534
0,137500	0,1	0,054622
0,139167	0,1	0,052574
0,140833	0,1	0,041829
0,142500	0,1	0,001572
0,144167	0,1	0,023656
0,145833	0,1	0,056827
0,147500	0,1	0,021793
0,149167	0,1	0,066022
0,150833	0,1	0,042232
0,152500	0,1	0,046218
0,154167	0,1	-0,001522
0,155833	0,1	0,013554
0,157500	0,1	0,012517
0,159167	0,1	0,018748
0,160833	0,1	0,003890
0,162500	0,1	0,074077
0,164167	0,1	0,047619
0,165833	0,1	0,064636
0,167500	0,1	0,023779
0,169167	0,1	0,013811
0,170833	0,1	0,021192
0,172500	0,1	0,010293
0,174167	0,1	0,039036
0,175833	0,1	0,021186
0,177500	0,1	0,034610
0,179167	0,1	0,048650
0,180833	0,1	0,033045
0,182500	0,1	0,063507
0,184167	0,1	0,067047
0,185833	0,1	0,049189
0,187500	0,1	0,008507
0,189167	0,1	0,063175
0,190833	0,1	0,049225
0,192500	0,1	0,027093
0,194167	0,1	0,034951
0,195833	0,1	0,039635
0,197500	0,1	0,041668
0,199167	0,1	0,017872
0,200833	0,1	0,037066
0,202500	0,1	0,003955
0,204167	0,1	0,019387
0,205833	0,1	0,029688
0,207500	0,1	0,042526
0,209167	0,1	0,077328
0,210833	0,1	0,036198
0,212500	0,1	-0,001636
0,214167	0,1	0,024624
0,215833	0,1	0,057612
0,217500	0,1	0,040028
0,219167	0,1	0,028071
0,220833	0,1	0,060893
0,222500	0,1	0,044530
0,224167	0,1	0,043002
0,225833	0,1	0,079662
0,227500	0,1	-0,001987
0,229167	0,1	0,049995
0,230833	0,1	0,047479
0,232500	0,1	0,057631
0,234167	0,1	0,053823
0,235833	0,1	0,070227
0,237500	0,1	0,026698
0,239167	0,1	0,041944
0,240833	0,1	-0,018446
0,242500	0,1	0,023508
0,244167	0,1	0,009773
0,245833	0,1	-0,010528
0,247500	0,1	0,074715
0,249167	0,1	0,025163
0,250833	0,1	-0,002590
0,252500	0,1	0,065483
0,254167	0,1	0,027786
0,255833	0,1	0,035763
0,257500	0,1	0,040543
0,259167	0,1	0,039020
0,260833	0,1	0,070502
0,262500	0,1	0,005306
0,264167	0,1	0,041650
0,265833	0,1	0,057919
0,267500	0,1	0,018517
0,269167	0,1	0,039790
0,270833	0,1	0,032039
0,272500	0,1	0,023591
0,274167	0,1	0,042004
0,275833	0,1	0,054084
0,277500	0,1	0,051704
0,279167	0,1	0,012634
0,280833	0,1	0,033376
0,282500	0,1	0,048952
0,284167	0,1	0,039276
0,285833	0,1	0,034725
0,287500	0,1	0,012751
0,289167	0,1	0,043404
0,290833	0,1	0,061575
0,292500	0,1	0,032686
0,294167	0,1	0,021959
0,295833	0,1	0,045730
0,297500	0,1	0,034508
0,299167	0,1	0,061886
0,300833	0,1	0,022426
0,302500	0,1	0,010875
0,304167	0,1	0,084846
0,305833	0,1	0,035485
0,307500	0,1	0,061839
0,309167	0,1	0,029661
0,310833	0,1	0,065152
0,312500	0,1	0,033449
0,314167	0,1	0,028261
0,315833	0,1	0,063929
0,317500	0,1	0,031185
0,319167	0,1	0,045333
0,320833	0,1	0,051289
0,322500	0,1	0,058515
0,324167	0,1	0,079449
0,325833	0,1	0,006641
0,327500	0,1	0,031800
0,329167	0,1	0,063919
0,330833	0,1	0,036544
0,332500	0,1	0,022128
0,334167	0,1	0,014601
0,335833	0,1	0,051100
0,337500	0,1	0,063632
0,339167	0,1	0,051112
0,340833	0,1	0,064334
0,342500	0,1	0,038481
0,344167	0,1	0,033030
0,345833	0,1	0,044003
0,347500	0,1	0,035247
0,349167	0,1	0,040905
0,350833	0,1	0,018644
0,352500	0,1	0,059099
0,354167	0,1	0,062486
0,355833	0,1	0,050168
0,357500	0,1	0,058441
0,359167	0,1	0,042885
0,360833	0,1	0,077026
0,362500	0,1	0,030766
0,364167	0,1	0,039900
0,365833	0,1	0,015437
0,367500	0,1	0,000614
0,369167	0,1	0,067468
0,370833	0,1	0,019824
0,372500	0,1	0,056812
0,374167	0,1	0,056120
0,375833	0,1	0,058564
0,377500	0,1	0,062932
0,379167	0,1	0,026525
0,380833	0,1	0,037687
0,382500	0,1	0,075233
0,384167	0,1	0,041945
0,385833	0,1	0,071956
0,387500	0,1	0,058047
0,389167	0,1	0,056640
0,390833	0,1	0,060198
0,392500	0,1	0,049647
0,394167	0,1	0,046911
0,395833	0,1	0,052209
0,397500	0,1	0,021903
0,399167	0,1	0,020712
0,400833	0,1	0,058484
0,402500	0,1	0,055878
0,404167	0,1	0,003950
0,405833	0,1	0,058322
0,407500	0,1	0,059447
0,409167	0,1	0,043345
0,410833	0,1	0,088690
0,412500	0,1	0,016671
0,414167	0,1	0,072082
0,415833	0,1	0,008430
0,417500	0,1	0,053083
0,419167	0,1	0,025278
0,420833	0,1	0,008130
0,422500	0,1	0,062279
0,424167	0,1	0,032455
0,425833	0,1	0,027438
0,427500	0,1	0,041595
0,429167	0,1	0,019565
0,430833	0,1	0,051974
0,432500	0,1	0,008968
0,434167	0,1	0,049164
0,435833	0,1	0,008217
0,437500	0,1	0,024797
0,439167	0,1	0,026554
0,440833	0,1	0,059016
0,442500	0,1	0,023187
0,444167	0,1	0,013608
0,445833	0,1	0,072359
0,447500	0,1	0,028441
0,449167	0,1	0,036186
0,450833	0,1	0,057095
0,452500	0,1	0,078601
0,454167	0,1	0,044280
0,455833	0,1	0,075804
0,457500	0,1	0,054539
0,459167	0,1	0,036894
0,460833	0,1	0,018211
0,462500	0,1	0,016124
0,464167	0,1	-0,016409
0,465833	0,1	0,047235
0,467500	0,1	0,066777
0,469167	0,1	0,046721
0,470833	0,1	0,010770
0,472500	0,1	0,075578
0,474167	0,1	0,086133
0,475833	0,1	0,045104
0,477500	0,1	0,058162
0,479167	0,1	0,020489
0,480833	0,1	0,060492
0,482500	0,1	0,046974
0,484167	0,1	0,047250
0,485833	0,1	0,029305
0,487500	0,1	0,030173
0,489167	0,1	0,044040
0,490833	0,1	0,021489
0,492500	0,1	0,048308
0,494167	0,1	0,049234
0,495833	0,1	0,088474
0,497500	0,1	0,062298
0,499167	0,1	0,044809
0,500833	0,1	0,064756
0,502500	0,1	0,069165
0,504167	0,1	0,051271
0,505833	0,1	0,058431
0,507500	0,1	0,074076
0,509167	0,1	0,031356
0,510833	0,1	0,043409
0,512500	0,1	0,078853
0,514167	0,1	0,028722
0,515833	0,1	0,051795
0,517500	0,1	0,075115
0,519167	0,1	0,034975
0,520833	0,1	0,039418
0,522500	0,1	0,052086
0,524167	0,1	0,046959
0,525833	0,1	-0,000781
0,527500	0,1	0,055115
0,529167	0,1	0,033977
0,530833	0,1	0,066908
0,532500	0,1	0,049578
0,534167	0,1	0,034667
0,535833	0,1	0,019213
0,537500	0,1	0,031501
0,539167	0,1	0,046484
0,540833	0,1	0,015137
0,542500	0,1	0,074575
0,544167	0,1	0,025092
0,545833	0,1	0,032156
0,547500	0,1	0,054941
0,549167	0,1	0,066900
0,550833	0,1	0,069952
0,552500	0,1	0,047605
0,554167	0,1	0,059095
0,555833	0,1	0,013969
0,557500	0,1	0,048995
0,559167	0,1	0,083743
0,560833	0,1	0,026349
0,562500	0,1	0,055521
0,564167	0,1	0,040510
0,565833	0,1	0,063219
0,567500	0,1	0,039908
0,569167	0,1	0,054071
0,570833	0,1	0,033484
0,572500	0,1	0,055583
0,574167	0,1	0,023247
0,575833	0,1	0,018109
0,577500	0,1	0,046189
0,579167	0,1	0,049003
0,580833	0,1	0,089465
0,582500	0,1	0,002615
0,584167	0,1	0,047239
0,585833	0,1	0,016820
0,587500	0,1	0,052843
0,589167	0,1	0,067020
0,590833	0,1	0,077841
0,592500	0,1	0,045092
0,594167	0,1	0,077340
0,595833	0,1	0,043289
0,597500	0,1	0,070274
0,599167	0,1	0,099781
0,600833	0,1	0,040390
0,602500	0,1	0,049353
0,604167	0,1	0,070625
0,605833	0,1	0,058217
0,607500	0,1	0,041941
0,609167	0,1	0,066776
0,610833	0,1	0,083334
0,612500	0,1	0,029787
0,614167	0,1	0,046252
0,615833	0,1	0,031339
0,617500	0,1	0,043228
0,619167	0,1	0,056868
0,620833	0,1	0,044154
0,622500	0,1	0,065833
0,624167	0,1	0,049128
0,625833	0,1	0,042000
0,627500	0,1	0,036297
0,629167	0,1	0,070333
0,630833	0,1	0,017419
0,632500	0,1	0,055398
0,634167	0,1	0,070701
0,635833	0,1	0,022076
0,637500	0,1	0,053317
0,639167	0,1	0,015199
0,640833	0,1	0,021603
0,642500	0,1	0,064836
0,644167	0,1	0,019741
0,645833	0,1	0,040841
0,647500	0,1	0,068119
0,649167	0,1	0,047194
0,650833	0,1	0,053263
0,652500	0,1	0,034655
0,654167	0,1	0,072777
0,655833	0,1	0,058205
0,657500	0,1	0,084615
0,659167	0,1	0,041196
0,660833	0,1	0,040628
0,662500	0,1	0,073648
0,664167	0,1	0,026867
0,665833	0,1	0,066433
0,667500	0,1	0,090631
0,669167	0,1	0,068711
0,670833	0,1	0,054829
0,672500	0,1	0,079726
0,674167	0,1	0,054312
0,675833	0,1	0,023898
0,677500	0,1	0,050111
0,679167	0,1	0,069984
0,680833	0,1	0,044472
0,682500	0,1	0,105642
0,684167	0,1	0,060100
0,685833	0,1	0,091271
0,687500	0,1	0,062819
0,689167	0,1	0,067083
0,690833	0,1	0,041084
0,692500	0,1	0,054944
0,694167	0,1	0,065218
0,695833	0,1	0,045572
0,697500	0,1	0,039796
0,699167	0,1	0,074823
0,700833	0,1	0,041133
0,702500	0,1	0,029354
0,704167	0,1	0,048297
0,705833	0,1	0,057752
0,707500	0,1	0,089057
0,709167	0,1	0,044162
0,710833	0,1	0,076976
0,712500	0,1	0,026385
0,714167	0,1	0,098135
0,715833	0,1	0,031581
0,717500	0,1	0,058739
0,719167	0,1	0,041119
0,720833	0,1	0,049595
0,722500	0,1	0,038975
0,724167	0,1	0,048651
0,725833	0,1	0,033203
0,727500	0,1	0,012620
0,729167	0,1	0,046382
0,730833	0,1	0,064044
0,732500	0,1	0,030750
0,734167	0,1	0,039309
0,735833	0,1	0,032208
0,737500	0,1	0,069036
0,739167	0,1	0,059728
0,740833	0,1	0,037463
0,742500	0,1	0,070854
0,744167	0,1	0,091273
0,745833	0,1	0,055184
0,747500	0,1	0,096279
0,749167	0,1	0,048494
0,750833	0,1	0,034315
0,752500	0,1	0,066884
0,754167	0,1	0,065257
0,755833	0,1	0,113551
0,757500	0,1	0,038809
0,759167	0,1	0,072026
0,760833	0,1	0,055132
0,762500	0,1	0,066187
0,764167	0,1	0,080527
0,765833	0,1	0,090744
0,767500	0,1	0,075876
0,769167	0,1	0,040213
0,770833	0,1	0,068699
0,772500	0,1	0,076402
0,774167	0,1	0,105130
0,775833	0,1	0,062242
0,777500	0,1	0,091852
0,779167	0,1	0,068786
0,780833	0,1	0,062717
0,782500	0,1	0,100649
0,784167	0,1	0,088594
0,785833	0,1	0,039346
0,787500	0,1	0,091847
0,789167	0,1	0,095768
0,790833	0,1	0,027733
0,792500	0,1	0,123683
0,794167	0,1	0,068491
0,795833	0,1	0,064908
0,797500	0,1	0,051911
0,799167	0,1	0,062460
0,800833	0,1	0,046599
0,802500	0,1	0,108462
0,804167	0,1	0,060960
0,805833	0,1	0,067482
0,807500	0,1	0,061954
0,809167	0,1	0,067956
0,810833	0,1	0,020685
0,812500	0,1	0,098027
0,814167	0,1	0,062821
0,815833	0,1	0,088200
0,817500	0,1	0,068482
0,819167	0,1	0,101306
0,820833	0,1	0,072041
0,822500	0,1	0,032457
0,824167	0,1	0,069399
0,825833	0,1	0,074249
0,827500	0,1	0,084619
0,829167	0,1	0,057640
0,830833	0,1	0,068257
0,832500	0,1	0,101306
0,834167	0,1	0,086211
0,835833	0,1	0,108703
0,837500	0,1	0,069310
0,839167	0,1	0,039681
0,840833	0,1	0,125306
0,842500	0,1	0,093549
0,844167	0,1	0,050709
0,845833	0,1	0,103792
0,847500	0,1	0,072491
0,849167	0,1	0,077685
0,850833	0,1	0,080034
0,852500	0,1	0,085903
0,854167	0,1	0,076865
0,855833	0,1	0,079393
0,857500	0,1	0,083519
0,859167	0,1	0,101416
0,860833	0,1	0,065061
0,862500	0,1	0,134230
0,864167	0,1	0,080846
0,865833	0,1	0,044233
0,867500	0,1	0,101927
0,869167	0,1	0,070759
0,870833	0,1	0,093501
0,872500	0,1	0,031640
0,874167	0,1	0,047427
0,875833	0,1	0,095939
0,877500	0,1	0,059506
0,879167	0,1	0,105285
0,880833	0,1	0,078808
0,882500	0,1	0,077797
0,884167	0,1	0,080942
0,885833	0,1	0,072339
0,887500	0,1	0,097046
0,889167	0,1	0,089174
0,890833	0,1	0,095599
0,892500	0,1	0,083052
0,894167	0,1	0,084115
0,895833	0,1	0,076419
0,897500	0,1	0,068405
0,899167	0,1	0,073729
0,900833	0,1	0,078679
0,902500	0,1	0,108470
0,904167	0,1	0,073158
0,905833	0,1	0,087233
0,907500	0,1	0,071325
0,909167	0,1	0,078932
0,910833	0,1	0,075303
0,912500	0,1	0,116348
0,914167	0,1	0,099960
0,915833	0,1	0,093895
0,917500	0,1	0,083754
0,919167	0,1	0,064523
0,920833	0,1	0,069759
0,922500	0,1	0,072917
0,924167	0,1	0,102393
0,925833	0,1	0,086150
0,927500	0,1	0,086317
0,929167	0,1	0,075305
0,930833	0,1	0,068358
0,932500	0,1	0,092798
0,934167	0,1	0,112139
0,935833	0,1	0,100383
0,937500	0,1	0,104919
0,939167	0,1	0,096230
0,940833	0,1	0,079155
0,942500	0,1	0,062695
0,944167	0,1	0,065512
0,945833	0,1	0,098254
0,947500	0,1	0,064298
0,949167	0,1	0,108891
0,950833	0,1	0,075613
0,952500	0,1	0,076816
0,954167	0,1	0,065914
0,955833	0,1	0,075820
0,957500	0,1	0,109752
0,959167	0,1	0,057827
0,960833	0,1	0,071343
0,962500	0,1	0,085562
0,964167	0,1	0,095417
0,965833	0,1	0,070710
0,967500	0,1	0,092267
0,969167	0,1	0,099339
0,970833	0,1	0,097925
0,972500	0,1	0,091341
0,974167	0,1	0,081551
0,975833	0,1	0,077943
0,977500	0,1	0,092814
0,979167	0,1	0,091218
0,980833	0,1	0,088788
0,982500	0,1	0,088388
0,984167	0,1	0,091170
0,985833	0,1	0,084284
0,987500	0,1	0,134600
0,989167	0,1	0,076200
0,990833	0,1	0,099612
0,992500	0,1	0,091754
0,994167	0,1	0,137963
0,995833	0,1	0,087213
0,997500	0,1	0,090358
0,999167	0,1	0,092913
1,000833	0,1	0,140496
1,002500	0,1	0,104686
1,004167	0,1	0,079631
1,005833	0,1	0,053983
1,007500	0,1	0,096859
1,009167	0,1	0,085472
1,010833	0,1	0,120779
1,012500	0,1	0,102722
1,014167	0,1	0,123652
1,015833	0,1	0,084245
1,017500	0,1	0,151261
1,019167	0,1	0,134601
1,020833	0,1	0,081391
1,022500	0,1	0,093442
1,024167	0,1	0,108947
1,025833	0,1	0,095266
1,027500	0,1	0,128189
1,029167	0,1	0,105350
1,030833	0,1	0,092443
1,032500	0,1	0,094040
1,034167	0,1	0,098212
1,035833	0,1	0,069657
1,037500	0,1	0,076815
1,039167	0,1	0,131634
1,040833	0,1	0,105689
1,042500	0,1	0,094090
1,044167	0,1	0,116109
1,045833	0,1	0,114190
1,047500	0,1	0,101944
1,049167	0,1	0,114005
1,050833	0,1	0,060636
1,052500	0,1	0,101365
1,054167	0,1	0,118509
1,055833	0,1	0,123292
1,057500	0,1	0,137816
1,059167	0,1	0,070600
1,060833	0,1	0,127757
1,062500	0,1	0,103472
1,064167	0,1	0,113728
1,065833	0,1	0,145584
1,067500	0,1	0,133426
1,069167	0,1	0,095015
1,070833	0,1	0,125259
1,072500	0,1	0,136291
1,074167	0,1	0,077943
1,075833	0,1	0,099734
1,077500	0,1	0,098032
1,079167	0,1	0,155282
1,080833	0,1	0,116671
1,082500	0,1	0,132744
1,084167	0,1	0,120790
1,085833	0,1	0,118973
1,087500	0,1	0,119322
1,089167	0,1	0,084886
1,090833	0,1	0,102896
1,092500	0,1	0,123747
1,094167	0,1	0,099381
1,095833	0,1	0,168111
1,097500	0,1	0,131641
1,099167	0,1	0,133788
1,100833	0,1	0,134186
1,102500	0,1	0,144753
1,104167	0,1	0,119620
1,105833	0,1	0,105334
1,107500	0,1	0,116646
1,109167	0,1	0,105928
1,110833	0,1	0,163347
1,112500	0,1	0,129366
1,114167	0,1	0,176059
1,115833	0,1	0,118527
1,117500	0,1	0,128362
1,119167	0,1	0,130917
1,120833	0,1	0,125632
1,122500	0,1	0,147118
1,124167	0,1	0,114259
1,125833	0,1	0,139036
1,127500	0,1	0,136631
1,129167	0,1	0,111846
1,130833	0,1	0,132196
1,132500	0,1	0,146904
1,134167	0,1	0,114657
1,135833	0,1	0,129935
1,137500	0,1	0,169247
1,139167	0,1	0,138867
1,140833	0,1	0,113110
1,142500	0,1	0,142349
1,144167	0,1	0,143241
1,145833	0,1	0,135788
1,147500	0,1	0,146495
1,149167	0,1	0,134904
1,150833	0,1	0,148249
1,152500	0,1	0,105511
1,154167	0,1	0,140788
1,155833	0,1	0,133270
1,157500	0,1	0,151166
1,159167	0,1	0,175637
1,160833	0,1	0,125886
1,162500	0,1	0,128944
1,164167	0,1	0,147789
1,165833	0,1	0,172398
1,167500	0,1	0,129597
1,169167	0,1	0,123221
1,170833	0,1	0,131111
1,172500	0,1	0,159504
1,174167	0,1	0,122736
1,175833	0,1	0,144337
1,177500	0,1	0,167663
1,179167	0,1	0,145387
1,180833	0,1	0,164241
1,182500	0,1	0,105249
1,184167	0,1	0,149066
1,185833	0,1	0,163829
1,187500	0,1	0,149660
1,189167	0,1	0,107435
1,190833	0,1	0,172908
1,192500	0,1	0,133627
1,194167	0,1	0,139743
1,195833	0,1	0,108849
1,197500	0,1	0,132849
1,199167	0,1	0,164803
1,200833	0,1	0,157816
1,202500	0,1	0,125684
1,204167	0,1	0,121214
1,205833	0,1	0,150933
1,207500	0,1	0,164990
1,209167	0,1	0,153679
1,210833	0,1	0,164654
1,212500	0,1	0,167729
1,214167	0,1	0,178587
1,215833	0,1	0,133507
1,217500	0,1	0,164803
1,219167	0,1	0,176404
1,220833	0,1	0,152533
1,222500	0,1	0,143413
1,224167	0,1	0,181652
1,225833	0,1	0,150367
1,227500	0,1	0,172383
1,229167	0,1	0,192273
1,230833	0,1	0,151241
1,232500	0,1	0,177117
1,234167	0,1	0,168448
1,235833	0,1	0,192821
1,237500	0,1	0,197701
1,239167	0,1	0,160864
1,240833	0,1	0,165406
1,242500	0,1	0,190882
1,244167	0,1	0,177174
1,245833	0,1	0,172511
1,247500	0,1	0,198351
1,249167	0,1	0,160803
1,250833	0,1	0,172690
1,252500	0,1	0,198473
1,254167	0,1	0,182321
1,255833	0,1	0,164985
1,257500	0,1	0,183291
1,259167	0,1	0,178529
1,260833	0,1	0,196062
1,262500	0,1	0,168147
1,264167	0,1	0,168432
1,265833	0,1	0,216604
1,267500	0,1	0,168640
1,269167	0,1	0,217992
1,270833	0,1	0,175574
1,272500	0,1	0,198413
1,274167	0,1	0,223711
1,275833	0,1	0,203665
1,277500	0,1	0,175603
1,279167	0,1	0,161452
1,280833	0,1	0,174265
1,282500	0,1	0,182729
1,284167	0,1	0,212925
1,285833	0,1	0,218813
1,287500	0,1	0,188618
1,289167	0,1	0,204831
1,290833	0,1	0,210303
1,292500	0,1	0,198530
1,294167	0,1	0,207446
1,295833	0,1	0,238011
1,297500	0,1	0,180284
1,299167	0,1	0,206923
1,300833	0,1	0,197490
1,302500	0,1	0,188446
1,304167	0,1	0,227742
1,305833	0,1	0,217595
1,307500	0,1	0,189093
1,309167	0,1	0,195423
1,310833	0,1	0,233517
1,312500	0,1	0,210449
1,314167	0,1	0,225303
1,315833	0,1	0,253581
1,317500	0,1	0,222564
1,319167	0,1	0,184251
1,320833	0,1	0,234614
1,322500	0,1	0,236367
1,324167	0,1	0,158564
1,325833	0,1	0,239466
1,327500	0,1	0,227664
1,329167	0,1	0,209667
1,330833	0,1	0,202331
1,332500	0,1	0,243891
1,334167	0,1	0,210618
1,335833	0,1	0,224708
1,337500	0,1	0,236778
1,339167	0,1	0,231145
1,340833	0,1	0,209454
1,342500	0,1	0,252337
1,344167	0,1	0,224366
1,345833	0,1	0,251076
1,347500	0,1	0,209001
1,349167	0,1	0,207510
1,350833	0,1	0,232528
1,352500	0,1	0,215123
1,354167	0,1	0,252829
1,355833	0,1	0,235563
1,357500	0,1	0,199710
1,359167	0,1	0,210943
1,360833	0,1	0,262971
1,362500	0,1	0,207829
1,364167	0,1	0,256662
1,365833	0,1	0,249862
1,367500	0,1	0,217571
1,369167	0,1	0,231828
1,370833	0,1	0,248115
1,372500	0,1	0,250851
1,374167	0,1	0,215096
1,375833	0,1	0,228375
1,377500	0,1	0,256209
1,379167	0,1	0,227163
1,380833	0,1	0,251427
1,382500	0,1	0,248455
1,384167	0,1	0,261635
1,385833	0,1	0,204376
1,387500	0,1	0,229793
1,389167	0,1	0,246601
1,390833	0,1	0,266522
1,392500	0,1	0,215144
1,394167	0,1	0,255396
1,395833	0,1	0,271656
1,397500	0,1	0,247667
1,399167	0,1	0,245185
1,400833	0,1	0,234935
1,402500	0,1	0,245092
1,404167	0,1	0,258199
1,405833	0,1	0,258264
1,407500	0,1	0,259406
1,409167	0,1	0,227546
1,410833	0,1	0,265191
1,412500	0,1	0,236100
1,414167	0,1	0,250833
1,415833	0,1	0,231288
1,417500	0,1	0,311326
1,419167	0,1	0,257433
1,420833	0,1	0,236970
1,422500	0,1	0,305429
1,424167	0,1	0,225373
1,425833	0,1	0,290977
1,427500	0,1	0,242064
1,429167	0,1	0,272479
1,430833	0,1	0,322224
1,432500	0,1	0,256935
1,434167	0,1	0,267473
1,435833	0,1	0,270287
1,437500	0,1	0,268928
1,439167	0,1	0,250767
1,440833	0,1	0,306382
1,442500	0,1	0,303414
1,444167	0,1	0,266965
1,445833	0,1	0,239369
1,447500	0,1	0,320846
1,449167	0,1	0,284918
1,450833	0,1	0,288283
1,452500	0,1	0,270584
1,454167	0,1	0,284572
1,455833	0,1	0,297715
1,457500	0,1	0,277748
1,459167	0,1	0,318913
1,460833	0,1	0,316496
1,462500	0,1	0,312296
1,464167	0,1	0,303004
1,465833	0,1	0,284122
1,467500	0,1	0,308999
1,469167	0,1	0,260093
1,470833	0,1	0,310234
1,472500	0,1	0,306562
1,474167	0,1	0,321302
1,475833	0,1	0,285971
1,477500	0,1	0,301073
1,479167	0,1	0,314962
1,480833	0,1	0,294268
1,482500	0,1	0,329948
1,484167	0,1	0,267324
1,485833	0,1	0,312037
1,487500	0,1	0,300972
1,489167	0,1	0,263115
1,490833	0,1	0,314233
1,492500	0,1	0,292447
1,494167	0,1	0,321500
1,495833	0,1	0,293978
1,497500	0,1	0,311982
1,499167	0,1	0,307907
1,500833	0,1	0,308136
1,502500	0,1	0,324466
1,504167	0,1	0,322959
1,505833	0,1	0,311532
1,507500	0,1	0,316231
1,509167	0,1	0,302759
1,510833	0,1	0,269286
1,512500	0,1	0,333563
1,514167	0,1	0,282416
1,515833	0,1	0,370620
1,517500	0,1	0,323901
1,519167	0,1	0,317887
1,520833	0,1	0,327035
1,522500	0,1	0,300334
1,524167	0,1	0,323718
1,525833	0,1	0,319356
1,527500	0,1	0,321593
1,529167	0,1	0,376219
1,530833	0,1	0,306244
1,532500	0,1	0,311898
1,534167	0,1	0,327983
1,535833	0,1	0,303358
1,537500	0,1	0,306955
1,539167	0,1	0,335040
1,540833	0,1	0,326372
1,542500	0,1	0,324285
1,544167	0,1	0,312709
1,545833	0,1	0,303600
1,547500	0,1	0,333282
1,549167	0,1	0,331241
1,550833	0,1	0,330784
1,552500	0,1	0,339933
1,554167	0,1	0,334863
1,555833	0,1	0,326540
1,557500	0,1	0,333103
1,559167	0,1	0,336639
1,560833	0,1	0,310709
1,562500	0,1	0,350010
1,564167	0,1	0,342874
1,565833	0,1	0,391149
1,567500	0,1	0,384642
1,569167	0,1	0,342742
1,570833	0,1	0,331532
1,572500	0,1	0,359269
1,574167	0,1	0,340996
1,575833	0,1	0,351091
1,577500	0,1	0,338716
1,579167	0,1	0,383903
1,580833	0,1	0,316434
1,582500	0,1	0,313929
1,584167	0,1	0,360569
1,585833	0,1	0,326633
1,587500	0,1	0,337508
1,589167	0,1	0,371731
1,590833	0,1	0,370064
1,592500	0,1	0,355819
1,594167	0,1	0,367532
1,595833	0,1	0,381382
1,597500	0,1	0,329636
1,599167	0,1	0,367384
1,600833	0,1	0,365406
1,602500	0,1	0,355218
1,604167	0,1	0,357450
1,605833	0,1	0,371506
1,607500	0,1	0,370620
1,609167	0,1	0,368198
1,610833	0,1	0,370496
1,612500	0,1	0,345034
1,614167	0,1	0,387838
1,615833	0,1	0,341250
1,617500	0,1	0,351259
1,619167	0,1	0,347806
1,620833	0,1	0,389392
1,622500	0,1	0,374390
1,624167	0,1	0,398901
1,625833	0,1	0,404494
1,627500	0,1	0,341402
1,629167	0,1	0,409264
1,630833	0,1	0,359864
1,632500	0,1	0,364097
1,634167	0,1	0,360808
1,635833	0,1	0,358549
1,637500	0,1	0,413180
1,639167	0,1	0,396715
1,640833	0,1	0,365575
1,642500	0,1	0,405791
1,644167	0,1	0,374067
1,645833	0,1	0,391302
1,647500	0,1	0,351851
1,649167	0,1	0,384299
1,650833	0,1	0,385219
1,652500	0,1	0,366299
1,654167	0,1	0,393495
1,655833	0,1	0,373174
1,657500	0,1	0,437531
1,659167	0,1	0,381979
1,660833	0,1	0,357309
1,662500	0,1	0,382872
1,664167	0,1	0,389233
1,665833	0,1	0,422731
1,667500	0,1	0,430608
1,669167	0,1	0,387487
1,670833	0,1	0,372903
1,672500	0,1	0,413618
1,674167	0,1	0,421329
1,675833	0,1	0,385621
1,677500	0,1	0,382590
1,679167	0,1	0,413041
1,680833	0,1	0,383651
1,682500	0,1	0,390393
1,684167	0,1	0,422545
1,685833	0,1	0,347199
1,687500	0,1	0,380447
1,689167	0,1	0,382921
1,690833	0,1	0,354810
1,692500	0,1	0,372315
1,694167	0,1	0,385898
1,695833	0,1	0,402546
1,697500	0,1	0,378329
1,699167	0,1	0,405112
1,700833	0,1	0,363299
1,702500	0,1	0,455376
1,704167	0,1	0,385568
1,705833	0,1	0,406667
1,707500	0,1	0,397811
1,709167	0,1	0,364996
1,710833	0,1	0,385732
1,712500	0,1	0,384971
1,714167	0,1	0,419542
1,715833	0,1	0,401312
1,717500	0,1	0,445093
1,719167	0,1	0,414630
1,720833	0,1	0,400110
1,722500	0,1	0,419918
1,724167	0,1	0,419821
1,725833	0,1	0,412761
1,727500	0,1	0,400442
1,729167	0,1	0,409734
1,730833	0,1	0,394042
1,732500	0,1	0,391638
1,734167	0,1	0,396896
1,735833	0,1	0,401244
1,737500	0,1	0,438822
1,739167	0,1	0,442453
1,740833	0,1	0,428045
1,742500	0,1	0,413755
1,744167	0,1	0,388682
1,745833	0,1	0,386751
1,747500	0,1	0,398591
1,749167	0,1	0,400500
1,750833	0,1	0,412010
1,752500	0,1	0,371045
1,754167	0,1	0,401030
1,755833	0,1	0,427456
1,757500	0,1	0,405641
1,759167	0,1	0,398846
1,760833	0,1	0,375738
1,762500	0,1	0,432935
1,764167	0,1	0,456074
1,765833	0,1	0,448567
1,767500	0,1	0,412042
1,769167	0,1	0,423545
1,770833	0,1	0,385640
1,772500	0,1	0,367663
1,774167	0,1	0,386393
1,775833	0,1	0,445050
1,777500	0,1	0,400552
1,779167	0,1	0,445737
1,780833	0,1	0,426264
1,782500	0,1	0,430981
1,784167	0,1	0,385558
1,785833	0,1	0,432980
1,787500	0,1	0,408272
1,789167	0,1	0,407438
1,790833	0,1	0,402676
1,792500	0,1	0,376177
1,794167	0,1	0,401716
1,795833	0,1	0,382324
1,797500	0,1	0,436601
1,799167	0,1	0,411190
1,800833	0,1	0,422819
1,802500	0,1	0,440006
1,804167	0,1	0,480034
1,805833	0,1	0,396834
1,807500	0,1	0,441637
1,809167	0,1	0,417734
1,810833	0,1	0,402325
1,812500	0,1	0,427869
1,814167	0,1	0,449386
1,815833	0,1	0,435169
1,817500	0,1	0,428270
1,819167	0,1	0,468373
1,820833	0,1	0,462275
1,822500	0,1	0,434053
1,824167	0,1	0,409928
1,825833	0,1	0,428224
1,827500	0,1	0,430092
1,829167	0,1	0,416097
1,830833	0,1	0,420046
1,832500	0,1	0,417977
1,834167	0,1	0,428288
1,835833	0,1	0,382786
1,837500	0,1	0,367538
1,839167	0,1	0,430779
1,840833	0,1	0,435744
1,842500	0,1	0,401793
1,844167	0,1	0,425965
1,845833	0,1	0,455640
1,847500	0,1	0,399230
1,849167	0,1	0,462465
1,850833	0,1	0,443722
1,852500	0,1	0,430716
1,854167	0,1	0,420258
1,855833	0,1	0,443794
1,857500	0,1	0,390571
1,859167	0,1	0,429398
1,860833	0,1	0,457379
1,862500	0,1	0,419436
1,864167	0,1	0,429510
1,865833	0,1	0,452782
1,867500	0,1	0,454651
1,869167	0,1	0,433782
1,870833	0,1	0,418643
1,872500	0,1	0,429385
1,874167	0,1	0,424977
1,875833	0,1	0,465143
1,877500	0,1	0,438670
1,879167	0,1	0,423531
1,880833	0,1	0,447770
1,882500	0,1	0,433076
1,884167	0,1	0,454980
1,885833	0,1	0,472891
1,887500	0,1	0,382859
1,889167	0,1	0,416560
1,890833	0,1	0,477687
1,892500	0,1	0,415590
1,894167	0,1	0,437666
1,895833	0,1	0,416492
1,897500	0,1	0,468514
1,899167	0,1	0,423206
1,900833	0,1	0,430193
1,902500	0,1	0,420795
1,904167	0,1	0,421062
1,905833	0,1	0,449282
1,907500	0,1	0,460863
1,909167	0,1	0,434508
1,910833	0,1	0,394234
1,912500	0,1	0,494849
1,914167	0,1	0,416277
1,915833	0,1	0,451888
1,917500	0,1	0,456265
1,919167	0,1	0,450408
1,920833	0,1	0,443451
1,922500	0,1	0,453490
1,924167	0,1	0,446579
1,925833	0,1	0,431380
1,927500	0,1	0,429906
1,929167	0,1	0,454976
1,930833	0,1	0,447096
1,932500	0,1	0,434422
1,934167	0,1	0,436158
1,935833	0,1	0,461252
1,937500	0,1	0,434094
1,939167	0,1	0,442661
1,940833	0,1	0,458107
1,942500	0,1	0,398899
1,944167	0,1	0,416253
1,945833	0,1	0,470832
1,947500	0,1	0,441841
1,949167	0,1	0,422393
1,950833	0,1	0,416383
1,952500	0,1	0,429156
1,954167	0,1	0,435888
1,955833	0,1	0,441273
1,957500	0,1	0,481773
1,959167	0,1	0,441821
1,960833	0,1	0,406429
1,962500	0,1	0,435965
1,964167	0,1	0,455580
1,965833	0,1	0,450738
1,967500	0,1	0,455479
1,969167	0,1	0,429745
1,970833	0,1	0,440299
1,972500	0,1	0,435580
1,974167	0,1	0,456471
1,975833	0,1	0,448380
1,977500	0,1	0,466970
1,979167	0,1	0,436830
1,980833	0,1	0,413426
1,982500	0,1	0,435864
1,984167	0,1	0,457941
1,985833	0,1	0,441403
1,987500	0,1	0,440177
1,989167	0,1	0,472103
1,990833	0,1	0,406830
1,992500	0,1	0,430748
1,994167	0,1	0,435577
1,995833	0,1	0,419121
1,997500	0,1	0,450854
1,999167	0,1	0,435356
2,000833	0,1	0,442019
2,002500	0,1	0,451233
2,004167	0,1	0,464239
2,005833	0,1	0,442668
2,007500	0,1	0,458460
2,009167	0,1	0,435191
2,010833	0,1	0,470467
2,012500	0,1	0,432771
2,014167	0,1	0,424441
2,015833	0,1	0,427834
2,017500	0,1	0,470236
2,019167	0,1	0,485238
2,020833	0,1	0,439153
2,022500	0,1	0,446264
2,024167	0,1	0,446554
2,025833	0,1	0,435086
2,027500	0,1	0,410154
2,029167	0,1	0,462467
2,030833	0,1	0,429229
2,032500	0,1	0,452431
2,034167	0,1	0,451402
2,035833	0,1	0,436990
2,037500	0,1	0,442144
2,039167	0,1	0,437361
2,040833	0,1	0,447092
2,042500	0,1	0,463864
2,044167	0,1	0,463371
2,045833	0,1	0,428485
2,047500	0,1	0,464109
2,049167	0,1	0,461425
2,050833	0,1	0,461962
2,052500	0,1	0,478693
2,054167	0,1	0,450973
2,055833	0,1	0,465978
2,057500	0,1	0,452358
2,059167	0,1	0,417696
2,060833	0,1	0,456942
2,062500	0,1	0,438442
2,064167	0,1	0,442495
2,065833	0,1	0,460386
2,067500	0,1	0,456890
2,069167	0,1	0,446910
2,070833	0,1	0,436576
2,072500	0,1	0,436885
2,074167	0,1	0,432308
2,075833	0,1	0,471295
2,077500	0,1	0,438983
2,079167	0,1	0,477381
2,080833	0,1	0,421242
2,082500	0,1	0,406778
2,084167	0,1	0,466629
2,085833	0,1	0,464924
2,087500	0,1	0,457886
2,089167	0,1	0,492834
2,090833	0,1	0,464043
2,092500	0,1	0,474967
2,094167	0,1	0,449377
2,095833	0,1	0,456536
2,097500	0,1	0,413514
2,099167	0,1	0,427292
2,100833	0,1	0,465288
2,102500	0,1	0,451425
2,104167	0,1	0,440137
2,105833	0,1	0,427091
2,107500	0,1	0,458745
2,109167	0,1	0,454924
2,110833	0,1	0,426371
2,112500	0,1	0,424356
2,114167	0,1	0,452990
2,115833	0,1	0,412893
2,117500	0,1	0,474396
2,119167	0,1	0,440391
2,120833	0,1	0,456760
2,122500	0,1	0,488052
2,124167	0,1	0,485760
2,125833	0,1	0,435839
2,127500	0,1	0,469246
2,129167	0,1	0,422172
2,130833	0,1	0,424355
2,132500	0,1	0,458557
2,134167	0,1	0,424426
2,135833	0,1	0,465765
2,137500	0,1	0,455214
2,139167	0,1	0,474510
2,140833	0,1	0,463891
2,142500	0,1	0,422647
2,144167	0,1	0,451955
2,145833	0,1	0,487240
2,147500	0,1	0,452177
2,149167	0,1	0,447964
2,150833	0,1	0,445333
2,152500	0,1	0,426493
2,154167	0,1	0,448973
2,155833	0,1	0,455233
2,157500	0,1	0,447221
2,159167	0,1	0,430695
2,160833	0,1	0,472742
2,162500	0,1	0,482586
2,164167	0,1	0,437184
2,165833	0,1	0,444649
2,167500	0,1	0,471462
2,169167	0,1	0,424656
2,170833	0,1	0,471519
2,172500	0,1	0,467659
2,174167	0,1	0,467884
2,175833	0,1	0,473063
2,177500	0,1	0,487828
2,179167	0,1	0,496137
2,180833	0,1	0,484642
2,182500	0,1	0,470230
2,184167	0,1	0,493708
2,185833	0,1	0,470356
2,187500	0,1	0,416748
2,189167	0,1	0,472490
2,190833	0,1	0,449855
2,192500	0,1	0,468214
2,194167	0,1	0,491202
2,195833	0,1	0,488162
2,197500	0,1	0,449672
2,199167	0,1	0,475314
2,200833	0,1	0,429647
2,202500	0,1	0,448518
2,204167	0,1	0,483308
2,205833	0,1	0,431948
2,207500	0,1	0,487425
2,209167	0,1	0,468306
2,210833	0,1	0,470911
2,212500	0,1	0,417908
2,214167	0,1	0,409530
2,215833	0,1	0,463587
2,217500	0,1	0,457119
2,219167	0,1	0,456744
2,220833	0,1	0,433658
2,222500	0,1	0,451460
2,224167	0,1	0,432271
2,225833	0,1	0,451459
2,227500	0,1	0,468771
2,229167	0,1	0,482504
2,230833	0,1	0,493274
2,232500	0,1	0,424911
2,234167	0,1	0,459304
2,235833	0,1	0,497762
2,237500	0,1	0,454518
2,239167	0,1	0,461030
2,240833	0,1	0,468485
2,242500	0,1	0,462317
2,244167	0,1	0,456435
2,245833	0,1	0,453908
2,247500	0,1	0,459144
2,249167	0,1	0,447490
2,250833	0,1	0,459267
2,252500	0,1	0,437696
2,254167	0,1	0,457817
2,255833	0,1	0,440656
2,257500	0,1	0,457693
2,259167	0,1	0,474737
2,260833	0,1	0,466023
2,262500	0,1	0,438857
2,264167	0,1	0,495831
2,265833	0,1	0,484229
2,267500	0,1	0,462010
2,269167	0,1	0,454696
2,270833	0,1	0,447840
2,272500	0,1	0,448025
2,274167	0,1	0,436803
2,275833	0,1	0,493222
2,277500	0,1	0,448429
2,279167	0,1	0,480511
2,280833	0,1	0,473458
2,282500	0,1	0,512675
2,284167	0,1	0,483157
2,285833	0,1	0,468740
2,287500	0,1	0,471054
2,289167	0,1	0,460579
2,290833	0,1	0,429415
2,292500	0,1	0,456944
2,294167	0,1	0,450886
2,295833	0,1	0,437383
2,297500	0,1	0,470903
2,299167	0,1	0,471593
2,300833	0,1	0,432875
2,302500	0,1	0,438292
2,304167	0,1	0,463696
2,305833	0,1	0,455358
2,307500	0,1	0,480120
2,309167	0,1	0,483003
2,310833	0,1	0,444245
2,312500	0,1	0,465105
2,314167	0,1	0,497080
2,315833	0,1	0,443793
2,317500	0,1	0,467031
2,319167	0,1	0,451779
2,320833	0,1	0,454942
2,322500	0,1	0,471072
2,324167	0,1	0,486255
2,325833	0,1	0,475448
2,327500	0,1	0,459523
2,329167	0,1	0,469831
2,330833	0,1	0,460599
2,332500	0,1	0,479896
2,334167	0,1	0,448717
2,335833	0,1	0,423822
2,337500	0,1	0,458289
2,339167	0,1	0,478008
2,340833	0,1	0,496896
2,342500	0,1	0,492306
2,344167	0,1	0,474456
2,345833	0,1	0,517523
2,347500	0,1	0,469203
2,349167	0,1	0,503211
2,350833	0,1	0,492079
2,352500	0,1	0,474041
2,354167	0,1	0,444946
2,355833	0,1	0,491690
2,357500	0,1	0,455305
2,359167	0,1	0,458463
2,360833	0,1	0,486023
2,362500	0,1	0,447104
2,364167	0,1	0,488731
2,365833	0,1	0,447746
2,367500	0,1	0,483702
2,369167	0,1	0,452032
2,370833	0,1	0,494117
2,372500	0,1	0,450584
2,374167	0,1	0,435831
2,375833	0,1	0,497489
2,377500	0,1	0,424807
2,379167	0,1	0,480319
2,380833	0,1	0,481803
2,382500	0,1	0,467518
2,384167	0,1	0,418899
2,385833	0,1	0,452387
2,387500	0,1	0,458381
2,389167	0,1	0,456663
2,390833	0,1	0,455048
2,392500	0,1	0,441071
2,394167	0,1	0,444503
2,395833	0,1	0,488834
2,397500	0,1	0,463089
2,399167	0,1	0,453288
2,400833	0,1	0,478132
2,402500	0,1	0,470622
2,404167	0,1	0,468861
2,405833	0,1	0,453020
2,407500	0,1	0,438110
2,409167	0,1	0,469308
2,410833	0,1	0,471262
2,412500	0,1	0,446065
2,414167	0,1	0,465479
2,415833	0,1	0,477267
2,417500	0,1	0,450724
2,419167	0,1	0,464943
2,420833	0,1	0,448982
2,422500	0,1	0,486704
2,424167	0,1	0,454931
2,425833	0,1	0,453764
2,427500	0,1	0,439787
2,429167	0,1	0,458542
2,430833	0,1	0,479355
2,432500	0,1	0,501122
2,434167	0,1	0,470752
2,435833	0,1	0,427990
2,437500	0,1	0,487528
2,439167	0,1	0,493047
2,440833	0,1	0,440045
2,442500	0,1	0,462144
2,444167	0,1	0,469727
2,445833	0,1	0,443082
2,447500	0,1	0,499291
2,449167	0,1	0,485682
2,450833	0,1	0,436026
2,452500	0,1	0,468872
2,454167	0,1	0,489565
2,455833	0,1	0,477335
2,457500	0,1	0,477413
2,459167	0,1	0,454680
2,460833	0,1	0,443472
2,462500	0,1	0,476927
2,464167	0,1	0,483501
2,465833	0,1	0,463251
2,467500	0,1	0,443640
2,469167	0,1	0,445230
2,470833	0,1	0,455085
2,472500	0,1	0,465501
2,474167	0,1	0,464076
2,475833	0,1	0,457657
2,477500	0,1	0,458071
2,479167	0,1	0,441671
2,480833	0,1	0,466388
2,482500	0,1	0,468300
2,484167	0,1	0,448921
2,485833	0,1	0,488277
2,487500	0,1	0,413956
2,489167	0,1	0,423401
2,490833	0,1	0,472410
2,492500	0,1	0,449606
2,494167	0,1	0,433139
2,495833	0,1	0,449472
2,497500	0,1	0,428832
2,499167	0,1	0,489431
2,500833	0,1	0,461949
2,502500	0,1	0,467783
2,504167	0,1	0,420329
2,505833	0,1	0,431269
2,507500	0,1	0,473800
2,509167	0,1	0,453166
2,510833	0,1	0,443347
2,512500	0,1	0,434732
2,514167	0,1	0,466966
2,515833	0,1	0,442129
2,517500	0,1	0,440799
2,519167	0,1	0,452641
2,520833	0,1	0,476599
2,522500	0,1	0,463686
2,524167	0,1	0,464366
2,525833	0,1	0,433329
2,527500	0,1	0,449410
2,529167	0,1	0,468214
2,530833	0,1	0,444283
2,532500	0,1	0,450303
2,534167	0,1	0,435087
2,535833	0,1	0,437877
2,537500	0,1	0,415910
2,539167	0,1	0,452366
2,540833	0,1	0,465026
2,542500	0,1	0,452067
2,544167	0,1	0,438814
2,545833	0,1	0,465893
2,547500	0,1	0,446621
2,549167	0,1	0,442372
2,550833	0,1	0,426388
2,552500	0,1	0,467754
2,554167	0,1	0,464263
2,555833	0,1	0,439934
2,557500	0,1	0,480902
2,559167	0,1	0,380436
2,560833	0,1	0,435627
2,562500	0,1	0,433096
2,564167	0,1	0,434316
2,565833	0,1	0,437752
2,567500	0,1	0,427794
2,569167	0,1	0,413963
2,570833	0,1	0,464872
2,572500	0,1	0,468506
2,574167	0,1	0,458984
2,575833	0,1	0,414197
2,577500	0,1	0,471683
2,579167	0,1	0,460619
2,580833	0,1	0,441423
2,582500	0,1	0,407694
2,584167	0,1	0,411246
2,585833	0,1	0,408453
2,587500	0,1	0,432696
2,589167	0,1	0,428394
2,590833	0,1	0,414708
2,592500	0,1	0,465140
2,594167	0,1	0,454035
2,595833	0,1	0,458194
2,597500	0,1	0,434964
2,599167	0,1	0,422246
2,600833	0,1	0,430047
2,602500	0,1	0,463943
2,604167	0,1	0,478072
2,605833	0,1	0,422319
2,607500	0,1	0,400401
2,609167	0,1	0,417247
2,610833	0,1	0,428474
2,612500	0,1	0,443115
2,614167	0,1	0,455251
2,615833	0,1	0,426744
2,617500	0,1	0,419346
2,619167	0,1	0,415430
2,620833	0,1	0,428700
2,622500	0,1	0,408125
2,624167	0,1	0,410852
2,625833	0,1	0,411454
2,627500	0,1	0,423856
2,629167	0,1	0,427481
2,630833	0,1	0,454874
2,632500	0,1	0,414900
2,634167	0,1	0,413836
2,635833	0,1	0,386195
2,637500	0,1	0,423084
2,639167	0,1	0,422263
2,640833	0,1	0,446302
2,642500	0,1	0,419558
2,644167	0,1	0,415183
2,645833	0,1	0,428618
2,647500	0,1	0,402451
2,649167	0,1	0,417331
2,650833	0,1	0,421641
2,652500	0,1	0,420027
2,654167	0,1	0,388352
2,655833	0,1	0,419358
2,657500	0,1	0,429156
2,659167	0,1	0,428062
2,660833	0,1	0,442781
2,662500	0,1	0,395333
2,664167	0,1	0,385301
2,665833	0,1	0,401325
2,667500	0,1	0,439899
2,669167	0,1	0,414670
2,670833	0,1	0,422821
2,672500	0,1	0,448828
2,674167	0,1	0,398441
2,675833	0,1	0,397248
2,677500	0,1	0,417391
2,679167	0,1	0,362681
2,680833	0,1	0,409951
2,682500	0,1	0,426029
2,684167	0,1	0,390278
2,685833	0,1	0,382609
2,687500	0,1	0,394079
2,689167	0,1	0,419421
2,690833	0,1	0,384024
2,692500	0,1	0,460598
2,694167	0,1	0,410409
2,695833	0,1	0,420355
2,697500	0,1	0,352870
2,699167	0,1	0,393616
2,700833	0,1	0,379237
2,702500	0,1	0,413517
2,704167	0,1	0,403483
2,705833	0,1	0,392446
2,707500	0,1	0,395860
2,709167	0,1	0,427951
2,710833	0,1	0,408497
2,712500	0,1	0,391081
2,714167	0,1	0,399296
2,715833	0,1	0,405012
2,717500	0,1	0,399776
2,719167	0,1	0,401347
2,720833	0,1	0,377460
2,722500	0,1	0,427077
2,724167	0,1	0,380113
2,725833	0,1	0,368697
2,727500	0,1	0,355610
2,729167	0,1	0,364924
2,730833	0,1	0,381962
2,732500	0,1	0,420473
2,734167	0,1	0,396199
2,735833	0,1	0,403315
2,737500	0,1	0,390791
2,739167	0,1	0,440765
2,740833	0,1	0,393057
2,742500	0,1	0,404080
2,744167	0,1	0,353508
2,745833	0,1	0,387694
2,747500	0,1	0,423745
2,749167	0,1	0,418082
2,750833	0,1	0,394996
2,752500	0,1	0,365987
2,754167	0,1	0,368073
2,755833	0,1	0,410554
2,757500	0,1	0,457935
2,759167	0,1	0,392504
2,760833	0,1	0,389939
2,762500	0,1	0,314070
2,764167	0,1	0,366300
2,765833	0,1	0,394983
2,767500	0,1	0,388120
2,769167	0,1	0,352344
2,770833	0,1	0,401897
2,772500	0,1	0,352618
2,774167	0,1	0,395789
2,775833	0,1	0,375325
2,777500	0,1	0,375838
2,779167	0,1	0,346854
2,780833	0,1	0,345317
2,782500	0,1	0,391419
2,784167	0,1	0,342366
2,785833	0,1	0,382580
2,787500	0,1	0,350788
2,789167	0,1	0,396719
2,790833	0,1	0,401575
2,792500	0,1	0,362615
2,794167	0,1	0,368134
2,795833	0,1	0,350332
2,797500	0,1	0,339834
2,799167	0,1	0,361691
2,800833	0,1	0,333894
2,802500	0,1	0,361462
2,804167	0,1	0,388069
2,805833	0,1	0,349987
2,807500	0,1	0,347016
2,809167	0,1	0,388645
2,810833	0,1	0,380086
2,812500	0,1	0,367411
2,814167	0,1	0,378235
2,815833	0,1	0,359257
2,817500	0,1	0,382893
2,819167	0,1	0,369131
2,820833	0,1	0,349629
2,822500	0,1	0,366353
2,824167	0,1	0,327004
2,825833	0,1	0,360528
2,827500	0,1	0,333481
2,829167	0,1	0,343989
2,830833	0,1	0,350803
2,832500	0,1	0,345071
2,834167	0,1	0,349229
2,835833	0,1	0,337161
2,837500	0,1	0,347469
2,839167	0,1	0,347657
2,840833	0,1	0,371133
2,842500	0,1	0,314497
2,844167	0,1	0,366259
2,845833	0,1	0,376021
2,847500	0,1	0,389294
2,849167	0,1	0,321128
2,850833	0,1	0,349143
2,852500	0,1	0,338049
2,854167	0,1	0,346704
2,855833	0,1	0,324889
2,857500	0,1	0,354130
2,859167	0,1	0,317808
2,860833	0,1	0,325418
2,862500	0,1	0,373176
2,864167	0,1	0,329202
2,865833	0,1	0,365188
2,867500	0,1	0,329921
2,869167	0,1	0,288636
2,870833	0,1	0,355756
2,872500	0,1	0,351410
2,874167	0,1	0,307936
2,875833	0,1	0,330260
2,877500	0,1	0,319127
2,879167	0,1	0,317553
2,880833	0,1	0,316269
2,882500	0,1	0,301783
2,884167	0,1	0,300496
2,885833	0,1	0,337729
2,887500	0,1	0,303545
2,889167	0,1	0,341148
2,890833	0,1	0,343497
2,892500	0,1	0,344033
2,894167	0,1	0,316687
2,895833	0,1	0,280230
2,897500	0,1	0,329074
2,899167	0,1	0,347529
2,900833	0,1	0,350039
2,902500	0,1	0,289512
2,904167	0,1	0,363913
2,905833	0,1	0,308519
2,907500	0,1	0,328792
2,909167	0,1	0,302136
2,910833	0,1	0,323534
2,912500	0,1	0,324778
2,914167	0,1	0,291765
2,915833	0,1	0,320340
2,917500	0,1	0,336598
2,919167	0,1	0,302015
2,920833	0,1	0,320861
2,922500	0,1	0,277499
2,924167	0,1	0,272171
2,925833	0,1	0,318332
2,927500	0,1	0,307821
2,929167	0,1	0,316267
2,930833	0,1	0,296650
2,932500	0,1	0,348990
2,934167	0,1	0,341862
2,935833	0,1	0,325054
2,937500	0,1	0,309686
2,939167	0,1	0,340034
2,940833	0,1	0,307149
2,942500	0,1	0,283040
2,944167	0,1	0,308104
2,945833	0,1	0,306123
2,947500	0,1	0,286566
2,949167	0,1	0,335783
2,950833	0,1	0,279516
2,952500	0,1	0,288915
2,954167	0,1	0,252039
2,955833	0,1	0,321325
2,957500	0,1	0,273342
2,959167	0,1	0,291937
2,960833	0,1	0,285403
2,962500	0,1	0,280557
2,964167	0,1	0,294963
2,965833	0,1	0,337316
2,967500	0,1	0,246995
2,969167	0,1	0,295947
2,970833	0,1	0,311218
2,972500	0,1	0,316248
2,974167	0,1	0,240621
2,975833	0,1	0,303829
2,977500	0,1	0,284288
2,979167	0,1	0,311585
2,980833	0,1	0,287683
2,982500	0,1	0,264518
2,984167	0,1	0,291417
2,985833	0,1	0,262244
2,987500	0,1	0,306903
2,989167	0,1	0,293686
2,990833	0,1	0,269072
2,992500	0,1	0,300032
2,994167	0,1	0,246575
2,995833	0,1	0,282596
2,997500	0,1	0,276998
2,999167	0,1	0,329320
3,000833	0,1	0,287337
3,002500	0,1	0,273853
3,004167	0,1	0,276416
3,005833	0,1	0,272506
3,007500	0,1	0,290285
3,009167	0,1	0,256881
3,010833	0,1	0,269520
3,012500	0,1	0,281959
3,014167	0,1	0,283748
3,015833	0,1	0,263648
3,017500	0,1	0,294272
3,019167	0,1	0,290975
3,020833	0,1	0,288180
3,022500	0,1	0,261144
3,024167	0,1	0,252567
3,025833	0,1	0,316234
3,027500	0,1	0,271478
3,029167	0,1	0,275087
3,030833	0,1	0,288150
3,032500	0,1	0,288196
3,034167	0,1	0,250756
3,035833	0,1	0,283265
3,037500	0,1	0,241009
3,039167	0,1	0,273427
3,040833	0,1	0,262501
3,042500	0,1	0,286326
3,044167	0,1	0,251977
3,045833	0,1	0,271505
3,047500	0,1	0,292103
3,049167	0,1	0,243577
3,050833	0,1	0,226198
3,052500	0,1	0,273592
3,054167	0,1	0,292349
3,055833	0,1	0,270996
3,057500	0,1	0,265174
3,059167	0,1	0,224937
3,060833	0,1	0,267035
3,062500	0,1	0,259135
3,064167	0,1	0,234664
3,065833	0,1	0,298844
3,067500	0,1	0,257831
3,069167	0,1	0,257576
3,070833	0,1	0,221833
3,072500	0,1	0,241863
3,074167	0,1	0,219890
3,075833	0,1	0,259888
3,077500	0,1	0,255056
3,079167	0,1	0,224856
3,080833	0,1	0,234349
3,082500	0,1	0,269990
3,084167	0,1	0,222157
3,085833	0,1	0,226545
3,087500	0,1	0,283812
3,089167	0,1	0,237405
3,090833	0,1	0,245154
3,092500	0,1	0,213659
3,094167	0,1	0,232836
3,095833	0,1	0,220635
3,097500	0,1	0,258973
3,099167	0,1	0,181480
3,100833	0,1	0,257708
3,102500	0,1	0,274592
3,104167	0,1	0,267830
3,105833	0,1	0,237110
3,107500	0,1	0,240371
3,109167	0,1	0,220698
3,110833	0,1	0,215164
3,112500	0,1	0,227352
3,114167	0,1	0,273697
3,115833	0,1	0,256984
3,117500	0,1	0,218441
3,119167	0,1	0,260283
3,120833	0,1	0,226616
3,122500	0,1	0,262578
3,124167	0,1	0,204927
3,125833	0,1	0,218659
3,127500	0,1	0,254405
3,129167	0,1	0,245508
3,130833	0,1	0,238571
3,132500	0,1	0,210342
3,134167	0,1	0,218844
3,135833	0,1	0,236809
3,137500	0,1	0,245136
3,139167	0,1	0,229697
3,140833	0,1	0,242279
3,142500	0,1	0,205441
3,144167	0,1	0,216216
3,145833	0,1	0,220709
3,147500	0,1	0,241607
3,149167	0,1	0,230673
3,150833	0,1	0,251640
3,152500	0,1	0,221190
3,154167	0,1	0,218663
3,155833	0,1	0,212933
3,157500	0,1	0,244305
3,159167	0,1	0,212084
3,160833	0,1	0,214109
3,162500	0,1	0,184188
3,164167	0,1	0,236477
3,165833	0,1	0,198611
3,167500	0,1	0,204209
3,169167	0,1	0,193471
3,170833	0,1	0,214869
3,172500	0,1	0,196912
3,174167	0,1	0,234282
3,175833	0,1	0,236244
3,177500	0,1	0,180300
3,179167	0,1	0,226518
3,180833	0,1	0,231679
3,182500	0,1	0,166995
3,184167	0,1	0,195098
3,185833	0,1	0,178898
3,187500	0,1	0,247980
3,189167	0,1	0,219936
3,190833	0,1	0,227735
3,192500	0,1	0,232075
3,194167	0,1	0,207699
3,195833	0,1	0,211251
3,197500	0,1	0,198560
3,199167	0,1	0,208682
3,200833	0,1	0,192420
3,202500	0,1	0,211996
3,204167	0,1	0,190313
3,205833	0,1	0,212407
3,207500	0,1	0,180217
3,209167	0,1	0,183202
3,210833	0,1	0,177766
3,212500	0,1	0,193085
3,214167	0,1	0,222261
3,215833	0,1	0,178844
3,217500	0,1	0,201560
3,219167	0,1	0,219070
3,220833	0,1	0,169436
3,222500	0,1	0,224821
3,224167	0,1	0,173652
3,225833	0,1	0,191112
3,227500	0,1	0,176684
3,229167	0,1	0,199255
3,230833	0,1	0,234573
3,232500	0,1	0,217092
3,234167	0,1	0,166594
3,235833	0,1	0,166643
3,237500	0,1	0,191707
3,239167	0,1	0,212591
3,240833	0,1	0,229582
3,242500	0,1	0,206599
3,244167	0,1	0,205891
3,245833	0,1	0,194802
3,247500	0,1	0,214808
3,249167	0,1	0,156330
3,250833	0,1	0,180341
3,252500	0,1	0,197789
3,254167	0,1	0,154982
3,255833	0,1	0,185151
3,257500	0,1	0,158783
3,259167	0,1	0,188145
3,260833	0,1	0,182623
3,262500	0,1	0,152705
3,264167	0,1	0,154959
3,265833	0,1	0,210491
3,267500	0,1	0,176262
3,269167	0,1	0,149785
3,270833	0,1	0,194025
3,272500	0,1	0,172531
3,274167	0,1	0,207349
3,275833	0,1	0,189487
3,277500	0,1	0,181144
3,279167	0,1	0,205349
3,280833	0,1	0,159413
3,282500	0,1	0,139060
3,284167	0,1	0,181437
3,285833	0,1	0,143433
3,287500	0,1	0,197703
3,289167	0,1	0,195455
3,290833	0,1	0,160113
3,292500	0,1	0,169483
3,294167	0,1	0,185171
3,295833	0,1	0,183325
3,297500	0,1	0,198829
3,299167	0,1	0,183101
3,300833	0,1	0,189893
3,302500	0,1	0,191880
3,304167	0,1	0,158586
3,305833	0,1	0,181044
3,307500	0,1	0,184914
3,309167	0,1	0,177186
3,310833	0,1	0,191649
3,312500	0,1	0,167261
3,314167	0,1	0,147798
3,315833	0,1	0,169143
3,317500	0,1	0,153571
3,319167	0,1	0,144007
3,320833	0,1	0,153856
3,322500	0,1	0,180036
3,324167	0,1	0,184471
3,325833	0,1	0,136974
3,327500	0,1	0,131971
3,329167	0,1	0,156237
3,330833	0,1	0,123422
3,332500	0,1	0,179798
3,334167	0,1	0,157835
3,335833	0,1	0,161740
3,337500	0,1	0,172934
3,339167	0,1	0,191953
3,340833	0,1	0,193332
3,342500	0,1	0,168560
3,344167	0,1	0,170418
3,345833	0,1	0,187340
3,347500	0,1	0,139492
3,349167	0,1	0,146739
3,350833	0,1	0,150772
3,352500	0,1	0,135452
3,354167	0,1	0,191364
3,355833	0,1	0,150109
3,357500	0,1	0,161417
3,359167	0,1	0,172738
3,360833	0,1	0,160887
3,362500	0,1	0,142787
3,364167	0,1	0,167204
3,365833	0,1	0,142925
3,367500	0,1	0,148786
3,369167	0,1	0,133561
3,370833	0,1	0,155474
3,372500	0,1	0,126522
3,374167	0,1	0,136364
3,375833	0,1	0,169477
3,377500	0,1	0,086701
3,379167	0,1	0,156530
3,380833	0,1	0,140545
3,382500	0,1	0,136997
3,384167	0,1	0,195305
3,385833	0,1	0,157778
3,387500	0,1	0,125240
3,389167	0,1	0,163547
3,390833	0,1	0,131181
3,392500	0,1	0,188247
3,394167	0,1	0,151193
3,395833	0,1	0,169435
3,397500	0,1	0,167256
3,399167	0,1	0,132237
3,400833	0,1	0,182138
3,402500	0,1	0,147728
3,404167	0,1	0,143425
3,405833	0,1	0,144707
3,407500	0,1	0,120273
3,409167	0,1	0,137417
3,410833	0,1	0,144079
3,412500	0,1	0,149258
3,414167	0,1	0,135424
3,415833	0,1	0,151439
3,417500	0,1	0,153858
3,419167	0,1	0,156681
3,420833	0,1	0,111661
3,422500	0,1	0,180789
3,424167	0,1	0,155209
3,425833	0,1	0,099995
3,427500	0,1	0,158105
3,429167	0,1	0,168199
3,430833	0,1	0,133979
3,432500	0,1	0,119629
3,434167	0,1	0,110843
3,435833	0,1	0,148243
3,437500	0,1	0,149733
3,439167	0,1	0,143945
3,440833	0,1	0,151182
3,442500	0,1	0,175712
3,444167	0,1	0,152688
3,445833	0,1	0,111357
3,447500	0,1	0,118693
3,449167	0,1	0,139557
3,450833	0,1	0,162146
3,452500	0,1	0,133363
3,454167	0,1	0,117246
3,455833	0,1	0,098414
3,457500	0,1	0,135886
3,459167	0,1	0,166378
3,460833	0,1	0,121804
3,462500	0,1	0,151392
3,464167	0,1	0,157187
3,465833	0,1	0,103615
3,467500	0,1	0,109071
3,469167	0,1	0,152915
3,470833	0,1	0,196422
3,472500	0,1	0,126517
3,474167	0,1	0,103946
3,475833	0,1	0,143491
3,477500	0,1	0,105111
3,479167	0,1	0,134833
3,480833	0,1	0,175830
3,482500	0,1	0,143358
3,484167	0,1	0,152236
3,485833	0,1	0,132266
3,487500	0,1	0,154954
3,489167	0,1	0,116962
3,490833	0,1	0,123306
3,492500	0,1	0,166619
3,494167	0,1	0,148561
3,495833	0,1	0,111127
3,497500	0,1	0,101848
3,499167	0,1	0,100502
3,500833	0,1	0,112748
3,502500	0,1	0,114906
3,504167	0,1	0,174956
3,505833	0,1	0,150076
3,507500	0,1	0,095857
3,509167	0,1	0,111465
3,510833	0,1	0,133154
3,512500	0,1	0,133955
3,514167	0,1	0,131235
3,515833	0,1	0,158815
3,517500	0,1	0,122687
3,519167	0,1	0,146154
3,520833	0,1	0,108148
3,522500	0,1	0,156885
3,524167	0,1	0,143305
3,525833	0,1	0,132642
3,527500	0,1	0,095514
3,529167	0,1	0,098117
3,530833	0,1	0,144683
3,532500	0,1	0,138524
3,534167	0,1	0,086124
3,535833	0,1	0,071179
3,537500	0,1	0,113735
3,539167	0,1	0,100216
3,540833	0,1	0,117469
3,542500	0,1	0,108722
3,544167	0,1	0,136348
3,545833	0,1	0,128670
3,547500	0,1	0,117765
3,549167	0,1	0,120449
3,550833	0,1	0,161991
3,552500	0,1	0,146209
3,554167	0,1	0,091777
3,555833	0,1	0,128857
3,557500	0,1	0,112865
3,559167	0,1	0,141310
3,560833	0,1	0,118242
3,562500	0,1	0,093864
3,564167	0,1	0,088849
3,565833	0,1	0,106575
3,567500	0,1	0,117881
3,569167	0,1	0,115306
3,570833	0,1	0,097663
3,572500	0,1	0,104182
3,574167	0,1	0,136192
3,575833	0,1	0,123493
3,577500	0,1	0,141206
3,579167	0,1	0,104758
3,580833	0,1	0,097478
3,582500	0,1	0,123010
3,584167	0,1	0,138044
3,585833	0,1	0,106393
3,587500	0,1	0,081797
3,589167	0,1	0,113555
3,590833	0,1	0,141067
3,592500	0,1	0,139988
3,594167	0,1	0,136705
3,595833	0,1	0,132424
3,597500	0,1	0,119860
3,599167	0,1	0,106556
3,600833	0,1	0,125942
3,602500	0,1	0,109779
3,604167	0,1	0,109604
3,605833	0,1	0,146197
3,607500	0,1	0,134736
3,609167	0,1	0,100874
3,610833	0,1	0,089891
3,612500	0,1	0,076310
3,614167	0,1	0,083362
3,615833	0,1	0,134585
3,617500	0,1	0,149592
3,619167	0,1	0,081626
3,620833	0,1	0,117450
3,622500	0,1	0,101849
3,624167	0,1	0,102779
3,625833	0,1	0,093205
3,627500	0,1	0,116245
3,629167	0,1	0,080759
3,630833	0,1	0,062659
3,632500	0,1	0,093256
3,634167	0,1	0,072634
3,635833	0,1	0,111520
3,637500	0,1	0,116986
3,639167	0,1	0,118342
3,640833	0,1	0,107151
3,642500	0,1	0,095604
3,644167	0,1	0,105126
3,645833	0,1	0,098931
3,647500	0,1	0,102547
3,649167	0,1	0,111284
3,650833	0,1	0,120083
3,652500	0,1	0,124818
3,654167	0,1	0,072859
3,655833	0,1	0,101030
3,657500	0,1	0,133610
3,659167	0,1	0,141160
3,660833	0,1	0,104793
3,662500	0,1	0,071995
3,664167	0,1	0,078230
3,665833	0,1	0,081681
3,667500	0,1	0,119328
3,669167	0,1	0,089254
3,670833	0,1	0,119208
3,672500	0,1	0,103485
3,674167	0,1	0,101072
3,675833	0,1	0,091113
3,677500	0,1	0,106901
3,679167	0,1	0,085862
3,680833	0,1	0,111173
3,682500	0,1	0,120435
3,684167	0,1	0,126939
3,685833	0,1	0,128959
3,687500	0,1	0,133328
3,689167	0,1	0,112115
3,690833	0,1	0,096102
3,692500	0,1	0,127304
3,694167	0,1	0,141252
3,695833	0,1	0,069923
3,697500	0,1	0,074902
3,699167	0,1	0,098970
3,700833	0,1	0,126156
3,702500	0,1	0,118682
3,704167	0,1	0,112801
3,705833	0,1	0,109715
3,707500	0,1	0,087677
3,709167	0,1	0,124992
3,710833	0,1	0,124819
3,712500	0,1	0,086473
3,714167	0,1	0,069849
3,715833	0,1	0,077007
3,717500	0,1	0,110879
3,719167	0,1	0,100322
3,720833	0,1	0,097997
3,722500	0,1	0,083234
3,724167	0,1	0,076298
3,725833	0,1	0,101016
3,727500	0,1	0,077706
3,729167	0,1	0,078812
3,730833	0,1	0,087901
3,732500	0,1	0,090988
3,734167	0,1	0,105827
3,735833	0,1	0,134605
3,737500	0,1	0,104939
3,739167	0,1	0,070724
3,740833	0,1	0,110346
3,742500	0,1	0,131858
3,744167	0,1	0,083364
3,745833	0,1	0,136281
3,747500	0,1	0,065989
3,749167	0,1	0,126729
3,750833	0,1	0,104951
3,752500	0,1	0,128130
3,754167	0,1	0,113263
3,755833	0,1	0,080285
3,757500	0,1	0,118091
3,759167	0,1	0,087330
3,760833	0,1	0,090116
3,762500	0,1	0,111402
3,764167	0,1	0,076134
3,765833	0,1	0,123005
3,767500	0,1	0,088322
3,769167	0,1	0,102700
3,770833	0,1	0,111758
3,772500	0,1	0,101605
3,774167	0,1	0,080742
3,775833	0,1	0,119279
3,777500	0,1	0,091239
3,779167	0,1	0,082834
3,780833	0,1	0,092801
3,782500	0,1	0,117574
3,784167	0,1	0,085174
3,785833	0,1	0,107830
3,787500	0,1	0,101604
3,789167	0,1	0,117651
3,790833	0,1	0,101789
3,792500	0,1	0,073919
3,794167	0,1	0,132537
3,795833	0,1	0,104069
3,797500	0,1	0,074087
3,799167	0,1	0,102602
3,800833	0,1	0,093084
3,802500	0,1	0,114780
3,804167	0,1	0,107257
3,805833	0,1	0,109072
3,807500	0,1	0,144409
3,809167	0,1	0,113400
3,810833	0,1	0,116080
3,812500	0,1	0,083649
3,814167	0,1	0,132262
3,815833	0,1	0,060858
3,817500	0,1	0,098739
3,819167	0,1	0,122174
3,820833	0,1	0,084933
3,822500	0,1	0,110133
3,824167	0,1	0,065426
3,825833	0,1	0,110452
3,827500	0,1	0,089081
3,829167	0,1	0,099326
3,830833	0,1	0,074788
3,832500	0,1	0,085395
3,834167	0,1	0,064064
3,835833	0,1	0,080782
3,837500	0,1	0,125632
3,839167	0,1	0,111688
3,840833	0,1	0,074502
3,842500	0,1	0,060965
3,844167	0,1	0,082136
3,845833	0,1	0,103826
3,847500	0,1	0,099983
3,849167	0,1	0,097283
3,850833	0,1	0,091875
3,852500	0,1	0,067781
3,854167	0,1	0,086494
3,855833	0,1	0,083873
3,857500	0,1	0,088676
3,859167	0,1	0,088773
3,860833	0,1	0,088969
3,862500	0,1	0,086849
3,864167	0,1	0,089076
3,865833	0,1	0,103706
3,867500	0,1	0,110704
3,869167	0,1	0,066770
3,870833	0,1	0,099927
3,872500	0,1	0,083125
3,874167	0,1	0,138752
3,875833	0,1	0,146771
3,877500	0,1	0,105982
3,879167	0,1	0,106154
3,880833	0,1	0,087434
3,882500	0,1	0,093094
3,884167	0,1	0,065651
3,885833	0,1	0,066977
3,887500	0,1	0,077697
3,889167	0,1	0,079332
3,890833	0,1	0,154008
3,892500	0,1	0,119345
3,894167	0,1	0,132529
3,895833	0,1	0,090080
3,897500	0,1	0,077824
3,899167	0,1	0,098985
3,900833	0,1	0,123591
3,902500	0,1	0,100981
3,904167	0,1	0,092820
3,905833	0,1	0,111802
3,907500	0,1	0,094842
3,909167	0,1	0,121909
3,910833	0,1	0,085104
3,912500	0,1	0,091762
3,914167	0,1	0,050272
3,915833	0,1	0,101085
3,917500	0,1	0,093265
3,919167	0,1	0,123118
3,920833	0,1	0,078716
3,922500	0,1	0,097824
3,924167	0,1	0,132631
3,925833	0,1	0,127617
3,927500	0,1	0,125631
3,929167	0,1	0,092352
3,930833	0,1	0,062312
3,932500	0,1	0,095714
3,934167	0,1	0,143798
3,935833	0,1	0,068157
3,937500	0,1	0,117629
3,939167	0,1	0,098920
3,940833	0,1	0,075322
3,942500	0,1	0,108969
3,944167	0,1	0,135719
3,945833	0,1	0,102544
3,947500	0,1	0,109591
3,949167	0,1	0,099236
3,950833	0,1	0,105222
3,952500	0,1	0,087170
3,954167	0,1	0,091919
3,955833	0,1	0,076831
3,957500	0,1	0,130762
3,959167	0,1	0,114850
3,960833	0,1	0,101378
3,962500	0,1	0,097356
3,964167	0,1	0,111890
3,965833	0,1	0,111734
3,967500	0,1	0,116493
3,969167	0,1	0,079983
3,970833	0,1	0,090987
3,972500	0,1	0,123239
3,974167	0,1	0,139464
3,975833	0,1	0,070272
3,977500	0,1	0,127386
3,979167	0,1	0,111871
3,980833	0,1	0,117809
3,982500	0,1	0,100278
3,984167	0,1	0,126144
3,985833	0,1	0,135771
3,987500	0,1	0,089365
3,989167	0,1	0,075548
3,990833	0,1	0,108727
3,992500	0,1	0,127718
3,994167	0,1	0,091821
3,995833	0,1	0,125209
3,997500	0,1	0,075110
3,999167	0,1	0,125038
4,000833	0,1	0,146553
4,002500	0,1	0,146741
4,004167	0,1	0,079943
4,005833	0,1	0,109719
4,007500	0,1	0,132986
4,009167	0,1	0,124085
4,010833	0,1	0,104526
4,012500	0,1	0,091755
4,014167	0,1	0,098697
4,015833	0,1	0,077378
4,017500	0,1	0,094799
4,019167	0,1	0,081153
4,020833	0,1	0,094023
4,022500	0,1	0,126277
4,024167	0,1	0,140443
4,025833	0,1	0,111828
4,027500	0,1	0,103893
4,029167	0,1	0,056567
4,030833	0,1	0,137232
4,032500	0,1	0,088992
4,034167	0,1	0,092924
4,035833	0,1	0,107049
4,037500	0,1	0,104256
4,039167	0,1	0,139140
4,040833	0,1	0,105934
4,042500	0,1	0,104629
4,044167	0,1	0,072818
4,045833	0,1	0,109838
4,047500	0,1	0,086808
4,049167	0,1	0,093262
4,050833	0,1	0,121726
4,052500	0,1	0,101960
4,054167	0,1	0,102608
4,055833	0,1	0,112081
4,057500	0,1	0,110417
4,059167	0,1	0,111407
4,060833	0,1	0,138698
4,062500	0,1	0,143760
4,064167	0,1	0,123772
4,065833	0,1	0,104416
4,067500	0,1	0,148485
4,069167	0,1	0,106179
4,070833	0,1	0,137232
4,072500	0,1	0,132689
4,074167	0,1	0,114634
4,075833	0,1	0,108384
4,077500	0,1	0,097771
4,079167	0,1	0,105863
4,080833	0,1	0,097189
4,082500	0,1	0,123639
4,084167	0,1	0,141954
4,085833	0,1	0,133404
4,087500	0,1	0,130289
4,089167	0,1	0,115017
4,090833	0,1	0,128206
4,092500	0,1	0,114463
4,094167	0,1	0,125093
4,095833	0,1	0,148368
4,097500	0,1	0,119174
4,099167	0,1	0,094335
4,100833	0,1	0,144573
4,102500	0,1	0,148097
4,104167	0,1	0,140920
4,105833	0,1	0,131696
4,107500	0,1	0,071784
4,109167	0,1	0,068272
4,110833	0,1	0,090550
4,112500	0,1	0,142770
4,114167	0,1	0,156759
4,115833	0,1	0,125422
4,117500	0,1	0,115733
4,119167	0,1	0,128133
4,120833	0,1	0,126440
4,122500	0,1	0,093043
4,124167	0,1	0,119343
4,125833	0,1	0,114339
4,127500	0,1	0,111761
4,129167	0,1	0,084436
4,130833	0,1	0,113447
4,132500	0,1	0,137233
4,134167	0,1	0,101516
4,135833	0,1	0,111697
4,137500	0,1	0,144362
4,139167	0,1	0,112808
4,140833	0,1	0,127795
4,142500	0,1	0,124057
4,144167	0,1	0,134500
4,145833	0,1	0,144307
4,147500	0,1	0,120516
4,149167	0,1	0,134378
4,150833	0,1	0,141099
4,152500	0,1	0,126625
4,154167	0,1	0,136823
4,155833	0,1	0,163765
4,157500	0,1	0,124767
4,159167	0,1	0,111763
4,160833	0,1	0,128144
4,162500	0,1	0,106512
4,164167	0,1	0,152504
4,165833	0,1	0,146986
4,167500	0,1	0,149197
4,169167	0,1	0,128445
4,170833	0,1	0,157592
4,172500	0,1	0,101062
4,174167	0,1	0,136264
4,175833	0,1	0,127253
4,177500	0,1	0,138061
4,179167	0,1	0,107398
4,180833	0,1	0,126970
4,182500	0,1	0,101973
4,184167	0,1	0,141429
4,185833	0,1	0,137942
4,187500	0,1	0,117937
4,189167	0,1	0,172574
4,190833	0,1	0,168494
4,192500	0,1	0,151845
4,194167	0,1	0,146222
4,195833	0,1	0,185654
4,197500	0,1	0,123903
4,199167	0,1	0,142258
4,200833	0,1	0,078720
4,202500	0,1	0,148998
4,204167	0,1	0,151657
4,205833	0,1	0,187502
4,207500	0,1	0,117961
4,209167	0,1	0,160784
4,210833	0,1	0,109738
4,212500	0,1	0,146273
4,214167	0,1	0,151243
4,215833	0,1	0,128351
4,217500	0,1	0,140672
4,219167	0,1	0,134963
4,220833	0,1	0,132992
4,222500	0,1	0,137311
4,224167	0,1	0,163307
4,225833	0,1	0,138346
4,227500	0,1	0,120928
4,229167	0,1	0,173688
4,230833	0,1	0,139935
4,232500	0,1	0,123588
4,234167	0,1	0,144535
4,235833	0,1	0,132994
4,237500	0,1	0,122790
4,239167	0,1	0,124724
4,240833	0,1	0,112997
4,242500	0,1	0,146213
4,244167	0,1	0,139807
4,245833	0,1	0,153519
4,247500	0,1	0,140356
4,249167	0,1	0,152358
4,250833	0,1	0,143941
4,252500	0,1	0,144844
4,254167	0,1	0,183377
4,255833	0,1	0,136102
4,257500	0,1	0,139115
4,259167	0,1	0,104481
4,260833	0,1	0,116794
4,262500	0,1	0,141083
4,264167	0,1	0,106359
4,265833	0,1	0,129608
4,267500	0,1	0,139007
4,269167	0,1	0,116727
4,270833	0,1	0,146275
4,272500	0,1	0,175544
4,274167	0,1	0,115973
4,275833	0,1	0,161406
4,277500	0,1	0,101631
4,279167	0,1	0,116213
4,280833	0,1	0,122266
4,282500	0,1	0,147511
4,284167	0,1	0,127770
4,285833	0,1	0,115734
4,287500	0,1	0,128510
4,289167	0,1	0,151989
4,290833	0,1	0,133179
4,292500	0,1	0,115397
4,294167	0,1	0,140258
4,295833	0,1	0,147563
4,297500	0,1	0,123860
4,299167	0,1	0,150462
4,300833	0,1	0,127406
4,302500	0,1	0,125415
4,304167	0,1	0,161427
4,305833	0,1	0,123572
4,307500	0,1	0,125353
4,309167	0,1	0,121748
4,310833	0,1	0,181189
4,312500	0,1	0,155911
4,314167	0,1	0,160165
4,315833	0,1	0,188665
4,317500	0,1	0,142411
4,319167	0,1	0,128091
4,320833	0,1	0,157884
4,322500	0,1	0,120352
4,324167	0,1	0,195728
4,325833	0,1	0,099606
4,327500	0,1	0,150652
4,329167	0,1	0,128579
4,330833	0,1	0,179969
4,332500	0,1	0,154567
4,334167	0,1	0,119527
4,335833	0,1	0,161041
4,337500	0,1	0,136603
4,339167	0,1	0,162450
4,340833	0,1	0,119299
4,342500	0,1	0,131888
4,344167	0,1	0,149316
4,345833	0,1	0,149213
4,347500	0,1	0,114225
4,349167	0,1	0,161210
4,350833	0,1	0,122809
4,352500	0,1	0,129046
4,354167	0,1	0,141922
4,355833	0,1	0,161262
4,357500	0,1	0,144954
4,359167	0,1	0,153533
4,360833	0,1	0,136094
4,362500	0,1	0,141039
4,364167	0,1	0,165476
4,365833	0,1	0,145186
4,367500	0,1	0,118255
4,369167	0,1	0,181568
4,370833	0,1	0,108703
4,372500	0,1	0,160108
4,374167	0,1	0,147568
4,375833	0,1	0,127174
4,377500	0,1	0,187268
4,379167	0,1	0,157148
4,380833	0,1	0,159539
4,382500	0,1	0,119191
4,384167	0,1	0,154809
4,385833	0,1	0,175254
4,387500	0,1	0,152001
4,389167	0,1	0,144432
4,390833	0,1	0,162041
4,392500	0,1	0,150162
4,394167	0,1	0,117420
4,395833	0,1	0,157788
4,397500	0,1	0,142619
4,399167	0,1	0,148266
4,400833	0,1	0,129572
4,402500	0,1	0,156204
4,404167	0,1	0,106180
4,405833	0,1	0,145826
4,407500	0,1	0,181667
4,409167	0,1	0,109163
4,410833	0,1	0,162841
4,412500	0,1	0,148514
4,414167	0,1	0,152709
4,415833	0,1	0,163737
4,417500	0,1	0,164198
4,419167	0,1	0,163557
4,420833	0,1	0,176905
4,422500	0,1	0,155115
4,424167	0,1	0,147810
4,425833	0,1	0,135102
4,427500	0,1	0,102908
4,429167	0,1	0,105648
4,430833	0,1	0,168020
4,432500	0,1	0,134450
4,434167	0,1	0,155515
4,435833	0,1	0,114241
4,437500	0,1	0,140514
4,439167	0,1	0,171310
4,440833	0,1	0,125499
4,442500	0,1	0,122618
4,444167	0,1	0,176071
4,445833	0,1	0,169974
4,447500	0,1	0,158398
4,449167	0,1	0,127806
4,450833	0,1	0,154933
4,452500	0,1	0,126124
4,454167	0,1	0,122971
4,455833	0,1	0,158707
4,457500	0,1	0,155906
4,459167	0,1	0,136110
4,460833	0,1	0,126335
4,462500	0,1	0,143846
4,464167	0,1	0,134824
4,465833	0,1	0,117018
4,467500	0,1	0,147984
4,469167	0,1	0,113294
4,470833	0,1	0,127470
4,472500	0,1	0,111472
4,474167	0,1	0,146347
4,475833	0,1	0,108284
4,477500	0,1	0,160795
4,479167	0,1	0,123742
4,480833	0,1	0,124204
4,482500	0,1	0,133233
4,484167	0,1	0,162099
4,485833	0,1	0,094794
4,487500	0,1	0,150881
4,489167	0,1	0,130078
4,490833	0,1	0,157837
4,492500	0,1	0,177270
4,494167	0,1	0,161866
4,495833	0,1	0,124490
4,497500	0,1	0,157822
4,499167	0,1	0,119878
4,500833	0,1	0,131645
4,502500	0,1	0,132377
4,504167	0,1	0,122437
4,505833	0,1	0,123490
4,507500	0,1	0,193696
4,509167	0,1	0,148644
4,510833	0,1	0,140842
4,512500	0,1	0,122576
4,514167	0,1	0,127736
4,515833	0,1	0,185297
4,517500	0,1	0,138898
4,519167	0,1	0,141466
4,520833	0,1	0,170472
4,522500	0,1	0,102564
4,524167	0,1	0,123303
4,525833	0,1	0,186626
4,527500	0,1	0,123566
4,529167	0,1	0,116860
4,530833	0,1	0,107708
4,532500	0,1	0,103907
4,534167	0,1	0,135091
4,535833	0,1	0,139008
4,537500	0,1	0,118754
4,539167	0,1	0,149252
4,540833	0,1	0,135513
4,542500	0,1	0,151667
4,544167	0,1	0,117967
4,545833	0,1	0,088178
4,547500	0,1	0,131604
4,549167	0,1	0,179922
4,550833	0,1	0,136958
4,552500	0,1	0,142626
4,554167	0,1	0,134228
4,555833	0,1	0,159534
4,557500	0,1	0,110333
4,559167	0,1	0,144788
4,560833	0,1	0,114710
4,562500	0,1	0,122096
4,564167	0,1	0,112598
4,565833	0,1	0,121852
4,567500	0,1	0,143784
4,569167	0,1	0,156313
4,570833	0,1	0,119312
4,572500	0,1	0,119060
4,574167	0,1	0,078665
4,575833	0,1	0,143652
4,577500	0,1	0,119646
4,579167	0,1	0,116494
4,580833	0,1	0,105894
4,582500	0,1	0,089383
4,584167	0,1	0,118837
4,585833	0,1	0,105227
4,587500	0,1	0,100624
4,589167	0,1	0,130357
4,590833	0,1	0,108171
4,592500	0,1	0,151295
4,594167	0,1	0,105841
4,595833	0,1	0,124355
4,597500	0,1	0,176530
4,599167	0,1	0,163957
4,600833	0,1	0,098376
4,602500	0,1	0,093932
4,604167	0,1	0,135256
4,605833	0,1	0,112081
4,607500	0,1	0,095036
4,609167	0,1	0,091608
4,610833	0,1	0,113463
4,612500	0,1	0,114751
4,614167	0,1	0,109256
4,615833	0,1	0,114048
4,617500	0,1	0,090561
4,619167	0,1	0,148664
4,620833	0,1	0,127587
4,622500	0,1	0,105483
4,624167	0,1	0,156548
4,625833	0,1	0,091840
4,627500	0,1	0,081056
4,629167	0,1	0,105931
4,630833	0,1	0,153173
4,632500	0,1	0,133468
4,634167	0,1	0,141923
4,635833	0,1	0,105027
4,637500	0,1	0,111724
4,639167	0,1	0,115331
4,640833	0,1	0,128388
4,642500	0,1	0,163137
4,644167	0,1	0,077503
4,645833	0,1	0,094265
4,647500	0,1	0,117832
4,649167	0,1	0,120525
4,650833	0,1	0,055977
4,652500	0,1	0,126741
4,654167	0,1	0,115430
4,655833	0,1	0,130650
4,657500	0,1	0,114862
4,659167	0,1	0,112995
4,660833	0,1	0,083203
4,662500	0,1	0,128441
4,664167	0,1	0,129370
4,665833	0,1	0,083267
4,667500	0,1	0,081852
4,669167	0,1	0,129022
4,670833	0,1	0,119594
4,672500	0,1	0,095038
4,674167	0,1	0,104484
4,675833	0,1	0,092529
4,677500	0,1	0,089975
4,679167	0,1	0,095611
4,680833	0,1	0,090118
4,682500	0,1	0,117721
4,684167	0,1	0,108202
4,685833	0,1	0,083020
4,687500	0,1	0,102436
4,689167	0,1	0,103203
4,690833	0,1	0,102684
4,692500	0,1	0,097261
4,694167	0,1	0,122964
4,695833	0,1	0,066773
4,697500	0,1	0,100231
4,699167	0,1	0,126798
4,700833	0,1	0,070743
4,702500	0,1	0,062802
4,704167	0,1	0,089023
4,705833	0,1	0,107398
4,707500	0,1	0,090872
4,709167	0,1	0,117649
4,710833	0,1	0,082912
4,712500	0,1	0,071349
4,714167	0,1	0,041397
4,715833	0,1	0,121376
4,717500	0,1	0,116556
4,719167	0,1	0,102262
4,720833	0,1	0,142529
4,722500	0,1	0,084588
4,724167	0,1	0,127450
4,725833	0,1	0,081995
4,727500	0,1	0,080630
4,729167	0,1	0,088447
4,730833	0,1	0,117174
4,732500	0,1	0,111059
4,734167	0,1	0,036978
4,735833	0,1	0,109951
4,737500	0,1	0,073945
4,739167	0,1	0,063541
4,740833	0,1	0,058821
4,742500	0,1	0,070834
4,744167	0,1	0,087465
4,745833	0,1	0,087334
4,747500	0,1	0,072765
4,749167	0,1	0,087708
4,750833	0,1	0,090771
4,752500	0,1	0,063726
4,754167	0,1	0,106098
4,755833	0,1	0,102840
4,757500	0,1	0,098471
4,759167	0,1	0,077595
4,760833	0,1	0,096613
4,762500	0,1	0,096208
4,764167	0,1	0,099157
4,765833	0,1	0,120216
4,767500	0,1	0,097967
4,769167	0,1	0,079811
4,770833	0,1	0,088265
4,772500	0,1	0,061392
4,774167	0,1	0,080105
4,775833	0,1	0,103487
4,777500	0,1	0,074282
4,779167	0,1	0,097445
4,780833	0,1	0,102148
4,782500	0,1	0,062047
4,784167	0,1	0,055432
4,785833	0,1	0,053870
4,787500	0,1	0,053530
4,789167	0,1	0,059399
4,790833	0,1	0,095483
4,792500	0,1	0,095843
4,794167	0,1	0,059698
4,795833	0,1	0,117182
4,797500	0,1	0,079234
4,799167	0,1	0,046106
4,800833	0,1	0,077778
4,802500	0,1	0,061087
4,804167	0,1	0,081676
4,805833	0,1	0,083958
4,807500	0,1	0,057372
4,809167	0,1	0,080927
4,810833	0,1	0,110808
4,812500	0,1	0,035285
4,814167	0,1	0,065976
4,815833	0,1	0,058543
4,817500	0,1	0,068910
4,819167	0,1	0,084475
4,820833	0,1	0,078814
4,822500	0,1	0,055810
4,824167	0,1	0,091815
4,825833	0,1	0,023316
4,827500	0,1	0,041204
4,829167	0,1	0,028215
4,830833	0,1	0,081839
4,832500	0,1	0,065178
4,834167	0,1	0,049914
4,835833	0,1	0,092661
4,837500	0,1	0,076094
4,839167	0,1	0,044316
4,840833	0,1	0,062493
4,842500	0,1	0,079040
4,844167	0,1	0,051528
4,845833	0,1	0,062387
4,847500	0,1	0,023852
4,849167	0,1	0,063892
4,850833	0,1	0,026646
4,852500	0,1	0,087536
4,854167	0,1	0,083147
4,855833	0,1	0,072703
4,857500	0,1	0,053232
4,859167	0,1	0,047214
4,860833	0,1	0,071932
4,862500	0,1	0,082248
4,864167	0,1	0,059054
4,865833	0,1	0,060864
4,867500	0,1	0,101304
4,869167	0,1	0,062325
4,870833	0,1	0,057706
4,872500	0,1	0,028400
4,874167	0,1	0,062647
4,875833	0,1	0,070182
4,877500	0,1	0,056026
4,879167	0,1	0,054910
4,880833	0,1	0,067736
4,882500	0,1	0,079283
4,884167	0,1	0,065818
4,885833	0,1	0,056605
4,887500	0,1	0,059279
4,889167	0,1	0,044191
4,890833	0,1	0,006934
4,892500	0,1	0,011413
4,894167	0,1	0,064929
4,895833	0,1	0,058059
4,897500	0,1	0,068849
4,899167	0,1	0,057465
4,900833	0,1	0,072298
4,902500	0,1	0,097410
4,904167	0,1	0,035390
4,905833	0,1	0,034734
4,907500	0,1	0,078681
4,909167	0,1	0,074675
4,910833	0,1	0,098814
4,912500	0,1	0,094209
4,914167	0,1	0,037955
4,915833	0,1	0,045516
4,917500	0,1	0,051121
4,919167	0,1	0,043887
4,920833	0,1	0,032742
4,922500	0,1	0,050537
4,924167	0,1	0,056662
4,925833	0,1	0,032695
4,927500	0,1	0,050295
4,929167	0,1	0,050722
4,930833	0,1	0,041671
4,932500	0,1	0,036068
4,934167	0,1	0,061379
4,935833	0,1	0,011074
4,937500	0,1	0,002266
4,939167	0,1	0,035780
4,940833	0,1	0,062722
4,942500	0,1	0,033700
4,944167	0,1	0,034794
4,945833	0,1	0,053841
4,947500	0,1	0,027285
4,949167	0,1	0,043421
4,950833	0,1	0,039285
4,952500	0,1	0,006171
4,954167	0,1	0,051921
4,955833	0,1	0,050008
4,957500	0,1	0,043705
4,959167	0,1	0,044197
4,960833	0,1	0,024270
4,962500	0,1	0,007691
4,964167	0,1	0,047130
4,965833	0,1	0,020871
4,967500	0,1	0,038578
4,969167	0,1	0,063169
4,970833	0,1	0,057756
4,972500	0,1	0,026416
4,974167	0,1	-0,006127
4,975833	0,1	0,036987
4,977500	0,1	0,040167
4,979167	0,1	-0,007225
4,980833	0,1	0,019286
4,982500	0,1	0,018419
4,984167	0,1	0,022086
4,985833	0,1	0,063179
4,987500	0,1	0,044433
4,989167	0,1	0,049438
4,990833	0,1	0,025652
4,992500	0,1	0,046674
4,994167	0,1	0,046401
4,995833	0,1	0,003135
4,997500	0,1	0,052743
4,999167	0,1	0,052986
5,000833	0,1	0,050941
5,002500	0,1	0,018017
5,004167	0,1	0,037986
5,005833	0,1	0,070284
5,007500	0,1	-0,004262
5,009167	0,1	0,014315
5,010833	0,1	0,026564
5,012500	0,1	0,024824
5,014167	0,1	0,026357
5,015833	0,1	0,030195
5,017500	0,1	0,016838
5,019167	0,1	0,046914
5,020833	0,1	0,015731
5,022500	0,1	0,015432
5,024167	0,1	0,012286
5,025833	0,1	0,015805
5,027500	0,1	0,037549
5,029167	0,1	0,021909
5,030833	0,1	-0,005667
5,032500	0,1	0,045468
5,034167	0,1	-0,003687
5,035833	0,1	0,020677
5,037500	0,1	0,032686
5,039167	0,1	0,038812
5,040833	0,1	0,043544
5,042500	0,1	0,004017
5,044167	0,1	0,017473
5,045833	0,1	0,024289
5,047500	0,1	0,031404
5,049167	0,1	-0,001164
5,050833	0,1	0,038573
5,052500	0,1	0,009085
5,054167	0,1	0,029356
5,055833	0,1	-0,009052
5,057500	0,1	0,035825
5,059167	0,1	0,012001
5,060833	0,1	0,028957
5,062500	0,1	-0,050957
5,064167	0,1	-0,000675
5,065833	0,1	0,005047
5,067500	0,1	0,033663
5,069167	0,1	0,043302
5,070833	0,1	0,009920
5,072500	0,1	0,024347
5,074167	0,1	0,009614
5,075833	0,1	0,019738
5,077500	0,1	0,007629
5,079167	0,1	0,036772
5,080833	0,1	0,019103
5,082500	0,1	0,025924
5,084167	0,1	0,054782
5,085833	0,1	-0,000069
5,087500	0,1	-0,010450
5,089167	0,1	0,008724
5,090833	0,1	-0,028101
5,092500	0,1	0,007425
5,094167	0,1	0,029356
5,095833	0,1	-0,005304
5,097500	0,1	-0,000544
5,099167	0,1	0,035017
5,100833	0,1	-0,006414
5,102500	0,1	0,023943
5,104167	0,1	0,002961
5,105833	0,1	-0,035736
5,107500	0,1	0,015311
5,109167	0,1	0,009853
5,110833	0,1	0,019919
5,112500	0,1	0,010194
5,114167	0,1	0,024699
5,115833	0,1	-0,009342
5,117500	0,1	-0,008869
5,119167	0,1	0,003423
5,120833	0,1	-0,000250
5,122500	0,1	0,024335
5,124167	0,1	0,015906
5,125833	0,1	-0,000939
5,127500	0,1	0,010129
5,129167	0,1	0,021382
5,130833	0,1	0,022077
5,132500	0,1	-0,020583
5,134167	0,1	-0,025322
5,135833	0,1	0,029408
5,137500	0,1	0,038110
5,139167	0,1	-0,011193
5,140833	0,1	0,012339
5,142500	0,1	-0,012301
5,144167	0,1	-0,008189
5,145833	0,1	0,006280
5,147500	0,1	-0,020427
5,149167	0,1	0,005865
5,150833	0,1	-0,010969
5,152500	0,1	0,006279
5,154167	0,1	-0,000951
5,155833	0,1	0,015910
5,157500	0,1	0,018797
5,159167	0,1	0,012978
5,160833	0,1	0,010533
5,162500	0,1	-0,009857
5,164167	0,1	0,033770
5,165833	0,1	0,014045
5,167500	0,1	0,022437
5,169167	0,1	-0,006296
5,170833	0,1	0,013683
5,172500	0,1	0,053836
5,174167	0,1	0,005352
5,175833	0,1	0,008366
5,177500	0,1	0,028147
5,179167	0,1	0,001159
5,180833	0,1	0,025929
5,182500	0,1	-0,001057
5,184167	0,1	0,017462
5,185833	0,1	-0,040521
5,187500	0,1	0,016011
5,189167	0,1	-0,008522
5,190833	0,1	-0,015793
5,192500	0,1	0,004135
5,194167	0,1	0,012575
5,195833	0,1	-0,031317
5,197500	0,1	0,009369
5,199167	0,1	0,042413
5,200833	0,1	-0,006593
5,202500	0,1	-0,010331
5,204167	0,1	0,010467
5,205833	0,1	-0,007883
5,207500	0,1	-0,025139
5,209167	0,1	0,026215
5,210833	0,1	0,008101
5,212500	0,1	-0,005851
5,214167	0,1	0,027889
5,215833	0,1	-0,020173
5,217500	0,1	0,030825
5,219167	0,1	0,027800
5,220833	0,1	-0,013929
5,222500	0,1	0,018341
5,224167	0,1	0,008439
5,225833	0,1	0,039327
5,227500	0,1	-0,003559
5,229167	0,1	-0,013888
5,230833	0,1	0,043290
5,232500	0,1	0,008987
5,234167	0,1	-0,026237
5,235833	0,1	0,046481
5,237500	0,1	-0,025286
5,239167	0,1	0,004060
5,240833	0,1	-0,034164
5,242500	0,1	-0,000100
5,244167	0,1	-0,010390
5,245833	0,1	-0,037714
5,247500	0,1	0,014416
5,249167	0,1	-0,009215
5,250833	0,1	-0,003339
5,252500	0,1	0,006570
5,254167	0,1	-0,017032
5,255833	0,1	-0,015584
5,257500	0,1	-0,000074
5,259167	0,1	0,007564
5,260833	0,1	-0,016110
5,262500	0,1	-0,013600
5,264167	0,1	-0,039519
5,265833	0,1	0,013374
5,267500	0,1	-0,044481
5,269167	0,1	-0,014488
5,270833	0,1	-0,011095
5,272500	0,1	0,004584
5,274167	0,1	0,006644
5,275833	0,1	0,023826
5,277500	0,1	-0,016266
5,279167	0,1	-0,025782
5,280833	0,1	0,031224
5,282500	0,1	-0,004211
5,284167	0,1	-0,001354
5,285833	0,1	0,005168
5,287500	0,1	0,043003
5,289167	0,1	0,013756
5,290833	0,1	-0,011488
5,292500	0,1	-0,006536
5,294167	0,1	-0,016623
5,295833	0,1	0,016477
5,297500	0,1	0,006346
5,299167	0,1	-0,018895
5,300833	0,1	-0,015223
5,302500	0,1	-0,042152
5,304167	0,1	-0,040415
5,305833	0,1	-0,020659
5,307500	0,1	-0,009765
5,309167	0,1	0,026158
5,310833	0,1	-0,050076
5,312500	0,1	-0,018457
5,314167	0,1	-0,000547
5,315833	0,1	-0,012855
5,317500	0,1	-0,054334
5,319167	0,1	-0,015593
5,320833	0,1	-0,005264
5,322500	0,1	-0,029979
5,324167	0,1	-0,018503
5,325833	0,1	-0,018570
5,327500	0,1	-0,058114
5,329167	0,1	-0,008941
5,330833	0,1	-0,016623
5,332500	0,1	-0,027305
5,334167	0,1	-0,021116
5,335833	0,1	-0,007129
5,337500	0,1	-0,014239
5,339167	0,1	-0,040059
5,340833	0,1	0,000902
5,342500	0,1	-0,043422
5,344167	0,1	-0,023275
5,345833	0,1	-0,030564
5,347500	0,1	-0,005800
5,349167	0,1	-0,016222
5,350833	0,1	0,006338
5,352500	0,1	-0,027420
5,354167	0,1	0,011405
5,355833	0,1	0,022776
5,357500	0,1	0,021106
5,359167	0,1	-0,031014
5,360833	0,1	0,004700
5,362500	0,1	-0,030025
5,364167	0,1	-0,025496
5,365833	0,1	-0,005678
5,367500	0,1	-0,005674
5,369167	0,1	0,010297
5,370833	0,1	-0,031286
5,372500	0,1	-0,009455
5,374167	0,1	-0,008468
5,375833	0,1	-0,015001
5,377500	0,1	0,007790
5,379167	0,1	-0,011430
5,380833	0,1	-0,032144
5,382500	0,1	-0,012722
5,384167	0,1	-0,015803
5,385833	0,1	0,014903
5,387500	0,1	-0,033059
5,389167	0,1	0,006334
5,390833	0,1	-0,044371
5,392500	0,1	-0,005972
5,394167	0,1	0,009836
5,395833	0,1	-0,013934
5,397500	0,1	-0,035860
5,399167	0,1	-0,024796
5,400833	0,1	0,021605
5,402500	0,1	-0,018030
5,404167	0,1	-0,007941
5,405833	0,1	-0,003209
5,407500	0,1	-0,016213
5,409167	0,1	0,038280
5,410833	0,1	0,011081
5,412500	0,1	-0,024894
5,414167	0,1	-0,028229
5,415833	0,1	-0,039471
5,417500	0,1	-0,034916
5,419167	0,1	-0,073453
5,420833	0,1	0,001595
5,422500	0,1	-0,044893
5,424167	0,1	0,008255
5,425833	0,1	-0,012483
5,427500	0,1	-0,022386
5,429167	0,1	-0,054917
5,430833	0,1	-0,001378
5,432500	0,1	-0,008927
5,434167	0,1	0,022600
5,435833	0,1	-0,026514
5,437500	0,1	0,017938
5,439167	0,1	-0,014004
5,440833	0,1	-0,022908
5,442500	0,1	-0,027748
5,444167	0,1	-0,035795
5,445833	0,1	-0,036198
5,447500	0,1	-0,018734
5,449167	0,1	-0,023510
5,450833	0,1	-0,047925
5,452500	0,1	0,001020
5,454167	0,1	-0,049261
5,455833	0,1	-0,004281
5,457500	0,1	-0,024729
5,459167	0,1	-0,014243
5,460833	0,1	-0,002530
5,462500	0,1	-0,058639
5,464167	0,1	0,010103
5,465833	0,1	-0,041216
5,467500	0,1	-0,047348
5,469167	0,1	-0,004570
5,470833	0,1	-0,009680
5,472500	0,1	-0,011906
5,474167	0,1	-0,011446
5,475833	0,1	-0,024490
5,477500	0,1	-0,006259
5,479167	0,1	-0,028516
5,480833	0,1	-0,011790
5,482500	0,1	-0,006425
5,484167	0,1	0,004947
5,485833	0,1	-0,019637
5,487500	0,1	0,000446
5,489167	0,1	-0,017142
5,490833	0,1	-0,037015
5,492500	0,1	0,005460
5,494167	0,1	-0,018123
5,495833	0,1	-0,032074
5,497500	0,1	-0,008344
5,499167	0,1	-0,034868
5,500833	0,1	-0,021470
5,502500	0,1	-0,022518
5,504167	0,1	-0,008110
5,505833	0,1	-0,003980
5,507500	0,1	-0,026071
5,509167	0,1	-0,005378
5,510833	0,1	-0,053991
5,512500	0,1	-0,015183
5,514167	0,1	-0,045129
5,515833	0,1	-0,041289
5,517500	0,1	-0,049672
5,519167	0,1	-0,032843
5,520833	0,1	-0,025898
5,522500	0,1	-0,068903
5,524167	0,1	-0,035865
5,525833	0,1	-0,000359
5,527500	0,1	-0,020640
5,529167	0,1	-0,028339
5,530833	0,1	-0,076710
5,532500	0,1	-0,032890
5,534167	0,1	-0,029734
5,535833	0,1	-0,044952
5,537500	0,1	-0,007556
5,539167	0,1	-0,047913
5,540833	0,1	-0,035808
5,542500	0,1	-0,073164
5,544167	0,1	-0,010106
5,545833	0,1	-0,003339
5,547500	0,1	-0,002856
5,549167	0,1	-0,035617
5,550833	0,1	-0,000199
5,552500	0,1	-0,014237
5,554167	0,1	-0,007166
5,555833	0,1	-0,049896
5,557500	0,1	-0,028767
5,559167	0,1	-0,035684
5,560833	0,1	-0,035216
5,562500	0,1	-0,051595
5,564167	0,1	-0,030860
5,565833	0,1	-0,034413
5,567500	0,1	-0,001240
5,569167	0,1	-0,032823
5,570833	0,1	-0,030615
5,572500	0,1	-0,034301
5,574167	0,1	-0,040293
5,575833	0,1	-0,055863
5,577500	0,1	-0,038956
5,579167	0,1	-0,041468
5,580833	0,1	-0,049263
5,582500	0,1	-0,025249
5,584167	0,1	-0,085393
5,585833	0,1	-0,048521
5,587500	0,1	-0,025741
5,589167	0,1	-0,059578
5,590833	0,1	-0,028369
5,592500	0,1	-0,057014
5,594167	0,1	-0,041682
5,595833	0,1	-0,055383
5,597500	0,1	-0,051719
5,599167	0,1	-0,041692
5,600833	0,1	-0,001534
5,602500	0,1	-0,045996
5,604167	0,1	-0,026310
5,605833	0,1	-0,001892
5,607500	0,1	-0,072343
5,609167	0,1	-0,037028
5,610833	0,1	-0,014177
5,612500	0,1	-0,042512
5,614167	0,1	-0,036909
5,615833	0,1	-0,040807
5,617500	0,1	-0,039024
5,619167	0,1	0,006733
5,620833	0,1	-0,030265
5,622500	0,1	-0,046295
5,624167	0,1	-0,040517
5,625833	0,1	-0,040816
5,627500	0,1	-0,045244
5,629167	0,1	-0,043202
5,630833	0,1	-0,031800
5,632500	0,1	-0,033892
5,634167	0,1	-0,024384
5,635833	0,1	-0,027928
5,637500	0,1	-0,009695
5,639167	0,1	-0,050658
5,640833	0,1	-0,052411
5,642500	0,1	-0,037905
5,644167	0,1	-0,044902
5,645833	0,1	-0,056156
5,647500	0,1	-0,056979
5,649167	0,1	-0,032716
5,650833	0,1	-0,038710
5,652500	0,1	-0,073387
5,654167	0,1	-0,011329
5,655833	0,1	-0,066268
5,657500	0,1	-0,031155
5,659167	0,1	-0,034814
5,660833	0,1	-0,020528
5,662500	0,1	-0,040470
5,664167	0,1	-0,034655
5,665833	0,1	-0,038250
5,667500	0,1	-0,051194
5,669167	0,1	-0,030330
5,670833	0,1	-0,026659
5,672500	0,1	-0,031315
5,674167	0,1	-0,024194
5,675833	0,1	-0,046001
5,677500	0,1	-0,019498
5,679167	0,1	-0,009052
5,680833	0,1	-0,025139
5,682500	0,1	-0,009234
5,684167	0,1	-0,067909
5,685833	0,1	-0,059648
5,687500	0,1	-0,063511
5,689167	0,1	-0,082147
5,690833	0,1	-0,045554
5,692500	0,1	-0,073227
5,694167	0,1	-0,029474
5,695833	0,1	-0,054278
5,697500	0,1	-0,016755
5,699167	0,1	-0,037845
5,700833	0,1	-0,051715
5,702500	0,1	-0,041171
5,704167	0,1	-0,030918
5,705833	0,1	-0,037207
5,707500	0,1	-0,057897
5,709167	0,1	-0,038727
5,710833	0,1	-0,038022
5,712500	0,1	-0,014827
5,714167	0,1	-0,042092
5,715833	0,1	-0,062274
5,717500	0,1	-0,028598
5,719167	0,1	-0,009575
5,720833	0,1	-0,017205
5,722500	0,1	-0,033528
5,724167	0,1	-0,055340
5,725833	0,1	-0,013429
5,727500	0,1	-0,001127
5,729167	0,1	-0,042449
5,730833	0,1	-0,046598
5,732500	0,1	-0,043903
5,734167	0,1	-0,037330
5,735833	0,1	-0,049672
5,737500	0,1	-0,029557
5,739167	0,1	-0,092054
5,740833	0,1	-0,074587
5,742500	0,1	-0,055462
5,744167	0,1	-0,032896
5,745833	0,1	-0,065879
5,747500	0,1	-0,041294
5,749167	0,1	-0,021661
5,750833	0,1	-0,100898
5,752500	0,1	-0,030242
5,754167	0,1	-0,061570
5,755833	0,1	-0,046722
5,757500	0,1	-0,028535
5,759167	0,1	-0,071067
5,760833	0,1	-0,053837
5,762500	0,1	-0,005794
5,764167	0,1	-0,033174
5,765833	0,1	-0,058647
5,767500	0,1	-0,054415
5,769167	0,1	-0,040609
5,770833	0,1	-0,043801
5,772500	0,1	-0,065592
5,774167	0,1	-0,063153
5,775833	0,1	-0,056149
5,777500	0,1	-0,064313
5,779167	0,1	-0,042336
5,780833	0,1	-0,074748
5,782500	0,1	-0,072712
5,784167	0,1	-0,051844
5,785833	0,1	-0,041891
5,787500	0,1	-0,049091
5,789167	0,1	-0,059584
5,790833	0,1	-0,060295
5,792500	0,1	-0,043806
5,794167	0,1	-0,097117
5,795833	0,1	-0,035951
5,797500	0,1	-0,051264
5,799167	0,1	-0,069329
5,800833	0,1	-0,037969
5,802500	0,1	-0,023054
5,804167	0,1	-0,050541
5,805833	0,1	-0,043735
5,807500	0,1	-0,064599
5,809167	0,1	-0,066127
5,810833	0,1	-0,083250
5,812500	0,1	-0,032442
5,814167	0,1	-0,032779
5,815833	0,1	-0,050903
5,817500	0,1	-0,074211
5,819167	0,1	-0,041184
5,820833	0,1	-0,025728
5,822500	0,1	-0,066579
5,824167	0,1	-0,048355
5,825833	0,1	-0,064371
5,827500	0,1	-0,053476
5,829167	0,1	-0,084469
5,830833	0,1	-0,038974
5,832500	0,1	-0,039713
5,834167	0,1	0,001603
5,835833	0,1	-0,069837
5,837500	0,1	-0,014434
5,839167	0,1	-0,040409
5,840833	0,1	-0,060403
5,842500	0,1	-0,074231
5,844167	0,1	-0,018062
5,845833	0,1	-0,074150
5,847500	0,1	-0,082157
5,849167	0,1	-0,056814
5,850833	0,1	-0,023327
5,852500	0,1	-0,033999
5,854167	0,1	-0,024685
5,855833	0,1	-0,021236
5,857500	0,1	-0,041884
5,859167	0,1	-0,046887
5,860833	0,1	-0,044905
5,862500	0,1	-0,054412
5,864167	0,1	-0,016995
5,865833	0,1	-0,067731
5,867500	0,1	-0,042296
5,869167	0,1	-0,055803
5,870833	0,1	-0,026954
5,872500	0,1	-0,028541
5,874167	0,1	-0,053587
5,875833	0,1	-0,077083
5,877500	0,1	-0,041297
5,879167	0,1	-0,051776
5,880833	0,1	-0,043975
5,882500	0,1	-0,058147
5,884167	0,1	-0,010584
5,885833	0,1	-0,065405
5,887500	0,1	-0,034951
5,889167	0,1	-0,036157
5,890833	0,1	-0,026139
5,892500	0,1	-0,051791
5,894167	0,1	-0,011805
5,895833	0,1	-0,031803
5,897500	0,1	-0,046423
5,899167	0,1	-0,042100
5,900833	0,1	-0,083671
5,902500	0,1	-0,036529
5,904167	0,1	-0,066873
5,905833	0,1	-0,031035
5,907500	0,1	-0,051492
5,909167	0,1	-0,065944
5,910833	0,1	-0,028010
5,912500	0,1	-0,067460
5,914167	0,1	-0,014846
5,915833	0,1	-0,058551
5,917500	0,1	-0,065706
5,919167	0,1	-0,073179
5,920833	0,1	-0,029935
5,922500	0,1	-0,047645
5,924167	0,1	-0,035519
5,925833	0,1	-0,089551
5,927500	0,1	-0,051978
5,929167	0,1	-0,037973
5,930833	0,1	-0,052315
5,932500	0,1	-0,048914
5,934167	0,1	-0,035118
5,935833	0,1	-0,040894
5,937500	0,1	-0,044142
5,939167	0,1	-0,061112
5,940833	0,1	-0,049729
5,942500	0,1	-0,038264
5,944167	0,1	-0,046897
5,945833	0,1	-0,068465
5,947500	0,1	-0,061178
5,949167	0,1	-0,037626
5,950833	0,1	-0,044433
5,952500	0,1	-0,001715
5,954167	0,1	-0,053870
5,955833	0,1	-0,039788
5,957500	0,1	-0,050613
5,959167	0,1	-0,020040
5,960833	0,1	-0,084461
5,962500	0,1	-0,051164
5,964167	0,1	-0,062157
5,965833	0,1	-0,071427
5,967500	0,1	-0,045331
5,969167	0,1	-0,076020
5,970833	0,1	-0,048930
5,972500	0,1	-0,068218
5,974167	0,1	-0,038329
5,975833	0,1	-0,078421
5,977500	0,1	-0,016772
5,979167	0,1	-0,034750
5,980833	0,1	-0,023875
5,982500	0,1	-0,040831
5,984167	0,1	-0,057958
5,985833	0,1	-0,066526
5,987500	0,1	-0,063682
5,989167	0,1	-0,072068
5,990833	0,1	-0,060830
5,992500	0,1	-0,062049
5,994167	0,1	-0,079480
5,995833	0,1	-0,062984
5,997500	0,1	-0,030934
5,999167	0,1	-0,070486
6,000833	0,1	-0,088679
