File Path	chrom://chromeleon01/ikbm_chromeleon/2022/Rezex/Esteban/220612_chitin_4_7.seq/708.smp/UV_VIS_1.channel/UV_VIS_1.chm
Channel	UV_VIS_1

Injection Information:
Data Vault	ikbm_chromeleon
Injection	Blank__08
Injection Number	54
Position	RA1
Comment	
Processing Method	New ProcMethod
Instrument Method	Short_Rezex_6min_194nm
Type	Blank
Status	Finished
Injection Date	12.06.2022
Injection Time	22:56:43
Injection Volume (µl)	8,000
Dilution Factor	1,0000
Weight	1,0000

Chromatogram Data Information:
Time Min. (min)	0,000833
Time Max. (min)	6,000833
Data Points	3601
Detector	UV
Generating Data System	Chromeleon 7.2.9.11323
Exporting Data System	Chromeleon 7.2.9.0
Operator	Instrument Controller
Signal Quantity	Absorbance
Signal Unit	mAU
Signal Min.	-0,139874
Signal Max.	9,534700
Channel	UV_VIS_1
Driver Name	VWD3000.dll
Channel Type	Evaluation
Min. Step (s)	0,1
Max. Step (s)	0,1
Average Step (s)	0,1

Signal Parameter Information:
Signal Info	WVL:194 nm

Chromatogram Data:
Time (min)	Step (s)	Value (mAU)
0,000833	n.a.	0,024426
0,002500	0,1	0,048469
0,004167	0,1	0,004637
0,005833	0,1	0,036263
0,007500	0,1	0,045961
0,009167	0,1	-0,001220
0,010833	0,1	0,037132
0,012500	0,1	0,012971
0,014167	0,1	0,059182
0,015833	0,1	0,038595
0,017500	0,1	0,021014
0,019167	0,1	0,051395
0,020833	0,1	0,028294
0,022500	0,1	0,029640
0,024167	0,1	0,036397
0,025833	0,1	0,014130
0,027500	0,1	0,028158
0,029167	0,1	0,047378
0,030833	0,1	0,037724
0,032500	0,1	0,035211
0,034167	0,1	0,057871
0,035833	0,1	0,008246
0,037500	0,1	0,043124
0,039167	0,1	0,034440
0,040833	0,1	0,019310
0,042500	0,1	0,025520
0,044167	0,1	0,004504
0,045833	0,1	0,003153
0,047500	0,1	0,030957
0,049167	0,1	0,032991
0,050833	0,1	0,051305
0,052500	0,1	-0,021781
0,054167	0,1	0,034301
0,055833	0,1	0,015864
0,057500	0,1	0,057930
0,059167	0,1	0,008501
0,060833	0,1	0,037040
0,062500	0,1	0,048889
0,064167	0,1	0,008022
0,065833	0,1	0,064718
0,067500	0,1	0,037472
0,069167	0,1	0,016741
0,070833	0,1	0,052973
0,072500	0,1	0,053046
0,074167	0,1	0,002707
0,075833	0,1	0,056060
0,077500	0,1	-0,002047
0,079167	0,1	0,041250
0,080833	0,1	0,006344
0,082500	0,1	0,003026
0,084167	0,1	0,082484
0,085833	0,1	0,054856
0,087500	0,1	0,034959
0,089167	0,1	0,018799
0,090833	0,1	0,051558
0,092500	0,1	0,033640
0,094167	0,1	0,002028
0,095833	0,1	0,002601
0,097500	0,1	0,058475
0,099167	0,1	0,018577
0,100833	0,1	0,050143
0,102500	0,1	0,046992
0,104167	0,1	0,032607
0,105833	0,1	0,061540
0,107500	0,1	0,013975
0,109167	0,1	0,037524
0,110833	0,1	-0,004280
0,112500	0,1	0,013508
0,114167	0,1	0,049978
0,115833	0,1	-0,019496
0,117500	0,1	-0,001428
0,119167	0,1	0,072088
0,120833	0,1	0,028108
0,122500	0,1	0,026649
0,124167	0,1	0,044671
0,125833	0,1	0,033541
0,127500	0,1	0,029289
0,129167	0,1	0,006596
0,130833	0,1	0,012675
0,132500	0,1	-0,010622
0,134167	0,1	0,023902
0,135833	0,1	0,062855
0,137500	0,1	0,059517
0,139167	0,1	0,032674
0,140833	0,1	0,052302
0,142500	0,1	0,012170
0,144167	0,1	0,033950
0,145833	0,1	0,011783
0,147500	0,1	0,045796
0,149167	0,1	0,028809
0,150833	0,1	0,014808
0,152500	0,1	0,041675
0,154167	0,1	-0,008714
0,155833	0,1	0,025253
0,157500	0,1	0,023144
0,159167	0,1	0,004217
0,160833	0,1	0,052067
0,162500	0,1	0,018867
0,164167	0,1	0,024460
0,165833	0,1	0,020919
0,167500	0,1	0,031117
0,169167	0,1	0,015580
0,170833	0,1	0,026035
0,172500	0,1	0,054842
0,174167	0,1	0,020959
0,175833	0,1	0,022210
0,177500	0,1	0,013483
0,179167	0,1	0,003793
0,180833	0,1	0,038002
0,182500	0,1	0,012652
0,184167	0,1	0,047435
0,185833	0,1	0,027266
0,187500	0,1	0,010169
0,189167	0,1	-0,010622
0,190833	0,1	0,021810
0,192500	0,1	0,041904
0,194167	0,1	0,014584
0,195833	0,1	0,023363
0,197500	0,1	-0,012422
0,199167	0,1	0,031017
0,200833	0,1	0,020629
0,202500	0,1	0,028829
0,204167	0,1	0,010267
0,205833	0,1	0,024683
0,207500	0,1	0,037463
0,209167	0,1	0,032385
0,210833	0,1	0,022497
0,212500	0,1	0,026328
0,214167	0,1	0,051364
0,215833	0,1	-0,025388
0,217500	0,1	0,028728
0,219167	0,1	0,041006
0,220833	0,1	0,028072
0,222500	0,1	0,010042
0,224167	0,1	-0,004250
0,225833	0,1	0,002635
0,227500	0,1	0,010782
0,229167	0,1	0,016247
0,230833	0,1	0,030797
0,232500	0,1	0,025071
0,234167	0,1	0,038783
0,235833	0,1	0,035987
0,237500	0,1	-0,006657
0,239167	0,1	0,002246
0,240833	0,1	0,008010
0,242500	0,1	0,053679
0,244167	0,1	0,007027
0,245833	0,1	0,013707
0,247500	0,1	0,016602
0,249167	0,1	0,005470
0,250833	0,1	0,032245
0,252500	0,1	0,023465
0,254167	0,1	0,011877
0,255833	0,1	0,022492
0,257500	0,1	0,025393
0,259167	0,1	0,026653
0,260833	0,1	0,051272
0,262500	0,1	0,013490
0,264167	0,1	0,037652
0,265833	0,1	0,016938
0,267500	0,1	0,020562
0,269167	0,1	0,004727
0,270833	0,1	0,071603
0,272500	0,1	0,009633
0,274167	0,1	0,004278
0,275833	0,1	0,060663
0,277500	0,1	0,008535
0,279167	0,1	0,004023
0,280833	0,1	0,012930
0,282500	0,1	0,031184
0,284167	0,1	0,037241
0,285833	0,1	0,035662
0,287500	0,1	0,062441
0,289167	0,1	-0,018624
0,290833	0,1	-0,000650
0,292500	0,1	0,034655
0,294167	0,1	-0,001955
0,295833	0,1	0,042382
0,297500	0,1	0,000907
0,299167	0,1	0,008851
0,300833	0,1	0,017830
0,302500	0,1	0,077595
0,304167	0,1	0,019389
0,305833	0,1	0,023201
0,307500	0,1	-0,002380
0,309167	0,1	0,054387
0,310833	0,1	0,031038
0,312500	0,1	0,023883
0,314167	0,1	0,022211
0,315833	0,1	-0,003054
0,317500	0,1	0,028350
0,319167	0,1	0,024107
0,320833	0,1	0,022531
0,322500	0,1	0,026489
0,324167	0,1	0,040906
0,325833	0,1	-0,000411
0,327500	0,1	0,021493
0,329167	0,1	0,007083
0,330833	0,1	-0,014840
0,332500	0,1	-0,010176
0,334167	0,1	0,048013
0,335833	0,1	-0,000862
0,337500	0,1	-0,005922
0,339167	0,1	0,022360
0,340833	0,1	0,029610
0,342500	0,1	0,035725
0,344167	0,1	0,016322
0,345833	0,1	0,021305
0,347500	0,1	0,012168
0,349167	0,1	-0,025716
0,350833	0,1	0,019752
0,352500	0,1	0,032989
0,354167	0,1	0,037753
0,355833	0,1	0,032221
0,357500	0,1	0,068621
0,359167	0,1	0,057946
0,360833	0,1	0,008831
0,362500	0,1	-0,012583
0,364167	0,1	0,015986
0,365833	0,1	-0,017764
0,367500	0,1	0,008649
0,369167	0,1	0,029027
0,370833	0,1	0,016575
0,372500	0,1	-0,021109
0,374167	0,1	0,005530
0,375833	0,1	0,022559
0,377500	0,1	-0,009714
0,379167	0,1	0,013348
0,380833	0,1	-0,029731
0,382500	0,1	0,017688
0,384167	0,1	0,035274
0,385833	0,1	0,047764
0,387500	0,1	0,012527
0,389167	0,1	0,063047
0,390833	0,1	0,005578
0,392500	0,1	-0,013325
0,394167	0,1	0,028475
0,395833	0,1	0,017771
0,397500	0,1	0,039617
0,399167	0,1	0,046929
0,400833	0,1	0,036086
0,402500	0,1	0,009661
0,404167	0,1	0,007596
0,405833	0,1	0,029287
0,407500	0,1	0,013166
0,409167	0,1	0,041870
0,410833	0,1	0,028647
0,412500	0,1	0,005861
0,414167	0,1	0,002058
0,415833	0,1	0,031345
0,417500	0,1	-0,009876
0,419167	0,1	0,004981
0,420833	0,1	0,013515
0,422500	0,1	0,025491
0,424167	0,1	0,022112
0,425833	0,1	0,008398
0,427500	0,1	0,008464
0,429167	0,1	0,015480
0,430833	0,1	-0,028806
0,432500	0,1	0,020390
0,434167	0,1	0,012004
0,435833	0,1	-0,014641
0,437500	0,1	0,035103
0,439167	0,1	-0,012004
0,440833	0,1	-0,012779
0,442500	0,1	0,006273
0,444167	0,1	-0,025617
0,445833	0,1	0,058564
0,447500	0,1	0,022023
0,449167	0,1	0,009657
0,450833	0,1	0,014931
0,452500	0,1	-0,021981
0,454167	0,1	0,028729
0,455833	0,1	-0,011616
0,457500	0,1	0,013539
0,459167	0,1	0,001513
0,460833	0,1	0,019271
0,462500	0,1	-0,004248
0,464167	0,1	0,039902
0,465833	0,1	0,006732
0,467500	0,1	0,002474
0,469167	0,1	-0,000779
0,470833	0,1	0,018435
0,472500	0,1	0,022945
0,474167	0,1	0,028323
0,475833	0,1	-0,009558
0,477500	0,1	0,017182
0,479167	0,1	0,069969
0,480833	0,1	0,023957
0,482500	0,1	0,019185
0,484167	0,1	-0,001060
0,485833	0,1	0,063207
0,487500	0,1	-0,004492
0,489167	0,1	0,003922
0,490833	0,1	0,014286
0,492500	0,1	0,038073
0,494167	0,1	0,013035
0,495833	0,1	0,009847
0,497500	0,1	0,013644
0,499167	0,1	-0,040454
0,500833	0,1	-0,009411
0,502500	0,1	0,022522
0,504167	0,1	0,014451
0,505833	0,1	0,020470
0,507500	0,1	-0,006986
0,509167	0,1	0,036004
0,510833	0,1	0,027003
0,512500	0,1	0,039751
0,514167	0,1	0,029035
0,515833	0,1	0,058417
0,517500	0,1	0,002007
0,519167	0,1	0,036075
0,520833	0,1	-0,015801
0,522500	0,1	0,032691
0,524167	0,1	-0,005568
0,525833	0,1	0,061403
0,527500	0,1	0,028912
0,529167	0,1	0,054168
0,530833	0,1	0,009890
0,532500	0,1	0,070124
0,534167	0,1	0,042204
0,535833	0,1	0,042552
0,537500	0,1	0,004125
0,539167	0,1	0,004474
0,540833	0,1	0,034916
0,542500	0,1	0,021182
0,544167	0,1	0,052786
0,545833	0,1	0,032157
0,547500	0,1	0,049467
0,549167	0,1	0,013590
0,550833	0,1	0,027741
0,552500	0,1	0,005697
0,554167	0,1	0,025198
0,555833	0,1	0,048889
0,557500	0,1	0,032511
0,559167	0,1	0,044801
0,560833	0,1	0,030707
0,562500	0,1	0,053265
0,564167	0,1	0,026555
0,565833	0,1	0,007819
0,567500	0,1	0,065233
0,569167	0,1	0,055140
0,570833	0,1	0,035700
0,572500	0,1	0,011139
0,574167	0,1	0,007724
0,575833	0,1	0,026353
0,577500	0,1	0,004185
0,579167	0,1	-0,007533
0,580833	0,1	-0,012332
0,582500	0,1	0,014410
0,584167	0,1	0,038328
0,585833	0,1	0,068264
0,587500	0,1	0,068306
0,589167	0,1	-0,008198
0,590833	0,1	0,028895
0,592500	0,1	0,050081
0,594167	0,1	0,007181
0,595833	0,1	0,057669
0,597500	0,1	0,035348
0,599167	0,1	0,036850
0,600833	0,1	0,031961
0,602500	0,1	-0,013516
0,604167	0,1	0,039832
0,605833	0,1	0,011041
0,607500	0,1	0,017795
0,609167	0,1	0,029481
0,610833	0,1	0,018542
0,612500	0,1	0,045798
0,614167	0,1	-0,018853
0,615833	0,1	0,036001
0,617500	0,1	-0,003050
0,619167	0,1	0,053356
0,620833	0,1	0,052082
0,622500	0,1	0,012203
0,624167	0,1	-0,021110
0,625833	0,1	0,014668
0,627500	0,1	0,015545
0,629167	0,1	0,007656
0,630833	0,1	0,000926
0,632500	0,1	0,033983
0,634167	0,1	0,047120
0,635833	0,1	-0,000571
0,637500	0,1	0,027546
0,639167	0,1	0,049402
0,640833	0,1	0,044489
0,642500	0,1	0,032607
0,644167	0,1	0,043418
0,645833	0,1	0,000680
0,647500	0,1	0,026451
0,649167	0,1	0,007176
0,650833	0,1	-0,006570
0,652500	0,1	0,017663
0,654167	0,1	0,029609
0,655833	0,1	0,035533
0,657500	0,1	-0,008779
0,659167	0,1	0,015992
0,660833	0,1	0,027839
0,662500	0,1	0,003472
0,664167	0,1	0,053293
0,665833	0,1	0,005831
0,667500	0,1	0,070738
0,669167	0,1	0,032712
0,670833	0,1	0,062700
0,672500	0,1	0,016167
0,674167	0,1	0,030541
0,675833	0,1	0,027941
0,677500	0,1	0,039363
0,679167	0,1	0,058580
0,680833	0,1	0,072067
0,682500	0,1	0,070594
0,684167	0,1	-0,004329
0,685833	0,1	0,024391
0,687500	0,1	0,027100
0,689167	0,1	0,041197
0,690833	0,1	0,018509
0,692500	0,1	0,023364
0,694167	0,1	0,015026
0,695833	0,1	0,011650
0,697500	0,1	0,050589
0,699167	0,1	0,013751
0,700833	0,1	0,042673
0,702500	0,1	0,012392
0,704167	0,1	-0,024074
0,705833	0,1	0,037579
0,707500	0,1	0,044771
0,709167	0,1	0,020697
0,710833	0,1	-0,009269
0,712500	0,1	0,081034
0,714167	0,1	0,043558
0,715833	0,1	0,015744
0,717500	0,1	0,026998
0,719167	0,1	0,059672
0,720833	0,1	0,033353
0,722500	0,1	0,027422
0,724167	0,1	0,000548
0,725833	0,1	0,009036
0,727500	0,1	0,047694
0,729167	0,1	0,056007
0,730833	0,1	0,060352
0,732500	0,1	0,022567
0,734167	0,1	0,031413
0,735833	0,1	0,061313
0,737500	0,1	0,048382
0,739167	0,1	0,013908
0,740833	0,1	0,045184
0,742500	0,1	0,012620
0,744167	0,1	0,085804
0,745833	0,1	0,039505
0,747500	0,1	0,007087
0,749167	0,1	0,029543
0,750833	0,1	0,039523
0,752500	0,1	0,034827
0,754167	0,1	0,003443
0,755833	0,1	0,034047
0,757500	0,1	0,011783
0,759167	0,1	0,051070
0,760833	0,1	0,033507
0,762500	0,1	0,009144
0,764167	0,1	0,060696
0,765833	0,1	0,062796
0,767500	0,1	0,059710
0,769167	0,1	0,057233
0,770833	0,1	0,039110
0,772500	0,1	0,074993
0,774167	0,1	0,045423
0,775833	0,1	0,029935
0,777500	0,1	0,050533
0,779167	0,1	0,063860
0,780833	0,1	0,031295
0,782500	0,1	0,029288
0,784167	0,1	0,033793
0,785833	0,1	0,075894
0,787500	0,1	0,070268
0,789167	0,1	0,077156
0,790833	0,1	0,076837
0,792500	0,1	0,017231
0,794167	0,1	0,054776
0,795833	0,1	0,054462
0,797500	0,1	0,042555
0,799167	0,1	0,040198
0,800833	0,1	0,041941
0,802500	0,1	0,045799
0,804167	0,1	0,039654
0,805833	0,1	0,048409
0,807500	0,1	0,079375
0,809167	0,1	0,062519
0,810833	0,1	0,035117
0,812500	0,1	0,068523
0,814167	0,1	0,037310
0,815833	0,1	0,046186
0,817500	0,1	0,018413
0,819167	0,1	0,088153
0,820833	0,1	0,090841
0,822500	0,1	0,079383
0,824167	0,1	0,110569
0,825833	0,1	0,088883
0,827500	0,1	0,066473
0,829167	0,1	0,078477
0,830833	0,1	0,057075
0,832500	0,1	0,042461
0,834167	0,1	0,094179
0,835833	0,1	0,074202
0,837500	0,1	0,028496
0,839167	0,1	0,048406
0,840833	0,1	0,057227
0,842500	0,1	0,067401
0,844167	0,1	0,064895
0,845833	0,1	0,087810
0,847500	0,1	0,056916
0,849167	0,1	0,052307
0,850833	0,1	0,048121
0,852500	0,1	0,038819
0,854167	0,1	0,038398
0,855833	0,1	0,092728
0,857500	0,1	0,084824
0,859167	0,1	0,074683
0,860833	0,1	0,069147
0,862500	0,1	0,059551
0,864167	0,1	0,066629
0,865833	0,1	0,107447
0,867500	0,1	0,048297
0,869167	0,1	0,061028
0,870833	0,1	0,051793
0,872500	0,1	0,058484
0,874167	0,1	0,069172
0,875833	0,1	0,121931
0,877500	0,1	0,067611
0,879167	0,1	0,063765
0,880833	0,1	0,096952
0,882500	0,1	0,074430
0,884167	0,1	0,083145
0,885833	0,1	0,080057
0,887500	0,1	0,091709
0,889167	0,1	0,085628
0,890833	0,1	0,065479
0,892500	0,1	0,064024
0,894167	0,1	0,099364
0,895833	0,1	0,048196
0,897500	0,1	0,076734
0,899167	0,1	0,075421
0,900833	0,1	0,053375
0,902500	0,1	0,064469
0,904167	0,1	0,081439
0,905833	0,1	0,077450
0,907500	0,1	0,080026
0,909167	0,1	0,081667
0,910833	0,1	0,098853
0,912500	0,1	0,083795
0,914167	0,1	0,094059
0,915833	0,1	0,086465
0,917500	0,1	0,084016
0,919167	0,1	0,076967
0,920833	0,1	0,076191
0,922500	0,1	0,050961
0,924167	0,1	0,068302
0,925833	0,1	0,063186
0,927500	0,1	0,082082
0,929167	0,1	0,079154
0,930833	0,1	0,093574
0,932500	0,1	0,077968
0,934167	0,1	0,049513
0,935833	0,1	0,095082
0,937500	0,1	0,072495
0,939167	0,1	0,063766
0,940833	0,1	0,083562
0,942500	0,1	0,090293
0,944167	0,1	0,114597
0,945833	0,1	0,094646
0,947500	0,1	0,095478
0,949167	0,1	0,090552
0,950833	0,1	0,108061
0,952500	0,1	0,051288
0,954167	0,1	0,094244
0,955833	0,1	0,101981
0,957500	0,1	0,104750
0,959167	0,1	0,100243
0,960833	0,1	0,104299
0,962500	0,1	0,079579
0,964167	0,1	0,118264
0,965833	0,1	0,083960
0,967500	0,1	0,115432
0,969167	0,1	0,135621
0,970833	0,1	0,112321
0,972500	0,1	0,103016
0,974167	0,1	0,097507
0,975833	0,1	0,102625
0,977500	0,1	0,095511
0,979167	0,1	0,134491
0,980833	0,1	0,123363
0,982500	0,1	0,107137
0,984167	0,1	0,077135
0,985833	0,1	0,154059
0,987500	0,1	0,123785
0,989167	0,1	0,101473
0,990833	0,1	0,052510
0,992500	0,1	0,090125
0,994167	0,1	0,109124
0,995833	0,1	0,100503
0,997500	0,1	0,125286
0,999167	0,1	0,075302
1,000833	0,1	0,123671
1,002500	0,1	0,154294
1,004167	0,1	0,103828
1,005833	0,1	0,122133
1,007500	0,1	0,101502
1,009167	0,1	0,135523
1,010833	0,1	0,115702
1,012500	0,1	0,100697
1,014167	0,1	0,127218
1,015833	0,1	0,112159
1,017500	0,1	0,105203
1,019167	0,1	0,142379
1,020833	0,1	0,154169
1,022500	0,1	0,115642
1,024167	0,1	0,117659
1,025833	0,1	0,106716
1,027500	0,1	0,124996
1,029167	0,1	0,124936
1,030833	0,1	0,151753
1,032500	0,1	0,165697
1,034167	0,1	0,088349
1,035833	0,1	0,139576
1,037500	0,1	0,133953
1,039167	0,1	0,117729
1,040833	0,1	0,128669
1,042500	0,1	0,176508
1,044167	0,1	0,107214
1,045833	0,1	0,132529
1,047500	0,1	0,135015
1,049167	0,1	0,151176
1,050833	0,1	0,119375
1,052500	0,1	0,130119
1,054167	0,1	0,128062
1,055833	0,1	0,140422
1,057500	0,1	0,148859
1,059167	0,1	0,100769
1,060833	0,1	0,135747
1,062500	0,1	0,146733
1,064167	0,1	0,140651
1,065833	0,1	0,164569
1,067500	0,1	0,142041
1,069167	0,1	0,153560
1,070833	0,1	0,116415
1,072500	0,1	0,165946
1,074167	0,1	0,133671
1,075833	0,1	0,167818
1,077500	0,1	0,154596
1,079167	0,1	0,150988
1,080833	0,1	0,143420
1,082500	0,1	0,170299
1,084167	0,1	0,133703
1,085833	0,1	0,159738
1,087500	0,1	0,145259
1,089167	0,1	0,177220
1,090833	0,1	0,184022
1,092500	0,1	0,144780
1,094167	0,1	0,167047
1,095833	0,1	0,151987
1,097500	0,1	0,151919
1,099167	0,1	0,154688
1,100833	0,1	0,156074
1,102500	0,1	0,165989
1,104167	0,1	0,137277
1,105833	0,1	0,194185
1,107500	0,1	0,184508
1,109167	0,1	0,173787
1,110833	0,1	0,175166
1,112500	0,1	0,170210
1,114167	0,1	0,177969
1,115833	0,1	0,204112
1,117500	0,1	0,151579
1,119167	0,1	0,187494
1,120833	0,1	0,161425
1,122500	0,1	0,178740
1,124167	0,1	0,178486
1,125833	0,1	0,179804
1,127500	0,1	0,212898
1,129167	0,1	0,172923
1,130833	0,1	0,184344
1,132500	0,1	0,180098
1,134167	0,1	0,214606
1,135833	0,1	0,225310
1,137500	0,1	0,177819
1,139167	0,1	0,211613
1,140833	0,1	0,198325
1,142500	0,1	0,184639
1,144167	0,1	0,186602
1,145833	0,1	0,198255
1,147500	0,1	0,208269
1,149167	0,1	0,164489
1,150833	0,1	0,179929
1,152500	0,1	0,244325
1,154167	0,1	0,228018
1,155833	0,1	0,226241
1,157500	0,1	0,220964
1,159167	0,1	0,223246
1,160833	0,1	0,221509
1,162500	0,1	0,223570
1,164167	0,1	0,241536
1,165833	0,1	0,197077
1,167500	0,1	0,240401
1,169167	0,1	0,190931
1,170833	0,1	0,205083
1,172500	0,1	0,274051
1,174167	0,1	0,219363
1,175833	0,1	0,209432
1,177500	0,1	0,222697
1,179167	0,1	0,252614
1,180833	0,1	0,203969
1,182500	0,1	0,225207
1,184167	0,1	0,240667
1,185833	0,1	0,233299
1,187500	0,1	0,226052
1,189167	0,1	0,317785
1,190833	0,1	0,246615
1,192500	0,1	0,246787
1,194167	0,1	0,246305
1,195833	0,1	0,217651
1,197500	0,1	0,298143
1,199167	0,1	0,231349
1,200833	0,1	0,260663
1,202500	0,1	0,275807
1,204167	0,1	0,295355
1,205833	0,1	0,293783
1,207500	0,1	0,269310
1,209167	0,1	0,276351
1,210833	0,1	0,249217
1,212500	0,1	0,304135
1,214167	0,1	0,235469
1,215833	0,1	0,250459
1,217500	0,1	0,301138
1,219167	0,1	0,301027
1,220833	0,1	0,289081
1,222500	0,1	0,320086
1,224167	0,1	0,295461
1,225833	0,1	0,258682
1,227500	0,1	0,304586
1,229167	0,1	0,293300
1,230833	0,1	0,264737
1,232500	0,1	0,298826
1,234167	0,1	0,287149
1,235833	0,1	0,302305
1,237500	0,1	0,316327
1,239167	0,1	0,302580
1,240833	0,1	0,319836
1,242500	0,1	0,322838
1,244167	0,1	0,312756
1,245833	0,1	0,288598
1,247500	0,1	0,316063
1,249167	0,1	0,322772
1,250833	0,1	0,316463
1,252500	0,1	0,311496
1,254167	0,1	0,314144
1,255833	0,1	0,351952
1,257500	0,1	0,331124
1,259167	0,1	0,311535
1,260833	0,1	0,326953
1,262500	0,1	0,357108
1,264167	0,1	0,347089
1,265833	0,1	0,341102
1,267500	0,1	0,291637
1,269167	0,1	0,356381
1,270833	0,1	0,395308
1,272500	0,1	0,376570
1,274167	0,1	0,379918
1,275833	0,1	0,388740
1,277500	0,1	0,352801
1,279167	0,1	0,365067
1,280833	0,1	0,362624
1,282500	0,1	0,339678
1,284167	0,1	0,397000
1,285833	0,1	0,394291
1,287500	0,1	0,341505
1,289167	0,1	0,320815
1,290833	0,1	0,351402
1,292500	0,1	0,347452
1,294167	0,1	0,378950
1,295833	0,1	0,428468
1,297500	0,1	0,390696
1,299167	0,1	0,398799
1,300833	0,1	0,377252
1,302500	0,1	0,420409
1,304167	0,1	0,378797
1,305833	0,1	0,392038
1,307500	0,1	0,424121
1,309167	0,1	0,424260
1,310833	0,1	0,403197
1,312500	0,1	0,377423
1,314167	0,1	0,446231
1,315833	0,1	0,438308
1,317500	0,1	0,467285
1,319167	0,1	0,401169
1,320833	0,1	0,452049
1,322500	0,1	0,455376
1,324167	0,1	0,463752
1,325833	0,1	0,462820
1,327500	0,1	0,460020
1,329167	0,1	0,432907
1,330833	0,1	0,436278
1,332500	0,1	0,458791
1,334167	0,1	0,464290
1,335833	0,1	0,470881
1,337500	0,1	0,479351
1,339167	0,1	0,438947
1,340833	0,1	0,480054
1,342500	0,1	0,450176
1,344167	0,1	0,471365
1,345833	0,1	0,464466
1,347500	0,1	0,477522
1,349167	0,1	0,510083
1,350833	0,1	0,484620
1,352500	0,1	0,483865
1,354167	0,1	0,481129
1,355833	0,1	0,516287
1,357500	0,1	0,478296
1,359167	0,1	0,511438
1,360833	0,1	0,524020
1,362500	0,1	0,512606
1,364167	0,1	0,514510
1,365833	0,1	0,540154
1,367500	0,1	0,547407
1,369167	0,1	0,509208
1,370833	0,1	0,518930
1,372500	0,1	0,552690
1,374167	0,1	0,574764
1,375833	0,1	0,535212
1,377500	0,1	0,547380
1,379167	0,1	0,555363
1,380833	0,1	0,544007
1,382500	0,1	0,552917
1,384167	0,1	0,603699
1,385833	0,1	0,543326
1,387500	0,1	0,556404
1,389167	0,1	0,595678
1,390833	0,1	0,601065
1,392500	0,1	0,616891
1,394167	0,1	0,627628
1,395833	0,1	0,586872
1,397500	0,1	0,561817
1,399167	0,1	0,590211
1,400833	0,1	0,603998
1,402500	0,1	0,635692
1,404167	0,1	0,649837
1,405833	0,1	0,635282
1,407500	0,1	0,603606
1,409167	0,1	0,625246
1,410833	0,1	0,656123
1,412500	0,1	0,652954
1,414167	0,1	0,652707
1,415833	0,1	0,643795
1,417500	0,1	0,629991
1,419167	0,1	0,647324
1,420833	0,1	0,653995
1,422500	0,1	0,706897
1,424167	0,1	0,690975
1,425833	0,1	0,718199
1,427500	0,1	0,661058
1,429167	0,1	0,720218
1,430833	0,1	0,697869
1,432500	0,1	0,699310
1,434167	0,1	0,693040
1,435833	0,1	0,708488
1,437500	0,1	0,743346
1,439167	0,1	0,691696
1,440833	0,1	0,734543
1,442500	0,1	0,726415
1,444167	0,1	0,756647
1,445833	0,1	0,752786
1,447500	0,1	0,740360
1,449167	0,1	0,769150
1,450833	0,1	0,755214
1,452500	0,1	0,771886
1,454167	0,1	0,764703
1,455833	0,1	0,773333
1,457500	0,1	0,807576
1,459167	0,1	0,772100
1,460833	0,1	0,769647
1,462500	0,1	0,804996
1,464167	0,1	0,806957
1,465833	0,1	0,779213
1,467500	0,1	0,809463
1,469167	0,1	0,814581
1,470833	0,1	0,890859
1,472500	0,1	0,790953
1,474167	0,1	0,855097
1,475833	0,1	0,830675
1,477500	0,1	0,862487
1,479167	0,1	0,867384
1,480833	0,1	0,869199
1,482500	0,1	0,870064
1,484167	0,1	0,854961
1,485833	0,1	0,857672
1,487500	0,1	0,892804
1,489167	0,1	0,891236
1,490833	0,1	0,889656
1,492500	0,1	0,917117
1,494167	0,1	0,894889
1,495833	0,1	0,900333
1,497500	0,1	0,909006
1,499167	0,1	0,910331
1,500833	0,1	0,906209
1,502500	0,1	0,916883
1,504167	0,1	0,990655
1,505833	0,1	0,950239
1,507500	0,1	0,958174
1,509167	0,1	0,999036
1,510833	0,1	0,991169
1,512500	0,1	0,990164
1,514167	0,1	0,991743
1,515833	0,1	1,002830
1,517500	0,1	1,002491
1,519167	0,1	0,973617
1,520833	0,1	1,027067
1,522500	0,1	1,009238
1,524167	0,1	1,036192
1,525833	0,1	1,064380
1,527500	0,1	1,033898
1,529167	0,1	1,027590
1,530833	0,1	1,048728
1,532500	0,1	1,061895
1,534167	0,1	1,100215
1,535833	0,1	1,043819
1,537500	0,1	1,073112
1,539167	0,1	1,097198
1,540833	0,1	1,133763
1,542500	0,1	1,076263
1,544167	0,1	1,086791
1,545833	0,1	1,119690
1,547500	0,1	1,110965
1,549167	0,1	1,132120
1,550833	0,1	1,170486
1,552500	0,1	1,129553
1,554167	0,1	1,193456
1,555833	0,1	1,173565
1,557500	0,1	1,188290
1,559167	0,1	1,194299
1,560833	0,1	1,190590
1,562500	0,1	1,195245
1,564167	0,1	1,222133
1,565833	0,1	1,239717
1,567500	0,1	1,240964
1,569167	0,1	1,217200
1,570833	0,1	1,256806
1,572500	0,1	1,269209
1,574167	0,1	1,269568
1,575833	0,1	1,237641
1,577500	0,1	1,288578
1,579167	0,1	1,271916
1,580833	0,1	1,279887
1,582500	0,1	1,273443
1,584167	0,1	1,296819
1,585833	0,1	1,321278
1,587500	0,1	1,339518
1,589167	0,1	1,358444
1,590833	0,1	1,393689
1,592500	0,1	1,371240
1,594167	0,1	1,368642
1,595833	0,1	1,390463
1,597500	0,1	1,415206
1,599167	0,1	1,402367
1,600833	0,1	1,431141
1,602500	0,1	1,417728
1,604167	0,1	1,404811
1,605833	0,1	1,447510
1,607500	0,1	1,415719
1,609167	0,1	1,419235
1,610833	0,1	1,451158
1,612500	0,1	1,460928
1,614167	0,1	1,473559
1,615833	0,1	1,505776
1,617500	0,1	1,512884
1,619167	0,1	1,533342
1,620833	0,1	1,454266
1,622500	0,1	1,523651
1,624167	0,1	1,571968
1,625833	0,1	1,571550
1,627500	0,1	1,569461
1,629167	0,1	1,553601
1,630833	0,1	1,615825
1,632500	0,1	1,614624
1,634167	0,1	1,573839
1,635833	0,1	1,618698
1,637500	0,1	1,591577
1,639167	0,1	1,599036
1,640833	0,1	1,643975
1,642500	0,1	1,697900
1,644167	0,1	1,649737
1,645833	0,1	1,673275
1,647500	0,1	1,688643
1,649167	0,1	1,695033
1,650833	0,1	1,692023
1,652500	0,1	1,713201
1,654167	0,1	1,736611
1,655833	0,1	1,709620
1,657500	0,1	1,760090
1,659167	0,1	1,770514
1,660833	0,1	1,784374
1,662500	0,1	1,822076
1,664167	0,1	1,759038
1,665833	0,1	1,828894
1,667500	0,1	1,767369
1,669167	0,1	1,839020
1,670833	0,1	1,853257
1,672500	0,1	1,863387
1,674167	0,1	1,856569
1,675833	0,1	1,888813
1,677500	0,1	1,864546
1,679167	0,1	1,911942
1,680833	0,1	1,929556
1,682500	0,1	1,933507
1,684167	0,1	1,907437
1,685833	0,1	1,926247
1,687500	0,1	1,955849
1,689167	0,1	1,992564
1,690833	0,1	1,979637
1,692500	0,1	1,986039
1,694167	0,1	1,962613
1,695833	0,1	2,027191
1,697500	0,1	2,025270
1,699167	0,1	2,018302
1,700833	0,1	2,067290
1,702500	0,1	2,038849
1,704167	0,1	2,080965
1,705833	0,1	2,060844
1,707500	0,1	2,133491
1,709167	0,1	2,150165
1,710833	0,1	2,155422
1,712500	0,1	2,159392
1,714167	0,1	2,133015
1,715833	0,1	2,152771
1,717500	0,1	2,189058
1,719167	0,1	2,196050
1,720833	0,1	2,197213
1,722500	0,1	2,213723
1,724167	0,1	2,211728
1,725833	0,1	2,260748
1,727500	0,1	2,282757
1,729167	0,1	2,209010
1,730833	0,1	2,268363
1,732500	0,1	2,289517
1,734167	0,1	2,308423
1,735833	0,1	2,288443
1,737500	0,1	2,344583
1,739167	0,1	2,359916
1,740833	0,1	2,367686
1,742500	0,1	2,334207
1,744167	0,1	2,390042
1,745833	0,1	2,410130
1,747500	0,1	2,424574
1,749167	0,1	2,425011
1,750833	0,1	2,447105
1,752500	0,1	2,460615
1,754167	0,1	2,472407
1,755833	0,1	2,423393
1,757500	0,1	2,491630
1,759167	0,1	2,522392
1,760833	0,1	2,537229
1,762500	0,1	2,513580
1,764167	0,1	2,531898
1,765833	0,1	2,587955
1,767500	0,1	2,574749
1,769167	0,1	2,625955
1,770833	0,1	2,648087
1,772500	0,1	2,600721
1,774167	0,1	2,680913
1,775833	0,1	2,667981
1,777500	0,1	2,671878
1,779167	0,1	2,702721
1,780833	0,1	2,673560
1,782500	0,1	2,694716
1,784167	0,1	2,765910
1,785833	0,1	2,728037
1,787500	0,1	2,756391
1,789167	0,1	2,738530
1,790833	0,1	2,774817
1,792500	0,1	2,825179
1,794167	0,1	2,844607
1,795833	0,1	2,849206
1,797500	0,1	2,851110
1,799167	0,1	2,873048
1,800833	0,1	2,861008
1,802500	0,1	2,899650
1,804167	0,1	2,904743
1,805833	0,1	2,938801
1,807500	0,1	2,953450
1,809167	0,1	2,980537
1,810833	0,1	2,960795
1,812500	0,1	3,022849
1,814167	0,1	2,989497
1,815833	0,1	3,034809
1,817500	0,1	3,047366
1,819167	0,1	3,052577
1,820833	0,1	3,052240
1,822500	0,1	3,078534
1,824167	0,1	3,064722
1,825833	0,1	3,106149
1,827500	0,1	3,124752
1,829167	0,1	3,168891
1,830833	0,1	3,163067
1,832500	0,1	3,183656
1,834167	0,1	3,194141
1,835833	0,1	3,256984
1,837500	0,1	3,252438
1,839167	0,1	3,233944
1,840833	0,1	3,268487
1,842500	0,1	3,273683
1,844167	0,1	3,304291
1,845833	0,1	3,283881
1,847500	0,1	3,358930
1,849167	0,1	3,350468
1,850833	0,1	3,339154
1,852500	0,1	3,450897
1,854167	0,1	3,387255
1,855833	0,1	3,424422
1,857500	0,1	3,421313
1,859167	0,1	3,463102
1,860833	0,1	3,498194
1,862500	0,1	3,500242
1,864167	0,1	3,515120
1,865833	0,1	3,539586
1,867500	0,1	3,541208
1,869167	0,1	3,558115
1,870833	0,1	3,581445
1,872500	0,1	3,553456
1,874167	0,1	3,605944
1,875833	0,1	3,632655
1,877500	0,1	3,689894
1,879167	0,1	3,683818
1,880833	0,1	3,577207
1,882500	0,1	3,670451
1,884167	0,1	3,753227
1,885833	0,1	3,764247
1,887500	0,1	3,743512
1,889167	0,1	3,768467
1,890833	0,1	3,772244
1,892500	0,1	3,789326
1,894167	0,1	3,818144
1,895833	0,1	3,849480
1,897500	0,1	3,870835
1,899167	0,1	3,898439
1,900833	0,1	3,871334
1,902500	0,1	3,916623
1,904167	0,1	3,976426
1,905833	0,1	3,950503
1,907500	0,1	3,959305
1,909167	0,1	3,972583
1,910833	0,1	4,025725
1,912500	0,1	4,052904
1,914167	0,1	4,019898
1,915833	0,1	4,088992
1,917500	0,1	4,086374
1,919167	0,1	4,109963
1,920833	0,1	4,139043
1,922500	0,1	4,162727
1,924167	0,1	4,122170
1,925833	0,1	4,216054
1,927500	0,1	4,193699
1,929167	0,1	4,239186
1,930833	0,1	4,234730
1,932500	0,1	4,267094
1,934167	0,1	4,299899
1,935833	0,1	4,307859
1,937500	0,1	4,293124
1,939167	0,1	4,332407
1,940833	0,1	4,364470
1,942500	0,1	4,343642
1,944167	0,1	4,393030
1,945833	0,1	4,413980
1,947500	0,1	4,438411
1,949167	0,1	4,427311
1,950833	0,1	4,488967
1,952500	0,1	4,495548
1,954167	0,1	4,500488
1,955833	0,1	4,524720
1,957500	0,1	4,546534
1,959167	0,1	4,566304
1,960833	0,1	4,555220
1,962500	0,1	4,592942
1,964167	0,1	4,612774
1,965833	0,1	4,655717
1,967500	0,1	4,652956
1,969167	0,1	4,658016
1,970833	0,1	4,703277
1,972500	0,1	4,756640
1,974167	0,1	4,766387
1,975833	0,1	4,797425
1,977500	0,1	4,772649
1,979167	0,1	4,817376
1,980833	0,1	4,861361
1,982500	0,1	4,856441
1,984167	0,1	4,859983
1,985833	0,1	4,877274
1,987500	0,1	4,912478
1,989167	0,1	4,956248
1,990833	0,1	4,950595
1,992500	0,1	5,008928
1,994167	0,1	5,013586
1,995833	0,1	4,992596
1,997500	0,1	5,025866
1,999167	0,1	5,013542
2,000833	0,1	5,024805
2,002500	0,1	5,101691
2,004167	0,1	5,091982
2,005833	0,1	5,108087
2,007500	0,1	5,177257
2,009167	0,1	5,174842
2,010833	0,1	5,222390
2,012500	0,1	5,197649
2,014167	0,1	5,229539
2,015833	0,1	5,251131
2,017500	0,1	5,251635
2,019167	0,1	5,308488
2,020833	0,1	5,315035
2,022500	0,1	5,342860
2,024167	0,1	5,388303
2,025833	0,1	5,361841
2,027500	0,1	5,415569
2,029167	0,1	5,408873
2,030833	0,1	5,420283
2,032500	0,1	5,423563
2,034167	0,1	5,541674
2,035833	0,1	5,493135
2,037500	0,1	5,510918
2,039167	0,1	5,523870
2,040833	0,1	5,560393
2,042500	0,1	5,624115
2,044167	0,1	5,599905
2,045833	0,1	5,670507
2,047500	0,1	5,628425
2,049167	0,1	5,649887
2,050833	0,1	5,668611
2,052500	0,1	5,717873
2,054167	0,1	5,743292
2,055833	0,1	5,731443
2,057500	0,1	5,797404
2,059167	0,1	5,803326
2,060833	0,1	5,814302
2,062500	0,1	5,859642
2,064167	0,1	5,869775
2,065833	0,1	5,845911
2,067500	0,1	5,847760
2,069167	0,1	5,910951
2,070833	0,1	5,909752
2,072500	0,1	5,952173
2,074167	0,1	5,981075
2,075833	0,1	5,999832
2,077500	0,1	6,006634
2,079167	0,1	6,071254
2,080833	0,1	6,078069
2,082500	0,1	6,093089
2,084167	0,1	6,166852
2,085833	0,1	6,123767
2,087500	0,1	6,114254
2,089167	0,1	6,179256
2,090833	0,1	6,161358
2,092500	0,1	6,249033
2,094167	0,1	6,224981
2,095833	0,1	6,254929
2,097500	0,1	6,282727
2,099167	0,1	6,314921
2,100833	0,1	6,296727
2,102500	0,1	6,334970
2,104167	0,1	6,345345
2,105833	0,1	6,361014
2,107500	0,1	6,355516
2,109167	0,1	6,397880
2,110833	0,1	6,466009
2,112500	0,1	6,442231
2,114167	0,1	6,507180
2,115833	0,1	6,474242
2,117500	0,1	6,507184
2,119167	0,1	6,514004
2,120833	0,1	6,566648
2,122500	0,1	6,600827
2,124167	0,1	6,585993
2,125833	0,1	6,619409
2,127500	0,1	6,630526
2,129167	0,1	6,629595
2,130833	0,1	6,716425
2,132500	0,1	6,741194
2,134167	0,1	6,689565
2,135833	0,1	6,737637
2,137500	0,1	6,781159
2,139167	0,1	6,775197
2,140833	0,1	6,820686
2,142500	0,1	6,815933
2,144167	0,1	6,841058
2,145833	0,1	6,885617
2,147500	0,1	6,909994
2,149167	0,1	6,904502
2,150833	0,1	6,942145
2,152500	0,1	6,939548
2,154167	0,1	6,946731
2,155833	0,1	6,976627
2,157500	0,1	6,985813
2,159167	0,1	7,027379
2,160833	0,1	7,050387
2,162500	0,1	7,051597
2,164167	0,1	7,127574
2,165833	0,1	7,114146
2,167500	0,1	7,111063
2,169167	0,1	7,146393
2,170833	0,1	7,223992
2,172500	0,1	7,172113
2,174167	0,1	7,240810
2,175833	0,1	7,236256
2,177500	0,1	7,248852
2,179167	0,1	7,252243
2,180833	0,1	7,284132
2,182500	0,1	7,260201
2,184167	0,1	7,334147
2,185833	0,1	7,369984
2,187500	0,1	7,421396
2,189167	0,1	7,346258
2,190833	0,1	7,408795
2,192500	0,1	7,415076
2,194167	0,1	7,422875
2,195833	0,1	7,486907
2,197500	0,1	7,491008
2,199167	0,1	7,540718
2,200833	0,1	7,514036
2,202500	0,1	7,503801
2,204167	0,1	7,546127
2,205833	0,1	7,559027
2,207500	0,1	7,589282
2,209167	0,1	7,574812
2,210833	0,1	7,640571
2,212500	0,1	7,643025
2,214167	0,1	7,659780
2,215833	0,1	7,714828
2,217500	0,1	7,703033
2,219167	0,1	7,732528
2,220833	0,1	7,742230
2,222500	0,1	7,768637
2,224167	0,1	7,785663
2,225833	0,1	7,784148
2,227500	0,1	7,807066
2,229167	0,1	7,830429
2,230833	0,1	7,860976
2,232500	0,1	7,869404
2,234167	0,1	7,870259
2,235833	0,1	7,907537
2,237500	0,1	7,923616
2,239167	0,1	7,906876
2,240833	0,1	7,928084
2,242500	0,1	7,958203
2,244167	0,1	7,992832
2,245833	0,1	8,010027
2,247500	0,1	8,027015
2,249167	0,1	8,043310
2,250833	0,1	8,054779
2,252500	0,1	8,086134
2,254167	0,1	8,053302
2,255833	0,1	8,135235
2,257500	0,1	8,144690
2,259167	0,1	8,143327
2,260833	0,1	8,149283
2,262500	0,1	8,144363
2,264167	0,1	8,182422
2,265833	0,1	8,233946
2,267500	0,1	8,176039
2,269167	0,1	8,213510
2,270833	0,1	8,257619
2,272500	0,1	8,277536
2,274167	0,1	8,241788
2,275833	0,1	8,318381
2,277500	0,1	8,286987
2,279167	0,1	8,406205
2,280833	0,1	8,358948
2,282500	0,1	8,361387
2,284167	0,1	8,401258
2,285833	0,1	8,406267
2,287500	0,1	8,443618
2,289167	0,1	8,420334
2,290833	0,1	8,469343
2,292500	0,1	8,489323
2,294167	0,1	8,480721
2,295833	0,1	8,459727
2,297500	0,1	8,489230
2,299167	0,1	8,550471
2,300833	0,1	8,549857
2,302500	0,1	8,558100
2,304167	0,1	8,549321
2,305833	0,1	8,572014
2,307500	0,1	8,635073
2,309167	0,1	8,627691
2,310833	0,1	8,629454
2,312500	0,1	8,648731
2,314167	0,1	8,686580
2,315833	0,1	8,635171
2,317500	0,1	8,683356
2,319167	0,1	8,741755
2,320833	0,1	8,705163
2,322500	0,1	8,717836
2,324167	0,1	8,734801
2,325833	0,1	8,760181
2,327500	0,1	8,773944
2,329167	0,1	8,734372
2,330833	0,1	8,769238
2,332500	0,1	8,791848
2,334167	0,1	8,813602
2,335833	0,1	8,793657
2,337500	0,1	8,869469
2,339167	0,1	8,787037
2,340833	0,1	8,904455
2,342500	0,1	8,866764
2,344167	0,1	8,840859
2,345833	0,1	8,902151
2,347500	0,1	8,909877
2,349167	0,1	8,919386
2,350833	0,1	8,910883
2,352500	0,1	8,946393
2,354167	0,1	8,970640
2,355833	0,1	8,950453
2,357500	0,1	9,017298
2,359167	0,1	9,039689
2,360833	0,1	9,017282
2,362500	0,1	9,027687
2,364167	0,1	9,064416
2,365833	0,1	9,022927
2,367500	0,1	9,084832
2,369167	0,1	9,088545
2,370833	0,1	9,105804
2,372500	0,1	9,071014
2,374167	0,1	9,088294
2,375833	0,1	9,081352
2,377500	0,1	9,126665
2,379167	0,1	9,095821
2,380833	0,1	9,111446
2,382500	0,1	9,158812
2,384167	0,1	9,154395
2,385833	0,1	9,149725
2,387500	0,1	9,186115
2,389167	0,1	9,170387
2,390833	0,1	9,136611
2,392500	0,1	9,205874
2,394167	0,1	9,212386
2,395833	0,1	9,220592
2,397500	0,1	9,229903
2,399167	0,1	9,231562
2,400833	0,1	9,184898
2,402500	0,1	9,234050
2,404167	0,1	9,259109
2,405833	0,1	9,264021
2,407500	0,1	9,314626
2,409167	0,1	9,278709
2,410833	0,1	9,275413
2,412500	0,1	9,273309
2,414167	0,1	9,306273
2,415833	0,1	9,302353
2,417500	0,1	9,292317
2,419167	0,1	9,308844
2,420833	0,1	9,287927
2,422500	0,1	9,332027
2,424167	0,1	9,344891
2,425833	0,1	9,330150
2,427500	0,1	9,332671
2,429167	0,1	9,361226
2,430833	0,1	9,346805
2,432500	0,1	9,355162
2,434167	0,1	9,337597
2,435833	0,1	9,347328
2,437500	0,1	9,359785
2,439167	0,1	9,373281
2,440833	0,1	9,378440
2,442500	0,1	9,405213
2,444167	0,1	9,406750
2,445833	0,1	9,431572
2,447500	0,1	9,375864
2,449167	0,1	9,426196
2,450833	0,1	9,445539
2,452500	0,1	9,423434
2,454167	0,1	9,421287
2,455833	0,1	9,435373
2,457500	0,1	9,419338
2,459167	0,1	9,486320
2,460833	0,1	9,438657
2,462500	0,1	9,418575
2,464167	0,1	9,437750
2,465833	0,1	9,476074
2,467500	0,1	9,444044
2,469167	0,1	9,509857
2,470833	0,1	9,443353
2,472500	0,1	9,447050
2,474167	0,1	9,476759
2,475833	0,1	9,443513
2,477500	0,1	9,480574
2,479167	0,1	9,529069
2,480833	0,1	9,467164
2,482500	0,1	9,491633
2,484167	0,1	9,497946
2,485833	0,1	9,517045
2,487500	0,1	9,497230
2,489167	0,1	9,464738
2,490833	0,1	9,503986
2,492500	0,1	9,482268
2,494167	0,1	9,512949
2,495833	0,1	9,481993
2,497500	0,1	9,495839
2,499167	0,1	9,534700
2,500833	0,1	9,485287
2,502500	0,1	9,527254
2,504167	0,1	9,512873
2,505833	0,1	9,511466
2,507500	0,1	9,476668
2,509167	0,1	9,517934
2,510833	0,1	9,490484
2,512500	0,1	9,496882
2,514167	0,1	9,483643
2,515833	0,1	9,509402
2,517500	0,1	9,522904
2,519167	0,1	9,504088
2,520833	0,1	9,493832
2,522500	0,1	9,500066
2,524167	0,1	9,500918
2,525833	0,1	9,519613
2,527500	0,1	9,481826
2,529167	0,1	9,502843
2,530833	0,1	9,491094
2,532500	0,1	9,504293
2,534167	0,1	9,515198
2,535833	0,1	9,514399
2,537500	0,1	9,447044
2,539167	0,1	9,448939
2,540833	0,1	9,519068
2,542500	0,1	9,510069
2,544167	0,1	9,490608
2,545833	0,1	9,478186
2,547500	0,1	9,462822
2,549167	0,1	9,474618
2,550833	0,1	9,475193
2,552500	0,1	9,438781
2,554167	0,1	9,474633
2,555833	0,1	9,475658
2,557500	0,1	9,461612
2,559167	0,1	9,415354
2,560833	0,1	9,498392
2,562500	0,1	9,477065
2,564167	0,1	9,455905
2,565833	0,1	9,446649
2,567500	0,1	9,403979
2,569167	0,1	9,419583
2,570833	0,1	9,404397
2,572500	0,1	9,438679
2,574167	0,1	9,391587
2,575833	0,1	9,435302
2,577500	0,1	9,386493
2,579167	0,1	9,425139
2,580833	0,1	9,389038
2,582500	0,1	9,393059
2,584167	0,1	9,392702
2,585833	0,1	9,429807
2,587500	0,1	9,373762
2,589167	0,1	9,381093
2,590833	0,1	9,380032
2,592500	0,1	9,397832
2,594167	0,1	9,359715
2,595833	0,1	9,364520
2,597500	0,1	9,358854
2,599167	0,1	9,317677
2,600833	0,1	9,339098
2,602500	0,1	9,339714
2,604167	0,1	9,324547
2,605833	0,1	9,328724
2,607500	0,1	9,320940
2,609167	0,1	9,319306
2,610833	0,1	9,298028
2,612500	0,1	9,296075
2,614167	0,1	9,278849
2,615833	0,1	9,286436
2,617500	0,1	9,237400
2,619167	0,1	9,239322
2,620833	0,1	9,239007
2,622500	0,1	9,224161
2,624167	0,1	9,202120
2,625833	0,1	9,228096
2,627500	0,1	9,176866
2,629167	0,1	9,191421
2,630833	0,1	9,186783
2,632500	0,1	9,209423
2,634167	0,1	9,195031
2,635833	0,1	9,172741
2,637500	0,1	9,175538
2,639167	0,1	9,169135
2,640833	0,1	9,132573
2,642500	0,1	9,165458
2,644167	0,1	9,155357
2,645833	0,1	9,095896
2,647500	0,1	9,083744
2,649167	0,1	9,142126
2,650833	0,1	9,096684
2,652500	0,1	9,048912
2,654167	0,1	9,065983
2,655833	0,1	9,035518
2,657500	0,1	9,035337
2,659167	0,1	9,064701
2,660833	0,1	9,019642
2,662500	0,1	9,035187
2,664167	0,1	9,064530
2,665833	0,1	9,008538
2,667500	0,1	8,996592
2,669167	0,1	8,983969
2,670833	0,1	8,959068
2,672500	0,1	9,009273
2,674167	0,1	8,949148
2,675833	0,1	8,911616
2,677500	0,1	8,955695
2,679167	0,1	8,952558
2,680833	0,1	8,933437
2,682500	0,1	8,896400
2,684167	0,1	8,924571
2,685833	0,1	8,898300
2,687500	0,1	8,853072
2,689167	0,1	8,852576
2,690833	0,1	8,828654
2,692500	0,1	8,811121
2,694167	0,1	8,836802
2,695833	0,1	8,772752
2,697500	0,1	8,788152
2,699167	0,1	8,809380
2,700833	0,1	8,760783
2,702500	0,1	8,749260
2,704167	0,1	8,778089
2,705833	0,1	8,752830
2,707500	0,1	8,743110
2,709167	0,1	8,720953
2,710833	0,1	8,722476
2,712500	0,1	8,674430
2,714167	0,1	8,649263
2,715833	0,1	8,657455
2,717500	0,1	8,656441
2,719167	0,1	8,653506
2,720833	0,1	8,582397
2,722500	0,1	8,617071
2,724167	0,1	8,578174
2,725833	0,1	8,611613
2,727500	0,1	8,585217
2,729167	0,1	8,593396
2,730833	0,1	8,530848
2,732500	0,1	8,490281
2,734167	0,1	8,560900
2,735833	0,1	8,525909
2,737500	0,1	8,497008
2,739167	0,1	8,495338
2,740833	0,1	8,491166
2,742500	0,1	8,470118
2,744167	0,1	8,460696
2,745833	0,1	8,404386
2,747500	0,1	8,460910
2,749167	0,1	8,402243
2,750833	0,1	8,362783
2,752500	0,1	8,362470
2,754167	0,1	8,355354
2,755833	0,1	8,348515
2,757500	0,1	8,330646
2,759167	0,1	8,292087
2,760833	0,1	8,282490
2,762500	0,1	8,262881
2,764167	0,1	8,281222
2,765833	0,1	8,235157
2,767500	0,1	8,268573
2,769167	0,1	8,272089
2,770833	0,1	8,187122
2,772500	0,1	8,185134
2,774167	0,1	8,164724
2,775833	0,1	8,168607
2,777500	0,1	8,187374
2,779167	0,1	8,128910
2,780833	0,1	8,092598
2,782500	0,1	8,115395
2,784167	0,1	8,086470
2,785833	0,1	8,077918
2,787500	0,1	8,044976
2,789167	0,1	8,020074
2,790833	0,1	8,039594
2,792500	0,1	8,030998
2,794167	0,1	8,021695
2,795833	0,1	8,005425
2,797500	0,1	7,976576
2,799167	0,1	7,910680
2,800833	0,1	7,982968
2,802500	0,1	7,979609
2,804167	0,1	7,905936
2,805833	0,1	7,901827
2,807500	0,1	7,897298
2,809167	0,1	7,904507
2,810833	0,1	7,873783
2,812500	0,1	7,836379
2,814167	0,1	7,786943
2,815833	0,1	7,799938
2,817500	0,1	7,800418
2,819167	0,1	7,768966
2,820833	0,1	7,827680
2,822500	0,1	7,719571
2,824167	0,1	7,700265
2,825833	0,1	7,697771
2,827500	0,1	7,655057
2,829167	0,1	7,685510
2,830833	0,1	7,635161
2,832500	0,1	7,646579
2,834167	0,1	7,635264
2,835833	0,1	7,640930
2,837500	0,1	7,610764
2,839167	0,1	7,613806
2,840833	0,1	7,569217
2,842500	0,1	7,496234
2,844167	0,1	7,573240
2,845833	0,1	7,524381
2,847500	0,1	7,524899
2,849167	0,1	7,487950
2,850833	0,1	7,525448
2,852500	0,1	7,463263
2,854167	0,1	7,464377
2,855833	0,1	7,424730
2,857500	0,1	7,397150
2,859167	0,1	7,395724
2,860833	0,1	7,400660
2,862500	0,1	7,336799
2,864167	0,1	7,359414
2,865833	0,1	7,347904
2,867500	0,1	7,320036
2,869167	0,1	7,314706
2,870833	0,1	7,290756
2,872500	0,1	7,278327
2,874167	0,1	7,228682
2,875833	0,1	7,208132
2,877500	0,1	7,197176
2,879167	0,1	7,244272
2,880833	0,1	7,188476
2,882500	0,1	7,165859
2,884167	0,1	7,167704
2,885833	0,1	7,136592
2,887500	0,1	7,131057
2,889167	0,1	7,096491
2,890833	0,1	7,103288
2,892500	0,1	7,078167
2,894167	0,1	7,047870
2,895833	0,1	7,034775
2,897500	0,1	7,043757
2,899167	0,1	6,981984
2,900833	0,1	6,972539
2,902500	0,1	6,961882
2,904167	0,1	6,991121
2,905833	0,1	6,958895
2,907500	0,1	6,929269
2,909167	0,1	6,887510
2,910833	0,1	6,863212
2,912500	0,1	6,852740
2,914167	0,1	6,860496
2,915833	0,1	6,809688
2,917500	0,1	6,811166
2,919167	0,1	6,819477
2,920833	0,1	6,775682
2,922500	0,1	6,782767
2,924167	0,1	6,744384
2,925833	0,1	6,750539
2,927500	0,1	6,738212
2,929167	0,1	6,719628
2,930833	0,1	6,712246
2,932500	0,1	6,691141
2,934167	0,1	6,671995
2,935833	0,1	6,636607
2,937500	0,1	6,611860
2,939167	0,1	6,596357
2,940833	0,1	6,600647
2,942500	0,1	6,568070
2,944167	0,1	6,552567
2,945833	0,1	6,551446
2,947500	0,1	6,476680
2,949167	0,1	6,490006
2,950833	0,1	6,462950
2,952500	0,1	6,505593
2,954167	0,1	6,468740
2,955833	0,1	6,474704
2,957500	0,1	6,411249
2,959167	0,1	6,434657
2,960833	0,1	6,393136
2,962500	0,1	6,339197
2,964167	0,1	6,352338
2,965833	0,1	6,339276
2,967500	0,1	6,327610
2,969167	0,1	6,304189
2,970833	0,1	6,309972
2,972500	0,1	6,333765
2,974167	0,1	6,277243
2,975833	0,1	6,261368
2,977500	0,1	6,227305
2,979167	0,1	6,245784
2,980833	0,1	6,209684
2,982500	0,1	6,169204
2,984167	0,1	6,166121
2,985833	0,1	6,174873
2,987500	0,1	6,122561
2,989167	0,1	6,155104
2,990833	0,1	6,127596
2,992500	0,1	6,080031
2,994167	0,1	6,081887
2,995833	0,1	6,084043
2,997500	0,1	6,014485
2,999167	0,1	6,053164
3,000833	0,1	6,011479
3,002500	0,1	6,009719
3,004167	0,1	5,964233
3,005833	0,1	5,956742
3,007500	0,1	5,988073
3,009167	0,1	5,919335
3,010833	0,1	5,960776
3,012500	0,1	5,930170
3,014167	0,1	5,906034
3,015833	0,1	5,851588
3,017500	0,1	5,873405
3,019167	0,1	5,893184
3,020833	0,1	5,800805
3,022500	0,1	5,815978
3,024167	0,1	5,815916
3,025833	0,1	5,743096
3,027500	0,1	5,794529
3,029167	0,1	5,740803
3,030833	0,1	5,715714
3,032500	0,1	5,728009
3,034167	0,1	5,665665
3,035833	0,1	5,677194
3,037500	0,1	5,658315
3,039167	0,1	5,670508
3,040833	0,1	5,629387
3,042500	0,1	5,602023
3,044167	0,1	5,578146
3,045833	0,1	5,595521
3,047500	0,1	5,604461
3,049167	0,1	5,571006
3,050833	0,1	5,579101
3,052500	0,1	5,537502
3,054167	0,1	5,499299
3,055833	0,1	5,556210
3,057500	0,1	5,507530
3,059167	0,1	5,477993
3,060833	0,1	5,441419
3,062500	0,1	5,478702
3,064167	0,1	5,425920
3,065833	0,1	5,444631
3,067500	0,1	5,393116
3,069167	0,1	5,377163
3,070833	0,1	5,380472
3,072500	0,1	5,361470
3,074167	0,1	5,357837
3,075833	0,1	5,323867
3,077500	0,1	5,306228
3,079167	0,1	5,247764
3,080833	0,1	5,290467
3,082500	0,1	5,255122
3,084167	0,1	5,265643
3,085833	0,1	5,247580
3,087500	0,1	5,276105
3,089167	0,1	5,208780
3,090833	0,1	5,203225
3,092500	0,1	5,174718
3,094167	0,1	5,200895
3,095833	0,1	5,197731
3,097500	0,1	5,149423
3,099167	0,1	5,113397
3,100833	0,1	5,104074
3,102500	0,1	5,085557
3,104167	0,1	5,124976
3,105833	0,1	5,081614
3,107500	0,1	5,069883
3,109167	0,1	5,012988
3,110833	0,1	5,032838
3,112500	0,1	5,029783
3,114167	0,1	5,021059
3,115833	0,1	4,981664
3,117500	0,1	5,012130
3,119167	0,1	4,960853
3,120833	0,1	4,927703
3,122500	0,1	4,926624
3,124167	0,1	4,924970
3,125833	0,1	4,908560
3,127500	0,1	4,900238
3,129167	0,1	4,903714
3,130833	0,1	4,874827
3,132500	0,1	4,881039
3,134167	0,1	4,831410
3,135833	0,1	4,845915
3,137500	0,1	4,838187
3,139167	0,1	4,807149
3,140833	0,1	4,778819
3,142500	0,1	4,811975
3,144167	0,1	4,767561
3,145833	0,1	4,793040
3,147500	0,1	4,745969
3,149167	0,1	4,716395
3,150833	0,1	4,687195
3,152500	0,1	4,702464
3,154167	0,1	4,675509
3,155833	0,1	4,697850
3,157500	0,1	4,663770
3,159167	0,1	4,667862
3,160833	0,1	4,657881
3,162500	0,1	4,619805
3,164167	0,1	4,612472
3,165833	0,1	4,616855
3,167500	0,1	4,614622
3,169167	0,1	4,607833
3,170833	0,1	4,535718
3,172500	0,1	4,546223
3,174167	0,1	4,563641
3,175833	0,1	4,501292
3,177500	0,1	4,519802
3,179167	0,1	4,506380
3,180833	0,1	4,492824
3,182500	0,1	4,502502
3,184167	0,1	4,484245
3,185833	0,1	4,466902
3,187500	0,1	4,457479
3,189167	0,1	4,448689
3,190833	0,1	4,424764
3,192500	0,1	4,370760
3,194167	0,1	4,440549
3,195833	0,1	4,402521
3,197500	0,1	4,393576
3,199167	0,1	4,360584
3,200833	0,1	4,318205
3,202500	0,1	4,351064
3,204167	0,1	4,330789
3,205833	0,1	4,278324
3,207500	0,1	4,288769
3,209167	0,1	4,286974
3,210833	0,1	4,281704
3,212500	0,1	4,208707
3,214167	0,1	4,278588
3,215833	0,1	4,229055
3,217500	0,1	4,217875
3,219167	0,1	4,236686
3,220833	0,1	4,187653
3,222500	0,1	4,198808
3,224167	0,1	4,159739
3,225833	0,1	4,180936
3,227500	0,1	4,176392
3,229167	0,1	4,132084
3,230833	0,1	4,160335
3,232500	0,1	4,158474
3,234167	0,1	4,159115
3,235833	0,1	4,101377
3,237500	0,1	4,066197
3,239167	0,1	4,060540
3,240833	0,1	4,067973
3,242500	0,1	4,045001
3,244167	0,1	4,046248
3,245833	0,1	4,018965
3,247500	0,1	4,042222
3,249167	0,1	4,001708
3,250833	0,1	3,992971
3,252500	0,1	4,021265
3,254167	0,1	3,973609
3,255833	0,1	3,988047
3,257500	0,1	3,939179
3,259167	0,1	3,977891
3,260833	0,1	3,905161
3,262500	0,1	3,879248
3,264167	0,1	3,955755
3,265833	0,1	3,919849
3,267500	0,1	3,895123
3,269167	0,1	3,868774
3,270833	0,1	3,896410
3,272500	0,1	3,850799
3,274167	0,1	3,814182
3,275833	0,1	3,847894
3,277500	0,1	3,811988
3,279167	0,1	3,805366
3,280833	0,1	3,836002
3,282500	0,1	3,825257
3,284167	0,1	3,765402
3,285833	0,1	3,811198
3,287500	0,1	3,777770
3,289167	0,1	3,745549
3,290833	0,1	3,774391
3,292500	0,1	3,755325
3,294167	0,1	3,742738
3,295833	0,1	3,725863
3,297500	0,1	3,729351
3,299167	0,1	3,676722
3,300833	0,1	3,690954
3,302500	0,1	3,693561
3,304167	0,1	3,663769
3,305833	0,1	3,697565
3,307500	0,1	3,662202
3,309167	0,1	3,580835
3,310833	0,1	3,614833
3,312500	0,1	3,619055
3,314167	0,1	3,582383
3,315833	0,1	3,634827
3,317500	0,1	3,581020
3,319167	0,1	3,611109
3,320833	0,1	3,553554
3,322500	0,1	3,592146
3,324167	0,1	3,566483
3,325833	0,1	3,596659
3,327500	0,1	3,538626
3,329167	0,1	3,539388
3,330833	0,1	3,533787
3,332500	0,1	3,479522
3,334167	0,1	3,520338
3,335833	0,1	3,458664
3,337500	0,1	3,484156
3,339167	0,1	3,458052
3,340833	0,1	3,462350
3,342500	0,1	3,472686
3,344167	0,1	3,430044
3,345833	0,1	3,434733
3,347500	0,1	3,435745
3,349167	0,1	3,416159
3,350833	0,1	3,419905
3,352500	0,1	3,398736
3,354167	0,1	3,417622
3,355833	0,1	3,387060
3,357500	0,1	3,359761
3,359167	0,1	3,380431
3,360833	0,1	3,362070
3,362500	0,1	3,346184
3,364167	0,1	3,327529
3,365833	0,1	3,346254
3,367500	0,1	3,364596
3,369167	0,1	3,288051
3,370833	0,1	3,305079
3,372500	0,1	3,300772
3,374167	0,1	3,343024
3,375833	0,1	3,228622
3,377500	0,1	3,283428
3,379167	0,1	3,284162
3,380833	0,1	3,242688
3,382500	0,1	3,238247
3,384167	0,1	3,239569
3,385833	0,1	3,202505
3,387500	0,1	3,216162
3,389167	0,1	3,211499
3,390833	0,1	3,205376
3,392500	0,1	3,208903
3,394167	0,1	3,165203
3,395833	0,1	3,162056
3,397500	0,1	3,156376
3,399167	0,1	3,133061
3,400833	0,1	3,142883
3,402500	0,1	3,163425
3,404167	0,1	3,124378
3,405833	0,1	3,128049
3,407500	0,1	3,115551
3,409167	0,1	3,157013
3,410833	0,1	3,135914
3,412500	0,1	3,098442
3,414167	0,1	3,094804
3,415833	0,1	3,068431
3,417500	0,1	3,038116
3,419167	0,1	3,070675
3,420833	0,1	3,051809
3,422500	0,1	3,067724
3,424167	0,1	3,064820
3,425833	0,1	3,027436
3,427500	0,1	3,040003
3,429167	0,1	3,003605
3,430833	0,1	3,013193
3,432500	0,1	2,996238
3,434167	0,1	2,971377
3,435833	0,1	2,964968
3,437500	0,1	2,957915
3,439167	0,1	2,999619
3,440833	0,1	2,970082
3,442500	0,1	2,952676
3,444167	0,1	3,011391
3,445833	0,1	2,911710
3,447500	0,1	2,905493
3,449167	0,1	2,944467
3,450833	0,1	2,921777
3,452500	0,1	2,914126
3,454167	0,1	2,862981
3,455833	0,1	2,883146
3,457500	0,1	2,888982
3,459167	0,1	2,854512
3,460833	0,1	2,860181
3,462500	0,1	2,841111
3,464167	0,1	2,861837
3,465833	0,1	2,834309
3,467500	0,1	2,826300
3,469167	0,1	2,803988
3,470833	0,1	2,841040
3,472500	0,1	2,804200
3,474167	0,1	2,800210
3,475833	0,1	2,805544
3,477500	0,1	2,791446
3,479167	0,1	2,771380
3,480833	0,1	2,756536
3,482500	0,1	2,806829
3,484167	0,1	2,771710
3,485833	0,1	2,755813
3,487500	0,1	2,768552
3,489167	0,1	2,757260
3,490833	0,1	2,738701
3,492500	0,1	2,691459
3,494167	0,1	2,696073
3,495833	0,1	2,704417
3,497500	0,1	2,715413
3,499167	0,1	2,674480
3,500833	0,1	2,731042
3,502500	0,1	2,700979
3,504167	0,1	2,696018
3,505833	0,1	2,643198
3,507500	0,1	2,682370
3,509167	0,1	2,650016
3,510833	0,1	2,619228
3,512500	0,1	2,599209
3,514167	0,1	2,628342
3,515833	0,1	2,680314
3,517500	0,1	2,618347
3,519167	0,1	2,640211
3,520833	0,1	2,613082
3,522500	0,1	2,622486
3,524167	0,1	2,566249
3,525833	0,1	2,565754
3,527500	0,1	2,578327
3,529167	0,1	2,572909
3,530833	0,1	2,579623
3,532500	0,1	2,586159
3,534167	0,1	2,540631
3,535833	0,1	2,570552
3,537500	0,1	2,548306
3,539167	0,1	2,536676
3,540833	0,1	2,521648
3,542500	0,1	2,563697
3,544167	0,1	2,531050
3,545833	0,1	2,546144
3,547500	0,1	2,519859
3,549167	0,1	2,479193
3,550833	0,1	2,439277
3,552500	0,1	2,490253
3,554167	0,1	2,511885
3,555833	0,1	2,450861
3,557500	0,1	2,459559
3,559167	0,1	2,457531
3,560833	0,1	2,440627
3,562500	0,1	2,468245
3,564167	0,1	2,401746
3,565833	0,1	2,443714
3,567500	0,1	2,450333
3,569167	0,1	2,403948
3,570833	0,1	2,381011
3,572500	0,1	2,391548
3,574167	0,1	2,363523
3,575833	0,1	2,368566
3,577500	0,1	2,390040
3,579167	0,1	2,385537
3,580833	0,1	2,360648
3,582500	0,1	2,352028
3,584167	0,1	2,385008
3,585833	0,1	2,353093
3,587500	0,1	2,352949
3,589167	0,1	2,377592
3,590833	0,1	2,370702
3,592500	0,1	2,328290
3,594167	0,1	2,348689
3,595833	0,1	2,326842
3,597500	0,1	2,309737
3,599167	0,1	2,292041
3,600833	0,1	2,343726
3,602500	0,1	2,275153
3,604167	0,1	2,268093
3,605833	0,1	2,254808
3,607500	0,1	2,341839
3,609167	0,1	2,293554
3,610833	0,1	2,289660
3,612500	0,1	2,277717
3,614167	0,1	2,258537
3,615833	0,1	2,238551
3,617500	0,1	2,250986
3,619167	0,1	2,225028
3,620833	0,1	2,206056
3,622500	0,1	2,212677
3,624167	0,1	2,217543
3,625833	0,1	2,204107
3,627500	0,1	2,241199
3,629167	0,1	2,193263
3,630833	0,1	2,184334
3,632500	0,1	2,139921
3,634167	0,1	2,141350
3,635833	0,1	2,191578
3,637500	0,1	2,202314
3,639167	0,1	2,165866
3,640833	0,1	2,148105
3,642500	0,1	2,168358
3,644167	0,1	2,134169
3,645833	0,1	2,112886
3,647500	0,1	2,118335
3,649167	0,1	2,134665
3,650833	0,1	2,122800
3,652500	0,1	2,086810
3,654167	0,1	2,103324
3,655833	0,1	2,126246
3,657500	0,1	2,081480
3,659167	0,1	2,045756
3,660833	0,1	2,070102
3,662500	0,1	2,047845
3,664167	0,1	2,065941
3,665833	0,1	2,086274
3,667500	0,1	2,039579
3,669167	0,1	2,042868
3,670833	0,1	2,062702
3,672500	0,1	2,019750
3,674167	0,1	2,057162
3,675833	0,1	2,044964
3,677500	0,1	2,030444
3,679167	0,1	2,028864
3,680833	0,1	1,988705
3,682500	0,1	2,023245
3,684167	0,1	2,005374
3,685833	0,1	1,986474
3,687500	0,1	1,992790
3,689167	0,1	1,958737
3,690833	0,1	1,955061
3,692500	0,1	2,021582
3,694167	0,1	1,955294
3,695833	0,1	1,978764
3,697500	0,1	1,964835
3,699167	0,1	1,973528
3,700833	0,1	1,947530
3,702500	0,1	1,914837
3,704167	0,1	1,975955
3,705833	0,1	1,936183
3,707500	0,1	1,982210
3,709167	0,1	1,939551
3,710833	0,1	1,889768
3,712500	0,1	1,915396
3,714167	0,1	1,904843
3,715833	0,1	1,882219
3,717500	0,1	1,916042
3,719167	0,1	1,873241
3,720833	0,1	1,875675
3,722500	0,1	1,900952
3,724167	0,1	1,894642
3,725833	0,1	1,915899
3,727500	0,1	1,841715
3,729167	0,1	1,886227
3,730833	0,1	1,871007
3,732500	0,1	1,873661
3,734167	0,1	1,848311
3,735833	0,1	1,837243
3,737500	0,1	1,829990
3,739167	0,1	1,839753
3,740833	0,1	1,808734
3,742500	0,1	1,820861
3,744167	0,1	1,848585
3,745833	0,1	1,822235
3,747500	0,1	1,792070
3,749167	0,1	1,790625
3,750833	0,1	1,788829
3,752500	0,1	1,774036
3,754167	0,1	1,767930
3,755833	0,1	1,790260
3,757500	0,1	1,740938
3,759167	0,1	1,781710
3,760833	0,1	1,777124
3,762500	0,1	1,748329
3,764167	0,1	1,725491
3,765833	0,1	1,722109
3,767500	0,1	1,744728
3,769167	0,1	1,710697
3,770833	0,1	1,660932
3,772500	0,1	1,749019
3,774167	0,1	1,744949
3,775833	0,1	1,715370
3,777500	0,1	1,681185
3,779167	0,1	1,708532
3,780833	0,1	1,719449
3,782500	0,1	1,691235
3,784167	0,1	1,702934
3,785833	0,1	1,676732
3,787500	0,1	1,698190
3,789167	0,1	1,684126
3,790833	0,1	1,711043
3,792500	0,1	1,654257
3,794167	0,1	1,701989
3,795833	0,1	1,665606
3,797500	0,1	1,666028
3,799167	0,1	1,624390
3,800833	0,1	1,652089
3,802500	0,1	1,649511
3,804167	0,1	1,623167
3,805833	0,1	1,643905
3,807500	0,1	1,629484
3,809167	0,1	1,595888
3,810833	0,1	1,578652
3,812500	0,1	1,639443
3,814167	0,1	1,643054
3,815833	0,1	1,600122
3,817500	0,1	1,633354
3,819167	0,1	1,580377
3,820833	0,1	1,596373
3,822500	0,1	1,593509
3,824167	0,1	1,595092
3,825833	0,1	1,542126
3,827500	0,1	1,506802
3,829167	0,1	1,533775
3,830833	0,1	1,584026
3,832500	0,1	1,590276
3,834167	0,1	1,576780
3,835833	0,1	1,547864
3,837500	0,1	1,528688
3,839167	0,1	1,546840
3,840833	0,1	1,557471
3,842500	0,1	1,537303
3,844167	0,1	1,574122
3,845833	0,1	1,510187
3,847500	0,1	1,548924
3,849167	0,1	1,486783
3,850833	0,1	1,505920
3,852500	0,1	1,533704
3,854167	0,1	1,502925
3,855833	0,1	1,481249
3,857500	0,1	1,512530
3,859167	0,1	1,465752
3,860833	0,1	1,532262
3,862500	0,1	1,462590
3,864167	0,1	1,510172
3,865833	0,1	1,469837
3,867500	0,1	1,471835
3,869167	0,1	1,465589
3,870833	0,1	1,394125
3,872500	0,1	1,450301
3,874167	0,1	1,448504
3,875833	0,1	1,447506
3,877500	0,1	1,416224
3,879167	0,1	1,442403
3,880833	0,1	1,424127
3,882500	0,1	1,458127
3,884167	0,1	1,440335
3,885833	0,1	1,430288
3,887500	0,1	1,394273
3,889167	0,1	1,385994
3,890833	0,1	1,419429
3,892500	0,1	1,402953
3,894167	0,1	1,363844
3,895833	0,1	1,322706
3,897500	0,1	1,431271
3,899167	0,1	1,360832
3,900833	0,1	1,346758
3,902500	0,1	1,371062
3,904167	0,1	1,364255
3,905833	0,1	1,341953
3,907500	0,1	1,350253
3,909167	0,1	1,347401
3,910833	0,1	1,355803
3,912500	0,1	1,353275
3,914167	0,1	1,360175
3,915833	0,1	1,305580
3,917500	0,1	1,339416
3,919167	0,1	1,351918
3,920833	0,1	1,313692
3,922500	0,1	1,329326
3,924167	0,1	1,314254
3,925833	0,1	1,336479
3,927500	0,1	1,306935
3,929167	0,1	1,324805
3,930833	0,1	1,297538
3,932500	0,1	1,310442
3,934167	0,1	1,302421
3,935833	0,1	1,305438
3,937500	0,1	1,255228
3,939167	0,1	1,300827
3,940833	0,1	1,269485
3,942500	0,1	1,256003
3,944167	0,1	1,265601
3,945833	0,1	1,255553
3,947500	0,1	1,276734
3,949167	0,1	1,226591
3,950833	0,1	1,203044
3,952500	0,1	1,228717
3,954167	0,1	1,219789
3,955833	0,1	1,279438
3,957500	0,1	1,220783
3,959167	0,1	1,239348
3,960833	0,1	1,215978
3,962500	0,1	1,210866
3,964167	0,1	1,238263
3,965833	0,1	1,183971
3,967500	0,1	1,176710
3,969167	0,1	1,225437
3,970833	0,1	1,210638
3,972500	0,1	1,233974
3,974167	0,1	1,184547
3,975833	0,1	1,167537
3,977500	0,1	1,206349
3,979167	0,1	1,179608
3,980833	0,1	1,160749
3,982500	0,1	1,144749
3,984167	0,1	1,183120
3,985833	0,1	1,165463
3,987500	0,1	1,175012
3,989167	0,1	1,190954
3,990833	0,1	1,176609
3,992500	0,1	1,159791
3,994167	0,1	1,149185
3,995833	0,1	1,138281
3,997500	0,1	1,097404
3,999167	0,1	1,125512
4,000833	0,1	1,101575
4,002500	0,1	1,111236
4,004167	0,1	1,112693
4,005833	0,1	1,086005
4,007500	0,1	1,115761
4,009167	0,1	1,107311
4,010833	0,1	1,084726
4,012500	0,1	1,092834
4,014167	0,1	1,107183
4,015833	0,1	1,067292
4,017500	0,1	1,090592
4,019167	0,1	1,093480
4,020833	0,1	1,081400
4,022500	0,1	1,084171
4,024167	0,1	1,090817
4,025833	0,1	1,021259
4,027500	0,1	1,066405
4,029167	0,1	1,061351
4,030833	0,1	1,067075
4,032500	0,1	1,061710
4,034167	0,1	1,051878
4,035833	0,1	1,061061
4,037500	0,1	1,025442
4,039167	0,1	1,090815
4,040833	0,1	1,026573
4,042500	0,1	0,995233
4,044167	0,1	1,060470
4,045833	0,1	1,065866
4,047500	0,1	1,005565
4,049167	0,1	1,024836
4,050833	0,1	1,030291
4,052500	0,1	1,019271
4,054167	0,1	1,022972
4,055833	0,1	0,972891
4,057500	0,1	1,020244
4,059167	0,1	0,998253
4,060833	0,1	1,027278
4,062500	0,1	1,020205
4,064167	0,1	0,992364
4,065833	0,1	0,962548
4,067500	0,1	0,971640
4,069167	0,1	0,975868
4,070833	0,1	0,991572
4,072500	0,1	0,970303
4,074167	0,1	1,035521
4,075833	0,1	0,977409
4,077500	0,1	0,955023
4,079167	0,1	0,950215
4,080833	0,1	0,961893
4,082500	0,1	0,959588
4,084167	0,1	0,997661
4,085833	0,1	0,939038
4,087500	0,1	0,947598
4,089167	0,1	0,916503
4,090833	0,1	0,921807
4,092500	0,1	0,883552
4,094167	0,1	0,941745
4,095833	0,1	0,915653
4,097500	0,1	0,899674
4,099167	0,1	0,965461
4,100833	0,1	0,931241
4,102500	0,1	0,904041
4,104167	0,1	0,901268
4,105833	0,1	0,918020
4,107500	0,1	0,899965
4,109167	0,1	0,929562
4,110833	0,1	0,927378
4,112500	0,1	0,872100
4,114167	0,1	0,903858
4,115833	0,1	0,889014
4,117500	0,1	0,890216
4,119167	0,1	0,875960
4,120833	0,1	0,875821
4,122500	0,1	0,921730
4,124167	0,1	0,846032
4,125833	0,1	0,870078
4,127500	0,1	0,878110
4,129167	0,1	0,858815
4,130833	0,1	0,879348
4,132500	0,1	0,841403
4,134167	0,1	0,880021
4,135833	0,1	0,835175
4,137500	0,1	0,826338
4,139167	0,1	0,826471
4,140833	0,1	0,833007
4,142500	0,1	0,868869
4,144167	0,1	0,839639
4,145833	0,1	0,822201
4,147500	0,1	0,790717
4,149167	0,1	0,808466
4,150833	0,1	0,829134
4,152500	0,1	0,812968
4,154167	0,1	0,782842
4,155833	0,1	0,843437
4,157500	0,1	0,804281
4,159167	0,1	0,817948
4,160833	0,1	0,807722
4,162500	0,1	0,791887
4,164167	0,1	0,787879
4,165833	0,1	0,830234
4,167500	0,1	0,766437
4,169167	0,1	0,763018
4,170833	0,1	0,803599
4,172500	0,1	0,775787
4,174167	0,1	0,792505
4,175833	0,1	0,774764
4,177500	0,1	0,757195
4,179167	0,1	0,764351
4,180833	0,1	0,759216
4,182500	0,1	0,759838
4,184167	0,1	0,775911
4,185833	0,1	0,751527
4,187500	0,1	0,768441
4,189167	0,1	0,735407
4,190833	0,1	0,745890
4,192500	0,1	0,784577
4,194167	0,1	0,757219
4,195833	0,1	0,764950
4,197500	0,1	0,741317
4,199167	0,1	0,729754
4,200833	0,1	0,743600
4,202500	0,1	0,754899
4,204167	0,1	0,731443
4,205833	0,1	0,709742
4,207500	0,1	0,738348
4,209167	0,1	0,721995
4,210833	0,1	0,710074
4,212500	0,1	0,746596
4,214167	0,1	0,723174
4,215833	0,1	0,691089
4,217500	0,1	0,702509
4,219167	0,1	0,696442
4,220833	0,1	0,726029
4,222500	0,1	0,745955
4,224167	0,1	0,674401
4,225833	0,1	0,686344
4,227500	0,1	0,683679
4,229167	0,1	0,719956
4,230833	0,1	0,669038
4,232500	0,1	0,669783
4,234167	0,1	0,683254
4,235833	0,1	0,678655
4,237500	0,1	0,683009
4,239167	0,1	0,658916
4,240833	0,1	0,667623
4,242500	0,1	0,696945
4,244167	0,1	0,650695
4,245833	0,1	0,659709
4,247500	0,1	0,651732
4,249167	0,1	0,654529
4,250833	0,1	0,632814
4,252500	0,1	0,659438
4,254167	0,1	0,677383
4,255833	0,1	0,640088
4,257500	0,1	0,647593
4,259167	0,1	0,624790
4,260833	0,1	0,634741
4,262500	0,1	0,632967
4,264167	0,1	0,612474
4,265833	0,1	0,667102
4,267500	0,1	0,647065
4,269167	0,1	0,635569
4,270833	0,1	0,628431
4,272500	0,1	0,620673
4,274167	0,1	0,642342
4,275833	0,1	0,610631
4,277500	0,1	0,628604
4,279167	0,1	0,602539
4,280833	0,1	0,613290
4,282500	0,1	0,603712
4,284167	0,1	0,595643
4,285833	0,1	0,625801
4,287500	0,1	0,614273
4,289167	0,1	0,609647
4,290833	0,1	0,604756
4,292500	0,1	0,581240
4,294167	0,1	0,595347
4,295833	0,1	0,613331
4,297500	0,1	0,567866
4,299167	0,1	0,586725
4,300833	0,1	0,581482
4,302500	0,1	0,526192
4,304167	0,1	0,531293
4,305833	0,1	0,560467
4,307500	0,1	0,581788
4,309167	0,1	0,547236
4,310833	0,1	0,569360
4,312500	0,1	0,528413
4,314167	0,1	0,548711
4,315833	0,1	0,555117
4,317500	0,1	0,535785
4,319167	0,1	0,535510
4,320833	0,1	0,533030
4,322500	0,1	0,505378
4,324167	0,1	0,576085
4,325833	0,1	0,539277
4,327500	0,1	0,576093
4,329167	0,1	0,541837
4,330833	0,1	0,549605
4,332500	0,1	0,532142
4,334167	0,1	0,530651
4,335833	0,1	0,496844
4,337500	0,1	0,542017
4,339167	0,1	0,534272
4,340833	0,1	0,499579
4,342500	0,1	0,507395
4,344167	0,1	0,554174
4,345833	0,1	0,517676
4,347500	0,1	0,531936
4,349167	0,1	0,520010
4,350833	0,1	0,529201
4,352500	0,1	0,520561
4,354167	0,1	0,498511
4,355833	0,1	0,523373
4,357500	0,1	0,529780
4,359167	0,1	0,510780
4,360833	0,1	0,536577
4,362500	0,1	0,513584
4,364167	0,1	0,495156
4,365833	0,1	0,462263
4,367500	0,1	0,488187
4,369167	0,1	0,496306
4,370833	0,1	0,452979
4,372500	0,1	0,491589
4,374167	0,1	0,508376
4,375833	0,1	0,480952
4,377500	0,1	0,478038
4,379167	0,1	0,461351
4,380833	0,1	0,458008
4,382500	0,1	0,490473
4,384167	0,1	0,450664
4,385833	0,1	0,452903
4,387500	0,1	0,454112
4,389167	0,1	0,468276
4,390833	0,1	0,447752
4,392500	0,1	0,435994
4,394167	0,1	0,463984
4,395833	0,1	0,438600
4,397500	0,1	0,429837
4,399167	0,1	0,479737
4,400833	0,1	0,430650
4,402500	0,1	0,441616
4,404167	0,1	0,410484
4,405833	0,1	0,406731
4,407500	0,1	0,434301
4,409167	0,1	0,436594
4,410833	0,1	0,475187
4,412500	0,1	0,436473
4,414167	0,1	0,398596
4,415833	0,1	0,403795
4,417500	0,1	0,406729
4,419167	0,1	0,435918
4,420833	0,1	0,431506
4,422500	0,1	0,445364
4,424167	0,1	0,377208
4,425833	0,1	0,393653
4,427500	0,1	0,389883
4,429167	0,1	0,406660
4,430833	0,1	0,405795
4,432500	0,1	0,377806
4,434167	0,1	0,401857
4,435833	0,1	0,399446
4,437500	0,1	0,383956
4,439167	0,1	0,446575
4,440833	0,1	0,395854
4,442500	0,1	0,389884
4,444167	0,1	0,395960
4,445833	0,1	0,390070
4,447500	0,1	0,390658
4,449167	0,1	0,370586
4,450833	0,1	0,368292
4,452500	0,1	0,369263
4,454167	0,1	0,325304
4,455833	0,1	0,401965
4,457500	0,1	0,385889
4,459167	0,1	0,353781
4,460833	0,1	0,359178
4,462500	0,1	0,344878
4,464167	0,1	0,388677
4,465833	0,1	0,357859
4,467500	0,1	0,344943
4,469167	0,1	0,339430
4,470833	0,1	0,339663
4,472500	0,1	0,349961
4,474167	0,1	0,365711
4,475833	0,1	0,396282
4,477500	0,1	0,348853
4,479167	0,1	0,327745
4,480833	0,1	0,355203
4,482500	0,1	0,398212
4,484167	0,1	0,331042
4,485833	0,1	0,362933
4,487500	0,1	0,402526
4,489167	0,1	0,360161
4,490833	0,1	0,322622
4,492500	0,1	0,364939
4,494167	0,1	0,338250
4,495833	0,1	0,357399
4,497500	0,1	0,326681
4,499167	0,1	0,308547
4,500833	0,1	0,344221
4,502500	0,1	0,322496
4,504167	0,1	0,329315
4,505833	0,1	0,305224
4,507500	0,1	0,334045
4,509167	0,1	0,340716
4,510833	0,1	0,319657
4,512500	0,1	0,318337
4,514167	0,1	0,305324
4,515833	0,1	0,292309
4,517500	0,1	0,314466
4,519167	0,1	0,294439
4,520833	0,1	0,311947
4,522500	0,1	0,306248
4,524167	0,1	0,305451
4,525833	0,1	0,297620
4,527500	0,1	0,341063
4,529167	0,1	0,280979
4,530833	0,1	0,294170
4,532500	0,1	0,315912
4,534167	0,1	0,319521
4,535833	0,1	0,296523
4,537500	0,1	0,304733
4,539167	0,1	0,289219
4,540833	0,1	0,290627
4,542500	0,1	0,308212
4,544167	0,1	0,293047
4,545833	0,1	0,278360
4,547500	0,1	0,258457
4,549167	0,1	0,300699
4,550833	0,1	0,253889
4,552500	0,1	0,248531
4,554167	0,1	0,281121
4,555833	0,1	0,288597
4,557500	0,1	0,273758
4,559167	0,1	0,243903
4,560833	0,1	0,287879
4,562500	0,1	0,275040
4,564167	0,1	0,246994
4,565833	0,1	0,267691
4,567500	0,1	0,254237
4,569167	0,1	0,238588
4,570833	0,1	0,270590
4,572500	0,1	0,245861
4,574167	0,1	0,283885
4,575833	0,1	0,255108
4,577500	0,1	0,229892
4,579167	0,1	0,237902
4,580833	0,1	0,227795
4,582500	0,1	0,240218
4,584167	0,1	0,245887
4,585833	0,1	0,258314
4,587500	0,1	0,271818
4,589167	0,1	0,245027
4,590833	0,1	0,247273
4,592500	0,1	0,220004
4,594167	0,1	0,263821
4,595833	0,1	0,156582
4,597500	0,1	0,226134
4,599167	0,1	0,272390
4,600833	0,1	0,217596
4,602500	0,1	0,221091
4,604167	0,1	0,237831
4,605833	0,1	0,252812
4,607500	0,1	0,212440
4,609167	0,1	0,215553
4,610833	0,1	0,202866
4,612500	0,1	0,229620
4,614167	0,1	0,202613
4,615833	0,1	0,209722
4,617500	0,1	0,226916
4,619167	0,1	0,191151
4,620833	0,1	0,228390
4,622500	0,1	0,194404
4,624167	0,1	0,204405
4,625833	0,1	0,212522
4,627500	0,1	0,186094
4,629167	0,1	0,221180
4,630833	0,1	0,177048
4,632500	0,1	0,189720
4,634167	0,1	0,180775
4,635833	0,1	0,200831
4,637500	0,1	0,187249
4,639167	0,1	0,190498
4,640833	0,1	0,198387
4,642500	0,1	0,208851
4,644167	0,1	0,187219
4,645833	0,1	0,150996
4,647500	0,1	0,198278
4,649167	0,1	0,168898
4,650833	0,1	0,160842
4,652500	0,1	0,173362
4,654167	0,1	0,192459
4,655833	0,1	0,181611
4,657500	0,1	0,181352
4,659167	0,1	0,171565
4,660833	0,1	0,185246
4,662500	0,1	0,149095
4,664167	0,1	0,190006
4,665833	0,1	0,180872
4,667500	0,1	0,166220
4,669167	0,1	0,189752
4,670833	0,1	0,209428
4,672500	0,1	0,173568
4,674167	0,1	0,172271
4,675833	0,1	0,170338
4,677500	0,1	0,195578
4,679167	0,1	0,165515
4,680833	0,1	0,157782
4,682500	0,1	0,161161
4,684167	0,1	0,161420
4,685833	0,1	0,175294
4,687500	0,1	0,088349
4,689167	0,1	0,188637
4,690833	0,1	0,115874
4,692500	0,1	0,175831
4,694167	0,1	0,163999
4,695833	0,1	0,154917
4,697500	0,1	0,175390
4,699167	0,1	0,151121
4,700833	0,1	0,204685
4,702500	0,1	0,134226
4,704167	0,1	0,136046
4,705833	0,1	0,171201
4,707500	0,1	0,113456
4,709167	0,1	0,181046
4,710833	0,1	0,111142
4,712500	0,1	0,131307
4,714167	0,1	0,155262
4,715833	0,1	0,150761
4,717500	0,1	0,124363
4,719167	0,1	0,134014
4,720833	0,1	0,143900
4,722500	0,1	0,093073
4,724167	0,1	0,147463
4,725833	0,1	0,169431
4,727500	0,1	0,137308
4,729167	0,1	0,158225
4,730833	0,1	0,163222
4,732500	0,1	0,147063
4,734167	0,1	0,103697
4,735833	0,1	0,119201
4,737500	0,1	0,090911
4,739167	0,1	0,141539
4,740833	0,1	0,081001
4,742500	0,1	0,143854
4,744167	0,1	0,149213
4,745833	0,1	0,081134
4,747500	0,1	0,111986
4,749167	0,1	0,121361
4,750833	0,1	0,109968
4,752500	0,1	0,104460
4,754167	0,1	0,093805
4,755833	0,1	0,083340
4,757500	0,1	0,101299
4,759167	0,1	0,119458
4,760833	0,1	0,086629
4,762500	0,1	0,089616
4,764167	0,1	0,107738
4,765833	0,1	0,117047
4,767500	0,1	0,070505
4,769167	0,1	0,086361
4,770833	0,1	0,059551
4,772500	0,1	0,087002
4,774167	0,1	0,052695
4,775833	0,1	0,093630
4,777500	0,1	0,110220
4,779167	0,1	0,113473
4,780833	0,1	0,049931
4,782500	0,1	0,111076
4,784167	0,1	0,095546
4,785833	0,1	0,095638
4,787500	0,1	0,099114
4,789167	0,1	0,080187
4,790833	0,1	0,064959
4,792500	0,1	0,071038
4,794167	0,1	0,075222
4,795833	0,1	0,106834
4,797500	0,1	0,056690
4,799167	0,1	0,039977
4,800833	0,1	0,037878
4,802500	0,1	0,064305
4,804167	0,1	0,080792
4,805833	0,1	0,047736
4,807500	0,1	0,045252
4,809167	0,1	0,093147
4,810833	0,1	0,064928
4,812500	0,1	0,081273
4,814167	0,1	0,079122
4,815833	0,1	0,029839
4,817500	0,1	0,051654
4,819167	0,1	0,066432
4,820833	0,1	0,011014
4,822500	0,1	0,057119
4,824167	0,1	0,087001
4,825833	0,1	0,061031
4,827500	0,1	0,045259
4,829167	0,1	0,072419
4,830833	0,1	0,075417
4,832500	0,1	0,066019
4,834167	0,1	0,039719
4,835833	0,1	0,043608
4,837500	0,1	0,054971
4,839167	0,1	0,042004
4,840833	0,1	0,032893
4,842500	0,1	0,074185
4,844167	0,1	0,058358
4,845833	0,1	0,058001
4,847500	0,1	0,025885
4,849167	0,1	0,072286
4,850833	0,1	0,078893
4,852500	0,1	0,060549
4,854167	0,1	0,038371
4,855833	0,1	0,055906
4,857500	0,1	0,095274
4,859167	0,1	0,044236
4,860833	0,1	0,023527
4,862500	0,1	-0,011071
4,864167	0,1	0,047881
4,865833	0,1	0,023724
4,867500	0,1	0,025744
4,869167	0,1	0,033949
4,870833	0,1	0,064112
4,872500	0,1	0,005736
4,874167	0,1	0,041477
4,875833	0,1	0,036499
4,877500	0,1	0,010108
4,879167	0,1	0,085801
4,880833	0,1	0,046194
4,882500	0,1	0,029256
4,884167	0,1	0,019273
4,885833	0,1	0,017919
4,887500	0,1	0,013285
4,889167	0,1	0,047080
4,890833	0,1	0,002386
4,892500	0,1	-0,009917
4,894167	0,1	0,059820
4,895833	0,1	-0,022520
4,897500	0,1	0,049677
4,899167	0,1	0,050922
4,900833	0,1	0,013973
4,902500	0,1	0,030635
4,904167	0,1	0,034310
4,905833	0,1	0,010268
4,907500	0,1	0,016538
4,909167	0,1	0,017438
4,910833	0,1	-0,014264
4,912500	0,1	-0,005968
4,914167	0,1	0,024582
4,915833	0,1	0,031218
4,917500	0,1	-0,018504
4,919167	0,1	0,014728
4,920833	0,1	0,034689
4,922500	0,1	0,022916
4,924167	0,1	0,027128
4,925833	0,1	0,007303
4,927500	0,1	-0,003677
4,929167	0,1	0,029696
4,930833	0,1	-0,021438
4,932500	0,1	-0,019422
4,934167	0,1	0,031979
4,935833	0,1	0,035853
4,937500	0,1	0,019762
4,939167	0,1	-0,013683
4,940833	0,1	-0,012659
4,942500	0,1	0,027538
4,944167	0,1	0,026677
4,945833	0,1	0,018697
4,947500	0,1	0,027510
4,949167	0,1	0,012325
4,950833	0,1	-0,013394
4,952500	0,1	-0,013591
4,954167	0,1	-0,016611
4,955833	0,1	0,009387
4,957500	0,1	0,032821
4,959167	0,1	-0,002286
4,960833	0,1	0,009419
4,962500	0,1	-0,016642
4,964167	0,1	0,000340
4,965833	0,1	0,013861
4,967500	0,1	0,020950
4,969167	0,1	0,023786
4,970833	0,1	-0,025033
4,972500	0,1	-0,018099
4,974167	0,1	-0,008671
4,975833	0,1	-0,003583
4,977500	0,1	0,020077
4,979167	0,1	-0,033500
4,980833	0,1	0,030205
4,982500	0,1	0,010847
4,984167	0,1	-0,019767
4,985833	0,1	-0,023856
4,987500	0,1	0,018849
4,989167	0,1	-0,029291
4,990833	0,1	-0,015653
4,992500	0,1	0,004527
4,994167	0,1	-0,048894
4,995833	0,1	-0,008514
4,997500	0,1	-0,000690
4,999167	0,1	0,012673
5,000833	0,1	-0,007792
5,002500	0,1	-0,015584
5,004167	0,1	-0,034512
5,005833	0,1	-0,027212
5,007500	0,1	-0,033837
5,009167	0,1	-0,010894
5,010833	0,1	-0,001681
5,012500	0,1	-0,021312
5,014167	0,1	-0,061671
5,015833	0,1	-0,040798
5,017500	0,1	-0,011569
5,019167	0,1	0,009905
5,020833	0,1	-0,033312
5,022500	0,1	-0,029297
5,024167	0,1	-0,015881
5,025833	0,1	-0,034703
5,027500	0,1	-0,015973
5,029167	0,1	-0,034542
5,030833	0,1	0,006454
5,032500	0,1	-0,001485
5,034167	0,1	-0,012365
5,035833	0,1	-0,002616
5,037500	0,1	-0,050628
5,039167	0,1	-0,025667
5,040833	0,1	-0,010956
5,042500	0,1	-0,060318
5,044167	0,1	-0,021071
5,045833	0,1	0,017915
5,047500	0,1	-0,022369
5,049167	0,1	-0,014167
5,050833	0,1	-0,042908
5,052500	0,1	-0,040340
5,054167	0,1	-0,048706
5,055833	0,1	-0,032971
5,057500	0,1	-0,043492
5,059167	0,1	-0,060969
5,060833	0,1	-0,056108
5,062500	0,1	-0,060874
5,064167	0,1	0,005643
5,065833	0,1	-0,040201
5,067500	0,1	-0,023281
5,069167	0,1	-0,033545
5,070833	0,1	-0,038505
5,072500	0,1	-0,019745
5,074167	0,1	-0,030936
5,075833	0,1	-0,011892
5,077500	0,1	-0,056973
5,079167	0,1	-0,037542
5,080833	0,1	-0,015175
5,082500	0,1	-0,066338
5,084167	0,1	-0,074780
5,085833	0,1	-0,050065
5,087500	0,1	-0,026083
5,089167	0,1	-0,038956
5,090833	0,1	-0,026761
5,092500	0,1	-0,068797
5,094167	0,1	-0,049002
5,095833	0,1	-0,029019
5,097500	0,1	-0,027274
5,099167	0,1	-0,014848
5,100833	0,1	-0,053303
5,102500	0,1	-0,050150
5,104167	0,1	-0,045525
5,105833	0,1	-0,019646
5,107500	0,1	-0,050894
5,109167	0,1	-0,012795
5,110833	0,1	-0,049568
5,112500	0,1	-0,035582
5,114167	0,1	-0,062644
5,115833	0,1	-0,062997
5,117500	0,1	-0,019198
5,119167	0,1	-0,028616
5,120833	0,1	-0,128698
5,122500	0,1	-0,057772
5,124167	0,1	-0,037579
5,125833	0,1	-0,004489
5,127500	0,1	-0,049269
5,129167	0,1	-0,067279
5,130833	0,1	-0,053959
5,132500	0,1	-0,069629
5,134167	0,1	-0,040601
5,135833	0,1	-0,121131
5,137500	0,1	-0,075463
5,139167	0,1	-0,027504
5,140833	0,1	-0,040109
5,142500	0,1	-0,045099
5,144167	0,1	-0,010799
5,145833	0,1	-0,039562
5,147500	0,1	-0,109207
5,149167	0,1	-0,013071
5,150833	0,1	-0,070834
5,152500	0,1	-0,051322
5,154167	0,1	-0,046198
5,155833	0,1	-0,061351
5,157500	0,1	-0,083199
5,159167	0,1	-0,048806
5,160833	0,1	-0,080504
5,162500	0,1	-0,042987
5,164167	0,1	-0,066726
5,165833	0,1	-0,088611
5,167500	0,1	-0,038103
5,169167	0,1	-0,066407
5,170833	0,1	-0,041016
5,172500	0,1	-0,061413
5,174167	0,1	-0,070880
5,175833	0,1	-0,091956
5,177500	0,1	-0,045755
5,179167	0,1	-0,065186
5,180833	0,1	-0,053217
5,182500	0,1	-0,056721
5,184167	0,1	-0,072847
5,185833	0,1	-0,027476
5,187500	0,1	-0,078721
5,189167	0,1	-0,078290
5,190833	0,1	-0,036776
5,192500	0,1	-0,073068
5,194167	0,1	-0,061874
5,195833	0,1	-0,070147
5,197500	0,1	-0,081949
5,199167	0,1	-0,047683
5,200833	0,1	-0,036832
5,202500	0,1	-0,043747
5,204167	0,1	-0,065050
5,205833	0,1	-0,055601
5,207500	0,1	-0,079853
5,209167	0,1	-0,066798
5,210833	0,1	-0,069205
5,212500	0,1	-0,073194
5,214167	0,1	-0,059392
5,215833	0,1	-0,080923
5,217500	0,1	-0,070669
5,219167	0,1	-0,080636
5,220833	0,1	-0,057082
5,222500	0,1	-0,067916
5,224167	0,1	-0,077092
5,225833	0,1	-0,045942
5,227500	0,1	-0,069301
5,229167	0,1	-0,084523
5,230833	0,1	-0,089484
5,232500	0,1	-0,036101
5,234167	0,1	-0,042913
5,235833	0,1	-0,074801
5,237500	0,1	-0,070794
5,239167	0,1	-0,049320
5,240833	0,1	-0,024216
5,242500	0,1	-0,075151
5,244167	0,1	-0,038863
5,245833	0,1	-0,031973
5,247500	0,1	-0,043010
5,249167	0,1	-0,034384
5,250833	0,1	-0,065853
5,252500	0,1	-0,071525
5,254167	0,1	-0,106476
5,255833	0,1	-0,054286
5,257500	0,1	-0,075738
5,259167	0,1	-0,098428
5,260833	0,1	-0,066096
5,262500	0,1	-0,068336
5,264167	0,1	-0,072042
5,265833	0,1	-0,091440
5,267500	0,1	-0,065641
5,269167	0,1	-0,073972
5,270833	0,1	-0,090189
5,272500	0,1	-0,074976
5,274167	0,1	-0,067349
5,275833	0,1	-0,069433
5,277500	0,1	-0,078959
5,279167	0,1	-0,088450
5,280833	0,1	-0,046424
5,282500	0,1	-0,071812
5,284167	0,1	-0,048875
5,285833	0,1	-0,071876
5,287500	0,1	-0,062745
5,289167	0,1	-0,102450
5,290833	0,1	-0,075940
5,292500	0,1	-0,073204
5,294167	0,1	-0,105280
5,295833	0,1	-0,060404
5,297500	0,1	-0,068860
5,299167	0,1	-0,042304
5,300833	0,1	-0,099000
5,302500	0,1	-0,084920
5,304167	0,1	-0,081953
5,305833	0,1	-0,075301
5,307500	0,1	-0,084778
5,309167	0,1	-0,076805
5,310833	0,1	-0,057280
5,312500	0,1	-0,091500
5,314167	0,1	-0,089714
5,315833	0,1	-0,118442
5,317500	0,1	-0,073950
5,319167	0,1	-0,087751
5,320833	0,1	-0,083630
5,322500	0,1	-0,087718
5,324167	0,1	-0,040187
5,325833	0,1	-0,074546
5,327500	0,1	-0,071039
5,329167	0,1	-0,085068
5,330833	0,1	-0,085652
5,332500	0,1	-0,075619
5,334167	0,1	-0,082277
5,335833	0,1	-0,113394
5,337500	0,1	-0,114904
5,339167	0,1	-0,089920
5,340833	0,1	-0,119413
5,342500	0,1	-0,085987
5,344167	0,1	-0,076525
5,345833	0,1	-0,115612
5,347500	0,1	-0,099915
5,349167	0,1	-0,078133
5,350833	0,1	-0,077094
5,352500	0,1	-0,072526
5,354167	0,1	-0,077610
5,355833	0,1	-0,105155
5,357500	0,1	-0,067220
5,359167	0,1	-0,070593
5,360833	0,1	-0,077482
5,362500	0,1	-0,077002
5,364167	0,1	-0,085295
5,365833	0,1	-0,089069
5,367500	0,1	-0,049324
5,369167	0,1	-0,082498
5,370833	0,1	-0,059365
5,372500	0,1	-0,078513
5,374167	0,1	-0,072045
5,375833	0,1	-0,080989
5,377500	0,1	-0,053094
5,379167	0,1	-0,114485
5,380833	0,1	-0,079005
5,382500	0,1	-0,069300
5,384167	0,1	-0,096080
5,385833	0,1	-0,059469
5,387500	0,1	-0,092987
5,389167	0,1	-0,089578
5,390833	0,1	-0,088037
5,392500	0,1	-0,117609
5,394167	0,1	-0,102289
5,395833	0,1	-0,075658
5,397500	0,1	-0,084109
5,399167	0,1	-0,085525
5,400833	0,1	-0,085271
5,402500	0,1	-0,056821
5,404167	0,1	-0,051827
5,405833	0,1	-0,103834
5,407500	0,1	-0,052074
5,409167	0,1	-0,095585
5,410833	0,1	-0,072493
5,412500	0,1	-0,054723
5,414167	0,1	-0,111419
5,415833	0,1	-0,084897
5,417500	0,1	-0,080412
5,419167	0,1	-0,106984
5,420833	0,1	-0,084243
5,422500	0,1	-0,046786
5,424167	0,1	-0,072129
5,425833	0,1	-0,070395
5,427500	0,1	-0,099868
5,429167	0,1	-0,080453
5,430833	0,1	-0,118630
5,432500	0,1	-0,069027
5,434167	0,1	-0,074192
5,435833	0,1	-0,092763
5,437500	0,1	-0,074460
5,439167	0,1	-0,060904
5,440833	0,1	-0,099638
5,442500	0,1	-0,080698
5,444167	0,1	-0,080639
5,445833	0,1	-0,094822
5,447500	0,1	-0,043279
5,449167	0,1	-0,096454
5,450833	0,1	-0,046980
5,452500	0,1	-0,083332
5,454167	0,1	-0,029084
5,455833	0,1	-0,090859
5,457500	0,1	-0,132283
5,459167	0,1	-0,081647
5,460833	0,1	-0,091424
5,462500	0,1	-0,094571
5,464167	0,1	-0,071015
5,465833	0,1	-0,112358
5,467500	0,1	-0,081607
5,469167	0,1	-0,097814
5,470833	0,1	-0,125712
5,472500	0,1	-0,093102
5,474167	0,1	-0,086234
5,475833	0,1	-0,105927
5,477500	0,1	-0,098980
5,479167	0,1	-0,087240
5,480833	0,1	-0,091669
5,482500	0,1	-0,079092
5,484167	0,1	-0,092665
5,485833	0,1	-0,085137
5,487500	0,1	-0,113068
5,489167	0,1	-0,071374
5,490833	0,1	-0,082431
5,492500	0,1	-0,115223
5,494167	0,1	-0,089520
5,495833	0,1	-0,063300
5,497500	0,1	-0,063704
5,499167	0,1	-0,097655
5,500833	0,1	-0,104516
5,502500	0,1	-0,100809
5,504167	0,1	-0,126900
5,505833	0,1	-0,064778
5,507500	0,1	-0,105567
5,509167	0,1	-0,097303
5,510833	0,1	-0,054829
5,512500	0,1	-0,079853
5,514167	0,1	-0,082759
5,515833	0,1	-0,107692
5,517500	0,1	-0,100166
5,519167	0,1	-0,087295
5,520833	0,1	-0,079090
5,522500	0,1	-0,098393
5,524167	0,1	-0,065995
5,525833	0,1	-0,093886
5,527500	0,1	-0,102701
5,529167	0,1	-0,063231
5,530833	0,1	-0,115155
5,532500	0,1	-0,111824
5,534167	0,1	-0,109502
5,535833	0,1	-0,107761
5,537500	0,1	-0,081996
5,539167	0,1	-0,091224
5,540833	0,1	-0,079516
5,542500	0,1	-0,098393
5,544167	0,1	-0,130318
5,545833	0,1	-0,080388
5,547500	0,1	-0,113620
5,549167	0,1	-0,078136
5,550833	0,1	-0,098076
5,552500	0,1	-0,092769
5,554167	0,1	-0,062940
5,555833	0,1	-0,097075
5,557500	0,1	-0,095370
5,559167	0,1	-0,088872
5,560833	0,1	-0,033717
5,562500	0,1	-0,070294
5,564167	0,1	-0,054985
5,565833	0,1	-0,120554
5,567500	0,1	-0,107739
5,569167	0,1	-0,070701
5,570833	0,1	-0,088828
5,572500	0,1	-0,055887
5,574167	0,1	-0,079372
5,575833	0,1	-0,095313
5,577500	0,1	-0,123883
5,579167	0,1	-0,096056
5,580833	0,1	-0,066421
5,582500	0,1	-0,085394
5,584167	0,1	-0,062647
5,585833	0,1	-0,115482
5,587500	0,1	-0,067159
5,589167	0,1	-0,065607
5,590833	0,1	-0,060060
5,592500	0,1	-0,097682
5,594167	0,1	-0,056795
5,595833	0,1	-0,073771
5,597500	0,1	-0,039667
5,599167	0,1	-0,060380
5,600833	0,1	-0,058780
5,602500	0,1	-0,072611
5,604167	0,1	-0,063579
5,605833	0,1	-0,094602
5,607500	0,1	-0,136751
5,609167	0,1	-0,130390
5,610833	0,1	-0,073309
5,612500	0,1	-0,089482
5,614167	0,1	-0,103227
5,615833	0,1	-0,068227
5,617500	0,1	-0,076956
5,619167	0,1	-0,080828
5,620833	0,1	-0,137428
5,622500	0,1	-0,089624
5,624167	0,1	-0,069274
5,625833	0,1	-0,082567
5,627500	0,1	-0,076297
5,629167	0,1	-0,084144
5,630833	0,1	-0,059013
5,632500	0,1	-0,077153
5,634167	0,1	-0,107047
5,635833	0,1	-0,074011
5,637500	0,1	-0,070367
5,639167	0,1	-0,092030
5,640833	0,1	-0,070527
5,642500	0,1	-0,094920
5,644167	0,1	-0,081955
5,645833	0,1	-0,095085
5,647500	0,1	-0,068932
5,649167	0,1	-0,104154
5,650833	0,1	-0,056923
5,652500	0,1	-0,085490
5,654167	0,1	-0,096173
5,655833	0,1	-0,090321
5,657500	0,1	-0,104261
5,659167	0,1	-0,073113
5,660833	0,1	-0,116698
5,662500	0,1	-0,078163
5,664167	0,1	-0,102870
5,665833	0,1	-0,092998
5,667500	0,1	-0,121119
5,669167	0,1	-0,042091
5,670833	0,1	-0,073704
5,672500	0,1	-0,061069
5,674167	0,1	-0,092217
5,675833	0,1	-0,088418
5,677500	0,1	-0,091869
5,679167	0,1	-0,099972
5,680833	0,1	-0,100174
5,682500	0,1	-0,105449
5,684167	0,1	-0,113879
5,685833	0,1	-0,092674
5,687500	0,1	-0,078356
5,689167	0,1	-0,100197
5,690833	0,1	-0,094284
5,692500	0,1	-0,102775
5,694167	0,1	-0,023105
5,695833	0,1	-0,072649
5,697500	0,1	-0,119626
5,699167	0,1	-0,072054
5,700833	0,1	-0,090261
5,702500	0,1	-0,084946
5,704167	0,1	-0,103451
5,705833	0,1	-0,117665
5,707500	0,1	-0,069996
5,709167	0,1	-0,138712
5,710833	0,1	-0,108766
5,712500	0,1	-0,101073
5,714167	0,1	-0,122243
5,715833	0,1	-0,070543
5,717500	0,1	-0,088359
5,719167	0,1	-0,090747
5,720833	0,1	-0,085273
5,722500	0,1	-0,086042
5,724167	0,1	-0,073651
5,725833	0,1	-0,102516
5,727500	0,1	-0,097664
5,729167	0,1	-0,067735
5,730833	0,1	-0,092663
5,732500	0,1	-0,090285
5,734167	0,1	-0,093638
5,735833	0,1	-0,121446
5,737500	0,1	-0,101140
5,739167	0,1	-0,106673
5,740833	0,1	-0,080319
5,742500	0,1	-0,112459
5,744167	0,1	-0,112467
5,745833	0,1	-0,092909
5,747500	0,1	-0,064934
5,749167	0,1	-0,083171
5,750833	0,1	-0,072562
5,752500	0,1	-0,089291
5,754167	0,1	-0,114318
5,755833	0,1	-0,097477
5,757500	0,1	-0,073019
5,759167	0,1	-0,091260
5,760833	0,1	-0,096476
5,762500	0,1	-0,081312
5,764167	0,1	-0,055377
5,765833	0,1	-0,069113
5,767500	0,1	-0,098274
5,769167	0,1	-0,068959
5,770833	0,1	-0,081597
5,772500	0,1	-0,054797
5,774167	0,1	-0,130596
5,775833	0,1	-0,079707
5,777500	0,1	-0,073015
5,779167	0,1	-0,049837
5,780833	0,1	-0,050051
5,782500	0,1	-0,100869
5,784167	0,1	-0,078938
5,785833	0,1	-0,066507
5,787500	0,1	-0,079628
5,789167	0,1	-0,118388
5,790833	0,1	-0,070577
5,792500	0,1	-0,095726
5,794167	0,1	-0,088038
5,795833	0,1	-0,059176
5,797500	0,1	-0,112102
5,799167	0,1	-0,084089
5,800833	0,1	-0,100687
5,802500	0,1	-0,063358
5,804167	0,1	-0,077934
5,805833	0,1	-0,076549
5,807500	0,1	-0,049875
5,809167	0,1	-0,098913
5,810833	0,1	-0,108251
5,812500	0,1	-0,092644
5,814167	0,1	-0,098432
5,815833	0,1	-0,105993
5,817500	0,1	-0,101111
5,819167	0,1	-0,091257
5,820833	0,1	-0,089071
5,822500	0,1	-0,069438
5,824167	0,1	-0,105895
5,825833	0,1	-0,108931
5,827500	0,1	-0,066678
5,829167	0,1	-0,088548
5,830833	0,1	-0,067542
5,832500	0,1	-0,066605
5,834167	0,1	-0,079637
5,835833	0,1	-0,109923
5,837500	0,1	-0,072442
5,839167	0,1	-0,099007
5,840833	0,1	-0,089643
5,842500	0,1	-0,089260
5,844167	0,1	-0,066446
5,845833	0,1	-0,103348
5,847500	0,1	-0,087080
5,849167	0,1	-0,044819
5,850833	0,1	-0,094271
5,852500	0,1	-0,088453
5,854167	0,1	-0,074168
5,855833	0,1	-0,069342
5,857500	0,1	-0,129288
5,859167	0,1	-0,098694
5,860833	0,1	-0,103961
5,862500	0,1	-0,116843
5,864167	0,1	-0,078299
5,865833	0,1	-0,079805
5,867500	0,1	-0,108218
5,869167	0,1	-0,114523
5,870833	0,1	-0,098827
5,872500	0,1	-0,055283
5,874167	0,1	-0,048029
5,875833	0,1	-0,091371
5,877500	0,1	-0,109356
5,879167	0,1	-0,074436
5,880833	0,1	-0,085659
5,882500	0,1	-0,057718
5,884167	0,1	-0,076772
5,885833	0,1	-0,084299
5,887500	0,1	-0,073552
5,889167	0,1	-0,101039
5,890833	0,1	-0,106926
5,892500	0,1	-0,117261
5,894167	0,1	-0,068611
5,895833	0,1	-0,072804
5,897500	0,1	-0,054922
5,899167	0,1	-0,073490
5,900833	0,1	-0,086692
5,902500	0,1	-0,049623
5,904167	0,1	-0,095014
5,905833	0,1	-0,076816
5,907500	0,1	-0,132796
5,909167	0,1	-0,075656
5,910833	0,1	-0,094088
5,912500	0,1	-0,082890
5,914167	0,1	-0,100360
5,915833	0,1	-0,081703
5,917500	0,1	-0,078100
5,919167	0,1	-0,041281
5,920833	0,1	-0,084326
5,922500	0,1	-0,130125
5,924167	0,1	-0,087856
5,925833	0,1	-0,124940
5,927500	0,1	-0,074722
5,929167	0,1	-0,080320
5,930833	0,1	-0,102163
5,932500	0,1	-0,045466
5,934167	0,1	-0,074547
5,935833	0,1	-0,091866
5,937500	0,1	-0,107996
5,939167	0,1	-0,083727
5,940833	0,1	-0,085208
5,942500	0,1	-0,083785
5,944167	0,1	-0,086783
5,945833	0,1	-0,085878
5,947500	0,1	-0,105572
5,949167	0,1	-0,105288
5,950833	0,1	-0,080417
5,952500	0,1	-0,093018
5,954167	0,1	-0,102521
5,955833	0,1	-0,117612
5,957500	0,1	-0,098691
5,959167	0,1	-0,074262
5,960833	0,1	-0,139874
5,962500	0,1	-0,083871
5,964167	0,1	-0,120525
5,965833	0,1	-0,107184
5,967500	0,1	-0,055793
5,969167	0,1	-0,079409
5,970833	0,1	-0,086329
5,972500	0,1	-0,097045
5,974167	0,1	-0,073209
5,975833	0,1	-0,091323
5,977500	0,1	-0,063130
5,979167	0,1	-0,076891
5,980833	0,1	-0,047944
5,982500	0,1	-0,066952
5,984167	0,1	-0,071300
5,985833	0,1	-0,080247
5,987500	0,1	-0,071075
5,989167	0,1	-0,118603
5,990833	0,1	-0,126790
5,992500	0,1	-0,043578
5,994167	0,1	-0,090473
5,995833	0,1	-0,094761
5,997500	0,1	-0,083378
5,999167	0,1	-0,066762
6,000833	0,1	-0,116317
