File Path	chrom://chromeleon01/ikbm_chromeleon/2022/Rezex/Esteban/220612_chitin_4_7.seq/227.smp/UV_VIS_1.channel/UV_VIS_1.chm
Channel	UV_VIS_1

Injection Information:
Data Vault	ikbm_chromeleon
Injection	Blank__3
Injection Number	3
Position	RA1
Comment	
Processing Method	New ProcMethod
Instrument Method	Short_Rezex_6min_194nm
Type	Blank
Status	Finished
Injection Date	12.06.2022
Injection Time	17:26:43
Injection Volume (µl)	8,000
Dilution Factor	1,0000
Weight	1,0000

Chromatogram Data Information:
Time Min. (min)	0,000833
Time Max. (min)	6,000833
Data Points	3601
Detector	UV
Generating Data System	Chromeleon 7.2.9.11323
Exporting Data System	Chromeleon 7.2.9.0
Operator	Instrument Controller
Signal Quantity	Absorbance
Signal Unit	mAU
Signal Min.	-0,050378
Signal Max.	0,618830
Channel	UV_VIS_1
Driver Name	VWD3000.dll
Channel Type	Evaluation
Min. Step (s)	0,1
Max. Step (s)	0,1
Average Step (s)	0,1

Signal Parameter Information:
Signal Info	WVL:194 nm

Chromatogram Data:
Time (min)	Step (s)	Value (mAU)
0,000833	n.a.	0,033342
0,002500	0,1	-0,014153
0,004167	0,1	-0,003267
0,005833	0,1	-0,035744
0,007500	0,1	0,022594
0,009167	0,1	-0,038654
0,010833	0,1	-0,038633
0,012500	0,1	0,009898
0,014167	0,1	0,007460
0,015833	0,1	-0,037239
0,017500	0,1	0,013461
0,019167	0,1	-0,014157
0,020833	0,1	-0,007304
0,022500	0,1	-0,009613
0,024167	0,1	-0,026180
0,025833	0,1	0,014010
0,027500	0,1	-0,008842
0,029167	0,1	-0,007859
0,030833	0,1	0,056882
0,032500	0,1	0,000383
0,034167	0,1	0,016848
0,035833	0,1	-0,001856
0,037500	0,1	-0,037762
0,039167	0,1	0,018566
0,040833	0,1	0,018007
0,042500	0,1	-0,001074
0,044167	0,1	0,046718
0,045833	0,1	0,004681
0,047500	0,1	-0,011673
0,049167	0,1	-0,001857
0,050833	0,1	0,017145
0,052500	0,1	-0,023818
0,054167	0,1	0,032939
0,055833	0,1	-0,032824
0,057500	0,1	0,046832
0,059167	0,1	-0,006602
0,060833	0,1	0,013424
0,062500	0,1	-0,015234
0,064167	0,1	-0,050378
0,065833	0,1	0,014569
0,067500	0,1	-0,022532
0,069167	0,1	0,015633
0,070833	0,1	-0,007262
0,072500	0,1	0,028729
0,074167	0,1	-0,037716
0,075833	0,1	0,008268
0,077500	0,1	-0,032055
0,079167	0,1	0,014696
0,080833	0,1	-0,016945
0,082500	0,1	0,006678
0,084167	0,1	0,049894
0,085833	0,1	-0,024577
0,087500	0,1	0,044895
0,089167	0,1	0,008800
0,090833	0,1	-0,017171
0,092500	0,1	0,051333
0,094167	0,1	0,007505
0,095833	0,1	-0,000132
0,097500	0,1	-0,028363
0,099167	0,1	0,003888
0,100833	0,1	-0,028406
0,102500	0,1	-0,010095
0,104167	0,1	0,024443
0,105833	0,1	0,003806
0,107500	0,1	0,005352
0,109167	0,1	0,009434
0,110833	0,1	0,018435
0,112500	0,1	0,019690
0,114167	0,1	0,030747
0,115833	0,1	-0,004719
0,117500	0,1	-0,013264
0,119167	0,1	0,025465
0,120833	0,1	0,015698
0,122500	0,1	0,031441
0,124167	0,1	0,025300
0,125833	0,1	0,003549
0,127500	0,1	0,031431
0,129167	0,1	-0,019272
0,130833	0,1	-0,016061
0,132500	0,1	0,025817
0,134167	0,1	-0,049168
0,135833	0,1	0,009025
0,137500	0,1	-0,005801
0,139167	0,1	-0,006316
0,140833	0,1	0,016246
0,142500	0,1	0,014921
0,144167	0,1	0,042728
0,145833	0,1	-0,018714
0,147500	0,1	0,017450
0,149167	0,1	-0,002368
0,150833	0,1	-0,005678
0,152500	0,1	0,009211
0,154167	0,1	0,012856
0,155833	0,1	-0,016272
0,157500	0,1	0,034644
0,159167	0,1	0,012781
0,160833	0,1	0,003423
0,162500	0,1	0,009512
0,164167	0,1	0,028946
0,165833	0,1	-0,010520
0,167500	0,1	-0,016401
0,169167	0,1	-0,002332
0,170833	0,1	0,029418
0,172500	0,1	0,006520
0,174167	0,1	-0,012456
0,175833	0,1	0,037694
0,177500	0,1	0,032002
0,179167	0,1	0,002872
0,180833	0,1	0,025550
0,182500	0,1	0,033974
0,184167	0,1	0,010552
0,185833	0,1	0,042039
0,187500	0,1	-0,000227
0,189167	0,1	0,004670
0,190833	0,1	0,013675
0,192500	0,1	-0,010867
0,194167	0,1	0,027529
0,195833	0,1	0,003418
0,197500	0,1	0,016760
0,199167	0,1	-0,001250
0,200833	0,1	0,008481
0,202500	0,1	0,023320
0,204167	0,1	0,015566
0,205833	0,1	-0,002588
0,207500	0,1	0,018266
0,209167	0,1	0,023887
0,210833	0,1	-0,021681
0,212500	0,1	0,014478
0,214167	0,1	0,020411
0,215833	0,1	0,043186
0,217500	0,1	0,038185
0,219167	0,1	0,008914
0,220833	0,1	0,032885
0,222500	0,1	0,019077
0,224167	0,1	0,029114
0,225833	0,1	0,029893
0,227500	0,1	0,016933
0,229167	0,1	-0,005249
0,230833	0,1	0,005296
0,232500	0,1	0,007318
0,234167	0,1	0,039887
0,235833	0,1	0,076626
0,237500	0,1	0,024589
0,239167	0,1	-0,000363
0,240833	0,1	-0,001182
0,242500	0,1	0,041091
0,244167	0,1	-0,023725
0,245833	0,1	0,029405
0,247500	0,1	0,000633
0,249167	0,1	0,000369
0,250833	0,1	0,005687
0,252500	0,1	0,017659
0,254167	0,1	0,026584
0,255833	0,1	-0,002761
0,257500	0,1	-0,000486
0,259167	0,1	0,013409
0,260833	0,1	0,009718
0,262500	0,1	-0,014035
0,264167	0,1	-0,001141
0,265833	0,1	-0,021380
0,267500	0,1	-0,015725
0,269167	0,1	0,033577
0,270833	0,1	0,021439
0,272500	0,1	-0,003186
0,274167	0,1	0,029278
0,275833	0,1	0,003120
0,277500	0,1	0,034049
0,279167	0,1	0,009167
0,280833	0,1	0,032455
0,282500	0,1	0,012385
0,284167	0,1	0,038811
0,285833	0,1	0,030450
0,287500	0,1	0,010074
0,289167	0,1	0,020227
0,290833	0,1	0,032925
0,292500	0,1	0,010579
0,294167	0,1	0,019160
0,295833	0,1	0,002640
0,297500	0,1	0,017007
0,299167	0,1	0,012937
0,300833	0,1	0,009040
0,302500	0,1	0,005045
0,304167	0,1	0,004699
0,305833	0,1	0,003456
0,307500	0,1	-0,019755
0,309167	0,1	0,008432
0,310833	0,1	0,007143
0,312500	0,1	0,001526
0,314167	0,1	0,019846
0,315833	0,1	0,032932
0,317500	0,1	0,022929
0,319167	0,1	0,042031
0,320833	0,1	0,010845
0,322500	0,1	0,039535
0,324167	0,1	-0,003401
0,325833	0,1	0,035457
0,327500	0,1	0,028555
0,329167	0,1	0,033622
0,330833	0,1	0,009089
0,332500	0,1	0,043915
0,334167	0,1	0,018701
0,335833	0,1	-0,013316
0,337500	0,1	0,001301
0,339167	0,1	-0,007178
0,340833	0,1	0,025768
0,342500	0,1	-0,002331
0,344167	0,1	0,023574
0,345833	0,1	0,011484
0,347500	0,1	0,030145
0,349167	0,1	0,028175
0,350833	0,1	0,017824
0,352500	0,1	0,054171
0,354167	0,1	0,040321
0,355833	0,1	0,030918
0,357500	0,1	-0,009540
0,359167	0,1	0,021296
0,360833	0,1	0,007623
0,362500	0,1	0,003969
0,364167	0,1	0,014901
0,365833	0,1	0,020696
0,367500	0,1	0,028596
0,369167	0,1	0,040304
0,370833	0,1	0,022941
0,372500	0,1	0,022981
0,374167	0,1	0,080251
0,375833	0,1	0,032983
0,377500	0,1	0,019386
0,379167	0,1	0,026584
0,380833	0,1	0,027565
0,382500	0,1	0,029540
0,384167	0,1	0,053433
0,385833	0,1	0,022388
0,387500	0,1	-0,028678
0,389167	0,1	0,007178
0,390833	0,1	0,037125
0,392500	0,1	0,034356
0,394167	0,1	0,033958
0,395833	0,1	0,046142
0,397500	0,1	0,005265
0,399167	0,1	0,000838
0,400833	0,1	0,067638
0,402500	0,1	0,050655
0,404167	0,1	0,014109
0,405833	0,1	0,038759
0,407500	0,1	0,021176
0,409167	0,1	0,035852
0,410833	0,1	0,002214
0,412500	0,1	0,043306
0,414167	0,1	0,011304
0,415833	0,1	0,070594
0,417500	0,1	0,027619
0,419167	0,1	0,030183
0,420833	0,1	0,009562
0,422500	0,1	0,070726
0,424167	0,1	0,023714
0,425833	0,1	0,015038
0,427500	0,1	0,000533
0,429167	0,1	-0,000880
0,430833	0,1	0,064553
0,432500	0,1	0,033156
0,434167	0,1	0,035580
0,435833	0,1	0,010712
0,437500	0,1	0,013535
0,439167	0,1	0,050907
0,440833	0,1	0,034985
0,442500	0,1	0,037830
0,444167	0,1	-0,000184
0,445833	0,1	0,006418
0,447500	0,1	0,048323
0,449167	0,1	0,027658
0,450833	0,1	0,027433
0,452500	0,1	0,005304
0,454167	0,1	0,029412
0,455833	0,1	0,002087
0,457500	0,1	0,011947
0,459167	0,1	0,033062
0,460833	0,1	0,019244
0,462500	0,1	0,032968
0,464167	0,1	0,050956
0,465833	0,1	0,027872
0,467500	0,1	0,041124
0,469167	0,1	0,014741
0,470833	0,1	0,053474
0,472500	0,1	0,021833
0,474167	0,1	0,022239
0,475833	0,1	0,034900
0,477500	0,1	0,053089
0,479167	0,1	0,032977
0,480833	0,1	0,046998
0,482500	0,1	0,036105
0,484167	0,1	0,006506
0,485833	0,1	0,042962
0,487500	0,1	0,033669
0,489167	0,1	0,046609
0,490833	0,1	0,047954
0,492500	0,1	0,045115
0,494167	0,1	0,046612
0,495833	0,1	0,027871
0,497500	0,1	0,050778
0,499167	0,1	0,063136
0,500833	0,1	0,046582
0,502500	0,1	0,030357
0,504167	0,1	0,085136
0,505833	0,1	0,057007
0,507500	0,1	0,046360
0,509167	0,1	0,025120
0,510833	0,1	0,035243
0,512500	0,1	0,058793
0,514167	0,1	0,030827
0,515833	0,1	0,027301
0,517500	0,1	0,056562
0,519167	0,1	0,063392
0,520833	0,1	0,048293
0,522500	0,1	0,042505
0,524167	0,1	0,031342
0,525833	0,1	0,035800
0,527500	0,1	0,052614
0,529167	0,1	0,016498
0,530833	0,1	0,025632
0,532500	0,1	0,029664
0,534167	0,1	0,065573
0,535833	0,1	0,054270
0,537500	0,1	0,082912
0,539167	0,1	0,028266
0,540833	0,1	0,065694
0,542500	0,1	0,059356
0,544167	0,1	0,023711
0,545833	0,1	0,035710
0,547500	0,1	0,077115
0,549167	0,1	0,041806
0,550833	0,1	0,061237
0,552500	0,1	0,025080
0,554167	0,1	0,048839
0,555833	0,1	0,049875
0,557500	0,1	0,031123
0,559167	0,1	0,045965
0,560833	0,1	0,062569
0,562500	0,1	0,034513
0,564167	0,1	0,070535
0,565833	0,1	0,035934
0,567500	0,1	0,029067
0,569167	0,1	0,046953
0,570833	0,1	0,037514
0,572500	0,1	0,071657
0,574167	0,1	0,036622
0,575833	0,1	0,075950
0,577500	0,1	0,042283
0,579167	0,1	0,055621
0,580833	0,1	0,026700
0,582500	0,1	0,019191
0,584167	0,1	0,087454
0,585833	0,1	0,068672
0,587500	0,1	0,045208
0,589167	0,1	0,041798
0,590833	0,1	0,029746
0,592500	0,1	0,039396
0,594167	0,1	0,056742
0,595833	0,1	0,058710
0,597500	0,1	0,092090
0,599167	0,1	0,049675
0,600833	0,1	0,040302
0,602500	0,1	0,068670
0,604167	0,1	0,013965
0,605833	0,1	0,076555
0,607500	0,1	0,064375
0,609167	0,1	0,047948
0,610833	0,1	0,075964
0,612500	0,1	0,052834
0,614167	0,1	0,068275
0,615833	0,1	-0,014738
0,617500	0,1	0,052257
0,619167	0,1	0,060587
0,620833	0,1	0,041856
0,622500	0,1	0,048832
0,624167	0,1	0,079637
0,625833	0,1	0,027137
0,627500	0,1	0,087700
0,629167	0,1	0,008564
0,630833	0,1	0,078308
0,632500	0,1	0,061502
0,634167	0,1	0,064106
0,635833	0,1	0,087842
0,637500	0,1	0,091098
0,639167	0,1	0,050510
0,640833	0,1	0,104561
0,642500	0,1	0,010333
0,644167	0,1	0,048103
0,645833	0,1	0,086551
0,647500	0,1	0,041465
0,649167	0,1	0,079691
0,650833	0,1	0,046267
0,652500	0,1	0,069251
0,654167	0,1	0,020312
0,655833	0,1	0,075515
0,657500	0,1	0,030655
0,659167	0,1	0,048741
0,660833	0,1	0,061186
0,662500	0,1	0,050980
0,664167	0,1	0,050246
0,665833	0,1	0,039225
0,667500	0,1	0,078649
0,669167	0,1	0,061668
0,670833	0,1	0,072218
0,672500	0,1	0,091307
0,674167	0,1	0,055967
0,675833	0,1	0,064237
0,677500	0,1	0,064540
0,679167	0,1	0,076901
0,680833	0,1	0,068924
0,682500	0,1	0,059268
0,684167	0,1	0,046386
0,685833	0,1	0,083333
0,687500	0,1	0,018253
0,689167	0,1	0,037676
0,690833	0,1	0,043208
0,692500	0,1	0,073235
0,694167	0,1	0,057242
0,695833	0,1	0,080717
0,697500	0,1	0,101695
0,699167	0,1	0,064416
0,700833	0,1	0,076213
0,702500	0,1	0,078047
0,704167	0,1	0,107231
0,705833	0,1	0,076002
0,707500	0,1	0,065907
0,709167	0,1	0,056384
0,710833	0,1	0,035832
0,712500	0,1	0,075474
0,714167	0,1	0,061358
0,715833	0,1	0,057504
0,717500	0,1	0,066035
0,719167	0,1	0,088775
0,720833	0,1	0,082776
0,722500	0,1	0,049397
0,724167	0,1	0,040125
0,725833	0,1	0,044283
0,727500	0,1	0,055558
0,729167	0,1	0,077144
0,730833	0,1	0,076205
0,732500	0,1	0,077060
0,734167	0,1	0,037036
0,735833	0,1	0,076673
0,737500	0,1	0,078867
0,739167	0,1	0,091353
0,740833	0,1	0,060552
0,742500	0,1	0,108038
0,744167	0,1	0,052745
0,745833	0,1	0,053376
0,747500	0,1	0,082292
0,749167	0,1	0,066475
0,750833	0,1	0,096921
0,752500	0,1	0,066812
0,754167	0,1	0,076724
0,755833	0,1	0,098775
0,757500	0,1	0,061242
0,759167	0,1	0,080107
0,760833	0,1	0,030347
0,762500	0,1	0,075461
0,764167	0,1	0,099541
0,765833	0,1	0,043910
0,767500	0,1	0,069816
0,769167	0,1	0,077956
0,770833	0,1	0,063844
0,772500	0,1	0,069810
0,774167	0,1	0,064630
0,775833	0,1	0,048150
0,777500	0,1	0,080570
0,779167	0,1	0,071446
0,780833	0,1	0,069425
0,782500	0,1	0,120434
0,784167	0,1	0,071190
0,785833	0,1	0,084481
0,787500	0,1	0,045017
0,789167	0,1	0,077186
0,790833	0,1	0,079369
0,792500	0,1	0,089809
0,794167	0,1	0,060552
0,795833	0,1	0,059214
0,797500	0,1	0,058437
0,799167	0,1	0,102277
0,800833	0,1	0,056782
0,802500	0,1	0,099493
0,804167	0,1	0,102376
0,805833	0,1	0,117224
0,807500	0,1	0,102979
0,809167	0,1	0,141894
0,810833	0,1	0,087551
0,812500	0,1	0,080148
0,814167	0,1	0,082685
0,815833	0,1	0,071447
0,817500	0,1	0,114553
0,819167	0,1	0,084837
0,820833	0,1	0,058477
0,822500	0,1	0,082459
0,824167	0,1	0,068008
0,825833	0,1	0,079544
0,827500	0,1	0,108553
0,829167	0,1	0,019157
0,830833	0,1	0,108016
0,832500	0,1	0,110434
0,834167	0,1	0,076768
0,835833	0,1	0,040721
0,837500	0,1	0,069663
0,839167	0,1	0,087400
0,840833	0,1	0,059687
0,842500	0,1	0,126512
0,844167	0,1	0,083629
0,845833	0,1	0,119705
0,847500	0,1	0,093881
0,849167	0,1	0,037551
0,850833	0,1	0,091632
0,852500	0,1	0,084020
0,854167	0,1	0,079758
0,855833	0,1	0,071234
0,857500	0,1	0,099106
0,859167	0,1	0,080617
0,860833	0,1	0,075807
0,862500	0,1	0,109706
0,864167	0,1	0,091992
0,865833	0,1	0,106625
0,867500	0,1	0,116704
0,869167	0,1	0,096156
0,870833	0,1	0,091002
0,872500	0,1	0,088303
0,874167	0,1	0,080780
0,875833	0,1	0,095903
0,877500	0,1	0,085898
0,879167	0,1	0,082344
0,880833	0,1	0,114378
0,882500	0,1	0,069037
0,884167	0,1	0,061392
0,885833	0,1	0,101247
0,887500	0,1	0,085820
0,889167	0,1	0,110619
0,890833	0,1	0,142139
0,892500	0,1	0,104440
0,894167	0,1	0,108502
0,895833	0,1	0,103443
0,897500	0,1	0,089339
0,899167	0,1	0,068818
0,900833	0,1	0,082638
0,902500	0,1	0,143629
0,904167	0,1	0,081915
0,905833	0,1	0,094217
0,907500	0,1	0,090967
0,909167	0,1	0,094063
0,910833	0,1	0,112228
0,912500	0,1	0,067926
0,914167	0,1	0,065773
0,915833	0,1	0,085802
0,917500	0,1	0,057402
0,919167	0,1	0,092357
0,920833	0,1	0,106270
0,922500	0,1	0,088796
0,924167	0,1	0,119963
0,925833	0,1	0,099407
0,927500	0,1	0,105327
0,929167	0,1	0,138797
0,930833	0,1	0,095305
0,932500	0,1	0,112063
0,934167	0,1	0,091251
0,935833	0,1	0,092932
0,937500	0,1	0,090101
0,939167	0,1	0,127043
0,940833	0,1	0,076462
0,942500	0,1	0,118783
0,944167	0,1	0,081431
0,945833	0,1	0,055603
0,947500	0,1	0,075890
0,949167	0,1	0,127372
0,950833	0,1	0,094615
0,952500	0,1	0,058401
0,954167	0,1	0,046500
0,955833	0,1	0,106592
0,957500	0,1	0,095253
0,959167	0,1	0,137674
0,960833	0,1	0,113826
0,962500	0,1	0,117915
0,964167	0,1	0,140864
0,965833	0,1	0,141801
0,967500	0,1	0,107702
0,969167	0,1	0,126212
0,970833	0,1	0,090056
0,972500	0,1	0,071481
0,974167	0,1	0,099661
0,975833	0,1	0,082504
0,977500	0,1	0,054140
0,979167	0,1	0,112019
0,980833	0,1	0,097908
0,982500	0,1	0,081393
0,984167	0,1	0,129482
0,985833	0,1	0,138803
0,987500	0,1	0,084787
0,989167	0,1	0,110295
0,990833	0,1	0,062521
0,992500	0,1	0,079286
0,994167	0,1	0,110217
0,995833	0,1	0,113487
0,997500	0,1	0,116439
0,999167	0,1	0,091429
1,000833	0,1	0,092321
1,002500	0,1	0,073324
1,004167	0,1	0,115619
1,005833	0,1	0,111979
1,007500	0,1	0,092326
1,009167	0,1	0,098836
1,010833	0,1	0,051279
1,012500	0,1	0,102653
1,014167	0,1	0,104897
1,015833	0,1	0,094343
1,017500	0,1	0,140026
1,019167	0,1	0,094529
1,020833	0,1	0,118753
1,022500	0,1	0,122743
1,024167	0,1	0,107476
1,025833	0,1	0,132573
1,027500	0,1	0,121692
1,029167	0,1	0,113744
1,030833	0,1	0,112578
1,032500	0,1	0,099151
1,034167	0,1	0,090693
1,035833	0,1	0,111374
1,037500	0,1	0,130242
1,039167	0,1	0,105591
1,040833	0,1	0,123528
1,042500	0,1	0,127428
1,044167	0,1	0,144985
1,045833	0,1	0,127331
1,047500	0,1	0,121712
1,049167	0,1	0,124418
1,050833	0,1	0,123477
1,052500	0,1	0,100308
1,054167	0,1	0,146597
1,055833	0,1	0,117735
1,057500	0,1	0,142185
1,059167	0,1	0,081183
1,060833	0,1	0,121868
1,062500	0,1	0,111381
1,064167	0,1	0,088033
1,065833	0,1	0,112404
1,067500	0,1	0,100660
1,069167	0,1	0,104085
1,070833	0,1	0,088929
1,072500	0,1	0,083833
1,074167	0,1	0,134874
1,075833	0,1	0,133644
1,077500	0,1	0,131724
1,079167	0,1	0,111504
1,080833	0,1	0,133516
1,082500	0,1	0,129316
1,084167	0,1	0,079760
1,085833	0,1	0,129602
1,087500	0,1	0,102583
1,089167	0,1	0,102921
1,090833	0,1	0,115359
1,092500	0,1	0,092770
1,094167	0,1	0,098747
1,095833	0,1	0,102699
1,097500	0,1	0,117368
1,099167	0,1	0,104856
1,100833	0,1	0,094045
1,102500	0,1	0,117921
1,104167	0,1	0,092150
1,105833	0,1	0,108921
1,107500	0,1	0,134880
1,109167	0,1	0,116099
1,110833	0,1	0,142561
1,112500	0,1	0,126700
1,114167	0,1	0,098632
1,115833	0,1	0,109699
1,117500	0,1	0,148695
1,119167	0,1	0,118201
1,120833	0,1	0,131963
1,122500	0,1	0,162428
1,124167	0,1	0,100016
1,125833	0,1	0,126556
1,127500	0,1	0,081899
1,129167	0,1	0,117151
1,130833	0,1	0,131364
1,132500	0,1	0,115756
1,134167	0,1	0,126936
1,135833	0,1	0,141174
1,137500	0,1	0,141202
1,139167	0,1	0,144242
1,140833	0,1	0,113749
1,142500	0,1	0,092916
1,144167	0,1	0,149126
1,145833	0,1	0,122539
1,147500	0,1	0,113090
1,149167	0,1	0,084216
1,150833	0,1	0,138569
1,152500	0,1	0,139092
1,154167	0,1	0,155094
1,155833	0,1	0,156519
1,157500	0,1	0,136580
1,159167	0,1	0,120294
1,160833	0,1	0,154970
1,162500	0,1	0,120609
1,164167	0,1	0,123209
1,165833	0,1	0,143326
1,167500	0,1	0,134410
1,169167	0,1	0,117554
1,170833	0,1	0,105699
1,172500	0,1	0,140940
1,174167	0,1	0,127452
1,175833	0,1	0,073023
1,177500	0,1	0,121100
1,179167	0,1	0,123476
1,180833	0,1	0,093039
1,182500	0,1	0,111241
1,184167	0,1	0,144834
1,185833	0,1	0,119474
1,187500	0,1	0,130378
1,189167	0,1	0,142564
1,190833	0,1	0,120818
1,192500	0,1	0,157951
1,194167	0,1	0,101036
1,195833	0,1	0,118700
1,197500	0,1	0,107595
1,199167	0,1	0,148441
1,200833	0,1	0,118933
1,202500	0,1	0,121412
1,204167	0,1	0,119691
1,205833	0,1	0,136502
1,207500	0,1	0,142176
1,209167	0,1	0,131848
1,210833	0,1	0,110683
1,212500	0,1	0,148651
1,214167	0,1	0,115880
1,215833	0,1	0,162723
1,217500	0,1	0,117650
1,219167	0,1	0,151361
1,220833	0,1	0,116315
1,222500	0,1	0,122099
1,224167	0,1	0,144538
1,225833	0,1	0,155217
1,227500	0,1	0,141205
1,229167	0,1	0,126553
1,230833	0,1	0,157844
1,232500	0,1	0,116094
1,234167	0,1	0,121709
1,235833	0,1	0,150782
1,237500	0,1	0,136821
1,239167	0,1	0,158687
1,240833	0,1	0,138186
1,242500	0,1	0,100854
1,244167	0,1	0,088496
1,245833	0,1	0,154769
1,247500	0,1	0,110257
1,249167	0,1	0,149659
1,250833	0,1	0,130550
1,252500	0,1	0,127806
1,254167	0,1	0,111493
1,255833	0,1	0,111743
1,257500	0,1	0,115484
1,259167	0,1	0,115184
1,260833	0,1	0,147607
1,262500	0,1	0,160832
1,264167	0,1	0,129854
1,265833	0,1	0,150675
1,267500	0,1	0,166492
1,269167	0,1	0,140598
1,270833	0,1	0,125998
1,272500	0,1	0,146322
1,274167	0,1	0,130939
1,275833	0,1	0,124698
1,277500	0,1	0,128914
1,279167	0,1	0,144228
1,280833	0,1	0,135310
1,282500	0,1	0,100121
1,284167	0,1	0,165103
1,285833	0,1	0,151525
1,287500	0,1	0,158902
1,289167	0,1	0,107440
1,290833	0,1	0,151168
1,292500	0,1	0,127531
1,294167	0,1	0,143238
1,295833	0,1	0,157014
1,297500	0,1	0,127378
1,299167	0,1	0,164853
1,300833	0,1	0,123775
1,302500	0,1	0,149406
1,304167	0,1	0,132648
1,305833	0,1	0,154601
1,307500	0,1	0,167538
1,309167	0,1	0,133594
1,310833	0,1	0,154527
1,312500	0,1	0,144412
1,314167	0,1	0,155861
1,315833	0,1	0,139339
1,317500	0,1	0,172326
1,319167	0,1	0,157963
1,320833	0,1	0,152512
1,322500	0,1	0,119821
1,324167	0,1	0,151617
1,325833	0,1	0,146596
1,327500	0,1	0,128275
1,329167	0,1	0,133707
1,330833	0,1	0,143373
1,332500	0,1	0,139113
1,334167	0,1	0,135774
1,335833	0,1	0,147236
1,337500	0,1	0,098494
1,339167	0,1	0,158901
1,340833	0,1	0,132572
1,342500	0,1	0,145981
1,344167	0,1	0,107548
1,345833	0,1	0,148293
1,347500	0,1	0,164081
1,349167	0,1	0,133549
1,350833	0,1	0,147923
1,352500	0,1	0,149980
1,354167	0,1	0,131060
1,355833	0,1	0,157399
1,357500	0,1	0,134968
1,359167	0,1	0,125565
1,360833	0,1	0,144004
1,362500	0,1	0,137528
1,364167	0,1	0,126165
1,365833	0,1	0,177606
1,367500	0,1	0,137369
1,369167	0,1	0,140056
1,370833	0,1	0,127884
1,372500	0,1	0,138945
1,374167	0,1	0,166966
1,375833	0,1	0,161990
1,377500	0,1	0,147331
1,379167	0,1	0,167299
1,380833	0,1	0,163576
1,382500	0,1	0,129433
1,384167	0,1	0,169660
1,385833	0,1	0,132564
1,387500	0,1	0,155814
1,389167	0,1	0,113951
1,390833	0,1	0,153700
1,392500	0,1	0,162974
1,394167	0,1	0,153366
1,395833	0,1	0,169844
1,397500	0,1	0,146932
1,399167	0,1	0,118088
1,400833	0,1	0,160691
1,402500	0,1	0,164441
1,404167	0,1	0,157317
1,405833	0,1	0,152378
1,407500	0,1	0,111876
1,409167	0,1	0,145377
1,410833	0,1	0,176443
1,412500	0,1	0,156245
1,414167	0,1	0,123294
1,415833	0,1	0,161080
1,417500	0,1	0,133161
1,419167	0,1	0,118650
1,420833	0,1	0,128002
1,422500	0,1	0,127570
1,424167	0,1	0,187666
1,425833	0,1	0,159451
1,427500	0,1	0,130706
1,429167	0,1	0,118338
1,430833	0,1	0,124096
1,432500	0,1	0,142206
1,434167	0,1	0,164258
1,435833	0,1	0,162332
1,437500	0,1	0,130796
1,439167	0,1	0,155921
1,440833	0,1	0,128442
1,442500	0,1	0,131787
1,444167	0,1	0,140387
1,445833	0,1	0,153182
1,447500	0,1	0,151344
1,449167	0,1	0,156551
1,450833	0,1	0,159700
1,452500	0,1	0,153532
1,454167	0,1	0,131526
1,455833	0,1	0,119848
1,457500	0,1	0,156186
1,459167	0,1	0,144323
1,460833	0,1	0,170128
1,462500	0,1	0,147277
1,464167	0,1	0,186429
1,465833	0,1	0,173956
1,467500	0,1	0,120980
1,469167	0,1	0,172608
1,470833	0,1	0,172561
1,472500	0,1	0,136381
1,474167	0,1	0,143107
1,475833	0,1	0,160486
1,477500	0,1	0,155177
1,479167	0,1	0,136076
1,480833	0,1	0,160038
1,482500	0,1	0,150824
1,484167	0,1	0,150234
1,485833	0,1	0,160354
1,487500	0,1	0,163994
1,489167	0,1	0,190685
1,490833	0,1	0,167264
1,492500	0,1	0,162768
1,494167	0,1	0,156049
1,495833	0,1	0,151422
1,497500	0,1	0,179785
1,499167	0,1	0,141774
1,500833	0,1	0,158886
1,502500	0,1	0,185278
1,504167	0,1	0,199865
1,505833	0,1	0,181337
1,507500	0,1	0,143449
1,509167	0,1	0,153247
1,510833	0,1	0,151887
1,512500	0,1	0,160807
1,514167	0,1	0,184590
1,515833	0,1	0,139513
1,517500	0,1	0,160008
1,519167	0,1	0,175970
1,520833	0,1	0,182932
1,522500	0,1	0,197933
1,524167	0,1	0,179495
1,525833	0,1	0,167339
1,527500	0,1	0,168501
1,529167	0,1	0,193770
1,530833	0,1	0,186020
1,532500	0,1	0,171006
1,534167	0,1	0,173008
1,535833	0,1	0,181497
1,537500	0,1	0,136760
1,539167	0,1	0,144171
1,540833	0,1	0,190558
1,542500	0,1	0,156490
1,544167	0,1	0,156825
1,545833	0,1	0,152186
1,547500	0,1	0,152319
1,549167	0,1	0,153441
1,550833	0,1	0,182747
1,552500	0,1	0,174941
1,554167	0,1	0,180598
1,555833	0,1	0,166976
1,557500	0,1	0,180762
1,559167	0,1	0,157143
1,560833	0,1	0,172438
1,562500	0,1	0,187123
1,564167	0,1	0,164588
1,565833	0,1	0,206971
1,567500	0,1	0,202998
1,569167	0,1	0,159023
1,570833	0,1	0,133657
1,572500	0,1	0,194748
1,574167	0,1	0,153917
1,575833	0,1	0,179529
1,577500	0,1	0,127404
1,579167	0,1	0,207770
1,580833	0,1	0,164006
1,582500	0,1	0,173906
1,584167	0,1	0,167847
1,585833	0,1	0,168534
1,587500	0,1	0,213274
1,589167	0,1	0,168557
1,590833	0,1	0,169565
1,592500	0,1	0,206028
1,594167	0,1	0,166446
1,595833	0,1	0,173158
1,597500	0,1	0,157219
1,599167	0,1	0,163216
1,600833	0,1	0,179877
1,602500	0,1	0,145201
1,604167	0,1	0,167331
1,605833	0,1	0,180628
1,607500	0,1	0,170933
1,609167	0,1	0,153298
1,610833	0,1	0,119288
1,612500	0,1	0,169375
1,614167	0,1	0,207255
1,615833	0,1	0,192745
1,617500	0,1	0,178883
1,619167	0,1	0,175870
1,620833	0,1	0,199398
1,622500	0,1	0,179227
1,624167	0,1	0,155677
1,625833	0,1	0,162993
1,627500	0,1	0,103545
1,629167	0,1	0,173966
1,630833	0,1	0,165407
1,632500	0,1	0,172005
1,634167	0,1	0,199083
1,635833	0,1	0,145805
1,637500	0,1	0,193764
1,639167	0,1	0,199255
1,640833	0,1	0,171938
1,642500	0,1	0,186345
1,644167	0,1	0,170347
1,645833	0,1	0,140961
1,647500	0,1	0,193568
1,649167	0,1	0,211858
1,650833	0,1	0,199227
1,652500	0,1	0,182507
1,654167	0,1	0,232331
1,655833	0,1	0,148209
1,657500	0,1	0,209840
1,659167	0,1	0,141183
1,660833	0,1	0,170113
1,662500	0,1	0,188874
1,664167	0,1	0,159693
1,665833	0,1	0,189846
1,667500	0,1	0,139534
1,669167	0,1	0,183286
1,670833	0,1	0,177337
1,672500	0,1	0,147730
1,674167	0,1	0,208463
1,675833	0,1	0,222503
1,677500	0,1	0,200683
1,679167	0,1	0,169663
1,680833	0,1	0,187363
1,682500	0,1	0,175783
1,684167	0,1	0,185344
1,685833	0,1	0,150593
1,687500	0,1	0,190711
1,689167	0,1	0,171668
1,690833	0,1	0,252539
1,692500	0,1	0,218293
1,694167	0,1	0,160046
1,695833	0,1	0,224903
1,697500	0,1	0,230756
1,699167	0,1	0,169747
1,700833	0,1	0,153699
1,702500	0,1	0,199767
1,704167	0,1	0,194062
1,705833	0,1	0,223517
1,707500	0,1	0,185356
1,709167	0,1	0,164677
1,710833	0,1	0,208617
1,712500	0,1	0,180427
1,714167	0,1	0,155442
1,715833	0,1	0,187315
1,717500	0,1	0,188267
1,719167	0,1	0,194060
1,720833	0,1	0,191561
1,722500	0,1	0,194480
1,724167	0,1	0,176729
1,725833	0,1	0,178998
1,727500	0,1	0,173805
1,729167	0,1	0,148239
1,730833	0,1	0,172901
1,732500	0,1	0,186944
1,734167	0,1	0,155698
1,735833	0,1	0,195714
1,737500	0,1	0,193252
1,739167	0,1	0,247287
1,740833	0,1	0,157866
1,742500	0,1	0,194770
1,744167	0,1	0,215465
1,745833	0,1	0,168442
1,747500	0,1	0,173147
1,749167	0,1	0,197438
1,750833	0,1	0,189092
1,752500	0,1	0,184060
1,754167	0,1	0,193159
1,755833	0,1	0,216409
1,757500	0,1	0,151512
1,759167	0,1	0,187615
1,760833	0,1	0,185827
1,762500	0,1	0,188654
1,764167	0,1	0,190288
1,765833	0,1	0,182773
1,767500	0,1	0,184702
1,769167	0,1	0,222033
1,770833	0,1	0,191583
1,772500	0,1	0,199898
1,774167	0,1	0,175711
1,775833	0,1	0,190749
1,777500	0,1	0,238545
1,779167	0,1	0,143572
1,780833	0,1	0,189198
1,782500	0,1	0,232364
1,784167	0,1	0,180120
1,785833	0,1	0,178176
1,787500	0,1	0,204698
1,789167	0,1	0,214256
1,790833	0,1	0,170807
1,792500	0,1	0,188007
1,794167	0,1	0,189718
1,795833	0,1	0,193625
1,797500	0,1	0,225912
1,799167	0,1	0,171123
1,800833	0,1	0,210265
1,802500	0,1	0,186163
1,804167	0,1	0,186768
1,805833	0,1	0,174930
1,807500	0,1	0,180407
1,809167	0,1	0,207619
1,810833	0,1	0,185384
1,812500	0,1	0,161370
1,814167	0,1	0,181002
1,815833	0,1	0,201766
1,817500	0,1	0,187582
1,819167	0,1	0,172252
1,820833	0,1	0,147941
1,822500	0,1	0,188600
1,824167	0,1	0,194524
1,825833	0,1	0,206454
1,827500	0,1	0,232787
1,829167	0,1	0,182140
1,830833	0,1	0,173374
1,832500	0,1	0,207691
1,834167	0,1	0,194887
1,835833	0,1	0,212742
1,837500	0,1	0,266440
1,839167	0,1	0,217188
1,840833	0,1	0,163204
1,842500	0,1	0,215966
1,844167	0,1	0,195549
1,845833	0,1	0,226871
1,847500	0,1	0,209260
1,849167	0,1	0,207671
1,850833	0,1	0,193796
1,852500	0,1	0,213953
1,854167	0,1	0,207777
1,855833	0,1	0,209108
1,857500	0,1	0,208554
1,859167	0,1	0,200664
1,860833	0,1	0,219238
1,862500	0,1	0,199770
1,864167	0,1	0,186205
1,865833	0,1	0,231450
1,867500	0,1	0,183235
1,869167	0,1	0,220611
1,870833	0,1	0,177754
1,872500	0,1	0,206869
1,874167	0,1	0,190786
1,875833	0,1	0,219191
1,877500	0,1	0,224378
1,879167	0,1	0,210367
1,880833	0,1	0,194274
1,882500	0,1	0,200991
1,884167	0,1	0,189468
1,885833	0,1	0,201947
1,887500	0,1	0,220945
1,889167	0,1	0,244449
1,890833	0,1	0,184538
1,892500	0,1	0,206272
1,894167	0,1	0,193885
1,895833	0,1	0,201695
1,897500	0,1	0,168561
1,899167	0,1	0,214981
1,900833	0,1	0,198258
1,902500	0,1	0,225151
1,904167	0,1	0,212538
1,905833	0,1	0,231201
1,907500	0,1	0,238316
1,909167	0,1	0,201735
1,910833	0,1	0,210183
1,912500	0,1	0,182930
1,914167	0,1	0,232107
1,915833	0,1	0,265320
1,917500	0,1	0,203672
1,919167	0,1	0,193404
1,920833	0,1	0,214852
1,922500	0,1	0,160674
1,924167	0,1	0,217838
1,925833	0,1	0,199351
1,927500	0,1	0,196368
1,929167	0,1	0,224895
1,930833	0,1	0,182424
1,932500	0,1	0,210043
1,934167	0,1	0,219330
1,935833	0,1	0,192121
1,937500	0,1	0,234549
1,939167	0,1	0,189851
1,940833	0,1	0,230627
1,942500	0,1	0,204384
1,944167	0,1	0,206322
1,945833	0,1	0,191310
1,947500	0,1	0,221467
1,949167	0,1	0,179295
1,950833	0,1	0,202364
1,952500	0,1	0,234506
1,954167	0,1	0,230264
1,955833	0,1	0,177098
1,957500	0,1	0,227061
1,959167	0,1	0,220906
1,960833	0,1	0,181628
1,962500	0,1	0,192967
1,964167	0,1	0,199239
1,965833	0,1	0,226093
1,967500	0,1	0,228421
1,969167	0,1	0,248448
1,970833	0,1	0,208474
1,972500	0,1	0,173621
1,974167	0,1	0,205372
1,975833	0,1	0,178528
1,977500	0,1	0,226853
1,979167	0,1	0,234903
1,980833	0,1	0,207872
1,982500	0,1	0,219690
1,984167	0,1	0,238029
1,985833	0,1	0,199746
1,987500	0,1	0,198853
1,989167	0,1	0,264923
1,990833	0,1	0,222891
1,992500	0,1	0,199038
1,994167	0,1	0,203688
1,995833	0,1	0,174308
1,997500	0,1	0,270828
1,999167	0,1	0,211383
2,000833	0,1	0,203780
2,002500	0,1	0,234672
2,004167	0,1	0,215416
2,005833	0,1	0,217986
2,007500	0,1	0,245811
2,009167	0,1	0,233229
2,010833	0,1	0,203261
2,012500	0,1	0,207730
2,014167	0,1	0,196611
2,015833	0,1	0,188719
2,017500	0,1	0,227170
2,019167	0,1	0,215324
2,020833	0,1	0,223599
2,022500	0,1	0,212074
2,024167	0,1	0,174579
2,025833	0,1	0,204415
2,027500	0,1	0,211845
2,029167	0,1	0,234194
2,030833	0,1	0,224935
2,032500	0,1	0,180973
2,034167	0,1	0,254873
2,035833	0,1	0,192504
2,037500	0,1	0,234161
2,039167	0,1	0,193367
2,040833	0,1	0,190693
2,042500	0,1	0,206184
2,044167	0,1	0,221531
2,045833	0,1	0,181091
2,047500	0,1	0,232390
2,049167	0,1	0,216357
2,050833	0,1	0,202674
2,052500	0,1	0,209270
2,054167	0,1	0,255599
2,055833	0,1	0,200782
2,057500	0,1	0,202834
2,059167	0,1	0,246168
2,060833	0,1	0,255923
2,062500	0,1	0,223414
2,064167	0,1	0,231577
2,065833	0,1	0,242566
2,067500	0,1	0,223321
2,069167	0,1	0,222971
2,070833	0,1	0,241501
2,072500	0,1	0,212542
2,074167	0,1	0,232353
2,075833	0,1	0,234679
2,077500	0,1	0,241234
2,079167	0,1	0,196782
2,080833	0,1	0,234924
2,082500	0,1	0,223303
2,084167	0,1	0,225874
2,085833	0,1	0,234124
2,087500	0,1	0,235292
2,089167	0,1	0,202663
2,090833	0,1	0,205620
2,092500	0,1	0,206578
2,094167	0,1	0,206309
2,095833	0,1	0,233324
2,097500	0,1	0,186618
2,099167	0,1	0,238949
2,100833	0,1	0,207902
2,102500	0,1	0,212864
2,104167	0,1	0,260358
2,105833	0,1	0,229312
2,107500	0,1	0,216731
2,109167	0,1	0,226008
2,110833	0,1	0,202885
2,112500	0,1	0,228998
2,114167	0,1	0,227852
2,115833	0,1	0,234962
2,117500	0,1	0,199355
2,119167	0,1	0,283663
2,120833	0,1	0,224422
2,122500	0,1	0,201552
2,124167	0,1	0,272378
2,125833	0,1	0,210830
2,127500	0,1	0,215289
2,129167	0,1	0,240496
2,130833	0,1	0,301399
2,132500	0,1	0,257715
2,134167	0,1	0,223190
2,135833	0,1	0,242729
2,137500	0,1	0,207483
2,139167	0,1	0,246768
2,140833	0,1	0,220177
2,142500	0,1	0,208528
2,144167	0,1	0,203645
2,145833	0,1	0,209974
2,147500	0,1	0,205935
2,149167	0,1	0,177226
2,150833	0,1	0,225908
2,152500	0,1	0,191899
2,154167	0,1	0,262329
2,155833	0,1	0,195801
2,157500	0,1	0,218519
2,159167	0,1	0,271557
2,160833	0,1	0,264355
2,162500	0,1	0,225525
2,164167	0,1	0,241561
2,165833	0,1	0,222107
2,167500	0,1	0,185283
2,169167	0,1	0,245998
2,170833	0,1	0,236911
2,172500	0,1	0,265919
2,174167	0,1	0,251976
2,175833	0,1	0,251028
2,177500	0,1	0,228157
2,179167	0,1	0,245904
2,180833	0,1	0,264138
2,182500	0,1	0,252214
2,184167	0,1	0,219192
2,185833	0,1	0,200594
2,187500	0,1	0,239596
2,189167	0,1	0,244962
2,190833	0,1	0,235745
2,192500	0,1	0,201631
2,194167	0,1	0,240883
2,195833	0,1	0,265006
2,197500	0,1	0,239536
2,199167	0,1	0,244184
2,200833	0,1	0,264511
2,202500	0,1	0,233892
2,204167	0,1	0,234140
2,205833	0,1	0,263299
2,207500	0,1	0,236646
2,209167	0,1	0,245380
2,210833	0,1	0,234067
2,212500	0,1	0,241953
2,214167	0,1	0,211841
2,215833	0,1	0,249461
2,217500	0,1	0,253678
2,219167	0,1	0,268675
2,220833	0,1	0,232097
2,222500	0,1	0,221281
2,224167	0,1	0,269627
2,225833	0,1	0,240675
2,227500	0,1	0,202231
2,229167	0,1	0,201966
2,230833	0,1	0,247275
2,232500	0,1	0,248992
2,234167	0,1	0,257539
2,235833	0,1	0,255954
2,237500	0,1	0,255790
2,239167	0,1	0,222440
2,240833	0,1	0,225051
2,242500	0,1	0,228584
2,244167	0,1	0,214502
2,245833	0,1	0,269580
2,247500	0,1	0,217848
2,249167	0,1	0,241469
2,250833	0,1	0,211287
2,252500	0,1	0,215141
2,254167	0,1	0,204934
2,255833	0,1	0,263157
2,257500	0,1	0,211036
2,259167	0,1	0,258637
2,260833	0,1	0,231915
2,262500	0,1	0,236593
2,264167	0,1	0,238916
2,265833	0,1	0,223393
2,267500	0,1	0,253626
2,269167	0,1	0,215404
2,270833	0,1	0,218164
2,272500	0,1	0,240452
2,274167	0,1	0,265334
2,275833	0,1	0,246166
2,277500	0,1	0,222856
2,279167	0,1	0,231743
2,280833	0,1	0,228780
2,282500	0,1	0,262504
2,284167	0,1	0,238487
2,285833	0,1	0,228871
2,287500	0,1	0,252521
2,289167	0,1	0,224715
2,290833	0,1	0,271694
2,292500	0,1	0,235751
2,294167	0,1	0,220161
2,295833	0,1	0,273787
2,297500	0,1	0,247711
2,299167	0,1	0,271219
2,300833	0,1	0,217294
2,302500	0,1	0,248774
2,304167	0,1	0,251131
2,305833	0,1	0,254187
2,307500	0,1	0,248512
2,309167	0,1	0,241178
2,310833	0,1	0,245907
2,312500	0,1	0,236133
2,314167	0,1	0,237539
2,315833	0,1	0,224785
2,317500	0,1	0,261513
2,319167	0,1	0,266954
2,320833	0,1	0,223581
2,322500	0,1	0,247563
2,324167	0,1	0,257957
2,325833	0,1	0,233426
2,327500	0,1	0,226161
2,329167	0,1	0,242668
2,330833	0,1	0,252299
2,332500	0,1	0,260488
2,334167	0,1	0,244652
2,335833	0,1	0,277384
2,337500	0,1	0,281599
2,339167	0,1	0,247487
2,340833	0,1	0,250324
2,342500	0,1	0,250968
2,344167	0,1	0,238514
2,345833	0,1	0,242328
2,347500	0,1	0,232689
2,349167	0,1	0,259404
2,350833	0,1	0,252766
2,352500	0,1	0,270486
2,354167	0,1	0,220903
2,355833	0,1	0,254134
2,357500	0,1	0,264486
2,359167	0,1	0,256374
2,360833	0,1	0,223128
2,362500	0,1	0,290100
2,364167	0,1	0,291077
2,365833	0,1	0,258148
2,367500	0,1	0,242541
2,369167	0,1	0,254783
2,370833	0,1	0,235865
2,372500	0,1	0,218169
2,374167	0,1	0,246005
2,375833	0,1	0,263299
2,377500	0,1	0,252812
2,379167	0,1	0,227962
2,380833	0,1	0,268444
2,382500	0,1	0,246031
2,384167	0,1	0,256459
2,385833	0,1	0,263617
2,387500	0,1	0,245881
2,389167	0,1	0,290061
2,390833	0,1	0,241787
2,392500	0,1	0,277699
2,394167	0,1	0,265253
2,395833	0,1	0,276790
2,397500	0,1	0,246933
2,399167	0,1	0,233573
2,400833	0,1	0,246099
2,402500	0,1	0,242600
2,404167	0,1	0,262399
2,405833	0,1	0,245296
2,407500	0,1	0,221645
2,409167	0,1	0,234002
2,410833	0,1	0,216552
2,412500	0,1	0,258982
2,414167	0,1	0,231856
2,415833	0,1	0,224095
2,417500	0,1	0,221820
2,419167	0,1	0,283634
2,420833	0,1	0,255076
2,422500	0,1	0,274676
2,424167	0,1	0,273529
2,425833	0,1	0,272795
2,427500	0,1	0,239506
2,429167	0,1	0,230443
2,430833	0,1	0,254510
2,432500	0,1	0,222813
2,434167	0,1	0,231099
2,435833	0,1	0,243987
2,437500	0,1	0,280421
2,439167	0,1	0,255674
2,440833	0,1	0,238246
2,442500	0,1	0,266323
2,444167	0,1	0,250013
2,445833	0,1	0,249456
2,447500	0,1	0,202487
2,449167	0,1	0,225510
2,450833	0,1	0,226862
2,452500	0,1	0,219845
2,454167	0,1	0,267798
2,455833	0,1	0,241391
2,457500	0,1	0,261845
2,459167	0,1	0,241165
2,460833	0,1	0,257848
2,462500	0,1	0,255578
2,464167	0,1	0,233142
2,465833	0,1	0,273892
2,467500	0,1	0,250614
2,469167	0,1	0,283434
2,470833	0,1	0,270957
2,472500	0,1	0,252571
2,474167	0,1	0,221301
2,475833	0,1	0,249359
2,477500	0,1	0,252103
2,479167	0,1	0,241896
2,480833	0,1	0,284328
2,482500	0,1	0,263233
2,484167	0,1	0,257210
2,485833	0,1	0,267043
2,487500	0,1	0,276132
2,489167	0,1	0,263276
2,490833	0,1	0,247182
2,492500	0,1	0,312725
2,494167	0,1	0,250142
2,495833	0,1	0,257162
2,497500	0,1	0,269603
2,499167	0,1	0,256928
2,500833	0,1	0,273672
2,502500	0,1	0,284546
2,504167	0,1	0,296070
2,505833	0,1	0,233211
2,507500	0,1	0,224559
2,509167	0,1	0,263727
2,510833	0,1	0,296818
2,512500	0,1	0,216554
2,514167	0,1	0,284024
2,515833	0,1	0,302707
2,517500	0,1	0,273220
2,519167	0,1	0,219151
2,520833	0,1	0,294712
2,522500	0,1	0,244571
2,524167	0,1	0,260617
2,525833	0,1	0,267823
2,527500	0,1	0,271208
2,529167	0,1	0,248412
2,530833	0,1	0,281321
2,532500	0,1	0,233013
2,534167	0,1	0,224860
2,535833	0,1	0,247339
2,537500	0,1	0,300341
2,539167	0,1	0,252371
2,540833	0,1	0,269391
2,542500	0,1	0,274664
2,544167	0,1	0,276477
2,545833	0,1	0,276552
2,547500	0,1	0,225379
2,549167	0,1	0,262768
2,550833	0,1	0,298584
2,552500	0,1	0,268443
2,554167	0,1	0,275624
2,555833	0,1	0,280458
2,557500	0,1	0,269669
2,559167	0,1	0,246914
2,560833	0,1	0,322361
2,562500	0,1	0,269137
2,564167	0,1	0,257540
2,565833	0,1	0,281053
2,567500	0,1	0,263217
2,569167	0,1	0,265249
2,570833	0,1	0,240477
2,572500	0,1	0,254976
2,574167	0,1	0,261653
2,575833	0,1	0,276338
2,577500	0,1	0,278618
2,579167	0,1	0,273677
2,580833	0,1	0,291833
2,582500	0,1	0,282499
2,584167	0,1	0,256228
2,585833	0,1	0,265007
2,587500	0,1	0,280980
2,589167	0,1	0,258802
2,590833	0,1	0,301604
2,592500	0,1	0,247911
2,594167	0,1	0,269227
2,595833	0,1	0,239879
2,597500	0,1	0,274910
2,599167	0,1	0,305244
2,600833	0,1	0,318904
2,602500	0,1	0,215346
2,604167	0,1	0,254444
2,605833	0,1	0,233007
2,607500	0,1	0,281808
2,609167	0,1	0,259266
2,610833	0,1	0,273465
2,612500	0,1	0,261330
2,614167	0,1	0,275649
2,615833	0,1	0,261255
2,617500	0,1	0,239459
2,619167	0,1	0,282961
2,620833	0,1	0,279968
2,622500	0,1	0,314826
2,624167	0,1	0,257523
2,625833	0,1	0,250728
2,627500	0,1	0,272311
2,629167	0,1	0,259862
2,630833	0,1	0,281125
2,632500	0,1	0,296713
2,634167	0,1	0,274253
2,635833	0,1	0,280158
2,637500	0,1	0,272556
2,639167	0,1	0,287057
2,640833	0,1	0,287033
2,642500	0,1	0,274040
2,644167	0,1	0,267285
2,645833	0,1	0,280276
2,647500	0,1	0,278962
2,649167	0,1	0,278183
2,650833	0,1	0,261974
2,652500	0,1	0,260981
2,654167	0,1	0,285288
2,655833	0,1	0,268876
2,657500	0,1	0,303745
2,659167	0,1	0,290764
2,660833	0,1	0,267842
2,662500	0,1	0,282956
2,664167	0,1	0,272003
2,665833	0,1	0,253471
2,667500	0,1	0,311556
2,669167	0,1	0,265826
2,670833	0,1	0,267166
2,672500	0,1	0,278390
2,674167	0,1	0,289768
2,675833	0,1	0,275821
2,677500	0,1	0,285397
2,679167	0,1	0,260208
2,680833	0,1	0,317586
2,682500	0,1	0,277160
2,684167	0,1	0,257168
2,685833	0,1	0,297979
2,687500	0,1	0,280238
2,689167	0,1	0,270550
2,690833	0,1	0,278136
2,692500	0,1	0,264306
2,694167	0,1	0,288552
2,695833	0,1	0,258894
2,697500	0,1	0,287415
2,699167	0,1	0,280443
2,700833	0,1	0,266778
2,702500	0,1	0,273286
2,704167	0,1	0,289006
2,705833	0,1	0,280507
2,707500	0,1	0,262556
2,709167	0,1	0,243725
2,710833	0,1	0,277395
2,712500	0,1	0,284050
2,714167	0,1	0,301475
2,715833	0,1	0,259734
2,717500	0,1	0,277862
2,719167	0,1	0,315886
2,720833	0,1	0,288011
2,722500	0,1	0,259132
2,724167	0,1	0,303054
2,725833	0,1	0,295522
2,727500	0,1	0,304650
2,729167	0,1	0,290463
2,730833	0,1	0,229168
2,732500	0,1	0,290520
2,734167	0,1	0,281524
2,735833	0,1	0,258514
2,737500	0,1	0,301886
2,739167	0,1	0,302928
2,740833	0,1	0,282141
2,742500	0,1	0,287657
2,744167	0,1	0,276582
2,745833	0,1	0,289542
2,747500	0,1	0,280699
2,749167	0,1	0,292670
2,750833	0,1	0,294261
2,752500	0,1	0,319154
2,754167	0,1	0,294821
2,755833	0,1	0,280445
2,757500	0,1	0,284965
2,759167	0,1	0,247665
2,760833	0,1	0,283369
2,762500	0,1	0,292163
2,764167	0,1	0,261392
2,765833	0,1	0,246389
2,767500	0,1	0,288348
2,769167	0,1	0,283616
2,770833	0,1	0,300323
2,772500	0,1	0,308468
2,774167	0,1	0,304789
2,775833	0,1	0,285314
2,777500	0,1	0,308972
2,779167	0,1	0,294401
2,780833	0,1	0,301160
2,782500	0,1	0,275670
2,784167	0,1	0,262374
2,785833	0,1	0,282549
2,787500	0,1	0,288165
2,789167	0,1	0,269848
2,790833	0,1	0,343129
2,792500	0,1	0,319103
2,794167	0,1	0,272129
2,795833	0,1	0,286785
2,797500	0,1	0,284052
2,799167	0,1	0,249941
2,800833	0,1	0,302318
2,802500	0,1	0,281598
2,804167	0,1	0,284604
2,805833	0,1	0,309497
2,807500	0,1	0,274821
2,809167	0,1	0,316575
2,810833	0,1	0,309714
2,812500	0,1	0,282887
2,814167	0,1	0,296487
2,815833	0,1	0,326808
2,817500	0,1	0,305447
2,819167	0,1	0,308198
2,820833	0,1	0,276541
2,822500	0,1	0,290512
2,824167	0,1	0,303452
2,825833	0,1	0,317707
2,827500	0,1	0,269719
2,829167	0,1	0,306229
2,830833	0,1	0,267067
2,832500	0,1	0,336073
2,834167	0,1	0,297380
2,835833	0,1	0,290672
2,837500	0,1	0,299798
2,839167	0,1	0,299755
2,840833	0,1	0,325555
2,842500	0,1	0,295420
2,844167	0,1	0,290969
2,845833	0,1	0,276928
2,847500	0,1	0,283045
2,849167	0,1	0,316395
2,850833	0,1	0,315343
2,852500	0,1	0,293740
2,854167	0,1	0,286221
2,855833	0,1	0,296190
2,857500	0,1	0,279756
2,859167	0,1	0,317727
2,860833	0,1	0,296887
2,862500	0,1	0,313226
2,864167	0,1	0,344588
2,865833	0,1	0,279515
2,867500	0,1	0,331343
2,869167	0,1	0,281007
2,870833	0,1	0,281503
2,872500	0,1	0,267780
2,874167	0,1	0,313908
2,875833	0,1	0,277622
2,877500	0,1	0,318651
2,879167	0,1	0,291900
2,880833	0,1	0,313460
2,882500	0,1	0,319604
2,884167	0,1	0,304501
2,885833	0,1	0,286902
2,887500	0,1	0,301547
2,889167	0,1	0,284500
2,890833	0,1	0,317204
2,892500	0,1	0,308799
2,894167	0,1	0,275898
2,895833	0,1	0,267704
2,897500	0,1	0,275771
2,899167	0,1	0,333710
2,900833	0,1	0,285215
2,902500	0,1	0,310767
2,904167	0,1	0,270677
2,905833	0,1	0,298742
2,907500	0,1	0,279949
2,909167	0,1	0,302144
2,910833	0,1	0,288199
2,912500	0,1	0,274933
2,914167	0,1	0,311661
2,915833	0,1	0,278891
2,917500	0,1	0,317891
2,919167	0,1	0,307929
2,920833	0,1	0,263101
2,922500	0,1	0,293249
2,924167	0,1	0,303897
2,925833	0,1	0,308796
2,927500	0,1	0,348522
2,929167	0,1	0,315379
2,930833	0,1	0,314663
2,932500	0,1	0,284684
2,934167	0,1	0,303533
2,935833	0,1	0,303828
2,937500	0,1	0,269969
2,939167	0,1	0,304535
2,940833	0,1	0,273560
2,942500	0,1	0,309804
2,944167	0,1	0,312523
2,945833	0,1	0,321580
2,947500	0,1	0,314638
2,949167	0,1	0,332639
2,950833	0,1	0,340115
2,952500	0,1	0,293102
2,954167	0,1	0,275443
2,955833	0,1	0,290169
2,957500	0,1	0,312709
2,959167	0,1	0,296705
2,960833	0,1	0,308267
2,962500	0,1	0,312895
2,964167	0,1	0,364525
2,965833	0,1	0,317821
2,967500	0,1	0,286182
2,969167	0,1	0,316334
2,970833	0,1	0,291493
2,972500	0,1	0,297896
2,974167	0,1	0,320360
2,975833	0,1	0,316132
2,977500	0,1	0,303259
2,979167	0,1	0,303601
2,980833	0,1	0,303601
2,982500	0,1	0,316500
2,984167	0,1	0,308961
2,985833	0,1	0,294818
2,987500	0,1	0,294543
2,989167	0,1	0,336496
2,990833	0,1	0,330506
2,992500	0,1	0,297741
2,994167	0,1	0,324749
2,995833	0,1	0,279748
2,997500	0,1	0,336286
2,999167	0,1	0,325011
3,000833	0,1	0,283580
3,002500	0,1	0,276310
3,004167	0,1	0,328379
3,005833	0,1	0,309998
3,007500	0,1	0,307672
3,009167	0,1	0,320935
3,010833	0,1	0,310385
3,012500	0,1	0,299786
3,014167	0,1	0,317097
3,015833	0,1	0,314890
3,017500	0,1	0,316222
3,019167	0,1	0,322749
3,020833	0,1	0,335079
3,022500	0,1	0,314577
3,024167	0,1	0,325559
3,025833	0,1	0,285612
3,027500	0,1	0,309209
3,029167	0,1	0,304618
3,030833	0,1	0,314515
3,032500	0,1	0,269132
3,034167	0,1	0,324215
3,035833	0,1	0,340365
3,037500	0,1	0,301424
3,039167	0,1	0,304497
3,040833	0,1	0,318732
3,042500	0,1	0,344824
3,044167	0,1	0,299659
3,045833	0,1	0,336109
3,047500	0,1	0,300120
3,049167	0,1	0,342798
3,050833	0,1	0,333797
3,052500	0,1	0,305611
3,054167	0,1	0,320317
3,055833	0,1	0,299398
3,057500	0,1	0,307553
3,059167	0,1	0,311562
3,060833	0,1	0,306848
3,062500	0,1	0,326637
3,064167	0,1	0,305357
3,065833	0,1	0,308243
3,067500	0,1	0,284829
3,069167	0,1	0,323802
3,070833	0,1	0,300505
3,072500	0,1	0,314452
3,074167	0,1	0,300548
3,075833	0,1	0,352617
3,077500	0,1	0,327247
3,079167	0,1	0,326251
3,080833	0,1	0,330640
3,082500	0,1	0,362370
3,084167	0,1	0,274308
3,085833	0,1	0,325342
3,087500	0,1	0,319888
3,089167	0,1	0,328344
3,090833	0,1	0,345841
3,092500	0,1	0,312603
3,094167	0,1	0,347125
3,095833	0,1	0,324832
3,097500	0,1	0,342922
3,099167	0,1	0,292770
3,100833	0,1	0,349142
3,102500	0,1	0,360280
3,104167	0,1	0,338905
3,105833	0,1	0,343335
3,107500	0,1	0,295270
3,109167	0,1	0,329989
3,110833	0,1	0,370438
3,112500	0,1	0,292104
3,114167	0,1	0,300471
3,115833	0,1	0,362706
3,117500	0,1	0,356032
3,119167	0,1	0,359340
3,120833	0,1	0,329250
3,122500	0,1	0,325219
3,124167	0,1	0,385588
3,125833	0,1	0,354404
3,127500	0,1	0,288720
3,129167	0,1	0,338635
3,130833	0,1	0,335520
3,132500	0,1	0,310625
3,134167	0,1	0,328549
3,135833	0,1	0,335063
3,137500	0,1	0,286439
3,139167	0,1	0,295919
3,140833	0,1	0,323743
3,142500	0,1	0,310531
3,144167	0,1	0,332184
3,145833	0,1	0,345471
3,147500	0,1	0,291665
3,149167	0,1	0,316435
3,150833	0,1	0,324164
3,152500	0,1	0,292303
3,154167	0,1	0,323668
3,155833	0,1	0,339522
3,157500	0,1	0,352906
3,159167	0,1	0,323938
3,160833	0,1	0,330049
3,162500	0,1	0,296509
3,164167	0,1	0,310453
3,165833	0,1	0,336917
3,167500	0,1	0,339435
3,169167	0,1	0,338483
3,170833	0,1	0,295495
3,172500	0,1	0,288435
3,174167	0,1	0,320523
3,175833	0,1	0,346003
3,177500	0,1	0,344169
3,179167	0,1	0,343662
3,180833	0,1	0,331594
3,182500	0,1	0,320850
3,184167	0,1	0,334001
3,185833	0,1	0,331130
3,187500	0,1	0,353982
3,189167	0,1	0,330610
3,190833	0,1	0,326669
3,192500	0,1	0,341154
3,194167	0,1	0,292650
3,195833	0,1	0,310960
3,197500	0,1	0,290832
3,199167	0,1	0,321419
3,200833	0,1	0,333176
3,202500	0,1	0,354283
3,204167	0,1	0,314310
3,205833	0,1	0,328207
3,207500	0,1	0,335154
3,209167	0,1	0,307778
3,210833	0,1	0,368574
3,212500	0,1	0,345879
3,214167	0,1	0,361412
3,215833	0,1	0,321019
3,217500	0,1	0,324092
3,219167	0,1	0,340555
3,220833	0,1	0,334514
3,222500	0,1	0,319082
3,224167	0,1	0,313867
3,225833	0,1	0,351840
3,227500	0,1	0,302788
3,229167	0,1	0,310962
3,230833	0,1	0,357450
3,232500	0,1	0,316885
3,234167	0,1	0,298211
3,235833	0,1	0,361698
3,237500	0,1	0,325698
3,239167	0,1	0,357199
3,240833	0,1	0,319669
3,242500	0,1	0,348368
3,244167	0,1	0,350099
3,245833	0,1	0,351594
3,247500	0,1	0,326030
3,249167	0,1	0,316353
3,250833	0,1	0,305662
3,252500	0,1	0,338801
3,254167	0,1	0,323336
3,255833	0,1	0,323106
3,257500	0,1	0,324872
3,259167	0,1	0,289248
3,260833	0,1	0,321076
3,262500	0,1	0,354207
3,264167	0,1	0,318608
3,265833	0,1	0,322804
3,267500	0,1	0,322788
3,269167	0,1	0,328008
3,270833	0,1	0,316072
3,272500	0,1	0,340300
3,274167	0,1	0,338446
3,275833	0,1	0,322148
3,277500	0,1	0,357887
3,279167	0,1	0,388012
3,280833	0,1	0,379236
3,282500	0,1	0,346661
3,284167	0,1	0,339157
3,285833	0,1	0,328882
3,287500	0,1	0,326552
3,289167	0,1	0,349958
3,290833	0,1	0,362081
3,292500	0,1	0,356221
3,294167	0,1	0,325070
3,295833	0,1	0,326577
3,297500	0,1	0,346830
3,299167	0,1	0,375989
3,300833	0,1	0,342155
3,302500	0,1	0,330488
3,304167	0,1	0,346902
3,305833	0,1	0,349291
3,307500	0,1	0,336310
3,309167	0,1	0,314877
3,310833	0,1	0,370531
3,312500	0,1	0,287628
3,314167	0,1	0,320594
3,315833	0,1	0,311339
3,317500	0,1	0,352990
3,319167	0,1	0,373734
3,320833	0,1	0,344593
3,322500	0,1	0,374792
3,324167	0,1	0,375649
3,325833	0,1	0,341185
3,327500	0,1	0,336535
3,329167	0,1	0,352007
3,330833	0,1	0,342765
3,332500	0,1	0,351319
3,334167	0,1	0,307692
3,335833	0,1	0,352989
3,337500	0,1	0,331877
3,339167	0,1	0,328373
3,340833	0,1	0,364741
3,342500	0,1	0,317439
3,344167	0,1	0,344026
3,345833	0,1	0,372788
3,347500	0,1	0,347003
3,349167	0,1	0,326310
3,350833	0,1	0,330166
3,352500	0,1	0,345044
3,354167	0,1	0,326998
3,355833	0,1	0,308720
3,357500	0,1	0,338784
3,359167	0,1	0,366077
3,360833	0,1	0,314865
3,362500	0,1	0,325587
3,364167	0,1	0,325017
3,365833	0,1	0,307297
3,367500	0,1	0,298001
3,369167	0,1	0,354156
3,370833	0,1	0,322659
3,372500	0,1	0,344535
3,374167	0,1	0,337803
3,375833	0,1	0,333869
3,377500	0,1	0,338972
3,379167	0,1	0,355089
3,380833	0,1	0,340083
3,382500	0,1	0,339572
3,384167	0,1	0,330198
3,385833	0,1	0,359638
3,387500	0,1	0,341235
3,389167	0,1	0,368424
3,390833	0,1	0,365902
3,392500	0,1	0,343902
3,394167	0,1	0,368127
3,395833	0,1	0,420429
3,397500	0,1	0,403178
3,399167	0,1	0,372347
3,400833	0,1	0,319491
3,402500	0,1	0,349890
3,404167	0,1	0,341386
3,405833	0,1	0,332010
3,407500	0,1	0,349224
3,409167	0,1	0,361829
3,410833	0,1	0,381394
3,412500	0,1	0,325538
3,414167	0,1	0,314312
3,415833	0,1	0,351567
3,417500	0,1	0,341250
3,419167	0,1	0,333779
3,420833	0,1	0,324104
3,422500	0,1	0,356555
3,424167	0,1	0,309578
3,425833	0,1	0,356579
3,427500	0,1	0,357252
3,429167	0,1	0,411074
3,430833	0,1	0,325265
3,432500	0,1	0,309616
3,434167	0,1	0,352392
3,435833	0,1	0,358475
3,437500	0,1	0,360100
3,439167	0,1	0,336475
3,440833	0,1	0,367409
3,442500	0,1	0,385257
3,444167	0,1	0,315170
3,445833	0,1	0,322922
3,447500	0,1	0,373363
3,449167	0,1	0,335834
3,450833	0,1	0,364236
3,452500	0,1	0,356039
3,454167	0,1	0,341052
3,455833	0,1	0,346215
3,457500	0,1	0,363276
3,459167	0,1	0,336776
3,460833	0,1	0,330189
3,462500	0,1	0,374260
3,464167	0,1	0,350294
3,465833	0,1	0,337969
3,467500	0,1	0,357247
3,469167	0,1	0,340245
3,470833	0,1	0,369966
3,472500	0,1	0,356520
3,474167	0,1	0,347877
3,475833	0,1	0,352863
3,477500	0,1	0,377967
3,479167	0,1	0,360384
3,480833	0,1	0,372843
3,482500	0,1	0,360774
3,484167	0,1	0,371095
3,485833	0,1	0,337974
3,487500	0,1	0,321876
3,489167	0,1	0,348096
3,490833	0,1	0,386977
3,492500	0,1	0,394273
3,494167	0,1	0,350254
3,495833	0,1	0,329185
3,497500	0,1	0,338835
3,499167	0,1	0,378950
3,500833	0,1	0,333561
3,502500	0,1	0,354815
3,504167	0,1	0,417531
3,505833	0,1	0,369360
3,507500	0,1	0,356639
3,509167	0,1	0,387692
3,510833	0,1	0,371056
3,512500	0,1	0,365994
3,514167	0,1	0,340709
3,515833	0,1	0,364635
3,517500	0,1	0,365603
3,519167	0,1	0,323468
3,520833	0,1	0,373615
3,522500	0,1	0,341354
3,524167	0,1	0,393391
3,525833	0,1	0,370966
3,527500	0,1	0,365696
3,529167	0,1	0,324936
3,530833	0,1	0,372583
3,532500	0,1	0,336614
3,534167	0,1	0,383203
3,535833	0,1	0,364800
3,537500	0,1	0,337627
3,539167	0,1	0,392194
3,540833	0,1	0,394599
3,542500	0,1	0,380278
3,544167	0,1	0,363266
3,545833	0,1	0,355004
3,547500	0,1	0,340290
3,549167	0,1	0,367528
3,550833	0,1	0,364134
3,552500	0,1	0,382129
3,554167	0,1	0,368826
3,555833	0,1	0,369120
3,557500	0,1	0,374776
3,559167	0,1	0,372892
3,560833	0,1	0,351074
3,562500	0,1	0,315026
3,564167	0,1	0,396259
3,565833	0,1	0,369081
3,567500	0,1	0,368822
3,569167	0,1	0,363509
3,570833	0,1	0,411834
3,572500	0,1	0,370788
3,574167	0,1	0,334592
3,575833	0,1	0,384747
3,577500	0,1	0,390918
3,579167	0,1	0,399333
3,580833	0,1	0,362691
3,582500	0,1	0,403279
3,584167	0,1	0,377314
3,585833	0,1	0,367380
3,587500	0,1	0,344917
3,589167	0,1	0,328195
3,590833	0,1	0,391802
3,592500	0,1	0,391772
3,594167	0,1	0,376142
3,595833	0,1	0,387560
3,597500	0,1	0,386713
3,599167	0,1	0,361264
3,600833	0,1	0,368314
3,602500	0,1	0,343402
3,604167	0,1	0,341392
3,605833	0,1	0,366059
3,607500	0,1	0,353718
3,609167	0,1	0,397671
3,610833	0,1	0,383840
3,612500	0,1	0,358391
3,614167	0,1	0,345349
3,615833	0,1	0,356840
3,617500	0,1	0,384428
3,619167	0,1	0,360322
3,620833	0,1	0,366844
3,622500	0,1	0,365922
3,624167	0,1	0,362871
3,625833	0,1	0,382362
3,627500	0,1	0,383863
3,629167	0,1	0,380527
3,630833	0,1	0,362298
3,632500	0,1	0,374547
3,634167	0,1	0,361950
3,635833	0,1	0,336594
3,637500	0,1	0,360954
3,639167	0,1	0,348088
3,640833	0,1	0,348291
3,642500	0,1	0,353325
3,644167	0,1	0,380799
3,645833	0,1	0,349359
3,647500	0,1	0,384266
3,649167	0,1	0,398322
3,650833	0,1	0,377932
3,652500	0,1	0,374824
3,654167	0,1	0,364091
3,655833	0,1	0,376408
3,657500	0,1	0,354573
3,659167	0,1	0,383902
3,660833	0,1	0,348691
3,662500	0,1	0,342709
3,664167	0,1	0,373209
3,665833	0,1	0,354572
3,667500	0,1	0,365580
3,669167	0,1	0,348869
3,670833	0,1	0,377620
3,672500	0,1	0,372966
3,674167	0,1	0,376065
3,675833	0,1	0,382274
3,677500	0,1	0,364873
3,679167	0,1	0,407557
3,680833	0,1	0,337175
3,682500	0,1	0,396128
3,684167	0,1	0,413384
3,685833	0,1	0,381803
3,687500	0,1	0,416874
3,689167	0,1	0,419248
3,690833	0,1	0,362650
3,692500	0,1	0,392341
3,694167	0,1	0,401405
3,695833	0,1	0,373542
3,697500	0,1	0,374850
3,699167	0,1	0,382113
3,700833	0,1	0,378942
3,702500	0,1	0,355497
3,704167	0,1	0,355862
3,705833	0,1	0,360640
3,707500	0,1	0,373533
3,709167	0,1	0,376092
3,710833	0,1	0,352023
3,712500	0,1	0,401326
3,714167	0,1	0,401247
3,715833	0,1	0,374811
3,717500	0,1	0,381652
3,719167	0,1	0,372666
3,720833	0,1	0,397675
3,722500	0,1	0,395037
3,724167	0,1	0,355708
3,725833	0,1	0,325198
3,727500	0,1	0,372470
3,729167	0,1	0,383839
3,730833	0,1	0,363540
3,732500	0,1	0,380893
3,734167	0,1	0,387725
3,735833	0,1	0,355842
3,737500	0,1	0,384200
3,739167	0,1	0,393427
3,740833	0,1	0,370140
3,742500	0,1	0,360252
3,744167	0,1	0,359673
3,745833	0,1	0,395604
3,747500	0,1	0,366279
3,749167	0,1	0,384248
3,750833	0,1	0,401312
3,752500	0,1	0,366945
3,754167	0,1	0,369126
3,755833	0,1	0,407330
3,757500	0,1	0,406143
3,759167	0,1	0,413661
3,760833	0,1	0,388285
3,762500	0,1	0,412945
3,764167	0,1	0,415917
3,765833	0,1	0,368630
3,767500	0,1	0,385745
3,769167	0,1	0,382368
3,770833	0,1	0,383745
3,772500	0,1	0,413633
3,774167	0,1	0,367643
3,775833	0,1	0,412388
3,777500	0,1	0,380379
3,779167	0,1	0,391450
3,780833	0,1	0,370258
3,782500	0,1	0,387033
3,784167	0,1	0,392484
3,785833	0,1	0,366669
3,787500	0,1	0,392940
3,789167	0,1	0,409270
3,790833	0,1	0,393594
3,792500	0,1	0,363658
3,794167	0,1	0,403401
3,795833	0,1	0,357707
3,797500	0,1	0,377582
3,799167	0,1	0,372255
3,800833	0,1	0,375193
3,802500	0,1	0,421793
3,804167	0,1	0,373301
3,805833	0,1	0,358343
3,807500	0,1	0,428478
3,809167	0,1	0,432174
3,810833	0,1	0,382379
3,812500	0,1	0,417495
3,814167	0,1	0,378285
3,815833	0,1	0,380896
3,817500	0,1	0,396805
3,819167	0,1	0,401913
3,820833	0,1	0,411893
3,822500	0,1	0,373961
3,824167	0,1	0,382826
3,825833	0,1	0,390715
3,827500	0,1	0,360922
3,829167	0,1	0,387031
3,830833	0,1	0,361155
3,832500	0,1	0,395513
3,834167	0,1	0,428283
3,835833	0,1	0,389184
3,837500	0,1	0,367819
3,839167	0,1	0,405079
3,840833	0,1	0,382742
3,842500	0,1	0,374436
3,844167	0,1	0,412023
3,845833	0,1	0,427295
3,847500	0,1	0,378795
3,849167	0,1	0,387515
3,850833	0,1	0,407452
3,852500	0,1	0,381273
3,854167	0,1	0,395773
3,855833	0,1	0,354648
3,857500	0,1	0,392178
3,859167	0,1	0,415981
3,860833	0,1	0,393870
3,862500	0,1	0,404741
3,864167	0,1	0,361502
3,865833	0,1	0,435239
3,867500	0,1	0,404108
3,869167	0,1	0,438353
3,870833	0,1	0,375099
3,872500	0,1	0,398091
3,874167	0,1	0,376878
3,875833	0,1	0,391636
3,877500	0,1	0,392603
3,879167	0,1	0,400031
3,880833	0,1	0,398996
3,882500	0,1	0,414169
3,884167	0,1	0,403550
3,885833	0,1	0,408488
3,887500	0,1	0,397319
3,889167	0,1	0,379822
3,890833	0,1	0,415680
3,892500	0,1	0,410311
3,894167	0,1	0,392055
3,895833	0,1	0,415360
3,897500	0,1	0,370977
3,899167	0,1	0,422713
3,900833	0,1	0,396035
3,902500	0,1	0,404007
3,904167	0,1	0,373087
3,905833	0,1	0,363265
3,907500	0,1	0,394066
3,909167	0,1	0,391107
3,910833	0,1	0,391289
3,912500	0,1	0,354192
3,914167	0,1	0,395283
3,915833	0,1	0,416397
3,917500	0,1	0,388310
3,919167	0,1	0,396670
3,920833	0,1	0,405294
3,922500	0,1	0,375708
3,924167	0,1	0,385082
3,925833	0,1	0,380026
3,927500	0,1	0,367061
3,929167	0,1	0,417056
3,930833	0,1	0,396010
3,932500	0,1	0,409313
3,934167	0,1	0,403847
3,935833	0,1	0,397892
3,937500	0,1	0,384950
3,939167	0,1	0,408990
3,940833	0,1	0,426055
3,942500	0,1	0,418220
3,944167	0,1	0,423205
3,945833	0,1	0,393254
3,947500	0,1	0,390029
3,949167	0,1	0,432925
3,950833	0,1	0,346681
3,952500	0,1	0,365839
3,954167	0,1	0,408688
3,955833	0,1	0,368194
3,957500	0,1	0,390918
3,959167	0,1	0,398856
3,960833	0,1	0,424239
3,962500	0,1	0,410196
3,964167	0,1	0,384309
3,965833	0,1	0,420556
3,967500	0,1	0,393414
3,969167	0,1	0,412211
3,970833	0,1	0,363963
3,972500	0,1	0,395975
3,974167	0,1	0,386283
3,975833	0,1	0,414440
3,977500	0,1	0,367416
3,979167	0,1	0,418115
3,980833	0,1	0,403849
3,982500	0,1	0,342974
3,984167	0,1	0,383119
3,985833	0,1	0,366030
3,987500	0,1	0,413537
3,989167	0,1	0,405851
3,990833	0,1	0,439066
3,992500	0,1	0,400083
3,994167	0,1	0,390583
3,995833	0,1	0,439476
3,997500	0,1	0,407442
3,999167	0,1	0,424950
4,000833	0,1	0,425690
4,002500	0,1	0,413577
4,004167	0,1	0,397296
4,005833	0,1	0,454283
4,007500	0,1	0,386342
4,009167	0,1	0,439132
4,010833	0,1	0,426337
4,012500	0,1	0,369368
4,014167	0,1	0,382897
4,015833	0,1	0,390830
4,017500	0,1	0,381269
4,019167	0,1	0,392970
4,020833	0,1	0,378097
4,022500	0,1	0,430001
4,024167	0,1	0,397370
4,025833	0,1	0,354103
4,027500	0,1	0,427698
4,029167	0,1	0,390841
4,030833	0,1	0,397314
4,032500	0,1	0,390053
4,034167	0,1	0,405845
4,035833	0,1	0,397825
4,037500	0,1	0,424857
4,039167	0,1	0,413577
4,040833	0,1	0,409804
4,042500	0,1	0,463323
4,044167	0,1	0,406598
4,045833	0,1	0,393917
4,047500	0,1	0,426006
4,049167	0,1	0,382104
4,050833	0,1	0,452624
4,052500	0,1	0,408617
4,054167	0,1	0,386586
4,055833	0,1	0,399960
4,057500	0,1	0,427020
4,059167	0,1	0,377969
4,060833	0,1	0,379107
4,062500	0,1	0,377016
4,064167	0,1	0,426854
4,065833	0,1	0,402590
4,067500	0,1	0,398585
4,069167	0,1	0,414836
4,070833	0,1	0,420426
4,072500	0,1	0,391255
4,074167	0,1	0,396743
4,075833	0,1	0,419384
4,077500	0,1	0,392290
4,079167	0,1	0,389065
4,080833	0,1	0,426050
4,082500	0,1	0,414545
4,084167	0,1	0,425667
4,085833	0,1	0,413555
4,087500	0,1	0,358359
4,089167	0,1	0,384941
4,090833	0,1	0,389914
4,092500	0,1	0,397730
4,094167	0,1	0,397342
4,095833	0,1	0,398630
4,097500	0,1	0,418491
4,099167	0,1	0,404058
4,100833	0,1	0,420701
4,102500	0,1	0,380268
4,104167	0,1	0,413635
4,105833	0,1	0,401551
4,107500	0,1	0,425020
4,109167	0,1	0,423667
4,110833	0,1	0,419530
4,112500	0,1	0,425991
4,114167	0,1	0,396706
4,115833	0,1	0,412237
4,117500	0,1	0,435184
4,119167	0,1	0,435925
4,120833	0,1	0,412293
4,122500	0,1	0,451828
4,124167	0,1	0,443791
4,125833	0,1	0,430984
4,127500	0,1	0,397511
4,129167	0,1	0,408559
4,130833	0,1	0,439735
4,132500	0,1	0,429996
4,134167	0,1	0,445556
4,135833	0,1	0,410939
4,137500	0,1	0,416583
4,139167	0,1	0,412932
4,140833	0,1	0,406357
4,142500	0,1	0,444516
4,144167	0,1	0,396729
4,145833	0,1	0,357991
4,147500	0,1	0,405746
4,149167	0,1	0,405712
4,150833	0,1	0,405529
4,152500	0,1	0,439618
4,154167	0,1	0,380870
4,155833	0,1	0,445176
4,157500	0,1	0,406456
4,159167	0,1	0,418745
4,160833	0,1	0,442772
4,162500	0,1	0,409354
4,164167	0,1	0,403527
4,165833	0,1	0,385576
4,167500	0,1	0,410719
4,169167	0,1	0,412747
4,170833	0,1	0,401806
4,172500	0,1	0,398102
4,174167	0,1	0,400580
4,175833	0,1	0,431065
4,177500	0,1	0,410384
4,179167	0,1	0,397254
4,180833	0,1	0,395229
4,182500	0,1	0,423548
4,184167	0,1	0,421507
4,185833	0,1	0,436451
4,187500	0,1	0,424362
4,189167	0,1	0,412153
4,190833	0,1	0,427160
4,192500	0,1	0,440752
4,194167	0,1	0,402319
4,195833	0,1	0,415274
4,197500	0,1	0,439139
4,199167	0,1	0,393975
4,200833	0,1	0,407065
4,202500	0,1	0,428148
4,204167	0,1	0,416613
4,205833	0,1	0,444586
4,207500	0,1	0,416732
4,209167	0,1	0,419346
4,210833	0,1	0,468358
4,212500	0,1	0,433727
4,214167	0,1	0,395992
4,215833	0,1	0,416929
4,217500	0,1	0,379878
4,219167	0,1	0,414371
4,220833	0,1	0,405920
4,222500	0,1	0,421411
4,224167	0,1	0,412636
4,225833	0,1	0,411277
4,227500	0,1	0,444678
4,229167	0,1	0,422136
4,230833	0,1	0,398796
4,232500	0,1	0,401137
4,234167	0,1	0,390054
4,235833	0,1	0,415915
4,237500	0,1	0,411667
4,239167	0,1	0,409370
4,240833	0,1	0,442631
4,242500	0,1	0,430615
4,244167	0,1	0,426475
4,245833	0,1	0,379926
4,247500	0,1	0,362511
4,249167	0,1	0,390506
4,250833	0,1	0,384122
4,252500	0,1	0,464396
4,254167	0,1	0,443358
4,255833	0,1	0,420848
4,257500	0,1	0,416680
4,259167	0,1	0,426726
4,260833	0,1	0,434867
4,262500	0,1	0,389673
4,264167	0,1	0,410259
4,265833	0,1	0,430678
4,267500	0,1	0,421580
4,269167	0,1	0,420291
4,270833	0,1	0,410198
4,272500	0,1	0,429207
4,274167	0,1	0,425096
4,275833	0,1	0,427440
4,277500	0,1	0,457350
4,279167	0,1	0,408276
4,280833	0,1	0,436931
4,282500	0,1	0,420086
4,284167	0,1	0,471923
4,285833	0,1	0,425289
4,287500	0,1	0,430453
4,289167	0,1	0,411742
4,290833	0,1	0,436657
4,292500	0,1	0,435625
4,294167	0,1	0,394385
4,295833	0,1	0,447295
4,297500	0,1	0,431331
4,299167	0,1	0,425419
4,300833	0,1	0,418589
4,302500	0,1	0,473716
4,304167	0,1	0,443844
4,305833	0,1	0,402963
4,307500	0,1	0,448976
4,309167	0,1	0,435010
4,310833	0,1	0,417971
4,312500	0,1	0,407603
4,314167	0,1	0,401485
4,315833	0,1	0,393345
4,317500	0,1	0,447549
4,319167	0,1	0,427792
4,320833	0,1	0,430407
4,322500	0,1	0,412269
4,324167	0,1	0,429506
4,325833	0,1	0,425856
4,327500	0,1	0,462407
4,329167	0,1	0,381018
4,330833	0,1	0,430857
4,332500	0,1	0,418225
4,334167	0,1	0,413602
4,335833	0,1	0,438405
4,337500	0,1	0,463238
4,339167	0,1	0,455633
4,340833	0,1	0,430666
4,342500	0,1	0,409329
4,344167	0,1	0,435206
4,345833	0,1	0,448408
4,347500	0,1	0,412619
4,349167	0,1	0,441598
4,350833	0,1	0,441788
4,352500	0,1	0,422458
4,354167	0,1	0,452497
4,355833	0,1	0,441447
4,357500	0,1	0,420664
4,359167	0,1	0,415854
4,360833	0,1	0,425301
4,362500	0,1	0,478315
4,364167	0,1	0,435729
4,365833	0,1	0,423444
4,367500	0,1	0,436199
4,369167	0,1	0,433353
4,370833	0,1	0,408960
4,372500	0,1	0,416337
4,374167	0,1	0,411900
4,375833	0,1	0,448059
4,377500	0,1	0,430046
4,379167	0,1	0,447579
4,380833	0,1	0,406941
4,382500	0,1	0,422956
4,384167	0,1	0,464154
4,385833	0,1	0,462416
4,387500	0,1	0,432553
4,389167	0,1	0,409953
4,390833	0,1	0,469300
4,392500	0,1	0,429336
4,394167	0,1	0,430522
4,395833	0,1	0,414386
4,397500	0,1	0,428565
4,399167	0,1	0,413925
4,400833	0,1	0,441761
4,402500	0,1	0,427859
4,404167	0,1	0,426683
4,405833	0,1	0,412546
4,407500	0,1	0,427529
4,409167	0,1	0,415672
4,410833	0,1	0,422543
4,412500	0,1	0,440590
4,414167	0,1	0,387905
4,415833	0,1	0,431502
4,417500	0,1	0,423789
4,419167	0,1	0,441509
4,420833	0,1	0,404917
4,422500	0,1	0,409897
4,424167	0,1	0,413714
4,425833	0,1	0,409670
4,427500	0,1	0,473668
4,429167	0,1	0,446302
4,430833	0,1	0,417033
4,432500	0,1	0,437854
4,434167	0,1	0,409882
4,435833	0,1	0,465919
4,437500	0,1	0,411866
4,439167	0,1	0,466426
4,440833	0,1	0,442760
4,442500	0,1	0,422710
4,444167	0,1	0,455440
4,445833	0,1	0,449586
4,447500	0,1	0,445331
4,449167	0,1	0,444803
4,450833	0,1	0,413357
4,452500	0,1	0,457669
4,454167	0,1	0,431564
4,455833	0,1	0,396757
4,457500	0,1	0,432379
4,459167	0,1	0,439994
4,460833	0,1	0,434387
4,462500	0,1	0,438201
4,464167	0,1	0,409676
4,465833	0,1	0,423231
4,467500	0,1	0,407053
4,469167	0,1	0,417138
4,470833	0,1	0,444128
4,472500	0,1	0,416849
4,474167	0,1	0,420496
4,475833	0,1	0,415925
4,477500	0,1	0,420704
4,479167	0,1	0,470084
4,480833	0,1	0,455359
4,482500	0,1	0,445930
4,484167	0,1	0,434617
4,485833	0,1	0,433604
4,487500	0,1	0,464638
4,489167	0,1	0,406899
4,490833	0,1	0,415713
4,492500	0,1	0,436818
4,494167	0,1	0,466202
4,495833	0,1	0,421749
4,497500	0,1	0,475348
4,499167	0,1	0,469062
4,500833	0,1	0,450050
4,502500	0,1	0,433791
4,504167	0,1	0,441742
4,505833	0,1	0,436731
4,507500	0,1	0,459903
4,509167	0,1	0,429448
4,510833	0,1	0,446730
4,512500	0,1	0,436411
4,514167	0,1	0,436454
4,515833	0,1	0,449904
4,517500	0,1	0,444161
4,519167	0,1	0,458157
4,520833	0,1	0,439080
4,522500	0,1	0,463765
4,524167	0,1	0,457037
4,525833	0,1	0,453679
4,527500	0,1	0,452069
4,529167	0,1	0,435677
4,530833	0,1	0,436800
4,532500	0,1	0,433399
4,534167	0,1	0,407976
4,535833	0,1	0,462449
4,537500	0,1	0,428093
4,539167	0,1	0,439833
4,540833	0,1	0,450892
4,542500	0,1	0,433494
4,544167	0,1	0,477490
4,545833	0,1	0,406952
4,547500	0,1	0,403831
4,549167	0,1	0,443091
4,550833	0,1	0,465192
4,552500	0,1	0,418900
4,554167	0,1	0,449508
4,555833	0,1	0,461561
4,557500	0,1	0,416922
4,559167	0,1	0,444864
4,560833	0,1	0,459813
4,562500	0,1	0,415428
4,564167	0,1	0,444796
4,565833	0,1	0,430480
4,567500	0,1	0,448499
4,569167	0,1	0,464273
4,570833	0,1	0,443910
4,572500	0,1	0,430045
4,574167	0,1	0,422844
4,575833	0,1	0,419856
4,577500	0,1	0,493600
4,579167	0,1	0,451043
4,580833	0,1	0,481954
4,582500	0,1	0,421641
4,584167	0,1	0,442014
4,585833	0,1	0,449768
4,587500	0,1	0,432964
4,589167	0,1	0,445214
4,590833	0,1	0,461446
4,592500	0,1	0,431428
4,594167	0,1	0,456754
4,595833	0,1	0,449909
4,597500	0,1	0,451517
4,599167	0,1	0,426783
4,600833	0,1	0,447533
4,602500	0,1	0,483746
4,604167	0,1	0,437892
4,605833	0,1	0,397887
4,607500	0,1	0,454952
4,609167	0,1	0,443126
4,610833	0,1	0,444848
4,612500	0,1	0,432228
4,614167	0,1	0,461811
4,615833	0,1	0,436094
4,617500	0,1	0,436823
4,619167	0,1	0,424456
4,620833	0,1	0,443671
4,622500	0,1	0,415104
4,624167	0,1	0,439095
4,625833	0,1	0,455376
4,627500	0,1	0,441081
4,629167	0,1	0,448251
4,630833	0,1	0,476988
4,632500	0,1	0,458879
4,634167	0,1	0,423200
4,635833	0,1	0,452200
4,637500	0,1	0,467609
4,639167	0,1	0,456348
4,640833	0,1	0,474528
4,642500	0,1	0,455798
4,644167	0,1	0,453404
4,645833	0,1	0,450206
4,647500	0,1	0,443906
4,649167	0,1	0,458479
4,650833	0,1	0,447449
4,652500	0,1	0,449469
4,654167	0,1	0,435999
4,655833	0,1	0,442043
4,657500	0,1	0,428871
4,659167	0,1	0,442868
4,660833	0,1	0,470525
4,662500	0,1	0,443405
4,664167	0,1	0,446596
4,665833	0,1	0,449561
4,667500	0,1	0,418324
4,669167	0,1	0,468382
4,670833	0,1	0,423477
4,672500	0,1	0,466545
4,674167	0,1	0,455383
4,675833	0,1	0,435197
4,677500	0,1	0,444755
4,679167	0,1	0,509055
4,680833	0,1	0,455231
4,682500	0,1	0,475769
4,684167	0,1	0,478373
4,685833	0,1	0,471821
4,687500	0,1	0,434419
4,689167	0,1	0,452433
4,690833	0,1	0,472964
4,692500	0,1	0,455752
4,694167	0,1	0,468183
4,695833	0,1	0,440120
4,697500	0,1	0,414829
4,699167	0,1	0,455509
4,700833	0,1	0,454414
4,702500	0,1	0,462252
4,704167	0,1	0,449359
4,705833	0,1	0,497331
4,707500	0,1	0,419622
4,709167	0,1	0,451510
4,710833	0,1	0,448851
4,712500	0,1	0,461515
4,714167	0,1	0,464874
4,715833	0,1	0,480209
4,717500	0,1	0,491847
4,719167	0,1	0,416701
4,720833	0,1	0,460082
4,722500	0,1	0,452117
4,724167	0,1	0,442599
4,725833	0,1	0,429126
4,727500	0,1	0,449029
4,729167	0,1	0,448136
4,730833	0,1	0,443885
4,732500	0,1	0,437239
4,734167	0,1	0,456111
4,735833	0,1	0,430739
4,737500	0,1	0,483763
4,739167	0,1	0,454306
4,740833	0,1	0,444736
4,742500	0,1	0,475837
4,744167	0,1	0,477913
4,745833	0,1	0,470558
4,747500	0,1	0,457223
4,749167	0,1	0,466875
4,750833	0,1	0,458831
4,752500	0,1	0,452369
4,754167	0,1	0,456575
4,755833	0,1	0,456208
4,757500	0,1	0,443381
4,759167	0,1	0,446618
4,760833	0,1	0,449172
4,762500	0,1	0,455195
4,764167	0,1	0,469149
4,765833	0,1	0,426581
4,767500	0,1	0,446179
4,769167	0,1	0,476573
4,770833	0,1	0,433845
4,772500	0,1	0,440777
4,774167	0,1	0,450893
4,775833	0,1	0,468412
4,777500	0,1	0,458393
4,779167	0,1	0,454416
4,780833	0,1	0,456643
4,782500	0,1	0,441748
4,784167	0,1	0,469124
4,785833	0,1	0,442440
4,787500	0,1	0,457262
4,789167	0,1	0,463610
4,790833	0,1	0,466508
4,792500	0,1	0,499751
4,794167	0,1	0,453252
4,795833	0,1	0,454967
4,797500	0,1	0,452230
4,799167	0,1	0,416763
4,800833	0,1	0,487162
4,802500	0,1	0,476650
4,804167	0,1	0,433365
4,805833	0,1	0,460938
4,807500	0,1	0,472255
4,809167	0,1	0,488830
4,810833	0,1	0,472031
4,812500	0,1	0,465269
4,814167	0,1	0,457865
4,815833	0,1	0,451265
4,817500	0,1	0,475700
4,819167	0,1	0,420355
4,820833	0,1	0,446015
4,822500	0,1	0,462918
4,824167	0,1	0,454141
4,825833	0,1	0,478573
4,827500	0,1	0,443592
4,829167	0,1	0,481743
4,830833	0,1	0,455249
4,832500	0,1	0,440025
4,834167	0,1	0,433447
4,835833	0,1	0,439582
4,837500	0,1	0,462800
4,839167	0,1	0,445957
4,840833	0,1	0,458618
4,842500	0,1	0,444485
4,844167	0,1	0,491239
4,845833	0,1	0,440239
4,847500	0,1	0,449836
4,849167	0,1	0,487722
4,850833	0,1	0,466306
4,852500	0,1	0,470647
4,854167	0,1	0,427248
4,855833	0,1	0,454292
4,857500	0,1	0,448071
4,859167	0,1	0,446757
4,860833	0,1	0,452850
4,862500	0,1	0,465862
4,864167	0,1	0,441520
4,865833	0,1	0,487192
4,867500	0,1	0,471087
4,869167	0,1	0,465637
4,870833	0,1	0,451429
4,872500	0,1	0,491195
4,874167	0,1	0,473939
4,875833	0,1	0,466557
4,877500	0,1	0,447636
4,879167	0,1	0,442231
4,880833	0,1	0,460410
4,882500	0,1	0,473793
4,884167	0,1	0,465291
4,885833	0,1	0,487474
4,887500	0,1	0,487960
4,889167	0,1	0,461663
4,890833	0,1	0,446785
4,892500	0,1	0,513515
4,894167	0,1	0,443303
4,895833	0,1	0,477491
4,897500	0,1	0,448536
4,899167	0,1	0,463654
4,900833	0,1	0,449958
4,902500	0,1	0,472068
4,904167	0,1	0,480855
4,905833	0,1	0,448629
4,907500	0,1	0,512756
4,909167	0,1	0,449072
4,910833	0,1	0,455839
4,912500	0,1	0,473403
4,914167	0,1	0,433870
4,915833	0,1	0,470569
4,917500	0,1	0,492600
4,919167	0,1	0,488997
4,920833	0,1	0,446170
4,922500	0,1	0,467721
4,924167	0,1	0,464278
4,925833	0,1	0,487979
4,927500	0,1	0,439641
4,929167	0,1	0,480847
4,930833	0,1	0,466488
4,932500	0,1	0,464646
4,934167	0,1	0,430281
4,935833	0,1	0,431377
4,937500	0,1	0,497188
4,939167	0,1	0,464907
4,940833	0,1	0,459199
4,942500	0,1	0,497149
4,944167	0,1	0,519251
4,945833	0,1	0,467187
4,947500	0,1	0,443912
4,949167	0,1	0,458388
4,950833	0,1	0,432671
4,952500	0,1	0,496937
4,954167	0,1	0,476953
4,955833	0,1	0,443111
4,957500	0,1	0,471423
4,959167	0,1	0,501176
4,960833	0,1	0,497918
4,962500	0,1	0,457389
4,964167	0,1	0,469909
4,965833	0,1	0,467889
4,967500	0,1	0,431203
4,969167	0,1	0,471350
4,970833	0,1	0,470556
4,972500	0,1	0,484808
4,974167	0,1	0,476604
4,975833	0,1	0,485567
4,977500	0,1	0,475617
4,979167	0,1	0,456672
4,980833	0,1	0,430648
4,982500	0,1	0,425559
4,984167	0,1	0,491945
4,985833	0,1	0,468630
4,987500	0,1	0,471199
4,989167	0,1	0,454119
4,990833	0,1	0,458160
4,992500	0,1	0,456576
4,994167	0,1	0,487242
4,995833	0,1	0,477272
4,997500	0,1	0,525410
4,999167	0,1	0,483371
5,000833	0,1	0,464190
5,002500	0,1	0,441637
5,004167	0,1	0,472388
5,005833	0,1	0,483083
5,007500	0,1	0,463479
5,009167	0,1	0,523703
5,010833	0,1	0,477603
5,012500	0,1	0,484418
5,014167	0,1	0,504695
5,015833	0,1	0,455760
5,017500	0,1	0,496412
5,019167	0,1	0,468999
5,020833	0,1	0,435385
5,022500	0,1	0,458456
5,024167	0,1	0,473265
5,025833	0,1	0,479889
5,027500	0,1	0,463821
5,029167	0,1	0,485174
5,030833	0,1	0,492695
5,032500	0,1	0,458884
5,034167	0,1	0,453795
5,035833	0,1	0,460505
5,037500	0,1	0,472966
5,039167	0,1	0,444490
5,040833	0,1	0,509742
5,042500	0,1	0,483460
5,044167	0,1	0,469063
5,045833	0,1	0,503404
5,047500	0,1	0,472587
5,049167	0,1	0,498601
5,050833	0,1	0,508170
5,052500	0,1	0,478151
5,054167	0,1	0,488580
5,055833	0,1	0,473962
5,057500	0,1	0,473337
5,059167	0,1	0,480579
5,060833	0,1	0,500693
5,062500	0,1	0,461941
5,064167	0,1	0,466805
5,065833	0,1	0,470117
5,067500	0,1	0,473452
5,069167	0,1	0,501176
5,070833	0,1	0,474677
5,072500	0,1	0,471752
5,074167	0,1	0,481566
5,075833	0,1	0,501935
5,077500	0,1	0,484929
5,079167	0,1	0,484189
5,080833	0,1	0,485731
5,082500	0,1	0,428862
5,084167	0,1	0,492774
5,085833	0,1	0,466561
5,087500	0,1	0,501772
5,089167	0,1	0,479044
5,090833	0,1	0,486143
5,092500	0,1	0,492627
5,094167	0,1	0,452883
5,095833	0,1	0,489515
5,097500	0,1	0,467618
5,099167	0,1	0,448994
5,100833	0,1	0,482917
5,102500	0,1	0,472214
5,104167	0,1	0,427502
5,105833	0,1	0,460707
5,107500	0,1	0,480024
5,109167	0,1	0,465455
5,110833	0,1	0,466509
5,112500	0,1	0,507127
5,114167	0,1	0,522700
5,115833	0,1	0,499808
5,117500	0,1	0,482308
5,119167	0,1	0,495385
5,120833	0,1	0,486469
5,122500	0,1	0,512189
5,124167	0,1	0,519734
5,125833	0,1	0,454201
5,127500	0,1	0,471425
5,129167	0,1	0,490577
5,130833	0,1	0,435759
5,132500	0,1	0,496846
5,134167	0,1	0,457297
5,135833	0,1	0,497056
5,137500	0,1	0,511732
5,139167	0,1	0,496793
5,140833	0,1	0,531868
5,142500	0,1	0,477788
5,144167	0,1	0,448582
5,145833	0,1	0,458138
5,147500	0,1	0,489954
5,149167	0,1	0,471020
5,150833	0,1	0,471267
5,152500	0,1	0,496462
5,154167	0,1	0,454656
5,155833	0,1	0,461771
5,157500	0,1	0,461565
5,159167	0,1	0,490828
5,160833	0,1	0,452607
5,162500	0,1	0,494250
5,164167	0,1	0,441115
5,165833	0,1	0,492524
5,167500	0,1	0,468146
5,169167	0,1	0,473381
5,170833	0,1	0,508785
5,172500	0,1	0,458955
5,174167	0,1	0,485219
5,175833	0,1	0,481915
5,177500	0,1	0,472419
5,179167	0,1	0,527749
5,180833	0,1	0,506726
5,182500	0,1	0,490885
5,184167	0,1	0,479042
5,185833	0,1	0,516003
5,187500	0,1	0,464152
5,189167	0,1	0,466116
5,190833	0,1	0,460278
5,192500	0,1	0,503494
5,194167	0,1	0,450357
5,195833	0,1	0,457976
5,197500	0,1	0,466896
5,199167	0,1	0,502875
5,200833	0,1	0,507135
5,202500	0,1	0,528058
5,204167	0,1	0,490911
5,205833	0,1	0,514213
5,207500	0,1	0,449349
5,209167	0,1	0,491721
5,210833	0,1	0,471870
5,212500	0,1	0,482623
5,214167	0,1	0,507590
5,215833	0,1	0,465048
5,217500	0,1	0,511794
5,219167	0,1	0,513436
5,220833	0,1	0,474198
5,222500	0,1	0,472647
5,224167	0,1	0,471798
5,225833	0,1	0,473085
5,227500	0,1	0,499612
5,229167	0,1	0,506812
5,230833	0,1	0,459047
5,232500	0,1	0,517034
5,234167	0,1	0,483485
5,235833	0,1	0,459663
5,237500	0,1	0,475126
5,239167	0,1	0,494715
5,240833	0,1	0,506100
5,242500	0,1	0,510262
5,244167	0,1	0,492356
5,245833	0,1	0,501455
5,247500	0,1	0,503963
5,249167	0,1	0,521066
5,250833	0,1	0,508196
5,252500	0,1	0,482701
5,254167	0,1	0,512924
5,255833	0,1	0,528953
5,257500	0,1	0,468155
5,259167	0,1	0,499426
5,260833	0,1	0,477342
5,262500	0,1	0,509222
5,264167	0,1	0,512540
5,265833	0,1	0,452774
5,267500	0,1	0,484733
5,269167	0,1	0,455732
5,270833	0,1	0,484620
5,272500	0,1	0,511844
5,274167	0,1	0,502632
5,275833	0,1	0,506330
5,277500	0,1	0,481344
5,279167	0,1	0,510372
5,280833	0,1	0,545689
5,282500	0,1	0,504410
5,284167	0,1	0,490654
5,285833	0,1	0,484099
5,287500	0,1	0,515017
5,289167	0,1	0,513711
5,290833	0,1	0,504035
5,292500	0,1	0,509113
5,294167	0,1	0,465805
5,295833	0,1	0,502575
5,297500	0,1	0,520170
5,299167	0,1	0,509278
5,300833	0,1	0,496562
5,302500	0,1	0,522744
5,304167	0,1	0,482037
5,305833	0,1	0,517152
5,307500	0,1	0,530288
5,309167	0,1	0,497669
5,310833	0,1	0,474170
5,312500	0,1	0,497335
5,314167	0,1	0,464080
5,315833	0,1	0,531748
5,317500	0,1	0,482202
5,319167	0,1	0,457962
5,320833	0,1	0,485402
5,322500	0,1	0,474213
5,324167	0,1	0,486393
5,325833	0,1	0,499246
5,327500	0,1	0,493754
5,329167	0,1	0,512167
5,330833	0,1	0,472083
5,332500	0,1	0,499381
5,334167	0,1	0,548261
5,335833	0,1	0,486574
5,337500	0,1	0,469202
5,339167	0,1	0,518367
5,340833	0,1	0,498749
5,342500	0,1	0,479871
5,344167	0,1	0,467867
5,345833	0,1	0,492715
5,347500	0,1	0,501109
5,349167	0,1	0,545660
5,350833	0,1	0,507582
5,352500	0,1	0,490309
5,354167	0,1	0,507522
5,355833	0,1	0,455876
5,357500	0,1	0,510871
5,359167	0,1	0,513000
5,360833	0,1	0,502401
5,362500	0,1	0,476356
5,364167	0,1	0,488094
5,365833	0,1	0,491477
5,367500	0,1	0,512005
5,369167	0,1	0,522032
5,370833	0,1	0,513392
5,372500	0,1	0,466290
5,374167	0,1	0,491702
5,375833	0,1	0,505822
5,377500	0,1	0,528813
5,379167	0,1	0,510383
5,380833	0,1	0,503734
5,382500	0,1	0,490262
5,384167	0,1	0,494995
5,385833	0,1	0,509777
5,387500	0,1	0,523596
5,389167	0,1	0,509759
5,390833	0,1	0,494492
5,392500	0,1	0,516511
5,394167	0,1	0,483691
5,395833	0,1	0,474328
5,397500	0,1	0,550506
5,399167	0,1	0,486089
5,400833	0,1	0,548190
5,402500	0,1	0,507031
5,404167	0,1	0,547758
5,405833	0,1	0,488525
5,407500	0,1	0,527406
5,409167	0,1	0,527118
5,410833	0,1	0,484337
5,412500	0,1	0,470305
5,414167	0,1	0,513977
5,415833	0,1	0,488655
5,417500	0,1	0,507545
5,419167	0,1	0,528355
5,420833	0,1	0,499600
5,422500	0,1	0,506996
5,424167	0,1	0,527777
5,425833	0,1	0,469144
5,427500	0,1	0,500091
5,429167	0,1	0,527868
5,430833	0,1	0,512083
5,432500	0,1	0,510630
5,434167	0,1	0,520354
5,435833	0,1	0,522287
5,437500	0,1	0,533023
5,439167	0,1	0,479076
5,440833	0,1	0,500047
5,442500	0,1	0,533683
5,444167	0,1	0,529371
5,445833	0,1	0,490109
5,447500	0,1	0,507384
5,449167	0,1	0,516537
5,450833	0,1	0,521045
5,452500	0,1	0,515943
5,454167	0,1	0,525802
5,455833	0,1	0,503002
5,457500	0,1	0,495411
5,459167	0,1	0,524556
5,460833	0,1	0,524197
5,462500	0,1	0,460339
5,464167	0,1	0,510985
5,465833	0,1	0,527758
5,467500	0,1	0,542679
5,469167	0,1	0,490846
5,470833	0,1	0,493983
5,472500	0,1	0,491846
5,474167	0,1	0,520601
5,475833	0,1	0,528909
5,477500	0,1	0,489189
5,479167	0,1	0,492857
5,480833	0,1	0,513798
5,482500	0,1	0,504056
5,484167	0,1	0,481619
5,485833	0,1	0,535727
5,487500	0,1	0,522496
5,489167	0,1	0,477418
5,490833	0,1	0,519633
5,492500	0,1	0,522241
5,494167	0,1	0,539760
5,495833	0,1	0,493282
5,497500	0,1	0,536512
5,499167	0,1	0,517763
5,500833	0,1	0,518263
5,502500	0,1	0,525020
5,504167	0,1	0,554950
5,505833	0,1	0,509423
5,507500	0,1	0,511043
5,509167	0,1	0,527088
5,510833	0,1	0,528726
5,512500	0,1	0,500795
5,514167	0,1	0,518028
5,515833	0,1	0,505413
5,517500	0,1	0,536742
5,519167	0,1	0,536911
5,520833	0,1	0,492430
5,522500	0,1	0,532187
5,524167	0,1	0,512107
5,525833	0,1	0,532677
5,527500	0,1	0,489465
5,529167	0,1	0,515084
5,530833	0,1	0,498976
5,532500	0,1	0,542880
5,534167	0,1	0,501534
5,535833	0,1	0,505525
5,537500	0,1	0,518329
5,539167	0,1	0,541760
5,540833	0,1	0,521349
5,542500	0,1	0,521664
5,544167	0,1	0,536746
5,545833	0,1	0,549670
5,547500	0,1	0,517927
5,549167	0,1	0,547734
5,550833	0,1	0,489583
5,552500	0,1	0,538896
5,554167	0,1	0,485948
5,555833	0,1	0,503452
5,557500	0,1	0,523755
5,559167	0,1	0,534564
5,560833	0,1	0,546677
5,562500	0,1	0,531556
5,564167	0,1	0,532589
5,565833	0,1	0,514474
5,567500	0,1	0,577802
5,569167	0,1	0,559496
5,570833	0,1	0,534388
5,572500	0,1	0,527094
5,574167	0,1	0,505485
5,575833	0,1	0,487988
5,577500	0,1	0,532278
5,579167	0,1	0,533556
5,580833	0,1	0,488913
5,582500	0,1	0,538164
5,584167	0,1	0,530336
5,585833	0,1	0,532037
5,587500	0,1	0,540540
5,589167	0,1	0,551809
5,590833	0,1	0,544458
5,592500	0,1	0,566934
5,594167	0,1	0,557470
5,595833	0,1	0,525904
5,597500	0,1	0,520011
5,599167	0,1	0,487071
5,600833	0,1	0,540827
5,602500	0,1	0,513327
5,604167	0,1	0,513964
5,605833	0,1	0,565871
5,607500	0,1	0,533333
5,609167	0,1	0,495968
5,610833	0,1	0,556258
5,612500	0,1	0,491193
5,614167	0,1	0,516785
5,615833	0,1	0,565553
5,617500	0,1	0,525355
5,619167	0,1	0,540377
5,620833	0,1	0,535968
5,622500	0,1	0,492730
5,624167	0,1	0,517270
5,625833	0,1	0,529367
5,627500	0,1	0,537691
5,629167	0,1	0,523899
5,630833	0,1	0,535435
5,632500	0,1	0,522704
5,634167	0,1	0,539389
5,635833	0,1	0,565692
5,637500	0,1	0,545814
5,639167	0,1	0,529513
5,640833	0,1	0,554196
5,642500	0,1	0,547970
5,644167	0,1	0,553720
5,645833	0,1	0,525029
5,647500	0,1	0,524035
5,649167	0,1	0,535274
5,650833	0,1	0,525302
5,652500	0,1	0,526263
5,654167	0,1	0,535760
5,655833	0,1	0,510336
5,657500	0,1	0,542651
5,659167	0,1	0,530222
5,660833	0,1	0,538701
5,662500	0,1	0,519094
5,664167	0,1	0,564904
5,665833	0,1	0,517033
5,667500	0,1	0,520309
5,669167	0,1	0,541917
5,670833	0,1	0,509740
5,672500	0,1	0,555525
5,674167	0,1	0,528131
5,675833	0,1	0,517645
5,677500	0,1	0,555341
5,679167	0,1	0,546385
5,680833	0,1	0,534266
5,682500	0,1	0,534979
5,684167	0,1	0,532609
5,685833	0,1	0,523578
5,687500	0,1	0,504102
5,689167	0,1	0,498030
5,690833	0,1	0,553956
5,692500	0,1	0,545741
5,694167	0,1	0,549370
5,695833	0,1	0,524292
5,697500	0,1	0,521896
5,699167	0,1	0,508633
5,700833	0,1	0,555710
5,702500	0,1	0,510756
5,704167	0,1	0,522008
5,705833	0,1	0,557298
5,707500	0,1	0,510364
5,709167	0,1	0,574743
5,710833	0,1	0,527219
5,712500	0,1	0,518586
5,714167	0,1	0,545594
5,715833	0,1	0,536408
5,717500	0,1	0,523394
5,719167	0,1	0,538746
5,720833	0,1	0,522219
5,722500	0,1	0,536310
5,724167	0,1	0,542126
5,725833	0,1	0,573736
5,727500	0,1	0,530595
5,729167	0,1	0,533664
5,730833	0,1	0,544700
5,732500	0,1	0,524522
5,734167	0,1	0,567870
5,735833	0,1	0,586988
5,737500	0,1	0,513705
5,739167	0,1	0,536374
5,740833	0,1	0,543486
5,742500	0,1	0,545712
5,744167	0,1	0,543647
5,745833	0,1	0,533370
5,747500	0,1	0,538563
5,749167	0,1	0,528821
5,750833	0,1	0,542309
5,752500	0,1	0,543210
5,754167	0,1	0,564975
5,755833	0,1	0,534594
5,757500	0,1	0,531761
5,759167	0,1	0,530585
5,760833	0,1	0,549737
5,762500	0,1	0,546913
5,764167	0,1	0,505626
5,765833	0,1	0,560832
5,767500	0,1	0,534500
5,769167	0,1	0,564861
5,770833	0,1	0,534733
5,772500	0,1	0,540129
5,774167	0,1	0,514681
5,775833	0,1	0,554304
5,777500	0,1	0,553970
5,779167	0,1	0,495215
5,780833	0,1	0,544162
5,782500	0,1	0,556979
5,784167	0,1	0,571236
5,785833	0,1	0,523056
5,787500	0,1	0,578030
5,789167	0,1	0,593288
5,790833	0,1	0,572990
5,792500	0,1	0,564345
5,794167	0,1	0,502619
5,795833	0,1	0,566253
5,797500	0,1	0,493609
5,799167	0,1	0,525658
5,800833	0,1	0,535528
5,802500	0,1	0,529850
5,804167	0,1	0,542537
5,805833	0,1	0,541715
5,807500	0,1	0,550083
5,809167	0,1	0,546954
5,810833	0,1	0,537118
5,812500	0,1	0,559505
5,814167	0,1	0,527076
5,815833	0,1	0,581436
5,817500	0,1	0,541220
5,819167	0,1	0,555093
5,820833	0,1	0,531488
5,822500	0,1	0,507137
5,824167	0,1	0,517294
5,825833	0,1	0,534331
5,827500	0,1	0,525463
5,829167	0,1	0,577248
5,830833	0,1	0,511036
5,832500	0,1	0,526190
5,834167	0,1	0,574766
5,835833	0,1	0,544505
5,837500	0,1	0,533853
5,839167	0,1	0,522862
5,840833	0,1	0,524539
5,842500	0,1	0,565410
5,844167	0,1	0,531583
5,845833	0,1	0,560999
5,847500	0,1	0,580410
5,849167	0,1	0,534898
5,850833	0,1	0,517369
5,852500	0,1	0,577778
5,854167	0,1	0,564182
5,855833	0,1	0,544590
5,857500	0,1	0,572149
5,859167	0,1	0,563834
5,860833	0,1	0,540567
5,862500	0,1	0,538770
5,864167	0,1	0,556056
5,865833	0,1	0,557554
5,867500	0,1	0,559167
5,869167	0,1	0,552915
5,870833	0,1	0,558680
5,872500	0,1	0,496802
5,874167	0,1	0,529933
5,875833	0,1	0,568098
5,877500	0,1	0,570152
5,879167	0,1	0,549144
5,880833	0,1	0,553942
5,882500	0,1	0,547440
5,884167	0,1	0,547119
5,885833	0,1	0,588038
5,887500	0,1	0,539359
5,889167	0,1	0,535736
5,890833	0,1	0,534587
5,892500	0,1	0,549803
5,894167	0,1	0,566815
5,895833	0,1	0,528824
5,897500	0,1	0,536034
5,899167	0,1	0,542172
5,900833	0,1	0,522382
5,902500	0,1	0,546443
5,904167	0,1	0,549462
5,905833	0,1	0,538726
5,907500	0,1	0,529253
5,909167	0,1	0,537321
5,910833	0,1	0,526057
5,912500	0,1	0,519067
5,914167	0,1	0,529615
5,915833	0,1	0,557938
5,917500	0,1	0,532730
5,919167	0,1	0,559226
5,920833	0,1	0,560959
5,922500	0,1	0,539511
5,924167	0,1	0,561320
5,925833	0,1	0,544178
5,927500	0,1	0,543966
5,929167	0,1	0,594035
5,930833	0,1	0,577861
5,932500	0,1	0,567784
5,934167	0,1	0,588547
5,935833	0,1	0,568297
5,937500	0,1	0,567810
5,939167	0,1	0,517490
5,940833	0,1	0,555911
5,942500	0,1	0,540704
5,944167	0,1	0,557185
5,945833	0,1	0,562107
5,947500	0,1	0,564132
5,949167	0,1	0,544915
5,950833	0,1	0,597647
5,952500	0,1	0,568207
5,954167	0,1	0,585673
5,955833	0,1	0,535585
5,957500	0,1	0,536263
5,959167	0,1	0,587849
5,960833	0,1	0,556618
5,962500	0,1	0,571576
5,964167	0,1	0,556822
5,965833	0,1	0,551462
5,967500	0,1	0,563851
5,969167	0,1	0,537029
5,970833	0,1	0,572401
5,972500	0,1	0,545719
5,974167	0,1	0,548519
5,975833	0,1	0,526245
5,977500	0,1	0,566856
5,979167	0,1	0,591719
5,980833	0,1	0,524783
5,982500	0,1	0,618830
5,984167	0,1	0,568670
5,985833	0,1	0,531650
5,987500	0,1	0,551363
5,989167	0,1	0,562495
5,990833	0,1	0,571324
5,992500	0,1	0,539721
5,994167	0,1	0,566952
5,995833	0,1	0,521629
5,997500	0,1	0,561820
5,999167	0,1	0,594750
6,000833	0,1	0,564830
