File Path	chrom://chromeleon01/ikbm_chromeleon/2022/Rezex/Esteban/220612_chitin_4_7.seq/540.smp/UV_VIS_1.channel/UV_VIS_1.chm
Channel	UV_VIS_1

Injection Information:
Data Vault	ikbm_chromeleon
Injection	Blank__09
Injection Number	90
Position	GE1
Comment	
Processing Method	New ProcMethod
Instrument Method	Short_Rezex_6min_194nm
Type	Blank
Status	Finished
Injection Date	13.06.2022
Injection Time	02:50:06
Injection Volume (µl)	8,000
Dilution Factor	1,0000
Weight	1,0000

Chromatogram Data Information:
Time Min. (min)	0,000833
Time Max. (min)	6,000833
Data Points	3601
Detector	UV
Generating Data System	Chromeleon 7.2.9.11323
Exporting Data System	Chromeleon 7.2.9.0
Operator	Instrument Controller
Signal Quantity	Absorbance
Signal Unit	mAU
Signal Min.	-0,341306
Signal Max.	0,712793
Channel	UV_VIS_1
Driver Name	VWD3000.dll
Channel Type	Evaluation
Min. Step (s)	0,1
Max. Step (s)	0,1
Average Step (s)	0,1

Signal Parameter Information:
Signal Info	WVL:194 nm

Chromatogram Data:
Time (min)	Step (s)	Value (mAU)
0,000833	n.a.	0,004343
0,002500	0,1	-0,019221
0,004167	0,1	-0,017528
0,005833	0,1	-0,052955
0,007500	0,1	-0,024370
0,009167	0,1	0,011047
0,010833	0,1	-0,010999
0,012500	0,1	-0,013985
0,014167	0,1	-0,006158
0,015833	0,1	0,007966
0,017500	0,1	-0,018309
0,019167	0,1	-0,019764
0,020833	0,1	0,017654
0,022500	0,1	-0,000435
0,024167	0,1	0,022005
0,025833	0,1	-0,037336
0,027500	0,1	0,015413
0,029167	0,1	-0,025678
0,030833	0,1	-0,039313
0,032500	0,1	0,003815
0,034167	0,1	-0,017296
0,035833	0,1	-0,019184
0,037500	0,1	-0,022105
0,039167	0,1	-0,026661
0,040833	0,1	0,041611
0,042500	0,1	0,011973
0,044167	0,1	-0,011991
0,045833	0,1	0,006658
0,047500	0,1	-0,013816
0,049167	0,1	0,014630
0,050833	0,1	0,008964
0,052500	0,1	-0,029159
0,054167	0,1	0,003798
0,055833	0,1	-0,041108
0,057500	0,1	-0,059524
0,059167	0,1	-0,010043
0,060833	0,1	-0,021005
0,062500	0,1	-0,016577
0,064167	0,1	-0,018191
0,065833	0,1	-0,018378
0,067500	0,1	-0,024071
0,069167	0,1	-0,021609
0,070833	0,1	0,010985
0,072500	0,1	0,015032
0,074167	0,1	-0,028122
0,075833	0,1	-0,008336
0,077500	0,1	0,006908
0,079167	0,1	-0,050320
0,080833	0,1	-0,064745
0,082500	0,1	-0,018140
0,084167	0,1	-0,019164
0,085833	0,1	-0,017736
0,087500	0,1	-0,002661
0,089167	0,1	-0,021211
0,090833	0,1	-0,025603
0,092500	0,1	-0,014072
0,094167	0,1	-0,024774
0,095833	0,1	-0,080476
0,097500	0,1	0,003144
0,099167	0,1	-0,048851
0,100833	0,1	-0,046110
0,102500	0,1	-0,015423
0,104167	0,1	0,002351
0,105833	0,1	-0,017669
0,107500	0,1	0,004318
0,109167	0,1	-0,022803
0,110833	0,1	-0,046953
0,112500	0,1	-0,037269
0,114167	0,1	-0,022751
0,115833	0,1	-0,046311
0,117500	0,1	-0,041842
0,119167	0,1	-0,012875
0,120833	0,1	-0,065729
0,122500	0,1	-0,039261
0,124167	0,1	-0,003534
0,125833	0,1	-0,031025
0,127500	0,1	0,001207
0,129167	0,1	-0,024956
0,130833	0,1	-0,050349
0,132500	0,1	-0,063462
0,134167	0,1	-0,032467
0,135833	0,1	-0,019416
0,137500	0,1	-0,029559
0,139167	0,1	-0,063227
0,140833	0,1	-0,051641
0,142500	0,1	-0,018116
0,144167	0,1	-0,036722
0,145833	0,1	-0,042981
0,147500	0,1	-0,017949
0,149167	0,1	-0,013429
0,150833	0,1	-0,017880
0,152500	0,1	-0,026824
0,154167	0,1	-0,000986
0,155833	0,1	-0,016115
0,157500	0,1	-0,033553
0,159167	0,1	0,016594
0,160833	0,1	-0,058701
0,162500	0,1	-0,006418
0,164167	0,1	-0,032599
0,165833	0,1	-0,041073
0,167500	0,1	0,001516
0,169167	0,1	-0,094360
0,170833	0,1	-0,042124
0,172500	0,1	-0,039150
0,174167	0,1	-0,011921
0,175833	0,1	-0,070698
0,177500	0,1	-0,052927
0,179167	0,1	-0,067437
0,180833	0,1	-0,032966
0,182500	0,1	0,000028
0,184167	0,1	-0,026572
0,185833	0,1	-0,039208
0,187500	0,1	-0,064575
0,189167	0,1	-0,013563
0,190833	0,1	-0,015269
0,192500	0,1	-0,036805
0,194167	0,1	-0,036106
0,195833	0,1	-0,007820
0,197500	0,1	-0,036906
0,199167	0,1	-0,058404
0,200833	0,1	-0,044952
0,202500	0,1	-0,026127
0,204167	0,1	-0,056042
0,205833	0,1	-0,016585
0,207500	0,1	-0,045708
0,209167	0,1	-0,045321
0,210833	0,1	-0,026437
0,212500	0,1	-0,032024
0,214167	0,1	-0,066809
0,215833	0,1	-0,066242
0,217500	0,1	-0,045865
0,219167	0,1	-0,030766
0,220833	0,1	-0,011795
0,222500	0,1	-0,038916
0,224167	0,1	-0,017099
0,225833	0,1	-0,053246
0,227500	0,1	-0,068597
0,229167	0,1	-0,094212
0,230833	0,1	-0,026098
0,232500	0,1	-0,051447
0,234167	0,1	-0,042051
0,235833	0,1	-0,035816
0,237500	0,1	-0,019333
0,239167	0,1	-0,073100
0,240833	0,1	-0,048475
0,242500	0,1	-0,044639
0,244167	0,1	-0,045569
0,245833	0,1	-0,041532
0,247500	0,1	-0,063893
0,249167	0,1	-0,051868
0,250833	0,1	-0,043998
0,252500	0,1	-0,038738
0,254167	0,1	-0,063003
0,255833	0,1	-0,061225
0,257500	0,1	-0,041309
0,259167	0,1	-0,060663
0,260833	0,1	-0,016896
0,262500	0,1	-0,052955
0,264167	0,1	-0,026895
0,265833	0,1	-0,021341
0,267500	0,1	-0,020075
0,269167	0,1	-0,044509
0,270833	0,1	-0,046564
0,272500	0,1	0,007521
0,274167	0,1	-0,043817
0,275833	0,1	-0,001901
0,277500	0,1	-0,070696
0,279167	0,1	-0,040732
0,280833	0,1	-0,041738
0,282500	0,1	0,003173
0,284167	0,1	-0,035889
0,285833	0,1	-0,031923
0,287500	0,1	-0,055817
0,289167	0,1	-0,031575
0,290833	0,1	-0,037222
0,292500	0,1	-0,036417
0,294167	0,1	-0,058860
0,295833	0,1	-0,041783
0,297500	0,1	-0,073644
0,299167	0,1	-0,014952
0,300833	0,1	-0,004108
0,302500	0,1	-0,043448
0,304167	0,1	-0,039317
0,305833	0,1	-0,039564
0,307500	0,1	-0,047555
0,309167	0,1	-0,042856
0,310833	0,1	-0,059795
0,312500	0,1	-0,082201
0,314167	0,1	-0,061212
0,315833	0,1	-0,022279
0,317500	0,1	-0,029415
0,319167	0,1	-0,028588
0,320833	0,1	-0,042585
0,322500	0,1	-0,033023
0,324167	0,1	-0,025213
0,325833	0,1	-0,021297
0,327500	0,1	-0,037200
0,329167	0,1	-0,042277
0,330833	0,1	-0,046688
0,332500	0,1	-0,013020
0,334167	0,1	-0,066600
0,335833	0,1	-0,042470
0,337500	0,1	-0,023435
0,339167	0,1	-0,050224
0,340833	0,1	-0,042342
0,342500	0,1	-0,057081
0,344167	0,1	-0,028201
0,345833	0,1	-0,028939
0,347500	0,1	-0,024322
0,349167	0,1	-0,027716
0,350833	0,1	-0,015419
0,352500	0,1	-0,041007
0,354167	0,1	0,010483
0,355833	0,1	-0,016485
0,357500	0,1	-0,031317
0,359167	0,1	-0,032046
0,360833	0,1	-0,037513
0,362500	0,1	-0,073457
0,364167	0,1	-0,031393
0,365833	0,1	-0,025504
0,367500	0,1	-0,079749
0,369167	0,1	-0,074542
0,370833	0,1	-0,055288
0,372500	0,1	-0,047394
0,374167	0,1	-0,068263
0,375833	0,1	-0,032843
0,377500	0,1	-0,015213
0,379167	0,1	-0,042849
0,380833	0,1	-0,018486
0,382500	0,1	-0,029702
0,384167	0,1	-0,033432
0,385833	0,1	-0,035920
0,387500	0,1	-0,026581
0,389167	0,1	-0,041633
0,390833	0,1	-0,038632
0,392500	0,1	-0,028011
0,394167	0,1	-0,010677
0,395833	0,1	-0,063368
0,397500	0,1	-0,024745
0,399167	0,1	-0,020138
0,400833	0,1	-0,006719
0,402500	0,1	-0,040735
0,404167	0,1	-0,028259
0,405833	0,1	-0,064346
0,407500	0,1	-0,040730
0,409167	0,1	-0,038033
0,410833	0,1	-0,006806
0,412500	0,1	-0,048251
0,414167	0,1	-0,049421
0,415833	0,1	-0,012834
0,417500	0,1	-0,046618
0,419167	0,1	-0,038986
0,420833	0,1	-0,029003
0,422500	0,1	-0,081384
0,424167	0,1	-0,091562
0,425833	0,1	-0,035373
0,427500	0,1	-0,032668
0,429167	0,1	-0,004279
0,430833	0,1	-0,072973
0,432500	0,1	-0,042822
0,434167	0,1	-0,045860
0,435833	0,1	-0,061948
0,437500	0,1	-0,018925
0,439167	0,1	-0,000715
0,440833	0,1	-0,033716
0,442500	0,1	-0,019665
0,444167	0,1	-0,043182
0,445833	0,1	-0,055302
0,447500	0,1	-0,060086
0,449167	0,1	-0,068617
0,450833	0,1	-0,027624
0,452500	0,1	-0,062748
0,454167	0,1	-0,042116
0,455833	0,1	-0,018818
0,457500	0,1	-0,030676
0,459167	0,1	-0,059336
0,460833	0,1	-0,014307
0,462500	0,1	-0,040448
0,464167	0,1	-0,033270
0,465833	0,1	-0,043517
0,467500	0,1	-0,033435
0,469167	0,1	-0,078282
0,470833	0,1	-0,026488
0,472500	0,1	-0,047472
0,474167	0,1	-0,015113
0,475833	0,1	-0,025457
0,477500	0,1	-0,032147
0,479167	0,1	-0,042316
0,480833	0,1	-0,020640
0,482500	0,1	-0,028171
0,484167	0,1	-0,053205
0,485833	0,1	-0,039670
0,487500	0,1	-0,007077
0,489167	0,1	-0,027485
0,490833	0,1	-0,028938
0,492500	0,1	-0,033950
0,494167	0,1	-0,004777
0,495833	0,1	-0,031625
0,497500	0,1	-0,048881
0,499167	0,1	-0,031554
0,500833	0,1	-0,045339
0,502500	0,1	0,001102
0,504167	0,1	-0,000006
0,505833	0,1	-0,011374
0,507500	0,1	-0,044569
0,509167	0,1	-0,029938
0,510833	0,1	-0,045256
0,512500	0,1	-0,076006
0,514167	0,1	-0,020005
0,515833	0,1	-0,055709
0,517500	0,1	0,018390
0,519167	0,1	-0,032614
0,520833	0,1	-0,035172
0,522500	0,1	-0,086935
0,524167	0,1	-0,075622
0,525833	0,1	-0,055598
0,527500	0,1	-0,006355
0,529167	0,1	-0,060964
0,530833	0,1	-0,008884
0,532500	0,1	-0,037197
0,534167	0,1	-0,075715
0,535833	0,1	-0,060710
0,537500	0,1	0,002258
0,539167	0,1	-0,020442
0,540833	0,1	-0,032084
0,542500	0,1	-0,035752
0,544167	0,1	-0,038860
0,545833	0,1	-0,048758
0,547500	0,1	-0,036274
0,549167	0,1	-0,015110
0,550833	0,1	-0,015685
0,552500	0,1	-0,030985
0,554167	0,1	-0,018070
0,555833	0,1	-0,031919
0,557500	0,1	-0,003057
0,559167	0,1	-0,014749
0,560833	0,1	-0,000466
0,562500	0,1	-0,011002
0,564167	0,1	-0,010568
0,565833	0,1	-0,055312
0,567500	0,1	0,004391
0,569167	0,1	0,006891
0,570833	0,1	-0,026406
0,572500	0,1	-0,010283
0,574167	0,1	-0,058854
0,575833	0,1	-0,017061
0,577500	0,1	-0,013863
0,579167	0,1	-0,029102
0,580833	0,1	0,003156
0,582500	0,1	-0,008597
0,584167	0,1	-0,037672
0,585833	0,1	0,000046
0,587500	0,1	-0,033012
0,589167	0,1	-0,008359
0,590833	0,1	0,007033
0,592500	0,1	-0,022967
0,594167	0,1	-0,001005
0,595833	0,1	-0,014460
0,597500	0,1	-0,013861
0,599167	0,1	-0,022166
0,600833	0,1	-0,033824
0,602500	0,1	-0,088592
0,604167	0,1	-0,042786
0,605833	0,1	-0,036418
0,607500	0,1	-0,030516
0,609167	0,1	-0,003099
0,610833	0,1	-0,009158
0,612500	0,1	-0,037526
0,614167	0,1	-0,010657
0,615833	0,1	0,021505
0,617500	0,1	-0,023565
0,619167	0,1	0,005538
0,620833	0,1	-0,007893
0,622500	0,1	-0,024483
0,624167	0,1	0,021439
0,625833	0,1	0,005156
0,627500	0,1	-0,029036
0,629167	0,1	-0,076002
0,630833	0,1	-0,011350
0,632500	0,1	-0,030922
0,634167	0,1	-0,024716
0,635833	0,1	-0,002911
0,637500	0,1	0,013722
0,639167	0,1	-0,051022
0,640833	0,1	0,027646
0,642500	0,1	-0,007743
0,644167	0,1	0,026023
0,645833	0,1	-0,014764
0,647500	0,1	-0,006243
0,649167	0,1	0,005936
0,650833	0,1	-0,045309
0,652500	0,1	0,023819
0,654167	0,1	-0,019546
0,655833	0,1	-0,028462
0,657500	0,1	-0,020181
0,659167	0,1	0,004400
0,660833	0,1	0,000367
0,662500	0,1	-0,016510
0,664167	0,1	-0,015747
0,665833	0,1	0,009372
0,667500	0,1	0,004407
0,669167	0,1	0,000181
0,670833	0,1	-0,010028
0,672500	0,1	-0,022329
0,674167	0,1	-0,035378
0,675833	0,1	0,026036
0,677500	0,1	0,021163
0,679167	0,1	-0,007704
0,680833	0,1	-0,018893
0,682500	0,1	-0,042809
0,684167	0,1	0,010918
0,685833	0,1	-0,012925
0,687500	0,1	0,029685
0,689167	0,1	0,029241
0,690833	0,1	0,004805
0,692500	0,1	-0,016861
0,694167	0,1	0,030308
0,695833	0,1	-0,039052
0,697500	0,1	0,032122
0,699167	0,1	-0,031017
0,700833	0,1	0,016470
0,702500	0,1	-0,004703
0,704167	0,1	0,022709
0,705833	0,1	0,013666
0,707500	0,1	-0,024292
0,709167	0,1	0,009514
0,710833	0,1	-0,012097
0,712500	0,1	-0,014525
0,714167	0,1	0,020885
0,715833	0,1	-0,057522
0,717500	0,1	0,029737
0,719167	0,1	0,017706
0,720833	0,1	0,003560
0,722500	0,1	-0,009219
0,724167	0,1	0,005542
0,725833	0,1	0,002873
0,727500	0,1	0,005276
0,729167	0,1	0,030745
0,730833	0,1	-0,016523
0,732500	0,1	0,020013
0,734167	0,1	0,028534
0,735833	0,1	0,013212
0,737500	0,1	0,008115
0,739167	0,1	-0,001806
0,740833	0,1	-0,000400
0,742500	0,1	0,012150
0,744167	0,1	-0,014395
0,745833	0,1	0,032024
0,747500	0,1	0,003626
0,749167	0,1	0,016023
0,750833	0,1	0,037601
0,752500	0,1	0,015533
0,754167	0,1	-0,049511
0,755833	0,1	0,003855
0,757500	0,1	-0,019532
0,759167	0,1	0,049793
0,760833	0,1	0,037591
0,762500	0,1	0,019407
0,764167	0,1	-0,005013
0,765833	0,1	0,030703
0,767500	0,1	-0,019234
0,769167	0,1	0,015542
0,770833	0,1	0,035945
0,772500	0,1	0,065669
0,774167	0,1	0,005766
0,775833	0,1	0,010183
0,777500	0,1	0,029547
0,779167	0,1	0,029135
0,780833	0,1	0,032676
0,782500	0,1	0,000705
0,784167	0,1	0,041595
0,785833	0,1	0,026863
0,787500	0,1	-0,008447
0,789167	0,1	0,022895
0,790833	0,1	-0,001842
0,792500	0,1	0,007096
0,794167	0,1	0,003971
0,795833	0,1	0,029876
0,797500	0,1	0,031995
0,799167	0,1	0,002860
0,800833	0,1	0,002542
0,802500	0,1	0,033499
0,804167	0,1	0,013544
0,805833	0,1	0,044932
0,807500	0,1	-0,003288
0,809167	0,1	0,019188
0,810833	0,1	0,011926
0,812500	0,1	0,042034
0,814167	0,1	0,040365
0,815833	0,1	0,025703
0,817500	0,1	0,021307
0,819167	0,1	0,021205
0,820833	0,1	0,031601
0,822500	0,1	-0,001903
0,824167	0,1	0,036770
0,825833	0,1	0,000107
0,827500	0,1	0,019375
0,829167	0,1	0,039509
0,830833	0,1	0,038810
0,832500	0,1	0,008534
0,834167	0,1	0,026956
0,835833	0,1	-0,027518
0,837500	0,1	0,020758
0,839167	0,1	0,032157
0,840833	0,1	0,057675
0,842500	0,1	0,029723
0,844167	0,1	0,050652
0,845833	0,1	0,020279
0,847500	0,1	0,037810
0,849167	0,1	0,070101
0,850833	0,1	0,032811
0,852500	0,1	0,020484
0,854167	0,1	0,071443
0,855833	0,1	0,060003
0,857500	0,1	0,082408
0,859167	0,1	0,025297
0,860833	0,1	0,044293
0,862500	0,1	0,025413
0,864167	0,1	0,029738
0,865833	0,1	0,024666
0,867500	0,1	0,049310
0,869167	0,1	0,048361
0,870833	0,1	0,058571
0,872500	0,1	0,040886
0,874167	0,1	0,044258
0,875833	0,1	0,038338
0,877500	0,1	0,045705
0,879167	0,1	0,059792
0,880833	0,1	0,042830
0,882500	0,1	0,075967
0,884167	0,1	0,017491
0,885833	0,1	0,048684
0,887500	0,1	0,033016
0,889167	0,1	-0,000618
0,890833	0,1	0,063154
0,892500	0,1	0,058676
0,894167	0,1	0,074311
0,895833	0,1	0,082558
0,897500	0,1	0,096560
0,899167	0,1	0,053280
0,900833	0,1	0,069854
0,902500	0,1	0,054950
0,904167	0,1	0,047635
0,905833	0,1	0,093962
0,907500	0,1	0,099172
0,909167	0,1	0,077077
0,910833	0,1	0,092706
0,912500	0,1	0,085688
0,914167	0,1	0,105612
0,915833	0,1	0,034727
0,917500	0,1	0,057635
0,919167	0,1	0,089617
0,920833	0,1	0,107314
0,922500	0,1	0,081886
0,924167	0,1	0,121704
0,925833	0,1	0,114031
0,927500	0,1	0,053014
0,929167	0,1	0,045152
0,930833	0,1	0,109496
0,932500	0,1	0,082896
0,934167	0,1	0,121539
0,935833	0,1	0,066168
0,937500	0,1	0,078892
0,939167	0,1	0,103334
0,940833	0,1	0,114506
0,942500	0,1	0,093545
0,944167	0,1	0,125143
0,945833	0,1	0,137601
0,947500	0,1	0,136648
0,949167	0,1	0,114927
0,950833	0,1	0,104335
0,952500	0,1	0,086505
0,954167	0,1	0,125064
0,955833	0,1	0,124759
0,957500	0,1	0,163287
0,959167	0,1	0,123838
0,960833	0,1	0,165957
0,962500	0,1	0,089063
0,964167	0,1	0,126577
0,965833	0,1	0,115670
0,967500	0,1	0,162467
0,969167	0,1	0,126694
0,970833	0,1	0,132025
0,972500	0,1	0,136610
0,974167	0,1	0,109063
0,975833	0,1	0,153174
0,977500	0,1	0,141852
0,979167	0,1	0,199418
0,980833	0,1	0,169273
0,982500	0,1	0,166862
0,984167	0,1	0,169857
0,985833	0,1	0,144096
0,987500	0,1	0,160372
0,989167	0,1	0,129162
0,990833	0,1	0,178310
0,992500	0,1	0,159095
0,994167	0,1	0,142270
0,995833	0,1	0,176965
0,997500	0,1	0,161336
0,999167	0,1	0,195152
1,000833	0,1	0,175279
1,002500	0,1	0,181369
1,004167	0,1	0,161109
1,005833	0,1	0,196917
1,007500	0,1	0,210085
1,009167	0,1	0,187005
1,010833	0,1	0,205044
1,012500	0,1	0,192810
1,014167	0,1	0,220876
1,015833	0,1	0,179087
1,017500	0,1	0,188888
1,019167	0,1	0,170203
1,020833	0,1	0,196730
1,022500	0,1	0,191761
1,024167	0,1	0,200033
1,025833	0,1	0,218397
1,027500	0,1	0,176947
1,029167	0,1	0,200546
1,030833	0,1	0,196750
1,032500	0,1	0,214781
1,034167	0,1	0,176946
1,035833	0,1	0,178096
1,037500	0,1	0,207259
1,039167	0,1	0,225337
1,040833	0,1	0,227984
1,042500	0,1	0,250175
1,044167	0,1	0,260132
1,045833	0,1	0,227441
1,047500	0,1	0,250944
1,049167	0,1	0,240898
1,050833	0,1	0,217838
1,052500	0,1	0,250426
1,054167	0,1	0,229755
1,055833	0,1	0,227332
1,057500	0,1	0,257266
1,059167	0,1	0,203702
1,060833	0,1	0,232148
1,062500	0,1	0,219338
1,064167	0,1	0,229937
1,065833	0,1	0,237482
1,067500	0,1	0,215710
1,069167	0,1	0,250489
1,070833	0,1	0,270481
1,072500	0,1	0,242115
1,074167	0,1	0,253444
1,075833	0,1	0,256604
1,077500	0,1	0,248218
1,079167	0,1	0,229944
1,080833	0,1	0,259447
1,082500	0,1	0,257980
1,084167	0,1	0,300381
1,085833	0,1	0,214479
1,087500	0,1	0,239405
1,089167	0,1	0,264173
1,090833	0,1	0,270565
1,092500	0,1	0,284101
1,094167	0,1	0,242156
1,095833	0,1	0,243367
1,097500	0,1	0,274296
1,099167	0,1	0,289719
1,100833	0,1	0,299612
1,102500	0,1	0,241580
1,104167	0,1	0,278757
1,105833	0,1	0,269229
1,107500	0,1	0,272819
1,109167	0,1	0,289330
1,110833	0,1	0,246425
1,112500	0,1	0,246352
1,114167	0,1	0,266879
1,115833	0,1	0,257022
1,117500	0,1	0,279437
1,119167	0,1	0,309760
1,120833	0,1	0,258029
1,122500	0,1	0,268772
1,124167	0,1	0,305107
1,125833	0,1	0,280797
1,127500	0,1	0,276134
1,129167	0,1	0,284998
1,130833	0,1	0,289206
1,132500	0,1	0,304623
1,134167	0,1	0,281820
1,135833	0,1	0,283136
1,137500	0,1	0,270705
1,139167	0,1	0,323793
1,140833	0,1	0,318185
1,142500	0,1	0,289341
1,144167	0,1	0,293796
1,145833	0,1	0,304173
1,147500	0,1	0,277966
1,149167	0,1	0,294216
1,150833	0,1	0,281246
1,152500	0,1	0,281209
1,154167	0,1	0,253425
1,155833	0,1	0,264148
1,157500	0,1	0,276700
1,159167	0,1	0,304162
1,160833	0,1	0,276591
1,162500	0,1	0,298488
1,164167	0,1	0,294221
1,165833	0,1	0,298040
1,167500	0,1	0,333118
1,169167	0,1	0,326151
1,170833	0,1	0,300715
1,172500	0,1	0,283267
1,174167	0,1	0,275653
1,175833	0,1	0,343158
1,177500	0,1	0,273190
1,179167	0,1	0,287149
1,180833	0,1	0,295984
1,182500	0,1	0,312949
1,184167	0,1	0,307680
1,185833	0,1	0,276111
1,187500	0,1	0,287956
1,189167	0,1	0,289136
1,190833	0,1	0,322292
1,192500	0,1	0,232493
1,194167	0,1	0,290541
1,195833	0,1	0,245495
1,197500	0,1	0,299403
1,199167	0,1	0,336394
1,200833	0,1	0,306435
1,202500	0,1	0,315711
1,204167	0,1	0,288183
1,205833	0,1	0,302887
1,207500	0,1	0,285547
1,209167	0,1	0,325400
1,210833	0,1	0,326121
1,212500	0,1	0,310541
1,214167	0,1	0,335626
1,215833	0,1	0,291817
1,217500	0,1	0,319526
1,219167	0,1	0,275987
1,220833	0,1	0,285569
1,222500	0,1	0,314676
1,224167	0,1	0,291106
1,225833	0,1	0,290817
1,227500	0,1	0,292448
1,229167	0,1	0,348343
1,230833	0,1	0,315367
1,232500	0,1	0,311471
1,234167	0,1	0,315295
1,235833	0,1	0,318156
1,237500	0,1	0,304369
1,239167	0,1	0,305524
1,240833	0,1	0,323065
1,242500	0,1	0,309510
1,244167	0,1	0,302159
1,245833	0,1	0,329489
1,247500	0,1	0,306236
1,249167	0,1	0,289819
1,250833	0,1	0,344934
1,252500	0,1	0,303931
1,254167	0,1	0,309732
1,255833	0,1	0,293835
1,257500	0,1	0,338771
1,259167	0,1	0,315556
1,260833	0,1	0,335049
1,262500	0,1	0,278970
1,264167	0,1	0,284129
1,265833	0,1	0,295820
1,267500	0,1	0,344553
1,269167	0,1	0,324678
1,270833	0,1	0,291299
1,272500	0,1	0,370700
1,274167	0,1	0,306824
1,275833	0,1	0,304149
1,277500	0,1	0,330162
1,279167	0,1	0,292331
1,280833	0,1	0,317599
1,282500	0,1	0,313363
1,284167	0,1	0,296152
1,285833	0,1	0,300864
1,287500	0,1	0,341503
1,289167	0,1	0,309126
1,290833	0,1	0,314715
1,292500	0,1	0,305590
1,294167	0,1	0,330486
1,295833	0,1	0,313402
1,297500	0,1	0,342115
1,299167	0,1	0,305215
1,300833	0,1	0,306618
1,302500	0,1	0,277099
1,304167	0,1	0,335294
1,305833	0,1	0,322297
1,307500	0,1	0,337972
1,309167	0,1	0,305856
1,310833	0,1	0,282944
1,312500	0,1	0,311788
1,314167	0,1	0,279316
1,315833	0,1	0,310014
1,317500	0,1	0,330712
1,319167	0,1	0,345140
1,320833	0,1	0,331426
1,322500	0,1	0,310987
1,324167	0,1	0,303310
1,325833	0,1	0,285610
1,327500	0,1	0,327945
1,329167	0,1	0,340191
1,330833	0,1	0,297174
1,332500	0,1	0,340757
1,334167	0,1	0,338619
1,335833	0,1	0,344395
1,337500	0,1	0,332832
1,339167	0,1	0,325926
1,340833	0,1	0,320113
1,342500	0,1	0,297692
1,344167	0,1	0,292704
1,345833	0,1	0,324441
1,347500	0,1	0,336012
1,349167	0,1	0,305758
1,350833	0,1	0,309315
1,352500	0,1	0,362927
1,354167	0,1	0,314377
1,355833	0,1	0,310150
1,357500	0,1	0,328624
1,359167	0,1	0,315229
1,360833	0,1	0,332282
1,362500	0,1	0,392937
1,364167	0,1	0,350067
1,365833	0,1	0,328309
1,367500	0,1	0,334855
1,369167	0,1	0,375300
1,370833	0,1	0,318967
1,372500	0,1	0,370544
1,374167	0,1	0,381126
1,375833	0,1	0,364390
1,377500	0,1	0,360111
1,379167	0,1	0,339069
1,380833	0,1	0,358406
1,382500	0,1	0,359020
1,384167	0,1	0,314369
1,385833	0,1	0,323676
1,387500	0,1	0,338072
1,389167	0,1	0,321719
1,390833	0,1	0,326472
1,392500	0,1	0,358467
1,394167	0,1	0,345205
1,395833	0,1	0,382597
1,397500	0,1	0,350001
1,399167	0,1	0,346557
1,400833	0,1	0,318960
1,402500	0,1	0,341693
1,404167	0,1	0,349604
1,405833	0,1	0,336306
1,407500	0,1	0,330266
1,409167	0,1	0,352941
1,410833	0,1	0,342089
1,412500	0,1	0,344495
1,414167	0,1	0,358790
1,415833	0,1	0,409326
1,417500	0,1	0,353378
1,419167	0,1	0,353589
1,420833	0,1	0,357734
1,422500	0,1	0,337756
1,424167	0,1	0,384650
1,425833	0,1	0,343613
1,427500	0,1	0,374627
1,429167	0,1	0,349579
1,430833	0,1	0,349223
1,432500	0,1	0,365152
1,434167	0,1	0,366696
1,435833	0,1	0,368113
1,437500	0,1	0,368468
1,439167	0,1	0,318417
1,440833	0,1	0,356828
1,442500	0,1	0,355841
1,444167	0,1	0,363836
1,445833	0,1	0,403963
1,447500	0,1	0,381965
1,449167	0,1	0,343317
1,450833	0,1	0,396347
1,452500	0,1	0,389676
1,454167	0,1	0,373003
1,455833	0,1	0,376981
1,457500	0,1	0,408563
1,459167	0,1	0,367061
1,460833	0,1	0,371038
1,462500	0,1	0,356772
1,464167	0,1	0,410643
1,465833	0,1	0,362469
1,467500	0,1	0,380996
1,469167	0,1	0,382315
1,470833	0,1	0,373739
1,472500	0,1	0,372711
1,474167	0,1	0,362240
1,475833	0,1	0,399756
1,477500	0,1	0,412871
1,479167	0,1	0,384153
1,480833	0,1	0,386302
1,482500	0,1	0,371557
1,484167	0,1	0,398566
1,485833	0,1	0,393305
1,487500	0,1	0,351967
1,489167	0,1	0,392587
1,490833	0,1	0,399473
1,492500	0,1	0,407859
1,494167	0,1	0,387301
1,495833	0,1	0,377659
1,497500	0,1	0,373962
1,499167	0,1	0,367536
1,500833	0,1	0,373700
1,502500	0,1	0,386551
1,504167	0,1	0,407280
1,505833	0,1	0,404744
1,507500	0,1	0,398766
1,509167	0,1	0,381644
1,510833	0,1	0,393109
1,512500	0,1	0,388518
1,514167	0,1	0,378781
1,515833	0,1	0,379584
1,517500	0,1	0,365287
1,519167	0,1	0,379904
1,520833	0,1	0,380004
1,522500	0,1	0,387809
1,524167	0,1	0,403841
1,525833	0,1	0,383509
1,527500	0,1	0,392915
1,529167	0,1	0,402653
1,530833	0,1	0,385113
1,532500	0,1	0,381900
1,534167	0,1	0,378687
1,535833	0,1	0,407211
1,537500	0,1	0,405227
1,539167	0,1	0,391283
1,540833	0,1	0,407988
1,542500	0,1	0,409210
1,544167	0,1	0,419427
1,545833	0,1	0,395493
1,547500	0,1	0,414478
1,549167	0,1	0,382834
1,550833	0,1	0,394072
1,552500	0,1	0,415277
1,554167	0,1	0,405037
1,555833	0,1	0,405357
1,557500	0,1	0,410462
1,559167	0,1	0,428262
1,560833	0,1	0,373299
1,562500	0,1	0,395549
1,564167	0,1	0,422958
1,565833	0,1	0,408894
1,567500	0,1	0,425884
1,569167	0,1	0,404138
1,570833	0,1	0,433335
1,572500	0,1	0,442725
1,574167	0,1	0,392159
1,575833	0,1	0,436611
1,577500	0,1	0,418500
1,579167	0,1	0,481983
1,580833	0,1	0,450062
1,582500	0,1	0,404016
1,584167	0,1	0,393597
1,585833	0,1	0,419391
1,587500	0,1	0,421130
1,589167	0,1	0,395622
1,590833	0,1	0,414475
1,592500	0,1	0,411976
1,594167	0,1	0,435363
1,595833	0,1	0,446614
1,597500	0,1	0,419852
1,599167	0,1	0,403012
1,600833	0,1	0,425368
1,602500	0,1	0,403562
1,604167	0,1	0,427266
1,605833	0,1	0,408924
1,607500	0,1	0,418334
1,609167	0,1	0,439092
1,610833	0,1	0,505123
1,612500	0,1	0,434422
1,614167	0,1	0,448862
1,615833	0,1	0,443790
1,617500	0,1	0,412111
1,619167	0,1	0,429418
1,620833	0,1	0,420234
1,622500	0,1	0,484104
1,624167	0,1	0,452247
1,625833	0,1	0,450344
1,627500	0,1	0,477076
1,629167	0,1	0,441868
1,630833	0,1	0,465571
1,632500	0,1	0,470492
1,634167	0,1	0,450414
1,635833	0,1	0,458762
1,637500	0,1	0,439486
1,639167	0,1	0,479354
1,640833	0,1	0,447524
1,642500	0,1	0,440512
1,644167	0,1	0,473377
1,645833	0,1	0,428405
1,647500	0,1	0,466789
1,649167	0,1	0,466379
1,650833	0,1	0,489642
1,652500	0,1	0,460023
1,654167	0,1	0,430072
1,655833	0,1	0,483464
1,657500	0,1	0,475092
1,659167	0,1	0,430430
1,660833	0,1	0,450563
1,662500	0,1	0,519618
1,664167	0,1	0,438824
1,665833	0,1	0,482086
1,667500	0,1	0,446785
1,669167	0,1	0,461203
1,670833	0,1	0,455873
1,672500	0,1	0,447999
1,674167	0,1	0,450408
1,675833	0,1	0,447902
1,677500	0,1	0,481026
1,679167	0,1	0,449581
1,680833	0,1	0,467596
1,682500	0,1	0,461881
1,684167	0,1	0,482670
1,685833	0,1	0,497648
1,687500	0,1	0,450579
1,689167	0,1	0,474729
1,690833	0,1	0,466574
1,692500	0,1	0,456226
1,694167	0,1	0,476435
1,695833	0,1	0,466960
1,697500	0,1	0,523607
1,699167	0,1	0,491004
1,700833	0,1	0,487849
1,702500	0,1	0,483254
1,704167	0,1	0,507898
1,705833	0,1	0,503919
1,707500	0,1	0,481523
1,709167	0,1	0,483862
1,710833	0,1	0,478305
1,712500	0,1	0,491252
1,714167	0,1	0,471817
1,715833	0,1	0,470815
1,717500	0,1	0,502273
1,719167	0,1	0,479947
1,720833	0,1	0,484152
1,722500	0,1	0,522678
1,724167	0,1	0,488082
1,725833	0,1	0,516445
1,727500	0,1	0,492867
1,729167	0,1	0,520752
1,730833	0,1	0,494410
1,732500	0,1	0,511147
1,734167	0,1	0,546208
1,735833	0,1	0,533298
1,737500	0,1	0,509389
1,739167	0,1	0,508033
1,740833	0,1	0,538237
1,742500	0,1	0,527576
1,744167	0,1	0,530048
1,745833	0,1	0,530500
1,747500	0,1	0,484808
1,749167	0,1	0,555742
1,750833	0,1	0,562093
1,752500	0,1	0,538666
1,754167	0,1	0,503799
1,755833	0,1	0,495532
1,757500	0,1	0,497488
1,759167	0,1	0,499902
1,760833	0,1	0,527438
1,762500	0,1	0,531236
1,764167	0,1	0,519220
1,765833	0,1	0,531557
1,767500	0,1	0,546759
1,769167	0,1	0,515110
1,770833	0,1	0,535219
1,772500	0,1	0,572020
1,774167	0,1	0,541436
1,775833	0,1	0,574981
1,777500	0,1	0,528709
1,779167	0,1	0,503122
1,780833	0,1	0,534221
1,782500	0,1	0,531402
1,784167	0,1	0,528960
1,785833	0,1	0,534614
1,787500	0,1	0,569163
1,789167	0,1	0,568046
1,790833	0,1	0,561518
1,792500	0,1	0,531694
1,794167	0,1	0,525905
1,795833	0,1	0,539368
1,797500	0,1	0,513631
1,799167	0,1	0,558133
1,800833	0,1	0,552295
1,802500	0,1	0,560778
1,804167	0,1	0,619715
1,805833	0,1	0,538264
1,807500	0,1	0,567166
1,809167	0,1	0,567015
1,810833	0,1	0,554738
1,812500	0,1	0,545127
1,814167	0,1	0,580476
1,815833	0,1	0,575856
1,817500	0,1	0,580030
1,819167	0,1	0,579679
1,820833	0,1	0,578588
1,822500	0,1	0,555611
1,824167	0,1	0,572668
1,825833	0,1	0,620460
1,827500	0,1	0,602699
1,829167	0,1	0,532091
1,830833	0,1	0,594646
1,832500	0,1	0,570235
1,834167	0,1	0,587330
1,835833	0,1	0,607218
1,837500	0,1	0,569984
1,839167	0,1	0,600310
1,840833	0,1	0,590061
1,842500	0,1	0,601699
1,844167	0,1	0,619277
1,845833	0,1	0,598458
1,847500	0,1	0,587879
1,849167	0,1	0,585753
1,850833	0,1	0,625606
1,852500	0,1	0,582359
1,854167	0,1	0,576245
1,855833	0,1	0,614611
1,857500	0,1	0,568057
1,859167	0,1	0,583792
1,860833	0,1	0,631521
1,862500	0,1	0,616364
1,864167	0,1	0,581486
1,865833	0,1	0,606357
1,867500	0,1	0,613975
1,869167	0,1	0,624002
1,870833	0,1	0,655086
1,872500	0,1	0,603514
1,874167	0,1	0,607129
1,875833	0,1	0,582031
1,877500	0,1	0,619502
1,879167	0,1	0,628223
1,880833	0,1	0,645834
1,882500	0,1	0,666801
1,884167	0,1	0,644520
1,885833	0,1	0,654231
1,887500	0,1	0,577773
1,889167	0,1	0,653089
1,890833	0,1	0,672746
1,892500	0,1	0,605576
1,894167	0,1	0,654577
1,895833	0,1	0,619584
1,897500	0,1	0,620024
1,899167	0,1	0,607999
1,900833	0,1	0,634098
1,902500	0,1	0,634005
1,904167	0,1	0,616720
1,905833	0,1	0,594051
1,907500	0,1	0,633872
1,909167	0,1	0,637449
1,910833	0,1	0,626579
1,912500	0,1	0,621153
1,914167	0,1	0,655381
1,915833	0,1	0,633880
1,917500	0,1	0,670235
1,919167	0,1	0,631672
1,920833	0,1	0,638734
1,922500	0,1	0,625656
1,924167	0,1	0,633042
1,925833	0,1	0,642939
1,927500	0,1	0,646033
1,929167	0,1	0,643750
1,930833	0,1	0,629384
1,932500	0,1	0,639051
1,934167	0,1	0,660910
1,935833	0,1	0,657897
1,937500	0,1	0,672291
1,939167	0,1	0,640002
1,940833	0,1	0,662457
1,942500	0,1	0,651859
1,944167	0,1	0,646771
1,945833	0,1	0,643845
1,947500	0,1	0,622956
1,949167	0,1	0,653583
1,950833	0,1	0,642886
1,952500	0,1	0,676435
1,954167	0,1	0,648257
1,955833	0,1	0,619453
1,957500	0,1	0,638891
1,959167	0,1	0,662326
1,960833	0,1	0,698149
1,962500	0,1	0,681284
1,964167	0,1	0,642025
1,965833	0,1	0,652814
1,967500	0,1	0,690395
1,969167	0,1	0,665648
1,970833	0,1	0,646521
1,972500	0,1	0,656998
1,974167	0,1	0,633049
1,975833	0,1	0,663285
1,977500	0,1	0,676710
1,979167	0,1	0,650671
1,980833	0,1	0,629581
1,982500	0,1	0,652719
1,984167	0,1	0,678180
1,985833	0,1	0,674169
1,987500	0,1	0,670731
1,989167	0,1	0,682655
1,990833	0,1	0,669986
1,992500	0,1	0,671885
1,994167	0,1	0,667060
1,995833	0,1	0,680429
1,997500	0,1	0,641485
1,999167	0,1	0,643626
2,000833	0,1	0,669008
2,002500	0,1	0,655840
2,004167	0,1	0,624980
2,005833	0,1	0,674893
2,007500	0,1	0,669472
2,009167	0,1	0,660470
2,010833	0,1	0,651923
2,012500	0,1	0,642821
2,014167	0,1	0,648482
2,015833	0,1	0,656247
2,017500	0,1	0,668928
2,019167	0,1	0,630676
2,020833	0,1	0,667980
2,022500	0,1	0,641314
2,024167	0,1	0,675828
2,025833	0,1	0,673004
2,027500	0,1	0,664684
2,029167	0,1	0,674586
2,030833	0,1	0,687343
2,032500	0,1	0,613908
2,034167	0,1	0,660234
2,035833	0,1	0,664586
2,037500	0,1	0,672071
2,039167	0,1	0,672490
2,040833	0,1	0,669341
2,042500	0,1	0,650827
2,044167	0,1	0,660336
2,045833	0,1	0,672236
2,047500	0,1	0,632345
2,049167	0,1	0,692923
2,050833	0,1	0,646593
2,052500	0,1	0,638225
2,054167	0,1	0,657126
2,055833	0,1	0,639861
2,057500	0,1	0,620223
2,059167	0,1	0,664801
2,060833	0,1	0,675481
2,062500	0,1	0,645686
2,064167	0,1	0,667696
2,065833	0,1	0,656743
2,067500	0,1	0,670344
2,069167	0,1	0,639041
2,070833	0,1	0,599430
2,072500	0,1	0,635194
2,074167	0,1	0,658981
2,075833	0,1	0,635433
2,077500	0,1	0,643077
2,079167	0,1	0,652814
2,080833	0,1	0,650218
2,082500	0,1	0,712793
2,084167	0,1	0,683951
2,085833	0,1	0,674395
2,087500	0,1	0,679050
2,089167	0,1	0,643310
2,090833	0,1	0,682426
2,092500	0,1	0,643889
2,094167	0,1	0,673742
2,095833	0,1	0,653177
2,097500	0,1	0,628966
2,099167	0,1	0,635902
2,100833	0,1	0,687017
2,102500	0,1	0,624577
2,104167	0,1	0,643970
2,105833	0,1	0,644495
2,107500	0,1	0,651502
2,109167	0,1	0,613770
2,110833	0,1	0,647890
2,112500	0,1	0,679882
2,114167	0,1	0,630265
2,115833	0,1	0,650848
2,117500	0,1	0,609622
2,119167	0,1	0,644897
2,120833	0,1	0,591783
2,122500	0,1	0,627471
2,124167	0,1	0,636712
2,125833	0,1	0,635746
2,127500	0,1	0,628254
2,129167	0,1	0,614660
2,130833	0,1	0,615300
2,132500	0,1	0,664445
2,134167	0,1	0,659539
2,135833	0,1	0,608045
2,137500	0,1	0,688903
2,139167	0,1	0,661053
2,140833	0,1	0,643466
2,142500	0,1	0,599265
2,144167	0,1	0,643256
2,145833	0,1	0,639640
2,147500	0,1	0,630221
2,149167	0,1	0,645227
2,150833	0,1	0,640153
2,152500	0,1	0,586862
2,154167	0,1	0,651097
2,155833	0,1	0,610939
2,157500	0,1	0,631398
2,159167	0,1	0,614176
2,160833	0,1	0,644775
2,162500	0,1	0,625274
2,164167	0,1	0,638575
2,165833	0,1	0,644716
2,167500	0,1	0,638737
2,169167	0,1	0,587665
2,170833	0,1	0,641650
2,172500	0,1	0,645773
2,174167	0,1	0,608879
2,175833	0,1	0,618346
2,177500	0,1	0,623976
2,179167	0,1	0,587631
2,180833	0,1	0,636535
2,182500	0,1	0,589816
2,184167	0,1	0,603752
2,185833	0,1	0,599515
2,187500	0,1	0,611504
2,189167	0,1	0,641078
2,190833	0,1	0,634619
2,192500	0,1	0,604800
2,194167	0,1	0,609611
2,195833	0,1	0,643649
2,197500	0,1	0,605600
2,199167	0,1	0,619668
2,200833	0,1	0,579722
2,202500	0,1	0,618954
2,204167	0,1	0,601802
2,205833	0,1	0,634487
2,207500	0,1	0,606658
2,209167	0,1	0,629533
2,210833	0,1	0,603572
2,212500	0,1	0,604623
2,214167	0,1	0,560920
2,215833	0,1	0,582186
2,217500	0,1	0,578492
2,219167	0,1	0,584826
2,220833	0,1	0,566600
2,222500	0,1	0,581832
2,224167	0,1	0,573096
2,225833	0,1	0,620207
2,227500	0,1	0,594636
2,229167	0,1	0,611142
2,230833	0,1	0,588973
2,232500	0,1	0,576949
2,234167	0,1	0,578361
2,235833	0,1	0,590893
2,237500	0,1	0,632873
2,239167	0,1	0,589209
2,240833	0,1	0,607868
2,242500	0,1	0,590452
2,244167	0,1	0,548414
2,245833	0,1	0,592143
2,247500	0,1	0,548476
2,249167	0,1	0,603135
2,250833	0,1	0,568370
2,252500	0,1	0,578909
2,254167	0,1	0,535847
2,255833	0,1	0,585707
2,257500	0,1	0,589133
2,259167	0,1	0,597425
2,260833	0,1	0,576539
2,262500	0,1	0,586976
2,264167	0,1	0,565734
2,265833	0,1	0,614003
2,267500	0,1	0,550283
2,269167	0,1	0,611975
2,270833	0,1	0,583188
2,272500	0,1	0,552430
2,274167	0,1	0,553288
2,275833	0,1	0,593430
2,277500	0,1	0,562810
2,279167	0,1	0,592623
2,280833	0,1	0,538163
2,282500	0,1	0,577709
2,284167	0,1	0,543847
2,285833	0,1	0,560999
2,287500	0,1	0,575115
2,289167	0,1	0,538321
2,290833	0,1	0,541199
2,292500	0,1	0,584203
2,294167	0,1	0,548380
2,295833	0,1	0,548598
2,297500	0,1	0,564953
2,299167	0,1	0,541628
2,300833	0,1	0,540786
2,302500	0,1	0,585200
2,304167	0,1	0,568976
2,305833	0,1	0,541081
2,307500	0,1	0,597896
2,309167	0,1	0,521005
2,310833	0,1	0,573496
2,312500	0,1	0,531121
2,314167	0,1	0,547948
2,315833	0,1	0,556921
2,317500	0,1	0,550589
2,319167	0,1	0,489247
2,320833	0,1	0,507771
2,322500	0,1	0,539525
2,324167	0,1	0,524398
2,325833	0,1	0,531335
2,327500	0,1	0,537987
2,329167	0,1	0,543934
2,330833	0,1	0,561803
2,332500	0,1	0,550820
2,334167	0,1	0,486964
2,335833	0,1	0,532448
2,337500	0,1	0,535866
2,339167	0,1	0,544896
2,340833	0,1	0,517424
2,342500	0,1	0,529147
2,344167	0,1	0,568162
2,345833	0,1	0,505894
2,347500	0,1	0,524420
2,349167	0,1	0,533070
2,350833	0,1	0,527062
2,352500	0,1	0,513114
2,354167	0,1	0,574938
2,355833	0,1	0,508756
2,357500	0,1	0,496787
2,359167	0,1	0,497716
2,360833	0,1	0,536018
2,362500	0,1	0,533745
2,364167	0,1	0,512377
2,365833	0,1	0,469989
2,367500	0,1	0,540353
2,369167	0,1	0,476456
2,370833	0,1	0,486530
2,372500	0,1	0,554044
2,374167	0,1	0,490533
2,375833	0,1	0,511788
2,377500	0,1	0,524228
2,379167	0,1	0,489882
2,380833	0,1	0,488042
2,382500	0,1	0,492732
2,384167	0,1	0,525573
2,385833	0,1	0,473817
2,387500	0,1	0,472872
2,389167	0,1	0,490963
2,390833	0,1	0,518054
2,392500	0,1	0,458585
2,394167	0,1	0,465606
2,395833	0,1	0,459922
2,397500	0,1	0,518689
2,399167	0,1	0,469605
2,400833	0,1	0,511848
2,402500	0,1	0,476543
2,404167	0,1	0,467217
2,405833	0,1	0,473191
2,407500	0,1	0,453722
2,409167	0,1	0,462007
2,410833	0,1	0,472354
2,412500	0,1	0,454911
2,414167	0,1	0,509433
2,415833	0,1	0,487115
2,417500	0,1	0,488105
2,419167	0,1	0,491930
2,420833	0,1	0,480202
2,422500	0,1	0,463105
2,424167	0,1	0,524536
2,425833	0,1	0,482106
2,427500	0,1	0,461533
2,429167	0,1	0,481158
2,430833	0,1	0,494241
2,432500	0,1	0,469632
2,434167	0,1	0,442283
2,435833	0,1	0,453714
2,437500	0,1	0,438971
2,439167	0,1	0,474310
2,440833	0,1	0,483089
2,442500	0,1	0,492152
2,444167	0,1	0,506005
2,445833	0,1	0,428124
2,447500	0,1	0,415158
2,449167	0,1	0,469421
2,450833	0,1	0,435537
2,452500	0,1	0,472896
2,454167	0,1	0,447488
2,455833	0,1	0,435050
2,457500	0,1	0,483529
2,459167	0,1	0,480104
2,460833	0,1	0,442221
2,462500	0,1	0,468913
2,464167	0,1	0,451248
2,465833	0,1	0,411148
2,467500	0,1	0,431251
2,469167	0,1	0,454226
2,470833	0,1	0,437943
2,472500	0,1	0,417216
2,474167	0,1	0,411590
2,475833	0,1	0,423120
2,477500	0,1	0,389938
2,479167	0,1	0,479760
2,480833	0,1	0,444727
2,482500	0,1	0,406649
2,484167	0,1	0,428453
2,485833	0,1	0,423767
2,487500	0,1	0,435366
2,489167	0,1	0,461103
2,490833	0,1	0,396759
2,492500	0,1	0,421575
2,494167	0,1	0,421775
2,495833	0,1	0,431382
2,497500	0,1	0,437905
2,499167	0,1	0,423609
2,500833	0,1	0,413455
2,502500	0,1	0,435171
2,504167	0,1	0,396526
2,505833	0,1	0,415086
2,507500	0,1	0,396908
2,509167	0,1	0,403747
2,510833	0,1	0,372136
2,512500	0,1	0,402870
2,514167	0,1	0,400405
2,515833	0,1	0,375798
2,517500	0,1	0,437313
2,519167	0,1	0,391355
2,520833	0,1	0,430441
2,522500	0,1	0,430323
2,524167	0,1	0,409154
2,525833	0,1	0,389453
2,527500	0,1	0,381223
2,529167	0,1	0,379585
2,530833	0,1	0,386489
2,532500	0,1	0,368246
2,534167	0,1	0,378165
2,535833	0,1	0,410874
2,537500	0,1	0,384604
2,539167	0,1	0,382124
2,540833	0,1	0,376018
2,542500	0,1	0,345597
2,544167	0,1	0,393999
2,545833	0,1	0,411038
2,547500	0,1	0,377374
2,549167	0,1	0,400077
2,550833	0,1	0,354661
2,552500	0,1	0,364091
2,554167	0,1	0,377235
2,555833	0,1	0,378974
2,557500	0,1	0,371423
2,559167	0,1	0,365736
2,560833	0,1	0,376014
2,562500	0,1	0,356906
2,564167	0,1	0,355321
2,565833	0,1	0,377523
2,567500	0,1	0,346974
2,569167	0,1	0,366692
2,570833	0,1	0,308108
2,572500	0,1	0,361838
2,574167	0,1	0,341097
2,575833	0,1	0,369104
2,577500	0,1	0,368050
2,579167	0,1	0,350607
2,580833	0,1	0,372670
2,582500	0,1	0,369395
2,584167	0,1	0,364578
2,585833	0,1	0,341385
2,587500	0,1	0,342665
2,589167	0,1	0,362904
2,590833	0,1	0,321697
2,592500	0,1	0,378701
2,594167	0,1	0,363591
2,595833	0,1	0,353494
2,597500	0,1	0,352686
2,599167	0,1	0,377364
2,600833	0,1	0,338016
2,602500	0,1	0,362100
2,604167	0,1	0,315210
2,605833	0,1	0,337618
2,607500	0,1	0,317165
2,609167	0,1	0,332734
2,610833	0,1	0,303386
2,612500	0,1	0,329425
2,614167	0,1	0,297216
2,615833	0,1	0,326269
2,617500	0,1	0,297439
2,619167	0,1	0,376739
2,620833	0,1	0,300854
2,622500	0,1	0,292331
2,624167	0,1	0,331444
2,625833	0,1	0,342020
2,627500	0,1	0,327310
2,629167	0,1	0,337876
2,630833	0,1	0,310226
2,632500	0,1	0,307425
2,634167	0,1	0,327662
2,635833	0,1	0,350630
2,637500	0,1	0,315906
2,639167	0,1	0,315135
2,640833	0,1	0,326216
2,642500	0,1	0,318095
2,644167	0,1	0,314296
2,645833	0,1	0,330776
2,647500	0,1	0,339774
2,649167	0,1	0,308172
2,650833	0,1	0,348150
2,652500	0,1	0,286779
2,654167	0,1	0,305526
2,655833	0,1	0,296602
2,657500	0,1	0,295371
2,659167	0,1	0,288666
2,660833	0,1	0,337836
2,662500	0,1	0,288415
2,664167	0,1	0,303854
2,665833	0,1	0,333216
2,667500	0,1	0,322303
2,669167	0,1	0,271547
2,670833	0,1	0,283866
2,672500	0,1	0,283010
2,674167	0,1	0,274821
2,675833	0,1	0,288661
2,677500	0,1	0,289532
2,679167	0,1	0,247131
2,680833	0,1	0,268544
2,682500	0,1	0,329771
2,684167	0,1	0,301619
2,685833	0,1	0,286252
2,687500	0,1	0,238012
2,689167	0,1	0,278473
2,690833	0,1	0,311660
2,692500	0,1	0,247978
2,694167	0,1	0,305356
2,695833	0,1	0,300646
2,697500	0,1	0,277938
2,699167	0,1	0,308348
2,700833	0,1	0,299462
2,702500	0,1	0,288858
2,704167	0,1	0,269802
2,705833	0,1	0,280500
2,707500	0,1	0,252178
2,709167	0,1	0,283932
2,710833	0,1	0,291712
2,712500	0,1	0,250470
2,714167	0,1	0,293025
2,715833	0,1	0,311112
2,717500	0,1	0,293518
2,719167	0,1	0,259436
2,720833	0,1	0,288975
2,722500	0,1	0,253148
2,724167	0,1	0,262157
2,725833	0,1	0,283139
2,727500	0,1	0,266246
2,729167	0,1	0,258209
2,730833	0,1	0,222818
2,732500	0,1	0,244293
2,734167	0,1	0,253644
2,735833	0,1	0,266590
2,737500	0,1	0,268232
2,739167	0,1	0,265951
2,740833	0,1	0,232300
2,742500	0,1	0,250882
2,744167	0,1	0,224452
2,745833	0,1	0,270057
2,747500	0,1	0,201853
2,749167	0,1	0,186928
2,750833	0,1	0,253149
2,752500	0,1	0,252814
2,754167	0,1	0,244464
2,755833	0,1	0,239197
2,757500	0,1	0,242560
2,759167	0,1	0,233091
2,760833	0,1	0,271888
2,762500	0,1	0,233576
2,764167	0,1	0,226919
2,765833	0,1	0,213402
2,767500	0,1	0,220554
2,769167	0,1	0,217002
2,770833	0,1	0,234569
2,772500	0,1	0,246548
2,774167	0,1	0,234250
2,775833	0,1	0,207676
2,777500	0,1	0,223512
2,779167	0,1	0,244194
2,780833	0,1	0,202074
2,782500	0,1	0,190504
2,784167	0,1	0,254726
2,785833	0,1	0,202176
2,787500	0,1	0,226079
2,789167	0,1	0,208390
2,790833	0,1	0,226958
2,792500	0,1	0,210545
2,794167	0,1	0,208425
2,795833	0,1	0,234051
2,797500	0,1	0,229688
2,799167	0,1	0,163666
2,800833	0,1	0,195885
2,802500	0,1	0,212868
2,804167	0,1	0,193391
2,805833	0,1	0,219438
2,807500	0,1	0,227593
2,809167	0,1	0,183798
2,810833	0,1	0,207261
2,812500	0,1	0,182485
2,814167	0,1	0,220519
2,815833	0,1	0,196388
2,817500	0,1	0,160699
2,819167	0,1	0,204005
2,820833	0,1	0,209003
2,822500	0,1	0,204508
2,824167	0,1	0,165573
2,825833	0,1	0,188368
2,827500	0,1	0,196986
2,829167	0,1	0,178011
2,830833	0,1	0,152158
2,832500	0,1	0,164415
2,834167	0,1	0,183620
2,835833	0,1	0,177366
2,837500	0,1	0,181922
2,839167	0,1	0,177014
2,840833	0,1	0,159472
2,842500	0,1	0,169402
2,844167	0,1	0,204235
2,845833	0,1	0,206887
2,847500	0,1	0,178655
2,849167	0,1	0,178360
2,850833	0,1	0,146855
2,852500	0,1	0,206645
2,854167	0,1	0,167765
2,855833	0,1	0,203376
2,857500	0,1	0,180041
2,859167	0,1	0,154713
2,860833	0,1	0,177511
2,862500	0,1	0,184329
2,864167	0,1	0,182566
2,865833	0,1	0,204892
2,867500	0,1	0,148788
2,869167	0,1	0,200251
2,870833	0,1	0,181550
2,872500	0,1	0,108417
2,874167	0,1	0,174200
2,875833	0,1	0,177012
2,877500	0,1	0,120653
2,879167	0,1	0,156927
2,880833	0,1	0,144712
2,882500	0,1	0,159640
2,884167	0,1	0,164076
2,885833	0,1	0,150039
2,887500	0,1	0,127396
2,889167	0,1	0,115896
2,890833	0,1	0,193053
2,892500	0,1	0,119701
2,894167	0,1	0,163891
2,895833	0,1	0,115779
2,897500	0,1	0,166445
2,899167	0,1	0,187636
2,900833	0,1	0,194453
2,902500	0,1	0,175355
2,904167	0,1	0,093497
2,905833	0,1	0,137243
2,907500	0,1	0,155710
2,909167	0,1	0,163810
2,910833	0,1	0,110580
2,912500	0,1	0,167199
2,914167	0,1	0,121496
2,915833	0,1	0,120013
2,917500	0,1	0,150191
2,919167	0,1	0,117123
2,920833	0,1	0,180272
2,922500	0,1	0,187363
2,924167	0,1	0,119349
2,925833	0,1	0,162140
2,927500	0,1	0,101340
2,929167	0,1	0,130281
2,930833	0,1	0,143358
2,932500	0,1	0,120535
2,934167	0,1	0,154272
2,935833	0,1	0,141361
2,937500	0,1	0,129423
2,939167	0,1	0,155331
2,940833	0,1	0,130106
2,942500	0,1	0,124369
2,944167	0,1	0,164068
2,945833	0,1	0,138316
2,947500	0,1	0,123064
2,949167	0,1	0,100485
2,950833	0,1	0,101309
2,952500	0,1	0,101616
2,954167	0,1	0,107480
2,955833	0,1	0,125976
2,957500	0,1	0,115331
2,959167	0,1	0,108103
2,960833	0,1	0,126305
2,962500	0,1	0,133812
2,964167	0,1	0,113949
2,965833	0,1	0,108103
2,967500	0,1	0,143932
2,969167	0,1	0,105338
2,970833	0,1	0,091821
2,972500	0,1	0,088648
2,974167	0,1	0,103295
2,975833	0,1	0,136563
2,977500	0,1	0,126603
2,979167	0,1	0,119851
2,980833	0,1	0,069149
2,982500	0,1	0,060332
2,984167	0,1	0,105381
2,985833	0,1	0,102015
2,987500	0,1	0,136602
2,989167	0,1	0,094584
2,990833	0,1	0,079706
2,992500	0,1	0,093327
2,994167	0,1	0,099898
2,995833	0,1	0,102383
2,997500	0,1	0,055787
2,999167	0,1	0,115941
3,000833	0,1	0,091206
3,002500	0,1	0,122965
3,004167	0,1	0,080168
3,005833	0,1	0,105652
3,007500	0,1	0,089277
3,009167	0,1	0,074278
3,010833	0,1	0,102337
3,012500	0,1	0,115225
3,014167	0,1	0,115557
3,015833	0,1	0,094250
3,017500	0,1	0,070985
3,019167	0,1	0,102085
3,020833	0,1	0,135960
3,022500	0,1	0,076114
3,024167	0,1	0,082599
3,025833	0,1	0,076181
3,027500	0,1	0,097758
3,029167	0,1	0,056407
3,030833	0,1	0,105872
3,032500	0,1	0,120628
3,034167	0,1	0,087001
3,035833	0,1	0,045511
3,037500	0,1	0,054656
3,039167	0,1	0,055464
3,040833	0,1	0,078350
3,042500	0,1	0,081833
3,044167	0,1	0,060443
3,045833	0,1	0,092139
3,047500	0,1	0,046547
3,049167	0,1	0,066063
3,050833	0,1	0,078040
3,052500	0,1	0,058703
3,054167	0,1	0,091913
3,055833	0,1	0,076017
3,057500	0,1	0,042691
3,059167	0,1	0,074925
3,060833	0,1	0,081503
3,062500	0,1	0,089475
3,064167	0,1	0,088444
3,065833	0,1	0,076949
3,067500	0,1	0,092002
3,069167	0,1	0,081132
3,070833	0,1	0,064066
3,072500	0,1	0,074767
3,074167	0,1	0,064043
3,075833	0,1	0,028918
3,077500	0,1	0,067860
3,079167	0,1	0,089619
3,080833	0,1	0,078459
3,082500	0,1	0,051492
3,084167	0,1	0,053560
3,085833	0,1	0,058197
3,087500	0,1	0,047410
3,089167	0,1	0,110755
3,090833	0,1	0,043383
3,092500	0,1	0,047570
3,094167	0,1	0,067514
3,095833	0,1	0,062428
3,097500	0,1	0,098106
3,099167	0,1	0,068026
3,100833	0,1	0,051781
3,102500	0,1	0,071718
3,104167	0,1	0,060354
3,105833	0,1	0,079277
3,107500	0,1	0,053481
3,109167	0,1	0,103014
3,110833	0,1	0,070924
3,112500	0,1	0,045094
3,114167	0,1	0,052623
3,115833	0,1	0,068820
3,117500	0,1	0,046105
3,119167	0,1	0,039828
3,120833	0,1	0,078551
3,122500	0,1	0,052176
3,124167	0,1	0,041732
3,125833	0,1	0,004581
3,127500	0,1	0,095336
3,129167	0,1	0,055473
3,130833	0,1	0,039955
3,132500	0,1	0,045188
3,134167	0,1	0,067451
3,135833	0,1	0,062466
3,137500	0,1	0,035296
3,139167	0,1	0,023921
3,140833	0,1	0,083229
3,142500	0,1	0,068453
3,144167	0,1	0,043435
3,145833	0,1	0,018557
3,147500	0,1	0,056507
3,149167	0,1	0,026555
3,150833	0,1	0,026381
3,152500	0,1	0,013274
3,154167	0,1	0,015799
3,155833	0,1	0,031888
3,157500	0,1	0,046657
3,159167	0,1	0,065792
3,160833	0,1	0,026931
3,162500	0,1	0,036073
3,164167	0,1	0,083145
3,165833	0,1	0,045921
3,167500	0,1	0,029637
3,169167	0,1	0,021994
3,170833	0,1	0,046697
3,172500	0,1	0,044940
3,174167	0,1	0,008847
3,175833	0,1	0,023416
3,177500	0,1	0,056532
3,179167	0,1	0,024026
3,180833	0,1	0,039635
3,182500	0,1	0,051132
3,184167	0,1	0,065838
3,185833	0,1	0,034634
3,187500	0,1	0,064010
3,189167	0,1	0,027674
3,190833	0,1	-0,014804
3,192500	0,1	0,004090
3,194167	0,1	0,013723
3,195833	0,1	0,005547
3,197500	0,1	0,026831
3,199167	0,1	0,048145
3,200833	0,1	0,048834
3,202500	0,1	0,016861
3,204167	0,1	0,066636
3,205833	0,1	0,046190
3,207500	0,1	-0,001797
3,209167	0,1	0,028362
3,210833	0,1	0,021308
3,212500	0,1	0,010269
3,214167	0,1	0,027144
3,215833	0,1	-0,004038
3,217500	0,1	0,035548
3,219167	0,1	0,043508
3,220833	0,1	0,072649
3,222500	0,1	0,025108
3,224167	0,1	-0,015655
3,225833	0,1	0,039148
3,227500	0,1	-0,003682
3,229167	0,1	0,044991
3,230833	0,1	0,042577
3,232500	0,1	0,026614
3,234167	0,1	0,054440
3,235833	0,1	0,002223
3,237500	0,1	0,032421
3,239167	0,1	-0,029671
3,240833	0,1	0,019348
3,242500	0,1	0,011388
3,244167	0,1	-0,011061
3,245833	0,1	0,046665
3,247500	0,1	0,030011
3,249167	0,1	0,025264
3,250833	0,1	0,021349
3,252500	0,1	0,024951
3,254167	0,1	0,005776
3,255833	0,1	-0,012490
3,257500	0,1	0,033452
3,259167	0,1	0,033650
3,260833	0,1	-0,007184
3,262500	0,1	-0,011832
3,264167	0,1	0,009642
3,265833	0,1	-0,023836
3,267500	0,1	0,028087
3,269167	0,1	0,002217
3,270833	0,1	-0,011476
3,272500	0,1	0,045030
3,274167	0,1	-0,000202
3,275833	0,1	-0,036842
3,277500	0,1	0,017526
3,279167	0,1	-0,010335
3,280833	0,1	-0,015021
3,282500	0,1	0,019807
3,284167	0,1	0,004783
3,285833	0,1	-0,013692
3,287500	0,1	-0,011273
3,289167	0,1	-0,021998
3,290833	0,1	-0,055957
3,292500	0,1	0,028971
3,294167	0,1	-0,008034
3,295833	0,1	0,013121
3,297500	0,1	-0,003275
3,299167	0,1	0,002374
3,300833	0,1	0,019605
3,302500	0,1	0,005195
3,304167	0,1	-0,020670
3,305833	0,1	0,005353
3,307500	0,1	-0,020835
3,309167	0,1	-0,016577
3,310833	0,1	-0,042582
3,312500	0,1	-0,019522
3,314167	0,1	-0,006595
3,315833	0,1	-0,017380
3,317500	0,1	-0,018666
3,319167	0,1	-0,006948
3,320833	0,1	-0,009801
3,322500	0,1	-0,001106
3,324167	0,1	-0,022638
3,325833	0,1	-0,008439
3,327500	0,1	-0,040674
3,329167	0,1	-0,010080
3,330833	0,1	0,007860
3,332500	0,1	-0,002510
3,334167	0,1	-0,009718
3,335833	0,1	-0,018767
3,337500	0,1	-0,016409
3,339167	0,1	-0,009950
3,340833	0,1	-0,020838
3,342500	0,1	0,007505
3,344167	0,1	-0,002219
3,345833	0,1	-0,030071
3,347500	0,1	-0,010055
3,349167	0,1	-0,011127
3,350833	0,1	-0,010218
3,352500	0,1	-0,024441
3,354167	0,1	-0,013410
3,355833	0,1	-0,018687
3,357500	0,1	-0,019786
3,359167	0,1	-0,003385
3,360833	0,1	-0,013674
3,362500	0,1	-0,031317
3,364167	0,1	0,002720
3,365833	0,1	-0,011747
3,367500	0,1	-0,024857
3,369167	0,1	-0,034281
3,370833	0,1	0,003817
3,372500	0,1	0,002604
3,374167	0,1	-0,008413
3,375833	0,1	-0,041607
3,377500	0,1	-0,024967
3,379167	0,1	0,008538
3,380833	0,1	-0,046384
3,382500	0,1	0,000087
3,384167	0,1	-0,000835
3,385833	0,1	0,020265
3,387500	0,1	-0,017064
3,389167	0,1	-0,051546
3,390833	0,1	-0,037143
3,392500	0,1	-0,010224
3,394167	0,1	-0,054338
3,395833	0,1	-0,020600
3,397500	0,1	-0,027632
3,399167	0,1	-0,028836
3,400833	0,1	-0,041568
3,402500	0,1	-0,013267
3,404167	0,1	-0,017320
3,405833	0,1	-0,040657
3,407500	0,1	-0,035339
3,409167	0,1	0,003112
3,410833	0,1	-0,029595
3,412500	0,1	-0,066063
3,414167	0,1	-0,034560
3,415833	0,1	-0,024531
3,417500	0,1	-0,012994
3,419167	0,1	-0,017714
3,420833	0,1	-0,015622
3,422500	0,1	-0,031296
3,424167	0,1	-0,064718
3,425833	0,1	-0,023295
3,427500	0,1	-0,018751
3,429167	0,1	-0,014961
3,430833	0,1	-0,065418
3,432500	0,1	-0,054870
3,434167	0,1	0,038122
3,435833	0,1	-0,058758
3,437500	0,1	-0,010022
3,439167	0,1	-0,041316
3,440833	0,1	-0,030185
3,442500	0,1	-0,021113
3,444167	0,1	-0,054735
3,445833	0,1	-0,046005
3,447500	0,1	-0,003640
3,449167	0,1	-0,056865
3,450833	0,1	-0,029857
3,452500	0,1	0,011871
3,454167	0,1	-0,022427
3,455833	0,1	-0,056102
3,457500	0,1	-0,002588
3,459167	0,1	-0,013798
3,460833	0,1	-0,023469
3,462500	0,1	-0,054571
3,464167	0,1	-0,034762
3,465833	0,1	-0,021672
3,467500	0,1	-0,049454
3,469167	0,1	-0,033685
3,470833	0,1	-0,003722
3,472500	0,1	-0,037959
3,474167	0,1	-0,075215
3,475833	0,1	-0,033009
3,477500	0,1	-0,049851
3,479167	0,1	0,000459
3,480833	0,1	-0,059058
3,482500	0,1	-0,039526
3,484167	0,1	-0,014511
3,485833	0,1	-0,006864
3,487500	0,1	-0,055993
3,489167	0,1	-0,020725
3,490833	0,1	-0,031753
3,492500	0,1	-0,026124
3,494167	0,1	-0,065647
3,495833	0,1	-0,042095
3,497500	0,1	-0,059543
3,499167	0,1	-0,028615
3,500833	0,1	-0,026061
3,502500	0,1	-0,023596
3,504167	0,1	-0,018234
3,505833	0,1	-0,023492
3,507500	0,1	-0,039685
3,509167	0,1	0,002718
3,510833	0,1	-0,063674
3,512500	0,1	-0,078492
3,514167	0,1	-0,019323
3,515833	0,1	-0,029247
3,517500	0,1	-0,011381
3,519167	0,1	-0,005455
3,520833	0,1	-0,030611
3,522500	0,1	-0,058114
3,524167	0,1	-0,036732
3,525833	0,1	-0,018755
3,527500	0,1	-0,021544
3,529167	0,1	-0,034382
3,530833	0,1	-0,001194
3,532500	0,1	-0,071647
3,534167	0,1	-0,045265
3,535833	0,1	-0,010390
3,537500	0,1	-0,065811
3,539167	0,1	-0,018015
3,540833	0,1	-0,050927
3,542500	0,1	-0,009234
3,544167	0,1	-0,049575
3,545833	0,1	-0,025114
3,547500	0,1	-0,042686
3,549167	0,1	-0,048613
3,550833	0,1	-0,046667
3,552500	0,1	-0,017722
3,554167	0,1	-0,030137
3,555833	0,1	-0,054467
3,557500	0,1	-0,006874
3,559167	0,1	-0,047361
3,560833	0,1	-0,080808
3,562500	0,1	-0,059077
3,564167	0,1	-0,054142
3,565833	0,1	-0,042879
3,567500	0,1	-0,058488
3,569167	0,1	-0,045262
3,570833	0,1	-0,032131
3,572500	0,1	-0,041860
3,574167	0,1	-0,041757
3,575833	0,1	-0,020825
3,577500	0,1	-0,050552
3,579167	0,1	-0,027620
3,580833	0,1	-0,014756
3,582500	0,1	-0,010756
3,584167	0,1	-0,034504
3,585833	0,1	-0,039604
3,587500	0,1	-0,046293
3,589167	0,1	-0,071800
3,590833	0,1	-0,034478
3,592500	0,1	-0,046952
3,594167	0,1	-0,011467
3,595833	0,1	-0,048668
3,597500	0,1	-0,058884
3,599167	0,1	-0,039402
3,600833	0,1	-0,045651
3,602500	0,1	-0,063252
3,604167	0,1	-0,030045
3,605833	0,1	-0,053661
3,607500	0,1	-0,008115
3,609167	0,1	-0,041957
3,610833	0,1	-0,029150
3,612500	0,1	-0,055441
3,614167	0,1	-0,042982
3,615833	0,1	-0,016582
3,617500	0,1	-0,045066
3,619167	0,1	-0,015960
3,620833	0,1	-0,041007
3,622500	0,1	-0,092503
3,624167	0,1	-0,048997
3,625833	0,1	-0,020290
3,627500	0,1	-0,039309
3,629167	0,1	-0,036997
3,630833	0,1	-0,054677
3,632500	0,1	-0,045385
3,634167	0,1	-0,039253
3,635833	0,1	-0,035298
3,637500	0,1	-0,040286
3,639167	0,1	-0,072007
3,640833	0,1	-0,035139
3,642500	0,1	-0,036395
3,644167	0,1	-0,057969
3,645833	0,1	-0,021554
3,647500	0,1	-0,015790
3,649167	0,1	-0,037426
3,650833	0,1	-0,026538
3,652500	0,1	0,004045
3,654167	0,1	-0,023651
3,655833	0,1	-0,046640
3,657500	0,1	-0,062111
3,659167	0,1	-0,046069
3,660833	0,1	0,000211
3,662500	0,1	-0,034563
3,664167	0,1	-0,067699
3,665833	0,1	-0,039239
3,667500	0,1	-0,007450
3,669167	0,1	-0,048809
3,670833	0,1	-0,008776
3,672500	0,1	-0,013053
3,674167	0,1	-0,056141
3,675833	0,1	-0,057602
3,677500	0,1	0,018926
3,679167	0,1	-0,021433
3,680833	0,1	-0,030367
3,682500	0,1	-0,038713
3,684167	0,1	-0,012833
3,685833	0,1	-0,017174
3,687500	0,1	-0,038275
3,689167	0,1	-0,039459
3,690833	0,1	-0,046086
3,692500	0,1	-0,014823
3,694167	0,1	-0,018874
3,695833	0,1	-0,004069
3,697500	0,1	0,000677
3,699167	0,1	-0,011642
3,700833	0,1	-0,074797
3,702500	0,1	-0,008369
3,704167	0,1	-0,051814
3,705833	0,1	-0,045012
3,707500	0,1	-0,014843
3,709167	0,1	-0,030468
3,710833	0,1	-0,047739
3,712500	0,1	-0,017369
3,714167	0,1	-0,075976
3,715833	0,1	-0,032761
3,717500	0,1	-0,022314
3,719167	0,1	-0,023803
3,720833	0,1	-0,035896
3,722500	0,1	-0,004404
3,724167	0,1	-0,052331
3,725833	0,1	-0,034101
3,727500	0,1	-0,010865
3,729167	0,1	-0,026513
3,730833	0,1	0,008332
3,732500	0,1	-0,029758
3,734167	0,1	-0,026579
3,735833	0,1	-0,036247
3,737500	0,1	-0,051055
3,739167	0,1	-0,021056
3,740833	0,1	-0,006513
3,742500	0,1	-0,040279
3,744167	0,1	-0,037307
3,745833	0,1	0,018000
3,747500	0,1	-0,030190
3,749167	0,1	-0,070164
3,750833	0,1	-0,038204
3,752500	0,1	0,005162
3,754167	0,1	-0,007976
3,755833	0,1	-0,017877
3,757500	0,1	-0,064962
3,759167	0,1	-0,009567
3,760833	0,1	0,010592
3,762500	0,1	-0,018535
3,764167	0,1	0,008727
3,765833	0,1	-0,018411
3,767500	0,1	-0,045792
3,769167	0,1	-0,002729
3,770833	0,1	-0,015661
3,772500	0,1	-0,006016
3,774167	0,1	-0,036884
3,775833	0,1	-0,039583
3,777500	0,1	-0,018880
3,779167	0,1	-0,013200
3,780833	0,1	-0,037010
3,782500	0,1	-0,026023
3,784167	0,1	-0,025751
3,785833	0,1	-0,035481
3,787500	0,1	-0,004280
3,789167	0,1	-0,016117
3,790833	0,1	-0,018170
3,792500	0,1	0,001997
3,794167	0,1	0,004716
3,795833	0,1	-0,000503
3,797500	0,1	-0,014833
3,799167	0,1	-0,024402
3,800833	0,1	-0,033846
3,802500	0,1	0,003257
3,804167	0,1	-0,060568
3,805833	0,1	-0,020168
3,807500	0,1	-0,030655
3,809167	0,1	0,015330
3,810833	0,1	-0,014848
3,812500	0,1	-0,023512
3,814167	0,1	-0,028441
3,815833	0,1	-0,035606
3,817500	0,1	0,009944
3,819167	0,1	0,003248
3,820833	0,1	-0,041747
3,822500	0,1	-0,010700
3,824167	0,1	-0,010506
3,825833	0,1	0,003407
3,827500	0,1	0,000263
3,829167	0,1	-0,032494
3,830833	0,1	-0,009228
3,832500	0,1	-0,022165
3,834167	0,1	-0,005334
3,835833	0,1	-0,011749
3,837500	0,1	-0,027257
3,839167	0,1	-0,028297
3,840833	0,1	-0,036889
3,842500	0,1	0,006548
3,844167	0,1	-0,017854
3,845833	0,1	0,008789
3,847500	0,1	0,004675
3,849167	0,1	-0,004044
3,850833	0,1	-0,048375
3,852500	0,1	-0,045157
3,854167	0,1	-0,005070
3,855833	0,1	0,011547
3,857500	0,1	0,000805
3,859167	0,1	0,003907
3,860833	0,1	-0,016217
3,862500	0,1	-0,010095
3,864167	0,1	0,010697
3,865833	0,1	-0,031208
3,867500	0,1	-0,030949
3,869167	0,1	0,015640
3,870833	0,1	-0,018038
3,872500	0,1	-0,018232
3,874167	0,1	-0,016347
3,875833	0,1	0,009722
3,877500	0,1	0,012916
3,879167	0,1	-0,008617
3,880833	0,1	-0,004522
3,882500	0,1	-0,050030
3,884167	0,1	0,020025
3,885833	0,1	-0,014723
3,887500	0,1	0,005331
3,889167	0,1	-0,021663
3,890833	0,1	0,010589
3,892500	0,1	-0,011391
3,894167	0,1	0,019290
3,895833	0,1	-0,023607
3,897500	0,1	0,038522
3,899167	0,1	-0,019751
3,900833	0,1	-0,031048
3,902500	0,1	0,002720
3,904167	0,1	-0,000006
3,905833	0,1	-0,029366
3,907500	0,1	0,033346
3,909167	0,1	-0,009129
3,910833	0,1	-0,032392
3,912500	0,1	-0,032832
3,914167	0,1	-0,046291
3,915833	0,1	-0,004780
3,917500	0,1	-0,037361
3,919167	0,1	-0,008835
3,920833	0,1	-0,001892
3,922500	0,1	0,013411
3,924167	0,1	-0,038017
3,925833	0,1	0,016612
3,927500	0,1	-0,022053
3,929167	0,1	0,021689
3,930833	0,1	-0,032632
3,932500	0,1	-0,064118
3,934167	0,1	-0,020169
3,935833	0,1	-0,017922
3,937500	0,1	0,023720
3,939167	0,1	0,008530
3,940833	0,1	-0,018620
3,942500	0,1	-0,052499
3,944167	0,1	0,002797
3,945833	0,1	-0,009861
3,947500	0,1	-0,002515
3,949167	0,1	0,015834
3,950833	0,1	-0,031371
3,952500	0,1	-0,003908
3,954167	0,1	-0,017358
3,955833	0,1	0,002681
3,957500	0,1	-0,026591
3,959167	0,1	-0,010077
3,960833	0,1	-0,017505
3,962500	0,1	-0,005952
3,964167	0,1	-0,014087
3,965833	0,1	-0,036700
3,967500	0,1	-0,008525
3,969167	0,1	-0,003798
3,970833	0,1	0,022315
3,972500	0,1	0,019878
3,974167	0,1	0,008985
3,975833	0,1	-0,020483
3,977500	0,1	0,008664
3,979167	0,1	-0,016508
3,980833	0,1	-0,012642
3,982500	0,1	0,013221
3,984167	0,1	-0,001245
3,985833	0,1	-0,000649
3,987500	0,1	-0,048913
3,989167	0,1	-0,017121
3,990833	0,1	-0,018170
3,992500	0,1	-0,023076
3,994167	0,1	-0,021939
3,995833	0,1	-0,020283
3,997500	0,1	-0,000385
3,999167	0,1	-0,042845
4,000833	0,1	-0,008424
4,002500	0,1	-0,025995
4,004167	0,1	-0,020697
4,005833	0,1	-0,017114
4,007500	0,1	-0,008624
4,009167	0,1	-0,015889
4,010833	0,1	-0,030654
4,012500	0,1	-0,006266
4,014167	0,1	-0,016531
4,015833	0,1	0,005953
4,017500	0,1	-0,007852
4,019167	0,1	-0,018332
4,020833	0,1	-0,005808
4,022500	0,1	-0,010360
4,024167	0,1	0,021442
4,025833	0,1	-0,039094
4,027500	0,1	-0,006766
4,029167	0,1	0,015086
4,030833	0,1	-0,007725
4,032500	0,1	-0,007338
4,034167	0,1	-0,008726
4,035833	0,1	-0,020673
4,037500	0,1	-0,002310
4,039167	0,1	0,005170
4,040833	0,1	-0,013194
4,042500	0,1	-0,033719
4,044167	0,1	-0,019415
4,045833	0,1	-0,006719
4,047500	0,1	0,015604
4,049167	0,1	-0,018782
4,050833	0,1	0,010426
4,052500	0,1	-0,050027
4,054167	0,1	-0,021552
4,055833	0,1	-0,022456
4,057500	0,1	0,001894
4,059167	0,1	0,001196
4,060833	0,1	-0,023363
4,062500	0,1	0,030948
4,064167	0,1	-0,010538
4,065833	0,1	-0,047902
4,067500	0,1	-0,021842
4,069167	0,1	-0,025625
4,070833	0,1	-0,048814
4,072500	0,1	-0,027620
4,074167	0,1	-0,022355
4,075833	0,1	-0,034900
4,077500	0,1	0,015059
4,079167	0,1	-0,029487
4,080833	0,1	-0,006744
4,082500	0,1	-0,026283
4,084167	0,1	-0,007300
4,085833	0,1	-0,029864
4,087500	0,1	0,002367
4,089167	0,1	-0,022761
4,090833	0,1	-0,039725
4,092500	0,1	-0,027183
4,094167	0,1	0,020030
4,095833	0,1	-0,008347
4,097500	0,1	-0,046989
4,099167	0,1	-0,016769
4,100833	0,1	0,011170
4,102500	0,1	-0,004579
4,104167	0,1	-0,013736
4,105833	0,1	-0,048749
4,107500	0,1	-0,045694
4,109167	0,1	-0,026915
4,110833	0,1	0,014564
4,112500	0,1	-0,029487
4,114167	0,1	-0,024239
4,115833	0,1	-0,024528
4,117500	0,1	-0,026681
4,119167	0,1	-0,052231
4,120833	0,1	-0,004801
4,122500	0,1	-0,014998
4,124167	0,1	0,007859
4,125833	0,1	-0,055162
4,127500	0,1	0,001824
4,129167	0,1	-0,004271
4,130833	0,1	-0,042889
4,132500	0,1	-0,008031
4,134167	0,1	-0,025083
4,135833	0,1	-0,058007
4,137500	0,1	-0,033482
4,139167	0,1	0,003257
4,140833	0,1	0,002791
4,142500	0,1	-0,024417
4,144167	0,1	0,035312
4,145833	0,1	0,005055
4,147500	0,1	-0,035722
4,149167	0,1	-0,034240
4,150833	0,1	-0,018152
4,152500	0,1	-0,064091
4,154167	0,1	-0,011865
4,155833	0,1	-0,012349
4,157500	0,1	-0,020259
4,159167	0,1	-0,010862
4,160833	0,1	-0,052063
4,162500	0,1	-0,014845
4,164167	0,1	-0,007775
4,165833	0,1	-0,059596
4,167500	0,1	-0,053585
4,169167	0,1	-0,016480
4,170833	0,1	-0,001376
4,172500	0,1	-0,031810
4,174167	0,1	-0,035151
4,175833	0,1	-0,024944
4,177500	0,1	-0,059105
4,179167	0,1	-0,058307
4,180833	0,1	0,008510
4,182500	0,1	-0,053878
4,184167	0,1	-0,064247
4,185833	0,1	-0,021410
4,187500	0,1	-0,023678
4,189167	0,1	-0,049849
4,190833	0,1	-0,039006
4,192500	0,1	-0,030908
4,194167	0,1	-0,016124
4,195833	0,1	-0,069040
4,197500	0,1	-0,039550
4,199167	0,1	-0,027326
4,200833	0,1	-0,012622
4,202500	0,1	-0,015726
4,204167	0,1	-0,045624
4,205833	0,1	-0,070683
4,207500	0,1	-0,037770
4,209167	0,1	-0,040454
4,210833	0,1	-0,034780
4,212500	0,1	-0,052999
4,214167	0,1	-0,029379
4,215833	0,1	-0,018275
4,217500	0,1	-0,077074
4,219167	0,1	-0,072245
4,220833	0,1	-0,029322
4,222500	0,1	-0,026000
4,224167	0,1	0,003177
4,225833	0,1	-0,029719
4,227500	0,1	-0,020285
4,229167	0,1	-0,015790
4,230833	0,1	-0,032809
4,232500	0,1	-0,045690
4,234167	0,1	-0,053457
4,235833	0,1	-0,049152
4,237500	0,1	-0,026438
4,239167	0,1	-0,043102
4,240833	0,1	-0,029668
4,242500	0,1	-0,057078
4,244167	0,1	-0,043460
4,245833	0,1	-0,024595
4,247500	0,1	-0,032644
4,249167	0,1	-0,055671
4,250833	0,1	-0,035261
4,252500	0,1	-0,036934
4,254167	0,1	-0,031881
4,255833	0,1	-0,058921
4,257500	0,1	-0,038161
4,259167	0,1	-0,065114
4,260833	0,1	-0,014579
4,262500	0,1	-0,021441
4,264167	0,1	-0,023387
4,265833	0,1	-0,051942
4,267500	0,1	-0,033146
4,269167	0,1	-0,013039
4,270833	0,1	-0,028377
4,272500	0,1	-0,006514
4,274167	0,1	-0,027092
4,275833	0,1	-0,019041
4,277500	0,1	-0,036908
4,279167	0,1	-0,049356
4,280833	0,1	-0,090851
4,282500	0,1	-0,040073
4,284167	0,1	-0,045381
4,285833	0,1	-0,050310
4,287500	0,1	0,003148
4,289167	0,1	-0,056884
4,290833	0,1	0,001015
4,292500	0,1	-0,042659
4,294167	0,1	-0,030620
4,295833	0,1	-0,024157
4,297500	0,1	-0,025915
4,299167	0,1	-0,023720
4,300833	0,1	-0,056620
4,302500	0,1	-0,045758
4,304167	0,1	-0,056419
4,305833	0,1	-0,061785
4,307500	0,1	-0,042075
4,309167	0,1	-0,036313
4,310833	0,1	-0,062028
4,312500	0,1	-0,031142
4,314167	0,1	-0,049314
4,315833	0,1	-0,076375
4,317500	0,1	-0,033133
4,319167	0,1	-0,031942
4,320833	0,1	-0,035523
4,322500	0,1	-0,043247
4,324167	0,1	-0,061180
4,325833	0,1	-0,069404
4,327500	0,1	-0,065183
4,329167	0,1	-0,066237
4,330833	0,1	0,015465
4,332500	0,1	-0,028845
4,334167	0,1	-0,032272
4,335833	0,1	-0,014611
4,337500	0,1	-0,060364
4,339167	0,1	-0,026649
4,340833	0,1	-0,044963
4,342500	0,1	-0,045361
4,344167	0,1	-0,103727
4,345833	0,1	-0,064174
4,347500	0,1	-0,047477
4,349167	0,1	-0,053396
4,350833	0,1	-0,033478
4,352500	0,1	-0,023473
4,354167	0,1	-0,067098
4,355833	0,1	-0,086942
4,357500	0,1	-0,039554
4,359167	0,1	-0,006972
4,360833	0,1	-0,056139
4,362500	0,1	-0,064371
4,364167	0,1	-0,004951
4,365833	0,1	-0,033922
4,367500	0,1	-0,047947
4,369167	0,1	-0,000722
4,370833	0,1	-0,032743
4,372500	0,1	-0,049789
4,374167	0,1	-0,041511
4,375833	0,1	-0,021922
4,377500	0,1	-0,042084
4,379167	0,1	-0,041841
4,380833	0,1	-0,034036
4,382500	0,1	-0,052357
4,384167	0,1	0,002506
4,385833	0,1	-0,071499
4,387500	0,1	-0,022447
4,389167	0,1	-0,034860
4,390833	0,1	-0,062750
4,392500	0,1	-0,009443
4,394167	0,1	-0,021564
4,395833	0,1	-0,082148
4,397500	0,1	-0,055041
4,399167	0,1	-0,045593
4,400833	0,1	-0,068157
4,402500	0,1	-0,038307
4,404167	0,1	-0,037140
4,405833	0,1	-0,080164
4,407500	0,1	-0,031435
4,409167	0,1	-0,015315
4,410833	0,1	-0,051254
4,412500	0,1	-0,049629
4,414167	0,1	-0,049275
4,415833	0,1	-0,064060
4,417500	0,1	-0,033648
4,419167	0,1	-0,048983
4,420833	0,1	-0,061740
4,422500	0,1	-0,052093
4,424167	0,1	-0,037515
4,425833	0,1	-0,055982
4,427500	0,1	-0,054743
4,429167	0,1	-0,058553
4,430833	0,1	-0,056608
4,432500	0,1	-0,037662
4,434167	0,1	-0,072254
4,435833	0,1	-0,065968
4,437500	0,1	-0,073730
4,439167	0,1	-0,005533
4,440833	0,1	-0,040487
4,442500	0,1	-0,055049
4,444167	0,1	-0,040995
4,445833	0,1	-0,051779
4,447500	0,1	-0,029565
4,449167	0,1	-0,077221
4,450833	0,1	-0,055102
4,452500	0,1	-0,052672
4,454167	0,1	-0,054681
4,455833	0,1	-0,021491
4,457500	0,1	-0,061878
4,459167	0,1	-0,047976
4,460833	0,1	-0,029232
4,462500	0,1	-0,042542
4,464167	0,1	-0,060290
4,465833	0,1	-0,069837
4,467500	0,1	-0,051745
4,469167	0,1	-0,032237
4,470833	0,1	-0,035318
4,472500	0,1	-0,081115
4,474167	0,1	-0,034831
4,475833	0,1	-0,030203
4,477500	0,1	-0,062045
4,479167	0,1	-0,055036
4,480833	0,1	-0,006459
4,482500	0,1	-0,057091
4,484167	0,1	-0,064619
4,485833	0,1	-0,066775
4,487500	0,1	-0,092365
4,489167	0,1	-0,062122
4,490833	0,1	-0,065965
4,492500	0,1	-0,071681
4,494167	0,1	-0,061289
4,495833	0,1	-0,090933
4,497500	0,1	-0,065808
4,499167	0,1	-0,097667
4,500833	0,1	-0,061752
4,502500	0,1	-0,034869
4,504167	0,1	-0,032026
4,505833	0,1	-0,064200
4,507500	0,1	-0,061203
4,509167	0,1	-0,018698
4,510833	0,1	-0,068752
4,512500	0,1	-0,053546
4,514167	0,1	-0,045031
4,515833	0,1	-0,040227
4,517500	0,1	-0,081758
4,519167	0,1	-0,072968
4,520833	0,1	-0,047315
4,522500	0,1	-0,090597
4,524167	0,1	-0,056159
4,525833	0,1	-0,076671
4,527500	0,1	-0,087957
4,529167	0,1	-0,076155
4,530833	0,1	-0,068536
4,532500	0,1	-0,062758
4,534167	0,1	-0,073605
4,535833	0,1	-0,070814
4,537500	0,1	-0,100043
4,539167	0,1	-0,058977
4,540833	0,1	-0,081453
4,542500	0,1	-0,059304
4,544167	0,1	-0,046378
4,545833	0,1	-0,038053
4,547500	0,1	-0,084986
4,549167	0,1	-0,047876
4,550833	0,1	-0,070640
4,552500	0,1	-0,069424
4,554167	0,1	-0,071269
4,555833	0,1	-0,083938
4,557500	0,1	-0,065412
4,559167	0,1	-0,093336
4,560833	0,1	-0,098563
4,562500	0,1	-0,086099
4,564167	0,1	-0,081165
4,565833	0,1	-0,092616
4,567500	0,1	-0,036926
4,569167	0,1	-0,083332
4,570833	0,1	-0,069698
4,572500	0,1	-0,106732
4,574167	0,1	-0,083990
4,575833	0,1	-0,090358
4,577500	0,1	-0,098147
4,579167	0,1	-0,086161
4,580833	0,1	-0,127933
4,582500	0,1	-0,065981
4,584167	0,1	-0,077686
4,585833	0,1	-0,095886
4,587500	0,1	-0,066739
4,589167	0,1	-0,058017
4,590833	0,1	-0,124594
4,592500	0,1	-0,066210
4,594167	0,1	-0,100561
4,595833	0,1	-0,092535
4,597500	0,1	-0,076821
4,599167	0,1	-0,079261
4,600833	0,1	-0,077481
4,602500	0,1	-0,126858
4,604167	0,1	-0,088876
4,605833	0,1	-0,024399
4,607500	0,1	-0,084901
4,609167	0,1	-0,068909
4,610833	0,1	-0,123709
4,612500	0,1	-0,072978
4,614167	0,1	-0,094769
4,615833	0,1	-0,059948
4,617500	0,1	-0,065530
4,619167	0,1	-0,098618
4,620833	0,1	-0,128849
4,622500	0,1	-0,087637
4,624167	0,1	-0,093050
4,625833	0,1	-0,085227
4,627500	0,1	-0,073734
4,629167	0,1	-0,096485
4,630833	0,1	-0,055664
4,632500	0,1	-0,097369
4,634167	0,1	-0,071500
4,635833	0,1	-0,140948
4,637500	0,1	-0,078364
4,639167	0,1	-0,110708
4,640833	0,1	-0,081442
4,642500	0,1	-0,103484
4,644167	0,1	-0,064050
4,645833	0,1	-0,092780
4,647500	0,1	-0,102369
4,649167	0,1	-0,047734
4,650833	0,1	-0,105295
4,652500	0,1	-0,083699
4,654167	0,1	-0,085681
4,655833	0,1	-0,100627
4,657500	0,1	-0,088314
4,659167	0,1	-0,089762
4,660833	0,1	-0,090565
4,662500	0,1	-0,102615
4,664167	0,1	-0,071958
4,665833	0,1	-0,110558
4,667500	0,1	-0,065769
4,669167	0,1	-0,100062
4,670833	0,1	-0,139302
4,672500	0,1	-0,106539
4,674167	0,1	-0,138996
4,675833	0,1	-0,132541
4,677500	0,1	-0,115048
4,679167	0,1	-0,117611
4,680833	0,1	-0,092460
4,682500	0,1	-0,096156
4,684167	0,1	-0,117895
4,685833	0,1	-0,138953
4,687500	0,1	-0,105403
4,689167	0,1	-0,138143
4,690833	0,1	-0,133640
4,692500	0,1	-0,097141
4,694167	0,1	-0,136067
4,695833	0,1	-0,140137
4,697500	0,1	-0,091137
4,699167	0,1	-0,119880
4,700833	0,1	-0,119246
4,702500	0,1	-0,143341
4,704167	0,1	-0,096749
4,705833	0,1	-0,176227
4,707500	0,1	-0,098971
4,709167	0,1	-0,120709
4,710833	0,1	-0,145802
4,712500	0,1	-0,139417
4,714167	0,1	-0,118962
4,715833	0,1	-0,101815
4,717500	0,1	-0,122450
4,719167	0,1	-0,127404
4,720833	0,1	-0,121341
4,722500	0,1	-0,146013
4,724167	0,1	-0,113908
4,725833	0,1	-0,136923
4,727500	0,1	-0,140076
4,729167	0,1	-0,144005
4,730833	0,1	-0,107658
4,732500	0,1	-0,108686
4,734167	0,1	-0,133960
4,735833	0,1	-0,113510
4,737500	0,1	-0,137027
4,739167	0,1	-0,128295
4,740833	0,1	-0,133816
4,742500	0,1	-0,106266
4,744167	0,1	-0,138056
4,745833	0,1	-0,113141
4,747500	0,1	-0,133978
4,749167	0,1	-0,116307
4,750833	0,1	-0,128783
4,752500	0,1	-0,140197
4,754167	0,1	-0,137341
4,755833	0,1	-0,115893
4,757500	0,1	-0,133819
4,759167	0,1	-0,141086
4,760833	0,1	-0,132895
4,762500	0,1	-0,118257
4,764167	0,1	-0,157562
4,765833	0,1	-0,136704
4,767500	0,1	-0,138731
4,769167	0,1	-0,130098
4,770833	0,1	-0,118441
4,772500	0,1	-0,144790
4,774167	0,1	-0,161788
4,775833	0,1	-0,177252
4,777500	0,1	-0,091640
4,779167	0,1	-0,151262
4,780833	0,1	-0,128652
4,782500	0,1	-0,165722
4,784167	0,1	-0,149708
4,785833	0,1	-0,123518
4,787500	0,1	-0,171726
4,789167	0,1	-0,192682
4,790833	0,1	-0,175820
4,792500	0,1	-0,164054
4,794167	0,1	-0,140766
4,795833	0,1	-0,126828
4,797500	0,1	-0,129453
4,799167	0,1	-0,207111
4,800833	0,1	-0,182197
4,802500	0,1	-0,141739
4,804167	0,1	-0,132516
4,805833	0,1	-0,113720
4,807500	0,1	-0,130506
4,809167	0,1	-0,137692
4,810833	0,1	-0,184016
4,812500	0,1	-0,127833
4,814167	0,1	-0,142534
4,815833	0,1	-0,198864
4,817500	0,1	-0,138305
4,819167	0,1	-0,181081
4,820833	0,1	-0,176784
4,822500	0,1	-0,160969
4,824167	0,1	-0,167155
4,825833	0,1	-0,145278
4,827500	0,1	-0,142768
4,829167	0,1	-0,194265
4,830833	0,1	-0,151683
4,832500	0,1	-0,175221
4,834167	0,1	-0,141200
4,835833	0,1	-0,155247
4,837500	0,1	-0,161756
4,839167	0,1	-0,179969
4,840833	0,1	-0,157885
4,842500	0,1	-0,182535
4,844167	0,1	-0,158711
4,845833	0,1	-0,146313
4,847500	0,1	-0,196756
4,849167	0,1	-0,188186
4,850833	0,1	-0,144949
4,852500	0,1	-0,178805
4,854167	0,1	-0,185748
4,855833	0,1	-0,181182
4,857500	0,1	-0,158738
4,859167	0,1	-0,199066
4,860833	0,1	-0,171471
4,862500	0,1	-0,179321
4,864167	0,1	-0,175544
4,865833	0,1	-0,135839
4,867500	0,1	-0,177538
4,869167	0,1	-0,155547
4,870833	0,1	-0,135174
4,872500	0,1	-0,176009
4,874167	0,1	-0,164073
4,875833	0,1	-0,185165
4,877500	0,1	-0,159688
4,879167	0,1	-0,183239
4,880833	0,1	-0,146335
4,882500	0,1	-0,171931
4,884167	0,1	-0,172168
4,885833	0,1	-0,179717
4,887500	0,1	-0,187673
4,889167	0,1	-0,177823
4,890833	0,1	-0,174551
4,892500	0,1	-0,178751
4,894167	0,1	-0,174552
4,895833	0,1	-0,162805
4,897500	0,1	-0,182659
4,899167	0,1	-0,176828
4,900833	0,1	-0,149957
4,902500	0,1	-0,156244
4,904167	0,1	-0,228028
4,905833	0,1	-0,172365
4,907500	0,1	-0,170102
4,909167	0,1	-0,162005
4,910833	0,1	-0,252394
4,912500	0,1	-0,191681
4,914167	0,1	-0,183019
4,915833	0,1	-0,198766
4,917500	0,1	-0,157432
4,919167	0,1	-0,184616
4,920833	0,1	-0,173743
4,922500	0,1	-0,179042
4,924167	0,1	-0,166990
4,925833	0,1	-0,198333
4,927500	0,1	-0,187036
4,929167	0,1	-0,165217
4,930833	0,1	-0,191888
4,932500	0,1	-0,232758
4,934167	0,1	-0,232659
4,935833	0,1	-0,180539
4,937500	0,1	-0,153393
4,939167	0,1	-0,185637
4,940833	0,1	-0,169481
4,942500	0,1	-0,199984
4,944167	0,1	-0,149382
4,945833	0,1	-0,223001
4,947500	0,1	-0,205818
4,949167	0,1	-0,160292
4,950833	0,1	-0,119917
4,952500	0,1	-0,208053
4,954167	0,1	-0,161575
4,955833	0,1	-0,147429
4,957500	0,1	-0,225001
4,959167	0,1	-0,203040
4,960833	0,1	-0,229981
4,962500	0,1	-0,204720
4,964167	0,1	-0,189515
4,965833	0,1	-0,214104
4,967500	0,1	-0,227936
4,969167	0,1	-0,194804
4,970833	0,1	-0,207874
4,972500	0,1	-0,188261
4,974167	0,1	-0,182849
4,975833	0,1	-0,194642
4,977500	0,1	-0,238349
4,979167	0,1	-0,168868
4,980833	0,1	-0,196549
4,982500	0,1	-0,169316
4,984167	0,1	-0,176306
4,985833	0,1	-0,181213
4,987500	0,1	-0,200005
4,989167	0,1	-0,194128
4,990833	0,1	-0,171882
4,992500	0,1	-0,188147
4,994167	0,1	-0,204130
4,995833	0,1	-0,188735
4,997500	0,1	-0,194856
4,999167	0,1	-0,194050
5,000833	0,1	-0,190200
5,002500	0,1	-0,181707
5,004167	0,1	-0,175624
5,005833	0,1	-0,234876
5,007500	0,1	-0,214512
5,009167	0,1	-0,178137
5,010833	0,1	-0,195636
5,012500	0,1	-0,216812
5,014167	0,1	-0,212171
5,015833	0,1	-0,214539
5,017500	0,1	-0,204655
5,019167	0,1	-0,201935
5,020833	0,1	-0,213177
5,022500	0,1	-0,219701
5,024167	0,1	-0,244540
5,025833	0,1	-0,236145
5,027500	0,1	-0,240253
5,029167	0,1	-0,209106
5,030833	0,1	-0,162629
5,032500	0,1	-0,203727
5,034167	0,1	-0,162962
5,035833	0,1	-0,197143
5,037500	0,1	-0,191819
5,039167	0,1	-0,176434
5,040833	0,1	-0,185978
5,042500	0,1	-0,232940
5,044167	0,1	-0,216375
5,045833	0,1	-0,229783
5,047500	0,1	-0,214633
5,049167	0,1	-0,227630
5,050833	0,1	-0,206461
5,052500	0,1	-0,159113
5,054167	0,1	-0,239288
5,055833	0,1	-0,229086
5,057500	0,1	-0,191139
5,059167	0,1	-0,172752
5,060833	0,1	-0,214375
5,062500	0,1	-0,214279
5,064167	0,1	-0,197858
5,065833	0,1	-0,207218
5,067500	0,1	-0,195899
5,069167	0,1	-0,229551
5,070833	0,1	-0,205088
5,072500	0,1	-0,212641
5,074167	0,1	-0,226178
5,075833	0,1	-0,145766
5,077500	0,1	-0,251810
5,079167	0,1	-0,225362
5,080833	0,1	-0,206186
5,082500	0,1	-0,169275
5,084167	0,1	-0,194044
5,085833	0,1	-0,200509
5,087500	0,1	-0,237953
5,089167	0,1	-0,190896
5,090833	0,1	-0,194110
5,092500	0,1	-0,191695
5,094167	0,1	-0,199074
5,095833	0,1	-0,177780
5,097500	0,1	-0,222687
5,099167	0,1	-0,233406
5,100833	0,1	-0,204095
5,102500	0,1	-0,221763
5,104167	0,1	-0,174473
5,105833	0,1	-0,196946
5,107500	0,1	-0,194112
5,109167	0,1	-0,215222
5,110833	0,1	-0,210888
5,112500	0,1	-0,225949
5,114167	0,1	-0,173921
5,115833	0,1	-0,195862
5,117500	0,1	-0,233522
5,119167	0,1	-0,220408
5,120833	0,1	-0,205130
5,122500	0,1	-0,187345
5,124167	0,1	-0,191543
5,125833	0,1	-0,226631
5,127500	0,1	-0,240815
5,129167	0,1	-0,214178
5,130833	0,1	-0,211789
5,132500	0,1	-0,215883
5,134167	0,1	-0,217916
5,135833	0,1	-0,245137
5,137500	0,1	-0,234832
5,139167	0,1	-0,206127
5,140833	0,1	-0,244034
5,142500	0,1	-0,189737
5,144167	0,1	-0,204008
5,145833	0,1	-0,236746
5,147500	0,1	-0,190806
5,149167	0,1	-0,204224
5,150833	0,1	-0,204563
5,152500	0,1	-0,246600
5,154167	0,1	-0,215250
5,155833	0,1	-0,260180
5,157500	0,1	-0,234957
5,159167	0,1	-0,218562
5,160833	0,1	-0,233726
5,162500	0,1	-0,227483
5,164167	0,1	-0,233208
5,165833	0,1	-0,177850
5,167500	0,1	-0,229272
5,169167	0,1	-0,187473
5,170833	0,1	-0,215221
5,172500	0,1	-0,195872
5,174167	0,1	-0,262972
5,175833	0,1	-0,233859
5,177500	0,1	-0,238206
5,179167	0,1	-0,244409
5,180833	0,1	-0,220031
5,182500	0,1	-0,214097
5,184167	0,1	-0,235924
5,185833	0,1	-0,220563
5,187500	0,1	-0,164557
5,189167	0,1	-0,232185
5,190833	0,1	-0,211504
5,192500	0,1	-0,215851
5,194167	0,1	-0,234749
5,195833	0,1	-0,234815
5,197500	0,1	-0,202567
5,199167	0,1	-0,260299
5,200833	0,1	-0,242473
5,202500	0,1	-0,232967
5,204167	0,1	-0,232385
5,205833	0,1	-0,187993
5,207500	0,1	-0,214104
5,209167	0,1	-0,237146
5,210833	0,1	-0,220120
5,212500	0,1	-0,202519
5,214167	0,1	-0,200071
5,215833	0,1	-0,214749
5,217500	0,1	-0,193413
5,219167	0,1	-0,226234
5,220833	0,1	-0,216391
5,222500	0,1	-0,261159
5,224167	0,1	-0,228084
5,225833	0,1	-0,207654
5,227500	0,1	-0,253519
5,229167	0,1	-0,217223
5,230833	0,1	-0,221215
5,232500	0,1	-0,233359
5,234167	0,1	-0,248807
5,235833	0,1	-0,247541
5,237500	0,1	-0,227944
5,239167	0,1	-0,267882
5,240833	0,1	-0,227474
5,242500	0,1	-0,253662
5,244167	0,1	-0,214076
5,245833	0,1	-0,230289
5,247500	0,1	-0,191323
5,249167	0,1	-0,253409
5,250833	0,1	-0,224647
5,252500	0,1	-0,235302
5,254167	0,1	-0,250732
5,255833	0,1	-0,238974
5,257500	0,1	-0,186711
5,259167	0,1	-0,231718
5,260833	0,1	-0,222808
5,262500	0,1	-0,258746
5,264167	0,1	-0,201686
5,265833	0,1	-0,207799
5,267500	0,1	-0,202974
5,269167	0,1	-0,199123
5,270833	0,1	-0,235631
5,272500	0,1	-0,214818
5,274167	0,1	-0,186890
5,275833	0,1	-0,214349
5,277500	0,1	-0,240187
5,279167	0,1	-0,229012
5,280833	0,1	-0,181990
5,282500	0,1	-0,243967
5,284167	0,1	-0,237567
5,285833	0,1	-0,257620
5,287500	0,1	-0,247774
5,289167	0,1	-0,220216
5,290833	0,1	-0,199495
5,292500	0,1	-0,286068
5,294167	0,1	-0,233025
5,295833	0,1	-0,274070
5,297500	0,1	-0,246631
5,299167	0,1	-0,247466
5,300833	0,1	-0,185095
5,302500	0,1	-0,204374
5,304167	0,1	-0,231080
5,305833	0,1	-0,232323
5,307500	0,1	-0,204920
5,309167	0,1	-0,245881
5,310833	0,1	-0,218335
5,312500	0,1	-0,233236
5,314167	0,1	-0,262279
5,315833	0,1	-0,241482
5,317500	0,1	-0,192732
5,319167	0,1	-0,252477
5,320833	0,1	-0,225624
5,322500	0,1	-0,248055
5,324167	0,1	-0,232021
5,325833	0,1	-0,226060
5,327500	0,1	-0,245672
5,329167	0,1	-0,202709
5,330833	0,1	-0,252295
5,332500	0,1	-0,255654
5,334167	0,1	-0,272379
5,335833	0,1	-0,260194
5,337500	0,1	-0,234316
5,339167	0,1	-0,234493
5,340833	0,1	-0,244255
5,342500	0,1	-0,244821
5,344167	0,1	-0,283512
5,345833	0,1	-0,225095
5,347500	0,1	-0,250210
5,349167	0,1	-0,277510
5,350833	0,1	-0,259509
5,352500	0,1	-0,257672
5,354167	0,1	-0,194538
5,355833	0,1	-0,218352
5,357500	0,1	-0,267193
5,359167	0,1	-0,263051
5,360833	0,1	-0,231126
5,362500	0,1	-0,243704
5,364167	0,1	-0,250611
5,365833	0,1	-0,241768
5,367500	0,1	-0,250747
5,369167	0,1	-0,220628
5,370833	0,1	-0,290685
5,372500	0,1	-0,272403
5,374167	0,1	-0,236413
5,375833	0,1	-0,254229
5,377500	0,1	-0,250766
5,379167	0,1	-0,249986
5,380833	0,1	-0,257028
5,382500	0,1	-0,251164
5,384167	0,1	-0,248641
5,385833	0,1	-0,203168
5,387500	0,1	-0,246186
5,389167	0,1	-0,264067
5,390833	0,1	-0,251211
5,392500	0,1	-0,212608
5,394167	0,1	-0,286603
5,395833	0,1	-0,240785
5,397500	0,1	-0,232600
5,399167	0,1	-0,241488
5,400833	0,1	-0,250472
5,402500	0,1	-0,279848
5,404167	0,1	-0,253094
5,405833	0,1	-0,251269
5,407500	0,1	-0,253027
5,409167	0,1	-0,285224
5,410833	0,1	-0,231695
5,412500	0,1	-0,246132
5,414167	0,1	-0,268300
5,415833	0,1	-0,251228
5,417500	0,1	-0,249208
5,419167	0,1	-0,262190
5,420833	0,1	-0,240137
5,422500	0,1	-0,253146
5,424167	0,1	-0,276869
5,425833	0,1	-0,263739
5,427500	0,1	-0,249822
5,429167	0,1	-0,279787
5,430833	0,1	-0,270140
5,432500	0,1	-0,256772
5,434167	0,1	-0,245574
5,435833	0,1	-0,285100
5,437500	0,1	-0,256303
5,439167	0,1	-0,258923
5,440833	0,1	-0,272685
5,442500	0,1	-0,240918
5,444167	0,1	-0,231273
5,445833	0,1	-0,252028
5,447500	0,1	-0,230159
5,449167	0,1	-0,282942
5,450833	0,1	-0,255431
5,452500	0,1	-0,292387
5,454167	0,1	-0,230491
5,455833	0,1	-0,266202
5,457500	0,1	-0,266441
5,459167	0,1	-0,251228
5,460833	0,1	-0,257456
5,462500	0,1	-0,273710
5,464167	0,1	-0,232319
5,465833	0,1	-0,259132
5,467500	0,1	-0,240626
5,469167	0,1	-0,256643
5,470833	0,1	-0,255700
5,472500	0,1	-0,261428
5,474167	0,1	-0,249943
5,475833	0,1	-0,272608
5,477500	0,1	-0,249013
5,479167	0,1	-0,279543
5,480833	0,1	-0,229877
5,482500	0,1	-0,233026
5,484167	0,1	-0,253433
5,485833	0,1	-0,247712
5,487500	0,1	-0,253850
5,489167	0,1	-0,278579
5,490833	0,1	-0,267496
5,492500	0,1	-0,277469
5,494167	0,1	-0,269346
5,495833	0,1	-0,226558
5,497500	0,1	-0,224685
5,499167	0,1	-0,273670
5,500833	0,1	-0,276813
5,502500	0,1	-0,265099
5,504167	0,1	-0,263492
5,505833	0,1	-0,269632
5,507500	0,1	-0,267449
5,509167	0,1	-0,227138
5,510833	0,1	-0,251049
5,512500	0,1	-0,250277
5,514167	0,1	-0,302697
5,515833	0,1	-0,248379
5,517500	0,1	-0,245830
5,519167	0,1	-0,248487
5,520833	0,1	-0,270055
5,522500	0,1	-0,280141
5,524167	0,1	-0,254667
5,525833	0,1	-0,270852
5,527500	0,1	-0,249135
5,529167	0,1	-0,250168
5,530833	0,1	-0,281756
5,532500	0,1	-0,248557
5,534167	0,1	-0,263932
5,535833	0,1	-0,245942
5,537500	0,1	-0,256400
5,539167	0,1	-0,251728
5,540833	0,1	-0,279556
5,542500	0,1	-0,253352
5,544167	0,1	-0,279422
5,545833	0,1	-0,279794
5,547500	0,1	-0,285596
5,549167	0,1	-0,240968
5,550833	0,1	-0,209535
5,552500	0,1	-0,247426
5,554167	0,1	-0,246319
5,555833	0,1	-0,268191
5,557500	0,1	-0,274018
5,559167	0,1	-0,245028
5,560833	0,1	-0,254491
5,562500	0,1	-0,253791
5,564167	0,1	-0,280734
5,565833	0,1	-0,271272
5,567500	0,1	-0,265418
5,569167	0,1	-0,250783
5,570833	0,1	-0,263230
5,572500	0,1	-0,209418
5,574167	0,1	-0,233479
5,575833	0,1	-0,273991
5,577500	0,1	-0,270475
5,579167	0,1	-0,230425
5,580833	0,1	-0,257176
5,582500	0,1	-0,292679
5,584167	0,1	-0,251814
5,585833	0,1	-0,267307
5,587500	0,1	-0,230821
5,589167	0,1	-0,246209
5,590833	0,1	-0,235229
5,592500	0,1	-0,243750
5,594167	0,1	-0,269596
5,595833	0,1	-0,236382
5,597500	0,1	-0,252273
5,599167	0,1	-0,275358
5,600833	0,1	-0,241132
5,602500	0,1	-0,248486
5,604167	0,1	-0,293607
5,605833	0,1	-0,282915
5,607500	0,1	-0,245625
5,609167	0,1	-0,282839
5,610833	0,1	-0,274952
5,612500	0,1	-0,258928
5,614167	0,1	-0,255242
5,615833	0,1	-0,241358
5,617500	0,1	-0,255665
5,619167	0,1	-0,216016
5,620833	0,1	-0,254637
5,622500	0,1	-0,311326
5,624167	0,1	-0,254888
5,625833	0,1	-0,249987
5,627500	0,1	-0,250810
5,629167	0,1	-0,214822
5,630833	0,1	-0,239943
5,632500	0,1	-0,282196
5,634167	0,1	-0,261082
5,635833	0,1	-0,283562
5,637500	0,1	-0,267026
5,639167	0,1	-0,193275
5,640833	0,1	-0,242809
5,642500	0,1	-0,276744
5,644167	0,1	-0,283168
5,645833	0,1	-0,241837
5,647500	0,1	-0,295789
5,649167	0,1	-0,276529
5,650833	0,1	-0,270062
5,652500	0,1	-0,218921
5,654167	0,1	-0,240707
5,655833	0,1	-0,245448
5,657500	0,1	-0,257088
5,659167	0,1	-0,256524
5,660833	0,1	-0,259718
5,662500	0,1	-0,286249
5,664167	0,1	-0,254776
5,665833	0,1	-0,250278
5,667500	0,1	-0,215647
5,669167	0,1	-0,243989
5,670833	0,1	-0,223986
5,672500	0,1	-0,234935
5,674167	0,1	-0,315839
5,675833	0,1	-0,261901
5,677500	0,1	-0,278735
5,679167	0,1	-0,255705
5,680833	0,1	-0,282813
5,682500	0,1	-0,268064
5,684167	0,1	-0,256880
5,685833	0,1	-0,263459
5,687500	0,1	-0,272458
5,689167	0,1	-0,260974
5,690833	0,1	-0,266257
5,692500	0,1	-0,293477
5,694167	0,1	-0,273841
5,695833	0,1	-0,279334
5,697500	0,1	-0,266903
5,699167	0,1	-0,265569
5,700833	0,1	-0,239205
5,702500	0,1	-0,293040
5,704167	0,1	-0,251981
5,705833	0,1	-0,263108
5,707500	0,1	-0,285791
5,709167	0,1	-0,283535
5,710833	0,1	-0,246039
5,712500	0,1	-0,283770
5,714167	0,1	-0,255845
5,715833	0,1	-0,294420
5,717500	0,1	-0,233805
5,719167	0,1	-0,249020
5,720833	0,1	-0,262479
5,722500	0,1	-0,284402
5,724167	0,1	-0,290733
5,725833	0,1	-0,274603
5,727500	0,1	-0,259784
5,729167	0,1	-0,258633
5,730833	0,1	-0,274596
5,732500	0,1	-0,260622
5,734167	0,1	-0,283683
5,735833	0,1	-0,261144
5,737500	0,1	-0,296253
5,739167	0,1	-0,250241
5,740833	0,1	-0,243923
5,742500	0,1	-0,206602
5,744167	0,1	-0,280754
5,745833	0,1	-0,233726
5,747500	0,1	-0,260948
5,749167	0,1	-0,245375
5,750833	0,1	-0,282291
5,752500	0,1	-0,278633
5,754167	0,1	-0,255477
5,755833	0,1	-0,257762
5,757500	0,1	-0,308627
5,759167	0,1	-0,290982
5,760833	0,1	-0,281660
5,762500	0,1	-0,246741
5,764167	0,1	-0,250168
5,765833	0,1	-0,272865
5,767500	0,1	-0,255948
5,769167	0,1	-0,256938
5,770833	0,1	-0,240533
5,772500	0,1	-0,273979
5,774167	0,1	-0,260364
5,775833	0,1	-0,248416
5,777500	0,1	-0,268239
5,779167	0,1	-0,272154
5,780833	0,1	-0,326679
5,782500	0,1	-0,285578
5,784167	0,1	-0,277290
5,785833	0,1	-0,271027
5,787500	0,1	-0,298516
5,789167	0,1	-0,301013
5,790833	0,1	-0,290352
5,792500	0,1	-0,278574
5,794167	0,1	-0,268962
5,795833	0,1	-0,282784
5,797500	0,1	-0,243944
5,799167	0,1	-0,290751
5,800833	0,1	-0,264811
5,802500	0,1	-0,295597
5,804167	0,1	-0,263071
5,805833	0,1	-0,300195
5,807500	0,1	-0,284517
5,809167	0,1	-0,256500
5,810833	0,1	-0,279451
5,812500	0,1	-0,285811
5,814167	0,1	-0,272524
5,815833	0,1	-0,272688
5,817500	0,1	-0,322877
5,819167	0,1	-0,289655
5,820833	0,1	-0,324455
5,822500	0,1	-0,305524
5,824167	0,1	-0,311919
5,825833	0,1	-0,268071
5,827500	0,1	-0,270229
5,829167	0,1	-0,308460
5,830833	0,1	-0,233625
5,832500	0,1	-0,305028
5,834167	0,1	-0,323021
5,835833	0,1	-0,265172
5,837500	0,1	-0,266563
5,839167	0,1	-0,210335
5,840833	0,1	-0,273497
5,842500	0,1	-0,218175
5,844167	0,1	-0,294579
5,845833	0,1	-0,299285
5,847500	0,1	-0,280501
5,849167	0,1	-0,253139
5,850833	0,1	-0,286430
5,852500	0,1	-0,280938
5,854167	0,1	-0,270002
5,855833	0,1	-0,301952
5,857500	0,1	-0,273978
5,859167	0,1	-0,297328
5,860833	0,1	-0,255848
5,862500	0,1	-0,289991
5,864167	0,1	-0,269119
5,865833	0,1	-0,273390
5,867500	0,1	-0,291413
5,869167	0,1	-0,293679
5,870833	0,1	-0,255586
5,872500	0,1	-0,341306
5,874167	0,1	-0,289033
5,875833	0,1	-0,269715
5,877500	0,1	-0,274429
5,879167	0,1	-0,300900
5,880833	0,1	-0,276727
5,882500	0,1	-0,319382
5,884167	0,1	-0,306165
5,885833	0,1	-0,275432
5,887500	0,1	-0,264808
5,889167	0,1	-0,308088
5,890833	0,1	-0,333102
5,892500	0,1	-0,261583
5,894167	0,1	-0,262591
5,895833	0,1	-0,296468
5,897500	0,1	-0,278467
5,899167	0,1	-0,260365
5,900833	0,1	-0,294389
5,902500	0,1	-0,278710
5,904167	0,1	-0,245060
5,905833	0,1	-0,302709
5,907500	0,1	-0,318300
5,909167	0,1	-0,286324
5,910833	0,1	-0,281092
5,912500	0,1	-0,267314
5,914167	0,1	-0,286219
5,915833	0,1	-0,273150
5,917500	0,1	-0,278785
5,919167	0,1	-0,268382
5,920833	0,1	-0,277867
5,922500	0,1	-0,270306
5,924167	0,1	-0,277515
5,925833	0,1	-0,263419
5,927500	0,1	-0,275024
5,929167	0,1	-0,253032
5,930833	0,1	-0,243526
5,932500	0,1	-0,284397
5,934167	0,1	-0,269775
5,935833	0,1	-0,272093
5,937500	0,1	-0,269130
5,939167	0,1	-0,265922
5,940833	0,1	-0,322309
5,942500	0,1	-0,280978
5,944167	0,1	-0,315257
5,945833	0,1	-0,301199
5,947500	0,1	-0,258399
5,949167	0,1	-0,272274
5,950833	0,1	-0,315073
5,952500	0,1	-0,319282
5,954167	0,1	-0,307858
5,955833	0,1	-0,264815
5,957500	0,1	-0,324294
5,959167	0,1	-0,263902
5,960833	0,1	-0,313071
5,962500	0,1	-0,298587
5,964167	0,1	-0,254488
5,965833	0,1	-0,317938
5,967500	0,1	-0,252523
5,969167	0,1	-0,316093
5,970833	0,1	-0,279755
5,972500	0,1	-0,279855
5,974167	0,1	-0,293967
5,975833	0,1	-0,276773
5,977500	0,1	-0,241896
5,979167	0,1	-0,322857
5,980833	0,1	-0,218292
5,982500	0,1	-0,282236
5,984167	0,1	-0,279564
5,985833	0,1	-0,299205
5,987500	0,1	-0,297131
5,989167	0,1	-0,315140
5,990833	0,1	-0,294374
5,992500	0,1	-0,289907
5,994167	0,1	-0,247140
5,995833	0,1	-0,286262
5,997500	0,1	-0,277182
5,999167	0,1	-0,309483
6,000833	0,1	-0,277097
