File Path	chrom://chromeleon01/ikbm_chromeleon/2022/Rezex/Esteban/220612_chitin_4_7.seq/646.smp/UV_VIS_1.channel/UV_VIS_1.chm
Channel	UV_VIS_1

Injection Information:
Data Vault	ikbm_chromeleon
Injection	Blank__02
Injection Number	2
Position	RA1
Comment	
Processing Method	New ProcMethod
Instrument Method	Short_Rezex_6min_194nm
Type	Blank
Status	Finished
Injection Date	12.06.2022
Injection Time	17:20:30
Injection Volume (µl)	8,000
Dilution Factor	1,0000
Weight	1,0000

Chromatogram Data Information:
Time Min. (min)	0,000833
Time Max. (min)	6,000833
Data Points	3601
Detector	UV
Generating Data System	Chromeleon 7.2.9.11323
Exporting Data System	Chromeleon 7.2.9.0
Operator	Instrument Controller
Signal Quantity	Absorbance
Signal Unit	mAU
Signal Min.	-0,051223
Signal Max.	0,573636
Channel	UV_VIS_1
Driver Name	VWD3000.dll
Channel Type	Evaluation
Min. Step (s)	0,1
Max. Step (s)	0,1
Average Step (s)	0,1

Signal Parameter Information:
Signal Info	WVL:194 nm

Chromatogram Data:
Time (min)	Step (s)	Value (mAU)
0,000833	n.a.	-0,008798
0,002500	0,1	-0,021710
0,004167	0,1	-0,036485
0,005833	0,1	-0,016144
0,007500	0,1	-0,037334
0,009167	0,1	-0,019101
0,010833	0,1	-0,048928
0,012500	0,1	0,000836
0,014167	0,1	-0,047461
0,015833	0,1	-0,026494
0,017500	0,1	-0,018455
0,019167	0,1	-0,013740
0,020833	0,1	-0,032995
0,022500	0,1	-0,022205
0,024167	0,1	-0,044185
0,025833	0,1	-0,020992
0,027500	0,1	-0,035800
0,029167	0,1	-0,015376
0,030833	0,1	-0,050807
0,032500	0,1	-0,041847
0,034167	0,1	-0,034713
0,035833	0,1	-0,011938
0,037500	0,1	-0,013822
0,039167	0,1	-0,013564
0,040833	0,1	-0,038277
0,042500	0,1	-0,002244
0,044167	0,1	-0,043518
0,045833	0,1	-0,032658
0,047500	0,1	-0,040731
0,049167	0,1	-0,038927
0,050833	0,1	-0,044553
0,052500	0,1	-0,004343
0,054167	0,1	-0,032495
0,055833	0,1	-0,019702
0,057500	0,1	-0,047590
0,059167	0,1	-0,020266
0,060833	0,1	-0,020728
0,062500	0,1	-0,031802
0,064167	0,1	0,039650
0,065833	0,1	-0,008952
0,067500	0,1	-0,038359
0,069167	0,1	0,014197
0,070833	0,1	-0,023718
0,072500	0,1	-0,018122
0,074167	0,1	-0,040718
0,075833	0,1	-0,021635
0,077500	0,1	-0,015455
0,079167	0,1	-0,021412
0,080833	0,1	-0,011583
0,082500	0,1	-0,030118
0,084167	0,1	-0,023646
0,085833	0,1	-0,010080
0,087500	0,1	-0,006651
0,089167	0,1	-0,030636
0,090833	0,1	-0,029687
0,092500	0,1	0,002748
0,094167	0,1	0,015836
0,095833	0,1	-0,005823
0,097500	0,1	-0,021845
0,099167	0,1	-0,017893
0,100833	0,1	-0,004805
0,102500	0,1	-0,022094
0,104167	0,1	-0,038062
0,105833	0,1	-0,023639
0,107500	0,1	0,017812
0,109167	0,1	-0,010256
0,110833	0,1	-0,005103
0,112500	0,1	-0,028103
0,114167	0,1	-0,003437
0,115833	0,1	-0,039042
0,117500	0,1	-0,014555
0,119167	0,1	-0,022471
0,120833	0,1	-0,018881
0,122500	0,1	0,001028
0,124167	0,1	-0,014151
0,125833	0,1	-0,024401
0,127500	0,1	-0,020542
0,129167	0,1	-0,008190
0,130833	0,1	-0,008839
0,132500	0,1	0,014556
0,134167	0,1	-0,020844
0,135833	0,1	-0,033379
0,137500	0,1	0,001585
0,139167	0,1	-0,027665
0,140833	0,1	-0,049647
0,142500	0,1	0,044451
0,144167	0,1	-0,039155
0,145833	0,1	0,002488
0,147500	0,1	-0,010758
0,149167	0,1	-0,011841
0,150833	0,1	-0,016595
0,152500	0,1	-0,002613
0,154167	0,1	-0,040371
0,155833	0,1	-0,021116
0,157500	0,1	-0,013555
0,159167	0,1	-0,033556
0,160833	0,1	-0,016434
0,162500	0,1	0,023606
0,164167	0,1	-0,007286
0,165833	0,1	-0,038661
0,167500	0,1	-0,042186
0,169167	0,1	0,016896
0,170833	0,1	-0,016930
0,172500	0,1	-0,014375
0,174167	0,1	-0,011883
0,175833	0,1	-0,010729
0,177500	0,1	0,021976
0,179167	0,1	-0,040779
0,180833	0,1	-0,035232
0,182500	0,1	-0,001114
0,184167	0,1	0,020006
0,185833	0,1	-0,018610
0,187500	0,1	0,001505
0,189167	0,1	-0,019166
0,190833	0,1	0,005025
0,192500	0,1	0,003358
0,194167	0,1	0,025542
0,195833	0,1	-0,039545
0,197500	0,1	-0,023939
0,199167	0,1	-0,028793
0,200833	0,1	-0,010089
0,202500	0,1	0,014431
0,204167	0,1	-0,013765
0,205833	0,1	-0,016865
0,207500	0,1	-0,002738
0,209167	0,1	-0,050201
0,210833	0,1	-0,033128
0,212500	0,1	-0,004506
0,214167	0,1	0,011121
0,215833	0,1	-0,006937
0,217500	0,1	-0,018317
0,219167	0,1	0,047676
0,220833	0,1	0,016626
0,222500	0,1	-0,010536
0,224167	0,1	-0,004887
0,225833	0,1	-0,014319
0,227500	0,1	-0,012266
0,229167	0,1	-0,002529
0,230833	0,1	-0,008435
0,232500	0,1	0,016268
0,234167	0,1	-0,034897
0,235833	0,1	-0,007197
0,237500	0,1	0,000607
0,239167	0,1	-0,015222
0,240833	0,1	0,000957
0,242500	0,1	-0,003772
0,244167	0,1	-0,001709
0,245833	0,1	-0,050832
0,247500	0,1	0,012915
0,249167	0,1	-0,005824
0,250833	0,1	-0,019384
0,252500	0,1	-0,007277
0,254167	0,1	0,004218
0,255833	0,1	-0,012647
0,257500	0,1	0,026105
0,259167	0,1	-0,006664
0,260833	0,1	-0,009607
0,262500	0,1	0,021552
0,264167	0,1	0,014136
0,265833	0,1	0,026362
0,267500	0,1	0,039404
0,269167	0,1	-0,037994
0,270833	0,1	0,030346
0,272500	0,1	-0,005468
0,274167	0,1	-0,025561
0,275833	0,1	0,019367
0,277500	0,1	0,014487
0,279167	0,1	0,011261
0,280833	0,1	0,014478
0,282500	0,1	0,034395
0,284167	0,1	-0,012038
0,285833	0,1	-0,007026
0,287500	0,1	-0,014880
0,289167	0,1	-0,026975
0,290833	0,1	-0,051223
0,292500	0,1	-0,002561
0,294167	0,1	-0,031008
0,295833	0,1	0,028383
0,297500	0,1	0,045850
0,299167	0,1	-0,004302
0,300833	0,1	-0,032981
0,302500	0,1	0,013605
0,304167	0,1	-0,021435
0,305833	0,1	-0,028273
0,307500	0,1	-0,025297
0,309167	0,1	-0,026334
0,310833	0,1	-0,017231
0,312500	0,1	-0,002386
0,314167	0,1	-0,050096
0,315833	0,1	-0,015223
0,317500	0,1	-0,022895
0,319167	0,1	0,016885
0,320833	0,1	0,003838
0,322500	0,1	-0,000317
0,324167	0,1	-0,050905
0,325833	0,1	0,009624
0,327500	0,1	-0,003792
0,329167	0,1	0,021126
0,330833	0,1	0,000538
0,332500	0,1	0,024772
0,334167	0,1	0,016151
0,335833	0,1	0,006723
0,337500	0,1	-0,010654
0,339167	0,1	0,012758
0,340833	0,1	-0,036621
0,342500	0,1	0,014516
0,344167	0,1	0,004523
0,345833	0,1	0,031685
0,347500	0,1	-0,009661
0,349167	0,1	0,044035
0,350833	0,1	0,034652
0,352500	0,1	0,012344
0,354167	0,1	0,019501
0,355833	0,1	0,018432
0,357500	0,1	0,002252
0,359167	0,1	0,015637
0,360833	0,1	-0,014389
0,362500	0,1	0,013786
0,364167	0,1	0,008395
0,365833	0,1	-0,043045
0,367500	0,1	0,049785
0,369167	0,1	0,038692
0,370833	0,1	-0,010822
0,372500	0,1	0,018644
0,374167	0,1	0,009339
0,375833	0,1	0,029537
0,377500	0,1	0,035344
0,379167	0,1	0,018053
0,380833	0,1	0,010274
0,382500	0,1	-0,016839
0,384167	0,1	0,009966
0,385833	0,1	-0,014981
0,387500	0,1	0,026498
0,389167	0,1	-0,007274
0,390833	0,1	0,002162
0,392500	0,1	0,012511
0,394167	0,1	0,026838
0,395833	0,1	0,015560
0,397500	0,1	-0,001560
0,399167	0,1	0,004053
0,400833	0,1	0,010789
0,402500	0,1	-0,004177
0,404167	0,1	0,015769
0,405833	0,1	-0,012156
0,407500	0,1	0,027569
0,409167	0,1	0,015250
0,410833	0,1	0,026589
0,412500	0,1	0,002171
0,414167	0,1	-0,010456
0,415833	0,1	0,006883
0,417500	0,1	0,031519
0,419167	0,1	-0,011903
0,420833	0,1	0,005171
0,422500	0,1	0,009026
0,424167	0,1	0,030918
0,425833	0,1	-0,013223
0,427500	0,1	-0,012714
0,429167	0,1	-0,004016
0,430833	0,1	0,001445
0,432500	0,1	0,004489
0,434167	0,1	0,015562
0,435833	0,1	0,023715
0,437500	0,1	-0,007599
0,439167	0,1	0,000107
0,440833	0,1	-0,036873
0,442500	0,1	0,006358
0,444167	0,1	0,000296
0,445833	0,1	0,002600
0,447500	0,1	0,023319
0,449167	0,1	-0,002804
0,450833	0,1	0,011431
0,452500	0,1	0,046062
0,454167	0,1	0,022995
0,455833	0,1	0,009851
0,457500	0,1	0,008394
0,459167	0,1	0,009086
0,460833	0,1	0,006638
0,462500	0,1	-0,008039
0,464167	0,1	0,020533
0,465833	0,1	-0,005595
0,467500	0,1	-0,017860
0,469167	0,1	0,038718
0,470833	0,1	0,032988
0,472500	0,1	0,017367
0,474167	0,1	0,014396
0,475833	0,1	0,007282
0,477500	0,1	0,014310
0,479167	0,1	0,038993
0,480833	0,1	0,011493
0,482500	0,1	0,025467
0,484167	0,1	0,048080
0,485833	0,1	0,014796
0,487500	0,1	0,058081
0,489167	0,1	0,020122
0,490833	0,1	0,042814
0,492500	0,1	0,007706
0,494167	0,1	0,007197
0,495833	0,1	0,036626
0,497500	0,1	0,025783
0,499167	0,1	-0,000093
0,500833	0,1	0,030188
0,502500	0,1	0,013547
0,504167	0,1	0,051822
0,505833	0,1	0,020422
0,507500	0,1	0,045128
0,509167	0,1	-0,014071
0,510833	0,1	0,022035
0,512500	0,1	0,001193
0,514167	0,1	-0,009150
0,515833	0,1	0,040223
0,517500	0,1	0,010464
0,519167	0,1	0,019125
0,520833	0,1	0,023674
0,522500	0,1	0,016680
0,524167	0,1	0,010076
0,525833	0,1	0,013073
0,527500	0,1	0,035173
0,529167	0,1	0,008658
0,530833	0,1	0,036324
0,532500	0,1	0,026461
0,534167	0,1	0,047143
0,535833	0,1	0,040963
0,537500	0,1	-0,008633
0,539167	0,1	0,054307
0,540833	0,1	0,007719
0,542500	0,1	0,026412
0,544167	0,1	0,009984
0,545833	0,1	0,006865
0,547500	0,1	0,035262
0,549167	0,1	0,020377
0,550833	0,1	0,040104
0,552500	0,1	0,023679
0,554167	0,1	0,034490
0,555833	0,1	0,025358
0,557500	0,1	0,025304
0,559167	0,1	0,056539
0,560833	0,1	-0,018394
0,562500	0,1	0,034905
0,564167	0,1	0,012779
0,565833	0,1	-0,013870
0,567500	0,1	-0,010099
0,569167	0,1	0,066834
0,570833	0,1	0,016948
0,572500	0,1	0,025354
0,574167	0,1	0,035301
0,575833	0,1	-0,004035
0,577500	0,1	0,029728
0,579167	0,1	0,045265
0,580833	0,1	0,055907
0,582500	0,1	0,023464
0,584167	0,1	0,013035
0,585833	0,1	0,028477
0,587500	0,1	0,060240
0,589167	0,1	0,054784
0,590833	0,1	0,012148
0,592500	0,1	0,018055
0,594167	0,1	0,025521
0,595833	0,1	0,059422
0,597500	0,1	0,005623
0,599167	0,1	0,030416
0,600833	0,1	0,013948
0,602500	0,1	0,032297
0,604167	0,1	0,040760
0,605833	0,1	0,008409
0,607500	0,1	0,033885
0,609167	0,1	0,007412
0,610833	0,1	-0,006657
0,612500	0,1	0,040491
0,614167	0,1	0,024974
0,615833	0,1	0,038693
0,617500	0,1	0,073114
0,619167	0,1	0,007523
0,620833	0,1	0,021230
0,622500	0,1	0,014582
0,624167	0,1	0,024967
0,625833	0,1	0,090054
0,627500	0,1	0,020181
0,629167	0,1	0,001534
0,630833	0,1	0,025733
0,632500	0,1	0,068732
0,634167	0,1	0,019832
0,635833	0,1	0,056335
0,637500	0,1	0,039820
0,639167	0,1	0,040418
0,640833	0,1	0,037844
0,642500	0,1	0,018030
0,644167	0,1	0,000091
0,645833	0,1	0,012737
0,647500	0,1	0,018180
0,649167	0,1	0,077404
0,650833	0,1	0,039133
0,652500	0,1	0,037026
0,654167	0,1	0,047831
0,655833	0,1	0,038624
0,657500	0,1	0,045659
0,659167	0,1	0,029430
0,660833	0,1	0,046124
0,662500	0,1	0,099637
0,664167	0,1	0,059263
0,665833	0,1	0,034248
0,667500	0,1	0,034426
0,669167	0,1	0,020937
0,670833	0,1	0,050151
0,672500	0,1	0,044282
0,674167	0,1	0,004549
0,675833	0,1	0,059633
0,677500	0,1	0,051932
0,679167	0,1	0,061449
0,680833	0,1	0,073170
0,682500	0,1	0,024380
0,684167	0,1	0,030469
0,685833	0,1	0,090279
0,687500	0,1	0,063817
0,689167	0,1	0,089909
0,690833	0,1	0,034889
0,692500	0,1	0,033171
0,694167	0,1	0,022791
0,695833	0,1	0,032827
0,697500	0,1	0,057927
0,699167	0,1	0,065914
0,700833	0,1	0,011000
0,702500	0,1	0,044675
0,704167	0,1	0,027030
0,705833	0,1	0,053972
0,707500	0,1	0,062997
0,709167	0,1	0,058443
0,710833	0,1	0,044509
0,712500	0,1	0,027030
0,714167	0,1	0,033294
0,715833	0,1	0,023427
0,717500	0,1	0,056336
0,719167	0,1	0,034164
0,720833	0,1	0,057326
0,722500	0,1	0,023868
0,724167	0,1	0,071138
0,725833	0,1	0,074026
0,727500	0,1	0,043261
0,729167	0,1	0,062518
0,730833	0,1	0,039915
0,732500	0,1	0,053080
0,734167	0,1	0,056861
0,735833	0,1	0,043431
0,737500	0,1	0,034369
0,739167	0,1	0,032360
0,740833	0,1	0,047888
0,742500	0,1	0,055531
0,744167	0,1	0,035450
0,745833	0,1	0,012931
0,747500	0,1	0,050709
0,749167	0,1	0,064801
0,750833	0,1	0,044511
0,752500	0,1	0,034419
0,754167	0,1	0,027171
0,755833	0,1	0,078302
0,757500	0,1	0,056693
0,759167	0,1	0,027886
0,760833	0,1	0,079514
0,762500	0,1	0,061548
0,764167	0,1	0,071757
0,765833	0,1	0,041681
0,767500	0,1	0,065652
0,769167	0,1	0,062964
0,770833	0,1	0,044469
0,772500	0,1	0,048058
0,774167	0,1	0,025671
0,775833	0,1	0,069174
0,777500	0,1	0,058194
0,779167	0,1	0,067593
0,780833	0,1	0,046870
0,782500	0,1	0,089731
0,784167	0,1	0,005774
0,785833	0,1	0,039950
0,787500	0,1	0,084665
0,789167	0,1	0,055539
0,790833	0,1	0,043566
0,792500	0,1	0,064883
0,794167	0,1	0,028416
0,795833	0,1	0,074147
0,797500	0,1	0,069270
0,799167	0,1	0,053129
0,800833	0,1	0,061752
0,802500	0,1	0,033988
0,804167	0,1	0,050121
0,805833	0,1	0,047425
0,807500	0,1	0,055791
0,809167	0,1	0,034372
0,810833	0,1	0,066426
0,812500	0,1	0,035946
0,814167	0,1	0,029320
0,815833	0,1	0,060031
0,817500	0,1	0,107238
0,819167	0,1	0,069535
0,820833	0,1	0,072011
0,822500	0,1	0,059784
0,824167	0,1	0,063432
0,825833	0,1	0,031724
0,827500	0,1	0,023444
0,829167	0,1	0,066941
0,830833	0,1	0,037909
0,832500	0,1	0,072997
0,834167	0,1	0,048123
0,835833	0,1	0,043654
0,837500	0,1	0,027391
0,839167	0,1	0,067502
0,840833	0,1	0,077467
0,842500	0,1	0,067340
0,844167	0,1	0,043050
0,845833	0,1	0,063252
0,847500	0,1	0,077074
0,849167	0,1	0,062491
0,850833	0,1	0,093205
0,852500	0,1	0,054940
0,854167	0,1	0,026824
0,855833	0,1	0,075140
0,857500	0,1	0,057126
0,859167	0,1	0,059654
0,860833	0,1	0,084376
0,862500	0,1	0,083906
0,864167	0,1	0,099176
0,865833	0,1	0,039329
0,867500	0,1	0,069911
0,869167	0,1	0,076474
0,870833	0,1	0,071928
0,872500	0,1	0,052837
0,874167	0,1	0,028204
0,875833	0,1	0,089900
0,877500	0,1	0,068028
0,879167	0,1	0,052829
0,880833	0,1	0,090116
0,882500	0,1	0,038860
0,884167	0,1	0,084231
0,885833	0,1	0,044132
0,887500	0,1	0,100630
0,889167	0,1	0,090729
0,890833	0,1	0,048211
0,892500	0,1	0,079225
0,894167	0,1	0,042584
0,895833	0,1	0,077676
0,897500	0,1	0,081932
0,899167	0,1	0,069062
0,900833	0,1	0,037777
0,902500	0,1	0,077935
0,904167	0,1	0,084758
0,905833	0,1	0,037864
0,907500	0,1	0,088960
0,909167	0,1	0,077556
0,910833	0,1	0,051602
0,912500	0,1	0,085485
0,914167	0,1	0,084466
0,915833	0,1	0,075148
0,917500	0,1	0,034693
0,919167	0,1	0,060466
0,920833	0,1	0,104235
0,922500	0,1	0,075461
0,924167	0,1	0,064379
0,925833	0,1	0,062278
0,927500	0,1	0,070644
0,929167	0,1	0,109904
0,930833	0,1	0,056575
0,932500	0,1	0,046056
0,934167	0,1	0,075872
0,935833	0,1	0,087122
0,937500	0,1	0,070818
0,939167	0,1	0,063776
0,940833	0,1	0,060006
0,942500	0,1	0,084102
0,944167	0,1	0,073008
0,945833	0,1	0,122477
0,947500	0,1	0,087992
0,949167	0,1	0,058851
0,950833	0,1	0,085187
0,952500	0,1	0,050784
0,954167	0,1	0,048796
0,955833	0,1	0,093249
0,957500	0,1	0,077557
0,959167	0,1	0,051686
0,960833	0,1	0,038124
0,962500	0,1	0,065265
0,964167	0,1	0,047896
0,965833	0,1	0,077252
0,967500	0,1	0,054343
0,969167	0,1	0,081157
0,970833	0,1	0,072789
0,972500	0,1	0,059532
0,974167	0,1	0,050301
0,975833	0,1	0,116637
0,977500	0,1	0,067433
0,979167	0,1	0,076871
0,980833	0,1	0,122092
0,982500	0,1	0,052382
0,984167	0,1	0,091062
0,985833	0,1	0,072064
0,987500	0,1	0,091324
0,989167	0,1	0,076960
0,990833	0,1	0,079819
0,992500	0,1	0,097938
0,994167	0,1	0,095019
0,995833	0,1	0,087686
0,997500	0,1	0,068070
0,999167	0,1	0,082965
1,000833	0,1	0,075363
1,002500	0,1	0,071593
1,004167	0,1	0,057643
1,005833	0,1	0,129047
1,007500	0,1	0,053201
1,009167	0,1	0,077721
1,010833	0,1	0,063862
1,012500	0,1	0,086909
1,014167	0,1	0,091370
1,015833	0,1	0,117976
1,017500	0,1	0,084264
1,019167	0,1	0,091419
1,020833	0,1	0,069573
1,022500	0,1	0,077551
1,024167	0,1	0,110633
1,025833	0,1	0,096658
1,027500	0,1	0,083229
1,029167	0,1	0,096391
1,030833	0,1	0,097816
1,032500	0,1	0,077600
1,034167	0,1	0,128233
1,035833	0,1	0,098291
1,037500	0,1	0,079410
1,039167	0,1	0,087809
1,040833	0,1	0,108965
1,042500	0,1	0,073447
1,044167	0,1	0,102231
1,045833	0,1	0,045089
1,047500	0,1	0,076482
1,049167	0,1	0,055112
1,050833	0,1	0,059920
1,052500	0,1	0,081626
1,054167	0,1	0,069957
1,055833	0,1	0,086315
1,057500	0,1	0,079617
1,059167	0,1	0,071076
1,060833	0,1	0,113946
1,062500	0,1	0,106998
1,064167	0,1	0,083184
1,065833	0,1	0,082017
1,067500	0,1	0,087647
1,069167	0,1	0,084858
1,070833	0,1	0,093090
1,072500	0,1	0,059804
1,074167	0,1	0,090686
1,075833	0,1	0,072072
1,077500	0,1	0,069619
1,079167	0,1	0,095277
1,080833	0,1	0,067308
1,082500	0,1	0,088967
1,084167	0,1	0,077136
1,085833	0,1	0,117249
1,087500	0,1	0,064132
1,089167	0,1	0,060734
1,090833	0,1	0,101025
1,092500	0,1	0,050787
1,094167	0,1	0,080470
1,095833	0,1	0,101287
1,097500	0,1	0,082923
1,099167	0,1	0,080176
1,100833	0,1	0,091334
1,102500	0,1	0,137591
1,104167	0,1	0,097224
1,105833	0,1	0,115794
1,107500	0,1	0,097904
1,109167	0,1	0,087217
1,110833	0,1	0,080521
1,112500	0,1	0,056925
1,114167	0,1	0,115145
1,115833	0,1	0,091082
1,117500	0,1	0,145958
1,119167	0,1	0,094825
1,120833	0,1	0,086097
1,122500	0,1	0,085627
1,124167	0,1	0,079402
1,125833	0,1	0,076490
1,127500	0,1	0,071425
1,129167	0,1	0,070954
1,130833	0,1	0,101495
1,132500	0,1	0,076361
1,134167	0,1	0,105063
1,135833	0,1	0,072803
1,137500	0,1	0,084379
1,139167	0,1	0,084172
1,140833	0,1	0,104164
1,142500	0,1	0,077607
1,144167	0,1	0,115066
1,145833	0,1	0,053892
1,147500	0,1	0,067810
1,149167	0,1	0,064644
1,150833	0,1	0,130853
1,152500	0,1	0,110274
1,154167	0,1	0,110262
1,155833	0,1	0,095245
1,157500	0,1	0,141073
1,159167	0,1	0,078819
1,160833	0,1	0,124245
1,162500	0,1	0,108768
1,164167	0,1	0,107556
1,165833	0,1	0,055303
1,167500	0,1	0,074126
1,169167	0,1	0,100040
1,170833	0,1	0,085846
1,172500	0,1	0,088893
1,174167	0,1	0,112410
1,175833	0,1	0,108592
1,177500	0,1	0,097866
1,179167	0,1	0,076579
1,180833	0,1	0,101588
1,182500	0,1	0,110092
1,184167	0,1	0,094089
1,185833	0,1	0,070651
1,187500	0,1	0,119090
1,189167	0,1	0,099492
1,190833	0,1	0,123902
1,192500	0,1	0,086496
1,194167	0,1	0,073400
1,195833	0,1	0,078075
1,197500	0,1	0,096314
1,199167	0,1	0,103524
1,200833	0,1	0,062036
1,202500	0,1	0,099478
1,204167	0,1	0,079671
1,205833	0,1	0,122525
1,207500	0,1	0,111728
1,209167	0,1	0,111599
1,210833	0,1	0,092461
1,212500	0,1	0,105285
1,214167	0,1	0,060959
1,215833	0,1	0,118743
1,217500	0,1	0,125320
1,219167	0,1	0,100662
1,220833	0,1	0,108371
1,222500	0,1	0,109492
1,224167	0,1	0,071349
1,225833	0,1	0,106349
1,227500	0,1	0,107821
1,229167	0,1	0,097390
1,230833	0,1	0,142439
1,232500	0,1	0,122547
1,234167	0,1	0,078003
1,235833	0,1	0,112319
1,237500	0,1	0,060060
1,239167	0,1	0,094980
1,240833	0,1	0,128328
1,242500	0,1	0,100831
1,244167	0,1	0,095332
1,245833	0,1	0,096533
1,247500	0,1	0,123089
1,249167	0,1	0,100018
1,250833	0,1	0,084475
1,252500	0,1	0,105625
1,254167	0,1	0,093830
1,255833	0,1	0,094093
1,257500	0,1	0,106228
1,259167	0,1	0,097355
1,260833	0,1	0,107739
1,262500	0,1	0,092544
1,264167	0,1	0,104941
1,265833	0,1	0,146524
1,267500	0,1	0,067455
1,269167	0,1	0,064093
1,270833	0,1	0,093392
1,272500	0,1	0,113483
1,274167	0,1	0,125758
1,275833	0,1	0,077621
1,277500	0,1	0,091381
1,279167	0,1	0,101255
1,280833	0,1	0,074571
1,282500	0,1	0,076103
1,284167	0,1	0,062039
1,285833	0,1	0,130852
1,287500	0,1	0,122717
1,289167	0,1	0,125205
1,290833	0,1	0,115379
1,292500	0,1	0,052905
1,294167	0,1	0,084388
1,295833	0,1	0,090048
1,297500	0,1	0,124550
1,299167	0,1	0,126451
1,300833	0,1	0,108684
1,302500	0,1	0,125029
1,304167	0,1	0,092338
1,305833	0,1	0,117084
1,307500	0,1	0,110655
1,309167	0,1	0,059206
1,310833	0,1	0,070098
1,312500	0,1	0,111030
1,314167	0,1	0,136530
1,315833	0,1	0,117355
1,317500	0,1	0,103016
1,319167	0,1	0,105671
1,320833	0,1	0,111862
1,322500	0,1	0,108171
1,324167	0,1	0,127006
1,325833	0,1	0,067325
1,327500	0,1	0,102234
1,329167	0,1	0,097052
1,330833	0,1	0,125807
1,332500	0,1	0,124780
1,334167	0,1	0,116491
1,335833	0,1	0,101729
1,337500	0,1	0,102978
1,339167	0,1	0,082167
1,340833	0,1	0,112493
1,342500	0,1	0,091775
1,344167	0,1	0,101857
1,345833	0,1	0,113317
1,347500	0,1	0,109025
1,349167	0,1	0,104952
1,350833	0,1	0,110100
1,352500	0,1	0,109668
1,354167	0,1	0,106631
1,355833	0,1	0,126358
1,357500	0,1	0,123877
1,359167	0,1	0,069646
1,360833	0,1	0,133348
1,362500	0,1	0,107238
1,364167	0,1	0,125461
1,365833	0,1	0,114008
1,367500	0,1	0,082730
1,369167	0,1	0,113738
1,370833	0,1	0,096370
1,372500	0,1	0,096155
1,374167	0,1	0,143483
1,375833	0,1	0,100755
1,377500	0,1	0,100488
1,379167	0,1	0,093582
1,380833	0,1	0,112886
1,382500	0,1	0,084828
1,384167	0,1	0,087571
1,385833	0,1	0,142921
1,387500	0,1	0,099720
1,389167	0,1	0,098520
1,390833	0,1	0,083663
1,392500	0,1	0,112884
1,394167	0,1	0,115507
1,395833	0,1	0,120958
1,397500	0,1	0,111601
1,399167	0,1	0,140908
1,400833	0,1	0,126064
1,402500	0,1	0,131385
1,404167	0,1	0,118905
1,405833	0,1	0,075820
1,407500	0,1	0,070662
1,409167	0,1	0,102668
1,410833	0,1	0,161375
1,412500	0,1	0,089828
1,414167	0,1	0,093322
1,415833	0,1	0,141499
1,417500	0,1	0,128987
1,419167	0,1	0,081021
1,420833	0,1	0,111423
1,422500	0,1	0,107232
1,424167	0,1	0,135843
1,425833	0,1	0,147097
1,427500	0,1	0,080382
1,429167	0,1	0,108938
1,430833	0,1	0,116066
1,432500	0,1	0,083802
1,434167	0,1	0,128498
1,435833	0,1	0,130018
1,437500	0,1	0,116331
1,439167	0,1	0,102036
1,440833	0,1	0,094129
1,442500	0,1	0,115931
1,444167	0,1	0,104437
1,445833	0,1	0,136100
1,447500	0,1	0,101056
1,449167	0,1	0,113574
1,450833	0,1	0,117054
1,452500	0,1	0,131038
1,454167	0,1	0,141430
1,455833	0,1	0,079728
1,457500	0,1	0,127685
1,459167	0,1	0,090198
1,460833	0,1	0,112242
1,462500	0,1	0,125937
1,464167	0,1	0,115391
1,465833	0,1	0,091734
1,467500	0,1	0,115893
1,469167	0,1	0,119671
1,470833	0,1	0,117742
1,472500	0,1	0,133060
1,474167	0,1	0,100285
1,475833	0,1	0,112883
1,477500	0,1	0,068530
1,479167	0,1	0,140898
1,480833	0,1	0,141173
1,482500	0,1	0,098265
1,484167	0,1	0,076985
1,485833	0,1	0,099670
1,487500	0,1	0,146786
1,489167	0,1	0,113412
1,490833	0,1	0,128632
1,492500	0,1	0,108175
1,494167	0,1	0,148250
1,495833	0,1	0,115221
1,497500	0,1	0,116971
1,499167	0,1	0,114011
1,500833	0,1	0,069132
1,502500	0,1	0,127172
1,504167	0,1	0,151769
1,505833	0,1	0,097114
1,507500	0,1	0,113580
1,509167	0,1	0,130742
1,510833	0,1	0,177043
1,512500	0,1	0,097335
1,514167	0,1	0,156956
1,515833	0,1	0,101914
1,517500	0,1	0,144514
1,519167	0,1	0,154045
1,520833	0,1	0,137314
1,522500	0,1	0,150357
1,524167	0,1	0,164003
1,525833	0,1	0,128222
1,527500	0,1	0,126578
1,529167	0,1	0,124052
1,530833	0,1	0,093420
1,532500	0,1	0,133744
1,534167	0,1	0,125250
1,535833	0,1	0,103669
1,537500	0,1	0,103543
1,539167	0,1	0,106196
1,540833	0,1	0,152453
1,542500	0,1	0,105611
1,544167	0,1	0,082602
1,545833	0,1	0,115297
1,547500	0,1	0,127567
1,549167	0,1	0,117315
1,550833	0,1	0,133486
1,552500	0,1	0,151520
1,554167	0,1	0,153578
1,555833	0,1	0,139203
1,557500	0,1	0,112560
1,559167	0,1	0,100369
1,560833	0,1	0,112804
1,562500	0,1	0,140395
1,564167	0,1	0,145255
1,565833	0,1	0,137920
1,567500	0,1	0,147227
1,569167	0,1	0,160999
1,570833	0,1	0,093849
1,572500	0,1	0,127562
1,574167	0,1	0,135166
1,575833	0,1	0,117577
1,577500	0,1	0,113236
1,579167	0,1	0,167644
1,580833	0,1	0,161263
1,582500	0,1	0,102480
1,584167	0,1	0,124473
1,585833	0,1	0,170738
1,587500	0,1	0,107596
1,589167	0,1	0,149368
1,590833	0,1	0,154823
1,592500	0,1	0,159629
1,594167	0,1	0,151822
1,595833	0,1	0,131268
1,597500	0,1	0,159064
1,599167	0,1	0,102781
1,600833	0,1	0,146660
1,602500	0,1	0,131569
1,604167	0,1	0,144736
1,605833	0,1	0,152637
1,607500	0,1	0,122427
1,609167	0,1	0,129974
1,610833	0,1	0,106628
1,612500	0,1	0,112342
1,614167	0,1	0,110665
1,615833	0,1	0,135383
1,617500	0,1	0,169278
1,619167	0,1	0,137366
1,620833	0,1	0,163190
1,622500	0,1	0,140840
1,624167	0,1	0,117793
1,625833	0,1	0,107920
1,627500	0,1	0,154169
1,629167	0,1	0,167055
1,630833	0,1	0,129900
1,632500	0,1	0,116461
1,634167	0,1	0,182582
1,635833	0,1	0,110081
1,637500	0,1	0,121425
1,639167	0,1	0,126630
1,640833	0,1	0,122812
1,642500	0,1	0,158808
1,644167	0,1	0,156886
1,645833	0,1	0,141440
1,647500	0,1	0,144956
1,649167	0,1	0,178256
1,650833	0,1	0,148225
1,652500	0,1	0,117152
1,654167	0,1	0,153743
1,655833	0,1	0,126289
1,657500	0,1	0,151476
1,659167	0,1	0,171043
1,660833	0,1	0,128055
1,662500	0,1	0,149842
1,664167	0,1	0,164692
1,665833	0,1	0,159679
1,667500	0,1	0,089575
1,669167	0,1	0,129065
1,670833	0,1	0,154090
1,672500	0,1	0,098275
1,674167	0,1	0,115385
1,675833	0,1	0,132547
1,677500	0,1	0,163527
1,679167	0,1	0,164399
1,680833	0,1	0,159894
1,682500	0,1	0,166757
1,684167	0,1	0,142814
1,685833	0,1	0,148304
1,687500	0,1	0,116810
1,689167	0,1	0,111268
1,690833	0,1	0,136625
1,692500	0,1	0,142728
1,694167	0,1	0,150020
1,695833	0,1	0,130367
1,697500	0,1	0,129934
1,699167	0,1	0,167820
1,700833	0,1	0,150933
1,702500	0,1	0,174388
1,704167	0,1	0,143849
1,705833	0,1	0,130971
1,707500	0,1	0,151990
1,709167	0,1	0,176108
1,710833	0,1	0,110508
1,712500	0,1	0,154907
1,714167	0,1	0,162339
1,715833	0,1	0,126344
1,717500	0,1	0,166879
1,719167	0,1	0,158435
1,720833	0,1	0,149722
1,722500	0,1	0,139852
1,724167	0,1	0,153926
1,725833	0,1	0,109089
1,727500	0,1	0,161554
1,729167	0,1	0,145904
1,730833	0,1	0,126593
1,732500	0,1	0,138474
1,734167	0,1	0,158643
1,735833	0,1	0,153843
1,737500	0,1	0,100169
1,739167	0,1	0,143574
1,740833	0,1	0,153148
1,742500	0,1	0,097030
1,744167	0,1	0,174076
1,745833	0,1	0,117675
1,747500	0,1	0,150229
1,749167	0,1	0,108360
1,750833	0,1	0,119843
1,752500	0,1	0,112172
1,754167	0,1	0,120361
1,755833	0,1	0,150320
1,757500	0,1	0,132129
1,759167	0,1	0,178809
1,760833	0,1	0,139345
1,762500	0,1	0,141780
1,764167	0,1	0,140708
1,765833	0,1	0,162807
1,767500	0,1	0,111670
1,769167	0,1	0,137008
1,770833	0,1	0,152720
1,772500	0,1	0,117628
1,774167	0,1	0,138856
1,775833	0,1	0,146200
1,777500	0,1	0,161944
1,779167	0,1	0,139464
1,780833	0,1	0,150494
1,782500	0,1	0,134534
1,784167	0,1	0,119037
1,785833	0,1	0,124357
1,787500	0,1	0,142940
1,789167	0,1	0,163535
1,790833	0,1	0,119477
1,792500	0,1	0,146374
1,794167	0,1	0,171728
1,795833	0,1	0,127629
1,797500	0,1	0,157437
1,799167	0,1	0,144056
1,800833	0,1	0,161820
1,802500	0,1	0,161223
1,804167	0,1	0,124019
1,805833	0,1	0,127323
1,807500	0,1	0,158857
1,809167	0,1	0,151997
1,810833	0,1	0,138913
1,812500	0,1	0,184993
1,814167	0,1	0,141963
1,815833	0,1	0,127151
1,817500	0,1	0,138689
1,819167	0,1	0,136251
1,820833	0,1	0,168775
1,822500	0,1	0,113043
1,824167	0,1	0,144221
1,825833	0,1	0,111240
1,827500	0,1	0,178630
1,829167	0,1	0,170067
1,830833	0,1	0,159937
1,832500	0,1	0,168521
1,834167	0,1	0,138183
1,835833	0,1	0,133455
1,837500	0,1	0,137495
1,839167	0,1	0,153494
1,840833	0,1	0,150624
1,842500	0,1	0,152083
1,844167	0,1	0,157359
1,845833	0,1	0,166158
1,847500	0,1	0,149080
1,849167	0,1	0,135308
1,850833	0,1	0,132990
1,852500	0,1	0,148519
1,854167	0,1	0,113164
1,855833	0,1	0,139287
1,857500	0,1	0,174952
1,859167	0,1	0,173242
1,860833	0,1	0,158228
1,862500	0,1	0,148610
1,864167	0,1	0,111662
1,865833	0,1	0,170568
1,867500	0,1	0,158566
1,869167	0,1	0,152085
1,870833	0,1	0,163710
1,872500	0,1	0,148826
1,874167	0,1	0,180959
1,875833	0,1	0,157755
1,877500	0,1	0,155774
1,879167	0,1	0,154486
1,880833	0,1	0,180017
1,882500	0,1	0,185387
1,884167	0,1	0,149771
1,885833	0,1	0,174952
1,887500	0,1	0,158389
1,889167	0,1	0,186110
1,890833	0,1	0,171526
1,892500	0,1	0,196113
1,894167	0,1	0,151109
1,895833	0,1	0,167486
1,897500	0,1	0,140763
1,899167	0,1	0,146721
1,900833	0,1	0,155511
1,902500	0,1	0,142262
1,904167	0,1	0,199409
1,905833	0,1	0,164449
1,907500	0,1	0,187399
1,909167	0,1	0,114678
1,910833	0,1	0,145941
1,912500	0,1	0,137582
1,914167	0,1	0,085365
1,915833	0,1	0,166748
1,917500	0,1	0,171526
1,919167	0,1	0,146042
1,920833	0,1	0,144876
1,922500	0,1	0,143247
1,924167	0,1	0,124493
1,925833	0,1	0,188761
1,927500	0,1	0,164969
1,929167	0,1	0,163417
1,930833	0,1	0,163117
1,932500	0,1	0,155352
1,934167	0,1	0,187007
1,935833	0,1	0,153125
1,937500	0,1	0,136385
1,939167	0,1	0,155509
1,940833	0,1	0,199455
1,942500	0,1	0,163557
1,944167	0,1	0,160712
1,945833	0,1	0,165005
1,947500	0,1	0,158951
1,949167	0,1	0,171570
1,950833	0,1	0,159300
1,952500	0,1	0,159122
1,954167	0,1	0,160070
1,955833	0,1	0,124462
1,957500	0,1	0,155252
1,959167	0,1	0,196794
1,960833	0,1	0,180671
1,962500	0,1	0,196759
1,964167	0,1	0,137890
1,965833	0,1	0,164485
1,967500	0,1	0,159039
1,969167	0,1	0,209327
1,970833	0,1	0,154804
1,972500	0,1	0,144367
1,974167	0,1	0,132180
1,975833	0,1	0,175252
1,977500	0,1	0,108371
1,979167	0,1	0,141522
1,980833	0,1	0,144062
1,982500	0,1	0,181472
1,984167	0,1	0,180670
1,985833	0,1	0,146045
1,987500	0,1	0,149039
1,989167	0,1	0,152989
1,990833	0,1	0,161226
1,992500	0,1	0,146979
1,994167	0,1	0,156635
1,995833	0,1	0,147885
1,997500	0,1	0,152257
1,999167	0,1	0,186799
2,000833	0,1	0,141453
2,002500	0,1	0,170744
2,004167	0,1	0,186160
2,005833	0,1	0,176335
2,007500	0,1	0,165652
2,009167	0,1	0,129225
2,010833	0,1	0,171774
2,012500	0,1	0,156720
2,014167	0,1	0,144752
2,015833	0,1	0,172122
2,017500	0,1	0,165693
2,019167	0,1	0,147929
2,020833	0,1	0,141616
2,022500	0,1	0,173022
2,024167	0,1	0,162349
2,025833	0,1	0,180967
2,027500	0,1	0,157973
2,029167	0,1	0,164956
2,030833	0,1	0,170366
2,032500	0,1	0,159130
2,034167	0,1	0,161357
2,035833	0,1	0,176931
2,037500	0,1	0,162132
2,039167	0,1	0,167232
2,040833	0,1	0,158096
2,042500	0,1	0,215806
2,044167	0,1	0,195266
2,045833	0,1	0,144588
2,047500	0,1	0,187613
2,049167	0,1	0,186249
2,050833	0,1	0,135792
2,052500	0,1	0,186706
2,054167	0,1	0,145572
2,055833	0,1	0,155046
2,057500	0,1	0,170753
2,059167	0,1	0,130815
2,060833	0,1	0,153755
2,062500	0,1	0,179763
2,064167	0,1	0,201738
2,065833	0,1	0,157851
2,067500	0,1	0,201988
2,069167	0,1	0,149826
2,070833	0,1	0,201389
2,072500	0,1	0,182695
2,074167	0,1	0,187877
2,075833	0,1	0,159050
2,077500	0,1	0,158267
2,079167	0,1	0,165650
2,080833	0,1	0,191696
2,082500	0,1	0,186896
2,084167	0,1	0,189643
2,085833	0,1	0,145361
2,087500	0,1	0,173410
2,089167	0,1	0,196974
2,090833	0,1	0,171881
2,092500	0,1	0,182214
2,094167	0,1	0,187664
2,095833	0,1	0,194144
2,097500	0,1	0,185395
2,099167	0,1	0,219159
2,100833	0,1	0,195099
2,102500	0,1	0,180970
2,104167	0,1	0,195088
2,105833	0,1	0,166901
2,107500	0,1	0,169641
2,109167	0,1	0,191139
2,110833	0,1	0,200840
2,112500	0,1	0,148581
2,114167	0,1	0,190959
2,115833	0,1	0,158105
2,117500	0,1	0,177361
2,119167	0,1	0,151878
2,120833	0,1	0,177662
2,122500	0,1	0,212806
2,124167	0,1	0,152188
2,125833	0,1	0,193751
2,127500	0,1	0,172608
2,129167	0,1	0,228380
2,130833	0,1	0,207759
2,132500	0,1	0,175059
2,134167	0,1	0,167498
2,135833	0,1	0,169768
2,137500	0,1	0,170370
2,139167	0,1	0,160115
2,140833	0,1	0,208684
2,142500	0,1	0,132154
2,144167	0,1	0,160019
2,145833	0,1	0,162433
2,147500	0,1	0,195253
2,149167	0,1	0,179598
2,150833	0,1	0,190712
2,152500	0,1	0,151585
2,154167	0,1	0,202891
2,155833	0,1	0,182865
2,157500	0,1	0,189037
2,159167	0,1	0,199251
2,160833	0,1	0,214572
2,162500	0,1	0,179518
2,164167	0,1	0,188993
2,165833	0,1	0,173981
2,167500	0,1	0,218299
2,169167	0,1	0,177977
2,170833	0,1	0,221347
2,172500	0,1	0,203938
2,174167	0,1	0,169184
2,175833	0,1	0,199335
2,177500	0,1	0,162270
2,179167	0,1	0,186372
2,180833	0,1	0,184622
2,182500	0,1	0,207876
2,184167	0,1	0,168406
2,185833	0,1	0,185473
2,187500	0,1	0,153641
2,189167	0,1	0,137077
2,190833	0,1	0,202199
2,192500	0,1	0,196856
2,194167	0,1	0,180758
2,195833	0,1	0,202811
2,197500	0,1	0,177627
2,199167	0,1	0,145491
2,200833	0,1	0,196925
2,202500	0,1	0,167031
2,204167	0,1	0,163121
2,205833	0,1	0,172384
2,207500	0,1	0,182815
2,209167	0,1	0,203669
2,210833	0,1	0,182611
2,212500	0,1	0,166432
2,214167	0,1	0,190324
2,215833	0,1	0,198053
2,217500	0,1	0,214657
2,219167	0,1	0,198704
2,220833	0,1	0,207280
2,222500	0,1	0,194707
2,224167	0,1	0,164242
2,225833	0,1	0,190621
2,227500	0,1	0,164156
2,229167	0,1	0,182255
2,230833	0,1	0,187495
2,232500	0,1	0,192090
2,234167	0,1	0,179046
2,235833	0,1	0,222163
2,237500	0,1	0,183004
2,239167	0,1	0,206290
2,240833	0,1	0,206941
2,242500	0,1	0,202989
2,244167	0,1	0,200284
2,245833	0,1	0,175398
2,247500	0,1	0,171875
2,249167	0,1	0,195863
2,250833	0,1	0,178917
2,252500	0,1	0,163809
2,254167	0,1	0,185644
2,255833	0,1	0,192170
2,257500	0,1	0,192176
2,259167	0,1	0,177716
2,260833	0,1	0,205471
2,262500	0,1	0,176517
2,264167	0,1	0,204747
2,265833	0,1	0,161459
2,267500	0,1	0,188819
2,269167	0,1	0,166259
2,270833	0,1	0,191569
2,272500	0,1	0,165274
2,274167	0,1	0,164066
2,275833	0,1	0,165609
2,277500	0,1	0,180798
2,279167	0,1	0,206933
2,280833	0,1	0,178533
2,282500	0,1	0,157806
2,284167	0,1	0,180883
2,285833	0,1	0,212982
2,287500	0,1	0,181278
2,289167	0,1	0,186552
2,290833	0,1	0,207062
2,292500	0,1	0,216636
2,294167	0,1	0,173045
2,295833	0,1	0,163128
2,297500	0,1	0,205510
2,299167	0,1	0,181065
2,300833	0,1	0,243147
2,302500	0,1	0,170605
2,304167	0,1	0,175738
2,305833	0,1	0,202943
2,307500	0,1	0,199732
2,309167	0,1	0,186726
2,310833	0,1	0,182262
2,312500	0,1	0,168747
2,314167	0,1	0,158148
2,315833	0,1	0,178526
2,317500	0,1	0,165872
2,319167	0,1	0,187234
2,320833	0,1	0,187840
2,322500	0,1	0,175827
2,324167	0,1	0,180292
2,325833	0,1	0,178786
2,327500	0,1	0,185525
2,329167	0,1	0,215344
2,330833	0,1	0,181498
2,332500	0,1	0,190972
2,334167	0,1	0,206677
2,335833	0,1	0,188660
2,337500	0,1	0,160035
2,339167	0,1	0,160503
2,340833	0,1	0,185085
2,342500	0,1	0,176814
2,344167	0,1	0,185051
2,345833	0,1	0,209292
2,347500	0,1	0,166264
2,349167	0,1	0,189379
2,350833	0,1	0,146696
2,352500	0,1	0,179205
2,354167	0,1	0,205087
2,355833	0,1	0,171416
2,357500	0,1	0,226798
2,359167	0,1	0,171077
2,360833	0,1	0,164152
2,362500	0,1	0,214308
2,364167	0,1	0,189348
2,365833	0,1	0,172610
2,367500	0,1	0,231001
2,369167	0,1	0,202611
2,370833	0,1	0,224572
2,372500	0,1	0,178453
2,374167	0,1	0,214099
2,375833	0,1	0,187076
2,377500	0,1	0,196463
2,379167	0,1	0,226459
2,380833	0,1	0,209089
2,382500	0,1	0,183857
2,384167	0,1	0,193079
2,385833	0,1	0,226245
2,387500	0,1	0,202739
2,389167	0,1	0,171842
2,390833	0,1	0,238468
2,392500	0,1	0,187770
2,394167	0,1	0,177077
2,395833	0,1	0,209764
2,397500	0,1	0,193255
2,399167	0,1	0,177547
2,400833	0,1	0,204316
2,402500	0,1	0,194501
2,404167	0,1	0,187589
2,405833	0,1	0,155793
2,407500	0,1	0,215381
2,409167	0,1	0,163479
2,410833	0,1	0,237094
2,412500	0,1	0,220203
2,414167	0,1	0,220288
2,415833	0,1	0,230628
2,417500	0,1	0,187252
2,419167	0,1	0,230147
2,420833	0,1	0,163568
2,422500	0,1	0,186295
2,424167	0,1	0,232850
2,425833	0,1	0,206132
2,427500	0,1	0,217067
2,429167	0,1	0,211231
2,430833	0,1	0,196002
2,432500	0,1	0,199858
2,434167	0,1	0,202817
2,435833	0,1	0,221913
2,437500	0,1	0,195658
2,439167	0,1	0,176006
2,440833	0,1	0,185909
2,442500	0,1	0,202606
2,444167	0,1	0,218695
2,445833	0,1	0,202737
2,447500	0,1	0,201361
2,449167	0,1	0,213459
2,450833	0,1	0,192396
2,452500	0,1	0,220325
2,454167	0,1	0,191242
2,455833	0,1	0,243881
2,457500	0,1	0,177602
2,459167	0,1	0,198870
2,460833	0,1	0,178362
2,462500	0,1	0,201960
2,464167	0,1	0,175576
2,465833	0,1	0,145968
2,467500	0,1	0,217139
2,469167	0,1	0,183816
2,470833	0,1	0,224870
2,472500	0,1	0,204886
2,474167	0,1	0,194968
2,475833	0,1	0,215863
2,477500	0,1	0,217585
2,479167	0,1	0,170728
2,480833	0,1	0,201952
2,482500	0,1	0,223672
2,484167	0,1	0,195404
2,485833	0,1	0,199299
2,487500	0,1	0,253922
2,489167	0,1	0,180907
2,490833	0,1	0,210626
2,492500	0,1	0,193468
2,494167	0,1	0,249803
2,495833	0,1	0,221669
2,497500	0,1	0,214969
2,499167	0,1	0,197246
2,500833	0,1	0,194025
2,502500	0,1	0,164423
2,504167	0,1	0,194192
2,505833	0,1	0,212734
2,507500	0,1	0,187848
2,509167	0,1	0,199558
2,510833	0,1	0,217152
2,512500	0,1	0,209087
2,514167	0,1	0,222775
2,515833	0,1	0,206472
2,517500	0,1	0,212563
2,519167	0,1	0,216681
2,520833	0,1	0,202911
2,522500	0,1	0,167211
2,524167	0,1	0,187498
2,525833	0,1	0,217877
2,527500	0,1	0,194073
2,529167	0,1	0,212904
2,530833	0,1	0,253370
2,532500	0,1	0,202144
2,534167	0,1	0,214965
2,535833	0,1	0,170685
2,537500	0,1	0,216586
2,539167	0,1	0,212479
2,540833	0,1	0,226381
2,542500	0,1	0,232348
2,544167	0,1	0,206521
2,545833	0,1	0,160265
2,547500	0,1	0,199037
2,549167	0,1	0,221528
2,550833	0,1	0,181161
2,552500	0,1	0,226328
2,554167	0,1	0,196649
2,555833	0,1	0,222257
2,557500	0,1	0,192058
2,559167	0,1	0,205608
2,560833	0,1	0,243455
2,562500	0,1	0,197169
2,564167	0,1	0,209210
2,565833	0,1	0,205829
2,567500	0,1	0,189011
2,569167	0,1	0,211357
2,570833	0,1	0,175795
2,572500	0,1	0,224140
2,574167	0,1	0,186437
2,575833	0,1	0,203463
2,577500	0,1	0,213722
2,579167	0,1	0,241569
2,580833	0,1	0,227715
2,582500	0,1	0,234023
2,584167	0,1	0,196352
2,585833	0,1	0,226893
2,587500	0,1	0,193132
2,589167	0,1	0,198230
2,590833	0,1	0,225863
2,592500	0,1	0,209992
2,594167	0,1	0,227409
2,595833	0,1	0,231833
2,597500	0,1	0,233850
2,599167	0,1	0,209781
2,600833	0,1	0,205612
2,602500	0,1	0,219600
2,604167	0,1	0,204799
2,605833	0,1	0,220929
2,607500	0,1	0,183862
2,609167	0,1	0,216290
2,610833	0,1	0,237793
2,612500	0,1	0,199874
2,614167	0,1	0,218310
2,615833	0,1	0,214023
2,617500	0,1	0,182276
2,619167	0,1	0,202819
2,620833	0,1	0,197803
2,622500	0,1	0,232383
2,624167	0,1	0,194076
2,625833	0,1	0,230754
2,627500	0,1	0,172540
2,629167	0,1	0,231219
2,630833	0,1	0,222180
2,632500	0,1	0,236681
2,634167	0,1	0,241489
2,635833	0,1	0,248701
2,637500	0,1	0,184859
2,639167	0,1	0,212088
2,640833	0,1	0,246375
2,642500	0,1	0,223513
2,644167	0,1	0,230932
2,645833	0,1	0,236253
2,647500	0,1	0,232308
2,649167	0,1	0,226127
2,650833	0,1	0,209994
2,652500	0,1	0,221663
2,654167	0,1	0,190814
2,655833	0,1	0,233840
2,657500	0,1	0,193348
2,659167	0,1	0,224489
2,660833	0,1	0,210768
2,662500	0,1	0,259635
2,664167	0,1	0,242184
2,665833	0,1	0,192796
2,667500	0,1	0,245084
2,669167	0,1	0,207598
2,670833	0,1	0,222387
2,672500	0,1	0,220162
2,674167	0,1	0,221964
2,675833	0,1	0,244447
2,677500	0,1	0,206396
2,679167	0,1	0,254485
2,680833	0,1	0,255225
2,682500	0,1	0,203310
2,684167	0,1	0,240023
2,685833	0,1	0,235569
2,687500	0,1	0,226601
2,689167	0,1	0,177732
2,690833	0,1	0,245510
2,692500	0,1	0,272085
2,694167	0,1	0,247207
2,695833	0,1	0,220040
2,697500	0,1	0,216816
2,699167	0,1	0,225054
2,700833	0,1	0,239213
2,702500	0,1	0,215319
2,704167	0,1	0,234835
2,705833	0,1	0,200001
2,707500	0,1	0,231055
2,709167	0,1	0,236555
2,710833	0,1	0,229218
2,712500	0,1	0,210168
2,714167	0,1	0,231704
2,715833	0,1	0,237800
2,717500	0,1	0,207507
2,719167	0,1	0,195357
2,720833	0,1	0,233329
2,722500	0,1	0,223898
2,724167	0,1	0,209311
2,725833	0,1	0,236895
2,727500	0,1	0,231493
2,729167	0,1	0,196527
2,730833	0,1	0,227623
2,732500	0,1	0,219993
2,734167	0,1	0,218358
2,735833	0,1	0,248994
2,737500	0,1	0,227375
2,739167	0,1	0,230549
2,740833	0,1	0,175631
2,742500	0,1	0,231351
2,744167	0,1	0,228317
2,745833	0,1	0,219093
2,747500	0,1	0,216603
2,749167	0,1	0,236335
2,750833	0,1	0,251487
2,752500	0,1	0,210131
2,754167	0,1	0,253797
2,755833	0,1	0,246172
2,757500	0,1	0,221715
2,759167	0,1	0,234153
2,760833	0,1	0,213818
2,762500	0,1	0,222392
2,764167	0,1	0,219134
2,765833	0,1	0,251011
2,767500	0,1	0,264064
2,769167	0,1	0,219958
2,770833	0,1	0,189616
2,772500	0,1	0,237445
2,774167	0,1	0,243938
2,775833	0,1	0,274232
2,777500	0,1	0,242699
2,779167	0,1	0,211375
2,780833	0,1	0,225610
2,782500	0,1	0,199100
2,784167	0,1	0,218827
2,785833	0,1	0,230416
2,787500	0,1	0,229821
2,789167	0,1	0,209393
2,790833	0,1	0,241913
2,792500	0,1	0,251574
2,794167	0,1	0,214419
2,795833	0,1	0,260752
2,797500	0,1	0,220517
2,799167	0,1	0,218661
2,800833	0,1	0,216086
2,802500	0,1	0,237153
2,804167	0,1	0,222957
2,805833	0,1	0,233638
2,807500	0,1	0,232311
2,809167	0,1	0,184859
2,810833	0,1	0,214792
2,812500	0,1	0,196780
2,814167	0,1	0,256670
2,815833	0,1	0,240982
2,817500	0,1	0,220512
2,819167	0,1	0,231579
2,820833	0,1	0,234024
2,822500	0,1	0,223127
2,824167	0,1	0,228059
2,825833	0,1	0,232224
2,827500	0,1	0,233853
2,829167	0,1	0,284612
2,830833	0,1	0,224469
2,832500	0,1	0,246638
2,834167	0,1	0,184219
2,835833	0,1	0,256068
2,837500	0,1	0,256256
2,839167	0,1	0,249949
2,840833	0,1	0,219098
2,842500	0,1	0,223166
2,844167	0,1	0,219391
2,845833	0,1	0,225570
2,847500	0,1	0,230033
2,849167	0,1	0,218063
2,850833	0,1	0,214284
2,852500	0,1	0,236036
2,854167	0,1	0,213260
2,855833	0,1	0,261179
2,857500	0,1	0,241968
2,859167	0,1	0,216390
2,860833	0,1	0,231791
2,862500	0,1	0,249644
2,864167	0,1	0,262218
2,865833	0,1	0,242014
2,867500	0,1	0,253892
2,869167	0,1	0,200479
2,870833	0,1	0,204285
2,872500	0,1	0,216514
2,874167	0,1	0,242860
2,875833	0,1	0,225703
2,877500	0,1	0,249557
2,879167	0,1	0,243685
2,880833	0,1	0,242266
2,882500	0,1	0,245440
2,884167	0,1	0,263806
2,885833	0,1	0,251881
2,887500	0,1	0,187264
2,889167	0,1	0,241950
2,890833	0,1	0,256296
2,892500	0,1	0,232401
2,894167	0,1	0,243123
2,895833	0,1	0,258999
2,897500	0,1	0,253725
2,899167	0,1	0,216180
2,900833	0,1	0,235009
2,902500	0,1	0,220983
2,904167	0,1	0,209911
2,905833	0,1	0,225610
2,907500	0,1	0,250027
2,909167	0,1	0,225620
2,910833	0,1	0,240117
2,912500	0,1	0,250847
2,914167	0,1	0,216827
2,915833	0,1	0,255045
2,917500	0,1	0,260032
2,919167	0,1	0,229743
2,920833	0,1	0,213345
2,922500	0,1	0,250368
2,924167	0,1	0,257200
2,925833	0,1	0,233216
2,927500	0,1	0,214676
2,929167	0,1	0,244705
2,930833	0,1	0,236602
2,932500	0,1	0,218111
2,934167	0,1	0,244834
2,935833	0,1	0,240850
2,937500	0,1	0,207342
2,939167	0,1	0,217540
2,940833	0,1	0,229350
2,942500	0,1	0,211674
2,944167	0,1	0,210808
2,945833	0,1	0,264527
2,947500	0,1	0,215330
2,949167	0,1	0,196094
2,950833	0,1	0,228825
2,952500	0,1	0,240289
2,954167	0,1	0,202705
2,955833	0,1	0,232688
2,957500	0,1	0,226774
2,959167	0,1	0,201207
2,960833	0,1	0,265855
2,962500	0,1	0,254587
2,964167	0,1	0,250464
2,965833	0,1	0,244628
2,967500	0,1	0,238493
2,969167	0,1	0,252305
2,970833	0,1	0,210388
2,972500	0,1	0,233805
2,974167	0,1	0,241751
2,975833	0,1	0,246428
2,977500	0,1	0,223731
2,979167	0,1	0,201589
2,980833	0,1	0,251183
2,982500	0,1	0,249219
2,984167	0,1	0,258917
2,985833	0,1	0,251066
2,987500	0,1	0,236820
2,989167	0,1	0,242523
2,990833	0,1	0,267968
2,992500	0,1	0,236479
2,994167	0,1	0,262517
2,995833	0,1	0,256517
2,997500	0,1	0,249607
2,999167	0,1	0,249434
3,000833	0,1	0,226868
3,002500	0,1	0,241362
3,004167	0,1	0,261444
3,005833	0,1	0,240254
3,007500	0,1	0,240593
3,009167	0,1	0,268782
3,010833	0,1	0,216874
3,012500	0,1	0,219479
3,014167	0,1	0,224542
3,015833	0,1	0,280405
3,017500	0,1	0,238630
3,019167	0,1	0,242392
3,020833	0,1	0,280795
3,022500	0,1	0,247081
3,024167	0,1	0,252096
3,025833	0,1	0,221030
3,027500	0,1	0,272981
3,029167	0,1	0,279516
3,030833	0,1	0,250558
3,032500	0,1	0,214040
3,034167	0,1	0,247194
3,035833	0,1	0,246646
3,037500	0,1	0,229826
3,039167	0,1	0,209016
3,040833	0,1	0,285036
3,042500	0,1	0,285569
3,044167	0,1	0,251801
3,045833	0,1	0,230858
3,047500	0,1	0,239218
3,049167	0,1	0,233770
3,050833	0,1	0,244109
3,052500	0,1	0,217729
3,054167	0,1	0,222181
3,055833	0,1	0,229990
3,057500	0,1	0,277619
3,059167	0,1	0,230434
3,060833	0,1	0,252517
3,062500	0,1	0,240124
3,064167	0,1	0,258528
3,065833	0,1	0,223223
3,067500	0,1	0,259768
3,069167	0,1	0,275095
3,070833	0,1	0,223226
3,072500	0,1	0,262043
3,074167	0,1	0,274708
3,075833	0,1	0,285867
3,077500	0,1	0,260384
3,079167	0,1	0,249394
3,080833	0,1	0,259988
3,082500	0,1	0,234077
3,084167	0,1	0,207469
3,085833	0,1	0,309666
3,087500	0,1	0,275234
3,089167	0,1	0,236954
3,090833	0,1	0,242178
3,092500	0,1	0,249561
3,094167	0,1	0,235191
3,095833	0,1	0,231366
3,097500	0,1	0,253249
3,099167	0,1	0,258744
3,100833	0,1	0,261363
3,102500	0,1	0,227898
3,104167	0,1	0,291047
3,105833	0,1	0,262273
3,107500	0,1	0,218505
3,109167	0,1	0,232993
3,110833	0,1	0,226519
3,112500	0,1	0,241877
3,114167	0,1	0,265736
3,115833	0,1	0,232621
3,117500	0,1	0,266465
3,119167	0,1	0,247935
3,120833	0,1	0,244972
3,122500	0,1	0,275649
3,124167	0,1	0,250469
3,125833	0,1	0,216700
3,127500	0,1	0,261227
3,129167	0,1	0,248236
3,130833	0,1	0,222104
3,132500	0,1	0,230680
3,134167	0,1	0,276331
3,135833	0,1	0,242362
3,137500	0,1	0,267023
3,139167	0,1	0,262438
3,140833	0,1	0,246006
3,142500	0,1	0,261274
3,144167	0,1	0,261238
3,145833	0,1	0,266771
3,147500	0,1	0,285049
3,149167	0,1	0,257809
3,150833	0,1	0,260505
3,152500	0,1	0,265268
3,154167	0,1	0,287967
3,155833	0,1	0,274586
3,157500	0,1	0,260766
3,159167	0,1	0,224083
3,160833	0,1	0,222229
3,162500	0,1	0,266804
3,164167	0,1	0,246523
3,165833	0,1	0,247717
3,167500	0,1	0,224895
3,169167	0,1	0,254062
3,170833	0,1	0,252141
3,172500	0,1	0,240212
3,174167	0,1	0,257927
3,175833	0,1	0,263466
3,177500	0,1	0,223266
3,179167	0,1	0,274270
3,180833	0,1	0,262784
3,182500	0,1	0,256602
3,184167	0,1	0,272949
3,185833	0,1	0,218121
3,187500	0,1	0,238188
3,189167	0,1	0,271442
3,190833	0,1	0,257077
3,192500	0,1	0,269515
3,194167	0,1	0,223399
3,195833	0,1	0,256336
3,197500	0,1	0,265568
3,199167	0,1	0,279515
3,200833	0,1	0,259482
3,202500	0,1	0,279084
3,204167	0,1	0,266089
3,205833	0,1	0,251842
3,207500	0,1	0,252354
3,209167	0,1	0,269258
3,210833	0,1	0,258364
3,212500	0,1	0,231975
3,214167	0,1	0,280879
3,215833	0,1	0,263171
3,217500	0,1	0,252741
3,219167	0,1	0,299593
3,220833	0,1	0,265021
3,222500	0,1	0,277026
3,224167	0,1	0,242063
3,225833	0,1	0,265137
3,227500	0,1	0,270075
3,229167	0,1	0,275355
3,230833	0,1	0,247080
3,232500	0,1	0,237808
3,234167	0,1	0,248187
3,235833	0,1	0,266468
3,237500	0,1	0,244977
3,239167	0,1	0,292297
3,240833	0,1	0,255838
3,242500	0,1	0,252227
3,244167	0,1	0,268785
3,245833	0,1	0,256003
3,247500	0,1	0,266385
3,249167	0,1	0,225112
3,250833	0,1	0,254577
3,252500	0,1	0,271103
3,254167	0,1	0,212414
3,255833	0,1	0,304904
3,257500	0,1	0,255499
3,259167	0,1	0,245017
3,260833	0,1	0,239652
3,262500	0,1	0,262261
3,264167	0,1	0,255617
3,265833	0,1	0,227687
3,267500	0,1	0,243939
3,269167	0,1	0,259087
3,270833	0,1	0,267542
3,272500	0,1	0,288482
3,274167	0,1	0,257596
3,275833	0,1	0,286549
3,277500	0,1	0,262101
3,279167	0,1	0,217735
3,280833	0,1	0,255734
3,282500	0,1	0,229742
3,284167	0,1	0,261831
3,285833	0,1	0,290756
3,287500	0,1	0,240353
3,289167	0,1	0,286032
3,290833	0,1	0,271197
3,292500	0,1	0,261926
3,294167	0,1	0,261065
3,295833	0,1	0,235152
3,297500	0,1	0,261359
3,299167	0,1	0,247123
3,300833	0,1	0,261365
3,302500	0,1	0,263082
3,304167	0,1	0,268747
3,305833	0,1	0,293374
3,307500	0,1	0,260129
3,309167	0,1	0,240388
3,310833	0,1	0,307440
3,312500	0,1	0,262750
3,314167	0,1	0,274838
3,315833	0,1	0,265316
3,317500	0,1	0,278100
3,319167	0,1	0,243394
3,320833	0,1	0,241455
3,322500	0,1	0,243342
3,324167	0,1	0,242140
3,325833	0,1	0,253380
3,327500	0,1	0,271188
3,329167	0,1	0,266044
3,330833	0,1	0,242104
3,332500	0,1	0,248875
3,334167	0,1	0,295386
3,335833	0,1	0,247731
3,337500	0,1	0,292641
3,339167	0,1	0,233403
3,340833	0,1	0,254667
3,342500	0,1	0,251196
3,344167	0,1	0,292297
3,345833	0,1	0,265279
3,347500	0,1	0,259222
3,349167	0,1	0,281315
3,350833	0,1	0,268063
3,352500	0,1	0,263942
3,354167	0,1	0,277199
3,355833	0,1	0,250472
3,357500	0,1	0,299891
3,359167	0,1	0,281798
3,360833	0,1	0,236316
3,362500	0,1	0,225109
3,364167	0,1	0,278218
3,365833	0,1	0,246956
3,367500	0,1	0,260419
3,369167	0,1	0,248366
3,370833	0,1	0,252310
3,372500	0,1	0,255873
3,374167	0,1	0,294874
3,375833	0,1	0,279522
3,377500	0,1	0,268494
3,379167	0,1	0,295605
3,380833	0,1	0,236319
3,382500	0,1	0,282212
3,384167	0,1	0,272268
3,385833	0,1	0,266388
3,387500	0,1	0,282349
3,389167	0,1	0,295308
3,390833	0,1	0,260044
3,392500	0,1	0,259349
3,394167	0,1	0,265955
3,395833	0,1	0,255276
3,397500	0,1	0,293458
3,399167	0,1	0,265536
3,400833	0,1	0,285866
3,402500	0,1	0,256909
3,404167	0,1	0,287493
3,405833	0,1	0,268408
3,407500	0,1	0,257079
3,409167	0,1	0,263081
3,410833	0,1	0,280545
3,412500	0,1	0,261714
3,414167	0,1	0,303885
3,415833	0,1	0,246062
3,417500	0,1	0,245917
3,419167	0,1	0,251495
3,420833	0,1	0,235408
3,422500	0,1	0,302977
3,424167	0,1	0,259274
3,425833	0,1	0,276338
3,427500	0,1	0,284582
3,429167	0,1	0,293549
3,430833	0,1	0,211737
3,432500	0,1	0,288428
3,434167	0,1	0,287502
3,435833	0,1	0,302432
3,437500	0,1	0,260048
3,439167	0,1	0,282046
3,440833	0,1	0,232501
3,442500	0,1	0,273803
3,444167	0,1	0,270079
3,445833	0,1	0,286424
3,447500	0,1	0,258498
3,449167	0,1	0,294617
3,450833	0,1	0,270813
3,452500	0,1	0,250043
3,454167	0,1	0,275736
3,455833	0,1	0,335253
3,457500	0,1	0,297553
3,459167	0,1	0,277121
3,460833	0,1	0,303074
3,462500	0,1	0,290722
3,464167	0,1	0,283769
3,465833	0,1	0,280464
3,467500	0,1	0,259827
3,469167	0,1	0,247552
3,470833	0,1	0,315079
3,472500	0,1	0,268415
3,474167	0,1	0,254718
3,475833	0,1	0,273206
3,477500	0,1	0,296722
3,479167	0,1	0,254340
3,480833	0,1	0,276939
3,482500	0,1	0,299212
3,484167	0,1	0,275192
3,485833	0,1	0,282950
3,487500	0,1	0,333322
3,489167	0,1	0,271637
3,490833	0,1	0,257723
3,492500	0,1	0,318386
3,494167	0,1	0,251342
3,495833	0,1	0,271146
3,497500	0,1	0,297452
3,499167	0,1	0,271972
3,500833	0,1	0,259138
3,502500	0,1	0,319587
3,504167	0,1	0,313123
3,505833	0,1	0,246192
3,507500	0,1	0,276336
3,509167	0,1	0,242322
3,510833	0,1	0,268098
3,512500	0,1	0,255877
3,514167	0,1	0,283546
3,515833	0,1	0,261200
3,517500	0,1	0,287109
3,519167	0,1	0,270169
3,520833	0,1	0,237387
3,522500	0,1	0,338548
3,524167	0,1	0,287256
3,525833	0,1	0,275060
3,527500	0,1	0,272054
3,529167	0,1	0,299810
3,530833	0,1	0,343968
3,532500	0,1	0,289016
3,534167	0,1	0,287887
3,535833	0,1	0,264634
3,537500	0,1	0,278400
3,539167	0,1	0,321566
3,540833	0,1	0,281075
3,542500	0,1	0,288273
3,544167	0,1	0,290547
3,545833	0,1	0,327706
3,547500	0,1	0,279016
3,549167	0,1	0,290932
3,550833	0,1	0,310498
3,552500	0,1	0,287207
3,554167	0,1	0,261032
3,555833	0,1	0,325808
3,557500	0,1	0,292145
3,559167	0,1	0,263906
3,560833	0,1	0,275053
3,562500	0,1	0,296123
3,564167	0,1	0,306682
3,565833	0,1	0,282357
3,567500	0,1	0,295093
3,569167	0,1	0,291837
3,570833	0,1	0,296127
3,572500	0,1	0,320668
3,574167	0,1	0,254862
3,575833	0,1	0,292557
3,577500	0,1	0,291922
3,579167	0,1	0,289648
3,580833	0,1	0,333024
3,582500	0,1	0,309566
3,584167	0,1	0,295230
3,585833	0,1	0,250735
3,587500	0,1	0,279641
3,589167	0,1	0,310453
3,590833	0,1	0,237485
3,592500	0,1	0,289934
3,594167	0,1	0,291578
3,595833	0,1	0,292694
3,597500	0,1	0,264935
3,599167	0,1	0,314225
3,600833	0,1	0,277811
3,602500	0,1	0,257081
3,604167	0,1	0,276939
3,605833	0,1	0,294579
3,607500	0,1	0,311744
3,609167	0,1	0,293557
3,610833	0,1	0,315904
3,612500	0,1	0,305913
3,614167	0,1	0,298833
3,615833	0,1	0,302048
3,617500	0,1	0,306640
3,619167	0,1	0,281758
3,620833	0,1	0,291833
3,622500	0,1	0,312087
3,624167	0,1	0,294587
3,625833	0,1	0,291578
3,627500	0,1	0,278149
3,629167	0,1	0,297280
3,630833	0,1	0,261032
3,632500	0,1	0,291786
3,634167	0,1	0,300459
3,635833	0,1	0,288621
3,637500	0,1	0,291879
3,639167	0,1	0,321397
3,640833	0,1	0,318872
3,642500	0,1	0,303513
3,644167	0,1	0,266096
3,645833	0,1	0,286981
3,647500	0,1	0,307323
3,649167	0,1	0,292183
3,650833	0,1	0,300589
3,652500	0,1	0,289565
3,654167	0,1	0,324399
3,655833	0,1	0,268806
3,657500	0,1	0,282863
3,659167	0,1	0,313072
3,660833	0,1	0,326338
3,662500	0,1	0,331531
3,664167	0,1	0,282193
3,665833	0,1	0,295567
3,667500	0,1	0,311959
3,669167	0,1	0,319041
3,670833	0,1	0,332560
3,672500	0,1	0,294719
3,674167	0,1	0,298530
3,675833	0,1	0,307498
3,677500	0,1	0,293598
3,679167	0,1	0,309126
3,680833	0,1	0,283517
3,682500	0,1	0,285484
3,684167	0,1	0,307967
3,685833	0,1	0,254688
3,687500	0,1	0,291569
3,689167	0,1	0,268368
3,690833	0,1	0,304831
3,692500	0,1	0,262580
3,694167	0,1	0,304272
3,695833	0,1	0,299303
3,697500	0,1	0,335256
3,699167	0,1	0,283351
3,700833	0,1	0,270425
3,702500	0,1	0,342631
3,704167	0,1	0,274987
3,705833	0,1	0,286254
3,707500	0,1	0,318048
3,709167	0,1	0,299651
3,710833	0,1	0,325947
3,712500	0,1	0,302955
3,714167	0,1	0,286818
3,715833	0,1	0,317018
3,717500	0,1	0,258206
3,719167	0,1	0,338335
3,720833	0,1	0,318104
3,722500	0,1	0,326724
3,724167	0,1	0,313597
3,725833	0,1	0,315395
3,727500	0,1	0,340711
3,729167	0,1	0,300642
3,730833	0,1	0,304365
3,732500	0,1	0,341651
3,734167	0,1	0,296997
3,735833	0,1	0,321097
3,737500	0,1	0,323335
3,739167	0,1	0,303255
3,740833	0,1	0,308699
3,742500	0,1	0,326679
3,744167	0,1	0,292916
3,745833	0,1	0,290548
3,747500	0,1	0,299558
3,749167	0,1	0,305952
3,750833	0,1	0,330497
3,752500	0,1	0,268249
3,754167	0,1	0,267375
3,755833	0,1	0,343702
3,757500	0,1	0,310038
3,759167	0,1	0,306169
3,760833	0,1	0,316165
3,762500	0,1	0,315738
3,764167	0,1	0,306170
3,765833	0,1	0,270430
3,767500	0,1	0,280119
3,769167	0,1	0,303716
3,770833	0,1	0,315178
3,772500	0,1	0,306943
3,774167	0,1	0,327406
3,775833	0,1	0,272580
3,777500	0,1	0,333664
3,779167	0,1	0,296523
3,780833	0,1	0,306895
3,782500	0,1	0,311018
3,784167	0,1	0,307629
3,785833	0,1	0,342895
3,787500	0,1	0,304246
3,789167	0,1	0,318912
3,790833	0,1	0,289224
3,792500	0,1	0,315174
3,794167	0,1	0,314366
3,795833	0,1	0,295530
3,797500	0,1	0,328004
3,799167	0,1	0,328569
3,800833	0,1	0,325351
3,802500	0,1	0,342899
3,804167	0,1	0,326300
3,805833	0,1	0,347707
3,807500	0,1	0,330461
3,809167	0,1	0,339168
3,810833	0,1	0,344104
3,812500	0,1	0,335523
3,814167	0,1	0,319948
3,815833	0,1	0,312521
3,817500	0,1	0,342767
3,819167	0,1	0,299827
3,820833	0,1	0,335041
3,822500	0,1	0,338911
3,824167	0,1	0,331232
3,825833	0,1	0,330931
3,827500	0,1	0,335436
3,829167	0,1	0,328013
3,830833	0,1	0,325181
3,832500	0,1	0,300854
3,834167	0,1	0,321311
3,835833	0,1	0,317069
3,837500	0,1	0,332083
3,839167	0,1	0,330630
3,840833	0,1	0,355471
3,842500	0,1	0,318494
3,844167	0,1	0,343070
3,845833	0,1	0,329860
3,847500	0,1	0,333117
3,849167	0,1	0,312567
3,850833	0,1	0,305011
3,852500	0,1	0,318783
3,854167	0,1	0,330713
3,855833	0,1	0,329213
3,857500	0,1	0,366326
3,859167	0,1	0,325018
3,860833	0,1	0,311365
3,862500	0,1	0,307114
3,864167	0,1	0,292783
3,865833	0,1	0,324357
3,867500	0,1	0,326123
3,869167	0,1	0,335992
3,870833	0,1	0,297381
3,872500	0,1	0,300546
3,874167	0,1	0,305652
3,875833	0,1	0,336074
3,877500	0,1	0,312140
3,879167	0,1	0,323204
3,880833	0,1	0,347789
3,882500	0,1	0,307724
3,884167	0,1	0,345124
3,885833	0,1	0,281637
3,887500	0,1	0,316675
3,889167	0,1	0,330152
3,890833	0,1	0,326983
3,892500	0,1	0,331057
3,894167	0,1	0,342171
3,895833	0,1	0,338913
3,897500	0,1	0,300942
3,899167	0,1	0,332596
3,900833	0,1	0,332345
3,902500	0,1	0,349207
3,904167	0,1	0,338141
3,905833	0,1	0,321964
3,907500	0,1	0,371516
3,909167	0,1	0,319828
3,910833	0,1	0,346631
3,912500	0,1	0,368775
3,914167	0,1	0,331754
3,915833	0,1	0,317587
3,917500	0,1	0,347274
3,919167	0,1	0,335782
3,920833	0,1	0,379930
3,922500	0,1	0,348446
3,924167	0,1	0,328318
3,925833	0,1	0,327882
3,927500	0,1	0,328569
3,929167	0,1	0,334919
3,930833	0,1	0,333205
3,932500	0,1	0,322221
3,934167	0,1	0,318400
3,935833	0,1	0,352767
3,937500	0,1	0,318278
3,939167	0,1	0,382802
3,940833	0,1	0,300866
3,942500	0,1	0,323072
3,944167	0,1	0,366708
3,945833	0,1	0,358611
3,947500	0,1	0,343764
3,949167	0,1	0,297296
3,950833	0,1	0,333664
3,952500	0,1	0,310079
3,954167	0,1	0,367608
3,955833	0,1	0,335701
3,957500	0,1	0,326255
3,959167	0,1	0,336461
3,960833	0,1	0,360664
3,962500	0,1	0,295112
3,964167	0,1	0,355121
3,965833	0,1	0,315489
3,967500	0,1	0,335303
3,969167	0,1	0,320676
3,970833	0,1	0,334960
3,972500	0,1	0,315699
3,974167	0,1	0,320930
3,975833	0,1	0,333546
3,977500	0,1	0,360962
3,979167	0,1	0,340848
3,980833	0,1	0,358647
3,982500	0,1	0,337115
3,984167	0,1	0,348778
3,985833	0,1	0,369120
3,987500	0,1	0,333084
3,989167	0,1	0,356884
3,990833	0,1	0,354276
3,992500	0,1	0,324456
3,994167	0,1	0,348562
3,995833	0,1	0,377699
3,997500	0,1	0,349945
3,999167	0,1	0,348910
4,000833	0,1	0,319006
4,002500	0,1	0,321401
4,004167	0,1	0,348774
4,005833	0,1	0,333895
4,007500	0,1	0,343287
4,009167	0,1	0,342387
4,010833	0,1	0,345906
4,012500	0,1	0,333377
4,014167	0,1	0,344530
4,015833	0,1	0,351141
4,017500	0,1	0,327414
4,019167	0,1	0,370445
4,020833	0,1	0,320342
4,022500	0,1	0,351348
4,024167	0,1	0,348181
4,025833	0,1	0,351311
4,027500	0,1	0,363026
4,029167	0,1	0,349643
4,030833	0,1	0,356547
4,032500	0,1	0,330722
4,034167	0,1	0,320632
4,035833	0,1	0,342726
4,037500	0,1	0,331018
4,039167	0,1	0,328567
4,040833	0,1	0,330328
4,042500	0,1	0,340582
4,044167	0,1	0,361607
4,045833	0,1	0,364574
4,047500	0,1	0,347626
4,049167	0,1	0,350240
4,050833	0,1	0,314887
4,052500	0,1	0,350617
4,054167	0,1	0,348651
4,055833	0,1	0,354446
4,057500	0,1	0,311156
4,059167	0,1	0,333541
4,060833	0,1	0,328697
4,062500	0,1	0,333804
4,064167	0,1	0,350237
4,065833	0,1	0,338613
4,067500	0,1	0,372720
4,069167	0,1	0,336472
4,070833	0,1	0,374348
4,072500	0,1	0,364060
4,074167	0,1	0,346080
4,075833	0,1	0,315401
4,077500	0,1	0,325047
4,079167	0,1	0,348217
4,080833	0,1	0,332091
4,082500	0,1	0,313984
4,084167	0,1	0,374646
4,085833	0,1	0,338920
4,087500	0,1	0,352639
4,089167	0,1	0,326599
4,090833	0,1	0,353021
4,092500	0,1	0,317420
4,094167	0,1	0,350275
4,095833	0,1	0,338053
4,097500	0,1	0,322392
4,099167	0,1	0,345556
4,100833	0,1	0,324198
4,102500	0,1	0,338477
4,104167	0,1	0,367614
4,105833	0,1	0,326004
4,107500	0,1	0,329813
4,109167	0,1	0,348218
4,110833	0,1	0,311499
4,112500	0,1	0,370524
4,114167	0,1	0,349774
4,115833	0,1	0,349381
4,117500	0,1	0,343718
4,119167	0,1	0,342771
4,120833	0,1	0,327584
4,122500	0,1	0,290601
4,124167	0,1	0,334436
4,125833	0,1	0,354612
4,127500	0,1	0,353715
4,129167	0,1	0,329862
4,130833	0,1	0,334790
4,132500	0,1	0,356158
4,134167	0,1	0,394089
4,135833	0,1	0,372945
4,137500	0,1	0,348571
4,139167	0,1	0,330246
4,140833	0,1	0,339938
4,142500	0,1	0,333976
4,144167	0,1	0,361346
4,145833	0,1	0,341190
4,147500	0,1	0,340412
4,149167	0,1	0,361564
4,150833	0,1	0,293697
4,152500	0,1	0,340699
4,154167	0,1	0,359032
4,155833	0,1	0,353676
4,157500	0,1	0,329860
4,159167	0,1	0,332601
4,160833	0,1	0,369285
4,162500	0,1	0,382678
4,164167	0,1	0,341451
4,165833	0,1	0,363537
4,167500	0,1	0,370665
4,169167	0,1	0,373328
4,170833	0,1	0,360155
4,172500	0,1	0,353590
4,174167	0,1	0,329133
4,175833	0,1	0,397819
4,177500	0,1	0,358144
4,179167	0,1	0,367188
4,180833	0,1	0,375730
4,182500	0,1	0,378133
4,184167	0,1	0,409498
4,185833	0,1	0,332232
4,187500	0,1	0,365168
4,189167	0,1	0,371525
4,190833	0,1	0,375298
4,192500	0,1	0,377234
4,194167	0,1	0,341064
4,195833	0,1	0,392841
4,197500	0,1	0,366124
4,199167	0,1	0,375729
4,200833	0,1	0,347629
4,202500	0,1	0,336854
4,204167	0,1	0,349550
4,205833	0,1	0,339555
4,207500	0,1	0,355429
4,209167	0,1	0,320980
4,210833	0,1	0,400088
4,212500	0,1	0,334634
4,214167	0,1	0,333590
4,215833	0,1	0,367397
4,217500	0,1	0,347883
4,219167	0,1	0,365211
4,220833	0,1	0,335485
4,222500	0,1	0,399876
4,224167	0,1	0,329914
4,225833	0,1	0,364520
4,227500	0,1	0,312231
4,229167	0,1	0,395667
4,230833	0,1	0,336693
4,232500	0,1	0,397090
4,234167	0,1	0,361020
4,235833	0,1	0,374656
4,237500	0,1	0,362431
4,239167	0,1	0,347669
4,240833	0,1	0,345731
4,242500	0,1	0,362078
4,244167	0,1	0,345738
4,245833	0,1	0,406573
4,247500	0,1	0,355615
4,249167	0,1	0,317248
4,250833	0,1	0,356754
4,252500	0,1	0,386922
4,254167	0,1	0,361017
4,255833	0,1	0,393916
4,257500	0,1	0,380155
4,259167	0,1	0,374743
4,260833	0,1	0,357368
4,262500	0,1	0,351611
4,264167	0,1	0,400912
4,265833	0,1	0,354114
4,267500	0,1	0,370792
4,269167	0,1	0,333426
4,270833	0,1	0,380739
4,272500	0,1	0,370069
4,274167	0,1	0,366334
4,275833	0,1	0,359682
4,277500	0,1	0,384046
4,279167	0,1	0,374358
4,280833	0,1	0,355606
4,282500	0,1	0,351442
4,284167	0,1	0,385764
4,285833	0,1	0,325449
4,287500	0,1	0,396699
4,289167	0,1	0,364579
4,290833	0,1	0,370964
4,292500	0,1	0,342350
4,294167	0,1	0,350411
4,295833	0,1	0,338785
4,297500	0,1	0,376105
4,299167	0,1	0,358139
4,300833	0,1	0,386923
4,302500	0,1	0,348401
4,304167	0,1	0,355945
4,305833	0,1	0,348951
4,307500	0,1	0,401080
4,309167	0,1	0,362221
4,310833	0,1	0,356291
4,312500	0,1	0,392459
4,314167	0,1	0,357715
4,315833	0,1	0,353327
4,317500	0,1	0,357403
4,319167	0,1	0,377225
4,320833	0,1	0,355093
4,322500	0,1	0,387267
4,324167	0,1	0,330684
4,325833	0,1	0,346374
4,327500	0,1	0,358131
4,329167	0,1	0,409876
4,330833	0,1	0,357075
4,332500	0,1	0,361779
4,334167	0,1	0,396706
4,335833	0,1	0,432587
4,337500	0,1	0,388271
4,339167	0,1	0,396584
4,340833	0,1	0,364021
4,342500	0,1	0,387438
4,344167	0,1	0,398515
4,345833	0,1	0,362264
4,347500	0,1	0,355003
4,349167	0,1	0,397863
4,350833	0,1	0,364237
4,352500	0,1	0,407134
4,354167	0,1	0,380542
4,355833	0,1	0,365392
4,357500	0,1	0,373793
4,359167	0,1	0,400182
4,360833	0,1	0,383672
4,362500	0,1	0,371310
4,364167	0,1	0,398212
4,365833	0,1	0,359474
4,367500	0,1	0,371693
4,369167	0,1	0,361354
4,370833	0,1	0,373623
4,372500	0,1	0,359339
4,374167	0,1	0,364225
4,375833	0,1	0,383234
4,377500	0,1	0,375858
4,379167	0,1	0,385985
4,380833	0,1	0,370710
4,382500	0,1	0,390311
4,384167	0,1	0,374572
4,385833	0,1	0,443993
4,387500	0,1	0,365662
4,389167	0,1	0,370536
4,390833	0,1	0,368309
4,392500	0,1	0,385725
4,394167	0,1	0,388561
4,395833	0,1	0,386718
4,397500	0,1	0,362174
4,399167	0,1	0,342520
4,400833	0,1	0,368855
4,402500	0,1	0,350285
4,404167	0,1	0,344962
4,405833	0,1	0,379240
4,407500	0,1	0,383320
4,409167	0,1	0,384829
4,410833	0,1	0,426231
4,412500	0,1	0,362396
4,414167	0,1	0,397648
4,415833	0,1	0,385428
4,417500	0,1	0,399799
4,419167	0,1	0,342268
4,420833	0,1	0,417897
4,422500	0,1	0,379084
4,424167	0,1	0,383194
4,425833	0,1	0,380190
4,427500	0,1	0,397306
4,429167	0,1	0,372341
4,430833	0,1	0,400052
4,432500	0,1	0,369901
4,434167	0,1	0,381948
4,435833	0,1	0,363158
4,437500	0,1	0,404345
4,439167	0,1	0,356599
4,440833	0,1	0,380270
4,442500	0,1	0,368565
4,444167	0,1	0,368476
4,445833	0,1	0,374437
4,447500	0,1	0,397266
4,449167	0,1	0,382858
4,450833	0,1	0,383109
4,452500	0,1	0,402547
4,454167	0,1	0,371616
4,455833	0,1	0,371436
4,457500	0,1	0,386666
4,459167	0,1	0,396625
4,460833	0,1	0,410404
4,462500	0,1	0,430355
4,464167	0,1	0,368060
4,465833	0,1	0,378942
4,467500	0,1	0,367534
4,469167	0,1	0,398163
4,470833	0,1	0,383628
4,472500	0,1	0,426875
4,474167	0,1	0,373548
4,475833	0,1	0,415455
4,477500	0,1	0,393886
4,479167	0,1	0,388303
4,480833	0,1	0,371569
4,482500	0,1	0,398249
4,484167	0,1	0,401989
4,485833	0,1	0,406283
4,487500	0,1	0,385002
4,489167	0,1	0,371997
4,490833	0,1	0,382118
4,492500	0,1	0,407351
4,494167	0,1	0,386976
4,495833	0,1	0,364404
4,497500	0,1	0,383187
4,499167	0,1	0,370794
4,500833	0,1	0,403918
4,502500	0,1	0,402157
4,504167	0,1	0,427992
4,505833	0,1	0,375825
4,507500	0,1	0,376412
4,509167	0,1	0,391690
4,510833	0,1	0,384313
4,512500	0,1	0,388295
4,514167	0,1	0,392933
4,515833	0,1	0,392160
4,517500	0,1	0,401987
4,519167	0,1	0,398560
4,520833	0,1	0,385897
4,522500	0,1	0,405587
4,524167	0,1	0,400404
4,525833	0,1	0,396758
4,527500	0,1	0,361016
4,529167	0,1	0,396619
4,530833	0,1	0,370583
4,532500	0,1	0,405670
4,534167	0,1	0,406662
4,535833	0,1	0,423314
4,537500	0,1	0,411950
4,539167	0,1	0,380541
4,540833	0,1	0,398680
4,542500	0,1	0,374055
4,544167	0,1	0,404685
4,545833	0,1	0,374917
4,547500	0,1	0,391085
4,549167	0,1	0,426616
4,550833	0,1	0,435934
4,552500	0,1	0,399038
4,554167	0,1	0,416920
4,555833	0,1	0,405382
4,557500	0,1	0,396625
4,559167	0,1	0,400014
4,560833	0,1	0,380922
4,562500	0,1	0,395375
4,564167	0,1	0,363931
4,565833	0,1	0,391167
4,567500	0,1	0,354708
4,569167	0,1	0,402967
4,570833	0,1	0,365780
4,572500	0,1	0,403738
4,574167	0,1	0,409885
4,575833	0,1	0,404776
4,577500	0,1	0,419925
4,579167	0,1	0,398689
4,580833	0,1	0,407179
4,582500	0,1	0,388562
4,584167	0,1	0,426658
4,585833	0,1	0,405898
4,587500	0,1	0,379210
4,589167	0,1	0,436948
4,590833	0,1	0,430227
4,592500	0,1	0,346823
4,594167	0,1	0,387902
4,595833	0,1	0,401811
4,597500	0,1	0,434976
4,599167	0,1	0,379986
4,600833	0,1	0,379973
4,602500	0,1	0,383578
4,604167	0,1	0,395376
4,605833	0,1	0,397567
4,607500	0,1	0,399327
4,609167	0,1	0,385126
4,610833	0,1	0,390832
4,612500	0,1	0,450769
4,614167	0,1	0,399767
4,615833	0,1	0,348401
4,617500	0,1	0,366968
4,619167	0,1	0,436389
4,620833	0,1	0,375269
4,622500	0,1	0,394000
4,624167	0,1	0,419061
4,625833	0,1	0,404269
4,627500	0,1	0,392807
4,629167	0,1	0,402846
4,630833	0,1	0,403834
4,632500	0,1	0,415930
4,634167	0,1	0,391564
4,635833	0,1	0,429277
4,637500	0,1	0,381829
4,639167	0,1	0,411506
4,640833	0,1	0,357542
4,642500	0,1	0,421589
4,644167	0,1	0,415336
4,645833	0,1	0,397054
4,647500	0,1	0,427603
4,649167	0,1	0,429280
4,650833	0,1	0,434647
4,652500	0,1	0,379212
4,654167	0,1	0,372638
4,655833	0,1	0,399920
4,657500	0,1	0,391518
4,659167	0,1	0,383408
4,660833	0,1	0,410523
4,662500	0,1	0,419836
4,664167	0,1	0,413829
4,665833	0,1	0,401947
4,667500	0,1	0,403060
4,669167	0,1	0,397353
4,670833	0,1	0,375256
4,672500	0,1	0,432912
4,674167	0,1	0,374024
4,675833	0,1	0,411246
4,677500	0,1	0,414690
4,679167	0,1	0,388989
4,680833	0,1	0,384993
4,682500	0,1	0,413777
4,684167	0,1	0,436397
4,685833	0,1	0,437481
4,687500	0,1	0,385135
4,689167	0,1	0,455055
4,690833	0,1	0,409552
4,692500	0,1	0,403877
4,694167	0,1	0,398256
4,695833	0,1	0,383923
4,697500	0,1	0,408848
4,699167	0,1	0,369941
4,700833	0,1	0,358133
4,702500	0,1	0,383270
4,704167	0,1	0,409706
4,705833	0,1	0,397610
4,707500	0,1	0,412713
4,709167	0,1	0,416749
4,710833	0,1	0,446307
4,712500	0,1	0,378485
4,714167	0,1	0,417770
4,715833	0,1	0,427900
4,717500	0,1	0,378053
4,719167	0,1	0,389279
4,720833	0,1	0,378816
4,722500	0,1	0,410131
4,724167	0,1	0,417987
4,725833	0,1	0,437041
4,727500	0,1	0,398735
4,729167	0,1	0,422364
4,730833	0,1	0,401219
4,732500	0,1	0,423522
4,734167	0,1	0,392079
4,735833	0,1	0,433435
4,737500	0,1	0,432152
4,739167	0,1	0,405381
4,740833	0,1	0,422323
4,742500	0,1	0,428844
4,744167	0,1	0,419667
4,745833	0,1	0,446009
4,747500	0,1	0,387709
4,749167	0,1	0,438194
4,750833	0,1	0,388135
4,752500	0,1	0,426180
4,754167	0,1	0,395297
4,755833	0,1	0,409022
4,757500	0,1	0,399885
4,759167	0,1	0,398169
4,760833	0,1	0,435448
4,762500	0,1	0,422411
4,764167	0,1	0,411125
4,765833	0,1	0,421162
4,767500	0,1	0,408076
4,769167	0,1	0,410652
4,770833	0,1	0,440432
4,772500	0,1	0,397578
4,774167	0,1	0,417172
4,775833	0,1	0,427042
4,777500	0,1	0,400786
4,779167	0,1	0,414598
4,780833	0,1	0,399541
4,782500	0,1	0,378604
4,784167	0,1	0,425404
4,785833	0,1	0,409024
4,787500	0,1	0,402842
4,789167	0,1	0,387612
4,790833	0,1	0,413563
4,792500	0,1	0,404948
4,794167	0,1	0,427854
4,795833	0,1	0,409025
4,797500	0,1	0,424124
4,799167	0,1	0,405762
4,800833	0,1	0,373500
4,802500	0,1	0,432700
4,804167	0,1	0,423529
4,805833	0,1	0,419065
4,807500	0,1	0,416656
4,809167	0,1	0,411811
4,810833	0,1	0,396068
4,812500	0,1	0,402755
4,814167	0,1	0,403870
4,815833	0,1	0,403528
4,817500	0,1	0,436394
4,819167	0,1	0,402034
4,820833	0,1	0,409320
4,822500	0,1	0,423266
4,824167	0,1	0,429833
4,825833	0,1	0,450091
4,827500	0,1	0,432761
4,829167	0,1	0,376805
4,830833	0,1	0,399099
4,832500	0,1	0,458484
4,834167	0,1	0,401054
4,835833	0,1	0,443899
4,837500	0,1	0,433699
4,839167	0,1	0,404005
4,840833	0,1	0,397563
4,842500	0,1	0,397947
4,844167	0,1	0,404510
4,845833	0,1	0,426700
4,847500	0,1	0,423137
4,849167	0,1	0,406536
4,850833	0,1	0,452650
4,852500	0,1	0,408385
4,854167	0,1	0,431029
4,855833	0,1	0,424729
4,857500	0,1	0,459308
4,859167	0,1	0,438208
4,860833	0,1	0,382343
4,862500	0,1	0,433041
4,864167	0,1	0,476776
4,865833	0,1	0,396423
4,867500	0,1	0,399834
4,869167	0,1	0,455183
4,870833	0,1	0,409072
4,872500	0,1	0,477839
4,874167	0,1	0,408051
4,875833	0,1	0,420387
4,877500	0,1	0,376460
4,879167	0,1	0,446981
4,880833	0,1	0,452576
4,882500	0,1	0,404270
4,884167	0,1	0,466427
4,885833	0,1	0,406799
4,887500	0,1	0,469253
4,889167	0,1	0,405048
4,890833	0,1	0,411550
4,892500	0,1	0,431798
4,894167	0,1	0,430003
4,895833	0,1	0,440688
4,897500	0,1	0,463254
4,899167	0,1	0,455587
4,900833	0,1	0,428075
4,902500	0,1	0,436096
4,904167	0,1	0,420741
4,905833	0,1	0,413786
4,907500	0,1	0,455662
4,909167	0,1	0,444037
4,910833	0,1	0,420097
4,912500	0,1	0,455915
4,914167	0,1	0,450352
4,915833	0,1	0,411048
4,917500	0,1	0,471403
4,919167	0,1	0,464763
4,920833	0,1	0,413061
4,922500	0,1	0,440252
4,924167	0,1	0,460036
4,925833	0,1	0,434602
4,927500	0,1	0,415715
4,929167	0,1	0,458281
4,930833	0,1	0,444087
4,932500	0,1	0,431467
4,934167	0,1	0,442275
4,935833	0,1	0,423570
4,937500	0,1	0,393576
4,939167	0,1	0,468312
4,940833	0,1	0,408217
4,942500	0,1	0,422918
4,944167	0,1	0,438538
4,945833	0,1	0,430949
4,947500	0,1	0,402503
4,949167	0,1	0,441708
4,950833	0,1	0,444596
4,952500	0,1	0,465492
4,954167	0,1	0,469009
4,955833	0,1	0,397108
4,957500	0,1	0,391468
4,959167	0,1	0,471442
4,960833	0,1	0,415036
4,962500	0,1	0,450899
4,964167	0,1	0,464806
4,965833	0,1	0,427828
4,967500	0,1	0,466389
4,969167	0,1	0,462362
4,970833	0,1	0,409929
4,972500	0,1	0,415453
4,974167	0,1	0,439780
4,975833	0,1	0,437942
4,977500	0,1	0,474021
4,979167	0,1	0,454383
4,980833	0,1	0,455923
4,982500	0,1	0,412119
4,984167	0,1	0,434935
4,985833	0,1	0,428760
4,987500	0,1	0,443132
4,989167	0,1	0,426144
4,990833	0,1	0,413570
4,992500	0,1	0,415109
4,994167	0,1	0,449608
4,995833	0,1	0,485184
4,997500	0,1	0,437266
4,999167	0,1	0,431245
5,000833	0,1	0,440132
5,002500	0,1	0,454974
5,004167	0,1	0,451586
5,005833	0,1	0,470169
5,007500	0,1	0,477035
5,009167	0,1	0,440137
5,010833	0,1	0,453305
5,012500	0,1	0,437044
5,014167	0,1	0,434335
5,015833	0,1	0,464158
5,017500	0,1	0,443439
5,019167	0,1	0,450258
5,020833	0,1	0,421937
5,022500	0,1	0,411763
5,024167	0,1	0,456855
5,025833	0,1	0,454804
5,027500	0,1	0,455966
5,029167	0,1	0,480036
5,030833	0,1	0,444348
5,032500	0,1	0,459143
5,034167	0,1	0,434772
5,035833	0,1	0,457805
5,037500	0,1	0,406412
5,039167	0,1	0,420943
5,040833	0,1	0,432105
5,042500	0,1	0,435795
5,044167	0,1	0,433178
5,045833	0,1	0,456773
5,047500	0,1	0,459054
5,049167	0,1	0,436660
5,050833	0,1	0,418029
5,052500	0,1	0,417899
5,054167	0,1	0,439780
5,055833	0,1	0,430900
5,057500	0,1	0,443944
5,059167	0,1	0,437682
5,060833	0,1	0,446395
5,062500	0,1	0,456434
5,064167	0,1	0,427130
5,065833	0,1	0,490328
5,067500	0,1	0,433235
5,069167	0,1	0,447977
5,070833	0,1	0,443867
5,072500	0,1	0,485527
5,074167	0,1	0,448757
5,075833	0,1	0,434807
5,077500	0,1	0,449744
5,079167	0,1	0,456951
5,080833	0,1	0,455622
5,082500	0,1	0,462534
5,084167	0,1	0,439191
5,085833	0,1	0,421377
5,087500	0,1	0,459006
5,089167	0,1	0,424214
5,090833	0,1	0,428583
5,092500	0,1	0,438064
5,094167	0,1	0,420951
5,095833	0,1	0,474918
5,097500	0,1	0,444598
5,099167	0,1	0,446310
5,100833	0,1	0,456394
5,102500	0,1	0,413143
5,104167	0,1	0,486589
5,105833	0,1	0,460992
5,107500	0,1	0,447464
5,109167	0,1	0,471793
5,110833	0,1	0,462363
5,112500	0,1	0,432236
5,114167	0,1	0,452572
5,115833	0,1	0,483372
5,117500	0,1	0,424090
5,119167	0,1	0,443507
5,120833	0,1	0,458876
5,122500	0,1	0,429792
5,124167	0,1	0,444714
5,125833	0,1	0,485476
5,127500	0,1	0,443484
5,129167	0,1	0,426315
5,130833	0,1	0,433636
5,132500	0,1	0,439141
5,134167	0,1	0,427601
5,135833	0,1	0,437846
5,137500	0,1	0,479689
5,139167	0,1	0,457380
5,140833	0,1	0,466178
5,142500	0,1	0,455799
5,144167	0,1	0,474112
5,145833	0,1	0,436362
5,147500	0,1	0,460980
5,149167	0,1	0,460768
5,150833	0,1	0,475877
5,152500	0,1	0,444250
5,154167	0,1	0,472174
5,155833	0,1	0,435796
5,157500	0,1	0,432448
5,159167	0,1	0,474838
5,160833	0,1	0,454121
5,162500	0,1	0,475912
5,164167	0,1	0,457510
5,165833	0,1	0,458193
5,167500	0,1	0,427043
5,169167	0,1	0,449812
5,170833	0,1	0,459947
5,172500	0,1	0,436486
5,174167	0,1	0,450377
5,175833	0,1	0,472343
5,177500	0,1	0,471112
5,179167	0,1	0,476941
5,180833	0,1	0,474499
5,182500	0,1	0,469055
5,184167	0,1	0,463556
5,185833	0,1	0,449053
5,187500	0,1	0,464576
5,189167	0,1	0,457719
5,190833	0,1	0,470977
5,192500	0,1	0,475697
5,194167	0,1	0,428080
5,195833	0,1	0,449306
5,197500	0,1	0,457289
5,199167	0,1	0,477581
5,200833	0,1	0,470725
5,202500	0,1	0,430696
5,204167	0,1	0,449907
5,205833	0,1	0,452868
5,207500	0,1	0,457930
5,209167	0,1	0,459353
5,210833	0,1	0,474196
5,212500	0,1	0,458109
5,214167	0,1	0,446565
5,215833	0,1	0,458659
5,217500	0,1	0,429018
5,219167	0,1	0,436382
5,220833	0,1	0,440680
5,222500	0,1	0,450033
5,224167	0,1	0,454759
5,225833	0,1	0,447932
5,227500	0,1	0,484622
5,229167	0,1	0,492692
5,230833	0,1	0,439155
5,232500	0,1	0,458526
5,234167	0,1	0,452913
5,235833	0,1	0,482474
5,237500	0,1	0,458242
5,239167	0,1	0,468403
5,240833	0,1	0,463344
5,242500	0,1	0,454463
5,244167	0,1	0,431336
5,245833	0,1	0,478694
5,247500	0,1	0,484149
5,249167	0,1	0,524910
5,250833	0,1	0,454733
5,252500	0,1	0,461621
5,254167	0,1	0,441029
5,255833	0,1	0,470417
5,257500	0,1	0,465137
5,259167	0,1	0,476684
5,260833	0,1	0,452016
5,262500	0,1	0,496626
5,264167	0,1	0,486001
5,265833	0,1	0,486467
5,267500	0,1	0,471966
5,269167	0,1	0,494787
5,270833	0,1	0,446316
5,272500	0,1	0,465056
5,274167	0,1	0,481576
5,275833	0,1	0,443138
5,277500	0,1	0,438580
5,279167	0,1	0,472940
5,280833	0,1	0,496206
5,282500	0,1	0,463263
5,284167	0,1	0,477971
5,285833	0,1	0,487796
5,287500	0,1	0,479913
5,289167	0,1	0,472008
5,290833	0,1	0,465312
5,292500	0,1	0,485814
5,294167	0,1	0,468315
5,295833	0,1	0,454458
5,297500	0,1	0,425457
5,299167	0,1	0,495288
5,300833	0,1	0,452409
5,302500	0,1	0,482685
5,304167	0,1	0,469652
5,305833	0,1	0,439569
5,307500	0,1	0,471954
5,309167	0,1	0,452360
5,310833	0,1	0,491608
5,312500	0,1	0,472997
5,314167	0,1	0,496332
5,315833	0,1	0,482178
5,317500	0,1	0,468878
5,319167	0,1	0,482815
5,320833	0,1	0,464890
5,322500	0,1	0,481576
5,324167	0,1	0,450130
5,325833	0,1	0,493320
5,327500	0,1	0,458925
5,329167	0,1	0,459648
5,330833	0,1	0,456299
5,332500	0,1	0,471145
5,334167	0,1	0,466599
5,335833	0,1	0,523530
5,337500	0,1	0,457772
5,339167	0,1	0,478181
5,340833	0,1	0,511093
5,342500	0,1	0,465678
5,344167	0,1	0,490069
5,345833	0,1	0,476596
5,347500	0,1	0,506198
5,349167	0,1	0,482567
5,350833	0,1	0,427994
5,352500	0,1	0,448739
5,354167	0,1	0,473244
5,355833	0,1	0,497107
5,357500	0,1	0,437859
5,359167	0,1	0,461875
5,360833	0,1	0,501602
5,362500	0,1	0,490415
5,364167	0,1	0,448715
5,365833	0,1	0,456809
5,367500	0,1	0,481438
5,369167	0,1	0,467845
5,370833	0,1	0,494992
5,372500	0,1	0,479215
5,374167	0,1	0,485173
5,375833	0,1	0,458112
5,377500	0,1	0,487573
5,379167	0,1	0,508058
5,380833	0,1	0,483254
5,382500	0,1	0,472052
5,384167	0,1	0,496200
5,385833	0,1	0,455021
5,387500	0,1	0,475995
5,389167	0,1	0,481229
5,390833	0,1	0,479037
5,392500	0,1	0,492127
5,394167	0,1	0,471367
5,395833	0,1	0,508728
5,397500	0,1	0,495952
5,399167	0,1	0,468667
5,400833	0,1	0,470198
5,402500	0,1	0,483972
5,404167	0,1	0,490534
5,405833	0,1	0,505391
5,407500	0,1	0,465615
5,409167	0,1	0,484444
5,410833	0,1	0,449266
5,412500	0,1	0,521083
5,414167	0,1	0,520451
5,415833	0,1	0,473730
5,417500	0,1	0,486253
5,419167	0,1	0,512763
5,420833	0,1	0,480589
5,422500	0,1	0,461711
5,424167	0,1	0,490879
5,425833	0,1	0,494480
5,427500	0,1	0,500791
5,429167	0,1	0,475831
5,430833	0,1	0,486079
5,432500	0,1	0,469817
5,434167	0,1	0,480202
5,435833	0,1	0,479767
5,437500	0,1	0,520280
5,439167	0,1	0,500548
5,440833	0,1	0,474755
5,442500	0,1	0,479293
5,444167	0,1	0,444546
5,445833	0,1	0,459983
5,447500	0,1	0,501514
5,449167	0,1	0,494102
5,450833	0,1	0,481915
5,452500	0,1	0,486036
5,454167	0,1	0,503232
5,455833	0,1	0,498826
5,457500	0,1	0,469475
5,459167	0,1	0,486371
5,460833	0,1	0,515718
5,462500	0,1	0,503540
5,464167	0,1	0,445195
5,465833	0,1	0,512504
5,467500	0,1	0,486731
5,469167	0,1	0,485911
5,470833	0,1	0,462523
5,472500	0,1	0,513956
5,474167	0,1	0,504315
5,475833	0,1	0,472657
5,477500	0,1	0,486372
5,479167	0,1	0,493241
5,480833	0,1	0,457591
5,482500	0,1	0,472170
5,484167	0,1	0,478823
5,485833	0,1	0,509885
5,487500	0,1	0,474589
5,489167	0,1	0,470025
5,490833	0,1	0,520137
5,492500	0,1	0,463902
5,494167	0,1	0,494566
5,495833	0,1	0,509254
5,497500	0,1	0,501057
5,499167	0,1	0,506585
5,500833	0,1	0,508005
5,502500	0,1	0,509205
5,504167	0,1	0,497664
5,505833	0,1	0,520919
5,507500	0,1	0,517487
5,509167	0,1	0,474803
5,510833	0,1	0,501649
5,512500	0,1	0,488652
5,514167	0,1	0,511263
5,515833	0,1	0,530411
5,517500	0,1	0,524827
5,519167	0,1	0,497068
5,520833	0,1	0,503322
5,522500	0,1	0,474450
5,524167	0,1	0,473418
5,525833	0,1	0,493456
5,527500	0,1	0,452228
5,529167	0,1	0,531719
5,530833	0,1	0,459829
5,532500	0,1	0,490616
5,534167	0,1	0,502165
5,535833	0,1	0,495381
5,537500	0,1	0,468230
5,539167	0,1	0,500447
5,540833	0,1	0,488227
5,542500	0,1	0,500189
5,544167	0,1	0,502723
5,545833	0,1	0,459698
5,547500	0,1	0,477744
5,549167	0,1	0,485685
5,550833	0,1	0,501607
5,552500	0,1	0,487797
5,554167	0,1	0,513954
5,555833	0,1	0,500064
5,557500	0,1	0,530524
5,559167	0,1	0,516372
5,560833	0,1	0,518042
5,562500	0,1	0,498099
5,564167	0,1	0,503286
5,565833	0,1	0,551085
5,567500	0,1	0,514065
5,569167	0,1	0,467079
5,570833	0,1	0,509532
5,572500	0,1	0,472608
5,574167	0,1	0,525287
5,575833	0,1	0,487115
5,577500	0,1	0,503152
5,579167	0,1	0,509329
5,580833	0,1	0,495689
5,582500	0,1	0,455872
5,584167	0,1	0,530953
5,585833	0,1	0,484324
5,587500	0,1	0,512499
5,589167	0,1	0,491535
5,590833	0,1	0,469043
5,592500	0,1	0,503740
5,594167	0,1	0,508385
5,595833	0,1	0,516074
5,597500	0,1	0,485476
5,599167	0,1	0,523271
5,600833	0,1	0,517745
5,602500	0,1	0,495905
5,604167	0,1	0,499928
5,605833	0,1	0,497275
5,607500	0,1	0,526229
5,609167	0,1	0,459137
5,610833	0,1	0,467279
5,612500	0,1	0,524168
5,614167	0,1	0,535070
5,615833	0,1	0,447130
5,617500	0,1	0,496274
5,619167	0,1	0,525073
5,620833	0,1	0,508478
5,622500	0,1	0,454719
5,624167	0,1	0,506617
5,625833	0,1	0,473464
5,627500	0,1	0,481434
5,629167	0,1	0,533006
5,630833	0,1	0,502862
5,632500	0,1	0,475049
5,634167	0,1	0,472818
5,635833	0,1	0,472774
5,637500	0,1	0,513307
5,639167	0,1	0,490330
5,640833	0,1	0,512375
5,642500	0,1	0,484280
5,644167	0,1	0,517435
5,645833	0,1	0,528042
5,647500	0,1	0,514396
5,649167	0,1	0,527608
5,650833	0,1	0,456610
5,652500	0,1	0,501294
5,654167	0,1	0,492858
5,655833	0,1	0,494450
5,657500	0,1	0,497485
5,659167	0,1	0,486164
5,660833	0,1	0,526615
5,662500	0,1	0,507103
5,664167	0,1	0,502037
5,665833	0,1	0,485128
5,667500	0,1	0,521764
5,669167	0,1	0,519676
5,670833	0,1	0,504316
5,672500	0,1	0,520739
5,674167	0,1	0,504272
5,675833	0,1	0,510661
5,677500	0,1	0,523491
5,679167	0,1	0,528210
5,680833	0,1	0,537479
5,682500	0,1	0,494579
5,684167	0,1	0,483545
5,685833	0,1	0,545880
5,687500	0,1	0,496167
5,689167	0,1	0,523399
5,690833	0,1	0,521519
5,692500	0,1	0,518175
5,694167	0,1	0,439833
5,695833	0,1	0,507901
5,697500	0,1	0,516966
5,699167	0,1	0,478965
5,700833	0,1	0,523995
5,702500	0,1	0,507878
5,704167	0,1	0,501870
5,705833	0,1	0,517015
5,707500	0,1	0,519455
5,709167	0,1	0,504228
5,710833	0,1	0,528293
5,712500	0,1	0,528035
5,714167	0,1	0,543052
5,715833	0,1	0,533929
5,717500	0,1	0,505130
5,719167	0,1	0,510316
5,720833	0,1	0,507444
5,722500	0,1	0,543054
5,724167	0,1	0,535339
5,725833	0,1	0,518991
5,727500	0,1	0,483034
5,729167	0,1	0,538112
5,730833	0,1	0,524132
5,732500	0,1	0,502041
5,734167	0,1	0,549262
5,735833	0,1	0,504709
5,737500	0,1	0,545797
5,739167	0,1	0,494406
5,740833	0,1	0,511045
5,742500	0,1	0,487148
5,744167	0,1	0,519492
5,745833	0,1	0,532846
5,747500	0,1	0,521989
5,749167	0,1	0,519632
5,750833	0,1	0,490069
5,752500	0,1	0,502203
5,754167	0,1	0,513322
5,755833	0,1	0,521385
5,757500	0,1	0,454329
5,759167	0,1	0,513048
5,760833	0,1	0,501609
5,762500	0,1	0,504049
5,764167	0,1	0,500275
5,765833	0,1	0,538415
5,767500	0,1	0,510412
5,769167	0,1	0,530219
5,770833	0,1	0,516714
5,772500	0,1	0,528509
5,774167	0,1	0,528079
5,775833	0,1	0,499887
5,777500	0,1	0,483891
5,779167	0,1	0,534417
5,780833	0,1	0,501781
5,782500	0,1	0,504780
5,784167	0,1	0,546732
5,785833	0,1	0,537863
5,787500	0,1	0,511868
5,789167	0,1	0,507831
5,790833	0,1	0,539917
5,792500	0,1	0,560054
5,794167	0,1	0,547521
5,795833	0,1	0,524222
5,797500	0,1	0,529799
5,799167	0,1	0,544252
5,800833	0,1	0,514781
5,802500	0,1	0,527900
5,804167	0,1	0,536738
5,805833	0,1	0,501050
5,807500	0,1	0,500874
5,809167	0,1	0,487352
5,810833	0,1	0,573636
5,812500	0,1	0,511313
5,814167	0,1	0,523695
5,815833	0,1	0,528379
5,817500	0,1	0,501218
5,819167	0,1	0,503230
5,820833	0,1	0,516956
5,822500	0,1	0,508169
5,824167	0,1	0,494432
5,825833	0,1	0,540821
5,827500	0,1	0,540436
5,829167	0,1	0,506756
5,830833	0,1	0,497138
5,832500	0,1	0,554806
5,834167	0,1	0,490845
5,835833	0,1	0,536905
5,837500	0,1	0,526012
5,839167	0,1	0,486933
5,840833	0,1	0,502150
5,842500	0,1	0,545488
5,844167	0,1	0,542535
5,845833	0,1	0,528720
5,847500	0,1	0,529668
5,849167	0,1	0,528629
5,850833	0,1	0,516290
5,852500	0,1	0,508426
5,854167	0,1	0,475133
5,855833	0,1	0,492839
5,857500	0,1	0,536730
5,859167	0,1	0,537136
5,860833	0,1	0,519153
5,862500	0,1	0,554422
5,864167	0,1	0,512420
5,865833	0,1	0,527812
5,867500	0,1	0,535115
5,869167	0,1	0,529105
5,870833	0,1	0,503280
5,872500	0,1	0,539696
5,874167	0,1	0,543265
5,875833	0,1	0,512505
5,877500	0,1	0,511985
5,879167	0,1	0,493453
5,880833	0,1	0,546042
5,882500	0,1	0,539238
5,884167	0,1	0,500446
5,885833	0,1	0,485946
5,887500	0,1	0,524295
5,889167	0,1	0,535883
5,890833	0,1	0,499976
5,892500	0,1	0,529178
5,894167	0,1	0,529571
5,895833	0,1	0,507865
5,897500	0,1	0,509024
5,899167	0,1	0,493277
5,900833	0,1	0,523083
5,902500	0,1	0,513708
5,904167	0,1	0,526782
5,905833	0,1	0,549664
5,907500	0,1	0,495094
5,909167	0,1	0,525710
5,910833	0,1	0,547547
5,912500	0,1	0,546786
5,914167	0,1	0,517999
5,915833	0,1	0,509582
5,917500	0,1	0,532828
5,919167	0,1	0,564205
5,920833	0,1	0,505863
5,922500	0,1	0,527766
5,924167	0,1	0,540468
5,925833	0,1	0,507399
5,927500	0,1	0,499676
5,929167	0,1	0,481479
5,930833	0,1	0,510647
5,932500	0,1	0,498763
5,934167	0,1	0,543475
5,935833	0,1	0,518730
5,937500	0,1	0,553091
5,939167	0,1	0,530873
5,940833	0,1	0,540858
5,942500	0,1	0,522494
5,944167	0,1	0,496629
5,945833	0,1	0,523215
5,947500	0,1	0,493630
5,949167	0,1	0,529396
5,950833	0,1	0,511302
5,952500	0,1	0,500138
5,954167	0,1	0,496873
5,955833	0,1	0,532439
5,957500	0,1	0,547382
5,959167	0,1	0,529575
5,960833	0,1	0,527561
5,962500	0,1	0,500662
5,964167	0,1	0,534333
5,965833	0,1	0,529719
5,967500	0,1	0,527985
5,969167	0,1	0,506753
5,970833	0,1	0,520257
5,972500	0,1	0,526571
5,974167	0,1	0,487489
5,975833	0,1	0,531413
5,977500	0,1	0,505299
5,979167	0,1	0,521550
5,980833	0,1	0,502972
5,982500	0,1	0,503742
5,984167	0,1	0,508458
5,985833	0,1	0,506529
5,987500	0,1	0,537766
5,989167	0,1	0,568878
5,990833	0,1	0,536836
5,992500	0,1	0,530860
5,994167	0,1	0,517820
5,995833	0,1	0,548921
5,997500	0,1	0,553989
5,999167	0,1	0,527222
6,000833	0,1	0,543519
