File Path	chrom://chromeleon01/ikbm_chromeleon/2022/Rezex/Esteban/220612_chitin_4_7.seq/484.smp/UV_VIS_1.channel/UV_VIS_1.chm
Channel	UV_VIS_1

Injection Information:
Data Vault	ikbm_chromeleon
Injection	Blank__09
Injection Number	71
Position	GB7
Comment	
Processing Method	New ProcMethod
Instrument Method	Short_Rezex_6min_194nm
Type	Blank
Status	Finished
Injection Date	13.06.2022
Injection Time	00:46:57
Injection Volume (µl)	8,000
Dilution Factor	1,0000
Weight	1,0000

Chromatogram Data Information:
Time Min. (min)	0,000833
Time Max. (min)	6,000833
Data Points	3601
Detector	UV
Generating Data System	Chromeleon 7.2.9.11323
Exporting Data System	Chromeleon 7.2.9.0
Operator	Instrument Controller
Signal Quantity	Absorbance
Signal Unit	mAU
Signal Min.	-0,355704
Signal Max.	1,225470
Channel	UV_VIS_1
Driver Name	VWD3000.dll
Channel Type	Evaluation
Min. Step (s)	0,1
Max. Step (s)	0,1
Average Step (s)	0,1

Signal Parameter Information:
Signal Info	WVL:194 nm

Chromatogram Data:
Time (min)	Step (s)	Value (mAU)
0,000833	n.a.	0,043968
0,002500	0,1	0,046152
0,004167	0,1	0,002106
0,005833	0,1	0,034828
0,007500	0,1	0,014194
0,009167	0,1	0,023607
0,010833	0,1	0,029786
0,012500	0,1	0,034480
0,014167	0,1	0,049499
0,015833	0,1	0,034293
0,017500	0,1	0,039655
0,019167	0,1	0,041365
0,020833	0,1	0,034901
0,022500	0,1	-0,001818
0,024167	0,1	0,017300
0,025833	0,1	0,024606
0,027500	0,1	0,065410
0,029167	0,1	0,036551
0,030833	0,1	0,024447
0,032500	0,1	0,027886
0,034167	0,1	0,035829
0,035833	0,1	0,021874
0,037500	0,1	0,027277
0,039167	0,1	0,012009
0,040833	0,1	0,037239
0,042500	0,1	0,028023
0,044167	0,1	0,032968
0,045833	0,1	0,050239
0,047500	0,1	0,039310
0,049167	0,1	0,022936
0,050833	0,1	0,033064
0,052500	0,1	0,005961
0,054167	0,1	0,032454
0,055833	0,1	0,042452
0,057500	0,1	0,028731
0,059167	0,1	0,059276
0,060833	0,1	0,065391
0,062500	0,1	0,025522
0,064167	0,1	-0,016067
0,065833	0,1	0,034538
0,067500	0,1	-0,029957
0,069167	0,1	-0,007205
0,070833	0,1	-0,003241
0,072500	0,1	0,035858
0,074167	0,1	-0,044644
0,075833	0,1	0,053053
0,077500	0,1	0,028607
0,079167	0,1	0,026990
0,080833	0,1	0,001530
0,082500	0,1	0,046281
0,084167	0,1	0,008761
0,085833	0,1	-0,013851
0,087500	0,1	-0,011149
0,089167	0,1	-0,015107
0,090833	0,1	0,054828
0,092500	0,1	0,027928
0,094167	0,1	0,035001
0,095833	0,1	0,013903
0,097500	0,1	-0,010182
0,099167	0,1	-0,005941
0,100833	0,1	0,012932
0,102500	0,1	0,009433
0,104167	0,1	0,041809
0,105833	0,1	0,001978
0,107500	0,1	0,022609
0,109167	0,1	0,021010
0,110833	0,1	-0,011847
0,112500	0,1	0,012351
0,114167	0,1	0,039556
0,115833	0,1	-0,016860
0,117500	0,1	0,029451
0,119167	0,1	-0,018085
0,120833	0,1	0,014831
0,122500	0,1	0,040524
0,124167	0,1	0,036672
0,125833	0,1	-0,004482
0,127500	0,1	0,026564
0,129167	0,1	0,032847
0,130833	0,1	0,046735
0,132500	0,1	0,029403
0,134167	0,1	0,002745
0,135833	0,1	0,021521
0,137500	0,1	0,011039
0,139167	0,1	0,021198
0,140833	0,1	-0,006830
0,142500	0,1	0,017208
0,144167	0,1	0,002459
0,145833	0,1	-0,009343
0,147500	0,1	-0,007933
0,149167	0,1	0,019971
0,150833	0,1	0,009660
0,152500	0,1	0,012139
0,154167	0,1	-0,038791
0,155833	0,1	0,007690
0,157500	0,1	-0,017574
0,159167	0,1	-0,010227
0,160833	0,1	-0,033019
0,162500	0,1	0,003826
0,164167	0,1	0,008949
0,165833	0,1	0,011679
0,167500	0,1	0,013905
0,169167	0,1	0,034157
0,170833	0,1	-0,004065
0,172500	0,1	0,023285
0,174167	0,1	-0,024110
0,175833	0,1	0,016307
0,177500	0,1	0,042581
0,179167	0,1	-0,028560
0,180833	0,1	-0,001444
0,182500	0,1	0,002936
0,184167	0,1	-0,013590
0,185833	0,1	0,019843
0,187500	0,1	-0,002748
0,189167	0,1	-0,022657
0,190833	0,1	0,025980
0,192500	0,1	0,031270
0,194167	0,1	-0,018113
0,195833	0,1	0,013150
0,197500	0,1	-0,024527
0,199167	0,1	-0,002639
0,200833	0,1	0,037114
0,202500	0,1	0,013522
0,204167	0,1	-0,041045
0,205833	0,1	-0,018872
0,207500	0,1	-0,031409
0,209167	0,1	0,020163
0,210833	0,1	-0,026483
0,212500	0,1	-0,014629
0,214167	0,1	-0,020088
0,215833	0,1	-0,007195
0,217500	0,1	0,028395
0,219167	0,1	0,046154
0,220833	0,1	-0,016117
0,222500	0,1	-0,007194
0,224167	0,1	0,018401
0,225833	0,1	-0,011912
0,227500	0,1	-0,019000
0,229167	0,1	0,006562
0,230833	0,1	-0,015230
0,232500	0,1	-0,003307
0,234167	0,1	0,007011
0,235833	0,1	0,010363
0,237500	0,1	-0,003782
0,239167	0,1	-0,008739
0,240833	0,1	0,023836
0,242500	0,1	0,005096
0,244167	0,1	-0,008157
0,245833	0,1	0,009074
0,247500	0,1	0,025542
0,249167	0,1	0,021299
0,250833	0,1	-0,010345
0,252500	0,1	-0,012824
0,254167	0,1	0,013992
0,255833	0,1	-0,016342
0,257500	0,1	0,000805
0,259167	0,1	-0,021116
0,260833	0,1	-0,015652
0,262500	0,1	-0,019482
0,264167	0,1	0,030455
0,265833	0,1	0,001721
0,267500	0,1	0,026501
0,269167	0,1	0,028212
0,270833	0,1	0,000914
0,272500	0,1	-0,008095
0,274167	0,1	-0,004400
0,275833	0,1	0,015052
0,277500	0,1	0,028922
0,279167	0,1	-0,013939
0,280833	0,1	0,024732
0,282500	0,1	-0,024072
0,284167	0,1	-0,028740
0,285833	0,1	0,039877
0,287500	0,1	0,018724
0,289167	0,1	0,037856
0,290833	0,1	0,014745
0,292500	0,1	0,002268
0,294167	0,1	-0,024394
0,295833	0,1	-0,019193
0,297500	0,1	0,034701
0,299167	0,1	0,013042
0,300833	0,1	-0,012720
0,302500	0,1	0,007080
0,304167	0,1	-0,000729
0,305833	0,1	0,033872
0,307500	0,1	0,031824
0,309167	0,1	-0,013846
0,310833	0,1	-0,046322
0,312500	0,1	0,019735
0,314167	0,1	0,029466
0,315833	0,1	0,007415
0,317500	0,1	0,008300
0,319167	0,1	0,012965
0,320833	0,1	0,011008
0,322500	0,1	0,035054
0,324167	0,1	-0,018337
0,325833	0,1	0,009516
0,327500	0,1	0,015735
0,329167	0,1	0,013165
0,330833	0,1	-0,005067
0,332500	0,1	0,021355
0,334167	0,1	-0,006441
0,335833	0,1	-0,029442
0,337500	0,1	0,032445
0,339167	0,1	0,002074
0,340833	0,1	0,016411
0,342500	0,1	-0,000592
0,344167	0,1	0,010941
0,345833	0,1	-0,005449
0,347500	0,1	0,019815
0,349167	0,1	-0,023294
0,350833	0,1	0,002224
0,352500	0,1	0,002773
0,354167	0,1	0,046054
0,355833	0,1	0,007419
0,357500	0,1	0,018950
0,359167	0,1	0,027051
0,360833	0,1	-0,038407
0,362500	0,1	0,016012
0,364167	0,1	0,055895
0,365833	0,1	-0,037269
0,367500	0,1	0,010191
0,369167	0,1	-0,010699
0,370833	0,1	-0,004621
0,372500	0,1	-0,002598
0,374167	0,1	0,028721
0,375833	0,1	0,012009
0,377500	0,1	0,003003
0,379167	0,1	0,021039
0,380833	0,1	0,022973
0,382500	0,1	-0,032776
0,384167	0,1	-0,013662
0,385833	0,1	0,030329
0,387500	0,1	0,028799
0,389167	0,1	0,014843
0,390833	0,1	0,039499
0,392500	0,1	0,004748
0,394167	0,1	0,044896
0,395833	0,1	0,010817
0,397500	0,1	-0,014586
0,399167	0,1	0,025375
0,400833	0,1	0,032840
0,402500	0,1	-0,028888
0,404167	0,1	0,023704
0,405833	0,1	0,010079
0,407500	0,1	-0,010374
0,409167	0,1	0,016755
0,410833	0,1	0,048624
0,412500	0,1	0,024972
0,414167	0,1	0,017377
0,415833	0,1	0,002043
0,417500	0,1	-0,013011
0,419167	0,1	0,025346
0,420833	0,1	0,022712
0,422500	0,1	0,015384
0,424167	0,1	-0,001011
0,425833	0,1	-0,007706
0,427500	0,1	0,016763
0,429167	0,1	0,020881
0,430833	0,1	0,026027
0,432500	0,1	0,000207
0,434167	0,1	-0,004491
0,435833	0,1	-0,001375
0,437500	0,1	0,018141
0,439167	0,1	0,019368
0,440833	0,1	0,025092
0,442500	0,1	0,002524
0,444167	0,1	0,023068
0,445833	0,1	-0,004845
0,447500	0,1	0,021971
0,449167	0,1	0,027926
0,450833	0,1	0,036281
0,452500	0,1	0,009854
0,454167	0,1	-0,030369
0,455833	0,1	0,032217
0,457500	0,1	0,001658
0,459167	0,1	0,055509
0,460833	0,1	0,059056
0,462500	0,1	0,050084
0,464167	0,1	0,006706
0,465833	0,1	-0,007739
0,467500	0,1	0,040392
0,469167	0,1	0,030081
0,470833	0,1	0,002398
0,472500	0,1	-0,009986
0,474167	0,1	0,022613
0,475833	0,1	0,030365
0,477500	0,1	0,007479
0,479167	0,1	0,031811
0,480833	0,1	0,016997
0,482500	0,1	0,007442
0,484167	0,1	0,040750
0,485833	0,1	0,033621
0,487500	0,1	0,044451
0,489167	0,1	0,019150
0,490833	0,1	0,015320
0,492500	0,1	0,007793
0,494167	0,1	0,028596
0,495833	0,1	-0,001105
0,497500	0,1	0,015090
0,499167	0,1	0,012492
0,500833	0,1	0,013228
0,502500	0,1	0,049372
0,504167	0,1	0,031466
0,505833	0,1	0,007897
0,507500	0,1	0,021359
0,509167	0,1	-0,030721
0,510833	0,1	0,037043
0,512500	0,1	0,028475
0,514167	0,1	0,028919
0,515833	0,1	0,039114
0,517500	0,1	0,035449
0,519167	0,1	0,024744
0,520833	0,1	0,020529
0,522500	0,1	0,020691
0,524167	0,1	0,035063
0,525833	0,1	-0,003840
0,527500	0,1	0,023646
0,529167	0,1	0,010042
0,530833	0,1	0,013679
0,532500	0,1	0,048213
0,534167	0,1	0,016033
0,535833	0,1	0,025416
0,537500	0,1	-0,004167
0,539167	0,1	0,003515
0,540833	0,1	0,028085
0,542500	0,1	0,033942
0,544167	0,1	0,037893
0,545833	0,1	0,052465
0,547500	0,1	0,051693
0,549167	0,1	0,006164
0,550833	0,1	0,016666
0,552500	0,1	0,000821
0,554167	0,1	0,037469
0,555833	0,1	0,013686
0,557500	0,1	0,076956
0,559167	0,1	0,029092
0,560833	0,1	0,046958
0,562500	0,1	0,055259
0,564167	0,1	0,017612
0,565833	0,1	0,055895
0,567500	0,1	0,033849
0,569167	0,1	0,020822
0,570833	0,1	0,047988
0,572500	0,1	0,016063
0,574167	0,1	0,027664
0,575833	0,1	0,031497
0,577500	0,1	0,021364
0,579167	0,1	0,004228
0,580833	0,1	0,033676
0,582500	0,1	0,045327
0,584167	0,1	0,035387
0,585833	0,1	0,028057
0,587500	0,1	0,034070
0,589167	0,1	0,024771
0,590833	0,1	0,060498
0,592500	0,1	0,026163
0,594167	0,1	0,024642
0,595833	0,1	-0,005226
0,597500	0,1	-0,001248
0,599167	0,1	-0,003594
0,600833	0,1	0,048237
0,602500	0,1	0,034229
0,604167	0,1	0,026191
0,605833	0,1	0,009945
0,607500	0,1	0,018398
0,609167	0,1	0,038921
0,610833	0,1	0,053009
0,612500	0,1	0,026544
0,614167	0,1	0,033547
0,615833	0,1	0,037668
0,617500	0,1	0,028567
0,619167	0,1	0,084229
0,620833	0,1	0,028902
0,622500	0,1	0,054647
0,624167	0,1	0,067000
0,625833	0,1	0,038968
0,627500	0,1	0,051787
0,629167	0,1	0,034236
0,630833	0,1	0,036962
0,632500	0,1	0,025930
0,634167	0,1	0,060207
0,635833	0,1	0,024171
0,637500	0,1	0,013167
0,639167	0,1	0,043323
0,640833	0,1	0,038666
0,642500	0,1	0,065901
0,644167	0,1	0,053110
0,645833	0,1	0,011986
0,647500	0,1	0,033966
0,649167	0,1	0,048021
0,650833	0,1	0,041849
0,652500	0,1	0,063781
0,654167	0,1	0,007416
0,655833	0,1	0,030588
0,657500	0,1	0,019790
0,659167	0,1	0,048179
0,660833	0,1	0,101662
0,662500	0,1	0,049160
0,664167	0,1	0,076321
0,665833	0,1	0,060990
0,667500	0,1	0,101503
0,669167	0,1	0,074404
0,670833	0,1	0,065810
0,672500	0,1	0,039733
0,674167	0,1	0,069921
0,675833	0,1	0,065490
0,677500	0,1	0,026580
0,679167	0,1	0,040718
0,680833	0,1	0,042842
0,682500	0,1	0,044750
0,684167	0,1	0,087542
0,685833	0,1	0,079290
0,687500	0,1	0,085041
0,689167	0,1	0,053051
0,690833	0,1	0,044810
0,692500	0,1	0,112883
0,694167	0,1	0,039744
0,695833	0,1	0,045032
0,697500	0,1	0,063591
0,699167	0,1	0,065784
0,700833	0,1	0,034170
0,702500	0,1	0,054161
0,704167	0,1	0,075935
0,705833	0,1	0,055909
0,707500	0,1	0,052816
0,709167	0,1	0,092049
0,710833	0,1	0,065654
0,712500	0,1	0,070953
0,714167	0,1	0,026936
0,715833	0,1	0,084421
0,717500	0,1	0,088390
0,719167	0,1	0,084176
0,720833	0,1	0,065912
0,722500	0,1	0,079801
0,724167	0,1	0,041113
0,725833	0,1	0,043103
0,727500	0,1	0,117385
0,729167	0,1	0,044310
0,730833	0,1	0,084685
0,732500	0,1	0,068449
0,734167	0,1	0,100410
0,735833	0,1	0,053767
0,737500	0,1	0,045742
0,739167	0,1	0,095647
0,740833	0,1	0,040347
0,742500	0,1	0,076643
0,744167	0,1	0,098646
0,745833	0,1	0,088006
0,747500	0,1	0,087684
0,749167	0,1	0,098908
0,750833	0,1	0,072056
0,752500	0,1	0,079124
0,754167	0,1	0,113407
0,755833	0,1	0,044279
0,757500	0,1	0,094360
0,759167	0,1	0,081349
0,760833	0,1	0,072950
0,762500	0,1	0,107422
0,764167	0,1	0,073635
0,765833	0,1	0,090381
0,767500	0,1	0,062986
0,769167	0,1	0,105653
0,770833	0,1	0,104441
0,772500	0,1	0,062314
0,774167	0,1	0,063809
0,775833	0,1	0,085652
0,777500	0,1	0,105755
0,779167	0,1	0,065534
0,780833	0,1	0,119448
0,782500	0,1	0,082062
0,784167	0,1	0,062244
0,785833	0,1	0,087837
0,787500	0,1	0,118714
0,789167	0,1	0,048139
0,790833	0,1	0,086963
0,792500	0,1	0,096850
0,794167	0,1	0,104183
0,795833	0,1	0,105436
0,797500	0,1	0,107430
0,799167	0,1	0,092993
0,800833	0,1	0,077906
0,802500	0,1	0,064653
0,804167	0,1	0,093914
0,805833	0,1	0,075109
0,807500	0,1	0,107201
0,809167	0,1	0,088491
0,810833	0,1	0,070287
0,812500	0,1	0,087999
0,814167	0,1	0,089997
0,815833	0,1	0,067779
0,817500	0,1	0,126107
0,819167	0,1	0,081258
0,820833	0,1	0,104275
0,822500	0,1	0,113346
0,824167	0,1	0,084250
0,825833	0,1	0,084562
0,827500	0,1	0,084974
0,829167	0,1	0,101991
0,830833	0,1	0,127594
0,832500	0,1	0,121521
0,834167	0,1	0,113900
0,835833	0,1	0,106052
0,837500	0,1	0,098490
0,839167	0,1	0,098843
0,840833	0,1	0,112960
0,842500	0,1	0,137148
0,844167	0,1	0,114320
0,845833	0,1	0,121616
0,847500	0,1	0,108176
0,849167	0,1	0,129042
0,850833	0,1	0,132361
0,852500	0,1	0,121330
0,854167	0,1	0,101293
0,855833	0,1	0,164674
0,857500	0,1	0,106704
0,859167	0,1	0,119138
0,860833	0,1	0,133259
0,862500	0,1	0,120463
0,864167	0,1	0,108592
0,865833	0,1	0,106755
0,867500	0,1	0,124668
0,869167	0,1	0,120012
0,870833	0,1	0,088526
0,872500	0,1	0,143542
0,874167	0,1	0,138538
0,875833	0,1	0,135708
0,877500	0,1	0,110429
0,879167	0,1	0,149014
0,880833	0,1	0,130659
0,882500	0,1	0,162816
0,884167	0,1	0,120694
0,885833	0,1	0,136569
0,887500	0,1	0,130786
0,889167	0,1	0,180410
0,890833	0,1	0,152150
0,892500	0,1	0,140662
0,894167	0,1	0,171373
0,895833	0,1	0,170964
0,897500	0,1	0,149318
0,899167	0,1	0,145681
0,900833	0,1	0,192957
0,902500	0,1	0,174731
0,904167	0,1	0,171381
0,905833	0,1	0,160607
0,907500	0,1	0,161473
0,909167	0,1	0,150344
0,910833	0,1	0,175847
0,912500	0,1	0,182767
0,914167	0,1	0,164920
0,915833	0,1	0,160701
0,917500	0,1	0,173951
0,919167	0,1	0,183958
0,920833	0,1	0,153180
0,922500	0,1	0,191060
0,924167	0,1	0,160612
0,925833	0,1	0,179033
0,927500	0,1	0,183831
0,929167	0,1	0,177592
0,930833	0,1	0,201392
0,932500	0,1	0,191619
0,934167	0,1	0,179297
0,935833	0,1	0,165143
0,937500	0,1	0,197625
0,939167	0,1	0,204901
0,940833	0,1	0,175891
0,942500	0,1	0,222717
0,944167	0,1	0,205906
0,945833	0,1	0,181488
0,947500	0,1	0,214130
0,949167	0,1	0,213332
0,950833	0,1	0,265475
0,952500	0,1	0,211029
0,954167	0,1	0,200500
0,955833	0,1	0,223977
0,957500	0,1	0,185321
0,959167	0,1	0,208115
0,960833	0,1	0,193003
0,962500	0,1	0,245335
0,964167	0,1	0,192660
0,965833	0,1	0,247039
0,967500	0,1	0,224503
0,969167	0,1	0,239423
0,970833	0,1	0,240907
0,972500	0,1	0,247018
0,974167	0,1	0,253647
0,975833	0,1	0,237661
0,977500	0,1	0,248721
0,979167	0,1	0,246923
0,980833	0,1	0,245025
0,982500	0,1	0,254513
0,984167	0,1	0,282083
0,985833	0,1	0,261664
0,987500	0,1	0,299003
0,989167	0,1	0,278816
0,990833	0,1	0,280836
0,992500	0,1	0,252977
0,994167	0,1	0,275778
0,995833	0,1	0,286172
0,997500	0,1	0,245387
0,999167	0,1	0,251205
1,000833	0,1	0,315676
1,002500	0,1	0,290171
1,004167	0,1	0,272219
1,005833	0,1	0,278839
1,007500	0,1	0,262597
1,009167	0,1	0,320118
1,010833	0,1	0,278207
1,012500	0,1	0,292643
1,014167	0,1	0,292840
1,015833	0,1	0,301428
1,017500	0,1	0,312405
1,019167	0,1	0,304297
1,020833	0,1	0,343126
1,022500	0,1	0,324252
1,024167	0,1	0,336792
1,025833	0,1	0,314632
1,027500	0,1	0,307803
1,029167	0,1	0,303297
1,030833	0,1	0,315364
1,032500	0,1	0,304910
1,034167	0,1	0,316874
1,035833	0,1	0,307451
1,037500	0,1	0,321574
1,039167	0,1	0,356448
1,040833	0,1	0,294625
1,042500	0,1	0,335727
1,044167	0,1	0,349706
1,045833	0,1	0,287351
1,047500	0,1	0,363714
1,049167	0,1	0,336062
1,050833	0,1	0,323706
1,052500	0,1	0,385185
1,054167	0,1	0,323458
1,055833	0,1	0,356682
1,057500	0,1	0,346452
1,059167	0,1	0,336188
1,060833	0,1	0,343842
1,062500	0,1	0,330656
1,064167	0,1	0,384160
1,065833	0,1	0,340188
1,067500	0,1	0,341530
1,069167	0,1	0,344329
1,070833	0,1	0,365080
1,072500	0,1	0,371102
1,074167	0,1	0,347712
1,075833	0,1	0,375342
1,077500	0,1	0,371327
1,079167	0,1	0,420015
1,080833	0,1	0,373885
1,082500	0,1	0,360200
1,084167	0,1	0,344108
1,085833	0,1	0,430277
1,087500	0,1	0,317071
1,089167	0,1	0,409283
1,090833	0,1	0,376419
1,092500	0,1	0,384302
1,094167	0,1	0,402128
1,095833	0,1	0,376455
1,097500	0,1	0,425649
1,099167	0,1	0,404778
1,100833	0,1	0,396602
1,102500	0,1	0,416421
1,104167	0,1	0,393191
1,105833	0,1	0,372049
1,107500	0,1	0,378096
1,109167	0,1	0,406566
1,110833	0,1	0,423987
1,112500	0,1	0,425111
1,114167	0,1	0,380713
1,115833	0,1	0,383173
1,117500	0,1	0,389936
1,119167	0,1	0,391281
1,120833	0,1	0,447918
1,122500	0,1	0,408223
1,124167	0,1	0,435813
1,125833	0,1	0,423732
1,127500	0,1	0,441042
1,129167	0,1	0,420385
1,130833	0,1	0,404747
1,132500	0,1	0,407478
1,134167	0,1	0,420900
1,135833	0,1	0,402650
1,137500	0,1	0,402972
1,139167	0,1	0,390222
1,140833	0,1	0,405896
1,142500	0,1	0,433576
1,144167	0,1	0,457557
1,145833	0,1	0,427759
1,147500	0,1	0,416101
1,149167	0,1	0,414139
1,150833	0,1	0,407993
1,152500	0,1	0,427551
1,154167	0,1	0,429562
1,155833	0,1	0,396738
1,157500	0,1	0,457405
1,159167	0,1	0,439250
1,160833	0,1	0,443780
1,162500	0,1	0,439759
1,164167	0,1	0,442754
1,165833	0,1	0,433585
1,167500	0,1	0,458357
1,169167	0,1	0,431014
1,170833	0,1	0,475829
1,172500	0,1	0,437520
1,174167	0,1	0,413762
1,175833	0,1	0,452534
1,177500	0,1	0,471038
1,179167	0,1	0,429955
1,180833	0,1	0,471914
1,182500	0,1	0,416028
1,184167	0,1	0,433895
1,185833	0,1	0,455102
1,187500	0,1	0,428663
1,189167	0,1	0,423610
1,190833	0,1	0,474697
1,192500	0,1	0,462688
1,194167	0,1	0,493794
1,195833	0,1	0,428553
1,197500	0,1	0,437116
1,199167	0,1	0,482306
1,200833	0,1	0,460274
1,202500	0,1	0,454698
1,204167	0,1	0,446882
1,205833	0,1	0,467753
1,207500	0,1	0,463962
1,209167	0,1	0,479843
1,210833	0,1	0,455543
1,212500	0,1	0,486868
1,214167	0,1	0,454548
1,215833	0,1	0,435678
1,217500	0,1	0,475987
1,219167	0,1	0,474919
1,220833	0,1	0,466341
1,222500	0,1	0,469886
1,224167	0,1	0,469402
1,225833	0,1	0,471174
1,227500	0,1	0,503334
1,229167	0,1	0,495223
1,230833	0,1	0,467608
1,232500	0,1	0,498249
1,234167	0,1	0,473402
1,235833	0,1	0,495188
1,237500	0,1	0,455481
1,239167	0,1	0,459821
1,240833	0,1	0,481667
1,242500	0,1	0,490134
1,244167	0,1	0,493524
1,245833	0,1	0,498190
1,247500	0,1	0,485867
1,249167	0,1	0,503009
1,250833	0,1	0,470447
1,252500	0,1	0,490460
1,254167	0,1	0,509777
1,255833	0,1	0,484807
1,257500	0,1	0,493235
1,259167	0,1	0,441862
1,260833	0,1	0,500909
1,262500	0,1	0,474859
1,264167	0,1	0,471268
1,265833	0,1	0,487910
1,267500	0,1	0,477262
1,269167	0,1	0,499893
1,270833	0,1	0,529274
1,272500	0,1	0,495281
1,274167	0,1	0,493487
1,275833	0,1	0,506978
1,277500	0,1	0,479657
1,279167	0,1	0,515014
1,280833	0,1	0,477818
1,282500	0,1	0,486665
1,284167	0,1	0,527157
1,285833	0,1	0,532590
1,287500	0,1	0,559160
1,289167	0,1	0,504668
1,290833	0,1	0,535950
1,292500	0,1	0,541910
1,294167	0,1	0,538049
1,295833	0,1	0,560449
1,297500	0,1	0,527463
1,299167	0,1	0,541156
1,300833	0,1	0,512059
1,302500	0,1	0,501413
1,304167	0,1	0,528382
1,305833	0,1	0,520532
1,307500	0,1	0,551917
1,309167	0,1	0,535186
1,310833	0,1	0,543066
1,312500	0,1	0,526303
1,314167	0,1	0,517352
1,315833	0,1	0,537581
1,317500	0,1	0,551238
1,319167	0,1	0,574326
1,320833	0,1	0,552442
1,322500	0,1	0,552727
1,324167	0,1	0,545067
1,325833	0,1	0,555944
1,327500	0,1	0,549730
1,329167	0,1	0,481899
1,330833	0,1	0,599534
1,332500	0,1	0,552200
1,334167	0,1	0,548128
1,335833	0,1	0,576926
1,337500	0,1	0,589232
1,339167	0,1	0,545247
1,340833	0,1	0,559295
1,342500	0,1	0,565671
1,344167	0,1	0,585565
1,345833	0,1	0,588657
1,347500	0,1	0,553891
1,349167	0,1	0,559964
1,350833	0,1	0,555409
1,352500	0,1	0,594378
1,354167	0,1	0,615014
1,355833	0,1	0,607178
1,357500	0,1	0,603603
1,359167	0,1	0,558731
1,360833	0,1	0,611829
1,362500	0,1	0,587772
1,364167	0,1	0,586898
1,365833	0,1	0,586700
1,367500	0,1	0,572875
1,369167	0,1	0,591914
1,370833	0,1	0,594494
1,372500	0,1	0,578820
1,374167	0,1	0,614675
1,375833	0,1	0,605091
1,377500	0,1	0,646076
1,379167	0,1	0,606188
1,380833	0,1	0,594342
1,382500	0,1	0,584060
1,384167	0,1	0,613322
1,385833	0,1	0,579782
1,387500	0,1	0,634371
1,389167	0,1	0,625278
1,390833	0,1	0,645262
1,392500	0,1	0,609094
1,394167	0,1	0,613303
1,395833	0,1	0,614238
1,397500	0,1	0,653830
1,399167	0,1	0,631191
1,400833	0,1	0,581048
1,402500	0,1	0,656976
1,404167	0,1	0,659147
1,405833	0,1	0,643339
1,407500	0,1	0,618643
1,409167	0,1	0,616351
1,410833	0,1	0,632423
1,412500	0,1	0,599367
1,414167	0,1	0,635730
1,415833	0,1	0,613003
1,417500	0,1	0,639218
1,419167	0,1	0,655967
1,420833	0,1	0,678066
1,422500	0,1	0,639342
1,424167	0,1	0,665228
1,425833	0,1	0,648180
1,427500	0,1	0,674778
1,429167	0,1	0,663770
1,430833	0,1	0,674050
1,432500	0,1	0,637168
1,434167	0,1	0,648551
1,435833	0,1	0,667849
1,437500	0,1	0,691638
1,439167	0,1	0,623048
1,440833	0,1	0,663979
1,442500	0,1	0,661878
1,444167	0,1	0,669073
1,445833	0,1	0,690039
1,447500	0,1	0,681960
1,449167	0,1	0,659418
1,450833	0,1	0,707890
1,452500	0,1	0,689471
1,454167	0,1	0,697173
1,455833	0,1	0,669904
1,457500	0,1	0,646070
1,459167	0,1	0,710776
1,460833	0,1	0,695800
1,462500	0,1	0,692510
1,464167	0,1	0,668793
1,465833	0,1	0,710025
1,467500	0,1	0,709681
1,469167	0,1	0,739150
1,470833	0,1	0,685282
1,472500	0,1	0,709808
1,474167	0,1	0,679721
1,475833	0,1	0,735435
1,477500	0,1	0,681949
1,479167	0,1	0,700168
1,480833	0,1	0,711477
1,482500	0,1	0,705283
1,484167	0,1	0,687049
1,485833	0,1	0,722089
1,487500	0,1	0,718523
1,489167	0,1	0,746371
1,490833	0,1	0,723058
1,492500	0,1	0,712547
1,494167	0,1	0,718387
1,495833	0,1	0,718322
1,497500	0,1	0,702464
1,499167	0,1	0,722360
1,500833	0,1	0,721987
1,502500	0,1	0,752546
1,504167	0,1	0,730744
1,505833	0,1	0,746374
1,507500	0,1	0,748176
1,509167	0,1	0,765724
1,510833	0,1	0,759842
1,512500	0,1	0,743183
1,514167	0,1	0,750264
1,515833	0,1	0,730633
1,517500	0,1	0,774603
1,519167	0,1	0,760000
1,520833	0,1	0,768616
1,522500	0,1	0,739922
1,524167	0,1	0,739047
1,525833	0,1	0,778295
1,527500	0,1	0,754449
1,529167	0,1	0,741651
1,530833	0,1	0,785180
1,532500	0,1	0,799139
1,534167	0,1	0,755899
1,535833	0,1	0,781029
1,537500	0,1	0,751940
1,539167	0,1	0,785269
1,540833	0,1	0,790344
1,542500	0,1	0,762647
1,544167	0,1	0,785364
1,545833	0,1	0,791677
1,547500	0,1	0,756385
1,549167	0,1	0,792202
1,550833	0,1	0,807671
1,552500	0,1	0,829797
1,554167	0,1	0,769143
1,555833	0,1	0,762466
1,557500	0,1	0,835364
1,559167	0,1	0,792999
1,560833	0,1	0,812958
1,562500	0,1	0,790530
1,564167	0,1	0,795673
1,565833	0,1	0,781354
1,567500	0,1	0,797764
1,569167	0,1	0,853411
1,570833	0,1	0,858338
1,572500	0,1	0,816397
1,574167	0,1	0,802770
1,575833	0,1	0,788240
1,577500	0,1	0,818398
1,579167	0,1	0,805857
1,580833	0,1	0,860365
1,582500	0,1	0,784568
1,584167	0,1	0,848119
1,585833	0,1	0,830210
1,587500	0,1	0,855659
1,589167	0,1	0,868155
1,590833	0,1	0,847187
1,592500	0,1	0,845586
1,594167	0,1	0,861730
1,595833	0,1	0,818128
1,597500	0,1	0,887120
1,599167	0,1	0,807452
1,600833	0,1	0,898175
1,602500	0,1	0,837973
1,604167	0,1	0,848266
1,605833	0,1	0,827547
1,607500	0,1	0,883034
1,609167	0,1	0,834487
1,610833	0,1	0,862217
1,612500	0,1	0,867495
1,614167	0,1	0,843052
1,615833	0,1	0,846824
1,617500	0,1	0,869596
1,619167	0,1	0,870111
1,620833	0,1	0,824927
1,622500	0,1	0,883765
1,624167	0,1	0,925899
1,625833	0,1	0,888924
1,627500	0,1	0,929901
1,629167	0,1	0,875634
1,630833	0,1	0,884489
1,632500	0,1	0,892800
1,634167	0,1	0,876472
1,635833	0,1	0,864411
1,637500	0,1	0,878503
1,639167	0,1	0,934390
1,640833	0,1	0,868645
1,642500	0,1	0,908057
1,644167	0,1	0,949372
1,645833	0,1	0,904258
1,647500	0,1	0,904622
1,649167	0,1	0,936736
1,650833	0,1	0,912106
1,652500	0,1	0,889191
1,654167	0,1	0,890713
1,655833	0,1	0,951656
1,657500	0,1	0,940378
1,659167	0,1	0,929724
1,660833	0,1	0,893368
1,662500	0,1	0,913198
1,664167	0,1	0,948288
1,665833	0,1	0,971156
1,667500	0,1	0,937550
1,669167	0,1	0,920009
1,670833	0,1	0,913984
1,672500	0,1	0,944931
1,674167	0,1	0,930202
1,675833	0,1	0,961553
1,677500	0,1	0,955388
1,679167	0,1	0,949297
1,680833	0,1	0,944514
1,682500	0,1	0,913464
1,684167	0,1	0,915541
1,685833	0,1	0,943098
1,687500	0,1	0,943189
1,689167	0,1	0,917279
1,690833	0,1	0,986359
1,692500	0,1	0,988750
1,694167	0,1	0,964484
1,695833	0,1	0,978026
1,697500	0,1	1,018935
1,699167	0,1	0,989217
1,700833	0,1	0,976524
1,702500	0,1	0,961105
1,704167	0,1	0,970481
1,705833	0,1	0,955458
1,707500	0,1	0,980451
1,709167	0,1	0,976285
1,710833	0,1	0,956356
1,712500	0,1	0,977636
1,714167	0,1	0,997720
1,715833	0,1	0,949495
1,717500	0,1	0,985180
1,719167	0,1	1,023433
1,720833	0,1	1,011824
1,722500	0,1	0,984535
1,724167	0,1	1,001095
1,725833	0,1	1,043331
1,727500	0,1	0,985560
1,729167	0,1	1,022499
1,730833	0,1	1,003682
1,732500	0,1	1,007003
1,734167	0,1	1,007173
1,735833	0,1	0,985566
1,737500	0,1	1,019634
1,739167	0,1	1,000885
1,740833	0,1	1,042264
1,742500	0,1	1,014951
1,744167	0,1	1,056461
1,745833	0,1	1,039463
1,747500	0,1	1,046481
1,749167	0,1	1,026281
1,750833	0,1	1,030379
1,752500	0,1	1,019036
1,754167	0,1	1,043336
1,755833	0,1	1,032810
1,757500	0,1	1,048260
1,759167	0,1	1,044836
1,760833	0,1	1,008320
1,762500	0,1	1,052646
1,764167	0,1	1,041669
1,765833	0,1	1,041561
1,767500	0,1	1,048756
1,769167	0,1	1,055589
1,770833	0,1	1,053422
1,772500	0,1	1,039698
1,774167	0,1	1,027145
1,775833	0,1	1,055433
1,777500	0,1	1,072417
1,779167	0,1	1,034887
1,780833	0,1	1,037204
1,782500	0,1	1,058522
1,784167	0,1	1,059581
1,785833	0,1	1,109108
1,787500	0,1	1,025637
1,789167	0,1	1,071714
1,790833	0,1	1,071080
1,792500	0,1	1,007682
1,794167	0,1	1,081993
1,795833	0,1	1,076966
1,797500	0,1	1,061260
1,799167	0,1	1,064329
1,800833	0,1	1,093594
1,802500	0,1	1,063389
1,804167	0,1	1,102002
1,805833	0,1	1,061577
1,807500	0,1	1,089452
1,809167	0,1	1,113475
1,810833	0,1	1,139472
1,812500	0,1	1,079596
1,814167	0,1	1,085520
1,815833	0,1	1,098058
1,817500	0,1	1,082454
1,819167	0,1	1,101994
1,820833	0,1	1,113260
1,822500	0,1	1,108968
1,824167	0,1	1,099161
1,825833	0,1	1,132393
1,827500	0,1	1,116708
1,829167	0,1	1,097558
1,830833	0,1	1,124162
1,832500	0,1	1,121988
1,834167	0,1	1,114401
1,835833	0,1	1,075103
1,837500	0,1	1,158174
1,839167	0,1	1,108361
1,840833	0,1	1,120337
1,842500	0,1	1,134839
1,844167	0,1	1,079459
1,845833	0,1	1,142332
1,847500	0,1	1,137121
1,849167	0,1	1,129945
1,850833	0,1	1,125515
1,852500	0,1	1,158556
1,854167	0,1	1,154448
1,855833	0,1	1,130746
1,857500	0,1	1,151081
1,859167	0,1	1,141278
1,860833	0,1	1,117782
1,862500	0,1	1,127293
1,864167	0,1	1,120410
1,865833	0,1	1,142342
1,867500	0,1	1,133609
1,869167	0,1	1,161973
1,870833	0,1	1,173203
1,872500	0,1	1,191146
1,874167	0,1	1,170245
1,875833	0,1	1,129651
1,877500	0,1	1,174084
1,879167	0,1	1,174315
1,880833	0,1	1,127802
1,882500	0,1	1,178158
1,884167	0,1	1,103580
1,885833	0,1	1,187686
1,887500	0,1	1,138284
1,889167	0,1	1,190124
1,890833	0,1	1,150534
1,892500	0,1	1,170140
1,894167	0,1	1,154672
1,895833	0,1	1,162924
1,897500	0,1	1,156192
1,899167	0,1	1,199072
1,900833	0,1	1,185419
1,902500	0,1	1,190548
1,904167	0,1	1,118849
1,905833	0,1	1,204235
1,907500	0,1	1,186420
1,909167	0,1	1,173002
1,910833	0,1	1,155550
1,912500	0,1	1,166766
1,914167	0,1	1,167702
1,915833	0,1	1,166193
1,917500	0,1	1,208333
1,919167	0,1	1,202391
1,920833	0,1	1,197094
1,922500	0,1	1,186708
1,924167	0,1	1,184619
1,925833	0,1	1,199324
1,927500	0,1	1,150590
1,929167	0,1	1,168275
1,930833	0,1	1,185205
1,932500	0,1	1,179106
1,934167	0,1	1,220738
1,935833	0,1	1,163325
1,937500	0,1	1,207814
1,939167	0,1	1,163131
1,940833	0,1	1,223369
1,942500	0,1	1,204767
1,944167	0,1	1,183486
1,945833	0,1	1,198803
1,947500	0,1	1,208385
1,949167	0,1	1,196244
1,950833	0,1	1,197505
1,952500	0,1	1,158890
1,954167	0,1	1,199373
1,955833	0,1	1,202513
1,957500	0,1	1,209689
1,959167	0,1	1,215587
1,960833	0,1	1,160115
1,962500	0,1	1,183312
1,964167	0,1	1,225470
1,965833	0,1	1,150885
1,967500	0,1	1,184267
1,969167	0,1	1,202672
1,970833	0,1	1,188781
1,972500	0,1	1,198942
1,974167	0,1	1,212198
1,975833	0,1	1,184339
1,977500	0,1	1,163206
1,979167	0,1	1,208277
1,980833	0,1	1,178905
1,982500	0,1	1,179173
1,984167	0,1	1,221728
1,985833	0,1	1,191419
1,987500	0,1	1,201315
1,989167	0,1	1,166765
1,990833	0,1	1,168428
1,992500	0,1	1,163052
1,994167	0,1	1,208621
1,995833	0,1	1,187424
1,997500	0,1	1,208107
1,999167	0,1	1,208318
2,000833	0,1	1,180470
2,002500	0,1	1,183987
2,004167	0,1	1,180888
2,005833	0,1	1,187624
2,007500	0,1	1,214417
2,009167	0,1	1,176081
2,010833	0,1	1,180118
2,012500	0,1	1,185552
2,014167	0,1	1,191631
2,015833	0,1	1,158530
2,017500	0,1	1,191118
2,019167	0,1	1,199562
2,020833	0,1	1,177149
2,022500	0,1	1,207760
2,024167	0,1	1,190659
2,025833	0,1	1,172207
2,027500	0,1	1,175865
2,029167	0,1	1,197744
2,030833	0,1	1,177544
2,032500	0,1	1,170407
2,034167	0,1	1,196015
2,035833	0,1	1,165925
2,037500	0,1	1,169897
2,039167	0,1	1,164026
2,040833	0,1	1,177442
2,042500	0,1	1,187403
2,044167	0,1	1,170779
2,045833	0,1	1,157976
2,047500	0,1	1,199742
2,049167	0,1	1,215009
2,050833	0,1	1,199456
2,052500	0,1	1,171003
2,054167	0,1	1,181297
2,055833	0,1	1,182039
2,057500	0,1	1,181727
2,059167	0,1	1,159901
2,060833	0,1	1,198605
2,062500	0,1	1,125556
2,064167	0,1	1,158747
2,065833	0,1	1,157603
2,067500	0,1	1,147989
2,069167	0,1	1,193981
2,070833	0,1	1,174237
2,072500	0,1	1,166702
2,074167	0,1	1,194068
2,075833	0,1	1,209260
2,077500	0,1	1,192513
2,079167	0,1	1,156761
2,080833	0,1	1,154543
2,082500	0,1	1,172995
2,084167	0,1	1,137238
2,085833	0,1	1,165334
2,087500	0,1	1,150734
2,089167	0,1	1,182144
2,090833	0,1	1,169064
2,092500	0,1	1,141640
2,094167	0,1	1,156748
2,095833	0,1	1,139978
2,097500	0,1	1,166750
2,099167	0,1	1,114754
2,100833	0,1	1,168320
2,102500	0,1	1,162626
2,104167	0,1	1,151363
2,105833	0,1	1,137261
2,107500	0,1	1,137257
2,109167	0,1	1,170137
2,110833	0,1	1,136044
2,112500	0,1	1,168790
2,114167	0,1	1,151818
2,115833	0,1	1,103944
2,117500	0,1	1,144780
2,119167	0,1	1,134406
2,120833	0,1	1,150013
2,122500	0,1	1,131471
2,124167	0,1	1,150726
2,125833	0,1	1,140553
2,127500	0,1	1,145845
2,129167	0,1	1,120579
2,130833	0,1	1,145921
2,132500	0,1	1,137985
2,134167	0,1	1,106383
2,135833	0,1	1,116674
2,137500	0,1	1,092922
2,139167	0,1	1,119922
2,140833	0,1	1,133466
2,142500	0,1	1,124581
2,144167	0,1	1,106448
2,145833	0,1	1,130994
2,147500	0,1	1,122002
2,149167	0,1	1,090853
2,150833	0,1	1,082231
2,152500	0,1	1,093106
2,154167	0,1	1,100981
2,155833	0,1	1,113341
2,157500	0,1	1,122369
2,159167	0,1	1,096420
2,160833	0,1	1,068696
2,162500	0,1	1,089619
2,164167	0,1	1,106440
2,165833	0,1	1,099079
2,167500	0,1	1,105673
2,169167	0,1	1,082538
2,170833	0,1	1,081653
2,172500	0,1	1,058008
2,174167	0,1	1,051915
2,175833	0,1	1,104223
2,177500	0,1	1,048141
2,179167	0,1	1,083018
2,180833	0,1	1,066555
2,182500	0,1	1,051286
2,184167	0,1	1,060678
2,185833	0,1	1,071403
2,187500	0,1	1,072831
2,189167	0,1	1,055816
2,190833	0,1	1,032524
2,192500	0,1	1,050483
2,194167	0,1	1,050130
2,195833	0,1	1,063529
2,197500	0,1	1,040413
2,199167	0,1	1,082522
2,200833	0,1	1,015197
2,202500	0,1	1,067486
2,204167	0,1	1,035022
2,205833	0,1	1,057437
2,207500	0,1	1,064366
2,209167	0,1	1,033102
2,210833	0,1	1,047328
2,212500	0,1	1,048332
2,214167	0,1	0,987171
2,215833	0,1	0,994027
2,217500	0,1	1,040297
2,219167	0,1	1,013983
2,220833	0,1	1,026645
2,222500	0,1	1,027633
2,224167	0,1	1,025700
2,225833	0,1	1,040268
2,227500	0,1	1,007030
2,229167	0,1	1,029934
2,230833	0,1	1,003704
2,232500	0,1	1,064414
2,234167	0,1	1,033511
2,235833	0,1	1,032519
2,237500	0,1	0,989627
2,239167	0,1	1,000487
2,240833	0,1	1,002745
2,242500	0,1	0,992553
2,244167	0,1	1,007731
2,245833	0,1	1,016485
2,247500	0,1	1,013688
2,249167	0,1	0,990554
2,250833	0,1	0,977644
2,252500	0,1	0,980660
2,254167	0,1	0,990445
2,255833	0,1	0,993907
2,257500	0,1	0,970572
2,259167	0,1	1,000515
2,260833	0,1	0,991112
2,262500	0,1	0,974641
2,264167	0,1	0,965396
2,265833	0,1	0,985677
2,267500	0,1	1,000912
2,269167	0,1	0,943119
2,270833	0,1	0,977565
2,272500	0,1	0,966855
2,274167	0,1	0,970075
2,275833	0,1	0,942841
2,277500	0,1	0,987605
2,279167	0,1	0,954766
2,280833	0,1	0,941971
2,282500	0,1	0,969271
2,284167	0,1	0,976011
2,285833	0,1	0,941637
2,287500	0,1	0,940578
2,289167	0,1	0,965200
2,290833	0,1	0,920641
2,292500	0,1	0,912186
2,294167	0,1	0,957155
2,295833	0,1	0,950960
2,297500	0,1	0,925776
2,299167	0,1	0,922584
2,300833	0,1	0,960244
2,302500	0,1	0,956624
2,304167	0,1	0,943720
2,305833	0,1	0,972765
2,307500	0,1	0,957392
2,309167	0,1	0,932476
2,310833	0,1	0,959688
2,312500	0,1	0,916571
2,314167	0,1	0,889603
2,315833	0,1	0,901042
2,317500	0,1	0,920355
2,319167	0,1	0,905253
2,320833	0,1	0,904537
2,322500	0,1	0,924528
2,324167	0,1	0,916053
2,325833	0,1	0,876545
2,327500	0,1	0,931831
2,329167	0,1	0,925739
2,330833	0,1	0,936505
2,332500	0,1	0,910650
2,334167	0,1	0,906134
2,335833	0,1	0,872475
2,337500	0,1	0,899614
2,339167	0,1	0,909806
2,340833	0,1	0,865149
2,342500	0,1	0,866581
2,344167	0,1	0,924061
2,345833	0,1	0,899877
2,347500	0,1	0,854108
2,349167	0,1	0,882636
2,350833	0,1	0,834334
2,352500	0,1	0,864621
2,354167	0,1	0,920585
2,355833	0,1	0,869614
2,357500	0,1	0,847764
2,359167	0,1	0,866952
2,360833	0,1	0,857899
2,362500	0,1	0,825214
2,364167	0,1	0,866947
2,365833	0,1	0,850273
2,367500	0,1	0,842960
2,369167	0,1	0,863642
2,370833	0,1	0,857781
2,372500	0,1	0,837231
2,374167	0,1	0,850574
2,375833	0,1	0,855336
2,377500	0,1	0,848540
2,379167	0,1	0,816663
2,380833	0,1	0,811010
2,382500	0,1	0,850239
2,384167	0,1	0,833251
2,385833	0,1	0,818189
2,387500	0,1	0,789733
2,389167	0,1	0,804006
2,390833	0,1	0,813095
2,392500	0,1	0,864674
2,394167	0,1	0,818331
2,395833	0,1	0,813810
2,397500	0,1	0,813165
2,399167	0,1	0,797771
2,400833	0,1	0,830237
2,402500	0,1	0,803063
2,404167	0,1	0,812403
2,405833	0,1	0,819539
2,407500	0,1	0,800369
2,409167	0,1	0,797452
2,410833	0,1	0,809229
2,412500	0,1	0,813759
2,414167	0,1	0,808011
2,415833	0,1	0,738153
2,417500	0,1	0,778716
2,419167	0,1	0,785900
2,420833	0,1	0,793945
2,422500	0,1	0,786816
2,424167	0,1	0,774260
2,425833	0,1	0,750383
2,427500	0,1	0,778473
2,429167	0,1	0,809050
2,430833	0,1	0,776312
2,432500	0,1	0,780456
2,434167	0,1	0,764086
2,435833	0,1	0,767417
2,437500	0,1	0,778678
2,439167	0,1	0,772083
2,440833	0,1	0,708140
2,442500	0,1	0,743148
2,444167	0,1	0,743734
2,445833	0,1	0,724902
2,447500	0,1	0,752526
2,449167	0,1	0,687127
2,450833	0,1	0,751182
2,452500	0,1	0,736007
2,454167	0,1	0,735139
2,455833	0,1	0,724122
2,457500	0,1	0,738933
2,459167	0,1	0,744845
2,460833	0,1	0,758791
2,462500	0,1	0,685420
2,464167	0,1	0,713606
2,465833	0,1	0,753678
2,467500	0,1	0,678955
2,469167	0,1	0,695104
2,470833	0,1	0,753272
2,472500	0,1	0,676158
2,474167	0,1	0,727973
2,475833	0,1	0,704043
2,477500	0,1	0,697797
2,479167	0,1	0,695997
2,480833	0,1	0,721047
2,482500	0,1	0,685254
2,484167	0,1	0,684314
2,485833	0,1	0,718778
2,487500	0,1	0,703509
2,489167	0,1	0,703993
2,490833	0,1	0,680609
2,492500	0,1	0,667279
2,494167	0,1	0,683266
2,495833	0,1	0,670968
2,497500	0,1	0,688773
2,499167	0,1	0,680983
2,500833	0,1	0,681915
2,502500	0,1	0,648783
2,504167	0,1	0,710264
2,505833	0,1	0,693958
2,507500	0,1	0,660912
2,509167	0,1	0,691035
2,510833	0,1	0,682737
2,512500	0,1	0,671234
2,514167	0,1	0,640854
2,515833	0,1	0,682993
2,517500	0,1	0,658467
2,519167	0,1	0,666454
2,520833	0,1	0,640295
2,522500	0,1	0,703311
2,524167	0,1	0,644679
2,525833	0,1	0,623860
2,527500	0,1	0,636866
2,529167	0,1	0,656790
2,530833	0,1	0,653152
2,532500	0,1	0,677509
2,534167	0,1	0,587762
2,535833	0,1	0,644187
2,537500	0,1	0,641890
2,539167	0,1	0,651416
2,540833	0,1	0,601171
2,542500	0,1	0,614103
2,544167	0,1	0,590101
2,545833	0,1	0,661262
2,547500	0,1	0,643759
2,549167	0,1	0,587515
2,550833	0,1	0,591141
2,552500	0,1	0,629734
2,554167	0,1	0,611449
2,555833	0,1	0,584354
2,557500	0,1	0,658996
2,559167	0,1	0,603771
2,560833	0,1	0,576891
2,562500	0,1	0,614987
2,564167	0,1	0,561491
2,565833	0,1	0,606142
2,567500	0,1	0,564394
2,569167	0,1	0,594001
2,570833	0,1	0,602154
2,572500	0,1	0,623007
2,574167	0,1	0,559198
2,575833	0,1	0,554617
2,577500	0,1	0,595533
2,579167	0,1	0,568724
2,580833	0,1	0,572177
2,582500	0,1	0,588826
2,584167	0,1	0,537126
2,585833	0,1	0,564995
2,587500	0,1	0,568561
2,589167	0,1	0,560694
2,590833	0,1	0,516006
2,592500	0,1	0,593279
2,594167	0,1	0,554889
2,595833	0,1	0,563226
2,597500	0,1	0,571621
2,599167	0,1	0,564211
2,600833	0,1	0,528173
2,602500	0,1	0,581716
2,604167	0,1	0,511466
2,605833	0,1	0,524744
2,607500	0,1	0,554113
2,609167	0,1	0,531036
2,610833	0,1	0,550988
2,612500	0,1	0,561162
2,614167	0,1	0,532969
2,615833	0,1	0,529546
2,617500	0,1	0,512320
2,619167	0,1	0,545701
2,620833	0,1	0,532807
2,622500	0,1	0,532028
2,624167	0,1	0,541199
2,625833	0,1	0,574505
2,627500	0,1	0,528385
2,629167	0,1	0,505726
2,630833	0,1	0,538130
2,632500	0,1	0,509920
2,634167	0,1	0,538239
2,635833	0,1	0,529167
2,637500	0,1	0,538845
2,639167	0,1	0,505465
2,640833	0,1	0,461867
2,642500	0,1	0,557657
2,644167	0,1	0,538984
2,645833	0,1	0,512495
2,647500	0,1	0,515863
2,649167	0,1	0,537489
2,650833	0,1	0,503863
2,652500	0,1	0,559913
2,654167	0,1	0,479079
2,655833	0,1	0,470926
2,657500	0,1	0,476586
2,659167	0,1	0,499249
2,660833	0,1	0,483805
2,662500	0,1	0,502023
2,664167	0,1	0,518660
2,665833	0,1	0,444323
2,667500	0,1	0,473296
2,669167	0,1	0,491129
2,670833	0,1	0,462839
2,672500	0,1	0,480671
2,674167	0,1	0,502496
2,675833	0,1	0,466741
2,677500	0,1	0,483444
2,679167	0,1	0,500946
2,680833	0,1	0,485383
2,682500	0,1	0,473305
2,684167	0,1	0,456094
2,685833	0,1	0,459612
2,687500	0,1	0,464931
2,689167	0,1	0,468441
2,690833	0,1	0,472789
2,692500	0,1	0,469768
2,694167	0,1	0,483982
2,695833	0,1	0,525013
2,697500	0,1	0,465422
2,699167	0,1	0,491299
2,700833	0,1	0,432505
2,702500	0,1	0,470074
2,704167	0,1	0,425606
2,705833	0,1	0,442264
2,707500	0,1	0,405069
2,709167	0,1	0,467493
2,710833	0,1	0,426380
2,712500	0,1	0,465501
2,714167	0,1	0,449169
2,715833	0,1	0,433615
2,717500	0,1	0,466791
2,719167	0,1	0,442339
2,720833	0,1	0,402273
2,722500	0,1	0,427521
2,724167	0,1	0,459618
2,725833	0,1	0,474443
2,727500	0,1	0,440504
2,729167	0,1	0,425758
2,730833	0,1	0,386019
2,732500	0,1	0,424720
2,734167	0,1	0,418646
2,735833	0,1	0,453467
2,737500	0,1	0,413282
2,739167	0,1	0,381381
2,740833	0,1	0,414682
2,742500	0,1	0,404419
2,744167	0,1	0,457117
2,745833	0,1	0,417367
2,747500	0,1	0,402528
2,749167	0,1	0,401685
2,750833	0,1	0,441233
2,752500	0,1	0,444555
2,754167	0,1	0,429239
2,755833	0,1	0,401718
2,757500	0,1	0,441905
2,759167	0,1	0,418941
2,760833	0,1	0,390653
2,762500	0,1	0,404087
2,764167	0,1	0,403195
2,765833	0,1	0,392832
2,767500	0,1	0,390993
2,769167	0,1	0,394537
2,770833	0,1	0,370278
2,772500	0,1	0,382853
2,774167	0,1	0,411164
2,775833	0,1	0,390615
2,777500	0,1	0,360138
2,779167	0,1	0,378150
2,780833	0,1	0,394244
2,782500	0,1	0,383690
2,784167	0,1	0,372234
2,785833	0,1	0,375775
2,787500	0,1	0,364156
2,789167	0,1	0,378021
2,790833	0,1	0,391251
2,792500	0,1	0,378700
2,794167	0,1	0,382725
2,795833	0,1	0,341352
2,797500	0,1	0,342269
2,799167	0,1	0,346838
2,800833	0,1	0,374698
2,802500	0,1	0,362160
2,804167	0,1	0,339251
2,805833	0,1	0,324734
2,807500	0,1	0,339951
2,809167	0,1	0,370070
2,810833	0,1	0,353951
2,812500	0,1	0,374540
2,814167	0,1	0,344786
2,815833	0,1	0,354328
2,817500	0,1	0,392793
2,819167	0,1	0,353929
2,820833	0,1	0,381488
2,822500	0,1	0,360622
2,824167	0,1	0,319012
2,825833	0,1	0,359190
2,827500	0,1	0,362893
2,829167	0,1	0,328275
2,830833	0,1	0,346770
2,832500	0,1	0,397800
2,834167	0,1	0,347718
2,835833	0,1	0,318236
2,837500	0,1	0,331677
2,839167	0,1	0,332029
2,840833	0,1	0,259972
2,842500	0,1	0,312266
2,844167	0,1	0,312182
2,845833	0,1	0,342580
2,847500	0,1	0,319098
2,849167	0,1	0,302916
2,850833	0,1	0,344088
2,852500	0,1	0,312864
2,854167	0,1	0,324439
2,855833	0,1	0,300987
2,857500	0,1	0,300462
2,859167	0,1	0,292648
2,860833	0,1	0,313749
2,862500	0,1	0,319740
2,864167	0,1	0,294232
2,865833	0,1	0,277654
2,867500	0,1	0,319921
2,869167	0,1	0,302304
2,870833	0,1	0,270579
2,872500	0,1	0,298945
2,874167	0,1	0,279748
2,875833	0,1	0,291968
2,877500	0,1	0,322018
2,879167	0,1	0,297416
2,880833	0,1	0,299530
2,882500	0,1	0,277206
2,884167	0,1	0,282251
2,885833	0,1	0,268259
2,887500	0,1	0,337898
2,889167	0,1	0,290148
2,890833	0,1	0,286305
2,892500	0,1	0,295218
2,894167	0,1	0,267907
2,895833	0,1	0,296140
2,897500	0,1	0,305609
2,899167	0,1	0,293581
2,900833	0,1	0,273887
2,902500	0,1	0,251239
2,904167	0,1	0,258246
2,905833	0,1	0,290996
2,907500	0,1	0,280709
2,909167	0,1	0,270444
2,910833	0,1	0,271085
2,912500	0,1	0,280125
2,914167	0,1	0,272503
2,915833	0,1	0,239723
2,917500	0,1	0,241936
2,919167	0,1	0,278285
2,920833	0,1	0,248892
2,922500	0,1	0,247599
2,924167	0,1	0,275487
2,925833	0,1	0,272502
2,927500	0,1	0,245254
2,929167	0,1	0,216493
2,930833	0,1	0,268822
2,932500	0,1	0,222770
2,934167	0,1	0,239967
2,935833	0,1	0,252323
2,937500	0,1	0,282375
2,939167	0,1	0,246931
2,940833	0,1	0,252422
2,942500	0,1	0,209353
2,944167	0,1	0,257880
2,945833	0,1	0,258987
2,947500	0,1	0,226821
2,949167	0,1	0,223885
2,950833	0,1	0,273522
2,952500	0,1	0,245642
2,954167	0,1	0,202983
2,955833	0,1	0,231762
2,957500	0,1	0,218388
2,959167	0,1	0,237618
2,960833	0,1	0,254059
2,962500	0,1	0,211896
2,964167	0,1	0,222146
2,965833	0,1	0,256984
2,967500	0,1	0,195652
2,969167	0,1	0,216994
2,970833	0,1	0,203877
2,972500	0,1	0,215615
2,974167	0,1	0,210824
2,975833	0,1	0,241479
2,977500	0,1	0,226141
2,979167	0,1	0,211630
2,980833	0,1	0,232406
2,982500	0,1	0,210669
2,984167	0,1	0,193230
2,985833	0,1	0,166981
2,987500	0,1	0,233940
2,989167	0,1	0,174517
2,990833	0,1	0,207533
2,992500	0,1	0,211851
2,994167	0,1	0,185864
2,995833	0,1	0,215417
2,997500	0,1	0,238840
2,999167	0,1	0,251841
3,000833	0,1	0,219388
3,002500	0,1	0,211180
3,004167	0,1	0,179881
3,005833	0,1	0,195955
3,007500	0,1	0,212653
3,009167	0,1	0,243566
3,010833	0,1	0,186548
3,012500	0,1	0,203388
3,014167	0,1	0,192585
3,015833	0,1	0,174602
3,017500	0,1	0,193608
3,019167	0,1	0,205062
3,020833	0,1	0,172289
3,022500	0,1	0,181801
3,024167	0,1	0,169775
3,025833	0,1	0,185887
3,027500	0,1	0,206990
3,029167	0,1	0,179849
3,030833	0,1	0,152214
3,032500	0,1	0,236636
3,034167	0,1	0,167249
3,035833	0,1	0,192383
3,037500	0,1	0,156784
3,039167	0,1	0,156487
3,040833	0,1	0,164142
3,042500	0,1	0,158257
3,044167	0,1	0,182475
3,045833	0,1	0,149997
3,047500	0,1	0,191574
3,049167	0,1	0,157589
3,050833	0,1	0,196914
3,052500	0,1	0,159006
3,054167	0,1	0,165365
3,055833	0,1	0,160444
3,057500	0,1	0,149958
3,059167	0,1	0,169574
3,060833	0,1	0,164883
3,062500	0,1	0,145104
3,064167	0,1	0,163175
3,065833	0,1	0,171477
3,067500	0,1	0,166749
3,069167	0,1	0,168421
3,070833	0,1	0,174146
3,072500	0,1	0,154399
3,074167	0,1	0,156873
3,075833	0,1	0,153495
3,077500	0,1	0,141887
3,079167	0,1	0,128698
3,080833	0,1	0,144227
3,082500	0,1	0,161275
3,084167	0,1	0,220814
3,085833	0,1	0,161135
3,087500	0,1	0,143784
3,089167	0,1	0,129726
3,090833	0,1	0,162752
3,092500	0,1	0,156554
3,094167	0,1	0,155875
3,095833	0,1	0,158353
3,097500	0,1	0,174949
3,099167	0,1	0,166171
3,100833	0,1	0,123718
3,102500	0,1	0,147732
3,104167	0,1	0,151499
3,105833	0,1	0,156068
3,107500	0,1	0,149058
3,109167	0,1	0,139794
3,110833	0,1	0,169058
3,112500	0,1	0,133786
3,114167	0,1	0,155935
3,115833	0,1	0,123428
3,117500	0,1	0,135255
3,119167	0,1	0,126476
3,120833	0,1	0,123258
3,122500	0,1	0,152878
3,124167	0,1	0,124198
3,125833	0,1	0,104282
3,127500	0,1	0,125988
3,129167	0,1	0,109111
3,130833	0,1	0,136536
3,132500	0,1	0,079174
3,134167	0,1	0,101315
3,135833	0,1	0,130778
3,137500	0,1	0,097984
3,139167	0,1	0,142132
3,140833	0,1	0,106510
3,142500	0,1	0,100359
3,144167	0,1	0,114250
3,145833	0,1	0,118851
3,147500	0,1	0,125863
3,149167	0,1	0,139822
3,150833	0,1	0,109143
3,152500	0,1	0,097400
3,154167	0,1	0,109520
3,155833	0,1	0,151812
3,157500	0,1	0,146613
3,159167	0,1	0,095383
3,160833	0,1	0,089327
3,162500	0,1	0,085335
3,164167	0,1	0,105210
3,165833	0,1	0,098813
3,167500	0,1	0,122736
3,169167	0,1	0,098561
3,170833	0,1	0,065405
3,172500	0,1	0,143795
3,174167	0,1	0,096540
3,175833	0,1	0,078458
3,177500	0,1	0,119710
3,179167	0,1	0,097789
3,180833	0,1	0,096462
3,182500	0,1	0,117689
3,184167	0,1	0,137827
3,185833	0,1	0,082135
3,187500	0,1	0,121704
3,189167	0,1	0,060261
3,190833	0,1	0,133212
3,192500	0,1	0,101008
3,194167	0,1	0,081095
3,195833	0,1	0,084046
3,197500	0,1	0,106465
3,199167	0,1	0,104121
3,200833	0,1	0,097046
3,202500	0,1	0,106048
3,204167	0,1	0,091582
3,205833	0,1	0,088264
3,207500	0,1	0,098102
3,209167	0,1	0,080132
3,210833	0,1	0,114277
3,212500	0,1	0,053734
3,214167	0,1	0,086744
3,215833	0,1	0,090998
3,217500	0,1	0,090935
3,219167	0,1	0,081932
3,220833	0,1	0,097460
3,222500	0,1	0,067334
3,224167	0,1	0,069575
3,225833	0,1	0,107360
3,227500	0,1	0,101133
3,229167	0,1	0,060521
3,230833	0,1	0,084585
3,232500	0,1	0,073566
3,234167	0,1	0,043823
3,235833	0,1	0,031981
3,237500	0,1	0,094101
3,239167	0,1	0,089071
3,240833	0,1	0,047270
3,242500	0,1	0,090698
3,244167	0,1	0,059679
3,245833	0,1	0,054331
3,247500	0,1	0,068574
3,249167	0,1	0,071186
3,250833	0,1	0,026200
3,252500	0,1	0,125099
3,254167	0,1	0,094994
3,255833	0,1	0,041936
3,257500	0,1	0,078445
3,259167	0,1	0,082184
3,260833	0,1	0,076558
3,262500	0,1	0,083794
3,264167	0,1	0,057521
3,265833	0,1	0,040443
3,267500	0,1	0,076451
3,269167	0,1	0,005661
3,270833	0,1	0,050975
3,272500	0,1	0,047995
3,274167	0,1	0,083144
3,275833	0,1	0,029200
3,277500	0,1	0,064490
3,279167	0,1	0,064626
3,280833	0,1	0,042083
3,282500	0,1	0,028256
3,284167	0,1	0,048766
3,285833	0,1	0,012466
3,287500	0,1	0,049696
3,289167	0,1	0,029474
3,290833	0,1	0,058922
3,292500	0,1	0,060343
3,294167	0,1	0,012144
3,295833	0,1	0,034354
3,297500	0,1	0,008668
3,299167	0,1	0,054160
3,300833	0,1	0,029156
3,302500	0,1	0,014398
3,304167	0,1	0,068633
3,305833	0,1	0,061248
3,307500	0,1	0,063855
3,309167	0,1	0,046424
3,310833	0,1	0,048058
3,312500	0,1	0,009830
3,314167	0,1	0,071332
3,315833	0,1	0,067871
3,317500	0,1	0,020475
3,319167	0,1	0,049019
3,320833	0,1	0,079285
3,322500	0,1	0,075978
3,324167	0,1	0,053470
3,325833	0,1	0,001443
3,327500	0,1	0,064159
3,329167	0,1	0,052181
3,330833	0,1	0,070602
3,332500	0,1	0,038129
3,334167	0,1	0,025167
3,335833	0,1	0,037381
3,337500	0,1	0,067996
3,339167	0,1	0,020991
3,340833	0,1	0,026124
3,342500	0,1	0,019216
3,344167	0,1	0,077030
3,345833	0,1	0,059166
3,347500	0,1	0,016334
3,349167	0,1	0,063073
3,350833	0,1	0,028997
3,352500	0,1	0,022013
3,354167	0,1	0,044293
3,355833	0,1	0,019475
3,357500	0,1	-0,000266
3,359167	0,1	0,057149
3,360833	0,1	0,016558
3,362500	0,1	0,010346
3,364167	0,1	0,033422
3,365833	0,1	0,024298
3,367500	0,1	0,009634
3,369167	0,1	0,024447
3,370833	0,1	0,021306
3,372500	0,1	0,053138
3,374167	0,1	0,011668
3,375833	0,1	-0,012040
3,377500	0,1	0,029947
3,379167	0,1	0,007516
3,380833	0,1	-0,023969
3,382500	0,1	0,018468
3,384167	0,1	-0,020524
3,385833	0,1	0,024574
3,387500	0,1	-0,010108
3,389167	0,1	-0,002239
3,390833	0,1	0,037602
3,392500	0,1	0,052302
3,394167	0,1	-0,046886
3,395833	0,1	0,019071
3,397500	0,1	0,035035
3,399167	0,1	0,024714
3,400833	0,1	0,010304
3,402500	0,1	-0,015229
3,404167	0,1	-0,003852
3,405833	0,1	0,006285
3,407500	0,1	0,011106
3,409167	0,1	0,000917
3,410833	0,1	-0,001691
3,412500	0,1	-0,032165
3,414167	0,1	0,014835
3,415833	0,1	0,049150
3,417500	0,1	0,002792
3,419167	0,1	0,029435
3,420833	0,1	0,021689
3,422500	0,1	0,010594
3,424167	0,1	0,002910
3,425833	0,1	-0,001657
3,427500	0,1	-0,010559
3,429167	0,1	-0,008568
3,430833	0,1	0,021489
3,432500	0,1	0,009222
3,434167	0,1	0,033874
3,435833	0,1	-0,001295
3,437500	0,1	0,012073
3,439167	0,1	0,014548
3,440833	0,1	-0,002551
3,442500	0,1	-0,016354
3,444167	0,1	0,004035
3,445833	0,1	0,002945
3,447500	0,1	0,014998
3,449167	0,1	-0,015508
3,450833	0,1	0,009659
3,452500	0,1	0,003489
3,454167	0,1	-0,004546
3,455833	0,1	-0,022043
3,457500	0,1	-0,023523
3,459167	0,1	0,020879
3,460833	0,1	-0,018269
3,462500	0,1	-0,007448
3,464167	0,1	-0,042390
3,465833	0,1	0,016852
3,467500	0,1	-0,006535
3,469167	0,1	0,005967
3,470833	0,1	0,008605
3,472500	0,1	-0,030433
3,474167	0,1	0,002384
3,475833	0,1	-0,001720
3,477500	0,1	-0,003452
3,479167	0,1	-0,033515
3,480833	0,1	-0,011889
3,482500	0,1	-0,057431
3,484167	0,1	-0,012184
3,485833	0,1	-0,015806
3,487500	0,1	-0,029951
3,489167	0,1	-0,042849
3,490833	0,1	-0,058056
3,492500	0,1	0,016306
3,494167	0,1	-0,030486
3,495833	0,1	0,009176
3,497500	0,1	-0,005603
3,499167	0,1	-0,014616
3,500833	0,1	-0,026927
3,502500	0,1	0,002258
3,504167	0,1	0,002683
3,505833	0,1	-0,030273
3,507500	0,1	-0,017032
3,509167	0,1	-0,015516
3,510833	0,1	0,004226
3,512500	0,1	-0,010367
3,514167	0,1	-0,023195
3,515833	0,1	-0,072322
3,517500	0,1	0,002347
3,519167	0,1	-0,041973
3,520833	0,1	-0,023817
3,522500	0,1	-0,033583
3,524167	0,1	-0,037190
3,525833	0,1	-0,056099
3,527500	0,1	0,003058
3,529167	0,1	-0,033478
3,530833	0,1	-0,027511
3,532500	0,1	-0,034455
3,534167	0,1	-0,065088
3,535833	0,1	-0,023081
3,537500	0,1	-0,013038
3,539167	0,1	-0,026799
3,540833	0,1	-0,021786
3,542500	0,1	-0,016359
3,544167	0,1	0,014802
3,545833	0,1	-0,058911
3,547500	0,1	0,000930
3,549167	0,1	-0,006547
3,550833	0,1	-0,006612
3,552500	0,1	-0,015259
3,554167	0,1	0,011236
3,555833	0,1	-0,016604
3,557500	0,1	0,010465
3,559167	0,1	-0,020047
3,560833	0,1	0,006352
3,562500	0,1	-0,029946
3,564167	0,1	-0,036837
3,565833	0,1	-0,031603
3,567500	0,1	-0,028704
3,569167	0,1	-0,055418
3,570833	0,1	-0,025460
3,572500	0,1	-0,016968
3,574167	0,1	-0,049338
3,575833	0,1	-0,027803
3,577500	0,1	-0,029447
3,579167	0,1	-0,046833
3,580833	0,1	-0,017933
3,582500	0,1	-0,026547
3,584167	0,1	-0,041074
3,585833	0,1	-0,037508
3,587500	0,1	-0,049343
3,589167	0,1	-0,054942
3,590833	0,1	-0,025685
3,592500	0,1	-0,012848
3,594167	0,1	-0,025675
3,595833	0,1	-0,012565
3,597500	0,1	-0,039658
3,599167	0,1	-0,030473
3,600833	0,1	-0,024910
3,602500	0,1	-0,009442
3,604167	0,1	-0,032421
3,605833	0,1	-0,045449
3,607500	0,1	-0,039602
3,609167	0,1	-0,041755
3,610833	0,1	-0,050784
3,612500	0,1	-0,065320
3,614167	0,1	-0,016234
3,615833	0,1	-0,008824
3,617500	0,1	-0,018766
3,619167	0,1	-0,035058
3,620833	0,1	-0,020148
3,622500	0,1	-0,030541
3,624167	0,1	0,003805
3,625833	0,1	-0,053418
3,627500	0,1	-0,018223
3,629167	0,1	-0,079909
3,630833	0,1	-0,038198
3,632500	0,1	0,014733
3,634167	0,1	-0,033738
3,635833	0,1	-0,060046
3,637500	0,1	-0,008419
3,639167	0,1	-0,071648
3,640833	0,1	-0,047524
3,642500	0,1	-0,002502
3,644167	0,1	-0,033252
3,645833	0,1	0,009366
3,647500	0,1	-0,045376
3,649167	0,1	-0,058019
3,650833	0,1	-0,021866
3,652500	0,1	-0,018977
3,654167	0,1	-0,024391
3,655833	0,1	-0,037225
3,657500	0,1	-0,028988
3,659167	0,1	-0,071554
3,660833	0,1	-0,031213
3,662500	0,1	-0,047314
3,664167	0,1	-0,043660
3,665833	0,1	-0,001186
3,667500	0,1	-0,050230
3,669167	0,1	-0,068696
3,670833	0,1	-0,016652
3,672500	0,1	0,008918
3,674167	0,1	-0,036727
3,675833	0,1	-0,060110
3,677500	0,1	-0,009967
3,679167	0,1	-0,024417
3,680833	0,1	-0,015094
3,682500	0,1	-0,046287
3,684167	0,1	-0,041341
3,685833	0,1	-0,067925
3,687500	0,1	-0,055390
3,689167	0,1	-0,077926
3,690833	0,1	-0,033850
3,692500	0,1	-0,012559
3,694167	0,1	-0,048368
3,695833	0,1	-0,064322
3,697500	0,1	-0,000252
3,699167	0,1	-0,001395
3,700833	0,1	-0,028209
3,702500	0,1	-0,026160
3,704167	0,1	-0,070078
3,705833	0,1	-0,039127
3,707500	0,1	-0,029568
3,709167	0,1	0,012582
3,710833	0,1	-0,013127
3,712500	0,1	-0,023357
3,714167	0,1	-0,005902
3,715833	0,1	-0,027377
3,717500	0,1	-0,079884
3,719167	0,1	-0,015078
3,720833	0,1	-0,055278
3,722500	0,1	-0,021375
3,724167	0,1	-0,050789
3,725833	0,1	-0,055487
3,727500	0,1	-0,051656
3,729167	0,1	-0,071142
3,730833	0,1	-0,015592
3,732500	0,1	-0,030531
3,734167	0,1	-0,012812
3,735833	0,1	-0,038977
3,737500	0,1	-0,041049
3,739167	0,1	-0,035481
3,740833	0,1	-0,019949
3,742500	0,1	-0,033456
3,744167	0,1	-0,046181
3,745833	0,1	-0,014943
3,747500	0,1	-0,041904
3,749167	0,1	-0,020313
3,750833	0,1	-0,022482
3,752500	0,1	-0,062552
3,754167	0,1	-0,056965
3,755833	0,1	-0,008029
3,757500	0,1	-0,031815
3,759167	0,1	-0,031656
3,760833	0,1	-0,048572
3,762500	0,1	-0,056238
3,764167	0,1	-0,047219
3,765833	0,1	-0,016195
3,767500	0,1	-0,023459
3,769167	0,1	-0,041878
3,770833	0,1	-0,044400
3,772500	0,1	-0,020277
3,774167	0,1	-0,049567
3,775833	0,1	-0,022633
3,777500	0,1	0,021847
3,779167	0,1	-0,043507
3,780833	0,1	0,030971
3,782500	0,1	-0,041421
3,784167	0,1	-0,021273
3,785833	0,1	-0,005229
3,787500	0,1	-0,036378
3,789167	0,1	-0,013366
3,790833	0,1	-0,015417
3,792500	0,1	-0,038889
3,794167	0,1	-0,033117
3,795833	0,1	-0,069462
3,797500	0,1	-0,015917
3,799167	0,1	-0,035374
3,800833	0,1	-0,016163
3,802500	0,1	-0,029625
3,804167	0,1	-0,040014
3,805833	0,1	-0,044263
3,807500	0,1	-0,040207
3,809167	0,1	-0,017669
3,810833	0,1	-0,029081
3,812500	0,1	-0,021406
3,814167	0,1	-0,038764
3,815833	0,1	-0,023265
3,817500	0,1	-0,005902
3,819167	0,1	-0,034928
3,820833	0,1	-0,053291
3,822500	0,1	-0,057986
3,824167	0,1	-0,023595
3,825833	0,1	-0,022201
3,827500	0,1	-0,019602
3,829167	0,1	-0,016966
3,830833	0,1	0,009983
3,832500	0,1	-0,024257
3,834167	0,1	-0,022527
3,835833	0,1	-0,036218
3,837500	0,1	-0,039889
3,839167	0,1	-0,036422
3,840833	0,1	-0,047642
3,842500	0,1	-0,039413
3,844167	0,1	-0,023110
3,845833	0,1	-0,043616
3,847500	0,1	-0,041946
3,849167	0,1	-0,043032
3,850833	0,1	-0,045452
3,852500	0,1	-0,052949
3,854167	0,1	-0,036805
3,855833	0,1	-0,014425
3,857500	0,1	-0,060168
3,859167	0,1	-0,054266
3,860833	0,1	-0,032596
3,862500	0,1	-0,017739
3,864167	0,1	0,000593
3,865833	0,1	-0,028281
3,867500	0,1	-0,022790
3,869167	0,1	-0,040430
3,870833	0,1	-0,047579
3,872500	0,1	-0,054643
3,874167	0,1	-0,049638
3,875833	0,1	-0,030185
3,877500	0,1	-0,023678
3,879167	0,1	-0,019666
3,880833	0,1	-0,046478
3,882500	0,1	-0,050874
3,884167	0,1	-0,056066
3,885833	0,1	-0,051894
3,887500	0,1	-0,026936
3,889167	0,1	-0,060561
3,890833	0,1	-0,036037
3,892500	0,1	-0,059657
3,894167	0,1	0,012257
3,895833	0,1	-0,012132
3,897500	0,1	-0,041875
3,899167	0,1	0,000841
3,900833	0,1	-0,001848
3,902500	0,1	-0,046889
3,904167	0,1	-0,037231
3,905833	0,1	-0,067218
3,907500	0,1	-0,043149
3,909167	0,1	-0,036967
3,910833	0,1	-0,044744
3,912500	0,1	-0,053683
3,914167	0,1	-0,021729
3,915833	0,1	-0,015101
3,917500	0,1	-0,028374
3,919167	0,1	-0,024012
3,920833	0,1	-0,013779
3,922500	0,1	-0,032079
3,924167	0,1	-0,034066
3,925833	0,1	-0,027511
3,927500	0,1	-0,077856
3,929167	0,1	-0,037717
3,930833	0,1	-0,013367
3,932500	0,1	-0,048342
3,934167	0,1	-0,034659
3,935833	0,1	-0,036512
3,937500	0,1	-0,038286
3,939167	0,1	-0,053555
3,940833	0,1	-0,019673
3,942500	0,1	-0,020787
3,944167	0,1	-0,020588
3,945833	0,1	-0,041234
3,947500	0,1	-0,040244
3,949167	0,1	-0,038705
3,950833	0,1	-0,041818
3,952500	0,1	-0,052976
3,954167	0,1	-0,045099
3,955833	0,1	-0,055169
3,957500	0,1	-0,028320
3,959167	0,1	-0,055092
3,960833	0,1	-0,017165
3,962500	0,1	-0,027054
3,964167	0,1	-0,030252
3,965833	0,1	-0,039599
3,967500	0,1	0,010071
3,969167	0,1	-0,031294
3,970833	0,1	-0,050754
3,972500	0,1	-0,070941
3,974167	0,1	-0,025401
3,975833	0,1	-0,060786
3,977500	0,1	-0,035784
3,979167	0,1	-0,041754
3,980833	0,1	-0,061306
3,982500	0,1	-0,017265
3,984167	0,1	-0,043878
3,985833	0,1	-0,021473
3,987500	0,1	-0,057634
3,989167	0,1	-0,037648
3,990833	0,1	-0,062039
3,992500	0,1	-0,008300
3,994167	0,1	-0,044347
3,995833	0,1	-0,032204
3,997500	0,1	-0,021306
3,999167	0,1	-0,051521
4,000833	0,1	-0,022824
4,002500	0,1	-0,025035
4,004167	0,1	-0,002531
4,005833	0,1	-0,025384
4,007500	0,1	-0,091861
4,009167	0,1	-0,023540
4,010833	0,1	-0,062868
4,012500	0,1	-0,074169
4,014167	0,1	-0,015013
4,015833	0,1	-0,005963
4,017500	0,1	-0,050523
4,019167	0,1	-0,034397
4,020833	0,1	-0,048373
4,022500	0,1	-0,029253
4,024167	0,1	-0,012693
4,025833	0,1	-0,056862
4,027500	0,1	-0,032695
4,029167	0,1	-0,059277
4,030833	0,1	-0,042403
4,032500	0,1	-0,027991
4,034167	0,1	-0,066120
4,035833	0,1	-0,045973
4,037500	0,1	-0,054362
4,039167	0,1	0,014405
4,040833	0,1	-0,061710
4,042500	0,1	-0,020734
4,044167	0,1	-0,040601
4,045833	0,1	-0,038214
4,047500	0,1	-0,055382
4,049167	0,1	-0,028963
4,050833	0,1	-0,026186
4,052500	0,1	-0,038575
4,054167	0,1	-0,090614
4,055833	0,1	-0,037593
4,057500	0,1	-0,053390
4,059167	0,1	-0,109879
4,060833	0,1	-0,051137
4,062500	0,1	-0,056709
4,064167	0,1	-0,055450
4,065833	0,1	-0,052916
4,067500	0,1	-0,040029
4,069167	0,1	-0,047896
4,070833	0,1	-0,036677
4,072500	0,1	-0,048095
4,074167	0,1	-0,087315
4,075833	0,1	-0,042536
4,077500	0,1	-0,057955
4,079167	0,1	-0,037132
4,080833	0,1	-0,052595
4,082500	0,1	-0,036352
4,084167	0,1	-0,038413
4,085833	0,1	-0,076183
4,087500	0,1	-0,102372
4,089167	0,1	-0,041871
4,090833	0,1	-0,061461
4,092500	0,1	-0,030089
4,094167	0,1	-0,047992
4,095833	0,1	-0,025658
4,097500	0,1	-0,045964
4,099167	0,1	-0,010705
4,100833	0,1	-0,081481
4,102500	0,1	-0,045296
4,104167	0,1	-0,041341
4,105833	0,1	-0,055636
4,107500	0,1	-0,058728
4,109167	0,1	-0,069369
4,110833	0,1	-0,043203
4,112500	0,1	-0,083934
4,114167	0,1	-0,025239
4,115833	0,1	-0,034553
4,117500	0,1	-0,044588
4,119167	0,1	-0,040372
4,120833	0,1	-0,036722
4,122500	0,1	-0,029339
4,124167	0,1	-0,043646
4,125833	0,1	-0,065708
4,127500	0,1	-0,069090
4,129167	0,1	-0,057129
4,130833	0,1	-0,037123
4,132500	0,1	-0,091095
4,134167	0,1	-0,043107
4,135833	0,1	-0,045642
4,137500	0,1	-0,090364
4,139167	0,1	-0,043180
4,140833	0,1	-0,047897
4,142500	0,1	-0,111326
4,144167	0,1	-0,066466
4,145833	0,1	-0,040767
4,147500	0,1	-0,056191
4,149167	0,1	-0,080333
4,150833	0,1	-0,059513
4,152500	0,1	-0,029091
4,154167	0,1	-0,042560
4,155833	0,1	-0,054072
4,157500	0,1	-0,026483
4,159167	0,1	-0,073518
4,160833	0,1	-0,084991
4,162500	0,1	-0,087538
4,164167	0,1	-0,041279
4,165833	0,1	-0,059795
4,167500	0,1	-0,057380
4,169167	0,1	-0,066291
4,170833	0,1	-0,047158
4,172500	0,1	-0,044240
4,174167	0,1	-0,081075
4,175833	0,1	-0,046655
4,177500	0,1	-0,041858
4,179167	0,1	-0,065065
4,180833	0,1	-0,076316
4,182500	0,1	-0,058280
4,184167	0,1	-0,025008
4,185833	0,1	-0,059247
4,187500	0,1	-0,093191
4,189167	0,1	-0,078034
4,190833	0,1	-0,047171
4,192500	0,1	-0,031533
4,194167	0,1	-0,064192
4,195833	0,1	-0,108344
4,197500	0,1	-0,055174
4,199167	0,1	-0,040672
4,200833	0,1	-0,044482
4,202500	0,1	-0,061486
4,204167	0,1	-0,058377
4,205833	0,1	-0,047999
4,207500	0,1	-0,048097
4,209167	0,1	-0,074482
4,210833	0,1	-0,057991
4,212500	0,1	-0,083839
4,214167	0,1	-0,068831
4,215833	0,1	-0,081180
4,217500	0,1	-0,086894
4,219167	0,1	-0,030159
4,220833	0,1	-0,068238
4,222500	0,1	-0,074033
4,224167	0,1	-0,078862
4,225833	0,1	-0,065942
4,227500	0,1	-0,087217
4,229167	0,1	-0,088283
4,230833	0,1	-0,042891
4,232500	0,1	-0,092445
4,234167	0,1	-0,074682
4,235833	0,1	-0,088796
4,237500	0,1	-0,084236
4,239167	0,1	-0,090021
4,240833	0,1	-0,065466
4,242500	0,1	-0,033847
4,244167	0,1	-0,055645
4,245833	0,1	-0,049828
4,247500	0,1	-0,042590
4,249167	0,1	-0,022179
4,250833	0,1	-0,080841
4,252500	0,1	-0,041892
4,254167	0,1	-0,103247
4,255833	0,1	-0,100789
4,257500	0,1	-0,086748
4,259167	0,1	-0,085231
4,260833	0,1	-0,087197
4,262500	0,1	-0,081247
4,264167	0,1	-0,036723
4,265833	0,1	-0,096853
4,267500	0,1	-0,052863
4,269167	0,1	-0,024843
4,270833	0,1	-0,055607
4,272500	0,1	-0,028764
4,274167	0,1	-0,045157
4,275833	0,1	-0,067058
4,277500	0,1	-0,098500
4,279167	0,1	-0,061446
4,280833	0,1	-0,074776
4,282500	0,1	-0,076455
4,284167	0,1	-0,052240
4,285833	0,1	-0,069856
4,287500	0,1	-0,040730
4,289167	0,1	-0,061686
4,290833	0,1	-0,054910
4,292500	0,1	-0,068662
4,294167	0,1	-0,056777
4,295833	0,1	-0,085034
4,297500	0,1	-0,095227
4,299167	0,1	-0,078315
4,300833	0,1	-0,077440
4,302500	0,1	-0,111976
4,304167	0,1	-0,072544
4,305833	0,1	-0,076001
4,307500	0,1	-0,091278
4,309167	0,1	-0,063489
4,310833	0,1	-0,073843
4,312500	0,1	-0,089238
4,314167	0,1	-0,085484
4,315833	0,1	-0,089151
4,317500	0,1	-0,076448
4,319167	0,1	-0,060208
4,320833	0,1	-0,074070
4,322500	0,1	-0,035172
4,324167	0,1	-0,038704
4,325833	0,1	-0,044326
4,327500	0,1	-0,067964
4,329167	0,1	-0,045131
4,330833	0,1	-0,100487
4,332500	0,1	-0,072113
4,334167	0,1	-0,065652
4,335833	0,1	-0,093294
4,337500	0,1	-0,068028
4,339167	0,1	-0,089852
4,340833	0,1	-0,052018
4,342500	0,1	-0,046195
4,344167	0,1	-0,070814
4,345833	0,1	-0,085858
4,347500	0,1	-0,069765
4,349167	0,1	-0,090369
4,350833	0,1	-0,037140
4,352500	0,1	-0,089683
4,354167	0,1	-0,053276
4,355833	0,1	-0,075670
4,357500	0,1	-0,074288
4,359167	0,1	-0,037779
4,360833	0,1	-0,087664
4,362500	0,1	-0,088673
4,364167	0,1	-0,062983
4,365833	0,1	-0,076477
4,367500	0,1	-0,082873
4,369167	0,1	-0,091532
4,370833	0,1	-0,044757
4,372500	0,1	-0,072943
4,374167	0,1	-0,084194
4,375833	0,1	-0,064875
4,377500	0,1	-0,117368
4,379167	0,1	-0,046980
4,380833	0,1	-0,066341
4,382500	0,1	-0,091138
4,384167	0,1	-0,027461
4,385833	0,1	-0,047991
4,387500	0,1	-0,030865
4,389167	0,1	-0,041908
4,390833	0,1	-0,084703
4,392500	0,1	-0,058935
4,394167	0,1	-0,043717
4,395833	0,1	-0,091613
4,397500	0,1	-0,066388
4,399167	0,1	-0,059563
4,400833	0,1	-0,047989
4,402500	0,1	-0,080342
4,404167	0,1	-0,083844
4,405833	0,1	-0,076194
4,407500	0,1	-0,089992
4,409167	0,1	-0,030992
4,410833	0,1	-0,113025
4,412500	0,1	-0,052930
4,414167	0,1	-0,105352
4,415833	0,1	-0,104647
4,417500	0,1	-0,107533
4,419167	0,1	-0,052349
4,420833	0,1	-0,086925
4,422500	0,1	-0,111978
4,424167	0,1	-0,061224
4,425833	0,1	-0,037830
4,427500	0,1	-0,088875
4,429167	0,1	-0,032224
4,430833	0,1	-0,037091
4,432500	0,1	-0,089076
4,434167	0,1	-0,051059
4,435833	0,1	-0,055006
4,437500	0,1	-0,038091
4,439167	0,1	-0,046508
4,440833	0,1	-0,074962
4,442500	0,1	-0,081181
4,444167	0,1	-0,061885
4,445833	0,1	-0,099911
4,447500	0,1	-0,078994
4,449167	0,1	-0,078989
4,450833	0,1	-0,059667
4,452500	0,1	-0,054646
4,454167	0,1	-0,020253
4,455833	0,1	-0,087281
4,457500	0,1	-0,106760
4,459167	0,1	-0,079587
4,460833	0,1	-0,071176
4,462500	0,1	-0,030570
4,464167	0,1	-0,059339
4,465833	0,1	-0,059182
4,467500	0,1	-0,069896
4,469167	0,1	-0,085971
4,470833	0,1	-0,101139
4,472500	0,1	-0,067398
4,474167	0,1	-0,082591
4,475833	0,1	-0,069347
4,477500	0,1	-0,086803
4,479167	0,1	-0,088319
4,480833	0,1	-0,071442
4,482500	0,1	-0,071221
4,484167	0,1	-0,046807
4,485833	0,1	-0,086759
4,487500	0,1	-0,101428
4,489167	0,1	-0,096328
4,490833	0,1	-0,056882
4,492500	0,1	-0,057417
4,494167	0,1	-0,115375
4,495833	0,1	-0,048494
4,497500	0,1	-0,085260
4,499167	0,1	-0,060248
4,500833	0,1	-0,045101
4,502500	0,1	-0,071231
4,504167	0,1	-0,082076
4,505833	0,1	-0,092076
4,507500	0,1	-0,070435
4,509167	0,1	-0,086930
4,510833	0,1	-0,060449
4,512500	0,1	-0,086485
4,514167	0,1	-0,066903
4,515833	0,1	-0,073528
4,517500	0,1	-0,049453
4,519167	0,1	-0,053684
4,520833	0,1	-0,111871
4,522500	0,1	-0,062409
4,524167	0,1	-0,091491
4,525833	0,1	-0,079446
4,527500	0,1	-0,079723
4,529167	0,1	-0,113806
4,530833	0,1	-0,073187
4,532500	0,1	-0,070658
4,534167	0,1	-0,076669
4,535833	0,1	-0,105989
4,537500	0,1	-0,084592
4,539167	0,1	-0,049281
4,540833	0,1	-0,083699
4,542500	0,1	-0,102677
4,544167	0,1	-0,099984
4,545833	0,1	-0,136372
4,547500	0,1	-0,092050
4,549167	0,1	-0,110681
4,550833	0,1	-0,094263
4,552500	0,1	-0,066290
4,554167	0,1	-0,093445
4,555833	0,1	-0,099793
4,557500	0,1	-0,070538
4,559167	0,1	-0,052556
4,560833	0,1	-0,115310
4,562500	0,1	-0,089600
4,564167	0,1	-0,055496
4,565833	0,1	-0,101006
4,567500	0,1	-0,093228
4,569167	0,1	-0,110015
4,570833	0,1	-0,081280
4,572500	0,1	-0,077869
4,574167	0,1	-0,079632
4,575833	0,1	-0,142026
4,577500	0,1	-0,116077
4,579167	0,1	-0,122108
4,580833	0,1	-0,069293
4,582500	0,1	-0,117823
4,584167	0,1	-0,106353
4,585833	0,1	-0,118375
4,587500	0,1	-0,069773
4,589167	0,1	-0,080059
4,590833	0,1	-0,114800
4,592500	0,1	-0,091855
4,594167	0,1	-0,112685
4,595833	0,1	-0,101284
4,597500	0,1	-0,128430
4,599167	0,1	-0,104842
4,600833	0,1	-0,091375
4,602500	0,1	-0,103610
4,604167	0,1	-0,093202
4,605833	0,1	-0,124383
4,607500	0,1	-0,122223
4,609167	0,1	-0,131586
4,610833	0,1	-0,098036
4,612500	0,1	-0,090214
4,614167	0,1	-0,115283
4,615833	0,1	-0,133450
4,617500	0,1	-0,076796
4,619167	0,1	-0,130290
4,620833	0,1	-0,144610
4,622500	0,1	-0,109484
4,624167	0,1	-0,117216
4,625833	0,1	-0,128348
4,627500	0,1	-0,120269
4,629167	0,1	-0,155055
4,630833	0,1	-0,107194
4,632500	0,1	-0,070930
4,634167	0,1	-0,150241
4,635833	0,1	-0,123880
4,637500	0,1	-0,094330
4,639167	0,1	-0,137342
4,640833	0,1	-0,067885
4,642500	0,1	-0,112000
4,644167	0,1	-0,130590
4,645833	0,1	-0,109003
4,647500	0,1	-0,159780
4,649167	0,1	-0,116029
4,650833	0,1	-0,113195
4,652500	0,1	-0,147528
4,654167	0,1	-0,085663
4,655833	0,1	-0,179660
4,657500	0,1	-0,127743
4,659167	0,1	-0,110942
4,660833	0,1	-0,119788
4,662500	0,1	-0,149749
4,664167	0,1	-0,119104
4,665833	0,1	-0,139048
4,667500	0,1	-0,118962
4,669167	0,1	-0,115290
4,670833	0,1	-0,160864
4,672500	0,1	-0,124173
4,674167	0,1	-0,126898
4,675833	0,1	-0,129434
4,677500	0,1	-0,127960
4,679167	0,1	-0,120660
4,680833	0,1	-0,148324
4,682500	0,1	-0,111791
4,684167	0,1	-0,135504
4,685833	0,1	-0,190701
4,687500	0,1	-0,159697
4,689167	0,1	-0,162323
4,690833	0,1	-0,117103
4,692500	0,1	-0,135796
4,694167	0,1	-0,140149
4,695833	0,1	-0,117097
4,697500	0,1	-0,161419
4,699167	0,1	-0,165186
4,700833	0,1	-0,087431
4,702500	0,1	-0,138158
4,704167	0,1	-0,139847
4,705833	0,1	-0,146626
4,707500	0,1	-0,154733
4,709167	0,1	-0,135842
4,710833	0,1	-0,176521
4,712500	0,1	-0,140890
4,714167	0,1	-0,171506
4,715833	0,1	-0,141303
4,717500	0,1	-0,148721
4,719167	0,1	-0,163757
4,720833	0,1	-0,169975
4,722500	0,1	-0,152481
4,724167	0,1	-0,144764
4,725833	0,1	-0,147662
4,727500	0,1	-0,142255
4,729167	0,1	-0,150523
4,730833	0,1	-0,164124
4,732500	0,1	-0,144932
4,734167	0,1	-0,161717
4,735833	0,1	-0,134873
4,737500	0,1	-0,165782
4,739167	0,1	-0,179390
4,740833	0,1	-0,167093
4,742500	0,1	-0,154675
4,744167	0,1	-0,161413
4,745833	0,1	-0,157056
4,747500	0,1	-0,160231
4,749167	0,1	-0,118097
4,750833	0,1	-0,189450
4,752500	0,1	-0,180744
4,754167	0,1	-0,151238
4,755833	0,1	-0,164375
4,757500	0,1	-0,155420
4,759167	0,1	-0,114301
4,760833	0,1	-0,152571
4,762500	0,1	-0,146606
4,764167	0,1	-0,143100
4,765833	0,1	-0,157506
4,767500	0,1	-0,143682
4,769167	0,1	-0,148721
4,770833	0,1	-0,207767
4,772500	0,1	-0,174359
4,774167	0,1	-0,161747
4,775833	0,1	-0,172319
4,777500	0,1	-0,171199
4,779167	0,1	-0,192058
4,780833	0,1	-0,155803
4,782500	0,1	-0,161366
4,784167	0,1	-0,149280
4,785833	0,1	-0,178744
4,787500	0,1	-0,223365
4,789167	0,1	-0,173557
4,790833	0,1	-0,163487
4,792500	0,1	-0,130374
4,794167	0,1	-0,166424
4,795833	0,1	-0,157677
4,797500	0,1	-0,194460
4,799167	0,1	-0,128946
4,800833	0,1	-0,165429
4,802500	0,1	-0,173174
4,804167	0,1	-0,160712
4,805833	0,1	-0,181794
4,807500	0,1	-0,166185
4,809167	0,1	-0,181710
4,810833	0,1	-0,146222
4,812500	0,1	-0,181956
4,814167	0,1	-0,211342
4,815833	0,1	-0,199827
4,817500	0,1	-0,176827
4,819167	0,1	-0,175825
4,820833	0,1	-0,170583
4,822500	0,1	-0,135720
4,824167	0,1	-0,189353
4,825833	0,1	-0,171934
4,827500	0,1	-0,203940
4,829167	0,1	-0,174609
4,830833	0,1	-0,148337
4,832500	0,1	-0,192608
4,834167	0,1	-0,176205
4,835833	0,1	-0,196041
4,837500	0,1	-0,175745
4,839167	0,1	-0,186297
4,840833	0,1	-0,206201
4,842500	0,1	-0,159498
4,844167	0,1	-0,188346
4,845833	0,1	-0,202863
4,847500	0,1	-0,207428
4,849167	0,1	-0,161403
4,850833	0,1	-0,200035
4,852500	0,1	-0,162561
4,854167	0,1	-0,199665
4,855833	0,1	-0,200254
4,857500	0,1	-0,216071
4,859167	0,1	-0,198472
4,860833	0,1	-0,145809
4,862500	0,1	-0,192967
4,864167	0,1	-0,180933
4,865833	0,1	-0,192828
4,867500	0,1	-0,138246
4,869167	0,1	-0,159998
4,870833	0,1	-0,184945
4,872500	0,1	-0,155322
4,874167	0,1	-0,199601
4,875833	0,1	-0,145646
4,877500	0,1	-0,194457
4,879167	0,1	-0,181363
4,880833	0,1	-0,191998
4,882500	0,1	-0,190778
4,884167	0,1	-0,150849
4,885833	0,1	-0,226468
4,887500	0,1	-0,206437
4,889167	0,1	-0,177761
4,890833	0,1	-0,162290
4,892500	0,1	-0,195520
4,894167	0,1	-0,200528
4,895833	0,1	-0,199674
4,897500	0,1	-0,189783
4,899167	0,1	-0,230145
4,900833	0,1	-0,225288
4,902500	0,1	-0,196053
4,904167	0,1	-0,192211
4,905833	0,1	-0,199877
4,907500	0,1	-0,180393
4,909167	0,1	-0,199089
4,910833	0,1	-0,206869
4,912500	0,1	-0,194472
4,914167	0,1	-0,189766
4,915833	0,1	-0,205911
4,917500	0,1	-0,200798
4,919167	0,1	-0,223808
4,920833	0,1	-0,239089
4,922500	0,1	-0,211957
4,924167	0,1	-0,170754
4,925833	0,1	-0,208126
4,927500	0,1	-0,219600
4,929167	0,1	-0,217966
4,930833	0,1	-0,212824
4,932500	0,1	-0,178076
4,934167	0,1	-0,193681
4,935833	0,1	-0,182344
4,937500	0,1	-0,213975
4,939167	0,1	-0,170880
4,940833	0,1	-0,201345
4,942500	0,1	-0,203618
4,944167	0,1	-0,193703
4,945833	0,1	-0,209980
4,947500	0,1	-0,208966
4,949167	0,1	-0,226630
4,950833	0,1	-0,211853
4,952500	0,1	-0,214004
4,954167	0,1	-0,232683
4,955833	0,1	-0,215916
4,957500	0,1	-0,204781
4,959167	0,1	-0,197293
4,960833	0,1	-0,179546
4,962500	0,1	-0,235620
4,964167	0,1	-0,196118
4,965833	0,1	-0,257450
4,967500	0,1	-0,229418
4,969167	0,1	-0,238179
4,970833	0,1	-0,226450
4,972500	0,1	-0,241329
4,974167	0,1	-0,206590
4,975833	0,1	-0,183294
4,977500	0,1	-0,195422
4,979167	0,1	-0,213545
4,980833	0,1	-0,219288
4,982500	0,1	-0,206789
4,984167	0,1	-0,177723
4,985833	0,1	-0,237381
4,987500	0,1	-0,171466
4,989167	0,1	-0,219011
4,990833	0,1	-0,213279
4,992500	0,1	-0,181455
4,994167	0,1	-0,194732
4,995833	0,1	-0,208962
4,997500	0,1	-0,193274
4,999167	0,1	-0,264331
5,000833	0,1	-0,236864
5,002500	0,1	-0,240151
5,004167	0,1	-0,188099
5,005833	0,1	-0,247042
5,007500	0,1	-0,201968
5,009167	0,1	-0,241820
5,010833	0,1	-0,211982
5,012500	0,1	-0,228184
5,014167	0,1	-0,198082
5,015833	0,1	-0,223766
5,017500	0,1	-0,216619
5,019167	0,1	-0,230009
5,020833	0,1	-0,220271
5,022500	0,1	-0,221986
5,024167	0,1	-0,240373
5,025833	0,1	-0,241955
5,027500	0,1	-0,228810
5,029167	0,1	-0,243549
5,030833	0,1	-0,205281
5,032500	0,1	-0,232407
5,034167	0,1	-0,221988
5,035833	0,1	-0,232331
5,037500	0,1	-0,251863
5,039167	0,1	-0,228774
5,040833	0,1	-0,192595
5,042500	0,1	-0,212134
5,044167	0,1	-0,214170
5,045833	0,1	-0,228952
5,047500	0,1	-0,202582
5,049167	0,1	-0,265268
5,050833	0,1	-0,227554
5,052500	0,1	-0,199806
5,054167	0,1	-0,167186
5,055833	0,1	-0,221496
5,057500	0,1	-0,235880
5,059167	0,1	-0,213179
5,060833	0,1	-0,248562
5,062500	0,1	-0,248177
5,064167	0,1	-0,185530
5,065833	0,1	-0,202429
5,067500	0,1	-0,237468
5,069167	0,1	-0,193177
5,070833	0,1	-0,176246
5,072500	0,1	-0,237131
5,074167	0,1	-0,219318
5,075833	0,1	-0,204428
5,077500	0,1	-0,189643
5,079167	0,1	-0,235867
5,080833	0,1	-0,219544
5,082500	0,1	-0,242904
5,084167	0,1	-0,191329
5,085833	0,1	-0,212237
5,087500	0,1	-0,198558
5,089167	0,1	-0,209314
5,090833	0,1	-0,236163
5,092500	0,1	-0,248463
5,094167	0,1	-0,231156
5,095833	0,1	-0,223006
5,097500	0,1	-0,241204
5,099167	0,1	-0,234264
5,100833	0,1	-0,257853
5,102500	0,1	-0,205018
5,104167	0,1	-0,262656
5,105833	0,1	-0,199839
5,107500	0,1	-0,249615
5,109167	0,1	-0,214037
5,110833	0,1	-0,259281
5,112500	0,1	-0,191584
5,114167	0,1	-0,245075
5,115833	0,1	-0,236960
5,117500	0,1	-0,223070
5,119167	0,1	-0,237330
5,120833	0,1	-0,246205
5,122500	0,1	-0,225559
5,124167	0,1	-0,244566
5,125833	0,1	-0,231364
5,127500	0,1	-0,267160
5,129167	0,1	-0,241363
5,130833	0,1	-0,263723
5,132500	0,1	-0,248119
5,134167	0,1	-0,233254
5,135833	0,1	-0,224583
5,137500	0,1	-0,208365
5,139167	0,1	-0,255299
5,140833	0,1	-0,249027
5,142500	0,1	-0,215549
5,144167	0,1	-0,225198
5,145833	0,1	-0,229910
5,147500	0,1	-0,242348
5,149167	0,1	-0,191871
5,150833	0,1	-0,248601
5,152500	0,1	-0,231820
5,154167	0,1	-0,237436
5,155833	0,1	-0,240401
5,157500	0,1	-0,229827
5,159167	0,1	-0,260921
5,160833	0,1	-0,290238
5,162500	0,1	-0,238673
5,164167	0,1	-0,201032
5,165833	0,1	-0,221839
5,167500	0,1	-0,240004
5,169167	0,1	-0,225620
5,170833	0,1	-0,215543
5,172500	0,1	-0,232746
5,174167	0,1	-0,241768
5,175833	0,1	-0,261835
5,177500	0,1	-0,245092
5,179167	0,1	-0,276533
5,180833	0,1	-0,259939
5,182500	0,1	-0,249299
5,184167	0,1	-0,243762
5,185833	0,1	-0,258292
5,187500	0,1	-0,238353
5,189167	0,1	-0,237955
5,190833	0,1	-0,229663
5,192500	0,1	-0,226573
5,194167	0,1	-0,242531
5,195833	0,1	-0,215939
5,197500	0,1	-0,257166
5,199167	0,1	-0,188370
5,200833	0,1	-0,257074
5,202500	0,1	-0,218037
5,204167	0,1	-0,229429
5,205833	0,1	-0,260484
5,207500	0,1	-0,261197
5,209167	0,1	-0,248779
5,210833	0,1	-0,233209
5,212500	0,1	-0,279577
5,214167	0,1	-0,265286
5,215833	0,1	-0,216487
5,217500	0,1	-0,257104
5,219167	0,1	-0,252842
5,220833	0,1	-0,267434
5,222500	0,1	-0,279608
5,224167	0,1	-0,275732
5,225833	0,1	-0,255748
5,227500	0,1	-0,241173
5,229167	0,1	-0,214098
5,230833	0,1	-0,236310
5,232500	0,1	-0,248981
5,234167	0,1	-0,295521
5,235833	0,1	-0,237389
5,237500	0,1	-0,255493
5,239167	0,1	-0,216523
5,240833	0,1	-0,243341
5,242500	0,1	-0,234595
5,244167	0,1	-0,229975
5,245833	0,1	-0,254662
5,247500	0,1	-0,252677
5,249167	0,1	-0,236444
5,250833	0,1	-0,267680
5,252500	0,1	-0,206517
5,254167	0,1	-0,261269
5,255833	0,1	-0,239639
5,257500	0,1	-0,260385
5,259167	0,1	-0,255954
5,260833	0,1	-0,278609
5,262500	0,1	-0,271525
5,264167	0,1	-0,237963
5,265833	0,1	-0,224584
5,267500	0,1	-0,223334
5,269167	0,1	-0,252152
5,270833	0,1	-0,229375
5,272500	0,1	-0,265337
5,274167	0,1	-0,258214
5,275833	0,1	-0,238790
5,277500	0,1	-0,234513
5,279167	0,1	-0,247883
5,280833	0,1	-0,256157
5,282500	0,1	-0,279854
5,284167	0,1	-0,218998
5,285833	0,1	-0,254823
5,287500	0,1	-0,248530
5,289167	0,1	-0,245089
5,290833	0,1	-0,286192
5,292500	0,1	-0,266613
5,294167	0,1	-0,229670
5,295833	0,1	-0,297175
5,297500	0,1	-0,215789
5,299167	0,1	-0,285192
5,300833	0,1	-0,273144
5,302500	0,1	-0,259459
5,304167	0,1	-0,266691
5,305833	0,1	-0,234895
5,307500	0,1	-0,271702
5,309167	0,1	-0,297414
5,310833	0,1	-0,254655
5,312500	0,1	-0,282339
5,314167	0,1	-0,260127
5,315833	0,1	-0,264472
5,317500	0,1	-0,223573
5,319167	0,1	-0,260362
5,320833	0,1	-0,267584
5,322500	0,1	-0,236386
5,324167	0,1	-0,267909
5,325833	0,1	-0,257634
5,327500	0,1	-0,256659
5,329167	0,1	-0,286444
5,330833	0,1	-0,247794
5,332500	0,1	-0,280016
5,334167	0,1	-0,253552
5,335833	0,1	-0,256782
5,337500	0,1	-0,268246
5,339167	0,1	-0,251065
5,340833	0,1	-0,265653
5,342500	0,1	-0,228635
5,344167	0,1	-0,283556
5,345833	0,1	-0,226586
5,347500	0,1	-0,269461
5,349167	0,1	-0,258111
5,350833	0,1	-0,246252
5,352500	0,1	-0,236797
5,354167	0,1	-0,211651
5,355833	0,1	-0,257353
5,357500	0,1	-0,249465
5,359167	0,1	-0,267870
5,360833	0,1	-0,314514
5,362500	0,1	-0,273462
5,364167	0,1	-0,263669
5,365833	0,1	-0,263768
5,367500	0,1	-0,260372
5,369167	0,1	-0,220380
5,370833	0,1	-0,243818
5,372500	0,1	-0,264760
5,374167	0,1	-0,256018
5,375833	0,1	-0,258524
5,377500	0,1	-0,259830
5,379167	0,1	-0,276557
5,380833	0,1	-0,282013
5,382500	0,1	-0,263068
5,384167	0,1	-0,251852
5,385833	0,1	-0,279791
5,387500	0,1	-0,236513
5,389167	0,1	-0,257585
5,390833	0,1	-0,276475
5,392500	0,1	-0,298803
5,394167	0,1	-0,288756
5,395833	0,1	-0,291406
5,397500	0,1	-0,267300
5,399167	0,1	-0,280499
5,400833	0,1	-0,270074
5,402500	0,1	-0,248016
5,404167	0,1	-0,284930
5,405833	0,1	-0,293851
5,407500	0,1	-0,250759
5,409167	0,1	-0,239475
5,410833	0,1	-0,255556
5,412500	0,1	-0,251848
5,414167	0,1	-0,273053
5,415833	0,1	-0,291300
5,417500	0,1	-0,301812
5,419167	0,1	-0,302106
5,420833	0,1	-0,275036
5,422500	0,1	-0,262384
5,424167	0,1	-0,259087
5,425833	0,1	-0,277199
5,427500	0,1	-0,276004
5,429167	0,1	-0,269577
5,430833	0,1	-0,267523
5,432500	0,1	-0,267936
5,434167	0,1	-0,279690
5,435833	0,1	-0,274116
5,437500	0,1	-0,274426
5,439167	0,1	-0,273659
5,440833	0,1	-0,266260
5,442500	0,1	-0,255706
5,444167	0,1	-0,271147
5,445833	0,1	-0,292231
5,447500	0,1	-0,253061
5,449167	0,1	-0,249341
5,450833	0,1	-0,277613
5,452500	0,1	-0,259171
5,454167	0,1	-0,223884
5,455833	0,1	-0,264651
5,457500	0,1	-0,268352
5,459167	0,1	-0,303154
5,460833	0,1	-0,299949
5,462500	0,1	-0,276258
5,464167	0,1	-0,240886
5,465833	0,1	-0,263081
5,467500	0,1	-0,295028
5,469167	0,1	-0,318001
5,470833	0,1	-0,275826
5,472500	0,1	-0,288626
5,474167	0,1	-0,287737
5,475833	0,1	-0,303801
5,477500	0,1	-0,307453
5,479167	0,1	-0,293007
5,480833	0,1	-0,276483
5,482500	0,1	-0,302451
5,484167	0,1	-0,276259
5,485833	0,1	-0,251379
5,487500	0,1	-0,278755
5,489167	0,1	-0,255274
5,490833	0,1	-0,293823
5,492500	0,1	-0,285417
5,494167	0,1	-0,266304
5,495833	0,1	-0,312522
5,497500	0,1	-0,306771
5,499167	0,1	-0,272756
5,500833	0,1	-0,242295
5,502500	0,1	-0,285860
5,504167	0,1	-0,279363
5,505833	0,1	-0,287508
5,507500	0,1	-0,282183
5,509167	0,1	-0,281519
5,510833	0,1	-0,241616
5,512500	0,1	-0,297842
5,514167	0,1	-0,230279
5,515833	0,1	-0,263866
5,517500	0,1	-0,296209
5,519167	0,1	-0,272589
5,520833	0,1	-0,271111
5,522500	0,1	-0,306596
5,524167	0,1	-0,285649
5,525833	0,1	-0,278409
5,527500	0,1	-0,303821
5,529167	0,1	-0,278787
5,530833	0,1	-0,277351
5,532500	0,1	-0,250692
5,534167	0,1	-0,272535
5,535833	0,1	-0,249427
5,537500	0,1	-0,266919
5,539167	0,1	-0,259668
5,540833	0,1	-0,262112
5,542500	0,1	-0,295379
5,544167	0,1	-0,309545
5,545833	0,1	-0,305631
5,547500	0,1	-0,277896
5,549167	0,1	-0,310348
5,550833	0,1	-0,296014
5,552500	0,1	-0,294974
5,554167	0,1	-0,282660
5,555833	0,1	-0,297459
5,557500	0,1	-0,305629
5,559167	0,1	-0,317196
5,560833	0,1	-0,283806
5,562500	0,1	-0,274471
5,564167	0,1	-0,337563
5,565833	0,1	-0,303524
5,567500	0,1	-0,257437
5,569167	0,1	-0,258773
5,570833	0,1	-0,257859
5,572500	0,1	-0,270174
5,574167	0,1	-0,255977
5,575833	0,1	-0,287378
5,577500	0,1	-0,270865
5,579167	0,1	-0,263524
5,580833	0,1	-0,285410
5,582500	0,1	-0,303220
5,584167	0,1	-0,224208
5,585833	0,1	-0,288157
5,587500	0,1	-0,291261
5,589167	0,1	-0,210129
5,590833	0,1	-0,310437
5,592500	0,1	-0,281483
5,594167	0,1	-0,281663
5,595833	0,1	-0,306640
5,597500	0,1	-0,295701
5,599167	0,1	-0,252396
5,600833	0,1	-0,292413
5,602500	0,1	-0,317525
5,604167	0,1	-0,307250
5,605833	0,1	-0,319289
5,607500	0,1	-0,269234
5,609167	0,1	-0,282634
5,610833	0,1	-0,282680
5,612500	0,1	-0,254009
5,614167	0,1	-0,287460
5,615833	0,1	-0,290743
5,617500	0,1	-0,297149
5,619167	0,1	-0,273665
5,620833	0,1	-0,267150
5,622500	0,1	-0,293351
5,624167	0,1	-0,272172
5,625833	0,1	-0,275029
5,627500	0,1	-0,309748
5,629167	0,1	-0,270041
5,630833	0,1	-0,276933
5,632500	0,1	-0,285600
5,634167	0,1	-0,274078
5,635833	0,1	-0,311632
5,637500	0,1	-0,268465
5,639167	0,1	-0,317643
5,640833	0,1	-0,254579
5,642500	0,1	-0,281014
5,644167	0,1	-0,308381
5,645833	0,1	-0,279349
5,647500	0,1	-0,292380
5,649167	0,1	-0,309896
5,650833	0,1	-0,293610
5,652500	0,1	-0,266845
5,654167	0,1	-0,281057
5,655833	0,1	-0,259422
5,657500	0,1	-0,308997
5,659167	0,1	-0,291142
5,660833	0,1	-0,299884
5,662500	0,1	-0,301607
5,664167	0,1	-0,296923
5,665833	0,1	-0,279284
5,667500	0,1	-0,313729
5,669167	0,1	-0,288759
5,670833	0,1	-0,277830
5,672500	0,1	-0,291590
5,674167	0,1	-0,282039
5,675833	0,1	-0,267422
5,677500	0,1	-0,301164
5,679167	0,1	-0,287680
5,680833	0,1	-0,289665
5,682500	0,1	-0,301585
5,684167	0,1	-0,263594
5,685833	0,1	-0,271627
5,687500	0,1	-0,330308
5,689167	0,1	-0,271538
5,690833	0,1	-0,297207
5,692500	0,1	-0,313277
5,694167	0,1	-0,302066
5,695833	0,1	-0,317838
5,697500	0,1	-0,249149
5,699167	0,1	-0,260575
5,700833	0,1	-0,325641
5,702500	0,1	-0,261774
5,704167	0,1	-0,282465
5,705833	0,1	-0,278221
5,707500	0,1	-0,255360
5,709167	0,1	-0,329516
5,710833	0,1	-0,279416
5,712500	0,1	-0,274365
5,714167	0,1	-0,298844
5,715833	0,1	-0,314168
5,717500	0,1	-0,280550
5,719167	0,1	-0,303364
5,720833	0,1	-0,261188
5,722500	0,1	-0,319569
5,724167	0,1	-0,300763
5,725833	0,1	-0,274599
5,727500	0,1	-0,284294
5,729167	0,1	-0,332714
5,730833	0,1	-0,286236
5,732500	0,1	-0,304754
5,734167	0,1	-0,332244
5,735833	0,1	-0,313949
5,737500	0,1	-0,286520
5,739167	0,1	-0,299470
5,740833	0,1	-0,332885
5,742500	0,1	-0,307917
5,744167	0,1	-0,293131
5,745833	0,1	-0,319596
5,747500	0,1	-0,278397
5,749167	0,1	-0,274053
5,750833	0,1	-0,271669
5,752500	0,1	-0,307757
5,754167	0,1	-0,311972
5,755833	0,1	-0,339996
5,757500	0,1	-0,320333
5,759167	0,1	-0,304783
5,760833	0,1	-0,331952
5,762500	0,1	-0,288661
5,764167	0,1	-0,296526
5,765833	0,1	-0,307162
5,767500	0,1	-0,332741
5,769167	0,1	-0,330903
5,770833	0,1	-0,307191
5,772500	0,1	-0,294727
5,774167	0,1	-0,297128
5,775833	0,1	-0,314769
5,777500	0,1	-0,323375
5,779167	0,1	-0,313739
5,780833	0,1	-0,289008
5,782500	0,1	-0,283550
5,784167	0,1	-0,293666
5,785833	0,1	-0,284588
5,787500	0,1	-0,327099
5,789167	0,1	-0,317139
5,790833	0,1	-0,292471
5,792500	0,1	-0,307803
5,794167	0,1	-0,333405
5,795833	0,1	-0,313742
5,797500	0,1	-0,272508
5,799167	0,1	-0,315363
5,800833	0,1	-0,301778
5,802500	0,1	-0,327413
5,804167	0,1	-0,303873
5,805833	0,1	-0,300407
5,807500	0,1	-0,320966
5,809167	0,1	-0,299913
5,810833	0,1	-0,319163
5,812500	0,1	-0,266208
5,814167	0,1	-0,292459
5,815833	0,1	-0,323928
5,817500	0,1	-0,284513
5,819167	0,1	-0,302619
5,820833	0,1	-0,307390
5,822500	0,1	-0,295183
5,824167	0,1	-0,305110
5,825833	0,1	-0,305755
5,827500	0,1	-0,317361
5,829167	0,1	-0,296907
5,830833	0,1	-0,272753
5,832500	0,1	-0,293765
5,834167	0,1	-0,316923
5,835833	0,1	-0,304680
5,837500	0,1	-0,351475
5,839167	0,1	-0,287981
5,840833	0,1	-0,300319
5,842500	0,1	-0,324179
5,844167	0,1	-0,353969
5,845833	0,1	-0,321870
5,847500	0,1	-0,295747
5,849167	0,1	-0,355704
5,850833	0,1	-0,292769
5,852500	0,1	-0,324882
5,854167	0,1	-0,314339
5,855833	0,1	-0,303498
5,857500	0,1	-0,322004
5,859167	0,1	-0,343480
5,860833	0,1	-0,344626
5,862500	0,1	-0,291544
5,864167	0,1	-0,302040
5,865833	0,1	-0,312095
5,867500	0,1	-0,310171
5,869167	0,1	-0,346421
5,870833	0,1	-0,303215
5,872500	0,1	-0,309339
5,874167	0,1	-0,302645
5,875833	0,1	-0,283389
5,877500	0,1	-0,306786
5,879167	0,1	-0,350895
5,880833	0,1	-0,297164
5,882500	0,1	-0,284486
5,884167	0,1	-0,290909
5,885833	0,1	-0,298019
5,887500	0,1	-0,329132
5,889167	0,1	-0,294940
5,890833	0,1	-0,304737
5,892500	0,1	-0,316138
5,894167	0,1	-0,311580
5,895833	0,1	-0,345986
5,897500	0,1	-0,289390
5,899167	0,1	-0,290723
5,900833	0,1	-0,292465
5,902500	0,1	-0,315492
5,904167	0,1	-0,304742
5,905833	0,1	-0,305650
5,907500	0,1	-0,315538
5,909167	0,1	-0,278396
5,910833	0,1	-0,284771
5,912500	0,1	-0,309583
5,914167	0,1	-0,295682
5,915833	0,1	-0,292693
5,917500	0,1	-0,277355
5,919167	0,1	-0,314141
5,920833	0,1	-0,347790
5,922500	0,1	-0,310470
5,924167	0,1	-0,274641
5,925833	0,1	-0,313976
5,927500	0,1	-0,296968
5,929167	0,1	-0,308924
5,930833	0,1	-0,302356
5,932500	0,1	-0,291140
5,934167	0,1	-0,311410
5,935833	0,1	-0,347188
5,937500	0,1	-0,287420
5,939167	0,1	-0,306538
5,940833	0,1	-0,319351
5,942500	0,1	-0,308846
5,944167	0,1	-0,286086
5,945833	0,1	-0,321897
5,947500	0,1	-0,304494
5,949167	0,1	-0,323186
5,950833	0,1	-0,307956
5,952500	0,1	-0,290603
5,954167	0,1	-0,332364
5,955833	0,1	-0,293615
5,957500	0,1	-0,307307
5,959167	0,1	-0,294666
5,960833	0,1	-0,342397
5,962500	0,1	-0,292061
5,964167	0,1	-0,294580
5,965833	0,1	-0,305336
5,967500	0,1	-0,321383
5,969167	0,1	-0,303871
5,970833	0,1	-0,311577
5,972500	0,1	-0,310812
5,974167	0,1	-0,340058
5,975833	0,1	-0,270731
5,977500	0,1	-0,298512
5,979167	0,1	-0,329092
5,980833	0,1	-0,333221
5,982500	0,1	-0,335814
5,984167	0,1	-0,318634
5,985833	0,1	-0,283059
5,987500	0,1	-0,333005
5,989167	0,1	-0,289138
5,990833	0,1	-0,299657
5,992500	0,1	-0,299908
5,994167	0,1	-0,322875
5,995833	0,1	-0,317014
5,997500	0,1	-0,330360
5,999167	0,1	-0,292081
6,000833	0,1	-0,315473
