File Path	chrom://chromeleon01/ikbm_chromeleon/2022/Rezex/Esteban/220612_chitin_4_7.seq/116.smp/UV_VIS_1.channel/UV_VIS_1.chm
Channel	UV_VIS_1

Injection Information:
Data Vault	ikbm_chromeleon
Injection	Blank__10
Injection Number	109
Position	BB3
Comment	
Processing Method	New ProcMethod
Instrument Method	Short_Rezex_6min_194nm
Type	Blank
Status	Finished
Injection Date	13.06.2022
Injection Time	04:53:19
Injection Volume (µl)	8,000
Dilution Factor	1,0000
Weight	1,0000

Chromatogram Data Information:
Time Min. (min)	0,000833
Time Max. (min)	6,000833
Data Points	3601
Detector	UV
Generating Data System	Chromeleon 7.2.9.11323
Exporting Data System	Chromeleon 7.2.9.0
Operator	Instrument Controller
Signal Quantity	Absorbance
Signal Unit	mAU
Signal Min.	-0,275627
Signal Max.	0,600660
Channel	UV_VIS_1
Driver Name	VWD3000.dll
Channel Type	Evaluation
Min. Step (s)	0,1
Max. Step (s)	0,1
Average Step (s)	0,1

Signal Parameter Information:
Signal Info	WVL:194 nm

Chromatogram Data:
Time (min)	Step (s)	Value (mAU)
0,000833	n.a.	0,057382
0,002500	0,1	0,001982
0,004167	0,1	0,025974
0,005833	0,1	-0,006383
0,007500	0,1	0,026737
0,009167	0,1	0,013708
0,010833	0,1	0,018756
0,012500	0,1	0,018032
0,014167	0,1	0,018466
0,015833	0,1	0,031172
0,017500	0,1	-0,001665
0,019167	0,1	0,004720
0,020833	0,1	0,033466
0,022500	0,1	-0,014681
0,024167	0,1	0,067919
0,025833	0,1	0,015168
0,027500	0,1	0,038829
0,029167	0,1	-0,000297
0,030833	0,1	0,032181
0,032500	0,1	0,024968
0,034167	0,1	-0,014103
0,035833	0,1	0,037994
0,037500	0,1	-0,003898
0,039167	0,1	-0,029279
0,040833	0,1	0,007735
0,042500	0,1	0,046317
0,044167	0,1	0,040244
0,045833	0,1	0,039765
0,047500	0,1	0,012719
0,049167	0,1	0,026971
0,050833	0,1	0,024490
0,052500	0,1	0,004831
0,054167	0,1	0,046565
0,055833	0,1	-0,004538
0,057500	0,1	0,000561
0,059167	0,1	0,020427
0,060833	0,1	0,032167
0,062500	0,1	0,013690
0,064167	0,1	0,008015
0,065833	0,1	0,022852
0,067500	0,1	0,008141
0,069167	0,1	0,062605
0,070833	0,1	0,009973
0,072500	0,1	0,023763
0,074167	0,1	-0,005432
0,075833	0,1	0,020655
0,077500	0,1	0,052490
0,079167	0,1	-0,004434
0,080833	0,1	0,014797
0,082500	0,1	-0,026894
0,084167	0,1	-0,028457
0,085833	0,1	0,012083
0,087500	0,1	0,032600
0,089167	0,1	0,008971
0,090833	0,1	0,008491
0,092500	0,1	0,008261
0,094167	0,1	-0,012616
0,095833	0,1	-0,009913
0,097500	0,1	0,019454
0,099167	0,1	0,030553
0,100833	0,1	-0,008288
0,102500	0,1	0,014880
0,104167	0,1	0,055592
0,105833	0,1	-0,001681
0,107500	0,1	0,019000
0,109167	0,1	0,012630
0,110833	0,1	0,019459
0,112500	0,1	0,051619
0,114167	0,1	0,037719
0,115833	0,1	-0,034503
0,117500	0,1	-0,002964
0,119167	0,1	0,003954
0,120833	0,1	0,016684
0,122500	0,1	0,011285
0,124167	0,1	-0,008519
0,125833	0,1	-0,008338
0,127500	0,1	-0,020773
0,129167	0,1	-0,022577
0,130833	0,1	-0,010225
0,132500	0,1	0,022723
0,134167	0,1	0,005119
0,135833	0,1	0,003460
0,137500	0,1	0,005985
0,139167	0,1	0,023409
0,140833	0,1	0,041149
0,142500	0,1	0,028611
0,144167	0,1	-0,001397
0,145833	0,1	-0,015993
0,147500	0,1	-0,022226
0,149167	0,1	-0,005444
0,150833	0,1	0,011115
0,152500	0,1	-0,005458
0,154167	0,1	0,007369
0,155833	0,1	-0,019322
0,157500	0,1	-0,013782
0,159167	0,1	0,010760
0,160833	0,1	-0,008208
0,162500	0,1	0,013120
0,164167	0,1	0,029494
0,165833	0,1	0,002081
0,167500	0,1	-0,005481
0,169167	0,1	-0,001776
0,170833	0,1	0,036280
0,172500	0,1	0,031219
0,174167	0,1	0,003073
0,175833	0,1	-0,005998
0,177500	0,1	0,014673
0,179167	0,1	0,014969
0,180833	0,1	-0,044212
0,182500	0,1	-0,001600
0,184167	0,1	-0,014772
0,185833	0,1	-0,000725
0,187500	0,1	-0,026916
0,189167	0,1	-0,048675
0,190833	0,1	-0,009816
0,192500	0,1	-0,025099
0,194167	0,1	-0,025785
0,195833	0,1	-0,018441
0,197500	0,1	0,033667
0,199167	0,1	0,000467
0,200833	0,1	-0,010176
0,202500	0,1	-0,026444
0,204167	0,1	0,012787
0,205833	0,1	-0,005332
0,207500	0,1	0,011590
0,209167	0,1	0,016313
0,210833	0,1	-0,007464
0,212500	0,1	-0,013491
0,214167	0,1	0,003725
0,215833	0,1	0,036694
0,217500	0,1	-0,022460
0,219167	0,1	-0,014486
0,220833	0,1	-0,002420
0,222500	0,1	-0,006765
0,224167	0,1	0,022228
0,225833	0,1	0,014143
0,227500	0,1	-0,000594
0,229167	0,1	0,009480
0,230833	0,1	-0,001754
0,232500	0,1	0,030650
0,234167	0,1	0,026229
0,235833	0,1	0,003363
0,237500	0,1	-0,017316
0,239167	0,1	0,033854
0,240833	0,1	-0,011389
0,242500	0,1	-0,002525
0,244167	0,1	0,005798
0,245833	0,1	-0,014355
0,247500	0,1	-0,024853
0,249167	0,1	0,024127
0,250833	0,1	-0,000198
0,252500	0,1	-0,004921
0,254167	0,1	-0,016180
0,255833	0,1	-0,011298
0,257500	0,1	-0,015125
0,259167	0,1	0,006145
0,260833	0,1	0,007021
0,262500	0,1	-0,018101
0,264167	0,1	-0,037041
0,265833	0,1	-0,015236
0,267500	0,1	-0,021314
0,269167	0,1	0,008607
0,270833	0,1	0,013517
0,272500	0,1	0,014678
0,274167	0,1	0,028998
0,275833	0,1	0,000590
0,277500	0,1	0,003499
0,279167	0,1	0,011799
0,280833	0,1	0,000149
0,282500	0,1	0,036568
0,284167	0,1	-0,030693
0,285833	0,1	-0,016186
0,287500	0,1	0,023403
0,289167	0,1	-0,020518
0,290833	0,1	-0,009769
0,292500	0,1	-0,024808
0,294167	0,1	0,017981
0,295833	0,1	-0,000098
0,297500	0,1	0,009440
0,299167	0,1	-0,014748
0,300833	0,1	0,032924
0,302500	0,1	0,012758
0,304167	0,1	0,002263
0,305833	0,1	0,003770
0,307500	0,1	-0,046448
0,309167	0,1	0,039434
0,310833	0,1	-0,022066
0,312500	0,1	0,001303
0,314167	0,1	-0,015351
0,315833	0,1	0,026385
0,317500	0,1	0,026974
0,319167	0,1	-0,057704
0,320833	0,1	-0,006261
0,322500	0,1	0,010597
0,324167	0,1	0,024175
0,325833	0,1	0,004521
0,327500	0,1	-0,006060
0,329167	0,1	-0,011646
0,330833	0,1	0,022412
0,332500	0,1	0,005575
0,334167	0,1	-0,000140
0,335833	0,1	-0,012538
0,337500	0,1	0,000930
0,339167	0,1	-0,022448
0,340833	0,1	0,006971
0,342500	0,1	-0,014399
0,344167	0,1	0,030358
0,345833	0,1	-0,012116
0,347500	0,1	0,039030
0,349167	0,1	0,022093
0,350833	0,1	-0,005786
0,352500	0,1	-0,010801
0,354167	0,1	-0,011505
0,355833	0,1	0,040044
0,357500	0,1	-0,017988
0,359167	0,1	0,016201
0,360833	0,1	0,008762
0,362500	0,1	0,000213
0,364167	0,1	-0,006969
0,365833	0,1	-0,009868
0,367500	0,1	0,016370
0,369167	0,1	0,011347
0,370833	0,1	0,002076
0,372500	0,1	-0,011790
0,374167	0,1	0,000001
0,375833	0,1	0,020510
0,377500	0,1	0,043073
0,379167	0,1	-0,002843
0,380833	0,1	0,017221
0,382500	0,1	0,003959
0,384167	0,1	0,010826
0,385833	0,1	-0,002290
0,387500	0,1	-0,012928
0,389167	0,1	0,033337
0,390833	0,1	0,017477
0,392500	0,1	-0,000531
0,394167	0,1	0,030175
0,395833	0,1	-0,000609
0,397500	0,1	-0,024788
0,399167	0,1	0,008833
0,400833	0,1	0,000750
0,402500	0,1	-0,005211
0,404167	0,1	0,000975
0,405833	0,1	-0,005543
0,407500	0,1	0,019681
0,409167	0,1	0,028628
0,410833	0,1	0,011393
0,412500	0,1	-0,024988
0,414167	0,1	-0,002528
0,415833	0,1	0,015876
0,417500	0,1	0,018053
0,419167	0,1	0,023412
0,420833	0,1	0,048681
0,422500	0,1	0,008519
0,424167	0,1	0,036903
0,425833	0,1	-0,016396
0,427500	0,1	-0,042732
0,429167	0,1	0,018761
0,430833	0,1	0,009940
0,432500	0,1	0,042036
0,434167	0,1	-0,006711
0,435833	0,1	0,004638
0,437500	0,1	-0,000677
0,439167	0,1	0,007971
0,440833	0,1	0,028046
0,442500	0,1	0,021718
0,444167	0,1	0,055325
0,445833	0,1	0,015599
0,447500	0,1	0,021756
0,449167	0,1	0,025854
0,450833	0,1	0,011495
0,452500	0,1	-0,014955
0,454167	0,1	-0,007512
0,455833	0,1	0,020551
0,457500	0,1	0,010768
0,459167	0,1	0,005222
0,460833	0,1	-0,006016
0,462500	0,1	-0,026631
0,464167	0,1	0,010178
0,465833	0,1	-0,002290
0,467500	0,1	-0,003496
0,469167	0,1	-0,022117
0,470833	0,1	0,027955
0,472500	0,1	0,016069
0,474167	0,1	0,009465
0,475833	0,1	0,023410
0,477500	0,1	0,012281
0,479167	0,1	0,012486
0,480833	0,1	0,022065
0,482500	0,1	0,009631
0,484167	0,1	0,020803
0,485833	0,1	0,001499
0,487500	0,1	0,021731
0,489167	0,1	0,032623
0,490833	0,1	0,019154
0,492500	0,1	-0,030741
0,494167	0,1	0,001611
0,495833	0,1	0,004578
0,497500	0,1	0,009069
0,499167	0,1	0,000421
0,500833	0,1	0,024877
0,502500	0,1	-0,007936
0,504167	0,1	0,039403
0,505833	0,1	0,023894
0,507500	0,1	0,003508
0,509167	0,1	-0,002583
0,510833	0,1	0,027276
0,512500	0,1	0,024160
0,514167	0,1	0,001147
0,515833	0,1	-0,016510
0,517500	0,1	0,026735
0,519167	0,1	0,007748
0,520833	0,1	0,030921
0,522500	0,1	0,030431
0,524167	0,1	-0,046422
0,525833	0,1	0,063315
0,527500	0,1	0,035549
0,529167	0,1	0,028321
0,530833	0,1	0,004458
0,532500	0,1	0,032618
0,534167	0,1	0,035315
0,535833	0,1	0,001958
0,537500	0,1	0,016082
0,539167	0,1	0,048306
0,540833	0,1	0,000118
0,542500	0,1	-0,001527
0,544167	0,1	-0,013778
0,545833	0,1	0,045464
0,547500	0,1	0,019238
0,549167	0,1	0,017991
0,550833	0,1	-0,016112
0,552500	0,1	0,020880
0,554167	0,1	0,037817
0,555833	0,1	0,035460
0,557500	0,1	0,036888
0,559167	0,1	-0,004332
0,560833	0,1	-0,028823
0,562500	0,1	0,004590
0,564167	0,1	-0,001486
0,565833	0,1	0,037294
0,567500	0,1	0,044979
0,569167	0,1	0,019777
0,570833	0,1	0,027116
0,572500	0,1	0,004376
0,574167	0,1	0,022436
0,575833	0,1	-0,044025
0,577500	0,1	0,007381
0,579167	0,1	0,018794
0,580833	0,1	0,013169
0,582500	0,1	0,034958
0,584167	0,1	-0,000403
0,585833	0,1	0,015855
0,587500	0,1	0,063062
0,589167	0,1	0,043911
0,590833	0,1	0,005456
0,592500	0,1	0,004247
0,594167	0,1	0,016993
0,595833	0,1	-0,000032
0,597500	0,1	0,018669
0,599167	0,1	0,045616
0,600833	0,1	0,036602
0,602500	0,1	-0,012011
0,604167	0,1	0,006955
0,605833	0,1	-0,005043
0,607500	0,1	0,014964
0,609167	0,1	-0,014995
0,610833	0,1	0,034744
0,612500	0,1	0,022982
0,614167	0,1	-0,003053
0,615833	0,1	0,014655
0,617500	0,1	0,013085
0,619167	0,1	0,046217
0,620833	0,1	0,005292
0,622500	0,1	0,002593
0,624167	0,1	0,006853
0,625833	0,1	0,007269
0,627500	0,1	-0,001442
0,629167	0,1	0,063473
0,630833	0,1	0,022056
0,632500	0,1	0,037859
0,634167	0,1	0,032460
0,635833	0,1	0,100443
0,637500	0,1	0,020472
0,639167	0,1	0,045204
0,640833	0,1	0,037076
0,642500	0,1	0,016422
0,644167	0,1	0,030738
0,645833	0,1	0,025237
0,647500	0,1	0,050959
0,649167	0,1	0,037264
0,650833	0,1	0,050236
0,652500	0,1	0,036684
0,654167	0,1	0,034053
0,655833	0,1	0,017373
0,657500	0,1	0,055261
0,659167	0,1	-0,015856
0,660833	0,1	0,047781
0,662500	0,1	0,036209
0,664167	0,1	0,021926
0,665833	0,1	0,061554
0,667500	0,1	0,061646
0,669167	0,1	0,037784
0,670833	0,1	0,013338
0,672500	0,1	0,030012
0,674167	0,1	0,003798
0,675833	0,1	0,015317
0,677500	0,1	0,031937
0,679167	0,1	0,022981
0,680833	0,1	0,033470
0,682500	0,1	0,056195
0,684167	0,1	0,049785
0,685833	0,1	0,060049
0,687500	0,1	0,072758
0,689167	0,1	-0,009725
0,690833	0,1	0,003850
0,692500	0,1	0,020802
0,694167	0,1	0,039450
0,695833	0,1	0,024369
0,697500	0,1	0,048495
0,699167	0,1	0,022384
0,700833	0,1	0,007831
0,702500	0,1	0,075148
0,704167	0,1	0,020011
0,705833	0,1	0,087777
0,707500	0,1	0,047538
0,709167	0,1	0,037947
0,710833	0,1	0,045643
0,712500	0,1	0,046018
0,714167	0,1	0,055187
0,715833	0,1	0,029691
0,717500	0,1	0,052636
0,719167	0,1	0,051048
0,720833	0,1	0,032692
0,722500	0,1	0,064826
0,724167	0,1	0,046933
0,725833	0,1	0,052185
0,727500	0,1	0,061934
0,729167	0,1	0,045338
0,730833	0,1	0,032317
0,732500	0,1	0,043488
0,734167	0,1	0,073356
0,735833	0,1	0,058441
0,737500	0,1	0,059307
0,739167	0,1	0,037783
0,740833	0,1	0,058661
0,742500	0,1	0,056037
0,744167	0,1	0,053945
0,745833	0,1	0,084079
0,747500	0,1	0,026388
0,749167	0,1	0,043778
0,750833	0,1	0,076273
0,752500	0,1	0,025660
0,754167	0,1	0,044544
0,755833	0,1	0,020480
0,757500	0,1	0,074117
0,759167	0,1	0,047927
0,760833	0,1	0,056552
0,762500	0,1	0,034597
0,764167	0,1	0,054644
0,765833	0,1	0,081388
0,767500	0,1	0,052482
0,769167	0,1	0,070026
0,770833	0,1	0,066158
0,772500	0,1	0,005027
0,774167	0,1	0,054905
0,775833	0,1	0,036459
0,777500	0,1	0,068821
0,779167	0,1	0,029570
0,780833	0,1	0,082584
0,782500	0,1	0,064178
0,784167	0,1	0,056742
0,785833	0,1	0,067149
0,787500	0,1	0,033543
0,789167	0,1	0,062156
0,790833	0,1	0,052477
0,792500	0,1	0,058478
0,794167	0,1	0,070708
0,795833	0,1	0,077750
0,797500	0,1	0,102026
0,799167	0,1	0,061635
0,800833	0,1	0,070566
0,802500	0,1	0,061523
0,804167	0,1	0,065020
0,805833	0,1	0,069904
0,807500	0,1	0,037311
0,809167	0,1	0,045892
0,810833	0,1	0,071307
0,812500	0,1	0,070836
0,814167	0,1	0,095587
0,815833	0,1	0,052423
0,817500	0,1	0,065142
0,819167	0,1	0,058730
0,820833	0,1	0,055209
0,822500	0,1	0,085505
0,824167	0,1	0,034065
0,825833	0,1	0,066545
0,827500	0,1	0,095444
0,829167	0,1	0,049817
0,830833	0,1	0,092026
0,832500	0,1	0,072913
0,834167	0,1	0,045671
0,835833	0,1	0,050902
0,837500	0,1	0,060526
0,839167	0,1	0,071580
0,840833	0,1	0,099066
0,842500	0,1	0,077651
0,844167	0,1	0,050867
0,845833	0,1	0,071142
0,847500	0,1	0,083400
0,849167	0,1	0,048571
0,850833	0,1	0,069695
0,852500	0,1	0,047369
0,854167	0,1	0,039829
0,855833	0,1	0,075051
0,857500	0,1	0,068850
0,859167	0,1	0,074479
0,860833	0,1	0,081351
0,862500	0,1	0,061692
0,864167	0,1	0,046994
0,865833	0,1	0,054876
0,867500	0,1	0,041507
0,869167	0,1	0,071431
0,870833	0,1	0,046457
0,872500	0,1	0,054771
0,874167	0,1	0,051752
0,875833	0,1	0,058085
0,877500	0,1	0,098070
0,879167	0,1	0,087484
0,880833	0,1	0,063141
0,882500	0,1	0,104758
0,884167	0,1	0,060084
0,885833	0,1	0,102812
0,887500	0,1	0,080428
0,889167	0,1	0,077669
0,890833	0,1	0,072762
0,892500	0,1	0,058214
0,894167	0,1	0,069736
0,895833	0,1	0,079818
0,897500	0,1	0,066534
0,899167	0,1	0,075967
0,900833	0,1	0,081414
0,902500	0,1	0,106251
0,904167	0,1	0,078481
0,905833	0,1	0,085742
0,907500	0,1	0,073242
0,909167	0,1	0,057799
0,910833	0,1	0,083664
0,912500	0,1	0,079844
0,914167	0,1	0,078311
0,915833	0,1	0,087168
0,917500	0,1	0,073593
0,919167	0,1	0,083917
0,920833	0,1	0,084954
0,922500	0,1	0,073200
0,924167	0,1	0,141267
0,925833	0,1	0,075138
0,927500	0,1	0,106540
0,929167	0,1	0,102862
0,930833	0,1	0,078337
0,932500	0,1	0,076055
0,934167	0,1	0,100374
0,935833	0,1	0,127079
0,937500	0,1	0,077556
0,939167	0,1	0,075185
0,940833	0,1	0,111962
0,942500	0,1	0,078464
0,944167	0,1	0,078310
0,945833	0,1	0,125665
0,947500	0,1	0,108789
0,949167	0,1	0,080367
0,950833	0,1	0,081768
0,952500	0,1	0,119250
0,954167	0,1	0,132113
0,955833	0,1	0,120771
0,957500	0,1	0,121393
0,959167	0,1	0,090698
0,960833	0,1	0,080570
0,962500	0,1	0,106705
0,964167	0,1	0,067948
0,965833	0,1	0,090599
0,967500	0,1	0,101536
0,969167	0,1	0,104667
0,970833	0,1	0,121718
0,972500	0,1	0,124313
0,974167	0,1	0,123960
0,975833	0,1	0,114376
0,977500	0,1	0,121141
0,979167	0,1	0,121701
0,980833	0,1	0,125572
0,982500	0,1	0,121536
0,984167	0,1	0,100031
0,985833	0,1	0,098268
0,987500	0,1	0,130599
0,989167	0,1	0,114770
0,990833	0,1	0,175146
0,992500	0,1	0,169548
0,994167	0,1	0,112837
0,995833	0,1	0,116361
0,997500	0,1	0,136895
0,999167	0,1	0,126117
1,000833	0,1	0,126215
1,002500	0,1	0,128186
1,004167	0,1	0,137806
1,005833	0,1	0,161160
1,007500	0,1	0,097742
1,009167	0,1	0,121553
1,010833	0,1	0,184648
1,012500	0,1	0,126457
1,014167	0,1	0,158778
1,015833	0,1	0,157086
1,017500	0,1	0,158660
1,019167	0,1	0,134548
1,020833	0,1	0,171198
1,022500	0,1	0,138417
1,024167	0,1	0,153960
1,025833	0,1	0,140879
1,027500	0,1	0,154931
1,029167	0,1	0,149964
1,030833	0,1	0,143962
1,032500	0,1	0,165550
1,034167	0,1	0,166942
1,035833	0,1	0,156675
1,037500	0,1	0,179711
1,039167	0,1	0,159595
1,040833	0,1	0,201052
1,042500	0,1	0,203365
1,044167	0,1	0,182868
1,045833	0,1	0,181643
1,047500	0,1	0,164401
1,049167	0,1	0,213663
1,050833	0,1	0,173847
1,052500	0,1	0,190953
1,054167	0,1	0,173867
1,055833	0,1	0,181892
1,057500	0,1	0,184851
1,059167	0,1	0,185126
1,060833	0,1	0,152172
1,062500	0,1	0,212539
1,064167	0,1	0,177032
1,065833	0,1	0,195079
1,067500	0,1	0,206535
1,069167	0,1	0,184692
1,070833	0,1	0,204167
1,072500	0,1	0,171919
1,074167	0,1	0,173634
1,075833	0,1	0,174692
1,077500	0,1	0,161504
1,079167	0,1	0,186772
1,080833	0,1	0,197774
1,082500	0,1	0,227602
1,084167	0,1	0,178593
1,085833	0,1	0,176796
1,087500	0,1	0,166741
1,089167	0,1	0,225669
1,090833	0,1	0,139635
1,092500	0,1	0,171741
1,094167	0,1	0,171232
1,095833	0,1	0,233522
1,097500	0,1	0,180081
1,099167	0,1	0,241943
1,100833	0,1	0,212485
1,102500	0,1	0,210037
1,104167	0,1	0,185258
1,105833	0,1	0,198415
1,107500	0,1	0,154075
1,109167	0,1	0,228158
1,110833	0,1	0,216207
1,112500	0,1	0,231646
1,114167	0,1	0,192776
1,115833	0,1	0,181254
1,117500	0,1	0,205639
1,119167	0,1	0,236199
1,120833	0,1	0,221898
1,122500	0,1	0,183173
1,124167	0,1	0,187795
1,125833	0,1	0,205892
1,127500	0,1	0,200031
1,129167	0,1	0,215081
1,130833	0,1	0,203368
1,132500	0,1	0,216012
1,134167	0,1	0,176414
1,135833	0,1	0,186784
1,137500	0,1	0,239239
1,139167	0,1	0,243808
1,140833	0,1	0,208572
1,142500	0,1	0,215524
1,144167	0,1	0,245829
1,145833	0,1	0,215029
1,147500	0,1	0,228461
1,149167	0,1	0,207801
1,150833	0,1	0,205318
1,152500	0,1	0,207203
1,154167	0,1	0,223903
1,155833	0,1	0,220674
1,157500	0,1	0,214091
1,159167	0,1	0,230008
1,160833	0,1	0,206104
1,162500	0,1	0,232852
1,164167	0,1	0,203951
1,165833	0,1	0,205065
1,167500	0,1	0,214603
1,169167	0,1	0,233532
1,170833	0,1	0,239250
1,172500	0,1	0,201990
1,174167	0,1	0,218870
1,175833	0,1	0,210266
1,177500	0,1	0,199228
1,179167	0,1	0,216779
1,180833	0,1	0,198032
1,182500	0,1	0,198746
1,184167	0,1	0,225500
1,185833	0,1	0,261299
1,187500	0,1	0,222861
1,189167	0,1	0,251155
1,190833	0,1	0,199400
1,192500	0,1	0,224870
1,194167	0,1	0,251833
1,195833	0,1	0,243748
1,197500	0,1	0,224782
1,199167	0,1	0,224738
1,200833	0,1	0,233826
1,202500	0,1	0,233576
1,204167	0,1	0,242360
1,205833	0,1	0,215254
1,207500	0,1	0,263411
1,209167	0,1	0,223692
1,210833	0,1	0,248072
1,212500	0,1	0,195059
1,214167	0,1	0,198090
1,215833	0,1	0,247775
1,217500	0,1	0,210776
1,219167	0,1	0,247526
1,220833	0,1	0,262171
1,222500	0,1	0,220872
1,224167	0,1	0,238758
1,225833	0,1	0,208786
1,227500	0,1	0,230739
1,229167	0,1	0,231763
1,230833	0,1	0,294678
1,232500	0,1	0,217179
1,234167	0,1	0,254198
1,235833	0,1	0,275101
1,237500	0,1	0,227771
1,239167	0,1	0,251208
1,240833	0,1	0,182715
1,242500	0,1	0,208557
1,244167	0,1	0,232664
1,245833	0,1	0,282950
1,247500	0,1	0,238785
1,249167	0,1	0,244677
1,250833	0,1	0,224203
1,252500	0,1	0,252502
1,254167	0,1	0,223902
1,255833	0,1	0,238090
1,257500	0,1	0,199876
1,259167	0,1	0,255052
1,260833	0,1	0,281593
1,262500	0,1	0,238545
1,264167	0,1	0,217870
1,265833	0,1	0,219287
1,267500	0,1	0,279947
1,269167	0,1	0,231686
1,270833	0,1	0,234568
1,272500	0,1	0,263956
1,274167	0,1	0,255858
1,275833	0,1	0,257833
1,277500	0,1	0,246544
1,279167	0,1	0,215368
1,280833	0,1	0,255229
1,282500	0,1	0,227604
1,284167	0,1	0,265691
1,285833	0,1	0,271161
1,287500	0,1	0,231294
1,289167	0,1	0,209892
1,290833	0,1	0,243990
1,292500	0,1	0,267280
1,294167	0,1	0,237939
1,295833	0,1	0,289443
1,297500	0,1	0,247344
1,299167	0,1	0,260536
1,300833	0,1	0,272914
1,302500	0,1	0,258732
1,304167	0,1	0,255077
1,305833	0,1	0,263004
1,307500	0,1	0,283809
1,309167	0,1	0,248992
1,310833	0,1	0,277414
1,312500	0,1	0,270676
1,314167	0,1	0,243968
1,315833	0,1	0,234748
1,317500	0,1	0,259916
1,319167	0,1	0,256551
1,320833	0,1	0,270580
1,322500	0,1	0,264003
1,324167	0,1	0,268393
1,325833	0,1	0,254273
1,327500	0,1	0,268644
1,329167	0,1	0,225001
1,330833	0,1	0,286294
1,332500	0,1	0,238510
1,334167	0,1	0,227171
1,335833	0,1	0,262103
1,337500	0,1	0,244392
1,339167	0,1	0,254457
1,340833	0,1	0,225741
1,342500	0,1	0,278981
1,344167	0,1	0,256945
1,345833	0,1	0,271349
1,347500	0,1	0,260089
1,349167	0,1	0,253920
1,350833	0,1	0,248104
1,352500	0,1	0,266818
1,354167	0,1	0,257683
1,355833	0,1	0,308870
1,357500	0,1	0,256425
1,359167	0,1	0,249100
1,360833	0,1	0,283280
1,362500	0,1	0,276707
1,364167	0,1	0,279400
1,365833	0,1	0,264184
1,367500	0,1	0,300941
1,369167	0,1	0,283004
1,370833	0,1	0,242762
1,372500	0,1	0,245218
1,374167	0,1	0,276130
1,375833	0,1	0,273822
1,377500	0,1	0,278641
1,379167	0,1	0,279337
1,380833	0,1	0,263652
1,382500	0,1	0,282869
1,384167	0,1	0,235564
1,385833	0,1	0,293205
1,387500	0,1	0,288463
1,389167	0,1	0,238622
1,390833	0,1	0,295059
1,392500	0,1	0,278997
1,394167	0,1	0,245128
1,395833	0,1	0,270115
1,397500	0,1	0,276098
1,399167	0,1	0,271770
1,400833	0,1	0,262292
1,402500	0,1	0,262781
1,404167	0,1	0,236138
1,405833	0,1	0,305393
1,407500	0,1	0,285419
1,409167	0,1	0,309544
1,410833	0,1	0,273062
1,412500	0,1	0,294714
1,414167	0,1	0,267660
1,415833	0,1	0,306140
1,417500	0,1	0,284037
1,419167	0,1	0,254883
1,420833	0,1	0,292594
1,422500	0,1	0,301428
1,424167	0,1	0,298319
1,425833	0,1	0,300949
1,427500	0,1	0,291511
1,429167	0,1	0,283581
1,430833	0,1	0,326750
1,432500	0,1	0,291618
1,434167	0,1	0,311345
1,435833	0,1	0,299570
1,437500	0,1	0,259643
1,439167	0,1	0,281104
1,440833	0,1	0,292891
1,442500	0,1	0,309031
1,444167	0,1	0,272129
1,445833	0,1	0,317852
1,447500	0,1	0,301460
1,449167	0,1	0,325922
1,450833	0,1	0,278075
1,452500	0,1	0,316705
1,454167	0,1	0,271654
1,455833	0,1	0,286207
1,457500	0,1	0,297132
1,459167	0,1	0,286014
1,460833	0,1	0,282910
1,462500	0,1	0,255588
1,464167	0,1	0,293299
1,465833	0,1	0,304284
1,467500	0,1	0,314333
1,469167	0,1	0,323231
1,470833	0,1	0,273743
1,472500	0,1	0,294299
1,474167	0,1	0,272894
1,475833	0,1	0,284797
1,477500	0,1	0,311732
1,479167	0,1	0,328141
1,480833	0,1	0,303967
1,482500	0,1	0,325571
1,484167	0,1	0,309879
1,485833	0,1	0,267573
1,487500	0,1	0,289868
1,489167	0,1	0,261619
1,490833	0,1	0,291213
1,492500	0,1	0,309963
1,494167	0,1	0,285609
1,495833	0,1	0,322484
1,497500	0,1	0,330585
1,499167	0,1	0,266070
1,500833	0,1	0,313590
1,502500	0,1	0,312571
1,504167	0,1	0,313638
1,505833	0,1	0,315527
1,507500	0,1	0,311189
1,509167	0,1	0,295428
1,510833	0,1	0,247913
1,512500	0,1	0,304699
1,514167	0,1	0,314233
1,515833	0,1	0,324063
1,517500	0,1	0,339692
1,519167	0,1	0,301212
1,520833	0,1	0,304087
1,522500	0,1	0,291214
1,524167	0,1	0,337277
1,525833	0,1	0,290100
1,527500	0,1	0,317159
1,529167	0,1	0,281623
1,530833	0,1	0,293558
1,532500	0,1	0,334908
1,534167	0,1	0,348499
1,535833	0,1	0,292003
1,537500	0,1	0,317477
1,539167	0,1	0,317356
1,540833	0,1	0,306633
1,542500	0,1	0,322325
1,544167	0,1	0,315267
1,545833	0,1	0,322327
1,547500	0,1	0,336389
1,549167	0,1	0,339475
1,550833	0,1	0,306448
1,552500	0,1	0,344245
1,554167	0,1	0,333665
1,555833	0,1	0,337134
1,557500	0,1	0,328464
1,559167	0,1	0,325577
1,560833	0,1	0,323162
1,562500	0,1	0,327465
1,564167	0,1	0,313823
1,565833	0,1	0,305855
1,567500	0,1	0,306855
1,569167	0,1	0,310229
1,570833	0,1	0,374688
1,572500	0,1	0,339287
1,574167	0,1	0,339984
1,575833	0,1	0,309586
1,577500	0,1	0,320429
1,579167	0,1	0,325631
1,580833	0,1	0,344474
1,582500	0,1	0,331930
1,584167	0,1	0,367886
1,585833	0,1	0,357134
1,587500	0,1	0,362776
1,589167	0,1	0,301246
1,590833	0,1	0,358509
1,592500	0,1	0,311905
1,594167	0,1	0,342030
1,595833	0,1	0,360084
1,597500	0,1	0,358904
1,599167	0,1	0,320023
1,600833	0,1	0,356320
1,602500	0,1	0,366925
1,604167	0,1	0,304040
1,605833	0,1	0,323709
1,607500	0,1	0,335396
1,609167	0,1	0,301338
1,610833	0,1	0,311249
1,612500	0,1	0,348584
1,614167	0,1	0,336261
1,615833	0,1	0,336583
1,617500	0,1	0,338636
1,619167	0,1	0,355753
1,620833	0,1	0,359121
1,622500	0,1	0,354635
1,624167	0,1	0,389338
1,625833	0,1	0,326487
1,627500	0,1	0,337513
1,629167	0,1	0,392312
1,630833	0,1	0,342276
1,632500	0,1	0,341403
1,634167	0,1	0,382070
1,635833	0,1	0,320029
1,637500	0,1	0,374012
1,639167	0,1	0,341213
1,640833	0,1	0,369263
1,642500	0,1	0,369975
1,644167	0,1	0,353022
1,645833	0,1	0,364808
1,647500	0,1	0,382115
1,649167	0,1	0,346612
1,650833	0,1	0,410455
1,652500	0,1	0,317531
1,654167	0,1	0,406497
1,655833	0,1	0,387095
1,657500	0,1	0,368535
1,659167	0,1	0,361177
1,660833	0,1	0,355334
1,662500	0,1	0,382398
1,664167	0,1	0,385393
1,665833	0,1	0,380379
1,667500	0,1	0,372482
1,669167	0,1	0,368277
1,670833	0,1	0,365544
1,672500	0,1	0,400956
1,674167	0,1	0,371782
1,675833	0,1	0,366899
1,677500	0,1	0,391805
1,679167	0,1	0,371682
1,680833	0,1	0,400125
1,682500	0,1	0,362151
1,684167	0,1	0,350425
1,685833	0,1	0,361336
1,687500	0,1	0,399348
1,689167	0,1	0,375409
1,690833	0,1	0,396851
1,692500	0,1	0,357008
1,694167	0,1	0,347367
1,695833	0,1	0,375073
1,697500	0,1	0,364298
1,699167	0,1	0,376007
1,700833	0,1	0,415760
1,702500	0,1	0,347770
1,704167	0,1	0,405734
1,705833	0,1	0,361992
1,707500	0,1	0,386379
1,709167	0,1	0,409273
1,710833	0,1	0,390340
1,712500	0,1	0,395986
1,714167	0,1	0,368410
1,715833	0,1	0,402656
1,717500	0,1	0,413648
1,719167	0,1	0,414771
1,720833	0,1	0,361670
1,722500	0,1	0,439737
1,724167	0,1	0,407459
1,725833	0,1	0,398011
1,727500	0,1	0,398396
1,729167	0,1	0,402312
1,730833	0,1	0,390338
1,732500	0,1	0,386322
1,734167	0,1	0,413385
1,735833	0,1	0,419074
1,737500	0,1	0,397504
1,739167	0,1	0,405810
1,740833	0,1	0,401348
1,742500	0,1	0,428863
1,744167	0,1	0,419366
1,745833	0,1	0,415574
1,747500	0,1	0,409025
1,749167	0,1	0,417852
1,750833	0,1	0,444281
1,752500	0,1	0,399979
1,754167	0,1	0,441290
1,755833	0,1	0,439309
1,757500	0,1	0,430124
1,759167	0,1	0,447012
1,760833	0,1	0,417444
1,762500	0,1	0,417535
1,764167	0,1	0,411079
1,765833	0,1	0,428674
1,767500	0,1	0,427135
1,769167	0,1	0,431888
1,770833	0,1	0,404147
1,772500	0,1	0,412233
1,774167	0,1	0,381445
1,775833	0,1	0,448154
1,777500	0,1	0,434493
1,779167	0,1	0,425214
1,780833	0,1	0,453590
1,782500	0,1	0,397252
1,784167	0,1	0,413610
1,785833	0,1	0,457282
1,787500	0,1	0,410737
1,789167	0,1	0,492408
1,790833	0,1	0,429335
1,792500	0,1	0,412239
1,794167	0,1	0,444468
1,795833	0,1	0,463647
1,797500	0,1	0,389868
1,799167	0,1	0,430336
1,800833	0,1	0,462165
1,802500	0,1	0,443777
1,804167	0,1	0,466054
1,805833	0,1	0,467535
1,807500	0,1	0,437354
1,809167	0,1	0,422095
1,810833	0,1	0,433491
1,812500	0,1	0,410505
1,814167	0,1	0,478761
1,815833	0,1	0,446637
1,817500	0,1	0,438601
1,819167	0,1	0,476682
1,820833	0,1	0,472325
1,822500	0,1	0,437675
1,824167	0,1	0,481562
1,825833	0,1	0,455886
1,827500	0,1	0,422167
1,829167	0,1	0,467045
1,830833	0,1	0,418700
1,832500	0,1	0,466466
1,834167	0,1	0,453954
1,835833	0,1	0,498230
1,837500	0,1	0,489412
1,839167	0,1	0,496025
1,840833	0,1	0,489763
1,842500	0,1	0,482119
1,844167	0,1	0,462690
1,845833	0,1	0,467953
1,847500	0,1	0,450938
1,849167	0,1	0,472959
1,850833	0,1	0,483143
1,852500	0,1	0,458519
1,854167	0,1	0,503466
1,855833	0,1	0,493169
1,857500	0,1	0,444072
1,859167	0,1	0,453402
1,860833	0,1	0,495468
1,862500	0,1	0,492717
1,864167	0,1	0,458714
1,865833	0,1	0,454722
1,867500	0,1	0,465124
1,869167	0,1	0,469688
1,870833	0,1	0,515574
1,872500	0,1	0,483088
1,874167	0,1	0,493870
1,875833	0,1	0,459255
1,877500	0,1	0,484971
1,879167	0,1	0,491976
1,880833	0,1	0,464557
1,882500	0,1	0,476622
1,884167	0,1	0,515480
1,885833	0,1	0,501425
1,887500	0,1	0,473356
1,889167	0,1	0,473573
1,890833	0,1	0,519557
1,892500	0,1	0,507815
1,894167	0,1	0,502772
1,895833	0,1	0,510636
1,897500	0,1	0,497087
1,899167	0,1	0,486007
1,900833	0,1	0,488797
1,902500	0,1	0,498914
1,904167	0,1	0,514394
1,905833	0,1	0,509195
1,907500	0,1	0,520978
1,909167	0,1	0,505182
1,910833	0,1	0,504600
1,912500	0,1	0,541499
1,914167	0,1	0,521084
1,915833	0,1	0,498631
1,917500	0,1	0,524251
1,919167	0,1	0,479495
1,920833	0,1	0,509025
1,922500	0,1	0,496445
1,924167	0,1	0,542171
1,925833	0,1	0,536272
1,927500	0,1	0,500017
1,929167	0,1	0,502672
1,930833	0,1	0,497921
1,932500	0,1	0,457942
1,934167	0,1	0,534166
1,935833	0,1	0,505827
1,937500	0,1	0,526629
1,939167	0,1	0,497669
1,940833	0,1	0,476919
1,942500	0,1	0,528840
1,944167	0,1	0,531130
1,945833	0,1	0,518127
1,947500	0,1	0,547281
1,949167	0,1	0,522593
1,950833	0,1	0,518446
1,952500	0,1	0,497731
1,954167	0,1	0,548499
1,955833	0,1	0,522786
1,957500	0,1	0,512730
1,959167	0,1	0,551487
1,960833	0,1	0,530527
1,962500	0,1	0,538614
1,964167	0,1	0,500724
1,965833	0,1	0,549012
1,967500	0,1	0,545202
1,969167	0,1	0,526575
1,970833	0,1	0,552167
1,972500	0,1	0,524169
1,974167	0,1	0,513758
1,975833	0,1	0,541501
1,977500	0,1	0,544270
1,979167	0,1	0,506377
1,980833	0,1	0,548371
1,982500	0,1	0,530526
1,984167	0,1	0,504511
1,985833	0,1	0,528140
1,987500	0,1	0,546963
1,989167	0,1	0,543308
1,990833	0,1	0,530526
1,992500	0,1	0,530844
1,994167	0,1	0,544362
1,995833	0,1	0,530718
1,997500	0,1	0,520567
1,999167	0,1	0,521914
2,000833	0,1	0,540313
2,002500	0,1	0,539355
2,004167	0,1	0,517839
2,005833	0,1	0,518540
2,007500	0,1	0,542144
2,009167	0,1	0,550820
2,010833	0,1	0,514150
2,012500	0,1	0,521878
2,014167	0,1	0,527982
2,015833	0,1	0,503963
2,017500	0,1	0,531381
2,019167	0,1	0,545681
2,020833	0,1	0,537462
2,022500	0,1	0,541216
2,024167	0,1	0,535278
2,025833	0,1	0,538133
2,027500	0,1	0,523010
2,029167	0,1	0,531998
2,030833	0,1	0,533284
2,032500	0,1	0,540317
2,034167	0,1	0,559650
2,035833	0,1	0,557408
2,037500	0,1	0,554999
2,039167	0,1	0,565854
2,040833	0,1	0,534351
2,042500	0,1	0,594334
2,044167	0,1	0,542483
2,045833	0,1	0,533639
2,047500	0,1	0,504127
2,049167	0,1	0,536584
2,050833	0,1	0,544428
2,052500	0,1	0,573623
2,054167	0,1	0,547777
2,055833	0,1	0,547096
2,057500	0,1	0,511002
2,059167	0,1	0,520691
2,060833	0,1	0,550460
2,062500	0,1	0,522465
2,064167	0,1	0,512922
2,065833	0,1	0,534308
2,067500	0,1	0,537940
2,069167	0,1	0,559104
2,070833	0,1	0,533257
2,072500	0,1	0,560355
2,074167	0,1	0,550985
2,075833	0,1	0,579887
2,077500	0,1	0,546044
2,079167	0,1	0,539582
2,080833	0,1	0,513505
2,082500	0,1	0,564911
2,084167	0,1	0,537819
2,085833	0,1	0,556279
2,087500	0,1	0,551369
2,089167	0,1	0,549441
2,090833	0,1	0,547706
2,092500	0,1	0,538169
2,094167	0,1	0,539516
2,095833	0,1	0,495586
2,097500	0,1	0,524027
2,099167	0,1	0,550751
2,100833	0,1	0,520667
2,102500	0,1	0,534245
2,104167	0,1	0,600660
2,105833	0,1	0,509954
2,107500	0,1	0,526471
2,109167	0,1	0,555280
2,110833	0,1	0,553714
2,112500	0,1	0,541735
2,114167	0,1	0,514885
2,115833	0,1	0,508810
2,117500	0,1	0,559355
2,119167	0,1	0,559270
2,120833	0,1	0,541350
2,122500	0,1	0,583516
2,124167	0,1	0,521317
2,125833	0,1	0,530006
2,127500	0,1	0,535691
2,129167	0,1	0,566523
2,130833	0,1	0,545977
2,132500	0,1	0,556762
2,134167	0,1	0,484929
2,135833	0,1	0,515675
2,137500	0,1	0,534403
2,139167	0,1	0,527055
2,140833	0,1	0,577248
2,142500	0,1	0,505260
2,144167	0,1	0,536455
2,145833	0,1	0,565400
2,147500	0,1	0,556447
2,149167	0,1	0,518870
2,150833	0,1	0,510032
2,152500	0,1	0,546060
2,154167	0,1	0,575516
2,155833	0,1	0,516275
2,157500	0,1	0,513049
2,159167	0,1	0,531255
2,160833	0,1	0,523745
2,162500	0,1	0,499659
2,164167	0,1	0,515743
2,165833	0,1	0,547055
2,167500	0,1	0,545457
2,169167	0,1	0,496839
2,170833	0,1	0,537001
2,172500	0,1	0,553869
2,174167	0,1	0,537721
2,175833	0,1	0,509008
2,177500	0,1	0,538867
2,179167	0,1	0,551878
2,180833	0,1	0,527894
2,182500	0,1	0,495519
2,184167	0,1	0,535105
2,185833	0,1	0,553997
2,187500	0,1	0,528439
2,189167	0,1	0,547285
2,190833	0,1	0,498574
2,192500	0,1	0,527560
2,194167	0,1	0,548149
2,195833	0,1	0,546519
2,197500	0,1	0,502845
2,199167	0,1	0,553732
2,200833	0,1	0,509590
2,202500	0,1	0,516033
2,204167	0,1	0,519503
2,205833	0,1	0,527917
2,207500	0,1	0,532672
2,209167	0,1	0,485823
2,210833	0,1	0,529805
2,212500	0,1	0,494299
2,214167	0,1	0,499814
2,215833	0,1	0,531316
2,217500	0,1	0,482226
2,219167	0,1	0,505527
2,220833	0,1	0,499976
2,222500	0,1	0,526564
2,224167	0,1	0,502519
2,225833	0,1	0,476055
2,227500	0,1	0,480158
2,229167	0,1	0,504050
2,230833	0,1	0,506560
2,232500	0,1	0,550106
2,234167	0,1	0,510969
2,235833	0,1	0,515360
2,237500	0,1	0,518796
2,239167	0,1	0,523904
2,240833	0,1	0,540732
2,242500	0,1	0,455384
2,244167	0,1	0,510047
2,245833	0,1	0,523869
2,247500	0,1	0,510868
2,249167	0,1	0,509226
2,250833	0,1	0,487518
2,252500	0,1	0,473064
2,254167	0,1	0,518593
2,255833	0,1	0,522298
2,257500	0,1	0,499595
2,259167	0,1	0,499397
2,260833	0,1	0,503957
2,262500	0,1	0,494388
2,264167	0,1	0,525889
2,265833	0,1	0,481326
2,267500	0,1	0,453766
2,269167	0,1	0,508025
2,270833	0,1	0,493074
2,272500	0,1	0,518246
2,274167	0,1	0,511539
2,275833	0,1	0,497024
2,277500	0,1	0,485300
2,279167	0,1	0,505944
2,280833	0,1	0,514781
2,282500	0,1	0,523805
2,284167	0,1	0,447741
2,285833	0,1	0,505228
2,287500	0,1	0,480679
2,289167	0,1	0,518531
2,290833	0,1	0,470793
2,292500	0,1	0,486643
2,294167	0,1	0,466544
2,295833	0,1	0,477104
2,297500	0,1	0,473255
2,299167	0,1	0,480574
2,300833	0,1	0,430776
2,302500	0,1	0,499252
2,304167	0,1	0,496828
2,305833	0,1	0,466869
2,307500	0,1	0,478517
2,309167	0,1	0,474988
2,310833	0,1	0,473831
2,312500	0,1	0,477620
2,314167	0,1	0,477171
2,315833	0,1	0,469049
2,317500	0,1	0,481314
2,319167	0,1	0,503760
2,320833	0,1	0,462889
2,322500	0,1	0,492260
2,324167	0,1	0,483596
2,325833	0,1	0,470300
2,327500	0,1	0,461562
2,329167	0,1	0,468081
2,330833	0,1	0,455657
2,332500	0,1	0,470680
2,334167	0,1	0,487157
2,335833	0,1	0,452898
2,337500	0,1	0,476138
2,339167	0,1	0,425315
2,340833	0,1	0,473980
2,342500	0,1	0,488666
2,344167	0,1	0,503345
2,345833	0,1	0,512083
2,347500	0,1	0,493076
2,349167	0,1	0,451328
2,350833	0,1	0,450580
2,352500	0,1	0,516019
2,354167	0,1	0,464563
2,355833	0,1	0,463812
2,357500	0,1	0,438289
2,359167	0,1	0,483553
2,360833	0,1	0,466932
2,362500	0,1	0,453405
2,364167	0,1	0,423323
2,365833	0,1	0,451569
2,367500	0,1	0,490715
2,369167	0,1	0,459257
2,370833	0,1	0,489402
2,372500	0,1	0,477624
2,374167	0,1	0,469371
2,375833	0,1	0,455785
2,377500	0,1	0,464516
2,379167	0,1	0,496755
2,380833	0,1	0,444396
2,382500	0,1	0,478095
2,384167	0,1	0,459547
2,385833	0,1	0,511880
2,387500	0,1	0,470469
2,389167	0,1	0,417867
2,390833	0,1	0,446844
2,392500	0,1	0,468943
2,394167	0,1	0,463973
2,395833	0,1	0,443810
2,397500	0,1	0,455555
2,399167	0,1	0,397732
2,400833	0,1	0,477056
2,402500	0,1	0,455017
2,404167	0,1	0,433920
2,405833	0,1	0,463418
2,407500	0,1	0,473798
2,409167	0,1	0,457619
2,410833	0,1	0,460504
2,412500	0,1	0,451195
2,414167	0,1	0,420622
2,415833	0,1	0,449000
2,417500	0,1	0,464640
2,419167	0,1	0,435526
2,420833	0,1	0,440107
2,422500	0,1	0,413398
2,424167	0,1	0,448356
2,425833	0,1	0,460981
2,427500	0,1	0,427142
2,429167	0,1	0,426336
2,430833	0,1	0,418272
2,432500	0,1	0,445498
2,434167	0,1	0,404632
2,435833	0,1	0,416341
2,437500	0,1	0,427969
2,439167	0,1	0,434326
2,440833	0,1	0,429289
2,442500	0,1	0,443220
2,444167	0,1	0,431923
2,445833	0,1	0,401551
2,447500	0,1	0,412296
2,449167	0,1	0,403212
2,450833	0,1	0,382570
2,452500	0,1	0,386066
2,454167	0,1	0,401216
2,455833	0,1	0,376757
2,457500	0,1	0,409047
2,459167	0,1	0,382792
2,460833	0,1	0,401470
2,462500	0,1	0,453906
2,464167	0,1	0,403447
2,465833	0,1	0,435927
2,467500	0,1	0,412436
2,469167	0,1	0,421387
2,470833	0,1	0,433618
2,472500	0,1	0,418309
2,474167	0,1	0,395478
2,475833	0,1	0,436762
2,477500	0,1	0,417476
2,479167	0,1	0,379069
2,480833	0,1	0,385805
2,482500	0,1	0,404941
2,484167	0,1	0,357307
2,485833	0,1	0,390773
2,487500	0,1	0,344139
2,489167	0,1	0,369936
2,490833	0,1	0,363294
2,492500	0,1	0,410264
2,494167	0,1	0,364885
2,495833	0,1	0,399932
2,497500	0,1	0,393387
2,499167	0,1	0,366383
2,500833	0,1	0,395374
2,502500	0,1	0,428989
2,504167	0,1	0,389027
2,505833	0,1	0,364429
2,507500	0,1	0,394956
2,509167	0,1	0,375633
2,510833	0,1	0,376912
2,512500	0,1	0,392357
2,514167	0,1	0,403691
2,515833	0,1	0,379614
2,517500	0,1	0,352228
2,519167	0,1	0,387636
2,520833	0,1	0,403367
2,522500	0,1	0,374641
2,524167	0,1	0,424234
2,525833	0,1	0,382315
2,527500	0,1	0,365965
2,529167	0,1	0,345805
2,530833	0,1	0,365285
2,532500	0,1	0,384199
2,534167	0,1	0,362311
2,535833	0,1	0,389750
2,537500	0,1	0,352033
2,539167	0,1	0,376942
2,540833	0,1	0,366606
2,542500	0,1	0,348373
2,544167	0,1	0,382396
2,545833	0,1	0,381408
2,547500	0,1	0,345999
2,549167	0,1	0,364355
2,550833	0,1	0,371612
2,552500	0,1	0,357623
2,554167	0,1	0,387632
2,555833	0,1	0,355277
2,557500	0,1	0,366959
2,559167	0,1	0,353954
2,560833	0,1	0,324968
2,562500	0,1	0,349583
2,564167	0,1	0,338195
2,565833	0,1	0,365671
2,567500	0,1	0,326897
2,569167	0,1	0,331571
2,570833	0,1	0,389264
2,572500	0,1	0,367899
2,574167	0,1	0,347668
2,575833	0,1	0,335619
2,577500	0,1	0,350833
2,579167	0,1	0,342203
2,580833	0,1	0,371804
2,582500	0,1	0,371169
2,584167	0,1	0,352126
2,585833	0,1	0,370389
2,587500	0,1	0,362913
2,589167	0,1	0,383329
2,590833	0,1	0,315826
2,592500	0,1	0,351380
2,594167	0,1	0,329236
2,595833	0,1	0,360435
2,597500	0,1	0,358868
2,599167	0,1	0,357457
2,600833	0,1	0,341816
2,602500	0,1	0,315563
2,604167	0,1	0,360529
2,605833	0,1	0,326832
2,607500	0,1	0,329328
2,609167	0,1	0,318833
2,610833	0,1	0,337448
2,612500	0,1	0,357324
2,614167	0,1	0,318034
2,615833	0,1	0,341785
2,617500	0,1	0,294793
2,619167	0,1	0,351756
2,620833	0,1	0,354465
2,622500	0,1	0,331578
2,624167	0,1	0,360048
2,625833	0,1	0,336173
2,627500	0,1	0,367145
2,629167	0,1	0,320160
2,630833	0,1	0,317771
2,632500	0,1	0,290386
2,634167	0,1	0,323706
2,635833	0,1	0,338289
2,637500	0,1	0,311774
2,639167	0,1	0,303874
2,640833	0,1	0,320047
2,642500	0,1	0,350195
2,644167	0,1	0,291333
2,645833	0,1	0,291537
2,647500	0,1	0,322964
2,649167	0,1	0,326020
2,650833	0,1	0,292639
2,652500	0,1	0,320108
2,654167	0,1	0,278905
2,655833	0,1	0,291569
2,657500	0,1	0,288453
2,659167	0,1	0,314554
2,660833	0,1	0,290069
2,662500	0,1	0,336608
2,664167	0,1	0,263907
2,665833	0,1	0,340193
2,667500	0,1	0,325353
2,669167	0,1	0,295849
2,670833	0,1	0,328835
2,672500	0,1	0,272414
2,674167	0,1	0,279715
2,675833	0,1	0,279327
2,677500	0,1	0,294589
2,679167	0,1	0,303870
2,680833	0,1	0,289035
2,682500	0,1	0,305722
2,684167	0,1	0,277870
2,685833	0,1	0,286107
2,687500	0,1	0,287529
2,689167	0,1	0,289961
2,690833	0,1	0,321164
2,692500	0,1	0,298767
2,694167	0,1	0,303355
2,695833	0,1	0,278221
2,697500	0,1	0,311180
2,699167	0,1	0,308114
2,700833	0,1	0,278801
2,702500	0,1	0,276100
2,704167	0,1	0,250514
2,705833	0,1	0,313324
2,707500	0,1	0,261246
2,709167	0,1	0,294783
2,710833	0,1	0,319276
2,712500	0,1	0,290648
2,714167	0,1	0,264033
2,715833	0,1	0,269477
2,717500	0,1	0,284180
2,719167	0,1	0,260948
2,720833	0,1	0,284241
2,722500	0,1	0,301778
2,724167	0,1	0,277942
2,725833	0,1	0,272890
2,727500	0,1	0,251128
2,729167	0,1	0,271301
2,730833	0,1	0,249518
2,732500	0,1	0,260424
2,734167	0,1	0,291944
2,735833	0,1	0,247383
2,737500	0,1	0,254383
2,739167	0,1	0,278826
2,740833	0,1	0,248074
2,742500	0,1	0,271273
2,744167	0,1	0,278441
2,745833	0,1	0,283388
2,747500	0,1	0,236947
2,749167	0,1	0,275258
2,750833	0,1	0,287454
2,752500	0,1	0,310765
2,754167	0,1	0,267121
2,755833	0,1	0,239411
2,757500	0,1	0,279075
2,759167	0,1	0,250362
2,760833	0,1	0,259621
2,762500	0,1	0,270129
2,764167	0,1	0,249328
2,765833	0,1	0,228331
2,767500	0,1	0,234909
2,769167	0,1	0,223004
2,770833	0,1	0,273820
2,772500	0,1	0,319090
2,774167	0,1	0,233168
2,775833	0,1	0,239868
2,777500	0,1	0,236610
2,779167	0,1	0,221910
2,780833	0,1	0,250211
2,782500	0,1	0,268716
2,784167	0,1	0,191564
2,785833	0,1	0,207918
2,787500	0,1	0,218154
2,789167	0,1	0,219728
2,790833	0,1	0,225819
2,792500	0,1	0,254817
2,794167	0,1	0,243737
2,795833	0,1	0,215859
2,797500	0,1	0,219274
2,799167	0,1	0,236353
2,800833	0,1	0,244665
2,802500	0,1	0,237681
2,804167	0,1	0,247395
2,805833	0,1	0,226342
2,807500	0,1	0,237965
2,809167	0,1	0,197786
2,810833	0,1	0,217635
2,812500	0,1	0,212506
2,814167	0,1	0,226346
2,815833	0,1	0,229900
2,817500	0,1	0,237387
2,819167	0,1	0,235904
2,820833	0,1	0,203045
2,822500	0,1	0,246303
2,824167	0,1	0,231225
2,825833	0,1	0,222967
2,827500	0,1	0,217363
2,829167	0,1	0,176337
2,830833	0,1	0,188184
2,832500	0,1	0,178093
2,834167	0,1	0,220234
2,835833	0,1	0,227142
2,837500	0,1	0,211552
2,839167	0,1	0,209874
2,840833	0,1	0,201795
2,842500	0,1	0,201691
2,844167	0,1	0,198042
2,845833	0,1	0,232146
2,847500	0,1	0,217845
2,849167	0,1	0,214570
2,850833	0,1	0,220408
2,852500	0,1	0,217653
2,854167	0,1	0,199644
2,855833	0,1	0,170041
2,857500	0,1	0,223630
2,859167	0,1	0,223266
2,860833	0,1	0,216269
2,862500	0,1	0,199292
2,864167	0,1	0,196330
2,865833	0,1	0,214237
2,867500	0,1	0,205898
2,869167	0,1	0,155510
2,870833	0,1	0,219398
2,872500	0,1	0,184304
2,874167	0,1	0,200568
2,875833	0,1	0,179542
2,877500	0,1	0,182432
2,879167	0,1	0,228102
2,880833	0,1	0,207926
2,882500	0,1	0,171983
2,884167	0,1	0,204541
2,885833	0,1	0,191323
2,887500	0,1	0,198542
2,889167	0,1	0,206120
2,890833	0,1	0,192230
2,892500	0,1	0,179868
2,894167	0,1	0,175436
2,895833	0,1	0,142190
2,897500	0,1	0,188715
2,899167	0,1	0,201588
2,900833	0,1	0,180803
2,902500	0,1	0,159683
2,904167	0,1	0,169530
2,905833	0,1	0,185701
2,907500	0,1	0,155090
2,909167	0,1	0,178764
2,910833	0,1	0,181628
2,912500	0,1	0,142811
2,914167	0,1	0,185960
2,915833	0,1	0,174507
2,917500	0,1	0,220108
2,919167	0,1	0,163418
2,920833	0,1	0,155578
2,922500	0,1	0,160607
2,924167	0,1	0,189627
2,925833	0,1	0,156828
2,927500	0,1	0,146803
2,929167	0,1	0,147936
2,930833	0,1	0,157625
2,932500	0,1	0,161124
2,934167	0,1	0,178968
2,935833	0,1	0,141261
2,937500	0,1	0,192668
2,939167	0,1	0,147844
2,940833	0,1	0,139679
2,942500	0,1	0,192856
2,944167	0,1	0,156327
2,945833	0,1	0,173505
2,947500	0,1	0,158295
2,949167	0,1	0,130285
2,950833	0,1	0,132633
2,952500	0,1	0,141992
2,954167	0,1	0,124669
2,955833	0,1	0,150889
2,957500	0,1	0,171353
2,959167	0,1	0,154751
2,960833	0,1	0,122872
2,962500	0,1	0,132718
2,964167	0,1	0,155446
2,965833	0,1	0,160194
2,967500	0,1	0,134298
2,969167	0,1	0,151618
2,970833	0,1	0,148517
2,972500	0,1	0,147874
2,974167	0,1	0,188089
2,975833	0,1	0,094335
2,977500	0,1	0,191536
2,979167	0,1	0,146639
2,980833	0,1	0,146174
2,982500	0,1	0,139532
2,984167	0,1	0,136218
2,985833	0,1	0,115458
2,987500	0,1	0,149563
2,989167	0,1	0,131691
2,990833	0,1	0,110737
2,992500	0,1	0,137661
2,994167	0,1	0,126759
2,995833	0,1	0,130402
2,997500	0,1	0,124003
2,999167	0,1	0,121206
3,000833	0,1	0,140064
3,002500	0,1	0,136673
3,004167	0,1	0,136405
3,005833	0,1	0,133463
3,007500	0,1	0,117608
3,009167	0,1	0,140041
3,010833	0,1	0,162403
3,012500	0,1	0,120574
3,014167	0,1	0,121621
3,015833	0,1	0,146747
3,017500	0,1	0,129390
3,019167	0,1	0,147557
3,020833	0,1	0,115523
3,022500	0,1	0,112762
3,024167	0,1	0,091545
3,025833	0,1	0,123498
3,027500	0,1	0,121293
3,029167	0,1	0,150973
3,030833	0,1	0,153407
3,032500	0,1	0,110329
3,034167	0,1	0,125820
3,035833	0,1	0,078386
3,037500	0,1	0,095161
3,039167	0,1	0,149370
3,040833	0,1	0,111941
3,042500	0,1	0,120953
3,044167	0,1	0,123796
3,045833	0,1	0,088774
3,047500	0,1	0,172824
3,049167	0,1	0,122751
3,050833	0,1	0,094052
3,052500	0,1	0,122357
3,054167	0,1	0,112410
3,055833	0,1	0,122136
3,057500	0,1	0,116589
3,059167	0,1	0,118700
3,060833	0,1	0,086848
3,062500	0,1	0,108552
3,064167	0,1	0,132423
3,065833	0,1	0,134708
3,067500	0,1	0,118063
3,069167	0,1	0,105312
3,070833	0,1	0,076498
3,072500	0,1	0,118340
3,074167	0,1	0,145817
3,075833	0,1	0,121361
3,077500	0,1	0,120314
3,079167	0,1	0,099663
3,080833	0,1	0,113875
3,082500	0,1	0,092683
3,084167	0,1	0,072975
3,085833	0,1	0,066368
3,087500	0,1	0,093670
3,089167	0,1	0,106278
3,090833	0,1	0,098415
3,092500	0,1	0,088438
3,094167	0,1	0,095140
3,095833	0,1	0,142086
3,097500	0,1	0,047262
3,099167	0,1	0,114858
3,100833	0,1	0,101750
3,102500	0,1	0,148918
3,104167	0,1	0,079424
3,105833	0,1	0,097063
3,107500	0,1	0,101974
3,109167	0,1	0,120208
3,110833	0,1	0,104710
3,112500	0,1	0,099698
3,114167	0,1	0,062836
3,115833	0,1	0,085676
3,117500	0,1	0,109585
3,119167	0,1	0,077284
3,120833	0,1	0,110991
3,122500	0,1	0,118761
3,124167	0,1	0,109742
3,125833	0,1	0,133356
3,127500	0,1	0,082155
3,129167	0,1	0,063183
3,130833	0,1	0,092092
3,132500	0,1	0,102573
3,134167	0,1	0,077158
3,135833	0,1	0,138748
3,137500	0,1	0,090785
3,139167	0,1	0,078874
3,140833	0,1	0,092571
3,142500	0,1	0,113561
3,144167	0,1	0,115203
3,145833	0,1	0,082150
3,147500	0,1	0,087314
3,149167	0,1	0,105367
3,150833	0,1	0,082499
3,152500	0,1	0,109421
3,154167	0,1	0,092703
3,155833	0,1	0,086158
3,157500	0,1	0,046980
3,159167	0,1	0,089025
3,160833	0,1	0,076245
3,162500	0,1	0,115482
3,164167	0,1	0,056133
3,165833	0,1	0,084866
3,167500	0,1	0,101846
3,169167	0,1	0,130888
3,170833	0,1	0,121624
3,172500	0,1	0,106118
3,174167	0,1	0,063748
3,175833	0,1	0,069966
3,177500	0,1	0,101718
3,179167	0,1	0,120747
3,180833	0,1	0,045126
3,182500	0,1	0,076627
3,184167	0,1	0,090770
3,185833	0,1	0,101081
3,187500	0,1	0,114392
3,189167	0,1	0,110070
3,190833	0,1	0,116485
3,192500	0,1	0,061682
3,194167	0,1	0,078182
3,195833	0,1	0,104474
3,197500	0,1	0,057891
3,199167	0,1	0,074663
3,200833	0,1	0,118565
3,202500	0,1	0,091339
3,204167	0,1	0,080282
3,205833	0,1	0,070219
3,207500	0,1	0,073817
3,209167	0,1	0,084520
3,210833	0,1	0,116542
3,212500	0,1	0,125266
3,214167	0,1	0,061621
3,215833	0,1	0,070048
3,217500	0,1	0,078601
3,219167	0,1	0,089859
3,220833	0,1	0,111823
3,222500	0,1	0,060437
3,224167	0,1	0,066490
3,225833	0,1	0,080668
3,227500	0,1	0,079968
3,229167	0,1	0,081189
3,230833	0,1	0,063968
3,232500	0,1	0,055066
3,234167	0,1	0,038943
3,235833	0,1	0,077287
3,237500	0,1	0,079078
3,239167	0,1	0,083526
3,240833	0,1	0,053684
3,242500	0,1	0,079216
3,244167	0,1	0,069827
3,245833	0,1	0,075804
3,247500	0,1	0,077128
3,249167	0,1	0,089261
3,250833	0,1	0,025044
3,252500	0,1	0,066668
3,254167	0,1	0,039958
3,255833	0,1	0,074348
3,257500	0,1	0,045217
3,259167	0,1	0,078572
3,260833	0,1	0,082243
3,262500	0,1	0,088660
3,264167	0,1	0,069125
3,265833	0,1	0,041657
3,267500	0,1	0,027847
3,269167	0,1	0,024738
3,270833	0,1	0,057748
3,272500	0,1	0,065785
3,274167	0,1	0,071787
3,275833	0,1	0,018913
3,277500	0,1	0,062215
3,279167	0,1	0,100558
3,280833	0,1	0,047727
3,282500	0,1	0,100617
3,284167	0,1	0,048908
3,285833	0,1	0,036167
3,287500	0,1	0,032894
3,289167	0,1	0,052823
3,290833	0,1	0,009927
3,292500	0,1	0,063931
3,294167	0,1	0,054032
3,295833	0,1	0,041114
3,297500	0,1	0,029749
3,299167	0,1	0,031445
3,300833	0,1	0,063170
3,302500	0,1	0,004094
3,304167	0,1	0,055154
3,305833	0,1	0,050862
3,307500	0,1	0,009223
3,309167	0,1	0,053273
3,310833	0,1	0,046537
3,312500	0,1	0,066009
3,314167	0,1	0,034370
3,315833	0,1	0,033557
3,317500	0,1	0,052968
3,319167	0,1	0,070171
3,320833	0,1	0,018417
3,322500	0,1	0,062257
3,324167	0,1	0,018787
3,325833	0,1	0,059773
3,327500	0,1	0,038094
3,329167	0,1	0,048893
3,330833	0,1	0,043908
3,332500	0,1	0,061664
3,334167	0,1	0,070794
3,335833	0,1	0,011877
3,337500	0,1	0,074881
3,339167	0,1	0,051531
3,340833	0,1	0,076917
3,342500	0,1	0,052585
3,344167	0,1	0,031202
3,345833	0,1	0,039122
3,347500	0,1	0,035296
3,349167	0,1	0,050546
3,350833	0,1	0,030953
3,352500	0,1	0,035397
3,354167	0,1	0,085482
3,355833	0,1	0,002094
3,357500	0,1	0,014510
3,359167	0,1	-0,015888
3,360833	0,1	0,042236
3,362500	0,1	0,080639
3,364167	0,1	0,020570
3,365833	0,1	0,003464
3,367500	0,1	0,021236
3,369167	0,1	0,016294
3,370833	0,1	0,015341
3,372500	0,1	0,027487
3,374167	0,1	0,049159
3,375833	0,1	0,023255
3,377500	0,1	0,052903
3,379167	0,1	0,033415
3,380833	0,1	0,020828
3,382500	0,1	0,009755
3,384167	0,1	0,017739
3,385833	0,1	0,033780
3,387500	0,1	0,015014
3,389167	0,1	0,041373
3,390833	0,1	0,034116
3,392500	0,1	0,017788
3,394167	0,1	0,034379
3,395833	0,1	0,060686
3,397500	0,1	0,036854
3,399167	0,1	0,053777
3,400833	0,1	0,051254
3,402500	0,1	0,023358
3,404167	0,1	-0,002454
3,405833	0,1	0,024917
3,407500	0,1	0,069689
3,409167	0,1	0,004325
3,410833	0,1	-0,007737
3,412500	0,1	0,037354
3,414167	0,1	0,039310
3,415833	0,1	0,034800
3,417500	0,1	0,032500
3,419167	0,1	0,028899
3,420833	0,1	0,075236
3,422500	0,1	0,063927
3,424167	0,1	0,054072
3,425833	0,1	-0,003172
3,427500	0,1	0,013949
3,429167	0,1	0,043133
3,430833	0,1	0,065615
3,432500	0,1	0,033316
3,434167	0,1	0,015408
3,435833	0,1	0,039844
3,437500	0,1	0,008622
3,439167	0,1	0,025149
3,440833	0,1	-0,001459
3,442500	0,1	0,003499
3,444167	0,1	0,025063
3,445833	0,1	0,009260
3,447500	0,1	0,008469
3,449167	0,1	0,025189
3,450833	0,1	0,018074
3,452500	0,1	-0,000054
3,454167	0,1	0,008424
3,455833	0,1	0,010269
3,457500	0,1	0,022397
3,459167	0,1	0,040301
3,460833	0,1	0,016525
3,462500	0,1	0,013851
3,464167	0,1	0,003856
3,465833	0,1	0,019414
3,467500	0,1	0,011596
3,469167	0,1	0,044665
3,470833	0,1	0,000550
3,472500	0,1	0,015233
3,474167	0,1	0,043422
3,475833	0,1	-0,029144
3,477500	0,1	0,033706
3,479167	0,1	-0,002431
3,480833	0,1	0,004512
3,482500	0,1	0,023511
3,484167	0,1	0,019896
3,485833	0,1	0,027407
3,487500	0,1	0,011660
3,489167	0,1	-0,016611
3,490833	0,1	0,009622
3,492500	0,1	0,007081
3,494167	0,1	-0,005459
3,495833	0,1	0,051655
3,497500	0,1	0,017315
3,499167	0,1	0,025315
3,500833	0,1	0,023848
3,502500	0,1	0,038190
3,504167	0,1	-0,010150
3,505833	0,1	0,006395
3,507500	0,1	0,008177
3,509167	0,1	0,025811
3,510833	0,1	0,024406
3,512500	0,1	0,022710
3,514167	0,1	0,001311
3,515833	0,1	0,006707
3,517500	0,1	0,021277
3,519167	0,1	0,014701
3,520833	0,1	0,016002
3,522500	0,1	0,016045
3,524167	0,1	0,020681
3,525833	0,1	0,026475
3,527500	0,1	0,003735
3,529167	0,1	0,062378
3,530833	0,1	0,001881
3,532500	0,1	0,013351
3,534167	0,1	0,004786
3,535833	0,1	0,013145
3,537500	0,1	0,007621
3,539167	0,1	0,039240
3,540833	0,1	0,051211
3,542500	0,1	0,010032
3,544167	0,1	0,009523
3,545833	0,1	0,025458
3,547500	0,1	0,002390
3,549167	0,1	-0,017007
3,550833	0,1	-0,004429
3,552500	0,1	0,029469
3,554167	0,1	0,038316
3,555833	0,1	0,024099
3,557500	0,1	0,015963
3,559167	0,1	0,056751
3,560833	0,1	0,019324
3,562500	0,1	0,013396
3,564167	0,1	0,016664
3,565833	0,1	0,010085
3,567500	0,1	0,043090
3,569167	0,1	0,020666
3,570833	0,1	0,001704
3,572500	0,1	0,021276
3,574167	0,1	0,036700
3,575833	0,1	0,017745
3,577500	0,1	0,039844
3,579167	0,1	-0,007273
3,580833	0,1	0,031849
3,582500	0,1	0,038047
3,584167	0,1	-0,005181
3,585833	0,1	0,025083
3,587500	0,1	-0,005268
3,589167	0,1	0,021647
3,590833	0,1	0,044500
3,592500	0,1	-0,003835
3,594167	0,1	0,015377
3,595833	0,1	0,040008
3,597500	0,1	0,009097
3,599167	0,1	0,042386
3,600833	0,1	0,006531
3,602500	0,1	0,025417
3,604167	0,1	0,027117
3,605833	0,1	0,043758
3,607500	0,1	0,014313
3,609167	0,1	0,006815
3,610833	0,1	0,000275
3,612500	0,1	0,035432
3,614167	0,1	0,050382
3,615833	0,1	-0,007289
3,617500	0,1	0,019826
3,619167	0,1	0,005472
3,620833	0,1	0,008158
3,622500	0,1	-0,010032
3,624167	0,1	-0,014031
3,625833	0,1	0,039939
3,627500	0,1	0,004005
3,629167	0,1	-0,004260
3,630833	0,1	0,003127
3,632500	0,1	0,032266
3,634167	0,1	0,021780
3,635833	0,1	-0,020086
3,637500	0,1	0,039276
3,639167	0,1	0,006013
3,640833	0,1	0,021856
3,642500	0,1	0,057829
3,644167	0,1	0,014729
3,645833	0,1	0,032683
3,647500	0,1	0,071989
3,649167	0,1	0,045776
3,650833	0,1	0,053426
3,652500	0,1	0,012577
3,654167	0,1	0,013249
3,655833	0,1	0,029910
3,657500	0,1	-0,007855
3,659167	0,1	0,034002
3,660833	0,1	0,014993
3,662500	0,1	0,013603
3,664167	0,1	0,015753
3,665833	0,1	0,028938
3,667500	0,1	0,014579
3,669167	0,1	0,002511
3,670833	0,1	0,020718
3,672500	0,1	0,015280
3,674167	0,1	0,036698
3,675833	0,1	0,028279
3,677500	0,1	0,054394
3,679167	0,1	0,018372
3,680833	0,1	-0,002704
3,682500	0,1	0,013515
3,684167	0,1	0,044459
3,685833	0,1	0,043720
3,687500	0,1	0,020728
3,689167	0,1	0,023496
3,690833	0,1	0,014535
3,692500	0,1	0,052384
3,694167	0,1	-0,022395
3,695833	0,1	0,020877
3,697500	0,1	0,032995
3,699167	0,1	-0,037052
3,700833	0,1	0,015989
3,702500	0,1	0,024859
3,704167	0,1	0,042390
3,705833	0,1	-0,004105
3,707500	0,1	0,027876
3,709167	0,1	-0,004833
3,710833	0,1	0,057161
3,712500	0,1	0,002251
3,714167	0,1	0,020573
3,715833	0,1	-0,001544
3,717500	0,1	0,044786
3,719167	0,1	0,030454
3,720833	0,1	0,051808
3,722500	0,1	0,025035
3,724167	0,1	0,045682
3,725833	0,1	0,038856
3,727500	0,1	0,014684
3,729167	0,1	0,041995
3,730833	0,1	0,015534
3,732500	0,1	0,052921
3,734167	0,1	0,047385
3,735833	0,1	0,020500
3,737500	0,1	0,008202
3,739167	0,1	-0,001340
3,740833	0,1	0,036548
3,742500	0,1	0,019484
3,744167	0,1	0,033345
3,745833	0,1	0,031715
3,747500	0,1	0,053360
3,749167	0,1	0,023504
3,750833	0,1	0,010397
3,752500	0,1	-0,012350
3,754167	0,1	0,021583
3,755833	0,1	0,046694
3,757500	0,1	0,011974
3,759167	0,1	0,028377
3,760833	0,1	0,035170
3,762500	0,1	0,057584
3,764167	0,1	0,054587
3,765833	0,1	0,035527
3,767500	0,1	0,055099
3,769167	0,1	0,037039
3,770833	0,1	0,028072
3,772500	0,1	0,017765
3,774167	0,1	0,053419
3,775833	0,1	0,018908
3,777500	0,1	0,005719
3,779167	0,1	0,057845
3,780833	0,1	0,046270
3,782500	0,1	0,010443
3,784167	0,1	0,041001
3,785833	0,1	0,049906
3,787500	0,1	0,029358
3,789167	0,1	0,008164
3,790833	0,1	0,012897
3,792500	0,1	0,021982
3,794167	0,1	0,019666
3,795833	0,1	0,055220
3,797500	0,1	0,048338
3,799167	0,1	0,013899
3,800833	0,1	0,018133
3,802500	0,1	0,063023
3,804167	0,1	0,021353
3,805833	0,1	0,005534
3,807500	0,1	0,082392
3,809167	0,1	0,055588
3,810833	0,1	0,026690
3,812500	0,1	0,037238
3,814167	0,1	0,035875
3,815833	0,1	0,057914
3,817500	0,1	0,020524
3,819167	0,1	0,003092
3,820833	0,1	0,078313
3,822500	0,1	0,024047
3,824167	0,1	0,019958
3,825833	0,1	0,010189
3,827500	0,1	0,077156
3,829167	0,1	0,025640
3,830833	0,1	0,066294
3,832500	0,1	0,043932
3,834167	0,1	0,053861
3,835833	0,1	0,020316
3,837500	0,1	0,070579
3,839167	0,1	-0,017322
3,840833	0,1	0,019886
3,842500	0,1	0,044522
3,844167	0,1	0,056738
3,845833	0,1	0,057982
3,847500	0,1	0,057631
3,849167	0,1	0,050470
3,850833	0,1	0,089068
3,852500	0,1	0,026615
3,854167	0,1	0,078318
3,855833	0,1	0,056828
3,857500	0,1	0,024705
3,859167	0,1	0,070455
3,860833	0,1	0,042008
3,862500	0,1	0,038793
3,864167	0,1	0,015015
3,865833	0,1	0,029536
3,867500	0,1	0,018304
3,869167	0,1	0,000482
3,870833	0,1	0,056436
3,872500	0,1	0,026899
3,874167	0,1	0,049696
3,875833	0,1	0,078945
3,877500	0,1	0,042425
3,879167	0,1	0,072590
3,880833	0,1	0,045609
3,882500	0,1	0,034077
3,884167	0,1	0,035668
3,885833	0,1	0,060873
3,887500	0,1	0,021911
3,889167	0,1	0,024157
3,890833	0,1	0,069728
3,892500	0,1	0,035013
3,894167	0,1	0,058411
3,895833	0,1	0,014171
3,897500	0,1	0,047189
3,899167	0,1	0,049102
3,900833	0,1	0,041590
3,902500	0,1	0,054584
3,904167	0,1	0,008024
3,905833	0,1	0,055115
3,907500	0,1	0,021249
3,909167	0,1	0,028586
3,910833	0,1	0,082997
3,912500	0,1	0,043749
3,914167	0,1	0,036829
3,915833	0,1	0,017104
3,917500	0,1	0,035890
3,919167	0,1	0,037198
3,920833	0,1	0,061869
3,922500	0,1	0,038758
3,924167	0,1	0,023002
3,925833	0,1	0,024573
3,927500	0,1	0,033161
3,929167	0,1	0,031777
3,930833	0,1	0,043180
3,932500	0,1	0,061124
3,934167	0,1	0,061999
3,935833	0,1	0,041033
3,937500	0,1	0,035834
3,939167	0,1	0,038730
3,940833	0,1	0,107444
3,942500	0,1	0,032063
3,944167	0,1	0,024491
3,945833	0,1	0,054062
3,947500	0,1	0,052498
3,949167	0,1	0,056305
3,950833	0,1	0,006141
3,952500	0,1	0,051305
3,954167	0,1	0,066963
3,955833	0,1	0,043807
3,957500	0,1	0,038774
3,959167	0,1	0,013525
3,960833	0,1	0,059647
3,962500	0,1	0,009659
3,964167	0,1	0,069519
3,965833	0,1	0,028866
3,967500	0,1	0,013439
3,969167	0,1	0,018672
3,970833	0,1	0,022005
3,972500	0,1	0,018321
3,974167	0,1	0,071157
3,975833	0,1	0,072225
3,977500	0,1	0,034146
3,979167	0,1	0,080058
3,980833	0,1	0,052213
3,982500	0,1	0,039748
3,984167	0,1	0,071038
3,985833	0,1	0,075163
3,987500	0,1	0,059871
3,989167	0,1	0,049023
3,990833	0,1	0,051917
3,992500	0,1	0,007506
3,994167	0,1	0,029721
3,995833	0,1	0,064557
3,997500	0,1	0,051443
3,999167	0,1	0,031159
4,000833	0,1	0,056879
4,002500	0,1	0,062888
4,004167	0,1	0,034392
4,005833	0,1	0,078320
4,007500	0,1	0,044452
4,009167	0,1	0,047321
4,010833	0,1	0,053324
4,012500	0,1	0,068371
4,014167	0,1	0,042423
4,015833	0,1	0,049412
4,017500	0,1	0,068163
4,019167	0,1	0,057117
4,020833	0,1	0,043703
4,022500	0,1	0,053861
4,024167	0,1	0,025677
4,025833	0,1	0,054291
4,027500	0,1	0,081969
4,029167	0,1	0,042921
4,030833	0,1	0,030869
4,032500	0,1	0,026684
4,034167	0,1	0,025441
4,035833	0,1	0,064868
4,037500	0,1	0,030750
4,039167	0,1	0,045062
4,040833	0,1	0,031096
4,042500	0,1	0,068719
4,044167	0,1	0,072037
4,045833	0,1	0,017112
4,047500	0,1	0,084483
4,049167	0,1	0,041494
4,050833	0,1	0,005207
4,052500	0,1	0,034107
4,054167	0,1	0,045786
4,055833	0,1	0,041465
4,057500	0,1	0,036931
4,059167	0,1	0,066442
4,060833	0,1	0,012456
4,062500	0,1	0,056874
4,064167	0,1	0,044613
4,065833	0,1	0,037655
4,067500	0,1	0,000778
4,069167	0,1	0,069081
4,070833	0,1	0,033503
4,072500	0,1	0,028756
4,074167	0,1	0,052139
4,075833	0,1	-0,000585
4,077500	0,1	0,031313
4,079167	0,1	0,041668
4,080833	0,1	0,047052
4,082500	0,1	0,071744
4,084167	0,1	0,008360
4,085833	0,1	0,021631
4,087500	0,1	0,043279
4,089167	0,1	0,071389
4,090833	0,1	0,043540
4,092500	0,1	0,070977
4,094167	0,1	0,019535
4,095833	0,1	0,081712
4,097500	0,1	0,031085
4,099167	0,1	0,056983
4,100833	0,1	0,061935
4,102500	0,1	0,004819
4,104167	0,1	0,070863
4,105833	0,1	0,069307
4,107500	0,1	0,023363
4,109167	0,1	0,034713
4,110833	0,1	0,031300
4,112500	0,1	0,032768
4,114167	0,1	0,046179
4,115833	0,1	0,017065
4,117500	0,1	0,006463
4,119167	0,1	0,069145
4,120833	0,1	0,036773
4,122500	0,1	0,028589
4,124167	0,1	0,042970
4,125833	0,1	0,035979
4,127500	0,1	0,036910
4,129167	0,1	0,037345
4,130833	0,1	0,028943
4,132500	0,1	0,063108
4,134167	0,1	0,071207
4,135833	0,1	0,033999
4,137500	0,1	0,025774
4,139167	0,1	0,018053
4,140833	0,1	0,047707
4,142500	0,1	0,044176
4,144167	0,1	0,028736
4,145833	0,1	-0,010359
4,147500	0,1	0,039815
4,149167	0,1	0,045562
4,150833	0,1	0,034139
4,152500	0,1	-0,028522
4,154167	0,1	0,037536
4,155833	0,1	0,051748
4,157500	0,1	0,024704
4,159167	0,1	0,065218
4,160833	0,1	0,036917
4,162500	0,1	0,025155
4,164167	0,1	0,018964
4,165833	0,1	0,049963
4,167500	0,1	0,035319
4,169167	0,1	0,035296
4,170833	0,1	0,018947
4,172500	0,1	0,002924
4,174167	0,1	0,029223
4,175833	0,1	0,048705
4,177500	0,1	-0,024219
4,179167	0,1	0,008254
4,180833	0,1	0,029122
4,182500	0,1	0,004956
4,184167	0,1	0,030611
4,185833	0,1	0,033348
4,187500	0,1	0,048683
4,189167	0,1	0,048274
4,190833	0,1	0,015659
4,192500	0,1	0,042636
4,194167	0,1	0,037926
4,195833	0,1	0,053591
4,197500	0,1	-0,001019
4,199167	0,1	0,034004
4,200833	0,1	0,017413
4,202500	0,1	0,044251
4,204167	0,1	0,047920
4,205833	0,1	0,046886
4,207500	0,1	0,007546
4,209167	0,1	-0,006723
4,210833	0,1	0,044038
4,212500	0,1	0,053363
4,214167	0,1	-0,004332
4,215833	0,1	-0,007386
4,217500	0,1	0,034229
4,219167	0,1	0,004397
4,220833	0,1	0,006004
4,222500	0,1	0,045966
4,224167	0,1	0,012885
4,225833	0,1	0,032207
4,227500	0,1	0,030203
4,229167	0,1	0,049511
4,230833	0,1	0,023048
4,232500	0,1	-0,008786
4,234167	0,1	0,050598
4,235833	0,1	0,025345
4,237500	0,1	0,022896
4,239167	0,1	0,026082
4,240833	0,1	0,054374
4,242500	0,1	0,000553
4,244167	0,1	0,033487
4,245833	0,1	0,019836
4,247500	0,1	0,032228
4,249167	0,1	0,032211
4,250833	0,1	0,020890
4,252500	0,1	0,021798
4,254167	0,1	0,042389
4,255833	0,1	0,026316
4,257500	0,1	0,006549
4,259167	0,1	0,049505
4,260833	0,1	0,025552
4,262500	0,1	0,019524
4,264167	0,1	0,027054
4,265833	0,1	0,041771
4,267500	0,1	0,005477
4,269167	0,1	0,011385
4,270833	0,1	0,004683
4,272500	0,1	-0,007693
4,274167	0,1	0,029242
4,275833	0,1	0,034073
4,277500	0,1	0,003923
4,279167	0,1	0,015400
4,280833	0,1	0,029619
4,282500	0,1	0,020994
4,284167	0,1	-0,001606
4,285833	0,1	-0,005709
4,287500	0,1	0,002835
4,289167	0,1	0,031894
4,290833	0,1	-0,007068
4,292500	0,1	0,025620
4,294167	0,1	0,038377
4,295833	0,1	0,007317
4,297500	0,1	0,008178
4,299167	0,1	0,018051
4,300833	0,1	0,037340
4,302500	0,1	0,015449
4,304167	0,1	0,000543
4,305833	0,1	-0,023775
4,307500	0,1	0,011359
4,309167	0,1	0,008055
4,310833	0,1	-0,026277
4,312500	0,1	0,012744
4,314167	0,1	-0,010402
4,315833	0,1	0,018562
4,317500	0,1	-0,040219
4,319167	0,1	0,024371
4,320833	0,1	0,004209
4,322500	0,1	0,024940
4,324167	0,1	0,043984
4,325833	0,1	0,044774
4,327500	0,1	-0,012630
4,329167	0,1	0,033130
4,330833	0,1	-0,001975
4,332500	0,1	-0,012703
4,334167	0,1	0,004014
4,335833	0,1	0,057887
4,337500	0,1	0,018435
4,339167	0,1	0,010210
4,340833	0,1	0,015877
4,342500	0,1	0,023681
4,344167	0,1	0,008182
4,345833	0,1	0,027135
4,347500	0,1	0,005142
4,349167	0,1	0,048057
4,350833	0,1	0,018452
4,352500	0,1	-0,006242
4,354167	0,1	-0,019348
4,355833	0,1	0,040228
4,357500	0,1	0,000261
4,359167	0,1	0,017324
4,360833	0,1	-0,021161
4,362500	0,1	0,015974
4,364167	0,1	-0,015409
4,365833	0,1	0,013927
4,367500	0,1	0,047189
4,369167	0,1	0,002974
4,370833	0,1	0,032660
4,372500	0,1	-0,011309
4,374167	0,1	0,021335
4,375833	0,1	-0,011064
4,377500	0,1	-0,007926
4,379167	0,1	0,063491
4,380833	0,1	-0,033505
4,382500	0,1	0,025594
4,384167	0,1	0,014082
4,385833	0,1	0,027406
4,387500	0,1	-0,035518
4,389167	0,1	0,038919
4,390833	0,1	0,043739
4,392500	0,1	-0,009072
4,394167	0,1	-0,007759
4,395833	0,1	0,002713
4,397500	0,1	-0,021474
4,399167	0,1	-0,014114
4,400833	0,1	-0,006892
4,402500	0,1	0,004492
4,404167	0,1	-0,012931
4,405833	0,1	0,007987
4,407500	0,1	0,014469
4,409167	0,1	0,020886
4,410833	0,1	0,015467
4,412500	0,1	-0,007217
4,414167	0,1	-0,009559
4,415833	0,1	-0,002007
4,417500	0,1	0,013019
4,419167	0,1	-0,007382
4,420833	0,1	0,051531
4,422500	0,1	0,012970
4,424167	0,1	0,005262
4,425833	0,1	-0,042294
4,427500	0,1	0,035896
4,429167	0,1	-0,018777
4,430833	0,1	-0,044701
4,432500	0,1	-0,015341
4,434167	0,1	0,027625
4,435833	0,1	-0,017995
4,437500	0,1	-0,024877
4,439167	0,1	-0,002860
4,440833	0,1	-0,001342
4,442500	0,1	-0,002811
4,444167	0,1	0,004264
4,445833	0,1	-0,042788
4,447500	0,1	-0,001020
4,449167	0,1	0,015151
4,450833	0,1	0,016851
4,452500	0,1	-0,012428
4,454167	0,1	-0,040806
4,455833	0,1	0,002848
4,457500	0,1	-0,032878
4,459167	0,1	-0,042903
4,460833	0,1	0,009182
4,462500	0,1	-0,053901
4,464167	0,1	0,008454
4,465833	0,1	-0,008501
4,467500	0,1	0,008217
4,469167	0,1	-0,017730
4,470833	0,1	0,030916
4,472500	0,1	0,032356
4,474167	0,1	0,003175
4,475833	0,1	-0,005790
4,477500	0,1	-0,004262
4,479167	0,1	0,004719
4,480833	0,1	-0,033002
4,482500	0,1	0,016136
4,484167	0,1	-0,013114
4,485833	0,1	0,009973
4,487500	0,1	0,008035
4,489167	0,1	0,002674
4,490833	0,1	-0,025779
4,492500	0,1	-0,001410
4,494167	0,1	-0,019200
4,495833	0,1	-0,009168
4,497500	0,1	0,031063
4,499167	0,1	-0,015676
4,500833	0,1	0,026218
4,502500	0,1	0,007810
4,504167	0,1	0,005137
4,505833	0,1	0,001018
4,507500	0,1	0,068564
4,509167	0,1	-0,018233
4,510833	0,1	-0,026881
4,512500	0,1	-0,013559
4,514167	0,1	-0,007989
4,515833	0,1	-0,028989
4,517500	0,1	-0,015067
4,519167	0,1	0,008070
4,520833	0,1	0,013207
4,522500	0,1	0,005139
4,524167	0,1	0,026595
4,525833	0,1	-0,018469
4,527500	0,1	-0,001699
4,529167	0,1	-0,047053
4,530833	0,1	0,018016
4,532500	0,1	-0,003615
4,534167	0,1	0,000725
4,535833	0,1	-0,029092
4,537500	0,1	-0,019580
4,539167	0,1	-0,058312
4,540833	0,1	0,019647
4,542500	0,1	0,024881
4,544167	0,1	0,011845
4,545833	0,1	-0,021557
4,547500	0,1	0,024976
4,549167	0,1	-0,021389
4,550833	0,1	0,000454
4,552500	0,1	-0,034989
4,554167	0,1	0,023214
4,555833	0,1	-0,007215
4,557500	0,1	-0,002874
4,559167	0,1	-0,044364
4,560833	0,1	0,011416
4,562500	0,1	-0,021183
4,564167	0,1	-0,006726
4,565833	0,1	-0,033708
4,567500	0,1	0,005127
4,569167	0,1	0,013228
4,570833	0,1	-0,018100
4,572500	0,1	-0,040413
4,574167	0,1	-0,032247
4,575833	0,1	-0,003875
4,577500	0,1	-0,003537
4,579167	0,1	-0,026422
4,580833	0,1	0,004196
4,582500	0,1	-0,013572
4,584167	0,1	0,015852
4,585833	0,1	-0,017313
4,587500	0,1	-0,019536
4,589167	0,1	-0,030418
4,590833	0,1	0,011708
4,592500	0,1	-0,043078
4,594167	0,1	-0,005492
4,595833	0,1	-0,015808
4,597500	0,1	-0,026695
4,599167	0,1	-0,021357
4,600833	0,1	0,001384
4,602500	0,1	-0,020961
4,604167	0,1	-0,005961
4,605833	0,1	0,011301
4,607500	0,1	-0,022281
4,609167	0,1	-0,031496
4,610833	0,1	-0,035865
4,612500	0,1	-0,001080
4,614167	0,1	-0,018064
4,615833	0,1	-0,003456
4,617500	0,1	-0,041528
4,619167	0,1	-0,018030
4,620833	0,1	-0,026363
4,622500	0,1	-0,026759
4,624167	0,1	-0,028310
4,625833	0,1	-0,036008
4,627500	0,1	-0,074765
4,629167	0,1	-0,016423
4,630833	0,1	0,002981
4,632500	0,1	-0,047879
4,634167	0,1	-0,029328
4,635833	0,1	-0,014488
4,637500	0,1	-0,053803
4,639167	0,1	-0,037444
4,640833	0,1	-0,031188
4,642500	0,1	-0,042052
4,644167	0,1	-0,019127
4,645833	0,1	-0,052539
4,647500	0,1	-0,051555
4,649167	0,1	-0,017121
4,650833	0,1	-0,048919
4,652500	0,1	-0,052443
4,654167	0,1	-0,023991
4,655833	0,1	-0,063049
4,657500	0,1	-0,031753
4,659167	0,1	-0,013971
4,660833	0,1	-0,020257
4,662500	0,1	-0,019161
4,664167	0,1	-0,019599
4,665833	0,1	-0,035573
4,667500	0,1	-0,067024
4,669167	0,1	-0,080131
4,670833	0,1	-0,033972
4,672500	0,1	-0,009069
4,674167	0,1	-0,052389
4,675833	0,1	-0,024818
4,677500	0,1	-0,047532
4,679167	0,1	-0,042801
4,680833	0,1	-0,038183
4,682500	0,1	-0,059557
4,684167	0,1	-0,069225
4,685833	0,1	-0,031631
4,687500	0,1	-0,069756
4,689167	0,1	-0,041544
4,690833	0,1	-0,074705
4,692500	0,1	-0,037838
4,694167	0,1	-0,055438
4,695833	0,1	-0,070280
4,697500	0,1	-0,080818
4,699167	0,1	-0,056879
4,700833	0,1	-0,040855
4,702500	0,1	-0,012876
4,704167	0,1	-0,040868
4,705833	0,1	-0,016312
4,707500	0,1	-0,059470
4,709167	0,1	-0,073945
4,710833	0,1	-0,091819
4,712500	0,1	-0,070745
4,714167	0,1	-0,050109
4,715833	0,1	-0,093323
4,717500	0,1	-0,107715
4,719167	0,1	-0,046499
4,720833	0,1	-0,057944
4,722500	0,1	-0,017993
4,724167	0,1	-0,106204
4,725833	0,1	-0,052580
4,727500	0,1	-0,089809
4,729167	0,1	-0,052014
4,730833	0,1	-0,087428
4,732500	0,1	-0,069935
4,734167	0,1	-0,079860
4,735833	0,1	-0,052388
4,737500	0,1	-0,090865
4,739167	0,1	-0,028117
4,740833	0,1	-0,063798
4,742500	0,1	-0,046797
4,744167	0,1	-0,056932
4,745833	0,1	-0,069787
4,747500	0,1	-0,054619
4,749167	0,1	-0,081948
4,750833	0,1	-0,032172
4,752500	0,1	-0,068474
4,754167	0,1	-0,095981
4,755833	0,1	-0,051460
4,757500	0,1	-0,100423
4,759167	0,1	-0,093397
4,760833	0,1	-0,049535
4,762500	0,1	-0,095765
4,764167	0,1	-0,072855
4,765833	0,1	-0,064117
4,767500	0,1	-0,066952
4,769167	0,1	-0,100382
4,770833	0,1	-0,058622
4,772500	0,1	-0,055652
4,774167	0,1	-0,086956
4,775833	0,1	-0,079600
4,777500	0,1	-0,069353
4,779167	0,1	-0,095278
4,780833	0,1	-0,108999
4,782500	0,1	-0,095718
4,784167	0,1	-0,127766
4,785833	0,1	-0,086954
4,787500	0,1	-0,067784
4,789167	0,1	-0,077873
4,790833	0,1	-0,068361
4,792500	0,1	-0,056708
4,794167	0,1	-0,051988
4,795833	0,1	-0,049648
4,797500	0,1	-0,106318
4,799167	0,1	-0,017984
4,800833	0,1	-0,089389
4,802500	0,1	-0,116773
4,804167	0,1	-0,064811
4,805833	0,1	-0,099925
4,807500	0,1	-0,052517
4,809167	0,1	-0,086314
4,810833	0,1	-0,060166
4,812500	0,1	-0,146309
4,814167	0,1	-0,072761
4,815833	0,1	-0,138021
4,817500	0,1	-0,075185
4,819167	0,1	-0,078973
4,820833	0,1	-0,106905
4,822500	0,1	-0,087215
4,824167	0,1	-0,121305
4,825833	0,1	-0,110595
4,827500	0,1	-0,121540
4,829167	0,1	-0,069943
4,830833	0,1	-0,074317
4,832500	0,1	-0,093786
4,834167	0,1	-0,094704
4,835833	0,1	-0,102401
4,837500	0,1	-0,083576
4,839167	0,1	-0,175445
4,840833	0,1	-0,088161
4,842500	0,1	-0,094203
4,844167	0,1	-0,107654
4,845833	0,1	-0,113325
4,847500	0,1	-0,131388
4,849167	0,1	-0,128845
4,850833	0,1	-0,114060
4,852500	0,1	-0,125205
4,854167	0,1	-0,106625
4,855833	0,1	-0,122760
4,857500	0,1	-0,096654
4,859167	0,1	-0,099002
4,860833	0,1	-0,123857
4,862500	0,1	-0,128702
4,864167	0,1	-0,066511
4,865833	0,1	-0,121238
4,867500	0,1	-0,106089
4,869167	0,1	-0,092880
4,870833	0,1	-0,070141
4,872500	0,1	-0,101604
4,874167	0,1	-0,111627
4,875833	0,1	-0,138794
4,877500	0,1	-0,091728
4,879167	0,1	-0,105230
4,880833	0,1	-0,131113
4,882500	0,1	-0,120420
4,884167	0,1	-0,118397
4,885833	0,1	-0,090486
4,887500	0,1	-0,076140
4,889167	0,1	-0,104443
4,890833	0,1	-0,130103
4,892500	0,1	-0,126737
4,894167	0,1	-0,140660
4,895833	0,1	-0,116705
4,897500	0,1	-0,116930
4,899167	0,1	-0,107617
4,900833	0,1	-0,112956
4,902500	0,1	-0,128638
4,904167	0,1	-0,096902
4,905833	0,1	-0,122528
4,907500	0,1	-0,123133
4,909167	0,1	-0,111528
4,910833	0,1	-0,101571
4,912500	0,1	-0,092739
4,914167	0,1	-0,090373
4,915833	0,1	-0,146896
4,917500	0,1	-0,107870
4,919167	0,1	-0,151619
4,920833	0,1	-0,154729
4,922500	0,1	-0,108847
4,924167	0,1	-0,145038
4,925833	0,1	-0,140162
4,927500	0,1	-0,108325
4,929167	0,1	-0,123479
4,930833	0,1	-0,154722
4,932500	0,1	-0,140210
4,934167	0,1	-0,129857
4,935833	0,1	-0,139210
4,937500	0,1	-0,104846
4,939167	0,1	-0,094023
4,940833	0,1	-0,139385
4,942500	0,1	-0,099285
4,944167	0,1	-0,120009
4,945833	0,1	-0,123237
4,947500	0,1	-0,110675
4,949167	0,1	-0,121602
4,950833	0,1	-0,140552
4,952500	0,1	-0,106709
4,954167	0,1	-0,104654
4,955833	0,1	-0,152901
4,957500	0,1	-0,152516
4,959167	0,1	-0,124773
4,960833	0,1	-0,089328
4,962500	0,1	-0,132103
4,964167	0,1	-0,177092
4,965833	0,1	-0,119007
4,967500	0,1	-0,117526
4,969167	0,1	-0,121023
4,970833	0,1	-0,119864
4,972500	0,1	-0,158128
4,974167	0,1	-0,138042
4,975833	0,1	-0,146266
4,977500	0,1	-0,116330
4,979167	0,1	-0,144751
4,980833	0,1	-0,157889
4,982500	0,1	-0,121613
4,984167	0,1	-0,109892
4,985833	0,1	-0,134338
4,987500	0,1	-0,155182
4,989167	0,1	-0,138759
4,990833	0,1	-0,130480
4,992500	0,1	-0,164922
4,994167	0,1	-0,170932
4,995833	0,1	-0,127845
4,997500	0,1	-0,154996
4,999167	0,1	-0,152762
5,000833	0,1	-0,150820
5,002500	0,1	-0,134971
5,004167	0,1	-0,115501
5,005833	0,1	-0,138933
5,007500	0,1	-0,154498
5,009167	0,1	-0,185617
5,010833	0,1	-0,132460
5,012500	0,1	-0,134801
5,014167	0,1	-0,142709
5,015833	0,1	-0,136086
5,017500	0,1	-0,134952
5,019167	0,1	-0,140757
5,020833	0,1	-0,144667
5,022500	0,1	-0,108695
5,024167	0,1	-0,142322
5,025833	0,1	-0,110891
5,027500	0,1	-0,176935
5,029167	0,1	-0,132977
5,030833	0,1	-0,147274
5,032500	0,1	-0,159050
5,034167	0,1	-0,119125
5,035833	0,1	-0,153377
5,037500	0,1	-0,121278
5,039167	0,1	-0,140693
5,040833	0,1	-0,131992
5,042500	0,1	-0,140036
5,044167	0,1	-0,162438
5,045833	0,1	-0,106442
5,047500	0,1	-0,137403
5,049167	0,1	-0,138834
5,050833	0,1	-0,162359
5,052500	0,1	-0,147800
5,054167	0,1	-0,151629
5,055833	0,1	-0,114223
5,057500	0,1	-0,160095
5,059167	0,1	-0,136425
5,060833	0,1	-0,163184
5,062500	0,1	-0,130485
5,064167	0,1	-0,113742
5,065833	0,1	-0,177621
5,067500	0,1	-0,167761
5,069167	0,1	-0,190169
5,070833	0,1	-0,148844
5,072500	0,1	-0,134664
5,074167	0,1	-0,172679
5,075833	0,1	-0,153055
5,077500	0,1	-0,165493
5,079167	0,1	-0,197222
5,080833	0,1	-0,153825
5,082500	0,1	-0,173617
5,084167	0,1	-0,120016
5,085833	0,1	-0,120935
5,087500	0,1	-0,171394
5,089167	0,1	-0,167086
5,090833	0,1	-0,112944
5,092500	0,1	-0,162720
5,094167	0,1	-0,156093
5,095833	0,1	-0,163311
5,097500	0,1	-0,179390
5,099167	0,1	-0,129437
5,100833	0,1	-0,124233
5,102500	0,1	-0,102838
5,104167	0,1	-0,113340
5,105833	0,1	-0,169270
5,107500	0,1	-0,173207
5,109167	0,1	-0,142718
5,110833	0,1	-0,156758
5,112500	0,1	-0,144804
5,114167	0,1	-0,140864
5,115833	0,1	-0,158390
5,117500	0,1	-0,133586
5,119167	0,1	-0,146572
5,120833	0,1	-0,183889
5,122500	0,1	-0,130536
5,124167	0,1	-0,158448
5,125833	0,1	-0,127323
5,127500	0,1	-0,146036
5,129167	0,1	-0,155765
5,130833	0,1	-0,178089
5,132500	0,1	-0,136702
5,134167	0,1	-0,154436
5,135833	0,1	-0,154012
5,137500	0,1	-0,122665
5,139167	0,1	-0,152693
5,140833	0,1	-0,160395
5,142500	0,1	-0,178914
5,144167	0,1	-0,175010
5,145833	0,1	-0,125526
5,147500	0,1	-0,204677
5,149167	0,1	-0,170376
5,150833	0,1	-0,181590
5,152500	0,1	-0,176477
5,154167	0,1	-0,189575
5,155833	0,1	-0,132127
5,157500	0,1	-0,159580
5,159167	0,1	-0,143601
5,160833	0,1	-0,157857
5,162500	0,1	-0,177357
5,164167	0,1	-0,178721
5,165833	0,1	-0,155484
5,167500	0,1	-0,164578
5,169167	0,1	-0,137524
5,170833	0,1	-0,132096
5,172500	0,1	-0,123819
5,174167	0,1	-0,151166
5,175833	0,1	-0,179676
5,177500	0,1	-0,178691
5,179167	0,1	-0,174185
5,180833	0,1	-0,159575
5,182500	0,1	-0,187145
5,184167	0,1	-0,152111
5,185833	0,1	-0,161829
5,187500	0,1	-0,185222
5,189167	0,1	-0,140005
5,190833	0,1	-0,122250
5,192500	0,1	-0,147333
5,194167	0,1	-0,132635
5,195833	0,1	-0,163457
5,197500	0,1	-0,164105
5,199167	0,1	-0,193497
5,200833	0,1	-0,167686
5,202500	0,1	-0,165663
5,204167	0,1	-0,163313
5,205833	0,1	-0,203634
5,207500	0,1	-0,150727
5,209167	0,1	-0,153507
5,210833	0,1	-0,159325
5,212500	0,1	-0,197923
5,214167	0,1	-0,146694
5,215833	0,1	-0,140742
5,217500	0,1	-0,130419
5,219167	0,1	-0,177686
5,220833	0,1	-0,154796
5,222500	0,1	-0,205447
5,224167	0,1	-0,210941
5,225833	0,1	-0,175828
5,227500	0,1	-0,131482
5,229167	0,1	-0,155700
5,230833	0,1	-0,183052
5,232500	0,1	-0,161790
5,234167	0,1	-0,177968
5,235833	0,1	-0,164689
5,237500	0,1	-0,186488
5,239167	0,1	-0,172325
5,240833	0,1	-0,150122
5,242500	0,1	-0,159613
5,244167	0,1	-0,186565
5,245833	0,1	-0,174907
5,247500	0,1	-0,162735
5,249167	0,1	-0,143980
5,250833	0,1	-0,158682
5,252500	0,1	-0,152853
5,254167	0,1	-0,176715
5,255833	0,1	-0,171454
5,257500	0,1	-0,168094
5,259167	0,1	-0,216686
5,260833	0,1	-0,191630
5,262500	0,1	-0,193107
5,264167	0,1	-0,200435
5,265833	0,1	-0,181672
5,267500	0,1	-0,124350
5,269167	0,1	-0,178203
5,270833	0,1	-0,206446
5,272500	0,1	-0,183980
5,274167	0,1	-0,182310
5,275833	0,1	-0,163090
5,277500	0,1	-0,166609
5,279167	0,1	-0,160276
5,280833	0,1	-0,148487
5,282500	0,1	-0,186195
5,284167	0,1	-0,152586
5,285833	0,1	-0,179662
5,287500	0,1	-0,171821
5,289167	0,1	-0,163801
5,290833	0,1	-0,153495
5,292500	0,1	-0,175357
5,294167	0,1	-0,132719
5,295833	0,1	-0,186833
5,297500	0,1	-0,209807
5,299167	0,1	-0,145749
5,300833	0,1	-0,154940
5,302500	0,1	-0,154959
5,304167	0,1	-0,157006
5,305833	0,1	-0,158271
5,307500	0,1	-0,154914
5,309167	0,1	-0,181464
5,310833	0,1	-0,158630
5,312500	0,1	-0,143021
5,314167	0,1	-0,189950
5,315833	0,1	-0,195593
5,317500	0,1	-0,157167
5,319167	0,1	-0,151646
5,320833	0,1	-0,185829
5,322500	0,1	-0,173791
5,324167	0,1	-0,186110
5,325833	0,1	-0,185411
5,327500	0,1	-0,174676
5,329167	0,1	-0,200200
5,330833	0,1	-0,167154
5,332500	0,1	-0,186611
5,334167	0,1	-0,199365
5,335833	0,1	-0,197153
5,337500	0,1	-0,176437
5,339167	0,1	-0,184628
5,340833	0,1	-0,167547
5,342500	0,1	-0,249296
5,344167	0,1	-0,177347
5,345833	0,1	-0,181072
5,347500	0,1	-0,154919
5,349167	0,1	-0,164287
5,350833	0,1	-0,139525
5,352500	0,1	-0,169932
5,354167	0,1	-0,148673
5,355833	0,1	-0,175997
5,357500	0,1	-0,186613
5,359167	0,1	-0,171669
5,360833	0,1	-0,171009
5,362500	0,1	-0,157316
5,364167	0,1	-0,175541
5,365833	0,1	-0,161543
5,367500	0,1	-0,169937
5,369167	0,1	-0,200901
5,370833	0,1	-0,175901
5,372500	0,1	-0,207820
5,374167	0,1	-0,197660
5,375833	0,1	-0,166037
5,377500	0,1	-0,176397
5,379167	0,1	-0,197408
5,380833	0,1	-0,207428
5,382500	0,1	-0,178515
5,384167	0,1	-0,186369
5,385833	0,1	-0,174432
5,387500	0,1	-0,166612
5,389167	0,1	-0,190872
5,390833	0,1	-0,182525
5,392500	0,1	-0,168202
5,394167	0,1	-0,168825
5,395833	0,1	-0,207191
5,397500	0,1	-0,154972
5,399167	0,1	-0,155738
5,400833	0,1	-0,163235
5,402500	0,1	-0,141326
5,404167	0,1	-0,203154
5,405833	0,1	-0,176254
5,407500	0,1	-0,187088
5,409167	0,1	-0,208220
5,410833	0,1	-0,205552
5,412500	0,1	-0,249166
5,414167	0,1	-0,122003
5,415833	0,1	-0,165226
5,417500	0,1	-0,171588
5,419167	0,1	-0,197299
5,420833	0,1	-0,209640
5,422500	0,1	-0,216774
5,424167	0,1	-0,187861
5,425833	0,1	-0,174540
5,427500	0,1	-0,196994
5,429167	0,1	-0,157092
5,430833	0,1	-0,227767
5,432500	0,1	-0,164884
5,434167	0,1	-0,191862
5,435833	0,1	-0,201320
5,437500	0,1	-0,196895
5,439167	0,1	-0,214237
5,440833	0,1	-0,196759
5,442500	0,1	-0,178573
5,444167	0,1	-0,208126
5,445833	0,1	-0,210607
5,447500	0,1	-0,196989
5,449167	0,1	-0,208053
5,450833	0,1	-0,191048
5,452500	0,1	-0,184174
5,454167	0,1	-0,183073
5,455833	0,1	-0,197929
5,457500	0,1	-0,142678
5,459167	0,1	-0,213644
5,460833	0,1	-0,190897
5,462500	0,1	-0,196770
5,464167	0,1	-0,170849
5,465833	0,1	-0,165926
5,467500	0,1	-0,190994
5,469167	0,1	-0,206372
5,470833	0,1	-0,183309
5,472500	0,1	-0,163775
5,474167	0,1	-0,189694
5,475833	0,1	-0,188784
5,477500	0,1	-0,205669
5,479167	0,1	-0,174926
5,480833	0,1	-0,203773
5,482500	0,1	-0,200834
5,484167	0,1	-0,208680
5,485833	0,1	-0,221887
5,487500	0,1	-0,195831
5,489167	0,1	-0,236678
5,490833	0,1	-0,190261
5,492500	0,1	-0,181870
5,494167	0,1	-0,181484
5,495833	0,1	-0,187975
5,497500	0,1	-0,197350
5,499167	0,1	-0,192222
5,500833	0,1	-0,194220
5,502500	0,1	-0,252767
5,504167	0,1	-0,197807
5,505833	0,1	-0,199626
5,507500	0,1	-0,154801
5,509167	0,1	-0,198746
5,510833	0,1	-0,221198
5,512500	0,1	-0,218684
5,514167	0,1	-0,201035
5,515833	0,1	-0,240632
5,517500	0,1	-0,208857
5,519167	0,1	-0,255031
5,520833	0,1	-0,177855
5,522500	0,1	-0,182966
5,524167	0,1	-0,221880
5,525833	0,1	-0,185297
5,527500	0,1	-0,210234
5,529167	0,1	-0,165600
5,530833	0,1	-0,183940
5,532500	0,1	-0,173350
5,534167	0,1	-0,183590
5,535833	0,1	-0,182601
5,537500	0,1	-0,237713
5,539167	0,1	-0,216825
5,540833	0,1	-0,190837
5,542500	0,1	-0,228524
5,544167	0,1	-0,219740
5,545833	0,1	-0,215372
5,547500	0,1	-0,165249
5,549167	0,1	-0,166627
5,550833	0,1	-0,218732
5,552500	0,1	-0,190304
5,554167	0,1	-0,200709
5,555833	0,1	-0,179352
5,557500	0,1	-0,211163
5,559167	0,1	-0,211811
5,560833	0,1	-0,189461
5,562500	0,1	-0,202188
5,564167	0,1	-0,185398
5,565833	0,1	-0,220310
5,567500	0,1	-0,175143
5,569167	0,1	-0,223680
5,570833	0,1	-0,205114
5,572500	0,1	-0,188544
5,574167	0,1	-0,176784
5,575833	0,1	-0,236398
5,577500	0,1	-0,166248
5,579167	0,1	-0,189237
5,580833	0,1	-0,196540
5,582500	0,1	-0,180206
5,584167	0,1	-0,170600
5,585833	0,1	-0,221374
5,587500	0,1	-0,196792
5,589167	0,1	-0,218694
5,590833	0,1	-0,191251
5,592500	0,1	-0,224280
5,594167	0,1	-0,180870
5,595833	0,1	-0,231055
5,597500	0,1	-0,219907
5,599167	0,1	-0,198884
5,600833	0,1	-0,200833
5,602500	0,1	-0,197933
5,604167	0,1	-0,204053
5,605833	0,1	-0,210697
5,607500	0,1	-0,261531
5,609167	0,1	-0,234953
5,610833	0,1	-0,241890
5,612500	0,1	-0,243222
5,614167	0,1	-0,202201
5,615833	0,1	-0,222648
5,617500	0,1	-0,212882
5,619167	0,1	-0,202133
5,620833	0,1	-0,223565
5,622500	0,1	-0,226548
5,624167	0,1	-0,226151
5,625833	0,1	-0,195222
5,627500	0,1	-0,221319
5,629167	0,1	-0,188547
5,630833	0,1	-0,222859
5,632500	0,1	-0,186397
5,634167	0,1	-0,180325
5,635833	0,1	-0,215271
5,637500	0,1	-0,230223
5,639167	0,1	-0,237571
5,640833	0,1	-0,234947
5,642500	0,1	-0,226429
5,644167	0,1	-0,226975
5,645833	0,1	-0,223234
5,647500	0,1	-0,209419
5,649167	0,1	-0,212696
5,650833	0,1	-0,193095
5,652500	0,1	-0,201778
5,654167	0,1	-0,247807
5,655833	0,1	-0,199471
5,657500	0,1	-0,184237
5,659167	0,1	-0,208996
5,660833	0,1	-0,192636
5,662500	0,1	-0,224723
5,664167	0,1	-0,215203
5,665833	0,1	-0,237506
5,667500	0,1	-0,244779
5,669167	0,1	-0,194874
5,670833	0,1	-0,186343
5,672500	0,1	-0,200158
5,674167	0,1	-0,223808
5,675833	0,1	-0,260346
5,677500	0,1	-0,226051
5,679167	0,1	-0,227722
5,680833	0,1	-0,235875
5,682500	0,1	-0,195621
5,684167	0,1	-0,224800
5,685833	0,1	-0,236300
5,687500	0,1	-0,208964
5,689167	0,1	-0,212696
5,690833	0,1	-0,202119
5,692500	0,1	-0,239594
5,694167	0,1	-0,225971
5,695833	0,1	-0,173940
5,697500	0,1	-0,209635
5,699167	0,1	-0,217704
5,700833	0,1	-0,209828
5,702500	0,1	-0,224208
5,704167	0,1	-0,213602
5,705833	0,1	-0,216348
5,707500	0,1	-0,212409
5,709167	0,1	-0,196148
5,710833	0,1	-0,192816
5,712500	0,1	-0,224341
5,714167	0,1	-0,232226
5,715833	0,1	-0,220641
5,717500	0,1	-0,251626
5,719167	0,1	-0,248658
5,720833	0,1	-0,231055
5,722500	0,1	-0,237510
5,724167	0,1	-0,241448
5,725833	0,1	-0,228995
5,727500	0,1	-0,195023
5,729167	0,1	-0,233027
5,730833	0,1	-0,243753
5,732500	0,1	-0,186188
5,734167	0,1	-0,173333
5,735833	0,1	-0,226719
5,737500	0,1	-0,206197
5,739167	0,1	-0,239915
5,740833	0,1	-0,217392
5,742500	0,1	-0,227248
5,744167	0,1	-0,198961
5,745833	0,1	-0,229059
5,747500	0,1	-0,187619
5,749167	0,1	-0,247576
5,750833	0,1	-0,185592
5,752500	0,1	-0,220018
5,754167	0,1	-0,206395
5,755833	0,1	-0,213903
5,757500	0,1	-0,228376
5,759167	0,1	-0,209908
5,760833	0,1	-0,210240
5,762500	0,1	-0,224115
5,764167	0,1	-0,226272
5,765833	0,1	-0,230928
5,767500	0,1	-0,249003
5,769167	0,1	-0,241329
5,770833	0,1	-0,237054
5,772500	0,1	-0,239907
5,774167	0,1	-0,219451
5,775833	0,1	-0,196944
5,777500	0,1	-0,191245
5,779167	0,1	-0,189473
5,780833	0,1	-0,210951
5,782500	0,1	-0,226924
5,784167	0,1	-0,232576
5,785833	0,1	-0,241479
5,787500	0,1	-0,222321
5,789167	0,1	-0,230773
5,790833	0,1	-0,209037
5,792500	0,1	-0,243093
5,794167	0,1	-0,240139
5,795833	0,1	-0,242472
5,797500	0,1	-0,214858
5,799167	0,1	-0,216897
5,800833	0,1	-0,244572
5,802500	0,1	-0,254594
5,804167	0,1	-0,235134
5,805833	0,1	-0,228824
5,807500	0,1	-0,209587
5,809167	0,1	-0,234771
5,810833	0,1	-0,216994
5,812500	0,1	-0,211477
5,814167	0,1	-0,256907
5,815833	0,1	-0,219808
5,817500	0,1	-0,226285
5,819167	0,1	-0,233554
5,820833	0,1	-0,225037
5,822500	0,1	-0,222776
5,824167	0,1	-0,202838
5,825833	0,1	-0,237289
5,827500	0,1	-0,241433
5,829167	0,1	-0,216201
5,830833	0,1	-0,203188
5,832500	0,1	-0,237151
5,834167	0,1	-0,192995
5,835833	0,1	-0,195961
5,837500	0,1	-0,197976
5,839167	0,1	-0,239487
5,840833	0,1	-0,198414
5,842500	0,1	-0,234479
5,844167	0,1	-0,244990
5,845833	0,1	-0,199057
5,847500	0,1	-0,224955
5,849167	0,1	-0,216883
5,850833	0,1	-0,202792
5,852500	0,1	-0,233871
5,854167	0,1	-0,230000
5,855833	0,1	-0,222946
5,857500	0,1	-0,265779
5,859167	0,1	-0,250724
5,860833	0,1	-0,199272
5,862500	0,1	-0,218678
5,864167	0,1	-0,218744
5,865833	0,1	-0,240437
5,867500	0,1	-0,213315
5,869167	0,1	-0,236163
5,870833	0,1	-0,275627
5,872500	0,1	-0,197035
5,874167	0,1	-0,190024
5,875833	0,1	-0,240004
5,877500	0,1	-0,209559
5,879167	0,1	-0,259425
5,880833	0,1	-0,200573
5,882500	0,1	-0,234403
5,884167	0,1	-0,248378
5,885833	0,1	-0,238781
5,887500	0,1	-0,222016
5,889167	0,1	-0,212852
5,890833	0,1	-0,196653
5,892500	0,1	-0,228539
5,894167	0,1	-0,237766
5,895833	0,1	-0,240244
5,897500	0,1	-0,199622
5,899167	0,1	-0,218403
5,900833	0,1	-0,234071
5,902500	0,1	-0,212214
5,904167	0,1	-0,237108
5,905833	0,1	-0,219573
5,907500	0,1	-0,232683
5,909167	0,1	-0,210717
5,910833	0,1	-0,248344
5,912500	0,1	-0,230552
5,914167	0,1	-0,269612
5,915833	0,1	-0,224787
5,917500	0,1	-0,216716
5,919167	0,1	-0,259245
5,920833	0,1	-0,240966
5,922500	0,1	-0,251691
5,924167	0,1	-0,239804
5,925833	0,1	-0,213392
5,927500	0,1	-0,214101
5,929167	0,1	-0,222987
5,930833	0,1	-0,243981
5,932500	0,1	-0,233086
5,934167	0,1	-0,222838
5,935833	0,1	-0,220088
5,937500	0,1	-0,226499
5,939167	0,1	-0,260651
5,940833	0,1	-0,243012
5,942500	0,1	-0,215422
5,944167	0,1	-0,198975
5,945833	0,1	-0,231915
5,947500	0,1	-0,228717
5,949167	0,1	-0,253462
5,950833	0,1	-0,250871
5,952500	0,1	-0,246856
5,954167	0,1	-0,215836
5,955833	0,1	-0,225081
5,957500	0,1	-0,226334
5,959167	0,1	-0,264786
5,960833	0,1	-0,191245
5,962500	0,1	-0,236049
5,964167	0,1	-0,266496
5,965833	0,1	-0,231473
5,967500	0,1	-0,218458
5,969167	0,1	-0,243521
5,970833	0,1	-0,223010
5,972500	0,1	-0,231629
5,974167	0,1	-0,232747
5,975833	0,1	-0,196780
5,977500	0,1	-0,213504
5,979167	0,1	-0,246450
5,980833	0,1	-0,252273
5,982500	0,1	-0,218890
5,984167	0,1	-0,232378
5,985833	0,1	-0,191359
5,987500	0,1	-0,256261
5,989167	0,1	-0,171505
5,990833	0,1	-0,234351
5,992500	0,1	-0,229709
5,994167	0,1	-0,273413
5,995833	0,1	-0,228086
5,997500	0,1	-0,234547
5,999167	0,1	-0,228548
6,000833	0,1	-0,230653
