File Path	chrom://chromeleon01/ikbm_chromeleon/2022/Rezex/Esteban/220612_chitin_4_7.seq/670.smp/UV_VIS_1.channel/UV_VIS_1.chm
Channel	UV_VIS_1

Injection Information:
Data Vault	ikbm_chromeleon
Injection	C-NE_24h-ChiBI_
Injection Number	51
Position	GA6
Comment	
Processing Method	New ProcMethod
Instrument Method	Short_Rezex_6min_194nm
Type	Unknown
Status	Finished
Injection Date	12.06.2022
Injection Time	22:38:04
Injection Volume (µl)	8,000
Dilution Factor	1,0000
Weight	1,0000

Chromatogram Data Information:
Time Min. (min)	0,000833
Time Max. (min)	6,000833
Data Points	3601
Detector	UV
Generating Data System	Chromeleon 7.2.9.11323
Exporting Data System	Chromeleon 7.2.9.0
Operator	Instrument Controller
Signal Quantity	Absorbance
Signal Unit	mAU
Signal Min.	-0,119050
Signal Max.	152,943430
Channel	UV_VIS_1
Driver Name	VWD3000.dll
Channel Type	Evaluation
Min. Step (s)	0,1
Max. Step (s)	0,1
Average Step (s)	0,1

Signal Parameter Information:
Signal Info	WVL:194 nm

Chromatogram Data:
Time (min)	Step (s)	Value (mAU)
0,000833	n.a.	-0,055265
0,002500	0,1	-0,058223
0,004167	0,1	-0,037422
0,005833	0,1	-0,063439
0,007500	0,1	-0,025090
0,009167	0,1	-0,042305
0,010833	0,1	-0,043796
0,012500	0,1	-0,059707
0,014167	0,1	-0,005114
0,015833	0,1	-0,014790
0,017500	0,1	-0,063039
0,019167	0,1	-0,029625
0,020833	0,1	-0,040085
0,022500	0,1	-0,052645
0,024167	0,1	-0,014001
0,025833	0,1	-0,037255
0,027500	0,1	-0,045161
0,029167	0,1	-0,062128
0,030833	0,1	-0,079224
0,032500	0,1	-0,073114
0,034167	0,1	-0,054403
0,035833	0,1	-0,064732
0,037500	0,1	-0,089600
0,039167	0,1	-0,086938
0,040833	0,1	-0,102597
0,042500	0,1	-0,107439
0,044167	0,1	-0,091321
0,045833	0,1	-0,057009
0,047500	0,1	-0,119050
0,049167	0,1	-0,065524
0,050833	0,1	-0,035979
0,052500	0,1	-0,061350
0,054167	0,1	-0,011558
0,055833	0,1	0,007671
0,057500	0,1	-0,003188
0,059167	0,1	-0,045944
0,060833	0,1	0,004201
0,062500	0,1	-0,006923
0,064167	0,1	-0,040856
0,065833	0,1	-0,072724
0,067500	0,1	-0,020054
0,069167	0,1	-0,020173
0,070833	0,1	-0,031233
0,072500	0,1	-0,038770
0,074167	0,1	-0,050712
0,075833	0,1	-0,006424
0,077500	0,1	0,020321
0,079167	0,1	-0,009051
0,080833	0,1	-0,012322
0,082500	0,1	0,020320
0,084167	0,1	-0,035338
0,085833	0,1	0,031469
0,087500	0,1	-0,015228
0,089167	0,1	0,029647
0,090833	0,1	-0,029470
0,092500	0,1	-0,009823
0,094167	0,1	-0,002283
0,095833	0,1	-0,002480
0,097500	0,1	0,014051
0,099167	0,1	0,007611
0,100833	0,1	0,030521
0,102500	0,1	0,031459
0,104167	0,1	-0,016162
0,105833	0,1	0,026870
0,107500	0,1	0,015174
0,109167	0,1	-0,018612
0,110833	0,1	-0,024261
0,112500	0,1	0,001669
0,114167	0,1	-0,038327
0,115833	0,1	-0,038849
0,117500	0,1	-0,040534
0,119167	0,1	-0,017733
0,120833	0,1	-0,077585
0,122500	0,1	-0,015650
0,124167	0,1	-0,039213
0,125833	0,1	-0,050172
0,127500	0,1	-0,059354
0,129167	0,1	0,001819
0,130833	0,1	-0,010832
0,132500	0,1	-0,012240
0,134167	0,1	-0,042236
0,135833	0,1	-0,013692
0,137500	0,1	-0,039371
0,139167	0,1	-0,018559
0,140833	0,1	-0,021171
0,142500	0,1	-0,024592
0,144167	0,1	-0,019530
0,145833	0,1	0,030537
0,147500	0,1	-0,000737
0,149167	0,1	-0,024233
0,150833	0,1	0,047425
0,152500	0,1	0,008907
0,154167	0,1	0,019011
0,155833	0,1	0,037746
0,157500	0,1	-0,009006
0,159167	0,1	0,034384
0,160833	0,1	0,027196
0,162500	0,1	0,035103
0,164167	0,1	0,016770
0,165833	0,1	-0,003674
0,167500	0,1	0,024296
0,169167	0,1	0,062730
0,170833	0,1	0,034781
0,172500	0,1	0,029659
0,174167	0,1	0,014746
0,175833	0,1	0,041015
0,177500	0,1	0,013615
0,179167	0,1	0,069106
0,180833	0,1	-0,015401
0,182500	0,1	0,039870
0,184167	0,1	0,045573
0,185833	0,1	0,029975
0,187500	0,1	0,043217
0,189167	0,1	0,015129
0,190833	0,1	-0,006656
0,192500	0,1	0,032673
0,194167	0,1	0,095644
0,195833	0,1	0,053412
0,197500	0,1	0,020799
0,199167	0,1	0,023277
0,200833	0,1	0,014569
0,202500	0,1	0,038768
0,204167	0,1	0,046442
0,205833	0,1	0,057043
0,207500	0,1	0,025510
0,209167	0,1	0,035681
0,210833	0,1	0,017084
0,212500	0,1	0,055482
0,214167	0,1	0,029178
0,215833	0,1	0,003212
0,217500	0,1	0,018184
0,219167	0,1	-0,022081
0,220833	0,1	0,053649
0,222500	0,1	0,053557
0,224167	0,1	0,041909
0,225833	0,1	0,045997
0,227500	0,1	0,037222
0,229167	0,1	0,063486
0,230833	0,1	0,049958
0,232500	0,1	0,026020
0,234167	0,1	0,023146
0,235833	0,1	0,014520
0,237500	0,1	0,039166
0,239167	0,1	0,005925
0,240833	0,1	0,072036
0,242500	0,1	0,077162
0,244167	0,1	0,058962
0,245833	0,1	0,040555
0,247500	0,1	0,078089
0,249167	0,1	0,097256
0,250833	0,1	0,075724
0,252500	0,1	0,034777
0,254167	0,1	0,092912
0,255833	0,1	0,055519
0,257500	0,1	0,048089
0,259167	0,1	0,042312
0,260833	0,1	0,043552
0,262500	0,1	0,025175
0,264167	0,1	0,082373
0,265833	0,1	0,041470
0,267500	0,1	0,051153
0,269167	0,1	0,075713
0,270833	0,1	0,065561
0,272500	0,1	0,049026
0,274167	0,1	0,049310
0,275833	0,1	0,101340
0,277500	0,1	0,063858
0,279167	0,1	0,105187
0,280833	0,1	0,061281
0,282500	0,1	0,103453
0,284167	0,1	0,064279
0,285833	0,1	0,051891
0,287500	0,1	0,090338
0,289167	0,1	0,076433
0,290833	0,1	0,063628
0,292500	0,1	0,045026
0,294167	0,1	0,073180
0,295833	0,1	0,065007
0,297500	0,1	0,115791
0,299167	0,1	0,068461
0,300833	0,1	0,054025
0,302500	0,1	0,076225
0,304167	0,1	0,073074
0,305833	0,1	0,097787
0,307500	0,1	0,076590
0,309167	0,1	0,074118
0,310833	0,1	0,106812
0,312500	0,1	0,125312
0,314167	0,1	0,114093
0,315833	0,1	0,056326
0,317500	0,1	0,043909
0,319167	0,1	0,105648
0,320833	0,1	0,101042
0,322500	0,1	0,075213
0,324167	0,1	0,096344
0,325833	0,1	0,095705
0,327500	0,1	0,103751
0,329167	0,1	0,095483
0,330833	0,1	0,096016
0,332500	0,1	0,057876
0,334167	0,1	0,121633
0,335833	0,1	0,107268
0,337500	0,1	0,063480
0,339167	0,1	0,122747
0,340833	0,1	0,100847
0,342500	0,1	0,135826
0,344167	0,1	0,119319
0,345833	0,1	0,119671
0,347500	0,1	0,091955
0,349167	0,1	0,110883
0,350833	0,1	0,146008
0,352500	0,1	0,084493
0,354167	0,1	0,146358
0,355833	0,1	0,112364
0,357500	0,1	0,081395
0,359167	0,1	0,100434
0,360833	0,1	0,174102
0,362500	0,1	0,114928
0,364167	0,1	0,135628
0,365833	0,1	0,113206
0,367500	0,1	0,127360
0,369167	0,1	0,161329
0,370833	0,1	0,104766
0,372500	0,1	0,156320
0,374167	0,1	0,143062
0,375833	0,1	0,120809
0,377500	0,1	0,143144
0,379167	0,1	0,154619
0,380833	0,1	0,135350
0,382500	0,1	0,126121
0,384167	0,1	0,157882
0,385833	0,1	0,138396
0,387500	0,1	0,137257
0,389167	0,1	0,139457
0,390833	0,1	0,158196
0,392500	0,1	0,135995
0,394167	0,1	0,161909
0,395833	0,1	0,144109
0,397500	0,1	0,161978
0,399167	0,1	0,176452
0,400833	0,1	0,147426
0,402500	0,1	0,149573
0,404167	0,1	0,168225
0,405833	0,1	0,137130
0,407500	0,1	0,124764
0,409167	0,1	0,145035
0,410833	0,1	0,163688
0,412500	0,1	0,173008
0,414167	0,1	0,176611
0,415833	0,1	0,180190
0,417500	0,1	0,199135
0,419167	0,1	0,198980
0,420833	0,1	0,172683
0,422500	0,1	0,173899
0,424167	0,1	0,147512
0,425833	0,1	0,182117
0,427500	0,1	0,174211
0,429167	0,1	0,175523
0,430833	0,1	0,162406
0,432500	0,1	0,201838
0,434167	0,1	0,187932
0,435833	0,1	0,184195
0,437500	0,1	0,221609
0,439167	0,1	0,187005
0,440833	0,1	0,193577
0,442500	0,1	0,192577
0,444167	0,1	0,192331
0,445833	0,1	0,231792
0,447500	0,1	0,206683
0,449167	0,1	0,219900
0,450833	0,1	0,201408
0,452500	0,1	0,225616
0,454167	0,1	0,199766
0,455833	0,1	0,229927
0,457500	0,1	0,193897
0,459167	0,1	0,200160
0,460833	0,1	0,212121
0,462500	0,1	0,225529
0,464167	0,1	0,193452
0,465833	0,1	0,202717
0,467500	0,1	0,246334
0,469167	0,1	0,237675
0,470833	0,1	0,222379
0,472500	0,1	0,243961
0,474167	0,1	0,222313
0,475833	0,1	0,255702
0,477500	0,1	0,226985
0,479167	0,1	0,211531
0,480833	0,1	0,239781
0,482500	0,1	0,243920
0,484167	0,1	0,225182
0,485833	0,1	0,266175
0,487500	0,1	0,273479
0,489167	0,1	0,249556
0,490833	0,1	0,256286
0,492500	0,1	0,271100
0,494167	0,1	0,251845
0,495833	0,1	0,266557
0,497500	0,1	0,237323
0,499167	0,1	0,253799
0,500833	0,1	0,280549
0,502500	0,1	0,265409
0,504167	0,1	0,259648
0,505833	0,1	0,246329
0,507500	0,1	0,285234
0,509167	0,1	0,272396
0,510833	0,1	0,297020
0,512500	0,1	0,265682
0,514167	0,1	0,266117
0,515833	0,1	0,277108
0,517500	0,1	0,305792
0,519167	0,1	0,306106
0,520833	0,1	0,264731
0,522500	0,1	0,261805
0,524167	0,1	0,306383
0,525833	0,1	0,276578
0,527500	0,1	0,296051
0,529167	0,1	0,317201
0,530833	0,1	0,305531
0,532500	0,1	0,287877
0,534167	0,1	0,311973
0,535833	0,1	0,289168
0,537500	0,1	0,331387
0,539167	0,1	0,288036
0,540833	0,1	0,358338
0,542500	0,1	0,330587
0,544167	0,1	0,338897
0,545833	0,1	0,357077
0,547500	0,1	0,345217
0,549167	0,1	0,332775
0,550833	0,1	0,328241
0,552500	0,1	0,330954
0,554167	0,1	0,327170
0,555833	0,1	0,325046
0,557500	0,1	0,338318
0,559167	0,1	0,335471
0,560833	0,1	0,342971
0,562500	0,1	0,313613
0,564167	0,1	0,355729
0,565833	0,1	0,382489
0,567500	0,1	0,388809
0,569167	0,1	0,385586
0,570833	0,1	0,372109
0,572500	0,1	0,372596
0,574167	0,1	0,376824
0,575833	0,1	0,385870
0,577500	0,1	0,370665
0,579167	0,1	0,389094
0,580833	0,1	0,372736
0,582500	0,1	0,365792
0,584167	0,1	0,399635
0,585833	0,1	0,388727
0,587500	0,1	0,366779
0,589167	0,1	0,422396
0,590833	0,1	0,394760
0,592500	0,1	0,391935
0,594167	0,1	0,384652
0,595833	0,1	0,411401
0,597500	0,1	0,414531
0,599167	0,1	0,387392
0,600833	0,1	0,445588
0,602500	0,1	0,381662
0,604167	0,1	0,449288
0,605833	0,1	0,454125
0,607500	0,1	0,371106
0,609167	0,1	0,405543
0,610833	0,1	0,436478
0,612500	0,1	0,413163
0,614167	0,1	0,431370
0,615833	0,1	0,485610
0,617500	0,1	0,463355
0,619167	0,1	0,403460
0,620833	0,1	0,455798
0,622500	0,1	0,475332
0,624167	0,1	0,467018
0,625833	0,1	0,500000
0,627500	0,1	0,479432
0,629167	0,1	0,452401
0,630833	0,1	0,477386
0,632500	0,1	0,490090
0,634167	0,1	0,511058
0,635833	0,1	0,493955
0,637500	0,1	0,504274
0,639167	0,1	0,494599
0,640833	0,1	0,549891
0,642500	0,1	0,493773
0,644167	0,1	0,538003
0,645833	0,1	0,501649
0,647500	0,1	0,523798
0,649167	0,1	0,553330
0,650833	0,1	0,489364
0,652500	0,1	0,574203
0,654167	0,1	0,523799
0,655833	0,1	0,520782
0,657500	0,1	0,539121
0,659167	0,1	0,533811
0,660833	0,1	0,595152
0,662500	0,1	0,575080
0,664167	0,1	0,556980
0,665833	0,1	0,589049
0,667500	0,1	0,567267
0,669167	0,1	0,561221
0,670833	0,1	0,599661
0,672500	0,1	0,579448
0,674167	0,1	0,602548
0,675833	0,1	0,632365
0,677500	0,1	0,612697
0,679167	0,1	0,600526
0,680833	0,1	0,577429
0,682500	0,1	0,622596
0,684167	0,1	0,592566
0,685833	0,1	0,661498
0,687500	0,1	0,632517
0,689167	0,1	0,638895
0,690833	0,1	0,611132
0,692500	0,1	0,673972
0,694167	0,1	0,719653
0,695833	0,1	0,616547
0,697500	0,1	0,676532
0,699167	0,1	0,680060
0,700833	0,1	0,709695
0,702500	0,1	0,669385
0,704167	0,1	0,719167
0,705833	0,1	0,664224
0,707500	0,1	0,714128
0,709167	0,1	0,715859
0,710833	0,1	0,737309
0,712500	0,1	0,725903
0,714167	0,1	0,744910
0,715833	0,1	0,803244
0,717500	0,1	0,758276
0,719167	0,1	0,744788
0,720833	0,1	0,760616
0,722500	0,1	0,753956
0,724167	0,1	0,771254
0,725833	0,1	0,811940
0,727500	0,1	0,782392
0,729167	0,1	0,795216
0,730833	0,1	0,819536
0,732500	0,1	0,829156
0,734167	0,1	0,807842
0,735833	0,1	0,825419
0,737500	0,1	0,871562
0,739167	0,1	0,854044
0,740833	0,1	0,848588
0,742500	0,1	0,891521
0,744167	0,1	0,842802
0,745833	0,1	0,900124
0,747500	0,1	0,898552
0,749167	0,1	0,865333
0,750833	0,1	0,851826
0,752500	0,1	0,849729
0,754167	0,1	0,902057
0,755833	0,1	0,891869
0,757500	0,1	0,922008
0,759167	0,1	0,919580
0,760833	0,1	0,940329
0,762500	0,1	0,919655
0,764167	0,1	0,897694
0,765833	0,1	0,951078
0,767500	0,1	0,945917
0,769167	0,1	0,904073
0,770833	0,1	0,913680
0,772500	0,1	0,968231
0,774167	0,1	0,981736
0,775833	0,1	0,928412
0,777500	0,1	0,985668
0,779167	0,1	0,927415
0,780833	0,1	0,999236
0,782500	0,1	0,978721
0,784167	0,1	0,974987
0,785833	0,1	0,987257
0,787500	0,1	1,005204
0,789167	0,1	1,007146
0,790833	0,1	0,961790
0,792500	0,1	0,982803
0,794167	0,1	1,012950
0,795833	0,1	1,025533
0,797500	0,1	0,997024
0,799167	0,1	1,042960
0,800833	0,1	1,044549
0,802500	0,1	1,034497
0,804167	0,1	1,032280
0,805833	0,1	1,038662
0,807500	0,1	1,034708
0,809167	0,1	1,119418
0,810833	0,1	1,058847
0,812500	0,1	1,067516
0,814167	0,1	1,085399
0,815833	0,1	1,105788
0,817500	0,1	1,108377
0,819167	0,1	1,106724
0,820833	0,1	1,116199
0,822500	0,1	1,113973
0,824167	0,1	1,145637
0,825833	0,1	1,125327
0,827500	0,1	1,147930
0,829167	0,1	1,154258
0,830833	0,1	1,190373
0,832500	0,1	1,145940
0,834167	0,1	1,164235
0,835833	0,1	1,170777
0,837500	0,1	1,219600
0,839167	0,1	1,188736
0,840833	0,1	1,200503
0,842500	0,1	1,215014
0,844167	0,1	1,221835
0,845833	0,1	1,234261
0,847500	0,1	1,217965
0,849167	0,1	1,248046
0,850833	0,1	1,246329
0,852500	0,1	1,271318
0,854167	0,1	1,282096
0,855833	0,1	1,235494
0,857500	0,1	1,325752
0,859167	0,1	1,297908
0,860833	0,1	1,287275
0,862500	0,1	1,313772
0,864167	0,1	1,309827
0,865833	0,1	1,349043
0,867500	0,1	1,331667
0,869167	0,1	1,372750
0,870833	0,1	1,385902
0,872500	0,1	1,381810
0,874167	0,1	1,390217
0,875833	0,1	1,388424
0,877500	0,1	1,418951
0,879167	0,1	1,398920
0,880833	0,1	1,415793
0,882500	0,1	1,396405
0,884167	0,1	1,446035
0,885833	0,1	1,472557
0,887500	0,1	1,401229
0,889167	0,1	1,461050
0,890833	0,1	1,473430
0,892500	0,1	1,463300
0,894167	0,1	1,521711
0,895833	0,1	1,504976
0,897500	0,1	1,522149
0,899167	0,1	1,526893
0,900833	0,1	1,557508
0,902500	0,1	1,507000
0,904167	0,1	1,558146
0,905833	0,1	1,587767
0,907500	0,1	1,592875
0,909167	0,1	1,557963
0,910833	0,1	1,574338
0,912500	0,1	1,638576
0,914167	0,1	1,598570
0,915833	0,1	1,640522
0,917500	0,1	1,634939
0,919167	0,1	1,649307
0,920833	0,1	1,721334
0,922500	0,1	1,660687
0,924167	0,1	1,685892
0,925833	0,1	1,691237
0,927500	0,1	1,714726
0,929167	0,1	1,734704
0,930833	0,1	1,756292
0,932500	0,1	1,774266
0,934167	0,1	1,802445
0,935833	0,1	1,828410
0,937500	0,1	1,768894
0,939167	0,1	1,821231
0,940833	0,1	1,845175
0,942500	0,1	1,836982
0,944167	0,1	1,864073
0,945833	0,1	1,856550
0,947500	0,1	1,861438
0,949167	0,1	1,911847
0,950833	0,1	1,919117
0,952500	0,1	1,929064
0,954167	0,1	1,919271
0,955833	0,1	1,950039
0,957500	0,1	1,910947
0,959167	0,1	1,980746
0,960833	0,1	2,004518
0,962500	0,1	1,989649
0,964167	0,1	1,997114
0,965833	0,1	2,024395
0,967500	0,1	2,078081
0,969167	0,1	2,036340
0,970833	0,1	2,046840
0,972500	0,1	2,082379
0,974167	0,1	2,081891
0,975833	0,1	2,090294
0,977500	0,1	2,133816
0,979167	0,1	2,145786
0,980833	0,1	2,159373
0,982500	0,1	2,180631
0,984167	0,1	2,192771
0,985833	0,1	2,193650
0,987500	0,1	2,191918
0,989167	0,1	2,209154
0,990833	0,1	2,279556
0,992500	0,1	2,248574
0,994167	0,1	2,279736
0,995833	0,1	2,280773
0,997500	0,1	2,308212
0,999167	0,1	2,320127
1,000833	0,1	2,353555
1,002500	0,1	2,405850
1,004167	0,1	2,417284
1,005833	0,1	2,443033
1,007500	0,1	2,469291
1,009167	0,1	2,447781
1,010833	0,1	2,503226
1,012500	0,1	2,507029
1,014167	0,1	2,537262
1,015833	0,1	2,581969
1,017500	0,1	2,577675
1,019167	0,1	2,623157
1,020833	0,1	2,658956
1,022500	0,1	2,692916
1,024167	0,1	2,653786
1,025833	0,1	2,720615
1,027500	0,1	2,745713
1,029167	0,1	2,781674
1,030833	0,1	2,777976
1,032500	0,1	2,783754
1,034167	0,1	2,834849
1,035833	0,1	2,858944
1,037500	0,1	2,870038
1,039167	0,1	2,871449
1,040833	0,1	2,933570
1,042500	0,1	2,970818
1,044167	0,1	2,972633
1,045833	0,1	2,976084
1,047500	0,1	2,998067
1,049167	0,1	3,061381
1,050833	0,1	3,069890
1,052500	0,1	3,125608
1,054167	0,1	3,176958
1,055833	0,1	3,274222
1,057500	0,1	3,340477
1,059167	0,1	3,484029
1,060833	0,1	3,537011
1,062500	0,1	3,706789
1,064167	0,1	3,917178
1,065833	0,1	4,186010
1,067500	0,1	4,503532
1,069167	0,1	4,895476
1,070833	0,1	5,420127
1,072500	0,1	6,005008
1,074167	0,1	6,766147
1,075833	0,1	7,638227
1,077500	0,1	8,668296
1,079167	0,1	9,852677
1,080833	0,1	11,194971
1,082500	0,1	12,706529
1,084167	0,1	14,371414
1,085833	0,1	16,184550
1,087500	0,1	18,170143
1,089167	0,1	20,264137
1,090833	0,1	22,428100
1,092500	0,1	24,678990
1,094167	0,1	27,028826
1,095833	0,1	29,303286
1,097500	0,1	31,552680
1,099167	0,1	33,798433
1,100833	0,1	35,899315
1,102500	0,1	37,902062
1,104167	0,1	39,642506
1,105833	0,1	41,318480
1,107500	0,1	42,797875
1,109167	0,1	44,021064
1,110833	0,1	45,057575
1,112500	0,1	45,891239
1,114167	0,1	46,478128
1,115833	0,1	46,870764
1,117500	0,1	47,096392
1,119167	0,1	47,071885
1,120833	0,1	46,886690
1,122500	0,1	46,551825
1,124167	0,1	46,073776
1,125833	0,1	45,445672
1,127500	0,1	44,651173
1,129167	0,1	43,821545
1,130833	0,1	42,823325
1,132500	0,1	41,882071
1,134167	0,1	40,789660
1,135833	0,1	39,643814
1,137500	0,1	38,502926
1,139167	0,1	37,379404
1,140833	0,1	36,236985
1,142500	0,1	35,081262
1,144167	0,1	34,015783
1,145833	0,1	32,914472
1,147500	0,1	31,836762
1,149167	0,1	30,843503
1,150833	0,1	29,882255
1,152500	0,1	28,984278
1,154167	0,1	28,132002
1,155833	0,1	27,334803
1,157500	0,1	26,582371
1,159167	0,1	25,834833
1,160833	0,1	25,232512
1,162500	0,1	24,616239
1,164167	0,1	24,069446
1,165833	0,1	23,532248
1,167500	0,1	23,095151
1,169167	0,1	22,597434
1,170833	0,1	22,261422
1,172500	0,1	21,859710
1,174167	0,1	21,502927
1,175833	0,1	21,216691
1,177500	0,1	20,945636
1,179167	0,1	20,678058
1,180833	0,1	20,423838
1,182500	0,1	20,206673
1,184167	0,1	20,052566
1,185833	0,1	19,919077
1,187500	0,1	19,846662
1,189167	0,1	19,836318
1,190833	0,1	19,924584
1,192500	0,1	20,078413
1,194167	0,1	20,356688
1,195833	0,1	20,832321
1,197500	0,1	21,381720
1,199167	0,1	22,191789
1,200833	0,1	23,181999
1,202500	0,1	24,421242
1,204167	0,1	25,901787
1,205833	0,1	27,716472
1,207500	0,1	29,821533
1,209167	0,1	32,260681
1,210833	0,1	35,063077
1,212500	0,1	38,193777
1,214167	0,1	41,671999
1,215833	0,1	45,479784
1,217500	0,1	49,713274
1,219167	0,1	54,140239
1,220833	0,1	58,924056
1,222500	0,1	63,957000
1,224167	0,1	69,085187
1,225833	0,1	74,442832
1,227500	0,1	79,927762
1,229167	0,1	85,401815
1,230833	0,1	90,976028
1,232500	0,1	96,328411
1,234167	0,1	101,647867
1,235833	0,1	106,866321
1,237500	0,1	111,797715
1,239167	0,1	116,473398
1,240833	0,1	120,990359
1,242500	0,1	125,090776
1,244167	0,1	128,895581
1,245833	0,1	132,313486
1,247500	0,1	135,384201
1,249167	0,1	138,124967
1,250833	0,1	140,432378
1,252500	0,1	142,371270
1,254167	0,1	143,932902
1,255833	0,1	145,130031
1,257500	0,1	145,901888
1,259167	0,1	146,343044
1,260833	0,1	146,455246
1,262500	0,1	146,194331
1,264167	0,1	145,664959
1,265833	0,1	144,810727
1,267500	0,1	143,589276
1,269167	0,1	142,067712
1,270833	0,1	140,426069
1,272500	0,1	138,471391
1,274167	0,1	136,382293
1,275833	0,1	133,985671
1,277500	0,1	131,517620
1,279167	0,1	128,763820
1,280833	0,1	126,004222
1,282500	0,1	123,110433
1,284167	0,1	120,153050
1,285833	0,1	117,151886
1,287500	0,1	114,008535
1,289167	0,1	110,903004
1,290833	0,1	107,823134
1,292500	0,1	104,730230
1,294167	0,1	101,648379
1,295833	0,1	98,622238
1,297500	0,1	95,606608
1,299167	0,1	92,740830
1,300833	0,1	89,895518
1,302500	0,1	87,092098
1,304167	0,1	84,397006
1,305833	0,1	81,828597
1,307500	0,1	79,347751
1,309167	0,1	76,867608
1,310833	0,1	74,549589
1,312500	0,1	72,332681
1,314167	0,1	70,255957
1,315833	0,1	68,127538
1,317500	0,1	66,179435
1,319167	0,1	64,315414
1,320833	0,1	62,475354
1,322500	0,1	60,756502
1,324167	0,1	59,131180
1,325833	0,1	57,504631
1,327500	0,1	56,031399
1,329167	0,1	54,539773
1,330833	0,1	53,205063
1,332500	0,1	51,848974
1,334167	0,1	50,555827
1,335833	0,1	49,258323
1,337500	0,1	48,114086
1,339167	0,1	46,960963
1,340833	0,1	45,902593
1,342500	0,1	44,861128
1,344167	0,1	43,804268
1,345833	0,1	42,758694
1,347500	0,1	41,837126
1,349167	0,1	40,934144
1,350833	0,1	40,003455
1,352500	0,1	39,148999
1,354167	0,1	38,285567
1,355833	0,1	37,459398
1,357500	0,1	36,704686
1,359167	0,1	35,897444
1,360833	0,1	35,195103
1,362500	0,1	34,460391
1,364167	0,1	33,732250
1,365833	0,1	33,060944
1,367500	0,1	32,392306
1,369167	0,1	31,728262
1,370833	0,1	31,119369
1,372500	0,1	30,519803
1,374167	0,1	29,931763
1,375833	0,1	29,366566
1,377500	0,1	28,795285
1,379167	0,1	28,265258
1,380833	0,1	27,712866
1,382500	0,1	27,186536
1,384167	0,1	26,703620
1,385833	0,1	26,252319
1,387500	0,1	25,774084
1,389167	0,1	25,345633
1,390833	0,1	24,940588
1,392500	0,1	24,498315
1,394167	0,1	24,110539
1,395833	0,1	23,696702
1,397500	0,1	23,340356
1,399167	0,1	22,934332
1,400833	0,1	22,638809
1,402500	0,1	22,310863
1,404167	0,1	22,018764
1,405833	0,1	21,640230
1,407500	0,1	21,338151
1,409167	0,1	21,031698
1,410833	0,1	20,811655
1,412500	0,1	20,536725
1,414167	0,1	20,242324
1,415833	0,1	19,968641
1,417500	0,1	19,741561
1,419167	0,1	19,555832
1,420833	0,1	19,295715
1,422500	0,1	19,129545
1,424167	0,1	18,907830
1,425833	0,1	18,661943
1,427500	0,1	18,424926
1,429167	0,1	18,269283
1,430833	0,1	18,086519
1,432500	0,1	17,866784
1,434167	0,1	17,728008
1,435833	0,1	17,521335
1,437500	0,1	17,290645
1,439167	0,1	17,183613
1,440833	0,1	17,021253
1,442500	0,1	16,832186
1,444167	0,1	16,693311
1,445833	0,1	16,547435
1,447500	0,1	16,351436
1,449167	0,1	16,235811
1,450833	0,1	16,043638
1,452500	0,1	15,916748
1,454167	0,1	15,772987
1,455833	0,1	15,666713
1,457500	0,1	15,461897
1,459167	0,1	15,361819
1,460833	0,1	15,212944
1,462500	0,1	15,065182
1,464167	0,1	14,950542
1,465833	0,1	14,782332
1,467500	0,1	14,694291
1,469167	0,1	14,592299
1,470833	0,1	14,458062
1,472500	0,1	14,355987
1,474167	0,1	14,227286
1,475833	0,1	14,130313
1,477500	0,1	13,995296
1,479167	0,1	13,922222
1,480833	0,1	13,827986
1,482500	0,1	13,727239
1,484167	0,1	13,607383
1,485833	0,1	13,550146
1,487500	0,1	13,445903
1,489167	0,1	13,389147
1,490833	0,1	13,298346
1,492500	0,1	13,211396
1,494167	0,1	13,218199
1,495833	0,1	13,103141
1,497500	0,1	13,080929
1,499167	0,1	12,995404
1,500833	0,1	12,889986
1,502500	0,1	12,870465
1,504167	0,1	12,806553
1,505833	0,1	12,748630
1,507500	0,1	12,690984
1,509167	0,1	12,671528
1,510833	0,1	12,617414
1,512500	0,1	12,594160
1,514167	0,1	12,570788
1,515833	0,1	12,506392
1,517500	0,1	12,458554
1,519167	0,1	12,466796
1,520833	0,1	12,391813
1,522500	0,1	12,402082
1,524167	0,1	12,376156
1,525833	0,1	12,366623
1,527500	0,1	12,308996
1,529167	0,1	12,315192
1,530833	0,1	12,229084
1,532500	0,1	12,254587
1,534167	0,1	12,257694
1,535833	0,1	12,197832
1,537500	0,1	12,208957
1,539167	0,1	12,204555
1,540833	0,1	12,182027
1,542500	0,1	12,205854
1,544167	0,1	12,139555
1,545833	0,1	12,194661
1,547500	0,1	12,142562
1,549167	0,1	12,205844
1,550833	0,1	12,150610
1,552500	0,1	12,098336
1,554167	0,1	12,130072
1,555833	0,1	12,170410
1,557500	0,1	12,101143
1,559167	0,1	12,134380
1,560833	0,1	12,111675
1,562500	0,1	12,137965
1,564167	0,1	12,142906
1,565833	0,1	12,156196
1,567500	0,1	12,143487
1,569167	0,1	12,114055
1,570833	0,1	12,138687
1,572500	0,1	12,158695
1,574167	0,1	12,156500
1,575833	0,1	12,143636
1,577500	0,1	12,100261
1,579167	0,1	12,133113
1,580833	0,1	12,096886
1,582500	0,1	12,111124
1,584167	0,1	12,075166
1,585833	0,1	12,113558
1,587500	0,1	12,071762
1,589167	0,1	12,048321
1,590833	0,1	12,060121
1,592500	0,1	12,059854
1,594167	0,1	12,039135
1,595833	0,1	12,048525
1,597500	0,1	12,042654
1,599167	0,1	12,011185
1,600833	0,1	11,998048
1,602500	0,1	11,953629
1,604167	0,1	11,972741
1,605833	0,1	11,938628
1,607500	0,1	11,921461
1,609167	0,1	11,917453
1,610833	0,1	11,884669
1,612500	0,1	11,876683
1,614167	0,1	11,863228
1,615833	0,1	11,786583
1,617500	0,1	11,771998
1,619167	0,1	11,790600
1,620833	0,1	11,786936
1,622500	0,1	11,753154
1,624167	0,1	11,686890
1,625833	0,1	11,687079
1,627500	0,1	11,668899
1,629167	0,1	11,628773
1,630833	0,1	11,561776
1,632500	0,1	11,608736
1,634167	0,1	11,557716
1,635833	0,1	11,530098
1,637500	0,1	11,499997
1,639167	0,1	11,480965
1,640833	0,1	11,464616
1,642500	0,1	11,418063
1,644167	0,1	11,430351
1,645833	0,1	11,378286
1,647500	0,1	11,338734
1,649167	0,1	11,303902
1,650833	0,1	11,261141
1,652500	0,1	11,281707
1,654167	0,1	11,208150
1,655833	0,1	11,201094
1,657500	0,1	11,209417
1,659167	0,1	11,129568
1,660833	0,1	11,126478
1,662500	0,1	11,093303
1,664167	0,1	11,097533
1,665833	0,1	11,056311
1,667500	0,1	11,048142
1,669167	0,1	10,986306
1,670833	0,1	10,997148
1,672500	0,1	10,945475
1,674167	0,1	10,909387
1,675833	0,1	10,924662
1,677500	0,1	10,916779
1,679167	0,1	10,888980
1,680833	0,1	10,861725
1,682500	0,1	10,863642
1,684167	0,1	10,841897
1,685833	0,1	10,851959
1,687500	0,1	10,801335
1,689167	0,1	10,804424
1,690833	0,1	10,813285
1,692500	0,1	10,776997
1,694167	0,1	10,746213
1,695833	0,1	10,754636
1,697500	0,1	10,753114
1,699167	0,1	10,719083
1,700833	0,1	10,715294
1,702500	0,1	10,686117
1,704167	0,1	10,764962
1,705833	0,1	10,705329
1,707500	0,1	10,725245
1,709167	0,1	10,683135
1,710833	0,1	10,620136
1,712500	0,1	10,649612
1,714167	0,1	10,658656
1,715833	0,1	10,617761
1,717500	0,1	10,562169
1,719167	0,1	10,605373
1,720833	0,1	10,565401
1,722500	0,1	10,548884
1,724167	0,1	10,554570
1,725833	0,1	10,525612
1,727500	0,1	10,523672
1,729167	0,1	10,512967
1,730833	0,1	10,502381
1,732500	0,1	10,494003
1,734167	0,1	10,457628
1,735833	0,1	10,449781
1,737500	0,1	10,435994
1,739167	0,1	10,405081
1,740833	0,1	10,369885
1,742500	0,1	10,344944
1,744167	0,1	10,354290
1,745833	0,1	10,285389
1,747500	0,1	10,246745
1,749167	0,1	10,212812
1,750833	0,1	10,247422
1,752500	0,1	10,163769
1,754167	0,1	10,108897
1,755833	0,1	10,147508
1,757500	0,1	10,078818
1,759167	0,1	10,065063
1,760833	0,1	10,035167
1,762500	0,1	9,964318
1,764167	0,1	9,941667
1,765833	0,1	9,890129
1,767500	0,1	9,850392
1,769167	0,1	9,828524
1,770833	0,1	9,786992
1,772500	0,1	9,773301
1,774167	0,1	9,698884
1,775833	0,1	9,674156
1,777500	0,1	9,643618
1,779167	0,1	9,597542
1,780833	0,1	9,520458
1,782500	0,1	9,556238
1,784167	0,1	9,481151
1,785833	0,1	9,460607
1,787500	0,1	9,428717
1,789167	0,1	9,387655
1,790833	0,1	9,298155
1,792500	0,1	9,293910
1,794167	0,1	9,259411
1,795833	0,1	9,188697
1,797500	0,1	9,173313
1,799167	0,1	9,114858
1,800833	0,1	9,115609
1,802500	0,1	9,060254
1,804167	0,1	8,971524
1,805833	0,1	8,943109
1,807500	0,1	8,944418
1,809167	0,1	8,883795
1,810833	0,1	8,839756
1,812500	0,1	8,794156
1,814167	0,1	8,774798
1,815833	0,1	8,678613
1,817500	0,1	8,700142
1,819167	0,1	8,671153
1,820833	0,1	8,595104
1,822500	0,1	8,606469
1,824167	0,1	8,507475
1,825833	0,1	8,492956
1,827500	0,1	8,473479
1,829167	0,1	8,439929
1,830833	0,1	8,397838
1,832500	0,1	8,383096
1,834167	0,1	8,298314
1,835833	0,1	8,280802
1,837500	0,1	8,292552
1,839167	0,1	8,228291
1,840833	0,1	8,271383
1,842500	0,1	8,226733
1,844167	0,1	8,262325
1,845833	0,1	8,234916
1,847500	0,1	8,218812
1,849167	0,1	8,271625
1,850833	0,1	8,267975
1,852500	0,1	8,314986
1,854167	0,1	8,318661
1,855833	0,1	8,380623
1,857500	0,1	8,366218
1,859167	0,1	8,420437
1,860833	0,1	8,514002
1,862500	0,1	8,617491
1,864167	0,1	8,656711
1,865833	0,1	8,709656
1,867500	0,1	8,777758
1,869167	0,1	8,885369
1,870833	0,1	8,929146
1,872500	0,1	8,979494
1,874167	0,1	9,079765
1,875833	0,1	9,124141
1,877500	0,1	9,182176
1,879167	0,1	9,263610
1,880833	0,1	9,342906
1,882500	0,1	9,408048
1,884167	0,1	9,445876
1,885833	0,1	9,466463
1,887500	0,1	9,519712
1,889167	0,1	9,600321
1,890833	0,1	9,650575
1,892500	0,1	9,685950
1,894167	0,1	9,701609
1,895833	0,1	9,804917
1,897500	0,1	9,833947
1,899167	0,1	9,863673
1,900833	0,1	9,949941
1,902500	0,1	9,974568
1,904167	0,1	10,028328
1,905833	0,1	10,072467
1,907500	0,1	10,117562
1,909167	0,1	10,159019
1,910833	0,1	10,168701
1,912500	0,1	10,225604
1,914167	0,1	10,284937
1,915833	0,1	10,287318
1,917500	0,1	10,318896
1,919167	0,1	10,396444
1,920833	0,1	10,433955
1,922500	0,1	10,410379
1,924167	0,1	10,435296
1,925833	0,1	10,515274
1,927500	0,1	10,539856
1,929167	0,1	10,585627
1,930833	0,1	10,606746
1,932500	0,1	10,597074
1,934167	0,1	10,641406
1,935833	0,1	10,626409
1,937500	0,1	10,656261
1,939167	0,1	10,676992
1,940833	0,1	10,682762
1,942500	0,1	10,693192
1,944167	0,1	10,666412
1,945833	0,1	10,743387
1,947500	0,1	10,724682
1,949167	0,1	10,747479
1,950833	0,1	10,815799
1,952500	0,1	10,765837
1,954167	0,1	10,785070
1,955833	0,1	10,804549
1,957500	0,1	10,825566
1,959167	0,1	10,832421
1,960833	0,1	10,836834
1,962500	0,1	10,882753
1,964167	0,1	10,894258
1,965833	0,1	10,933293
1,967500	0,1	10,951082
1,969167	0,1	10,943837
1,970833	0,1	10,975485
1,972500	0,1	10,982605
1,974167	0,1	10,998280
1,975833	0,1	10,999523
1,977500	0,1	11,040544
1,979167	0,1	11,048249
1,980833	0,1	11,114166
1,982500	0,1	11,118618
1,984167	0,1	11,173339
1,985833	0,1	11,175256
1,987500	0,1	11,231816
1,989167	0,1	11,259684
1,990833	0,1	11,285715
1,992500	0,1	11,326764
1,994167	0,1	11,357751
1,995833	0,1	11,439085
1,997500	0,1	11,454013
1,999167	0,1	11,499090
2,000833	0,1	11,502067
2,002500	0,1	11,553885
2,004167	0,1	11,592731
2,005833	0,1	11,633368
2,007500	0,1	11,666390
2,009167	0,1	11,722364
2,010833	0,1	11,795007
2,012500	0,1	11,795294
2,014167	0,1	11,864892
2,015833	0,1	11,907025
2,017500	0,1	11,952378
2,019167	0,1	12,000745
2,020833	0,1	12,062129
2,022500	0,1	12,176237
2,024167	0,1	12,135361
2,025833	0,1	12,225932
2,027500	0,1	12,222106
2,029167	0,1	12,318159
2,030833	0,1	12,348071
2,032500	0,1	12,397780
2,034167	0,1	12,474226
2,035833	0,1	12,491951
2,037500	0,1	12,521164
2,039167	0,1	12,607304
2,040833	0,1	12,658532
2,042500	0,1	12,710770
2,044167	0,1	12,781642
2,045833	0,1	12,859258
2,047500	0,1	12,863217
2,049167	0,1	12,891988
2,050833	0,1	12,935023
2,052500	0,1	13,024920
2,054167	0,1	13,088629
2,055833	0,1	13,121168
2,057500	0,1	13,167691
2,059167	0,1	13,216660
2,060833	0,1	13,295570
2,062500	0,1	13,321689
2,064167	0,1	13,358245
2,065833	0,1	13,416167
2,067500	0,1	13,450174
2,069167	0,1	13,506781
2,070833	0,1	13,547364
2,072500	0,1	13,545379
2,074167	0,1	13,634359
2,075833	0,1	13,671736
2,077500	0,1	13,717645
2,079167	0,1	13,699930
2,080833	0,1	13,738003
2,082500	0,1	13,773545
2,084167	0,1	13,842972
2,085833	0,1	13,864171
2,087500	0,1	13,830877
2,089167	0,1	13,862022
2,090833	0,1	13,952163
2,092500	0,1	13,940824
2,094167	0,1	13,949581
2,095833	0,1	13,968921
2,097500	0,1	13,996847
2,099167	0,1	13,967841
2,100833	0,1	14,050804
2,102500	0,1	14,058163
2,104167	0,1	14,073163
2,105833	0,1	14,055461
2,107500	0,1	14,101809
2,109167	0,1	14,059185
2,110833	0,1	14,072764
2,112500	0,1	14,101244
2,114167	0,1	14,086200
2,115833	0,1	14,088227
2,117500	0,1	14,105155
2,119167	0,1	14,083262
2,120833	0,1	14,116720
2,122500	0,1	14,105834
2,124167	0,1	14,096213
2,125833	0,1	14,045612
2,127500	0,1	14,040275
2,129167	0,1	13,990874
2,130833	0,1	14,080882
2,132500	0,1	14,050138
2,134167	0,1	14,005807
2,135833	0,1	13,998483
2,137500	0,1	13,947607
2,139167	0,1	13,953385
2,140833	0,1	13,918229
2,142500	0,1	13,920595
2,144167	0,1	13,870693
2,145833	0,1	13,840635
2,147500	0,1	13,817859
2,149167	0,1	13,757296
2,150833	0,1	13,763383
2,152500	0,1	13,732441
2,154167	0,1	13,702633
2,155833	0,1	13,678224
2,157500	0,1	13,641014
2,159167	0,1	13,642362
2,160833	0,1	13,583709
2,162500	0,1	13,557778
2,164167	0,1	13,465623
2,165833	0,1	13,476266
2,167500	0,1	13,454604
2,169167	0,1	13,407837
2,170833	0,1	13,327444
2,172500	0,1	13,280247
2,174167	0,1	13,234124
2,175833	0,1	13,267459
2,177500	0,1	13,214781
2,179167	0,1	13,174535
2,180833	0,1	13,139285
2,182500	0,1	13,066384
2,184167	0,1	13,020922
2,185833	0,1	13,015665
2,187500	0,1	12,918768
2,189167	0,1	12,943267
2,190833	0,1	12,875535
2,192500	0,1	12,801404
2,194167	0,1	12,818672
2,195833	0,1	12,743741
2,197500	0,1	12,700735
2,199167	0,1	12,668285
2,200833	0,1	12,587956
2,202500	0,1	12,589975
2,204167	0,1	12,519443
2,205833	0,1	12,532766
2,207500	0,1	12,439652
2,209167	0,1	12,444663
2,210833	0,1	12,389872
2,212500	0,1	12,331283
2,214167	0,1	12,311573
2,215833	0,1	12,257997
2,217500	0,1	12,228071
2,219167	0,1	12,186281
2,220833	0,1	12,178318
2,222500	0,1	12,118794
2,224167	0,1	12,146640
2,225833	0,1	12,068698
2,227500	0,1	12,059856
2,229167	0,1	12,048290
2,230833	0,1	12,000226
2,232500	0,1	11,965073
2,234167	0,1	11,919480
2,235833	0,1	11,917213
2,237500	0,1	11,899872
2,239167	0,1	11,855820
2,240833	0,1	11,825141
2,242500	0,1	11,785488
2,244167	0,1	11,794783
2,245833	0,1	11,745040
2,247500	0,1	11,763328
2,249167	0,1	11,682107
2,250833	0,1	11,704290
2,252500	0,1	11,623298
2,254167	0,1	11,636399
2,255833	0,1	11,604701
2,257500	0,1	11,563944
2,259167	0,1	11,527263
2,260833	0,1	11,498719
2,262500	0,1	11,496218
2,264167	0,1	11,510387
2,265833	0,1	11,440680
2,267500	0,1	11,426108
2,269167	0,1	11,402528
2,270833	0,1	11,374620
2,272500	0,1	11,358812
2,274167	0,1	11,335305
2,275833	0,1	11,266516
2,277500	0,1	11,299682
2,279167	0,1	11,239547
2,280833	0,1	11,226695
2,282500	0,1	11,186318
2,284167	0,1	11,167558
2,285833	0,1	11,149976
2,287500	0,1	11,101361
2,289167	0,1	11,080973
2,290833	0,1	11,043168
2,292500	0,1	11,033012
2,294167	0,1	11,057507
2,295833	0,1	10,989151
2,297500	0,1	10,957115
2,299167	0,1	10,948894
2,300833	0,1	10,926436
2,302500	0,1	10,878454
2,304167	0,1	10,833943
2,305833	0,1	10,855548
2,307500	0,1	10,784890
2,309167	0,1	10,772023
2,310833	0,1	10,716991
2,312500	0,1	10,710670
2,314167	0,1	10,640454
2,315833	0,1	10,679973
2,317500	0,1	10,615192
2,319167	0,1	10,623080
2,320833	0,1	10,572166
2,322500	0,1	10,576208
2,324167	0,1	10,535547
2,325833	0,1	10,500726
2,327500	0,1	10,498332
2,329167	0,1	10,418929
2,330833	0,1	10,429838
2,332500	0,1	10,417348
2,334167	0,1	10,415352
2,335833	0,1	10,347949
2,337500	0,1	10,347094
2,339167	0,1	10,364687
2,340833	0,1	10,280141
2,342500	0,1	10,276611
2,344167	0,1	10,272477
2,345833	0,1	10,262837
2,347500	0,1	10,271187
2,349167	0,1	10,209458
2,350833	0,1	10,186065
2,352500	0,1	10,173302
2,354167	0,1	10,152536
2,355833	0,1	10,183352
2,357500	0,1	10,121811
2,359167	0,1	10,119158
2,360833	0,1	10,112611
2,362500	0,1	10,095856
2,364167	0,1	10,118482
2,365833	0,1	10,079359
2,367500	0,1	10,076052
2,369167	0,1	10,115787
2,370833	0,1	10,080129
2,372500	0,1	10,121511
2,374167	0,1	10,095695
2,375833	0,1	10,143820
2,377500	0,1	10,114657
2,379167	0,1	10,181201
2,380833	0,1	10,160779
2,382500	0,1	10,115656
2,384167	0,1	10,213415
2,385833	0,1	10,222191
2,387500	0,1	10,290440
2,389167	0,1	10,284890
2,390833	0,1	10,330002
2,392500	0,1	10,442132
2,394167	0,1	10,491894
2,395833	0,1	10,538007
2,397500	0,1	10,608919
2,399167	0,1	10,702147
2,400833	0,1	10,795440
2,402500	0,1	10,885156
2,404167	0,1	10,968075
2,405833	0,1	11,097154
2,407500	0,1	11,234598
2,409167	0,1	11,384658
2,410833	0,1	11,505265
2,412500	0,1	11,655635
2,414167	0,1	11,853026
2,415833	0,1	11,958624
2,417500	0,1	12,176424
2,419167	0,1	12,370823
2,420833	0,1	12,592823
2,422500	0,1	12,832583
2,424167	0,1	12,995410
2,425833	0,1	13,263896
2,427500	0,1	13,492978
2,429167	0,1	13,719074
2,430833	0,1	13,992166
2,432500	0,1	14,193491
2,434167	0,1	14,490896
2,435833	0,1	14,734756
2,437500	0,1	15,007554
2,439167	0,1	15,270660
2,440833	0,1	15,511356
2,442500	0,1	15,814441
2,444167	0,1	16,067243
2,445833	0,1	16,376842
2,447500	0,1	16,690463
2,449167	0,1	16,930077
2,450833	0,1	17,224806
2,452500	0,1	17,501059
2,454167	0,1	17,761579
2,455833	0,1	17,994242
2,457500	0,1	18,316791
2,459167	0,1	18,575090
2,460833	0,1	18,798626
2,462500	0,1	19,053488
2,464167	0,1	19,378101
2,465833	0,1	19,606922
2,467500	0,1	19,876529
2,469167	0,1	20,204041
2,470833	0,1	20,476293
2,472500	0,1	20,757408
2,474167	0,1	21,091884
2,475833	0,1	21,415585
2,477500	0,1	21,757760
2,479167	0,1	22,095174
2,480833	0,1	22,524310
2,482500	0,1	22,922245
2,484167	0,1	23,310827
2,485833	0,1	23,802150
2,487500	0,1	24,263925
2,489167	0,1	24,811173
2,490833	0,1	25,413902
2,492500	0,1	26,049543
2,494167	0,1	26,696305
2,495833	0,1	27,454269
2,497500	0,1	28,225143
2,499167	0,1	29,093118
2,500833	0,1	30,021737
2,502500	0,1	31,004362
2,504167	0,1	32,033257
2,505833	0,1	33,182798
2,507500	0,1	34,392490
2,509167	0,1	35,617943
2,510833	0,1	37,027660
2,512500	0,1	38,492501
2,514167	0,1	40,043498
2,515833	0,1	41,656730
2,517500	0,1	43,391737
2,519167	0,1	45,179965
2,520833	0,1	47,074584
2,522500	0,1	49,079104
2,524167	0,1	51,159538
2,525833	0,1	53,318344
2,527500	0,1	55,564219
2,529167	0,1	57,885805
2,530833	0,1	60,274040
2,532500	0,1	62,743456
2,534167	0,1	65,257553
2,535833	0,1	67,882237
2,537500	0,1	70,531458
2,539167	0,1	73,238336
2,540833	0,1	75,973930
2,542500	0,1	78,800723
2,544167	0,1	81,632945
2,545833	0,1	84,476947
2,547500	0,1	87,354745
2,549167	0,1	90,211703
2,550833	0,1	93,144605
2,552500	0,1	95,991842
2,554167	0,1	98,888650
2,555833	0,1	101,720249
2,557500	0,1	104,508053
2,559167	0,1	107,338822
2,560833	0,1	110,057419
2,562500	0,1	112,759169
2,564167	0,1	115,429242
2,565833	0,1	118,019363
2,567500	0,1	120,488229
2,569167	0,1	122,939727
2,570833	0,1	125,304987
2,572500	0,1	127,593713
2,574167	0,1	129,799010
2,575833	0,1	131,809637
2,577500	0,1	133,840521
2,579167	0,1	135,781938
2,580833	0,1	137,579456
2,582500	0,1	139,244441
2,584167	0,1	140,891291
2,585833	0,1	142,343654
2,587500	0,1	143,780744
2,589167	0,1	145,142460
2,590833	0,1	146,319646
2,592500	0,1	147,369023
2,594167	0,1	148,362051
2,595833	0,1	149,296269
2,597500	0,1	150,068651
2,599167	0,1	150,777253
2,600833	0,1	151,365830
2,602500	0,1	151,859948
2,604167	0,1	152,292730
2,605833	0,1	152,573932
2,607500	0,1	152,759870
2,609167	0,1	152,899039
2,610833	0,1	152,943430
2,612500	0,1	152,916636
2,614167	0,1	152,744287
2,615833	0,1	152,628179
2,617500	0,1	152,326851
2,619167	0,1	151,962541
2,620833	0,1	151,472548
2,622500	0,1	150,992389
2,624167	0,1	150,426160
2,625833	0,1	149,800771
2,627500	0,1	149,126103
2,629167	0,1	148,362285
2,630833	0,1	147,502708
2,632500	0,1	146,588273
2,634167	0,1	145,622095
2,635833	0,1	144,702552
2,637500	0,1	143,622357
2,639167	0,1	142,538939
2,640833	0,1	141,359083
2,642500	0,1	140,127933
2,644167	0,1	138,970657
2,645833	0,1	137,676261
2,647500	0,1	136,330577
2,649167	0,1	135,014931
2,650833	0,1	133,609189
2,652500	0,1	132,133900
2,654167	0,1	130,682276
2,655833	0,1	129,171749
2,657500	0,1	127,666432
2,659167	0,1	126,133475
2,660833	0,1	124,575939
2,662500	0,1	122,960846
2,664167	0,1	121,357268
2,665833	0,1	119,775058
2,667500	0,1	118,101838
2,669167	0,1	116,466557
2,670833	0,1	114,764027
2,672500	0,1	113,093042
2,674167	0,1	111,426445
2,675833	0,1	109,706197
2,677500	0,1	108,044775
2,679167	0,1	106,282086
2,680833	0,1	104,613686
2,682500	0,1	102,915107
2,684167	0,1	101,249455
2,685833	0,1	99,547927
2,687500	0,1	97,832277
2,689167	0,1	96,183989
2,690833	0,1	94,499838
2,692500	0,1	92,797431
2,694167	0,1	91,210286
2,695833	0,1	89,569992
2,697500	0,1	87,959458
2,699167	0,1	86,328520
2,700833	0,1	84,769101
2,702500	0,1	83,187074
2,704167	0,1	81,690613
2,705833	0,1	80,138092
2,707500	0,1	78,638474
2,709167	0,1	77,131522
2,710833	0,1	75,631915
2,712500	0,1	74,217196
2,714167	0,1	72,754761
2,715833	0,1	71,357247
2,717500	0,1	70,008705
2,719167	0,1	68,644242
2,720833	0,1	67,354920
2,722500	0,1	66,014808
2,724167	0,1	64,728258
2,725833	0,1	63,494042
2,727500	0,1	62,247710
2,729167	0,1	61,010879
2,730833	0,1	59,829995
2,732500	0,1	58,696142
2,734167	0,1	57,576060
2,735833	0,1	56,436511
2,737500	0,1	55,340590
2,739167	0,1	54,262952
2,740833	0,1	53,258869
2,742500	0,1	52,257364
2,744167	0,1	51,197892
2,745833	0,1	50,207238
2,747500	0,1	49,257810
2,749167	0,1	48,376987
2,750833	0,1	47,450706
2,752500	0,1	46,583376
2,754167	0,1	45,679157
2,755833	0,1	44,866246
2,757500	0,1	43,989095
2,759167	0,1	43,197476
2,760833	0,1	42,385603
2,762500	0,1	41,616858
2,764167	0,1	40,842084
2,765833	0,1	40,114585
2,767500	0,1	39,415923
2,769167	0,1	38,702748
2,770833	0,1	37,962776
2,772500	0,1	37,323528
2,774167	0,1	36,685742
2,775833	0,1	35,993346
2,777500	0,1	35,364013
2,779167	0,1	34,750043
2,780833	0,1	34,122240
2,782500	0,1	33,592612
2,784167	0,1	32,985716
2,785833	0,1	32,398752
2,787500	0,1	31,829972
2,789167	0,1	31,313729
2,790833	0,1	30,768353
2,792500	0,1	30,264388
2,794167	0,1	29,689683
2,795833	0,1	29,181590
2,797500	0,1	28,719993
2,799167	0,1	28,216067
2,800833	0,1	27,770521
2,802500	0,1	27,301419
2,804167	0,1	26,830434
2,805833	0,1	26,379700
2,807500	0,1	25,925375
2,809167	0,1	25,519951
2,810833	0,1	25,096756
2,812500	0,1	24,684557
2,814167	0,1	24,256487
2,815833	0,1	23,920702
2,817500	0,1	23,469721
2,819167	0,1	23,104570
2,820833	0,1	22,735177
2,822500	0,1	22,377380
2,824167	0,1	22,040551
2,825833	0,1	21,653341
2,827500	0,1	21,300879
2,829167	0,1	20,945566
2,830833	0,1	20,660387
2,832500	0,1	20,322248
2,834167	0,1	19,976073
2,835833	0,1	19,688548
2,837500	0,1	19,405207
2,839167	0,1	19,103676
2,840833	0,1	18,801989
2,842500	0,1	18,548985
2,844167	0,1	18,216109
2,845833	0,1	17,954134
2,847500	0,1	17,683118
2,849167	0,1	17,398794
2,850833	0,1	17,153088
2,852500	0,1	16,904265
2,854167	0,1	16,655563
2,855833	0,1	16,425729
2,857500	0,1	16,179597
2,859167	0,1	15,960326
2,860833	0,1	15,725955
2,862500	0,1	15,531360
2,864167	0,1	15,328998
2,865833	0,1	15,084688
2,867500	0,1	14,872649
2,869167	0,1	14,712445
2,870833	0,1	14,508605
2,872500	0,1	14,318308
2,874167	0,1	14,086399
2,875833	0,1	13,931141
2,877500	0,1	13,782483
2,879167	0,1	13,578933
2,880833	0,1	13,417093
2,882500	0,1	13,241069
2,884167	0,1	13,097315
2,885833	0,1	12,915675
2,887500	0,1	12,751411
2,889167	0,1	12,646624
2,890833	0,1	12,505630
2,892500	0,1	12,305484
2,894167	0,1	12,219523
2,895833	0,1	12,054862
2,897500	0,1	11,990440
2,899167	0,1	11,827072
2,900833	0,1	11,681137
2,902500	0,1	11,547735
2,904167	0,1	11,424228
2,905833	0,1	11,310613
2,907500	0,1	11,183772
2,909167	0,1	11,105297
2,910833	0,1	10,963365
2,912500	0,1	10,829454
2,914167	0,1	10,765382
2,915833	0,1	10,633341
2,917500	0,1	10,505031
2,919167	0,1	10,419572
2,920833	0,1	10,325447
2,922500	0,1	10,181823
2,924167	0,1	10,097517
2,925833	0,1	9,985662
2,927500	0,1	9,896340
2,929167	0,1	9,843308
2,930833	0,1	9,722955
2,932500	0,1	9,661256
2,934167	0,1	9,575372
2,935833	0,1	9,506843
2,937500	0,1	9,407771
2,939167	0,1	9,379038
2,940833	0,1	9,266614
2,942500	0,1	9,178227
2,944167	0,1	9,086226
2,945833	0,1	9,043922
2,947500	0,1	8,956854
2,949167	0,1	8,912188
2,950833	0,1	8,810807
2,952500	0,1	8,710667
2,954167	0,1	8,714783
2,955833	0,1	8,613454
2,957500	0,1	8,502147
2,959167	0,1	8,436930
2,960833	0,1	8,393859
2,962500	0,1	8,322935
2,964167	0,1	8,258026
2,965833	0,1	8,196656
2,967500	0,1	8,156552
2,969167	0,1	8,101388
2,970833	0,1	8,037693
2,972500	0,1	7,949721
2,974167	0,1	7,937027
2,975833	0,1	7,844191
2,977500	0,1	7,842175
2,979167	0,1	7,764175
2,980833	0,1	7,724167
2,982500	0,1	7,652432
2,984167	0,1	7,632739
2,985833	0,1	7,543504
2,987500	0,1	7,485528
2,989167	0,1	7,464535
2,990833	0,1	7,423668
2,992500	0,1	7,366750
2,994167	0,1	7,305248
2,995833	0,1	7,273347
2,997500	0,1	7,224984
2,999167	0,1	7,203988
3,000833	0,1	7,114346
3,002500	0,1	7,073224
3,004167	0,1	7,019912
3,005833	0,1	6,997425
3,007500	0,1	6,990953
3,009167	0,1	6,909601
3,010833	0,1	6,866903
3,012500	0,1	6,843626
3,014167	0,1	6,755993
3,015833	0,1	6,702139
3,017500	0,1	6,675564
3,019167	0,1	6,647611
3,020833	0,1	6,612071
3,022500	0,1	6,614776
3,024167	0,1	6,552607
3,025833	0,1	6,505696
3,027500	0,1	6,477835
3,029167	0,1	6,414479
3,030833	0,1	6,440241
3,032500	0,1	6,377284
3,034167	0,1	6,369889
3,035833	0,1	6,309828
3,037500	0,1	6,264595
3,039167	0,1	6,243109
3,040833	0,1	6,196780
3,042500	0,1	6,188647
3,044167	0,1	6,125524
3,045833	0,1	6,132884
3,047500	0,1	6,049423
3,049167	0,1	6,040815
3,050833	0,1	5,961474
3,052500	0,1	5,968269
3,054167	0,1	5,933364
3,055833	0,1	5,876531
3,057500	0,1	5,858504
3,059167	0,1	5,803448
3,060833	0,1	5,807451
3,062500	0,1	5,766579
3,064167	0,1	5,720304
3,065833	0,1	5,686157
3,067500	0,1	5,677746
3,069167	0,1	5,623556
3,070833	0,1	5,630732
3,072500	0,1	5,580090
3,074167	0,1	5,555001
3,075833	0,1	5,480284
3,077500	0,1	5,512179
3,079167	0,1	5,468763
3,080833	0,1	5,438626
3,082500	0,1	5,428187
3,084167	0,1	5,347924
3,085833	0,1	5,314598
3,087500	0,1	5,316097
3,089167	0,1	5,299892
3,090833	0,1	5,270700
3,092500	0,1	5,264374
3,094167	0,1	5,216848
3,095833	0,1	5,198974
3,097500	0,1	5,155440
3,099167	0,1	5,188358
3,100833	0,1	5,186817
3,102500	0,1	5,095730
3,104167	0,1	5,117699
3,105833	0,1	5,078478
3,107500	0,1	5,106031
3,109167	0,1	5,060236
3,110833	0,1	5,058744
3,112500	0,1	5,039257
3,114167	0,1	5,022794
3,115833	0,1	5,002163
3,117500	0,1	4,986601
3,119167	0,1	4,980023
3,120833	0,1	4,963830
3,122500	0,1	4,971544
3,124167	0,1	4,976478
3,125833	0,1	4,962227
3,127500	0,1	4,907562
3,129167	0,1	4,937602
3,130833	0,1	4,920399
3,132500	0,1	4,919514
3,134167	0,1	4,915744
3,135833	0,1	4,871866
3,137500	0,1	4,908932
3,139167	0,1	4,906334
3,140833	0,1	4,881356
3,142500	0,1	4,865553
3,144167	0,1	4,846719
3,145833	0,1	4,851840
3,147500	0,1	4,852124
3,149167	0,1	4,850450
3,150833	0,1	4,841765
3,152500	0,1	4,814327
3,154167	0,1	4,857821
3,155833	0,1	4,818909
3,157500	0,1	4,833782
3,159167	0,1	4,853497
3,160833	0,1	4,844886
3,162500	0,1	4,833224
3,164167	0,1	4,841748
3,165833	0,1	4,844727
3,167500	0,1	4,787350
3,169167	0,1	4,788211
3,170833	0,1	4,770356
3,172500	0,1	4,780883
3,174167	0,1	4,775956
3,175833	0,1	4,819191
3,177500	0,1	4,802718
3,179167	0,1	4,727487
3,180833	0,1	4,702953
3,182500	0,1	4,732675
3,184167	0,1	4,744992
3,185833	0,1	4,691731
3,187500	0,1	4,682705
3,189167	0,1	4,706503
3,190833	0,1	4,675782
3,192500	0,1	4,646855
3,194167	0,1	4,664174
3,195833	0,1	4,643225
3,197500	0,1	4,616452
3,199167	0,1	4,558068
3,200833	0,1	4,571321
3,202500	0,1	4,530055
3,204167	0,1	4,539640
3,205833	0,1	4,519654
3,207500	0,1	4,519279
3,209167	0,1	4,452472
3,210833	0,1	4,489444
3,212500	0,1	4,441816
3,214167	0,1	4,408381
3,215833	0,1	4,464521
3,217500	0,1	4,412402
3,219167	0,1	4,391928
3,220833	0,1	4,332011
3,222500	0,1	4,380096
3,224167	0,1	4,320576
3,225833	0,1	4,299845
3,227500	0,1	4,268602
3,229167	0,1	4,263132
3,230833	0,1	4,222363
3,232500	0,1	4,182433
3,234167	0,1	4,184942
3,235833	0,1	4,148337
3,237500	0,1	4,150535
3,239167	0,1	4,062793
3,240833	0,1	4,098272
3,242500	0,1	4,108605
3,244167	0,1	4,000683
3,245833	0,1	4,000291
3,247500	0,1	3,962034
3,249167	0,1	3,987169
3,250833	0,1	3,944023
3,252500	0,1	3,917634
3,254167	0,1	3,879567
3,255833	0,1	3,897145
3,257500	0,1	3,803478
3,259167	0,1	3,804522
3,260833	0,1	3,775352
3,262500	0,1	3,810618
3,264167	0,1	3,692402
3,265833	0,1	3,695045
3,267500	0,1	3,668080
3,269167	0,1	3,685738
3,270833	0,1	3,619577
3,272500	0,1	3,619358
3,274167	0,1	3,606401
3,275833	0,1	3,540212
3,277500	0,1	3,562527
3,279167	0,1	3,522328
3,280833	0,1	3,492358
3,282500	0,1	3,451467
3,284167	0,1	3,433677
3,285833	0,1	3,404078
3,287500	0,1	3,383895
3,289167	0,1	3,433170
3,290833	0,1	3,302282
3,292500	0,1	3,293362
3,294167	0,1	3,311053
3,295833	0,1	3,291378
3,297500	0,1	3,226034
3,299167	0,1	3,218469
3,300833	0,1	3,202001
3,302500	0,1	3,200136
3,304167	0,1	3,165037
3,305833	0,1	3,110143
3,307500	0,1	3,134660
3,309167	0,1	3,112562
3,310833	0,1	3,086879
3,312500	0,1	3,056131
3,314167	0,1	3,057251
3,315833	0,1	3,058241
3,317500	0,1	2,990173
3,319167	0,1	3,000869
3,320833	0,1	2,954585
3,322500	0,1	2,970744
3,324167	0,1	2,946807
3,325833	0,1	2,935029
3,327500	0,1	2,931843
3,329167	0,1	2,885910
3,330833	0,1	2,841171
3,332500	0,1	2,822822
3,334167	0,1	2,886641
3,335833	0,1	2,846786
3,337500	0,1	2,812889
3,339167	0,1	2,797570
3,340833	0,1	2,786824
3,342500	0,1	2,721400
3,344167	0,1	2,750310
3,345833	0,1	2,747409
3,347500	0,1	2,744944
3,349167	0,1	2,724789
3,350833	0,1	2,729475
3,352500	0,1	2,701000
3,354167	0,1	2,682449
3,355833	0,1	2,643722
3,357500	0,1	2,681269
3,359167	0,1	2,721997
3,360833	0,1	2,623271
3,362500	0,1	2,658050
3,364167	0,1	2,608291
3,365833	0,1	2,627910
3,367500	0,1	2,637771
3,369167	0,1	2,606394
3,370833	0,1	2,562716
3,372500	0,1	2,617009
3,374167	0,1	2,558547
3,375833	0,1	2,574634
3,377500	0,1	2,579513
3,379167	0,1	2,537617
3,380833	0,1	2,570715
3,382500	0,1	2,522053
3,384167	0,1	2,520174
3,385833	0,1	2,559797
3,387500	0,1	2,505953
3,389167	0,1	2,522663
3,390833	0,1	2,484658
3,392500	0,1	2,476739
3,394167	0,1	2,482446
3,395833	0,1	2,447189
3,397500	0,1	2,488272
3,399167	0,1	2,454781
3,400833	0,1	2,492425
3,402500	0,1	2,460779
3,404167	0,1	2,444724
3,405833	0,1	2,447929
3,407500	0,1	2,432947
3,409167	0,1	2,460215
3,410833	0,1	2,461188
3,412500	0,1	2,432148
3,414167	0,1	2,423948
3,415833	0,1	2,439499
3,417500	0,1	2,420588
3,419167	0,1	2,446056
3,420833	0,1	2,440963
3,422500	0,1	2,433647
3,424167	0,1	2,405363
3,425833	0,1	2,443107
3,427500	0,1	2,408244
3,429167	0,1	2,405490
3,430833	0,1	2,395769
3,432500	0,1	2,400797
3,434167	0,1	2,391880
3,435833	0,1	2,423607
3,437500	0,1	2,400671
3,439167	0,1	2,425884
3,440833	0,1	2,423144
3,442500	0,1	2,400232
3,444167	0,1	2,406784
3,445833	0,1	2,414561
3,447500	0,1	2,445459
3,449167	0,1	2,412056
3,450833	0,1	2,456399
3,452500	0,1	2,453618
3,454167	0,1	2,446765
3,455833	0,1	2,454673
3,457500	0,1	2,493120
3,459167	0,1	2,460779
3,460833	0,1	2,471264
3,462500	0,1	2,506705
3,464167	0,1	2,499305
3,465833	0,1	2,504483
3,467500	0,1	2,515194
3,469167	0,1	2,508999
3,470833	0,1	2,543845
3,472500	0,1	2,536074
3,474167	0,1	2,551785
3,475833	0,1	2,615579
3,477500	0,1	2,610407
3,479167	0,1	2,594044
3,480833	0,1	2,597723
3,482500	0,1	2,613594
3,484167	0,1	2,630610
3,485833	0,1	2,696073
3,487500	0,1	2,697386
3,489167	0,1	2,692071
3,490833	0,1	2,697906
3,492500	0,1	2,729809
3,494167	0,1	2,723361
3,495833	0,1	2,752334
3,497500	0,1	2,792415
3,499167	0,1	2,780652
3,500833	0,1	2,826592
3,502500	0,1	2,816018
3,504167	0,1	2,820744
3,505833	0,1	2,848763
3,507500	0,1	2,878580
3,509167	0,1	2,875548
3,510833	0,1	2,918679
3,512500	0,1	2,889055
3,514167	0,1	2,892891
3,515833	0,1	2,924586
3,517500	0,1	2,940274
3,519167	0,1	2,942258
3,520833	0,1	2,971314
3,522500	0,1	2,984532
3,524167	0,1	3,022122
3,525833	0,1	3,000329
3,527500	0,1	2,983750
3,529167	0,1	3,004589
3,530833	0,1	3,006462
3,532500	0,1	3,031646
3,534167	0,1	3,031127
3,535833	0,1	3,021393
3,537500	0,1	3,086983
3,539167	0,1	3,016864
3,540833	0,1	3,053438
3,542500	0,1	3,016378
3,544167	0,1	3,064619
3,545833	0,1	3,081845
3,547500	0,1	3,053330
3,549167	0,1	3,075023
3,550833	0,1	3,095762
3,552500	0,1	3,079213
3,554167	0,1	3,049345
3,555833	0,1	3,053732
3,557500	0,1	3,035595
3,559167	0,1	3,065240
3,560833	0,1	3,050353
3,562500	0,1	3,007188
3,564167	0,1	3,052696
3,565833	0,1	3,026669
3,567500	0,1	3,044276
3,569167	0,1	3,041389
3,570833	0,1	3,046545
3,572500	0,1	3,023060
3,574167	0,1	3,060089
3,575833	0,1	3,003847
3,577500	0,1	3,027876
3,579167	0,1	3,037253
3,580833	0,1	2,996749
3,582500	0,1	2,957305
3,584167	0,1	2,966427
3,585833	0,1	2,981384
3,587500	0,1	2,964121
3,589167	0,1	2,973200
3,590833	0,1	2,926189
3,592500	0,1	2,962572
3,594167	0,1	2,899791
3,595833	0,1	2,915600
3,597500	0,1	2,882676
3,599167	0,1	2,884330
3,600833	0,1	2,898238
3,602500	0,1	2,863210
3,604167	0,1	2,840674
3,605833	0,1	2,836475
3,607500	0,1	2,829024
3,609167	0,1	2,840443
3,610833	0,1	2,802479
3,612500	0,1	2,795905
3,614167	0,1	2,776006
3,615833	0,1	2,748820
3,617500	0,1	2,778303
3,619167	0,1	2,753304
3,620833	0,1	2,710889
3,622500	0,1	2,643859
3,624167	0,1	2,665835
3,625833	0,1	2,678993
3,627500	0,1	2,695538
3,629167	0,1	2,645748
3,630833	0,1	2,649782
3,632500	0,1	2,614021
3,634167	0,1	2,635408
3,635833	0,1	2,612851
3,637500	0,1	2,542989
3,639167	0,1	2,581504
3,640833	0,1	2,551589
3,642500	0,1	2,536131
3,644167	0,1	2,540814
3,645833	0,1	2,534261
3,647500	0,1	2,484142
3,649167	0,1	2,509146
3,650833	0,1	2,469461
3,652500	0,1	2,478997
3,654167	0,1	2,480472
3,655833	0,1	2,418204
3,657500	0,1	2,385007
3,659167	0,1	2,381057
3,660833	0,1	2,403429
3,662500	0,1	2,387805
3,664167	0,1	2,394392
3,665833	0,1	2,350869
3,667500	0,1	2,352266
3,669167	0,1	2,354878
3,670833	0,1	2,309736
3,672500	0,1	2,301245
3,674167	0,1	2,244730
3,675833	0,1	2,301608
3,677500	0,1	2,271996
3,679167	0,1	2,199037
3,680833	0,1	2,259262
3,682500	0,1	2,194140
3,684167	0,1	2,219425
3,685833	0,1	2,208916
3,687500	0,1	2,234839
3,689167	0,1	2,223169
3,690833	0,1	2,164395
3,692500	0,1	2,207512
3,694167	0,1	2,160926
3,695833	0,1	2,152976
3,697500	0,1	2,154724
3,699167	0,1	2,141484
3,700833	0,1	2,125324
3,702500	0,1	2,110907
3,704167	0,1	2,087893
3,705833	0,1	2,076924
3,707500	0,1	2,073489
3,709167	0,1	2,013122
3,710833	0,1	2,064333
3,712500	0,1	2,026791
3,714167	0,1	2,070147
3,715833	0,1	2,080518
3,717500	0,1	2,030876
3,719167	0,1	2,034524
3,720833	0,1	2,011940
3,722500	0,1	2,010277
3,724167	0,1	2,020125
3,725833	0,1	1,968017
3,727500	0,1	1,980610
3,729167	0,1	1,986814
3,730833	0,1	1,965827
3,732500	0,1	1,952093
3,734167	0,1	1,941160
3,735833	0,1	1,921216
3,737500	0,1	1,927260
3,739167	0,1	1,926601
3,740833	0,1	1,958108
3,742500	0,1	1,908299
3,744167	0,1	1,892878
3,745833	0,1	1,935455
3,747500	0,1	1,888564
3,749167	0,1	1,915676
3,750833	0,1	1,875639
3,752500	0,1	1,893826
3,754167	0,1	1,863983
3,755833	0,1	1,855912
3,757500	0,1	1,900856
3,759167	0,1	1,875275
3,760833	0,1	1,882450
3,762500	0,1	1,890293
3,764167	0,1	1,869510
3,765833	0,1	1,855765
3,767500	0,1	1,849577
3,769167	0,1	1,840727
3,770833	0,1	1,857275
3,772500	0,1	1,853461
3,774167	0,1	1,859560
3,775833	0,1	1,856548
3,777500	0,1	1,850934
3,779167	0,1	1,854277
3,780833	0,1	1,829664
3,782500	0,1	1,834049
3,784167	0,1	1,842401
3,785833	0,1	1,835984
3,787500	0,1	1,870907
3,789167	0,1	1,861156
3,790833	0,1	1,834270
3,792500	0,1	1,841308
3,794167	0,1	1,801336
3,795833	0,1	1,832738
3,797500	0,1	1,825414
3,799167	0,1	1,836754
3,800833	0,1	1,828205
3,802500	0,1	1,825998
3,804167	0,1	1,800186
3,805833	0,1	1,814895
3,807500	0,1	1,813835
3,809167	0,1	1,809647
3,810833	0,1	1,818578
3,812500	0,1	1,804777
3,814167	0,1	1,806207
3,815833	0,1	1,769831
3,817500	0,1	1,782755
3,819167	0,1	1,808004
3,820833	0,1	1,791388
3,822500	0,1	1,789018
3,824167	0,1	1,774145
3,825833	0,1	1,814686
3,827500	0,1	1,787433
3,829167	0,1	1,787001
3,830833	0,1	1,763707
3,832500	0,1	1,767362
3,834167	0,1	1,813168
3,835833	0,1	1,793415
3,837500	0,1	1,753515
3,839167	0,1	1,785477
3,840833	0,1	1,770243
3,842500	0,1	1,811142
3,844167	0,1	1,758473
3,845833	0,1	1,772751
3,847500	0,1	1,771128
3,849167	0,1	1,796769
3,850833	0,1	1,734530
3,852500	0,1	1,758518
3,854167	0,1	1,735028
3,855833	0,1	1,756152
3,857500	0,1	1,758830
3,859167	0,1	1,746379
3,860833	0,1	1,759031
3,862500	0,1	1,723318
3,864167	0,1	1,762020
3,865833	0,1	1,742582
3,867500	0,1	1,662418
3,869167	0,1	1,735061
3,870833	0,1	1,716333
3,872500	0,1	1,707985
3,874167	0,1	1,740240
3,875833	0,1	1,697213
3,877500	0,1	1,721566
3,879167	0,1	1,721499
3,880833	0,1	1,702737
3,882500	0,1	1,669680
3,884167	0,1	1,709110
3,885833	0,1	1,698926
3,887500	0,1	1,711862
3,889167	0,1	1,697181
3,890833	0,1	1,685033
3,892500	0,1	1,702859
3,894167	0,1	1,668289
3,895833	0,1	1,692437
3,897500	0,1	1,671236
3,899167	0,1	1,677853
3,900833	0,1	1,658242
3,902500	0,1	1,643279
3,904167	0,1	1,687191
3,905833	0,1	1,623454
3,907500	0,1	1,630480
3,909167	0,1	1,641471
3,910833	0,1	1,606698
3,912500	0,1	1,591965
3,914167	0,1	1,623284
3,915833	0,1	1,661663
3,917500	0,1	1,610658
3,919167	0,1	1,604591
3,920833	0,1	1,634990
3,922500	0,1	1,617766
3,924167	0,1	1,620902
3,925833	0,1	1,577434
3,927500	0,1	1,631741
3,929167	0,1	1,606183
3,930833	0,1	1,596334
3,932500	0,1	1,551131
3,934167	0,1	1,552768
3,935833	0,1	1,513827
3,937500	0,1	1,547873
3,939167	0,1	1,576985
3,940833	0,1	1,599702
3,942500	0,1	1,545593
3,944167	0,1	1,566794
3,945833	0,1	1,540056
3,947500	0,1	1,523664
3,949167	0,1	1,558797
3,950833	0,1	1,519002
3,952500	0,1	1,523947
3,954167	0,1	1,536527
3,955833	0,1	1,537171
3,957500	0,1	1,492265
3,959167	0,1	1,514745
3,960833	0,1	1,548159
3,962500	0,1	1,539614
3,964167	0,1	1,511948
3,965833	0,1	1,497864
3,967500	0,1	1,499946
3,969167	0,1	1,509072
3,970833	0,1	1,482559
3,972500	0,1	1,500807
3,974167	0,1	1,471783
3,975833	0,1	1,482768
3,977500	0,1	1,470698
3,979167	0,1	1,442180
3,980833	0,1	1,501508
3,982500	0,1	1,468979
3,984167	0,1	1,498360
3,985833	0,1	1,481840
3,987500	0,1	1,457483
3,989167	0,1	1,451293
3,990833	0,1	1,469047
3,992500	0,1	1,495404
3,994167	0,1	1,438518
3,995833	0,1	1,442889
3,997500	0,1	1,473639
3,999167	0,1	1,453461
4,000833	0,1	1,460854
4,002500	0,1	1,461784
4,004167	0,1	1,473999
4,005833	0,1	1,427882
4,007500	0,1	1,462931
4,009167	0,1	1,445187
4,010833	0,1	1,463582
4,012500	0,1	1,416243
4,014167	0,1	1,435627
4,015833	0,1	1,448417
4,017500	0,1	1,459197
4,019167	0,1	1,489655
4,020833	0,1	1,440957
4,022500	0,1	1,413579
4,024167	0,1	1,459549
4,025833	0,1	1,467249
4,027500	0,1	1,515312
4,029167	0,1	1,463170
4,030833	0,1	1,487511
4,032500	0,1	1,419697
4,034167	0,1	1,504663
4,035833	0,1	1,446567
4,037500	0,1	1,467527
4,039167	0,1	1,480254
4,040833	0,1	1,461861
4,042500	0,1	1,456970
4,044167	0,1	1,499717
4,045833	0,1	1,509998
4,047500	0,1	1,480614
4,049167	0,1	1,550891
4,050833	0,1	1,539548
4,052500	0,1	1,506422
4,054167	0,1	1,541471
4,055833	0,1	1,487961
4,057500	0,1	1,506698
4,059167	0,1	1,553623
4,060833	0,1	1,551830
4,062500	0,1	1,570299
4,064167	0,1	1,551698
4,065833	0,1	1,576197
4,067500	0,1	1,585246
4,069167	0,1	1,603219
4,070833	0,1	1,599135
4,072500	0,1	1,572408
4,074167	0,1	1,604453
4,075833	0,1	1,611930
4,077500	0,1	1,590521
4,079167	0,1	1,606972
4,080833	0,1	1,659930
4,082500	0,1	1,669572
4,084167	0,1	1,688049
4,085833	0,1	1,709483
4,087500	0,1	1,685692
4,089167	0,1	1,715872
4,090833	0,1	1,711588
4,092500	0,1	1,780310
4,094167	0,1	1,759971
4,095833	0,1	1,749199
4,097500	0,1	1,769947
4,099167	0,1	1,793320
4,100833	0,1	1,813545
4,102500	0,1	1,846533
4,104167	0,1	1,840716
4,105833	0,1	1,871617
4,107500	0,1	1,860147
4,109167	0,1	1,900993
4,110833	0,1	1,871328
4,112500	0,1	1,944090
4,114167	0,1	1,968754
4,115833	0,1	1,960543
4,117500	0,1	1,990148
4,119167	0,1	1,960140
4,120833	0,1	1,998280
4,122500	0,1	2,015031
4,124167	0,1	2,060432
4,125833	0,1	2,060367
4,127500	0,1	2,100017
4,129167	0,1	2,099724
4,130833	0,1	2,106562
4,132500	0,1	2,088869
4,134167	0,1	2,152765
4,135833	0,1	2,148096
4,137500	0,1	2,148246
4,139167	0,1	2,217547
4,140833	0,1	2,189390
4,142500	0,1	2,218565
4,144167	0,1	2,199848
4,145833	0,1	2,271113
4,147500	0,1	2,238398
4,149167	0,1	2,311554
4,150833	0,1	2,260871
4,152500	0,1	2,355025
4,154167	0,1	2,319014
4,155833	0,1	2,387489
4,157500	0,1	2,355097
4,159167	0,1	2,361128
4,160833	0,1	2,423425
4,162500	0,1	2,435170
4,164167	0,1	2,427496
4,165833	0,1	2,409095
4,167500	0,1	2,456454
4,169167	0,1	2,426830
4,170833	0,1	2,478802
4,172500	0,1	2,455560
4,174167	0,1	2,497240
4,175833	0,1	2,518717
4,177500	0,1	2,490907
4,179167	0,1	2,532637
4,180833	0,1	2,527568
4,182500	0,1	2,519111
4,184167	0,1	2,567885
4,185833	0,1	2,571061
4,187500	0,1	2,567428
4,189167	0,1	2,584127
4,190833	0,1	2,628553
4,192500	0,1	2,620706
4,194167	0,1	2,649333
4,195833	0,1	2,617858
4,197500	0,1	2,632114
4,199167	0,1	2,595865
4,200833	0,1	2,659184
4,202500	0,1	2,626264
4,204167	0,1	2,647287
4,205833	0,1	2,655642
4,207500	0,1	2,689415
4,209167	0,1	2,659312
4,210833	0,1	2,648229
4,212500	0,1	2,690294
4,214167	0,1	2,703767
4,215833	0,1	2,659912
4,217500	0,1	2,660782
4,219167	0,1	2,705288
4,220833	0,1	2,666835
4,222500	0,1	2,645223
4,224167	0,1	2,718873
4,225833	0,1	2,695029
4,227500	0,1	2,689292
4,229167	0,1	2,685166
4,230833	0,1	2,655939
4,232500	0,1	2,680077
4,234167	0,1	2,663381
4,235833	0,1	2,678548
4,237500	0,1	2,666076
4,239167	0,1	2,705704
4,240833	0,1	2,666863
4,242500	0,1	2,674010
4,244167	0,1	2,689237
4,245833	0,1	2,618154
4,247500	0,1	2,619329
4,249167	0,1	2,628018
4,250833	0,1	2,600453
4,252500	0,1	2,575684
4,254167	0,1	2,588434
4,255833	0,1	2,593053
4,257500	0,1	2,626741
4,259167	0,1	2,606314
4,260833	0,1	2,597804
4,262500	0,1	2,624641
4,264167	0,1	2,603980
4,265833	0,1	2,571069
4,267500	0,1	2,587008
4,269167	0,1	2,532844
4,270833	0,1	2,549506
4,272500	0,1	2,525782
4,274167	0,1	2,561484
4,275833	0,1	2,519874
4,277500	0,1	2,460446
4,279167	0,1	2,485893
4,280833	0,1	2,477674
4,282500	0,1	2,473944
4,284167	0,1	2,447604
4,285833	0,1	2,430926
4,287500	0,1	2,417444
4,289167	0,1	2,455114
4,290833	0,1	2,460462
4,292500	0,1	2,411785
4,294167	0,1	2,401930
4,295833	0,1	2,398875
4,297500	0,1	2,411583
4,299167	0,1	2,362000
4,300833	0,1	2,324256
4,302500	0,1	2,353632
4,304167	0,1	2,310154
4,305833	0,1	2,271884
4,307500	0,1	2,342731
4,309167	0,1	2,360818
4,310833	0,1	2,253585
4,312500	0,1	2,328459
4,314167	0,1	2,261295
4,315833	0,1	2,263468
4,317500	0,1	2,211306
4,319167	0,1	2,215123
4,320833	0,1	2,204837
4,322500	0,1	2,219543
4,324167	0,1	2,144378
4,325833	0,1	2,208727
4,327500	0,1	2,150473
4,329167	0,1	2,153924
4,330833	0,1	2,153504
4,332500	0,1	2,107464
4,334167	0,1	2,121095
4,335833	0,1	2,112849
4,337500	0,1	2,101083
4,339167	0,1	2,085766
4,340833	0,1	2,076636
4,342500	0,1	2,078577
4,344167	0,1	2,073037
4,345833	0,1	2,041806
4,347500	0,1	2,029844
4,349167	0,1	1,997649
4,350833	0,1	2,004237
4,352500	0,1	2,021840
4,354167	0,1	1,958988
4,355833	0,1	1,964526
4,357500	0,1	1,914150
4,359167	0,1	1,927756
4,360833	0,1	1,929862
4,362500	0,1	1,895981
4,364167	0,1	1,897331
4,365833	0,1	1,892588
4,367500	0,1	1,907399
4,369167	0,1	1,868592
4,370833	0,1	1,889545
4,372500	0,1	1,864681
4,374167	0,1	1,850948
4,375833	0,1	1,852376
4,377500	0,1	1,872451
4,379167	0,1	1,797395
4,380833	0,1	1,843727
4,382500	0,1	1,792414
4,384167	0,1	1,738770
4,385833	0,1	1,808705
4,387500	0,1	1,745171
4,389167	0,1	1,777784
4,390833	0,1	1,725116
4,392500	0,1	1,746926
4,394167	0,1	1,720931
4,395833	0,1	1,703022
4,397500	0,1	1,677419
4,399167	0,1	1,722044
4,400833	0,1	1,691591
4,402500	0,1	1,681528
4,404167	0,1	1,690000
4,405833	0,1	1,661179
4,407500	0,1	1,622573
4,409167	0,1	1,622131
4,410833	0,1	1,619636
4,412500	0,1	1,608121
4,414167	0,1	1,602448
4,415833	0,1	1,577645
4,417500	0,1	1,588565
4,419167	0,1	1,536397
4,420833	0,1	1,601418
4,422500	0,1	1,558308
4,424167	0,1	1,518856
4,425833	0,1	1,545789
4,427500	0,1	1,517344
4,429167	0,1	1,501605
4,430833	0,1	1,494132
4,432500	0,1	1,511794
4,434167	0,1	1,518417
4,435833	0,1	1,458499
4,437500	0,1	1,453743
4,439167	0,1	1,462937
4,440833	0,1	1,464220
4,442500	0,1	1,418399
4,444167	0,1	1,416732
4,445833	0,1	1,416949
4,447500	0,1	1,420540
4,449167	0,1	1,433895
4,450833	0,1	1,415150
4,452500	0,1	1,378086
4,454167	0,1	1,408242
4,455833	0,1	1,377507
4,457500	0,1	1,380230
4,459167	0,1	1,347046
4,460833	0,1	1,352786
4,462500	0,1	1,352926
4,464167	0,1	1,287717
4,465833	0,1	1,282389
4,467500	0,1	1,323968
4,469167	0,1	1,328287
4,470833	0,1	1,280099
4,472500	0,1	1,294881
4,474167	0,1	1,283037
4,475833	0,1	1,272477
4,477500	0,1	1,300554
4,479167	0,1	1,276072
4,480833	0,1	1,238654
4,482500	0,1	1,224497
4,484167	0,1	1,268010
4,485833	0,1	1,240231
4,487500	0,1	1,201951
4,489167	0,1	1,187011
4,490833	0,1	1,206751
4,492500	0,1	1,176456
4,494167	0,1	1,180829
4,495833	0,1	1,180684
4,497500	0,1	1,187798
4,499167	0,1	1,205458
4,500833	0,1	1,160088
4,502500	0,1	1,154841
4,504167	0,1	1,163663
4,505833	0,1	1,137748
4,507500	0,1	1,145425
4,509167	0,1	1,145498
4,510833	0,1	1,138898
4,512500	0,1	1,107453
4,514167	0,1	1,128546
4,515833	0,1	1,123531
4,517500	0,1	1,072779
4,519167	0,1	1,093792
4,520833	0,1	1,064728
4,522500	0,1	1,039307
4,524167	0,1	1,072614
4,525833	0,1	1,067525
4,527500	0,1	1,028901
4,529167	0,1	1,049572
4,530833	0,1	1,025304
4,532500	0,1	1,025455
4,534167	0,1	1,051798
4,535833	0,1	1,030845
4,537500	0,1	1,000693
4,539167	0,1	1,009648
4,540833	0,1	1,011093
4,542500	0,1	1,013250
4,544167	0,1	1,024013
4,545833	0,1	0,982607
4,547500	0,1	1,010013
4,549167	0,1	0,973991
4,550833	0,1	0,997093
4,552500	0,1	0,996175
4,554167	0,1	0,953756
4,555833	0,1	0,950732
4,557500	0,1	0,958841
4,559167	0,1	0,896123
4,560833	0,1	0,943398
4,562500	0,1	0,938249
4,564167	0,1	0,936802
4,565833	0,1	0,947793
4,567500	0,1	0,978368
4,569167	0,1	0,888162
4,570833	0,1	0,910026
4,572500	0,1	0,880178
4,574167	0,1	0,886488
4,575833	0,1	0,899904
4,577500	0,1	0,905094
4,579167	0,1	0,856574
4,580833	0,1	0,851108
4,582500	0,1	0,875077
4,584167	0,1	0,899837
4,585833	0,1	0,876667
4,587500	0,1	0,883267
4,589167	0,1	0,859798
4,590833	0,1	0,847095
4,592500	0,1	0,860155
4,594167	0,1	0,858508
4,595833	0,1	0,861542
4,597500	0,1	0,875010
4,599167	0,1	0,841803
4,600833	0,1	0,814469
4,602500	0,1	0,798731
4,604167	0,1	0,809922
4,605833	0,1	0,804558
4,607500	0,1	0,767662
4,609167	0,1	0,796426
4,610833	0,1	0,761054
4,612500	0,1	0,810837
4,614167	0,1	0,767881
4,615833	0,1	0,802523
4,617500	0,1	0,792510
4,619167	0,1	0,749294
4,620833	0,1	0,774054
4,622500	0,1	0,782801
4,624167	0,1	0,783109
4,625833	0,1	0,788404
4,627500	0,1	0,794224
4,629167	0,1	0,720119
4,630833	0,1	0,785092
4,632500	0,1	0,728427
4,634167	0,1	0,761625
4,635833	0,1	0,709287
4,637500	0,1	0,765433
4,639167	0,1	0,753609
4,640833	0,1	0,735740
4,642500	0,1	0,678507
4,644167	0,1	0,767362
4,645833	0,1	0,721335
4,647500	0,1	0,698294
4,649167	0,1	0,687027
4,650833	0,1	0,745714
4,652500	0,1	0,694853
4,654167	0,1	0,684664
4,655833	0,1	0,716220
4,657500	0,1	0,716813
4,659167	0,1	0,675552
4,660833	0,1	0,712216
4,662500	0,1	0,713783
4,664167	0,1	0,721482
4,665833	0,1	0,688912
4,667500	0,1	0,672525
4,669167	0,1	0,696495
4,670833	0,1	0,714586
4,672500	0,1	0,701391
4,674167	0,1	0,701240
4,675833	0,1	0,679226
4,677500	0,1	0,679866
4,679167	0,1	0,649232
4,680833	0,1	0,665163
4,682500	0,1	0,620681
4,684167	0,1	0,622620
4,685833	0,1	0,680139
4,687500	0,1	0,644933
4,689167	0,1	0,666650
4,690833	0,1	0,647662
4,692500	0,1	0,641353
4,694167	0,1	0,635475
4,695833	0,1	0,621815
4,697500	0,1	0,623679
4,699167	0,1	0,648377
4,700833	0,1	0,662433
4,702500	0,1	0,656984
4,704167	0,1	0,624808
4,705833	0,1	0,601738
4,707500	0,1	0,600893
4,709167	0,1	0,645203
4,710833	0,1	0,606123
4,712500	0,1	0,613086
4,714167	0,1	0,601598
4,715833	0,1	0,610217
4,717500	0,1	0,581757
4,719167	0,1	0,568378
4,720833	0,1	0,604688
4,722500	0,1	0,577801
4,724167	0,1	0,619232
4,725833	0,1	0,600335
4,727500	0,1	0,613951
4,729167	0,1	0,624486
4,730833	0,1	0,612528
4,732500	0,1	0,602915
4,734167	0,1	0,583841
4,735833	0,1	0,584951
4,737500	0,1	0,580610
4,739167	0,1	0,597799
4,740833	0,1	0,616437
4,742500	0,1	0,551856
4,744167	0,1	0,566064
4,745833	0,1	0,568826
4,747500	0,1	0,552409
4,749167	0,1	0,561217
4,750833	0,1	0,555714
4,752500	0,1	0,553628
4,754167	0,1	0,571542
4,755833	0,1	0,563104
4,757500	0,1	0,565764
4,759167	0,1	0,555332
4,760833	0,1	0,541147
4,762500	0,1	0,554269
4,764167	0,1	0,558515
4,765833	0,1	0,559379
4,767500	0,1	0,549907
4,769167	0,1	0,557429
4,770833	0,1	0,588484
4,772500	0,1	0,526125
4,774167	0,1	0,552274
4,775833	0,1	0,515286
4,777500	0,1	0,568596
4,779167	0,1	0,551571
4,780833	0,1	0,559680
4,782500	0,1	0,520364
4,784167	0,1	0,533412
4,785833	0,1	0,567556
4,787500	0,1	0,557034
4,789167	0,1	0,520804
4,790833	0,1	0,497115
4,792500	0,1	0,524289
4,794167	0,1	0,537723
4,795833	0,1	0,565677
4,797500	0,1	0,562950
4,799167	0,1	0,570789
4,800833	0,1	0,559672
4,802500	0,1	0,539583
4,804167	0,1	0,502448
4,805833	0,1	0,489437
4,807500	0,1	0,516903
4,809167	0,1	0,506450
4,810833	0,1	0,527586
4,812500	0,1	0,520578
4,814167	0,1	0,519960
4,815833	0,1	0,515496
4,817500	0,1	0,543992
4,819167	0,1	0,547366
4,820833	0,1	0,507542
4,822500	0,1	0,511183
4,824167	0,1	0,518554
4,825833	0,1	0,486161
4,827500	0,1	0,474745
4,829167	0,1	0,498258
4,830833	0,1	0,563897
4,832500	0,1	0,473695
4,834167	0,1	0,493687
4,835833	0,1	0,516015
4,837500	0,1	0,513560
4,839167	0,1	0,530389
4,840833	0,1	0,500578
4,842500	0,1	0,484746
4,844167	0,1	0,512233
4,845833	0,1	0,511913
4,847500	0,1	0,486889
4,849167	0,1	0,477121
4,850833	0,1	0,495032
4,852500	0,1	0,505154
4,854167	0,1	0,479061
4,855833	0,1	0,517696
4,857500	0,1	0,479999
4,859167	0,1	0,497833
4,860833	0,1	0,484524
4,862500	0,1	0,516051
4,864167	0,1	0,489030
4,865833	0,1	0,442849
4,867500	0,1	0,478350
4,869167	0,1	0,529612
4,870833	0,1	0,467881
4,872500	0,1	0,504585
4,874167	0,1	0,505597
4,875833	0,1	0,499804
4,877500	0,1	0,470318
4,879167	0,1	0,488511
4,880833	0,1	0,462642
4,882500	0,1	0,485314
4,884167	0,1	0,501008
4,885833	0,1	0,479555
4,887500	0,1	0,490258
4,889167	0,1	0,518920
4,890833	0,1	0,501016
4,892500	0,1	0,498431
4,894167	0,1	0,502066
4,895833	0,1	0,457058
4,897500	0,1	0,499779
4,899167	0,1	0,507681
4,900833	0,1	0,455974
4,902500	0,1	0,468372
4,904167	0,1	0,456710
4,905833	0,1	0,505432
4,907500	0,1	0,480488
4,909167	0,1	0,470921
4,910833	0,1	0,486439
4,912500	0,1	0,504042
4,914167	0,1	0,461833
4,915833	0,1	0,494428
4,917500	0,1	0,429455
4,919167	0,1	0,496188
4,920833	0,1	0,482878
4,922500	0,1	0,457935
4,924167	0,1	0,497198
4,925833	0,1	0,450760
4,927500	0,1	0,501136
4,929167	0,1	0,441781
4,930833	0,1	0,505732
4,932500	0,1	0,487076
4,934167	0,1	0,497236
4,935833	0,1	0,477854
4,937500	0,1	0,490121
4,939167	0,1	0,485577
4,940833	0,1	0,463150
4,942500	0,1	0,485806
4,944167	0,1	0,473722
4,945833	0,1	0,462281
4,947500	0,1	0,491120
4,949167	0,1	0,474846
4,950833	0,1	0,446050
4,952500	0,1	0,512953
4,954167	0,1	0,498775
4,955833	0,1	0,457179
4,957500	0,1	0,480439
4,959167	0,1	0,504134
4,960833	0,1	0,488260
4,962500	0,1	0,465441
4,964167	0,1	0,470241
4,965833	0,1	0,495501
4,967500	0,1	0,477632
4,969167	0,1	0,499344
4,970833	0,1	0,482029
4,972500	0,1	0,450247
4,974167	0,1	0,481713
4,975833	0,1	0,482145
4,977500	0,1	0,483148
4,979167	0,1	0,471263
4,980833	0,1	0,519675
4,982500	0,1	0,480372
4,984167	0,1	0,464166
4,985833	0,1	0,462719
4,987500	0,1	0,520220
4,989167	0,1	0,502897
4,990833	0,1	0,462151
4,992500	0,1	0,490390
4,994167	0,1	0,463711
4,995833	0,1	0,455114
4,997500	0,1	0,513985
4,999167	0,1	0,496414
5,000833	0,1	0,454377
5,002500	0,1	0,519641
5,004167	0,1	0,493258
5,005833	0,1	0,487803
5,007500	0,1	0,467294
5,009167	0,1	0,496047
5,010833	0,1	0,449301
5,012500	0,1	0,498265
5,014167	0,1	0,507296
5,015833	0,1	0,523222
5,017500	0,1	0,520714
5,019167	0,1	0,539590
5,020833	0,1	0,502871
5,022500	0,1	0,520807
5,024167	0,1	0,519065
5,025833	0,1	0,464804
5,027500	0,1	0,495620
5,029167	0,1	0,521010
5,030833	0,1	0,492834
5,032500	0,1	0,516425
5,034167	0,1	0,548195
5,035833	0,1	0,468531
5,037500	0,1	0,541018
5,039167	0,1	0,525577
5,040833	0,1	0,532973
5,042500	0,1	0,524601
5,044167	0,1	0,523377
5,045833	0,1	0,547196
5,047500	0,1	0,571281
5,049167	0,1	0,552491
5,050833	0,1	0,560806
5,052500	0,1	0,544266
5,054167	0,1	0,559432
5,055833	0,1	0,549810
5,057500	0,1	0,553517
5,059167	0,1	0,565544
5,060833	0,1	0,550061
5,062500	0,1	0,540145
5,064167	0,1	0,550616
5,065833	0,1	0,606551
5,067500	0,1	0,569783
5,069167	0,1	0,566563
5,070833	0,1	0,553424
5,072500	0,1	0,552913
5,074167	0,1	0,515491
5,075833	0,1	0,583575
5,077500	0,1	0,572786
5,079167	0,1	0,572852
5,080833	0,1	0,555087
5,082500	0,1	0,553353
5,084167	0,1	0,607128
5,085833	0,1	0,596954
5,087500	0,1	0,563550
5,089167	0,1	0,575733
5,090833	0,1	0,593872
5,092500	0,1	0,612891
5,094167	0,1	0,576787
5,095833	0,1	0,565328
5,097500	0,1	0,586634
5,099167	0,1	0,624204
5,100833	0,1	0,583628
5,102500	0,1	0,571633
5,104167	0,1	0,578110
5,105833	0,1	0,551408
5,107500	0,1	0,572778
5,109167	0,1	0,585330
5,110833	0,1	0,582588
5,112500	0,1	0,577810
5,114167	0,1	0,612078
5,115833	0,1	0,614461
5,117500	0,1	0,548411
5,119167	0,1	0,617259
5,120833	0,1	0,593374
5,122500	0,1	0,604927
5,124167	0,1	0,565980
5,125833	0,1	0,583175
5,127500	0,1	0,625287
5,129167	0,1	0,592166
5,130833	0,1	0,588699
5,132500	0,1	0,542994
5,134167	0,1	0,553569
5,135833	0,1	0,602034
5,137500	0,1	0,581905
5,139167	0,1	0,547263
5,140833	0,1	0,580383
5,142500	0,1	0,561376
5,144167	0,1	0,603410
5,145833	0,1	0,582551
5,147500	0,1	0,550202
5,149167	0,1	0,603324
5,150833	0,1	0,579874
5,152500	0,1	0,544984
5,154167	0,1	0,596446
5,155833	0,1	0,607058
5,157500	0,1	0,569578
5,159167	0,1	0,577532
5,160833	0,1	0,587638
5,162500	0,1	0,561294
5,164167	0,1	0,570788
5,165833	0,1	0,537650
5,167500	0,1	0,556232
5,169167	0,1	0,519637
5,170833	0,1	0,558809
5,172500	0,1	0,541079
5,174167	0,1	0,558222
5,175833	0,1	0,553201
5,177500	0,1	0,562879
5,179167	0,1	0,530909
5,180833	0,1	0,527031
5,182500	0,1	0,562585
5,184167	0,1	0,535220
5,185833	0,1	0,528693
5,187500	0,1	0,550601
5,189167	0,1	0,558445
5,190833	0,1	0,520009
5,192500	0,1	0,507809
5,194167	0,1	0,502150
5,195833	0,1	0,533681
5,197500	0,1	0,509475
5,199167	0,1	0,512118
5,200833	0,1	0,518994
5,202500	0,1	0,510185
5,204167	0,1	0,498539
5,205833	0,1	0,472404
5,207500	0,1	0,474264
5,209167	0,1	0,475623
5,210833	0,1	0,480194
5,212500	0,1	0,512991
5,214167	0,1	0,524527
5,215833	0,1	0,446287
5,217500	0,1	0,452447
5,219167	0,1	0,484940
5,220833	0,1	0,491413
5,222500	0,1	0,443782
5,224167	0,1	0,467161
5,225833	0,1	0,441568
5,227500	0,1	0,422006
5,229167	0,1	0,466542
5,230833	0,1	0,459258
5,232500	0,1	0,422079
5,234167	0,1	0,425398
5,235833	0,1	0,445701
5,237500	0,1	0,454019
5,239167	0,1	0,453345
5,240833	0,1	0,410451
5,242500	0,1	0,412595
5,244167	0,1	0,430521
5,245833	0,1	0,392944
5,247500	0,1	0,449513
5,249167	0,1	0,430530
5,250833	0,1	0,413976
5,252500	0,1	0,409389
5,254167	0,1	0,383773
5,255833	0,1	0,419430
5,257500	0,1	0,369299
5,259167	0,1	0,429069
5,260833	0,1	0,434040
5,262500	0,1	0,410530
5,264167	0,1	0,365494
5,265833	0,1	0,349666
5,267500	0,1	0,361320
5,269167	0,1	0,368927
5,270833	0,1	0,385698
5,272500	0,1	0,347920
5,274167	0,1	0,394810
5,275833	0,1	0,373978
5,277500	0,1	0,370442
5,279167	0,1	0,381644
5,280833	0,1	0,383360
5,282500	0,1	0,376978
5,284167	0,1	0,373684
5,285833	0,1	0,390471
5,287500	0,1	0,375096
5,289167	0,1	0,335818
5,290833	0,1	0,390394
5,292500	0,1	0,396348
5,294167	0,1	0,330681
5,295833	0,1	0,321637
5,297500	0,1	0,368733
5,299167	0,1	0,349819
5,300833	0,1	0,359421
5,302500	0,1	0,327448
5,304167	0,1	0,364201
5,305833	0,1	0,317026
5,307500	0,1	0,327406
5,309167	0,1	0,311233
5,310833	0,1	0,312094
5,312500	0,1	0,328965
5,314167	0,1	0,336353
5,315833	0,1	0,302224
5,317500	0,1	0,332342
5,319167	0,1	0,362083
5,320833	0,1	0,321799
5,322500	0,1	0,307889
5,324167	0,1	0,317829
5,325833	0,1	0,371041
5,327500	0,1	0,314910
5,329167	0,1	0,288832
5,330833	0,1	0,286689
5,332500	0,1	0,286313
5,334167	0,1	0,289230
5,335833	0,1	0,306794
5,337500	0,1	0,292054
5,339167	0,1	0,275998
5,340833	0,1	0,294202
5,342500	0,1	0,258433
5,344167	0,1	0,283745
5,345833	0,1	0,258720
5,347500	0,1	0,240263
5,349167	0,1	0,312096
5,350833	0,1	0,270911
5,352500	0,1	0,246668
5,354167	0,1	0,290152
5,355833	0,1	0,272107
5,357500	0,1	0,245464
5,359167	0,1	0,282722
5,360833	0,1	0,257314
5,362500	0,1	0,282303
5,364167	0,1	0,226750
5,365833	0,1	0,258618
5,367500	0,1	0,238167
5,369167	0,1	0,251415
5,370833	0,1	0,282897
5,372500	0,1	0,253427
5,374167	0,1	0,219516
5,375833	0,1	0,230912
5,377500	0,1	0,232137
5,379167	0,1	0,275271
5,380833	0,1	0,237795
5,382500	0,1	0,192655
5,384167	0,1	0,248892
5,385833	0,1	0,269933
5,387500	0,1	0,261718
5,389167	0,1	0,223137
5,390833	0,1	0,210281
5,392500	0,1	0,200518
5,394167	0,1	0,259431
5,395833	0,1	0,227676
5,397500	0,1	0,203794
5,399167	0,1	0,185865
5,400833	0,1	0,235262
5,402500	0,1	0,235295
5,404167	0,1	0,290141
5,405833	0,1	0,246181
5,407500	0,1	0,198258
5,409167	0,1	0,217435
5,410833	0,1	0,239044
5,412500	0,1	0,199191
5,414167	0,1	0,180463
5,415833	0,1	0,212116
5,417500	0,1	0,204697
5,419167	0,1	0,199847
5,420833	0,1	0,187354
5,422500	0,1	0,239998
5,424167	0,1	0,217773
5,425833	0,1	0,221126
5,427500	0,1	0,194384
5,429167	0,1	0,193621
5,430833	0,1	0,210361
5,432500	0,1	0,191004
5,434167	0,1	0,207405
5,435833	0,1	0,176883
5,437500	0,1	0,232989
5,439167	0,1	0,190876
5,440833	0,1	0,198889
5,442500	0,1	0,147364
5,444167	0,1	0,215817
5,445833	0,1	0,202831
5,447500	0,1	0,188577
5,449167	0,1	0,219050
5,450833	0,1	0,189360
5,452500	0,1	0,210628
5,454167	0,1	0,171440
5,455833	0,1	0,155027
5,457500	0,1	0,175828
5,459167	0,1	0,139711
5,460833	0,1	0,171002
5,462500	0,1	0,154736
5,464167	0,1	0,167091
5,465833	0,1	0,170230
5,467500	0,1	0,149091
5,469167	0,1	0,176496
5,470833	0,1	0,172320
5,472500	0,1	0,164650
5,474167	0,1	0,128994
5,475833	0,1	0,176821
5,477500	0,1	0,177725
5,479167	0,1	0,161718
5,480833	0,1	0,153601
5,482500	0,1	0,169937
5,484167	0,1	0,128173
5,485833	0,1	0,131587
5,487500	0,1	0,139479
5,489167	0,1	0,174245
5,490833	0,1	0,154026
5,492500	0,1	0,166957
5,494167	0,1	0,153489
5,495833	0,1	0,164244
5,497500	0,1	0,185944
5,499167	0,1	0,159830
5,500833	0,1	0,128882
5,502500	0,1	0,146125
5,504167	0,1	0,159109
5,505833	0,1	0,150398
5,507500	0,1	0,154310
5,509167	0,1	0,118790
5,510833	0,1	0,121848
5,512500	0,1	0,155236
5,514167	0,1	0,139395
5,515833	0,1	0,138192
5,517500	0,1	0,107629
5,519167	0,1	0,134470
5,520833	0,1	0,115496
5,522500	0,1	0,144586
5,524167	0,1	0,161577
5,525833	0,1	0,177784
5,527500	0,1	0,150315
5,529167	0,1	0,139127
5,530833	0,1	0,147060
5,532500	0,1	0,154620
5,534167	0,1	0,085893
5,535833	0,1	0,099170
5,537500	0,1	0,133069
5,539167	0,1	0,121875
5,540833	0,1	0,140920
5,542500	0,1	0,127856
5,544167	0,1	0,118584
5,545833	0,1	0,134763
5,547500	0,1	0,144524
5,549167	0,1	0,120833
5,550833	0,1	0,150101
5,552500	0,1	0,149220
5,554167	0,1	0,084915
5,555833	0,1	0,105903
5,557500	0,1	0,148053
5,559167	0,1	0,144260
5,560833	0,1	0,162532
5,562500	0,1	0,091209
5,564167	0,1	0,080389
5,565833	0,1	0,129908
5,567500	0,1	0,118606
5,569167	0,1	0,106822
5,570833	0,1	0,121178
5,572500	0,1	0,095777
5,574167	0,1	0,088860
5,575833	0,1	0,110640
5,577500	0,1	0,095064
5,579167	0,1	0,063254
5,580833	0,1	0,119658
5,582500	0,1	0,097865
5,584167	0,1	0,135336
5,585833	0,1	0,131811
5,587500	0,1	0,106271
5,589167	0,1	0,058678
5,590833	0,1	0,098141
5,592500	0,1	0,137314
5,594167	0,1	0,098759
5,595833	0,1	0,125401
5,597500	0,1	0,121673
5,599167	0,1	0,135830
5,600833	0,1	0,085780
5,602500	0,1	0,113617
5,604167	0,1	0,118514
5,605833	0,1	0,098201
5,607500	0,1	0,117909
5,609167	0,1	0,126250
5,610833	0,1	0,064176
5,612500	0,1	0,120814
5,614167	0,1	0,087776
5,615833	0,1	0,155184
5,617500	0,1	0,087740
5,619167	0,1	0,132822
5,620833	0,1	0,066330
5,622500	0,1	0,088496
5,624167	0,1	0,112795
5,625833	0,1	0,125337
5,627500	0,1	0,173200
5,629167	0,1	0,105679
5,630833	0,1	0,130402
5,632500	0,1	0,075665
5,634167	0,1	0,121126
5,635833	0,1	0,091756
5,637500	0,1	0,115241
5,639167	0,1	0,101220
5,640833	0,1	0,139449
5,642500	0,1	0,114141
5,644167	0,1	0,121604
5,645833	0,1	0,059194
5,647500	0,1	0,141927
5,649167	0,1	0,089981
5,650833	0,1	0,086722
5,652500	0,1	0,135778
5,654167	0,1	0,097091
5,655833	0,1	0,086836
5,657500	0,1	0,138290
5,659167	0,1	0,089003
5,660833	0,1	0,119997
5,662500	0,1	0,116893
5,664167	0,1	0,138942
5,665833	0,1	0,144748
5,667500	0,1	0,111141
5,669167	0,1	0,109266
5,670833	0,1	0,107555
5,672500	0,1	0,077170
5,674167	0,1	0,117994
5,675833	0,1	0,157368
5,677500	0,1	0,129683
5,679167	0,1	0,126607
5,680833	0,1	0,098445
5,682500	0,1	0,111508
5,684167	0,1	0,104687
5,685833	0,1	0,129336
5,687500	0,1	0,112493
5,689167	0,1	0,123780
5,690833	0,1	0,111293
5,692500	0,1	0,107732
5,694167	0,1	0,104865
5,695833	0,1	0,125579
5,697500	0,1	0,123162
5,699167	0,1	0,128784
5,700833	0,1	0,141700
5,702500	0,1	0,130744
5,704167	0,1	0,091713
5,705833	0,1	0,157917
5,707500	0,1	0,123013
5,709167	0,1	0,150767
5,710833	0,1	0,154287
5,712500	0,1	0,116366
5,714167	0,1	0,148210
5,715833	0,1	0,105564
5,717500	0,1	0,164346
5,719167	0,1	0,125372
5,720833	0,1	0,108337
5,722500	0,1	0,133315
5,724167	0,1	0,089801
5,725833	0,1	0,142312
5,727500	0,1	0,135501
5,729167	0,1	0,106760
5,730833	0,1	0,155876
5,732500	0,1	0,113610
5,734167	0,1	0,156633
5,735833	0,1	0,089207
5,737500	0,1	0,129554
5,739167	0,1	0,146189
5,740833	0,1	0,114788
5,742500	0,1	0,124025
5,744167	0,1	0,130607
5,745833	0,1	0,116627
5,747500	0,1	0,148254
5,749167	0,1	0,128168
5,750833	0,1	0,126964
5,752500	0,1	0,116205
5,754167	0,1	0,124159
5,755833	0,1	0,134231
5,757500	0,1	0,128054
5,759167	0,1	0,149168
5,760833	0,1	0,132813
5,762500	0,1	0,094869
5,764167	0,1	0,095438
5,765833	0,1	0,091372
5,767500	0,1	0,122443
5,769167	0,1	0,117049
5,770833	0,1	0,148988
5,772500	0,1	0,096583
5,774167	0,1	0,136381
5,775833	0,1	0,088624
5,777500	0,1	0,119840
5,779167	0,1	0,096955
5,780833	0,1	0,122111
5,782500	0,1	0,142255
5,784167	0,1	0,134990
5,785833	0,1	0,106272
5,787500	0,1	0,157255
5,789167	0,1	0,091719
5,790833	0,1	0,139423
5,792500	0,1	0,131612
5,794167	0,1	0,147769
5,795833	0,1	0,117899
5,797500	0,1	0,137519
5,799167	0,1	0,108651
5,800833	0,1	0,117511
5,802500	0,1	0,149810
5,804167	0,1	0,087826
5,805833	0,1	0,109106
5,807500	0,1	0,126559
5,809167	0,1	0,136075
5,810833	0,1	0,095669
5,812500	0,1	0,098150
5,814167	0,1	0,092595
5,815833	0,1	0,117574
5,817500	0,1	0,109712
5,819167	0,1	0,092419
5,820833	0,1	0,104683
5,822500	0,1	0,162345
5,824167	0,1	0,111078
5,825833	0,1	0,059614
5,827500	0,1	0,117612
5,829167	0,1	0,111601
5,830833	0,1	0,119246
5,832500	0,1	0,115026
5,834167	0,1	0,113957
5,835833	0,1	0,107578
5,837500	0,1	0,103797
5,839167	0,1	0,124089
5,840833	0,1	0,108270
5,842500	0,1	0,139938
5,844167	0,1	0,099271
5,845833	0,1	0,102306
5,847500	0,1	0,113954
5,849167	0,1	0,119002
5,850833	0,1	0,112448
5,852500	0,1	0,105822
5,854167	0,1	0,122580
5,855833	0,1	0,114736
5,857500	0,1	0,112846
5,859167	0,1	0,106866
5,860833	0,1	0,085283
5,862500	0,1	0,133644
5,864167	0,1	0,117139
5,865833	0,1	0,103445
5,867500	0,1	0,125556
5,869167	0,1	0,134541
5,870833	0,1	0,135633
5,872500	0,1	0,076624
5,874167	0,1	0,114504
5,875833	0,1	0,096641
5,877500	0,1	0,107619
5,879167	0,1	0,099863
5,880833	0,1	0,082794
5,882500	0,1	0,124462
5,884167	0,1	0,096889
5,885833	0,1	0,117487
5,887500	0,1	0,067881
5,889167	0,1	0,116125
5,890833	0,1	0,077642
5,892500	0,1	0,124440
5,894167	0,1	0,095467
5,895833	0,1	0,078547
5,897500	0,1	0,070430
5,899167	0,1	0,055182
5,900833	0,1	0,086850
5,902500	0,1	0,102348
5,904167	0,1	0,083772
5,905833	0,1	0,070990
5,907500	0,1	0,108057
5,909167	0,1	0,084705
5,910833	0,1	0,072033
5,912500	0,1	0,075228
5,914167	0,1	0,107036
5,915833	0,1	0,071972
5,917500	0,1	0,092252
5,919167	0,1	0,107128
5,920833	0,1	0,100464
5,922500	0,1	0,036053
5,924167	0,1	0,086044
5,925833	0,1	0,060831
5,927500	0,1	0,064847
5,929167	0,1	0,116369
5,930833	0,1	0,093443
5,932500	0,1	0,070835
5,934167	0,1	0,047912
5,935833	0,1	0,036066
5,937500	0,1	0,080622
5,939167	0,1	0,062785
5,940833	0,1	0,066227
5,942500	0,1	0,051225
5,944167	0,1	0,072891
5,945833	0,1	0,079452
5,947500	0,1	0,026116
5,949167	0,1	0,034194
5,950833	0,1	0,031526
5,952500	0,1	0,080599
5,954167	0,1	0,036405
5,955833	0,1	0,080022
5,957500	0,1	0,095368
5,959167	0,1	0,036431
5,960833	0,1	0,061510
5,962500	0,1	0,095007
5,964167	0,1	0,052056
5,965833	0,1	0,077892
5,967500	0,1	0,060093
5,969167	0,1	0,054866
5,970833	0,1	0,040355
5,972500	0,1	0,036263
5,974167	0,1	0,086954
5,975833	0,1	0,088658
5,977500	0,1	0,038853
5,979167	0,1	0,070003
5,980833	0,1	0,050316
5,982500	0,1	0,072113
5,984167	0,1	0,040028
5,985833	0,1	0,051620
5,987500	0,1	0,069912
5,989167	0,1	0,060940
5,990833	0,1	0,075582
5,992500	0,1	0,072119
5,994167	0,1	0,032625
5,995833	0,1	0,094023
5,997500	0,1	0,091592
5,999167	0,1	0,070342
6,000833	0,1	0,040914
