File Path	chrom://chromeleon01/ikbm_chromeleon/2022/Rezex/Esteban/220612_chitin_4_7.seq/642.smp/UV_VIS_1.channel/UV_VIS_1.chm
Channel	UV_VIS_1

Injection Information:
Data Vault	ikbm_chromeleon
Injection	C-NE_00h-EGS_
Injection Number	122
Position	BC8
Comment	
Processing Method	New ProcMethod
Instrument Method	Short_Rezex_6min_194nm
Type	Unknown
Status	Finished
Injection Date	13.06.2022
Injection Time	06:17:49
Injection Volume (µl)	8,000
Dilution Factor	1,0000
Weight	1,0000

Chromatogram Data Information:
Time Min. (min)	0,000833
Time Max. (min)	6,000833
Data Points	3601
Detector	UV
Generating Data System	Chromeleon 7.2.9.11323
Exporting Data System	Chromeleon 7.2.9.0
Operator	Instrument Controller
Signal Quantity	Absorbance
Signal Unit	mAU
Signal Min.	-0,102643
Signal Max.	110,017668
Channel	UV_VIS_1
Driver Name	VWD3000.dll
Channel Type	Evaluation
Min. Step (s)	0,1
Max. Step (s)	0,1
Average Step (s)	0,1

Signal Parameter Information:
Signal Info	WVL:194 nm

Chromatogram Data:
Time (min)	Step (s)	Value (mAU)
0,000833	n.a.	-0,064929
0,002500	0,1	-0,040904
0,004167	0,1	-0,080165
0,005833	0,1	-0,045687
0,007500	0,1	-0,010393
0,009167	0,1	-0,026101
0,010833	0,1	-0,089924
0,012500	0,1	-0,043274
0,014167	0,1	-0,068618
0,015833	0,1	-0,092666
0,017500	0,1	-0,090275
0,019167	0,1	-0,004367
0,020833	0,1	-0,033726
0,022500	0,1	-0,041722
0,024167	0,1	-0,025298
0,025833	0,1	-0,031974
0,027500	0,1	-0,048577
0,029167	0,1	-0,079893
0,030833	0,1	-0,073792
0,032500	0,1	-0,080785
0,034167	0,1	-0,075320
0,035833	0,1	-0,102643
0,037500	0,1	-0,067796
0,039167	0,1	-0,083166
0,040833	0,1	-0,083584
0,042500	0,1	-0,100079
0,044167	0,1	-0,088825
0,045833	0,1	-0,083020
0,047500	0,1	-0,066782
0,049167	0,1	-0,092086
0,050833	0,1	-0,045110
0,052500	0,1	-0,009463
0,054167	0,1	-0,085826
0,055833	0,1	-0,056122
0,057500	0,1	-0,060375
0,059167	0,1	-0,077268
0,060833	0,1	-0,032337
0,062500	0,1	-0,025622
0,064167	0,1	-0,050745
0,065833	0,1	-0,054250
0,067500	0,1	-0,045543
0,069167	0,1	-0,053301
0,070833	0,1	-0,082338
0,072500	0,1	-0,078390
0,074167	0,1	-0,058899
0,075833	0,1	-0,034119
0,077500	0,1	-0,034939
0,079167	0,1	-0,053191
0,080833	0,1	-0,058969
0,082500	0,1	-0,002101
0,084167	0,1	-0,026026
0,085833	0,1	-0,040158
0,087500	0,1	-0,008678
0,089167	0,1	-0,040565
0,090833	0,1	-0,035766
0,092500	0,1	-0,043156
0,094167	0,1	-0,034984
0,095833	0,1	-0,012254
0,097500	0,1	-0,029905
0,099167	0,1	-0,003060
0,100833	0,1	-0,035158
0,102500	0,1	-0,048350
0,104167	0,1	-0,028569
0,105833	0,1	-0,052883
0,107500	0,1	-0,059120
0,109167	0,1	-0,032087
0,110833	0,1	-0,016498
0,112500	0,1	-0,096978
0,114167	0,1	-0,064966
0,115833	0,1	-0,070703
0,117500	0,1	-0,064044
0,119167	0,1	-0,072980
0,120833	0,1	-0,066383
0,122500	0,1	-0,057689
0,124167	0,1	-0,089701
0,125833	0,1	-0,052992
0,127500	0,1	-0,081774
0,129167	0,1	-0,076008
0,130833	0,1	-0,045610
0,132500	0,1	-0,042929
0,134167	0,1	-0,043281
0,135833	0,1	-0,039159
0,137500	0,1	-0,049281
0,139167	0,1	-0,064039
0,140833	0,1	-0,027186
0,142500	0,1	-0,013826
0,144167	0,1	-0,045656
0,145833	0,1	-0,038729
0,147500	0,1	-0,067824
0,149167	0,1	-0,071024
0,150833	0,1	-0,050713
0,152500	0,1	-0,029396
0,154167	0,1	-0,025314
0,155833	0,1	-0,021111
0,157500	0,1	-0,040006
0,159167	0,1	-0,037568
0,160833	0,1	-0,039016
0,162500	0,1	-0,003914
0,164167	0,1	-0,003993
0,165833	0,1	-0,025965
0,167500	0,1	-0,025129
0,169167	0,1	-0,051221
0,170833	0,1	-0,066209
0,172500	0,1	-0,042461
0,174167	0,1	-0,059654
0,175833	0,1	-0,028572
0,177500	0,1	-0,064415
0,179167	0,1	-0,027431
0,180833	0,1	-0,034311
0,182500	0,1	-0,036115
0,184167	0,1	-0,052964
0,185833	0,1	-0,041420
0,187500	0,1	-0,039966
0,189167	0,1	0,005315
0,190833	0,1	-0,042048
0,192500	0,1	-0,030511
0,194167	0,1	-0,016605
0,195833	0,1	-0,063681
0,197500	0,1	-0,057839
0,199167	0,1	-0,040718
0,200833	0,1	-0,040239
0,202500	0,1	-0,029930
0,204167	0,1	-0,011076
0,205833	0,1	-0,042552
0,207500	0,1	-0,055928
0,209167	0,1	-0,044718
0,210833	0,1	0,005022
0,212500	0,1	-0,023670
0,214167	0,1	-0,054042
0,215833	0,1	-0,022919
0,217500	0,1	-0,032781
0,219167	0,1	-0,052902
0,220833	0,1	-0,053425
0,222500	0,1	-0,039584
0,224167	0,1	-0,050196
0,225833	0,1	-0,049698
0,227500	0,1	-0,006298
0,229167	0,1	0,000190
0,230833	0,1	-0,074353
0,232500	0,1	0,005394
0,234167	0,1	-0,038180
0,235833	0,1	-0,001639
0,237500	0,1	-0,055169
0,239167	0,1	-0,025609
0,240833	0,1	-0,032140
0,242500	0,1	-0,022107
0,244167	0,1	-0,025435
0,245833	0,1	-0,043504
0,247500	0,1	-0,029931
0,249167	0,1	-0,045537
0,250833	0,1	0,010138
0,252500	0,1	-0,031993
0,254167	0,1	-0,047628
0,255833	0,1	-0,005244
0,257500	0,1	-0,016968
0,259167	0,1	-0,007408
0,260833	0,1	-0,002396
0,262500	0,1	-0,027478
0,264167	0,1	-0,046009
0,265833	0,1	0,016448
0,267500	0,1	0,032672
0,269167	0,1	-0,000672
0,270833	0,1	-0,003950
0,272500	0,1	-0,003326
0,274167	0,1	-0,028681
0,275833	0,1	-0,040438
0,277500	0,1	-0,039078
0,279167	0,1	-0,030203
0,280833	0,1	-0,014142
0,282500	0,1	-0,032288
0,284167	0,1	0,001528
0,285833	0,1	-0,011480
0,287500	0,1	-0,012828
0,289167	0,1	0,007000
0,290833	0,1	-0,026754
0,292500	0,1	-0,014222
0,294167	0,1	-0,039179
0,295833	0,1	-0,002877
0,297500	0,1	-0,003264
0,299167	0,1	-0,007282
0,300833	0,1	0,007598
0,302500	0,1	-0,025244
0,304167	0,1	-0,022870
0,305833	0,1	0,000536
0,307500	0,1	-0,038454
0,309167	0,1	0,009577
0,310833	0,1	-0,014521
0,312500	0,1	0,022793
0,314167	0,1	0,010340
0,315833	0,1	-0,030050
0,317500	0,1	-0,004660
0,319167	0,1	-0,026407
0,320833	0,1	0,021051
0,322500	0,1	0,001707
0,324167	0,1	-0,017439
0,325833	0,1	-0,000244
0,327500	0,1	0,050720
0,329167	0,1	0,002647
0,330833	0,1	-0,032056
0,332500	0,1	0,000657
0,334167	0,1	-0,000512
0,335833	0,1	0,020230
0,337500	0,1	-0,026109
0,339167	0,1	-0,013062
0,340833	0,1	-0,007177
0,342500	0,1	0,006175
0,344167	0,1	-0,013818
0,345833	0,1	-0,019763
0,347500	0,1	0,010680
0,349167	0,1	0,022096
0,350833	0,1	0,011973
0,352500	0,1	-0,052891
0,354167	0,1	0,022907
0,355833	0,1	0,063227
0,357500	0,1	0,002815
0,359167	0,1	-0,023839
0,360833	0,1	0,001054
0,362500	0,1	0,001948
0,364167	0,1	-0,006393
0,365833	0,1	0,001972
0,367500	0,1	-0,037601
0,369167	0,1	0,044189
0,370833	0,1	-0,004017
0,372500	0,1	-0,034686
0,374167	0,1	0,004568
0,375833	0,1	-0,005170
0,377500	0,1	0,016996
0,379167	0,1	0,027371
0,380833	0,1	0,023462
0,382500	0,1	0,037331
0,384167	0,1	-0,011867
0,385833	0,1	0,027347
0,387500	0,1	0,033729
0,389167	0,1	0,032385
0,390833	0,1	0,026013
0,392500	0,1	0,000363
0,394167	0,1	-0,012625
0,395833	0,1	0,003088
0,397500	0,1	0,040949
0,399167	0,1	0,013552
0,400833	0,1	0,007314
0,402500	0,1	0,006133
0,404167	0,1	0,004869
0,405833	0,1	0,011142
0,407500	0,1	0,021410
0,409167	0,1	-0,001728
0,410833	0,1	0,009981
0,412500	0,1	0,025736
0,414167	0,1	0,021932
0,415833	0,1	0,009451
0,417500	0,1	0,022754
0,419167	0,1	0,032921
0,420833	0,1	0,016714
0,422500	0,1	0,008413
0,424167	0,1	0,033391
0,425833	0,1	-0,040159
0,427500	0,1	0,025272
0,429167	0,1	0,021186
0,430833	0,1	0,011516
0,432500	0,1	0,021121
0,434167	0,1	0,020129
0,435833	0,1	0,026150
0,437500	0,1	0,009223
0,439167	0,1	0,026543
0,440833	0,1	-0,004170
0,442500	0,1	0,002132
0,444167	0,1	0,035339
0,445833	0,1	0,043523
0,447500	0,1	0,028767
0,449167	0,1	0,012555
0,450833	0,1	0,017642
0,452500	0,1	-0,008621
0,454167	0,1	0,024490
0,455833	0,1	0,032859
0,457500	0,1	0,026630
0,459167	0,1	0,045858
0,460833	0,1	0,010326
0,462500	0,1	0,061711
0,464167	0,1	0,040154
0,465833	0,1	0,038638
0,467500	0,1	0,045010
0,469167	0,1	0,003472
0,470833	0,1	0,041694
0,472500	0,1	0,046233
0,474167	0,1	0,033259
0,475833	0,1	0,033607
0,477500	0,1	0,054967
0,479167	0,1	0,019372
0,480833	0,1	0,062066
0,482500	0,1	0,015437
0,484167	0,1	0,030994
0,485833	0,1	0,019509
0,487500	0,1	0,064342
0,489167	0,1	0,011818
0,490833	0,1	0,037698
0,492500	0,1	0,011873
0,494167	0,1	0,015198
0,495833	0,1	0,012509
0,497500	0,1	0,029772
0,499167	0,1	0,026259
0,500833	0,1	0,048136
0,502500	0,1	0,077183
0,504167	0,1	0,053800
0,505833	0,1	0,033217
0,507500	0,1	0,039155
0,509167	0,1	0,053791
0,510833	0,1	0,065116
0,512500	0,1	0,016845
0,514167	0,1	0,019548
0,515833	0,1	0,025158
0,517500	0,1	0,023005
0,519167	0,1	0,025386
0,520833	0,1	0,031576
0,522500	0,1	0,064530
0,524167	0,1	0,006147
0,525833	0,1	0,028154
0,527500	0,1	0,036340
0,529167	0,1	0,047909
0,530833	0,1	0,054706
0,532500	0,1	0,051911
0,534167	0,1	0,062778
0,535833	0,1	0,023446
0,537500	0,1	0,022240
0,539167	0,1	0,033315
0,540833	0,1	0,077471
0,542500	0,1	0,056346
0,544167	0,1	0,101261
0,545833	0,1	0,062418
0,547500	0,1	0,036698
0,549167	0,1	0,027026
0,550833	0,1	0,027102
0,552500	0,1	0,050123
0,554167	0,1	0,055781
0,555833	0,1	0,052882
0,557500	0,1	0,043836
0,559167	0,1	0,058864
0,560833	0,1	0,023322
0,562500	0,1	0,047099
0,564167	0,1	0,069482
0,565833	0,1	0,096936
0,567500	0,1	0,053349
0,569167	0,1	0,069443
0,570833	0,1	0,076134
0,572500	0,1	0,015564
0,574167	0,1	0,072559
0,575833	0,1	0,059221
0,577500	0,1	0,050193
0,579167	0,1	0,053502
0,580833	0,1	0,016780
0,582500	0,1	0,022941
0,584167	0,1	0,095849
0,585833	0,1	0,074857
0,587500	0,1	0,050918
0,589167	0,1	0,083601
0,590833	0,1	0,038752
0,592500	0,1	0,051471
0,594167	0,1	0,074846
0,595833	0,1	0,069736
0,597500	0,1	0,093005
0,599167	0,1	0,080628
0,600833	0,1	0,036493
0,602500	0,1	0,044763
0,604167	0,1	0,083020
0,605833	0,1	0,032873
0,607500	0,1	0,098853
0,609167	0,1	0,065851
0,610833	0,1	0,107432
0,612500	0,1	0,096573
0,614167	0,1	0,105887
0,615833	0,1	0,083387
0,617500	0,1	0,059701
0,619167	0,1	0,099544
0,620833	0,1	0,088684
0,622500	0,1	0,072907
0,624167	0,1	0,091784
0,625833	0,1	0,091104
0,627500	0,1	0,076219
0,629167	0,1	0,089984
0,630833	0,1	0,102242
0,632500	0,1	0,088622
0,634167	0,1	0,049867
0,635833	0,1	0,096333
0,637500	0,1	0,098601
0,639167	0,1	0,084979
0,640833	0,1	0,081870
0,642500	0,1	0,039825
0,644167	0,1	0,119909
0,645833	0,1	0,093079
0,647500	0,1	0,107709
0,649167	0,1	0,108478
0,650833	0,1	0,080530
0,652500	0,1	0,097686
0,654167	0,1	0,073012
0,655833	0,1	0,090024
0,657500	0,1	0,078786
0,659167	0,1	0,115302
0,660833	0,1	0,092312
0,662500	0,1	0,101601
0,664167	0,1	0,072415
0,665833	0,1	0,133146
0,667500	0,1	0,143037
0,669167	0,1	0,118982
0,670833	0,1	0,080200
0,672500	0,1	0,096443
0,674167	0,1	0,131227
0,675833	0,1	0,116123
0,677500	0,1	0,099868
0,679167	0,1	0,108725
0,680833	0,1	0,102349
0,682500	0,1	0,137460
0,684167	0,1	0,090349
0,685833	0,1	0,110337
0,687500	0,1	0,131335
0,689167	0,1	0,124528
0,690833	0,1	0,123573
0,692500	0,1	0,143656
0,694167	0,1	0,101322
0,695833	0,1	0,123381
0,697500	0,1	0,106411
0,699167	0,1	0,135371
0,700833	0,1	0,148689
0,702500	0,1	0,129791
0,704167	0,1	0,147198
0,705833	0,1	0,106107
0,707500	0,1	0,137607
0,709167	0,1	0,145130
0,710833	0,1	0,151157
0,712500	0,1	0,134658
0,714167	0,1	0,167303
0,715833	0,1	0,132507
0,717500	0,1	0,136474
0,719167	0,1	0,153100
0,720833	0,1	0,136934
0,722500	0,1	0,131259
0,724167	0,1	0,141173
0,725833	0,1	0,195298
0,727500	0,1	0,180365
0,729167	0,1	0,166672
0,730833	0,1	0,158865
0,732500	0,1	0,186669
0,734167	0,1	0,206262
0,735833	0,1	0,195212
0,737500	0,1	0,155993
0,739167	0,1	0,171575
0,740833	0,1	0,195783
0,742500	0,1	0,207177
0,744167	0,1	0,198773
0,745833	0,1	0,168251
0,747500	0,1	0,231480
0,749167	0,1	0,203625
0,750833	0,1	0,219275
0,752500	0,1	0,200167
0,754167	0,1	0,191006
0,755833	0,1	0,222686
0,757500	0,1	0,218450
0,759167	0,1	0,223748
0,760833	0,1	0,202378
0,762500	0,1	0,198670
0,764167	0,1	0,226164
0,765833	0,1	0,244270
0,767500	0,1	0,176731
0,769167	0,1	0,171125
0,770833	0,1	0,185058
0,772500	0,1	0,183136
0,774167	0,1	0,172262
0,775833	0,1	0,181974
0,777500	0,1	0,198846
0,779167	0,1	0,206082
0,780833	0,1	0,189997
0,782500	0,1	0,187090
0,784167	0,1	0,173446
0,785833	0,1	0,226822
0,787500	0,1	0,203312
0,789167	0,1	0,191586
0,790833	0,1	0,176633
0,792500	0,1	0,180730
0,794167	0,1	0,168185
0,795833	0,1	0,183774
0,797500	0,1	0,192598
0,799167	0,1	0,163279
0,800833	0,1	0,222530
0,802500	0,1	0,172129
0,804167	0,1	0,169113
0,805833	0,1	0,152611
0,807500	0,1	0,140559
0,809167	0,1	0,174656
0,810833	0,1	0,201624
0,812500	0,1	0,191915
0,814167	0,1	0,190136
0,815833	0,1	0,122659
0,817500	0,1	0,183659
0,819167	0,1	0,178705
0,820833	0,1	0,173693
0,822500	0,1	0,138429
0,824167	0,1	0,142314
0,825833	0,1	0,203001
0,827500	0,1	0,184629
0,829167	0,1	0,147254
0,830833	0,1	0,169977
0,832500	0,1	0,180853
0,834167	0,1	0,187833
0,835833	0,1	0,148185
0,837500	0,1	0,196253
0,839167	0,1	0,187382
0,840833	0,1	0,151332
0,842500	0,1	0,128735
0,844167	0,1	0,205010
0,845833	0,1	0,151938
0,847500	0,1	0,163643
0,849167	0,1	0,138387
0,850833	0,1	0,153700
0,852500	0,1	0,179254
0,854167	0,1	0,185452
0,855833	0,1	0,156695
0,857500	0,1	0,197432
0,859167	0,1	0,208979
0,860833	0,1	0,180239
0,862500	0,1	0,188950
0,864167	0,1	0,157069
0,865833	0,1	0,164184
0,867500	0,1	0,188658
0,869167	0,1	0,197321
0,870833	0,1	0,212955
0,872500	0,1	0,126411
0,874167	0,1	0,186082
0,875833	0,1	0,180153
0,877500	0,1	0,168411
0,879167	0,1	0,189402
0,880833	0,1	0,136550
0,882500	0,1	0,194304
0,884167	0,1	0,161832
0,885833	0,1	0,203234
0,887500	0,1	0,170882
0,889167	0,1	0,205349
0,890833	0,1	0,175583
0,892500	0,1	0,220465
0,894167	0,1	0,198487
0,895833	0,1	0,244286
0,897500	0,1	0,210627
0,899167	0,1	0,188794
0,900833	0,1	0,202019
0,902500	0,1	0,227079
0,904167	0,1	0,240747
0,905833	0,1	0,231786
0,907500	0,1	0,191322
0,909167	0,1	0,207984
0,910833	0,1	0,205521
0,912500	0,1	0,173595
0,914167	0,1	0,205888
0,915833	0,1	0,228568
0,917500	0,1	0,188986
0,919167	0,1	0,249560
0,920833	0,1	0,199050
0,922500	0,1	0,235918
0,924167	0,1	0,236262
0,925833	0,1	0,248147
0,927500	0,1	0,219286
0,929167	0,1	0,206003
0,930833	0,1	0,211839
0,932500	0,1	0,252487
0,934167	0,1	0,280251
0,935833	0,1	0,206847
0,937500	0,1	0,219189
0,939167	0,1	0,268084
0,940833	0,1	0,259788
0,942500	0,1	0,223179
0,944167	0,1	0,242883
0,945833	0,1	0,265334
0,947500	0,1	0,235768
0,949167	0,1	0,243427
0,950833	0,1	0,254217
0,952500	0,1	0,248066
0,954167	0,1	0,254569
0,955833	0,1	0,241506
0,957500	0,1	0,264652
0,959167	0,1	0,257267
0,960833	0,1	0,269854
0,962500	0,1	0,245008
0,964167	0,1	0,281447
0,965833	0,1	0,304946
0,967500	0,1	0,286584
0,969167	0,1	0,297369
0,970833	0,1	0,270303
0,972500	0,1	0,289207
0,974167	0,1	0,275931
0,975833	0,1	0,258225
0,977500	0,1	0,310656
0,979167	0,1	0,299652
0,980833	0,1	0,308575
0,982500	0,1	0,323711
0,984167	0,1	0,292188
0,985833	0,1	0,276973
0,987500	0,1	0,316086
0,989167	0,1	0,335157
0,990833	0,1	0,312148
0,992500	0,1	0,323862
0,994167	0,1	0,337980
0,995833	0,1	0,324159
0,997500	0,1	0,336896
0,999167	0,1	0,359728
1,000833	0,1	0,381576
1,002500	0,1	0,337426
1,004167	0,1	0,396177
1,005833	0,1	0,358531
1,007500	0,1	0,406169
1,009167	0,1	0,406405
1,010833	0,1	0,429136
1,012500	0,1	0,394263
1,014167	0,1	0,417502
1,015833	0,1	0,474389
1,017500	0,1	0,415632
1,019167	0,1	0,446707
1,020833	0,1	0,465559
1,022500	0,1	0,416425
1,024167	0,1	0,509554
1,025833	0,1	0,498210
1,027500	0,1	0,495218
1,029167	0,1	0,503121
1,030833	0,1	0,494003
1,032500	0,1	0,500452
1,034167	0,1	0,487128
1,035833	0,1	0,554411
1,037500	0,1	0,538561
1,039167	0,1	0,516263
1,040833	0,1	0,548799
1,042500	0,1	0,548644
1,044167	0,1	0,560272
1,045833	0,1	0,572065
1,047500	0,1	0,588129
1,049167	0,1	0,674007
1,050833	0,1	0,616359
1,052500	0,1	0,650817
1,054167	0,1	0,672224
1,055833	0,1	0,720458
1,057500	0,1	0,774775
1,059167	0,1	0,868675
1,060833	0,1	0,971637
1,062500	0,1	1,060279
1,064167	0,1	1,177640
1,065833	0,1	1,360641
1,067500	0,1	1,644821
1,069167	0,1	1,982151
1,070833	0,1	2,356154
1,072500	0,1	2,876000
1,074167	0,1	3,494246
1,075833	0,1	4,160859
1,077500	0,1	5,023203
1,079167	0,1	5,990885
1,080833	0,1	7,065166
1,082500	0,1	8,359911
1,084167	0,1	9,721593
1,085833	0,1	11,295875
1,087500	0,1	12,912756
1,089167	0,1	14,645910
1,090833	0,1	16,520960
1,092500	0,1	18,396834
1,094167	0,1	20,344646
1,095833	0,1	22,311022
1,097500	0,1	24,243709
1,099167	0,1	26,080553
1,100833	0,1	27,922050
1,102500	0,1	29,611290
1,104167	0,1	31,258462
1,105833	0,1	32,650350
1,107500	0,1	33,993771
1,109167	0,1	35,187098
1,110833	0,1	36,108385
1,112500	0,1	37,007794
1,114167	0,1	37,631205
1,115833	0,1	38,175328
1,117500	0,1	38,571511
1,119167	0,1	38,894526
1,120833	0,1	39,022773
1,122500	0,1	39,141625
1,124167	0,1	39,171641
1,125833	0,1	39,106825
1,127500	0,1	38,964339
1,129167	0,1	38,838060
1,130833	0,1	38,705394
1,132500	0,1	38,543073
1,134167	0,1	38,396325
1,135833	0,1	38,263805
1,137500	0,1	38,177624
1,139167	0,1	38,114311
1,140833	0,1	38,137676
1,142500	0,1	38,262803
1,144167	0,1	38,374965
1,145833	0,1	38,579985
1,147500	0,1	38,869220
1,149167	0,1	39,261018
1,150833	0,1	39,703094
1,152500	0,1	40,276094
1,154167	0,1	40,894904
1,155833	0,1	41,573380
1,157500	0,1	42,279538
1,159167	0,1	43,064172
1,160833	0,1	43,857903
1,162500	0,1	44,677035
1,164167	0,1	45,540970
1,165833	0,1	46,373246
1,167500	0,1	47,221329
1,169167	0,1	47,999856
1,170833	0,1	48,778885
1,172500	0,1	49,537385
1,174167	0,1	50,190143
1,175833	0,1	50,788262
1,177500	0,1	51,386930
1,179167	0,1	51,868700
1,180833	0,1	52,325770
1,182500	0,1	52,691139
1,184167	0,1	52,946903
1,185833	0,1	53,248378
1,187500	0,1	53,419845
1,189167	0,1	53,529381
1,190833	0,1	53,670221
1,192500	0,1	53,727637
1,194167	0,1	53,845079
1,195833	0,1	53,973160
1,197500	0,1	54,128937
1,199167	0,1	54,361729
1,200833	0,1	54,657975
1,202500	0,1	55,038842
1,204167	0,1	55,546182
1,205833	0,1	56,242900
1,207500	0,1	57,125428
1,209167	0,1	58,129378
1,210833	0,1	59,330401
1,212500	0,1	60,748389
1,214167	0,1	62,364064
1,215833	0,1	64,230336
1,217500	0,1	66,200940
1,219167	0,1	68,408814
1,220833	0,1	70,749630
1,222500	0,1	73,278738
1,224167	0,1	75,846992
1,225833	0,1	78,526164
1,227500	0,1	81,219457
1,229167	0,1	83,969532
1,230833	0,1	86,751821
1,232500	0,1	89,430865
1,234167	0,1	92,026624
1,235833	0,1	94,497378
1,237500	0,1	96,901429
1,239167	0,1	99,119526
1,240833	0,1	101,176416
1,242500	0,1	103,025890
1,244167	0,1	104,666778
1,245833	0,1	106,113938
1,247500	0,1	107,300908
1,249167	0,1	108,327302
1,250833	0,1	109,101967
1,252500	0,1	109,627699
1,254167	0,1	109,916378
1,255833	0,1	110,017668
1,257500	0,1	109,883348
1,259167	0,1	109,532839
1,260833	0,1	108,930539
1,262500	0,1	108,135355
1,264167	0,1	107,214565
1,265833	0,1	106,001911
1,267500	0,1	104,733289
1,269167	0,1	103,227211
1,270833	0,1	101,606433
1,272500	0,1	99,781803
1,274167	0,1	97,974076
1,275833	0,1	95,958964
1,277500	0,1	93,931210
1,279167	0,1	91,748169
1,280833	0,1	89,487106
1,282500	0,1	87,234168
1,284167	0,1	84,988972
1,285833	0,1	82,643003
1,287500	0,1	80,336408
1,289167	0,1	77,988629
1,290833	0,1	75,696796
1,292500	0,1	73,379538
1,294167	0,1	71,161318
1,295833	0,1	68,894325
1,297500	0,1	66,754390
1,299167	0,1	64,620401
1,300833	0,1	62,602626
1,302500	0,1	60,579286
1,304167	0,1	58,682380
1,305833	0,1	56,819371
1,307500	0,1	55,066772
1,309167	0,1	53,313969
1,310833	0,1	51,677743
1,312500	0,1	50,071541
1,314167	0,1	48,606549
1,315833	0,1	47,115511
1,317500	0,1	45,755432
1,319167	0,1	44,446763
1,320833	0,1	43,157196
1,322500	0,1	41,900990
1,324167	0,1	40,834721
1,325833	0,1	39,680221
1,327500	0,1	38,602238
1,329167	0,1	37,584492
1,330833	0,1	36,617273
1,332500	0,1	35,703615
1,334167	0,1	34,760203
1,335833	0,1	33,890710
1,337500	0,1	33,083280
1,339167	0,1	32,284275
1,340833	0,1	31,435227
1,342500	0,1	30,766520
1,344167	0,1	30,008494
1,345833	0,1	29,285392
1,347500	0,1	28,625444
1,349167	0,1	27,969436
1,350833	0,1	27,322861
1,352500	0,1	26,687730
1,354167	0,1	26,093224
1,355833	0,1	25,497273
1,357500	0,1	24,923290
1,359167	0,1	24,325180
1,360833	0,1	23,820377
1,362500	0,1	23,252802
1,364167	0,1	22,743154
1,365833	0,1	22,284628
1,367500	0,1	21,761556
1,369167	0,1	21,244065
1,370833	0,1	20,781503
1,372500	0,1	20,334347
1,374167	0,1	19,838145
1,375833	0,1	19,408671
1,377500	0,1	18,981353
1,379167	0,1	18,559384
1,380833	0,1	18,181863
1,382500	0,1	17,754441
1,384167	0,1	17,367657
1,385833	0,1	17,016295
1,387500	0,1	16,621015
1,389167	0,1	16,296893
1,390833	0,1	15,950031
1,392500	0,1	15,603025
1,394167	0,1	15,268023
1,395833	0,1	14,931530
1,397500	0,1	14,671985
1,399167	0,1	14,332984
1,400833	0,1	14,025033
1,402500	0,1	13,758684
1,404167	0,1	13,485673
1,405833	0,1	13,249813
1,407500	0,1	13,025692
1,409167	0,1	12,806802
1,410833	0,1	12,538210
1,412500	0,1	12,356733
1,414167	0,1	12,099893
1,415833	0,1	11,904392
1,417500	0,1	11,740331
1,419167	0,1	11,551141
1,420833	0,1	11,337997
1,422500	0,1	11,173810
1,424167	0,1	10,991184
1,425833	0,1	10,841613
1,427500	0,1	10,725430
1,429167	0,1	10,541513
1,430833	0,1	10,410616
1,432500	0,1	10,258240
1,434167	0,1	10,171125
1,435833	0,1	10,055075
1,437500	0,1	9,920560
1,439167	0,1	9,831006
1,440833	0,1	9,674261
1,442500	0,1	9,533096
1,444167	0,1	9,469233
1,445833	0,1	9,383704
1,447500	0,1	9,250818
1,449167	0,1	9,163796
1,450833	0,1	9,094045
1,452500	0,1	8,990826
1,454167	0,1	8,870392
1,455833	0,1	8,771288
1,457500	0,1	8,711891
1,459167	0,1	8,643601
1,460833	0,1	8,537012
1,462500	0,1	8,448202
1,464167	0,1	8,386588
1,465833	0,1	8,313137
1,467500	0,1	8,246003
1,469167	0,1	8,155871
1,470833	0,1	8,084775
1,472500	0,1	8,043412
1,474167	0,1	7,958122
1,475833	0,1	7,909942
1,477500	0,1	7,805399
1,479167	0,1	7,805287
1,480833	0,1	7,777842
1,482500	0,1	7,653849
1,484167	0,1	7,610531
1,485833	0,1	7,599159
1,487500	0,1	7,501038
1,489167	0,1	7,485538
1,490833	0,1	7,426972
1,492500	0,1	7,379213
1,494167	0,1	7,348152
1,495833	0,1	7,327357
1,497500	0,1	7,269655
1,499167	0,1	7,246709
1,500833	0,1	7,195912
1,502500	0,1	7,208482
1,504167	0,1	7,106359
1,505833	0,1	7,117048
1,507500	0,1	7,091056
1,509167	0,1	7,027794
1,510833	0,1	7,020606
1,512500	0,1	6,991169
1,514167	0,1	6,952042
1,515833	0,1	6,917203
1,517500	0,1	6,918682
1,519167	0,1	6,914494
1,520833	0,1	6,863182
1,522500	0,1	6,831600
1,524167	0,1	6,793511
1,525833	0,1	6,773290
1,527500	0,1	6,710084
1,529167	0,1	6,673203
1,530833	0,1	6,714248
1,532500	0,1	6,642972
1,534167	0,1	6,621995
1,535833	0,1	6,568005
1,537500	0,1	6,590722
1,539167	0,1	6,559658
1,540833	0,1	6,537686
1,542500	0,1	6,458761
1,544167	0,1	6,474560
1,545833	0,1	6,430292
1,547500	0,1	6,420404
1,549167	0,1	6,391108
1,550833	0,1	6,359860
1,552500	0,1	6,292416
1,554167	0,1	6,266247
1,555833	0,1	6,270654
1,557500	0,1	6,250287
1,559167	0,1	6,198276
1,560833	0,1	6,163770
1,562500	0,1	6,159590
1,564167	0,1	6,133777
1,565833	0,1	6,094805
1,567500	0,1	6,047180
1,569167	0,1	6,021248
1,570833	0,1	5,986362
1,572500	0,1	5,954688
1,574167	0,1	5,903156
1,575833	0,1	5,904409
1,577500	0,1	5,881399
1,579167	0,1	5,820966
1,580833	0,1	5,833327
1,582500	0,1	5,809008
1,584167	0,1	5,697569
1,585833	0,1	5,705513
1,587500	0,1	5,717478
1,589167	0,1	5,642399
1,590833	0,1	5,614497
1,592500	0,1	5,570401
1,594167	0,1	5,571477
1,595833	0,1	5,555707
1,597500	0,1	5,499208
1,599167	0,1	5,464107
1,600833	0,1	5,453901
1,602500	0,1	5,438832
1,604167	0,1	5,364608
1,605833	0,1	5,350044
1,607500	0,1	5,323921
1,609167	0,1	5,272264
1,610833	0,1	5,259178
1,612500	0,1	5,206152
1,614167	0,1	5,193688
1,615833	0,1	5,178185
1,617500	0,1	5,139987
1,619167	0,1	5,119035
1,620833	0,1	5,105844
1,622500	0,1	5,066217
1,624167	0,1	5,025566
1,625833	0,1	5,023860
1,627500	0,1	5,031878
1,629167	0,1	4,975467
1,630833	0,1	4,913499
1,632500	0,1	4,937797
1,634167	0,1	4,938934
1,635833	0,1	4,861431
1,637500	0,1	4,888532
1,639167	0,1	4,819978
1,640833	0,1	4,797388
1,642500	0,1	4,771254
1,644167	0,1	4,767203
1,645833	0,1	4,753897
1,647500	0,1	4,762810
1,649167	0,1	4,726298
1,650833	0,1	4,694897
1,652500	0,1	4,641070
1,654167	0,1	4,648675
1,655833	0,1	4,629670
1,657500	0,1	4,636825
1,659167	0,1	4,600888
1,660833	0,1	4,633027
1,662500	0,1	4,586821
1,664167	0,1	4,599095
1,665833	0,1	4,632041
1,667500	0,1	4,653367
1,669167	0,1	4,628894
1,670833	0,1	4,657587
1,672500	0,1	4,670080
1,674167	0,1	4,655780
1,675833	0,1	4,692203
1,677500	0,1	4,667412
1,679167	0,1	4,718115
1,680833	0,1	4,736041
1,682500	0,1	4,789270
1,684167	0,1	4,816778
1,685833	0,1	4,859906
1,687500	0,1	4,855722
1,689167	0,1	4,918315
1,690833	0,1	4,930891
1,692500	0,1	4,970879
1,694167	0,1	5,026078
1,695833	0,1	5,093746
1,697500	0,1	5,098787
1,699167	0,1	5,172913
1,700833	0,1	5,279091
1,702500	0,1	5,283609
1,704167	0,1	5,385471
1,705833	0,1	5,388572
1,707500	0,1	5,502981
1,709167	0,1	5,511997
1,710833	0,1	5,613706
1,712500	0,1	5,673987
1,714167	0,1	5,737671
1,715833	0,1	5,801881
1,717500	0,1	5,862761
1,719167	0,1	5,942790
1,720833	0,1	5,955030
1,722500	0,1	6,039990
1,724167	0,1	6,083409
1,725833	0,1	6,141232
1,727500	0,1	6,214086
1,729167	0,1	6,214155
1,730833	0,1	6,284466
1,732500	0,1	6,338360
1,734167	0,1	6,348959
1,735833	0,1	6,413410
1,737500	0,1	6,392298
1,739167	0,1	6,463202
1,740833	0,1	6,469651
1,742500	0,1	6,523987
1,744167	0,1	6,509581
1,745833	0,1	6,555805
1,747500	0,1	6,525112
1,749167	0,1	6,541275
1,750833	0,1	6,535433
1,752500	0,1	6,558426
1,754167	0,1	6,553863
1,755833	0,1	6,510947
1,757500	0,1	6,524262
1,759167	0,1	6,494396
1,760833	0,1	6,494859
1,762500	0,1	6,398940
1,764167	0,1	6,456412
1,765833	0,1	6,405442
1,767500	0,1	6,333450
1,769167	0,1	6,322702
1,770833	0,1	6,273426
1,772500	0,1	6,274258
1,774167	0,1	6,191773
1,775833	0,1	6,143533
1,777500	0,1	6,130107
1,779167	0,1	6,094420
1,780833	0,1	6,026552
1,782500	0,1	6,008602
1,784167	0,1	5,916229
1,785833	0,1	5,885655
1,787500	0,1	5,805836
1,789167	0,1	5,745980
1,790833	0,1	5,683857
1,792500	0,1	5,620054
1,794167	0,1	5,536177
1,795833	0,1	5,507762
1,797500	0,1	5,453482
1,799167	0,1	5,359613
1,800833	0,1	5,315422
1,802500	0,1	5,273620
1,804167	0,1	5,172136
1,805833	0,1	5,120932
1,807500	0,1	5,044770
1,809167	0,1	4,987383
1,810833	0,1	4,953672
1,812500	0,1	4,840075
1,814167	0,1	4,781892
1,815833	0,1	4,739912
1,817500	0,1	4,707801
1,819167	0,1	4,619262
1,820833	0,1	4,543012
1,822500	0,1	4,498100
1,824167	0,1	4,373227
1,825833	0,1	4,332488
1,827500	0,1	4,355971
1,829167	0,1	4,278499
1,830833	0,1	4,181660
1,832500	0,1	4,172685
1,834167	0,1	4,122324
1,835833	0,1	4,077665
1,837500	0,1	4,002917
1,839167	0,1	4,041097
1,840833	0,1	4,012522
1,842500	0,1	3,956024
1,844167	0,1	3,960212
1,845833	0,1	3,933381
1,847500	0,1	3,947415
1,849167	0,1	3,930472
1,850833	0,1	3,962417
1,852500	0,1	3,999743
1,854167	0,1	4,014443
1,855833	0,1	4,018809
1,857500	0,1	4,065494
1,859167	0,1	4,141083
1,860833	0,1	4,136567
1,862500	0,1	4,161136
1,864167	0,1	4,224797
1,865833	0,1	4,230964
1,867500	0,1	4,289364
1,869167	0,1	4,348266
1,870833	0,1	4,369747
1,872500	0,1	4,424518
1,874167	0,1	4,463506
1,875833	0,1	4,478066
1,877500	0,1	4,529481
1,879167	0,1	4,529615
1,880833	0,1	4,551665
1,882500	0,1	4,601798
1,884167	0,1	4,660047
1,885833	0,1	4,683408
1,887500	0,1	4,713625
1,889167	0,1	4,719953
1,890833	0,1	4,753850
1,892500	0,1	4,763777
1,894167	0,1	4,780342
1,895833	0,1	4,834309
1,897500	0,1	4,849762
1,899167	0,1	4,868315
1,900833	0,1	4,890397
1,902500	0,1	4,891916
1,904167	0,1	4,921220
1,905833	0,1	4,939412
1,907500	0,1	4,917004
1,909167	0,1	4,992825
1,910833	0,1	4,980231
1,912500	0,1	5,026478
1,914167	0,1	5,014638
1,915833	0,1	5,031059
1,917500	0,1	5,022993
1,919167	0,1	5,049740
1,920833	0,1	5,042919
1,922500	0,1	5,059200
1,924167	0,1	5,079785
1,925833	0,1	5,079987
1,927500	0,1	5,076116
1,929167	0,1	5,093252
1,930833	0,1	5,067452
1,932500	0,1	5,063779
1,934167	0,1	5,076336
1,935833	0,1	5,078231
1,937500	0,1	5,073687
1,939167	0,1	5,057518
1,940833	0,1	5,092985
1,942500	0,1	5,087126
1,944167	0,1	5,093308
1,945833	0,1	5,068806
1,947500	0,1	5,066912
1,949167	0,1	5,085033
1,950833	0,1	5,031496
1,952500	0,1	5,071729
1,954167	0,1	5,049523
1,955833	0,1	5,077234
1,957500	0,1	5,081705
1,959167	0,1	5,106038
1,960833	0,1	5,084754
1,962500	0,1	5,105642
1,964167	0,1	5,102036
1,965833	0,1	5,102144
1,967500	0,1	5,068952
1,969167	0,1	5,068776
1,970833	0,1	5,138129
1,972500	0,1	5,163267
1,974167	0,1	5,164346
1,975833	0,1	5,168411
1,977500	0,1	5,218214
1,979167	0,1	5,182962
1,980833	0,1	5,210115
1,982500	0,1	5,236182
1,984167	0,1	5,272781
1,985833	0,1	5,266182
1,987500	0,1	5,306562
1,989167	0,1	5,341500
1,990833	0,1	5,304855
1,992500	0,1	5,342884
1,994167	0,1	5,389049
1,995833	0,1	5,405634
1,997500	0,1	5,449167
1,999167	0,1	5,455846
2,000833	0,1	5,442742
2,002500	0,1	5,517940
2,004167	0,1	5,500257
2,005833	0,1	5,542388
2,007500	0,1	5,564144
2,009167	0,1	5,648818
2,010833	0,1	5,684786
2,012500	0,1	5,651707
2,014167	0,1	5,721129
2,015833	0,1	5,744900
2,017500	0,1	5,765101
2,019167	0,1	5,804227
2,020833	0,1	5,819455
2,022500	0,1	5,878637
2,024167	0,1	5,932475
2,025833	0,1	5,919815
2,027500	0,1	5,945934
2,029167	0,1	6,003923
2,030833	0,1	6,039365
2,032500	0,1	6,059423
2,034167	0,1	6,128595
2,035833	0,1	6,185982
2,037500	0,1	6,176028
2,039167	0,1	6,174355
2,040833	0,1	6,302990
2,042500	0,1	6,282445
2,044167	0,1	6,323847
2,045833	0,1	6,351839
2,047500	0,1	6,401030
2,049167	0,1	6,451952
2,050833	0,1	6,498195
2,052500	0,1	6,491314
2,054167	0,1	6,539873
2,055833	0,1	6,576196
2,057500	0,1	6,605988
2,059167	0,1	6,642469
2,060833	0,1	6,698979
2,062500	0,1	6,740981
2,064167	0,1	6,737438
2,065833	0,1	6,813509
2,067500	0,1	6,801612
2,069167	0,1	6,874800
2,070833	0,1	6,910480
2,072500	0,1	6,909273
2,074167	0,1	6,922218
2,075833	0,1	6,992078
2,077500	0,1	6,993211
2,079167	0,1	7,049384
2,080833	0,1	7,031697
2,082500	0,1	7,095043
2,084167	0,1	7,124034
2,085833	0,1	7,132708
2,087500	0,1	7,148829
2,089167	0,1	7,245563
2,090833	0,1	7,230303
2,092500	0,1	7,194701
2,094167	0,1	7,275768
2,095833	0,1	7,298159
2,097500	0,1	7,323242
2,099167	0,1	7,311319
2,100833	0,1	7,354567
2,102500	0,1	7,415629
2,104167	0,1	7,409790
2,105833	0,1	7,390313
2,107500	0,1	7,414254
2,109167	0,1	7,424523
2,110833	0,1	7,452213
2,112500	0,1	7,467225
2,114167	0,1	7,508257
2,115833	0,1	7,470063
2,117500	0,1	7,492611
2,119167	0,1	7,502483
2,120833	0,1	7,554344
2,122500	0,1	7,560614
2,124167	0,1	7,552680
2,125833	0,1	7,506340
2,127500	0,1	7,558352
2,129167	0,1	7,594384
2,130833	0,1	7,584679
2,132500	0,1	7,559853
2,134167	0,1	7,581126
2,135833	0,1	7,560239
2,137500	0,1	7,570483
2,139167	0,1	7,578607
2,140833	0,1	7,551670
2,142500	0,1	7,574038
2,144167	0,1	7,513899
2,145833	0,1	7,512954
2,147500	0,1	7,572350
2,149167	0,1	7,544100
2,150833	0,1	7,513138
2,152500	0,1	7,495960
2,154167	0,1	7,523292
2,155833	0,1	7,482084
2,157500	0,1	7,480572
2,159167	0,1	7,486351
2,160833	0,1	7,467981
2,162500	0,1	7,482712
2,164167	0,1	7,421922
2,165833	0,1	7,396833
2,167500	0,1	7,395698
2,169167	0,1	7,425533
2,170833	0,1	7,402140
2,172500	0,1	7,334454
2,174167	0,1	7,339847
2,175833	0,1	7,277119
2,177500	0,1	7,317929
2,179167	0,1	7,299292
2,180833	0,1	7,234785
2,182500	0,1	7,235333
2,184167	0,1	7,230766
2,185833	0,1	7,185662
2,187500	0,1	7,199625
2,189167	0,1	7,138127
2,190833	0,1	7,098144
2,192500	0,1	7,108288
2,194167	0,1	7,089843
2,195833	0,1	7,081268
2,197500	0,1	7,056763
2,199167	0,1	7,006360
2,200833	0,1	6,974025
2,202500	0,1	6,951849
2,204167	0,1	6,906299
2,205833	0,1	6,929481
2,207500	0,1	6,866443
2,209167	0,1	6,905822
2,210833	0,1	6,857871
2,212500	0,1	6,819680
2,214167	0,1	6,807763
2,215833	0,1	6,780181
2,217500	0,1	6,743506
2,219167	0,1	6,789867
2,220833	0,1	6,691935
2,222500	0,1	6,689773
2,224167	0,1	6,696574
2,225833	0,1	6,674873
2,227500	0,1	6,657093
2,229167	0,1	6,633747
2,230833	0,1	6,587853
2,232500	0,1	6,607945
2,234167	0,1	6,563464
2,235833	0,1	6,563347
2,237500	0,1	6,489828
2,239167	0,1	6,499407
2,240833	0,1	6,484900
2,242500	0,1	6,482020
2,244167	0,1	6,478654
2,245833	0,1	6,429179
2,247500	0,1	6,417618
2,249167	0,1	6,407397
2,250833	0,1	6,410659
2,252500	0,1	6,367666
2,254167	0,1	6,323666
2,255833	0,1	6,302923
2,257500	0,1	6,329429
2,259167	0,1	6,313532
2,260833	0,1	6,289532
2,262500	0,1	6,242581
2,264167	0,1	6,237326
2,265833	0,1	6,267357
2,267500	0,1	6,246570
2,269167	0,1	6,188729
2,270833	0,1	6,159464
2,272500	0,1	6,178741
2,274167	0,1	6,152818
2,275833	0,1	6,135036
2,277500	0,1	6,106784
2,279167	0,1	6,113846
2,280833	0,1	6,092848
2,282500	0,1	6,112481
2,284167	0,1	6,100479
2,285833	0,1	6,051453
2,287500	0,1	6,046785
2,289167	0,1	6,032011
2,290833	0,1	6,056836
2,292500	0,1	5,995140
2,294167	0,1	6,006940
2,295833	0,1	5,972697
2,297500	0,1	5,957831
2,299167	0,1	5,953098
2,300833	0,1	5,894190
2,302500	0,1	5,926449
2,304167	0,1	5,892584
2,305833	0,1	5,886635
2,307500	0,1	5,883011
2,309167	0,1	5,867421
2,310833	0,1	5,852265
2,312500	0,1	5,878522
2,314167	0,1	5,839173
2,315833	0,1	5,832068
2,317500	0,1	5,786666
2,319167	0,1	5,826446
2,320833	0,1	5,805067
2,322500	0,1	5,789019
2,324167	0,1	5,783076
2,325833	0,1	5,789517
2,327500	0,1	5,754058
2,329167	0,1	5,740048
2,330833	0,1	5,727303
2,332500	0,1	5,688705
2,334167	0,1	5,719791
2,335833	0,1	5,699237
2,337500	0,1	5,662848
2,339167	0,1	5,663772
2,340833	0,1	5,638379
2,342500	0,1	5,667148
2,344167	0,1	5,636299
2,345833	0,1	5,659799
2,347500	0,1	5,610255
2,349167	0,1	5,660162
2,350833	0,1	5,598404
2,352500	0,1	5,614681
2,354167	0,1	5,581474
2,355833	0,1	5,634156
2,357500	0,1	5,576992
2,359167	0,1	5,582786
2,360833	0,1	5,565631
2,362500	0,1	5,533519
2,364167	0,1	5,600823
2,365833	0,1	5,536432
2,367500	0,1	5,592852
2,369167	0,1	5,575381
2,370833	0,1	5,575269
2,372500	0,1	5,593249
2,374167	0,1	5,522697
2,375833	0,1	5,605087
2,377500	0,1	5,579262
2,379167	0,1	5,608524
2,380833	0,1	5,659383
2,382500	0,1	5,628258
2,384167	0,1	5,688051
2,385833	0,1	5,683258
2,387500	0,1	5,716648
2,389167	0,1	5,776168
2,390833	0,1	5,779346
2,392500	0,1	5,819749
2,394167	0,1	5,898272
2,395833	0,1	5,991867
2,397500	0,1	6,037516
2,399167	0,1	6,095876
2,400833	0,1	6,149263
2,402500	0,1	6,262139
2,404167	0,1	6,373511
2,405833	0,1	6,418166
2,407500	0,1	6,523300
2,409167	0,1	6,675204
2,410833	0,1	6,844137
2,412500	0,1	6,954804
2,414167	0,1	7,124278
2,415833	0,1	7,254972
2,417500	0,1	7,442754
2,419167	0,1	7,665324
2,420833	0,1	7,818125
2,422500	0,1	8,000975
2,424167	0,1	8,201008
2,425833	0,1	8,473396
2,427500	0,1	8,658473
2,429167	0,1	8,935063
2,430833	0,1	9,130334
2,432500	0,1	9,399909
2,434167	0,1	9,682923
2,435833	0,1	9,905817
2,437500	0,1	10,125722
2,439167	0,1	10,476629
2,440833	0,1	10,690980
2,442500	0,1	10,949108
2,444167	0,1	11,233195
2,445833	0,1	11,504126
2,447500	0,1	11,743671
2,449167	0,1	12,034675
2,450833	0,1	12,280855
2,452500	0,1	12,518895
2,454167	0,1	12,761312
2,455833	0,1	12,983536
2,457500	0,1	13,169424
2,459167	0,1	13,441139
2,460833	0,1	13,635029
2,462500	0,1	13,849958
2,464167	0,1	14,044777
2,465833	0,1	14,223664
2,467500	0,1	14,408367
2,469167	0,1	14,529222
2,470833	0,1	14,699763
2,472500	0,1	14,891411
2,474167	0,1	14,998521
2,475833	0,1	15,132589
2,477500	0,1	15,221654
2,479167	0,1	15,280285
2,480833	0,1	15,421748
2,482500	0,1	15,421494
2,484167	0,1	15,580298
2,485833	0,1	15,581802
2,487500	0,1	15,658686
2,489167	0,1	15,678791
2,490833	0,1	15,726292
2,492500	0,1	15,755844
2,494167	0,1	15,726841
2,495833	0,1	15,763160
2,497500	0,1	15,733504
2,499167	0,1	15,747064
2,500833	0,1	15,704355
2,502500	0,1	15,686251
2,504167	0,1	15,651525
2,505833	0,1	15,600167
2,507500	0,1	15,607339
2,509167	0,1	15,503333
2,510833	0,1	15,437620
2,512500	0,1	15,399707
2,514167	0,1	15,325653
2,515833	0,1	15,291482
2,517500	0,1	15,223412
2,519167	0,1	15,050502
2,520833	0,1	14,995010
2,522500	0,1	14,873310
2,524167	0,1	14,819202
2,525833	0,1	14,684809
2,527500	0,1	14,607975
2,529167	0,1	14,508450
2,530833	0,1	14,387672
2,532500	0,1	14,288833
2,534167	0,1	14,185094
2,535833	0,1	14,046846
2,537500	0,1	13,919468
2,539167	0,1	13,817075
2,540833	0,1	13,689239
2,542500	0,1	13,535519
2,544167	0,1	13,425963
2,545833	0,1	13,301045
2,547500	0,1	13,154284
2,549167	0,1	13,020020
2,550833	0,1	12,900549
2,552500	0,1	12,744207
2,554167	0,1	12,570567
2,555833	0,1	12,480547
2,557500	0,1	12,327360
2,559167	0,1	12,184885
2,560833	0,1	12,046994
2,562500	0,1	11,911802
2,564167	0,1	11,739830
2,565833	0,1	11,605424
2,567500	0,1	11,475773
2,569167	0,1	11,246779
2,570833	0,1	11,211315
2,572500	0,1	11,060004
2,574167	0,1	10,922657
2,575833	0,1	10,740137
2,577500	0,1	10,633947
2,579167	0,1	10,472151
2,580833	0,1	10,342375
2,582500	0,1	10,221951
2,584167	0,1	10,059941
2,585833	0,1	9,907156
2,587500	0,1	9,819951
2,589167	0,1	9,675401
2,590833	0,1	9,562879
2,592500	0,1	9,425759
2,594167	0,1	9,277908
2,595833	0,1	9,208159
2,597500	0,1	9,063495
2,599167	0,1	8,938795
2,600833	0,1	8,856371
2,602500	0,1	8,720094
2,604167	0,1	8,610178
2,605833	0,1	8,449605
2,607500	0,1	8,368076
2,609167	0,1	8,251004
2,610833	0,1	8,125162
2,612500	0,1	8,040779
2,614167	0,1	7,917814
2,615833	0,1	7,829765
2,617500	0,1	7,741828
2,619167	0,1	7,597875
2,620833	0,1	7,501203
2,622500	0,1	7,387809
2,624167	0,1	7,339676
2,625833	0,1	7,255771
2,627500	0,1	7,087085
2,629167	0,1	7,061423
2,630833	0,1	6,925792
2,632500	0,1	6,859548
2,634167	0,1	6,765118
2,635833	0,1	6,680486
2,637500	0,1	6,612787
2,639167	0,1	6,506600
2,640833	0,1	6,429268
2,642500	0,1	6,370926
2,644167	0,1	6,266852
2,645833	0,1	6,185441
2,647500	0,1	6,160792
2,649167	0,1	6,053702
2,650833	0,1	5,984168
2,652500	0,1	5,924714
2,654167	0,1	5,838679
2,655833	0,1	5,746570
2,657500	0,1	5,728238
2,659167	0,1	5,611962
2,660833	0,1	5,569537
2,662500	0,1	5,504263
2,664167	0,1	5,410945
2,665833	0,1	5,354577
2,667500	0,1	5,267980
2,669167	0,1	5,215357
2,670833	0,1	5,165629
2,672500	0,1	5,145152
2,674167	0,1	5,057643
2,675833	0,1	4,974854
2,677500	0,1	4,952237
2,679167	0,1	4,865928
2,680833	0,1	4,802009
2,682500	0,1	4,777292
2,684167	0,1	4,685794
2,685833	0,1	4,647626
2,687500	0,1	4,585492
2,689167	0,1	4,542077
2,690833	0,1	4,467265
2,692500	0,1	4,458941
2,694167	0,1	4,376539
2,695833	0,1	4,311794
2,697500	0,1	4,312347
2,699167	0,1	4,211710
2,700833	0,1	4,164919
2,702500	0,1	4,174513
2,704167	0,1	4,111516
2,705833	0,1	4,095824
2,707500	0,1	4,012694
2,709167	0,1	4,044541
2,710833	0,1	3,950156
2,712500	0,1	3,944513
2,714167	0,1	3,884775
2,715833	0,1	3,849804
2,717500	0,1	3,824265
2,719167	0,1	3,784748
2,720833	0,1	3,761517
2,722500	0,1	3,697757
2,724167	0,1	3,693469
2,725833	0,1	3,656635
2,727500	0,1	3,629608
2,729167	0,1	3,604680
2,730833	0,1	3,555639
2,732500	0,1	3,559586
2,734167	0,1	3,496766
2,735833	0,1	3,494318
2,737500	0,1	3,454579
2,739167	0,1	3,449165
2,740833	0,1	3,444090
2,742500	0,1	3,357360
2,744167	0,1	3,403566
2,745833	0,1	3,317797
2,747500	0,1	3,306709
2,749167	0,1	3,342302
2,750833	0,1	3,312549
2,752500	0,1	3,281397
2,754167	0,1	3,260989
2,755833	0,1	3,241096
2,757500	0,1	3,235406
2,759167	0,1	3,208123
2,760833	0,1	3,206142
2,762500	0,1	3,169184
2,764167	0,1	3,132168
2,765833	0,1	3,156391
2,767500	0,1	3,167861
2,769167	0,1	3,133880
2,770833	0,1	3,041679
2,772500	0,1	3,075378
2,774167	0,1	3,016378
2,775833	0,1	3,046506
2,777500	0,1	3,097454
2,779167	0,1	3,037268
2,780833	0,1	3,039840
2,782500	0,1	2,985751
2,784167	0,1	2,987405
2,785833	0,1	2,990049
2,787500	0,1	2,956308
2,789167	0,1	2,968214
2,790833	0,1	2,937808
2,792500	0,1	2,928458
2,794167	0,1	2,891216
2,795833	0,1	2,912384
2,797500	0,1	2,893286
2,799167	0,1	2,915515
2,800833	0,1	2,888630
2,802500	0,1	2,861758
2,804167	0,1	2,871462
2,805833	0,1	2,841397
2,807500	0,1	2,837166
2,809167	0,1	2,775022
2,810833	0,1	2,802171
2,812500	0,1	2,808741
2,814167	0,1	2,788408
2,815833	0,1	2,787490
2,817500	0,1	2,773275
2,819167	0,1	2,736117
2,820833	0,1	2,764869
2,822500	0,1	2,731448
2,824167	0,1	2,740553
2,825833	0,1	2,726930
2,827500	0,1	2,722196
2,829167	0,1	2,697006
2,830833	0,1	2,677053
2,832500	0,1	2,684239
2,834167	0,1	2,675187
2,835833	0,1	2,680928
2,837500	0,1	2,652166
2,839167	0,1	2,639455
2,840833	0,1	2,646200
2,842500	0,1	2,611057
2,844167	0,1	2,560773
2,845833	0,1	2,600344
2,847500	0,1	2,591329
2,849167	0,1	2,591383
2,850833	0,1	2,551817
2,852500	0,1	2,574032
2,854167	0,1	2,531799
2,855833	0,1	2,551942
2,857500	0,1	2,530083
2,859167	0,1	2,514506
2,860833	0,1	2,559099
2,862500	0,1	2,479594
2,864167	0,1	2,471762
2,865833	0,1	2,470830
2,867500	0,1	2,455846
2,869167	0,1	2,446591
2,870833	0,1	2,437911
2,872500	0,1	2,387661
2,874167	0,1	2,415388
2,875833	0,1	2,385004
2,877500	0,1	2,358186
2,879167	0,1	2,371298
2,880833	0,1	2,393232
2,882500	0,1	2,377256
2,884167	0,1	2,332095
2,885833	0,1	2,364840
2,887500	0,1	2,304140
2,889167	0,1	2,276247
2,890833	0,1	2,346980
2,892500	0,1	2,294029
2,894167	0,1	2,239767
2,895833	0,1	2,282251
2,897500	0,1	2,275595
2,899167	0,1	2,250799
2,900833	0,1	2,248142
2,902500	0,1	2,192033
2,904167	0,1	2,193241
2,905833	0,1	2,194890
2,907500	0,1	2,188513
2,909167	0,1	2,178338
2,910833	0,1	2,164576
2,912500	0,1	2,125170
2,914167	0,1	2,145149
2,915833	0,1	2,143081
2,917500	0,1	2,138060
2,919167	0,1	2,109050
2,920833	0,1	2,120005
2,922500	0,1	2,083819
2,924167	0,1	2,078736
2,925833	0,1	2,057453
2,927500	0,1	2,097709
2,929167	0,1	2,029882
2,930833	0,1	2,034034
2,932500	0,1	2,040764
2,934167	0,1	2,015482
2,935833	0,1	2,039034
2,937500	0,1	2,015616
2,939167	0,1	1,969995
2,940833	0,1	1,969473
2,942500	0,1	1,969554
2,944167	0,1	1,933661
2,945833	0,1	1,926864
2,947500	0,1	1,998982
2,949167	0,1	1,906334
2,950833	0,1	1,885824
2,952500	0,1	1,928646
2,954167	0,1	1,919135
2,955833	0,1	1,888831
2,957500	0,1	1,858607
2,959167	0,1	1,866557
2,960833	0,1	1,849085
2,962500	0,1	1,841130
2,964167	0,1	1,861747
2,965833	0,1	1,853236
2,967500	0,1	1,857840
2,969167	0,1	1,832111
2,970833	0,1	1,798532
2,972500	0,1	1,853805
2,974167	0,1	1,831971
2,975833	0,1	1,794318
2,977500	0,1	1,833680
2,979167	0,1	1,815224
2,980833	0,1	1,789518
2,982500	0,1	1,765595
2,984167	0,1	1,778832
2,985833	0,1	1,817353
2,987500	0,1	1,760884
2,989167	0,1	1,775896
2,990833	0,1	1,779209
2,992500	0,1	1,787002
2,994167	0,1	1,744197
2,995833	0,1	1,769391
2,997500	0,1	1,714194
2,999167	0,1	1,740257
3,000833	0,1	1,748646
3,002500	0,1	1,737321
3,004167	0,1	1,710195
3,005833	0,1	1,697375
3,007500	0,1	1,733167
3,009167	0,1	1,742688
3,010833	0,1	1,717558
3,012500	0,1	1,747471
3,014167	0,1	1,719859
3,015833	0,1	1,714540
3,017500	0,1	1,711535
3,019167	0,1	1,718930
3,020833	0,1	1,711627
3,022500	0,1	1,744615
3,024167	0,1	1,680555
3,025833	0,1	1,690776
3,027500	0,1	1,705376
3,029167	0,1	1,706747
3,030833	0,1	1,698571
3,032500	0,1	1,703446
3,034167	0,1	1,671310
3,035833	0,1	1,664724
3,037500	0,1	1,653991
3,039167	0,1	1,693934
3,040833	0,1	1,692435
3,042500	0,1	1,670306
3,044167	0,1	1,652969
3,045833	0,1	1,699740
3,047500	0,1	1,645109
3,049167	0,1	1,681957
3,050833	0,1	1,624507
3,052500	0,1	1,682320
3,054167	0,1	1,666370
3,055833	0,1	1,660651
3,057500	0,1	1,619625
3,059167	0,1	1,647195
3,060833	0,1	1,651410
3,062500	0,1	1,623269
3,064167	0,1	1,669152
3,065833	0,1	1,606348
3,067500	0,1	1,635564
3,069167	0,1	1,648063
3,070833	0,1	1,645108
3,072500	0,1	1,643257
3,074167	0,1	1,644187
3,075833	0,1	1,590217
3,077500	0,1	1,658839
3,079167	0,1	1,620995
3,080833	0,1	1,618985
3,082500	0,1	1,645458
3,084167	0,1	1,624787
3,085833	0,1	1,640445
3,087500	0,1	1,627210
3,089167	0,1	1,642158
3,090833	0,1	1,688904
3,092500	0,1	1,630029
3,094167	0,1	1,659286
3,095833	0,1	1,657567
3,097500	0,1	1,698305
3,099167	0,1	1,685697
3,100833	0,1	1,694136
3,102500	0,1	1,685488
3,104167	0,1	1,682680
3,105833	0,1	1,661782
3,107500	0,1	1,719748
3,109167	0,1	1,713480
3,110833	0,1	1,734528
3,112500	0,1	1,712702
3,114167	0,1	1,739938
3,115833	0,1	1,764156
3,117500	0,1	1,745688
3,119167	0,1	1,773960
3,120833	0,1	1,737604
3,122500	0,1	1,770875
3,124167	0,1	1,773113
3,125833	0,1	1,841487
3,127500	0,1	1,784440
3,129167	0,1	1,823735
3,130833	0,1	1,850868
3,132500	0,1	1,846876
3,134167	0,1	1,884248
3,135833	0,1	1,873506
3,137500	0,1	1,884813
3,139167	0,1	1,871563
3,140833	0,1	1,908371
3,142500	0,1	1,942549
3,144167	0,1	1,936170
3,145833	0,1	1,946844
3,147500	0,1	1,996323
3,149167	0,1	1,945135
3,150833	0,1	2,052343
3,152500	0,1	1,988044
3,154167	0,1	2,044759
3,155833	0,1	2,033169
3,157500	0,1	2,074282
3,159167	0,1	2,066627
3,160833	0,1	2,090407
3,162500	0,1	2,110110
3,164167	0,1	2,093275
3,165833	0,1	2,108388
3,167500	0,1	2,107895
3,169167	0,1	2,139199
3,170833	0,1	2,136489
3,172500	0,1	2,148734
3,174167	0,1	2,177252
3,175833	0,1	2,119299
3,177500	0,1	2,166856
3,179167	0,1	2,193306
3,180833	0,1	2,187723
3,182500	0,1	2,149031
3,184167	0,1	2,180979
3,185833	0,1	2,161352
3,187500	0,1	2,194591
3,189167	0,1	2,187078
3,190833	0,1	2,170022
3,192500	0,1	2,212510
3,194167	0,1	2,177766
3,195833	0,1	2,181844
3,197500	0,1	2,191304
3,199167	0,1	2,208501
3,200833	0,1	2,177263
3,202500	0,1	2,224765
3,204167	0,1	2,174477
3,205833	0,1	2,160279
3,207500	0,1	2,167294
3,209167	0,1	2,125597
3,210833	0,1	2,202966
3,212500	0,1	2,175761
3,214167	0,1	2,127171
3,215833	0,1	2,197525
3,217500	0,1	2,133489
3,219167	0,1	2,141353
3,220833	0,1	2,125738
3,222500	0,1	2,142644
3,224167	0,1	2,123657
3,225833	0,1	2,105030
3,227500	0,1	2,089694
3,229167	0,1	2,085326
3,230833	0,1	2,061105
3,232500	0,1	2,051002
3,234167	0,1	2,054797
3,235833	0,1	2,061742
3,237500	0,1	2,021561
3,239167	0,1	2,043110
3,240833	0,1	1,998284
3,242500	0,1	2,014314
3,244167	0,1	1,982451
3,245833	0,1	1,976432
3,247500	0,1	1,997056
3,249167	0,1	1,965542
3,250833	0,1	1,930094
3,252500	0,1	1,942687
3,254167	0,1	1,913333
3,255833	0,1	1,913472
3,257500	0,1	1,869932
3,259167	0,1	1,880365
3,260833	0,1	1,853241
3,262500	0,1	1,874079
3,264167	0,1	1,846291
3,265833	0,1	1,849522
3,267500	0,1	1,800904
3,269167	0,1	1,784072
3,270833	0,1	1,786071
3,272500	0,1	1,796093
3,274167	0,1	1,771673
3,275833	0,1	1,740825
3,277500	0,1	1,729589
3,279167	0,1	1,743470
3,280833	0,1	1,696657
3,282500	0,1	1,661785
3,284167	0,1	1,676463
3,285833	0,1	1,651613
3,287500	0,1	1,662084
3,289167	0,1	1,618637
3,290833	0,1	1,601090
3,292500	0,1	1,583478
3,294167	0,1	1,615919
3,295833	0,1	1,599527
3,297500	0,1	1,559735
3,299167	0,1	1,563891
3,300833	0,1	1,510434
3,302500	0,1	1,545479
3,304167	0,1	1,521307
3,305833	0,1	1,538207
3,307500	0,1	1,514746
3,309167	0,1	1,499409
3,310833	0,1	1,495103
3,312500	0,1	1,440769
3,314167	0,1	1,462816
3,315833	0,1	1,431717
3,317500	0,1	1,420123
3,319167	0,1	1,428335
3,320833	0,1	1,403740
3,322500	0,1	1,385221
3,324167	0,1	1,381931
3,325833	0,1	1,388129
3,327500	0,1	1,388858
3,329167	0,1	1,353409
3,330833	0,1	1,363071
3,332500	0,1	1,361905
3,334167	0,1	1,334719
3,335833	0,1	1,290038
3,337500	0,1	1,321409
3,339167	0,1	1,333152
3,340833	0,1	1,268343
3,342500	0,1	1,294509
3,344167	0,1	1,271724
3,345833	0,1	1,299561
3,347500	0,1	1,264983
3,349167	0,1	1,285651
3,350833	0,1	1,263424
3,352500	0,1	1,218932
3,354167	0,1	1,263252
3,355833	0,1	1,225147
3,357500	0,1	1,239043
3,359167	0,1	1,207635
3,360833	0,1	1,204477
3,362500	0,1	1,204167
3,364167	0,1	1,197886
3,365833	0,1	1,216231
3,367500	0,1	1,202858
3,369167	0,1	1,222510
3,370833	0,1	1,155118
3,372500	0,1	1,172449
3,374167	0,1	1,145413
3,375833	0,1	1,183584
3,377500	0,1	1,111255
3,379167	0,1	1,143269
3,380833	0,1	1,121404
3,382500	0,1	1,141008
3,384167	0,1	1,131540
3,385833	0,1	1,150127
3,387500	0,1	1,120940
3,389167	0,1	1,142094
3,390833	0,1	1,119451
3,392500	0,1	1,124659
3,394167	0,1	1,133377
3,395833	0,1	1,145491
3,397500	0,1	1,115259
3,399167	0,1	1,099527
3,400833	0,1	1,139626
3,402500	0,1	1,129234
3,404167	0,1	1,096979
3,405833	0,1	1,041922
3,407500	0,1	1,049494
3,409167	0,1	1,098756
3,410833	0,1	1,080936
3,412500	0,1	1,062036
3,414167	0,1	1,066752
3,415833	0,1	1,072588
3,417500	0,1	1,073233
3,419167	0,1	1,029564
3,420833	0,1	1,115056
3,422500	0,1	1,049934
3,424167	0,1	1,026633
3,425833	0,1	1,080898
3,427500	0,1	1,067026
3,429167	0,1	1,056045
3,430833	0,1	1,019667
3,432500	0,1	1,018728
3,434167	0,1	1,020903
3,435833	0,1	1,045476
3,437500	0,1	1,001657
3,439167	0,1	1,079382
3,440833	0,1	0,985878
3,442500	0,1	1,008651
3,444167	0,1	1,029681
3,445833	0,1	1,019661
3,447500	0,1	1,018751
3,449167	0,1	1,038003
3,450833	0,1	1,016165
3,452500	0,1	0,999589
3,454167	0,1	0,996946
3,455833	0,1	0,974019
3,457500	0,1	0,987475
3,459167	0,1	0,969935
3,460833	0,1	1,043780
3,462500	0,1	0,986694
3,464167	0,1	0,963504
3,465833	0,1	1,005232
3,467500	0,1	0,969454
3,469167	0,1	0,983368
3,470833	0,1	0,946431
3,472500	0,1	0,975960
3,474167	0,1	0,984484
3,475833	0,1	0,959711
3,477500	0,1	0,958906
3,479167	0,1	0,936137
3,480833	0,1	0,918706
3,482500	0,1	0,980101
3,484167	0,1	0,958606
3,485833	0,1	0,962343
3,487500	0,1	0,962881
3,489167	0,1	0,950060
3,490833	0,1	0,938863
3,492500	0,1	0,945003
3,494167	0,1	0,940883
3,495833	0,1	0,969660
3,497500	0,1	0,945010
3,499167	0,1	0,976355
3,500833	0,1	0,964590
3,502500	0,1	0,902991
3,504167	0,1	0,923748
3,505833	0,1	0,950497
3,507500	0,1	0,917357
3,509167	0,1	0,973447
3,510833	0,1	0,958054
3,512500	0,1	0,936950
3,514167	0,1	0,955381
3,515833	0,1	0,924522
3,517500	0,1	0,978081
3,519167	0,1	0,941062
3,520833	0,1	0,981854
3,522500	0,1	0,923860
3,524167	0,1	0,953359
3,525833	0,1	0,943655
3,527500	0,1	0,934689
3,529167	0,1	0,964095
3,530833	0,1	0,956006
3,532500	0,1	0,941018
3,534167	0,1	0,921279
3,535833	0,1	0,939015
3,537500	0,1	0,956799
3,539167	0,1	0,958155
3,540833	0,1	0,958616
3,542500	0,1	0,937893
3,544167	0,1	0,942455
3,545833	0,1	0,902789
3,547500	0,1	0,922974
3,549167	0,1	0,940498
3,550833	0,1	0,934557
3,552500	0,1	0,988439
3,554167	0,1	0,910176
3,555833	0,1	0,884754
3,557500	0,1	0,903459
3,559167	0,1	0,942488
3,560833	0,1	0,951012
3,562500	0,1	0,908197
3,564167	0,1	0,931911
3,565833	0,1	0,912918
3,567500	0,1	0,919814
3,569167	0,1	0,947726
3,570833	0,1	0,897070
3,572500	0,1	0,923799
3,574167	0,1	0,902208
3,575833	0,1	0,867971
3,577500	0,1	0,865391
3,579167	0,1	0,929422
3,580833	0,1	0,966681
3,582500	0,1	0,927359
3,584167	0,1	0,904006
3,585833	0,1	0,902400
3,587500	0,1	0,888766
3,589167	0,1	0,889696
3,590833	0,1	0,890364
3,592500	0,1	0,907371
3,594167	0,1	0,902650
3,595833	0,1	0,886260
3,597500	0,1	0,922486
3,599167	0,1	0,895463
3,600833	0,1	0,901374
3,602500	0,1	0,894081
3,604167	0,1	0,867483
3,605833	0,1	0,895739
3,607500	0,1	0,890562
3,609167	0,1	0,848010
3,610833	0,1	0,853684
3,612500	0,1	0,906981
3,614167	0,1	0,895172
3,615833	0,1	0,864781
3,617500	0,1	0,875808
3,619167	0,1	0,882817
3,620833	0,1	0,906108
3,622500	0,1	0,839777
3,624167	0,1	0,870909
3,625833	0,1	0,846945
3,627500	0,1	0,837165
3,629167	0,1	0,865319
3,630833	0,1	0,841288
3,632500	0,1	0,831313
3,634167	0,1	0,839351
3,635833	0,1	0,861462
3,637500	0,1	0,851981
3,639167	0,1	0,833887
3,640833	0,1	0,842250
3,642500	0,1	0,849023
3,644167	0,1	0,818494
3,645833	0,1	0,838350
3,647500	0,1	0,814664
3,649167	0,1	0,813725
3,650833	0,1	0,812860
3,652500	0,1	0,836514
3,654167	0,1	0,807880
3,655833	0,1	0,871282
3,657500	0,1	0,843942
3,659167	0,1	0,818493
3,660833	0,1	0,827542
3,662500	0,1	0,804889
3,664167	0,1	0,822305
3,665833	0,1	0,795021
3,667500	0,1	0,828561
3,669167	0,1	0,802066
3,670833	0,1	0,787107
3,672500	0,1	0,817605
3,674167	0,1	0,809031
3,675833	0,1	0,784668
3,677500	0,1	0,774668
3,679167	0,1	0,792858
3,680833	0,1	0,804042
3,682500	0,1	0,822239
3,684167	0,1	0,815078
3,685833	0,1	0,813364
3,687500	0,1	0,766969
3,689167	0,1	0,785105
3,690833	0,1	0,796457
3,692500	0,1	0,808356
3,694167	0,1	0,755809
3,695833	0,1	0,833313
3,697500	0,1	0,786762
3,699167	0,1	0,781261
3,700833	0,1	0,800834
3,702500	0,1	0,793982
3,704167	0,1	0,784477
3,705833	0,1	0,805578
3,707500	0,1	0,793406
3,709167	0,1	0,776338
3,710833	0,1	0,768563
3,712500	0,1	0,795065
3,714167	0,1	0,813303
3,715833	0,1	0,808639
3,717500	0,1	0,766735
3,719167	0,1	0,777652
3,720833	0,1	0,747671
3,722500	0,1	0,802073
3,724167	0,1	0,754747
3,725833	0,1	0,793068
3,727500	0,1	0,784281
3,729167	0,1	0,736521
3,730833	0,1	0,768581
3,732500	0,1	0,803011
3,734167	0,1	0,799198
3,735833	0,1	0,796626
3,737500	0,1	0,789202
3,739167	0,1	0,805718
3,740833	0,1	0,769696
3,742500	0,1	0,785404
3,744167	0,1	0,760080
3,745833	0,1	0,764898
3,747500	0,1	0,826244
3,749167	0,1	0,761981
3,750833	0,1	0,784434
3,752500	0,1	0,767728
3,754167	0,1	0,809057
3,755833	0,1	0,795213
3,757500	0,1	0,823914
3,759167	0,1	0,809396
3,760833	0,1	0,791003
3,762500	0,1	0,822432
3,764167	0,1	0,800388
3,765833	0,1	0,799748
3,767500	0,1	0,809512
3,769167	0,1	0,810865
3,770833	0,1	0,823181
3,772500	0,1	0,779024
3,774167	0,1	0,782350
3,775833	0,1	0,859781
3,777500	0,1	0,823799
3,779167	0,1	0,857572
3,780833	0,1	0,854878
3,782500	0,1	0,806059
3,784167	0,1	0,780175
3,785833	0,1	0,801886
3,787500	0,1	0,809744
3,789167	0,1	0,839652
3,790833	0,1	0,812158
3,792500	0,1	0,846248
3,794167	0,1	0,839381
3,795833	0,1	0,854939
3,797500	0,1	0,844500
3,799167	0,1	0,859850
3,800833	0,1	0,848609
3,802500	0,1	0,824596
3,804167	0,1	0,842554
3,805833	0,1	0,828396
3,807500	0,1	0,804729
3,809167	0,1	0,857818
3,810833	0,1	0,850062
3,812500	0,1	0,851204
3,814167	0,1	0,790658
3,815833	0,1	0,816451
3,817500	0,1	0,874286
3,819167	0,1	0,819564
3,820833	0,1	0,819094
3,822500	0,1	0,853361
3,824167	0,1	0,835004
3,825833	0,1	0,872939
3,827500	0,1	0,821966
3,829167	0,1	0,815368
3,830833	0,1	0,822111
3,832500	0,1	0,838194
3,834167	0,1	0,829028
3,835833	0,1	0,815239
3,837500	0,1	0,833692
3,839167	0,1	0,813377
3,840833	0,1	0,820535
3,842500	0,1	0,817071
3,844167	0,1	0,781241
3,845833	0,1	0,789421
3,847500	0,1	0,793092
3,849167	0,1	0,806006
3,850833	0,1	0,817776
3,852500	0,1	0,812544
3,854167	0,1	0,824822
3,855833	0,1	0,776258
3,857500	0,1	0,802053
3,859167	0,1	0,791775
3,860833	0,1	0,786209
3,862500	0,1	0,794277
3,864167	0,1	0,771529
3,865833	0,1	0,806253
3,867500	0,1	0,844449
3,869167	0,1	0,804324
3,870833	0,1	0,814235
3,872500	0,1	0,774074
3,874167	0,1	0,789067
3,875833	0,1	0,786182
3,877500	0,1	0,796205
3,879167	0,1	0,773167
3,880833	0,1	0,778817
3,882500	0,1	0,785246
3,884167	0,1	0,776466
3,885833	0,1	0,828540
3,887500	0,1	0,756911
3,889167	0,1	0,751946
3,890833	0,1	0,787841
3,892500	0,1	0,746394
3,894167	0,1	0,793269
3,895833	0,1	0,756290
3,897500	0,1	0,803464
3,899167	0,1	0,761722
3,900833	0,1	0,757315
3,902500	0,1	0,737454
3,904167	0,1	0,779191
3,905833	0,1	0,736526
3,907500	0,1	0,767809
3,909167	0,1	0,767464
3,910833	0,1	0,725817
3,912500	0,1	0,756274
3,914167	0,1	0,752938
3,915833	0,1	0,741498
3,917500	0,1	0,753423
3,919167	0,1	0,733430
3,920833	0,1	0,751452
3,922500	0,1	0,752807
3,924167	0,1	0,760202
3,925833	0,1	0,733787
3,927500	0,1	0,691587
3,929167	0,1	0,735439
3,930833	0,1	0,735190
3,932500	0,1	0,774814
3,934167	0,1	0,716054
3,935833	0,1	0,725320
3,937500	0,1	0,722723
3,939167	0,1	0,754250
3,940833	0,1	0,733236
3,942500	0,1	0,686032
3,944167	0,1	0,718603
3,945833	0,1	0,666427
3,947500	0,1	0,670235
3,949167	0,1	0,736466
3,950833	0,1	0,707654
3,952500	0,1	0,737146
3,954167	0,1	0,736121
3,955833	0,1	0,721889
3,957500	0,1	0,711542
3,959167	0,1	0,688723
3,960833	0,1	0,688783
3,962500	0,1	0,695916
3,964167	0,1	0,686663
3,965833	0,1	0,707613
3,967500	0,1	0,704983
3,969167	0,1	0,716390
3,970833	0,1	0,696983
3,972500	0,1	0,725386
3,974167	0,1	0,716843
3,975833	0,1	0,668322
3,977500	0,1	0,696518
3,979167	0,1	0,696271
3,980833	0,1	0,708961
3,982500	0,1	0,688048
3,984167	0,1	0,665328
3,985833	0,1	0,677145
3,987500	0,1	0,663750
3,989167	0,1	0,729648
3,990833	0,1	0,717357
3,992500	0,1	0,702189
3,994167	0,1	0,697205
3,995833	0,1	0,701638
3,997500	0,1	0,694857
3,999167	0,1	0,696112
4,000833	0,1	0,715582
4,002500	0,1	0,686697
4,004167	0,1	0,717383
4,005833	0,1	0,730369
4,007500	0,1	0,712151
4,009167	0,1	0,734477
4,010833	0,1	0,735737
4,012500	0,1	0,698951
4,014167	0,1	0,721247
4,015833	0,1	0,720952
4,017500	0,1	0,690528
4,019167	0,1	0,771302
4,020833	0,1	0,723859
4,022500	0,1	0,688148
4,024167	0,1	0,732324
4,025833	0,1	0,731334
4,027500	0,1	0,776936
4,029167	0,1	0,745323
4,030833	0,1	0,744969
4,032500	0,1	0,737160
4,034167	0,1	0,726782
4,035833	0,1	0,722882
4,037500	0,1	0,737662
4,039167	0,1	0,719194
4,040833	0,1	0,727220
4,042500	0,1	0,724431
4,044167	0,1	0,766780
4,045833	0,1	0,795137
4,047500	0,1	0,779365
4,049167	0,1	0,748732
4,050833	0,1	0,797799
4,052500	0,1	0,783808
4,054167	0,1	0,808706
4,055833	0,1	0,813277
4,057500	0,1	0,830187
4,059167	0,1	0,806276
4,060833	0,1	0,834425
4,062500	0,1	0,805504
4,064167	0,1	0,860811
4,065833	0,1	0,845722
4,067500	0,1	0,863850
4,069167	0,1	0,895449
4,070833	0,1	0,869293
4,072500	0,1	0,912875
4,074167	0,1	0,866344
4,075833	0,1	0,903901
4,077500	0,1	0,904303
4,079167	0,1	0,923133
4,080833	0,1	0,941757
4,082500	0,1	0,944426
4,084167	0,1	0,944795
4,085833	0,1	0,975712
4,087500	0,1	1,001310
4,089167	0,1	0,978603
4,090833	0,1	1,008362
4,092500	0,1	1,005334
4,094167	0,1	0,988877
4,095833	0,1	0,995410
4,097500	0,1	1,012225
4,099167	0,1	1,033475
4,100833	0,1	1,077326
4,102500	0,1	1,087007
4,104167	0,1	1,081775
4,105833	0,1	1,085589
4,107500	0,1	1,106662
4,109167	0,1	1,128161
4,110833	0,1	1,130163
4,112500	0,1	1,206522
4,114167	0,1	1,148061
4,115833	0,1	1,198249
4,117500	0,1	1,160216
4,119167	0,1	1,187139
4,120833	0,1	1,200832
4,122500	0,1	1,222201
4,124167	0,1	1,250115
4,125833	0,1	1,261531
4,127500	0,1	1,261756
4,129167	0,1	1,240366
4,130833	0,1	1,294166
4,132500	0,1	1,306473
4,134167	0,1	1,308522
4,135833	0,1	1,313738
4,137500	0,1	1,365890
4,139167	0,1	1,313869
4,140833	0,1	1,371751
4,142500	0,1	1,355300
4,144167	0,1	1,400658
4,145833	0,1	1,422046
4,147500	0,1	1,406501
4,149167	0,1	1,452454
4,150833	0,1	1,424938
4,152500	0,1	1,440024
4,154167	0,1	1,422259
4,155833	0,1	1,441414
4,157500	0,1	1,443639
4,159167	0,1	1,482047
4,160833	0,1	1,498250
4,162500	0,1	1,478606
4,164167	0,1	1,467043
4,165833	0,1	1,511383
4,167500	0,1	1,519286
4,169167	0,1	1,541905
4,170833	0,1	1,526935
4,172500	0,1	1,520509
4,174167	0,1	1,552920
4,175833	0,1	1,552476
4,177500	0,1	1,495222
4,179167	0,1	1,570725
4,180833	0,1	1,579169
4,182500	0,1	1,525712
4,184167	0,1	1,571445
4,185833	0,1	1,591926
4,187500	0,1	1,571953
4,189167	0,1	1,591762
4,190833	0,1	1,558293
4,192500	0,1	1,554490
4,194167	0,1	1,603350
4,195833	0,1	1,606745
4,197500	0,1	1,605895
4,199167	0,1	1,577451
4,200833	0,1	1,581254
4,202500	0,1	1,608165
4,204167	0,1	1,597661
4,205833	0,1	1,586548
4,207500	0,1	1,604302
4,209167	0,1	1,593221
4,210833	0,1	1,582806
4,212500	0,1	1,599218
4,214167	0,1	1,602906
4,215833	0,1	1,593839
4,217500	0,1	1,610606
4,219167	0,1	1,616338
4,220833	0,1	1,589140
4,222500	0,1	1,571953
4,224167	0,1	1,540396
4,225833	0,1	1,567296
4,227500	0,1	1,570167
4,229167	0,1	1,581539
4,230833	0,1	1,548974
4,232500	0,1	1,575327
4,234167	0,1	1,528589
4,235833	0,1	1,594628
4,237500	0,1	1,537963
4,239167	0,1	1,555624
4,240833	0,1	1,551709
4,242500	0,1	1,530173
4,244167	0,1	1,579049
4,245833	0,1	1,518658
4,247500	0,1	1,505985
4,249167	0,1	1,500733
4,250833	0,1	1,500020
4,252500	0,1	1,464572
4,254167	0,1	1,486763
4,255833	0,1	1,496442
4,257500	0,1	1,449969
4,259167	0,1	1,461871
4,260833	0,1	1,464109
4,262500	0,1	1,441578
4,264167	0,1	1,412551
4,265833	0,1	1,427722
4,267500	0,1	1,426778
4,269167	0,1	1,415495
4,270833	0,1	1,426335
4,272500	0,1	1,415716
4,274167	0,1	1,404109
4,275833	0,1	1,372330
4,277500	0,1	1,379131
4,279167	0,1	1,405948
4,280833	0,1	1,353580
4,282500	0,1	1,355399
4,284167	0,1	1,370406
4,285833	0,1	1,322150
4,287500	0,1	1,330879
4,289167	0,1	1,326058
4,290833	0,1	1,344805
4,292500	0,1	1,282368
4,294167	0,1	1,311801
4,295833	0,1	1,280073
4,297500	0,1	1,298747
4,299167	0,1	1,277074
4,300833	0,1	1,285722
4,302500	0,1	1,274565
4,304167	0,1	1,246295
4,305833	0,1	1,230376
4,307500	0,1	1,225466
4,309167	0,1	1,227556
4,310833	0,1	1,193343
4,312500	0,1	1,215631
4,314167	0,1	1,209827
4,315833	0,1	1,224201
4,317500	0,1	1,174952
4,319167	0,1	1,177935
4,320833	0,1	1,140865
4,322500	0,1	1,135533
4,324167	0,1	1,126283
4,325833	0,1	1,140966
4,327500	0,1	1,142966
4,329167	0,1	1,183739
4,330833	0,1	1,098323
4,332500	0,1	1,106599
4,334167	0,1	1,102031
4,335833	0,1	1,065699
4,337500	0,1	1,105591
4,339167	0,1	1,084730
4,340833	0,1	1,077937
4,342500	0,1	1,061834
4,344167	0,1	1,068549
4,345833	0,1	1,049122
4,347500	0,1	1,054241
4,349167	0,1	1,050828
4,350833	0,1	1,004182
4,352500	0,1	1,029614
4,354167	0,1	1,004539
4,355833	0,1	1,053212
4,357500	0,1	0,987115
4,359167	0,1	0,982021
4,360833	0,1	1,013795
4,362500	0,1	0,966594
4,364167	0,1	0,968775
4,365833	0,1	0,973145
4,367500	0,1	0,943082
4,369167	0,1	0,955176
4,370833	0,1	0,954769
4,372500	0,1	0,946490
4,374167	0,1	0,897556
4,375833	0,1	0,951528
4,377500	0,1	0,916373
4,379167	0,1	0,916298
4,380833	0,1	0,869613
4,382500	0,1	0,950418
4,384167	0,1	0,851174
4,385833	0,1	0,896956
4,387500	0,1	0,890984
4,389167	0,1	0,866524
4,390833	0,1	0,914987
4,392500	0,1	0,853700
4,394167	0,1	0,872551
4,395833	0,1	0,888091
4,397500	0,1	0,854217
4,399167	0,1	0,879558
4,400833	0,1	0,851327
4,402500	0,1	0,857030
4,404167	0,1	0,880398
4,405833	0,1	0,846565
4,407500	0,1	0,855191
4,409167	0,1	0,833281
4,410833	0,1	0,821035
4,412500	0,1	0,799875
4,414167	0,1	0,807489
4,415833	0,1	0,832627
4,417500	0,1	0,804917
4,419167	0,1	0,764488
4,420833	0,1	0,824893
4,422500	0,1	0,776801
4,424167	0,1	0,821394
4,425833	0,1	0,818321
4,427500	0,1	0,786636
4,429167	0,1	0,727913
4,430833	0,1	0,729638
4,432500	0,1	0,798568
4,434167	0,1	0,779010
4,435833	0,1	0,759528
4,437500	0,1	0,751595
4,439167	0,1	0,749145
4,440833	0,1	0,749432
4,442500	0,1	0,760359
4,444167	0,1	0,748727
4,445833	0,1	0,742557
4,447500	0,1	0,754213
4,449167	0,1	0,693426
4,450833	0,1	0,758800
4,452500	0,1	0,713702
4,454167	0,1	0,717284
4,455833	0,1	0,726606
4,457500	0,1	0,711443
4,459167	0,1	0,687859
4,460833	0,1	0,716227
4,462500	0,1	0,677222
4,464167	0,1	0,669598
4,465833	0,1	0,694207
4,467500	0,1	0,652348
4,469167	0,1	0,670939
4,470833	0,1	0,665676
4,472500	0,1	0,675828
4,474167	0,1	0,685854
4,475833	0,1	0,633776
4,477500	0,1	0,640219
4,479167	0,1	0,657637
4,480833	0,1	0,653754
4,482500	0,1	0,650346
4,484167	0,1	0,636625
4,485833	0,1	0,647419
4,487500	0,1	0,611984
4,489167	0,1	0,636937
4,490833	0,1	0,628495
4,492500	0,1	0,630292
4,494167	0,1	0,620397
4,495833	0,1	0,641244
4,497500	0,1	0,609862
4,499167	0,1	0,569087
4,500833	0,1	0,598408
4,502500	0,1	0,623795
4,504167	0,1	0,540116
4,505833	0,1	0,605147
4,507500	0,1	0,606448
4,509167	0,1	0,601917
4,510833	0,1	0,579205
4,512500	0,1	0,534870
4,514167	0,1	0,581566
4,515833	0,1	0,594235
4,517500	0,1	0,568570
4,519167	0,1	0,563743
4,520833	0,1	0,570492
4,522500	0,1	0,578619
4,524167	0,1	0,507569
4,525833	0,1	0,523545
4,527500	0,1	0,545266
4,529167	0,1	0,526156
4,530833	0,1	0,536238
4,532500	0,1	0,536854
4,534167	0,1	0,519666
4,535833	0,1	0,534085
4,537500	0,1	0,569841
4,539167	0,1	0,557513
4,540833	0,1	0,549449
4,542500	0,1	0,500688
4,544167	0,1	0,514872
4,545833	0,1	0,504179
4,547500	0,1	0,499234
4,549167	0,1	0,513009
4,550833	0,1	0,538261
4,552500	0,1	0,521785
4,554167	0,1	0,467243
4,555833	0,1	0,498901
4,557500	0,1	0,464571
4,559167	0,1	0,490713
4,560833	0,1	0,465054
4,562500	0,1	0,484996
4,564167	0,1	0,494636
4,565833	0,1	0,474535
4,567500	0,1	0,499094
4,569167	0,1	0,495218
4,570833	0,1	0,467370
4,572500	0,1	0,483579
4,574167	0,1	0,445593
4,575833	0,1	0,500344
4,577500	0,1	0,470455
4,579167	0,1	0,456672
4,580833	0,1	0,475392
4,582500	0,1	0,457506
4,584167	0,1	0,476672
4,585833	0,1	0,449254
4,587500	0,1	0,431130
4,589167	0,1	0,485184
4,590833	0,1	0,423114
4,592500	0,1	0,425443
4,594167	0,1	0,442976
4,595833	0,1	0,426352
4,597500	0,1	0,450232
4,599167	0,1	0,429882
4,600833	0,1	0,416551
4,602500	0,1	0,454090
4,604167	0,1	0,426989
4,605833	0,1	0,410799
4,607500	0,1	0,433499
4,609167	0,1	0,417258
4,610833	0,1	0,405976
4,612500	0,1	0,416963
4,614167	0,1	0,407620
4,615833	0,1	0,430133
4,617500	0,1	0,417963
4,619167	0,1	0,369506
4,620833	0,1	0,372867
4,622500	0,1	0,429184
4,624167	0,1	0,414561
4,625833	0,1	0,370790
4,627500	0,1	0,389564
4,629167	0,1	0,399907
4,630833	0,1	0,390530
4,632500	0,1	0,406646
4,634167	0,1	0,381189
4,635833	0,1	0,359311
4,637500	0,1	0,375234
4,639167	0,1	0,377971
4,640833	0,1	0,389151
4,642500	0,1	0,359955
4,644167	0,1	0,361748
4,645833	0,1	0,337157
4,647500	0,1	0,364574
4,649167	0,1	0,362265
4,650833	0,1	0,364545
4,652500	0,1	0,393833
4,654167	0,1	0,371715
4,655833	0,1	0,346024
4,657500	0,1	0,314455
4,659167	0,1	0,368611
4,660833	0,1	0,317280
4,662500	0,1	0,363096
4,664167	0,1	0,341175
4,665833	0,1	0,357891
4,667500	0,1	0,335230
4,669167	0,1	0,292684
4,670833	0,1	0,332709
4,672500	0,1	0,319462
4,674167	0,1	0,346439
4,675833	0,1	0,324098
4,677500	0,1	0,339780
4,679167	0,1	0,323920
4,680833	0,1	0,329229
4,682500	0,1	0,326197
4,684167	0,1	0,336960
4,685833	0,1	0,340878
4,687500	0,1	0,356771
4,689167	0,1	0,328268
4,690833	0,1	0,311402
4,692500	0,1	0,341226
4,694167	0,1	0,344960
4,695833	0,1	0,324575
4,697500	0,1	0,342412
4,699167	0,1	0,329258
4,700833	0,1	0,302049
4,702500	0,1	0,307166
4,704167	0,1	0,338113
4,705833	0,1	0,328615
4,707500	0,1	0,336507
4,709167	0,1	0,307174
4,710833	0,1	0,314961
4,712500	0,1	0,319632
4,714167	0,1	0,319522
4,715833	0,1	0,312786
4,717500	0,1	0,272156
4,719167	0,1	0,306153
4,720833	0,1	0,291744
4,722500	0,1	0,304810
4,724167	0,1	0,307004
4,725833	0,1	0,284595
4,727500	0,1	0,254792
4,729167	0,1	0,290739
4,730833	0,1	0,308309
4,732500	0,1	0,264679
4,734167	0,1	0,294530
4,735833	0,1	0,282564
4,737500	0,1	0,318166
4,739167	0,1	0,291747
4,740833	0,1	0,280574
4,742500	0,1	0,295818
4,744167	0,1	0,281836
4,745833	0,1	0,251127
4,747500	0,1	0,297019
4,749167	0,1	0,276561
4,750833	0,1	0,281980
4,752500	0,1	0,261437
4,754167	0,1	0,258926
4,755833	0,1	0,298809
4,757500	0,1	0,257175
4,759167	0,1	0,250454
4,760833	0,1	0,307405
4,762500	0,1	0,308163
4,764167	0,1	0,271981
4,765833	0,1	0,296270
4,767500	0,1	0,289541
4,769167	0,1	0,252513
4,770833	0,1	0,282782
4,772500	0,1	0,248825
4,774167	0,1	0,241855
4,775833	0,1	0,264512
4,777500	0,1	0,286409
4,779167	0,1	0,254290
4,780833	0,1	0,246804
4,782500	0,1	0,258030
4,784167	0,1	0,225066
4,785833	0,1	0,285671
4,787500	0,1	0,280864
4,789167	0,1	0,241449
4,790833	0,1	0,263972
4,792500	0,1	0,222255
4,794167	0,1	0,224813
4,795833	0,1	0,227234
4,797500	0,1	0,240403
4,799167	0,1	0,234338
4,800833	0,1	0,248397
4,802500	0,1	0,242106
4,804167	0,1	0,239662
4,805833	0,1	0,295266
4,807500	0,1	0,227956
4,809167	0,1	0,223421
4,810833	0,1	0,257596
4,812500	0,1	0,230036
4,814167	0,1	0,220941
4,815833	0,1	0,231640
4,817500	0,1	0,225144
4,819167	0,1	0,240174
4,820833	0,1	0,214749
4,822500	0,1	0,240337
4,824167	0,1	0,287273
4,825833	0,1	0,196866
4,827500	0,1	0,260837
4,829167	0,1	0,243887
4,830833	0,1	0,243389
4,832500	0,1	0,197747
4,834167	0,1	0,255287
4,835833	0,1	0,260500
4,837500	0,1	0,209761
4,839167	0,1	0,234205
4,840833	0,1	0,230650
4,842500	0,1	0,197706
4,844167	0,1	0,219086
4,845833	0,1	0,271406
4,847500	0,1	0,189058
4,849167	0,1	0,261580
4,850833	0,1	0,229623
4,852500	0,1	0,205676
4,854167	0,1	0,253363
4,855833	0,1	0,207153
4,857500	0,1	0,229069
4,859167	0,1	0,207397
4,860833	0,1	0,214141
4,862500	0,1	0,198923
4,864167	0,1	0,257025
4,865833	0,1	0,253829
4,867500	0,1	0,235086
4,869167	0,1	0,219987
4,870833	0,1	0,198345
4,872500	0,1	0,229608
4,874167	0,1	0,221270
4,875833	0,1	0,231452
4,877500	0,1	0,206277
4,879167	0,1	0,214782
4,880833	0,1	0,215965
4,882500	0,1	0,185857
4,884167	0,1	0,212123
4,885833	0,1	0,187077
4,887500	0,1	0,202376
4,889167	0,1	0,280755
4,890833	0,1	0,212937
4,892500	0,1	0,214659
4,894167	0,1	0,202047
4,895833	0,1	0,211860
4,897500	0,1	0,208489
4,899167	0,1	0,179498
4,900833	0,1	0,231818
4,902500	0,1	0,260469
4,904167	0,1	0,186634
4,905833	0,1	0,235295
4,907500	0,1	0,235996
4,909167	0,1	0,235269
4,910833	0,1	0,234690
4,912500	0,1	0,211329
4,914167	0,1	0,228428
4,915833	0,1	0,197393
4,917500	0,1	0,233106
4,919167	0,1	0,185323
4,920833	0,1	0,206182
4,922500	0,1	0,257957
4,924167	0,1	0,207858
4,925833	0,1	0,181340
4,927500	0,1	0,230700
4,929167	0,1	0,191450
4,930833	0,1	0,212995
4,932500	0,1	0,222754
4,934167	0,1	0,190289
4,935833	0,1	0,201235
4,937500	0,1	0,171835
4,939167	0,1	0,175264
4,940833	0,1	0,206860
4,942500	0,1	0,193575
4,944167	0,1	0,235259
4,945833	0,1	0,243199
4,947500	0,1	0,224896
4,949167	0,1	0,242366
4,950833	0,1	0,211040
4,952500	0,1	0,215134
4,954167	0,1	0,190703
4,955833	0,1	0,198314
4,957500	0,1	0,228691
4,959167	0,1	0,173022
4,960833	0,1	0,201127
4,962500	0,1	0,195811
4,964167	0,1	0,204367
4,965833	0,1	0,232732
4,967500	0,1	0,172547
4,969167	0,1	0,190402
4,970833	0,1	0,201836
4,972500	0,1	0,186911
4,974167	0,1	0,188087
4,975833	0,1	0,225792
4,977500	0,1	0,220439
4,979167	0,1	0,214103
4,980833	0,1	0,205773
4,982500	0,1	0,187491
4,984167	0,1	0,205562
4,985833	0,1	0,218860
4,987500	0,1	0,215552
4,989167	0,1	0,206790
4,990833	0,1	0,207142
4,992500	0,1	0,190389
4,994167	0,1	0,244785
4,995833	0,1	0,223779
4,997500	0,1	0,205799
4,999167	0,1	0,211861
5,000833	0,1	0,203972
5,002500	0,1	0,176516
5,004167	0,1	0,213967
5,005833	0,1	0,194305
5,007500	0,1	0,193180
5,009167	0,1	0,217926
5,010833	0,1	0,205014
5,012500	0,1	0,182377
5,014167	0,1	0,224139
5,015833	0,1	0,172833
5,017500	0,1	0,221670
5,019167	0,1	0,217892
5,020833	0,1	0,230067
5,022500	0,1	0,232371
5,024167	0,1	0,212033
5,025833	0,1	0,178693
5,027500	0,1	0,223785
5,029167	0,1	0,221290
5,030833	0,1	0,205695
5,032500	0,1	0,185854
5,034167	0,1	0,178539
5,035833	0,1	0,200136
5,037500	0,1	0,219813
5,039167	0,1	0,205736
5,040833	0,1	0,194615
5,042500	0,1	0,226005
5,044167	0,1	0,223712
5,045833	0,1	0,195220
5,047500	0,1	0,216023
5,049167	0,1	0,196707
5,050833	0,1	0,203350
5,052500	0,1	0,174135
5,054167	0,1	0,198459
5,055833	0,1	0,231080
5,057500	0,1	0,205493
5,059167	0,1	0,204698
5,060833	0,1	0,225279
5,062500	0,1	0,241646
5,064167	0,1	0,188555
5,065833	0,1	0,196020
5,067500	0,1	0,222467
5,069167	0,1	0,216217
5,070833	0,1	0,238700
5,072500	0,1	0,222415
5,074167	0,1	0,245585
5,075833	0,1	0,194375
5,077500	0,1	0,233834
5,079167	0,1	0,198723
5,080833	0,1	0,185148
5,082500	0,1	0,209375
5,084167	0,1	0,217060
5,085833	0,1	0,206440
5,087500	0,1	0,187429
5,089167	0,1	0,231923
5,090833	0,1	0,222633
5,092500	0,1	0,224728
5,094167	0,1	0,219490
5,095833	0,1	0,194452
5,097500	0,1	0,212171
5,099167	0,1	0,191695
5,100833	0,1	0,224471
5,102500	0,1	0,210293
5,104167	0,1	0,254977
5,105833	0,1	0,202948
5,107500	0,1	0,246551
5,109167	0,1	0,226535
5,110833	0,1	0,236285
5,112500	0,1	0,244257
5,114167	0,1	0,190523
5,115833	0,1	0,230020
5,117500	0,1	0,217606
5,119167	0,1	0,204639
5,120833	0,1	0,225491
5,122500	0,1	0,246619
5,124167	0,1	0,221171
5,125833	0,1	0,217291
5,127500	0,1	0,227208
5,129167	0,1	0,219365
5,130833	0,1	0,205531
5,132500	0,1	0,200931
5,134167	0,1	0,225444
5,135833	0,1	0,184700
5,137500	0,1	0,189183
5,139167	0,1	0,231241
5,140833	0,1	0,195905
5,142500	0,1	0,199974
5,144167	0,1	0,219813
5,145833	0,1	0,221847
5,147500	0,1	0,211473
5,149167	0,1	0,226110
5,150833	0,1	0,207230
5,152500	0,1	0,216254
5,154167	0,1	0,184160
5,155833	0,1	0,182476
5,157500	0,1	0,226003
5,159167	0,1	0,173725
5,160833	0,1	0,180649
5,162500	0,1	0,199245
5,164167	0,1	0,199294
5,165833	0,1	0,211217
5,167500	0,1	0,209874
5,169167	0,1	0,215384
5,170833	0,1	0,210853
5,172500	0,1	0,215613
5,174167	0,1	0,185732
5,175833	0,1	0,219975
5,177500	0,1	0,168838
5,179167	0,1	0,205207
5,180833	0,1	0,194632
5,182500	0,1	0,146906
5,184167	0,1	0,156126
5,185833	0,1	0,187393
5,187500	0,1	0,181068
5,189167	0,1	0,195807
5,190833	0,1	0,182455
5,192500	0,1	0,165019
5,194167	0,1	0,222851
5,195833	0,1	0,193953
5,197500	0,1	0,216289
5,199167	0,1	0,170867
5,200833	0,1	0,196487
5,202500	0,1	0,200203
5,204167	0,1	0,172165
5,205833	0,1	0,181207
5,207500	0,1	0,202413
5,209167	0,1	0,167735
5,210833	0,1	0,170769
5,212500	0,1	0,132075
5,214167	0,1	0,155896
5,215833	0,1	0,157287
5,217500	0,1	0,166336
5,219167	0,1	0,183794
5,220833	0,1	0,208521
5,222500	0,1	0,175813
5,224167	0,1	0,121805
5,225833	0,1	0,165210
5,227500	0,1	0,225889
5,229167	0,1	0,152730
5,230833	0,1	0,151117
5,232500	0,1	0,179214
5,234167	0,1	0,183200
5,235833	0,1	0,157274
5,237500	0,1	0,171471
5,239167	0,1	0,150129
5,240833	0,1	0,206070
5,242500	0,1	0,169206
5,244167	0,1	0,161701
5,245833	0,1	0,098946
5,247500	0,1	0,161623
5,249167	0,1	0,146296
5,250833	0,1	0,151344
5,252500	0,1	0,155691
5,254167	0,1	0,137413
5,255833	0,1	0,185588
5,257500	0,1	0,147005
5,259167	0,1	0,150742
5,260833	0,1	0,122172
5,262500	0,1	0,141751
5,264167	0,1	0,143805
5,265833	0,1	0,125732
5,267500	0,1	0,112954
5,269167	0,1	0,115227
5,270833	0,1	0,158416
5,272500	0,1	0,113250
5,274167	0,1	0,146759
5,275833	0,1	0,135918
5,277500	0,1	0,139684
5,279167	0,1	0,143536
5,280833	0,1	0,128486
5,282500	0,1	0,130408
5,284167	0,1	0,139208
5,285833	0,1	0,151280
5,287500	0,1	0,136459
5,289167	0,1	0,129768
5,290833	0,1	0,144156
5,292500	0,1	0,165216
5,294167	0,1	0,135116
5,295833	0,1	0,090782
5,297500	0,1	0,171372
5,299167	0,1	0,097953
5,300833	0,1	0,145307
5,302500	0,1	0,113042
5,304167	0,1	0,147400
5,305833	0,1	0,110082
5,307500	0,1	0,146201
5,309167	0,1	0,093457
5,310833	0,1	0,128019
5,312500	0,1	0,120034
5,314167	0,1	0,079704
5,315833	0,1	0,105322
5,317500	0,1	0,081935
5,319167	0,1	0,092903
5,320833	0,1	0,140420
5,322500	0,1	0,114759
5,324167	0,1	0,115227
5,325833	0,1	0,138935
5,327500	0,1	0,147554
5,329167	0,1	0,125442
5,330833	0,1	0,109683
5,332500	0,1	0,127898
5,334167	0,1	0,090471
5,335833	0,1	0,154561
5,337500	0,1	0,090290
5,339167	0,1	0,107126
5,340833	0,1	0,105496
5,342500	0,1	0,084149
5,344167	0,1	0,096837
5,345833	0,1	0,104024
5,347500	0,1	0,099161
5,349167	0,1	0,105348
5,350833	0,1	0,086615
5,352500	0,1	0,101225
5,354167	0,1	0,082059
5,355833	0,1	0,122983
5,357500	0,1	0,101110
5,359167	0,1	0,091583
5,360833	0,1	0,063282
5,362500	0,1	0,071512
5,364167	0,1	0,082321
5,365833	0,1	0,120478
5,367500	0,1	0,076000
5,369167	0,1	0,120023
5,370833	0,1	0,101918
5,372500	0,1	0,117441
5,374167	0,1	0,073366
5,375833	0,1	0,089422
5,377500	0,1	0,095905
5,379167	0,1	0,079097
5,380833	0,1	0,089879
5,382500	0,1	0,069552
5,384167	0,1	0,062303
5,385833	0,1	0,070870
5,387500	0,1	0,059569
5,389167	0,1	0,053149
5,390833	0,1	0,078528
5,392500	0,1	0,090874
5,394167	0,1	0,039224
5,395833	0,1	0,074736
5,397500	0,1	0,083646
5,399167	0,1	0,057708
5,400833	0,1	0,065032
5,402500	0,1	0,071224
5,404167	0,1	0,081888
5,405833	0,1	0,057646
5,407500	0,1	0,033522
5,409167	0,1	0,059250
5,410833	0,1	0,064040
5,412500	0,1	0,047665
5,414167	0,1	0,106849
5,415833	0,1	0,037137
5,417500	0,1	0,072210
5,419167	0,1	0,074453
5,420833	0,1	0,024399
5,422500	0,1	0,047821
5,424167	0,1	0,059854
5,425833	0,1	0,050025
5,427500	0,1	0,083352
5,429167	0,1	0,068785
5,430833	0,1	0,079980
5,432500	0,1	0,064872
5,434167	0,1	0,055328
5,435833	0,1	0,036964
5,437500	0,1	0,107073
5,439167	0,1	0,032769
5,440833	0,1	0,055214
5,442500	0,1	0,046089
5,444167	0,1	0,076230
5,445833	0,1	0,027010
5,447500	0,1	0,079248
5,449167	0,1	0,054999
5,450833	0,1	0,012597
5,452500	0,1	0,034428
5,454167	0,1	0,042525
5,455833	0,1	0,037102
5,457500	0,1	0,097114
5,459167	0,1	0,072742
5,460833	0,1	0,052966
5,462500	0,1	0,012308
5,464167	0,1	0,058812
5,465833	0,1	0,026135
5,467500	0,1	0,060988
5,469167	0,1	0,023902
5,470833	0,1	0,030828
5,472500	0,1	0,054987
5,474167	0,1	0,034229
5,475833	0,1	0,035860
5,477500	0,1	0,092560
5,479167	0,1	0,048726
5,480833	0,1	0,040583
5,482500	0,1	0,032753
5,484167	0,1	0,056456
5,485833	0,1	0,010692
5,487500	0,1	0,045998
5,489167	0,1	0,065073
5,490833	0,1	0,010033
5,492500	0,1	0,050823
5,494167	0,1	0,026572
5,495833	0,1	0,003960
5,497500	0,1	0,045811
5,499167	0,1	-0,010170
5,500833	0,1	0,042826
5,502500	0,1	0,055508
5,504167	0,1	0,048741
5,505833	0,1	0,022142
5,507500	0,1	0,065067
5,509167	0,1	0,023323
5,510833	0,1	0,024966
5,512500	0,1	-0,000120
5,514167	0,1	0,032476
5,515833	0,1	0,013814
5,517500	0,1	0,019917
5,519167	0,1	-0,003057
5,520833	0,1	0,013578
5,522500	0,1	0,020455
5,524167	0,1	0,021864
5,525833	0,1	0,032358
5,527500	0,1	0,036334
5,529167	0,1	0,055506
5,530833	0,1	0,002788
5,532500	0,1	0,037363
5,534167	0,1	0,044721
5,535833	0,1	0,042939
5,537500	0,1	0,014107
5,539167	0,1	0,060135
5,540833	0,1	0,009225
5,542500	0,1	0,042604
5,544167	0,1	0,014186
5,545833	0,1	0,017407
5,547500	0,1	0,013872
5,549167	0,1	0,017555
5,550833	0,1	0,009671
5,552500	0,1	0,047220
5,554167	0,1	0,009222
5,555833	0,1	0,034509
5,557500	0,1	0,027765
5,559167	0,1	-0,005191
5,560833	0,1	-0,005241
5,562500	0,1	0,027966
5,564167	0,1	0,020335
5,565833	0,1	0,027471
5,567500	0,1	0,019360
5,569167	0,1	0,016624
5,570833	0,1	-0,003910
5,572500	0,1	0,019933
5,574167	0,1	0,001638
5,575833	0,1	0,031070
5,577500	0,1	0,000173
5,579167	0,1	0,009191
5,580833	0,1	0,045065
5,582500	0,1	0,049586
5,584167	0,1	0,010091
5,585833	0,1	0,003331
5,587500	0,1	-0,009442
5,589167	0,1	0,025082
5,590833	0,1	0,012713
5,592500	0,1	0,026415
5,594167	0,1	0,016712
5,595833	0,1	0,038608
5,597500	0,1	0,036688
5,599167	0,1	-0,004547
5,600833	0,1	0,008671
5,602500	0,1	0,028734
5,604167	0,1	0,018596
5,605833	0,1	-0,030505
5,607500	0,1	-0,002619
5,609167	0,1	0,017778
5,610833	0,1	0,036498
5,612500	0,1	-0,002807
5,614167	0,1	0,022561
5,615833	0,1	0,019026
5,617500	0,1	0,029420
5,619167	0,1	0,015923
5,620833	0,1	0,021053
5,622500	0,1	0,044965
5,624167	0,1	0,059439
5,625833	0,1	-0,009798
5,627500	0,1	0,013058
5,629167	0,1	-0,002417
5,630833	0,1	0,012418
5,632500	0,1	0,026642
5,634167	0,1	-0,010094
5,635833	0,1	0,015148
5,637500	0,1	0,036478
5,639167	0,1	0,028264
5,640833	0,1	0,024783
5,642500	0,1	0,016275
5,644167	0,1	0,011700
5,645833	0,1	0,036600
5,647500	0,1	0,025574
5,649167	0,1	0,027929
5,650833	0,1	0,076514
5,652500	0,1	0,029515
5,654167	0,1	0,017724
5,655833	0,1	0,000601
5,657500	0,1	0,039665
5,659167	0,1	0,029030
5,660833	0,1	0,037143
5,662500	0,1	0,042900
5,664167	0,1	0,028760
5,665833	0,1	0,028282
5,667500	0,1	0,062602
5,669167	0,1	0,018621
5,670833	0,1	0,066615
5,672500	0,1	-0,007353
5,674167	0,1	0,051540
5,675833	0,1	0,070412
5,677500	0,1	0,011732
5,679167	0,1	0,070074
5,680833	0,1	0,044314
5,682500	0,1	0,005326
5,684167	0,1	0,011512
5,685833	0,1	0,032893
5,687500	0,1	0,023027
5,689167	0,1	0,040744
5,690833	0,1	0,034473
5,692500	0,1	0,028511
5,694167	0,1	0,045855
5,695833	0,1	0,051885
5,697500	0,1	0,010568
5,699167	0,1	0,054567
5,700833	0,1	0,031206
5,702500	0,1	0,026647
5,704167	0,1	0,020352
5,705833	0,1	0,044821
5,707500	0,1	0,005494
5,709167	0,1	0,076053
5,710833	0,1	0,035123
5,712500	0,1	0,050599
5,714167	0,1	0,073311
5,715833	0,1	0,032267
5,717500	0,1	0,072788
5,719167	0,1	0,075179
5,720833	0,1	0,056034
5,722500	0,1	0,054290
5,724167	0,1	0,009495
5,725833	0,1	0,059824
5,727500	0,1	0,031560
5,729167	0,1	0,053766
5,730833	0,1	0,047354
5,732500	0,1	0,085484
5,734167	0,1	0,030159
5,735833	0,1	0,052562
5,737500	0,1	0,099561
5,739167	0,1	0,021488
5,740833	0,1	0,064672
5,742500	0,1	0,054124
5,744167	0,1	0,089625
5,745833	0,1	0,060424
5,747500	0,1	0,068179
5,749167	0,1	0,022825
5,750833	0,1	0,052666
5,752500	0,1	0,038844
5,754167	0,1	0,055734
5,755833	0,1	0,060539
5,757500	0,1	0,071532
5,759167	0,1	0,071576
5,760833	0,1	0,071700
5,762500	0,1	0,054373
5,764167	0,1	0,016694
5,765833	0,1	0,074794
5,767500	0,1	0,060379
5,769167	0,1	0,068365
5,770833	0,1	0,032492
5,772500	0,1	0,039567
5,774167	0,1	0,055816
5,775833	0,1	0,051408
5,777500	0,1	0,028473
5,779167	0,1	0,065481
5,780833	0,1	0,096461
5,782500	0,1	0,036349
5,784167	0,1	0,048695
5,785833	0,1	0,073354
5,787500	0,1	0,057064
5,789167	0,1	0,094282
5,790833	0,1	0,046763
5,792500	0,1	0,015224
5,794167	0,1	0,050677
5,795833	0,1	0,036215
5,797500	0,1	0,057432
5,799167	0,1	0,069709
5,800833	0,1	0,065553
5,802500	0,1	0,066503
5,804167	0,1	0,053009
5,805833	0,1	0,031891
5,807500	0,1	0,041512
5,809167	0,1	0,049980
5,810833	0,1	0,069048
5,812500	0,1	0,096480
5,814167	0,1	0,088249
5,815833	0,1	0,082201
5,817500	0,1	0,020385
5,819167	0,1	0,073904
5,820833	0,1	0,030798
5,822500	0,1	0,070180
5,824167	0,1	0,063627
5,825833	0,1	0,032553
5,827500	0,1	0,045856
5,829167	0,1	0,070225
5,830833	0,1	0,060025
5,832500	0,1	0,063646
5,834167	0,1	0,066046
5,835833	0,1	-0,005224
5,837500	0,1	0,077395
5,839167	0,1	0,060379
5,840833	0,1	0,075672
5,842500	0,1	0,040380
5,844167	0,1	0,056644
5,845833	0,1	0,036175
5,847500	0,1	0,081194
5,849167	0,1	0,050384
5,850833	0,1	0,018144
5,852500	0,1	0,092599
5,854167	0,1	0,070775
5,855833	0,1	0,032370
5,857500	0,1	0,045300
5,859167	0,1	0,009695
5,860833	0,1	0,061043
5,862500	0,1	0,067519
5,864167	0,1	0,039694
5,865833	0,1	0,068917
5,867500	0,1	0,048641
5,869167	0,1	0,045798
5,870833	0,1	0,017210
5,872500	0,1	0,042520
5,874167	0,1	0,035818
5,875833	0,1	0,038445
5,877500	0,1	0,027413
5,879167	0,1	0,052210
5,880833	0,1	0,080308
5,882500	0,1	0,010987
5,884167	0,1	0,029956
5,885833	0,1	0,035156
5,887500	0,1	0,046807
5,889167	0,1	0,058303
5,890833	0,1	0,075818
5,892500	0,1	0,059343
5,894167	0,1	0,060602
5,895833	0,1	0,016715
5,897500	0,1	0,047221
5,899167	0,1	0,048530
5,900833	0,1	0,041492
5,902500	0,1	0,037434
5,904167	0,1	0,021658
5,905833	0,1	0,036850
5,907500	0,1	0,057929
5,909167	0,1	0,062589
5,910833	0,1	0,036324
5,912500	0,1	0,044406
5,914167	0,1	0,041367
5,915833	0,1	0,040292
5,917500	0,1	0,013465
5,919167	0,1	0,069845
5,920833	0,1	-0,002323
5,922500	0,1	0,031384
5,924167	0,1	0,002468
5,925833	0,1	0,024505
5,927500	0,1	0,032897
5,929167	0,1	0,049563
5,930833	0,1	0,005100
5,932500	0,1	0,032954
5,934167	0,1	0,024327
5,935833	0,1	0,000295
5,937500	0,1	0,018835
5,939167	0,1	0,029642
5,940833	0,1	0,035939
5,942500	0,1	0,011889
5,944167	0,1	0,047258
5,945833	0,1	0,064821
5,947500	0,1	0,048620
5,949167	0,1	0,042508
5,950833	0,1	0,033523
5,952500	0,1	0,054549
5,954167	0,1	-0,018324
5,955833	0,1	0,019848
5,957500	0,1	0,036931
5,959167	0,1	0,018018
5,960833	0,1	0,005180
5,962500	0,1	0,024654
5,964167	0,1	0,019710
5,965833	0,1	0,049559
5,967500	0,1	0,014479
5,969167	0,1	-0,009167
5,970833	0,1	-0,012776
5,972500	0,1	0,033880
5,974167	0,1	0,027704
5,975833	0,1	0,017830
5,977500	0,1	0,027162
5,979167	0,1	-0,008477
5,980833	0,1	0,044069
5,982500	0,1	0,034641
5,984167	0,1	0,029547
5,985833	0,1	0,025012
5,987500	0,1	0,004002
5,989167	0,1	0,009791
5,990833	0,1	-0,016119
5,992500	0,1	0,027112
5,994167	0,1	0,044551
5,995833	0,1	0,017790
5,997500	0,1	0,015965
5,999167	0,1	0,004246
6,000833	0,1	0,021798
