File Path	chrom://chromeleon01/ikbm_chromeleon/2022/Rezex/Esteban/220612_chitin_4_7.seq/908.smp/UV_VIS_1.channel/UV_VIS_1.chm
Channel	UV_VIS_1

Injection Information:
Data Vault	ikbm_chromeleon
Injection	C-NE_24h-ChiBS_
Injection Number	23
Position	RC4
Comment	
Processing Method	New ProcMethod
Instrument Method	Short_Rezex_6min_194nm
Type	Unknown
Status	Finished
Injection Date	12.06.2022
Injection Time	19:36:58
Injection Volume (µl)	8,000
Dilution Factor	1,0000
Weight	1,0000

Chromatogram Data Information:
Time Min. (min)	0,000833
Time Max. (min)	6,000833
Data Points	3601
Detector	UV
Generating Data System	Chromeleon 7.2.9.11323
Exporting Data System	Chromeleon 7.2.9.0
Operator	Instrument Controller
Signal Quantity	Absorbance
Signal Unit	mAU
Signal Min.	-0,112315
Signal Max.	141,111086
Channel	UV_VIS_1
Driver Name	VWD3000.dll
Channel Type	Evaluation
Min. Step (s)	0,1
Max. Step (s)	0,1
Average Step (s)	0,1

Signal Parameter Information:
Signal Info	WVL:194 nm

Chromatogram Data:
Time (min)	Step (s)	Value (mAU)
0,000833	n.a.	-0,026360
0,002500	0,1	-0,013627
0,004167	0,1	-0,059961
0,005833	0,1	-0,016253
0,007500	0,1	-0,072108
0,009167	0,1	-0,048595
0,010833	0,1	-0,069096
0,012500	0,1	-0,078923
0,014167	0,1	-0,081316
0,015833	0,1	-0,082669
0,017500	0,1	-0,073643
0,019167	0,1	-0,043109
0,020833	0,1	-0,029398
0,022500	0,1	-0,041935
0,024167	0,1	-0,059738
0,025833	0,1	-0,053714
0,027500	0,1	-0,071246
0,029167	0,1	-0,054790
0,030833	0,1	-0,058389
0,032500	0,1	-0,043358
0,034167	0,1	-0,072848
0,035833	0,1	-0,072085
0,037500	0,1	-0,038558
0,039167	0,1	-0,042292
0,040833	0,1	-0,094287
0,042500	0,1	-0,079456
0,044167	0,1	-0,111554
0,045833	0,1	-0,098501
0,047500	0,1	-0,078349
0,049167	0,1	-0,023501
0,050833	0,1	-0,070302
0,052500	0,1	-0,051908
0,054167	0,1	-0,052978
0,055833	0,1	-0,053343
0,057500	0,1	-0,093574
0,059167	0,1	-0,020154
0,060833	0,1	-0,001919
0,062500	0,1	-0,060540
0,064167	0,1	-0,027923
0,065833	0,1	-0,004410
0,067500	0,1	-0,018590
0,069167	0,1	-0,042743
0,070833	0,1	-0,078728
0,072500	0,1	-0,043502
0,074167	0,1	-0,035238
0,075833	0,1	-0,043997
0,077500	0,1	-0,071826
0,079167	0,1	-0,021920
0,080833	0,1	-0,074955
0,082500	0,1	-0,034019
0,084167	0,1	-0,027790
0,085833	0,1	-0,061317
0,087500	0,1	-0,015090
0,089167	0,1	-0,021843
0,090833	0,1	-0,000148
0,092500	0,1	-0,008462
0,094167	0,1	-0,035774
0,095833	0,1	-0,044452
0,097500	0,1	-0,010660
0,099167	0,1	-0,058238
0,100833	0,1	-0,037694
0,102500	0,1	-0,037273
0,104167	0,1	-0,020496
0,105833	0,1	-0,050088
0,107500	0,1	-0,037945
0,109167	0,1	-0,031457
0,110833	0,1	-0,049270
0,112500	0,1	-0,023051
0,114167	0,1	-0,007506
0,115833	0,1	-0,043790
0,117500	0,1	-0,045870
0,119167	0,1	-0,047034
0,120833	0,1	-0,034241
0,122500	0,1	0,003338
0,124167	0,1	-0,066820
0,125833	0,1	-0,048518
0,127500	0,1	-0,037465
0,129167	0,1	-0,039789
0,130833	0,1	-0,021759
0,132500	0,1	-0,024487
0,134167	0,1	-0,044286
0,135833	0,1	-0,030459
0,137500	0,1	-0,034819
0,139167	0,1	-0,027525
0,140833	0,1	-0,037687
0,142500	0,1	-0,032431
0,144167	0,1	-0,033264
0,145833	0,1	-0,037106
0,147500	0,1	-0,007600
0,149167	0,1	-0,025659
0,150833	0,1	-0,047068
0,152500	0,1	-0,023987
0,154167	0,1	-0,045942
0,155833	0,1	-0,049463
0,157500	0,1	-0,023470
0,159167	0,1	-0,031427
0,160833	0,1	0,045444
0,162500	0,1	-0,000650
0,164167	0,1	0,032516
0,165833	0,1	0,015694
0,167500	0,1	0,007208
0,169167	0,1	-0,013709
0,170833	0,1	-0,020819
0,172500	0,1	0,023282
0,174167	0,1	-0,030229
0,175833	0,1	-0,009759
0,177500	0,1	0,012195
0,179167	0,1	0,026045
0,180833	0,1	0,001316
0,182500	0,1	-0,014885
0,184167	0,1	0,033513
0,185833	0,1	0,026167
0,187500	0,1	-0,024576
0,189167	0,1	0,043702
0,190833	0,1	-0,021676
0,192500	0,1	0,017844
0,194167	0,1	-0,016424
0,195833	0,1	-0,038455
0,197500	0,1	0,008421
0,199167	0,1	0,012492
0,200833	0,1	-0,002366
0,202500	0,1	0,035359
0,204167	0,1	0,033814
0,205833	0,1	0,038592
0,207500	0,1	0,039101
0,209167	0,1	0,049610
0,210833	0,1	0,011085
0,212500	0,1	-0,005045
0,214167	0,1	0,029128
0,215833	0,1	0,060800
0,217500	0,1	0,010531
0,219167	0,1	0,019040
0,220833	0,1	0,020332
0,222500	0,1	0,014856
0,224167	0,1	0,012884
0,225833	0,1	0,026515
0,227500	0,1	0,037392
0,229167	0,1	0,035422
0,230833	0,1	0,025759
0,232500	0,1	0,049162
0,234167	0,1	0,029113
0,235833	0,1	0,068611
0,237500	0,1	0,048820
0,239167	0,1	0,019113
0,240833	0,1	0,056674
0,242500	0,1	0,003828
0,244167	0,1	0,038966
0,245833	0,1	0,020009
0,247500	0,1	0,028652
0,249167	0,1	0,060835
0,250833	0,1	0,062069
0,252500	0,1	0,021670
0,254167	0,1	0,059454
0,255833	0,1	0,002148
0,257500	0,1	0,089532
0,259167	0,1	0,022347
0,260833	0,1	0,115399
0,262500	0,1	0,070567
0,264167	0,1	0,050564
0,265833	0,1	0,078635
0,267500	0,1	0,031245
0,269167	0,1	0,034804
0,270833	0,1	0,000246
0,272500	0,1	0,063564
0,274167	0,1	0,080419
0,275833	0,1	0,046142
0,277500	0,1	0,086246
0,279167	0,1	0,062011
0,280833	0,1	0,076294
0,282500	0,1	0,094739
0,284167	0,1	0,068335
0,285833	0,1	0,069457
0,287500	0,1	0,059101
0,289167	0,1	0,093445
0,290833	0,1	0,111257
0,292500	0,1	0,055660
0,294167	0,1	0,084988
0,295833	0,1	0,091550
0,297500	0,1	0,066455
0,299167	0,1	0,073971
0,300833	0,1	0,071029
0,302500	0,1	0,050781
0,304167	0,1	0,079962
0,305833	0,1	0,080933
0,307500	0,1	0,064228
0,309167	0,1	0,069227
0,310833	0,1	0,100740
0,312500	0,1	0,070972
0,314167	0,1	0,096679
0,315833	0,1	0,104644
0,317500	0,1	0,092264
0,319167	0,1	0,106578
0,320833	0,1	0,096644
0,322500	0,1	0,094162
0,324167	0,1	0,077911
0,325833	0,1	0,064199
0,327500	0,1	0,130441
0,329167	0,1	0,110812
0,330833	0,1	0,102967
0,332500	0,1	0,061399
0,334167	0,1	0,108760
0,335833	0,1	0,122417
0,337500	0,1	0,114580
0,339167	0,1	0,080976
0,340833	0,1	0,116888
0,342500	0,1	0,105522
0,344167	0,1	0,125450
0,345833	0,1	0,113327
0,347500	0,1	0,127962
0,349167	0,1	0,125327
0,350833	0,1	0,105332
0,352500	0,1	0,087742
0,354167	0,1	0,116218
0,355833	0,1	0,128096
0,357500	0,1	0,103008
0,359167	0,1	0,113867
0,360833	0,1	0,152671
0,362500	0,1	0,153102
0,364167	0,1	0,117493
0,365833	0,1	0,149868
0,367500	0,1	0,161803
0,369167	0,1	0,140652
0,370833	0,1	0,108652
0,372500	0,1	0,126507
0,374167	0,1	0,181317
0,375833	0,1	0,131690
0,377500	0,1	0,122940
0,379167	0,1	0,115934
0,380833	0,1	0,105293
0,382500	0,1	0,119127
0,384167	0,1	0,130577
0,385833	0,1	0,109714
0,387500	0,1	0,137281
0,389167	0,1	0,139612
0,390833	0,1	0,118682
0,392500	0,1	0,158221
0,394167	0,1	0,148294
0,395833	0,1	0,165869
0,397500	0,1	0,173133
0,399167	0,1	0,181549
0,400833	0,1	0,138235
0,402500	0,1	0,122196
0,404167	0,1	0,157285
0,405833	0,1	0,185255
0,407500	0,1	0,199583
0,409167	0,1	0,175140
0,410833	0,1	0,151941
0,412500	0,1	0,165289
0,414167	0,1	0,160516
0,415833	0,1	0,122974
0,417500	0,1	0,146576
0,419167	0,1	0,190802
0,420833	0,1	0,176685
0,422500	0,1	0,178389
0,424167	0,1	0,188746
0,425833	0,1	0,170458
0,427500	0,1	0,209355
0,429167	0,1	0,214847
0,430833	0,1	0,206882
0,432500	0,1	0,202429
0,434167	0,1	0,158754
0,435833	0,1	0,237158
0,437500	0,1	0,219726
0,439167	0,1	0,229495
0,440833	0,1	0,203885
0,442500	0,1	0,254299
0,444167	0,1	0,205633
0,445833	0,1	0,223396
0,447500	0,1	0,207013
0,449167	0,1	0,218201
0,450833	0,1	0,218977
0,452500	0,1	0,242625
0,454167	0,1	0,240372
0,455833	0,1	0,193758
0,457500	0,1	0,202329
0,459167	0,1	0,243847
0,460833	0,1	0,212372
0,462500	0,1	0,221784
0,464167	0,1	0,220140
0,465833	0,1	0,255206
0,467500	0,1	0,261246
0,469167	0,1	0,230958
0,470833	0,1	0,237983
0,472500	0,1	0,287536
0,474167	0,1	0,246091
0,475833	0,1	0,196661
0,477500	0,1	0,219005
0,479167	0,1	0,244785
0,480833	0,1	0,227242
0,482500	0,1	0,232820
0,484167	0,1	0,253209
0,485833	0,1	0,244116
0,487500	0,1	0,267824
0,489167	0,1	0,276380
0,490833	0,1	0,281253
0,492500	0,1	0,247930
0,494167	0,1	0,285280
0,495833	0,1	0,268319
0,497500	0,1	0,260991
0,499167	0,1	0,247345
0,500833	0,1	0,291828
0,502500	0,1	0,263417
0,504167	0,1	0,308383
0,505833	0,1	0,284843
0,507500	0,1	0,279869
0,509167	0,1	0,283159
0,510833	0,1	0,289869
0,512500	0,1	0,259030
0,514167	0,1	0,296670
0,515833	0,1	0,257965
0,517500	0,1	0,275346
0,519167	0,1	0,305450
0,520833	0,1	0,322751
0,522500	0,1	0,328274
0,524167	0,1	0,321241
0,525833	0,1	0,356953
0,527500	0,1	0,328152
0,529167	0,1	0,296656
0,530833	0,1	0,307745
0,532500	0,1	0,344112
0,534167	0,1	0,343702
0,535833	0,1	0,325468
0,537500	0,1	0,350471
0,539167	0,1	0,353737
0,540833	0,1	0,381358
0,542500	0,1	0,320253
0,544167	0,1	0,325530
0,545833	0,1	0,342021
0,547500	0,1	0,349185
0,549167	0,1	0,357255
0,550833	0,1	0,384847
0,552500	0,1	0,338257
0,554167	0,1	0,349923
0,555833	0,1	0,359224
0,557500	0,1	0,366651
0,559167	0,1	0,385299
0,560833	0,1	0,361875
0,562500	0,1	0,379716
0,564167	0,1	0,361780
0,565833	0,1	0,375422
0,567500	0,1	0,403018
0,569167	0,1	0,427552
0,570833	0,1	0,387476
0,572500	0,1	0,405538
0,574167	0,1	0,381082
0,575833	0,1	0,381396
0,577500	0,1	0,431447
0,579167	0,1	0,450665
0,580833	0,1	0,406909
0,582500	0,1	0,392538
0,584167	0,1	0,422159
0,585833	0,1	0,380024
0,587500	0,1	0,407246
0,589167	0,1	0,415969
0,590833	0,1	0,406131
0,592500	0,1	0,438525
0,594167	0,1	0,426334
0,595833	0,1	0,420783
0,597500	0,1	0,438920
0,599167	0,1	0,419104
0,600833	0,1	0,451634
0,602500	0,1	0,455280
0,604167	0,1	0,443962
0,605833	0,1	0,503787
0,607500	0,1	0,478156
0,609167	0,1	0,481500
0,610833	0,1	0,477309
0,612500	0,1	0,481948
0,614167	0,1	0,479629
0,615833	0,1	0,482146
0,617500	0,1	0,491026
0,619167	0,1	0,512201
0,620833	0,1	0,506658
0,622500	0,1	0,488384
0,624167	0,1	0,520378
0,625833	0,1	0,536001
0,627500	0,1	0,503042
0,629167	0,1	0,519528
0,630833	0,1	0,535766
0,632500	0,1	0,514240
0,634167	0,1	0,499754
0,635833	0,1	0,576172
0,637500	0,1	0,493828
0,639167	0,1	0,527273
0,640833	0,1	0,550392
0,642500	0,1	0,552149
0,644167	0,1	0,557446
0,645833	0,1	0,532110
0,647500	0,1	0,562635
0,649167	0,1	0,574330
0,650833	0,1	0,580235
0,652500	0,1	0,541011
0,654167	0,1	0,567921
0,655833	0,1	0,554447
0,657500	0,1	0,584948
0,659167	0,1	0,607846
0,660833	0,1	0,592907
0,662500	0,1	0,604842
0,664167	0,1	0,634509
0,665833	0,1	0,576798
0,667500	0,1	0,608871
0,669167	0,1	0,582510
0,670833	0,1	0,642650
0,672500	0,1	0,616543
0,674167	0,1	0,651076
0,675833	0,1	0,642020
0,677500	0,1	0,624027
0,679167	0,1	0,624512
0,680833	0,1	0,667687
0,682500	0,1	0,642959
0,684167	0,1	0,666714
0,685833	0,1	0,647190
0,687500	0,1	0,671792
0,689167	0,1	0,698990
0,690833	0,1	0,714387
0,692500	0,1	0,667775
0,694167	0,1	0,685559
0,695833	0,1	0,713962
0,697500	0,1	0,687755
0,699167	0,1	0,676810
0,700833	0,1	0,684226
0,702500	0,1	0,698974
0,704167	0,1	0,707060
0,705833	0,1	0,724055
0,707500	0,1	0,729514
0,709167	0,1	0,724706
0,710833	0,1	0,722410
0,712500	0,1	0,724058
0,714167	0,1	0,760252
0,715833	0,1	0,758480
0,717500	0,1	0,741973
0,719167	0,1	0,777385
0,720833	0,1	0,760310
0,722500	0,1	0,794051
0,724167	0,1	0,766640
0,725833	0,1	0,794210
0,727500	0,1	0,788513
0,729167	0,1	0,776104
0,730833	0,1	0,820387
0,732500	0,1	0,790035
0,734167	0,1	0,810989
0,735833	0,1	0,800034
0,737500	0,1	0,822108
0,739167	0,1	0,835057
0,740833	0,1	0,852590
0,742500	0,1	0,811495
0,744167	0,1	0,847908
0,745833	0,1	0,860327
0,747500	0,1	0,841593
0,749167	0,1	0,855022
0,750833	0,1	0,857677
0,752500	0,1	0,886704
0,754167	0,1	0,867268
0,755833	0,1	0,955268
0,757500	0,1	0,914405
0,759167	0,1	0,891066
0,760833	0,1	0,899191
0,762500	0,1	0,936045
0,764167	0,1	0,931134
0,765833	0,1	0,934722
0,767500	0,1	0,917361
0,769167	0,1	0,959989
0,770833	0,1	0,937264
0,772500	0,1	0,959791
0,774167	0,1	0,967927
0,775833	0,1	0,984576
0,777500	0,1	0,993340
0,779167	0,1	0,941246
0,780833	0,1	0,995951
0,782500	0,1	0,961503
0,784167	0,1	0,963075
0,785833	0,1	0,981837
0,787500	0,1	0,983490
0,789167	0,1	1,001877
0,790833	0,1	0,991422
0,792500	0,1	0,993952
0,794167	0,1	1,015692
0,795833	0,1	0,997717
0,797500	0,1	1,029314
0,799167	0,1	1,023233
0,800833	0,1	1,036294
0,802500	0,1	1,018371
0,804167	0,1	1,014657
0,805833	0,1	1,043470
0,807500	0,1	1,054688
0,809167	0,1	1,059571
0,810833	0,1	1,045200
0,812500	0,1	1,011519
0,814167	0,1	1,066909
0,815833	0,1	1,033005
0,817500	0,1	1,080642
0,819167	0,1	1,056194
0,820833	0,1	1,025247
0,822500	0,1	1,079229
0,824167	0,1	1,060616
0,825833	0,1	1,061428
0,827500	0,1	1,075139
0,829167	0,1	1,065174
0,830833	0,1	1,094275
0,832500	0,1	1,101666
0,834167	0,1	1,091461
0,835833	0,1	1,071200
0,837500	0,1	1,119542
0,839167	0,1	1,128718
0,840833	0,1	1,094890
0,842500	0,1	1,120824
0,844167	0,1	1,100958
0,845833	0,1	1,124348
0,847500	0,1	1,105979
0,849167	0,1	1,118377
0,850833	0,1	1,102745
0,852500	0,1	1,112080
0,854167	0,1	1,097267
0,855833	0,1	1,133823
0,857500	0,1	1,161594
0,859167	0,1	1,158012
0,860833	0,1	1,127016
0,862500	0,1	1,138509
0,864167	0,1	1,173866
0,865833	0,1	1,137669
0,867500	0,1	1,190621
0,869167	0,1	1,208217
0,870833	0,1	1,181750
0,872500	0,1	1,131120
0,874167	0,1	1,174083
0,875833	0,1	1,172017
0,877500	0,1	1,214113
0,879167	0,1	1,207947
0,880833	0,1	1,212691
0,882500	0,1	1,224319
0,884167	0,1	1,227046
0,885833	0,1	1,199270
0,887500	0,1	1,246673
0,889167	0,1	1,226899
0,890833	0,1	1,238560
0,892500	0,1	1,229923
0,894167	0,1	1,217676
0,895833	0,1	1,237831
0,897500	0,1	1,258816
0,899167	0,1	1,287138
0,900833	0,1	1,295345
0,902500	0,1	1,268738
0,904167	0,1	1,294971
0,905833	0,1	1,293659
0,907500	0,1	1,267608
0,909167	0,1	1,319246
0,910833	0,1	1,318417
0,912500	0,1	1,343560
0,914167	0,1	1,327178
0,915833	0,1	1,323234
0,917500	0,1	1,351900
0,919167	0,1	1,347957
0,920833	0,1	1,335010
0,922500	0,1	1,344788
0,924167	0,1	1,351467
0,925833	0,1	1,322652
0,927500	0,1	1,348135
0,929167	0,1	1,353767
0,930833	0,1	1,371221
0,932500	0,1	1,396913
0,934167	0,1	1,398970
0,935833	0,1	1,410574
0,937500	0,1	1,414450
0,939167	0,1	1,422353
0,940833	0,1	1,420782
0,942500	0,1	1,417466
0,944167	0,1	1,475623
0,945833	0,1	1,446743
0,947500	0,1	1,432782
0,949167	0,1	1,463554
0,950833	0,1	1,469252
0,952500	0,1	1,476712
0,954167	0,1	1,502892
0,955833	0,1	1,480103
0,957500	0,1	1,465426
0,959167	0,1	1,525036
0,960833	0,1	1,494702
0,962500	0,1	1,514457
0,964167	0,1	1,480175
0,965833	0,1	1,531208
0,967500	0,1	1,551583
0,969167	0,1	1,553523
0,970833	0,1	1,541726
0,972500	0,1	1,545615
0,974167	0,1	1,584435
0,975833	0,1	1,527567
0,977500	0,1	1,628084
0,979167	0,1	1,606679
0,980833	0,1	1,631061
0,982500	0,1	1,589352
0,984167	0,1	1,637231
0,985833	0,1	1,620419
0,987500	0,1	1,606312
0,989167	0,1	1,664940
0,990833	0,1	1,654725
0,992500	0,1	1,650415
0,994167	0,1	1,692411
0,995833	0,1	1,699461
0,997500	0,1	1,715948
0,999167	0,1	1,697029
1,000833	0,1	1,708247
1,002500	0,1	1,727311
1,004167	0,1	1,749830
1,005833	0,1	1,749550
1,007500	0,1	1,778465
1,009167	0,1	1,789195
1,010833	0,1	1,822867
1,012500	0,1	1,806326
1,014167	0,1	1,831503
1,015833	0,1	1,857987
1,017500	0,1	1,871954
1,019167	0,1	1,859868
1,020833	0,1	1,888072
1,022500	0,1	1,887501
1,024167	0,1	1,906498
1,025833	0,1	1,918450
1,027500	0,1	1,916439
1,029167	0,1	1,928814
1,030833	0,1	1,954583
1,032500	0,1	1,981291
1,034167	0,1	2,008719
1,035833	0,1	2,061197
1,037500	0,1	2,024575
1,039167	0,1	2,045732
1,040833	0,1	2,040047
1,042500	0,1	2,102385
1,044167	0,1	2,090954
1,045833	0,1	2,103116
1,047500	0,1	2,123424
1,049167	0,1	2,185203
1,050833	0,1	2,191625
1,052500	0,1	2,208557
1,054167	0,1	2,245436
1,055833	0,1	2,350871
1,057500	0,1	2,404941
1,059167	0,1	2,486998
1,060833	0,1	2,581797
1,062500	0,1	2,716187
1,064167	0,1	2,852095
1,065833	0,1	3,122368
1,067500	0,1	3,416630
1,069167	0,1	3,753436
1,070833	0,1	4,183526
1,072500	0,1	4,726995
1,074167	0,1	5,311640
1,075833	0,1	6,046508
1,077500	0,1	6,921685
1,079167	0,1	7,997213
1,080833	0,1	9,124110
1,082500	0,1	10,394058
1,084167	0,1	11,805268
1,085833	0,1	13,338112
1,087500	0,1	14,949809
1,089167	0,1	16,726305
1,090833	0,1	18,519114
1,092500	0,1	20,453857
1,094167	0,1	22,345608
1,095833	0,1	24,222630
1,097500	0,1	26,146575
1,099167	0,1	27,966835
1,100833	0,1	29,712175
1,102500	0,1	31,310599
1,104167	0,1	32,756928
1,105833	0,1	34,198164
1,107500	0,1	35,376319
1,109167	0,1	36,381325
1,110833	0,1	37,241592
1,112500	0,1	37,917219
1,114167	0,1	38,435557
1,115833	0,1	38,697403
1,117500	0,1	38,916735
1,119167	0,1	38,924232
1,120833	0,1	38,794064
1,122500	0,1	38,551330
1,124167	0,1	38,191781
1,125833	0,1	37,694904
1,127500	0,1	37,097881
1,129167	0,1	36,421711
1,130833	0,1	35,704097
1,132500	0,1	34,953632
1,134167	0,1	34,116075
1,135833	0,1	33,310141
1,137500	0,1	32,426664
1,139167	0,1	31,547503
1,140833	0,1	30,780533
1,142500	0,1	29,893660
1,144167	0,1	29,132894
1,145833	0,1	28,371884
1,147500	0,1	27,614514
1,149167	0,1	26,927248
1,150833	0,1	26,368070
1,152500	0,1	25,740487
1,154167	0,1	25,226183
1,155833	0,1	24,717376
1,157500	0,1	24,336348
1,159167	0,1	23,946618
1,160833	0,1	23,623403
1,162500	0,1	23,329302
1,164167	0,1	23,021546
1,165833	0,1	22,854009
1,167500	0,1	22,626842
1,169167	0,1	22,498601
1,170833	0,1	22,267759
1,172500	0,1	22,156607
1,174167	0,1	22,096844
1,175833	0,1	21,985719
1,177500	0,1	21,883823
1,179167	0,1	21,803247
1,180833	0,1	21,766970
1,182500	0,1	21,674836
1,184167	0,1	21,657259
1,185833	0,1	21,609008
1,187500	0,1	21,668442
1,189167	0,1	21,725747
1,190833	0,1	21,893108
1,192500	0,1	22,064920
1,194167	0,1	22,392466
1,195833	0,1	22,856912
1,197500	0,1	23,417321
1,199167	0,1	24,121347
1,200833	0,1	25,124520
1,202500	0,1	26,230542
1,204167	0,1	27,655553
1,205833	0,1	29,303643
1,207500	0,1	31,259636
1,209167	0,1	33,516382
1,210833	0,1	36,139751
1,212500	0,1	39,059223
1,214167	0,1	42,270191
1,215833	0,1	45,827053
1,217500	0,1	49,716170
1,219167	0,1	53,868922
1,220833	0,1	58,309123
1,222500	0,1	62,950756
1,224167	0,1	67,807481
1,225833	0,1	72,846350
1,227500	0,1	77,917732
1,229167	0,1	83,061480
1,230833	0,1	88,254210
1,232500	0,1	93,340088
1,234167	0,1	98,345327
1,235833	0,1	103,267161
1,237500	0,1	107,921705
1,239167	0,1	112,393927
1,240833	0,1	116,561909
1,242500	0,1	120,513580
1,244167	0,1	124,149880
1,245833	0,1	127,463337
1,247500	0,1	130,349053
1,249167	0,1	132,962064
1,250833	0,1	135,180874
1,252500	0,1	137,120665
1,254167	0,1	138,598741
1,255833	0,1	139,781581
1,257500	0,1	140,534470
1,259167	0,1	141,024284
1,260833	0,1	141,111086
1,262500	0,1	140,892308
1,264167	0,1	140,352970
1,265833	0,1	139,539903
1,267500	0,1	138,385755
1,269167	0,1	137,063705
1,270833	0,1	135,395110
1,272500	0,1	133,512567
1,274167	0,1	131,412942
1,275833	0,1	129,182140
1,277500	0,1	126,705256
1,279167	0,1	124,086699
1,280833	0,1	121,352833
1,282500	0,1	118,505240
1,284167	0,1	115,632883
1,285833	0,1	112,632029
1,287500	0,1	109,576079
1,289167	0,1	106,512057
1,290833	0,1	103,443843
1,292500	0,1	100,353299
1,294167	0,1	97,399789
1,295833	0,1	94,388123
1,297500	0,1	91,372547
1,299167	0,1	88,508030
1,300833	0,1	85,697338
1,302500	0,1	82,933467
1,304167	0,1	80,256176
1,305833	0,1	77,680232
1,307500	0,1	75,159378
1,309167	0,1	72,700896
1,310833	0,1	70,407218
1,312500	0,1	68,172555
1,314167	0,1	66,033164
1,315833	0,1	63,947146
1,317500	0,1	62,010599
1,319167	0,1	60,158256
1,320833	0,1	58,307322
1,322500	0,1	56,608179
1,324167	0,1	54,948972
1,325833	0,1	53,374021
1,327500	0,1	51,842580
1,329167	0,1	50,423169
1,330833	0,1	49,009261
1,332500	0,1	47,688103
1,334167	0,1	46,403433
1,335833	0,1	45,178646
1,337500	0,1	43,981813
1,339167	0,1	42,866546
1,340833	0,1	41,751756
1,342500	0,1	40,728210
1,344167	0,1	39,729134
1,345833	0,1	38,724411
1,347500	0,1	37,745701
1,349167	0,1	36,836492
1,350833	0,1	35,967960
1,352500	0,1	35,090208
1,354167	0,1	34,304763
1,355833	0,1	33,495022
1,357500	0,1	32,682975
1,359167	0,1	31,918707
1,360833	0,1	31,202859
1,362500	0,1	30,465720
1,364167	0,1	29,757794
1,365833	0,1	29,099073
1,367500	0,1	28,497223
1,369167	0,1	27,823348
1,370833	0,1	27,191890
1,372500	0,1	26,581901
1,374167	0,1	25,985902
1,375833	0,1	25,413633
1,377500	0,1	24,869158
1,379167	0,1	24,361775
1,380833	0,1	23,819725
1,382500	0,1	23,274322
1,384167	0,1	22,822622
1,385833	0,1	22,345699
1,387500	0,1	21,922351
1,389167	0,1	21,466808
1,390833	0,1	20,996039
1,392500	0,1	20,607385
1,394167	0,1	20,174097
1,395833	0,1	19,824458
1,397500	0,1	19,461250
1,399167	0,1	19,093742
1,400833	0,1	18,765083
1,402500	0,1	18,387196
1,404167	0,1	18,105547
1,405833	0,1	17,721557
1,407500	0,1	17,449816
1,409167	0,1	17,153834
1,410833	0,1	16,873089
1,412500	0,1	16,639381
1,414167	0,1	16,375170
1,415833	0,1	16,137193
1,417500	0,1	15,857220
1,419167	0,1	15,609907
1,420833	0,1	15,408567
1,422500	0,1	15,236059
1,424167	0,1	14,970168
1,425833	0,1	14,767267
1,427500	0,1	14,534830
1,429167	0,1	14,374920
1,430833	0,1	14,193261
1,432500	0,1	14,005273
1,434167	0,1	13,833023
1,435833	0,1	13,615091
1,437500	0,1	13,461060
1,439167	0,1	13,250920
1,440833	0,1	13,108778
1,442500	0,1	12,948613
1,444167	0,1	12,810302
1,445833	0,1	12,594811
1,447500	0,1	12,454907
1,449167	0,1	12,311141
1,450833	0,1	12,167491
1,452500	0,1	11,993288
1,454167	0,1	11,853598
1,455833	0,1	11,729706
1,457500	0,1	11,618558
1,459167	0,1	11,491249
1,460833	0,1	11,291140
1,462500	0,1	11,185719
1,464167	0,1	11,062148
1,465833	0,1	10,914981
1,467500	0,1	10,794385
1,469167	0,1	10,661570
1,470833	0,1	10,520809
1,472500	0,1	10,396101
1,474167	0,1	10,315121
1,475833	0,1	10,196147
1,477500	0,1	10,063023
1,479167	0,1	9,980954
1,480833	0,1	9,885156
1,482500	0,1	9,768390
1,484167	0,1	9,636061
1,485833	0,1	9,549441
1,487500	0,1	9,490996
1,489167	0,1	9,410667
1,490833	0,1	9,308908
1,492500	0,1	9,263075
1,494167	0,1	9,162856
1,495833	0,1	9,105227
1,497500	0,1	9,048310
1,499167	0,1	8,959977
1,500833	0,1	8,870443
1,502500	0,1	8,852765
1,504167	0,1	8,772751
1,505833	0,1	8,732258
1,507500	0,1	8,670265
1,509167	0,1	8,627041
1,510833	0,1	8,600518
1,512500	0,1	8,532624
1,514167	0,1	8,491406
1,515833	0,1	8,430628
1,517500	0,1	8,430563
1,519167	0,1	8,386062
1,520833	0,1	8,325526
1,522500	0,1	8,314539
1,524167	0,1	8,237642
1,525833	0,1	8,234718
1,527500	0,1	8,226050
1,529167	0,1	8,184317
1,530833	0,1	8,156031
1,532500	0,1	8,133408
1,534167	0,1	8,105053
1,535833	0,1	8,093180
1,537500	0,1	8,047693
1,539167	0,1	8,060123
1,540833	0,1	8,010165
1,542500	0,1	8,042497
1,544167	0,1	8,000031
1,545833	0,1	7,984815
1,547500	0,1	7,966745
1,549167	0,1	7,925603
1,550833	0,1	7,893812
1,552500	0,1	7,882642
1,554167	0,1	7,917324
1,555833	0,1	7,895006
1,557500	0,1	7,858249
1,559167	0,1	7,826544
1,560833	0,1	7,844806
1,562500	0,1	7,863931
1,564167	0,1	7,795182
1,565833	0,1	7,775879
1,567500	0,1	7,717816
1,569167	0,1	7,753528
1,570833	0,1	7,745937
1,572500	0,1	7,776984
1,574167	0,1	7,720442
1,575833	0,1	7,704549
1,577500	0,1	7,661733
1,579167	0,1	7,687319
1,580833	0,1	7,648854
1,582500	0,1	7,653356
1,584167	0,1	7,605506
1,585833	0,1	7,606837
1,587500	0,1	7,589608
1,589167	0,1	7,548767
1,590833	0,1	7,552292
1,592500	0,1	7,517242
1,594167	0,1	7,477978
1,595833	0,1	7,483863
1,597500	0,1	7,428397
1,599167	0,1	7,455740
1,600833	0,1	7,418648
1,602500	0,1	7,404081
1,604167	0,1	7,360058
1,605833	0,1	7,323989
1,607500	0,1	7,278725
1,609167	0,1	7,297819
1,610833	0,1	7,236483
1,612500	0,1	7,215947
1,614167	0,1	7,212568
1,615833	0,1	7,201709
1,617500	0,1	7,152915
1,619167	0,1	7,127322
1,620833	0,1	7,067869
1,622500	0,1	7,093605
1,624167	0,1	7,034067
1,625833	0,1	6,987338
1,627500	0,1	6,962617
1,629167	0,1	6,913756
1,630833	0,1	6,936762
1,632500	0,1	6,871731
1,634167	0,1	6,853181
1,635833	0,1	6,810227
1,637500	0,1	6,788134
1,639167	0,1	6,777648
1,640833	0,1	6,736389
1,642500	0,1	6,725339
1,644167	0,1	6,646760
1,645833	0,1	6,626165
1,647500	0,1	6,591180
1,649167	0,1	6,562284
1,650833	0,1	6,520002
1,652500	0,1	6,519987
1,654167	0,1	6,492601
1,655833	0,1	6,443309
1,657500	0,1	6,459667
1,659167	0,1	6,409843
1,660833	0,1	6,366541
1,662500	0,1	6,362609
1,664167	0,1	6,328494
1,665833	0,1	6,327839
1,667500	0,1	6,266532
1,669167	0,1	6,270817
1,670833	0,1	6,237631
1,672500	0,1	6,174369
1,674167	0,1	6,211361
1,675833	0,1	6,150154
1,677500	0,1	6,176499
1,679167	0,1	6,167342
1,680833	0,1	6,145758
1,682500	0,1	6,127722
1,684167	0,1	6,097447
1,685833	0,1	6,085870
1,687500	0,1	6,059330
1,689167	0,1	6,100527
1,690833	0,1	6,040282
1,692500	0,1	6,044853
1,694167	0,1	6,026358
1,695833	0,1	6,048784
1,697500	0,1	6,061846
1,699167	0,1	5,977487
1,700833	0,1	6,013446
1,702500	0,1	5,999455
1,704167	0,1	6,003001
1,705833	0,1	5,962280
1,707500	0,1	6,022222
1,709167	0,1	5,945930
1,710833	0,1	5,947759
1,712500	0,1	5,952372
1,714167	0,1	5,950862
1,715833	0,1	5,933032
1,717500	0,1	5,954059
1,719167	0,1	5,902941
1,720833	0,1	5,866827
1,722500	0,1	5,838600
1,724167	0,1	5,878561
1,725833	0,1	5,850661
1,727500	0,1	5,808534
1,729167	0,1	5,826196
1,730833	0,1	5,794331
1,732500	0,1	5,803663
1,734167	0,1	5,773339
1,735833	0,1	5,728069
1,737500	0,1	5,740697
1,739167	0,1	5,731506
1,740833	0,1	5,693611
1,742500	0,1	5,655874
1,744167	0,1	5,652824
1,745833	0,1	5,604913
1,747500	0,1	5,613973
1,749167	0,1	5,622589
1,750833	0,1	5,578602
1,752500	0,1	5,481586
1,754167	0,1	5,503023
1,755833	0,1	5,473624
1,757500	0,1	5,441271
1,759167	0,1	5,423831
1,760833	0,1	5,380044
1,762500	0,1	5,408341
1,764167	0,1	5,349681
1,765833	0,1	5,327758
1,767500	0,1	5,299880
1,769167	0,1	5,225166
1,770833	0,1	5,211052
1,772500	0,1	5,149010
1,774167	0,1	5,134406
1,775833	0,1	5,084964
1,777500	0,1	5,070477
1,779167	0,1	5,051126
1,780833	0,1	4,989078
1,782500	0,1	4,970714
1,784167	0,1	4,919299
1,785833	0,1	4,898758
1,787500	0,1	4,856113
1,789167	0,1	4,788411
1,790833	0,1	4,756704
1,792500	0,1	4,755819
1,794167	0,1	4,709171
1,795833	0,1	4,679891
1,797500	0,1	4,613915
1,799167	0,1	4,590174
1,800833	0,1	4,538590
1,802500	0,1	4,523275
1,804167	0,1	4,421041
1,805833	0,1	4,405453
1,807500	0,1	4,373403
1,809167	0,1	4,357576
1,810833	0,1	4,331118
1,812500	0,1	4,277821
1,814167	0,1	4,227028
1,815833	0,1	4,224329
1,817500	0,1	4,190841
1,819167	0,1	4,144489
1,820833	0,1	4,090084
1,822500	0,1	4,030314
1,824167	0,1	4,038109
1,825833	0,1	3,969335
1,827500	0,1	3,962161
1,829167	0,1	3,952887
1,830833	0,1	3,868094
1,832500	0,1	3,880844
1,834167	0,1	3,841691
1,835833	0,1	3,799361
1,837500	0,1	3,775365
1,839167	0,1	3,788528
1,840833	0,1	3,793379
1,842500	0,1	3,759263
1,844167	0,1	3,760306
1,845833	0,1	3,771943
1,847500	0,1	3,791094
1,849167	0,1	3,784996
1,850833	0,1	3,793129
1,852500	0,1	3,849971
1,854167	0,1	3,867586
1,855833	0,1	3,923501
1,857500	0,1	4,004649
1,859167	0,1	4,024803
1,860833	0,1	4,057675
1,862500	0,1	4,157071
1,864167	0,1	4,213326
1,865833	0,1	4,266934
1,867500	0,1	4,339159
1,869167	0,1	4,402141
1,870833	0,1	4,473210
1,872500	0,1	4,562471
1,874167	0,1	4,616061
1,875833	0,1	4,644214
1,877500	0,1	4,699812
1,879167	0,1	4,799684
1,880833	0,1	4,880272
1,882500	0,1	4,903315
1,884167	0,1	4,977946
1,885833	0,1	5,013871
1,887500	0,1	5,061671
1,889167	0,1	5,100027
1,890833	0,1	5,190053
1,892500	0,1	5,184941
1,894167	0,1	5,208824
1,895833	0,1	5,291149
1,897500	0,1	5,317668
1,899167	0,1	5,394597
1,900833	0,1	5,373596
1,902500	0,1	5,448555
1,904167	0,1	5,440134
1,905833	0,1	5,507125
1,907500	0,1	5,531479
1,909167	0,1	5,533621
1,910833	0,1	5,567458
1,912500	0,1	5,612023
1,914167	0,1	5,642435
1,915833	0,1	5,712850
1,917500	0,1	5,709392
1,919167	0,1	5,678668
1,920833	0,1	5,680784
1,922500	0,1	5,734848
1,924167	0,1	5,737936
1,925833	0,1	5,722181
1,927500	0,1	5,768286
1,929167	0,1	5,769231
1,930833	0,1	5,756817
1,932500	0,1	5,708523
1,934167	0,1	5,759521
1,935833	0,1	5,709386
1,937500	0,1	5,716547
1,939167	0,1	5,758229
1,940833	0,1	5,762206
1,942500	0,1	5,716395
1,944167	0,1	5,705384
1,945833	0,1	5,732537
1,947500	0,1	5,718632
1,949167	0,1	5,641807
1,950833	0,1	5,654425
1,952500	0,1	5,642301
1,954167	0,1	5,599877
1,955833	0,1	5,618843
1,957500	0,1	5,612212
1,959167	0,1	5,627798
1,960833	0,1	5,554650
1,962500	0,1	5,567906
1,964167	0,1	5,519847
1,965833	0,1	5,540468
1,967500	0,1	5,499401
1,969167	0,1	5,500521
1,970833	0,1	5,484744
1,972500	0,1	5,490002
1,974167	0,1	5,475775
1,975833	0,1	5,405012
1,977500	0,1	5,442016
1,979167	0,1	5,444050
1,980833	0,1	5,405949
1,982500	0,1	5,390592
1,984167	0,1	5,409784
1,985833	0,1	5,450698
1,987500	0,1	5,408252
1,989167	0,1	5,428674
1,990833	0,1	5,419061
1,992500	0,1	5,406654
1,994167	0,1	5,400494
1,995833	0,1	5,420381
1,997500	0,1	5,393619
1,999167	0,1	5,387890
2,000833	0,1	5,374354
2,002500	0,1	5,429631
2,004167	0,1	5,394730
2,005833	0,1	5,410478
2,007500	0,1	5,419994
2,009167	0,1	5,439387
2,010833	0,1	5,420526
2,012500	0,1	5,490707
2,014167	0,1	5,492527
2,015833	0,1	5,464675
2,017500	0,1	5,495146
2,019167	0,1	5,486136
2,020833	0,1	5,480910
2,022500	0,1	5,527838
2,024167	0,1	5,557450
2,025833	0,1	5,568099
2,027500	0,1	5,585897
2,029167	0,1	5,610986
2,030833	0,1	5,639217
2,032500	0,1	5,664699
2,034167	0,1	5,671117
2,035833	0,1	5,699848
2,037500	0,1	5,704282
2,039167	0,1	5,733029
2,040833	0,1	5,766074
2,042500	0,1	5,804353
2,044167	0,1	5,817253
2,045833	0,1	5,837472
2,047500	0,1	5,828650
2,049167	0,1	5,878379
2,050833	0,1	5,927886
2,052500	0,1	5,929589
2,054167	0,1	5,972249
2,055833	0,1	5,973757
2,057500	0,1	5,965992
2,059167	0,1	6,004291
2,060833	0,1	6,057177
2,062500	0,1	6,059714
2,064167	0,1	6,067552
2,065833	0,1	6,100710
2,067500	0,1	6,181447
2,069167	0,1	6,153617
2,070833	0,1	6,179143
2,072500	0,1	6,213026
2,074167	0,1	6,222748
2,075833	0,1	6,269215
2,077500	0,1	6,282853
2,079167	0,1	6,331012
2,080833	0,1	6,309892
2,082500	0,1	6,384475
2,084167	0,1	6,328782
2,085833	0,1	6,360557
2,087500	0,1	6,392053
2,089167	0,1	6,445545
2,090833	0,1	6,426193
2,092500	0,1	6,450688
2,094167	0,1	6,488373
2,095833	0,1	6,457432
2,097500	0,1	6,490331
2,099167	0,1	6,515028
2,100833	0,1	6,503535
2,102500	0,1	6,529806
2,104167	0,1	6,505312
2,105833	0,1	6,557392
2,107500	0,1	6,538892
2,109167	0,1	6,537676
2,110833	0,1	6,547113
2,112500	0,1	6,579098
2,114167	0,1	6,609317
2,115833	0,1	6,555273
2,117500	0,1	6,592953
2,119167	0,1	6,568918
2,120833	0,1	6,588082
2,122500	0,1	6,561150
2,124167	0,1	6,580317
2,125833	0,1	6,584064
2,127500	0,1	6,574338
2,129167	0,1	6,609971
2,130833	0,1	6,605861
2,132500	0,1	6,563685
2,134167	0,1	6,567694
2,135833	0,1	6,572835
2,137500	0,1	6,570038
2,139167	0,1	6,576671
2,140833	0,1	6,547505
2,142500	0,1	6,538513
2,144167	0,1	6,543653
2,145833	0,1	6,523927
2,147500	0,1	6,512323
2,149167	0,1	6,538597
2,150833	0,1	6,525710
2,152500	0,1	6,464360
2,154167	0,1	6,455837
2,155833	0,1	6,455181
2,157500	0,1	6,452572
2,159167	0,1	6,451248
2,160833	0,1	6,447059
2,162500	0,1	6,410494
2,164167	0,1	6,425168
2,165833	0,1	6,400490
2,167500	0,1	6,375050
2,169167	0,1	6,364482
2,170833	0,1	6,354753
2,172500	0,1	6,332326
2,174167	0,1	6,306800
2,175833	0,1	6,308958
2,177500	0,1	6,308579
2,179167	0,1	6,278206
2,180833	0,1	6,257454
2,182500	0,1	6,279978
2,184167	0,1	6,220255
2,185833	0,1	6,222674
2,187500	0,1	6,177279
2,189167	0,1	6,142763
2,190833	0,1	6,178105
2,192500	0,1	6,134189
2,194167	0,1	6,122215
2,195833	0,1	6,102133
2,197500	0,1	6,085135
2,199167	0,1	6,062045
2,200833	0,1	6,090439
2,202500	0,1	6,022377
2,204167	0,1	6,044557
2,205833	0,1	6,027846
2,207500	0,1	5,972362
2,209167	0,1	6,008012
2,210833	0,1	5,974859
2,212500	0,1	5,985266
2,214167	0,1	5,986181
2,215833	0,1	5,946935
2,217500	0,1	5,939952
2,219167	0,1	5,908845
2,220833	0,1	5,915180
2,222500	0,1	5,897534
2,224167	0,1	5,929326
2,225833	0,1	5,864025
2,227500	0,1	5,861267
2,229167	0,1	5,902595
2,230833	0,1	5,918472
2,232500	0,1	5,877941
2,234167	0,1	5,881289
2,235833	0,1	5,876162
2,237500	0,1	5,903482
2,239167	0,1	5,877654
2,240833	0,1	5,829644
2,242500	0,1	5,827660
2,244167	0,1	5,824481
2,245833	0,1	5,828814
2,247500	0,1	5,819577
2,249167	0,1	5,859988
2,250833	0,1	5,812649
2,252500	0,1	5,805079
2,254167	0,1	5,828946
2,255833	0,1	5,808021
2,257500	0,1	5,792082
2,259167	0,1	5,838725
2,260833	0,1	5,815554
2,262500	0,1	5,825825
2,264167	0,1	5,820883
2,265833	0,1	5,801099
2,267500	0,1	5,788010
2,269167	0,1	5,796502
2,270833	0,1	5,768585
2,272500	0,1	5,772973
2,274167	0,1	5,783830
2,275833	0,1	5,763073
2,277500	0,1	5,791462
2,279167	0,1	5,726247
2,280833	0,1	5,733004
2,282500	0,1	5,702313
2,284167	0,1	5,667046
2,285833	0,1	5,670627
2,287500	0,1	5,653587
2,289167	0,1	5,646944
2,290833	0,1	5,635169
2,292500	0,1	5,640762
2,294167	0,1	5,604184
2,295833	0,1	5,565498
2,297500	0,1	5,580829
2,299167	0,1	5,575731
2,300833	0,1	5,554389
2,302500	0,1	5,569512
2,304167	0,1	5,505850
2,305833	0,1	5,518066
2,307500	0,1	5,490838
2,309167	0,1	5,477772
2,310833	0,1	5,483538
2,312500	0,1	5,440943
2,314167	0,1	5,408443
2,315833	0,1	5,390546
2,317500	0,1	5,381599
2,319167	0,1	5,420220
2,320833	0,1	5,360675
2,322500	0,1	5,317294
2,324167	0,1	5,349074
2,325833	0,1	5,303235
2,327500	0,1	5,280554
2,329167	0,1	5,245677
2,330833	0,1	5,281150
2,332500	0,1	5,254443
2,334167	0,1	5,234032
2,335833	0,1	5,212751
2,337500	0,1	5,195152
2,339167	0,1	5,164061
2,340833	0,1	5,195029
2,342500	0,1	5,152057
2,344167	0,1	5,158903
2,345833	0,1	5,086042
2,347500	0,1	5,122388
2,349167	0,1	5,114087
2,350833	0,1	5,078031
2,352500	0,1	5,073283
2,354167	0,1	5,055693
2,355833	0,1	5,096787
2,357500	0,1	5,012846
2,359167	0,1	5,041378
2,360833	0,1	5,038666
2,362500	0,1	5,020855
2,364167	0,1	5,018818
2,365833	0,1	5,016775
2,367500	0,1	5,011127
2,369167	0,1	5,004095
2,370833	0,1	5,011296
2,372500	0,1	5,013931
2,374167	0,1	5,009966
2,375833	0,1	5,036221
2,377500	0,1	5,033052
2,379167	0,1	5,032450
2,380833	0,1	5,104832
2,382500	0,1	5,092885
2,384167	0,1	5,111801
2,385833	0,1	5,134247
2,387500	0,1	5,191459
2,389167	0,1	5,232430
2,390833	0,1	5,290545
2,392500	0,1	5,316101
2,394167	0,1	5,353989
2,395833	0,1	5,439020
2,397500	0,1	5,536635
2,399167	0,1	5,594042
2,400833	0,1	5,644051
2,402500	0,1	5,770062
2,404167	0,1	5,876879
2,405833	0,1	6,002228
2,407500	0,1	6,141431
2,409167	0,1	6,273495
2,410833	0,1	6,422333
2,412500	0,1	6,568139
2,414167	0,1	6,740173
2,415833	0,1	6,896197
2,417500	0,1	7,098426
2,419167	0,1	7,270795
2,420833	0,1	7,480511
2,422500	0,1	7,714587
2,424167	0,1	7,890983
2,425833	0,1	8,150047
2,427500	0,1	8,375656
2,429167	0,1	8,642393
2,430833	0,1	8,861471
2,432500	0,1	9,199732
2,434167	0,1	9,420400
2,435833	0,1	9,692634
2,437500	0,1	10,013982
2,439167	0,1	10,283946
2,440833	0,1	10,516145
2,442500	0,1	10,848195
2,444167	0,1	11,090669
2,445833	0,1	11,385116
2,447500	0,1	11,663867
2,449167	0,1	11,934212
2,450833	0,1	12,232533
2,452500	0,1	12,437275
2,454167	0,1	12,757049
2,455833	0,1	13,010517
2,457500	0,1	13,259058
2,459167	0,1	13,519719
2,460833	0,1	13,771812
2,462500	0,1	13,996753
2,464167	0,1	14,229147
2,465833	0,1	14,535281
2,467500	0,1	14,734483
2,469167	0,1	14,920002
2,470833	0,1	15,170361
2,472500	0,1	15,372262
2,474167	0,1	15,625960
2,475833	0,1	15,842370
2,477500	0,1	16,051249
2,479167	0,1	16,270657
2,480833	0,1	16,505600
2,482500	0,1	16,688319
2,484167	0,1	16,964172
2,485833	0,1	17,192570
2,487500	0,1	17,460245
2,489167	0,1	17,716917
2,490833	0,1	18,008594
2,492500	0,1	18,282584
2,494167	0,1	18,639313
2,495833	0,1	18,954432
2,497500	0,1	19,305040
2,499167	0,1	19,706848
2,500833	0,1	20,070558
2,502500	0,1	20,538866
2,504167	0,1	20,983574
2,505833	0,1	21,428936
2,507500	0,1	22,006186
2,509167	0,1	22,541339
2,510833	0,1	23,083580
2,512500	0,1	23,735451
2,514167	0,1	24,420141
2,515833	0,1	25,062619
2,517500	0,1	25,817811
2,519167	0,1	26,596289
2,520833	0,1	27,400234
2,522500	0,1	28,236379
2,524167	0,1	29,099397
2,525833	0,1	29,978414
2,527500	0,1	30,947837
2,529167	0,1	31,876505
2,530833	0,1	32,888395
2,532500	0,1	33,968808
2,534167	0,1	34,982150
2,535833	0,1	36,107916
2,537500	0,1	37,220407
2,539167	0,1	38,360650
2,540833	0,1	39,511124
2,542500	0,1	40,717021
2,544167	0,1	41,889264
2,545833	0,1	43,101003
2,547500	0,1	44,283787
2,549167	0,1	45,499171
2,550833	0,1	46,725771
2,552500	0,1	47,898311
2,554167	0,1	49,147797
2,555833	0,1	50,293493
2,557500	0,1	51,498359
2,559167	0,1	52,652994
2,560833	0,1	53,792337
2,562500	0,1	54,949770
2,564167	0,1	55,994052
2,565833	0,1	57,090287
2,567500	0,1	58,109952
2,569167	0,1	59,122465
2,570833	0,1	60,110414
2,572500	0,1	61,015166
2,574167	0,1	61,915235
2,575833	0,1	62,805325
2,577500	0,1	63,616938
2,579167	0,1	64,334907
2,580833	0,1	65,122781
2,582500	0,1	65,786410
2,584167	0,1	66,425852
2,585833	0,1	67,024110
2,587500	0,1	67,541074
2,589167	0,1	68,094657
2,590833	0,1	68,485448
2,592500	0,1	68,969996
2,594167	0,1	69,289983
2,595833	0,1	69,629760
2,597500	0,1	69,908347
2,599167	0,1	70,127534
2,600833	0,1	70,319653
2,602500	0,1	70,458697
2,604167	0,1	70,621886
2,605833	0,1	70,674555
2,607500	0,1	70,708256
2,609167	0,1	70,716002
2,610833	0,1	70,633732
2,612500	0,1	70,585111
2,614167	0,1	70,489785
2,615833	0,1	70,287332
2,617500	0,1	70,087286
2,619167	0,1	69,911979
2,620833	0,1	69,618074
2,622500	0,1	69,409312
2,624167	0,1	68,994979
2,625833	0,1	68,654681
2,627500	0,1	68,342597
2,629167	0,1	67,936727
2,630833	0,1	67,514153
2,632500	0,1	67,024996
2,634167	0,1	66,596045
2,635833	0,1	66,107076
2,637500	0,1	65,565412
2,639167	0,1	65,037683
2,640833	0,1	64,462571
2,642500	0,1	63,883873
2,644167	0,1	63,279498
2,645833	0,1	62,694250
2,647500	0,1	62,046408
2,649167	0,1	61,425777
2,650833	0,1	60,746815
2,652500	0,1	60,091202
2,654167	0,1	59,367945
2,655833	0,1	58,676462
2,657500	0,1	57,938509
2,659167	0,1	57,209097
2,660833	0,1	56,470850
2,662500	0,1	55,792517
2,664167	0,1	55,026286
2,665833	0,1	54,236501
2,667500	0,1	53,504847
2,669167	0,1	52,744676
2,670833	0,1	51,940970
2,672500	0,1	51,139495
2,674167	0,1	50,378203
2,675833	0,1	49,601727
2,677500	0,1	48,805644
2,679167	0,1	48,082790
2,680833	0,1	47,292562
2,682500	0,1	46,470695
2,684167	0,1	45,715253
2,685833	0,1	44,978199
2,687500	0,1	44,187734
2,689167	0,1	43,414472
2,690833	0,1	42,649196
2,692500	0,1	41,927939
2,694167	0,1	41,153936
2,695833	0,1	40,429146
2,697500	0,1	39,668209
2,699167	0,1	38,936073
2,700833	0,1	38,231265
2,702500	0,1	37,539964
2,704167	0,1	36,845558
2,705833	0,1	36,066077
2,707500	0,1	35,439047
2,709167	0,1	34,774810
2,710833	0,1	34,075052
2,712500	0,1	33,432352
2,714167	0,1	32,787971
2,715833	0,1	32,160722
2,717500	0,1	31,503675
2,719167	0,1	30,918506
2,720833	0,1	30,344182
2,722500	0,1	29,722372
2,724167	0,1	29,144419
2,725833	0,1	28,632918
2,727500	0,1	28,063974
2,729167	0,1	27,509240
2,730833	0,1	26,946249
2,732500	0,1	26,439111
2,734167	0,1	25,919019
2,735833	0,1	25,430386
2,737500	0,1	24,906488
2,739167	0,1	24,424008
2,740833	0,1	24,014910
2,742500	0,1	23,497053
2,744167	0,1	23,038084
2,745833	0,1	22,642034
2,747500	0,1	22,212876
2,749167	0,1	21,775351
2,750833	0,1	21,386323
2,752500	0,1	20,997095
2,754167	0,1	20,605712
2,755833	0,1	20,203205
2,757500	0,1	19,834709
2,759167	0,1	19,465846
2,760833	0,1	19,151872
2,762500	0,1	18,786948
2,764167	0,1	18,454138
2,765833	0,1	18,150346
2,767500	0,1	17,800374
2,769167	0,1	17,472188
2,770833	0,1	17,178447
2,772500	0,1	16,920963
2,774167	0,1	16,587912
2,775833	0,1	16,285118
2,777500	0,1	15,978303
2,779167	0,1	15,738947
2,780833	0,1	15,491857
2,782500	0,1	15,176259
2,784167	0,1	14,922246
2,785833	0,1	14,722874
2,787500	0,1	14,476389
2,789167	0,1	14,205022
2,790833	0,1	13,964690
2,792500	0,1	13,721813
2,794167	0,1	13,514529
2,795833	0,1	13,298180
2,797500	0,1	13,102098
2,799167	0,1	12,877527
2,800833	0,1	12,683274
2,802500	0,1	12,490741
2,804167	0,1	12,238991
2,805833	0,1	12,050657
2,807500	0,1	11,889474
2,809167	0,1	11,682576
2,810833	0,1	11,485606
2,812500	0,1	11,360899
2,814167	0,1	11,140915
2,815833	0,1	10,981967
2,817500	0,1	10,812511
2,819167	0,1	10,673454
2,820833	0,1	10,476655
2,822500	0,1	10,340563
2,824167	0,1	10,127407
2,825833	0,1	10,021947
2,827500	0,1	9,902403
2,829167	0,1	9,707869
2,830833	0,1	9,574506
2,832500	0,1	9,399919
2,834167	0,1	9,284930
2,835833	0,1	9,135750
2,837500	0,1	9,017411
2,839167	0,1	8,853252
2,840833	0,1	8,734601
2,842500	0,1	8,602683
2,844167	0,1	8,507097
2,845833	0,1	8,375943
2,847500	0,1	8,253763
2,849167	0,1	8,137010
2,850833	0,1	8,007759
2,852500	0,1	7,913461
2,854167	0,1	7,766981
2,855833	0,1	7,691910
2,857500	0,1	7,625400
2,859167	0,1	7,505986
2,860833	0,1	7,409425
2,862500	0,1	7,294538
2,864167	0,1	7,143743
2,865833	0,1	7,112531
2,867500	0,1	7,037147
2,869167	0,1	6,885597
2,870833	0,1	6,822302
2,872500	0,1	6,761004
2,874167	0,1	6,635734
2,875833	0,1	6,584176
2,877500	0,1	6,527306
2,879167	0,1	6,443338
2,880833	0,1	6,359294
2,882500	0,1	6,301232
2,884167	0,1	6,224951
2,885833	0,1	6,141310
2,887500	0,1	6,073658
2,889167	0,1	5,984163
2,890833	0,1	5,886633
2,892500	0,1	5,897451
2,894167	0,1	5,795757
2,895833	0,1	5,729976
2,897500	0,1	5,684691
2,899167	0,1	5,611447
2,900833	0,1	5,549245
2,902500	0,1	5,505513
2,904167	0,1	5,464822
2,905833	0,1	5,417629
2,907500	0,1	5,303513
2,909167	0,1	5,313015
2,910833	0,1	5,220406
2,912500	0,1	5,139272
2,914167	0,1	5,152509
2,915833	0,1	5,087677
2,917500	0,1	5,039278
2,919167	0,1	4,988467
2,920833	0,1	4,953158
2,922500	0,1	4,902112
2,924167	0,1	4,881345
2,925833	0,1	4,800720
2,927500	0,1	4,769520
2,929167	0,1	4,749758
2,930833	0,1	4,657900
2,932500	0,1	4,647008
2,934167	0,1	4,621106
2,935833	0,1	4,546416
2,937500	0,1	4,520486
2,939167	0,1	4,467961
2,940833	0,1	4,458394
2,942500	0,1	4,401256
2,944167	0,1	4,411879
2,945833	0,1	4,359976
2,947500	0,1	4,288897
2,949167	0,1	4,270695
2,950833	0,1	4,241912
2,952500	0,1	4,196817
2,954167	0,1	4,209088
2,955833	0,1	4,177935
2,957500	0,1	4,124544
2,959167	0,1	4,086700
2,960833	0,1	4,005583
2,962500	0,1	4,041642
2,964167	0,1	4,016922
2,965833	0,1	3,973355
2,967500	0,1	3,952404
2,969167	0,1	3,917629
2,970833	0,1	3,935393
2,972500	0,1	3,883345
2,974167	0,1	3,831171
2,975833	0,1	3,816439
2,977500	0,1	3,771191
2,979167	0,1	3,751543
2,980833	0,1	3,725490
2,982500	0,1	3,758704
2,984167	0,1	3,689885
2,985833	0,1	3,678926
2,987500	0,1	3,656337
2,989167	0,1	3,653287
2,990833	0,1	3,641583
2,992500	0,1	3,605661
2,994167	0,1	3,539977
2,995833	0,1	3,548775
2,997500	0,1	3,540788
2,999167	0,1	3,509269
3,000833	0,1	3,501965
3,002500	0,1	3,471177
3,004167	0,1	3,505590
3,005833	0,1	3,451159
3,007500	0,1	3,426057
3,009167	0,1	3,408532
3,010833	0,1	3,352595
3,012500	0,1	3,359181
3,014167	0,1	3,326306
3,015833	0,1	3,311120
3,017500	0,1	3,316133
3,019167	0,1	3,301787
3,020833	0,1	3,274706
3,022500	0,1	3,296217
3,024167	0,1	3,259998
3,025833	0,1	3,227198
3,027500	0,1	3,238466
3,029167	0,1	3,245743
3,030833	0,1	3,182270
3,032500	0,1	3,220630
3,034167	0,1	3,186213
3,035833	0,1	3,178853
3,037500	0,1	3,116085
3,039167	0,1	3,119163
3,040833	0,1	3,108959
3,042500	0,1	3,114405
3,044167	0,1	3,099393
3,045833	0,1	3,063178
3,047500	0,1	3,040674
3,049167	0,1	3,082888
3,050833	0,1	3,043136
3,052500	0,1	3,018628
3,054167	0,1	2,990438
3,055833	0,1	2,973552
3,057500	0,1	2,936430
3,059167	0,1	2,959201
3,060833	0,1	2,948207
3,062500	0,1	2,974898
3,064167	0,1	2,920794
3,065833	0,1	2,910413
3,067500	0,1	2,881986
3,069167	0,1	2,892785
3,070833	0,1	2,921767
3,072500	0,1	2,868932
3,074167	0,1	2,844941
3,075833	0,1	2,859615
3,077500	0,1	2,811289
3,079167	0,1	2,827023
3,080833	0,1	2,827809
3,082500	0,1	2,782080
3,084167	0,1	2,818773
3,085833	0,1	2,784100
3,087500	0,1	2,777318
3,089167	0,1	2,723626
3,090833	0,1	2,766060
3,092500	0,1	2,760381
3,094167	0,1	2,753152
3,095833	0,1	2,726472
3,097500	0,1	2,751634
3,099167	0,1	2,757631
3,100833	0,1	2,748036
3,102500	0,1	2,710763
3,104167	0,1	2,717983
3,105833	0,1	2,725695
3,107500	0,1	2,708736
3,109167	0,1	2,712067
3,110833	0,1	2,726205
3,112500	0,1	2,749780
3,114167	0,1	2,730711
3,115833	0,1	2,711122
3,117500	0,1	2,729284
3,119167	0,1	2,713219
3,120833	0,1	2,732241
3,122500	0,1	2,716766
3,124167	0,1	2,725544
3,125833	0,1	2,725454
3,127500	0,1	2,772019
3,129167	0,1	2,745761
3,130833	0,1	2,731843
3,132500	0,1	2,741783
3,134167	0,1	2,738163
3,135833	0,1	2,770757
3,137500	0,1	2,777102
3,139167	0,1	2,824233
3,140833	0,1	2,824589
3,142500	0,1	2,814814
3,144167	0,1	2,820079
3,145833	0,1	2,825348
3,147500	0,1	2,808282
3,149167	0,1	2,864858
3,150833	0,1	2,842248
3,152500	0,1	2,839514
3,154167	0,1	2,869770
3,155833	0,1	2,902956
3,157500	0,1	2,876563
3,159167	0,1	2,882627
3,160833	0,1	2,911647
3,162500	0,1	2,897068
3,164167	0,1	2,892462
3,165833	0,1	2,882860
3,167500	0,1	2,911931
3,169167	0,1	2,903691
3,170833	0,1	2,910468
3,172500	0,1	2,891798
3,174167	0,1	2,888433
3,175833	0,1	2,948686
3,177500	0,1	2,932778
3,179167	0,1	2,944285
3,180833	0,1	2,896444
3,182500	0,1	2,896471
3,184167	0,1	2,947828
3,185833	0,1	2,898660
3,187500	0,1	2,894104
3,189167	0,1	2,911535
3,190833	0,1	2,913563
3,192500	0,1	2,950220
3,194167	0,1	2,911413
3,195833	0,1	2,930057
3,197500	0,1	2,885694
3,199167	0,1	2,848535
3,200833	0,1	2,903371
3,202500	0,1	2,862168
3,204167	0,1	2,872163
3,205833	0,1	2,882759
3,207500	0,1	2,850386
3,209167	0,1	2,865802
3,210833	0,1	2,826698
3,212500	0,1	2,816853
3,214167	0,1	2,809317
3,215833	0,1	2,772105
3,217500	0,1	2,765271
3,219167	0,1	2,766600
3,220833	0,1	2,752007
3,222500	0,1	2,765115
3,224167	0,1	2,732751
3,225833	0,1	2,695339
3,227500	0,1	2,691951
3,229167	0,1	2,706857
3,230833	0,1	2,685827
3,232500	0,1	2,668941
3,234167	0,1	2,634991
3,235833	0,1	2,649119
3,237500	0,1	2,623223
3,239167	0,1	2,622643
3,240833	0,1	2,592393
3,242500	0,1	2,573426
3,244167	0,1	2,576953
3,245833	0,1	2,533136
3,247500	0,1	2,517000
3,249167	0,1	2,536429
3,250833	0,1	2,481163
3,252500	0,1	2,501900
3,254167	0,1	2,445723
3,255833	0,1	2,445284
3,257500	0,1	2,413716
3,259167	0,1	2,393979
3,260833	0,1	2,420827
3,262500	0,1	2,397853
3,264167	0,1	2,369618
3,265833	0,1	2,329059
3,267500	0,1	2,313498
3,269167	0,1	2,263078
3,270833	0,1	2,266454
3,272500	0,1	2,293375
3,274167	0,1	2,243414
3,275833	0,1	2,234965
3,277500	0,1	2,167651
3,279167	0,1	2,187786
3,280833	0,1	2,165549
3,282500	0,1	2,191753
3,284167	0,1	2,175626
3,285833	0,1	2,131633
3,287500	0,1	2,075262
3,289167	0,1	2,093526
3,290833	0,1	2,084533
3,292500	0,1	2,049263
3,294167	0,1	2,067892
3,295833	0,1	2,029462
3,297500	0,1	2,007574
3,299167	0,1	1,978493
3,300833	0,1	1,975392
3,302500	0,1	1,959774
3,304167	0,1	1,947823
3,305833	0,1	1,969412
3,307500	0,1	1,910046
3,309167	0,1	1,906436
3,310833	0,1	1,886071
3,312500	0,1	1,880023
3,314167	0,1	1,852750
3,315833	0,1	1,858789
3,317500	0,1	1,835476
3,319167	0,1	1,795835
3,320833	0,1	1,795612
3,322500	0,1	1,836906
3,324167	0,1	1,771881
3,325833	0,1	1,795245
3,327500	0,1	1,789567
3,329167	0,1	1,775685
3,330833	0,1	1,781292
3,332500	0,1	1,728273
3,334167	0,1	1,748907
3,335833	0,1	1,743733
3,337500	0,1	1,710868
3,339167	0,1	1,721998
3,340833	0,1	1,666046
3,342500	0,1	1,661714
3,344167	0,1	1,696466
3,345833	0,1	1,678918
3,347500	0,1	1,649859
3,349167	0,1	1,684951
3,350833	0,1	1,660297
3,352500	0,1	1,648920
3,354167	0,1	1,646541
3,355833	0,1	1,626265
3,357500	0,1	1,658271
3,359167	0,1	1,601680
3,360833	0,1	1,614680
3,362500	0,1	1,633533
3,364167	0,1	1,581094
3,365833	0,1	1,605320
3,367500	0,1	1,572463
3,369167	0,1	1,581650
3,370833	0,1	1,617476
3,372500	0,1	1,604836
3,374167	0,1	1,543484
3,375833	0,1	1,574398
3,377500	0,1	1,583324
3,379167	0,1	1,560523
3,380833	0,1	1,541236
3,382500	0,1	1,551881
3,384167	0,1	1,543987
3,385833	0,1	1,574614
3,387500	0,1	1,544554
3,389167	0,1	1,551820
3,390833	0,1	1,556990
3,392500	0,1	1,538390
3,394167	0,1	1,480199
3,395833	0,1	1,519318
3,397500	0,1	1,547938
3,399167	0,1	1,553487
3,400833	0,1	1,540969
3,402500	0,1	1,530255
3,404167	0,1	1,532481
3,405833	0,1	1,503079
3,407500	0,1	1,493507
3,409167	0,1	1,541174
3,410833	0,1	1,479720
3,412500	0,1	1,517657
3,414167	0,1	1,508742
3,415833	0,1	1,482002
3,417500	0,1	1,566483
3,419167	0,1	1,546163
3,420833	0,1	1,526515
3,422500	0,1	1,491632
3,424167	0,1	1,456826
3,425833	0,1	1,504992
3,427500	0,1	1,515505
3,429167	0,1	1,516949
3,430833	0,1	1,552832
3,432500	0,1	1,508914
3,434167	0,1	1,512769
3,435833	0,1	1,516371
3,437500	0,1	1,499830
3,439167	0,1	1,538151
3,440833	0,1	1,565478
3,442500	0,1	1,566427
3,444167	0,1	1,566427
3,445833	0,1	1,555784
3,447500	0,1	1,579006
3,449167	0,1	1,555274
3,450833	0,1	1,578438
3,452500	0,1	1,570163
3,454167	0,1	1,569514
3,455833	0,1	1,592388
3,457500	0,1	1,560826
3,459167	0,1	1,581450
3,460833	0,1	1,635686
3,462500	0,1	1,647125
3,464167	0,1	1,640574
3,465833	0,1	1,619791
3,467500	0,1	1,648416
3,469167	0,1	1,662655
3,470833	0,1	1,648486
3,472500	0,1	1,671858
3,474167	0,1	1,704165
3,475833	0,1	1,711219
3,477500	0,1	1,717254
3,479167	0,1	1,742865
3,480833	0,1	1,745600
3,482500	0,1	1,759060
3,484167	0,1	1,766036
3,485833	0,1	1,814671
3,487500	0,1	1,840438
3,489167	0,1	1,847635
3,490833	0,1	1,818782
3,492500	0,1	1,827918
3,494167	0,1	1,925269
3,495833	0,1	1,865351
3,497500	0,1	1,901461
3,499167	0,1	1,925429
3,500833	0,1	1,946592
3,502500	0,1	1,929613
3,504167	0,1	1,950984
3,505833	0,1	1,975383
3,507500	0,1	1,998131
3,509167	0,1	2,029160
3,510833	0,1	2,062777
3,512500	0,1	2,036587
3,514167	0,1	2,061845
3,515833	0,1	2,043568
3,517500	0,1	2,086466
3,519167	0,1	2,061499
3,520833	0,1	2,124622
3,522500	0,1	2,101890
3,524167	0,1	2,153570
3,525833	0,1	2,117087
3,527500	0,1	2,160631
3,529167	0,1	2,188867
3,530833	0,1	2,175622
3,532500	0,1	2,176343
3,534167	0,1	2,194567
3,535833	0,1	2,182034
3,537500	0,1	2,240147
3,539167	0,1	2,181971
3,540833	0,1	2,188234
3,542500	0,1	2,237038
3,544167	0,1	2,190970
3,545833	0,1	2,201626
3,547500	0,1	2,230780
3,549167	0,1	2,241805
3,550833	0,1	2,235840
3,552500	0,1	2,213515
3,554167	0,1	2,232654
3,555833	0,1	2,212218
3,557500	0,1	2,260821
3,559167	0,1	2,222883
3,560833	0,1	2,222445
3,562500	0,1	2,238782
3,564167	0,1	2,222658
3,565833	0,1	2,218550
3,567500	0,1	2,200117
3,569167	0,1	2,179093
3,570833	0,1	2,220186
3,572500	0,1	2,181388
3,574167	0,1	2,172380
3,575833	0,1	2,180742
3,577500	0,1	2,160935
3,579167	0,1	2,154524
3,580833	0,1	2,124647
3,582500	0,1	2,163158
3,584167	0,1	2,093622
3,585833	0,1	2,122899
3,587500	0,1	2,122339
3,589167	0,1	2,093471
3,590833	0,1	2,096631
3,592500	0,1	2,142484
3,594167	0,1	2,106575
3,595833	0,1	2,088212
3,597500	0,1	2,045445
3,599167	0,1	2,079195
3,600833	0,1	2,052786
3,602500	0,1	2,065157
3,604167	0,1	2,016220
3,605833	0,1	2,033840
3,607500	0,1	1,974613
3,609167	0,1	2,017132
3,610833	0,1	1,981804
3,612500	0,1	2,007201
3,614167	0,1	1,955392
3,615833	0,1	1,961997
3,617500	0,1	1,949406
3,619167	0,1	1,909467
3,620833	0,1	1,905859
3,622500	0,1	1,901325
3,624167	0,1	1,852325
3,625833	0,1	1,877137
3,627500	0,1	1,878582
3,629167	0,1	1,831095
3,630833	0,1	1,796335
3,632500	0,1	1,824533
3,634167	0,1	1,798927
3,635833	0,1	1,789710
3,637500	0,1	1,756404
3,639167	0,1	1,755679
3,640833	0,1	1,760429
3,642500	0,1	1,743093
3,644167	0,1	1,755318
3,645833	0,1	1,718417
3,647500	0,1	1,661802
3,649167	0,1	1,727392
3,650833	0,1	1,676842
3,652500	0,1	1,669417
3,654167	0,1	1,690285
3,655833	0,1	1,613838
3,657500	0,1	1,617126
3,659167	0,1	1,599878
3,660833	0,1	1,609502
3,662500	0,1	1,585203
3,664167	0,1	1,614177
3,665833	0,1	1,550753
3,667500	0,1	1,604102
3,669167	0,1	1,562764
3,670833	0,1	1,549664
3,672500	0,1	1,556787
3,674167	0,1	1,488771
3,675833	0,1	1,488912
3,677500	0,1	1,486307
3,679167	0,1	1,508751
3,680833	0,1	1,467707
3,682500	0,1	1,452678
3,684167	0,1	1,472082
3,685833	0,1	1,456928
3,687500	0,1	1,432602
3,689167	0,1	1,439364
3,690833	0,1	1,440171
3,692500	0,1	1,411619
3,694167	0,1	1,459204
3,695833	0,1	1,380666
3,697500	0,1	1,420812
3,699167	0,1	1,350259
3,700833	0,1	1,382085
3,702500	0,1	1,425131
3,704167	0,1	1,373105
3,705833	0,1	1,359939
3,707500	0,1	1,345846
3,709167	0,1	1,309763
3,710833	0,1	1,327794
3,712500	0,1	1,304734
3,714167	0,1	1,343845
3,715833	0,1	1,302881
3,717500	0,1	1,265503
3,719167	0,1	1,328730
3,720833	0,1	1,305395
3,722500	0,1	1,303021
3,724167	0,1	1,265859
3,725833	0,1	1,280021
3,727500	0,1	1,262827
3,729167	0,1	1,274532
3,730833	0,1	1,242712
3,732500	0,1	1,282948
3,734167	0,1	1,265415
3,735833	0,1	1,260772
3,737500	0,1	1,263208
3,739167	0,1	1,264778
3,740833	0,1	1,250978
3,742500	0,1	1,235512
3,744167	0,1	1,173713
3,745833	0,1	1,246292
3,747500	0,1	1,195011
3,749167	0,1	1,218784
3,750833	0,1	1,225818
3,752500	0,1	1,165678
3,754167	0,1	1,201098
3,755833	0,1	1,211383
3,757500	0,1	1,185785
3,759167	0,1	1,207197
3,760833	0,1	1,226683
3,762500	0,1	1,211595
3,764167	0,1	1,176900
3,765833	0,1	1,228478
3,767500	0,1	1,212820
3,769167	0,1	1,178194
3,770833	0,1	1,206852
3,772500	0,1	1,222019
3,774167	0,1	1,225544
3,775833	0,1	1,202696
3,777500	0,1	1,187873
3,779167	0,1	1,220213
3,780833	0,1	1,177549
3,782500	0,1	1,167992
3,784167	0,1	1,184936
3,785833	0,1	1,216801
3,787500	0,1	1,177699
3,789167	0,1	1,226745
3,790833	0,1	1,218282
3,792500	0,1	1,132501
3,794167	0,1	1,179879
3,795833	0,1	1,165955
3,797500	0,1	1,211293
3,799167	0,1	1,196365
3,800833	0,1	1,189880
3,802500	0,1	1,202906
3,804167	0,1	1,239916
3,805833	0,1	1,236528
3,807500	0,1	1,136589
3,809167	0,1	1,174394
3,810833	0,1	1,199960
3,812500	0,1	1,203817
3,814167	0,1	1,182839
3,815833	0,1	1,189755
3,817500	0,1	1,222731
3,819167	0,1	1,180698
3,820833	0,1	1,219358
3,822500	0,1	1,219533
3,824167	0,1	1,224540
3,825833	0,1	1,185665
3,827500	0,1	1,211394
3,829167	0,1	1,218416
3,830833	0,1	1,176971
3,832500	0,1	1,199217
3,834167	0,1	1,202181
3,835833	0,1	1,205895
3,837500	0,1	1,215760
3,839167	0,1	1,197191
3,840833	0,1	1,216926
3,842500	0,1	1,182361
3,844167	0,1	1,203826
3,845833	0,1	1,172524
3,847500	0,1	1,225010
3,849167	0,1	1,181786
3,850833	0,1	1,214033
3,852500	0,1	1,210961
3,854167	0,1	1,232021
3,855833	0,1	1,218655
3,857500	0,1	1,226629
3,859167	0,1	1,179490
3,860833	0,1	1,194555
3,862500	0,1	1,165906
3,864167	0,1	1,201223
3,865833	0,1	1,201685
3,867500	0,1	1,171162
3,869167	0,1	1,190330
3,870833	0,1	1,157720
3,872500	0,1	1,202899
3,874167	0,1	1,187889
3,875833	0,1	1,178848
3,877500	0,1	1,171803
3,879167	0,1	1,169877
3,880833	0,1	1,200756
3,882500	0,1	1,179896
3,884167	0,1	1,191419
3,885833	0,1	1,172521
3,887500	0,1	1,186093
3,889167	0,1	1,154336
3,890833	0,1	1,140037
3,892500	0,1	1,175522
3,894167	0,1	1,156615
3,895833	0,1	1,173684
3,897500	0,1	1,165695
3,899167	0,1	1,181017
3,900833	0,1	1,131654
3,902500	0,1	1,161023
3,904167	0,1	1,142998
3,905833	0,1	1,132801
3,907500	0,1	1,123034
3,909167	0,1	1,123647
3,910833	0,1	1,128562
3,912500	0,1	1,116455
3,914167	0,1	1,091820
3,915833	0,1	1,136752
3,917500	0,1	1,094138
3,919167	0,1	1,106136
3,920833	0,1	1,079809
3,922500	0,1	1,103205
3,924167	0,1	1,095064
3,925833	0,1	1,079481
3,927500	0,1	1,099395
3,929167	0,1	1,075588
3,930833	0,1	1,097370
3,932500	0,1	1,073664
3,934167	0,1	1,097796
3,935833	0,1	1,091712
3,937500	0,1	1,059428
3,939167	0,1	1,066613
3,940833	0,1	1,041001
3,942500	0,1	1,034345
3,944167	0,1	1,049243
3,945833	0,1	1,048174
3,947500	0,1	1,017117
3,949167	0,1	1,011890
3,950833	0,1	1,027603
3,952500	0,1	1,002028
3,954167	0,1	1,032923
3,955833	0,1	1,018645
3,957500	0,1	1,043132
3,959167	0,1	0,973769
3,960833	0,1	1,012151
3,962500	0,1	1,041259
3,964167	0,1	0,992218
3,965833	0,1	0,972377
3,967500	0,1	1,008138
3,969167	0,1	1,010903
3,970833	0,1	1,009679
3,972500	0,1	0,971871
3,974167	0,1	0,985093
3,975833	0,1	0,990641
3,977500	0,1	0,981240
3,979167	0,1	0,954657
3,980833	0,1	0,959685
3,982500	0,1	0,972745
3,984167	0,1	1,002985
3,985833	0,1	0,997534
3,987500	0,1	1,010167
3,989167	0,1	0,969238
3,990833	0,1	0,944201
3,992500	0,1	0,952710
3,994167	0,1	0,952779
3,995833	0,1	0,928226
3,997500	0,1	0,962774
3,999167	0,1	1,005518
4,000833	0,1	0,964528
4,002500	0,1	0,924149
4,004167	0,1	0,957468
4,005833	0,1	0,938430
4,007500	0,1	0,932013
4,009167	0,1	0,940941
4,010833	0,1	0,946826
4,012500	0,1	0,962731
4,014167	0,1	0,972850
4,015833	0,1	0,962206
4,017500	0,1	0,970894
4,019167	0,1	0,940883
4,020833	0,1	0,967794
4,022500	0,1	0,948077
4,024167	0,1	0,957609
4,025833	0,1	0,933349
4,027500	0,1	0,938935
4,029167	0,1	0,954136
4,030833	0,1	0,943193
4,032500	0,1	0,957676
4,034167	0,1	0,967084
4,035833	0,1	0,958926
4,037500	0,1	0,956350
4,039167	0,1	0,958510
4,040833	0,1	0,957189
4,042500	0,1	0,958240
4,044167	0,1	0,960517
4,045833	0,1	0,958684
4,047500	0,1	0,956543
4,049167	0,1	0,980942
4,050833	0,1	0,962479
4,052500	0,1	1,019600
4,054167	0,1	0,987554
4,055833	0,1	1,018498
4,057500	0,1	0,978538
4,059167	0,1	0,978923
4,060833	0,1	1,041032
4,062500	0,1	1,017712
4,064167	0,1	1,019135
4,065833	0,1	0,999254
4,067500	0,1	1,038467
4,069167	0,1	1,030211
4,070833	0,1	1,013900
4,072500	0,1	1,020155
4,074167	0,1	1,049580
4,075833	0,1	1,096581
4,077500	0,1	1,076098
4,079167	0,1	1,110961
4,080833	0,1	1,057289
4,082500	0,1	1,102012
4,084167	0,1	1,099452
4,085833	0,1	1,045873
4,087500	0,1	1,128868
4,089167	0,1	1,132168
4,090833	0,1	1,160788
4,092500	0,1	1,183353
4,094167	0,1	1,145726
4,095833	0,1	1,209170
4,097500	0,1	1,169430
4,099167	0,1	1,195708
4,100833	0,1	1,194312
4,102500	0,1	1,211740
4,104167	0,1	1,236464
4,105833	0,1	1,222398
4,107500	0,1	1,269444
4,109167	0,1	1,244225
4,110833	0,1	1,303929
4,112500	0,1	1,262997
4,114167	0,1	1,292871
4,115833	0,1	1,291668
4,117500	0,1	1,320191
4,119167	0,1	1,321445
4,120833	0,1	1,297481
4,122500	0,1	1,334777
4,124167	0,1	1,359213
4,125833	0,1	1,365467
4,127500	0,1	1,362603
4,129167	0,1	1,374812
4,130833	0,1	1,374964
4,132500	0,1	1,448068
4,134167	0,1	1,459940
4,135833	0,1	1,458359
4,137500	0,1	1,442205
4,139167	0,1	1,467621
4,140833	0,1	1,470163
4,142500	0,1	1,510407
4,144167	0,1	1,513082
4,145833	0,1	1,548091
4,147500	0,1	1,481732
4,149167	0,1	1,519248
4,150833	0,1	1,545218
4,152500	0,1	1,506910
4,154167	0,1	1,545136
4,155833	0,1	1,546143
4,157500	0,1	1,577296
4,159167	0,1	1,586425
4,160833	0,1	1,584486
4,162500	0,1	1,563187
4,164167	0,1	1,588582
4,165833	0,1	1,588862
4,167500	0,1	1,643524
4,169167	0,1	1,631093
4,170833	0,1	1,651082
4,172500	0,1	1,619152
4,174167	0,1	1,692360
4,175833	0,1	1,633399
4,177500	0,1	1,675107
4,179167	0,1	1,646052
4,180833	0,1	1,679351
4,182500	0,1	1,683030
4,184167	0,1	1,694039
4,185833	0,1	1,669785
4,187500	0,1	1,731209
4,189167	0,1	1,696843
4,190833	0,1	1,698567
4,192500	0,1	1,692739
4,194167	0,1	1,694825
4,195833	0,1	1,712878
4,197500	0,1	1,722668
4,199167	0,1	1,715252
4,200833	0,1	1,723742
4,202500	0,1	1,737190
4,204167	0,1	1,728704
4,205833	0,1	1,756253
4,207500	0,1	1,751366
4,209167	0,1	1,759353
4,210833	0,1	1,748637
4,212500	0,1	1,710875
4,214167	0,1	1,716828
4,215833	0,1	1,729997
4,217500	0,1	1,729926
4,219167	0,1	1,733818
4,220833	0,1	1,708779
4,222500	0,1	1,737184
4,224167	0,1	1,760646
4,225833	0,1	1,725331
4,227500	0,1	1,721939
4,229167	0,1	1,692452
4,230833	0,1	1,720494
4,232500	0,1	1,727053
4,234167	0,1	1,713166
4,235833	0,1	1,672173
4,237500	0,1	1,729557
4,239167	0,1	1,682465
4,240833	0,1	1,720855
4,242500	0,1	1,695408
4,244167	0,1	1,705820
4,245833	0,1	1,682247
4,247500	0,1	1,618595
4,249167	0,1	1,656257
4,250833	0,1	1,638144
4,252500	0,1	1,643313
4,254167	0,1	1,640518
4,255833	0,1	1,663458
4,257500	0,1	1,658937
4,259167	0,1	1,641169
4,260833	0,1	1,608289
4,262500	0,1	1,650436
4,264167	0,1	1,635048
4,265833	0,1	1,641892
4,267500	0,1	1,619451
4,269167	0,1	1,637994
4,270833	0,1	1,572555
4,272500	0,1	1,557018
4,274167	0,1	1,575208
4,275833	0,1	1,579883
4,277500	0,1	1,584427
4,279167	0,1	1,507043
4,280833	0,1	1,552479
4,282500	0,1	1,536744
4,284167	0,1	1,493889
4,285833	0,1	1,487699
4,287500	0,1	1,509335
4,289167	0,1	1,507845
4,290833	0,1	1,487702
4,292500	0,1	1,506887
4,294167	0,1	1,522779
4,295833	0,1	1,476418
4,297500	0,1	1,409548
4,299167	0,1	1,435348
4,300833	0,1	1,482369
4,302500	0,1	1,445426
4,304167	0,1	1,413372
4,305833	0,1	1,433049
4,307500	0,1	1,470375
4,309167	0,1	1,430416
4,310833	0,1	1,418973
4,312500	0,1	1,386408
4,314167	0,1	1,362192
4,315833	0,1	1,365180
4,317500	0,1	1,382793
4,319167	0,1	1,366778
4,320833	0,1	1,351990
4,322500	0,1	1,346800
4,324167	0,1	1,325157
4,325833	0,1	1,342326
4,327500	0,1	1,325456
4,329167	0,1	1,341333
4,330833	0,1	1,290604
4,332500	0,1	1,311206
4,334167	0,1	1,311857
4,335833	0,1	1,274224
4,337500	0,1	1,253486
4,339167	0,1	1,296209
4,340833	0,1	1,234916
4,342500	0,1	1,226717
4,344167	0,1	1,248753
4,345833	0,1	1,236419
4,347500	0,1	1,213346
4,349167	0,1	1,259179
4,350833	0,1	1,238801
4,352500	0,1	1,174458
4,354167	0,1	1,185515
4,355833	0,1	1,230019
4,357500	0,1	1,155267
4,359167	0,1	1,156380
4,360833	0,1	1,179845
4,362500	0,1	1,118879
4,364167	0,1	1,150882
4,365833	0,1	1,103327
4,367500	0,1	1,128982
4,369167	0,1	1,140418
4,370833	0,1	1,105142
4,372500	0,1	1,126328
4,374167	0,1	1,132151
4,375833	0,1	1,147987
4,377500	0,1	1,128209
4,379167	0,1	1,074386
4,380833	0,1	1,104192
4,382500	0,1	1,058426
4,384167	0,1	1,051884
4,385833	0,1	1,067480
4,387500	0,1	1,040048
4,389167	0,1	1,048512
4,390833	0,1	1,023123
4,392500	0,1	1,018729
4,394167	0,1	1,040411
4,395833	0,1	1,075267
4,397500	0,1	1,019524
4,399167	0,1	1,015361
4,400833	0,1	1,005156
4,402500	0,1	0,989422
4,404167	0,1	1,019707
4,405833	0,1	1,004104
4,407500	0,1	0,944344
4,409167	0,1	0,981246
4,410833	0,1	0,968517
4,412500	0,1	1,006166
4,414167	0,1	0,957816
4,415833	0,1	0,955453
4,417500	0,1	0,933877
4,419167	0,1	0,946198
4,420833	0,1	0,948360
4,422500	0,1	0,914272
4,424167	0,1	0,893905
4,425833	0,1	0,916755
4,427500	0,1	0,872209
4,429167	0,1	0,896231
4,430833	0,1	0,926312
4,432500	0,1	0,894352
4,434167	0,1	0,894770
4,435833	0,1	0,899311
4,437500	0,1	0,851797
4,439167	0,1	0,910238
4,440833	0,1	0,829769
4,442500	0,1	0,846234
4,444167	0,1	0,856750
4,445833	0,1	0,846865
4,447500	0,1	0,835990
4,449167	0,1	0,833025
4,450833	0,1	0,872741
4,452500	0,1	0,817464
4,454167	0,1	0,784732
4,455833	0,1	0,807465
4,457500	0,1	0,791276
4,459167	0,1	0,786952
4,460833	0,1	0,805284
4,462500	0,1	0,798471
4,464167	0,1	0,820853
4,465833	0,1	0,793130
4,467500	0,1	0,773301
4,469167	0,1	0,775345
4,470833	0,1	0,758887
4,472500	0,1	0,798661
4,474167	0,1	0,760472
4,475833	0,1	0,756433
4,477500	0,1	0,755229
4,479167	0,1	0,743870
4,480833	0,1	0,696434
4,482500	0,1	0,768131
4,484167	0,1	0,769040
4,485833	0,1	0,727685
4,487500	0,1	0,704313
4,489167	0,1	0,714396
4,490833	0,1	0,676365
4,492500	0,1	0,683702
4,494167	0,1	0,717041
4,495833	0,1	0,687808
4,497500	0,1	0,656474
4,499167	0,1	0,661790
4,500833	0,1	0,674168
4,502500	0,1	0,698023
4,504167	0,1	0,642470
4,505833	0,1	0,640453
4,507500	0,1	0,665033
4,509167	0,1	0,676445
4,510833	0,1	0,683219
4,512500	0,1	0,658568
4,514167	0,1	0,668156
4,515833	0,1	0,622960
4,517500	0,1	0,617982
4,519167	0,1	0,603803
4,520833	0,1	0,622325
4,522500	0,1	0,644720
4,524167	0,1	0,605746
4,525833	0,1	0,597449
4,527500	0,1	0,606645
4,529167	0,1	0,590888
4,530833	0,1	0,607394
4,532500	0,1	0,591822
4,534167	0,1	0,603374
4,535833	0,1	0,608791
4,537500	0,1	0,575210
4,539167	0,1	0,579721
4,540833	0,1	0,608983
4,542500	0,1	0,578581
4,544167	0,1	0,563291
4,545833	0,1	0,510522
4,547500	0,1	0,572986
4,549167	0,1	0,566084
4,550833	0,1	0,555277
4,552500	0,1	0,535028
4,554167	0,1	0,543875
4,555833	0,1	0,592546
4,557500	0,1	0,516580
4,559167	0,1	0,547453
4,560833	0,1	0,503303
4,562500	0,1	0,507270
4,564167	0,1	0,553894
4,565833	0,1	0,549427
4,567500	0,1	0,534710
4,569167	0,1	0,531833
4,570833	0,1	0,540421
4,572500	0,1	0,533679
4,574167	0,1	0,500203
4,575833	0,1	0,498747
4,577500	0,1	0,506201
4,579167	0,1	0,530218
4,580833	0,1	0,495461
4,582500	0,1	0,496639
4,584167	0,1	0,454920
4,585833	0,1	0,474562
4,587500	0,1	0,479114
4,589167	0,1	0,466019
4,590833	0,1	0,450648
4,592500	0,1	0,496376
4,594167	0,1	0,476957
4,595833	0,1	0,499518
4,597500	0,1	0,447372
4,599167	0,1	0,457844
4,600833	0,1	0,484179
4,602500	0,1	0,480211
4,604167	0,1	0,472016
4,605833	0,1	0,456458
4,607500	0,1	0,460523
4,609167	0,1	0,412316
4,610833	0,1	0,434762
4,612500	0,1	0,460218
4,614167	0,1	0,426803
4,615833	0,1	0,393403
4,617500	0,1	0,412235
4,619167	0,1	0,396329
4,620833	0,1	0,446272
4,622500	0,1	0,411341
4,624167	0,1	0,427663
4,625833	0,1	0,392948
4,627500	0,1	0,424590
4,629167	0,1	0,423018
4,630833	0,1	0,407268
4,632500	0,1	0,406588
4,634167	0,1	0,386294
4,635833	0,1	0,401712
4,637500	0,1	0,379970
4,639167	0,1	0,407258
4,640833	0,1	0,381746
4,642500	0,1	0,403321
4,644167	0,1	0,375932
4,645833	0,1	0,384091
4,647500	0,1	0,390676
4,649167	0,1	0,353060
4,650833	0,1	0,359244
4,652500	0,1	0,395091
4,654167	0,1	0,322378
4,655833	0,1	0,368885
4,657500	0,1	0,396030
4,659167	0,1	0,364547
4,660833	0,1	0,364183
4,662500	0,1	0,344500
4,664167	0,1	0,382923
4,665833	0,1	0,359572
4,667500	0,1	0,359891
4,669167	0,1	0,379989
4,670833	0,1	0,376702
4,672500	0,1	0,366637
4,674167	0,1	0,337824
4,675833	0,1	0,334559
4,677500	0,1	0,357142
4,679167	0,1	0,325722
4,680833	0,1	0,365110
4,682500	0,1	0,382506
4,684167	0,1	0,316536
4,685833	0,1	0,348039
4,687500	0,1	0,370788
4,689167	0,1	0,385154
4,690833	0,1	0,325213
4,692500	0,1	0,316358
4,694167	0,1	0,328682
4,695833	0,1	0,305231
4,697500	0,1	0,293808
4,699167	0,1	0,347580
4,700833	0,1	0,330142
4,702500	0,1	0,287684
4,704167	0,1	0,303609
4,705833	0,1	0,335809
4,707500	0,1	0,321686
4,709167	0,1	0,315002
4,710833	0,1	0,297809
4,712500	0,1	0,330451
4,714167	0,1	0,334460
4,715833	0,1	0,268653
4,717500	0,1	0,293635
4,719167	0,1	0,326803
4,720833	0,1	0,309361
4,722500	0,1	0,285357
4,724167	0,1	0,311737
4,725833	0,1	0,308614
4,727500	0,1	0,314548
4,729167	0,1	0,313164
4,730833	0,1	0,256906
4,732500	0,1	0,277633
4,734167	0,1	0,255123
4,735833	0,1	0,282213
4,737500	0,1	0,245834
4,739167	0,1	0,275695
4,740833	0,1	0,259478
4,742500	0,1	0,280601
4,744167	0,1	0,297380
4,745833	0,1	0,273126
4,747500	0,1	0,272411
4,749167	0,1	0,281959
4,750833	0,1	0,282928
4,752500	0,1	0,263351
4,754167	0,1	0,271376
4,755833	0,1	0,289120
4,757500	0,1	0,275609
4,759167	0,1	0,264187
4,760833	0,1	0,294377
4,762500	0,1	0,307188
4,764167	0,1	0,302516
4,765833	0,1	0,236132
4,767500	0,1	0,266758
4,769167	0,1	0,260508
4,770833	0,1	0,261376
4,772500	0,1	0,290119
4,774167	0,1	0,260867
4,775833	0,1	0,262860
4,777500	0,1	0,257088
4,779167	0,1	0,297344
4,780833	0,1	0,249548
4,782500	0,1	0,249408
4,784167	0,1	0,243731
4,785833	0,1	0,277985
4,787500	0,1	0,274476
4,789167	0,1	0,268798
4,790833	0,1	0,236349
4,792500	0,1	0,218601
4,794167	0,1	0,230982
4,795833	0,1	0,214183
4,797500	0,1	0,279429
4,799167	0,1	0,250994
4,800833	0,1	0,247826
4,802500	0,1	0,264986
4,804167	0,1	0,279376
4,805833	0,1	0,282639
4,807500	0,1	0,249576
4,809167	0,1	0,271373
4,810833	0,1	0,220577
4,812500	0,1	0,234467
4,814167	0,1	0,264337
4,815833	0,1	0,249572
4,817500	0,1	0,274761
4,819167	0,1	0,223611
4,820833	0,1	0,230338
4,822500	0,1	0,252371
4,824167	0,1	0,273373
4,825833	0,1	0,224965
4,827500	0,1	0,218245
4,829167	0,1	0,243303
4,830833	0,1	0,238148
4,832500	0,1	0,242374
4,834167	0,1	0,242375
4,835833	0,1	0,263405
4,837500	0,1	0,211382
4,839167	0,1	0,237143
4,840833	0,1	0,255694
4,842500	0,1	0,224347
4,844167	0,1	0,264722
4,845833	0,1	0,231737
4,847500	0,1	0,204150
4,849167	0,1	0,215596
4,850833	0,1	0,233110
4,852500	0,1	0,233759
4,854167	0,1	0,229115
4,855833	0,1	0,250402
4,857500	0,1	0,251021
4,859167	0,1	0,209866
4,860833	0,1	0,264043
4,862500	0,1	0,240122
4,864167	0,1	0,237858
4,865833	0,1	0,209734
4,867500	0,1	0,253429
4,869167	0,1	0,279858
4,870833	0,1	0,225514
4,872500	0,1	0,257402
4,874167	0,1	0,196418
4,875833	0,1	0,286748
4,877500	0,1	0,211229
4,879167	0,1	0,220434
4,880833	0,1	0,268656
4,882500	0,1	0,261347
4,884167	0,1	0,302697
4,885833	0,1	0,251550
4,887500	0,1	0,195804
4,889167	0,1	0,179726
4,890833	0,1	0,239393
4,892500	0,1	0,244954
4,894167	0,1	0,268727
4,895833	0,1	0,200256
4,897500	0,1	0,250847
4,899167	0,1	0,233540
4,900833	0,1	0,244372
4,902500	0,1	0,232666
4,904167	0,1	0,220247
4,905833	0,1	0,272496
4,907500	0,1	0,252154
4,909167	0,1	0,238701
4,910833	0,1	0,265629
4,912500	0,1	0,248896
4,914167	0,1	0,228087
4,915833	0,1	0,226792
4,917500	0,1	0,207762
4,919167	0,1	0,231303
4,920833	0,1	0,229437
4,922500	0,1	0,235566
4,924167	0,1	0,236212
4,925833	0,1	0,225601
4,927500	0,1	0,200990
4,929167	0,1	0,247106
4,930833	0,1	0,244342
4,932500	0,1	0,190122
4,934167	0,1	0,253038
4,935833	0,1	0,207640
4,937500	0,1	0,268718
4,939167	0,1	0,190873
4,940833	0,1	0,222881
4,942500	0,1	0,234274
4,944167	0,1	0,263339
4,945833	0,1	0,258830
4,947500	0,1	0,242185
4,949167	0,1	0,222473
4,950833	0,1	0,212956
4,952500	0,1	0,214565
4,954167	0,1	0,236658
4,955833	0,1	0,221183
4,957500	0,1	0,266045
4,959167	0,1	0,199744
4,960833	0,1	0,236560
4,962500	0,1	0,235696
4,964167	0,1	0,239342
4,965833	0,1	0,214378
4,967500	0,1	0,237819
4,969167	0,1	0,228117
4,970833	0,1	0,232662
4,972500	0,1	0,217861
4,974167	0,1	0,243690
4,975833	0,1	0,250246
4,977500	0,1	0,250149
4,979167	0,1	0,247022
4,980833	0,1	0,234571
4,982500	0,1	0,208540
4,984167	0,1	0,207950
4,985833	0,1	0,261106
4,987500	0,1	0,230799
4,989167	0,1	0,216569
4,990833	0,1	0,205599
4,992500	0,1	0,255428
4,994167	0,1	0,236572
4,995833	0,1	0,261468
4,997500	0,1	0,228800
4,999167	0,1	0,262014
5,000833	0,1	0,233122
5,002500	0,1	0,231888
5,004167	0,1	0,234373
5,005833	0,1	0,249694
5,007500	0,1	0,214413
5,009167	0,1	0,259365
5,010833	0,1	0,225252
5,012500	0,1	0,284819
5,014167	0,1	0,269188
5,015833	0,1	0,252574
5,017500	0,1	0,275825
5,019167	0,1	0,265573
5,020833	0,1	0,248638
5,022500	0,1	0,218446
5,024167	0,1	0,213469
5,025833	0,1	0,250496
5,027500	0,1	0,237505
5,029167	0,1	0,262403
5,030833	0,1	0,291536
5,032500	0,1	0,286448
5,034167	0,1	0,218290
5,035833	0,1	0,270011
5,037500	0,1	0,278216
5,039167	0,1	0,244384
5,040833	0,1	0,230407
5,042500	0,1	0,264853
5,044167	0,1	0,235413
5,045833	0,1	0,276595
5,047500	0,1	0,245996
5,049167	0,1	0,255696
5,050833	0,1	0,262312
5,052500	0,1	0,301825
5,054167	0,1	0,242389
5,055833	0,1	0,269211
5,057500	0,1	0,277700
5,059167	0,1	0,277895
5,060833	0,1	0,283508
5,062500	0,1	0,256995
5,064167	0,1	0,252666
5,065833	0,1	0,269567
5,067500	0,1	0,251929
5,069167	0,1	0,273794
5,070833	0,1	0,287540
5,072500	0,1	0,288349
5,074167	0,1	0,310799
5,075833	0,1	0,293515
5,077500	0,1	0,281061
5,079167	0,1	0,281865
5,080833	0,1	0,281285
5,082500	0,1	0,252835
5,084167	0,1	0,291179
5,085833	0,1	0,277867
5,087500	0,1	0,304186
5,089167	0,1	0,261838
5,090833	0,1	0,309051
5,092500	0,1	0,303613
5,094167	0,1	0,279613
5,095833	0,1	0,281606
5,097500	0,1	0,262898
5,099167	0,1	0,327311
5,100833	0,1	0,293842
5,102500	0,1	0,292802
5,104167	0,1	0,306578
5,105833	0,1	0,259614
5,107500	0,1	0,300440
5,109167	0,1	0,290192
5,110833	0,1	0,303222
5,112500	0,1	0,300804
5,114167	0,1	0,303030
5,115833	0,1	0,313742
5,117500	0,1	0,319549
5,119167	0,1	0,344100
5,120833	0,1	0,284268
5,122500	0,1	0,289027
5,124167	0,1	0,271287
5,125833	0,1	0,307507
5,127500	0,1	0,286483
5,129167	0,1	0,264383
5,130833	0,1	0,323375
5,132500	0,1	0,275197
5,134167	0,1	0,244542
5,135833	0,1	0,264373
5,137500	0,1	0,283151
5,139167	0,1	0,249124
5,140833	0,1	0,311146
5,142500	0,1	0,298160
5,144167	0,1	0,317415
5,145833	0,1	0,317905
5,147500	0,1	0,311065
5,149167	0,1	0,246229
5,150833	0,1	0,290243
5,152500	0,1	0,268673
5,154167	0,1	0,291604
5,155833	0,1	0,257095
5,157500	0,1	0,271408
5,159167	0,1	0,272152
5,160833	0,1	0,291152
5,162500	0,1	0,275899
5,164167	0,1	0,280315
5,165833	0,1	0,272477
5,167500	0,1	0,262863
5,169167	0,1	0,273152
5,170833	0,1	0,267121
5,172500	0,1	0,265798
5,174167	0,1	0,297826
5,175833	0,1	0,276223
5,177500	0,1	0,279541
5,179167	0,1	0,283508
5,180833	0,1	0,253963
5,182500	0,1	0,273245
5,184167	0,1	0,258187
5,185833	0,1	0,248185
5,187500	0,1	0,246828
5,189167	0,1	0,241052
5,190833	0,1	0,253243
5,192500	0,1	0,253117
5,194167	0,1	0,221672
5,195833	0,1	0,231565
5,197500	0,1	0,235342
5,199167	0,1	0,235923
5,200833	0,1	0,239084
5,202500	0,1	0,245793
5,204167	0,1	0,247762
5,205833	0,1	0,247989
5,207500	0,1	0,229184
5,209167	0,1	0,227536
5,210833	0,1	0,252500
5,212500	0,1	0,220283
5,214167	0,1	0,245467
5,215833	0,1	0,215220
5,217500	0,1	0,273010
5,219167	0,1	0,196294
5,220833	0,1	0,223593
5,222500	0,1	0,195733
5,224167	0,1	0,214981
5,225833	0,1	0,261043
5,227500	0,1	0,211578
5,229167	0,1	0,210212
5,230833	0,1	0,186087
5,232500	0,1	0,193176
5,234167	0,1	0,192985
5,235833	0,1	0,196309
5,237500	0,1	0,175022
5,239167	0,1	0,143058
5,240833	0,1	0,215741
5,242500	0,1	0,213436
5,244167	0,1	0,175996
5,245833	0,1	0,198593
5,247500	0,1	0,201757
5,249167	0,1	0,166767
5,250833	0,1	0,130769
5,252500	0,1	0,193262
5,254167	0,1	0,180830
5,255833	0,1	0,199885
5,257500	0,1	0,199889
5,259167	0,1	0,180443
5,260833	0,1	0,181985
5,262500	0,1	0,179759
5,264167	0,1	0,166474
5,265833	0,1	0,158599
5,267500	0,1	0,143443
5,269167	0,1	0,158273
5,270833	0,1	0,187140
5,272500	0,1	0,148353
5,274167	0,1	0,159019
5,275833	0,1	0,158085
5,277500	0,1	0,109555
5,279167	0,1	0,123150
5,280833	0,1	0,109766
5,282500	0,1	0,152043
5,284167	0,1	0,153087
5,285833	0,1	0,146991
5,287500	0,1	0,135771
5,289167	0,1	0,161399
5,290833	0,1	0,121937
5,292500	0,1	0,159786
5,294167	0,1	0,110654
5,295833	0,1	0,135340
5,297500	0,1	0,118386
5,299167	0,1	0,146758
5,300833	0,1	0,091298
5,302500	0,1	0,124371
5,304167	0,1	0,137178
5,305833	0,1	0,093429
5,307500	0,1	0,099867
5,309167	0,1	0,134948
5,310833	0,1	0,131348
5,312500	0,1	0,103651
5,314167	0,1	0,097935
5,315833	0,1	0,130594
5,317500	0,1	0,112645
5,319167	0,1	0,111059
5,320833	0,1	0,087454
5,322500	0,1	0,097094
5,324167	0,1	0,056436
5,325833	0,1	0,086541
5,327500	0,1	0,070946
5,329167	0,1	0,083740
5,330833	0,1	0,092025
5,332500	0,1	0,060341
5,334167	0,1	0,111275
5,335833	0,1	0,058437
5,337500	0,1	0,077578
5,339167	0,1	0,067557
5,340833	0,1	0,083511
5,342500	0,1	0,073171
5,344167	0,1	0,099798
5,345833	0,1	0,109222
5,347500	0,1	0,121830
5,349167	0,1	0,068884
5,350833	0,1	0,078127
5,352500	0,1	0,056749
5,354167	0,1	0,078968
5,355833	0,1	0,076458
5,357500	0,1	0,043599
5,359167	0,1	0,025692
5,360833	0,1	0,076862
5,362500	0,1	0,088807
5,364167	0,1	0,063073
5,365833	0,1	0,031764
5,367500	0,1	0,027760
5,369167	0,1	0,059681
5,370833	0,1	0,042089
5,372500	0,1	0,065776
5,374167	0,1	0,048338
5,375833	0,1	0,051040
5,377500	0,1	0,102436
5,379167	0,1	0,120377
5,380833	0,1	0,069629
5,382500	0,1	0,054240
5,384167	0,1	0,049596
5,385833	0,1	0,034921
5,387500	0,1	0,051653
5,389167	0,1	0,019673
5,390833	0,1	0,068995
5,392500	0,1	0,088805
5,394167	0,1	0,022515
5,395833	0,1	0,050516
5,397500	0,1	0,074089
5,399167	0,1	0,048858
5,400833	0,1	0,028673
5,402500	0,1	0,080739
5,404167	0,1	0,013106
5,405833	0,1	0,035176
5,407500	0,1	0,023664
5,409167	0,1	0,019113
5,410833	0,1	0,054746
5,412500	0,1	0,055818
5,414167	0,1	0,002710
5,415833	0,1	0,016828
5,417500	0,1	0,027846
5,419167	0,1	0,024635
5,420833	0,1	0,043506
5,422500	0,1	0,051620
5,424167	0,1	0,031015
5,425833	0,1	0,019315
5,427500	0,1	0,036365
5,429167	0,1	0,016128
5,430833	0,1	0,010638
5,432500	0,1	0,005834
5,434167	0,1	0,015377
5,435833	0,1	-0,038233
5,437500	0,1	0,031775
5,439167	0,1	0,026598
5,440833	0,1	-0,006412
5,442500	0,1	-0,006055
5,444167	0,1	0,018788
5,445833	0,1	0,003103
5,447500	0,1	0,008701
5,449167	0,1	0,051520
5,450833	0,1	0,010748
5,452500	0,1	-0,014634
5,454167	0,1	-0,013577
5,455833	0,1	-0,004804
5,457500	0,1	0,041946
5,459167	0,1	-0,035103
5,460833	0,1	0,002192
5,462500	0,1	0,021923
5,464167	0,1	-0,015920
5,465833	0,1	0,007026
5,467500	0,1	-0,028399
5,469167	0,1	-0,015451
5,470833	0,1	-0,016345
5,472500	0,1	0,022235
5,474167	0,1	-0,008057
5,475833	0,1	-0,006775
5,477500	0,1	-0,011186
5,479167	0,1	-0,007093
5,480833	0,1	0,020303
5,482500	0,1	-0,035095
5,484167	0,1	-0,015681
5,485833	0,1	-0,003578
5,487500	0,1	-0,005521
5,489167	0,1	0,006839
5,490833	0,1	0,008321
5,492500	0,1	-0,015077
5,494167	0,1	-0,027241
5,495833	0,1	-0,050428
5,497500	0,1	-0,024735
5,499167	0,1	-0,000104
5,500833	0,1	-0,047325
5,502500	0,1	-0,033988
5,504167	0,1	-0,009448
5,505833	0,1	0,002452
5,507500	0,1	-0,029337
5,509167	0,1	-0,032694
5,510833	0,1	-0,014934
5,512500	0,1	-0,008736
5,514167	0,1	-0,008797
5,515833	0,1	-0,014346
5,517500	0,1	0,000354
5,519167	0,1	-0,080427
5,520833	0,1	-0,039974
5,522500	0,1	-0,067192
5,524167	0,1	-0,057844
5,525833	0,1	-0,016886
5,527500	0,1	-0,012288
5,529167	0,1	-0,036266
5,530833	0,1	-0,029181
5,532500	0,1	-0,044248
5,534167	0,1	-0,005128
5,535833	0,1	-0,028592
5,537500	0,1	-0,014806
5,539167	0,1	-0,051196
5,540833	0,1	-0,064805
5,542500	0,1	-0,028808
5,544167	0,1	-0,018448
5,545833	0,1	-0,015891
5,547500	0,1	-0,060600
5,549167	0,1	-0,043016
5,550833	0,1	-0,018666
5,552500	0,1	-0,015020
5,554167	0,1	-0,040048
5,555833	0,1	-0,008995
5,557500	0,1	-0,055934
5,559167	0,1	-0,057234
5,560833	0,1	-0,065993
5,562500	0,1	-0,013742
5,564167	0,1	-0,042423
5,565833	0,1	-0,049319
5,567500	0,1	-0,057840
5,569167	0,1	-0,082211
5,570833	0,1	-0,068640
5,572500	0,1	-0,049172
5,574167	0,1	-0,061416
5,575833	0,1	-0,068283
5,577500	0,1	-0,058755
5,579167	0,1	-0,038642
5,580833	0,1	-0,054425
5,582500	0,1	-0,035695
5,584167	0,1	-0,062805
5,585833	0,1	-0,085851
5,587500	0,1	-0,062840
5,589167	0,1	-0,035507
5,590833	0,1	-0,035880
5,592500	0,1	-0,042555
5,594167	0,1	-0,016478
5,595833	0,1	-0,032134
5,597500	0,1	-0,069691
5,599167	0,1	-0,052436
5,600833	0,1	-0,053681
5,602500	0,1	-0,051647
5,604167	0,1	-0,041875
5,605833	0,1	-0,011348
5,607500	0,1	-0,020959
5,609167	0,1	-0,049137
5,610833	0,1	-0,073955
5,612500	0,1	-0,062421
5,614167	0,1	-0,068865
5,615833	0,1	-0,038898
5,617500	0,1	-0,044527
5,619167	0,1	-0,082372
5,620833	0,1	-0,051110
5,622500	0,1	-0,057738
5,624167	0,1	-0,024799
5,625833	0,1	-0,050262
5,627500	0,1	-0,060456
5,629167	0,1	-0,093852
5,630833	0,1	-0,038828
5,632500	0,1	-0,025693
5,634167	0,1	-0,037230
5,635833	0,1	-0,016896
5,637500	0,1	-0,070951
5,639167	0,1	-0,060384
5,640833	0,1	-0,025155
5,642500	0,1	-0,058908
5,644167	0,1	-0,031499
5,645833	0,1	-0,033174
5,647500	0,1	-0,029888
5,649167	0,1	-0,053928
5,650833	0,1	-0,014484
5,652500	0,1	-0,069787
5,654167	0,1	-0,070116
5,655833	0,1	-0,049136
5,657500	0,1	-0,041458
5,659167	0,1	-0,049661
5,660833	0,1	-0,016682
5,662500	0,1	-0,059285
5,664167	0,1	-0,049815
5,665833	0,1	-0,051102
5,667500	0,1	-0,028350
5,669167	0,1	-0,043879
5,670833	0,1	-0,074699
5,672500	0,1	-0,056368
5,674167	0,1	-0,071920
5,675833	0,1	-0,048821
5,677500	0,1	-0,036820
5,679167	0,1	-0,090586
5,680833	0,1	-0,031330
5,682500	0,1	-0,037005
5,684167	0,1	-0,069377
5,685833	0,1	-0,030086
5,687500	0,1	-0,068605
5,689167	0,1	-0,037216
5,690833	0,1	-0,049065
5,692500	0,1	-0,017417
5,694167	0,1	0,006155
5,695833	0,1	-0,036009
5,697500	0,1	-0,001459
5,699167	0,1	-0,032914
5,700833	0,1	-0,052716
5,702500	0,1	-0,052595
5,704167	0,1	-0,012739
5,705833	0,1	-0,057831
5,707500	0,1	-0,031412
5,709167	0,1	-0,042883
5,710833	0,1	-0,046880
5,712500	0,1	-0,014027
5,714167	0,1	-0,025144
5,715833	0,1	-0,030657
5,717500	0,1	-0,026109
5,719167	0,1	-0,021695
5,720833	0,1	-0,004718
5,722500	0,1	-0,022108
5,724167	0,1	-0,006740
5,725833	0,1	0,009153
5,727500	0,1	-0,000186
5,729167	0,1	-0,032850
5,730833	0,1	-0,043199
5,732500	0,1	-0,044325
5,734167	0,1	0,010306
5,735833	0,1	-0,054513
5,737500	0,1	-0,000973
5,739167	0,1	-0,014510
5,740833	0,1	-0,005195
5,742500	0,1	-0,030791
5,744167	0,1	-0,018828
5,745833	0,1	-0,000736
5,747500	0,1	-0,033787
5,749167	0,1	-0,036398
5,750833	0,1	-0,007035
5,752500	0,1	-0,018949
5,754167	0,1	-0,025170
5,755833	0,1	-0,004189
5,757500	0,1	0,003908
5,759167	0,1	0,000030
5,760833	0,1	-0,022472
5,762500	0,1	-0,052235
5,764167	0,1	0,002923
5,765833	0,1	-0,034771
5,767500	0,1	-0,034503
5,769167	0,1	-0,006944
5,770833	0,1	-0,036430
5,772500	0,1	0,008338
5,774167	0,1	-0,022078
5,775833	0,1	-0,050098
5,777500	0,1	-0,015911
5,779167	0,1	0,010451
5,780833	0,1	0,001269
5,782500	0,1	-0,015344
5,784167	0,1	-0,009962
5,785833	0,1	0,005449
5,787500	0,1	-0,004838
5,789167	0,1	-0,033041
5,790833	0,1	0,021688
5,792500	0,1	-0,016957
5,794167	0,1	-0,016764
5,795833	0,1	-0,035622
5,797500	0,1	0,027072
5,799167	0,1	-0,035525
5,800833	0,1	0,000776
5,802500	0,1	-0,048006
5,804167	0,1	-0,009490
5,805833	0,1	-0,026140
5,807500	0,1	-0,022023
5,809167	0,1	-0,004552
5,810833	0,1	-0,007154
5,812500	0,1	-0,047679
5,814167	0,1	-0,033735
5,815833	0,1	-0,003847
5,817500	0,1	-0,018542
5,819167	0,1	0,045646
5,820833	0,1	-0,009796
5,822500	0,1	-0,019923
5,824167	0,1	-0,001518
5,825833	0,1	-0,029046
5,827500	0,1	-0,046358
5,829167	0,1	0,013505
5,830833	0,1	-0,001929
5,832500	0,1	0,003580
5,834167	0,1	-0,026529
5,835833	0,1	-0,018662
5,837500	0,1	-0,043498
5,839167	0,1	-0,020853
5,840833	0,1	-0,005995
5,842500	0,1	-0,033294
5,844167	0,1	-0,022986
5,845833	0,1	-0,006803
5,847500	0,1	0,005904
5,849167	0,1	-0,022016
5,850833	0,1	-0,020950
5,852500	0,1	-0,006803
5,854167	0,1	-0,030881
5,855833	0,1	-0,068299
5,857500	0,1	-0,033827
5,859167	0,1	-0,041265
5,860833	0,1	-0,077113
5,862500	0,1	-0,047014
5,864167	0,1	-0,037464
5,865833	0,1	-0,038788
5,867500	0,1	-0,027765
5,869167	0,1	-0,035044
5,870833	0,1	-0,050872
5,872500	0,1	-0,039917
5,874167	0,1	-0,037980
5,875833	0,1	-0,054677
5,877500	0,1	-0,031561
5,879167	0,1	-0,033858
5,880833	0,1	-0,049001
5,882500	0,1	-0,015317
5,884167	0,1	-0,042574
5,885833	0,1	-0,059936
5,887500	0,1	-0,037693
5,889167	0,1	-0,076302
5,890833	0,1	-0,049593
5,892500	0,1	-0,048815
5,894167	0,1	-0,078656
5,895833	0,1	-0,044081
5,897500	0,1	-0,039686
5,899167	0,1	-0,056193
5,900833	0,1	-0,085849
5,902500	0,1	-0,041278
5,904167	0,1	-0,055057
5,905833	0,1	-0,027670
5,907500	0,1	-0,063118
5,909167	0,1	-0,046201
5,910833	0,1	-0,025252
5,912500	0,1	-0,036711
5,914167	0,1	-0,081725
5,915833	0,1	-0,098684
5,917500	0,1	-0,047890
5,919167	0,1	-0,055740
5,920833	0,1	-0,012740
5,922500	0,1	-0,059828
5,924167	0,1	-0,088491
5,925833	0,1	-0,094692
5,927500	0,1	-0,042353
5,929167	0,1	-0,026959
5,930833	0,1	-0,022948
5,932500	0,1	-0,081455
5,934167	0,1	-0,081824
5,935833	0,1	-0,072029
5,937500	0,1	-0,072506
5,939167	0,1	-0,066971
5,940833	0,1	-0,023855
5,942500	0,1	-0,039808
5,944167	0,1	-0,047132
5,945833	0,1	-0,112315
5,947500	0,1	-0,082514
5,949167	0,1	-0,057722
5,950833	0,1	-0,047804
5,952500	0,1	-0,038916
5,954167	0,1	-0,077239
5,955833	0,1	-0,061170
5,957500	0,1	-0,041359
5,959167	0,1	-0,055486
5,960833	0,1	-0,067385
5,962500	0,1	-0,059675
5,964167	0,1	-0,053480
5,965833	0,1	-0,053289
5,967500	0,1	-0,070026
5,969167	0,1	-0,077536
5,970833	0,1	-0,046951
5,972500	0,1	-0,037109
5,974167	0,1	-0,073104
5,975833	0,1	-0,055228
5,977500	0,1	-0,069634
5,979167	0,1	-0,075602
5,980833	0,1	-0,052650
5,982500	0,1	-0,043998
5,984167	0,1	-0,045488
5,985833	0,1	-0,064182
5,987500	0,1	-0,066576
5,989167	0,1	-0,069433
5,990833	0,1	-0,111990
5,992500	0,1	-0,053203
5,994167	0,1	-0,067825
5,995833	0,1	-0,090427
5,997500	0,1	-0,098953
5,999167	0,1	-0,081788
6,000833	0,1	-0,030381
