File Path	chrom://chromeleon01/ikbm_chromeleon/2022/Rezex/Esteban/220612_chitin_4_7.seq/371.smp/UV_VIS_1.channel/UV_VIS_1.chm
Channel	UV_VIS_1

Injection Information:
Data Vault	ikbm_chromeleon
Injection	C-NE_24h-NT_
Injection Number	37
Position	RE1
Comment	
Processing Method	New ProcMethod
Instrument Method	Short_Rezex_6min_194nm
Type	Unknown
Status	Finished
Injection Date	12.06.2022
Injection Time	21:07:29
Injection Volume (µl)	8,000
Dilution Factor	1,0000
Weight	1,0000

Chromatogram Data Information:
Time Min. (min)	0,000833
Time Max. (min)	6,000833
Data Points	3601
Detector	UV
Generating Data System	Chromeleon 7.2.9.11323
Exporting Data System	Chromeleon 7.2.9.0
Operator	Instrument Controller
Signal Quantity	Absorbance
Signal Unit	mAU
Signal Min.	-0,091071
Signal Max.	144,045256
Channel	UV_VIS_1
Driver Name	VWD3000.dll
Channel Type	Evaluation
Min. Step (s)	0,1
Max. Step (s)	0,1
Average Step (s)	0,1

Signal Parameter Information:
Signal Info	WVL:194 nm

Chromatogram Data:
Time (min)	Step (s)	Value (mAU)
0,000833	n.a.	0,025256
0,002500	0,1	-0,047383
0,004167	0,1	-0,009457
0,005833	0,1	-0,005194
0,007500	0,1	-0,003649
0,009167	0,1	0,044898
0,010833	0,1	-0,012748
0,012500	0,1	0,004532
0,014167	0,1	-0,030123
0,015833	0,1	0,020925
0,017500	0,1	-0,020426
0,019167	0,1	0,004403
0,020833	0,1	0,033528
0,022500	0,1	-0,025734
0,024167	0,1	0,005040
0,025833	0,1	-0,018330
0,027500	0,1	-0,033994
0,029167	0,1	-0,036155
0,030833	0,1	0,011810
0,032500	0,1	-0,052503
0,034167	0,1	-0,029845
0,035833	0,1	-0,024334
0,037500	0,1	-0,019951
0,039167	0,1	-0,032125
0,040833	0,1	-0,091071
0,042500	0,1	-0,053044
0,044167	0,1	-0,023823
0,045833	0,1	-0,012800
0,047500	0,1	-0,065073
0,049167	0,1	-0,036481
0,050833	0,1	-0,052353
0,052500	0,1	-0,031905
0,054167	0,1	-0,047296
0,055833	0,1	0,015992
0,057500	0,1	-0,062845
0,059167	0,1	0,023527
0,060833	0,1	-0,055885
0,062500	0,1	-0,059196
0,064167	0,1	0,011091
0,065833	0,1	-0,032152
0,067500	0,1	-0,067010
0,069167	0,1	0,005583
0,070833	0,1	-0,052796
0,072500	0,1	-0,041702
0,074167	0,1	-0,028937
0,075833	0,1	-0,013027
0,077500	0,1	-0,006064
0,079167	0,1	0,003217
0,080833	0,1	0,018548
0,082500	0,1	-0,006087
0,084167	0,1	0,032108
0,085833	0,1	-0,000680
0,087500	0,1	0,022221
0,089167	0,1	0,001547
0,090833	0,1	-0,002040
0,092500	0,1	0,021320
0,094167	0,1	-0,002963
0,095833	0,1	-0,002099
0,097500	0,1	0,031529
0,099167	0,1	0,018427
0,100833	0,1	0,016588
0,102500	0,1	0,012594
0,104167	0,1	0,011817
0,105833	0,1	0,012141
0,107500	0,1	0,030824
0,109167	0,1	-0,005990
0,110833	0,1	-0,008698
0,112500	0,1	-0,015565
0,114167	0,1	0,007300
0,115833	0,1	0,002093
0,117500	0,1	-0,033308
0,119167	0,1	-0,021107
0,120833	0,1	0,024182
0,122500	0,1	-0,021419
0,124167	0,1	-0,036082
0,125833	0,1	-0,023238
0,127500	0,1	-0,017437
0,129167	0,1	-0,057663
0,130833	0,1	-0,007522
0,132500	0,1	-0,006871
0,134167	0,1	-0,029737
0,135833	0,1	-0,014798
0,137500	0,1	0,010138
0,139167	0,1	-0,003093
0,140833	0,1	0,031337
0,142500	0,1	0,015111
0,144167	0,1	0,006599
0,145833	0,1	-0,034313
0,147500	0,1	-0,017340
0,149167	0,1	0,006916
0,150833	0,1	0,028601
0,152500	0,1	0,031120
0,154167	0,1	-0,017777
0,155833	0,1	-0,005485
0,157500	0,1	0,020739
0,159167	0,1	0,024900
0,160833	0,1	0,034212
0,162500	0,1	-0,027928
0,164167	0,1	-0,008448
0,165833	0,1	0,019223
0,167500	0,1	0,004987
0,169167	0,1	0,044676
0,170833	0,1	0,012824
0,172500	0,1	0,038847
0,174167	0,1	0,003256
0,175833	0,1	0,042551
0,177500	0,1	-0,011113
0,179167	0,1	0,005177
0,180833	0,1	-0,006543
0,182500	0,1	0,009851
0,184167	0,1	0,018775
0,185833	0,1	0,028220
0,187500	0,1	0,046582
0,189167	0,1	0,035698
0,190833	0,1	0,002100
0,192500	0,1	0,017548
0,194167	0,1	0,036368
0,195833	0,1	0,032990
0,197500	0,1	-0,009791
0,199167	0,1	-0,022041
0,200833	0,1	0,026534
0,202500	0,1	0,028734
0,204167	0,1	0,031344
0,205833	0,1	0,022838
0,207500	0,1	0,059531
0,209167	0,1	0,035990
0,210833	0,1	-0,003506
0,212500	0,1	0,007687
0,214167	0,1	0,056402
0,215833	0,1	0,039819
0,217500	0,1	-0,008176
0,219167	0,1	0,011975
0,220833	0,1	0,032728
0,222500	0,1	0,024354
0,224167	0,1	0,042587
0,225833	0,1	0,043393
0,227500	0,1	0,039822
0,229167	0,1	-0,025958
0,230833	0,1	0,013648
0,232500	0,1	0,057564
0,234167	0,1	-0,008596
0,235833	0,1	0,018678
0,237500	0,1	0,019357
0,239167	0,1	-0,007414
0,240833	0,1	0,000635
0,242500	0,1	0,041229
0,244167	0,1	-0,020351
0,245833	0,1	-0,000112
0,247500	0,1	0,046771
0,249167	0,1	0,032925
0,250833	0,1	0,056020
0,252500	0,1	0,049810
0,254167	0,1	0,016080
0,255833	0,1	0,017360
0,257500	0,1	0,012694
0,259167	0,1	0,027279
0,260833	0,1	0,042908
0,262500	0,1	0,034441
0,264167	0,1	0,036595
0,265833	0,1	0,023940
0,267500	0,1	0,045357
0,269167	0,1	0,053545
0,270833	0,1	-0,001214
0,272500	0,1	0,000409
0,274167	0,1	0,020449
0,275833	0,1	-0,002383
0,277500	0,1	0,095801
0,279167	0,1	0,053654
0,280833	0,1	0,017433
0,282500	0,1	0,002159
0,284167	0,1	0,024543
0,285833	0,1	0,037074
0,287500	0,1	0,001482
0,289167	0,1	0,030822
0,290833	0,1	0,029476
0,292500	0,1	0,017043
0,294167	0,1	0,037528
0,295833	0,1	0,032346
0,297500	0,1	0,044907
0,299167	0,1	0,037374
0,300833	0,1	0,030506
0,302500	0,1	0,027219
0,304167	0,1	0,032148
0,305833	0,1	0,012757
0,307500	0,1	0,029119
0,309167	0,1	0,008311
0,310833	0,1	0,040651
0,312500	0,1	0,059760
0,314167	0,1	0,053225
0,315833	0,1	0,049903
0,317500	0,1	-0,001348
0,319167	0,1	0,007275
0,320833	0,1	0,016777
0,322500	0,1	0,045614
0,324167	0,1	0,028511
0,325833	0,1	0,043133
0,327500	0,1	0,049131
0,329167	0,1	0,048616
0,330833	0,1	0,052418
0,332500	0,1	0,044492
0,334167	0,1	0,051513
0,335833	0,1	0,037020
0,337500	0,1	0,044587
0,339167	0,1	0,050644
0,340833	0,1	0,023458
0,342500	0,1	0,030538
0,344167	0,1	0,077798
0,345833	0,1	0,004746
0,347500	0,1	0,009110
0,349167	0,1	0,061009
0,350833	0,1	0,012989
0,352500	0,1	0,063461
0,354167	0,1	0,046107
0,355833	0,1	0,087854
0,357500	0,1	0,003912
0,359167	0,1	0,097993
0,360833	0,1	0,046307
0,362500	0,1	0,024937
0,364167	0,1	0,040975
0,365833	0,1	0,039595
0,367500	0,1	0,058374
0,369167	0,1	0,039178
0,370833	0,1	0,048258
0,372500	0,1	0,042785
0,374167	0,1	0,064463
0,375833	0,1	0,055771
0,377500	0,1	0,045040
0,379167	0,1	0,040817
0,380833	0,1	0,083569
0,382500	0,1	0,048849
0,384167	0,1	0,046488
0,385833	0,1	0,039111
0,387500	0,1	0,054733
0,389167	0,1	0,063404
0,390833	0,1	0,038663
0,392500	0,1	0,045713
0,394167	0,1	0,054478
0,395833	0,1	0,083637
0,397500	0,1	0,033966
0,399167	0,1	0,068778
0,400833	0,1	0,026712
0,402500	0,1	0,050896
0,404167	0,1	0,047777
0,405833	0,1	0,039048
0,407500	0,1	0,031314
0,409167	0,1	0,080538
0,410833	0,1	0,064827
0,412500	0,1	0,050553
0,414167	0,1	0,052867
0,415833	0,1	0,018044
0,417500	0,1	0,068550
0,419167	0,1	0,088117
0,420833	0,1	0,048687
0,422500	0,1	0,026935
0,424167	0,1	0,081956
0,425833	0,1	0,078390
0,427500	0,1	0,051909
0,429167	0,1	0,049873
0,430833	0,1	0,062080
0,432500	0,1	0,078127
0,434167	0,1	0,028811
0,435833	0,1	0,036466
0,437500	0,1	0,089075
0,439167	0,1	0,056034
0,440833	0,1	0,084410
0,442500	0,1	0,060479
0,444167	0,1	0,085120
0,445833	0,1	0,082548
0,447500	0,1	0,093983
0,449167	0,1	0,068277
0,450833	0,1	0,025843
0,452500	0,1	0,110916
0,454167	0,1	0,043278
0,455833	0,1	0,079510
0,457500	0,1	0,058737
0,459167	0,1	0,080061
0,460833	0,1	0,067113
0,462500	0,1	0,085410
0,464167	0,1	0,072625
0,465833	0,1	0,056514
0,467500	0,1	0,046717
0,469167	0,1	0,092042
0,470833	0,1	0,071626
0,472500	0,1	0,052356
0,474167	0,1	0,087081
0,475833	0,1	0,093438
0,477500	0,1	0,058933
0,479167	0,1	0,042272
0,480833	0,1	0,095618
0,482500	0,1	0,085064
0,484167	0,1	0,029905
0,485833	0,1	0,091233
0,487500	0,1	0,078812
0,489167	0,1	0,130325
0,490833	0,1	0,102113
0,492500	0,1	0,059967
0,494167	0,1	0,091949
0,495833	0,1	0,070274
0,497500	0,1	0,094594
0,499167	0,1	0,084964
0,500833	0,1	0,092952
0,502500	0,1	0,101976
0,504167	0,1	0,059579
0,505833	0,1	0,110345
0,507500	0,1	0,091220
0,509167	0,1	0,068568
0,510833	0,1	0,073072
0,512500	0,1	0,074619
0,514167	0,1	0,113570
0,515833	0,1	0,104914
0,517500	0,1	0,090091
0,519167	0,1	0,079424
0,520833	0,1	0,102136
0,522500	0,1	0,081457
0,524167	0,1	0,058449
0,525833	0,1	0,058571
0,527500	0,1	0,065239
0,529167	0,1	0,081478
0,530833	0,1	0,112025
0,532500	0,1	0,091897
0,534167	0,1	0,079327
0,535833	0,1	0,100202
0,537500	0,1	0,109164
0,539167	0,1	0,080234
0,540833	0,1	0,100009
0,542500	0,1	0,085031
0,544167	0,1	0,098945
0,545833	0,1	0,055103
0,547500	0,1	0,107284
0,549167	0,1	0,072985
0,550833	0,1	0,117243
0,552500	0,1	0,085872
0,554167	0,1	0,109934
0,555833	0,1	0,069762
0,557500	0,1	0,113989
0,559167	0,1	0,142998
0,560833	0,1	0,123995
0,562500	0,1	0,102339
0,564167	0,1	0,079168
0,565833	0,1	0,086379
0,567500	0,1	0,084996
0,569167	0,1	0,121661
0,570833	0,1	0,102627
0,572500	0,1	0,115737
0,574167	0,1	0,088032
0,575833	0,1	0,150726
0,577500	0,1	0,103859
0,579167	0,1	0,118701
0,580833	0,1	0,115901
0,582500	0,1	0,107974
0,584167	0,1	0,116027
0,585833	0,1	0,113678
0,587500	0,1	0,152180
0,589167	0,1	0,103248
0,590833	0,1	0,124179
0,592500	0,1	0,120382
0,594167	0,1	0,125987
0,595833	0,1	0,117771
0,597500	0,1	0,131593
0,599167	0,1	0,086004
0,600833	0,1	0,114410
0,602500	0,1	0,092992
0,604167	0,1	0,115735
0,605833	0,1	0,118671
0,607500	0,1	0,089709
0,609167	0,1	0,110514
0,610833	0,1	0,112677
0,612500	0,1	0,130527
0,614167	0,1	0,128984
0,615833	0,1	0,112521
0,617500	0,1	0,127854
0,619167	0,1	0,165459
0,620833	0,1	0,144588
0,622500	0,1	0,121255
0,624167	0,1	0,148864
0,625833	0,1	0,112944
0,627500	0,1	0,170546
0,629167	0,1	0,147038
0,630833	0,1	0,135175
0,632500	0,1	0,123057
0,634167	0,1	0,166844
0,635833	0,1	0,159282
0,637500	0,1	0,112464
0,639167	0,1	0,133362
0,640833	0,1	0,148545
0,642500	0,1	0,157700
0,644167	0,1	0,138593
0,645833	0,1	0,151962
0,647500	0,1	0,171621
0,649167	0,1	0,138983
0,650833	0,1	0,144615
0,652500	0,1	0,162855
0,654167	0,1	0,179195
0,655833	0,1	0,152294
0,657500	0,1	0,186088
0,659167	0,1	0,153035
0,660833	0,1	0,174328
0,662500	0,1	0,158381
0,664167	0,1	0,142236
0,665833	0,1	0,194208
0,667500	0,1	0,157291
0,669167	0,1	0,195756
0,670833	0,1	0,176949
0,672500	0,1	0,170144
0,674167	0,1	0,186577
0,675833	0,1	0,188094
0,677500	0,1	0,204110
0,679167	0,1	0,180753
0,680833	0,1	0,193990
0,682500	0,1	0,192864
0,684167	0,1	0,202566
0,685833	0,1	0,207563
0,687500	0,1	0,215330
0,689167	0,1	0,232639
0,690833	0,1	0,175412
0,692500	0,1	0,196020
0,694167	0,1	0,203565
0,695833	0,1	0,198381
0,697500	0,1	0,175854
0,699167	0,1	0,215971
0,700833	0,1	0,184685
0,702500	0,1	0,249260
0,704167	0,1	0,252979
0,705833	0,1	0,229165
0,707500	0,1	0,223038
0,709167	0,1	0,230707
0,710833	0,1	0,215275
0,712500	0,1	0,260771
0,714167	0,1	0,216186
0,715833	0,1	0,219748
0,717500	0,1	0,245627
0,719167	0,1	0,229103
0,720833	0,1	0,282725
0,722500	0,1	0,222731
0,724167	0,1	0,275763
0,725833	0,1	0,261730
0,727500	0,1	0,261011
0,729167	0,1	0,258238
0,730833	0,1	0,256984
0,732500	0,1	0,264720
0,734167	0,1	0,288340
0,735833	0,1	0,287738
0,737500	0,1	0,295241
0,739167	0,1	0,313236
0,740833	0,1	0,325685
0,742500	0,1	0,272986
0,744167	0,1	0,300751
0,745833	0,1	0,344108
0,747500	0,1	0,352286
0,749167	0,1	0,282082
0,750833	0,1	0,325089
0,752500	0,1	0,289102
0,754167	0,1	0,342275
0,755833	0,1	0,300195
0,757500	0,1	0,331671
0,759167	0,1	0,305059
0,760833	0,1	0,337671
0,762500	0,1	0,314600
0,764167	0,1	0,331357
0,765833	0,1	0,292587
0,767500	0,1	0,346367
0,769167	0,1	0,303877
0,770833	0,1	0,379422
0,772500	0,1	0,328794
0,774167	0,1	0,379389
0,775833	0,1	0,342137
0,777500	0,1	0,347128
0,779167	0,1	0,354575
0,780833	0,1	0,349746
0,782500	0,1	0,318929
0,784167	0,1	0,335030
0,785833	0,1	0,334363
0,787500	0,1	0,331008
0,789167	0,1	0,337808
0,790833	0,1	0,363217
0,792500	0,1	0,329987
0,794167	0,1	0,338874
0,795833	0,1	0,387157
0,797500	0,1	0,346690
0,799167	0,1	0,354408
0,800833	0,1	0,333657
0,802500	0,1	0,342518
0,804167	0,1	0,361535
0,805833	0,1	0,369382
0,807500	0,1	0,365935
0,809167	0,1	0,335921
0,810833	0,1	0,380392
0,812500	0,1	0,351061
0,814167	0,1	0,366958
0,815833	0,1	0,337986
0,817500	0,1	0,379325
0,819167	0,1	0,404297
0,820833	0,1	0,366989
0,822500	0,1	0,334724
0,824167	0,1	0,361664
0,825833	0,1	0,334883
0,827500	0,1	0,341772
0,829167	0,1	0,343512
0,830833	0,1	0,369590
0,832500	0,1	0,365133
0,834167	0,1	0,399517
0,835833	0,1	0,360970
0,837500	0,1	0,383556
0,839167	0,1	0,339467
0,840833	0,1	0,367786
0,842500	0,1	0,408151
0,844167	0,1	0,378315
0,845833	0,1	0,394810
0,847500	0,1	0,368378
0,849167	0,1	0,374017
0,850833	0,1	0,374569
0,852500	0,1	0,401363
0,854167	0,1	0,370128
0,855833	0,1	0,401732
0,857500	0,1	0,362551
0,859167	0,1	0,357832
0,860833	0,1	0,352617
0,862500	0,1	0,369013
0,864167	0,1	0,399295
0,865833	0,1	0,420160
0,867500	0,1	0,376095
0,869167	0,1	0,367150
0,870833	0,1	0,406704
0,872500	0,1	0,410583
0,874167	0,1	0,377419
0,875833	0,1	0,401035
0,877500	0,1	0,450891
0,879167	0,1	0,403500
0,880833	0,1	0,425648
0,882500	0,1	0,420588
0,884167	0,1	0,367291
0,885833	0,1	0,450197
0,887500	0,1	0,406277
0,889167	0,1	0,423451
0,890833	0,1	0,428063
0,892500	0,1	0,421969
0,894167	0,1	0,433194
0,895833	0,1	0,455215
0,897500	0,1	0,418633
0,899167	0,1	0,440182
0,900833	0,1	0,432515
0,902500	0,1	0,440067
0,904167	0,1	0,429435
0,905833	0,1	0,419021
0,907500	0,1	0,447355
0,909167	0,1	0,441610
0,910833	0,1	0,440912
0,912500	0,1	0,446518
0,914167	0,1	0,498650
0,915833	0,1	0,466812
0,917500	0,1	0,469609
0,919167	0,1	0,451039
0,920833	0,1	0,484925
0,922500	0,1	0,444279
0,924167	0,1	0,494729
0,925833	0,1	0,501952
0,927500	0,1	0,489031
0,929167	0,1	0,524277
0,930833	0,1	0,495933
0,932500	0,1	0,545391
0,934167	0,1	0,509813
0,935833	0,1	0,537473
0,937500	0,1	0,520799
0,939167	0,1	0,521374
0,940833	0,1	0,500595
0,942500	0,1	0,505287
0,944167	0,1	0,503575
0,945833	0,1	0,484583
0,947500	0,1	0,545164
0,949167	0,1	0,518750
0,950833	0,1	0,556892
0,952500	0,1	0,563352
0,954167	0,1	0,574721
0,955833	0,1	0,563157
0,957500	0,1	0,595608
0,959167	0,1	0,604091
0,960833	0,1	0,553820
0,962500	0,1	0,593850
0,964167	0,1	0,593968
0,965833	0,1	0,559045
0,967500	0,1	0,610067
0,969167	0,1	0,615597
0,970833	0,1	0,613972
0,972500	0,1	0,590860
0,974167	0,1	0,616547
0,975833	0,1	0,622316
0,977500	0,1	0,607343
0,979167	0,1	0,629166
0,980833	0,1	0,671218
0,982500	0,1	0,661150
0,984167	0,1	0,634718
0,985833	0,1	0,628748
0,987500	0,1	0,670684
0,989167	0,1	0,649603
0,990833	0,1	0,690113
0,992500	0,1	0,630585
0,994167	0,1	0,674913
0,995833	0,1	0,660084
0,997500	0,1	0,699883
0,999167	0,1	0,709793
1,000833	0,1	0,716430
1,002500	0,1	0,755903
1,004167	0,1	0,722114
1,005833	0,1	0,768078
1,007500	0,1	0,756386
1,009167	0,1	0,746279
1,010833	0,1	0,761119
1,012500	0,1	0,755382
1,014167	0,1	0,799759
1,015833	0,1	0,813294
1,017500	0,1	0,823384
1,019167	0,1	0,835022
1,020833	0,1	0,853487
1,022500	0,1	0,827689
1,024167	0,1	0,880852
1,025833	0,1	0,886810
1,027500	0,1	0,911206
1,029167	0,1	0,905658
1,030833	0,1	0,952665
1,032500	0,1	0,929197
1,034167	0,1	0,918133
1,035833	0,1	0,962643
1,037500	0,1	0,976349
1,039167	0,1	1,025645
1,040833	0,1	1,019131
1,042500	0,1	1,015173
1,044167	0,1	1,016532
1,045833	0,1	1,043735
1,047500	0,1	1,089360
1,049167	0,1	1,040015
1,050833	0,1	1,120594
1,052500	0,1	1,119089
1,054167	0,1	1,142987
1,055833	0,1	1,215019
1,057500	0,1	1,284144
1,059167	0,1	1,316975
1,060833	0,1	1,429144
1,062500	0,1	1,493798
1,064167	0,1	1,600137
1,065833	0,1	1,769964
1,067500	0,1	1,962883
1,069167	0,1	2,161143
1,070833	0,1	2,491719
1,072500	0,1	2,808406
1,074167	0,1	3,183346
1,075833	0,1	3,663661
1,077500	0,1	4,188014
1,079167	0,1	4,788796
1,080833	0,1	5,489694
1,082500	0,1	6,196437
1,084167	0,1	7,081946
1,085833	0,1	7,974085
1,087500	0,1	8,897869
1,089167	0,1	9,903133
1,090833	0,1	10,923576
1,092500	0,1	11,975811
1,094167	0,1	13,074218
1,095833	0,1	14,082680
1,097500	0,1	15,083479
1,099167	0,1	16,086961
1,100833	0,1	17,016943
1,102500	0,1	17,870971
1,104167	0,1	18,661170
1,105833	0,1	19,313323
1,107500	0,1	19,965795
1,109167	0,1	20,444195
1,110833	0,1	20,887260
1,112500	0,1	21,242528
1,114167	0,1	21,473974
1,115833	0,1	21,626554
1,117500	0,1	21,699278
1,119167	0,1	21,866375
1,120833	0,1	21,785474
1,122500	0,1	21,761773
1,124167	0,1	21,663472
1,125833	0,1	21,580814
1,127500	0,1	21,443018
1,129167	0,1	21,317663
1,130833	0,1	21,178715
1,132500	0,1	21,082419
1,134167	0,1	20,999260
1,135833	0,1	20,909064
1,137500	0,1	20,882065
1,139167	0,1	20,960356
1,140833	0,1	21,058452
1,142500	0,1	21,113180
1,144167	0,1	21,317133
1,145833	0,1	21,572378
1,147500	0,1	21,882556
1,149167	0,1	22,244808
1,150833	0,1	22,662534
1,152500	0,1	23,158137
1,154167	0,1	23,660178
1,155833	0,1	24,219082
1,157500	0,1	24,833575
1,159167	0,1	25,487911
1,160833	0,1	26,089337
1,162500	0,1	26,856972
1,164167	0,1	27,468961
1,165833	0,1	28,195783
1,167500	0,1	28,884567
1,169167	0,1	29,520259
1,170833	0,1	30,194765
1,172500	0,1	30,785203
1,174167	0,1	31,391569
1,175833	0,1	31,889426
1,177500	0,1	32,463787
1,179167	0,1	32,920043
1,180833	0,1	33,390340
1,182500	0,1	33,812491
1,184167	0,1	34,172579
1,185833	0,1	34,619662
1,187500	0,1	34,934495
1,189167	0,1	35,327111
1,190833	0,1	35,723114
1,192500	0,1	36,234138
1,194167	0,1	36,743654
1,195833	0,1	37,372665
1,197500	0,1	38,101966
1,199167	0,1	38,970673
1,200833	0,1	40,052112
1,202500	0,1	41,304485
1,204167	0,1	42,769803
1,205833	0,1	44,500065
1,207500	0,1	46,512114
1,209167	0,1	48,785160
1,210833	0,1	51,301369
1,212500	0,1	54,135673
1,214167	0,1	57,250553
1,215833	0,1	60,678852
1,217500	0,1	64,330176
1,219167	0,1	68,263996
1,220833	0,1	72,378758
1,222500	0,1	76,709532
1,224167	0,1	81,126978
1,225833	0,1	85,736858
1,227500	0,1	90,373424
1,229167	0,1	95,064604
1,230833	0,1	99,722298
1,232500	0,1	104,258435
1,234167	0,1	108,731944
1,235833	0,1	113,091617
1,237500	0,1	117,164266
1,239167	0,1	121,001336
1,240833	0,1	124,711462
1,242500	0,1	128,111435
1,244167	0,1	131,103265
1,245833	0,1	133,868668
1,247500	0,1	136,338870
1,249167	0,1	138,466044
1,250833	0,1	140,178154
1,252500	0,1	141,672423
1,254167	0,1	142,705497
1,255833	0,1	143,494795
1,257500	0,1	143,931958
1,259167	0,1	144,045256
1,260833	0,1	143,768276
1,262500	0,1	143,268776
1,264167	0,1	142,469306
1,265833	0,1	141,336053
1,267500	0,1	139,979020
1,269167	0,1	138,398398
1,270833	0,1	136,519623
1,272500	0,1	134,501004
1,274167	0,1	132,314517
1,275833	0,1	129,857953
1,277500	0,1	127,265597
1,279167	0,1	124,538040
1,280833	0,1	121,792231
1,282500	0,1	118,886469
1,284167	0,1	115,881633
1,285833	0,1	112,920654
1,287500	0,1	109,863647
1,289167	0,1	106,777194
1,290833	0,1	103,664761
1,292500	0,1	100,580944
1,294167	0,1	97,594145
1,295833	0,1	94,621662
1,297500	0,1	91,689614
1,299167	0,1	88,744478
1,300833	0,1	85,957713
1,302500	0,1	83,262958
1,304167	0,1	80,589711
1,305833	0,1	77,999740
1,307500	0,1	75,618095
1,309167	0,1	73,133301
1,310833	0,1	70,867313
1,312500	0,1	68,725775
1,314167	0,1	66,569381
1,315833	0,1	64,522706
1,317500	0,1	62,628096
1,319167	0,1	60,717861
1,320833	0,1	58,960785
1,322500	0,1	57,282781
1,324167	0,1	55,699984
1,325833	0,1	54,121995
1,327500	0,1	52,643365
1,329167	0,1	51,203690
1,330833	0,1	49,840444
1,332500	0,1	48,530480
1,334167	0,1	47,244070
1,335833	0,1	46,041967
1,337500	0,1	44,885773
1,339167	0,1	43,756905
1,340833	0,1	42,674369
1,342500	0,1	41,636655
1,344167	0,1	40,615770
1,345833	0,1	39,715759
1,347500	0,1	38,721881
1,349167	0,1	37,777485
1,350833	0,1	36,938267
1,352500	0,1	36,058217
1,354167	0,1	35,245873
1,355833	0,1	34,398010
1,357500	0,1	33,609104
1,359167	0,1	32,856605
1,360833	0,1	32,088500
1,362500	0,1	31,384506
1,364167	0,1	30,666655
1,365833	0,1	29,950020
1,367500	0,1	29,250757
1,369167	0,1	28,616916
1,370833	0,1	27,971629
1,372500	0,1	27,361351
1,374167	0,1	26,752125
1,375833	0,1	26,156738
1,377500	0,1	25,567019
1,379167	0,1	25,046672
1,380833	0,1	24,500669
1,382500	0,1	23,917824
1,384167	0,1	23,436011
1,385833	0,1	22,889159
1,387500	0,1	22,486358
1,389167	0,1	21,959996
1,390833	0,1	21,517085
1,392500	0,1	21,080126
1,394167	0,1	20,644132
1,395833	0,1	20,219599
1,397500	0,1	19,872467
1,399167	0,1	19,474312
1,400833	0,1	19,105410
1,402500	0,1	18,726888
1,404167	0,1	18,430736
1,405833	0,1	18,094202
1,407500	0,1	17,757561
1,409167	0,1	17,482509
1,410833	0,1	17,153954
1,412500	0,1	16,915573
1,414167	0,1	16,615191
1,415833	0,1	16,362883
1,417500	0,1	16,129140
1,419167	0,1	15,875065
1,420833	0,1	15,668050
1,422500	0,1	15,411479
1,424167	0,1	15,223625
1,425833	0,1	14,994514
1,427500	0,1	14,815526
1,429167	0,1	14,608365
1,430833	0,1	14,371830
1,432500	0,1	14,213878
1,434167	0,1	14,004068
1,435833	0,1	13,833298
1,437500	0,1	13,636241
1,439167	0,1	13,434467
1,440833	0,1	13,302501
1,442500	0,1	13,146025
1,444167	0,1	12,948914
1,445833	0,1	12,804050
1,447500	0,1	12,592196
1,449167	0,1	12,466494
1,450833	0,1	12,281674
1,452500	0,1	12,175152
1,454167	0,1	11,988423
1,455833	0,1	11,816818
1,457500	0,1	11,673929
1,459167	0,1	11,516224
1,460833	0,1	11,356899
1,462500	0,1	11,257307
1,464167	0,1	11,111061
1,465833	0,1	10,955465
1,467500	0,1	10,807184
1,469167	0,1	10,669235
1,470833	0,1	10,567367
1,472500	0,1	10,426938
1,474167	0,1	10,279777
1,475833	0,1	10,195483
1,477500	0,1	10,021380
1,479167	0,1	9,920431
1,480833	0,1	9,849456
1,482500	0,1	9,687144
1,484167	0,1	9,604985
1,485833	0,1	9,474944
1,487500	0,1	9,338744
1,489167	0,1	9,263613
1,490833	0,1	9,242692
1,492500	0,1	9,099463
1,494167	0,1	8,997546
1,495833	0,1	8,980935
1,497500	0,1	8,799972
1,499167	0,1	8,786436
1,500833	0,1	8,699874
1,502500	0,1	8,619707
1,504167	0,1	8,584246
1,505833	0,1	8,521293
1,507500	0,1	8,452726
1,509167	0,1	8,421283
1,510833	0,1	8,333574
1,512500	0,1	8,259729
1,514167	0,1	8,209866
1,515833	0,1	8,224398
1,517500	0,1	8,116899
1,519167	0,1	8,098566
1,520833	0,1	8,060259
1,522500	0,1	8,008898
1,524167	0,1	7,974386
1,525833	0,1	7,933720
1,527500	0,1	7,910766
1,529167	0,1	7,853487
1,530833	0,1	7,851649
1,532500	0,1	7,761054
1,534167	0,1	7,779692
1,535833	0,1	7,744167
1,537500	0,1	7,732434
1,539167	0,1	7,665384
1,540833	0,1	7,665859
1,542500	0,1	7,634191
1,544167	0,1	7,630249
1,545833	0,1	7,558023
1,547500	0,1	7,597910
1,549167	0,1	7,569648
1,550833	0,1	7,560351
1,552500	0,1	7,555369
1,554167	0,1	7,502945
1,555833	0,1	7,493184
1,557500	0,1	7,469685
1,559167	0,1	7,473139
1,560833	0,1	7,431937
1,562500	0,1	7,390571
1,564167	0,1	7,385028
1,565833	0,1	7,369411
1,567500	0,1	7,325422
1,569167	0,1	7,326356
1,570833	0,1	7,278694
1,572500	0,1	7,319772
1,574167	0,1	7,288646
1,575833	0,1	7,258474
1,577500	0,1	7,287001
1,579167	0,1	7,228350
1,580833	0,1	7,175073
1,582500	0,1	7,138220
1,584167	0,1	7,141773
1,585833	0,1	7,138483
1,587500	0,1	7,035883
1,589167	0,1	7,050991
1,590833	0,1	7,077084
1,592500	0,1	7,002196
1,594167	0,1	6,962232
1,595833	0,1	6,973899
1,597500	0,1	6,943706
1,599167	0,1	6,905086
1,600833	0,1	6,868708
1,602500	0,1	6,860375
1,604167	0,1	6,834660
1,605833	0,1	6,801466
1,607500	0,1	6,824917
1,609167	0,1	6,731267
1,610833	0,1	6,755916
1,612500	0,1	6,733119
1,614167	0,1	6,704042
1,615833	0,1	6,666094
1,617500	0,1	6,608708
1,619167	0,1	6,616915
1,620833	0,1	6,606732
1,622500	0,1	6,565431
1,624167	0,1	6,554024
1,625833	0,1	6,555236
1,627500	0,1	6,539915
1,629167	0,1	6,451446
1,630833	0,1	6,442173
1,632500	0,1	6,433676
1,634167	0,1	6,393514
1,635833	0,1	6,390421
1,637500	0,1	6,348485
1,639167	0,1	6,338393
1,640833	0,1	6,304305
1,642500	0,1	6,282627
1,644167	0,1	6,251631
1,645833	0,1	6,279838
1,647500	0,1	6,263210
1,649167	0,1	6,223887
1,650833	0,1	6,214274
1,652500	0,1	6,164793
1,654167	0,1	6,139769
1,655833	0,1	6,126892
1,657500	0,1	6,126884
1,659167	0,1	6,119135
1,660833	0,1	6,127338
1,662500	0,1	6,092066
1,664167	0,1	6,066134
1,665833	0,1	6,078075
1,667500	0,1	6,064814
1,669167	0,1	6,054831
1,670833	0,1	6,048033
1,672500	0,1	6,018512
1,674167	0,1	6,020846
1,675833	0,1	5,996951
1,677500	0,1	5,975472
1,679167	0,1	5,993856
1,680833	0,1	6,004238
1,682500	0,1	5,966793
1,684167	0,1	5,969216
1,685833	0,1	5,954313
1,687500	0,1	6,040524
1,689167	0,1	5,972870
1,690833	0,1	6,005057
1,692500	0,1	5,992855
1,694167	0,1	5,985387
1,695833	0,1	5,987599
1,697500	0,1	5,988271
1,699167	0,1	6,001414
1,700833	0,1	5,988474
1,702500	0,1	5,974174
1,704167	0,1	5,990979
1,705833	0,1	5,968296
1,707500	0,1	5,989591
1,709167	0,1	5,986965
1,710833	0,1	5,924719
1,712500	0,1	5,982849
1,714167	0,1	5,994710
1,715833	0,1	6,028015
1,717500	0,1	5,973149
1,719167	0,1	5,986841
1,720833	0,1	5,980796
1,722500	0,1	5,914360
1,724167	0,1	5,949428
1,725833	0,1	5,930025
1,727500	0,1	5,930703
1,729167	0,1	5,925560
1,730833	0,1	5,913241
1,732500	0,1	5,933031
1,734167	0,1	5,943473
1,735833	0,1	5,913989
1,737500	0,1	5,871052
1,739167	0,1	5,868361
1,740833	0,1	5,877875
1,742500	0,1	5,846063
1,744167	0,1	5,809942
1,745833	0,1	5,791394
1,747500	0,1	5,738602
1,749167	0,1	5,773087
1,750833	0,1	5,748773
1,752500	0,1	5,700196
1,754167	0,1	5,698599
1,755833	0,1	5,660448
1,757500	0,1	5,653897
1,759167	0,1	5,623697
1,760833	0,1	5,625024
1,762500	0,1	5,557768
1,764167	0,1	5,526834
1,765833	0,1	5,493166
1,767500	0,1	5,458371
1,769167	0,1	5,458857
1,770833	0,1	5,445826
1,772500	0,1	5,352534
1,774167	0,1	5,375833
1,775833	0,1	5,308150
1,777500	0,1	5,269358
1,779167	0,1	5,279882
1,780833	0,1	5,228703
1,782500	0,1	5,193639
1,784167	0,1	5,156340
1,785833	0,1	5,126127
1,787500	0,1	5,118059
1,789167	0,1	5,070039
1,790833	0,1	5,016265
1,792500	0,1	4,944611
1,794167	0,1	4,953739
1,795833	0,1	4,903830
1,797500	0,1	4,850791
1,799167	0,1	4,819681
1,800833	0,1	4,823129
1,802500	0,1	4,757541
1,804167	0,1	4,723574
1,805833	0,1	4,669320
1,807500	0,1	4,624745
1,809167	0,1	4,621370
1,810833	0,1	4,566593
1,812500	0,1	4,530270
1,814167	0,1	4,483280
1,815833	0,1	4,453298
1,817500	0,1	4,418596
1,819167	0,1	4,428049
1,820833	0,1	4,325854
1,822500	0,1	4,278100
1,824167	0,1	4,294173
1,825833	0,1	4,207349
1,827500	0,1	4,154468
1,829167	0,1	4,172714
1,830833	0,1	4,114917
1,832500	0,1	4,134011
1,834167	0,1	4,058655
1,835833	0,1	4,090657
1,837500	0,1	3,987080
1,839167	0,1	3,997215
1,840833	0,1	3,969303
1,842500	0,1	3,937119
1,844167	0,1	3,900872
1,845833	0,1	3,869501
1,847500	0,1	3,894355
1,849167	0,1	3,872545
1,850833	0,1	3,880544
1,852500	0,1	3,936567
1,854167	0,1	3,937799
1,855833	0,1	3,966648
1,857500	0,1	3,988272
1,859167	0,1	4,077274
1,860833	0,1	4,079889
1,862500	0,1	4,154190
1,864167	0,1	4,176369
1,865833	0,1	4,264757
1,867500	0,1	4,333873
1,869167	0,1	4,385246
1,870833	0,1	4,488337
1,872500	0,1	4,549603
1,874167	0,1	4,592508
1,875833	0,1	4,684066
1,877500	0,1	4,751391
1,879167	0,1	4,845286
1,880833	0,1	4,901591
1,882500	0,1	5,014331
1,884167	0,1	5,019964
1,885833	0,1	5,116425
1,887500	0,1	5,144564
1,889167	0,1	5,204179
1,890833	0,1	5,235769
1,892500	0,1	5,297966
1,894167	0,1	5,340195
1,895833	0,1	5,386812
1,897500	0,1	5,491772
1,899167	0,1	5,454545
1,900833	0,1	5,518788
1,902500	0,1	5,585832
1,904167	0,1	5,590132
1,905833	0,1	5,616430
1,907500	0,1	5,730152
1,909167	0,1	5,726364
1,910833	0,1	5,751168
1,912500	0,1	5,780013
1,914167	0,1	5,802869
1,915833	0,1	5,821527
1,917500	0,1	5,832901
1,919167	0,1	5,895248
1,920833	0,1	5,907086
1,922500	0,1	5,935248
1,924167	0,1	5,933678
1,925833	0,1	5,954477
1,927500	0,1	5,947487
1,929167	0,1	5,955896
1,930833	0,1	5,991438
1,932500	0,1	5,921636
1,934167	0,1	5,914535
1,935833	0,1	5,942846
1,937500	0,1	5,946280
1,939167	0,1	5,927905
1,940833	0,1	5,894395
1,942500	0,1	5,905497
1,944167	0,1	5,920088
1,945833	0,1	5,899999
1,947500	0,1	5,877261
1,949167	0,1	5,820879
1,950833	0,1	5,781773
1,952500	0,1	5,785052
1,954167	0,1	5,776193
1,955833	0,1	5,760782
1,957500	0,1	5,687312
1,959167	0,1	5,688036
1,960833	0,1	5,651857
1,962500	0,1	5,641167
1,964167	0,1	5,606298
1,965833	0,1	5,593119
1,967500	0,1	5,575778
1,969167	0,1	5,536256
1,970833	0,1	5,557955
1,972500	0,1	5,498957
1,974167	0,1	5,454880
1,975833	0,1	5,428301
1,977500	0,1	5,424681
1,979167	0,1	5,450738
1,980833	0,1	5,405490
1,982500	0,1	5,362608
1,984167	0,1	5,331771
1,985833	0,1	5,325309
1,987500	0,1	5,288312
1,989167	0,1	5,263699
1,990833	0,1	5,263344
1,992500	0,1	5,266644
1,994167	0,1	5,243521
1,995833	0,1	5,206572
1,997500	0,1	5,217992
1,999167	0,1	5,216148
2,000833	0,1	5,201634
2,002500	0,1	5,195869
2,004167	0,1	5,187305
2,005833	0,1	5,204034
2,007500	0,1	5,213905
2,009167	0,1	5,171686
2,010833	0,1	5,146881
2,012500	0,1	5,174081
2,014167	0,1	5,129194
2,015833	0,1	5,148415
2,017500	0,1	5,168628
2,019167	0,1	5,165350
2,020833	0,1	5,171935
2,022500	0,1	5,168981
2,024167	0,1	5,164156
2,025833	0,1	5,182689
2,027500	0,1	5,160095
2,029167	0,1	5,189536
2,030833	0,1	5,162835
2,032500	0,1	5,190905
2,034167	0,1	5,201909
2,035833	0,1	5,209496
2,037500	0,1	5,189548
2,039167	0,1	5,207731
2,040833	0,1	5,255050
2,042500	0,1	5,262165
2,044167	0,1	5,298205
2,045833	0,1	5,298301
2,047500	0,1	5,298108
2,049167	0,1	5,315733
2,050833	0,1	5,341822
2,052500	0,1	5,334550
2,054167	0,1	5,342140
2,055833	0,1	5,412762
2,057500	0,1	5,386918
2,059167	0,1	5,428849
2,060833	0,1	5,412395
2,062500	0,1	5,464203
2,064167	0,1	5,491776
2,065833	0,1	5,510879
2,067500	0,1	5,492229
2,069167	0,1	5,540817
2,070833	0,1	5,530656
2,072500	0,1	5,597505
2,074167	0,1	5,557984
2,075833	0,1	5,597986
2,077500	0,1	5,629022
2,079167	0,1	5,642110
2,080833	0,1	5,636020
2,082500	0,1	5,634150
2,084167	0,1	5,656619
2,085833	0,1	5,666799
2,087500	0,1	5,686547
2,089167	0,1	5,696444
2,090833	0,1	5,693171
2,092500	0,1	5,785401
2,094167	0,1	5,734594
2,095833	0,1	5,781124
2,097500	0,1	5,749223
2,099167	0,1	5,765639
2,100833	0,1	5,822015
2,102500	0,1	5,767436
2,104167	0,1	5,795277
2,105833	0,1	5,848677
2,107500	0,1	5,851865
2,109167	0,1	5,836566
2,110833	0,1	5,868748
2,112500	0,1	5,811174
2,114167	0,1	5,838189
2,115833	0,1	5,872374
2,117500	0,1	5,850745
2,119167	0,1	5,887395
2,120833	0,1	5,848597
2,122500	0,1	5,906894
2,124167	0,1	5,868945
2,125833	0,1	5,883189
2,127500	0,1	5,880973
2,129167	0,1	5,916426
2,130833	0,1	5,842537
2,132500	0,1	5,884983
2,134167	0,1	5,853067
2,135833	0,1	5,835913
2,137500	0,1	5,890756
2,139167	0,1	5,836632
2,140833	0,1	5,885703
2,142500	0,1	5,876775
2,144167	0,1	5,854483
2,145833	0,1	5,882925
2,147500	0,1	5,824032
2,149167	0,1	5,860447
2,150833	0,1	5,806435
2,152500	0,1	5,832345
2,154167	0,1	5,791016
2,155833	0,1	5,797673
2,157500	0,1	5,830510
2,159167	0,1	5,823796
2,160833	0,1	5,771443
2,162500	0,1	5,758553
2,164167	0,1	5,768661
2,165833	0,1	5,769316
2,167500	0,1	5,736907
2,169167	0,1	5,734776
2,170833	0,1	5,723142
2,172500	0,1	5,701764
2,174167	0,1	5,710142
2,175833	0,1	5,705972
2,177500	0,1	5,688678
2,179167	0,1	5,710103
2,180833	0,1	5,658404
2,182500	0,1	5,640962
2,184167	0,1	5,655983
2,185833	0,1	5,641808
2,187500	0,1	5,598540
2,189167	0,1	5,624632
2,190833	0,1	5,588170
2,192500	0,1	5,572443
2,194167	0,1	5,581202
2,195833	0,1	5,591275
2,197500	0,1	5,522349
2,199167	0,1	5,540335
2,200833	0,1	5,525823
2,202500	0,1	5,498967
2,204167	0,1	5,524210
2,205833	0,1	5,500658
2,207500	0,1	5,474207
2,209167	0,1	5,510713
2,210833	0,1	5,466168
2,212500	0,1	5,457466
2,214167	0,1	5,429342
2,215833	0,1	5,428526
2,217500	0,1	5,449222
2,219167	0,1	5,424493
2,220833	0,1	5,399225
2,222500	0,1	5,420920
2,224167	0,1	5,414791
2,225833	0,1	5,396702
2,227500	0,1	5,392960
2,229167	0,1	5,373021
2,230833	0,1	5,412346
2,232500	0,1	5,398411
2,234167	0,1	5,359559
2,235833	0,1	5,365098
2,237500	0,1	5,394557
2,239167	0,1	5,332430
2,240833	0,1	5,387868
2,242500	0,1	5,364824
2,244167	0,1	5,362176
2,245833	0,1	5,357080
2,247500	0,1	5,323572
2,249167	0,1	5,362112
2,250833	0,1	5,302250
2,252500	0,1	5,358086
2,254167	0,1	5,365611
2,255833	0,1	5,330078
2,257500	0,1	5,329912
2,259167	0,1	5,346110
2,260833	0,1	5,329965
2,262500	0,1	5,351453
2,264167	0,1	5,338395
2,265833	0,1	5,312131
2,267500	0,1	5,302392
2,269167	0,1	5,265942
2,270833	0,1	5,288883
2,272500	0,1	5,293191
2,274167	0,1	5,236162
2,275833	0,1	5,280137
2,277500	0,1	5,265587
2,279167	0,1	5,282079
2,280833	0,1	5,221357
2,282500	0,1	5,188812
2,284167	0,1	5,196192
2,285833	0,1	5,204278
2,287500	0,1	5,190154
2,289167	0,1	5,176829
2,290833	0,1	5,200665
2,292500	0,1	5,186087
2,294167	0,1	5,093717
2,295833	0,1	5,151405
2,297500	0,1	5,136403
2,299167	0,1	5,107916
2,300833	0,1	5,095023
2,302500	0,1	5,073016
2,304167	0,1	5,099189
2,305833	0,1	5,040274
2,307500	0,1	5,076216
2,309167	0,1	5,042248
2,310833	0,1	5,025184
2,312500	0,1	5,010610
2,314167	0,1	4,980755
2,315833	0,1	4,985160
2,317500	0,1	4,964740
2,319167	0,1	4,913031
2,320833	0,1	4,911638
2,322500	0,1	4,929108
2,324167	0,1	4,894325
2,325833	0,1	4,893751
2,327500	0,1	4,856798
2,329167	0,1	4,881055
2,330833	0,1	4,835717
2,332500	0,1	4,819250
2,334167	0,1	4,788152
2,335833	0,1	4,850111
2,337500	0,1	4,741295
2,339167	0,1	4,727876
2,340833	0,1	4,733081
2,342500	0,1	4,717001
2,344167	0,1	4,759750
2,345833	0,1	4,708541
2,347500	0,1	4,688427
2,349167	0,1	4,708128
2,350833	0,1	4,679480
2,352500	0,1	4,710191
2,354167	0,1	4,641971
2,355833	0,1	4,680173
2,357500	0,1	4,661862
2,359167	0,1	4,641677
2,360833	0,1	4,628930
2,362500	0,1	4,627171
2,364167	0,1	4,615595
2,365833	0,1	4,633768
2,367500	0,1	4,642601
2,369167	0,1	4,595243
2,370833	0,1	4,590650
2,372500	0,1	4,609583
2,374167	0,1	4,633539
2,375833	0,1	4,614520
2,377500	0,1	4,637188
2,379167	0,1	4,692372
2,380833	0,1	4,712744
2,382500	0,1	4,711020
2,384167	0,1	4,759327
2,385833	0,1	4,802040
2,387500	0,1	4,866000
2,389167	0,1	4,873952
2,390833	0,1	4,925731
2,392500	0,1	4,951892
2,394167	0,1	5,047691
2,395833	0,1	5,113935
2,397500	0,1	5,226991
2,399167	0,1	5,297505
2,400833	0,1	5,433306
2,402500	0,1	5,567274
2,404167	0,1	5,709380
2,405833	0,1	5,813131
2,407500	0,1	5,977869
2,409167	0,1	6,188933
2,410833	0,1	6,318191
2,412500	0,1	6,509495
2,414167	0,1	6,697540
2,415833	0,1	6,969622
2,417500	0,1	7,168653
2,419167	0,1	7,400981
2,420833	0,1	7,660535
2,422500	0,1	7,938990
2,424167	0,1	8,227137
2,425833	0,1	8,495456
2,427500	0,1	8,840414
2,429167	0,1	9,130831
2,430833	0,1	9,466416
2,432500	0,1	9,732004
2,434167	0,1	10,095725
2,435833	0,1	10,419561
2,437500	0,1	10,794576
2,439167	0,1	11,147392
2,440833	0,1	11,509730
2,442500	0,1	11,847424
2,444167	0,1	12,188333
2,445833	0,1	12,551567
2,447500	0,1	12,916530
2,449167	0,1	13,253258
2,450833	0,1	13,622614
2,452500	0,1	13,925661
2,454167	0,1	14,268325
2,455833	0,1	14,616408
2,457500	0,1	14,898112
2,459167	0,1	15,209763
2,460833	0,1	15,567847
2,462500	0,1	15,852728
2,464167	0,1	16,135791
2,465833	0,1	16,402300
2,467500	0,1	16,675551
2,469167	0,1	16,987221
2,470833	0,1	17,224698
2,472500	0,1	17,526434
2,474167	0,1	17,793338
2,475833	0,1	18,053258
2,477500	0,1	18,289114
2,479167	0,1	18,603004
2,480833	0,1	18,821467
2,482500	0,1	19,133325
2,484167	0,1	19,395226
2,485833	0,1	19,657898
2,487500	0,1	19,972473
2,489167	0,1	20,276543
2,490833	0,1	20,565344
2,492500	0,1	20,908403
2,494167	0,1	21,240445
2,495833	0,1	21,632349
2,497500	0,1	21,974322
2,499167	0,1	22,408726
2,500833	0,1	22,832645
2,502500	0,1	23,277445
2,504167	0,1	23,788290
2,505833	0,1	24,320327
2,507500	0,1	24,889273
2,509167	0,1	25,454160
2,510833	0,1	26,046567
2,512500	0,1	26,750632
2,514167	0,1	27,423674
2,515833	0,1	28,121528
2,517500	0,1	28,946812
2,519167	0,1	29,785972
2,520833	0,1	30,599370
2,522500	0,1	31,496410
2,524167	0,1	32,448715
2,525833	0,1	33,422612
2,527500	0,1	34,420809
2,529167	0,1	35,441145
2,530833	0,1	36,586915
2,532500	0,1	37,653521
2,534167	0,1	38,781155
2,535833	0,1	40,024479
2,537500	0,1	41,179474
2,539167	0,1	42,443708
2,540833	0,1	43,677887
2,542500	0,1	44,911805
2,544167	0,1	46,194527
2,545833	0,1	47,514658
2,547500	0,1	48,847635
2,549167	0,1	50,105542
2,550833	0,1	51,448189
2,552500	0,1	52,758451
2,554167	0,1	53,989116
2,555833	0,1	55,345188
2,557500	0,1	56,606486
2,559167	0,1	57,865684
2,560833	0,1	59,115665
2,562500	0,1	60,353140
2,564167	0,1	61,559672
2,565833	0,1	62,764479
2,567500	0,1	63,814791
2,569167	0,1	64,980621
2,570833	0,1	66,027290
2,572500	0,1	67,059065
2,574167	0,1	68,054288
2,575833	0,1	68,975498
2,577500	0,1	69,901985
2,579167	0,1	70,773137
2,580833	0,1	71,575278
2,582500	0,1	72,312912
2,584167	0,1	73,022478
2,585833	0,1	73,677059
2,587500	0,1	74,296259
2,589167	0,1	74,911824
2,590833	0,1	75,438733
2,592500	0,1	75,878769
2,594167	0,1	76,304760
2,595833	0,1	76,680368
2,597500	0,1	77,034977
2,599167	0,1	77,265716
2,600833	0,1	77,486767
2,602500	0,1	77,718592
2,604167	0,1	77,779238
2,605833	0,1	77,879053
2,607500	0,1	77,957041
2,609167	0,1	78,011959
2,610833	0,1	77,942427
2,612500	0,1	77,899689
2,614167	0,1	77,777261
2,615833	0,1	77,608516
2,617500	0,1	77,413482
2,619167	0,1	77,176103
2,620833	0,1	76,904447
2,622500	0,1	76,645263
2,624167	0,1	76,302540
2,625833	0,1	75,960332
2,627500	0,1	75,557329
2,629167	0,1	75,178859
2,630833	0,1	74,722584
2,632500	0,1	74,233668
2,634167	0,1	73,762332
2,635833	0,1	73,187110
2,637500	0,1	72,652306
2,639167	0,1	72,059499
2,640833	0,1	71,440224
2,642500	0,1	70,844855
2,644167	0,1	70,229120
2,645833	0,1	69,538380
2,647500	0,1	68,839855
2,649167	0,1	68,183911
2,650833	0,1	67,440838
2,652500	0,1	66,719511
2,654167	0,1	65,981617
2,655833	0,1	65,241545
2,657500	0,1	64,436451
2,659167	0,1	63,652174
2,660833	0,1	62,887816
2,662500	0,1	62,024743
2,664167	0,1	61,218036
2,665833	0,1	60,403363
2,667500	0,1	59,549374
2,669167	0,1	58,715554
2,670833	0,1	57,847616
2,672500	0,1	56,987268
2,674167	0,1	56,170784
2,675833	0,1	55,333635
2,677500	0,1	54,468097
2,679167	0,1	53,602555
2,680833	0,1	52,745670
2,682500	0,1	51,879071
2,684167	0,1	51,037979
2,685833	0,1	50,189652
2,687500	0,1	49,350520
2,689167	0,1	48,494812
2,690833	0,1	47,632803
2,692500	0,1	46,815212
2,694167	0,1	45,996408
2,695833	0,1	45,134590
2,697500	0,1	44,353382
2,699167	0,1	43,540884
2,700833	0,1	42,724570
2,702500	0,1	41,934412
2,704167	0,1	41,205157
2,705833	0,1	40,361426
2,707500	0,1	39,628594
2,709167	0,1	38,867989
2,710833	0,1	38,118201
2,712500	0,1	37,376446
2,714167	0,1	36,721252
2,715833	0,1	35,995898
2,717500	0,1	35,241020
2,719167	0,1	34,630174
2,720833	0,1	33,919452
2,722500	0,1	33,282192
2,724167	0,1	32,597294
2,725833	0,1	31,963931
2,727500	0,1	31,360999
2,729167	0,1	30,763838
2,730833	0,1	30,129753
2,732500	0,1	29,570901
2,734167	0,1	28,979182
2,735833	0,1	28,439382
2,737500	0,1	27,858684
2,739167	0,1	27,326703
2,740833	0,1	26,787252
2,742500	0,1	26,281212
2,744167	0,1	25,762631
2,745833	0,1	25,265162
2,747500	0,1	24,865196
2,749167	0,1	24,331448
2,750833	0,1	23,849769
2,752500	0,1	23,441256
2,754167	0,1	23,013202
2,755833	0,1	22,575973
2,757500	0,1	22,174862
2,759167	0,1	21,751386
2,760833	0,1	21,299146
2,762500	0,1	20,943672
2,764167	0,1	20,517302
2,765833	0,1	20,174455
2,767500	0,1	19,790307
2,769167	0,1	19,462293
2,770833	0,1	19,130968
2,772500	0,1	18,786429
2,774167	0,1	18,436702
2,775833	0,1	18,128923
2,777500	0,1	17,835358
2,779167	0,1	17,480425
2,780833	0,1	17,189417
2,782500	0,1	16,896158
2,784167	0,1	16,629580
2,785833	0,1	16,327234
2,787500	0,1	16,053268
2,789167	0,1	15,754251
2,790833	0,1	15,544609
2,792500	0,1	15,269836
2,794167	0,1	15,036841
2,795833	0,1	14,786918
2,797500	0,1	14,516474
2,799167	0,1	14,258701
2,800833	0,1	14,074538
2,802500	0,1	13,792150
2,804167	0,1	13,573269
2,805833	0,1	13,375343
2,807500	0,1	13,120882
2,809167	0,1	12,925120
2,810833	0,1	12,718901
2,812500	0,1	12,492229
2,814167	0,1	12,320566
2,815833	0,1	12,124829
2,817500	0,1	11,921684
2,819167	0,1	11,782923
2,820833	0,1	11,590863
2,822500	0,1	11,398521
2,824167	0,1	11,240197
2,825833	0,1	11,061221
2,827500	0,1	10,928086
2,829167	0,1	10,708458
2,830833	0,1	10,593771
2,832500	0,1	10,390866
2,834167	0,1	10,260419
2,835833	0,1	10,110412
2,837500	0,1	9,978210
2,839167	0,1	9,805392
2,840833	0,1	9,648499
2,842500	0,1	9,505193
2,844167	0,1	9,349669
2,845833	0,1	9,261480
2,847500	0,1	9,124277
2,849167	0,1	8,967746
2,850833	0,1	8,877449
2,852500	0,1	8,741974
2,854167	0,1	8,631218
2,855833	0,1	8,479905
2,857500	0,1	8,364705
2,859167	0,1	8,247111
2,860833	0,1	8,173810
2,862500	0,1	8,045787
2,864167	0,1	7,955406
2,865833	0,1	7,836747
2,867500	0,1	7,757261
2,869167	0,1	7,660164
2,870833	0,1	7,560623
2,872500	0,1	7,474918
2,874167	0,1	7,351997
2,875833	0,1	7,319661
2,877500	0,1	7,171741
2,879167	0,1	7,113766
2,880833	0,1	6,984797
2,882500	0,1	6,946418
2,884167	0,1	6,801117
2,885833	0,1	6,798088
2,887500	0,1	6,665083
2,889167	0,1	6,675892
2,890833	0,1	6,542653
2,892500	0,1	6,504509
2,894167	0,1	6,447620
2,895833	0,1	6,348234
2,897500	0,1	6,286387
2,899167	0,1	6,199754
2,900833	0,1	6,172847
2,902500	0,1	6,076225
2,904167	0,1	6,042432
2,905833	0,1	5,979721
2,907500	0,1	5,935860
2,909167	0,1	5,873635
2,910833	0,1	5,749949
2,912500	0,1	5,738797
2,914167	0,1	5,717537
2,915833	0,1	5,606108
2,917500	0,1	5,569673
2,919167	0,1	5,560916
2,920833	0,1	5,448107
2,922500	0,1	5,457442
2,924167	0,1	5,395248
2,925833	0,1	5,336537
2,927500	0,1	5,353837
2,929167	0,1	5,287464
2,930833	0,1	5,166792
2,932500	0,1	5,116355
2,934167	0,1	5,141001
2,935833	0,1	5,046393
2,937500	0,1	5,013528
2,939167	0,1	4,964144
2,940833	0,1	4,961747
2,942500	0,1	4,921645
2,944167	0,1	4,838385
2,945833	0,1	4,852776
2,947500	0,1	4,782833
2,949167	0,1	4,755633
2,950833	0,1	4,741583
2,952500	0,1	4,664993
2,954167	0,1	4,682529
2,955833	0,1	4,631831
2,957500	0,1	4,584318
2,959167	0,1	4,567952
2,960833	0,1	4,539139
2,962500	0,1	4,486599
2,964167	0,1	4,487039
2,965833	0,1	4,453542
2,967500	0,1	4,392698
2,969167	0,1	4,324129
2,970833	0,1	4,314154
2,972500	0,1	4,305361
2,974167	0,1	4,269873
2,975833	0,1	4,223218
2,977500	0,1	4,237634
2,979167	0,1	4,199639
2,980833	0,1	4,147386
2,982500	0,1	4,133140
2,984167	0,1	4,137011
2,985833	0,1	4,088200
2,987500	0,1	4,049905
2,989167	0,1	4,018972
2,990833	0,1	3,994136
2,992500	0,1	4,021264
2,994167	0,1	3,990474
2,995833	0,1	3,929890
2,997500	0,1	3,935114
2,999167	0,1	3,910051
3,000833	0,1	3,863775
3,002500	0,1	3,894636
3,004167	0,1	3,848417
3,005833	0,1	3,848448
3,007500	0,1	3,820706
3,009167	0,1	3,784632
3,010833	0,1	3,739950
3,012500	0,1	3,763250
3,014167	0,1	3,742549
3,015833	0,1	3,695637
3,017500	0,1	3,672646
3,019167	0,1	3,657130
3,020833	0,1	3,671782
3,022500	0,1	3,625299
3,024167	0,1	3,590975
3,025833	0,1	3,579116
3,027500	0,1	3,582430
3,029167	0,1	3,592274
3,030833	0,1	3,556020
3,032500	0,1	3,546679
3,034167	0,1	3,537960
3,035833	0,1	3,485710
3,037500	0,1	3,505794
3,039167	0,1	3,455560
3,040833	0,1	3,452320
3,042500	0,1	3,493005
3,044167	0,1	3,461435
3,045833	0,1	3,406680
3,047500	0,1	3,408743
3,049167	0,1	3,364754
3,050833	0,1	3,342496
3,052500	0,1	3,348273
3,054167	0,1	3,358629
3,055833	0,1	3,308158
3,057500	0,1	3,316898
3,059167	0,1	3,281880
3,060833	0,1	3,271556
3,062500	0,1	3,255672
3,064167	0,1	3,213070
3,065833	0,1	3,204258
3,067500	0,1	3,237484
3,069167	0,1	3,215710
3,070833	0,1	3,210201
3,072500	0,1	3,211112
3,074167	0,1	3,172460
3,075833	0,1	3,151634
3,077500	0,1	3,186408
3,079167	0,1	3,138506
3,080833	0,1	3,099227
3,082500	0,1	3,114349
3,084167	0,1	3,136515
3,085833	0,1	3,083450
3,087500	0,1	3,084187
3,089167	0,1	3,084008
3,090833	0,1	3,066803
3,092500	0,1	3,064022
3,094167	0,1	3,061476
3,095833	0,1	3,047958
3,097500	0,1	3,036279
3,099167	0,1	3,053375
3,100833	0,1	3,000913
3,102500	0,1	3,022932
3,104167	0,1	3,017332
3,105833	0,1	2,992133
3,107500	0,1	3,023085
3,109167	0,1	3,009832
3,110833	0,1	2,979939
3,112500	0,1	3,006788
3,114167	0,1	3,029498
3,115833	0,1	3,037936
3,117500	0,1	3,048472
3,119167	0,1	3,025900
3,120833	0,1	3,004900
3,122500	0,1	3,027319
3,124167	0,1	3,033989
3,125833	0,1	3,040710
3,127500	0,1	3,048163
3,129167	0,1	3,044844
3,130833	0,1	3,062590
3,132500	0,1	3,042795
3,134167	0,1	3,071801
3,135833	0,1	3,083563
3,137500	0,1	3,080088
3,139167	0,1	3,076843
3,140833	0,1	3,072042
3,142500	0,1	3,103286
3,144167	0,1	3,124549
3,145833	0,1	3,112329
3,147500	0,1	3,147648
3,149167	0,1	3,101773
3,150833	0,1	3,139341
3,152500	0,1	3,181916
3,154167	0,1	3,197032
3,155833	0,1	3,181360
3,157500	0,1	3,198926
3,159167	0,1	3,170226
3,160833	0,1	3,198045
3,162500	0,1	3,234958
3,164167	0,1	3,248752
3,165833	0,1	3,184720
3,167500	0,1	3,223302
3,169167	0,1	3,211657
3,170833	0,1	3,218274
3,172500	0,1	3,270065
3,174167	0,1	3,287937
3,175833	0,1	3,249492
3,177500	0,1	3,280252
3,179167	0,1	3,228808
3,180833	0,1	3,264770
3,182500	0,1	3,264757
3,184167	0,1	3,229218
3,185833	0,1	3,235256
3,187500	0,1	3,264828
3,189167	0,1	3,270982
3,190833	0,1	3,238198
3,192500	0,1	3,217501
3,194167	0,1	3,256300
3,195833	0,1	3,233394
3,197500	0,1	3,209686
3,199167	0,1	3,221388
3,200833	0,1	3,185000
3,202500	0,1	3,215877
3,204167	0,1	3,179287
3,205833	0,1	3,194982
3,207500	0,1	3,175154
3,209167	0,1	3,207931
3,210833	0,1	3,146944
3,212500	0,1	3,156534
3,214167	0,1	3,160118
3,215833	0,1	3,110806
3,217500	0,1	3,117931
3,219167	0,1	3,138151
3,220833	0,1	3,040919
3,222500	0,1	3,065833
3,224167	0,1	3,062053
3,225833	0,1	3,031922
3,227500	0,1	2,993588
3,229167	0,1	3,030560
3,230833	0,1	3,012815
3,232500	0,1	2,992835
3,234167	0,1	2,987255
3,235833	0,1	2,956694
3,237500	0,1	2,925995
3,239167	0,1	2,917711
3,240833	0,1	2,920854
3,242500	0,1	2,898542
3,244167	0,1	2,877897
3,245833	0,1	2,844558
3,247500	0,1	2,815621
3,249167	0,1	2,822593
3,250833	0,1	2,772807
3,252500	0,1	2,806661
3,254167	0,1	2,745348
3,255833	0,1	2,756773
3,257500	0,1	2,696584
3,259167	0,1	2,711326
3,260833	0,1	2,707096
3,262500	0,1	2,634488
3,264167	0,1	2,628411
3,265833	0,1	2,637195
3,267500	0,1	2,605113
3,269167	0,1	2,553791
3,270833	0,1	2,593789
3,272500	0,1	2,537047
3,274167	0,1	2,516225
3,275833	0,1	2,514051
3,277500	0,1	2,479215
3,279167	0,1	2,452421
3,280833	0,1	2,445887
3,282500	0,1	2,414419
3,284167	0,1	2,396935
3,285833	0,1	2,377626
3,287500	0,1	2,340078
3,289167	0,1	2,371210
3,290833	0,1	2,354663
3,292500	0,1	2,315876
3,294167	0,1	2,273655
3,295833	0,1	2,291037
3,297500	0,1	2,234861
3,299167	0,1	2,203121
3,300833	0,1	2,226422
3,302500	0,1	2,208577
3,304167	0,1	2,205189
3,305833	0,1	2,193739
3,307500	0,1	2,153967
3,309167	0,1	2,175109
3,310833	0,1	2,149931
3,312500	0,1	2,095991
3,314167	0,1	2,100008
3,315833	0,1	2,091016
3,317500	0,1	2,073318
3,319167	0,1	2,089715
3,320833	0,1	2,047433
3,322500	0,1	2,008306
3,324167	0,1	2,028927
3,325833	0,1	2,027565
3,327500	0,1	1,966887
3,329167	0,1	1,931495
3,330833	0,1	1,955359
3,332500	0,1	1,977934
3,334167	0,1	1,975208
3,335833	0,1	1,925962
3,337500	0,1	1,910491
3,339167	0,1	1,930833
3,340833	0,1	1,921564
3,342500	0,1	1,883031
3,344167	0,1	1,839105
3,345833	0,1	1,860082
3,347500	0,1	1,845208
3,349167	0,1	1,827089
3,350833	0,1	1,815227
3,352500	0,1	1,843541
3,354167	0,1	1,870934
3,355833	0,1	1,835361
3,357500	0,1	1,850880
3,359167	0,1	1,779872
3,360833	0,1	1,794589
3,362500	0,1	1,797969
3,364167	0,1	1,755281
3,365833	0,1	1,763608
3,367500	0,1	1,798177
3,369167	0,1	1,825137
3,370833	0,1	1,716626
3,372500	0,1	1,769562
3,374167	0,1	1,759011
3,375833	0,1	1,694551
3,377500	0,1	1,792842
3,379167	0,1	1,710941
3,380833	0,1	1,729605
3,382500	0,1	1,747000
3,384167	0,1	1,726526
3,385833	0,1	1,721779
3,387500	0,1	1,710495
3,389167	0,1	1,686062
3,390833	0,1	1,677506
3,392500	0,1	1,692377
3,394167	0,1	1,696043
3,395833	0,1	1,725005
3,397500	0,1	1,717681
3,399167	0,1	1,673491
3,400833	0,1	1,691729
3,402500	0,1	1,679875
3,404167	0,1	1,740091
3,405833	0,1	1,641232
3,407500	0,1	1,687338
3,409167	0,1	1,685481
3,410833	0,1	1,645103
3,412500	0,1	1,653066
3,414167	0,1	1,668160
3,415833	0,1	1,683897
3,417500	0,1	1,644023
3,419167	0,1	1,679797
3,420833	0,1	1,644526
3,422500	0,1	1,695103
3,424167	0,1	1,656888
3,425833	0,1	1,652994
3,427500	0,1	1,695104
3,429167	0,1	1,657748
3,430833	0,1	1,686410
3,432500	0,1	1,699564
3,434167	0,1	1,684694
3,435833	0,1	1,650774
3,437500	0,1	1,717738
3,439167	0,1	1,657467
3,440833	0,1	1,711916
3,442500	0,1	1,670541
3,444167	0,1	1,701068
3,445833	0,1	1,698131
3,447500	0,1	1,720837
3,449167	0,1	1,759358
3,450833	0,1	1,737452
3,452500	0,1	1,769640
3,454167	0,1	1,751322
3,455833	0,1	1,762959
3,457500	0,1	1,750531
3,459167	0,1	1,781717
3,460833	0,1	1,767781
3,462500	0,1	1,784740
3,464167	0,1	1,804508
3,465833	0,1	1,831249
3,467500	0,1	1,827949
3,469167	0,1	1,844407
3,470833	0,1	1,845420
3,472500	0,1	1,881788
3,474167	0,1	1,855350
3,475833	0,1	1,903068
3,477500	0,1	1,907395
3,479167	0,1	1,922706
3,480833	0,1	1,956143
3,482500	0,1	1,952124
3,484167	0,1	2,008566
3,485833	0,1	1,980186
3,487500	0,1	2,024818
3,489167	0,1	2,033886
3,490833	0,1	2,088612
3,492500	0,1	2,106528
3,494167	0,1	2,074474
3,495833	0,1	2,128325
3,497500	0,1	2,155387
3,499167	0,1	2,149287
3,500833	0,1	2,137413
3,502500	0,1	2,169263
3,504167	0,1	2,182160
3,505833	0,1	2,203175
3,507500	0,1	2,229284
3,509167	0,1	2,241730
3,510833	0,1	2,221466
3,512500	0,1	2,271087
3,514167	0,1	2,227160
3,515833	0,1	2,310442
3,517500	0,1	2,316641
3,519167	0,1	2,257744
3,520833	0,1	2,330016
3,522500	0,1	2,326095
3,524167	0,1	2,349917
3,525833	0,1	2,375034
3,527500	0,1	2,400948
3,529167	0,1	2,395986
3,530833	0,1	2,429305
3,532500	0,1	2,395047
3,534167	0,1	2,427002
3,535833	0,1	2,390024
3,537500	0,1	2,454357
3,539167	0,1	2,471789
3,540833	0,1	2,487438
3,542500	0,1	2,443379
3,544167	0,1	2,471139
3,545833	0,1	2,503961
3,547500	0,1	2,516054
3,549167	0,1	2,492583
3,550833	0,1	2,470440
3,552500	0,1	2,510590
3,554167	0,1	2,526782
3,555833	0,1	2,424877
3,557500	0,1	2,470996
3,559167	0,1	2,478122
3,560833	0,1	2,476978
3,562500	0,1	2,438120
3,564167	0,1	2,482634
3,565833	0,1	2,457967
3,567500	0,1	2,497629
3,569167	0,1	2,466902
3,570833	0,1	2,423132
3,572500	0,1	2,458301
3,574167	0,1	2,428462
3,575833	0,1	2,480853
3,577500	0,1	2,436800
3,579167	0,1	2,388381
3,580833	0,1	2,393603
3,582500	0,1	2,408651
3,584167	0,1	2,405989
3,585833	0,1	2,401356
3,587500	0,1	2,400358
3,589167	0,1	2,330134
3,590833	0,1	2,326603
3,592500	0,1	2,368243
3,594167	0,1	2,344948
3,595833	0,1	2,337096
3,597500	0,1	2,317306
3,599167	0,1	2,319986
3,600833	0,1	2,333768
3,602500	0,1	2,260828
3,604167	0,1	2,269950
3,605833	0,1	2,247429
3,607500	0,1	2,290289
3,609167	0,1	2,256137
3,610833	0,1	2,240811
3,612500	0,1	2,254766
3,614167	0,1	2,192760
3,615833	0,1	2,219928
3,617500	0,1	2,175845
3,619167	0,1	2,160216
3,620833	0,1	2,129079
3,622500	0,1	2,145035
3,624167	0,1	2,130585
3,625833	0,1	2,101445
3,627500	0,1	2,139771
3,629167	0,1	2,133013
3,630833	0,1	2,091382
3,632500	0,1	2,042398
3,634167	0,1	2,079132
3,635833	0,1	2,021187
3,637500	0,1	2,022747
3,639167	0,1	2,015704
3,640833	0,1	1,971913
3,642500	0,1	2,007279
3,644167	0,1	2,010159
3,645833	0,1	1,930211
3,647500	0,1	1,991803
3,649167	0,1	1,948536
3,650833	0,1	1,902302
3,652500	0,1	1,938881
3,654167	0,1	1,912001
3,655833	0,1	1,857729
3,657500	0,1	1,862458
3,659167	0,1	1,859583
3,660833	0,1	1,832627
3,662500	0,1	1,838658
3,664167	0,1	1,817675
3,665833	0,1	1,814145
3,667500	0,1	1,782307
3,669167	0,1	1,758295
3,670833	0,1	1,743702
3,672500	0,1	1,734500
3,674167	0,1	1,760512
3,675833	0,1	1,721069
3,677500	0,1	1,745418
3,679167	0,1	1,668105
3,680833	0,1	1,640787
3,682500	0,1	1,699267
3,684167	0,1	1,639648
3,685833	0,1	1,676054
3,687500	0,1	1,679086
3,689167	0,1	1,631161
3,690833	0,1	1,661545
3,692500	0,1	1,630447
3,694167	0,1	1,594802
3,695833	0,1	1,590414
3,697500	0,1	1,601468
3,699167	0,1	1,581002
3,700833	0,1	1,585886
3,702500	0,1	1,579059
3,704167	0,1	1,565197
3,705833	0,1	1,523159
3,707500	0,1	1,544488
3,709167	0,1	1,533362
3,710833	0,1	1,542049
3,712500	0,1	1,519567
3,714167	0,1	1,500318
3,715833	0,1	1,522295
3,717500	0,1	1,479850
3,719167	0,1	1,511590
3,720833	0,1	1,436109
3,722500	0,1	1,500803
3,724167	0,1	1,491562
3,725833	0,1	1,481214
3,727500	0,1	1,465475
3,729167	0,1	1,478622
3,730833	0,1	1,483361
3,732500	0,1	1,452984
3,734167	0,1	1,459216
3,735833	0,1	1,430990
3,737500	0,1	1,456490
3,739167	0,1	1,445222
3,740833	0,1	1,468338
3,742500	0,1	1,430014
3,744167	0,1	1,425032
3,745833	0,1	1,427054
3,747500	0,1	1,408377
3,749167	0,1	1,442414
3,750833	0,1	1,446230
3,752500	0,1	1,443716
3,754167	0,1	1,384547
3,755833	0,1	1,417336
3,757500	0,1	1,395807
3,759167	0,1	1,419081
3,760833	0,1	1,428044
3,762500	0,1	1,432730
3,764167	0,1	1,411981
3,765833	0,1	1,362116
3,767500	0,1	1,444629
3,769167	0,1	1,378801
3,770833	0,1	1,398102
3,772500	0,1	1,387465
3,774167	0,1	1,376623
3,775833	0,1	1,386174
3,777500	0,1	1,379497
3,779167	0,1	1,412173
3,780833	0,1	1,391142
3,782500	0,1	1,355299
3,784167	0,1	1,373814
3,785833	0,1	1,385816
3,787500	0,1	1,382018
3,789167	0,1	1,383886
3,790833	0,1	1,381216
3,792500	0,1	1,402331
3,794167	0,1	1,393599
3,795833	0,1	1,418653
3,797500	0,1	1,410165
3,799167	0,1	1,419506
3,800833	0,1	1,382526
3,802500	0,1	1,382158
3,804167	0,1	1,380352
3,805833	0,1	1,369373
3,807500	0,1	1,388766
3,809167	0,1	1,357317
3,810833	0,1	1,408150
3,812500	0,1	1,425406
3,814167	0,1	1,386981
3,815833	0,1	1,406365
3,817500	0,1	1,394877
3,819167	0,1	1,404288
3,820833	0,1	1,372339
3,822500	0,1	1,396015
3,824167	0,1	1,385471
3,825833	0,1	1,398393
3,827500	0,1	1,389830
3,829167	0,1	1,402333
3,830833	0,1	1,408161
3,832500	0,1	1,375352
3,834167	0,1	1,374185
3,835833	0,1	1,350206
3,837500	0,1	1,342376
3,839167	0,1	1,349709
3,840833	0,1	1,374038
3,842500	0,1	1,398817
3,844167	0,1	1,365510
3,845833	0,1	1,376837
3,847500	0,1	1,360965
3,849167	0,1	1,378345
3,850833	0,1	1,407088
3,852500	0,1	1,363417
3,854167	0,1	1,354516
3,855833	0,1	1,351500
3,857500	0,1	1,351133
3,859167	0,1	1,329366
3,860833	0,1	1,339350
3,862500	0,1	1,342304
3,864167	0,1	1,367355
3,865833	0,1	1,351653
3,867500	0,1	1,365062
3,869167	0,1	1,346973
3,870833	0,1	1,337852
3,872500	0,1	1,308407
3,874167	0,1	1,339073
3,875833	0,1	1,386881
3,877500	0,1	1,363202
3,879167	0,1	1,335464
3,880833	0,1	1,350623
3,882500	0,1	1,335705
3,884167	0,1	1,345890
3,885833	0,1	1,330011
3,887500	0,1	1,285205
3,889167	0,1	1,307767
3,890833	0,1	1,307424
3,892500	0,1	1,322553
3,894167	0,1	1,295211
3,895833	0,1	1,275595
3,897500	0,1	1,331793
3,899167	0,1	1,348903
3,900833	0,1	1,272160
3,902500	0,1	1,279387
3,904167	0,1	1,276179
3,905833	0,1	1,293393
3,907500	0,1	1,270993
3,909167	0,1	1,289813
3,910833	0,1	1,228307
3,912500	0,1	1,263443
3,914167	0,1	1,243575
3,915833	0,1	1,243341
3,917500	0,1	1,222193
3,919167	0,1	1,261445
3,920833	0,1	1,284999
3,922500	0,1	1,253050
3,924167	0,1	1,243434
3,925833	0,1	1,238055
3,927500	0,1	1,237903
3,929167	0,1	1,244583
3,930833	0,1	1,227928
3,932500	0,1	1,221521
3,934167	0,1	1,208254
3,935833	0,1	1,241485
3,937500	0,1	1,214211
3,939167	0,1	1,187075
3,940833	0,1	1,245516
3,942500	0,1	1,211272
3,944167	0,1	1,177523
3,945833	0,1	1,164528
3,947500	0,1	1,181401
3,949167	0,1	1,188879
3,950833	0,1	1,178246
3,952500	0,1	1,213641
3,954167	0,1	1,149764
3,955833	0,1	1,187059
3,957500	0,1	1,185569
3,959167	0,1	1,131467
3,960833	0,1	1,175303
3,962500	0,1	1,166202
3,964167	0,1	1,152982
3,965833	0,1	1,134537
3,967500	0,1	1,109785
3,969167	0,1	1,134816
3,970833	0,1	1,144935
3,972500	0,1	1,115875
3,974167	0,1	1,118726
3,975833	0,1	1,139107
3,977500	0,1	1,147845
3,979167	0,1	1,121125
3,980833	0,1	1,111707
3,982500	0,1	1,117597
3,984167	0,1	1,108821
3,985833	0,1	1,129729
3,987500	0,1	1,110994
3,989167	0,1	1,120841
3,990833	0,1	1,089544
3,992500	0,1	1,117951
3,994167	0,1	1,095409
3,995833	0,1	1,074080
3,997500	0,1	1,132812
3,999167	0,1	1,084736
4,000833	0,1	1,100788
4,002500	0,1	1,079796
4,004167	0,1	1,114513
4,005833	0,1	1,121749
4,007500	0,1	1,137057
4,009167	0,1	1,105967
4,010833	0,1	1,106919
4,012500	0,1	1,106055
4,014167	0,1	1,114066
4,015833	0,1	1,120689
4,017500	0,1	1,125513
4,019167	0,1	1,107902
4,020833	0,1	1,063489
4,022500	0,1	1,084433
4,024167	0,1	1,104537
4,025833	0,1	1,112142
4,027500	0,1	1,104173
4,029167	0,1	1,094512
4,030833	0,1	1,080688
4,032500	0,1	1,120670
4,034167	0,1	1,119141
4,035833	0,1	1,125512
4,037500	0,1	1,064579
4,039167	0,1	1,142334
4,040833	0,1	1,136692
4,042500	0,1	1,093339
4,044167	0,1	1,112648
4,045833	0,1	1,168782
4,047500	0,1	1,146097
4,049167	0,1	1,139263
4,050833	0,1	1,172607
4,052500	0,1	1,129087
4,054167	0,1	1,160517
4,055833	0,1	1,157237
4,057500	0,1	1,193105
4,059167	0,1	1,178986
4,060833	0,1	1,209041
4,062500	0,1	1,249753
4,064167	0,1	1,207904
4,065833	0,1	1,232025
4,067500	0,1	1,251410
4,069167	0,1	1,220742
4,070833	0,1	1,277178
4,072500	0,1	1,246232
4,074167	0,1	1,242219
4,075833	0,1	1,274658
4,077500	0,1	1,274150
4,079167	0,1	1,274746
4,080833	0,1	1,277400
4,082500	0,1	1,295340
4,084167	0,1	1,326297
4,085833	0,1	1,302528
4,087500	0,1	1,354135
4,089167	0,1	1,368084
4,090833	0,1	1,330034
4,092500	0,1	1,397810
4,094167	0,1	1,403706
4,095833	0,1	1,385464
4,097500	0,1	1,451316
4,099167	0,1	1,408804
4,100833	0,1	1,450381
4,102500	0,1	1,485869
4,104167	0,1	1,429718
4,105833	0,1	1,512589
4,107500	0,1	1,517568
4,109167	0,1	1,563606
4,110833	0,1	1,554783
4,112500	0,1	1,546232
4,114167	0,1	1,603553
4,115833	0,1	1,583733
4,117500	0,1	1,597881
4,119167	0,1	1,614552
4,120833	0,1	1,640275
4,122500	0,1	1,668518
4,124167	0,1	1,675637
4,125833	0,1	1,672187
4,127500	0,1	1,683469
4,129167	0,1	1,718392
4,130833	0,1	1,714163
4,132500	0,1	1,757346
4,134167	0,1	1,706698
4,135833	0,1	1,755979
4,137500	0,1	1,793720
4,139167	0,1	1,817878
4,140833	0,1	1,856118
4,142500	0,1	1,837875
4,144167	0,1	1,890627
4,145833	0,1	1,866778
4,147500	0,1	1,889412
4,149167	0,1	1,838818
4,150833	0,1	1,941882
4,152500	0,1	1,884836
4,154167	0,1	1,945922
4,155833	0,1	1,961609
4,157500	0,1	1,926675
4,159167	0,1	1,969297
4,160833	0,1	1,992885
4,162500	0,1	1,996202
4,164167	0,1	1,990589
4,165833	0,1	2,021950
4,167500	0,1	2,049417
4,169167	0,1	2,065524
4,170833	0,1	2,025929
4,172500	0,1	2,066322
4,174167	0,1	2,066040
4,175833	0,1	2,037573
4,177500	0,1	2,121618
4,179167	0,1	2,050812
4,180833	0,1	2,112572
4,182500	0,1	2,102870
4,184167	0,1	2,104890
4,185833	0,1	2,128754
4,187500	0,1	2,124816
4,189167	0,1	2,141137
4,190833	0,1	2,124971
4,192500	0,1	2,170399
4,194167	0,1	2,151205
4,195833	0,1	2,144894
4,197500	0,1	2,148344
4,199167	0,1	2,181778
4,200833	0,1	2,154959
4,202500	0,1	2,178837
4,204167	0,1	2,188695
4,205833	0,1	2,190572
4,207500	0,1	2,151150
4,209167	0,1	2,177698
4,210833	0,1	2,180278
4,212500	0,1	2,192365
4,214167	0,1	2,159493
4,215833	0,1	2,179059
4,217500	0,1	2,169568
4,219167	0,1	2,195952
4,220833	0,1	2,166467
4,222500	0,1	2,204156
4,224167	0,1	2,189649
4,225833	0,1	2,157918
4,227500	0,1	2,201055
4,229167	0,1	2,193738
4,230833	0,1	2,139298
4,232500	0,1	2,172213
4,234167	0,1	2,182351
4,235833	0,1	2,169215
4,237500	0,1	2,080811
4,239167	0,1	2,181262
4,240833	0,1	2,126849
4,242500	0,1	2,119283
4,244167	0,1	2,126035
4,245833	0,1	2,118769
4,247500	0,1	2,130859
4,249167	0,1	2,129413
4,250833	0,1	2,098917
4,252500	0,1	2,083669
4,254167	0,1	2,068925
4,255833	0,1	2,081427
4,257500	0,1	2,072376
4,259167	0,1	2,086764
4,260833	0,1	2,024197
4,262500	0,1	2,035618
4,264167	0,1	2,046905
4,265833	0,1	2,086387
4,267500	0,1	2,054531
4,269167	0,1	1,994208
4,270833	0,1	2,027125
4,272500	0,1	2,012890
4,274167	0,1	1,983917
4,275833	0,1	2,016899
4,277500	0,1	1,998869
4,279167	0,1	2,007059
4,280833	0,1	1,941276
4,282500	0,1	1,920055
4,284167	0,1	1,941691
4,285833	0,1	1,916603
4,287500	0,1	1,898409
4,289167	0,1	1,922057
4,290833	0,1	1,902581
4,292500	0,1	1,897400
4,294167	0,1	1,874257
4,295833	0,1	1,871299
4,297500	0,1	1,860157
4,299167	0,1	1,860585
4,300833	0,1	1,841683
4,302500	0,1	1,804378
4,304167	0,1	1,846701
4,305833	0,1	1,838013
4,307500	0,1	1,809623
4,309167	0,1	1,785397
4,310833	0,1	1,764693
4,312500	0,1	1,783374
4,314167	0,1	1,767999
4,315833	0,1	1,733501
4,317500	0,1	1,769712
4,319167	0,1	1,737096
4,320833	0,1	1,727385
4,322500	0,1	1,713733
4,324167	0,1	1,702807
4,325833	0,1	1,680462
4,327500	0,1	1,686487
4,329167	0,1	1,665800
4,330833	0,1	1,665220
4,332500	0,1	1,601131
4,334167	0,1	1,643506
4,335833	0,1	1,650848
4,337500	0,1	1,615496
4,339167	0,1	1,611608
4,340833	0,1	1,588553
4,342500	0,1	1,606221
4,344167	0,1	1,581794
4,345833	0,1	1,574895
4,347500	0,1	1,572804
4,349167	0,1	1,571451
4,350833	0,1	1,567785
4,352500	0,1	1,507228
4,354167	0,1	1,525024
4,355833	0,1	1,564830
4,357500	0,1	1,493434
4,359167	0,1	1,517920
4,360833	0,1	1,476841
4,362500	0,1	1,478770
4,364167	0,1	1,488544
4,365833	0,1	1,451469
4,367500	0,1	1,464764
4,369167	0,1	1,449045
4,370833	0,1	1,431583
4,372500	0,1	1,489113
4,374167	0,1	1,412992
4,375833	0,1	1,426764
4,377500	0,1	1,435745
4,379167	0,1	1,413064
4,380833	0,1	1,347787
4,382500	0,1	1,368875
4,384167	0,1	1,379359
4,385833	0,1	1,381170
4,387500	0,1	1,378016
4,389167	0,1	1,347000
4,390833	0,1	1,333983
4,392500	0,1	1,360202
4,394167	0,1	1,339794
4,395833	0,1	1,346694
4,397500	0,1	1,334063
4,399167	0,1	1,296568
4,400833	0,1	1,293565
4,402500	0,1	1,294786
4,404167	0,1	1,276252
4,405833	0,1	1,268136
4,407500	0,1	1,268849
4,409167	0,1	1,254707
4,410833	0,1	1,279044
4,412500	0,1	1,287170
4,414167	0,1	1,222827
4,415833	0,1	1,245017
4,417500	0,1	1,250477
4,419167	0,1	1,220824
4,420833	0,1	1,219166
4,422500	0,1	1,206130
4,424167	0,1	1,202437
4,425833	0,1	1,190107
4,427500	0,1	1,197370
4,429167	0,1	1,192723
4,430833	0,1	1,175097
4,432500	0,1	1,181427
4,434167	0,1	1,154623
4,435833	0,1	1,158458
4,437500	0,1	1,133699
4,439167	0,1	1,103326
4,440833	0,1	1,166900
4,442500	0,1	1,147195
4,444167	0,1	1,112428
4,445833	0,1	1,104544
4,447500	0,1	1,098099
4,449167	0,1	1,096654
4,450833	0,1	1,082516
4,452500	0,1	1,112645
4,454167	0,1	1,104696
4,455833	0,1	1,051357
4,457500	0,1	1,078577
4,459167	0,1	1,056121
4,460833	0,1	1,054452
4,462500	0,1	1,079139
4,464167	0,1	1,009975
4,465833	0,1	1,077604
4,467500	0,1	1,047094
4,469167	0,1	1,079646
4,470833	0,1	1,028494
4,472500	0,1	1,023975
4,474167	0,1	1,007667
4,475833	0,1	1,006440
4,477500	0,1	1,025809
4,479167	0,1	0,973686
4,480833	0,1	1,002369
4,482500	0,1	0,963556
4,484167	0,1	0,982149
4,485833	0,1	1,006382
4,487500	0,1	0,955386
4,489167	0,1	0,902986
4,490833	0,1	0,943063
4,492500	0,1	0,929124
4,494167	0,1	0,911745
4,495833	0,1	0,953563
4,497500	0,1	0,927039
4,499167	0,1	0,932774
4,500833	0,1	0,904815
4,502500	0,1	0,933837
4,504167	0,1	0,901060
4,505833	0,1	0,917921
4,507500	0,1	0,869616
4,509167	0,1	0,889019
4,510833	0,1	0,876386
4,512500	0,1	0,881566
4,514167	0,1	0,904565
4,515833	0,1	0,864417
4,517500	0,1	0,844313
4,519167	0,1	0,832046
4,520833	0,1	0,860576
4,522500	0,1	0,882275
4,524167	0,1	0,832835
4,525833	0,1	0,873927
4,527500	0,1	0,863187
4,529167	0,1	0,836230
4,530833	0,1	0,832314
4,532500	0,1	0,764130
4,534167	0,1	0,818456
4,535833	0,1	0,825180
4,537500	0,1	0,825827
4,539167	0,1	0,861884
4,540833	0,1	0,782157
4,542500	0,1	0,829622
4,544167	0,1	0,832978
4,545833	0,1	0,797995
4,547500	0,1	0,760358
4,549167	0,1	0,773676
4,550833	0,1	0,796977
4,552500	0,1	0,745697
4,554167	0,1	0,781994
4,555833	0,1	0,693277
4,557500	0,1	0,798692
4,559167	0,1	0,761783
4,560833	0,1	0,737502
4,562500	0,1	0,777698
4,564167	0,1	0,789390
4,565833	0,1	0,745561
4,567500	0,1	0,766614
4,569167	0,1	0,732605
4,570833	0,1	0,735936
4,572500	0,1	0,745193
4,574167	0,1	0,700298
4,575833	0,1	0,704201
4,577500	0,1	0,735950
4,579167	0,1	0,733176
4,580833	0,1	0,700782
4,582500	0,1	0,726096
4,584167	0,1	0,653930
4,585833	0,1	0,679941
4,587500	0,1	0,746153
4,589167	0,1	0,655803
4,590833	0,1	0,648197
4,592500	0,1	0,719047
4,594167	0,1	0,681759
4,595833	0,1	0,674075
4,597500	0,1	0,675718
4,599167	0,1	0,679837
4,600833	0,1	0,668335
4,602500	0,1	0,692605
4,604167	0,1	0,660085
4,605833	0,1	0,640991
4,607500	0,1	0,656824
4,609167	0,1	0,690064
4,610833	0,1	0,688022
4,612500	0,1	0,659305
4,614167	0,1	0,681610
4,615833	0,1	0,669202
4,617500	0,1	0,647643
4,619167	0,1	0,684744
4,620833	0,1	0,641620
4,622500	0,1	0,656490
4,624167	0,1	0,650732
4,625833	0,1	0,607890
4,627500	0,1	0,604010
4,629167	0,1	0,634993
4,630833	0,1	0,622656
4,632500	0,1	0,648701
4,634167	0,1	0,615942
4,635833	0,1	0,606547
4,637500	0,1	0,597958
4,639167	0,1	0,610770
4,640833	0,1	0,594980
4,642500	0,1	0,603116
4,644167	0,1	0,585369
4,645833	0,1	0,581940
4,647500	0,1	0,600779
4,649167	0,1	0,563439
4,650833	0,1	0,581379
4,652500	0,1	0,598710
4,654167	0,1	0,564750
4,655833	0,1	0,543790
4,657500	0,1	0,589938
4,659167	0,1	0,554230
4,660833	0,1	0,575284
4,662500	0,1	0,582962
4,664167	0,1	0,538462
4,665833	0,1	0,593785
4,667500	0,1	0,556744
4,669167	0,1	0,579221
4,670833	0,1	0,551847
4,672500	0,1	0,525441
4,674167	0,1	0,559797
4,675833	0,1	0,542392
4,677500	0,1	0,588114
4,679167	0,1	0,526762
4,680833	0,1	0,539159
4,682500	0,1	0,524502
4,684167	0,1	0,509004
4,685833	0,1	0,512869
4,687500	0,1	0,533194
4,689167	0,1	0,531957
4,690833	0,1	0,538962
4,692500	0,1	0,519368
4,694167	0,1	0,540761
4,695833	0,1	0,552953
4,697500	0,1	0,545151
4,699167	0,1	0,540520
4,700833	0,1	0,540807
4,702500	0,1	0,493243
4,704167	0,1	0,530459
4,705833	0,1	0,522260
4,707500	0,1	0,523902
4,709167	0,1	0,513693
4,710833	0,1	0,534889
4,712500	0,1	0,527040
4,714167	0,1	0,505889
4,715833	0,1	0,522410
4,717500	0,1	0,505557
4,719167	0,1	0,522723
4,720833	0,1	0,503242
4,722500	0,1	0,514002
4,724167	0,1	0,478024
4,725833	0,1	0,489110
4,727500	0,1	0,490585
4,729167	0,1	0,537529
4,730833	0,1	0,508537
4,732500	0,1	0,537376
4,734167	0,1	0,483593
4,735833	0,1	0,497693
4,737500	0,1	0,509262
4,739167	0,1	0,481958
4,740833	0,1	0,507390
4,742500	0,1	0,517806
4,744167	0,1	0,495674
4,745833	0,1	0,548023
4,747500	0,1	0,460739
4,749167	0,1	0,507725
4,750833	0,1	0,484339
4,752500	0,1	0,511997
4,754167	0,1	0,445006
4,755833	0,1	0,491666
4,757500	0,1	0,498009
4,759167	0,1	0,464569
4,760833	0,1	0,495738
4,762500	0,1	0,524699
4,764167	0,1	0,474959
4,765833	0,1	0,490399
4,767500	0,1	0,464858
4,769167	0,1	0,440613
4,770833	0,1	0,458305
4,772500	0,1	0,440452
4,774167	0,1	0,426329
4,775833	0,1	0,487346
4,777500	0,1	0,497876
4,779167	0,1	0,462215
4,780833	0,1	0,493538
4,782500	0,1	0,493255
4,784167	0,1	0,493480
4,785833	0,1	0,473688
4,787500	0,1	0,424271
4,789167	0,1	0,490593
4,790833	0,1	0,440422
4,792500	0,1	0,462333
4,794167	0,1	0,449442
4,795833	0,1	0,449793
4,797500	0,1	0,469428
4,799167	0,1	0,484816
4,800833	0,1	0,463276
4,802500	0,1	0,451980
4,804167	0,1	0,413411
4,805833	0,1	0,415138
4,807500	0,1	0,452232
4,809167	0,1	0,426266
4,810833	0,1	0,445564
4,812500	0,1	0,435028
4,814167	0,1	0,431551
4,815833	0,1	0,479963
4,817500	0,1	0,441643
4,819167	0,1	0,454305
4,820833	0,1	0,450058
4,822500	0,1	0,489799
4,824167	0,1	0,448027
4,825833	0,1	0,461492
4,827500	0,1	0,467364
4,829167	0,1	0,431941
4,830833	0,1	0,449684
4,832500	0,1	0,447241
4,834167	0,1	0,444187
4,835833	0,1	0,421356
4,837500	0,1	0,414114
4,839167	0,1	0,463508
4,840833	0,1	0,460296
4,842500	0,1	0,461915
4,844167	0,1	0,480327
4,845833	0,1	0,475197
4,847500	0,1	0,474395
4,849167	0,1	0,407732
4,850833	0,1	0,438624
4,852500	0,1	0,488059
4,854167	0,1	0,449001
4,855833	0,1	0,438741
4,857500	0,1	0,447079
4,859167	0,1	0,447504
4,860833	0,1	0,425225
4,862500	0,1	0,462908
4,864167	0,1	0,424427
4,865833	0,1	0,465064
4,867500	0,1	0,470142
4,869167	0,1	0,444192
4,870833	0,1	0,439672
4,872500	0,1	0,456925
4,874167	0,1	0,447704
4,875833	0,1	0,443660
4,877500	0,1	0,449660
4,879167	0,1	0,439701
4,880833	0,1	0,462738
4,882500	0,1	0,450638
4,884167	0,1	0,463295
4,885833	0,1	0,499226
4,887500	0,1	0,415278
4,889167	0,1	0,444560
4,890833	0,1	0,431409
4,892500	0,1	0,415879
4,894167	0,1	0,447784
4,895833	0,1	0,443989
4,897500	0,1	0,457754
4,899167	0,1	0,452308
4,900833	0,1	0,434030
4,902500	0,1	0,442117
4,904167	0,1	0,466136
4,905833	0,1	0,400729
4,907500	0,1	0,432597
4,909167	0,1	0,459869
4,910833	0,1	0,448349
4,912500	0,1	0,457977
4,914167	0,1	0,482641
4,915833	0,1	0,476016
4,917500	0,1	0,473972
4,919167	0,1	0,432036
4,920833	0,1	0,461329
4,922500	0,1	0,456823
4,924167	0,1	0,470704
4,925833	0,1	0,451864
4,927500	0,1	0,451083
4,929167	0,1	0,479035
4,930833	0,1	0,424352
4,932500	0,1	0,456814
4,934167	0,1	0,463717
4,935833	0,1	0,451179
4,937500	0,1	0,443123
4,939167	0,1	0,435120
4,940833	0,1	0,525798
4,942500	0,1	0,439009
4,944167	0,1	0,477517
4,945833	0,1	0,446208
4,947500	0,1	0,425159
4,949167	0,1	0,465157
4,950833	0,1	0,471441
4,952500	0,1	0,438680
4,954167	0,1	0,477568
4,955833	0,1	0,434193
4,957500	0,1	0,442540
4,959167	0,1	0,465201
4,960833	0,1	0,460363
4,962500	0,1	0,457113
4,964167	0,1	0,468479
4,965833	0,1	0,464340
4,967500	0,1	0,458758
4,969167	0,1	0,402439
4,970833	0,1	0,436400
4,972500	0,1	0,479859
4,974167	0,1	0,451984
4,975833	0,1	0,468493
4,977500	0,1	0,452955
4,979167	0,1	0,447346
4,980833	0,1	0,431450
4,982500	0,1	0,496911
4,984167	0,1	0,442226
4,985833	0,1	0,460465
4,987500	0,1	0,451757
4,989167	0,1	0,453648
4,990833	0,1	0,437899
4,992500	0,1	0,487174
4,994167	0,1	0,479976
4,995833	0,1	0,480421
4,997500	0,1	0,453721
4,999167	0,1	0,485442
5,000833	0,1	0,500677
5,002500	0,1	0,473978
5,004167	0,1	0,500767
5,005833	0,1	0,463082
5,007500	0,1	0,467008
5,009167	0,1	0,487379
5,010833	0,1	0,430787
5,012500	0,1	0,488702
5,014167	0,1	0,448894
5,015833	0,1	0,490575
5,017500	0,1	0,473331
5,019167	0,1	0,424877
5,020833	0,1	0,466447
5,022500	0,1	0,504476
5,024167	0,1	0,482008
5,025833	0,1	0,490451
5,027500	0,1	0,513179
5,029167	0,1	0,457546
5,030833	0,1	0,535074
5,032500	0,1	0,513967
5,034167	0,1	0,539386
5,035833	0,1	0,493134
5,037500	0,1	0,519893
5,039167	0,1	0,466865
5,040833	0,1	0,495408
5,042500	0,1	0,460766
5,044167	0,1	0,492198
5,045833	0,1	0,520829
5,047500	0,1	0,521414
5,049167	0,1	0,501397
5,050833	0,1	0,527280
5,052500	0,1	0,500687
5,054167	0,1	0,470886
5,055833	0,1	0,472879
5,057500	0,1	0,515837
5,059167	0,1	0,532575
5,060833	0,1	0,525839
5,062500	0,1	0,538761
5,064167	0,1	0,496020
5,065833	0,1	0,542466
5,067500	0,1	0,536005
5,069167	0,1	0,513167
5,070833	0,1	0,500618
5,072500	0,1	0,532148
5,074167	0,1	0,551794
5,075833	0,1	0,557271
5,077500	0,1	0,544747
5,079167	0,1	0,510877
5,080833	0,1	0,582661
5,082500	0,1	0,527944
5,084167	0,1	0,570497
5,085833	0,1	0,565502
5,087500	0,1	0,571107
5,089167	0,1	0,584472
5,090833	0,1	0,525696
5,092500	0,1	0,515628
5,094167	0,1	0,548234
5,095833	0,1	0,541792
5,097500	0,1	0,576014
5,099167	0,1	0,553227
5,100833	0,1	0,518528
5,102500	0,1	0,555660
5,104167	0,1	0,561901
5,105833	0,1	0,540192
5,107500	0,1	0,523089
5,109167	0,1	0,549452
5,110833	0,1	0,546572
5,112500	0,1	0,531359
5,114167	0,1	0,543945
5,115833	0,1	0,513946
5,117500	0,1	0,554326
5,119167	0,1	0,519148
5,120833	0,1	0,580169
5,122500	0,1	0,572646
5,124167	0,1	0,522178
5,125833	0,1	0,548235
5,127500	0,1	0,545124
5,129167	0,1	0,571771
5,130833	0,1	0,541062
5,132500	0,1	0,498336
5,134167	0,1	0,531039
5,135833	0,1	0,525683
5,137500	0,1	0,509163
5,139167	0,1	0,479733
5,140833	0,1	0,515468
5,142500	0,1	0,544877
5,144167	0,1	0,525091
5,145833	0,1	0,535957
5,147500	0,1	0,536472
5,149167	0,1	0,563385
5,150833	0,1	0,513024
5,152500	0,1	0,516584
5,154167	0,1	0,555328
5,155833	0,1	0,553046
5,157500	0,1	0,518577
5,159167	0,1	0,552326
5,160833	0,1	0,513683
5,162500	0,1	0,529753
5,164167	0,1	0,534827
5,165833	0,1	0,505699
5,167500	0,1	0,531283
5,169167	0,1	0,565607
5,170833	0,1	0,569836
5,172500	0,1	0,512976
5,174167	0,1	0,522702
5,175833	0,1	0,499290
5,177500	0,1	0,508221
5,179167	0,1	0,483745
5,180833	0,1	0,516114
5,182500	0,1	0,552881
5,184167	0,1	0,510548
5,185833	0,1	0,519946
5,187500	0,1	0,514055
5,189167	0,1	0,511227
5,190833	0,1	0,487813
5,192500	0,1	0,537330
5,194167	0,1	0,506411
5,195833	0,1	0,514648
5,197500	0,1	0,527265
5,199167	0,1	0,480565
5,200833	0,1	0,503844
5,202500	0,1	0,510537
5,204167	0,1	0,467598
5,205833	0,1	0,434191
5,207500	0,1	0,482255
5,209167	0,1	0,476553
5,210833	0,1	0,439247
5,212500	0,1	0,469911
5,214167	0,1	0,490184
5,215833	0,1	0,457567
5,217500	0,1	0,473284
5,219167	0,1	0,476982
5,220833	0,1	0,464144
5,222500	0,1	0,479088
5,224167	0,1	0,457301
5,225833	0,1	0,472192
5,227500	0,1	0,451403
5,229167	0,1	0,420096
5,230833	0,1	0,485946
5,232500	0,1	0,469041
5,234167	0,1	0,428929
5,235833	0,1	0,451840
5,237500	0,1	0,466321
5,239167	0,1	0,442284
5,240833	0,1	0,424409
5,242500	0,1	0,450799
5,244167	0,1	0,416359
5,245833	0,1	0,401034
5,247500	0,1	0,442123
5,249167	0,1	0,404948
5,250833	0,1	0,425004
5,252500	0,1	0,419445
5,254167	0,1	0,412508
5,255833	0,1	0,392113
5,257500	0,1	0,455568
5,259167	0,1	0,387385
5,260833	0,1	0,416594
5,262500	0,1	0,418691
5,264167	0,1	0,352144
5,265833	0,1	0,432992
5,267500	0,1	0,398433
5,269167	0,1	0,451728
5,270833	0,1	0,368546
5,272500	0,1	0,382486
5,274167	0,1	0,384067
5,275833	0,1	0,362122
5,277500	0,1	0,387930
5,279167	0,1	0,397344
5,280833	0,1	0,377925
5,282500	0,1	0,351610
5,284167	0,1	0,348970
5,285833	0,1	0,381968
5,287500	0,1	0,399764
5,289167	0,1	0,346786
5,290833	0,1	0,397057
5,292500	0,1	0,374625
5,294167	0,1	0,363540
5,295833	0,1	0,375681
5,297500	0,1	0,388130
5,299167	0,1	0,363992
5,300833	0,1	0,346869
5,302500	0,1	0,342156
5,304167	0,1	0,410201
5,305833	0,1	0,377404
5,307500	0,1	0,355030
5,309167	0,1	0,368730
5,310833	0,1	0,337528
5,312500	0,1	0,339903
5,314167	0,1	0,335803
5,315833	0,1	0,336296
5,317500	0,1	0,374003
5,319167	0,1	0,365501
5,320833	0,1	0,344160
5,322500	0,1	0,330170
5,324167	0,1	0,363912
5,325833	0,1	0,355344
5,327500	0,1	0,374878
5,329167	0,1	0,334205
5,330833	0,1	0,296519
5,332500	0,1	0,384337
5,334167	0,1	0,344744
5,335833	0,1	0,319829
5,337500	0,1	0,334715
5,339167	0,1	0,342621
5,340833	0,1	0,328366
5,342500	0,1	0,296041
5,344167	0,1	0,305533
5,345833	0,1	0,329816
5,347500	0,1	0,310959
5,349167	0,1	0,320941
5,350833	0,1	0,313369
5,352500	0,1	0,327584
5,354167	0,1	0,302579
5,355833	0,1	0,295164
5,357500	0,1	0,329709
5,359167	0,1	0,339770
5,360833	0,1	0,255726
5,362500	0,1	0,345096
5,364167	0,1	0,288433
5,365833	0,1	0,296891
5,367500	0,1	0,296510
5,369167	0,1	0,326582
5,370833	0,1	0,299068
5,372500	0,1	0,300117
5,374167	0,1	0,328608
5,375833	0,1	0,268223
5,377500	0,1	0,310460
5,379167	0,1	0,254526
5,380833	0,1	0,334978
5,382500	0,1	0,276089
5,384167	0,1	0,298504
5,385833	0,1	0,309243
5,387500	0,1	0,286303
5,389167	0,1	0,282972
5,390833	0,1	0,338722
5,392500	0,1	0,299482
5,394167	0,1	0,274822
5,395833	0,1	0,290964
5,397500	0,1	0,311812
5,399167	0,1	0,258263
5,400833	0,1	0,291505
5,402500	0,1	0,300667
5,404167	0,1	0,264191
5,405833	0,1	0,232956
5,407500	0,1	0,276037
5,409167	0,1	0,257096
5,410833	0,1	0,282769
5,412500	0,1	0,240340
5,414167	0,1	0,329847
5,415833	0,1	0,272251
5,417500	0,1	0,275683
5,419167	0,1	0,269790
5,420833	0,1	0,274431
5,422500	0,1	0,281035
5,424167	0,1	0,239145
5,425833	0,1	0,257276
5,427500	0,1	0,270300
5,429167	0,1	0,214819
5,430833	0,1	0,268292
5,432500	0,1	0,271041
5,434167	0,1	0,224835
5,435833	0,1	0,279220
5,437500	0,1	0,239630
5,439167	0,1	0,259439
5,440833	0,1	0,227186
5,442500	0,1	0,234717
5,444167	0,1	0,262242
5,445833	0,1	0,240011
5,447500	0,1	0,240808
5,449167	0,1	0,251411
5,450833	0,1	0,227927
5,452500	0,1	0,235845
5,454167	0,1	0,244451
5,455833	0,1	0,245391
5,457500	0,1	0,239396
5,459167	0,1	0,219452
5,460833	0,1	0,249473
5,462500	0,1	0,210976
5,464167	0,1	0,234167
5,465833	0,1	0,224051
5,467500	0,1	0,226177
5,469167	0,1	0,231239
5,470833	0,1	0,234881
5,472500	0,1	0,201241
5,474167	0,1	0,203328
5,475833	0,1	0,261358
5,477500	0,1	0,209881
5,479167	0,1	0,177684
5,480833	0,1	0,222915
5,482500	0,1	0,206524
5,484167	0,1	0,250439
5,485833	0,1	0,213780
5,487500	0,1	0,212807
5,489167	0,1	0,199047
5,490833	0,1	0,204037
5,492500	0,1	0,239352
5,494167	0,1	0,222350
5,495833	0,1	0,230849
5,497500	0,1	0,182874
5,499167	0,1	0,223431
5,500833	0,1	0,267395
5,502500	0,1	0,223062
5,504167	0,1	0,209296
5,505833	0,1	0,209228
5,507500	0,1	0,212579
5,509167	0,1	0,253307
5,510833	0,1	0,249065
5,512500	0,1	0,232173
5,514167	0,1	0,229206
5,515833	0,1	0,178621
5,517500	0,1	0,135923
5,519167	0,1	0,224672
5,520833	0,1	0,229371
5,522500	0,1	0,229886
5,524167	0,1	0,201435
5,525833	0,1	0,173880
5,527500	0,1	0,187921
5,529167	0,1	0,167175
5,530833	0,1	0,208893
5,532500	0,1	0,172755
5,534167	0,1	0,187020
5,535833	0,1	0,226009
5,537500	0,1	0,185938
5,539167	0,1	0,189986
5,540833	0,1	0,195272
5,542500	0,1	0,225011
5,544167	0,1	0,144792
5,545833	0,1	0,226738
5,547500	0,1	0,193251
5,549167	0,1	0,197945
5,550833	0,1	0,190922
5,552500	0,1	0,174910
5,554167	0,1	0,177225
5,555833	0,1	0,223588
5,557500	0,1	0,177431
5,559167	0,1	0,181575
5,560833	0,1	0,240441
5,562500	0,1	0,216611
5,564167	0,1	0,179940
5,565833	0,1	0,208673
5,567500	0,1	0,156387
5,569167	0,1	0,192107
5,570833	0,1	0,212831
5,572500	0,1	0,182549
5,574167	0,1	0,208933
5,575833	0,1	0,152069
5,577500	0,1	0,174349
5,579167	0,1	0,185373
5,580833	0,1	0,166820
5,582500	0,1	0,202546
5,584167	0,1	0,186121
5,585833	0,1	0,214244
5,587500	0,1	0,209131
5,589167	0,1	0,195050
5,590833	0,1	0,172749
5,592500	0,1	0,200164
5,594167	0,1	0,165439
5,595833	0,1	0,168167
5,597500	0,1	0,221592
5,599167	0,1	0,193120
5,600833	0,1	0,220110
5,602500	0,1	0,188673
5,604167	0,1	0,199747
5,605833	0,1	0,195754
5,607500	0,1	0,204486
5,609167	0,1	0,143821
5,610833	0,1	0,218395
5,612500	0,1	0,210165
5,614167	0,1	0,221244
5,615833	0,1	0,213579
5,617500	0,1	0,189604
5,619167	0,1	0,185088
5,620833	0,1	0,190401
5,622500	0,1	0,191341
5,624167	0,1	0,175682
5,625833	0,1	0,172906
5,627500	0,1	0,198458
5,629167	0,1	0,183384
5,630833	0,1	0,173941
5,632500	0,1	0,181865
5,634167	0,1	0,195814
5,635833	0,1	0,205678
5,637500	0,1	0,218630
5,639167	0,1	0,197371
5,640833	0,1	0,180773
5,642500	0,1	0,173619
5,644167	0,1	0,222233
5,645833	0,1	0,188027
5,647500	0,1	0,207771
5,649167	0,1	0,183868
5,650833	0,1	0,176807
5,652500	0,1	0,177741
5,654167	0,1	0,170073
5,655833	0,1	0,198133
5,657500	0,1	0,160507
5,659167	0,1	0,184081
5,660833	0,1	0,173068
5,662500	0,1	0,164660
5,664167	0,1	0,180151
5,665833	0,1	0,197977
5,667500	0,1	0,224399
5,669167	0,1	0,172597
5,670833	0,1	0,189886
5,672500	0,1	0,219789
5,674167	0,1	0,194181
5,675833	0,1	0,196494
5,677500	0,1	0,202262
5,679167	0,1	0,211706
5,680833	0,1	0,189283
5,682500	0,1	0,174071
5,684167	0,1	0,206253
5,685833	0,1	0,211642
5,687500	0,1	0,229007
5,689167	0,1	0,181393
5,690833	0,1	0,230839
5,692500	0,1	0,206975
5,694167	0,1	0,229460
5,695833	0,1	0,196085
5,697500	0,1	0,194338
5,699167	0,1	0,204677
5,700833	0,1	0,217701
5,702500	0,1	0,167117
5,704167	0,1	0,212951
5,705833	0,1	0,175493
5,707500	0,1	0,192626
5,709167	0,1	0,199204
5,710833	0,1	0,171110
5,712500	0,1	0,201226
5,714167	0,1	0,205647
5,715833	0,1	0,207325
5,717500	0,1	0,163281
5,719167	0,1	0,212954
5,720833	0,1	0,178394
5,722500	0,1	0,195558
5,724167	0,1	0,211639
5,725833	0,1	0,209293
5,727500	0,1	0,174462
5,729167	0,1	0,224102
5,730833	0,1	0,216190
5,732500	0,1	0,207778
5,734167	0,1	0,210707
5,735833	0,1	0,234908
5,737500	0,1	0,215260
5,739167	0,1	0,236421
5,740833	0,1	0,175595
5,742500	0,1	0,200359
5,744167	0,1	0,229009
5,745833	0,1	0,219056
5,747500	0,1	0,218604
5,749167	0,1	0,255301
5,750833	0,1	0,238590
5,752500	0,1	0,181331
5,754167	0,1	0,190274
5,755833	0,1	0,252976
5,757500	0,1	0,209623
5,759167	0,1	0,233034
5,760833	0,1	0,222957
5,762500	0,1	0,188383
5,764167	0,1	0,223976
5,765833	0,1	0,212935
5,767500	0,1	0,213991
5,769167	0,1	0,209160
5,770833	0,1	0,191699
5,772500	0,1	0,221074
5,774167	0,1	0,165379
5,775833	0,1	0,227808
5,777500	0,1	0,230624
5,779167	0,1	0,202785
5,780833	0,1	0,237772
5,782500	0,1	0,177143
5,784167	0,1	0,232995
5,785833	0,1	0,248707
5,787500	0,1	0,189772
5,789167	0,1	0,207062
5,790833	0,1	0,210901
5,792500	0,1	0,217443
5,794167	0,1	0,201399
5,795833	0,1	0,224979
5,797500	0,1	0,189187
5,799167	0,1	0,172136
5,800833	0,1	0,239729
5,802500	0,1	0,224279
5,804167	0,1	0,208842
5,805833	0,1	0,231584
5,807500	0,1	0,209135
5,809167	0,1	0,227462
5,810833	0,1	0,207039
5,812500	0,1	0,218760
5,814167	0,1	0,197371
5,815833	0,1	0,180194
5,817500	0,1	0,215887
5,819167	0,1	0,166796
5,820833	0,1	0,232899
5,822500	0,1	0,181459
5,824167	0,1	0,236125
5,825833	0,1	0,227055
5,827500	0,1	0,239423
5,829167	0,1	0,204141
5,830833	0,1	0,167146
5,832500	0,1	0,232509
5,834167	0,1	0,185196
5,835833	0,1	0,220079
5,837500	0,1	0,163508
5,839167	0,1	0,136950
5,840833	0,1	0,202859
5,842500	0,1	0,195369
5,844167	0,1	0,180193
5,845833	0,1	0,204223
5,847500	0,1	0,184768
5,849167	0,1	0,181960
5,850833	0,1	0,165852
5,852500	0,1	0,224841
5,854167	0,1	0,182586
5,855833	0,1	0,195461
5,857500	0,1	0,187308
5,859167	0,1	0,186409
5,860833	0,1	0,207126
5,862500	0,1	0,234647
5,864167	0,1	0,198566
5,865833	0,1	0,191728
5,867500	0,1	0,182446
5,869167	0,1	0,177127
5,870833	0,1	0,203157
5,872500	0,1	0,147011
5,874167	0,1	0,180373
5,875833	0,1	0,156379
5,877500	0,1	0,179440
5,879167	0,1	0,194204
5,880833	0,1	0,178645
5,882500	0,1	0,191400
5,884167	0,1	0,202231
5,885833	0,1	0,160379
5,887500	0,1	0,165750
5,889167	0,1	0,164142
5,890833	0,1	0,194039
5,892500	0,1	0,149231
5,894167	0,1	0,176896
5,895833	0,1	0,148036
5,897500	0,1	0,172964
5,899167	0,1	0,188595
5,900833	0,1	0,152870
5,902500	0,1	0,188236
5,904167	0,1	0,198714
5,905833	0,1	0,159058
5,907500	0,1	0,136851
5,909167	0,1	0,155243
5,910833	0,1	0,172354
5,912500	0,1	0,184405
5,914167	0,1	0,170010
5,915833	0,1	0,153512
5,917500	0,1	0,137559
5,919167	0,1	0,187715
5,920833	0,1	0,173424
5,922500	0,1	0,168331
5,924167	0,1	0,139657
5,925833	0,1	0,145449
5,927500	0,1	0,184883
5,929167	0,1	0,170103
5,930833	0,1	0,130251
5,932500	0,1	0,129855
5,934167	0,1	0,157623
5,935833	0,1	0,173126
5,937500	0,1	0,127674
5,939167	0,1	0,160684
5,940833	0,1	0,179797
5,942500	0,1	0,165464
5,944167	0,1	0,152543
5,945833	0,1	0,155984
5,947500	0,1	0,123740
5,949167	0,1	0,197989
5,950833	0,1	0,140855
5,952500	0,1	0,215262
5,954167	0,1	0,130872
5,955833	0,1	0,132720
5,957500	0,1	0,097414
5,959167	0,1	0,170761
5,960833	0,1	0,179958
5,962500	0,1	0,124099
5,964167	0,1	0,150793
5,965833	0,1	0,171191
5,967500	0,1	0,173871
5,969167	0,1	0,138530
5,970833	0,1	0,191164
5,972500	0,1	0,134282
5,974167	0,1	0,157333
5,975833	0,1	0,166489
5,977500	0,1	0,171389
5,979167	0,1	0,173774
5,980833	0,1	0,128319
5,982500	0,1	0,088298
5,984167	0,1	0,155712
5,985833	0,1	0,166973
5,987500	0,1	0,144875
5,989167	0,1	0,154213
5,990833	0,1	0,127185
5,992500	0,1	0,131495
5,994167	0,1	0,118031
5,995833	0,1	0,160135
5,997500	0,1	0,157276
5,999167	0,1	0,137851
6,000833	0,1	0,117486
