File Path	chrom://chromeleon01/ikbm_chromeleon/2022/Rezex/Esteban/220612_chitin_4_7.seq/513.smp/UV_VIS_1.channel/UV_VIS_1.chm
Channel	UV_VIS_1

Injection Information:
Data Vault	ikbm_chromeleon
Injection	Sc10D_24h-NT_1
Injection Number	33
Position	RD5
Comment	
Processing Method	New ProcMethod
Instrument Method	Short_Rezex_6min_194nm
Type	Unknown
Status	Finished
Injection Date	12.06.2022
Injection Time	20:41:33
Injection Volume (µl)	8,000
Dilution Factor	1,0000
Weight	1,0000

Chromatogram Data Information:
Time Min. (min)	0,000833
Time Max. (min)	6,000833
Data Points	3601
Detector	UV
Generating Data System	Chromeleon 7.2.9.11323
Exporting Data System	Chromeleon 7.2.9.0
Operator	Instrument Controller
Signal Quantity	Absorbance
Signal Unit	mAU
Signal Min.	-0,023778
Signal Max.	896,992621
Channel	UV_VIS_1
Driver Name	VWD3000.dll
Channel Type	Evaluation
Min. Step (s)	0,1
Max. Step (s)	0,1
Average Step (s)	0,1

Signal Parameter Information:
Signal Info	WVL:194 nm

Chromatogram Data:
Time (min)	Step (s)	Value (mAU)
0,000833	n.a.	0,035134
0,002500	0,1	0,036839
0,004167	0,1	0,002028
0,005833	0,1	0,040299
0,007500	0,1	-0,000254
0,009167	0,1	0,051078
0,010833	0,1	0,054497
0,012500	0,1	0,035743
0,014167	0,1	0,007990
0,015833	0,1	0,055111
0,017500	0,1	0,039376
0,019167	0,1	0,031294
0,020833	0,1	0,037127
0,022500	0,1	0,039477
0,024167	0,1	0,069222
0,025833	0,1	0,011174
0,027500	0,1	0,017287
0,029167	0,1	0,015068
0,030833	0,1	0,054031
0,032500	0,1	0,039064
0,034167	0,1	0,017275
0,035833	0,1	-0,018930
0,037500	0,1	-0,015764
0,039167	0,1	-0,023778
0,040833	0,1	-0,004923
0,042500	0,1	-0,013576
0,044167	0,1	-0,017361
0,045833	0,1	0,007312
0,047500	0,1	0,028751
0,049167	0,1	0,018455
0,050833	0,1	0,006054
0,052500	0,1	-0,010688
0,054167	0,1	0,003304
0,055833	0,1	0,019342
0,057500	0,1	0,035609
0,059167	0,1	0,070446
0,060833	0,1	0,008537
0,062500	0,1	0,042273
0,064167	0,1	0,005416
0,065833	0,1	0,034069
0,067500	0,1	0,021116
0,069167	0,1	0,030042
0,070833	0,1	0,038352
0,072500	0,1	0,065171
0,074167	0,1	0,047313
0,075833	0,1	0,054329
0,077500	0,1	0,033562
0,079167	0,1	0,037315
0,080833	0,1	0,033869
0,082500	0,1	0,094415
0,084167	0,1	0,030828
0,085833	0,1	0,030898
0,087500	0,1	0,037606
0,089167	0,1	0,071360
0,090833	0,1	0,004736
0,092500	0,1	0,018885
0,094167	0,1	0,022689
0,095833	0,1	-0,002709
0,097500	0,1	0,012320
0,099167	0,1	0,053407
0,100833	0,1	0,027848
0,102500	0,1	0,046765
0,104167	0,1	0,048431
0,105833	0,1	0,043800
0,107500	0,1	0,018521
0,109167	0,1	0,005286
0,110833	0,1	-0,003339
0,112500	0,1	-0,003527
0,114167	0,1	0,042355
0,115833	0,1	0,025395
0,117500	0,1	0,033387
0,119167	0,1	-0,018637
0,120833	0,1	0,006170
0,122500	0,1	-0,015070
0,124167	0,1	-0,011026
0,125833	0,1	0,001102
0,127500	0,1	0,000442
0,129167	0,1	-0,001614
0,130833	0,1	0,027047
0,132500	0,1	0,028507
0,134167	0,1	-0,001775
0,135833	0,1	0,045365
0,137500	0,1	0,031066
0,139167	0,1	0,037087
0,140833	0,1	0,059333
0,142500	0,1	0,004484
0,144167	0,1	0,028044
0,145833	0,1	0,048240
0,147500	0,1	0,044486
0,149167	0,1	0,004792
0,150833	0,1	0,065475
0,152500	0,1	-0,012067
0,154167	0,1	0,034791
0,155833	0,1	0,071836
0,157500	0,1	0,062830
0,159167	0,1	0,052194
0,160833	0,1	0,048515
0,162500	0,1	0,070032
0,164167	0,1	0,059633
0,165833	0,1	0,036263
0,167500	0,1	0,034408
0,169167	0,1	0,048573
0,170833	0,1	0,040393
0,172500	0,1	0,026206
0,174167	0,1	0,070069
0,175833	0,1	0,042580
0,177500	0,1	0,018271
0,179167	0,1	0,045330
0,180833	0,1	0,076056
0,182500	0,1	0,033981
0,184167	0,1	0,029880
0,185833	0,1	0,064233
0,187500	0,1	0,046878
0,189167	0,1	0,035990
0,190833	0,1	0,057733
0,192500	0,1	0,065550
0,194167	0,1	0,017425
0,195833	0,1	0,045993
0,197500	0,1	0,043050
0,199167	0,1	0,028448
0,200833	0,1	0,067702
0,202500	0,1	0,005027
0,204167	0,1	0,061112
0,205833	0,1	0,055248
0,207500	0,1	0,068290
0,209167	0,1	0,046150
0,210833	0,1	0,042469
0,212500	0,1	0,012166
0,214167	0,1	0,038433
0,215833	0,1	0,048741
0,217500	0,1	0,047289
0,219167	0,1	0,067955
0,220833	0,1	0,063558
0,222500	0,1	0,052548
0,224167	0,1	0,057093
0,225833	0,1	0,045214
0,227500	0,1	0,083640
0,229167	0,1	0,033569
0,230833	0,1	0,043359
0,232500	0,1	0,034866
0,234167	0,1	0,088682
0,235833	0,1	0,020837
0,237500	0,1	0,073537
0,239167	0,1	0,067794
0,240833	0,1	0,050368
0,242500	0,1	0,072882
0,244167	0,1	0,047626
0,245833	0,1	0,036861
0,247500	0,1	0,031107
0,249167	0,1	0,047761
0,250833	0,1	0,019020
0,252500	0,1	0,084359
0,254167	0,1	0,026341
0,255833	0,1	0,068137
0,257500	0,1	0,075895
0,259167	0,1	0,082834
0,260833	0,1	0,043641
0,262500	0,1	0,050549
0,264167	0,1	0,036842
0,265833	0,1	0,071216
0,267500	0,1	0,049912
0,269167	0,1	0,043842
0,270833	0,1	0,077031
0,272500	0,1	0,068045
0,274167	0,1	0,042829
0,275833	0,1	0,070573
0,277500	0,1	0,050533
0,279167	0,1	0,052151
0,280833	0,1	0,084763
0,282500	0,1	0,046404
0,284167	0,1	0,028823
0,285833	0,1	0,055300
0,287500	0,1	0,033789
0,289167	0,1	0,009651
0,290833	0,1	0,051372
0,292500	0,1	0,055578
0,294167	0,1	0,041787
0,295833	0,1	0,059045
0,297500	0,1	0,064634
0,299167	0,1	0,077787
0,300833	0,1	0,069583
0,302500	0,1	0,073218
0,304167	0,1	0,071224
0,305833	0,1	0,029265
0,307500	0,1	0,052435
0,309167	0,1	0,074416
0,310833	0,1	0,050078
0,312500	0,1	0,095227
0,314167	0,1	0,110755
0,315833	0,1	0,074680
0,317500	0,1	0,083249
0,319167	0,1	0,112144
0,320833	0,1	0,087309
0,322500	0,1	0,080512
0,324167	0,1	0,056166
0,325833	0,1	0,067252
0,327500	0,1	0,046400
0,329167	0,1	0,043425
0,330833	0,1	0,068266
0,332500	0,1	0,044386
0,334167	0,1	0,074268
0,335833	0,1	0,093056
0,337500	0,1	0,093994
0,339167	0,1	0,060864
0,340833	0,1	0,082458
0,342500	0,1	0,112725
0,344167	0,1	0,089760
0,345833	0,1	0,067177
0,347500	0,1	0,066465
0,349167	0,1	0,083640
0,350833	0,1	0,065513
0,352500	0,1	0,067442
0,354167	0,1	0,100594
0,355833	0,1	0,086805
0,357500	0,1	0,084956
0,359167	0,1	0,111671
0,360833	0,1	0,073684
0,362500	0,1	0,081608
0,364167	0,1	0,087325
0,365833	0,1	0,059118
0,367500	0,1	0,076287
0,369167	0,1	0,099097
0,370833	0,1	0,116200
0,372500	0,1	0,115456
0,374167	0,1	0,103700
0,375833	0,1	0,059349
0,377500	0,1	0,104290
0,379167	0,1	0,099065
0,380833	0,1	0,107268
0,382500	0,1	0,082675
0,384167	0,1	0,099042
0,385833	0,1	0,076069
0,387500	0,1	0,083773
0,389167	0,1	0,076897
0,390833	0,1	0,101986
0,392500	0,1	0,072332
0,394167	0,1	0,111314
0,395833	0,1	0,059558
0,397500	0,1	0,098911
0,399167	0,1	0,085830
0,400833	0,1	0,096547
0,402500	0,1	0,129807
0,404167	0,1	0,128363
0,405833	0,1	0,094128
0,407500	0,1	0,085933
0,409167	0,1	0,080657
0,410833	0,1	0,112934
0,412500	0,1	0,069466
0,414167	0,1	0,081276
0,415833	0,1	0,073716
0,417500	0,1	0,107036
0,419167	0,1	0,047138
0,420833	0,1	0,093318
0,422500	0,1	0,079081
0,424167	0,1	0,109965
0,425833	0,1	0,146806
0,427500	0,1	0,130463
0,429167	0,1	0,082579
0,430833	0,1	0,100535
0,432500	0,1	0,083922
0,434167	0,1	0,099394
0,435833	0,1	0,091381
0,437500	0,1	0,130262
0,439167	0,1	0,077033
0,440833	0,1	0,108676
0,442500	0,1	0,128233
0,444167	0,1	0,109583
0,445833	0,1	0,082761
0,447500	0,1	0,093035
0,449167	0,1	0,108015
0,450833	0,1	0,097924
0,452500	0,1	0,103923
0,454167	0,1	0,106956
0,455833	0,1	0,129354
0,457500	0,1	0,127176
0,459167	0,1	0,103498
0,460833	0,1	0,119341
0,462500	0,1	0,090262
0,464167	0,1	0,098999
0,465833	0,1	0,083546
0,467500	0,1	0,134981
0,469167	0,1	0,124790
0,470833	0,1	0,113526
0,472500	0,1	0,116413
0,474167	0,1	0,087521
0,475833	0,1	0,144140
0,477500	0,1	0,164926
0,479167	0,1	0,104503
0,480833	0,1	0,123268
0,482500	0,1	0,088331
0,484167	0,1	0,120476
0,485833	0,1	0,118016
0,487500	0,1	0,107917
0,489167	0,1	0,132176
0,490833	0,1	0,097805
0,492500	0,1	0,156935
0,494167	0,1	0,098455
0,495833	0,1	0,118923
0,497500	0,1	0,098925
0,499167	0,1	0,109036
0,500833	0,1	0,087788
0,502500	0,1	0,087595
0,504167	0,1	0,106166
0,505833	0,1	0,124573
0,507500	0,1	0,151311
0,509167	0,1	0,117442
0,510833	0,1	0,137996
0,512500	0,1	0,099881
0,514167	0,1	0,130288
0,515833	0,1	0,118846
0,517500	0,1	0,121708
0,519167	0,1	0,152709
0,520833	0,1	0,150863
0,522500	0,1	0,157954
0,524167	0,1	0,153424
0,525833	0,1	0,136779
0,527500	0,1	0,152687
0,529167	0,1	0,123632
0,530833	0,1	0,086855
0,532500	0,1	0,158245
0,534167	0,1	0,117941
0,535833	0,1	0,118659
0,537500	0,1	0,184304
0,539167	0,1	0,121001
0,540833	0,1	0,149755
0,542500	0,1	0,108363
0,544167	0,1	0,118344
0,545833	0,1	0,126303
0,547500	0,1	0,132658
0,549167	0,1	0,107715
0,550833	0,1	0,153161
0,552500	0,1	0,098540
0,554167	0,1	0,134608
0,555833	0,1	0,115029
0,557500	0,1	0,157190
0,559167	0,1	0,126250
0,560833	0,1	0,139537
0,562500	0,1	0,130110
0,564167	0,1	0,170060
0,565833	0,1	0,141936
0,567500	0,1	0,165280
0,569167	0,1	0,151683
0,570833	0,1	0,135139
0,572500	0,1	0,149507
0,574167	0,1	0,125336
0,575833	0,1	0,144274
0,577500	0,1	0,189944
0,579167	0,1	0,132760
0,580833	0,1	0,170682
0,582500	0,1	0,149978
0,584167	0,1	0,149722
0,585833	0,1	0,199833
0,587500	0,1	0,159686
0,589167	0,1	0,152175
0,590833	0,1	0,129657
0,592500	0,1	0,172840
0,594167	0,1	0,121808
0,595833	0,1	0,158606
0,597500	0,1	0,151515
0,599167	0,1	0,187306
0,600833	0,1	0,194108
0,602500	0,1	0,130914
0,604167	0,1	0,182856
0,605833	0,1	0,161526
0,607500	0,1	0,175550
0,609167	0,1	0,158038
0,610833	0,1	0,174112
0,612500	0,1	0,177233
0,614167	0,1	0,147884
0,615833	0,1	0,164245
0,617500	0,1	0,178519
0,619167	0,1	0,183220
0,620833	0,1	0,137079
0,622500	0,1	0,186948
0,624167	0,1	0,188437
0,625833	0,1	0,148405
0,627500	0,1	0,157727
0,629167	0,1	0,137487
0,630833	0,1	0,183665
0,632500	0,1	0,196205
0,634167	0,1	0,203317
0,635833	0,1	0,181293
0,637500	0,1	0,154781
0,639167	0,1	0,140606
0,640833	0,1	0,195488
0,642500	0,1	0,203091
0,644167	0,1	0,172960
0,645833	0,1	0,194005
0,647500	0,1	0,196105
0,649167	0,1	0,209051
0,650833	0,1	0,231864
0,652500	0,1	0,219239
0,654167	0,1	0,219781
0,655833	0,1	0,195593
0,657500	0,1	0,222554
0,659167	0,1	0,185125
0,660833	0,1	0,189625
0,662500	0,1	0,183411
0,664167	0,1	0,207507
0,665833	0,1	0,208157
0,667500	0,1	0,190730
0,669167	0,1	0,203757
0,670833	0,1	0,201968
0,672500	0,1	0,224361
0,674167	0,1	0,182612
0,675833	0,1	0,178509
0,677500	0,1	0,214365
0,679167	0,1	0,224641
0,680833	0,1	0,247165
0,682500	0,1	0,265813
0,684167	0,1	0,221219
0,685833	0,1	0,234976
0,687500	0,1	0,244805
0,689167	0,1	0,210908
0,690833	0,1	0,226991
0,692500	0,1	0,229090
0,694167	0,1	0,246901
0,695833	0,1	0,266559
0,697500	0,1	0,244345
0,699167	0,1	0,232378
0,700833	0,1	0,238528
0,702500	0,1	0,265131
0,704167	0,1	0,245253
0,705833	0,1	0,269752
0,707500	0,1	0,267044
0,709167	0,1	0,276716
0,710833	0,1	0,242819
0,712500	0,1	0,271712
0,714167	0,1	0,260049
0,715833	0,1	0,239985
0,717500	0,1	0,263009
0,719167	0,1	0,243625
0,720833	0,1	0,286691
0,722500	0,1	0,282382
0,724167	0,1	0,272908
0,725833	0,1	0,299094
0,727500	0,1	0,294336
0,729167	0,1	0,264184
0,730833	0,1	0,272614
0,732500	0,1	0,280129
0,734167	0,1	0,296427
0,735833	0,1	0,258185
0,737500	0,1	0,252970
0,739167	0,1	0,267029
0,740833	0,1	0,286760
0,742500	0,1	0,290722
0,744167	0,1	0,310631
0,745833	0,1	0,267634
0,747500	0,1	0,313139
0,749167	0,1	0,280293
0,750833	0,1	0,356734
0,752500	0,1	0,330201
0,754167	0,1	0,298073
0,755833	0,1	0,340758
0,757500	0,1	0,334318
0,759167	0,1	0,351777
0,760833	0,1	0,324982
0,762500	0,1	0,330067
0,764167	0,1	0,321756
0,765833	0,1	0,357701
0,767500	0,1	0,326373
0,769167	0,1	0,328198
0,770833	0,1	0,358743
0,772500	0,1	0,350501
0,774167	0,1	0,362416
0,775833	0,1	0,351884
0,777500	0,1	0,334938
0,779167	0,1	0,336711
0,780833	0,1	0,347211
0,782500	0,1	0,349948
0,784167	0,1	0,339703
0,785833	0,1	0,319608
0,787500	0,1	0,317916
0,789167	0,1	0,390569
0,790833	0,1	0,323059
0,792500	0,1	0,310902
0,794167	0,1	0,306453
0,795833	0,1	0,307613
0,797500	0,1	0,321297
0,799167	0,1	0,310474
0,800833	0,1	0,371561
0,802500	0,1	0,342547
0,804167	0,1	0,358746
0,805833	0,1	0,349921
0,807500	0,1	0,345955
0,809167	0,1	0,306687
0,810833	0,1	0,381673
0,812500	0,1	0,343258
0,814167	0,1	0,336352
0,815833	0,1	0,314606
0,817500	0,1	0,345692
0,819167	0,1	0,354039
0,820833	0,1	0,343540
0,822500	0,1	0,372986
0,824167	0,1	0,347602
0,825833	0,1	0,290219
0,827500	0,1	0,398523
0,829167	0,1	0,373737
0,830833	0,1	0,367832
0,832500	0,1	0,387103
0,834167	0,1	0,348512
0,835833	0,1	0,309683
0,837500	0,1	0,362181
0,839167	0,1	0,383811
0,840833	0,1	0,357568
0,842500	0,1	0,355813
0,844167	0,1	0,377082
0,845833	0,1	0,381237
0,847500	0,1	0,331369
0,849167	0,1	0,332611
0,850833	0,1	0,372177
0,852500	0,1	0,349508
0,854167	0,1	0,370665
0,855833	0,1	0,368673
0,857500	0,1	0,406499
0,859167	0,1	0,410214
0,860833	0,1	0,348319
0,862500	0,1	0,374822
0,864167	0,1	0,403215
0,865833	0,1	0,424483
0,867500	0,1	0,350064
0,869167	0,1	0,413259
0,870833	0,1	0,406441
0,872500	0,1	0,410922
0,874167	0,1	0,422911
0,875833	0,1	0,426909
0,877500	0,1	0,400841
0,879167	0,1	0,397324
0,880833	0,1	0,416108
0,882500	0,1	0,387690
0,884167	0,1	0,386075
0,885833	0,1	0,393222
0,887500	0,1	0,406472
0,889167	0,1	0,397001
0,890833	0,1	0,464088
0,892500	0,1	0,465166
0,894167	0,1	0,404648
0,895833	0,1	0,425512
0,897500	0,1	0,397006
0,899167	0,1	0,453132
0,900833	0,1	0,410737
0,902500	0,1	0,436733
0,904167	0,1	0,436191
0,905833	0,1	0,482335
0,907500	0,1	0,475998
0,909167	0,1	0,444514
0,910833	0,1	0,447761
0,912500	0,1	0,436995
0,914167	0,1	0,480467
0,915833	0,1	0,424469
0,917500	0,1	0,462255
0,919167	0,1	0,471416
0,920833	0,1	0,499554
0,922500	0,1	0,471975
0,924167	0,1	0,498651
0,925833	0,1	0,471329
0,927500	0,1	0,498458
0,929167	0,1	0,498882
0,930833	0,1	0,500720
0,932500	0,1	0,504168
0,934167	0,1	0,505909
0,935833	0,1	0,573914
0,937500	0,1	0,513372
0,939167	0,1	0,547035
0,940833	0,1	0,509980
0,942500	0,1	0,488347
0,944167	0,1	0,546192
0,945833	0,1	0,538246
0,947500	0,1	0,546044
0,949167	0,1	0,541082
0,950833	0,1	0,531121
0,952500	0,1	0,510428
0,954167	0,1	0,565248
0,955833	0,1	0,572385
0,957500	0,1	0,580411
0,959167	0,1	0,593563
0,960833	0,1	0,563623
0,962500	0,1	0,563713
0,964167	0,1	0,587984
0,965833	0,1	0,609037
0,967500	0,1	0,591704
0,969167	0,1	0,611585
0,970833	0,1	0,630481
0,972500	0,1	0,642156
0,974167	0,1	0,593549
0,975833	0,1	0,625384
0,977500	0,1	0,632419
0,979167	0,1	0,603119
0,980833	0,1	0,623418
0,982500	0,1	0,632099
0,984167	0,1	0,642281
0,985833	0,1	0,677876
0,987500	0,1	0,677922
0,989167	0,1	0,678595
0,990833	0,1	0,730866
0,992500	0,1	0,668777
0,994167	0,1	0,734049
0,995833	0,1	0,704336
0,997500	0,1	0,677637
0,999167	0,1	0,701106
1,000833	0,1	0,715617
1,002500	0,1	0,725041
1,004167	0,1	0,706053
1,005833	0,1	0,776465
1,007500	0,1	0,770769
1,009167	0,1	0,813377
1,010833	0,1	0,761013
1,012500	0,1	0,829854
1,014167	0,1	0,804649
1,015833	0,1	0,841857
1,017500	0,1	0,817815
1,019167	0,1	0,866901
1,020833	0,1	0,876523
1,022500	0,1	0,874038
1,024167	0,1	0,893480
1,025833	0,1	0,902940
1,027500	0,1	0,909973
1,029167	0,1	0,951579
1,030833	0,1	0,955834
1,032500	0,1	0,945113
1,034167	0,1	0,955724
1,035833	0,1	0,980155
1,037500	0,1	0,969903
1,039167	0,1	0,962471
1,040833	0,1	0,993086
1,042500	0,1	1,036750
1,044167	0,1	1,026259
1,045833	0,1	1,063130
1,047500	0,1	1,056217
1,049167	0,1	1,034651
1,050833	0,1	1,077508
1,052500	0,1	1,098350
1,054167	0,1	1,094262
1,055833	0,1	1,145379
1,057500	0,1	1,158194
1,059167	0,1	1,231167
1,060833	0,1	1,256720
1,062500	0,1	1,343320
1,064167	0,1	1,417075
1,065833	0,1	1,530954
1,067500	0,1	1,699074
1,069167	0,1	1,879256
1,070833	0,1	2,096104
1,072500	0,1	2,365852
1,074167	0,1	2,690479
1,075833	0,1	3,040517
1,077500	0,1	3,444767
1,079167	0,1	3,966990
1,080833	0,1	4,514273
1,082500	0,1	5,162966
1,084167	0,1	5,875117
1,085833	0,1	6,617721
1,087500	0,1	7,394529
1,089167	0,1	8,266069
1,090833	0,1	9,189946
1,092500	0,1	10,088184
1,094167	0,1	11,019092
1,095833	0,1	11,951709
1,097500	0,1	12,875334
1,099167	0,1	13,707701
1,100833	0,1	14,581436
1,102500	0,1	15,318506
1,104167	0,1	15,994406
1,105833	0,1	16,564182
1,107500	0,1	17,174450
1,109167	0,1	17,614454
1,110833	0,1	17,970573
1,112500	0,1	18,281707
1,114167	0,1	18,470509
1,115833	0,1	18,649250
1,117500	0,1	18,716010
1,119167	0,1	18,725289
1,120833	0,1	18,742882
1,122500	0,1	18,699901
1,124167	0,1	18,627832
1,125833	0,1	18,528808
1,127500	0,1	18,464200
1,129167	0,1	18,370034
1,130833	0,1	18,290442
1,132500	0,1	18,256757
1,134167	0,1	18,245044
1,135833	0,1	18,237879
1,137500	0,1	18,282904
1,139167	0,1	18,413731
1,140833	0,1	18,594982
1,142500	0,1	18,780854
1,144167	0,1	19,005076
1,145833	0,1	19,331032
1,147500	0,1	19,727683
1,149167	0,1	20,200217
1,150833	0,1	20,705806
1,152500	0,1	21,288174
1,154167	0,1	21,849886
1,155833	0,1	22,553438
1,157500	0,1	23,242106
1,159167	0,1	23,974643
1,160833	0,1	24,757505
1,162500	0,1	25,470526
1,164167	0,1	26,229700
1,165833	0,1	26,999264
1,167500	0,1	27,725158
1,169167	0,1	28,498083
1,170833	0,1	29,197532
1,172500	0,1	29,906101
1,174167	0,1	30,579715
1,175833	0,1	31,184286
1,177500	0,1	31,784691
1,179167	0,1	32,319078
1,180833	0,1	32,819852
1,182500	0,1	33,288342
1,184167	0,1	33,729974
1,185833	0,1	34,106913
1,187500	0,1	34,536222
1,189167	0,1	34,936367
1,190833	0,1	35,345301
1,192500	0,1	35,798010
1,194167	0,1	36,203558
1,195833	0,1	36,761967
1,197500	0,1	37,396696
1,199167	0,1	38,145033
1,200833	0,1	38,995193
1,202500	0,1	40,007307
1,204167	0,1	41,269725
1,205833	0,1	42,631089
1,207500	0,1	44,297339
1,209167	0,1	46,196810
1,210833	0,1	48,345379
1,212500	0,1	50,678607
1,214167	0,1	53,331014
1,215833	0,1	56,254404
1,217500	0,1	59,398717
1,219167	0,1	62,719527
1,220833	0,1	66,306454
1,222500	0,1	70,013143
1,224167	0,1	73,880874
1,225833	0,1	77,806043
1,227500	0,1	81,869870
1,229167	0,1	85,894377
1,230833	0,1	89,927637
1,232500	0,1	93,880443
1,234167	0,1	97,759341
1,235833	0,1	101,521914
1,237500	0,1	105,077378
1,239167	0,1	108,443289
1,240833	0,1	111,593648
1,242500	0,1	114,515186
1,244167	0,1	117,148910
1,245833	0,1	119,540384
1,247500	0,1	121,596496
1,249167	0,1	123,395261
1,250833	0,1	124,898372
1,252500	0,1	126,135444
1,254167	0,1	127,059388
1,255833	0,1	127,693960
1,257500	0,1	128,042841
1,259167	0,1	128,100462
1,260833	0,1	127,895470
1,262500	0,1	127,482269
1,264167	0,1	126,796616
1,265833	0,1	125,804742
1,267500	0,1	124,647916
1,269167	0,1	123,222527
1,270833	0,1	121,647390
1,272500	0,1	119,898559
1,274167	0,1	117,942860
1,275833	0,1	115,854996
1,277500	0,1	113,663031
1,279167	0,1	111,353856
1,280833	0,1	108,984667
1,282500	0,1	106,461259
1,284167	0,1	103,909251
1,285833	0,1	101,347055
1,287500	0,1	98,748198
1,289167	0,1	96,107535
1,290833	0,1	93,472280
1,292500	0,1	90,889414
1,294167	0,1	88,337820
1,295833	0,1	85,795880
1,297500	0,1	83,310735
1,299167	0,1	80,854961
1,300833	0,1	78,483687
1,302500	0,1	76,134436
1,304167	0,1	73,920148
1,305833	0,1	71,780063
1,307500	0,1	69,720426
1,309167	0,1	67,726598
1,310833	0,1	65,791596
1,312500	0,1	63,965493
1,314167	0,1	62,177432
1,315833	0,1	60,503176
1,317500	0,1	58,874622
1,319167	0,1	57,296620
1,320833	0,1	55,857481
1,322500	0,1	54,429887
1,324167	0,1	53,131359
1,325833	0,1	51,805127
1,327500	0,1	50,571563
1,329167	0,1	49,400845
1,330833	0,1	48,308865
1,332500	0,1	47,187399
1,334167	0,1	46,092412
1,335833	0,1	45,121582
1,337500	0,1	44,145569
1,339167	0,1	43,231361
1,340833	0,1	42,291469
1,342500	0,1	41,445321
1,344167	0,1	40,577226
1,345833	0,1	39,779422
1,347500	0,1	38,928207
1,349167	0,1	38,187579
1,350833	0,1	37,448020
1,352500	0,1	36,719068
1,354167	0,1	35,997872
1,355833	0,1	35,332836
1,357500	0,1	34,596027
1,359167	0,1	33,917203
1,360833	0,1	33,313173
1,362500	0,1	32,612345
1,364167	0,1	32,023902
1,365833	0,1	31,407990
1,367500	0,1	30,845284
1,369167	0,1	30,232827
1,370833	0,1	29,609136
1,372500	0,1	29,086902
1,374167	0,1	28,546235
1,375833	0,1	28,004621
1,377500	0,1	27,496000
1,379167	0,1	26,967937
1,380833	0,1	26,481009
1,382500	0,1	26,022910
1,384167	0,1	25,512721
1,385833	0,1	25,043853
1,387500	0,1	24,675185
1,389167	0,1	24,176769
1,390833	0,1	23,778724
1,392500	0,1	23,394654
1,394167	0,1	23,006375
1,395833	0,1	22,647730
1,397500	0,1	22,262370
1,399167	0,1	21,991954
1,400833	0,1	21,651730
1,402500	0,1	21,304828
1,404167	0,1	21,049025
1,405833	0,1	20,737226
1,407500	0,1	20,480665
1,409167	0,1	20,235483
1,410833	0,1	20,001324
1,412500	0,1	19,705653
1,414167	0,1	19,532504
1,415833	0,1	19,349813
1,417500	0,1	19,116217
1,419167	0,1	18,937202
1,420833	0,1	18,767313
1,422500	0,1	18,573246
1,424167	0,1	18,426447
1,425833	0,1	18,258432
1,427500	0,1	18,101304
1,429167	0,1	17,938099
1,430833	0,1	17,819372
1,432500	0,1	17,670181
1,434167	0,1	17,540671
1,435833	0,1	17,382787
1,437500	0,1	17,253421
1,439167	0,1	17,091445
1,440833	0,1	17,011724
1,442500	0,1	16,901767
1,444167	0,1	16,764810
1,445833	0,1	16,642491
1,447500	0,1	16,556318
1,449167	0,1	16,441000
1,450833	0,1	16,277852
1,452500	0,1	16,235434
1,454167	0,1	16,048612
1,455833	0,1	16,001401
1,457500	0,1	15,860733
1,459167	0,1	15,790588
1,460833	0,1	15,667877
1,462500	0,1	15,576814
1,464167	0,1	15,452689
1,465833	0,1	15,356196
1,467500	0,1	15,282821
1,469167	0,1	15,178000
1,470833	0,1	15,079823
1,472500	0,1	14,965840
1,474167	0,1	14,915200
1,475833	0,1	14,801623
1,477500	0,1	14,665188
1,479167	0,1	14,613920
1,480833	0,1	14,577391
1,482500	0,1	14,468857
1,484167	0,1	14,435707
1,485833	0,1	14,313505
1,487500	0,1	14,226969
1,489167	0,1	14,178925
1,490833	0,1	14,107871
1,492500	0,1	14,015995
1,494167	0,1	13,971300
1,495833	0,1	13,884015
1,497500	0,1	13,864259
1,499167	0,1	13,758688
1,500833	0,1	13,701785
1,502500	0,1	13,679284
1,504167	0,1	13,601695
1,505833	0,1	13,566495
1,507500	0,1	13,485604
1,509167	0,1	13,388367
1,510833	0,1	13,308974
1,512500	0,1	13,306149
1,514167	0,1	13,213588
1,515833	0,1	13,167083
1,517500	0,1	13,063316
1,519167	0,1	13,027224
1,520833	0,1	12,973150
1,522500	0,1	12,878563
1,524167	0,1	12,831064
1,525833	0,1	12,795335
1,527500	0,1	12,672654
1,529167	0,1	12,647198
1,530833	0,1	12,530330
1,532500	0,1	12,481979
1,534167	0,1	12,418351
1,535833	0,1	12,327123
1,537500	0,1	12,246883
1,539167	0,1	12,179479
1,540833	0,1	12,095692
1,542500	0,1	11,995489
1,544167	0,1	11,927846
1,545833	0,1	11,826596
1,547500	0,1	11,751835
1,549167	0,1	11,695897
1,550833	0,1	11,582670
1,552500	0,1	11,475310
1,554167	0,1	11,437196
1,555833	0,1	11,303273
1,557500	0,1	11,251542
1,559167	0,1	11,110979
1,560833	0,1	11,050183
1,562500	0,1	10,956846
1,564167	0,1	10,897219
1,565833	0,1	10,773729
1,567500	0,1	10,696317
1,569167	0,1	10,601843
1,570833	0,1	10,519252
1,572500	0,1	10,394696
1,574167	0,1	10,332185
1,575833	0,1	10,203405
1,577500	0,1	10,123938
1,579167	0,1	10,069144
1,580833	0,1	9,941660
1,582500	0,1	9,900285
1,584167	0,1	9,775847
1,585833	0,1	9,699848
1,587500	0,1	9,582501
1,589167	0,1	9,524164
1,590833	0,1	9,398683
1,592500	0,1	9,326152
1,594167	0,1	9,270328
1,595833	0,1	9,192884
1,597500	0,1	9,138849
1,599167	0,1	8,976249
1,600833	0,1	8,986316
1,602500	0,1	8,880715
1,604167	0,1	8,810812
1,605833	0,1	8,779991
1,607500	0,1	8,693103
1,609167	0,1	8,620506
1,610833	0,1	8,567954
1,612500	0,1	8,552585
1,614167	0,1	8,477687
1,615833	0,1	8,491835
1,617500	0,1	8,451381
1,619167	0,1	8,444162
1,620833	0,1	8,432388
1,622500	0,1	8,473363
1,624167	0,1	8,516682
1,625833	0,1	8,533731
1,627500	0,1	8,645323
1,629167	0,1	8,790564
1,630833	0,1	8,872681
1,632500	0,1	9,001408
1,634167	0,1	9,207047
1,635833	0,1	9,447085
1,637500	0,1	9,681547
1,639167	0,1	10,030715
1,640833	0,1	10,368326
1,642500	0,1	10,798954
1,644167	0,1	11,256093
1,645833	0,1	11,772838
1,647500	0,1	12,473017
1,649167	0,1	13,183618
1,650833	0,1	13,981612
1,652500	0,1	14,876709
1,654167	0,1	15,813319
1,655833	0,1	16,996853
1,657500	0,1	18,231483
1,659167	0,1	19,623262
1,660833	0,1	21,169444
1,662500	0,1	22,859728
1,664167	0,1	24,681705
1,665833	0,1	26,681739
1,667500	0,1	28,930613
1,669167	0,1	31,303106
1,670833	0,1	33,882820
1,672500	0,1	36,717972
1,674167	0,1	39,743676
1,675833	0,1	43,059977
1,677500	0,1	46,532018
1,679167	0,1	50,248251
1,680833	0,1	54,290771
1,682500	0,1	58,557706
1,684167	0,1	63,051728
1,685833	0,1	67,830264
1,687500	0,1	72,950967
1,689167	0,1	78,259542
1,690833	0,1	83,882728
1,692500	0,1	89,764711
1,694167	0,1	95,928166
1,695833	0,1	102,321806
1,697500	0,1	109,040637
1,699167	0,1	115,991951
1,700833	0,1	123,177294
1,702500	0,1	130,656538
1,704167	0,1	138,317520
1,705833	0,1	146,193779
1,707500	0,1	154,281257
1,709167	0,1	162,613838
1,710833	0,1	171,098851
1,712500	0,1	179,730722
1,714167	0,1	188,395562
1,715833	0,1	197,417048
1,717500	0,1	206,441089
1,719167	0,1	215,505632
1,720833	0,1	224,655626
1,722500	0,1	233,918934
1,724167	0,1	243,155865
1,725833	0,1	252,400577
1,727500	0,1	261,657301
1,729167	0,1	270,798445
1,730833	0,1	279,974974
1,732500	0,1	288,968323
1,734167	0,1	297,882048
1,735833	0,1	306,686853
1,737500	0,1	315,286540
1,739167	0,1	323,843901
1,740833	0,1	332,048993
1,742500	0,1	340,128380
1,744167	0,1	347,946869
1,745833	0,1	355,547504
1,747500	0,1	362,872777
1,749167	0,1	369,822014
1,750833	0,1	376,601762
1,752500	0,1	383,064431
1,754167	0,1	389,152528
1,755833	0,1	394,926275
1,757500	0,1	400,435799
1,759167	0,1	405,488787
1,760833	0,1	410,194463
1,762500	0,1	414,547304
1,764167	0,1	418,544400
1,765833	0,1	422,215632
1,767500	0,1	425,444056
1,769167	0,1	428,336830
1,770833	0,1	430,857354
1,772500	0,1	432,931170
1,774167	0,1	434,699203
1,775833	0,1	436,088324
1,777500	0,1	437,035723
1,779167	0,1	437,668005
1,780833	0,1	437,738269
1,782500	0,1	437,724841
1,784167	0,1	437,328191
1,785833	0,1	436,531573
1,787500	0,1	435,283613
1,789167	0,1	433,821200
1,790833	0,1	432,027650
1,792500	0,1	429,906769
1,794167	0,1	427,530920
1,795833	0,1	424,858355
1,797500	0,1	421,776098
1,799167	0,1	418,563972
1,800833	0,1	415,017001
1,802500	0,1	411,288436
1,804167	0,1	407,271554
1,805833	0,1	403,037477
1,807500	0,1	398,590407
1,809167	0,1	393,920051
1,810833	0,1	389,131130
1,812500	0,1	384,087400
1,814167	0,1	378,950045
1,815833	0,1	373,586409
1,817500	0,1	368,165854
1,819167	0,1	362,567200
1,820833	0,1	356,911021
1,822500	0,1	351,048609
1,824167	0,1	345,170969
1,825833	0,1	339,220412
1,827500	0,1	333,264985
1,829167	0,1	327,101868
1,830833	0,1	321,003058
1,832500	0,1	314,829044
1,834167	0,1	308,653273
1,835833	0,1	302,516744
1,837500	0,1	296,319092
1,839167	0,1	290,099244
1,840833	0,1	284,014136
1,842500	0,1	277,811723
1,844167	0,1	271,712055
1,845833	0,1	265,688781
1,847500	0,1	259,601456
1,849167	0,1	253,659620
1,850833	0,1	247,775329
1,852500	0,1	241,855581
1,854167	0,1	236,163532
1,855833	0,1	230,466969
1,857500	0,1	224,798563
1,859167	0,1	219,277211
1,860833	0,1	213,858826
1,862500	0,1	208,490924
1,864167	0,1	203,198354
1,865833	0,1	198,017178
1,867500	0,1	192,936053
1,869167	0,1	187,905390
1,870833	0,1	183,051714
1,872500	0,1	178,225300
1,874167	0,1	173,520076
1,875833	0,1	168,942603
1,877500	0,1	164,411957
1,879167	0,1	159,978580
1,880833	0,1	155,696820
1,882500	0,1	151,479848
1,884167	0,1	147,392418
1,885833	0,1	143,317202
1,887500	0,1	139,474729
1,889167	0,1	135,633292
1,890833	0,1	131,899311
1,892500	0,1	128,262998
1,894167	0,1	124,654289
1,895833	0,1	121,250668
1,897500	0,1	117,983185
1,899167	0,1	114,683168
1,900833	0,1	111,487127
1,902500	0,1	108,405211
1,904167	0,1	105,400335
1,905833	0,1	102,492698
1,907500	0,1	99,612508
1,909167	0,1	96,876078
1,910833	0,1	94,222288
1,912500	0,1	91,600802
1,914167	0,1	89,035618
1,915833	0,1	86,581524
1,917500	0,1	84,233477
1,919167	0,1	81,923936
1,920833	0,1	79,660439
1,922500	0,1	77,518619
1,924167	0,1	75,371200
1,925833	0,1	73,316307
1,927500	0,1	71,251319
1,929167	0,1	69,376443
1,930833	0,1	67,504442
1,932500	0,1	65,674336
1,934167	0,1	63,926470
1,935833	0,1	62,146387
1,937500	0,1	60,496079
1,939167	0,1	58,890946
1,940833	0,1	57,312918
1,942500	0,1	55,806937
1,944167	0,1	54,348903
1,945833	0,1	52,942417
1,947500	0,1	51,537750
1,949167	0,1	50,186616
1,950833	0,1	48,918718
1,952500	0,1	47,641953
1,954167	0,1	46,435826
1,955833	0,1	45,273295
1,957500	0,1	44,069041
1,959167	0,1	43,084135
1,960833	0,1	41,947650
1,962500	0,1	40,909604
1,964167	0,1	39,913141
1,965833	0,1	38,953068
1,967500	0,1	38,052592
1,969167	0,1	37,153101
1,970833	0,1	36,265478
1,972500	0,1	35,405976
1,974167	0,1	34,583763
1,975833	0,1	33,787782
1,977500	0,1	33,042269
1,979167	0,1	32,289260
1,980833	0,1	31,568303
1,982500	0,1	30,891195
1,984167	0,1	30,234104
1,985833	0,1	29,644829
1,987500	0,1	29,021125
1,989167	0,1	28,412800
1,990833	0,1	27,848165
1,992500	0,1	27,265623
1,994167	0,1	26,755697
1,995833	0,1	26,227775
1,997500	0,1	25,746920
1,999167	0,1	25,243589
2,000833	0,1	24,805853
2,002500	0,1	24,345827
2,004167	0,1	23,959426
2,005833	0,1	23,519058
2,007500	0,1	23,172561
2,009167	0,1	22,776888
2,010833	0,1	22,407284
2,012500	0,1	22,079985
2,014167	0,1	21,692130
2,015833	0,1	21,391115
2,017500	0,1	21,094223
2,019167	0,1	20,754740
2,020833	0,1	20,517427
2,022500	0,1	20,193770
2,024167	0,1	19,933841
2,025833	0,1	19,687406
2,027500	0,1	19,434007
2,029167	0,1	19,168680
2,030833	0,1	18,916879
2,032500	0,1	18,706580
2,034167	0,1	18,550705
2,035833	0,1	18,279505
2,037500	0,1	18,132669
2,039167	0,1	17,961734
2,040833	0,1	17,756803
2,042500	0,1	17,519562
2,044167	0,1	17,401158
2,045833	0,1	17,251556
2,047500	0,1	17,067074
2,049167	0,1	16,918123
2,050833	0,1	16,763785
2,052500	0,1	16,631383
2,054167	0,1	16,454406
2,055833	0,1	16,363550
2,057500	0,1	16,233847
2,059167	0,1	16,108592
2,060833	0,1	16,010623
2,062500	0,1	15,870747
2,064167	0,1	15,750535
2,065833	0,1	15,669603
2,067500	0,1	15,491939
2,069167	0,1	15,426253
2,070833	0,1	15,380486
2,072500	0,1	15,230946
2,074167	0,1	15,137300
2,075833	0,1	15,012642
2,077500	0,1	14,928926
2,079167	0,1	14,866046
2,080833	0,1	14,746476
2,082500	0,1	14,647067
2,084167	0,1	14,584222
2,085833	0,1	14,488856
2,087500	0,1	14,426849
2,089167	0,1	14,367576
2,090833	0,1	14,236075
2,092500	0,1	14,152069
2,094167	0,1	14,041812
2,095833	0,1	13,978494
2,097500	0,1	13,866881
2,099167	0,1	13,844545
2,100833	0,1	13,776128
2,102500	0,1	13,660427
2,104167	0,1	13,594408
2,105833	0,1	13,523985
2,107500	0,1	13,424155
2,109167	0,1	13,351512
2,110833	0,1	13,296393
2,112500	0,1	13,250984
2,114167	0,1	13,146455
2,115833	0,1	13,038643
2,117500	0,1	12,975746
2,119167	0,1	12,880491
2,120833	0,1	12,851021
2,122500	0,1	12,759599
2,124167	0,1	12,707681
2,125833	0,1	12,656844
2,127500	0,1	12,545914
2,129167	0,1	12,478385
2,130833	0,1	12,404830
2,132500	0,1	12,364085
2,134167	0,1	12,248996
2,135833	0,1	12,202808
2,137500	0,1	12,086741
2,139167	0,1	12,065844
2,140833	0,1	11,943431
2,142500	0,1	11,940879
2,144167	0,1	11,838866
2,145833	0,1	11,743670
2,147500	0,1	11,684495
2,149167	0,1	11,637137
2,150833	0,1	11,522852
2,152500	0,1	11,502011
2,154167	0,1	11,420452
2,155833	0,1	11,356600
2,157500	0,1	11,293872
2,159167	0,1	11,221117
2,160833	0,1	11,142875
2,162500	0,1	11,055138
2,164167	0,1	11,013940
2,165833	0,1	10,968655
2,167500	0,1	10,875273
2,169167	0,1	10,829494
2,170833	0,1	10,745441
2,172500	0,1	10,690705
2,174167	0,1	10,620313
2,175833	0,1	10,608091
2,177500	0,1	10,501114
2,179167	0,1	10,450255
2,180833	0,1	10,402702
2,182500	0,1	10,320930
2,184167	0,1	10,254552
2,185833	0,1	10,199828
2,187500	0,1	10,127091
2,189167	0,1	10,073791
2,190833	0,1	10,075520
2,192500	0,1	9,966632
2,194167	0,1	9,954535
2,195833	0,1	9,920020
2,197500	0,1	9,782012
2,199167	0,1	9,760378
2,200833	0,1	9,711718
2,202500	0,1	9,625209
2,204167	0,1	9,590052
2,205833	0,1	9,535103
2,207500	0,1	9,526575
2,209167	0,1	9,431646
2,210833	0,1	9,411746
2,212500	0,1	9,372993
2,214167	0,1	9,303641
2,215833	0,1	9,286144
2,217500	0,1	9,195279
2,219167	0,1	9,153346
2,220833	0,1	9,081284
2,222500	0,1	9,065539
2,224167	0,1	8,991627
2,225833	0,1	8,979602
2,227500	0,1	8,975259
2,229167	0,1	8,909422
2,230833	0,1	8,915116
2,232500	0,1	8,792349
2,234167	0,1	8,775064
2,235833	0,1	8,733038
2,237500	0,1	8,712819
2,239167	0,1	8,692806
2,240833	0,1	8,642206
2,242500	0,1	8,594480
2,244167	0,1	8,555324
2,245833	0,1	8,500055
2,247500	0,1	8,454821
2,249167	0,1	8,454766
2,250833	0,1	8,387855
2,252500	0,1	8,364388
2,254167	0,1	8,348353
2,255833	0,1	8,322854
2,257500	0,1	8,293436
2,259167	0,1	8,220115
2,260833	0,1	8,199721
2,262500	0,1	8,179458
2,264167	0,1	8,152493
2,265833	0,1	8,103076
2,267500	0,1	8,114788
2,269167	0,1	8,039033
2,270833	0,1	7,981077
2,272500	0,1	7,952016
2,274167	0,1	7,963338
2,275833	0,1	7,916242
2,277500	0,1	7,908558
2,279167	0,1	7,865371
2,280833	0,1	7,856435
2,282500	0,1	7,802695
2,284167	0,1	7,726483
2,285833	0,1	7,724327
2,287500	0,1	7,712399
2,289167	0,1	7,634438
2,290833	0,1	7,661899
2,292500	0,1	7,615320
2,294167	0,1	7,590797
2,295833	0,1	7,600889
2,297500	0,1	7,509376
2,299167	0,1	7,521697
2,300833	0,1	7,514949
2,302500	0,1	7,492973
2,304167	0,1	7,462175
2,305833	0,1	7,489015
2,307500	0,1	7,377252
2,309167	0,1	7,365605
2,310833	0,1	7,396558
2,312500	0,1	7,361592
2,314167	0,1	7,359708
2,315833	0,1	7,366541
2,317500	0,1	7,369996
2,319167	0,1	7,350919
2,320833	0,1	7,327807
2,322500	0,1	7,293654
2,324167	0,1	7,285245
2,325833	0,1	7,308323
2,327500	0,1	7,308243
2,329167	0,1	7,302537
2,330833	0,1	7,282050
2,332500	0,1	7,281305
2,334167	0,1	7,263249
2,335833	0,1	7,297567
2,337500	0,1	7,299925
2,339167	0,1	7,286085
2,340833	0,1	7,339190
2,342500	0,1	7,298809
2,344167	0,1	7,343129
2,345833	0,1	7,331913
2,347500	0,1	7,397764
2,349167	0,1	7,309954
2,350833	0,1	7,369704
2,352500	0,1	7,411997
2,354167	0,1	7,436812
2,355833	0,1	7,465900
2,357500	0,1	7,494367
2,359167	0,1	7,544525
2,360833	0,1	7,503541
2,362500	0,1	7,581869
2,364167	0,1	7,624377
2,365833	0,1	7,677278
2,367500	0,1	7,758457
2,369167	0,1	7,751063
2,370833	0,1	7,799198
2,372500	0,1	7,878554
2,374167	0,1	7,946301
2,375833	0,1	8,007045
2,377500	0,1	8,056291
2,379167	0,1	8,125320
2,380833	0,1	8,202260
2,382500	0,1	8,317926
2,384167	0,1	8,465013
2,385833	0,1	8,493346
2,387500	0,1	8,627783
2,389167	0,1	8,745105
2,390833	0,1	8,875520
2,392500	0,1	8,977164
2,394167	0,1	9,157652
2,395833	0,1	9,337864
2,397500	0,1	9,468791
2,399167	0,1	9,624860
2,400833	0,1	9,790651
2,402500	0,1	10,017398
2,404167	0,1	10,224050
2,405833	0,1	10,428262
2,407500	0,1	10,659837
2,409167	0,1	10,906886
2,410833	0,1	11,147488
2,412500	0,1	11,449996
2,414167	0,1	11,689096
2,415833	0,1	11,992198
2,417500	0,1	12,273025
2,419167	0,1	12,601202
2,420833	0,1	12,968525
2,422500	0,1	13,253384
2,424167	0,1	13,585573
2,425833	0,1	14,011407
2,427500	0,1	14,385160
2,429167	0,1	14,716519
2,430833	0,1	15,173333
2,432500	0,1	15,599391
2,434167	0,1	16,014777
2,435833	0,1	16,429634
2,437500	0,1	16,861640
2,439167	0,1	17,297263
2,440833	0,1	17,787352
2,442500	0,1	18,309456
2,444167	0,1	18,789559
2,445833	0,1	19,302218
2,447500	0,1	19,821595
2,449167	0,1	20,361060
2,450833	0,1	20,950088
2,452500	0,1	21,532393
2,454167	0,1	22,131723
2,455833	0,1	22,838245
2,457500	0,1	23,533570
2,459167	0,1	24,230758
2,460833	0,1	25,030940
2,462500	0,1	25,895006
2,464167	0,1	26,828527
2,465833	0,1	27,777026
2,467500	0,1	28,887514
2,469167	0,1	30,074527
2,470833	0,1	31,353174
2,472500	0,1	32,724985
2,474167	0,1	34,266709
2,475833	0,1	35,959708
2,477500	0,1	37,827075
2,479167	0,1	39,880738
2,480833	0,1	42,155695
2,482500	0,1	44,629069
2,484167	0,1	47,364542
2,485833	0,1	50,360448
2,487500	0,1	53,703676
2,489167	0,1	57,281483
2,490833	0,1	61,270646
2,492500	0,1	65,597360
2,494167	0,1	70,273756
2,495833	0,1	75,375984
2,497500	0,1	80,941995
2,499167	0,1	86,886571
2,500833	0,1	93,442667
2,502500	0,1	100,414806
2,504167	0,1	107,969681
2,505833	0,1	115,990948
2,507500	0,1	124,661942
2,509167	0,1	133,826986
2,510833	0,1	143,606375
2,512500	0,1	154,047641
2,514167	0,1	164,956918
2,515833	0,1	176,565501
2,517500	0,1	188,829283
2,519167	0,1	201,681547
2,520833	0,1	215,072660
2,522500	0,1	229,148449
2,524167	0,1	243,754378
2,525833	0,1	258,894000
2,527500	0,1	274,647073
2,529167	0,1	290,832285
2,530833	0,1	307,504280
2,532500	0,1	324,614507
2,534167	0,1	342,192250
2,535833	0,1	360,060936
2,537500	0,1	378,319196
2,539167	0,1	396,936117
2,540833	0,1	415,570024
2,542500	0,1	434,477513
2,544167	0,1	453,496888
2,545833	0,1	472,652014
2,547500	0,1	491,733738
2,549167	0,1	510,794775
2,550833	0,1	529,865563
2,552500	0,1	548,697801
2,554167	0,1	567,405452
2,555833	0,1	585,699672
2,557500	0,1	603,682239
2,559167	0,1	621,570623
2,560833	0,1	638,799640
2,562500	0,1	655,666630
2,564167	0,1	672,219073
2,565833	0,1	688,241689
2,567500	0,1	703,636294
2,569167	0,1	718,495964
2,570833	0,1	732,812605
2,572500	0,1	746,642033
2,574167	0,1	759,571021
2,575833	0,1	772,290351
2,577500	0,1	784,127515
2,579167	0,1	795,267820
2,580833	0,1	805,821502
2,582500	0,1	815,962782
2,584167	0,1	825,274931
2,585833	0,1	833,929568
2,587500	0,1	842,107319
2,589167	0,1	849,594850
2,590833	0,1	856,375529
2,592500	0,1	862,757815
2,594167	0,1	868,556983
2,595833	0,1	873,790898
2,597500	0,1	878,274334
2,599167	0,1	882,259463
2,600833	0,1	885,921831
2,602500	0,1	888,875225
2,604167	0,1	891,444116
2,605833	0,1	893,439008
2,607500	0,1	895,074567
2,609167	0,1	896,267709
2,610833	0,1	896,896431
2,612500	0,1	896,992621
2,614167	0,1	896,951878
2,615833	0,1	896,372641
2,617500	0,1	895,211887
2,619167	0,1	893,778191
2,620833	0,1	891,933537
2,622500	0,1	889,789382
2,624167	0,1	887,308303
2,625833	0,1	884,180384
2,627500	0,1	880,996159
2,629167	0,1	877,576437
2,630833	0,1	873,698475
2,632500	0,1	869,373782
2,634167	0,1	864,608500
2,635833	0,1	860,186925
2,637500	0,1	854,619934
2,639167	0,1	849,347027
2,640833	0,1	843,504462
2,642500	0,1	837,430990
2,644167	0,1	831,327242
2,645833	0,1	824,626941
2,647500	0,1	817,838741
2,649167	0,1	810,848060
2,650833	0,1	803,583816
2,652500	0,1	795,989606
2,654167	0,1	788,354822
2,655833	0,1	780,323606
2,657500	0,1	772,320135
2,659167	0,1	763,918106
2,660833	0,1	755,391711
2,662500	0,1	746,638394
2,664167	0,1	737,838198
2,665833	0,1	728,935291
2,667500	0,1	719,634494
2,669167	0,1	710,619932
2,670833	0,1	701,171507
2,672500	0,1	691,683397
2,674167	0,1	682,015971
2,675833	0,1	672,482023
2,677500	0,1	662,772536
2,679167	0,1	652,987999
2,680833	0,1	643,127849
2,682500	0,1	633,229737
2,684167	0,1	623,380403
2,685833	0,1	613,539008
2,687500	0,1	603,458014
2,689167	0,1	593,625872
2,690833	0,1	583,616584
2,692500	0,1	573,760516
2,694167	0,1	563,854221
2,695833	0,1	554,149986
2,697500	0,1	544,240191
2,699167	0,1	534,634507
2,700833	0,1	525,019241
2,702500	0,1	515,330580
2,704167	0,1	505,904785
2,705833	0,1	496,505236
2,707500	0,1	487,221685
2,709167	0,1	477,971415
2,710833	0,1	468,809687
2,712500	0,1	459,874432
2,714167	0,1	450,906871
2,715833	0,1	442,219589
2,717500	0,1	433,465267
2,719167	0,1	424,969978
2,720833	0,1	416,734535
2,722500	0,1	408,342612
2,724167	0,1	400,334925
2,725833	0,1	392,328945
2,727500	0,1	384,537404
2,729167	0,1	376,769205
2,730833	0,1	369,288006
2,732500	0,1	361,879383
2,734167	0,1	354,603647
2,735833	0,1	347,436220
2,737500	0,1	340,548342
2,739167	0,1	333,685355
2,740833	0,1	326,932536
2,742500	0,1	320,338679
2,744167	0,1	313,975431
2,745833	0,1	307,658131
2,747500	0,1	301,541412
2,749167	0,1	295,577620
2,750833	0,1	289,647283
2,752500	0,1	283,893066
2,754167	0,1	278,258275
2,755833	0,1	272,719513
2,757500	0,1	267,317155
2,759167	0,1	262,092221
2,760833	0,1	256,906389
2,762500	0,1	251,942137
2,764167	0,1	246,975590
2,765833	0,1	242,128307
2,767500	0,1	237,428720
2,769167	0,1	232,829939
2,770833	0,1	228,392356
2,772500	0,1	223,988312
2,774167	0,1	219,596364
2,775833	0,1	215,405177
2,777500	0,1	211,321015
2,779167	0,1	207,254606
2,780833	0,1	203,336111
2,782500	0,1	199,487471
2,784167	0,1	195,656579
2,785833	0,1	191,902639
2,787500	0,1	188,312188
2,789167	0,1	184,784754
2,790833	0,1	181,243754
2,792500	0,1	177,878206
2,794167	0,1	174,478039
2,795833	0,1	171,281779
2,797500	0,1	168,050665
2,799167	0,1	164,911229
2,800833	0,1	161,790531
2,802500	0,1	158,764534
2,804167	0,1	155,819050
2,805833	0,1	152,900849
2,807500	0,1	150,038382
2,809167	0,1	147,237585
2,810833	0,1	144,534668
2,812500	0,1	141,882955
2,814167	0,1	139,239754
2,815833	0,1	136,650420
2,817500	0,1	134,150830
2,819167	0,1	131,643767
2,820833	0,1	129,255218
2,822500	0,1	126,879316
2,824167	0,1	124,533086
2,825833	0,1	122,271075
2,827500	0,1	120,036345
2,829167	0,1	117,821064
2,830833	0,1	115,720571
2,832500	0,1	113,578973
2,834167	0,1	111,555004
2,835833	0,1	109,529359
2,837500	0,1	107,607484
2,839167	0,1	105,633764
2,840833	0,1	103,787211
2,842500	0,1	101,899141
2,844167	0,1	100,140351
2,845833	0,1	98,327951
2,847500	0,1	96,638995
2,849167	0,1	94,946929
2,850833	0,1	93,308607
2,852500	0,1	91,700899
2,854167	0,1	90,137020
2,855833	0,1	88,594133
2,857500	0,1	87,123947
2,859167	0,1	85,627182
2,860833	0,1	84,197464
2,862500	0,1	82,875670
2,864167	0,1	81,461745
2,865833	0,1	80,123339
2,867500	0,1	78,820296
2,869167	0,1	77,645035
2,870833	0,1	76,330244
2,872500	0,1	75,147841
2,874167	0,1	73,998971
2,875833	0,1	72,901191
2,877500	0,1	71,719060
2,879167	0,1	70,672334
2,880833	0,1	69,626912
2,882500	0,1	68,581710
2,884167	0,1	67,515390
2,885833	0,1	66,563824
2,887500	0,1	65,624487
2,889167	0,1	64,687947
2,890833	0,1	63,738309
2,892500	0,1	62,893444
2,894167	0,1	61,991188
2,895833	0,1	61,181150
2,897500	0,1	60,301960
2,899167	0,1	59,525545
2,900833	0,1	58,769416
2,902500	0,1	58,014837
2,904167	0,1	57,259682
2,905833	0,1	56,545320
2,907500	0,1	55,799837
2,909167	0,1	55,140159
2,910833	0,1	54,412775
2,912500	0,1	53,762662
2,914167	0,1	53,115920
2,915833	0,1	52,501000
2,917500	0,1	51,854146
2,919167	0,1	51,264476
2,920833	0,1	50,702403
2,922500	0,1	50,080275
2,924167	0,1	49,531581
2,925833	0,1	48,945438
2,927500	0,1	48,433178
2,929167	0,1	47,882442
2,930833	0,1	47,380850
2,932500	0,1	46,836550
2,934167	0,1	46,350166
2,935833	0,1	45,834284
2,937500	0,1	45,348623
2,939167	0,1	44,886252
2,940833	0,1	44,478842
2,942500	0,1	43,936869
2,944167	0,1	43,486768
2,945833	0,1	43,041905
2,947500	0,1	42,628747
2,949167	0,1	42,203720
2,950833	0,1	41,761698
2,952500	0,1	41,367375
2,954167	0,1	40,938243
2,955833	0,1	40,510617
2,957500	0,1	40,169267
2,959167	0,1	39,724979
2,960833	0,1	39,338412
2,962500	0,1	38,963018
2,964167	0,1	38,563425
2,965833	0,1	38,222153
2,967500	0,1	37,847049
2,969167	0,1	37,451210
2,970833	0,1	37,143605
2,972500	0,1	36,728103
2,974167	0,1	36,404203
2,975833	0,1	36,047471
2,977500	0,1	35,727346
2,979167	0,1	35,385582
2,980833	0,1	35,038567
2,982500	0,1	34,747553
2,984167	0,1	34,389517
2,985833	0,1	34,092302
2,987500	0,1	33,747906
2,989167	0,1	33,422429
2,990833	0,1	33,118298
2,992500	0,1	32,799268
2,994167	0,1	32,466742
2,995833	0,1	32,156775
2,997500	0,1	31,852055
2,999167	0,1	31,553383
3,000833	0,1	31,283877
3,002500	0,1	31,023127
3,004167	0,1	30,679871
3,005833	0,1	30,393190
3,007500	0,1	30,112192
3,009167	0,1	29,829355
3,010833	0,1	29,561318
3,012500	0,1	29,246781
3,014167	0,1	29,048273
3,015833	0,1	28,754107
3,017500	0,1	28,442016
3,019167	0,1	28,204481
3,020833	0,1	27,935971
3,022500	0,1	27,647087
3,024167	0,1	27,436241
3,025833	0,1	27,137351
3,027500	0,1	26,935846
3,029167	0,1	26,658517
3,030833	0,1	26,429567
3,032500	0,1	26,177757
3,034167	0,1	25,899632
3,035833	0,1	25,661747
3,037500	0,1	25,450127
3,039167	0,1	25,231254
3,040833	0,1	24,946821
3,042500	0,1	24,766658
3,044167	0,1	24,482665
3,045833	0,1	24,267342
3,047500	0,1	24,048888
3,049167	0,1	23,786174
3,050833	0,1	23,581885
3,052500	0,1	23,404207
3,054167	0,1	23,141026
3,055833	0,1	22,889449
3,057500	0,1	22,743092
3,059167	0,1	22,506299
3,060833	0,1	22,308371
3,062500	0,1	22,106827
3,064167	0,1	21,892861
3,065833	0,1	21,720093
3,067500	0,1	21,476010
3,069167	0,1	21,277740
3,070833	0,1	21,112906
3,072500	0,1	20,935147
3,074167	0,1	20,722131
3,075833	0,1	20,555271
3,077500	0,1	20,382783
3,079167	0,1	20,219330
3,080833	0,1	20,030769
3,082500	0,1	19,859162
3,084167	0,1	19,683632
3,085833	0,1	19,485583
3,087500	0,1	19,348718
3,089167	0,1	19,191314
3,090833	0,1	19,015315
3,092500	0,1	18,852714
3,094167	0,1	18,678861
3,095833	0,1	18,571381
3,097500	0,1	18,388657
3,099167	0,1	18,285020
3,100833	0,1	18,141966
3,102500	0,1	17,982634
3,104167	0,1	17,832369
3,105833	0,1	17,676400
3,107500	0,1	17,522574
3,109167	0,1	17,412602
3,110833	0,1	17,285148
3,112500	0,1	17,144078
3,114167	0,1	16,992487
3,115833	0,1	16,892138
3,117500	0,1	16,799787
3,119167	0,1	16,675359
3,120833	0,1	16,555366
3,122500	0,1	16,493546
3,124167	0,1	16,359796
3,125833	0,1	16,239867
3,127500	0,1	16,104978
3,129167	0,1	16,008355
3,130833	0,1	15,886773
3,132500	0,1	15,810622
3,134167	0,1	15,693245
3,135833	0,1	15,667323
3,137500	0,1	15,497823
3,139167	0,1	15,415853
3,140833	0,1	15,300835
3,142500	0,1	15,234808
3,144167	0,1	15,101709
3,145833	0,1	15,039277
3,147500	0,1	14,926508
3,149167	0,1	14,884383
3,150833	0,1	14,753013
3,152500	0,1	14,723418
3,154167	0,1	14,595406
3,155833	0,1	14,526008
3,157500	0,1	14,423345
3,159167	0,1	14,394208
3,160833	0,1	14,287563
3,162500	0,1	14,179563
3,164167	0,1	14,126060
3,165833	0,1	14,036863
3,167500	0,1	13,947514
3,169167	0,1	13,888931
3,170833	0,1	13,794331
3,172500	0,1	13,736719
3,174167	0,1	13,639058
3,175833	0,1	13,582199
3,177500	0,1	13,506467
3,179167	0,1	13,430473
3,180833	0,1	13,323630
3,182500	0,1	13,262371
3,184167	0,1	13,171011
3,185833	0,1	13,092723
3,187500	0,1	13,059825
3,189167	0,1	12,940507
3,190833	0,1	12,869301
3,192500	0,1	12,815993
3,194167	0,1	12,753416
3,195833	0,1	12,707626
3,197500	0,1	12,590157
3,199167	0,1	12,488653
3,200833	0,1	12,424706
3,202500	0,1	12,362612
3,204167	0,1	12,256087
3,205833	0,1	12,228908
3,207500	0,1	12,104115
3,209167	0,1	12,112850
3,210833	0,1	12,016481
3,212500	0,1	11,921789
3,214167	0,1	11,884398
3,215833	0,1	11,790601
3,217500	0,1	11,661287
3,219167	0,1	11,639276
3,220833	0,1	11,577247
3,222500	0,1	11,500499
3,224167	0,1	11,384988
3,225833	0,1	11,314685
3,227500	0,1	11,278392
3,229167	0,1	11,200844
3,230833	0,1	11,128951
3,232500	0,1	11,037629
3,234167	0,1	10,972065
3,235833	0,1	10,889144
3,237500	0,1	10,851217
3,239167	0,1	10,727297
3,240833	0,1	10,695041
3,242500	0,1	10,597333
3,244167	0,1	10,561248
3,245833	0,1	10,482475
3,247500	0,1	10,457231
3,249167	0,1	10,314024
3,250833	0,1	10,274435
3,252500	0,1	10,189561
3,254167	0,1	10,148140
3,255833	0,1	10,087662
3,257500	0,1	10,011385
3,259167	0,1	9,937907
3,260833	0,1	9,874678
3,262500	0,1	9,791454
3,264167	0,1	9,745260
3,265833	0,1	9,641015
3,267500	0,1	9,577170
3,269167	0,1	9,529770
3,270833	0,1	9,445045
3,272500	0,1	9,415383
3,274167	0,1	9,338721
3,275833	0,1	9,264273
3,277500	0,1	9,248334
3,279167	0,1	9,162636
3,280833	0,1	9,098768
3,282500	0,1	9,078412
3,284167	0,1	8,985304
3,285833	0,1	8,927198
3,287500	0,1	8,825684
3,289167	0,1	8,806755
3,290833	0,1	8,773373
3,292500	0,1	8,700349
3,294167	0,1	8,646222
3,295833	0,1	8,571978
3,297500	0,1	8,524330
3,299167	0,1	8,455716
3,300833	0,1	8,418783
3,302500	0,1	8,370360
3,304167	0,1	8,290663
3,305833	0,1	8,250816
3,307500	0,1	8,225693
3,309167	0,1	8,159918
3,310833	0,1	8,071168
3,312500	0,1	8,090757
3,314167	0,1	8,009386
3,315833	0,1	7,978629
3,317500	0,1	7,955740
3,319167	0,1	7,889235
3,320833	0,1	7,868255
3,322500	0,1	7,803936
3,324167	0,1	7,793687
3,325833	0,1	7,680788
3,327500	0,1	7,667550
3,329167	0,1	7,624976
3,330833	0,1	7,580588
3,332500	0,1	7,537522
3,334167	0,1	7,519723
3,335833	0,1	7,463485
3,337500	0,1	7,434756
3,339167	0,1	7,403778
3,340833	0,1	7,362512
3,342500	0,1	7,327799
3,344167	0,1	7,274476
3,345833	0,1	7,267917
3,347500	0,1	7,215837
3,349167	0,1	7,206283
3,350833	0,1	7,202913
3,352500	0,1	7,146346
3,354167	0,1	7,114448
3,355833	0,1	7,040031
3,357500	0,1	6,999165
3,359167	0,1	6,994671
3,360833	0,1	7,026914
3,362500	0,1	6,957761
3,364167	0,1	6,920549
3,365833	0,1	6,879800
3,367500	0,1	6,859139
3,369167	0,1	6,858855
3,370833	0,1	6,803542
3,372500	0,1	6,785035
3,374167	0,1	6,781197
3,375833	0,1	6,734585
3,377500	0,1	6,716738
3,379167	0,1	6,688231
3,380833	0,1	6,636213
3,382500	0,1	6,649091
3,384167	0,1	6,605200
3,385833	0,1	6,564952
3,387500	0,1	6,585662
3,389167	0,1	6,499775
3,390833	0,1	6,506464
3,392500	0,1	6,482757
3,394167	0,1	6,457844
3,395833	0,1	6,479462
3,397500	0,1	6,445230
3,399167	0,1	6,402290
3,400833	0,1	6,414320
3,402500	0,1	6,344237
3,404167	0,1	6,358301
3,405833	0,1	6,335050
3,407500	0,1	6,279821
3,409167	0,1	6,266069
3,410833	0,1	6,256754
3,412500	0,1	6,273755
3,414167	0,1	6,255008
3,415833	0,1	6,204707
3,417500	0,1	6,179945
3,419167	0,1	6,202256
3,420833	0,1	6,152697
3,422500	0,1	6,149791
3,424167	0,1	6,122980
3,425833	0,1	6,118724
3,427500	0,1	6,112757
3,429167	0,1	6,066680
3,430833	0,1	6,010912
3,432500	0,1	6,068540
3,434167	0,1	6,038998
3,435833	0,1	6,029288
3,437500	0,1	6,017179
3,439167	0,1	5,968072
3,440833	0,1	5,955850
3,442500	0,1	5,961708
3,444167	0,1	5,934785
3,445833	0,1	5,964447
3,447500	0,1	5,903920
3,449167	0,1	5,871855
3,450833	0,1	5,897862
3,452500	0,1	5,887832
3,454167	0,1	5,885323
3,455833	0,1	5,843918
3,457500	0,1	5,824859
3,459167	0,1	5,808806
3,460833	0,1	5,806564
3,462500	0,1	5,779669
3,464167	0,1	5,775240
3,465833	0,1	5,750359
3,467500	0,1	5,754832
3,469167	0,1	5,724716
3,470833	0,1	5,748407
3,472500	0,1	5,735805
3,474167	0,1	5,727692
3,475833	0,1	5,716618
3,477500	0,1	5,685782
3,479167	0,1	5,690389
3,480833	0,1	5,680452
3,482500	0,1	5,714513
3,484167	0,1	5,669777
3,485833	0,1	5,672463
3,487500	0,1	5,675619
3,489167	0,1	5,647202
3,490833	0,1	5,619587
3,492500	0,1	5,628995
3,494167	0,1	5,679890
3,495833	0,1	5,630682
3,497500	0,1	5,632299
3,499167	0,1	5,614407
3,500833	0,1	5,625337
3,502500	0,1	5,617950
3,504167	0,1	5,581625
3,505833	0,1	5,610918
3,507500	0,1	5,588862
3,509167	0,1	5,598987
3,510833	0,1	5,590250
3,512500	0,1	5,601551
3,514167	0,1	5,567556
3,515833	0,1	5,588938
3,517500	0,1	5,587333
3,519167	0,1	5,613289
3,520833	0,1	5,545954
3,522500	0,1	5,591345
3,524167	0,1	5,592964
3,525833	0,1	5,608744
3,527500	0,1	5,602731
3,529167	0,1	5,607294
3,530833	0,1	5,615512
3,532500	0,1	5,615688
3,534167	0,1	5,602361
3,535833	0,1	5,582403
3,537500	0,1	5,612310
3,539167	0,1	5,601730
3,540833	0,1	5,629749
3,542500	0,1	5,640125
3,544167	0,1	5,641801
3,545833	0,1	5,615847
3,547500	0,1	5,601144
3,549167	0,1	5,648645
3,550833	0,1	5,674765
3,552500	0,1	5,659225
3,554167	0,1	5,695290
3,555833	0,1	5,670016
3,557500	0,1	5,707492
3,559167	0,1	5,661453
3,560833	0,1	5,639568
3,562500	0,1	5,661805
3,564167	0,1	5,680336
3,565833	0,1	5,686951
3,567500	0,1	5,680294
3,569167	0,1	5,719664
3,570833	0,1	5,725787
3,572500	0,1	5,749469
3,574167	0,1	5,706081
3,575833	0,1	5,734440
3,577500	0,1	5,780978
3,579167	0,1	5,737087
3,580833	0,1	5,772673
3,582500	0,1	5,781586
3,584167	0,1	5,756709
3,585833	0,1	5,763615
3,587500	0,1	5,770385
3,589167	0,1	5,782979
3,590833	0,1	5,813364
3,592500	0,1	5,792423
3,594167	0,1	5,822873
3,595833	0,1	5,811170
3,597500	0,1	5,806865
3,599167	0,1	5,836790
3,600833	0,1	5,833639
3,602500	0,1	5,808015
3,604167	0,1	5,873509
3,605833	0,1	5,838269
3,607500	0,1	5,868771
3,609167	0,1	5,798925
3,610833	0,1	5,838163
3,612500	0,1	5,874272
3,614167	0,1	5,835835
3,615833	0,1	5,824645
3,617500	0,1	5,903597
3,619167	0,1	5,826726
3,620833	0,1	5,845170
3,622500	0,1	5,829357
3,624167	0,1	5,901380
3,625833	0,1	5,870567
3,627500	0,1	5,869182
3,629167	0,1	5,860914
3,630833	0,1	5,877824
3,632500	0,1	5,857724
3,634167	0,1	5,901316
3,635833	0,1	5,897393
3,637500	0,1	5,864023
3,639167	0,1	5,898480
3,640833	0,1	5,851697
3,642500	0,1	5,890469
3,644167	0,1	5,853599
3,645833	0,1	5,853184
3,647500	0,1	5,864841
3,649167	0,1	5,831196
3,650833	0,1	5,845083
3,652500	0,1	5,887343
3,654167	0,1	5,866383
3,655833	0,1	5,835780
3,657500	0,1	5,797701
3,659167	0,1	5,806438
3,660833	0,1	5,844620
3,662500	0,1	5,797419
3,664167	0,1	5,807495
3,665833	0,1	5,780006
3,667500	0,1	5,801090
3,669167	0,1	5,761419
3,670833	0,1	5,775147
3,672500	0,1	5,735899
3,674167	0,1	5,764615
3,675833	0,1	5,774195
3,677500	0,1	5,717545
3,679167	0,1	5,731181
3,680833	0,1	5,681745
3,682500	0,1	5,720559
3,684167	0,1	5,749342
3,685833	0,1	5,681157
3,687500	0,1	5,665924
3,689167	0,1	5,677574
3,690833	0,1	5,672250
3,692500	0,1	5,642938
3,694167	0,1	5,620192
3,695833	0,1	5,605820
3,697500	0,1	5,614946
3,699167	0,1	5,558191
3,700833	0,1	5,591477
3,702500	0,1	5,539950
3,704167	0,1	5,547869
3,705833	0,1	5,528266
3,707500	0,1	5,503074
3,709167	0,1	5,541015
3,710833	0,1	5,513312
3,712500	0,1	5,491248
3,714167	0,1	5,459359
3,715833	0,1	5,424274
3,717500	0,1	5,405016
3,719167	0,1	5,400754
3,720833	0,1	5,418487
3,722500	0,1	5,337999
3,724167	0,1	5,336223
3,725833	0,1	5,336246
3,727500	0,1	5,360239
3,729167	0,1	5,335454
3,730833	0,1	5,284981
3,732500	0,1	5,276781
3,734167	0,1	5,259751
3,735833	0,1	5,248779
3,737500	0,1	5,246393
3,739167	0,1	5,242911
3,740833	0,1	5,213873
3,742500	0,1	5,176077
3,744167	0,1	5,201446
3,745833	0,1	5,156474
3,747500	0,1	5,136127
3,749167	0,1	5,103066
3,750833	0,1	5,134186
3,752500	0,1	5,091483
3,754167	0,1	5,062754
3,755833	0,1	5,034909
3,757500	0,1	5,014653
3,759167	0,1	5,064832
3,760833	0,1	4,987137
3,762500	0,1	5,037104
3,764167	0,1	4,999793
3,765833	0,1	4,974189
3,767500	0,1	4,973278
3,769167	0,1	4,930100
3,770833	0,1	4,903448
3,772500	0,1	4,921904
3,774167	0,1	4,835786
3,775833	0,1	4,910639
3,777500	0,1	4,862224
3,779167	0,1	4,851628
3,780833	0,1	4,829575
3,782500	0,1	4,780747
3,784167	0,1	4,790016
3,785833	0,1	4,764882
3,787500	0,1	4,717445
3,789167	0,1	4,760876
3,790833	0,1	4,742378
3,792500	0,1	4,713887
3,794167	0,1	4,733322
3,795833	0,1	4,708795
3,797500	0,1	4,669991
3,799167	0,1	4,651242
3,800833	0,1	4,598767
3,802500	0,1	4,599203
3,804167	0,1	4,630436
3,805833	0,1	4,615751
3,807500	0,1	4,534110
3,809167	0,1	4,563202
3,810833	0,1	4,552267
3,812500	0,1	4,542058
3,814167	0,1	4,527578
3,815833	0,1	4,505951
3,817500	0,1	4,485255
3,819167	0,1	4,493012
3,820833	0,1	4,485852
3,822500	0,1	4,452753
3,824167	0,1	4,479584
3,825833	0,1	4,401135
3,827500	0,1	4,405997
3,829167	0,1	4,399777
3,830833	0,1	4,382743
3,832500	0,1	4,334168
3,834167	0,1	4,320707
3,835833	0,1	4,327205
3,837500	0,1	4,308756
3,839167	0,1	4,279330
3,840833	0,1	4,288670
3,842500	0,1	4,313380
3,844167	0,1	4,254908
3,845833	0,1	4,234903
3,847500	0,1	4,265699
3,849167	0,1	4,232062
3,850833	0,1	4,161319
3,852500	0,1	4,188441
3,854167	0,1	4,126370
3,855833	0,1	4,152278
3,857500	0,1	4,147937
3,859167	0,1	4,144076
3,860833	0,1	4,126123
3,862500	0,1	4,083868
3,864167	0,1	4,093649
3,865833	0,1	4,088336
3,867500	0,1	4,045480
3,869167	0,1	4,055664
3,870833	0,1	4,013829
3,872500	0,1	4,030393
3,874167	0,1	4,044132
3,875833	0,1	4,003063
3,877500	0,1	3,961756
3,879167	0,1	3,974454
3,880833	0,1	3,940879
3,882500	0,1	3,971781
3,884167	0,1	3,888448
3,885833	0,1	3,924741
3,887500	0,1	3,885454
3,889167	0,1	3,902051
3,890833	0,1	3,862700
3,892500	0,1	3,876332
3,894167	0,1	3,843890
3,895833	0,1	3,847224
3,897500	0,1	3,824651
3,899167	0,1	3,816169
3,900833	0,1	3,796969
3,902500	0,1	3,809002
3,904167	0,1	3,798708
3,905833	0,1	3,792435
3,907500	0,1	3,765838
3,909167	0,1	3,742356
3,910833	0,1	3,733407
3,912500	0,1	3,742320
3,914167	0,1	3,758919
3,915833	0,1	3,697778
3,917500	0,1	3,685454
3,919167	0,1	3,666239
3,920833	0,1	3,632496
3,922500	0,1	3,627791
3,924167	0,1	3,637759
3,925833	0,1	3,654119
3,927500	0,1	3,616005
3,929167	0,1	3,604311
3,930833	0,1	3,600593
3,932500	0,1	3,591089
3,934167	0,1	3,558943
3,935833	0,1	3,531880
3,937500	0,1	3,541663
3,939167	0,1	3,497295
3,940833	0,1	3,504112
3,942500	0,1	3,510812
3,944167	0,1	3,486775
3,945833	0,1	3,485886
3,947500	0,1	3,501489
3,949167	0,1	3,526883
3,950833	0,1	3,494931
3,952500	0,1	3,487602
3,954167	0,1	3,449155
3,955833	0,1	3,452598
3,957500	0,1	3,465709
3,959167	0,1	3,423193
3,960833	0,1	3,412776
3,962500	0,1	3,414535
3,964167	0,1	3,371711
3,965833	0,1	3,421092
3,967500	0,1	3,397774
3,969167	0,1	3,391249
3,970833	0,1	3,392314
3,972500	0,1	3,373266
3,974167	0,1	3,355196
3,975833	0,1	3,361193
3,977500	0,1	3,346264
3,979167	0,1	3,336066
3,980833	0,1	3,324902
3,982500	0,1	3,366530
3,984167	0,1	3,304875
3,985833	0,1	3,253767
3,987500	0,1	3,285497
3,989167	0,1	3,314048
3,990833	0,1	3,342238
3,992500	0,1	3,322990
3,994167	0,1	3,251310
3,995833	0,1	3,263081
3,997500	0,1	3,275408
3,999167	0,1	3,259808
4,000833	0,1	3,240422
4,002500	0,1	3,246638
4,004167	0,1	3,242707
4,005833	0,1	3,246233
4,007500	0,1	3,247266
4,009167	0,1	3,199174
4,010833	0,1	3,240673
4,012500	0,1	3,224084
4,014167	0,1	3,244836
4,015833	0,1	3,194386
4,017500	0,1	3,199886
4,019167	0,1	3,218522
4,020833	0,1	3,216810
4,022500	0,1	3,176715
4,024167	0,1	3,185556
4,025833	0,1	3,230806
4,027500	0,1	3,204148
4,029167	0,1	3,207329
4,030833	0,1	3,196647
4,032500	0,1	3,253204
4,034167	0,1	3,182123
4,035833	0,1	3,256348
4,037500	0,1	3,203640
4,039167	0,1	3,225851
4,040833	0,1	3,187703
4,042500	0,1	3,201029
4,044167	0,1	3,193801
4,045833	0,1	3,220871
4,047500	0,1	3,193636
4,049167	0,1	3,216768
4,050833	0,1	3,223966
4,052500	0,1	3,215842
4,054167	0,1	3,217709
4,055833	0,1	3,249339
4,057500	0,1	3,224524
4,059167	0,1	3,238656
4,060833	0,1	3,231755
4,062500	0,1	3,243218
4,064167	0,1	3,233548
4,065833	0,1	3,255139
4,067500	0,1	3,234506
4,069167	0,1	3,336356
4,070833	0,1	3,252972
4,072500	0,1	3,272182
4,074167	0,1	3,312770
4,075833	0,1	3,352022
4,077500	0,1	3,338168
4,079167	0,1	3,304507
4,080833	0,1	3,330294
4,082500	0,1	3,370996
4,084167	0,1	3,340667
4,085833	0,1	3,373856
4,087500	0,1	3,414895
4,089167	0,1	3,403922
4,090833	0,1	3,378067
4,092500	0,1	3,399967
4,094167	0,1	3,444669
4,095833	0,1	3,440838
4,097500	0,1	3,448208
4,099167	0,1	3,446263
4,100833	0,1	3,453324
4,102500	0,1	3,478013
4,104167	0,1	3,517919
4,105833	0,1	3,497914
4,107500	0,1	3,551157
4,109167	0,1	3,496390
4,110833	0,1	3,575950
4,112500	0,1	3,564547
4,114167	0,1	3,578304
4,115833	0,1	3,577839
4,117500	0,1	3,632161
4,119167	0,1	3,617191
4,120833	0,1	3,613841
4,122500	0,1	3,689330
4,124167	0,1	3,662079
4,125833	0,1	3,699289
4,127500	0,1	3,697507
4,129167	0,1	3,727285
4,130833	0,1	3,714012
4,132500	0,1	3,765582
4,134167	0,1	3,759574
4,135833	0,1	3,782206
4,137500	0,1	3,815509
4,139167	0,1	3,785071
4,140833	0,1	3,813436
4,142500	0,1	3,849861
4,144167	0,1	3,888273
4,145833	0,1	3,874292
4,147500	0,1	3,906516
4,149167	0,1	3,925203
4,150833	0,1	3,916635
4,152500	0,1	3,924384
4,154167	0,1	3,934985
4,155833	0,1	3,950670
4,157500	0,1	3,999392
4,159167	0,1	4,003828
4,160833	0,1	4,006222
4,162500	0,1	4,000705
4,164167	0,1	4,026090
4,165833	0,1	4,017764
4,167500	0,1	4,065003
4,169167	0,1	4,068058
4,170833	0,1	4,073215
4,172500	0,1	4,079027
4,174167	0,1	4,073379
4,175833	0,1	4,094260
4,177500	0,1	4,107505
4,179167	0,1	4,129364
4,180833	0,1	4,137002
4,182500	0,1	4,118483
4,184167	0,1	4,126808
4,185833	0,1	4,177224
4,187500	0,1	4,196694
4,189167	0,1	4,150624
4,190833	0,1	4,201807
4,192500	0,1	4,167812
4,194167	0,1	4,188446
4,195833	0,1	4,230826
4,197500	0,1	4,211944
4,199167	0,1	4,200031
4,200833	0,1	4,232739
4,202500	0,1	4,219990
4,204167	0,1	4,222342
4,205833	0,1	4,232501
4,207500	0,1	4,233641
4,209167	0,1	4,248349
4,210833	0,1	4,191834
4,212500	0,1	4,243990
4,214167	0,1	4,246076
4,215833	0,1	4,229092
4,217500	0,1	4,220108
4,219167	0,1	4,261875
4,220833	0,1	4,228322
4,222500	0,1	4,227259
4,224167	0,1	4,268177
4,225833	0,1	4,223449
4,227500	0,1	4,225511
4,229167	0,1	4,195610
4,230833	0,1	4,214819
4,232500	0,1	4,236031
4,234167	0,1	4,223522
4,235833	0,1	4,229451
4,237500	0,1	4,232663
4,239167	0,1	4,189597
4,240833	0,1	4,184629
4,242500	0,1	4,223470
4,244167	0,1	4,174112
4,245833	0,1	4,222207
4,247500	0,1	4,198978
4,249167	0,1	4,136975
4,250833	0,1	4,175762
4,252500	0,1	4,198687
4,254167	0,1	4,197149
4,255833	0,1	4,138118
4,257500	0,1	4,160243
4,259167	0,1	4,145335
4,260833	0,1	4,142736
4,262500	0,1	4,144443
4,264167	0,1	4,128713
4,265833	0,1	4,142974
4,267500	0,1	4,077584
4,269167	0,1	4,064724
4,270833	0,1	4,092419
4,272500	0,1	4,036945
4,274167	0,1	4,055902
4,275833	0,1	4,071504
4,277500	0,1	4,040234
4,279167	0,1	4,058304
4,280833	0,1	4,040114
4,282500	0,1	4,034298
4,284167	0,1	4,032668
4,285833	0,1	4,011883
4,287500	0,1	4,001836
4,289167	0,1	3,960729
4,290833	0,1	3,977863
4,292500	0,1	4,009841
4,294167	0,1	4,010667
4,295833	0,1	3,920621
4,297500	0,1	3,952811
4,299167	0,1	3,949603
4,300833	0,1	3,925313
4,302500	0,1	3,957280
4,304167	0,1	3,908074
4,305833	0,1	3,909406
4,307500	0,1	3,913463
4,309167	0,1	3,876437
4,310833	0,1	3,892098
4,312500	0,1	3,812288
4,314167	0,1	3,814043
4,315833	0,1	3,843619
4,317500	0,1	3,844547
4,319167	0,1	3,817996
4,320833	0,1	3,791757
4,322500	0,1	3,764109
4,324167	0,1	3,798206
4,325833	0,1	3,790312
4,327500	0,1	3,753118
4,329167	0,1	3,750383
4,330833	0,1	3,706323
4,332500	0,1	3,720137
4,334167	0,1	3,728680
4,335833	0,1	3,696736
4,337500	0,1	3,687275
4,339167	0,1	3,708366
4,340833	0,1	3,692452
4,342500	0,1	3,699895
4,344167	0,1	3,643232
4,345833	0,1	3,614104
4,347500	0,1	3,651310
4,349167	0,1	3,638749
4,350833	0,1	3,602497
4,352500	0,1	3,585688
4,354167	0,1	3,613001
4,355833	0,1	3,528416
4,357500	0,1	3,549139
4,359167	0,1	3,568822
4,360833	0,1	3,568050
4,362500	0,1	3,516721
4,364167	0,1	3,502974
4,365833	0,1	3,533530
4,367500	0,1	3,500669
4,369167	0,1	3,524053
4,370833	0,1	3,498642
4,372500	0,1	3,463435
4,374167	0,1	3,472850
4,375833	0,1	3,431160
4,377500	0,1	3,443586
4,379167	0,1	3,431575
4,380833	0,1	3,445616
4,382500	0,1	3,389314
4,384167	0,1	3,419359
4,385833	0,1	3,370909
4,387500	0,1	3,355326
4,389167	0,1	3,376424
4,390833	0,1	3,381567
4,392500	0,1	3,318404
4,394167	0,1	3,351862
4,395833	0,1	3,350912
4,397500	0,1	3,265588
4,399167	0,1	3,279949
4,400833	0,1	3,295585
4,402500	0,1	3,298504
4,404167	0,1	3,276791
4,405833	0,1	3,247044
4,407500	0,1	3,278095
4,409167	0,1	3,267187
4,410833	0,1	3,234851
4,412500	0,1	3,248577
4,414167	0,1	3,259361
4,415833	0,1	3,174398
4,417500	0,1	3,188551
4,419167	0,1	3,188000
4,420833	0,1	3,185731
4,422500	0,1	3,191546
4,424167	0,1	3,169193
4,425833	0,1	3,129553
4,427500	0,1	3,141560
4,429167	0,1	3,091612
4,430833	0,1	3,116642
4,432500	0,1	3,111156
4,434167	0,1	3,132841
4,435833	0,1	3,072215
4,437500	0,1	3,044456
4,439167	0,1	3,075249
4,440833	0,1	3,053592
4,442500	0,1	3,037723
4,444167	0,1	3,058576
4,445833	0,1	3,044014
4,447500	0,1	2,989495
4,449167	0,1	3,010090
4,450833	0,1	2,951104
4,452500	0,1	2,972965
4,454167	0,1	2,971598
4,455833	0,1	2,976557
4,457500	0,1	2,972744
4,459167	0,1	2,931921
4,460833	0,1	2,952172
4,462500	0,1	2,947518
4,464167	0,1	2,901514
4,465833	0,1	2,867630
4,467500	0,1	2,885190
4,469167	0,1	2,925540
4,470833	0,1	2,853188
4,472500	0,1	2,876714
4,474167	0,1	2,842758
4,475833	0,1	2,823871
4,477500	0,1	2,881591
4,479167	0,1	2,866201
4,480833	0,1	2,797021
4,482500	0,1	2,832619
4,484167	0,1	2,858863
4,485833	0,1	2,785994
4,487500	0,1	2,803994
4,489167	0,1	2,785780
4,490833	0,1	2,788877
4,492500	0,1	2,735301
4,494167	0,1	2,728534
4,495833	0,1	2,761575
4,497500	0,1	2,695693
4,499167	0,1	2,715249
4,500833	0,1	2,731545
4,502500	0,1	2,732250
4,504167	0,1	2,666970
4,505833	0,1	2,693154
4,507500	0,1	2,671662
4,509167	0,1	2,673666
4,510833	0,1	2,677024
4,512500	0,1	2,624865
4,514167	0,1	2,654074
4,515833	0,1	2,635018
4,517500	0,1	2,613196
4,519167	0,1	2,605476
4,520833	0,1	2,570244
4,522500	0,1	2,605834
4,524167	0,1	2,557703
4,525833	0,1	2,576414
4,527500	0,1	2,580658
4,529167	0,1	2,534025
4,530833	0,1	2,575754
4,532500	0,1	2,501578
4,534167	0,1	2,538318
4,535833	0,1	2,520282
4,537500	0,1	2,508468
4,539167	0,1	2,481269
4,540833	0,1	2,539968
4,542500	0,1	2,479616
4,544167	0,1	2,487525
4,545833	0,1	2,453632
4,547500	0,1	2,469670
4,549167	0,1	2,463705
4,550833	0,1	2,408827
4,552500	0,1	2,456063
4,554167	0,1	2,446572
4,555833	0,1	2,407808
4,557500	0,1	2,423695
4,559167	0,1	2,387670
4,560833	0,1	2,412836
4,562500	0,1	2,353214
4,564167	0,1	2,350747
4,565833	0,1	2,346000
4,567500	0,1	2,330101
4,569167	0,1	2,360524
4,570833	0,1	2,357011
4,572500	0,1	2,320903
4,574167	0,1	2,332043
4,575833	0,1	2,329311
4,577500	0,1	2,299681
4,579167	0,1	2,313628
4,580833	0,1	2,296297
4,582500	0,1	2,288883
4,584167	0,1	2,314702
4,585833	0,1	2,282706
4,587500	0,1	2,284640
4,589167	0,1	2,275073
4,590833	0,1	2,260692
4,592500	0,1	2,298655
4,594167	0,1	2,200588
4,595833	0,1	2,262543
4,597500	0,1	2,205972
4,599167	0,1	2,206892
4,600833	0,1	2,228463
4,602500	0,1	2,167787
4,604167	0,1	2,194085
4,605833	0,1	2,191216
4,607500	0,1	2,162025
4,609167	0,1	2,161875
4,610833	0,1	2,154327
4,612500	0,1	2,178696
4,614167	0,1	2,145344
4,615833	0,1	2,158350
4,617500	0,1	2,143759
4,619167	0,1	2,137574
4,620833	0,1	2,149577
4,622500	0,1	2,112125
4,624167	0,1	2,108234
4,625833	0,1	2,115927
4,627500	0,1	2,112406
4,629167	0,1	2,109101
4,630833	0,1	2,100544
4,632500	0,1	2,073154
4,634167	0,1	2,071282
4,635833	0,1	2,049721
4,637500	0,1	2,057402
4,639167	0,1	2,019240
4,640833	0,1	2,062856
4,642500	0,1	2,045980
4,644167	0,1	2,035053
4,645833	0,1	2,025989
4,647500	0,1	2,019309
4,649167	0,1	1,999179
4,650833	0,1	2,016567
4,652500	0,1	1,985528
4,654167	0,1	2,008015
4,655833	0,1	1,951178
4,657500	0,1	1,985583
4,659167	0,1	1,972081
4,660833	0,1	1,958284
4,662500	0,1	1,939532
4,664167	0,1	1,949727
4,665833	0,1	1,944839
4,667500	0,1	1,949078
4,669167	0,1	1,921488
4,670833	0,1	1,953027
4,672500	0,1	1,919912
4,674167	0,1	1,938947
4,675833	0,1	1,884839
4,677500	0,1	1,913864
4,679167	0,1	1,935641
4,680833	0,1	1,877439
4,682500	0,1	1,911989
4,684167	0,1	1,873053
4,685833	0,1	1,878364
4,687500	0,1	1,880522
4,689167	0,1	1,867731
4,690833	0,1	1,879938
4,692500	0,1	1,869683
4,694167	0,1	1,870174
4,695833	0,1	1,825127
4,697500	0,1	1,828863
4,699167	0,1	1,808153
4,700833	0,1	1,809526
4,702500	0,1	1,807651
4,704167	0,1	1,844002
4,705833	0,1	1,789284
4,707500	0,1	1,760811
4,709167	0,1	1,762963
4,710833	0,1	1,803992
4,712500	0,1	1,790777
4,714167	0,1	1,776055
4,715833	0,1	1,833945
4,717500	0,1	1,776563
4,719167	0,1	1,749189
4,720833	0,1	1,775756
4,722500	0,1	1,747233
4,724167	0,1	1,772532
4,725833	0,1	1,735240
4,727500	0,1	1,763610
4,729167	0,1	1,747877
4,730833	0,1	1,728708
4,732500	0,1	1,754638
4,734167	0,1	1,764325
4,735833	0,1	1,702281
4,737500	0,1	1,704712
4,739167	0,1	1,676554
4,740833	0,1	1,703693
4,742500	0,1	1,672985
4,744167	0,1	1,700162
4,745833	0,1	1,677408
4,747500	0,1	1,690777
4,749167	0,1	1,672255
4,750833	0,1	1,693211
4,752500	0,1	1,667433
4,754167	0,1	1,670441
4,755833	0,1	1,709666
4,757500	0,1	1,661412
4,759167	0,1	1,681644
4,760833	0,1	1,655580
4,762500	0,1	1,642776
4,764167	0,1	1,658811
4,765833	0,1	1,630440
4,767500	0,1	1,607977
4,769167	0,1	1,658953
4,770833	0,1	1,612346
4,772500	0,1	1,654349
4,774167	0,1	1,632825
4,775833	0,1	1,583479
4,777500	0,1	1,597973
4,779167	0,1	1,622472
4,780833	0,1	1,603647
4,782500	0,1	1,614133
4,784167	0,1	1,610558
4,785833	0,1	1,585713
4,787500	0,1	1,611900
4,789167	0,1	1,556637
4,790833	0,1	1,553369
4,792500	0,1	1,582112
4,794167	0,1	1,592665
4,795833	0,1	1,579675
4,797500	0,1	1,549580
4,799167	0,1	1,568172
4,800833	0,1	1,539389
4,802500	0,1	1,513967
4,804167	0,1	1,561495
4,805833	0,1	1,551663
4,807500	0,1	1,509364
4,809167	0,1	1,547636
4,810833	0,1	1,534480
4,812500	0,1	1,509731
4,814167	0,1	1,550234
4,815833	0,1	1,540495
4,817500	0,1	1,542789
4,819167	0,1	1,552826
4,820833	0,1	1,534438
4,822500	0,1	1,471768
4,824167	0,1	1,521138
4,825833	0,1	1,524656
4,827500	0,1	1,509648
4,829167	0,1	1,477699
4,830833	0,1	1,478199
4,832500	0,1	1,500053
4,834167	0,1	1,464501
4,835833	0,1	1,450337
4,837500	0,1	1,436935
4,839167	0,1	1,495303
4,840833	0,1	1,445754
4,842500	0,1	1,454745
4,844167	0,1	1,455007
4,845833	0,1	1,474318
4,847500	0,1	1,496314
4,849167	0,1	1,424027
4,850833	0,1	1,467947
4,852500	0,1	1,440580
4,854167	0,1	1,472748
4,855833	0,1	1,446355
4,857500	0,1	1,429857
4,859167	0,1	1,425234
4,860833	0,1	1,445394
4,862500	0,1	1,429704
4,864167	0,1	1,462287
4,865833	0,1	1,401396
4,867500	0,1	1,420060
4,869167	0,1	1,458971
4,870833	0,1	1,450817
4,872500	0,1	1,434243
4,874167	0,1	1,371102
4,875833	0,1	1,428381
4,877500	0,1	1,412877
4,879167	0,1	1,374411
4,880833	0,1	1,397653
4,882500	0,1	1,360927
4,884167	0,1	1,385477
4,885833	0,1	1,389905
4,887500	0,1	1,392353
4,889167	0,1	1,387832
4,890833	0,1	1,402396
4,892500	0,1	1,373831
4,894167	0,1	1,351456
4,895833	0,1	1,369025
4,897500	0,1	1,352237
4,899167	0,1	1,337057
4,900833	0,1	1,369377
4,902500	0,1	1,360906
4,904167	0,1	1,341681
4,905833	0,1	1,342968
4,907500	0,1	1,331581
4,909167	0,1	1,340977
4,910833	0,1	1,355406
4,912500	0,1	1,367734
4,914167	0,1	1,343279
4,915833	0,1	1,332976
4,917500	0,1	1,320295
4,919167	0,1	1,354741
4,920833	0,1	1,345859
4,922500	0,1	1,282675
4,924167	0,1	1,363127
4,925833	0,1	1,325605
4,927500	0,1	1,294958
4,929167	0,1	1,365204
4,930833	0,1	1,307116
4,932500	0,1	1,323536
4,934167	0,1	1,302722
4,935833	0,1	1,328751
4,937500	0,1	1,303709
4,939167	0,1	1,299047
4,940833	0,1	1,355040
4,942500	0,1	1,325194
4,944167	0,1	1,313344
4,945833	0,1	1,298286
4,947500	0,1	1,325963
4,949167	0,1	1,306445
4,950833	0,1	1,264876
4,952500	0,1	1,333790
4,954167	0,1	1,264544
4,955833	0,1	1,289861
4,957500	0,1	1,271617
4,959167	0,1	1,285497
4,960833	0,1	1,245433
4,962500	0,1	1,276058
4,964167	0,1	1,244311
4,965833	0,1	1,273255
4,967500	0,1	1,298326
4,969167	0,1	1,317092
4,970833	0,1	1,258151
4,972500	0,1	1,272477
4,974167	0,1	1,268913
4,975833	0,1	1,274927
4,977500	0,1	1,275862
4,979167	0,1	1,261282
4,980833	0,1	1,304644
4,982500	0,1	1,273899
4,984167	0,1	1,246535
4,985833	0,1	1,250318
4,987500	0,1	1,284846
4,989167	0,1	1,283409
4,990833	0,1	1,305023
4,992500	0,1	1,262649
4,994167	0,1	1,262251
4,995833	0,1	1,291220
4,997500	0,1	1,280488
4,999167	0,1	1,296103
5,000833	0,1	1,191338
5,002500	0,1	1,258137
5,004167	0,1	1,290879
5,005833	0,1	1,251023
5,007500	0,1	1,268466
5,009167	0,1	1,268418
5,010833	0,1	1,267282
5,012500	0,1	1,256644
5,014167	0,1	1,265988
5,015833	0,1	1,260873
5,017500	0,1	1,260633
5,019167	0,1	1,275096
5,020833	0,1	1,274809
5,022500	0,1	1,242932
5,024167	0,1	1,249584
5,025833	0,1	1,266528
5,027500	0,1	1,238498
5,029167	0,1	1,290009
5,030833	0,1	1,306724
5,032500	0,1	1,280764
5,034167	0,1	1,274197
5,035833	0,1	1,242526
5,037500	0,1	1,257129
5,039167	0,1	1,256523
5,040833	0,1	1,285901
5,042500	0,1	1,283461
5,044167	0,1	1,316001
5,045833	0,1	1,293189
5,047500	0,1	1,254339
5,049167	0,1	1,282688
5,050833	0,1	1,267114
5,052500	0,1	1,234777
5,054167	0,1	1,259865
5,055833	0,1	1,297473
5,057500	0,1	1,279809
5,059167	0,1	1,265415
5,060833	0,1	1,295333
5,062500	0,1	1,257161
5,064167	0,1	1,292019
5,065833	0,1	1,270991
5,067500	0,1	1,282285
5,069167	0,1	1,246808
5,070833	0,1	1,265168
5,072500	0,1	1,270797
5,074167	0,1	1,302354
5,075833	0,1	1,254138
5,077500	0,1	1,263540
5,079167	0,1	1,260959
5,080833	0,1	1,301298
5,082500	0,1	1,271264
5,084167	0,1	1,289439
5,085833	0,1	1,252536
5,087500	0,1	1,259885
5,089167	0,1	1,285698
5,090833	0,1	1,251464
5,092500	0,1	1,271540
5,094167	0,1	1,287552
5,095833	0,1	1,276953
5,097500	0,1	1,263171
5,099167	0,1	1,260873
5,100833	0,1	1,237118
5,102500	0,1	1,221059
5,104167	0,1	1,276581
5,105833	0,1	1,296253
5,107500	0,1	1,264416
5,109167	0,1	1,273480
5,110833	0,1	1,286143
5,112500	0,1	1,262527
5,114167	0,1	1,268553
5,115833	0,1	1,234334
5,117500	0,1	1,282192
5,119167	0,1	1,258362
5,120833	0,1	1,238680
5,122500	0,1	1,259575
5,124167	0,1	1,251525
5,125833	0,1	1,269757
5,127500	0,1	1,296965
5,129167	0,1	1,226577
5,130833	0,1	1,229227
5,132500	0,1	1,249465
5,134167	0,1	1,188475
5,135833	0,1	1,220450
5,137500	0,1	1,242070
5,139167	0,1	1,215568
5,140833	0,1	1,244074
5,142500	0,1	1,213006
5,144167	0,1	1,231789
5,145833	0,1	1,219871
5,147500	0,1	1,200598
5,149167	0,1	1,187037
5,150833	0,1	1,193199
5,152500	0,1	1,226231
5,154167	0,1	1,224099
5,155833	0,1	1,188844
5,157500	0,1	1,201457
5,159167	0,1	1,181429
5,160833	0,1	1,177281
5,162500	0,1	1,213740
5,164167	0,1	1,158394
5,165833	0,1	1,183934
5,167500	0,1	1,205262
5,169167	0,1	1,163912
5,170833	0,1	1,176390
5,172500	0,1	1,132382
5,174167	0,1	1,184062
5,175833	0,1	1,155756
5,177500	0,1	1,147600
5,179167	0,1	1,160557
5,180833	0,1	1,134247
5,182500	0,1	1,126853
5,184167	0,1	1,175814
5,185833	0,1	1,134829
5,187500	0,1	1,110292
5,189167	0,1	1,119968
5,190833	0,1	1,141157
5,192500	0,1	1,133067
5,194167	0,1	1,143277
5,195833	0,1	1,100391
5,197500	0,1	1,093323
5,199167	0,1	1,115177
5,200833	0,1	1,100829
5,202500	0,1	1,115514
5,204167	0,1	1,115384
5,205833	0,1	1,068717
5,207500	0,1	1,076513
5,209167	0,1	1,060916
5,210833	0,1	1,114840
5,212500	0,1	1,082089
5,214167	0,1	1,066549
5,215833	0,1	1,041486
5,217500	0,1	1,033913
5,219167	0,1	1,043972
5,220833	0,1	1,042326
5,222500	0,1	1,034581
5,224167	0,1	1,046798
5,225833	0,1	1,020475
5,227500	0,1	1,035512
5,229167	0,1	0,993258
5,230833	0,1	1,001970
5,232500	0,1	0,981435
5,234167	0,1	1,013004
5,235833	0,1	0,998036
5,237500	0,1	0,999011
5,239167	0,1	1,007824
5,240833	0,1	0,976874
5,242500	0,1	0,973040
5,244167	0,1	1,019655
5,245833	0,1	1,017821
5,247500	0,1	1,014639
5,249167	0,1	0,977300
5,250833	0,1	0,972996
5,252500	0,1	0,982698
5,254167	0,1	0,971239
5,255833	0,1	0,936663
5,257500	0,1	0,957032
5,259167	0,1	0,933296
5,260833	0,1	0,931956
5,262500	0,1	0,938699
5,264167	0,1	0,953164
5,265833	0,1	0,849741
5,267500	0,1	0,943731
5,269167	0,1	0,903730
5,270833	0,1	0,963992
5,272500	0,1	0,926249
5,274167	0,1	0,895587
5,275833	0,1	0,905141
5,277500	0,1	0,923810
5,279167	0,1	0,906263
5,280833	0,1	0,906523
5,282500	0,1	0,896558
5,284167	0,1	0,873818
5,285833	0,1	0,907964
5,287500	0,1	0,896913
5,289167	0,1	0,893039
5,290833	0,1	0,881741
5,292500	0,1	0,877579
5,294167	0,1	0,825210
5,295833	0,1	0,896430
5,297500	0,1	0,871081
5,299167	0,1	0,857909
5,300833	0,1	0,888117
5,302500	0,1	0,836955
5,304167	0,1	0,838351
5,305833	0,1	0,864088
5,307500	0,1	0,871346
5,309167	0,1	0,873532
5,310833	0,1	0,826222
5,312500	0,1	0,812745
5,314167	0,1	0,821574
5,315833	0,1	0,839017
5,317500	0,1	0,878817
5,319167	0,1	0,876090
5,320833	0,1	0,802358
5,322500	0,1	0,836498
5,324167	0,1	0,851186
5,325833	0,1	0,804338
5,327500	0,1	0,825217
5,329167	0,1	0,796422
5,330833	0,1	0,813962
5,332500	0,1	0,818666
5,334167	0,1	0,773136
5,335833	0,1	0,806439
5,337500	0,1	0,807605
5,339167	0,1	0,804894
5,340833	0,1	0,791230
5,342500	0,1	0,795321
5,344167	0,1	0,782132
5,345833	0,1	0,788698
5,347500	0,1	0,779670
5,349167	0,1	0,778800
5,350833	0,1	0,763584
5,352500	0,1	0,779730
5,354167	0,1	0,734917
5,355833	0,1	0,781658
5,357500	0,1	0,773864
5,359167	0,1	0,744458
5,360833	0,1	0,740199
5,362500	0,1	0,756834
5,364167	0,1	0,739874
5,365833	0,1	0,757770
5,367500	0,1	0,759447
5,369167	0,1	0,777506
5,370833	0,1	0,694712
5,372500	0,1	0,700495
5,374167	0,1	0,751600
5,375833	0,1	0,732387
5,377500	0,1	0,712906
5,379167	0,1	0,729546
5,380833	0,1	0,724233
5,382500	0,1	0,758149
5,384167	0,1	0,725566
5,385833	0,1	0,730746
5,387500	0,1	0,754373
5,389167	0,1	0,693509
5,390833	0,1	0,714962
5,392500	0,1	0,737959
5,394167	0,1	0,704309
5,395833	0,1	0,700402
5,397500	0,1	0,682825
5,399167	0,1	0,675924
5,400833	0,1	0,689687
5,402500	0,1	0,697624
5,404167	0,1	0,694524
5,405833	0,1	0,694980
5,407500	0,1	0,666413
5,409167	0,1	0,680564
5,410833	0,1	0,683689
5,412500	0,1	0,665477
5,414167	0,1	0,689012
5,415833	0,1	0,672441
5,417500	0,1	0,659091
5,419167	0,1	0,667405
5,420833	0,1	0,651452
5,422500	0,1	0,686196
5,424167	0,1	0,632725
5,425833	0,1	0,672232
5,427500	0,1	0,627753
5,429167	0,1	0,682098
5,430833	0,1	0,667730
5,432500	0,1	0,624663
5,434167	0,1	0,681706
5,435833	0,1	0,656543
5,437500	0,1	0,642033
5,439167	0,1	0,667720
5,440833	0,1	0,625532
5,442500	0,1	0,640317
5,444167	0,1	0,652990
5,445833	0,1	0,639133
5,447500	0,1	0,675043
5,449167	0,1	0,646615
5,450833	0,1	0,605637
5,452500	0,1	0,614941
5,454167	0,1	0,605593
5,455833	0,1	0,648468
5,457500	0,1	0,637387
5,459167	0,1	0,632518
5,460833	0,1	0,586581
5,462500	0,1	0,606782
5,464167	0,1	0,604626
5,465833	0,1	0,622873
5,467500	0,1	0,618720
5,469167	0,1	0,640539
5,470833	0,1	0,615980
5,472500	0,1	0,585738
5,474167	0,1	0,602298
5,475833	0,1	0,604852
5,477500	0,1	0,618456
5,479167	0,1	0,586484
5,480833	0,1	0,585766
5,482500	0,1	0,593243
5,484167	0,1	0,584897
5,485833	0,1	0,590305
5,487500	0,1	0,618907
5,489167	0,1	0,586610
5,490833	0,1	0,554918
5,492500	0,1	0,593880
5,494167	0,1	0,599887
5,495833	0,1	0,581837
5,497500	0,1	0,597885
5,499167	0,1	0,558594
5,500833	0,1	0,596716
5,502500	0,1	0,567748
5,504167	0,1	0,600071
5,505833	0,1	0,591572
5,507500	0,1	0,552761
5,509167	0,1	0,605160
5,510833	0,1	0,578839
5,512500	0,1	0,548470
5,514167	0,1	0,582531
5,515833	0,1	0,567070
5,517500	0,1	0,601166
5,519167	0,1	0,588764
5,520833	0,1	0,559625
5,522500	0,1	0,614221
5,524167	0,1	0,533814
5,525833	0,1	0,585041
5,527500	0,1	0,543830
5,529167	0,1	0,583693
5,530833	0,1	0,541413
5,532500	0,1	0,540630
5,534167	0,1	0,561000
5,535833	0,1	0,555750
5,537500	0,1	0,561934
5,539167	0,1	0,551141
5,540833	0,1	0,554006
5,542500	0,1	0,549947
5,544167	0,1	0,562291
5,545833	0,1	0,556652
5,547500	0,1	0,567288
5,549167	0,1	0,542408
5,550833	0,1	0,546721
5,552500	0,1	0,585527
5,554167	0,1	0,539704
5,555833	0,1	0,546624
5,557500	0,1	0,516395
5,559167	0,1	0,534853
5,560833	0,1	0,528606
5,562500	0,1	0,508364
5,564167	0,1	0,535401
5,565833	0,1	0,536374
5,567500	0,1	0,535566
5,569167	0,1	0,527801
5,570833	0,1	0,551937
5,572500	0,1	0,540052
5,574167	0,1	0,488420
5,575833	0,1	0,552316
5,577500	0,1	0,545046
5,579167	0,1	0,562964
5,580833	0,1	0,522231
5,582500	0,1	0,521674
5,584167	0,1	0,534372
5,585833	0,1	0,524093
5,587500	0,1	0,555095
5,589167	0,1	0,559293
5,590833	0,1	0,520910
5,592500	0,1	0,517709
5,594167	0,1	0,524733
5,595833	0,1	0,522028
5,597500	0,1	0,516067
5,599167	0,1	0,516289
5,600833	0,1	0,552387
5,602500	0,1	0,530963
5,604167	0,1	0,491447
5,605833	0,1	0,547966
5,607500	0,1	0,543724
5,609167	0,1	0,529832
5,610833	0,1	0,546009
5,612500	0,1	0,499121
5,614167	0,1	0,553993
5,615833	0,1	0,533380
5,617500	0,1	0,508881
5,619167	0,1	0,492118
5,620833	0,1	0,525437
5,622500	0,1	0,531279
5,624167	0,1	0,544461
5,625833	0,1	0,524740
5,627500	0,1	0,493990
5,629167	0,1	0,514544
5,630833	0,1	0,507588
5,632500	0,1	0,510778
5,634167	0,1	0,502108
5,635833	0,1	0,494147
5,637500	0,1	0,508003
5,639167	0,1	0,530695
5,640833	0,1	0,529604
5,642500	0,1	0,494185
5,644167	0,1	0,509937
5,645833	0,1	0,473524
5,647500	0,1	0,565237
5,649167	0,1	0,514368
5,650833	0,1	0,561379
5,652500	0,1	0,480013
5,654167	0,1	0,512994
5,655833	0,1	0,489798
5,657500	0,1	0,528272
5,659167	0,1	0,511007
5,660833	0,1	0,492247
5,662500	0,1	0,529304
5,664167	0,1	0,552841
5,665833	0,1	0,510948
5,667500	0,1	0,508200
5,669167	0,1	0,479291
5,670833	0,1	0,516732
5,672500	0,1	0,499531
5,674167	0,1	0,554285
5,675833	0,1	0,498444
5,677500	0,1	0,513289
5,679167	0,1	0,522477
5,680833	0,1	0,499661
5,682500	0,1	0,503879
5,684167	0,1	0,478259
5,685833	0,1	0,527431
5,687500	0,1	0,487708
5,689167	0,1	0,500169
5,690833	0,1	0,495694
5,692500	0,1	0,510904
5,694167	0,1	0,519060
5,695833	0,1	0,487608
5,697500	0,1	0,490598
5,699167	0,1	0,507938
5,700833	0,1	0,539010
5,702500	0,1	0,528219
5,704167	0,1	0,495732
5,705833	0,1	0,513126
5,707500	0,1	0,514066
5,709167	0,1	0,531212
5,710833	0,1	0,494185
5,712500	0,1	0,520087
5,714167	0,1	0,500370
5,715833	0,1	0,523023
5,717500	0,1	0,550453
5,719167	0,1	0,554780
5,720833	0,1	0,548432
5,722500	0,1	0,506371
5,724167	0,1	0,489119
5,725833	0,1	0,546965
5,727500	0,1	0,490355
5,729167	0,1	0,542358
5,730833	0,1	0,502278
5,732500	0,1	0,509969
5,734167	0,1	0,526859
5,735833	0,1	0,515165
5,737500	0,1	0,521188
5,739167	0,1	0,534758
5,740833	0,1	0,549296
5,742500	0,1	0,520392
5,744167	0,1	0,539239
5,745833	0,1	0,527510
5,747500	0,1	0,558254
5,749167	0,1	0,552589
5,750833	0,1	0,534508
5,752500	0,1	0,521033
5,754167	0,1	0,547715
5,755833	0,1	0,516233
5,757500	0,1	0,530019
5,759167	0,1	0,531376
5,760833	0,1	0,492702
5,762500	0,1	0,519153
5,764167	0,1	0,545231
5,765833	0,1	0,514654
5,767500	0,1	0,549485
5,769167	0,1	0,530543
5,770833	0,1	0,543849
5,772500	0,1	0,536376
5,774167	0,1	0,520419
5,775833	0,1	0,512199
5,777500	0,1	0,507909
5,779167	0,1	0,529728
5,780833	0,1	0,528475
5,782500	0,1	0,475301
5,784167	0,1	0,531590
5,785833	0,1	0,522223
5,787500	0,1	0,470915
5,789167	0,1	0,526239
5,790833	0,1	0,500951
5,792500	0,1	0,556025
5,794167	0,1	0,538408
5,795833	0,1	0,505822
5,797500	0,1	0,515256
5,799167	0,1	0,530856
5,800833	0,1	0,492252
5,802500	0,1	0,545224
5,804167	0,1	0,532153
5,805833	0,1	0,529347
5,807500	0,1	0,464377
5,809167	0,1	0,559304
5,810833	0,1	0,545499
5,812500	0,1	0,485358
5,814167	0,1	0,481768
5,815833	0,1	0,522760
5,817500	0,1	0,516871
5,819167	0,1	0,509651
5,820833	0,1	0,518093
5,822500	0,1	0,497632
5,824167	0,1	0,511064
5,825833	0,1	0,498241
5,827500	0,1	0,501912
5,829167	0,1	0,487540
5,830833	0,1	0,543483
5,832500	0,1	0,490742
5,834167	0,1	0,460081
5,835833	0,1	0,510444
5,837500	0,1	0,512034
5,839167	0,1	0,539333
5,840833	0,1	0,540853
5,842500	0,1	0,477109
5,844167	0,1	0,509095
5,845833	0,1	0,470237
5,847500	0,1	0,490402
5,849167	0,1	0,467558
5,850833	0,1	0,466683
5,852500	0,1	0,495943
5,854167	0,1	0,515898
5,855833	0,1	0,479421
5,857500	0,1	0,517312
5,859167	0,1	0,465952
5,860833	0,1	0,467392
5,862500	0,1	0,538194
5,864167	0,1	0,490611
5,865833	0,1	0,510933
5,867500	0,1	0,479778
5,869167	0,1	0,517570
5,870833	0,1	0,492153
5,872500	0,1	0,473809
5,874167	0,1	0,475127
5,875833	0,1	0,501295
5,877500	0,1	0,466207
5,879167	0,1	0,478412
5,880833	0,1	0,464236
5,882500	0,1	0,461591
5,884167	0,1	0,486854
5,885833	0,1	0,462014
5,887500	0,1	0,512280
5,889167	0,1	0,508910
5,890833	0,1	0,499499
5,892500	0,1	0,502719
5,894167	0,1	0,451642
5,895833	0,1	0,492748
5,897500	0,1	0,455281
5,899167	0,1	0,458203
5,900833	0,1	0,465197
5,902500	0,1	0,457660
5,904167	0,1	0,509799
5,905833	0,1	0,458281
5,907500	0,1	0,420341
5,909167	0,1	0,466284
5,910833	0,1	0,457949
5,912500	0,1	0,429751
5,914167	0,1	0,465449
5,915833	0,1	0,458818
5,917500	0,1	0,474897
5,919167	0,1	0,450605
5,920833	0,1	0,423821
5,922500	0,1	0,487585
5,924167	0,1	0,475355
5,925833	0,1	0,439903
5,927500	0,1	0,470672
5,929167	0,1	0,439100
5,930833	0,1	0,509632
5,932500	0,1	0,446808
5,934167	0,1	0,446408
5,935833	0,1	0,448662
5,937500	0,1	0,443411
5,939167	0,1	0,475409
5,940833	0,1	0,436360
5,942500	0,1	0,493165
5,944167	0,1	0,478063
5,945833	0,1	0,498298
5,947500	0,1	0,447485
5,949167	0,1	0,449986
5,950833	0,1	0,485014
5,952500	0,1	0,441518
5,954167	0,1	0,456108
5,955833	0,1	0,448020
5,957500	0,1	0,419826
5,959167	0,1	0,420108
5,960833	0,1	0,430483
5,962500	0,1	0,470119
5,964167	0,1	0,396313
5,965833	0,1	0,414658
5,967500	0,1	0,442954
5,969167	0,1	0,453627
5,970833	0,1	0,417342
5,972500	0,1	0,398842
5,974167	0,1	0,446656
5,975833	0,1	0,440964
5,977500	0,1	0,420822
5,979167	0,1	0,429226
5,980833	0,1	0,458325
5,982500	0,1	0,450441
5,984167	0,1	0,431554
5,985833	0,1	0,449790
5,987500	0,1	0,429172
5,989167	0,1	0,403711
5,990833	0,1	0,403449
5,992500	0,1	0,440181
5,994167	0,1	0,426332
5,995833	0,1	0,438445
5,997500	0,1	0,416601
5,999167	0,1	0,404705
6,000833	0,1	0,439668
