File Path	chrom://chromeleon01/ikbm_chromeleon/2022/Rezex/Esteban/220612_chitin_4_7.seq/772.smp/UV_VIS_1.channel/UV_VIS_1.chm
Channel	UV_VIS_1

Injection Information:
Data Vault	ikbm_chromeleon
Injection	CelS2_00.5h-EGS_1
Injection Number	106
Position	BB1
Comment	
Processing Method	New ProcMethod
Instrument Method	Short_Rezex_6min_194nm
Type	Unknown
Status	Finished
Injection Date	13.06.2022
Injection Time	04:34:08
Injection Volume (µl)	8,000
Dilution Factor	1,0000
Weight	1,0000

Chromatogram Data Information:
Time Min. (min)	0,000833
Time Max. (min)	6,000833
Data Points	3601
Detector	UV
Generating Data System	Chromeleon 7.2.9.11323
Exporting Data System	Chromeleon 7.2.9.0
Operator	Instrument Controller
Signal Quantity	Absorbance
Signal Unit	mAU
Signal Min.	-0,122753
Signal Max.	120,703938
Channel	UV_VIS_1
Driver Name	VWD3000.dll
Channel Type	Evaluation
Min. Step (s)	0,1
Max. Step (s)	0,1
Average Step (s)	0,1

Signal Parameter Information:
Signal Info	WVL:194 nm

Chromatogram Data:
Time (min)	Step (s)	Value (mAU)
0,000833	n.a.	-0,041888
0,002500	0,1	-0,085091
0,004167	0,1	-0,073247
0,005833	0,1	-0,057476
0,007500	0,1	-0,009857
0,009167	0,1	-0,075197
0,010833	0,1	-0,044812
0,012500	0,1	-0,044681
0,014167	0,1	-0,082279
0,015833	0,1	-0,049636
0,017500	0,1	-0,046897
0,019167	0,1	-0,066326
0,020833	0,1	-0,036842
0,022500	0,1	-0,056411
0,024167	0,1	-0,058548
0,025833	0,1	-0,083812
0,027500	0,1	-0,065611
0,029167	0,1	-0,081828
0,030833	0,1	-0,075708
0,032500	0,1	-0,078705
0,034167	0,1	-0,073739
0,035833	0,1	-0,098156
0,037500	0,1	-0,076724
0,039167	0,1	-0,116485
0,040833	0,1	-0,104684
0,042500	0,1	-0,116903
0,044167	0,1	-0,101188
0,045833	0,1	-0,072486
0,047500	0,1	-0,075583
0,049167	0,1	-0,091204
0,050833	0,1	-0,082142
0,052500	0,1	-0,108420
0,054167	0,1	-0,044346
0,055833	0,1	-0,058960
0,057500	0,1	-0,042428
0,059167	0,1	-0,058213
0,060833	0,1	-0,087248
0,062500	0,1	-0,066544
0,064167	0,1	-0,087724
0,065833	0,1	-0,057749
0,067500	0,1	-0,063533
0,069167	0,1	-0,055943
0,070833	0,1	-0,069411
0,072500	0,1	-0,063580
0,074167	0,1	-0,049838
0,075833	0,1	-0,057864
0,077500	0,1	-0,056292
0,079167	0,1	-0,070033
0,080833	0,1	-0,040032
0,082500	0,1	-0,088798
0,084167	0,1	-0,022199
0,085833	0,1	-0,051399
0,087500	0,1	-0,045429
0,089167	0,1	-0,079442
0,090833	0,1	-0,024391
0,092500	0,1	-0,075342
0,094167	0,1	-0,038379
0,095833	0,1	-0,077499
0,097500	0,1	-0,052801
0,099167	0,1	-0,037732
0,100833	0,1	-0,050349
0,102500	0,1	-0,030508
0,104167	0,1	-0,084552
0,105833	0,1	-0,050070
0,107500	0,1	-0,036178
0,109167	0,1	-0,056990
0,110833	0,1	-0,029080
0,112500	0,1	-0,067110
0,114167	0,1	-0,122753
0,115833	0,1	-0,107665
0,117500	0,1	-0,054733
0,119167	0,1	-0,085693
0,120833	0,1	-0,104713
0,122500	0,1	-0,054878
0,124167	0,1	-0,091700
0,125833	0,1	-0,093132
0,127500	0,1	-0,093133
0,129167	0,1	-0,041856
0,130833	0,1	-0,104254
0,132500	0,1	-0,049848
0,134167	0,1	-0,051676
0,135833	0,1	-0,081536
0,137500	0,1	-0,054873
0,139167	0,1	-0,078371
0,140833	0,1	-0,050214
0,142500	0,1	-0,048574
0,144167	0,1	-0,056290
0,145833	0,1	-0,051907
0,147500	0,1	-0,063823
0,149167	0,1	-0,049984
0,150833	0,1	-0,064217
0,152500	0,1	-0,067963
0,154167	0,1	-0,061593
0,155833	0,1	-0,035187
0,157500	0,1	-0,038016
0,159167	0,1	-0,049687
0,160833	0,1	-0,052008
0,162500	0,1	-0,052898
0,164167	0,1	-0,036820
0,165833	0,1	-0,059847
0,167500	0,1	-0,054535
0,169167	0,1	-0,050085
0,170833	0,1	-0,057099
0,172500	0,1	-0,064113
0,174167	0,1	-0,081662
0,175833	0,1	-0,018389
0,177500	0,1	-0,078215
0,179167	0,1	-0,040924
0,180833	0,1	-0,059145
0,182500	0,1	-0,063348
0,184167	0,1	-0,070343
0,185833	0,1	-0,035604
0,187500	0,1	-0,055831
0,189167	0,1	-0,033592
0,190833	0,1	-0,047411
0,192500	0,1	-0,050516
0,194167	0,1	-0,067424
0,195833	0,1	-0,067304
0,197500	0,1	0,004563
0,199167	0,1	-0,035214
0,200833	0,1	-0,063737
0,202500	0,1	-0,088742
0,204167	0,1	-0,090048
0,205833	0,1	-0,062714
0,207500	0,1	-0,041973
0,209167	0,1	-0,059186
0,210833	0,1	-0,051802
0,212500	0,1	-0,038953
0,214167	0,1	-0,065971
0,215833	0,1	-0,081186
0,217500	0,1	-0,049759
0,219167	0,1	-0,042385
0,220833	0,1	-0,074952
0,222500	0,1	-0,057517
0,224167	0,1	-0,071316
0,225833	0,1	-0,026146
0,227500	0,1	-0,063278
0,229167	0,1	-0,051700
0,230833	0,1	-0,049689
0,232500	0,1	-0,069846
0,234167	0,1	-0,044916
0,235833	0,1	-0,044910
0,237500	0,1	-0,080996
0,239167	0,1	-0,074943
0,240833	0,1	-0,022484
0,242500	0,1	-0,066361
0,244167	0,1	-0,034670
0,245833	0,1	-0,056060
0,247500	0,1	-0,039760
0,249167	0,1	-0,034106
0,250833	0,1	-0,024895
0,252500	0,1	-0,018459
0,254167	0,1	-0,055932
0,255833	0,1	-0,030199
0,257500	0,1	-0,032923
0,259167	0,1	-0,054114
0,260833	0,1	-0,049256
0,262500	0,1	-0,076569
0,264167	0,1	-0,066333
0,265833	0,1	-0,075722
0,267500	0,1	-0,029934
0,269167	0,1	-0,010514
0,270833	0,1	-0,093466
0,272500	0,1	-0,072916
0,274167	0,1	-0,064099
0,275833	0,1	0,006116
0,277500	0,1	-0,059713
0,279167	0,1	-0,031566
0,280833	0,1	-0,070915
0,282500	0,1	-0,062957
0,284167	0,1	-0,055196
0,285833	0,1	-0,062108
0,287500	0,1	-0,034090
0,289167	0,1	-0,024337
0,290833	0,1	0,003623
0,292500	0,1	-0,055118
0,294167	0,1	-0,047934
0,295833	0,1	-0,024631
0,297500	0,1	-0,049042
0,299167	0,1	0,008748
0,300833	0,1	-0,028631
0,302500	0,1	-0,097133
0,304167	0,1	-0,046453
0,305833	0,1	-0,021631
0,307500	0,1	-0,056554
0,309167	0,1	-0,051907
0,310833	0,1	-0,050456
0,312500	0,1	-0,066535
0,314167	0,1	-0,047999
0,315833	0,1	-0,034812
0,317500	0,1	-0,014714
0,319167	0,1	-0,067310
0,320833	0,1	-0,027657
0,322500	0,1	-0,048711
0,324167	0,1	-0,067756
0,325833	0,1	-0,023746
0,327500	0,1	-0,062618
0,329167	0,1	-0,039990
0,330833	0,1	-0,078905
0,332500	0,1	-0,060769
0,334167	0,1	-0,002139
0,335833	0,1	-0,032256
0,337500	0,1	-0,067646
0,339167	0,1	-0,037032
0,340833	0,1	-0,050638
0,342500	0,1	-0,037564
0,344167	0,1	-0,049646
0,345833	0,1	-0,013704
0,347500	0,1	-0,026361
0,349167	0,1	-0,050037
0,350833	0,1	-0,048636
0,352500	0,1	-0,023119
0,354167	0,1	-0,061601
0,355833	0,1	-0,054992
0,357500	0,1	-0,052651
0,359167	0,1	-0,048717
0,360833	0,1	-0,038143
0,362500	0,1	-0,040851
0,364167	0,1	-0,021214
0,365833	0,1	-0,021417
0,367500	0,1	-0,060817
0,369167	0,1	-0,060703
0,370833	0,1	-0,065234
0,372500	0,1	-0,027325
0,374167	0,1	-0,055811
0,375833	0,1	-0,033822
0,377500	0,1	-0,056848
0,379167	0,1	-0,018488
0,380833	0,1	-0,017257
0,382500	0,1	-0,017837
0,384167	0,1	-0,016740
0,385833	0,1	-0,010095
0,387500	0,1	-0,037864
0,389167	0,1	-0,021586
0,390833	0,1	-0,047179
0,392500	0,1	-0,011283
0,394167	0,1	0,012730
0,395833	0,1	-0,022547
0,397500	0,1	-0,034474
0,399167	0,1	-0,028725
0,400833	0,1	0,005298
0,402500	0,1	-0,035006
0,404167	0,1	-0,036609
0,405833	0,1	-0,018421
0,407500	0,1	-0,015104
0,409167	0,1	-0,024850
0,410833	0,1	-0,011423
0,412500	0,1	-0,013633
0,414167	0,1	-0,059842
0,415833	0,1	-0,017661
0,417500	0,1	-0,030273
0,419167	0,1	-0,007926
0,420833	0,1	-0,028241
0,422500	0,1	-0,051052
0,424167	0,1	-0,057408
0,425833	0,1	-0,022275
0,427500	0,1	-0,051381
0,429167	0,1	-0,008635
0,430833	0,1	-0,043101
0,432500	0,1	-0,018608
0,434167	0,1	0,031127
0,435833	0,1	-0,071812
0,437500	0,1	0,018243
0,439167	0,1	-0,063786
0,440833	0,1	-0,048083
0,442500	0,1	-0,017596
0,444167	0,1	-0,043599
0,445833	0,1	-0,036983
0,447500	0,1	-0,050576
0,449167	0,1	-0,024217
0,450833	0,1	-0,009270
0,452500	0,1	-0,015164
0,454167	0,1	-0,018828
0,455833	0,1	-0,026301
0,457500	0,1	0,003663
0,459167	0,1	-0,031985
0,460833	0,1	-0,056618
0,462500	0,1	-0,036967
0,464167	0,1	-0,028456
0,465833	0,1	-0,040438
0,467500	0,1	-0,042219
0,469167	0,1	0,007158
0,470833	0,1	-0,063935
0,472500	0,1	-0,031794
0,474167	0,1	-0,013163
0,475833	0,1	-0,010965
0,477500	0,1	-0,011398
0,479167	0,1	-0,001692
0,480833	0,1	-0,031137
0,482500	0,1	-0,016681
0,484167	0,1	-0,028203
0,485833	0,1	0,010140
0,487500	0,1	-0,040239
0,489167	0,1	-0,012379
0,490833	0,1	-0,013881
0,492500	0,1	-0,024830
0,494167	0,1	-0,018790
0,495833	0,1	-0,018187
0,497500	0,1	-0,011090
0,499167	0,1	0,040360
0,500833	0,1	-0,029782
0,502500	0,1	-0,037103
0,504167	0,1	-0,037604
0,505833	0,1	-0,028828
0,507500	0,1	0,015605
0,509167	0,1	-0,048435
0,510833	0,1	0,009329
0,512500	0,1	-0,014437
0,514167	0,1	-0,028410
0,515833	0,1	-0,066324
0,517500	0,1	0,025819
0,519167	0,1	-0,017681
0,520833	0,1	-0,007696
0,522500	0,1	0,002198
0,524167	0,1	0,015155
0,525833	0,1	-0,008619
0,527500	0,1	0,011179
0,529167	0,1	-0,005598
0,530833	0,1	-0,019653
0,532500	0,1	-0,009042
0,534167	0,1	0,005510
0,535833	0,1	0,006174
0,537500	0,1	-0,004192
0,539167	0,1	-0,032297
0,540833	0,1	-0,027296
0,542500	0,1	-0,020570
0,544167	0,1	-0,018748
0,545833	0,1	-0,026093
0,547500	0,1	0,012025
0,549167	0,1	0,012012
0,550833	0,1	0,028217
0,552500	0,1	0,015927
0,554167	0,1	0,009695
0,555833	0,1	0,033100
0,557500	0,1	0,009722
0,559167	0,1	0,021055
0,560833	0,1	-0,022380
0,562500	0,1	0,012150
0,564167	0,1	-0,001045
0,565833	0,1	0,014886
0,567500	0,1	0,047548
0,569167	0,1	0,012207
0,570833	0,1	0,055328
0,572500	0,1	0,010699
0,574167	0,1	0,013606
0,575833	0,1	0,047527
0,577500	0,1	0,019326
0,579167	0,1	0,016589
0,580833	0,1	0,040533
0,582500	0,1	0,003410
0,584167	0,1	-0,004753
0,585833	0,1	0,021445
0,587500	0,1	0,006718
0,589167	0,1	0,024223
0,590833	0,1	0,016921
0,592500	0,1	0,047113
0,594167	0,1	0,022721
0,595833	0,1	0,030518
0,597500	0,1	0,021702
0,599167	0,1	0,014541
0,600833	0,1	0,033040
0,602500	0,1	0,028677
0,604167	0,1	0,019488
0,605833	0,1	0,017768
0,607500	0,1	0,089751
0,609167	0,1	0,012466
0,610833	0,1	-0,003592
0,612500	0,1	0,054602
0,614167	0,1	0,012562
0,615833	0,1	0,030702
0,617500	0,1	0,057093
0,619167	0,1	0,039963
0,620833	0,1	0,025576
0,622500	0,1	0,065745
0,624167	0,1	0,031832
0,625833	0,1	0,032154
0,627500	0,1	0,061936
0,629167	0,1	0,060434
0,630833	0,1	0,028023
0,632500	0,1	0,058584
0,634167	0,1	0,036010
0,635833	0,1	0,052523
0,637500	0,1	0,055898
0,639167	0,1	0,067927
0,640833	0,1	0,059877
0,642500	0,1	0,050188
0,644167	0,1	0,065790
0,645833	0,1	0,043049
0,647500	0,1	0,085061
0,649167	0,1	0,065673
0,650833	0,1	0,052694
0,652500	0,1	0,035079
0,654167	0,1	0,073055
0,655833	0,1	0,067328
0,657500	0,1	0,076042
0,659167	0,1	0,021382
0,660833	0,1	0,102998
0,662500	0,1	0,084513
0,664167	0,1	0,045788
0,665833	0,1	0,082204
0,667500	0,1	0,060335
0,669167	0,1	0,090816
0,670833	0,1	0,057401
0,672500	0,1	0,076165
0,674167	0,1	0,035601
0,675833	0,1	0,103730
0,677500	0,1	0,050012
0,679167	0,1	0,070617
0,680833	0,1	0,066231
0,682500	0,1	0,095434
0,684167	0,1	0,082569
0,685833	0,1	0,073043
0,687500	0,1	0,105953
0,689167	0,1	0,117677
0,690833	0,1	0,100683
0,692500	0,1	0,059988
0,694167	0,1	0,094894
0,695833	0,1	0,090370
0,697500	0,1	0,099227
0,699167	0,1	0,116805
0,700833	0,1	0,106542
0,702500	0,1	0,067211
0,704167	0,1	0,097009
0,705833	0,1	0,116705
0,707500	0,1	0,101909
0,709167	0,1	0,132849
0,710833	0,1	0,133538
0,712500	0,1	0,136419
0,714167	0,1	0,133915
0,715833	0,1	0,154904
0,717500	0,1	0,106098
0,719167	0,1	0,142853
0,720833	0,1	0,129588
0,722500	0,1	0,138569
0,724167	0,1	0,160781
0,725833	0,1	0,117815
0,727500	0,1	0,146769
0,729167	0,1	0,140335
0,730833	0,1	0,162958
0,732500	0,1	0,172554
0,734167	0,1	0,129016
0,735833	0,1	0,187532
0,737500	0,1	0,140744
0,739167	0,1	0,172585
0,740833	0,1	0,171663
0,742500	0,1	0,185365
0,744167	0,1	0,155456
0,745833	0,1	0,187313
0,747500	0,1	0,194355
0,749167	0,1	0,172925
0,750833	0,1	0,220115
0,752500	0,1	0,170642
0,754167	0,1	0,184723
0,755833	0,1	0,164278
0,757500	0,1	0,226079
0,759167	0,1	0,222931
0,760833	0,1	0,172240
0,762500	0,1	0,187669
0,764167	0,1	0,178663
0,765833	0,1	0,183945
0,767500	0,1	0,206738
0,769167	0,1	0,220612
0,770833	0,1	0,181652
0,772500	0,1	0,194644
0,774167	0,1	0,192646
0,775833	0,1	0,169226
0,777500	0,1	0,197397
0,779167	0,1	0,160228
0,780833	0,1	0,229877
0,782500	0,1	0,214163
0,784167	0,1	0,187867
0,785833	0,1	0,151857
0,787500	0,1	0,184557
0,789167	0,1	0,191271
0,790833	0,1	0,193941
0,792500	0,1	0,199128
0,794167	0,1	0,192207
0,795833	0,1	0,181294
0,797500	0,1	0,189950
0,799167	0,1	0,207834
0,800833	0,1	0,201962
0,802500	0,1	0,205308
0,804167	0,1	0,210846
0,805833	0,1	0,177511
0,807500	0,1	0,188804
0,809167	0,1	0,156968
0,810833	0,1	0,172903
0,812500	0,1	0,210814
0,814167	0,1	0,189000
0,815833	0,1	0,178134
0,817500	0,1	0,195321
0,819167	0,1	0,171026
0,820833	0,1	0,172996
0,822500	0,1	0,196591
0,824167	0,1	0,152375
0,825833	0,1	0,172902
0,827500	0,1	0,205778
0,829167	0,1	0,214835
0,830833	0,1	0,189680
0,832500	0,1	0,163700
0,834167	0,1	0,165971
0,835833	0,1	0,170464
0,837500	0,1	0,138767
0,839167	0,1	0,200398
0,840833	0,1	0,201091
0,842500	0,1	0,152377
0,844167	0,1	0,182341
0,845833	0,1	0,184375
0,847500	0,1	0,159104
0,849167	0,1	0,177208
0,850833	0,1	0,195120
0,852500	0,1	0,157347
0,854167	0,1	0,147648
0,855833	0,1	0,157435
0,857500	0,1	0,195343
0,859167	0,1	0,152438
0,860833	0,1	0,211009
0,862500	0,1	0,174100
0,864167	0,1	0,174872
0,865833	0,1	0,165510
0,867500	0,1	0,181162
0,869167	0,1	0,199967
0,870833	0,1	0,131677
0,872500	0,1	0,190139
0,874167	0,1	0,187196
0,875833	0,1	0,160617
0,877500	0,1	0,172262
0,879167	0,1	0,183920
0,880833	0,1	0,155809
0,882500	0,1	0,160709
0,884167	0,1	0,208016
0,885833	0,1	0,201156
0,887500	0,1	0,168937
0,889167	0,1	0,224906
0,890833	0,1	0,187807
0,892500	0,1	0,197753
0,894167	0,1	0,168344
0,895833	0,1	0,194275
0,897500	0,1	0,187587
0,899167	0,1	0,194858
0,900833	0,1	0,187611
0,902500	0,1	0,208589
0,904167	0,1	0,171506
0,905833	0,1	0,230231
0,907500	0,1	0,195636
0,909167	0,1	0,212265
0,910833	0,1	0,183149
0,912500	0,1	0,191687
0,914167	0,1	0,200762
0,915833	0,1	0,194837
0,917500	0,1	0,199002
0,919167	0,1	0,197605
0,920833	0,1	0,211687
0,922500	0,1	0,179298
0,924167	0,1	0,211292
0,925833	0,1	0,237266
0,927500	0,1	0,247606
0,929167	0,1	0,217980
0,930833	0,1	0,232420
0,932500	0,1	0,223981
0,934167	0,1	0,236210
0,935833	0,1	0,237335
0,937500	0,1	0,205305
0,939167	0,1	0,217717
0,940833	0,1	0,194061
0,942500	0,1	0,238356
0,944167	0,1	0,176485
0,945833	0,1	0,238731
0,947500	0,1	0,221993
0,949167	0,1	0,230723
0,950833	0,1	0,217849
0,952500	0,1	0,248116
0,954167	0,1	0,236531
0,955833	0,1	0,247957
0,957500	0,1	0,208831
0,959167	0,1	0,191516
0,960833	0,1	0,208503
0,962500	0,1	0,247336
0,964167	0,1	0,241063
0,965833	0,1	0,265906
0,967500	0,1	0,242439
0,969167	0,1	0,253808
0,970833	0,1	0,276044
0,972500	0,1	0,273001
0,974167	0,1	0,273997
0,975833	0,1	0,266265
0,977500	0,1	0,255189
0,979167	0,1	0,266162
0,980833	0,1	0,280187
0,982500	0,1	0,284270
0,984167	0,1	0,303918
0,985833	0,1	0,299067
0,987500	0,1	0,265269
0,989167	0,1	0,263335
0,990833	0,1	0,251036
0,992500	0,1	0,335750
0,994167	0,1	0,288550
0,995833	0,1	0,322755
0,997500	0,1	0,313042
0,999167	0,1	0,297046
1,000833	0,1	0,306807
1,002500	0,1	0,322923
1,004167	0,1	0,312103
1,005833	0,1	0,296057
1,007500	0,1	0,297655
1,009167	0,1	0,326519
1,010833	0,1	0,368356
1,012500	0,1	0,332659
1,014167	0,1	0,371499
1,015833	0,1	0,390038
1,017500	0,1	0,409338
1,019167	0,1	0,348496
1,020833	0,1	0,377988
1,022500	0,1	0,401435
1,024167	0,1	0,366448
1,025833	0,1	0,404614
1,027500	0,1	0,420706
1,029167	0,1	0,402952
1,030833	0,1	0,405808
1,032500	0,1	0,464569
1,034167	0,1	0,457968
1,035833	0,1	0,451030
1,037500	0,1	0,455973
1,039167	0,1	0,496855
1,040833	0,1	0,521238
1,042500	0,1	0,490736
1,044167	0,1	0,473999
1,045833	0,1	0,510057
1,047500	0,1	0,504285
1,049167	0,1	0,546838
1,050833	0,1	0,576333
1,052500	0,1	0,602296
1,054167	0,1	0,633103
1,055833	0,1	0,658940
1,057500	0,1	0,703664
1,059167	0,1	0,719107
1,060833	0,1	0,875212
1,062500	0,1	0,985298
1,064167	0,1	1,118666
1,065833	0,1	1,313343
1,067500	0,1	1,555624
1,069167	0,1	1,906794
1,070833	0,1	2,275386
1,072500	0,1	2,764959
1,074167	0,1	3,296713
1,075833	0,1	4,009815
1,077500	0,1	4,748397
1,079167	0,1	5,717026
1,080833	0,1	6,796464
1,082500	0,1	7,981095
1,084167	0,1	9,298396
1,085833	0,1	10,781856
1,087500	0,1	12,367305
1,089167	0,1	14,075404
1,090833	0,1	15,832652
1,092500	0,1	17,665584
1,094167	0,1	19,562002
1,095833	0,1	21,485361
1,097500	0,1	23,361466
1,099167	0,1	25,178588
1,100833	0,1	26,954115
1,102500	0,1	28,648966
1,104167	0,1	30,184269
1,105833	0,1	31,594355
1,107500	0,1	32,903390
1,109167	0,1	33,986600
1,110833	0,1	34,960131
1,112500	0,1	35,806401
1,114167	0,1	36,406881
1,115833	0,1	36,936626
1,117500	0,1	37,297097
1,119167	0,1	37,585993
1,120833	0,1	37,758414
1,122500	0,1	37,807000
1,124167	0,1	37,828217
1,125833	0,1	37,771538
1,127500	0,1	37,618298
1,129167	0,1	37,503068
1,130833	0,1	37,377631
1,132500	0,1	37,213317
1,134167	0,1	37,113806
1,135833	0,1	37,022714
1,137500	0,1	36,972163
1,139167	0,1	36,909984
1,140833	0,1	36,994257
1,142500	0,1	37,129360
1,144167	0,1	37,363097
1,145833	0,1	37,610965
1,147500	0,1	37,964690
1,149167	0,1	38,439720
1,150833	0,1	38,978969
1,152500	0,1	39,602932
1,154167	0,1	40,337029
1,155833	0,1	41,111482
1,157500	0,1	41,969891
1,159167	0,1	42,868384
1,160833	0,1	43,797897
1,162500	0,1	44,794082
1,164167	0,1	45,799701
1,165833	0,1	46,783341
1,167500	0,1	47,786713
1,169167	0,1	48,755787
1,170833	0,1	49,691797
1,172500	0,1	50,590431
1,174167	0,1	51,465993
1,175833	0,1	52,253795
1,177500	0,1	52,935500
1,179167	0,1	53,614216
1,180833	0,1	54,192971
1,182500	0,1	54,673049
1,184167	0,1	55,136903
1,185833	0,1	55,491402
1,187500	0,1	55,826990
1,189167	0,1	56,072087
1,190833	0,1	56,322464
1,192500	0,1	56,460751
1,194167	0,1	56,651058
1,195833	0,1	56,798769
1,197500	0,1	57,031723
1,199167	0,1	57,364369
1,200833	0,1	57,656094
1,202500	0,1	58,182146
1,204167	0,1	58,773254
1,205833	0,1	59,507535
1,207500	0,1	60,414703
1,209167	0,1	61,554849
1,210833	0,1	62,844269
1,212500	0,1	64,396042
1,214167	0,1	66,184418
1,215833	0,1	68,144081
1,217500	0,1	70,366439
1,219167	0,1	72,759136
1,220833	0,1	75,319763
1,222500	0,1	78,047928
1,224167	0,1	80,951773
1,225833	0,1	83,930556
1,227500	0,1	87,004470
1,229167	0,1	90,068102
1,230833	0,1	93,151398
1,232500	0,1	96,220500
1,234167	0,1	99,205867
1,235833	0,1	102,069534
1,237500	0,1	104,855497
1,239167	0,1	107,392681
1,240833	0,1	109,744779
1,242500	0,1	111,951745
1,244167	0,1	113,853753
1,245833	0,1	115,619740
1,247500	0,1	117,067390
1,249167	0,1	118,286233
1,250833	0,1	119,327850
1,252500	0,1	120,065989
1,254167	0,1	120,501980
1,255833	0,1	120,658073
1,257500	0,1	120,703938
1,259167	0,1	120,358301
1,260833	0,1	119,832751
1,262500	0,1	119,084959
1,264167	0,1	118,149021
1,265833	0,1	116,979775
1,267500	0,1	115,558647
1,269167	0,1	114,029267
1,270833	0,1	112,328447
1,272500	0,1	110,454112
1,274167	0,1	108,426523
1,275833	0,1	106,324376
1,277500	0,1	104,067016
1,279167	0,1	101,675283
1,280833	0,1	99,350451
1,282500	0,1	96,841329
1,284167	0,1	94,293111
1,285833	0,1	91,748154
1,287500	0,1	89,207879
1,289167	0,1	86,660140
1,290833	0,1	84,031424
1,292500	0,1	81,563309
1,294167	0,1	79,012358
1,295833	0,1	76,558425
1,297500	0,1	74,112440
1,299167	0,1	71,679279
1,300833	0,1	69,425808
1,302500	0,1	67,207372
1,304167	0,1	65,006187
1,305833	0,1	62,912040
1,307500	0,1	60,856380
1,309167	0,1	58,889374
1,310833	0,1	57,014668
1,312500	0,1	55,221527
1,314167	0,1	53,455520
1,315833	0,1	51,822618
1,317500	0,1	50,199530
1,319167	0,1	48,759603
1,320833	0,1	47,203480
1,322500	0,1	45,856924
1,324167	0,1	44,491525
1,325833	0,1	43,206996
1,327500	0,1	41,961817
1,329167	0,1	40,747621
1,330833	0,1	39,629676
1,332500	0,1	38,516066
1,334167	0,1	37,514932
1,335833	0,1	36,480552
1,337500	0,1	35,495468
1,339167	0,1	34,561463
1,340833	0,1	33,705469
1,342500	0,1	32,790470
1,344167	0,1	31,947708
1,345833	0,1	31,160884
1,347500	0,1	30,313726
1,349167	0,1	29,550677
1,350833	0,1	28,839881
1,352500	0,1	28,077671
1,354167	0,1	27,418492
1,355833	0,1	26,747871
1,357500	0,1	26,074774
1,359167	0,1	25,468891
1,360833	0,1	24,818933
1,362500	0,1	24,209684
1,364167	0,1	23,639183
1,365833	0,1	23,064568
1,367500	0,1	22,502817
1,369167	0,1	21,966282
1,370833	0,1	21,416170
1,372500	0,1	20,969595
1,374167	0,1	20,431472
1,375833	0,1	19,963111
1,377500	0,1	19,443184
1,379167	0,1	19,034295
1,380833	0,1	18,569167
1,382500	0,1	18,143429
1,384167	0,1	17,732554
1,385833	0,1	17,296404
1,387500	0,1	16,922526
1,389167	0,1	16,562260
1,390833	0,1	16,169251
1,392500	0,1	15,788178
1,394167	0,1	15,441608
1,395833	0,1	15,168148
1,397500	0,1	14,780541
1,399167	0,1	14,508513
1,400833	0,1	14,179055
1,402500	0,1	13,874973
1,404167	0,1	13,583169
1,405833	0,1	13,292711
1,407500	0,1	13,076058
1,409167	0,1	12,771894
1,410833	0,1	12,588408
1,412500	0,1	12,303555
1,414167	0,1	12,117610
1,415833	0,1	11,885961
1,417500	0,1	11,652105
1,419167	0,1	11,452653
1,420833	0,1	11,261131
1,422500	0,1	11,064733
1,424167	0,1	10,861430
1,425833	0,1	10,698278
1,427500	0,1	10,537335
1,429167	0,1	10,350450
1,430833	0,1	10,212174
1,432500	0,1	10,049343
1,434167	0,1	9,906795
1,435833	0,1	9,760103
1,437500	0,1	9,597210
1,439167	0,1	9,452352
1,440833	0,1	9,357362
1,442500	0,1	9,208530
1,444167	0,1	9,087939
1,445833	0,1	8,967593
1,447500	0,1	8,843305
1,449167	0,1	8,730362
1,450833	0,1	8,578255
1,452500	0,1	8,478994
1,454167	0,1	8,411872
1,455833	0,1	8,268712
1,457500	0,1	8,186397
1,459167	0,1	8,056875
1,460833	0,1	7,986511
1,462500	0,1	7,864168
1,464167	0,1	7,824108
1,465833	0,1	7,723602
1,467500	0,1	7,654904
1,469167	0,1	7,568074
1,470833	0,1	7,473483
1,472500	0,1	7,347442
1,474167	0,1	7,321949
1,475833	0,1	7,276169
1,477500	0,1	7,189693
1,479167	0,1	7,118859
1,480833	0,1	7,107471
1,482500	0,1	6,999327
1,484167	0,1	6,986075
1,485833	0,1	6,900957
1,487500	0,1	6,891809
1,489167	0,1	6,805033
1,490833	0,1	6,776992
1,492500	0,1	6,758277
1,494167	0,1	6,742077
1,495833	0,1	6,690507
1,497500	0,1	6,647961
1,499167	0,1	6,641528
1,500833	0,1	6,578806
1,502500	0,1	6,546778
1,504167	0,1	6,565769
1,505833	0,1	6,534877
1,507500	0,1	6,542697
1,509167	0,1	6,506873
1,510833	0,1	6,439970
1,512500	0,1	6,442725
1,514167	0,1	6,471406
1,515833	0,1	6,416149
1,517500	0,1	6,408232
1,519167	0,1	6,377088
1,520833	0,1	6,351493
1,522500	0,1	6,343855
1,524167	0,1	6,348041
1,525833	0,1	6,314392
1,527500	0,1	6,316118
1,529167	0,1	6,307585
1,530833	0,1	6,276619
1,532500	0,1	6,308415
1,534167	0,1	6,235166
1,535833	0,1	6,212743
1,537500	0,1	6,196725
1,539167	0,1	6,193849
1,540833	0,1	6,158864
1,542500	0,1	6,168372
1,544167	0,1	6,134067
1,545833	0,1	6,120677
1,547500	0,1	6,055320
1,549167	0,1	6,043060
1,550833	0,1	6,032901
1,552500	0,1	6,028566
1,554167	0,1	5,984837
1,555833	0,1	5,960537
1,557500	0,1	5,913988
1,559167	0,1	5,918056
1,560833	0,1	5,862379
1,562500	0,1	5,902097
1,564167	0,1	5,823869
1,565833	0,1	5,792890
1,567500	0,1	5,753014
1,569167	0,1	5,712437
1,570833	0,1	5,690732
1,572500	0,1	5,692397
1,574167	0,1	5,643301
1,575833	0,1	5,608000
1,577500	0,1	5,612802
1,579167	0,1	5,538248
1,580833	0,1	5,504510
1,582500	0,1	5,489558
1,584167	0,1	5,519635
1,585833	0,1	5,442871
1,587500	0,1	5,430211
1,589167	0,1	5,348170
1,590833	0,1	5,354645
1,592500	0,1	5,302691
1,594167	0,1	5,285658
1,595833	0,1	5,209263
1,597500	0,1	5,252347
1,599167	0,1	5,174844
1,600833	0,1	5,205190
1,602500	0,1	5,150216
1,604167	0,1	5,121694
1,605833	0,1	5,060728
1,607500	0,1	5,035428
1,609167	0,1	5,004666
1,610833	0,1	4,993769
1,612500	0,1	4,950597
1,614167	0,1	4,961172
1,615833	0,1	4,929914
1,617500	0,1	4,910183
1,619167	0,1	4,849820
1,620833	0,1	4,801006
1,622500	0,1	4,807762
1,624167	0,1	4,760381
1,625833	0,1	4,721671
1,627500	0,1	4,665341
1,629167	0,1	4,659456
1,630833	0,1	4,671044
1,632500	0,1	4,659010
1,634167	0,1	4,616562
1,635833	0,1	4,620442
1,637500	0,1	4,588003
1,639167	0,1	4,575370
1,640833	0,1	4,552570
1,642500	0,1	4,524898
1,644167	0,1	4,524353
1,645833	0,1	4,501911
1,647500	0,1	4,503000
1,649167	0,1	4,514504
1,650833	0,1	4,492916
1,652500	0,1	4,511216
1,654167	0,1	4,520388
1,655833	0,1	4,503242
1,657500	0,1	4,520386
1,659167	0,1	4,541416
1,660833	0,1	4,575808
1,662500	0,1	4,618087
1,664167	0,1	4,639861
1,665833	0,1	4,630352
1,667500	0,1	4,719244
1,669167	0,1	4,768227
1,670833	0,1	4,809733
1,672500	0,1	4,850214
1,674167	0,1	4,892142
1,675833	0,1	5,036266
1,677500	0,1	5,105804
1,679167	0,1	5,213586
1,680833	0,1	5,267011
1,682500	0,1	5,413951
1,684167	0,1	5,490813
1,685833	0,1	5,635346
1,687500	0,1	5,735285
1,689167	0,1	5,869032
1,690833	0,1	5,999773
1,692500	0,1	6,146289
1,694167	0,1	6,361491
1,695833	0,1	6,496327
1,697500	0,1	6,687007
1,699167	0,1	6,863453
1,700833	0,1	7,041461
1,702500	0,1	7,264647
1,704167	0,1	7,441981
1,705833	0,1	7,624161
1,707500	0,1	7,862662
1,709167	0,1	8,053446
1,710833	0,1	8,279841
1,712500	0,1	8,491698
1,714167	0,1	8,740399
1,715833	0,1	8,908076
1,717500	0,1	9,192628
1,719167	0,1	9,393385
1,720833	0,1	9,606451
1,722500	0,1	9,850178
1,724167	0,1	10,102440
1,725833	0,1	10,371044
1,727500	0,1	10,509046
1,729167	0,1	10,773041
1,730833	0,1	10,941770
1,732500	0,1	11,172717
1,734167	0,1	11,381791
1,735833	0,1	11,594295
1,737500	0,1	11,785239
1,739167	0,1	11,914504
1,740833	0,1	12,112550
1,742500	0,1	12,347353
1,744167	0,1	12,440827
1,745833	0,1	12,606516
1,747500	0,1	12,798512
1,749167	0,1	12,923213
1,750833	0,1	13,038676
1,752500	0,1	13,173827
1,754167	0,1	13,246311
1,755833	0,1	13,382799
1,757500	0,1	13,485415
1,759167	0,1	13,547749
1,760833	0,1	13,642811
1,762500	0,1	13,692734
1,764167	0,1	13,736197
1,765833	0,1	13,805470
1,767500	0,1	13,820843
1,769167	0,1	13,855865
1,770833	0,1	13,877028
1,772500	0,1	13,871983
1,774167	0,1	13,886016
1,775833	0,1	13,875276
1,777500	0,1	13,830091
1,779167	0,1	13,854272
1,780833	0,1	13,748569
1,782500	0,1	13,692738
1,784167	0,1	13,624165
1,785833	0,1	13,569039
1,787500	0,1	13,496270
1,789167	0,1	13,402191
1,790833	0,1	13,288377
1,792500	0,1	13,171877
1,794167	0,1	13,078523
1,795833	0,1	12,972221
1,797500	0,1	12,840227
1,799167	0,1	12,750219
1,800833	0,1	12,599409
1,802500	0,1	12,474167
1,804167	0,1	12,352060
1,805833	0,1	12,199200
1,807500	0,1	12,019536
1,809167	0,1	11,838342
1,810833	0,1	11,738269
1,812500	0,1	11,584314
1,814167	0,1	11,395675
1,815833	0,1	11,261343
1,817500	0,1	11,122128
1,819167	0,1	10,892243
1,820833	0,1	10,725353
1,822500	0,1	10,538601
1,824167	0,1	10,384885
1,825833	0,1	10,200684
1,827500	0,1	10,061649
1,829167	0,1	9,878788
1,830833	0,1	9,708985
1,832500	0,1	9,561363
1,834167	0,1	9,359559
1,835833	0,1	9,281718
1,837500	0,1	9,061271
1,839167	0,1	8,868630
1,840833	0,1	8,763629
1,842500	0,1	8,618756
1,844167	0,1	8,520673
1,845833	0,1	8,372559
1,847500	0,1	8,266642
1,849167	0,1	8,164288
1,850833	0,1	8,048976
1,852500	0,1	7,942289
1,854167	0,1	7,853830
1,855833	0,1	7,773496
1,857500	0,1	7,687940
1,859167	0,1	7,602118
1,860833	0,1	7,567478
1,862500	0,1	7,509842
1,864167	0,1	7,422373
1,865833	0,1	7,346753
1,867500	0,1	7,318311
1,869167	0,1	7,283354
1,870833	0,1	7,255572
1,872500	0,1	7,163870
1,874167	0,1	7,126209
1,875833	0,1	7,088097
1,877500	0,1	7,021396
1,879167	0,1	6,965126
1,880833	0,1	6,941458
1,882500	0,1	6,898434
1,884167	0,1	6,840885
1,885833	0,1	6,794497
1,887500	0,1	6,773170
1,889167	0,1	6,749990
1,890833	0,1	6,673189
1,892500	0,1	6,616312
1,894167	0,1	6,586061
1,895833	0,1	6,587729
1,897500	0,1	6,531540
1,899167	0,1	6,483331
1,900833	0,1	6,482205
1,902500	0,1	6,409923
1,904167	0,1	6,388709
1,905833	0,1	6,395584
1,907500	0,1	6,359862
1,909167	0,1	6,334574
1,910833	0,1	6,337270
1,912500	0,1	6,262577
1,914167	0,1	6,264442
1,915833	0,1	6,254971
1,917500	0,1	6,200921
1,919167	0,1	6,158408
1,920833	0,1	6,141886
1,922500	0,1	6,110447
1,924167	0,1	6,104302
1,925833	0,1	6,103969
1,927500	0,1	6,052993
1,929167	0,1	6,026146
1,930833	0,1	5,968796
1,932500	0,1	5,968532
1,934167	0,1	5,947601
1,935833	0,1	5,884110
1,937500	0,1	5,875868
1,939167	0,1	5,873209
1,940833	0,1	5,843353
1,942500	0,1	5,846458
1,944167	0,1	5,808638
1,945833	0,1	5,809141
1,947500	0,1	5,768023
1,949167	0,1	5,743556
1,950833	0,1	5,708639
1,952500	0,1	5,744508
1,954167	0,1	5,744763
1,955833	0,1	5,697889
1,957500	0,1	5,677236
1,959167	0,1	5,679530
1,960833	0,1	5,676512
1,962500	0,1	5,643821
1,964167	0,1	5,667190
1,965833	0,1	5,650454
1,967500	0,1	5,634676
1,969167	0,1	5,633780
1,970833	0,1	5,666821
1,972500	0,1	5,690053
1,974167	0,1	5,634704
1,975833	0,1	5,658808
1,977500	0,1	5,701381
1,979167	0,1	5,709862
1,980833	0,1	5,669369
1,982500	0,1	5,705459
1,984167	0,1	5,746440
1,985833	0,1	5,741669
1,987500	0,1	5,705701
1,989167	0,1	5,782671
1,990833	0,1	5,785446
1,992500	0,1	5,788434
1,994167	0,1	5,829362
1,995833	0,1	5,805034
1,997500	0,1	5,881195
1,999167	0,1	5,935325
2,000833	0,1	5,926515
2,002500	0,1	5,930208
2,004167	0,1	5,975618
2,005833	0,1	5,980478
2,007500	0,1	6,060886
2,009167	0,1	6,031159
2,010833	0,1	6,099538
2,012500	0,1	6,134869
2,014167	0,1	6,146703
2,015833	0,1	6,174673
2,017500	0,1	6,233711
2,019167	0,1	6,259759
2,020833	0,1	6,277999
2,022500	0,1	6,335096
2,024167	0,1	6,381999
2,025833	0,1	6,376034
2,027500	0,1	6,458919
2,029167	0,1	6,492057
2,030833	0,1	6,542218
2,032500	0,1	6,513750
2,034167	0,1	6,626601
2,035833	0,1	6,664883
2,037500	0,1	6,674862
2,039167	0,1	6,747077
2,040833	0,1	6,740481
2,042500	0,1	6,811328
2,044167	0,1	6,837410
2,045833	0,1	6,893191
2,047500	0,1	6,931942
2,049167	0,1	6,999657
2,050833	0,1	7,010291
2,052500	0,1	7,063385
2,054167	0,1	7,102530
2,055833	0,1	7,134954
2,057500	0,1	7,222454
2,059167	0,1	7,237572
2,060833	0,1	7,266553
2,062500	0,1	7,355946
2,064167	0,1	7,367142
2,065833	0,1	7,423658
2,067500	0,1	7,416406
2,069167	0,1	7,458635
2,070833	0,1	7,519607
2,072500	0,1	7,589385
2,074167	0,1	7,607786
2,075833	0,1	7,614964
2,077500	0,1	7,688565
2,079167	0,1	7,748749
2,080833	0,1	7,733549
2,082500	0,1	7,763139
2,084167	0,1	7,836274
2,085833	0,1	7,871302
2,087500	0,1	7,887643
2,089167	0,1	7,861558
2,090833	0,1	7,883067
2,092500	0,1	7,977321
2,094167	0,1	7,983632
2,095833	0,1	7,983047
2,097500	0,1	8,025275
2,099167	0,1	8,087619
2,100833	0,1	8,032489
2,102500	0,1	8,070284
2,104167	0,1	8,128350
2,105833	0,1	8,137040
2,107500	0,1	8,155443
2,109167	0,1	8,203824
2,110833	0,1	8,199913
2,112500	0,1	8,199673
2,114167	0,1	8,211540
2,115833	0,1	8,282851
2,117500	0,1	8,266620
2,119167	0,1	8,268341
2,120833	0,1	8,266677
2,122500	0,1	8,247238
2,124167	0,1	8,296929
2,125833	0,1	8,277602
2,127500	0,1	8,304963
2,129167	0,1	8,369493
2,130833	0,1	8,349888
2,132500	0,1	8,323349
2,134167	0,1	8,302991
2,135833	0,1	8,346980
2,137500	0,1	8,370754
2,139167	0,1	8,348802
2,140833	0,1	8,335752
2,142500	0,1	8,308324
2,144167	0,1	8,303343
2,145833	0,1	8,313985
2,147500	0,1	8,317416
2,149167	0,1	8,298709
2,150833	0,1	8,300152
2,152500	0,1	8,297735
2,154167	0,1	8,274015
2,155833	0,1	8,270641
2,157500	0,1	8,237134
2,159167	0,1	8,233125
2,160833	0,1	8,241999
2,162500	0,1	8,199701
2,164167	0,1	8,216811
2,165833	0,1	8,162512
2,167500	0,1	8,151189
2,169167	0,1	8,080527
2,170833	0,1	8,138828
2,172500	0,1	8,102649
2,174167	0,1	8,109876
2,175833	0,1	8,080269
2,177500	0,1	8,072633
2,179167	0,1	8,018500
2,180833	0,1	7,995240
2,182500	0,1	7,944198
2,184167	0,1	7,911488
2,185833	0,1	7,959770
2,187500	0,1	7,896270
2,189167	0,1	7,886719
2,190833	0,1	7,858179
2,192500	0,1	7,854505
2,194167	0,1	7,792863
2,195833	0,1	7,773046
2,197500	0,1	7,772292
2,199167	0,1	7,769098
2,200833	0,1	7,747825
2,202500	0,1	7,705382
2,204167	0,1	7,691948
2,205833	0,1	7,677955
2,207500	0,1	7,654721
2,209167	0,1	7,621953
2,210833	0,1	7,588871
2,212500	0,1	7,594144
2,214167	0,1	7,553122
2,215833	0,1	7,504548
2,217500	0,1	7,482891
2,219167	0,1	7,434231
2,220833	0,1	7,438583
2,222500	0,1	7,468877
2,224167	0,1	7,441297
2,225833	0,1	7,393842
2,227500	0,1	7,340988
2,229167	0,1	7,342083
2,230833	0,1	7,323252
2,232500	0,1	7,330797
2,234167	0,1	7,300976
2,235833	0,1	7,292484
2,237500	0,1	7,289876
2,239167	0,1	7,297048
2,240833	0,1	7,238234
2,242500	0,1	7,210551
2,244167	0,1	7,221254
2,245833	0,1	7,192100
2,247500	0,1	7,167497
2,249167	0,1	7,157985
2,250833	0,1	7,143633
2,252500	0,1	7,122854
2,254167	0,1	7,141022
2,255833	0,1	7,100029
2,257500	0,1	7,072445
2,259167	0,1	7,054648
2,260833	0,1	7,047006
2,262500	0,1	7,011795
2,264167	0,1	7,011693
2,265833	0,1	7,034140
2,267500	0,1	7,012257
2,269167	0,1	6,927222
2,270833	0,1	6,940612
2,272500	0,1	6,937729
2,274167	0,1	6,898523
2,275833	0,1	6,894041
2,277500	0,1	6,854561
2,279167	0,1	6,906699
2,280833	0,1	6,916768
2,282500	0,1	6,853173
2,284167	0,1	6,862656
2,285833	0,1	6,806145
2,287500	0,1	6,810137
2,289167	0,1	6,811068
2,290833	0,1	6,793565
2,292500	0,1	6,778297
2,294167	0,1	6,752874
2,295833	0,1	6,722711
2,297500	0,1	6,692541
2,299167	0,1	6,726048
2,300833	0,1	6,729779
2,302500	0,1	6,732105
2,304167	0,1	6,647604
2,305833	0,1	6,643947
2,307500	0,1	6,658286
2,309167	0,1	6,635392
2,310833	0,1	6,630172
2,312500	0,1	6,598436
2,314167	0,1	6,593583
2,315833	0,1	6,601139
2,317500	0,1	6,559725
2,319167	0,1	6,554406
2,320833	0,1	6,532647
2,322500	0,1	6,514029
2,324167	0,1	6,513751
2,325833	0,1	6,492995
2,327500	0,1	6,474947
2,329167	0,1	6,469648
2,330833	0,1	6,444898
2,332500	0,1	6,459314
2,334167	0,1	6,434386
2,335833	0,1	6,394383
2,337500	0,1	6,378477
2,339167	0,1	6,378365
2,340833	0,1	6,401920
2,342500	0,1	6,320154
2,344167	0,1	6,384039
2,345833	0,1	6,315872
2,347500	0,1	6,313432
2,349167	0,1	6,315494
2,350833	0,1	6,296328
2,352500	0,1	6,264220
2,354167	0,1	6,295104
2,355833	0,1	6,311474
2,357500	0,1	6,258755
2,359167	0,1	6,239059
2,360833	0,1	6,249536
2,362500	0,1	6,233739
2,364167	0,1	6,249367
2,365833	0,1	6,234390
2,367500	0,1	6,216972
2,369167	0,1	6,239700
2,370833	0,1	6,217017
2,372500	0,1	6,225360
2,374167	0,1	6,234777
2,375833	0,1	6,225085
2,377500	0,1	6,237380
2,379167	0,1	6,280428
2,380833	0,1	6,244801
2,382500	0,1	6,301800
2,384167	0,1	6,345995
2,385833	0,1	6,298378
2,387500	0,1	6,391293
2,389167	0,1	6,398188
2,390833	0,1	6,440601
2,392500	0,1	6,460049
2,394167	0,1	6,503297
2,395833	0,1	6,602522
2,397500	0,1	6,664332
2,399167	0,1	6,710029
2,400833	0,1	6,769432
2,402500	0,1	6,868406
2,404167	0,1	6,994519
2,405833	0,1	7,075582
2,407500	0,1	7,140264
2,409167	0,1	7,268499
2,410833	0,1	7,405280
2,412500	0,1	7,562304
2,414167	0,1	7,693499
2,415833	0,1	7,867531
2,417500	0,1	8,019351
2,419167	0,1	8,174232
2,420833	0,1	8,362367
2,422500	0,1	8,555968
2,424167	0,1	8,809379
2,425833	0,1	9,009648
2,427500	0,1	9,213721
2,429167	0,1	9,450466
2,430833	0,1	9,713686
2,432500	0,1	9,931593
2,434167	0,1	10,188537
2,435833	0,1	10,459328
2,437500	0,1	10,684481
2,439167	0,1	10,951191
2,440833	0,1	11,216871
2,442500	0,1	11,498929
2,444167	0,1	11,741453
2,445833	0,1	12,033742
2,447500	0,1	12,305284
2,449167	0,1	12,547605
2,450833	0,1	12,772278
2,452500	0,1	13,059170
2,454167	0,1	13,289695
2,455833	0,1	13,549200
2,457500	0,1	13,799981
2,459167	0,1	14,009219
2,460833	0,1	14,220662
2,462500	0,1	14,462384
2,464167	0,1	14,673789
2,465833	0,1	14,862199
2,467500	0,1	15,052678
2,469167	0,1	15,273946
2,470833	0,1	15,399206
2,472500	0,1	15,564778
2,474167	0,1	15,751046
2,475833	0,1	15,887748
2,477500	0,1	16,076423
2,479167	0,1	16,222948
2,480833	0,1	16,337409
2,482500	0,1	16,488257
2,484167	0,1	16,613323
2,485833	0,1	16,745337
2,487500	0,1	16,889019
2,489167	0,1	16,997408
2,490833	0,1	17,163120
2,492500	0,1	17,229843
2,494167	0,1	17,367493
2,495833	0,1	17,530940
2,497500	0,1	17,647486
2,499167	0,1	17,806619
2,500833	0,1	17,943887
2,502500	0,1	18,083250
2,504167	0,1	18,245889
2,505833	0,1	18,412358
2,507500	0,1	18,565439
2,509167	0,1	18,788119
2,510833	0,1	18,954157
2,512500	0,1	19,157671
2,514167	0,1	19,372290
2,515833	0,1	19,585478
2,517500	0,1	19,827960
2,519167	0,1	20,077205
2,520833	0,1	20,385011
2,522500	0,1	20,555283
2,524167	0,1	20,919201
2,525833	0,1	21,124901
2,527500	0,1	21,499574
2,529167	0,1	21,832122
2,530833	0,1	22,055019
2,532500	0,1	22,471988
2,534167	0,1	22,796356
2,535833	0,1	23,140285
2,537500	0,1	23,508120
2,539167	0,1	23,850337
2,540833	0,1	24,266595
2,542500	0,1	24,640927
2,544167	0,1	24,995575
2,545833	0,1	25,346625
2,547500	0,1	25,753133
2,549167	0,1	26,152858
2,550833	0,1	26,559915
2,552500	0,1	26,963698
2,554167	0,1	27,371884
2,555833	0,1	27,675205
2,557500	0,1	28,051081
2,559167	0,1	28,430797
2,560833	0,1	28,832328
2,562500	0,1	29,149317
2,564167	0,1	29,541367
2,565833	0,1	29,823007
2,567500	0,1	30,134135
2,569167	0,1	30,436115
2,570833	0,1	30,765599
2,572500	0,1	31,012372
2,574167	0,1	31,259256
2,575833	0,1	31,552425
2,577500	0,1	31,777628
2,579167	0,1	31,992157
2,580833	0,1	32,187448
2,582500	0,1	32,363287
2,584167	0,1	32,564631
2,585833	0,1	32,699756
2,587500	0,1	32,817851
2,589167	0,1	32,992727
2,590833	0,1	33,063757
2,592500	0,1	33,171027
2,594167	0,1	33,236962
2,595833	0,1	33,266785
2,597500	0,1	33,272402
2,599167	0,1	33,283963
2,600833	0,1	33,251391
2,602500	0,1	33,280903
2,604167	0,1	33,263113
2,605833	0,1	33,241019
2,607500	0,1	33,192011
2,609167	0,1	33,111247
2,610833	0,1	32,965956
2,612500	0,1	32,883807
2,614167	0,1	32,784525
2,615833	0,1	32,615188
2,617500	0,1	32,546319
2,619167	0,1	32,318871
2,620833	0,1	32,197228
2,622500	0,1	31,984662
2,624167	0,1	31,847374
2,625833	0,1	31,647436
2,627500	0,1	31,411702
2,629167	0,1	31,216926
2,630833	0,1	30,993736
2,632500	0,1	30,764390
2,634167	0,1	30,517836
2,635833	0,1	30,247549
2,637500	0,1	29,999432
2,639167	0,1	29,720210
2,640833	0,1	29,482847
2,642500	0,1	29,198190
2,644167	0,1	28,878580
2,645833	0,1	28,603659
2,647500	0,1	28,331541
2,649167	0,1	28,047817
2,650833	0,1	27,657603
2,652500	0,1	27,417205
2,654167	0,1	27,026451
2,655833	0,1	26,711779
2,657500	0,1	26,415105
2,659167	0,1	26,120633
2,660833	0,1	25,763386
2,662500	0,1	25,395382
2,664167	0,1	25,128941
2,665833	0,1	24,767895
2,667500	0,1	24,433813
2,669167	0,1	24,040549
2,670833	0,1	23,718669
2,672500	0,1	23,373680
2,674167	0,1	23,028641
2,675833	0,1	22,717649
2,677500	0,1	22,371646
2,679167	0,1	22,027366
2,680833	0,1	21,677210
2,682500	0,1	21,324394
2,684167	0,1	20,987922
2,685833	0,1	20,677917
2,687500	0,1	20,288451
2,689167	0,1	19,994037
2,690833	0,1	19,687130
2,692500	0,1	19,327997
2,694167	0,1	19,023128
2,695833	0,1	18,696365
2,697500	0,1	18,383047
2,699167	0,1	18,066280
2,700833	0,1	17,786264
2,702500	0,1	17,467899
2,704167	0,1	17,163294
2,705833	0,1	16,863132
2,707500	0,1	16,537184
2,709167	0,1	16,240759
2,710833	0,1	15,987559
2,712500	0,1	15,729062
2,714167	0,1	15,420723
2,715833	0,1	15,175581
2,717500	0,1	14,885832
2,719167	0,1	14,652634
2,720833	0,1	14,427083
2,722500	0,1	14,139287
2,724167	0,1	13,882395
2,725833	0,1	13,667488
2,727500	0,1	13,420514
2,729167	0,1	13,186094
2,730833	0,1	12,941363
2,732500	0,1	12,706101
2,734167	0,1	12,470468
2,735833	0,1	12,285173
2,737500	0,1	12,086602
2,739167	0,1	11,856400
2,740833	0,1	11,716208
2,742500	0,1	11,477197
2,744167	0,1	11,324441
2,745833	0,1	11,150170
2,747500	0,1	10,956780
2,749167	0,1	10,746357
2,750833	0,1	10,576127
2,752500	0,1	10,421800
2,754167	0,1	10,239179
2,755833	0,1	10,074514
2,757500	0,1	9,927545
2,759167	0,1	9,736423
2,760833	0,1	9,630907
2,762500	0,1	9,473475
2,764167	0,1	9,304102
2,765833	0,1	9,211309
2,767500	0,1	9,062699
2,769167	0,1	8,920231
2,770833	0,1	8,792796
2,772500	0,1	8,665028
2,774167	0,1	8,500728
2,775833	0,1	8,419504
2,777500	0,1	8,302874
2,779167	0,1	8,220482
2,780833	0,1	8,044742
2,782500	0,1	7,954312
2,784167	0,1	7,858919
2,785833	0,1	7,737687
2,787500	0,1	7,607813
2,789167	0,1	7,487485
2,790833	0,1	7,465250
2,792500	0,1	7,308455
2,794167	0,1	7,225194
2,795833	0,1	7,133028
2,797500	0,1	7,040409
2,799167	0,1	6,939522
2,800833	0,1	6,867242
2,802500	0,1	6,806243
2,804167	0,1	6,708681
2,805833	0,1	6,610102
2,807500	0,1	6,557413
2,809167	0,1	6,423053
2,810833	0,1	6,344361
2,812500	0,1	6,224381
2,814167	0,1	6,209945
2,815833	0,1	6,124496
2,817500	0,1	6,034133
2,819167	0,1	5,965930
2,820833	0,1	5,922989
2,822500	0,1	5,829501
2,824167	0,1	5,731587
2,825833	0,1	5,685644
2,827500	0,1	5,623850
2,829167	0,1	5,568964
2,830833	0,1	5,474651
2,832500	0,1	5,467959
2,834167	0,1	5,369895
2,835833	0,1	5,307975
2,837500	0,1	5,228321
2,839167	0,1	5,188753
2,840833	0,1	5,134827
2,842500	0,1	5,062624
2,844167	0,1	5,041696
2,845833	0,1	4,989544
2,847500	0,1	4,903770
2,849167	0,1	4,878552
2,850833	0,1	4,830100
2,852500	0,1	4,773758
2,854167	0,1	4,722173
2,855833	0,1	4,658925
2,857500	0,1	4,638538
2,859167	0,1	4,547080
2,860833	0,1	4,546399
2,862500	0,1	4,464403
2,864167	0,1	4,471147
2,865833	0,1	4,371626
2,867500	0,1	4,341265
2,869167	0,1	4,297441
2,870833	0,1	4,267384
2,872500	0,1	4,195711
2,874167	0,1	4,175454
2,875833	0,1	4,146463
2,877500	0,1	4,127026
2,879167	0,1	4,093349
2,880833	0,1	4,027932
2,882500	0,1	4,006274
2,884167	0,1	3,984416
2,885833	0,1	3,903771
2,887500	0,1	3,882629
2,889167	0,1	3,845967
2,890833	0,1	3,850582
2,892500	0,1	3,765032
2,894167	0,1	3,775080
2,895833	0,1	3,746295
2,897500	0,1	3,685420
2,899167	0,1	3,686444
2,900833	0,1	3,607956
2,902500	0,1	3,591687
2,904167	0,1	3,615796
2,905833	0,1	3,497567
2,907500	0,1	3,501678
2,909167	0,1	3,484631
2,910833	0,1	3,479609
2,912500	0,1	3,420064
2,914167	0,1	3,382886
2,915833	0,1	3,411561
2,917500	0,1	3,321333
2,919167	0,1	3,336289
2,920833	0,1	3,309526
2,922500	0,1	3,276498
2,924167	0,1	3,272699
2,925833	0,1	3,230839
2,927500	0,1	3,199619
2,929167	0,1	3,215826
2,930833	0,1	3,184467
2,932500	0,1	3,139414
2,934167	0,1	3,134956
2,935833	0,1	3,111180
2,937500	0,1	3,102224
2,939167	0,1	3,092319
2,940833	0,1	3,028718
2,942500	0,1	3,007988
2,944167	0,1	3,017564
2,945833	0,1	2,976256
2,947500	0,1	2,992439
2,949167	0,1	2,976789
2,950833	0,1	2,915439
2,952500	0,1	2,902432
2,954167	0,1	2,915062
2,955833	0,1	2,875173
2,957500	0,1	2,836913
2,959167	0,1	2,843708
2,960833	0,1	2,796857
2,962500	0,1	2,792986
2,964167	0,1	2,763792
2,965833	0,1	2,735368
2,967500	0,1	2,743690
2,969167	0,1	2,770784
2,970833	0,1	2,726341
2,972500	0,1	2,709598
2,974167	0,1	2,704451
2,975833	0,1	2,682123
2,977500	0,1	2,640974
2,979167	0,1	2,651355
2,980833	0,1	2,642025
2,982500	0,1	2,629539
2,984167	0,1	2,616066
2,985833	0,1	2,605007
2,987500	0,1	2,602580
2,989167	0,1	2,555826
2,990833	0,1	2,543848
2,992500	0,1	2,521546
2,994167	0,1	2,501451
2,995833	0,1	2,535079
2,997500	0,1	2,488202
2,999167	0,1	2,490048
3,000833	0,1	2,471337
3,002500	0,1	2,493403
3,004167	0,1	2,450996
3,005833	0,1	2,466305
3,007500	0,1	2,469043
3,009167	0,1	2,425676
3,010833	0,1	2,402514
3,012500	0,1	2,445015
3,014167	0,1	2,410322
3,015833	0,1	2,352976
3,017500	0,1	2,396332
3,019167	0,1	2,378989
3,020833	0,1	2,381284
3,022500	0,1	2,336921
3,024167	0,1	2,336551
3,025833	0,1	2,313553
3,027500	0,1	2,336545
3,029167	0,1	2,322288
3,030833	0,1	2,348937
3,032500	0,1	2,317125
3,034167	0,1	2,308737
3,035833	0,1	2,311598
3,037500	0,1	2,213440
3,039167	0,1	2,267798
3,040833	0,1	2,220520
3,042500	0,1	2,240283
3,044167	0,1	2,221515
3,045833	0,1	2,206538
3,047500	0,1	2,233114
3,049167	0,1	2,170289
3,050833	0,1	2,220137
3,052500	0,1	2,224020
3,054167	0,1	2,189845
3,055833	0,1	2,171497
3,057500	0,1	2,209461
3,059167	0,1	2,200658
3,060833	0,1	2,173147
3,062500	0,1	2,129227
3,064167	0,1	2,150563
3,065833	0,1	2,113892
3,067500	0,1	2,123266
3,069167	0,1	2,144616
3,070833	0,1	2,120769
3,072500	0,1	2,131005
3,074167	0,1	2,100421
3,075833	0,1	2,062882
3,077500	0,1	2,120605
3,079167	0,1	2,092613
3,080833	0,1	2,076420
3,082500	0,1	2,119105
3,084167	0,1	2,125059
3,085833	0,1	2,060883
3,087500	0,1	2,042389
3,089167	0,1	2,076049
3,090833	0,1	2,063667
3,092500	0,1	2,054205
3,094167	0,1	2,051842
3,095833	0,1	2,047903
3,097500	0,1	2,106633
3,099167	0,1	2,091749
3,100833	0,1	2,057367
3,102500	0,1	2,074692
3,104167	0,1	2,074479
3,105833	0,1	2,052135
3,107500	0,1	2,061653
3,109167	0,1	2,090808
3,110833	0,1	2,084152
3,112500	0,1	2,053712
3,114167	0,1	2,099974
3,115833	0,1	2,103137
3,117500	0,1	2,150915
3,119167	0,1	2,119551
3,120833	0,1	2,138168
3,122500	0,1	2,152571
3,124167	0,1	2,130226
3,125833	0,1	2,126997
3,127500	0,1	2,157799
3,129167	0,1	2,138034
3,130833	0,1	2,148488
3,132500	0,1	2,131083
3,134167	0,1	2,189606
3,135833	0,1	2,201802
3,137500	0,1	2,239849
3,139167	0,1	2,244225
3,140833	0,1	2,213133
3,142500	0,1	2,247231
3,144167	0,1	2,227395
3,145833	0,1	2,295457
3,147500	0,1	2,269749
3,149167	0,1	2,301559
3,150833	0,1	2,332948
3,152500	0,1	2,321713
3,154167	0,1	2,303651
3,155833	0,1	2,311527
3,157500	0,1	2,329588
3,159167	0,1	2,331172
3,160833	0,1	2,348870
3,162500	0,1	2,370095
3,164167	0,1	2,336056
3,165833	0,1	2,403914
3,167500	0,1	2,441201
3,169167	0,1	2,431752
3,170833	0,1	2,421501
3,172500	0,1	2,410177
3,174167	0,1	2,425803
3,175833	0,1	2,442221
3,177500	0,1	2,439061
3,179167	0,1	2,441148
3,180833	0,1	2,460350
3,182500	0,1	2,461584
3,184167	0,1	2,478140
3,185833	0,1	2,487384
3,187500	0,1	2,460946
3,189167	0,1	2,460289
3,190833	0,1	2,510182
3,192500	0,1	2,452272
3,194167	0,1	2,476198
3,195833	0,1	2,461089
3,197500	0,1	2,450190
3,199167	0,1	2,468314
3,200833	0,1	2,478636
3,202500	0,1	2,442368
3,204167	0,1	2,469743
3,205833	0,1	2,435057
3,207500	0,1	2,458713
3,209167	0,1	2,453265
3,210833	0,1	2,452119
3,212500	0,1	2,406470
3,214167	0,1	2,473684
3,215833	0,1	2,388902
3,217500	0,1	2,391535
3,219167	0,1	2,367668
3,220833	0,1	2,388226
3,222500	0,1	2,381207
3,224167	0,1	2,377835
3,225833	0,1	2,353396
3,227500	0,1	2,326595
3,229167	0,1	2,373876
3,230833	0,1	2,321723
3,232500	0,1	2,312325
3,234167	0,1	2,287025
3,235833	0,1	2,329079
3,237500	0,1	2,264522
3,239167	0,1	2,304495
3,240833	0,1	2,243383
3,242500	0,1	2,231621
3,244167	0,1	2,253399
3,245833	0,1	2,240791
3,247500	0,1	2,180392
3,249167	0,1	2,214909
3,250833	0,1	2,161473
3,252500	0,1	2,135887
3,254167	0,1	2,146553
3,255833	0,1	2,151642
3,257500	0,1	2,149995
3,259167	0,1	2,108807
3,260833	0,1	2,062454
3,262500	0,1	2,098044
3,264167	0,1	2,071692
3,265833	0,1	2,010595
3,267500	0,1	2,000050
3,269167	0,1	2,038795
3,270833	0,1	2,002493
3,272500	0,1	1,992397
3,274167	0,1	1,962028
3,275833	0,1	1,916330
3,277500	0,1	1,922062
3,279167	0,1	1,919839
3,280833	0,1	1,931865
3,282500	0,1	1,891494
3,284167	0,1	1,880601
3,285833	0,1	1,863133
3,287500	0,1	1,852316
3,289167	0,1	1,806498
3,290833	0,1	1,849651
3,292500	0,1	1,769120
3,294167	0,1	1,764676
3,295833	0,1	1,757450
3,297500	0,1	1,766341
3,299167	0,1	1,772980
3,300833	0,1	1,729537
3,302500	0,1	1,720665
3,304167	0,1	1,689811
3,305833	0,1	1,683719
3,307500	0,1	1,704692
3,309167	0,1	1,677509
3,310833	0,1	1,653004
3,312500	0,1	1,643138
3,314167	0,1	1,626087
3,315833	0,1	1,618217
3,317500	0,1	1,603495
3,319167	0,1	1,580506
3,320833	0,1	1,580246
3,322500	0,1	1,608002
3,324167	0,1	1,540588
3,325833	0,1	1,548252
3,327500	0,1	1,541080
3,329167	0,1	1,569373
3,330833	0,1	1,506619
3,332500	0,1	1,523480
3,334167	0,1	1,475778
3,335833	0,1	1,481628
3,337500	0,1	1,495448
3,339167	0,1	1,490084
3,340833	0,1	1,457734
3,342500	0,1	1,465162
3,344167	0,1	1,447730
3,345833	0,1	1,416131
3,347500	0,1	1,442363
3,349167	0,1	1,394000
3,350833	0,1	1,409737
3,352500	0,1	1,380575
3,354167	0,1	1,354135
3,355833	0,1	1,387641
3,357500	0,1	1,394592
3,359167	0,1	1,353035
3,360833	0,1	1,350890
3,362500	0,1	1,326147
3,364167	0,1	1,352814
3,365833	0,1	1,374450
3,367500	0,1	1,329407
3,369167	0,1	1,336287
3,370833	0,1	1,343572
3,372500	0,1	1,315478
3,374167	0,1	1,318317
3,375833	0,1	1,307836
3,377500	0,1	1,325411
3,379167	0,1	1,342160
3,380833	0,1	1,276584
3,382500	0,1	1,288082
3,384167	0,1	1,304729
3,385833	0,1	1,269362
3,387500	0,1	1,268778
3,389167	0,1	1,263122
3,390833	0,1	1,290871
3,392500	0,1	1,261197
3,394167	0,1	1,254994
3,395833	0,1	1,249759
3,397500	0,1	1,227780
3,399167	0,1	1,243386
3,400833	0,1	1,224189
3,402500	0,1	1,225777
3,404167	0,1	1,241610
3,405833	0,1	1,216166
3,407500	0,1	1,207510
3,409167	0,1	1,243822
3,410833	0,1	1,244425
3,412500	0,1	1,204483
3,414167	0,1	1,232952
3,415833	0,1	1,263419
3,417500	0,1	1,181685
3,419167	0,1	1,200780
3,420833	0,1	1,195129
3,422500	0,1	1,171069
3,424167	0,1	1,173318
3,425833	0,1	1,174912
3,427500	0,1	1,166243
3,429167	0,1	1,181325
3,430833	0,1	1,176978
3,432500	0,1	1,168021
3,434167	0,1	1,178972
3,435833	0,1	1,188557
3,437500	0,1	1,165574
3,439167	0,1	1,176141
3,440833	0,1	1,182921
3,442500	0,1	1,163318
3,444167	0,1	1,168918
3,445833	0,1	1,096265
3,447500	0,1	1,157526
3,449167	0,1	1,150178
3,450833	0,1	1,092182
3,452500	0,1	1,152206
3,454167	0,1	1,185084
3,455833	0,1	1,155108
3,457500	0,1	1,164194
3,459167	0,1	1,118489
3,460833	0,1	1,108495
3,462500	0,1	1,162809
3,464167	0,1	1,108926
3,465833	0,1	1,153429
3,467500	0,1	1,150492
3,469167	0,1	1,133672
3,470833	0,1	1,131565
3,472500	0,1	1,153897
3,474167	0,1	1,115511
3,475833	0,1	1,099710
3,477500	0,1	1,149404
3,479167	0,1	1,131194
3,480833	0,1	1,102996
3,482500	0,1	1,128247
3,484167	0,1	1,130585
3,485833	0,1	1,143806
3,487500	0,1	1,085192
3,489167	0,1	1,116934
3,490833	0,1	1,106785
3,492500	0,1	1,124282
3,494167	0,1	1,110203
3,495833	0,1	1,119869
3,497500	0,1	1,123575
3,499167	0,1	1,145311
3,500833	0,1	1,149242
3,502500	0,1	1,160994
3,504167	0,1	1,125027
3,505833	0,1	1,120918
3,507500	0,1	1,130297
3,509167	0,1	1,135954
3,510833	0,1	1,118656
3,512500	0,1	1,151522
3,514167	0,1	1,110057
3,515833	0,1	1,166756
3,517500	0,1	1,115688
3,519167	0,1	1,131024
3,520833	0,1	1,132488
3,522500	0,1	1,128925
3,524167	0,1	1,117856
3,525833	0,1	1,133597
3,527500	0,1	1,123090
3,529167	0,1	1,143469
3,530833	0,1	1,107327
3,532500	0,1	1,138963
3,534167	0,1	1,149665
3,535833	0,1	1,115001
3,537500	0,1	1,113350
3,539167	0,1	1,121912
3,540833	0,1	1,110913
3,542500	0,1	1,104479
3,544167	0,1	1,090684
3,545833	0,1	1,157928
3,547500	0,1	1,133253
3,549167	0,1	1,125999
3,550833	0,1	1,133514
3,552500	0,1	1,091862
3,554167	0,1	1,091324
3,555833	0,1	1,134061
3,557500	0,1	1,120363
3,559167	0,1	1,129325
3,560833	0,1	1,120651
3,562500	0,1	1,159040
3,564167	0,1	1,104203
3,565833	0,1	1,125742
3,567500	0,1	1,090113
3,569167	0,1	1,095625
3,570833	0,1	1,110331
3,572500	0,1	1,136879
3,574167	0,1	1,105302
3,575833	0,1	1,128074
3,577500	0,1	1,095634
3,579167	0,1	1,137692
3,580833	0,1	1,094704
3,582500	0,1	1,106002
3,584167	0,1	1,108511
3,585833	0,1	1,079751
3,587500	0,1	1,117048
3,589167	0,1	1,108495
3,590833	0,1	1,088997
3,592500	0,1	1,085621
3,594167	0,1	1,065642
3,595833	0,1	1,087411
3,597500	0,1	1,107354
3,599167	0,1	1,097202
3,600833	0,1	1,097508
3,602500	0,1	1,096490
3,604167	0,1	1,064756
3,605833	0,1	1,106705
3,607500	0,1	1,111507
3,609167	0,1	1,064050
3,610833	0,1	1,061953
3,612500	0,1	1,080116
3,614167	0,1	1,095355
3,615833	0,1	1,052671
3,617500	0,1	1,069089
3,619167	0,1	1,052130
3,620833	0,1	1,048245
3,622500	0,1	1,023721
3,624167	0,1	1,061610
3,625833	0,1	1,062905
3,627500	0,1	1,038669
3,629167	0,1	1,059063
3,630833	0,1	1,040330
3,632500	0,1	1,031036
3,634167	0,1	1,015491
3,635833	0,1	1,033513
3,637500	0,1	0,972120
3,639167	0,1	1,040752
3,640833	0,1	1,012875
3,642500	0,1	1,037193
3,644167	0,1	0,990680
3,645833	0,1	0,991933
3,647500	0,1	1,003884
3,649167	0,1	1,048034
3,650833	0,1	0,989795
3,652500	0,1	1,003307
3,654167	0,1	1,007611
3,655833	0,1	0,978900
3,657500	0,1	0,979780
3,659167	0,1	0,997250
3,660833	0,1	0,952270
3,662500	0,1	1,014206
3,664167	0,1	0,992935
3,665833	0,1	0,948988
3,667500	0,1	0,960994
3,669167	0,1	0,945608
3,670833	0,1	0,966557
3,672500	0,1	0,967295
3,674167	0,1	0,987626
3,675833	0,1	0,949828
3,677500	0,1	0,961770
3,679167	0,1	0,928804
3,680833	0,1	0,989301
3,682500	0,1	0,938656
3,684167	0,1	0,938445
3,685833	0,1	0,920397
3,687500	0,1	0,968235
3,689167	0,1	0,922399
3,690833	0,1	0,936022
3,692500	0,1	0,947909
3,694167	0,1	0,915965
3,695833	0,1	0,886650
3,697500	0,1	0,917838
3,699167	0,1	0,936020
3,700833	0,1	0,889473
3,702500	0,1	0,929764
3,704167	0,1	0,927823
3,705833	0,1	0,924721
3,707500	0,1	0,902970
3,709167	0,1	0,945508
3,710833	0,1	0,945386
3,712500	0,1	0,944343
3,714167	0,1	0,964628
3,715833	0,1	0,923907
3,717500	0,1	0,938905
3,719167	0,1	0,983296
3,720833	0,1	0,884275
3,722500	0,1	0,917680
3,724167	0,1	0,896029
3,725833	0,1	0,960049
3,727500	0,1	0,897548
3,729167	0,1	0,899462
3,730833	0,1	0,891326
3,732500	0,1	0,911278
3,734167	0,1	0,935999
3,735833	0,1	0,948287
3,737500	0,1	0,930865
3,739167	0,1	0,906630
3,740833	0,1	0,919970
3,742500	0,1	0,940502
3,744167	0,1	0,938909
3,745833	0,1	0,930419
3,747500	0,1	0,947643
3,749167	0,1	0,954365
3,750833	0,1	0,946873
3,752500	0,1	0,919734
3,754167	0,1	0,962825
3,755833	0,1	0,939980
3,757500	0,1	0,913748
3,759167	0,1	0,928994
3,760833	0,1	0,921038
3,762500	0,1	0,950789
3,764167	0,1	0,919782
3,765833	0,1	0,949058
3,767500	0,1	0,925388
3,769167	0,1	0,957994
3,770833	0,1	0,900119
3,772500	0,1	0,956614
3,774167	0,1	0,920379
3,775833	0,1	0,972805
3,777500	0,1	0,977916
3,779167	0,1	0,942265
3,780833	0,1	0,964452
3,782500	0,1	0,960443
3,784167	0,1	0,945434
3,785833	0,1	0,930373
3,787500	0,1	0,970613
3,789167	0,1	0,972727
3,790833	0,1	0,973835
3,792500	0,1	1,010177
3,794167	0,1	0,973934
3,795833	0,1	0,976941
3,797500	0,1	0,958164
3,799167	0,1	0,957604
3,800833	0,1	0,938980
3,802500	0,1	1,012940
3,804167	0,1	0,960566
3,805833	0,1	0,987491
3,807500	0,1	0,947855
3,809167	0,1	0,976425
3,810833	0,1	0,990267
3,812500	0,1	0,971424
3,814167	0,1	0,990286
3,815833	0,1	0,933910
3,817500	0,1	0,967263
3,819167	0,1	0,965541
3,820833	0,1	0,971729
3,822500	0,1	0,990220
3,824167	0,1	0,986523
3,825833	0,1	0,989159
3,827500	0,1	0,975082
3,829167	0,1	0,949116
3,830833	0,1	0,979396
3,832500	0,1	0,977009
3,834167	0,1	0,955658
3,835833	0,1	0,993255
3,837500	0,1	0,969098
3,839167	0,1	0,985676
3,840833	0,1	0,954574
3,842500	0,1	0,946382
3,844167	0,1	0,947136
3,845833	0,1	0,958086
3,847500	0,1	0,933704
3,849167	0,1	0,964715
3,850833	0,1	0,961906
3,852500	0,1	0,951574
3,854167	0,1	0,953567
3,855833	0,1	0,925676
3,857500	0,1	0,976818
3,859167	0,1	0,960002
3,860833	0,1	0,972413
3,862500	0,1	0,925794
3,864167	0,1	0,940304
3,865833	0,1	0,923590
3,867500	0,1	0,923362
3,869167	0,1	0,924383
3,870833	0,1	0,908047
3,872500	0,1	0,878291
3,874167	0,1	0,940337
3,875833	0,1	0,911422
3,877500	0,1	0,942740
3,879167	0,1	0,918072
3,880833	0,1	0,945424
3,882500	0,1	0,905348
3,884167	0,1	0,888426
3,885833	0,1	0,863765
3,887500	0,1	0,860858
3,889167	0,1	0,939268
3,890833	0,1	0,880829
3,892500	0,1	0,887465
3,894167	0,1	0,888061
3,895833	0,1	0,925263
3,897500	0,1	0,864508
3,899167	0,1	0,900740
3,900833	0,1	0,866035
3,902500	0,1	0,861106
3,904167	0,1	0,875717
3,905833	0,1	0,861530
3,907500	0,1	0,806404
3,909167	0,1	0,857811
3,910833	0,1	0,815219
3,912500	0,1	0,846062
3,914167	0,1	0,880279
3,915833	0,1	0,844059
3,917500	0,1	0,880098
3,919167	0,1	0,865213
3,920833	0,1	0,853484
3,922500	0,1	0,858400
3,924167	0,1	0,851709
3,925833	0,1	0,844416
3,927500	0,1	0,822023
3,929167	0,1	0,818254
3,930833	0,1	0,828166
3,932500	0,1	0,839268
3,934167	0,1	0,843918
3,935833	0,1	0,816304
3,937500	0,1	0,802841
3,939167	0,1	0,831968
3,940833	0,1	0,834967
3,942500	0,1	0,849330
3,944167	0,1	0,810285
3,945833	0,1	0,814747
3,947500	0,1	0,773497
3,949167	0,1	0,762013
3,950833	0,1	0,791639
3,952500	0,1	0,819059
3,954167	0,1	0,791128
3,955833	0,1	0,774608
3,957500	0,1	0,799866
3,959167	0,1	0,812267
3,960833	0,1	0,783124
3,962500	0,1	0,786593
3,964167	0,1	0,790568
3,965833	0,1	0,756625
3,967500	0,1	0,765156
3,969167	0,1	0,797567
3,970833	0,1	0,760864
3,972500	0,1	0,772383
3,974167	0,1	0,750956
3,975833	0,1	0,753678
3,977500	0,1	0,747096
3,979167	0,1	0,786191
3,980833	0,1	0,748258
3,982500	0,1	0,782466
3,984167	0,1	0,742408
3,985833	0,1	0,762374
3,987500	0,1	0,777356
3,989167	0,1	0,725987
3,990833	0,1	0,733816
3,992500	0,1	0,741689
3,994167	0,1	0,736550
3,995833	0,1	0,773073
3,997500	0,1	0,755350
3,999167	0,1	0,768619
4,000833	0,1	0,756989
4,002500	0,1	0,755292
4,004167	0,1	0,778456
4,005833	0,1	0,758789
4,007500	0,1	0,748960
4,009167	0,1	0,767148
4,010833	0,1	0,770391
4,012500	0,1	0,774734
4,014167	0,1	0,783312
4,015833	0,1	0,746788
4,017500	0,1	0,764418
4,019167	0,1	0,776006
4,020833	0,1	0,745003
4,022500	0,1	0,726687
4,024167	0,1	0,756820
4,025833	0,1	0,753941
4,027500	0,1	0,766179
4,029167	0,1	0,740989
4,030833	0,1	0,757401
4,032500	0,1	0,783872
4,034167	0,1	0,756231
4,035833	0,1	0,778100
4,037500	0,1	0,768887
4,039167	0,1	0,767493
4,040833	0,1	0,781803
4,042500	0,1	0,754525
4,044167	0,1	0,748512
4,045833	0,1	0,802718
4,047500	0,1	0,781259
4,049167	0,1	0,789924
4,050833	0,1	0,786622
4,052500	0,1	0,771563
4,054167	0,1	0,787588
4,055833	0,1	0,775537
4,057500	0,1	0,778183
4,059167	0,1	0,798253
4,060833	0,1	0,818272
4,062500	0,1	0,814068
4,064167	0,1	0,782429
4,065833	0,1	0,772323
4,067500	0,1	0,782893
4,069167	0,1	0,833016
4,070833	0,1	0,786867
4,072500	0,1	0,813771
4,074167	0,1	0,839881
4,075833	0,1	0,805128
4,077500	0,1	0,830895
4,079167	0,1	0,872602
4,080833	0,1	0,879330
4,082500	0,1	0,871460
4,084167	0,1	0,871969
4,085833	0,1	0,840867
4,087500	0,1	0,880674
4,089167	0,1	0,877822
4,090833	0,1	0,878794
4,092500	0,1	0,894782
4,094167	0,1	0,936771
4,095833	0,1	0,846222
4,097500	0,1	0,911021
4,099167	0,1	0,904608
4,100833	0,1	0,919856
4,102500	0,1	0,944691
4,104167	0,1	0,922838
4,105833	0,1	0,963867
4,107500	0,1	0,945079
4,109167	0,1	0,957978
4,110833	0,1	0,953767
4,112500	0,1	0,949265
4,114167	0,1	0,987664
4,115833	0,1	0,939762
4,117500	0,1	0,959395
4,119167	0,1	0,950000
4,120833	0,1	0,982565
4,122500	0,1	0,970556
4,124167	0,1	1,011108
4,125833	0,1	0,984775
4,127500	0,1	1,050977
4,129167	0,1	1,034320
4,130833	0,1	1,035093
4,132500	0,1	1,044959
4,134167	0,1	1,064878
4,135833	0,1	1,065191
4,137500	0,1	1,030222
4,139167	0,1	1,055581
4,140833	0,1	1,079096
4,142500	0,1	1,071913
4,144167	0,1	1,078543
4,145833	0,1	1,062976
4,147500	0,1	1,107415
4,149167	0,1	1,095696
4,150833	0,1	1,137653
4,152500	0,1	1,104774
4,154167	0,1	1,123151
4,155833	0,1	1,077094
4,157500	0,1	1,119526
4,159167	0,1	1,118295
4,160833	0,1	1,128787
4,162500	0,1	1,152370
4,164167	0,1	1,126646
4,165833	0,1	1,117300
4,167500	0,1	1,150235
4,169167	0,1	1,146518
4,170833	0,1	1,170894
4,172500	0,1	1,116646
4,174167	0,1	1,154823
4,175833	0,1	1,149467
4,177500	0,1	1,140019
4,179167	0,1	1,161799
4,180833	0,1	1,151512
4,182500	0,1	1,160804
4,184167	0,1	1,142104
4,185833	0,1	1,155031
4,187500	0,1	1,157098
4,189167	0,1	1,150868
4,190833	0,1	1,146010
4,192500	0,1	1,194308
4,194167	0,1	1,163052
4,195833	0,1	1,140443
4,197500	0,1	1,184842
4,199167	0,1	1,161830
4,200833	0,1	1,138273
4,202500	0,1	1,191140
4,204167	0,1	1,177030
4,205833	0,1	1,179176
4,207500	0,1	1,195414
4,209167	0,1	1,145310
4,210833	0,1	1,153678
4,212500	0,1	1,164597
4,214167	0,1	1,178348
4,215833	0,1	1,157881
4,217500	0,1	1,154766
4,219167	0,1	1,184691
4,220833	0,1	1,139345
4,222500	0,1	1,160752
4,224167	0,1	1,145991
4,225833	0,1	1,130303
4,227500	0,1	1,161191
4,229167	0,1	1,137976
4,230833	0,1	1,158822
4,232500	0,1	1,114071
4,234167	0,1	1,161477
4,235833	0,1	1,104625
4,237500	0,1	1,110869
4,239167	0,1	1,089043
4,240833	0,1	1,101078
4,242500	0,1	1,091836
4,244167	0,1	1,096335
4,245833	0,1	1,146389
4,247500	0,1	1,093420
4,249167	0,1	1,102875
4,250833	0,1	1,080279
4,252500	0,1	1,084641
4,254167	0,1	1,051736
4,255833	0,1	1,068003
4,257500	0,1	1,044347
4,259167	0,1	1,069332
4,260833	0,1	1,049006
4,262500	0,1	1,074745
4,264167	0,1	1,067014
4,265833	0,1	1,044257
4,267500	0,1	1,032390
4,269167	0,1	1,042233
4,270833	0,1	1,029817
4,272500	0,1	0,994424
4,274167	0,1	1,003352
4,275833	0,1	1,012156
4,277500	0,1	1,006217
4,279167	0,1	0,984907
4,280833	0,1	0,972199
4,282500	0,1	0,974146
4,284167	0,1	1,018646
4,285833	0,1	0,963359
4,287500	0,1	0,947492
4,289167	0,1	0,959684
4,290833	0,1	0,974300
4,292500	0,1	0,971973
4,294167	0,1	0,983081
4,295833	0,1	0,940164
4,297500	0,1	0,946624
4,299167	0,1	0,912445
4,300833	0,1	0,953690
4,302500	0,1	0,893113
4,304167	0,1	0,923692
4,305833	0,1	0,929419
4,307500	0,1	0,921038
4,309167	0,1	0,893550
4,310833	0,1	0,863594
4,312500	0,1	0,855320
4,314167	0,1	0,875624
4,315833	0,1	0,891453
4,317500	0,1	0,831412
4,319167	0,1	0,886299
4,320833	0,1	0,863484
4,322500	0,1	0,828141
4,324167	0,1	0,828710
4,325833	0,1	0,827490
4,327500	0,1	0,848802
4,329167	0,1	0,837345
4,330833	0,1	0,825366
4,332500	0,1	0,837471
4,334167	0,1	0,809809
4,335833	0,1	0,802380
4,337500	0,1	0,810025
4,339167	0,1	0,820625
4,340833	0,1	0,816481
4,342500	0,1	0,764463
4,344167	0,1	0,791861
4,345833	0,1	0,777061
4,347500	0,1	0,804103
4,349167	0,1	0,720471
4,350833	0,1	0,751783
4,352500	0,1	0,771438
4,354167	0,1	0,757055
4,355833	0,1	0,759594
4,357500	0,1	0,770520
4,359167	0,1	0,766445
4,360833	0,1	0,761721
4,362500	0,1	0,805385
4,364167	0,1	0,765521
4,365833	0,1	0,739664
4,367500	0,1	0,794008
4,369167	0,1	0,772419
4,370833	0,1	0,725382
4,372500	0,1	0,745281
4,374167	0,1	0,737546
4,375833	0,1	0,686976
4,377500	0,1	0,727828
4,379167	0,1	0,724178
4,380833	0,1	0,719718
4,382500	0,1	0,732922
4,384167	0,1	0,693978
4,385833	0,1	0,717968
4,387500	0,1	0,717974
4,389167	0,1	0,719781
4,390833	0,1	0,687978
4,392500	0,1	0,728797
4,394167	0,1	0,688194
4,395833	0,1	0,677681
4,397500	0,1	0,713633
4,399167	0,1	0,726784
4,400833	0,1	0,716466
4,402500	0,1	0,645850
4,404167	0,1	0,718440
4,405833	0,1	0,704676
4,407500	0,1	0,657190
4,409167	0,1	0,677254
4,410833	0,1	0,687186
4,412500	0,1	0,682952
4,414167	0,1	0,627282
4,415833	0,1	0,666389
4,417500	0,1	0,675841
4,419167	0,1	0,659593
4,420833	0,1	0,664794
4,422500	0,1	0,697556
4,424167	0,1	0,692192
4,425833	0,1	0,657382
4,427500	0,1	0,656601
4,429167	0,1	0,629326
4,430833	0,1	0,662721
4,432500	0,1	0,636583
4,434167	0,1	0,668123
4,435833	0,1	0,650848
4,437500	0,1	0,583554
4,439167	0,1	0,636824
4,440833	0,1	0,611657
4,442500	0,1	0,643350
4,444167	0,1	0,592514
4,445833	0,1	0,643995
4,447500	0,1	0,639250
4,449167	0,1	0,633436
4,450833	0,1	0,635680
4,452500	0,1	0,575939
4,454167	0,1	0,576469
4,455833	0,1	0,614342
4,457500	0,1	0,589420
4,459167	0,1	0,587329
4,460833	0,1	0,635894
4,462500	0,1	0,613420
4,464167	0,1	0,614150
4,465833	0,1	0,566071
4,467500	0,1	0,557066
4,469167	0,1	0,602573
4,470833	0,1	0,588581
4,472500	0,1	0,572873
4,474167	0,1	0,544543
4,475833	0,1	0,565606
4,477500	0,1	0,559216
4,479167	0,1	0,600294
4,480833	0,1	0,587037
4,482500	0,1	0,562817
4,484167	0,1	0,589892
4,485833	0,1	0,560187
4,487500	0,1	0,578005
4,489167	0,1	0,543964
4,490833	0,1	0,551697
4,492500	0,1	0,563034
4,494167	0,1	0,552956
4,495833	0,1	0,552951
4,497500	0,1	0,545565
4,499167	0,1	0,562907
4,500833	0,1	0,528961
4,502500	0,1	0,536148
4,504167	0,1	0,540425
4,505833	0,1	0,521861
4,507500	0,1	0,532934
4,509167	0,1	0,534671
4,510833	0,1	0,522373
4,512500	0,1	0,525001
4,514167	0,1	0,498991
4,515833	0,1	0,511253
4,517500	0,1	0,558144
4,519167	0,1	0,504875
4,520833	0,1	0,503868
4,522500	0,1	0,499500
4,524167	0,1	0,507687
4,525833	0,1	0,485949
4,527500	0,1	0,495642
4,529167	0,1	0,530133
4,530833	0,1	0,502653
4,532500	0,1	0,581874
4,534167	0,1	0,479511
4,535833	0,1	0,472326
4,537500	0,1	0,544482
4,539167	0,1	0,485860
4,540833	0,1	0,492494
4,542500	0,1	0,507460
4,544167	0,1	0,484343
4,545833	0,1	0,448083
4,547500	0,1	0,477231
4,549167	0,1	0,484464
4,550833	0,1	0,476181
4,552500	0,1	0,490789
4,554167	0,1	0,484113
4,555833	0,1	0,445804
4,557500	0,1	0,437895
4,559167	0,1	0,482913
4,560833	0,1	0,476566
4,562500	0,1	0,466032
4,564167	0,1	0,461983
4,565833	0,1	0,441912
4,567500	0,1	0,432950
4,569167	0,1	0,405620
4,570833	0,1	0,440485
4,572500	0,1	0,453660
4,574167	0,1	0,434237
4,575833	0,1	0,485512
4,577500	0,1	0,446350
4,579167	0,1	0,447303
4,580833	0,1	0,425211
4,582500	0,1	0,411694
4,584167	0,1	0,402085
4,585833	0,1	0,419136
4,587500	0,1	0,453623
4,589167	0,1	0,392626
4,590833	0,1	0,438204
4,592500	0,1	0,413394
4,594167	0,1	0,436764
4,595833	0,1	0,434812
4,597500	0,1	0,396023
4,599167	0,1	0,407509
4,600833	0,1	0,427773
4,602500	0,1	0,429864
4,604167	0,1	0,433075
4,605833	0,1	0,410502
4,607500	0,1	0,399133
4,609167	0,1	0,391265
4,610833	0,1	0,379641
4,612500	0,1	0,425871
4,614167	0,1	0,394897
4,615833	0,1	0,360280
4,617500	0,1	0,366756
4,619167	0,1	0,385957
4,620833	0,1	0,408730
4,622500	0,1	0,395475
4,624167	0,1	0,385038
4,625833	0,1	0,368146
4,627500	0,1	0,386344
4,629167	0,1	0,390588
4,630833	0,1	0,415568
4,632500	0,1	0,343240
4,634167	0,1	0,363577
4,635833	0,1	0,375463
4,637500	0,1	0,360981
4,639167	0,1	0,360850
4,640833	0,1	0,338702
4,642500	0,1	0,327622
4,644167	0,1	0,356093
4,645833	0,1	0,323420
4,647500	0,1	0,343472
4,649167	0,1	0,345600
4,650833	0,1	0,365504
4,652500	0,1	0,370483
4,654167	0,1	0,346276
4,655833	0,1	0,340719
4,657500	0,1	0,383741
4,659167	0,1	0,336331
4,660833	0,1	0,315169
4,662500	0,1	0,362218
4,664167	0,1	0,344990
4,665833	0,1	0,344443
4,667500	0,1	0,309999
4,669167	0,1	0,371244
4,670833	0,1	0,296616
4,672500	0,1	0,301514
4,674167	0,1	0,349475
4,675833	0,1	0,337255
4,677500	0,1	0,327494
4,679167	0,1	0,316000
4,680833	0,1	0,309570
4,682500	0,1	0,316022
4,684167	0,1	0,340203
4,685833	0,1	0,303417
4,687500	0,1	0,278118
4,689167	0,1	0,291627
4,690833	0,1	0,318783
4,692500	0,1	0,310317
4,694167	0,1	0,301801
4,695833	0,1	0,289347
4,697500	0,1	0,279271
4,699167	0,1	0,297244
4,700833	0,1	0,321770
4,702500	0,1	0,288583
4,704167	0,1	0,309216
4,705833	0,1	0,258472
4,707500	0,1	0,286064
4,709167	0,1	0,319397
4,710833	0,1	0,337663
4,712500	0,1	0,302457
4,714167	0,1	0,288190
4,715833	0,1	0,304461
4,717500	0,1	0,314195
4,719167	0,1	0,292623
4,720833	0,1	0,290854
4,722500	0,1	0,289606
4,724167	0,1	0,268295
4,725833	0,1	0,294834
4,727500	0,1	0,248913
4,729167	0,1	0,271432
4,730833	0,1	0,255216
4,732500	0,1	0,271911
4,734167	0,1	0,284141
4,735833	0,1	0,327418
4,737500	0,1	0,298476
4,739167	0,1	0,259564
4,740833	0,1	0,288323
4,742500	0,1	0,260972
4,744167	0,1	0,263242
4,745833	0,1	0,279625
4,747500	0,1	0,252236
4,749167	0,1	0,273773
4,750833	0,1	0,269023
4,752500	0,1	0,253210
4,754167	0,1	0,250465
4,755833	0,1	0,296729
4,757500	0,1	0,238181
4,759167	0,1	0,259774
4,760833	0,1	0,247801
4,762500	0,1	0,255510
4,764167	0,1	0,280032
4,765833	0,1	0,256286
4,767500	0,1	0,233913
4,769167	0,1	0,278651
4,770833	0,1	0,288156
4,772500	0,1	0,224998
4,774167	0,1	0,247638
4,775833	0,1	0,238278
4,777500	0,1	0,242018
4,779167	0,1	0,230122
4,780833	0,1	0,242241
4,782500	0,1	0,227617
4,784167	0,1	0,244909
4,785833	0,1	0,249821
4,787500	0,1	0,231397
4,789167	0,1	0,254764
4,790833	0,1	0,235765
4,792500	0,1	0,217952
4,794167	0,1	0,211982
4,795833	0,1	0,218361
4,797500	0,1	0,226166
4,799167	0,1	0,221675
4,800833	0,1	0,236462
4,802500	0,1	0,196834
4,804167	0,1	0,232653
4,805833	0,1	0,213042
4,807500	0,1	0,239227
4,809167	0,1	0,288083
4,810833	0,1	0,245439
4,812500	0,1	0,223668
4,814167	0,1	0,202683
4,815833	0,1	0,202540
4,817500	0,1	0,214886
4,819167	0,1	0,198755
4,820833	0,1	0,206300
4,822500	0,1	0,222411
4,824167	0,1	0,239998
4,825833	0,1	0,234930
4,827500	0,1	0,253354
4,829167	0,1	0,158744
4,830833	0,1	0,194600
4,832500	0,1	0,218935
4,834167	0,1	0,196893
4,835833	0,1	0,227670
4,837500	0,1	0,220364
4,839167	0,1	0,191028
4,840833	0,1	0,219993
4,842500	0,1	0,203627
4,844167	0,1	0,238621
4,845833	0,1	0,245880
4,847500	0,1	0,230249
4,849167	0,1	0,252911
4,850833	0,1	0,192987
4,852500	0,1	0,230590
4,854167	0,1	0,218341
4,855833	0,1	0,224756
4,857500	0,1	0,221963
4,859167	0,1	0,221611
4,860833	0,1	0,225876
4,862500	0,1	0,202330
4,864167	0,1	0,187967
4,865833	0,1	0,196307
4,867500	0,1	0,199743
4,869167	0,1	0,186305
4,870833	0,1	0,204524
4,872500	0,1	0,225458
4,874167	0,1	0,218627
4,875833	0,1	0,188196
4,877500	0,1	0,236429
4,879167	0,1	0,253554
4,880833	0,1	0,212495
4,882500	0,1	0,216348
4,884167	0,1	0,227386
4,885833	0,1	0,224531
4,887500	0,1	0,252106
4,889167	0,1	0,179509
4,890833	0,1	0,183303
4,892500	0,1	0,179076
4,894167	0,1	0,184123
4,895833	0,1	0,224331
4,897500	0,1	0,229086
4,899167	0,1	0,183705
4,900833	0,1	0,211557
4,902500	0,1	0,211249
4,904167	0,1	0,172830
4,905833	0,1	0,222883
4,907500	0,1	0,231944
4,909167	0,1	0,187230
4,910833	0,1	0,192783
4,912500	0,1	0,205483
4,914167	0,1	0,239488
4,915833	0,1	0,211949
4,917500	0,1	0,252292
4,919167	0,1	0,255385
4,920833	0,1	0,205183
4,922500	0,1	0,208518
4,924167	0,1	0,192914
4,925833	0,1	0,226059
4,927500	0,1	0,211693
4,929167	0,1	0,182067
4,930833	0,1	0,215345
4,932500	0,1	0,230206
4,934167	0,1	0,208623
4,935833	0,1	0,213201
4,937500	0,1	0,218940
4,939167	0,1	0,215833
4,940833	0,1	0,228217
4,942500	0,1	0,232850
4,944167	0,1	0,219397
4,945833	0,1	0,194452
4,947500	0,1	0,218167
4,949167	0,1	0,214459
4,950833	0,1	0,206556
4,952500	0,1	0,189791
4,954167	0,1	0,253508
4,955833	0,1	0,203671
4,957500	0,1	0,245808
4,959167	0,1	0,232174
4,960833	0,1	0,242090
4,962500	0,1	0,227908
4,964167	0,1	0,212009
4,965833	0,1	0,211981
4,967500	0,1	0,230430
4,969167	0,1	0,189998
4,970833	0,1	0,216721
4,972500	0,1	0,209604
4,974167	0,1	0,199243
4,975833	0,1	0,228628
4,977500	0,1	0,214198
4,979167	0,1	0,185088
4,980833	0,1	0,225064
4,982500	0,1	0,228220
4,984167	0,1	0,186851
4,985833	0,1	0,206060
4,987500	0,1	0,219906
4,989167	0,1	0,245721
4,990833	0,1	0,212529
4,992500	0,1	0,247736
4,994167	0,1	0,208100
4,995833	0,1	0,205813
4,997500	0,1	0,249723
4,999167	0,1	0,213109
5,000833	0,1	0,220097
5,002500	0,1	0,219937
5,004167	0,1	0,206836
5,005833	0,1	0,247156
5,007500	0,1	0,257787
5,009167	0,1	0,265556
5,010833	0,1	0,211982
5,012500	0,1	0,246856
5,014167	0,1	0,226299
5,015833	0,1	0,231717
5,017500	0,1	0,236727
5,019167	0,1	0,242379
5,020833	0,1	0,239209
5,022500	0,1	0,198119
5,024167	0,1	0,225130
5,025833	0,1	0,250044
5,027500	0,1	0,218019
5,029167	0,1	0,218011
5,030833	0,1	0,279407
5,032500	0,1	0,254813
5,034167	0,1	0,242310
5,035833	0,1	0,268022
5,037500	0,1	0,246971
5,039167	0,1	0,286513
5,040833	0,1	0,265654
5,042500	0,1	0,274320
5,044167	0,1	0,293319
5,045833	0,1	0,223427
5,047500	0,1	0,277554
5,049167	0,1	0,269919
5,050833	0,1	0,287485
5,052500	0,1	0,262255
5,054167	0,1	0,290331
5,055833	0,1	0,293294
5,057500	0,1	0,284506
5,059167	0,1	0,251620
5,060833	0,1	0,299768
5,062500	0,1	0,234366
5,064167	0,1	0,289069
5,065833	0,1	0,271885
5,067500	0,1	0,290244
5,069167	0,1	0,281641
5,070833	0,1	0,281800
5,072500	0,1	0,284431
5,074167	0,1	0,269152
5,075833	0,1	0,301672
5,077500	0,1	0,279654
5,079167	0,1	0,321124
5,080833	0,1	0,270128
5,082500	0,1	0,290468
5,084167	0,1	0,292745
5,085833	0,1	0,316406
5,087500	0,1	0,318755
5,089167	0,1	0,331179
5,090833	0,1	0,330188
5,092500	0,1	0,333589
5,094167	0,1	0,292184
5,095833	0,1	0,300837
5,097500	0,1	0,299809
5,099167	0,1	0,348227
5,100833	0,1	0,321783
5,102500	0,1	0,338884
5,104167	0,1	0,314428
5,105833	0,1	0,311756
5,107500	0,1	0,305851
5,109167	0,1	0,293969
5,110833	0,1	0,319165
5,112500	0,1	0,313068
5,114167	0,1	0,320744
5,115833	0,1	0,316540
5,117500	0,1	0,320137
5,119167	0,1	0,311116
5,120833	0,1	0,325562
5,122500	0,1	0,330702
5,124167	0,1	0,300078
5,125833	0,1	0,326583
5,127500	0,1	0,298214
5,129167	0,1	0,351592
5,130833	0,1	0,346435
5,132500	0,1	0,323003
5,134167	0,1	0,303603
5,135833	0,1	0,370409
5,137500	0,1	0,302618
5,139167	0,1	0,353427
5,140833	0,1	0,349264
5,142500	0,1	0,314848
5,144167	0,1	0,332335
5,145833	0,1	0,337799
5,147500	0,1	0,296579
5,149167	0,1	0,313036
5,150833	0,1	0,313294
5,152500	0,1	0,302190
5,154167	0,1	0,320902
5,155833	0,1	0,336633
5,157500	0,1	0,324248
5,159167	0,1	0,310094
5,160833	0,1	0,287703
5,162500	0,1	0,298078
5,164167	0,1	0,317176
5,165833	0,1	0,318107
5,167500	0,1	0,371177
5,169167	0,1	0,346243
5,170833	0,1	0,359117
5,172500	0,1	0,321297
5,174167	0,1	0,352726
5,175833	0,1	0,316230
5,177500	0,1	0,335996
5,179167	0,1	0,282709
5,180833	0,1	0,304045
5,182500	0,1	0,318689
5,184167	0,1	0,330382
5,185833	0,1	0,293911
5,187500	0,1	0,317339
5,189167	0,1	0,282767
5,190833	0,1	0,329886
5,192500	0,1	0,348940
5,194167	0,1	0,293607
5,195833	0,1	0,270700
5,197500	0,1	0,310335
5,199167	0,1	0,257540
5,200833	0,1	0,250077
5,202500	0,1	0,290590
5,204167	0,1	0,287461
5,205833	0,1	0,271369
5,207500	0,1	0,311175
5,209167	0,1	0,288615
5,210833	0,1	0,257082
5,212500	0,1	0,274888
5,214167	0,1	0,255254
5,215833	0,1	0,235312
5,217500	0,1	0,276581
5,219167	0,1	0,266067
5,220833	0,1	0,257918
5,222500	0,1	0,258523
5,224167	0,1	0,306578
5,225833	0,1	0,273941
5,227500	0,1	0,230094
5,229167	0,1	0,241609
5,230833	0,1	0,303942
5,232500	0,1	0,214180
5,234167	0,1	0,237481
5,235833	0,1	0,230401
5,237500	0,1	0,280993
5,239167	0,1	0,253529
5,240833	0,1	0,239454
5,242500	0,1	0,248726
5,244167	0,1	0,253069
5,245833	0,1	0,208581
5,247500	0,1	0,202931
5,249167	0,1	0,244977
5,250833	0,1	0,255924
5,252500	0,1	0,238949
5,254167	0,1	0,199855
5,255833	0,1	0,234026
5,257500	0,1	0,175591
5,259167	0,1	0,211933
5,260833	0,1	0,197344
5,262500	0,1	0,226150
5,264167	0,1	0,200041
5,265833	0,1	0,202374
5,267500	0,1	0,203508
5,269167	0,1	0,212003
5,270833	0,1	0,191340
5,272500	0,1	0,180223
5,274167	0,1	0,201956
5,275833	0,1	0,232101
5,277500	0,1	0,206509
5,279167	0,1	0,137680
5,280833	0,1	0,157723
5,282500	0,1	0,231196
5,284167	0,1	0,219435
5,285833	0,1	0,173914
5,287500	0,1	0,203337
5,289167	0,1	0,168812
5,290833	0,1	0,177789
5,292500	0,1	0,205515
5,294167	0,1	0,165667
5,295833	0,1	0,213679
5,297500	0,1	0,181375
5,299167	0,1	0,216502
5,300833	0,1	0,182620
5,302500	0,1	0,159118
5,304167	0,1	0,165695
5,305833	0,1	0,174996
5,307500	0,1	0,142393
5,309167	0,1	0,140294
5,310833	0,1	0,172320
5,312500	0,1	0,159406
5,314167	0,1	0,155715
5,315833	0,1	0,163464
5,317500	0,1	0,172051
5,319167	0,1	0,162387
5,320833	0,1	0,144503
5,322500	0,1	0,153233
5,324167	0,1	0,147043
5,325833	0,1	0,131765
5,327500	0,1	0,162919
5,329167	0,1	0,124521
5,330833	0,1	0,138139
5,332500	0,1	0,164241
5,334167	0,1	0,119288
5,335833	0,1	0,132791
5,337500	0,1	0,132716
5,339167	0,1	0,148070
5,340833	0,1	0,148099
5,342500	0,1	0,168094
5,344167	0,1	0,120610
5,345833	0,1	0,108305
5,347500	0,1	0,152947
5,349167	0,1	0,170374
5,350833	0,1	0,155241
5,352500	0,1	0,101997
5,354167	0,1	0,159389
5,355833	0,1	0,168136
5,357500	0,1	0,141108
5,359167	0,1	0,114540
5,360833	0,1	0,114696
5,362500	0,1	0,139395
5,364167	0,1	0,133274
5,365833	0,1	0,151795
5,367500	0,1	0,114526
5,369167	0,1	0,149991
5,370833	0,1	0,114025
5,372500	0,1	0,069224
5,374167	0,1	0,122927
5,375833	0,1	0,104768
5,377500	0,1	0,110164
5,379167	0,1	0,107574
5,380833	0,1	0,124345
5,382500	0,1	0,086489
5,384167	0,1	0,103664
5,385833	0,1	0,133985
5,387500	0,1	0,088212
5,389167	0,1	0,066298
5,390833	0,1	0,100426
5,392500	0,1	0,120077
5,394167	0,1	0,085226
5,395833	0,1	0,074350
5,397500	0,1	0,129759
5,399167	0,1	0,098783
5,400833	0,1	0,075779
5,402500	0,1	0,090161
5,404167	0,1	0,087473
5,405833	0,1	0,092918
5,407500	0,1	0,053404
5,409167	0,1	0,102286
5,410833	0,1	0,103143
5,412500	0,1	0,034220
5,414167	0,1	0,091680
5,415833	0,1	0,083772
5,417500	0,1	0,105251
5,419167	0,1	0,059018
5,420833	0,1	0,066065
5,422500	0,1	0,028499
5,424167	0,1	0,076841
5,425833	0,1	0,043464
5,427500	0,1	0,080819
5,429167	0,1	0,044772
5,430833	0,1	0,074857
5,432500	0,1	0,066461
5,434167	0,1	0,069643
5,435833	0,1	0,080451
5,437500	0,1	0,116551
5,439167	0,1	0,063801
5,440833	0,1	0,059564
5,442500	0,1	0,069704
5,444167	0,1	0,065818
5,445833	0,1	0,088025
5,447500	0,1	0,019296
5,449167	0,1	0,044217
5,450833	0,1	0,067508
5,452500	0,1	0,081609
5,454167	0,1	0,075445
5,455833	0,1	0,037382
5,457500	0,1	0,058916
5,459167	0,1	0,071590
5,460833	0,1	0,049261
5,462500	0,1	0,045632
5,464167	0,1	0,035490
5,465833	0,1	0,048525
5,467500	0,1	0,070530
5,469167	0,1	0,072689
5,470833	0,1	0,052571
5,472500	0,1	0,065728
5,474167	0,1	0,048948
5,475833	0,1	0,054097
5,477500	0,1	0,074773
5,479167	0,1	0,061741
5,480833	0,1	0,047458
5,482500	0,1	0,050227
5,484167	0,1	0,058527
5,485833	0,1	0,062459
5,487500	0,1	0,023906
5,489167	0,1	0,009304
5,490833	0,1	0,042726
5,492500	0,1	0,050371
5,494167	0,1	0,068193
5,495833	0,1	0,040236
5,497500	0,1	0,080295
5,499167	0,1	0,033368
5,500833	0,1	0,054322
5,502500	0,1	0,023013
5,504167	0,1	0,062679
5,505833	0,1	0,020698
5,507500	0,1	0,063756
5,509167	0,1	0,032390
5,510833	0,1	0,067256
5,512500	0,1	0,042490
5,514167	0,1	0,055397
5,515833	0,1	0,041041
5,517500	0,1	0,002853
5,519167	0,1	0,027224
5,520833	0,1	0,028945
5,522500	0,1	0,049251
5,524167	0,1	0,008544
5,525833	0,1	-0,000964
5,527500	0,1	0,037240
5,529167	0,1	0,026155
5,530833	0,1	0,026690
5,532500	0,1	0,029711
5,534167	0,1	0,022117
5,535833	0,1	0,033435
5,537500	0,1	0,032072
5,539167	0,1	0,047222
5,540833	0,1	0,016554
5,542500	0,1	0,034677
5,544167	0,1	0,028243
5,545833	0,1	0,041551
5,547500	0,1	0,008480
5,549167	0,1	0,033081
5,550833	0,1	0,036793
5,552500	0,1	0,039877
5,554167	0,1	0,024686
5,555833	0,1	0,065516
5,557500	0,1	0,048657
5,559167	0,1	0,026446
5,560833	0,1	0,031573
5,562500	0,1	0,054839
5,564167	0,1	0,026696
5,565833	0,1	0,021495
5,567500	0,1	0,014643
5,569167	0,1	0,021636
5,570833	0,1	0,029710
5,572500	0,1	0,026359
5,574167	0,1	0,015554
5,575833	0,1	0,021348
5,577500	0,1	0,080644
5,579167	0,1	0,026971
5,580833	0,1	-0,005637
5,582500	0,1	0,025565
5,584167	0,1	0,029815
5,585833	0,1	0,049830
5,587500	0,1	0,012250
5,589167	0,1	-0,005123
5,590833	0,1	0,048123
5,592500	0,1	0,024191
5,594167	0,1	0,005497
5,595833	0,1	0,029850
5,597500	0,1	0,077233
5,599167	0,1	0,033552
5,600833	0,1	0,036625
5,602500	0,1	0,006453
5,604167	0,1	0,018240
5,605833	0,1	-0,023580
5,607500	0,1	0,009129
5,609167	0,1	0,001955
5,610833	0,1	0,002346
5,612500	0,1	0,025214
5,614167	0,1	0,028571
5,615833	0,1	-0,006609
5,617500	0,1	-0,022759
5,619167	0,1	0,050872
5,620833	0,1	-0,002093
5,622500	0,1	0,030823
5,624167	0,1	0,043539
5,625833	0,1	0,025721
5,627500	0,1	0,013259
5,629167	0,1	0,023416
5,630833	0,1	-0,012177
5,632500	0,1	-0,010447
5,634167	0,1	0,046158
5,635833	0,1	0,061588
5,637500	0,1	0,011258
5,639167	0,1	0,014869
5,640833	0,1	0,051938
5,642500	0,1	0,032987
5,644167	0,1	0,028492
5,645833	0,1	0,006988
5,647500	0,1	0,005513
5,649167	0,1	0,038439
5,650833	0,1	0,021023
5,652500	0,1	0,021847
5,654167	0,1	0,016279
5,655833	0,1	0,043162
5,657500	0,1	0,037165
5,659167	0,1	0,050949
5,660833	0,1	0,020031
5,662500	0,1	0,043121
5,664167	0,1	0,026631
5,665833	0,1	0,032051
5,667500	0,1	0,049519
5,669167	0,1	0,056851
5,670833	0,1	0,081856
5,672500	0,1	0,050752
5,674167	0,1	0,066681
5,675833	0,1	0,016663
5,677500	0,1	0,019960
5,679167	0,1	0,092777
5,680833	0,1	0,035750
5,682500	0,1	0,032342
5,684167	0,1	0,050948
5,685833	0,1	0,071588
5,687500	0,1	0,035041
5,689167	0,1	0,048797
5,690833	0,1	0,032698
5,692500	0,1	0,073485
5,694167	0,1	0,082977
5,695833	0,1	0,071804
5,697500	0,1	0,039574
5,699167	0,1	0,033462
5,700833	0,1	0,024229
5,702500	0,1	0,053224
5,704167	0,1	0,023053
5,705833	0,1	0,026296
5,707500	0,1	0,070237
5,709167	0,1	0,095810
5,710833	0,1	0,017953
5,712500	0,1	0,064294
5,714167	0,1	0,086929
5,715833	0,1	0,051415
5,717500	0,1	0,046316
5,719167	0,1	0,071462
5,720833	0,1	0,068510
5,722500	0,1	0,076372
5,724167	0,1	0,051930
5,725833	0,1	0,039216
5,727500	0,1	0,073282
5,729167	0,1	0,074410
5,730833	0,1	0,056670
5,732500	0,1	0,072686
5,734167	0,1	0,064910
5,735833	0,1	0,079274
5,737500	0,1	0,065467
5,739167	0,1	0,043898
5,740833	0,1	0,057803
5,742500	0,1	0,055094
5,744167	0,1	0,069477
5,745833	0,1	0,031999
5,747500	0,1	0,053039
5,749167	0,1	0,076823
5,750833	0,1	0,073228
5,752500	0,1	0,069110
5,754167	0,1	0,049964
5,755833	0,1	0,067284
5,757500	0,1	0,069047
5,759167	0,1	0,055658
5,760833	0,1	0,076824
5,762500	0,1	0,079645
5,764167	0,1	0,116966
5,765833	0,1	0,083380
5,767500	0,1	0,053196
5,769167	0,1	0,070493
5,770833	0,1	0,052053
5,772500	0,1	0,053644
5,774167	0,1	0,037354
5,775833	0,1	0,100498
5,777500	0,1	0,082655
5,779167	0,1	0,065055
5,780833	0,1	0,082850
5,782500	0,1	0,091776
5,784167	0,1	0,059532
5,785833	0,1	0,069995
5,787500	0,1	0,040049
5,789167	0,1	0,042962
5,790833	0,1	0,083653
5,792500	0,1	0,067621
5,794167	0,1	0,087718
5,795833	0,1	0,028112
5,797500	0,1	0,099174
5,799167	0,1	0,103762
5,800833	0,1	0,055622
5,802500	0,1	0,067802
5,804167	0,1	0,081609
5,805833	0,1	0,071759
5,807500	0,1	0,104256
5,809167	0,1	0,103701
5,810833	0,1	0,067439
5,812500	0,1	0,066459
5,814167	0,1	0,075692
5,815833	0,1	0,074802
5,817500	0,1	0,058078
5,819167	0,1	0,091065
5,820833	0,1	0,073624
5,822500	0,1	0,043611
5,824167	0,1	0,077462
5,825833	0,1	0,084115
5,827500	0,1	0,104375
5,829167	0,1	0,057132
5,830833	0,1	0,058261
5,832500	0,1	0,071486
5,834167	0,1	0,091547
5,835833	0,1	0,073936
5,837500	0,1	0,093285
5,839167	0,1	0,045790
5,840833	0,1	0,064755
5,842500	0,1	0,103879
5,844167	0,1	0,050097
5,845833	0,1	0,063576
5,847500	0,1	0,060517
5,849167	0,1	0,100253
5,850833	0,1	0,049226
5,852500	0,1	0,058651
5,854167	0,1	0,052380
5,855833	0,1	0,050124
5,857500	0,1	0,080280
5,859167	0,1	0,079170
5,860833	0,1	0,065075
5,862500	0,1	0,033530
5,864167	0,1	0,059949
5,865833	0,1	0,072458
5,867500	0,1	0,064348
5,869167	0,1	0,057185
5,870833	0,1	0,029099
5,872500	0,1	0,044242
5,874167	0,1	0,039794
5,875833	0,1	0,018290
5,877500	0,1	0,051916
5,879167	0,1	0,037334
5,880833	0,1	0,024581
5,882500	0,1	0,048876
5,884167	0,1	0,002482
5,885833	0,1	0,038275
5,887500	0,1	0,051011
5,889167	0,1	0,076181
5,890833	0,1	0,074098
5,892500	0,1	0,051953
5,894167	0,1	0,043668
5,895833	0,1	0,032180
5,897500	0,1	0,041199
5,899167	0,1	0,035240
5,900833	0,1	0,089880
5,902500	0,1	0,045042
5,904167	0,1	0,042610
5,905833	0,1	0,096008
5,907500	0,1	0,036847
5,909167	0,1	0,044450
5,910833	0,1	0,008275
5,912500	0,1	0,054150
5,914167	0,1	0,082019
5,915833	0,1	0,013043
5,917500	0,1	0,072675
5,919167	0,1	0,033470
5,920833	0,1	0,013571
5,922500	0,1	0,009508
5,924167	0,1	0,063112
5,925833	0,1	0,030777
5,927500	0,1	0,005394
5,929167	0,1	0,047359
5,930833	0,1	0,027833
5,932500	0,1	0,049001
5,934167	0,1	0,028083
5,935833	0,1	0,057693
5,937500	0,1	0,036216
5,939167	0,1	0,031742
5,940833	0,1	0,019427
5,942500	0,1	0,023997
5,944167	0,1	0,053037
5,945833	0,1	0,051760
5,947500	0,1	0,051488
5,949167	0,1	0,064756
5,950833	0,1	0,013392
5,952500	0,1	0,027370
5,954167	0,1	0,049126
5,955833	0,1	0,085142
5,957500	0,1	0,015135
5,959167	0,1	0,002681
5,960833	0,1	0,023807
5,962500	0,1	0,086940
5,964167	0,1	0,028380
5,965833	0,1	0,006016
5,967500	0,1	0,021820
5,969167	0,1	0,016030
5,970833	0,1	-0,013254
5,972500	0,1	0,022768
5,974167	0,1	0,015988
5,975833	0,1	0,017725
5,977500	0,1	-0,002763
5,979167	0,1	0,026247
5,980833	0,1	0,027475
5,982500	0,1	-0,005739
5,984167	0,1	0,037961
5,985833	0,1	0,012080
5,987500	0,1	0,022568
5,989167	0,1	0,024060
5,990833	0,1	0,019612
5,992500	0,1	0,038858
5,994167	0,1	0,020234
5,995833	0,1	0,048833
5,997500	0,1	-0,022829
5,999167	0,1	0,021980
6,000833	0,1	0,019837
