File Path	chrom://chromeleon01/ikbm_chromeleon/2022/Rezex/Esteban/220612_chitin_4_7.seq/873.smp/UV_VIS_1.channel/UV_VIS_1.chm
Channel	UV_VIS_1

Injection Information:
Data Vault	ikbm_chromeleon
Injection	CelS2_00h-EGS_2
Injection Number	119
Position	BC5
Comment	
Processing Method	New ProcMethod
Instrument Method	Short_Rezex_6min_194nm
Type	Unknown
Status	Finished
Injection Date	13.06.2022
Injection Time	05:58:19
Injection Volume (µl)	8,000
Dilution Factor	1,0000
Weight	1,0000

Chromatogram Data Information:
Time Min. (min)	0,000833
Time Max. (min)	6,000833
Data Points	3601
Detector	UV
Generating Data System	Chromeleon 7.2.9.11323
Exporting Data System	Chromeleon 7.2.9.0
Operator	Instrument Controller
Signal Quantity	Absorbance
Signal Unit	mAU
Signal Min.	-0,093638
Signal Max.	101,709890
Channel	UV_VIS_1
Driver Name	VWD3000.dll
Channel Type	Evaluation
Min. Step (s)	0,1
Max. Step (s)	0,1
Average Step (s)	0,1

Signal Parameter Information:
Signal Info	WVL:194 nm

Chromatogram Data:
Time (min)	Step (s)	Value (mAU)
0,000833	n.a.	-0,042194
0,002500	0,1	-0,061834
0,004167	0,1	-0,051485
0,005833	0,1	-0,047602
0,007500	0,1	-0,022536
0,009167	0,1	-0,057996
0,010833	0,1	-0,063807
0,012500	0,1	-0,038869
0,014167	0,1	-0,005750
0,015833	0,1	-0,034045
0,017500	0,1	-0,031806
0,019167	0,1	-0,050041
0,020833	0,1	-0,027457
0,022500	0,1	-0,054361
0,024167	0,1	-0,043328
0,025833	0,1	-0,041553
0,027500	0,1	-0,060857
0,029167	0,1	-0,033355
0,030833	0,1	-0,061999
0,032500	0,1	-0,083893
0,034167	0,1	-0,071985
0,035833	0,1	-0,093638
0,037500	0,1	-0,064261
0,039167	0,1	-0,057181
0,040833	0,1	-0,089267
0,042500	0,1	-0,085929
0,044167	0,1	-0,058378
0,045833	0,1	-0,052919
0,047500	0,1	-0,048778
0,049167	0,1	-0,042607
0,050833	0,1	-0,013204
0,052500	0,1	-0,039437
0,054167	0,1	-0,076068
0,055833	0,1	-0,024590
0,057500	0,1	-0,000615
0,059167	0,1	-0,031690
0,060833	0,1	-0,050391
0,062500	0,1	-0,034682
0,064167	0,1	-0,041673
0,065833	0,1	-0,023072
0,067500	0,1	-0,030062
0,069167	0,1	-0,061435
0,070833	0,1	-0,035766
0,072500	0,1	-0,054135
0,074167	0,1	-0,014260
0,075833	0,1	0,013732
0,077500	0,1	-0,002089
0,079167	0,1	-0,026681
0,080833	0,1	-0,003777
0,082500	0,1	-0,044199
0,084167	0,1	-0,014398
0,085833	0,1	-0,022651
0,087500	0,1	-0,040265
0,089167	0,1	-0,014167
0,090833	0,1	-0,031343
0,092500	0,1	-0,017112
0,094167	0,1	0,010954
0,095833	0,1	-0,037813
0,097500	0,1	-0,060673
0,099167	0,1	-0,053392
0,100833	0,1	-0,017056
0,102500	0,1	-0,050632
0,104167	0,1	-0,047724
0,105833	0,1	-0,029654
0,107500	0,1	-0,037243
0,109167	0,1	-0,062673
0,110833	0,1	-0,078700
0,112500	0,1	-0,076902
0,114167	0,1	-0,030242
0,115833	0,1	-0,062426
0,117500	0,1	0,028492
0,119167	0,1	-0,073194
0,120833	0,1	-0,049777
0,122500	0,1	-0,072405
0,124167	0,1	-0,056357
0,125833	0,1	-0,036547
0,127500	0,1	-0,085627
0,129167	0,1	-0,025130
0,130833	0,1	-0,025739
0,132500	0,1	-0,057690
0,134167	0,1	-0,053085
0,135833	0,1	-0,090563
0,137500	0,1	-0,011107
0,139167	0,1	-0,043239
0,140833	0,1	-0,065605
0,142500	0,1	-0,070926
0,144167	0,1	-0,086688
0,145833	0,1	-0,016299
0,147500	0,1	-0,055230
0,149167	0,1	-0,014340
0,150833	0,1	-0,027599
0,152500	0,1	-0,055294
0,154167	0,1	-0,046212
0,155833	0,1	-0,052960
0,157500	0,1	-0,025853
0,159167	0,1	-0,009428
0,160833	0,1	-0,039848
0,162500	0,1	-0,033317
0,164167	0,1	-0,015995
0,165833	0,1	-0,013548
0,167500	0,1	-0,018160
0,169167	0,1	-0,072778
0,170833	0,1	-0,040734
0,172500	0,1	-0,009035
0,174167	0,1	-0,043804
0,175833	0,1	-0,006955
0,177500	0,1	-0,044751
0,179167	0,1	-0,033855
0,180833	0,1	-0,035576
0,182500	0,1	-0,007551
0,184167	0,1	-0,006903
0,185833	0,1	-0,000856
0,187500	0,1	-0,038044
0,189167	0,1	0,006976
0,190833	0,1	-0,009420
0,192500	0,1	-0,040139
0,194167	0,1	-0,030752
0,195833	0,1	-0,007093
0,197500	0,1	-0,025612
0,199167	0,1	-0,042586
0,200833	0,1	-0,054671
0,202500	0,1	-0,026037
0,204167	0,1	-0,058990
0,205833	0,1	-0,014506
0,207500	0,1	-0,040904
0,209167	0,1	-0,042605
0,210833	0,1	-0,003827
0,212500	0,1	-0,030955
0,214167	0,1	-0,047507
0,215833	0,1	-0,031485
0,217500	0,1	-0,001669
0,219167	0,1	-0,053424
0,220833	0,1	-0,030650
0,222500	0,1	0,006590
0,224167	0,1	0,003929
0,225833	0,1	0,000571
0,227500	0,1	-0,009986
0,229167	0,1	-0,039390
0,230833	0,1	0,025001
0,232500	0,1	-0,004602
0,234167	0,1	-0,010294
0,235833	0,1	-0,030456
0,237500	0,1	-0,005475
0,239167	0,1	0,000427
0,240833	0,1	-0,005161
0,242500	0,1	-0,023229
0,244167	0,1	0,003649
0,245833	0,1	-0,000485
0,247500	0,1	-0,002611
0,249167	0,1	-0,019548
0,250833	0,1	-0,034429
0,252500	0,1	-0,027420
0,254167	0,1	-0,013016
0,255833	0,1	-0,015674
0,257500	0,1	-0,009944
0,259167	0,1	-0,043239
0,260833	0,1	-0,001568
0,262500	0,1	-0,014281
0,264167	0,1	-0,015349
0,265833	0,1	0,004231
0,267500	0,1	-0,043556
0,269167	0,1	0,021440
0,270833	0,1	-0,040237
0,272500	0,1	-0,009643
0,274167	0,1	-0,008705
0,275833	0,1	-0,009039
0,277500	0,1	-0,031508
0,279167	0,1	0,022401
0,280833	0,1	0,018915
0,282500	0,1	-0,030615
0,284167	0,1	0,002134
0,285833	0,1	0,007029
0,287500	0,1	-0,031093
0,289167	0,1	-0,032904
0,290833	0,1	0,028710
0,292500	0,1	0,017960
0,294167	0,1	-0,006606
0,295833	0,1	-0,041940
0,297500	0,1	0,005174
0,299167	0,1	0,002293
0,300833	0,1	0,028738
0,302500	0,1	0,014154
0,304167	0,1	-0,041233
0,305833	0,1	0,014217
0,307500	0,1	0,005126
0,309167	0,1	0,009096
0,310833	0,1	-0,009754
0,312500	0,1	-0,054753
0,314167	0,1	0,016200
0,315833	0,1	0,010593
0,317500	0,1	-0,016276
0,319167	0,1	-0,035070
0,320833	0,1	0,029967
0,322500	0,1	0,031064
0,324167	0,1	0,015702
0,325833	0,1	0,011173
0,327500	0,1	0,019178
0,329167	0,1	0,030605
0,330833	0,1	-0,013932
0,332500	0,1	0,027739
0,334167	0,1	0,036732
0,335833	0,1	0,031040
0,337500	0,1	-0,004785
0,339167	0,1	0,009858
0,340833	0,1	0,005536
0,342500	0,1	-0,016538
0,344167	0,1	-0,004689
0,345833	0,1	0,017583
0,347500	0,1	0,003763
0,349167	0,1	-0,003859
0,350833	0,1	-0,038520
0,352500	0,1	0,013346
0,354167	0,1	-0,015984
0,355833	0,1	0,015656
0,357500	0,1	0,013036
0,359167	0,1	0,005564
0,360833	0,1	-0,025839
0,362500	0,1	0,011179
0,364167	0,1	0,009413
0,365833	0,1	0,030003
0,367500	0,1	0,000682
0,369167	0,1	-0,001646
0,370833	0,1	0,010465
0,372500	0,1	-0,001229
0,374167	0,1	0,002906
0,375833	0,1	0,008769
0,377500	0,1	0,000861
0,379167	0,1	0,022672
0,380833	0,1	0,027291
0,382500	0,1	0,027917
0,384167	0,1	0,019577
0,385833	0,1	-0,022873
0,387500	0,1	0,026227
0,389167	0,1	0,026071
0,390833	0,1	0,002121
0,392500	0,1	-0,001231
0,394167	0,1	0,023666
0,395833	0,1	0,016342
0,397500	0,1	0,063368
0,399167	0,1	0,033762
0,400833	0,1	0,050806
0,402500	0,1	0,033468
0,404167	0,1	0,033463
0,405833	0,1	0,032225
0,407500	0,1	-0,013564
0,409167	0,1	0,007113
0,410833	0,1	0,028052
0,412500	0,1	0,034457
0,414167	0,1	0,024378
0,415833	0,1	0,041945
0,417500	0,1	0,009024
0,419167	0,1	0,024599
0,420833	0,1	0,033999
0,422500	0,1	0,004075
0,424167	0,1	0,026110
0,425833	0,1	0,033358
0,427500	0,1	0,054471
0,429167	0,1	0,035455
0,430833	0,1	0,024939
0,432500	0,1	0,014214
0,434167	0,1	0,020462
0,435833	0,1	0,018950
0,437500	0,1	0,059045
0,439167	0,1	0,031133
0,440833	0,1	0,068357
0,442500	0,1	0,002757
0,444167	0,1	0,078081
0,445833	0,1	0,041464
0,447500	0,1	0,086102
0,449167	0,1	0,031966
0,450833	0,1	0,042033
0,452500	0,1	0,024010
0,454167	0,1	0,030376
0,455833	0,1	0,022160
0,457500	0,1	0,023591
0,459167	0,1	0,023196
0,460833	0,1	-0,001165
0,462500	0,1	0,047262
0,464167	0,1	0,005045
0,465833	0,1	0,013033
0,467500	0,1	0,031158
0,469167	0,1	0,031583
0,470833	0,1	0,049959
0,472500	0,1	0,026076
0,474167	0,1	0,024068
0,475833	0,1	0,035467
0,477500	0,1	0,060744
0,479167	0,1	0,032890
0,480833	0,1	0,036506
0,482500	0,1	0,052959
0,484167	0,1	0,042907
0,485833	0,1	0,006247
0,487500	0,1	0,040699
0,489167	0,1	0,073122
0,490833	0,1	0,019377
0,492500	0,1	0,032899
0,494167	0,1	0,028807
0,495833	0,1	0,074217
0,497500	0,1	0,081824
0,499167	0,1	0,024327
0,500833	0,1	0,052524
0,502500	0,1	0,059818
0,504167	0,1	0,037426
0,505833	0,1	0,091999
0,507500	0,1	0,059371
0,509167	0,1	0,061597
0,510833	0,1	0,057086
0,512500	0,1	0,039535
0,514167	0,1	0,040814
0,515833	0,1	0,037104
0,517500	0,1	0,037622
0,519167	0,1	0,014843
0,520833	0,1	0,041116
0,522500	0,1	0,063888
0,524167	0,1	0,049469
0,525833	0,1	0,053710
0,527500	0,1	0,104628
0,529167	0,1	0,039028
0,530833	0,1	0,065589
0,532500	0,1	0,053195
0,534167	0,1	0,040509
0,535833	0,1	0,067532
0,537500	0,1	0,053546
0,539167	0,1	0,063026
0,540833	0,1	0,069710
0,542500	0,1	0,065590
0,544167	0,1	0,028814
0,545833	0,1	0,068109
0,547500	0,1	0,047668
0,549167	0,1	0,052197
0,550833	0,1	0,074322
0,552500	0,1	0,045251
0,554167	0,1	0,046503
0,555833	0,1	0,046318
0,557500	0,1	0,074012
0,559167	0,1	0,075926
0,560833	0,1	0,062514
0,562500	0,1	0,042181
0,564167	0,1	0,061178
0,565833	0,1	0,069129
0,567500	0,1	0,100825
0,569167	0,1	0,081645
0,570833	0,1	0,117283
0,572500	0,1	0,076948
0,574167	0,1	0,047132
0,575833	0,1	0,062297
0,577500	0,1	0,054663
0,579167	0,1	0,076457
0,580833	0,1	0,100889
0,582500	0,1	0,044530
0,584167	0,1	0,067639
0,585833	0,1	0,114424
0,587500	0,1	0,072580
0,589167	0,1	0,095897
0,590833	0,1	0,090689
0,592500	0,1	0,078514
0,594167	0,1	0,070461
0,595833	0,1	0,052967
0,597500	0,1	0,093263
0,599167	0,1	0,068828
0,600833	0,1	0,065696
0,602500	0,1	0,110056
0,604167	0,1	0,086860
0,605833	0,1	0,065330
0,607500	0,1	0,110179
0,609167	0,1	0,073035
0,610833	0,1	0,110637
0,612500	0,1	0,114744
0,614167	0,1	0,105699
0,615833	0,1	0,084625
0,617500	0,1	0,111508
0,619167	0,1	0,118988
0,620833	0,1	0,070279
0,622500	0,1	0,087807
0,624167	0,1	0,136889
0,625833	0,1	0,110277
0,627500	0,1	0,083634
0,629167	0,1	0,100226
0,630833	0,1	0,111657
0,632500	0,1	0,108594
0,634167	0,1	0,122401
0,635833	0,1	0,104998
0,637500	0,1	0,094000
0,639167	0,1	0,129438
0,640833	0,1	0,115949
0,642500	0,1	0,117706
0,644167	0,1	0,103961
0,645833	0,1	0,124719
0,647500	0,1	0,096904
0,649167	0,1	0,156454
0,650833	0,1	0,104944
0,652500	0,1	0,114163
0,654167	0,1	0,121119
0,655833	0,1	0,134473
0,657500	0,1	0,095641
0,659167	0,1	0,153223
0,660833	0,1	0,070517
0,662500	0,1	0,118356
0,664167	0,1	0,102448
0,665833	0,1	0,137864
0,667500	0,1	0,127812
0,669167	0,1	0,114767
0,670833	0,1	0,184903
0,672500	0,1	0,142170
0,674167	0,1	0,140834
0,675833	0,1	0,128538
0,677500	0,1	0,147353
0,679167	0,1	0,125848
0,680833	0,1	0,144267
0,682500	0,1	0,136509
0,684167	0,1	0,154352
0,685833	0,1	0,161229
0,687500	0,1	0,144421
0,689167	0,1	0,142347
0,690833	0,1	0,146423
0,692500	0,1	0,152222
0,694167	0,1	0,161703
0,695833	0,1	0,159678
0,697500	0,1	0,175307
0,699167	0,1	0,173221
0,700833	0,1	0,150883
0,702500	0,1	0,173216
0,704167	0,1	0,174400
0,705833	0,1	0,153987
0,707500	0,1	0,167502
0,709167	0,1	0,133802
0,710833	0,1	0,199526
0,712500	0,1	0,157740
0,714167	0,1	0,198454
0,715833	0,1	0,160948
0,717500	0,1	0,194522
0,719167	0,1	0,169562
0,720833	0,1	0,212143
0,722500	0,1	0,204906
0,724167	0,1	0,184637
0,725833	0,1	0,171796
0,727500	0,1	0,172929
0,729167	0,1	0,192620
0,730833	0,1	0,189435
0,732500	0,1	0,230325
0,734167	0,1	0,159259
0,735833	0,1	0,206818
0,737500	0,1	0,195692
0,739167	0,1	0,223453
0,740833	0,1	0,197456
0,742500	0,1	0,239854
0,744167	0,1	0,225618
0,745833	0,1	0,228307
0,747500	0,1	0,242037
0,749167	0,1	0,193134
0,750833	0,1	0,248902
0,752500	0,1	0,228066
0,754167	0,1	0,250507
0,755833	0,1	0,283517
0,757500	0,1	0,255922
0,759167	0,1	0,240322
0,760833	0,1	0,237751
0,762500	0,1	0,244169
0,764167	0,1	0,246926
0,765833	0,1	0,258628
0,767500	0,1	0,239578
0,769167	0,1	0,265375
0,770833	0,1	0,259065
0,772500	0,1	0,216556
0,774167	0,1	0,198511
0,775833	0,1	0,193622
0,777500	0,1	0,217283
0,779167	0,1	0,274976
0,780833	0,1	0,290256
0,782500	0,1	0,207970
0,784167	0,1	0,257892
0,785833	0,1	0,242749
0,787500	0,1	0,226965
0,789167	0,1	0,201973
0,790833	0,1	0,250476
0,792500	0,1	0,241501
0,794167	0,1	0,250361
0,795833	0,1	0,238479
0,797500	0,1	0,204564
0,799167	0,1	0,249005
0,800833	0,1	0,240962
0,802500	0,1	0,237568
0,804167	0,1	0,244833
0,805833	0,1	0,232555
0,807500	0,1	0,223070
0,809167	0,1	0,241911
0,810833	0,1	0,235354
0,812500	0,1	0,263260
0,814167	0,1	0,208356
0,815833	0,1	0,205570
0,817500	0,1	0,235259
0,819167	0,1	0,263072
0,820833	0,1	0,217012
0,822500	0,1	0,248679
0,824167	0,1	0,208994
0,825833	0,1	0,211760
0,827500	0,1	0,252154
0,829167	0,1	0,268565
0,830833	0,1	0,219973
0,832500	0,1	0,239960
0,834167	0,1	0,207212
0,835833	0,1	0,222939
0,837500	0,1	0,245721
0,839167	0,1	0,254958
0,840833	0,1	0,245541
0,842500	0,1	0,245313
0,844167	0,1	0,203879
0,845833	0,1	0,249421
0,847500	0,1	0,228459
0,849167	0,1	0,233918
0,850833	0,1	0,204872
0,852500	0,1	0,186520
0,854167	0,1	0,233016
0,855833	0,1	0,252080
0,857500	0,1	0,227630
0,859167	0,1	0,242991
0,860833	0,1	0,234126
0,862500	0,1	0,241622
0,864167	0,1	0,238126
0,865833	0,1	0,200998
0,867500	0,1	0,221098
0,869167	0,1	0,241040
0,870833	0,1	0,229945
0,872500	0,1	0,211533
0,874167	0,1	0,224865
0,875833	0,1	0,226960
0,877500	0,1	0,227686
0,879167	0,1	0,234764
0,880833	0,1	0,216447
0,882500	0,1	0,212570
0,884167	0,1	0,226565
0,885833	0,1	0,208017
0,887500	0,1	0,232154
0,889167	0,1	0,241333
0,890833	0,1	0,241624
0,892500	0,1	0,233633
0,894167	0,1	0,236425
0,895833	0,1	0,250134
0,897500	0,1	0,260987
0,899167	0,1	0,230779
0,900833	0,1	0,289907
0,902500	0,1	0,288209
0,904167	0,1	0,215734
0,905833	0,1	0,219794
0,907500	0,1	0,243648
0,909167	0,1	0,282545
0,910833	0,1	0,275014
0,912500	0,1	0,206994
0,914167	0,1	0,242282
0,915833	0,1	0,222579
0,917500	0,1	0,278287
0,919167	0,1	0,290445
0,920833	0,1	0,266570
0,922500	0,1	0,277061
0,924167	0,1	0,269651
0,925833	0,1	0,279051
0,927500	0,1	0,254496
0,929167	0,1	0,268009
0,930833	0,1	0,284414
0,932500	0,1	0,248344
0,934167	0,1	0,293748
0,935833	0,1	0,274891
0,937500	0,1	0,264287
0,939167	0,1	0,270995
0,940833	0,1	0,273893
0,942500	0,1	0,277251
0,944167	0,1	0,309679
0,945833	0,1	0,310204
0,947500	0,1	0,297943
0,949167	0,1	0,326919
0,950833	0,1	0,324458
0,952500	0,1	0,315922
0,954167	0,1	0,318061
0,955833	0,1	0,295354
0,957500	0,1	0,345487
0,959167	0,1	0,307707
0,960833	0,1	0,303355
0,962500	0,1	0,300096
0,964167	0,1	0,312481
0,965833	0,1	0,311577
0,967500	0,1	0,307850
0,969167	0,1	0,345868
0,970833	0,1	0,320259
0,972500	0,1	0,341287
0,974167	0,1	0,311975
0,975833	0,1	0,388798
0,977500	0,1	0,293579
0,979167	0,1	0,346027
0,980833	0,1	0,381859
0,982500	0,1	0,390288
0,984167	0,1	0,350571
0,985833	0,1	0,364561
0,987500	0,1	0,352453
0,989167	0,1	0,359993
0,990833	0,1	0,390799
0,992500	0,1	0,367266
0,994167	0,1	0,384232
0,995833	0,1	0,402932
0,997500	0,1	0,380841
0,999167	0,1	0,413848
1,000833	0,1	0,425035
1,002500	0,1	0,394141
1,004167	0,1	0,434337
1,005833	0,1	0,419994
1,007500	0,1	0,436172
1,009167	0,1	0,473268
1,010833	0,1	0,447491
1,012500	0,1	0,482453
1,014167	0,1	0,497779
1,015833	0,1	0,485770
1,017500	0,1	0,527359
1,019167	0,1	0,544871
1,020833	0,1	0,561580
1,022500	0,1	0,557244
1,024167	0,1	0,546390
1,025833	0,1	0,571856
1,027500	0,1	0,606778
1,029167	0,1	0,602450
1,030833	0,1	0,605629
1,032500	0,1	0,607877
1,034167	0,1	0,625674
1,035833	0,1	0,642866
1,037500	0,1	0,608529
1,039167	0,1	0,635633
1,040833	0,1	0,671812
1,042500	0,1	0,657334
1,044167	0,1	0,661666
1,045833	0,1	0,664365
1,047500	0,1	0,678760
1,049167	0,1	0,706107
1,050833	0,1	0,702128
1,052500	0,1	0,744056
1,054167	0,1	0,724629
1,055833	0,1	0,748690
1,057500	0,1	0,809717
1,059167	0,1	0,875426
1,060833	0,1	0,904789
1,062500	0,1	1,003168
1,064167	0,1	1,123434
1,065833	0,1	1,290128
1,067500	0,1	1,447586
1,069167	0,1	1,738468
1,070833	0,1	2,037234
1,072500	0,1	2,413035
1,074167	0,1	2,913953
1,075833	0,1	3,427083
1,077500	0,1	4,148540
1,079167	0,1	4,870837
1,080833	0,1	5,787489
1,082500	0,1	6,813204
1,084167	0,1	7,977823
1,085833	0,1	9,222492
1,087500	0,1	10,620792
1,089167	0,1	12,054464
1,090833	0,1	13,594002
1,092500	0,1	15,252507
1,094167	0,1	16,850189
1,095833	0,1	18,518161
1,097500	0,1	20,187740
1,099167	0,1	21,808049
1,100833	0,1	23,299518
1,102500	0,1	24,764719
1,104167	0,1	26,042475
1,105833	0,1	27,325073
1,107500	0,1	28,352230
1,109167	0,1	29,306621
1,110833	0,1	30,037949
1,112500	0,1	30,655314
1,114167	0,1	31,178681
1,115833	0,1	31,509887
1,117500	0,1	31,749922
1,119167	0,1	31,883898
1,120833	0,1	31,901439
1,122500	0,1	31,850038
1,124167	0,1	31,774471
1,125833	0,1	31,573671
1,127500	0,1	31,404283
1,129167	0,1	31,174762
1,130833	0,1	30,936619
1,132500	0,1	30,731389
1,134167	0,1	30,505051
1,135833	0,1	30,268705
1,137500	0,1	30,097444
1,139167	0,1	30,054086
1,140833	0,1	30,027950
1,142500	0,1	30,071414
1,144167	0,1	30,165363
1,145833	0,1	30,324317
1,147500	0,1	30,609626
1,149167	0,1	30,902968
1,150833	0,1	31,319601
1,152500	0,1	31,835535
1,154167	0,1	32,382049
1,155833	0,1	33,054946
1,157500	0,1	33,760552
1,159167	0,1	34,486837
1,160833	0,1	35,272712
1,162500	0,1	36,117981
1,164167	0,1	36,988208
1,165833	0,1	37,784365
1,167500	0,1	38,642052
1,169167	0,1	39,486690
1,170833	0,1	40,249203
1,172500	0,1	41,058418
1,174167	0,1	41,760599
1,175833	0,1	42,441154
1,177500	0,1	43,056122
1,179167	0,1	43,639040
1,180833	0,1	44,127979
1,182500	0,1	44,589330
1,184167	0,1	44,900648
1,185833	0,1	45,179206
1,187500	0,1	45,503860
1,189167	0,1	45,707191
1,190833	0,1	45,868462
1,192500	0,1	46,003950
1,194167	0,1	46,130668
1,195833	0,1	46,267701
1,197500	0,1	46,452919
1,199167	0,1	46,678798
1,200833	0,1	46,951852
1,202500	0,1	47,306534
1,204167	0,1	47,775005
1,205833	0,1	48,369514
1,207500	0,1	49,171938
1,209167	0,1	50,083505
1,210833	0,1	51,260422
1,212500	0,1	52,565202
1,214167	0,1	54,047791
1,215833	0,1	55,791147
1,217500	0,1	57,676760
1,219167	0,1	59,748456
1,220833	0,1	61,989405
1,222500	0,1	64,420636
1,224167	0,1	66,918448
1,225833	0,1	69,569946
1,227500	0,1	72,196411
1,229167	0,1	74,904895
1,230833	0,1	77,647371
1,232500	0,1	80,297397
1,234167	0,1	82,917854
1,235833	0,1	85,432420
1,237500	0,1	87,801427
1,239167	0,1	90,060687
1,240833	0,1	92,116524
1,242500	0,1	94,036222
1,244167	0,1	95,756945
1,245833	0,1	97,257847
1,247500	0,1	98,543836
1,249167	0,1	99,619215
1,250833	0,1	100,509077
1,252500	0,1	101,100116
1,254167	0,1	101,499061
1,255833	0,1	101,709890
1,257500	0,1	101,703574
1,259167	0,1	101,465616
1,260833	0,1	101,031329
1,262500	0,1	100,399170
1,264167	0,1	99,575667
1,265833	0,1	98,571762
1,267500	0,1	97,452273
1,269167	0,1	96,077977
1,270833	0,1	94,594750
1,272500	0,1	93,028883
1,274167	0,1	91,272105
1,275833	0,1	89,459416
1,277500	0,1	87,537385
1,279167	0,1	85,476694
1,280833	0,1	83,359914
1,282500	0,1	81,243731
1,284167	0,1	79,090743
1,285833	0,1	76,881105
1,287500	0,1	74,712863
1,289167	0,1	72,456457
1,290833	0,1	70,263974
1,292500	0,1	68,082358
1,294167	0,1	65,977125
1,295833	0,1	63,818121
1,297500	0,1	61,729568
1,299167	0,1	59,756241
1,300833	0,1	57,719604
1,302500	0,1	55,822351
1,304167	0,1	53,928596
1,305833	0,1	52,160864
1,307500	0,1	50,422480
1,309167	0,1	48,732388
1,310833	0,1	47,160876
1,312500	0,1	45,579147
1,314167	0,1	44,094320
1,315833	0,1	42,646125
1,317500	0,1	41,343242
1,319167	0,1	40,033846
1,320833	0,1	38,816276
1,322500	0,1	37,603346
1,324167	0,1	36,447955
1,325833	0,1	35,325126
1,327500	0,1	34,317748
1,329167	0,1	33,276372
1,330833	0,1	32,312167
1,332500	0,1	31,430051
1,334167	0,1	30,492512
1,335833	0,1	29,659717
1,337500	0,1	28,820593
1,339167	0,1	28,041859
1,340833	0,1	27,258727
1,342500	0,1	26,522814
1,344167	0,1	25,831024
1,345833	0,1	25,140983
1,347500	0,1	24,485597
1,349167	0,1	23,813728
1,350833	0,1	23,205578
1,352500	0,1	22,589151
1,354167	0,1	22,027308
1,355833	0,1	21,469313
1,357500	0,1	20,918944
1,359167	0,1	20,320206
1,360833	0,1	19,837576
1,362500	0,1	19,379442
1,364167	0,1	18,888165
1,365833	0,1	18,401062
1,367500	0,1	17,924788
1,369167	0,1	17,486187
1,370833	0,1	17,086445
1,372500	0,1	16,646731
1,374167	0,1	16,219787
1,375833	0,1	15,858352
1,377500	0,1	15,442065
1,379167	0,1	15,087634
1,380833	0,1	14,727211
1,382500	0,1	14,366688
1,384167	0,1	14,015378
1,385833	0,1	13,657291
1,387500	0,1	13,381540
1,389167	0,1	13,087215
1,390833	0,1	12,784885
1,392500	0,1	12,483052
1,394167	0,1	12,144477
1,395833	0,1	11,932977
1,397500	0,1	11,677892
1,399167	0,1	11,395134
1,400833	0,1	11,121455
1,402500	0,1	10,900856
1,404167	0,1	10,678174
1,405833	0,1	10,465574
1,407500	0,1	10,235016
1,409167	0,1	10,062624
1,410833	0,1	9,878524
1,412500	0,1	9,652049
1,414167	0,1	9,484035
1,415833	0,1	9,376402
1,417500	0,1	9,158926
1,419167	0,1	8,964014
1,420833	0,1	8,810015
1,422500	0,1	8,691671
1,424167	0,1	8,540279
1,425833	0,1	8,395849
1,427500	0,1	8,287912
1,429167	0,1	8,139608
1,430833	0,1	7,992935
1,432500	0,1	7,864615
1,434167	0,1	7,735446
1,435833	0,1	7,675038
1,437500	0,1	7,451957
1,439167	0,1	7,412642
1,440833	0,1	7,266577
1,442500	0,1	7,217051
1,444167	0,1	7,094801
1,445833	0,1	7,016713
1,447500	0,1	6,888365
1,449167	0,1	6,804993
1,450833	0,1	6,737217
1,452500	0,1	6,630261
1,454167	0,1	6,558676
1,455833	0,1	6,443112
1,457500	0,1	6,375361
1,459167	0,1	6,250374
1,460833	0,1	6,214638
1,462500	0,1	6,158014
1,464167	0,1	6,071216
1,465833	0,1	5,998320
1,467500	0,1	5,927971
1,469167	0,1	5,875663
1,470833	0,1	5,788447
1,472500	0,1	5,729240
1,474167	0,1	5,716875
1,475833	0,1	5,654386
1,477500	0,1	5,586824
1,479167	0,1	5,581700
1,480833	0,1	5,514028
1,482500	0,1	5,448807
1,484167	0,1	5,430038
1,485833	0,1	5,355192
1,487500	0,1	5,334278
1,489167	0,1	5,323008
1,490833	0,1	5,293611
1,492500	0,1	5,261333
1,494167	0,1	5,259123
1,495833	0,1	5,231145
1,497500	0,1	5,154579
1,499167	0,1	5,184315
1,500833	0,1	5,190277
1,502500	0,1	5,131878
1,504167	0,1	5,142083
1,505833	0,1	5,113575
1,507500	0,1	5,097087
1,509167	0,1	5,075465
1,510833	0,1	5,079552
1,512500	0,1	5,090816
1,514167	0,1	5,068773
1,515833	0,1	5,007172
1,517500	0,1	5,086255
1,519167	0,1	5,033336
1,520833	0,1	5,015621
1,522500	0,1	4,970754
1,524167	0,1	4,996085
1,525833	0,1	4,988271
1,527500	0,1	4,964907
1,529167	0,1	4,961007
1,530833	0,1	4,991403
1,532500	0,1	4,940764
1,534167	0,1	4,927144
1,535833	0,1	4,944275
1,537500	0,1	4,873358
1,539167	0,1	4,896247
1,540833	0,1	4,870035
1,542500	0,1	4,862094
1,544167	0,1	4,844908
1,545833	0,1	4,807080
1,547500	0,1	4,764955
1,549167	0,1	4,791645
1,550833	0,1	4,771874
1,552500	0,1	4,739898
1,554167	0,1	4,731979
1,555833	0,1	4,735007
1,557500	0,1	4,705597
1,559167	0,1	4,661153
1,560833	0,1	4,631240
1,562500	0,1	4,654486
1,564167	0,1	4,603314
1,565833	0,1	4,575950
1,567500	0,1	4,565609
1,569167	0,1	4,560708
1,570833	0,1	4,518078
1,572500	0,1	4,502591
1,574167	0,1	4,449355
1,575833	0,1	4,407014
1,577500	0,1	4,417778
1,579167	0,1	4,386592
1,580833	0,1	4,367506
1,582500	0,1	4,364180
1,584167	0,1	4,320034
1,585833	0,1	4,307874
1,587500	0,1	4,277055
1,589167	0,1	4,252148
1,590833	0,1	4,180682
1,592500	0,1	4,187097
1,594167	0,1	4,216059
1,595833	0,1	4,155863
1,597500	0,1	4,131761
1,599167	0,1	4,092887
1,600833	0,1	4,048933
1,602500	0,1	4,057011
1,604167	0,1	4,018650
1,605833	0,1	3,974881
1,607500	0,1	3,945989
1,609167	0,1	3,938213
1,610833	0,1	3,947165
1,612500	0,1	3,881515
1,614167	0,1	3,908008
1,615833	0,1	3,806913
1,617500	0,1	3,853901
1,619167	0,1	3,821629
1,620833	0,1	3,740882
1,622500	0,1	3,763817
1,624167	0,1	3,750624
1,625833	0,1	3,745317
1,627500	0,1	3,689328
1,629167	0,1	3,690223
1,630833	0,1	3,621047
1,632500	0,1	3,605401
1,634167	0,1	3,613989
1,635833	0,1	3,554428
1,637500	0,1	3,545255
1,639167	0,1	3,553507
1,640833	0,1	3,516329
1,642500	0,1	3,541005
1,644167	0,1	3,530376
1,645833	0,1	3,487118
1,647500	0,1	3,475984
1,649167	0,1	3,466981
1,650833	0,1	3,436116
1,652500	0,1	3,449151
1,654167	0,1	3,421885
1,655833	0,1	3,406853
1,657500	0,1	3,398498
1,659167	0,1	3,401235
1,660833	0,1	3,387561
1,662500	0,1	3,382845
1,664167	0,1	3,354185
1,665833	0,1	3,400898
1,667500	0,1	3,378968
1,669167	0,1	3,373526
1,670833	0,1	3,445179
1,672500	0,1	3,418914
1,674167	0,1	3,437737
1,675833	0,1	3,458872
1,677500	0,1	3,474244
1,679167	0,1	3,500356
1,680833	0,1	3,506307
1,682500	0,1	3,558721
1,684167	0,1	3,558295
1,685833	0,1	3,603266
1,687500	0,1	3,615800
1,689167	0,1	3,662617
1,690833	0,1	3,694693
1,692500	0,1	3,744292
1,694167	0,1	3,754866
1,695833	0,1	3,831283
1,697500	0,1	3,889194
1,699167	0,1	3,962484
1,700833	0,1	3,963545
1,702500	0,1	4,061603
1,704167	0,1	4,078793
1,705833	0,1	4,135335
1,707500	0,1	4,190130
1,709167	0,1	4,239251
1,710833	0,1	4,268053
1,712500	0,1	4,262909
1,714167	0,1	4,343541
1,715833	0,1	4,356317
1,717500	0,1	4,457585
1,719167	0,1	4,443553
1,720833	0,1	4,543693
1,722500	0,1	4,539630
1,724167	0,1	4,597978
1,725833	0,1	4,608569
1,727500	0,1	4,645247
1,729167	0,1	4,672776
1,730833	0,1	4,730265
1,732500	0,1	4,703770
1,734167	0,1	4,741651
1,735833	0,1	4,728737
1,737500	0,1	4,760644
1,739167	0,1	4,731947
1,740833	0,1	4,785316
1,742500	0,1	4,777674
1,744167	0,1	4,796368
1,745833	0,1	4,764187
1,747500	0,1	4,771798
1,749167	0,1	4,794820
1,750833	0,1	4,740717
1,752500	0,1	4,715811
1,754167	0,1	4,697034
1,755833	0,1	4,715755
1,757500	0,1	4,708423
1,759167	0,1	4,684618
1,760833	0,1	4,632050
1,762500	0,1	4,636659
1,764167	0,1	4,589864
1,765833	0,1	4,542682
1,767500	0,1	4,528730
1,769167	0,1	4,452726
1,770833	0,1	4,421150
1,772500	0,1	4,424424
1,774167	0,1	4,356011
1,775833	0,1	4,316064
1,777500	0,1	4,268595
1,779167	0,1	4,213148
1,780833	0,1	4,179252
1,782500	0,1	4,107748
1,784167	0,1	4,064102
1,785833	0,1	4,034589
1,787500	0,1	3,982734
1,789167	0,1	3,908522
1,790833	0,1	3,878601
1,792500	0,1	3,796786
1,794167	0,1	3,732129
1,795833	0,1	3,740571
1,797500	0,1	3,683843
1,799167	0,1	3,599284
1,800833	0,1	3,545005
1,802500	0,1	3,492505
1,804167	0,1	3,476741
1,805833	0,1	3,385835
1,807500	0,1	3,327319
1,809167	0,1	3,297416
1,810833	0,1	3,247121
1,812500	0,1	3,167708
1,814167	0,1	3,148378
1,815833	0,1	3,084446
1,817500	0,1	3,029936
1,819167	0,1	2,999888
1,820833	0,1	2,928315
1,822500	0,1	2,915653
1,824167	0,1	2,867807
1,825833	0,1	2,818485
1,827500	0,1	2,772925
1,829167	0,1	2,769243
1,830833	0,1	2,654420
1,832500	0,1	2,672957
1,834167	0,1	2,645639
1,835833	0,1	2,612569
1,837500	0,1	2,623107
1,839167	0,1	2,584312
1,840833	0,1	2,623526
1,842500	0,1	2,578711
1,844167	0,1	2,593694
1,845833	0,1	2,635073
1,847500	0,1	2,637378
1,849167	0,1	2,652745
1,850833	0,1	2,675474
1,852500	0,1	2,710403
1,854167	0,1	2,735369
1,855833	0,1	2,769242
1,857500	0,1	2,778503
1,859167	0,1	2,828912
1,860833	0,1	2,839288
1,862500	0,1	2,887512
1,864167	0,1	2,935020
1,865833	0,1	2,943006
1,867500	0,1	2,961381
1,869167	0,1	3,011287
1,870833	0,1	3,002168
1,872500	0,1	3,038418
1,874167	0,1	3,116262
1,875833	0,1	3,109081
1,877500	0,1	3,149010
1,879167	0,1	3,145562
1,880833	0,1	3,185988
1,882500	0,1	3,217818
1,884167	0,1	3,277330
1,885833	0,1	3,274150
1,887500	0,1	3,261659
1,889167	0,1	3,314378
1,890833	0,1	3,348219
1,892500	0,1	3,345202
1,894167	0,1	3,372738
1,895833	0,1	3,412145
1,897500	0,1	3,409854
1,899167	0,1	3,422653
1,900833	0,1	3,440652
1,902500	0,1	3,553144
1,904167	0,1	3,485030
1,905833	0,1	3,485915
1,907500	0,1	3,510492
1,909167	0,1	3,555101
1,910833	0,1	3,570193
1,912500	0,1	3,536876
1,914167	0,1	3,565196
1,915833	0,1	3,582359
1,917500	0,1	3,565932
1,919167	0,1	3,581818
1,920833	0,1	3,597655
1,922500	0,1	3,589792
1,924167	0,1	3,564823
1,925833	0,1	3,568414
1,927500	0,1	3,601924
1,929167	0,1	3,588890
1,930833	0,1	3,572118
1,932500	0,1	3,625419
1,934167	0,1	3,547267
1,935833	0,1	3,537540
1,937500	0,1	3,563001
1,939167	0,1	3,552498
1,940833	0,1	3,549338
1,942500	0,1	3,548642
1,944167	0,1	3,501474
1,945833	0,1	3,529252
1,947500	0,1	3,566749
1,949167	0,1	3,527482
1,950833	0,1	3,513166
1,952500	0,1	3,506202
1,954167	0,1	3,481369
1,955833	0,1	3,507334
1,957500	0,1	3,522761
1,959167	0,1	3,509130
1,960833	0,1	3,494920
1,962500	0,1	3,514196
1,964167	0,1	3,498857
1,965833	0,1	3,534217
1,967500	0,1	3,477618
1,969167	0,1	3,505731
1,970833	0,1	3,498439
1,972500	0,1	3,493624
1,974167	0,1	3,497919
1,975833	0,1	3,539030
1,977500	0,1	3,473840
1,979167	0,1	3,508056
1,980833	0,1	3,498932
1,982500	0,1	3,547594
1,984167	0,1	3,523387
1,985833	0,1	3,552205
1,987500	0,1	3,568512
1,989167	0,1	3,571572
1,990833	0,1	3,557758
1,992500	0,1	3,626373
1,994167	0,1	3,588454
1,995833	0,1	3,611501
1,997500	0,1	3,651279
1,999167	0,1	3,662029
2,000833	0,1	3,606030
2,002500	0,1	3,693516
2,004167	0,1	3,692734
2,005833	0,1	3,686289
2,007500	0,1	3,715015
2,009167	0,1	3,695148
2,010833	0,1	3,725812
2,012500	0,1	3,745181
2,014167	0,1	3,765069
2,015833	0,1	3,799936
2,017500	0,1	3,837483
2,019167	0,1	3,828302
2,020833	0,1	3,842982
2,022500	0,1	3,891325
2,024167	0,1	3,921273
2,025833	0,1	3,929982
2,027500	0,1	3,927440
2,029167	0,1	3,961880
2,030833	0,1	3,953693
2,032500	0,1	3,998064
2,034167	0,1	3,991996
2,035833	0,1	4,016679
2,037500	0,1	4,057401
2,039167	0,1	4,058420
2,040833	0,1	4,111854
2,042500	0,1	4,158378
2,044167	0,1	4,146037
2,045833	0,1	4,171901
2,047500	0,1	4,187496
2,049167	0,1	4,270021
2,050833	0,1	4,256148
2,052500	0,1	4,295141
2,054167	0,1	4,299971
2,055833	0,1	4,320062
2,057500	0,1	4,362346
2,059167	0,1	4,403710
2,060833	0,1	4,439489
2,062500	0,1	4,423334
2,064167	0,1	4,474050
2,065833	0,1	4,513563
2,067500	0,1	4,521030
2,069167	0,1	4,510701
2,070833	0,1	4,563006
2,072500	0,1	4,568369
2,074167	0,1	4,601758
2,075833	0,1	4,592008
2,077500	0,1	4,689267
2,079167	0,1	4,665378
2,080833	0,1	4,697928
2,082500	0,1	4,741061
2,084167	0,1	4,746661
2,085833	0,1	4,766357
2,087500	0,1	4,811401
2,089167	0,1	4,840136
2,090833	0,1	4,824890
2,092500	0,1	4,824190
2,094167	0,1	4,897268
2,095833	0,1	4,886023
2,097500	0,1	4,915983
2,099167	0,1	4,948950
2,100833	0,1	4,963831
2,102500	0,1	5,002771
2,104167	0,1	5,000070
2,105833	0,1	5,006694
2,107500	0,1	5,038498
2,109167	0,1	5,043333
2,110833	0,1	5,047710
2,112500	0,1	5,051292
2,114167	0,1	5,070375
2,115833	0,1	5,115477
2,117500	0,1	5,148765
2,119167	0,1	5,142199
2,120833	0,1	5,156056
2,122500	0,1	5,165233
2,124167	0,1	5,154763
2,125833	0,1	5,145388
2,127500	0,1	5,198793
2,129167	0,1	5,203776
2,130833	0,1	5,190450
2,132500	0,1	5,212269
2,134167	0,1	5,233787
2,135833	0,1	5,228401
2,137500	0,1	5,196922
2,139167	0,1	5,237144
2,140833	0,1	5,201158
2,142500	0,1	5,227236
2,144167	0,1	5,257536
2,145833	0,1	5,227559
2,147500	0,1	5,232860
2,149167	0,1	5,256069
2,150833	0,1	5,249525
2,152500	0,1	5,252516
2,154167	0,1	5,233712
2,155833	0,1	5,229417
2,157500	0,1	5,222302
2,159167	0,1	5,230996
2,160833	0,1	5,225662
2,162500	0,1	5,235232
2,164167	0,1	5,207820
2,165833	0,1	5,220010
2,167500	0,1	5,215299
2,169167	0,1	5,206631
2,170833	0,1	5,271732
2,172500	0,1	5,196141
2,174167	0,1	5,194994
2,175833	0,1	5,150844
2,177500	0,1	5,115693
2,179167	0,1	5,142247
2,180833	0,1	5,161699
2,182500	0,1	5,129216
2,184167	0,1	5,159300
2,185833	0,1	5,129611
2,187500	0,1	5,144822
2,189167	0,1	5,107505
2,190833	0,1	5,084043
2,192500	0,1	5,059884
2,194167	0,1	5,121064
2,195833	0,1	5,036243
2,197500	0,1	5,035512
2,199167	0,1	5,034811
2,200833	0,1	5,005040
2,202500	0,1	5,003902
2,204167	0,1	4,997412
2,205833	0,1	4,958492
2,207500	0,1	4,984933
2,209167	0,1	5,005623
2,210833	0,1	4,962315
2,212500	0,1	4,933573
2,214167	0,1	4,974430
2,215833	0,1	4,910132
2,217500	0,1	4,926404
2,219167	0,1	4,954061
2,220833	0,1	4,929076
2,222500	0,1	4,897460
2,224167	0,1	4,899149
2,225833	0,1	4,896270
2,227500	0,1	4,898282
2,229167	0,1	4,939577
2,230833	0,1	4,844261
2,232500	0,1	4,859441
2,234167	0,1	4,850065
2,235833	0,1	4,860925
2,237500	0,1	4,812536
2,239167	0,1	4,840903
2,240833	0,1	4,853320
2,242500	0,1	4,833045
2,244167	0,1	4,824207
2,245833	0,1	4,814589
2,247500	0,1	4,811365
2,249167	0,1	4,813289
2,250833	0,1	4,840156
2,252500	0,1	4,811234
2,254167	0,1	4,796271
2,255833	0,1	4,774930
2,257500	0,1	4,793772
2,259167	0,1	4,763737
2,260833	0,1	4,753517
2,262500	0,1	4,741239
2,264167	0,1	4,771508
2,265833	0,1	4,748284
2,267500	0,1	4,726426
2,269167	0,1	4,702188
2,270833	0,1	4,703598
2,272500	0,1	4,712559
2,274167	0,1	4,725697
2,275833	0,1	4,671343
2,277500	0,1	4,660068
2,279167	0,1	4,694828
2,280833	0,1	4,682123
2,282500	0,1	4,648762
2,284167	0,1	4,616616
2,285833	0,1	4,642171
2,287500	0,1	4,623701
2,289167	0,1	4,650649
2,290833	0,1	4,599593
2,292500	0,1	4,609425
2,294167	0,1	4,581220
2,295833	0,1	4,546085
2,297500	0,1	4,517512
2,299167	0,1	4,513860
2,300833	0,1	4,541045
2,302500	0,1	4,528531
2,304167	0,1	4,520423
2,305833	0,1	4,517098
2,307500	0,1	4,485380
2,309167	0,1	4,434932
2,310833	0,1	4,440309
2,312500	0,1	4,449303
2,314167	0,1	4,451045
2,315833	0,1	4,444686
2,317500	0,1	4,418880
2,319167	0,1	4,367473
2,320833	0,1	4,387956
2,322500	0,1	4,395333
2,324167	0,1	4,389136
2,325833	0,1	4,342477
2,327500	0,1	4,312374
2,329167	0,1	4,352259
2,330833	0,1	4,315657
2,332500	0,1	4,271709
2,334167	0,1	4,283280
2,335833	0,1	4,281830
2,337500	0,1	4,219505
2,339167	0,1	4,218842
2,340833	0,1	4,223056
2,342500	0,1	4,213667
2,344167	0,1	4,202369
2,345833	0,1	4,220948
2,347500	0,1	4,194800
2,349167	0,1	4,133128
2,350833	0,1	4,146227
2,352500	0,1	4,141349
2,354167	0,1	4,122467
2,355833	0,1	4,111132
2,357500	0,1	4,096005
2,359167	0,1	4,066236
2,360833	0,1	4,063229
2,362500	0,1	4,094405
2,364167	0,1	4,048148
2,365833	0,1	4,081778
2,367500	0,1	4,015371
2,369167	0,1	4,037768
2,370833	0,1	4,016153
2,372500	0,1	4,031327
2,374167	0,1	4,012314
2,375833	0,1	3,989819
2,377500	0,1	4,014326
2,379167	0,1	4,002312
2,380833	0,1	4,042094
2,382500	0,1	4,055111
2,384167	0,1	4,029314
2,385833	0,1	4,089784
2,387500	0,1	4,051952
2,389167	0,1	4,108933
2,390833	0,1	4,099880
2,392500	0,1	4,147318
2,394167	0,1	4,184091
2,395833	0,1	4,200541
2,397500	0,1	4,263299
2,399167	0,1	4,284212
2,400833	0,1	4,346704
2,402500	0,1	4,393094
2,404167	0,1	4,445198
2,405833	0,1	4,476125
2,407500	0,1	4,586627
2,409167	0,1	4,686791
2,410833	0,1	4,779113
2,412500	0,1	4,828086
2,414167	0,1	4,990776
2,415833	0,1	5,066039
2,417500	0,1	5,187201
2,419167	0,1	5,281244
2,420833	0,1	5,458080
2,422500	0,1	5,588853
2,424167	0,1	5,783721
2,425833	0,1	5,901570
2,427500	0,1	6,054457
2,429167	0,1	6,216285
2,430833	0,1	6,429356
2,432500	0,1	6,538791
2,434167	0,1	6,736853
2,435833	0,1	6,892854
2,437500	0,1	7,124722
2,439167	0,1	7,334262
2,440833	0,1	7,513870
2,442500	0,1	7,681897
2,444167	0,1	7,852225
2,445833	0,1	8,085182
2,447500	0,1	8,221490
2,449167	0,1	8,422056
2,450833	0,1	8,625323
2,452500	0,1	8,801826
2,454167	0,1	8,947944
2,455833	0,1	9,119879
2,457500	0,1	9,276332
2,459167	0,1	9,437632
2,460833	0,1	9,640213
2,462500	0,1	9,767523
2,464167	0,1	9,908495
2,465833	0,1	10,006063
2,467500	0,1	10,166230
2,469167	0,1	10,274679
2,470833	0,1	10,391427
2,472500	0,1	10,451421
2,474167	0,1	10,545646
2,475833	0,1	10,662306
2,477500	0,1	10,761738
2,479167	0,1	10,840522
2,480833	0,1	10,858632
2,482500	0,1	10,975237
2,484167	0,1	10,990847
2,485833	0,1	11,043938
2,487500	0,1	11,058035
2,489167	0,1	11,114357
2,490833	0,1	11,113397
2,492500	0,1	11,132809
2,494167	0,1	11,165938
2,495833	0,1	11,140010
2,497500	0,1	11,163094
2,499167	0,1	11,104296
2,500833	0,1	11,181071
2,502500	0,1	11,144774
2,504167	0,1	11,113293
2,505833	0,1	11,106318
2,507500	0,1	11,080204
2,509167	0,1	11,070387
2,510833	0,1	11,017463
2,512500	0,1	10,964870
2,514167	0,1	10,950924
2,515833	0,1	10,894178
2,517500	0,1	10,858369
2,519167	0,1	10,807438
2,520833	0,1	10,722041
2,522500	0,1	10,723992
2,524167	0,1	10,624925
2,525833	0,1	10,562013
2,527500	0,1	10,480323
2,529167	0,1	10,450027
2,530833	0,1	10,391586
2,532500	0,1	10,298430
2,534167	0,1	10,237984
2,535833	0,1	10,191290
2,537500	0,1	10,115527
2,539167	0,1	10,022758
2,540833	0,1	9,960919
2,542500	0,1	9,874201
2,544167	0,1	9,825807
2,545833	0,1	9,688745
2,547500	0,1	9,640197
2,549167	0,1	9,550465
2,550833	0,1	9,458128
2,552500	0,1	9,392921
2,554167	0,1	9,320244
2,555833	0,1	9,215772
2,557500	0,1	9,140737
2,559167	0,1	9,045037
2,560833	0,1	8,972399
2,562500	0,1	8,861591
2,564167	0,1	8,778792
2,565833	0,1	8,689394
2,567500	0,1	8,604092
2,569167	0,1	8,528922
2,570833	0,1	8,415826
2,572500	0,1	8,389419
2,574167	0,1	8,245149
2,575833	0,1	8,163537
2,577500	0,1	8,100749
2,579167	0,1	7,995414
2,580833	0,1	7,919190
2,582500	0,1	7,804798
2,584167	0,1	7,748398
2,585833	0,1	7,638109
2,587500	0,1	7,580724
2,589167	0,1	7,502553
2,590833	0,1	7,391964
2,592500	0,1	7,304414
2,594167	0,1	7,225727
2,595833	0,1	7,152380
2,597500	0,1	7,061248
2,599167	0,1	6,993138
2,600833	0,1	6,879601
2,602500	0,1	6,787956
2,604167	0,1	6,732824
2,605833	0,1	6,671280
2,607500	0,1	6,582851
2,609167	0,1	6,529901
2,610833	0,1	6,459104
2,612500	0,1	6,349414
2,614167	0,1	6,249412
2,615833	0,1	6,227003
2,617500	0,1	6,141619
2,619167	0,1	6,058966
2,620833	0,1	6,004051
2,622500	0,1	5,972110
2,624167	0,1	5,839750
2,625833	0,1	5,787413
2,627500	0,1	5,721485
2,629167	0,1	5,645981
2,630833	0,1	5,591112
2,632500	0,1	5,504504
2,634167	0,1	5,435960
2,635833	0,1	5,353107
2,637500	0,1	5,317313
2,639167	0,1	5,251400
2,640833	0,1	5,181203
2,642500	0,1	5,149235
2,644167	0,1	5,086229
2,645833	0,1	4,987162
2,647500	0,1	4,970978
2,649167	0,1	4,946630
2,650833	0,1	4,831237
2,652500	0,1	4,790956
2,654167	0,1	4,739126
2,655833	0,1	4,687274
2,657500	0,1	4,612891
2,659167	0,1	4,580366
2,660833	0,1	4,535509
2,662500	0,1	4,446933
2,664167	0,1	4,399074
2,665833	0,1	4,368237
2,667500	0,1	4,262772
2,669167	0,1	4,236796
2,670833	0,1	4,213670
2,672500	0,1	4,133176
2,674167	0,1	4,103409
2,675833	0,1	4,029339
2,677500	0,1	3,992162
2,679167	0,1	3,964895
2,680833	0,1	3,884187
2,682500	0,1	3,859127
2,684167	0,1	3,799162
2,685833	0,1	3,747582
2,687500	0,1	3,729730
2,689167	0,1	3,643829
2,690833	0,1	3,616690
2,692500	0,1	3,580846
2,694167	0,1	3,550799
2,695833	0,1	3,497440
2,697500	0,1	3,471767
2,699167	0,1	3,426437
2,700833	0,1	3,372987
2,702500	0,1	3,365766
2,704167	0,1	3,297443
2,705833	0,1	3,251950
2,707500	0,1	3,220687
2,709167	0,1	3,178269
2,710833	0,1	3,182136
2,712500	0,1	3,109354
2,714167	0,1	3,130328
2,715833	0,1	3,082879
2,717500	0,1	3,012534
2,719167	0,1	3,023440
2,720833	0,1	2,945898
2,722500	0,1	2,922637
2,724167	0,1	2,924086
2,725833	0,1	2,873337
2,727500	0,1	2,871724
2,729167	0,1	2,833359
2,730833	0,1	2,811383
2,732500	0,1	2,778808
2,734167	0,1	2,746812
2,735833	0,1	2,768665
2,737500	0,1	2,721614
2,739167	0,1	2,674419
2,740833	0,1	2,693824
2,742500	0,1	2,653816
2,744167	0,1	2,615303
2,745833	0,1	2,592127
2,747500	0,1	2,592480
2,749167	0,1	2,573333
2,750833	0,1	2,537338
2,752500	0,1	2,508715
2,754167	0,1	2,562981
2,755833	0,1	2,506423
2,757500	0,1	2,495230
2,759167	0,1	2,463969
2,760833	0,1	2,474072
2,762500	0,1	2,431705
2,764167	0,1	2,445098
2,765833	0,1	2,432198
2,767500	0,1	2,392054
2,769167	0,1	2,393118
2,770833	0,1	2,371906
2,772500	0,1	2,332697
2,774167	0,1	2,351751
2,775833	0,1	2,337850
2,777500	0,1	2,299722
2,779167	0,1	2,324006
2,780833	0,1	2,327955
2,782500	0,1	2,310111
2,784167	0,1	2,266896
2,785833	0,1	2,258716
2,787500	0,1	2,287808
2,789167	0,1	2,280720
2,790833	0,1	2,235361
2,792500	0,1	2,235493
2,794167	0,1	2,190065
2,795833	0,1	2,232614
2,797500	0,1	2,196798
2,799167	0,1	2,196433
2,800833	0,1	2,215710
2,802500	0,1	2,205397
2,804167	0,1	2,199948
2,805833	0,1	2,165914
2,807500	0,1	2,157886
2,809167	0,1	2,168412
2,810833	0,1	2,164192
2,812500	0,1	2,141046
2,814167	0,1	2,118551
2,815833	0,1	2,114387
2,817500	0,1	2,096345
2,819167	0,1	2,082645
2,820833	0,1	2,087013
2,822500	0,1	2,118970
2,824167	0,1	2,100355
2,825833	0,1	2,081936
2,827500	0,1	2,110439
2,829167	0,1	2,048066
2,830833	0,1	2,090666
2,832500	0,1	2,062525
2,834167	0,1	2,024980
2,835833	0,1	2,028198
2,837500	0,1	2,038512
2,839167	0,1	2,010161
2,840833	0,1	2,020964
2,842500	0,1	2,006923
2,844167	0,1	1,998470
2,845833	0,1	1,972763
2,847500	0,1	2,026974
2,849167	0,1	2,007362
2,850833	0,1	1,984373
2,852500	0,1	1,974833
2,854167	0,1	1,975628
2,855833	0,1	1,940464
2,857500	0,1	1,930713
2,859167	0,1	1,934723
2,860833	0,1	1,950690
2,862500	0,1	1,914046
2,864167	0,1	1,911025
2,865833	0,1	1,895410
2,867500	0,1	1,906005
2,869167	0,1	1,936300
2,870833	0,1	1,873362
2,872500	0,1	1,859832
2,874167	0,1	1,847281
2,875833	0,1	1,865685
2,877500	0,1	1,812056
2,879167	0,1	1,800457
2,880833	0,1	1,822854
2,882500	0,1	1,826021
2,884167	0,1	1,820579
2,885833	0,1	1,816713
2,887500	0,1	1,782568
2,889167	0,1	1,769389
2,890833	0,1	1,783053
2,892500	0,1	1,765374
2,894167	0,1	1,755144
2,895833	0,1	1,785704
2,897500	0,1	1,760074
2,899167	0,1	1,747413
2,900833	0,1	1,719631
2,902500	0,1	1,675827
2,904167	0,1	1,721053
2,905833	0,1	1,722927
2,907500	0,1	1,697532
2,909167	0,1	1,677812
2,910833	0,1	1,687768
2,912500	0,1	1,656936
2,914167	0,1	1,669233
2,915833	0,1	1,649517
2,917500	0,1	1,659654
2,919167	0,1	1,659794
2,920833	0,1	1,657355
2,922500	0,1	1,663820
2,924167	0,1	1,628952
2,925833	0,1	1,599116
2,927500	0,1	1,617151
2,929167	0,1	1,561381
2,930833	0,1	1,596935
2,932500	0,1	1,592517
2,934167	0,1	1,572857
2,935833	0,1	1,567386
2,937500	0,1	1,579044
2,939167	0,1	1,495482
2,940833	0,1	1,552805
2,942500	0,1	1,541626
2,944167	0,1	1,549447
2,945833	0,1	1,525816
2,947500	0,1	1,502020
2,949167	0,1	1,502303
2,950833	0,1	1,499221
2,952500	0,1	1,496274
2,954167	0,1	1,463796
2,955833	0,1	1,492842
2,957500	0,1	1,469810
2,959167	0,1	1,503430
2,960833	0,1	1,459108
2,962500	0,1	1,466938
2,964167	0,1	1,489692
2,965833	0,1	1,477094
2,967500	0,1	1,475160
2,969167	0,1	1,456999
2,970833	0,1	1,483099
2,972500	0,1	1,425747
2,974167	0,1	1,439690
2,975833	0,1	1,427091
2,977500	0,1	1,421720
2,979167	0,1	1,414740
2,980833	0,1	1,396953
2,982500	0,1	1,410194
2,984167	0,1	1,409502
2,985833	0,1	1,407198
2,987500	0,1	1,420360
2,989167	0,1	1,450141
2,990833	0,1	1,403651
2,992500	0,1	1,407400
2,994167	0,1	1,387534
2,995833	0,1	1,375588
2,997500	0,1	1,373384
2,999167	0,1	1,360630
3,000833	0,1	1,419077
3,002500	0,1	1,382607
3,004167	0,1	1,406329
3,005833	0,1	1,390176
3,007500	0,1	1,371083
3,009167	0,1	1,372282
3,010833	0,1	1,364626
3,012500	0,1	1,371029
3,014167	0,1	1,379107
3,015833	0,1	1,385021
3,017500	0,1	1,341306
3,019167	0,1	1,360658
3,020833	0,1	1,350838
3,022500	0,1	1,369432
3,024167	0,1	1,366370
3,025833	0,1	1,325317
3,027500	0,1	1,349101
3,029167	0,1	1,300640
3,030833	0,1	1,382427
3,032500	0,1	1,368169
3,034167	0,1	1,362914
3,035833	0,1	1,377377
3,037500	0,1	1,322392
3,039167	0,1	1,354353
3,040833	0,1	1,380629
3,042500	0,1	1,341918
3,044167	0,1	1,369160
3,045833	0,1	1,319239
3,047500	0,1	1,359855
3,049167	0,1	1,303726
3,050833	0,1	1,387307
3,052500	0,1	1,377470
3,054167	0,1	1,327625
3,055833	0,1	1,317942
3,057500	0,1	1,314117
3,059167	0,1	1,290297
3,060833	0,1	1,334665
3,062500	0,1	1,290543
3,064167	0,1	1,297985
3,065833	0,1	1,320577
3,067500	0,1	1,288319
3,069167	0,1	1,351414
3,070833	0,1	1,289479
3,072500	0,1	1,295899
3,074167	0,1	1,294412
3,075833	0,1	1,318511
3,077500	0,1	1,305155
3,079167	0,1	1,364087
3,080833	0,1	1,315020
3,082500	0,1	1,329455
3,084167	0,1	1,308404
3,085833	0,1	1,330876
3,087500	0,1	1,308981
3,089167	0,1	1,336887
3,090833	0,1	1,365075
3,092500	0,1	1,327517
3,094167	0,1	1,343923
3,095833	0,1	1,339048
3,097500	0,1	1,338653
3,099167	0,1	1,348295
3,100833	0,1	1,335879
3,102500	0,1	1,337250
3,104167	0,1	1,361993
3,105833	0,1	1,382594
3,107500	0,1	1,402415
3,109167	0,1	1,346343
3,110833	0,1	1,398037
3,112500	0,1	1,417715
3,114167	0,1	1,379083
3,115833	0,1	1,390321
3,117500	0,1	1,397201
3,119167	0,1	1,463893
3,120833	0,1	1,476051
3,122500	0,1	1,480954
3,124167	0,1	1,486627
3,125833	0,1	1,443451
3,127500	0,1	1,494261
3,129167	0,1	1,468795
3,130833	0,1	1,492455
3,132500	0,1	1,484789
3,134167	0,1	1,546638
3,135833	0,1	1,522378
3,137500	0,1	1,524947
3,139167	0,1	1,593131
3,140833	0,1	1,590805
3,142500	0,1	1,589159
3,144167	0,1	1,594188
3,145833	0,1	1,640332
3,147500	0,1	1,636906
3,149167	0,1	1,659951
3,150833	0,1	1,621209
3,152500	0,1	1,653644
3,154167	0,1	1,656135
3,155833	0,1	1,690418
3,157500	0,1	1,681354
3,159167	0,1	1,720640
3,160833	0,1	1,714104
3,162500	0,1	1,747631
3,164167	0,1	1,737035
3,165833	0,1	1,722472
3,167500	0,1	1,731923
3,169167	0,1	1,733867
3,170833	0,1	1,750041
3,172500	0,1	1,754794
3,174167	0,1	1,773693
3,175833	0,1	1,767088
3,177500	0,1	1,757167
3,179167	0,1	1,796151
3,180833	0,1	1,785775
3,182500	0,1	1,816408
3,184167	0,1	1,798020
3,185833	0,1	1,846702
3,187500	0,1	1,804112
3,189167	0,1	1,771960
3,190833	0,1	1,809120
3,192500	0,1	1,821864
3,194167	0,1	1,810123
3,195833	0,1	1,840141
3,197500	0,1	1,826381
3,199167	0,1	1,778705
3,200833	0,1	1,824155
3,202500	0,1	1,804623
3,204167	0,1	1,804024
3,205833	0,1	1,768164
3,207500	0,1	1,801882
3,209167	0,1	1,834322
3,210833	0,1	1,826390
3,212500	0,1	1,796168
3,214167	0,1	1,816787
3,215833	0,1	1,814929
3,217500	0,1	1,769169
3,219167	0,1	1,809466
3,220833	0,1	1,763379
3,222500	0,1	1,775330
3,224167	0,1	1,760150
3,225833	0,1	1,741902
3,227500	0,1	1,765364
3,229167	0,1	1,757721
3,230833	0,1	1,714710
3,232500	0,1	1,723362
3,234167	0,1	1,700509
3,235833	0,1	1,724371
3,237500	0,1	1,712563
3,239167	0,1	1,660943
3,240833	0,1	1,703163
3,242500	0,1	1,667026
3,244167	0,1	1,696345
3,245833	0,1	1,679041
3,247500	0,1	1,651358
3,249167	0,1	1,666163
3,250833	0,1	1,615498
3,252500	0,1	1,594372
3,254167	0,1	1,617767
3,255833	0,1	1,606250
3,257500	0,1	1,554735
3,259167	0,1	1,580437
3,260833	0,1	1,548647
3,262500	0,1	1,530557
3,264167	0,1	1,508565
3,265833	0,1	1,549999
3,267500	0,1	1,483257
3,269167	0,1	1,490544
3,270833	0,1	1,457207
3,272500	0,1	1,482305
3,274167	0,1	1,428524
3,275833	0,1	1,439032
3,277500	0,1	1,394351
3,279167	0,1	1,390189
3,280833	0,1	1,413479
3,282500	0,1	1,410282
3,284167	0,1	1,390109
3,285833	0,1	1,384802
3,287500	0,1	1,390985
3,289167	0,1	1,380248
3,290833	0,1	1,354586
3,292500	0,1	1,325095
3,294167	0,1	1,326662
3,295833	0,1	1,298061
3,297500	0,1	1,304267
3,299167	0,1	1,279193
3,300833	0,1	1,271869
3,302500	0,1	1,254955
3,304167	0,1	1,263873
3,305833	0,1	1,246369
3,307500	0,1	1,192300
3,309167	0,1	1,249703
3,310833	0,1	1,223162
3,312500	0,1	1,224905
3,314167	0,1	1,211818
3,315833	0,1	1,235948
3,317500	0,1	1,215213
3,319167	0,1	1,151410
3,320833	0,1	1,145937
3,322500	0,1	1,177769
3,324167	0,1	1,129175
3,325833	0,1	1,152809
3,327500	0,1	1,130633
3,329167	0,1	1,112484
3,330833	0,1	1,116916
3,332500	0,1	1,104099
3,334167	0,1	1,135613
3,335833	0,1	1,134977
3,337500	0,1	1,101597
3,339167	0,1	1,128715
3,340833	0,1	1,033397
3,342500	0,1	1,102660
3,344167	0,1	1,034034
3,345833	0,1	1,065909
3,347500	0,1	1,046689
3,349167	0,1	1,061056
3,350833	0,1	1,025821
3,352500	0,1	1,029441
3,354167	0,1	1,046261
3,355833	0,1	1,017613
3,357500	0,1	1,042290
3,359167	0,1	0,999006
3,360833	0,1	1,037893
3,362500	0,1	1,014726
3,364167	0,1	0,996203
3,365833	0,1	0,971237
3,367500	0,1	1,017885
3,369167	0,1	0,973303
3,370833	0,1	0,981612
3,372500	0,1	0,983872
3,374167	0,1	0,974976
3,375833	0,1	0,972165
3,377500	0,1	0,936459
3,379167	0,1	0,948182
3,380833	0,1	0,988339
3,382500	0,1	0,980841
3,384167	0,1	0,960566
3,385833	0,1	0,969431
3,387500	0,1	0,969132
3,389167	0,1	0,958057
3,390833	0,1	0,940459
3,392500	0,1	0,948367
3,394167	0,1	0,937635
3,395833	0,1	0,925036
3,397500	0,1	0,922356
3,399167	0,1	0,954305
3,400833	0,1	0,909058
3,402500	0,1	0,887581
3,404167	0,1	0,923345
3,405833	0,1	0,904709
3,407500	0,1	0,891765
3,409167	0,1	0,900321
3,410833	0,1	0,904126
3,412500	0,1	0,866972
3,414167	0,1	0,921961
3,415833	0,1	0,872155
3,417500	0,1	0,900840
3,419167	0,1	0,907694
3,420833	0,1	0,875868
3,422500	0,1	0,852020
3,424167	0,1	0,865804
3,425833	0,1	0,889107
3,427500	0,1	0,838719
3,429167	0,1	0,870447
3,430833	0,1	0,857004
3,432500	0,1	0,825465
3,434167	0,1	0,873669
3,435833	0,1	0,862882
3,437500	0,1	0,846418
3,439167	0,1	0,839438
3,440833	0,1	0,879011
3,442500	0,1	0,797096
3,444167	0,1	0,827669
3,445833	0,1	0,809966
3,447500	0,1	0,873563
3,449167	0,1	0,811971
3,450833	0,1	0,793323
3,452500	0,1	0,861959
3,454167	0,1	0,827871
3,455833	0,1	0,804089
3,457500	0,1	0,853252
3,459167	0,1	0,854419
3,460833	0,1	0,806789
3,462500	0,1	0,843898
3,464167	0,1	0,797115
3,465833	0,1	0,803056
3,467500	0,1	0,826217
3,469167	0,1	0,801097
3,470833	0,1	0,822593
3,472500	0,1	0,803603
3,474167	0,1	0,821465
3,475833	0,1	0,796952
3,477500	0,1	0,818865
3,479167	0,1	0,800323
3,480833	0,1	0,819089
3,482500	0,1	0,788689
3,484167	0,1	0,821722
3,485833	0,1	0,799999
3,487500	0,1	0,818541
3,489167	0,1	0,817295
3,490833	0,1	0,789816
3,492500	0,1	0,833257
3,494167	0,1	0,764853
3,495833	0,1	0,821290
3,497500	0,1	0,823558
3,499167	0,1	0,803993
3,500833	0,1	0,832227
3,502500	0,1	0,816525
3,504167	0,1	0,780428
3,505833	0,1	0,809342
3,507500	0,1	0,775001
3,509167	0,1	0,783088
3,510833	0,1	0,804553
3,512500	0,1	0,838178
3,514167	0,1	0,777962
3,515833	0,1	0,797902
3,517500	0,1	0,763553
3,519167	0,1	0,793530
3,520833	0,1	0,787715
3,522500	0,1	0,791419
3,524167	0,1	0,809575
3,525833	0,1	0,797490
3,527500	0,1	0,798615
3,529167	0,1	0,778271
3,530833	0,1	0,803202
3,532500	0,1	0,806524
3,534167	0,1	0,803281
3,535833	0,1	0,757835
3,537500	0,1	0,782089
3,539167	0,1	0,785049
3,540833	0,1	0,772968
3,542500	0,1	0,784599
3,544167	0,1	0,771040
3,545833	0,1	0,753523
3,547500	0,1	0,752265
3,549167	0,1	0,804741
3,550833	0,1	0,785314
3,552500	0,1	0,787012
3,554167	0,1	0,814513
3,555833	0,1	0,811566
3,557500	0,1	0,805080
3,559167	0,1	0,779400
3,560833	0,1	0,805746
3,562500	0,1	0,777790
3,564167	0,1	0,817054
3,565833	0,1	0,808391
3,567500	0,1	0,756810
3,569167	0,1	0,786523
3,570833	0,1	0,767379
3,572500	0,1	0,749791
3,574167	0,1	0,833695
3,575833	0,1	0,777059
3,577500	0,1	0,819075
3,579167	0,1	0,781072
3,580833	0,1	0,730361
3,582500	0,1	0,786415
3,584167	0,1	0,759052
3,585833	0,1	0,751204
3,587500	0,1	0,793974
3,589167	0,1	0,777562
3,590833	0,1	0,793663
3,592500	0,1	0,741318
3,594167	0,1	0,767940
3,595833	0,1	0,782027
3,597500	0,1	0,751917
3,599167	0,1	0,779285
3,600833	0,1	0,746456
3,602500	0,1	0,749374
3,604167	0,1	0,751391
3,605833	0,1	0,757217
3,607500	0,1	0,741794
3,609167	0,1	0,764890
3,610833	0,1	0,766694
3,612500	0,1	0,756989
3,614167	0,1	0,750760
3,615833	0,1	0,771220
3,617500	0,1	0,710307
3,619167	0,1	0,767642
3,620833	0,1	0,776495
3,622500	0,1	0,732154
3,624167	0,1	0,729606
3,625833	0,1	0,728291
3,627500	0,1	0,736998
3,629167	0,1	0,731631
3,630833	0,1	0,733109
3,632500	0,1	0,685944
3,634167	0,1	0,746239
3,635833	0,1	0,746095
3,637500	0,1	0,730701
3,639167	0,1	0,743905
3,640833	0,1	0,751620
3,642500	0,1	0,760230
3,644167	0,1	0,720203
3,645833	0,1	0,741490
3,647500	0,1	0,709913
3,649167	0,1	0,716554
3,650833	0,1	0,682050
3,652500	0,1	0,697399
3,654167	0,1	0,687379
3,655833	0,1	0,732391
3,657500	0,1	0,692176
3,659167	0,1	0,707779
3,660833	0,1	0,684908
3,662500	0,1	0,702476
3,664167	0,1	0,692518
3,665833	0,1	0,688695
3,667500	0,1	0,671957
3,669167	0,1	0,712560
3,670833	0,1	0,697054
3,672500	0,1	0,690495
3,674167	0,1	0,698976
3,675833	0,1	0,675876
3,677500	0,1	0,698330
3,679167	0,1	0,709996
3,680833	0,1	0,689471
3,682500	0,1	0,691168
3,684167	0,1	0,677675
3,685833	0,1	0,702858
3,687500	0,1	0,665084
3,689167	0,1	0,669122
3,690833	0,1	0,687276
3,692500	0,1	0,682718
3,694167	0,1	0,670766
3,695833	0,1	0,686698
3,697500	0,1	0,703729
3,699167	0,1	0,685902
3,700833	0,1	0,682620
3,702500	0,1	0,673143
3,704167	0,1	0,675162
3,705833	0,1	0,677284
3,707500	0,1	0,685831
3,709167	0,1	0,678572
3,710833	0,1	0,615604
3,712500	0,1	0,650382
3,714167	0,1	0,661858
3,715833	0,1	0,681329
3,717500	0,1	0,690586
3,719167	0,1	0,677354
3,720833	0,1	0,686087
3,722500	0,1	0,691200
3,724167	0,1	0,660261
3,725833	0,1	0,678215
3,727500	0,1	0,669351
3,729167	0,1	0,656080
3,730833	0,1	0,667932
3,732500	0,1	0,753783
3,734167	0,1	0,709690
3,735833	0,1	0,672764
3,737500	0,1	0,687212
3,739167	0,1	0,669191
3,740833	0,1	0,723067
3,742500	0,1	0,730727
3,744167	0,1	0,698951
3,745833	0,1	0,676389
3,747500	0,1	0,678698
3,749167	0,1	0,708387
3,750833	0,1	0,711348
3,752500	0,1	0,662258
3,754167	0,1	0,713653
3,755833	0,1	0,714563
3,757500	0,1	0,668139
3,759167	0,1	0,684673
3,760833	0,1	0,731328
3,762500	0,1	0,679161
3,764167	0,1	0,709862
3,765833	0,1	0,675687
3,767500	0,1	0,706394
3,769167	0,1	0,734389
3,770833	0,1	0,712511
3,772500	0,1	0,666756
3,774167	0,1	0,699901
3,775833	0,1	0,716616
3,777500	0,1	0,735931
3,779167	0,1	0,733398
3,780833	0,1	0,764023
3,782500	0,1	0,784980
3,784167	0,1	0,726696
3,785833	0,1	0,714727
3,787500	0,1	0,763311
3,789167	0,1	0,755768
3,790833	0,1	0,737065
3,792500	0,1	0,725945
3,794167	0,1	0,757464
3,795833	0,1	0,768592
3,797500	0,1	0,752491
3,799167	0,1	0,765442
3,800833	0,1	0,746776
3,802500	0,1	0,743618
3,804167	0,1	0,749627
3,805833	0,1	0,763254
3,807500	0,1	0,791659
3,809167	0,1	0,755067
3,810833	0,1	0,740762
3,812500	0,1	0,729640
3,814167	0,1	0,738185
3,815833	0,1	0,738475
3,817500	0,1	0,753417
3,819167	0,1	0,746833
3,820833	0,1	0,781184
3,822500	0,1	0,746233
3,824167	0,1	0,742208
3,825833	0,1	0,761643
3,827500	0,1	0,721966
3,829167	0,1	0,758106
3,830833	0,1	0,700342
3,832500	0,1	0,698530
3,834167	0,1	0,763211
3,835833	0,1	0,776782
3,837500	0,1	0,767571
3,839167	0,1	0,728584
3,840833	0,1	0,736516
3,842500	0,1	0,700082
3,844167	0,1	0,777505
3,845833	0,1	0,729907
3,847500	0,1	0,757947
3,849167	0,1	0,735909
3,850833	0,1	0,699953
3,852500	0,1	0,714785
3,854167	0,1	0,758198
3,855833	0,1	0,710175
3,857500	0,1	0,748847
3,859167	0,1	0,725754
3,860833	0,1	0,747534
3,862500	0,1	0,700146
3,864167	0,1	0,728572
3,865833	0,1	0,731020
3,867500	0,1	0,743101
3,869167	0,1	0,679007
3,870833	0,1	0,712565
3,872500	0,1	0,750392
3,874167	0,1	0,772410
3,875833	0,1	0,719689
3,877500	0,1	0,693265
3,879167	0,1	0,683778
3,880833	0,1	0,682972
3,882500	0,1	0,707936
3,884167	0,1	0,694515
3,885833	0,1	0,672470
3,887500	0,1	0,707584
3,889167	0,1	0,678225
3,890833	0,1	0,714170
3,892500	0,1	0,628496
3,894167	0,1	0,669820
3,895833	0,1	0,728496
3,897500	0,1	0,673186
3,899167	0,1	0,696015
3,900833	0,1	0,683908
3,902500	0,1	0,672790
3,904167	0,1	0,696722
3,905833	0,1	0,713434
3,907500	0,1	0,674274
3,909167	0,1	0,649334
3,910833	0,1	0,662532
3,912500	0,1	0,692479
3,914167	0,1	0,635815
3,915833	0,1	0,654336
3,917500	0,1	0,685922
3,919167	0,1	0,656918
3,920833	0,1	0,658069
3,922500	0,1	0,678535
3,924167	0,1	0,643488
3,925833	0,1	0,639882
3,927500	0,1	0,646339
3,929167	0,1	0,646050
3,930833	0,1	0,636091
3,932500	0,1	0,629407
3,934167	0,1	0,608461
3,935833	0,1	0,622590
3,937500	0,1	0,655716
3,939167	0,1	0,609688
3,940833	0,1	0,633898
3,942500	0,1	0,604800
3,944167	0,1	0,629078
3,945833	0,1	0,605732
3,947500	0,1	0,563710
3,949167	0,1	0,656759
3,950833	0,1	0,598894
3,952500	0,1	0,605562
3,954167	0,1	0,613852
3,955833	0,1	0,631843
3,957500	0,1	0,611353
3,959167	0,1	0,617420
3,960833	0,1	0,609229
3,962500	0,1	0,641191
3,964167	0,1	0,609204
3,965833	0,1	0,605406
3,967500	0,1	0,558894
3,969167	0,1	0,566749
3,970833	0,1	0,598296
3,972500	0,1	0,533226
3,974167	0,1	0,579881
3,975833	0,1	0,609670
3,977500	0,1	0,613308
3,979167	0,1	0,591240
3,980833	0,1	0,609095
3,982500	0,1	0,619635
3,984167	0,1	0,584367
3,985833	0,1	0,588341
3,987500	0,1	0,622490
3,989167	0,1	0,580225
3,990833	0,1	0,587218
3,992500	0,1	0,617094
3,994167	0,1	0,620441
3,995833	0,1	0,568949
3,997500	0,1	0,588273
3,999167	0,1	0,608999
4,000833	0,1	0,588832
4,002500	0,1	0,599234
4,004167	0,1	0,658216
4,005833	0,1	0,561988
4,007500	0,1	0,604526
4,009167	0,1	0,607461
4,010833	0,1	0,577039
4,012500	0,1	0,588117
4,014167	0,1	0,657923
4,015833	0,1	0,643773
4,017500	0,1	0,596642
4,019167	0,1	0,609707
4,020833	0,1	0,592330
4,022500	0,1	0,650054
4,024167	0,1	0,621798
4,025833	0,1	0,619029
4,027500	0,1	0,645242
4,029167	0,1	0,692443
4,030833	0,1	0,666300
4,032500	0,1	0,663853
4,034167	0,1	0,654632
4,035833	0,1	0,680876
4,037500	0,1	0,651233
4,039167	0,1	0,652091
4,040833	0,1	0,686145
4,042500	0,1	0,679986
4,044167	0,1	0,666074
4,045833	0,1	0,682070
4,047500	0,1	0,687214
4,049167	0,1	0,708001
4,050833	0,1	0,736571
4,052500	0,1	0,713218
4,054167	0,1	0,754530
4,055833	0,1	0,762452
4,057500	0,1	0,794843
4,059167	0,1	0,748771
4,060833	0,1	0,791885
4,062500	0,1	0,778494
4,064167	0,1	0,815899
4,065833	0,1	0,800705
4,067500	0,1	0,810055
4,069167	0,1	0,873890
4,070833	0,1	0,870586
4,072500	0,1	0,838875
4,074167	0,1	0,841112
4,075833	0,1	0,879001
4,077500	0,1	0,906207
4,079167	0,1	0,898538
4,080833	0,1	0,947779
4,082500	0,1	0,933291
4,084167	0,1	0,939626
4,085833	0,1	0,931819
4,087500	0,1	0,958691
4,089167	0,1	0,976949
4,090833	0,1	1,009880
4,092500	0,1	0,991332
4,094167	0,1	1,024188
4,095833	0,1	1,056590
4,097500	0,1	1,097097
4,099167	0,1	1,092936
4,100833	0,1	1,132548
4,102500	0,1	1,156337
4,104167	0,1	1,122782
4,105833	0,1	1,135838
4,107500	0,1	1,167717
4,109167	0,1	1,227975
4,110833	0,1	1,219492
4,112500	0,1	1,216696
4,114167	0,1	1,212679
4,115833	0,1	1,229231
4,117500	0,1	1,262004
4,119167	0,1	1,289391
4,120833	0,1	1,346083
4,122500	0,1	1,303924
4,124167	0,1	1,347317
4,125833	0,1	1,389113
4,127500	0,1	1,378874
4,129167	0,1	1,397961
4,130833	0,1	1,448001
4,132500	0,1	1,417370
4,134167	0,1	1,439688
4,135833	0,1	1,462631
4,137500	0,1	1,494991
4,139167	0,1	1,492257
4,140833	0,1	1,525477
4,142500	0,1	1,544020
4,144167	0,1	1,538200
4,145833	0,1	1,583640
4,147500	0,1	1,590308
4,149167	0,1	1,591666
4,150833	0,1	1,627589
4,152500	0,1	1,604321
4,154167	0,1	1,683620
4,155833	0,1	1,663157
4,157500	0,1	1,653778
4,159167	0,1	1,674398
4,160833	0,1	1,685132
4,162500	0,1	1,729290
4,164167	0,1	1,718650
4,165833	0,1	1,753348
4,167500	0,1	1,728892
4,169167	0,1	1,757146
4,170833	0,1	1,757650
4,172500	0,1	1,749216
4,174167	0,1	1,778698
4,175833	0,1	1,779190
4,177500	0,1	1,808346
4,179167	0,1	1,787869
4,180833	0,1	1,836190
4,182500	0,1	1,803396
4,184167	0,1	1,845283
4,185833	0,1	1,844283
4,187500	0,1	1,835281
4,189167	0,1	1,844203
4,190833	0,1	1,817223
4,192500	0,1	1,851868
4,194167	0,1	1,863972
4,195833	0,1	1,821243
4,197500	0,1	1,833386
4,199167	0,1	1,843131
4,200833	0,1	1,867627
4,202500	0,1	1,861764
4,204167	0,1	1,910468
4,205833	0,1	1,881669
4,207500	0,1	1,860974
4,209167	0,1	1,872490
4,210833	0,1	1,858404
4,212500	0,1	1,877146
4,214167	0,1	1,834410
4,215833	0,1	1,875217
4,217500	0,1	1,844370
4,219167	0,1	1,845728
4,220833	0,1	1,853738
4,222500	0,1	1,856231
4,224167	0,1	1,858965
4,225833	0,1	1,796970
4,227500	0,1	1,852020
4,229167	0,1	1,856247
4,230833	0,1	1,843868
4,232500	0,1	1,841950
4,234167	0,1	1,829910
4,235833	0,1	1,797468
4,237500	0,1	1,820583
4,239167	0,1	1,771271
4,240833	0,1	1,792289
4,242500	0,1	1,794258
4,244167	0,1	1,802683
4,245833	0,1	1,789592
4,247500	0,1	1,757311
4,249167	0,1	1,758453
4,250833	0,1	1,744559
4,252500	0,1	1,758071
4,254167	0,1	1,745917
4,255833	0,1	1,732478
4,257500	0,1	1,697797
4,259167	0,1	1,687290
4,260833	0,1	1,682697
4,262500	0,1	1,713762
4,264167	0,1	1,645338
4,265833	0,1	1,660652
4,267500	0,1	1,634664
4,269167	0,1	1,635971
4,270833	0,1	1,630302
4,272500	0,1	1,615638
4,274167	0,1	1,655438
4,275833	0,1	1,567185
4,277500	0,1	1,618062
4,279167	0,1	1,577507
4,280833	0,1	1,563263
4,282500	0,1	1,578343
4,284167	0,1	1,533633
4,285833	0,1	1,549254
4,287500	0,1	1,538094
4,289167	0,1	1,516898
4,290833	0,1	1,501306
4,292500	0,1	1,497865
4,294167	0,1	1,529107
4,295833	0,1	1,516200
4,297500	0,1	1,424689
4,299167	0,1	1,482260
4,300833	0,1	1,443295
4,302500	0,1	1,416455
4,304167	0,1	1,445668
4,305833	0,1	1,402076
4,307500	0,1	1,433857
4,309167	0,1	1,400380
4,310833	0,1	1,376234
4,312500	0,1	1,376570
4,314167	0,1	1,359734
4,315833	0,1	1,313127
4,317500	0,1	1,329031
4,319167	0,1	1,323954
4,320833	0,1	1,308000
4,322500	0,1	1,268524
4,324167	0,1	1,285089
4,325833	0,1	1,267540
4,327500	0,1	1,254868
4,329167	0,1	1,286479
4,330833	0,1	1,258243
4,332500	0,1	1,258190
4,334167	0,1	1,257373
4,335833	0,1	1,215572
4,337500	0,1	1,226855
4,339167	0,1	1,221911
4,340833	0,1	1,210149
4,342500	0,1	1,184681
4,344167	0,1	1,215421
4,345833	0,1	1,179358
4,347500	0,1	1,136585
4,349167	0,1	1,171931
4,350833	0,1	1,147561
4,352500	0,1	1,186262
4,354167	0,1	1,104602
4,355833	0,1	1,153201
4,357500	0,1	1,147801
4,359167	0,1	1,092708
4,360833	0,1	1,074706
4,362500	0,1	1,073835
4,364167	0,1	1,075565
4,365833	0,1	1,034340
4,367500	0,1	1,078106
4,369167	0,1	1,078098
4,370833	0,1	1,047581
4,372500	0,1	1,017128
4,374167	0,1	1,004366
4,375833	0,1	1,027671
4,377500	0,1	1,006166
4,379167	0,1	0,991858
4,380833	0,1	0,982299
4,382500	0,1	0,960396
4,384167	0,1	0,982357
4,385833	0,1	1,016536
4,387500	0,1	0,974194
4,389167	0,1	0,976822
4,390833	0,1	0,969618
4,392500	0,1	0,963228
4,394167	0,1	0,934306
4,395833	0,1	0,926059
4,397500	0,1	0,953638
4,399167	0,1	0,917088
4,400833	0,1	0,935790
4,402500	0,1	0,907571
4,404167	0,1	0,886927
4,405833	0,1	0,898468
4,407500	0,1	0,878792
4,409167	0,1	0,877669
4,410833	0,1	0,882616
4,412500	0,1	0,823833
4,414167	0,1	0,850843
4,415833	0,1	0,891926
4,417500	0,1	0,822902
4,419167	0,1	0,828923
4,420833	0,1	0,856825
4,422500	0,1	0,859338
4,424167	0,1	0,817009
4,425833	0,1	0,817872
4,427500	0,1	0,802439
4,429167	0,1	0,824839
4,430833	0,1	0,804016
4,432500	0,1	0,828891
4,434167	0,1	0,843838
4,435833	0,1	0,828993
4,437500	0,1	0,775642
4,439167	0,1	0,777010
4,440833	0,1	0,756126
4,442500	0,1	0,793361
4,444167	0,1	0,794562
4,445833	0,1	0,782061
4,447500	0,1	0,758185
4,449167	0,1	0,751911
4,450833	0,1	0,783496
4,452500	0,1	0,706390
4,454167	0,1	0,701550
4,455833	0,1	0,719446
4,457500	0,1	0,731915
4,459167	0,1	0,713766
4,460833	0,1	0,742515
4,462500	0,1	0,715632
4,464167	0,1	0,690693
4,465833	0,1	0,705015
4,467500	0,1	0,697530
4,469167	0,1	0,632763
4,470833	0,1	0,695943
4,472500	0,1	0,696437
4,474167	0,1	0,684742
4,475833	0,1	0,661030
4,477500	0,1	0,654826
4,479167	0,1	0,680909
4,480833	0,1	0,647151
4,482500	0,1	0,701791
4,484167	0,1	0,641438
4,485833	0,1	0,623947
4,487500	0,1	0,636921
4,489167	0,1	0,617620
4,490833	0,1	0,662846
4,492500	0,1	0,640369
4,494167	0,1	0,591793
4,495833	0,1	0,577166
4,497500	0,1	0,602217
4,499167	0,1	0,630460
4,500833	0,1	0,588002
4,502500	0,1	0,584746
4,504167	0,1	0,579832
4,505833	0,1	0,575366
4,507500	0,1	0,566787
4,509167	0,1	0,574398
4,510833	0,1	0,536144
4,512500	0,1	0,561287
4,514167	0,1	0,549635
4,515833	0,1	0,585509
4,517500	0,1	0,519642
4,519167	0,1	0,515227
4,520833	0,1	0,545063
4,522500	0,1	0,497794
4,524167	0,1	0,535037
4,525833	0,1	0,521909
4,527500	0,1	0,490426
4,529167	0,1	0,512072
4,530833	0,1	0,522226
4,532500	0,1	0,501097
4,534167	0,1	0,493957
4,535833	0,1	0,505940
4,537500	0,1	0,487508
4,539167	0,1	0,492260
4,540833	0,1	0,516535
4,542500	0,1	0,492422
4,544167	0,1	0,435256
4,545833	0,1	0,469281
4,547500	0,1	0,459853
4,549167	0,1	0,476224
4,550833	0,1	0,494599
4,552500	0,1	0,458892
4,554167	0,1	0,474912
4,555833	0,1	0,454582
4,557500	0,1	0,444492
4,559167	0,1	0,449183
4,560833	0,1	0,456024
4,562500	0,1	0,457344
4,564167	0,1	0,429278
4,565833	0,1	0,433415
4,567500	0,1	0,433768
4,569167	0,1	0,402276
4,570833	0,1	0,414722
4,572500	0,1	0,448914
4,574167	0,1	0,430851
4,575833	0,1	0,456796
4,577500	0,1	0,400219
4,579167	0,1	0,427473
4,580833	0,1	0,430267
4,582500	0,1	0,417234
4,584167	0,1	0,383061
4,585833	0,1	0,386727
4,587500	0,1	0,372890
4,589167	0,1	0,409126
4,590833	0,1	0,403001
4,592500	0,1	0,385574
4,594167	0,1	0,386464
4,595833	0,1	0,376001
4,597500	0,1	0,382129
4,599167	0,1	0,390994
4,600833	0,1	0,322673
4,602500	0,1	0,409892
4,604167	0,1	0,377969
4,605833	0,1	0,352582
4,607500	0,1	0,366815
4,609167	0,1	0,346071
4,610833	0,1	0,385486
4,612500	0,1	0,353781
4,614167	0,1	0,385878
4,615833	0,1	0,342929
4,617500	0,1	0,372616
4,619167	0,1	0,322506
4,620833	0,1	0,357681
4,622500	0,1	0,361905
4,624167	0,1	0,330622
4,625833	0,1	0,329949
4,627500	0,1	0,366771
4,629167	0,1	0,354871
4,630833	0,1	0,325295
4,632500	0,1	0,344727
4,634167	0,1	0,319163
4,635833	0,1	0,307198
4,637500	0,1	0,329490
4,639167	0,1	0,323528
4,640833	0,1	0,319221
4,642500	0,1	0,317331
4,644167	0,1	0,284489
4,645833	0,1	0,330579
4,647500	0,1	0,318680
4,649167	0,1	0,289562
4,650833	0,1	0,290611
4,652500	0,1	0,306926
4,654167	0,1	0,313601
4,655833	0,1	0,305611
4,657500	0,1	0,312482
4,659167	0,1	0,307927
4,660833	0,1	0,287343
4,662500	0,1	0,317965
4,664167	0,1	0,257323
4,665833	0,1	0,276834
4,667500	0,1	0,284151
4,669167	0,1	0,236357
4,670833	0,1	0,242868
4,672500	0,1	0,266418
4,674167	0,1	0,285923
4,675833	0,1	0,234848
4,677500	0,1	0,269147
4,679167	0,1	0,232793
4,680833	0,1	0,245952
4,682500	0,1	0,287217
4,684167	0,1	0,239834
4,685833	0,1	0,268850
4,687500	0,1	0,256066
4,689167	0,1	0,256642
4,690833	0,1	0,238709
4,692500	0,1	0,286724
4,694167	0,1	0,246708
4,695833	0,1	0,265855
4,697500	0,1	0,268653
4,699167	0,1	0,287123
4,700833	0,1	0,253581
4,702500	0,1	0,245808
4,704167	0,1	0,223034
4,705833	0,1	0,221103
4,707500	0,1	0,255657
4,709167	0,1	0,255092
4,710833	0,1	0,252273
4,712500	0,1	0,226783
4,714167	0,1	0,236735
4,715833	0,1	0,281360
4,717500	0,1	0,197139
4,719167	0,1	0,246749
4,720833	0,1	0,224131
4,722500	0,1	0,249636
4,724167	0,1	0,254176
4,725833	0,1	0,234795
4,727500	0,1	0,205927
4,729167	0,1	0,202360
4,730833	0,1	0,210929
4,732500	0,1	0,222940
4,734167	0,1	0,194184
4,735833	0,1	0,211052
4,737500	0,1	0,208302
4,739167	0,1	0,207558
4,740833	0,1	0,247126
4,742500	0,1	0,211252
4,744167	0,1	0,238987
4,745833	0,1	0,228081
4,747500	0,1	0,196651
4,749167	0,1	0,180909
4,750833	0,1	0,198978
4,752500	0,1	0,189584
4,754167	0,1	0,173307
4,755833	0,1	0,205063
4,757500	0,1	0,193829
4,759167	0,1	0,189560
4,760833	0,1	0,207262
4,762500	0,1	0,180619
4,764167	0,1	0,202292
4,765833	0,1	0,208858
4,767500	0,1	0,199378
4,769167	0,1	0,210533
4,770833	0,1	0,174845
4,772500	0,1	0,148791
4,774167	0,1	0,206509
4,775833	0,1	0,133582
4,777500	0,1	0,236112
4,779167	0,1	0,192449
4,780833	0,1	0,170141
4,782500	0,1	0,160364
4,784167	0,1	0,166076
4,785833	0,1	0,177110
4,787500	0,1	0,175190
4,789167	0,1	0,165458
4,790833	0,1	0,165642
4,792500	0,1	0,157940
4,794167	0,1	0,149844
4,795833	0,1	0,177211
4,797500	0,1	0,140678
4,799167	0,1	0,164352
4,800833	0,1	0,157423
4,802500	0,1	0,124629
4,804167	0,1	0,160891
4,805833	0,1	0,183281
4,807500	0,1	0,138733
4,809167	0,1	0,196175
4,810833	0,1	0,170846
4,812500	0,1	0,171937
4,814167	0,1	0,125460
4,815833	0,1	0,152010
4,817500	0,1	0,178969
4,819167	0,1	0,161834
4,820833	0,1	0,175556
4,822500	0,1	0,147508
4,824167	0,1	0,182200
4,825833	0,1	0,162250
4,827500	0,1	0,137236
4,829167	0,1	0,168720
4,830833	0,1	0,149081
4,832500	0,1	0,121357
4,834167	0,1	0,134640
4,835833	0,1	0,139362
4,837500	0,1	0,135783
4,839167	0,1	0,155159
4,840833	0,1	0,130962
4,842500	0,1	0,136382
4,844167	0,1	0,120752
4,845833	0,1	0,115304
4,847500	0,1	0,159190
4,849167	0,1	0,183588
4,850833	0,1	0,113478
4,852500	0,1	0,159376
4,854167	0,1	0,134649
4,855833	0,1	0,130108
4,857500	0,1	0,134931
4,859167	0,1	0,152321
4,860833	0,1	0,173609
4,862500	0,1	0,149413
4,864167	0,1	0,103141
4,865833	0,1	0,159704
4,867500	0,1	0,142288
4,869167	0,1	0,149343
4,870833	0,1	0,116223
4,872500	0,1	0,144409
4,874167	0,1	0,137979
4,875833	0,1	0,166670
4,877500	0,1	0,150901
4,879167	0,1	0,134461
4,880833	0,1	0,141123
4,882500	0,1	0,157355
4,884167	0,1	0,108211
4,885833	0,1	0,141405
4,887500	0,1	0,158783
4,889167	0,1	0,145414
4,890833	0,1	0,124295
4,892500	0,1	0,138386
4,894167	0,1	0,101461
4,895833	0,1	0,160283
4,897500	0,1	0,124360
4,899167	0,1	0,152319
4,900833	0,1	0,141686
4,902500	0,1	0,133982
4,904167	0,1	0,127128
4,905833	0,1	0,108455
4,907500	0,1	0,112672
4,909167	0,1	0,160328
4,910833	0,1	0,131978
4,912500	0,1	0,108227
4,914167	0,1	0,141529
4,915833	0,1	0,156340
4,917500	0,1	0,140424
4,919167	0,1	0,134189
4,920833	0,1	0,122987
4,922500	0,1	0,143501
4,924167	0,1	0,110694
4,925833	0,1	0,112757
4,927500	0,1	0,120477
4,929167	0,1	0,150393
4,930833	0,1	0,100778
4,932500	0,1	0,135482
4,934167	0,1	0,150852
4,935833	0,1	0,153940
4,937500	0,1	0,120654
4,939167	0,1	0,197803
4,940833	0,1	0,137929
4,942500	0,1	0,135202
4,944167	0,1	0,146877
4,945833	0,1	0,152802
4,947500	0,1	0,161602
4,949167	0,1	0,167026
4,950833	0,1	0,113949
4,952500	0,1	0,119442
4,954167	0,1	0,169024
4,955833	0,1	0,129558
4,957500	0,1	0,137395
4,959167	0,1	0,124562
4,960833	0,1	0,130044
4,962500	0,1	0,129694
4,964167	0,1	0,105536
4,965833	0,1	0,133186
4,967500	0,1	0,093221
4,969167	0,1	0,150262
4,970833	0,1	0,151395
4,972500	0,1	0,125496
4,974167	0,1	0,119258
4,975833	0,1	0,142236
4,977500	0,1	0,166982
4,979167	0,1	0,125893
4,980833	0,1	0,119116
4,982500	0,1	0,126400
4,984167	0,1	0,129259
4,985833	0,1	0,124954
4,987500	0,1	0,139484
4,989167	0,1	0,123797
4,990833	0,1	0,161470
4,992500	0,1	0,157275
4,994167	0,1	0,090433
4,995833	0,1	0,129022
4,997500	0,1	0,132013
4,999167	0,1	0,155365
5,000833	0,1	0,125063
5,002500	0,1	0,119364
5,004167	0,1	0,129794
5,005833	0,1	0,067635
5,007500	0,1	0,115146
5,009167	0,1	0,146106
5,010833	0,1	0,120755
5,012500	0,1	0,124580
5,014167	0,1	0,133937
5,015833	0,1	0,094814
5,017500	0,1	0,118777
5,019167	0,1	0,114166
5,020833	0,1	0,075682
5,022500	0,1	0,159740
5,024167	0,1	0,102293
5,025833	0,1	0,146600
5,027500	0,1	0,098852
5,029167	0,1	0,117100
5,030833	0,1	0,156852
5,032500	0,1	0,134234
5,034167	0,1	0,139715
5,035833	0,1	0,113942
5,037500	0,1	0,129213
5,039167	0,1	0,103549
5,040833	0,1	0,155585
5,042500	0,1	0,130032
5,044167	0,1	0,118826
5,045833	0,1	0,157949
5,047500	0,1	0,141293
5,049167	0,1	0,165967
5,050833	0,1	0,137776
5,052500	0,1	0,139716
5,054167	0,1	0,147542
5,055833	0,1	0,124047
5,057500	0,1	0,140479
5,059167	0,1	0,139363
5,060833	0,1	0,136694
5,062500	0,1	0,151825
5,064167	0,1	0,143508
5,065833	0,1	0,094940
5,067500	0,1	0,124841
5,069167	0,1	0,120170
5,070833	0,1	0,147308
5,072500	0,1	0,134997
5,074167	0,1	0,201883
5,075833	0,1	0,122591
5,077500	0,1	0,121019
5,079167	0,1	0,165589
5,080833	0,1	0,088404
5,082500	0,1	0,132850
5,084167	0,1	0,146814
5,085833	0,1	0,119533
5,087500	0,1	0,131512
5,089167	0,1	0,142136
5,090833	0,1	0,151371
5,092500	0,1	0,167024
5,094167	0,1	0,162597
5,095833	0,1	0,115603
5,097500	0,1	0,172814
5,099167	0,1	0,191748
5,100833	0,1	0,147368
5,102500	0,1	0,180582
5,104167	0,1	0,165417
5,105833	0,1	0,174997
5,107500	0,1	0,138959
5,109167	0,1	0,141040
5,110833	0,1	0,132345
5,112500	0,1	0,130792
5,114167	0,1	0,165922
5,115833	0,1	0,179035
5,117500	0,1	0,127220
5,119167	0,1	0,176003
5,120833	0,1	0,182888
5,122500	0,1	0,153017
5,124167	0,1	0,109825
5,125833	0,1	0,157967
5,127500	0,1	0,146325
5,129167	0,1	0,158971
5,130833	0,1	0,126245
5,132500	0,1	0,132425
5,134167	0,1	0,153771
5,135833	0,1	0,128810
5,137500	0,1	0,153129
5,139167	0,1	0,133901
5,140833	0,1	0,147705
5,142500	0,1	0,123694
5,144167	0,1	0,103382
5,145833	0,1	0,144821
5,147500	0,1	0,180916
5,149167	0,1	0,104180
5,150833	0,1	0,120785
5,152500	0,1	0,101289
5,154167	0,1	0,123767
5,155833	0,1	0,124538
5,157500	0,1	0,100360
5,159167	0,1	0,165377
5,160833	0,1	0,108111
5,162500	0,1	0,160763
5,164167	0,1	0,108069
5,165833	0,1	0,151487
5,167500	0,1	0,115272
5,169167	0,1	0,148385
5,170833	0,1	0,132430
5,172500	0,1	0,142220
5,174167	0,1	0,140876
5,175833	0,1	0,109141
5,177500	0,1	0,120994
5,179167	0,1	0,127746
5,180833	0,1	0,132592
5,182500	0,1	0,131952
5,184167	0,1	0,124561
5,185833	0,1	0,086575
5,187500	0,1	0,128587
5,189167	0,1	0,115927
5,190833	0,1	0,156148
5,192500	0,1	0,112768
5,194167	0,1	0,131947
5,195833	0,1	0,078377
5,197500	0,1	0,135560
5,199167	0,1	0,119593
5,200833	0,1	0,158633
5,202500	0,1	0,159138
5,204167	0,1	0,124298
5,205833	0,1	0,104503
5,207500	0,1	0,105383
5,209167	0,1	0,089758
5,210833	0,1	0,090582
5,212500	0,1	0,128919
5,214167	0,1	0,108332
5,215833	0,1	0,110252
5,217500	0,1	0,141489
5,219167	0,1	0,099516
5,220833	0,1	0,097354
5,222500	0,1	0,097995
5,224167	0,1	0,117141
5,225833	0,1	0,104355
5,227500	0,1	0,117579
5,229167	0,1	0,120230
5,230833	0,1	0,091811
5,232500	0,1	0,063177
5,234167	0,1	0,080453
5,235833	0,1	0,088593
5,237500	0,1	0,127552
5,239167	0,1	0,056209
5,240833	0,1	0,075860
5,242500	0,1	0,098673
5,244167	0,1	0,118034
5,245833	0,1	0,046377
5,247500	0,1	0,090553
5,249167	0,1	0,049184
5,250833	0,1	0,095873
5,252500	0,1	0,085574
5,254167	0,1	0,062245
5,255833	0,1	0,092647
5,257500	0,1	0,106876
5,259167	0,1	0,090648
5,260833	0,1	0,044508
5,262500	0,1	0,056213
5,264167	0,1	0,083121
5,265833	0,1	0,073547
5,267500	0,1	0,071119
5,269167	0,1	0,067004
5,270833	0,1	0,085196
5,272500	0,1	0,101613
5,274167	0,1	0,075600
5,275833	0,1	0,084803
5,277500	0,1	0,063940
5,279167	0,1	0,062985
5,280833	0,1	0,094904
5,282500	0,1	0,113333
5,284167	0,1	0,055149
5,285833	0,1	0,078673
5,287500	0,1	0,113042
5,289167	0,1	0,087546
5,290833	0,1	0,094599
5,292500	0,1	0,061647
5,294167	0,1	0,075343
5,295833	0,1	0,105380
5,297500	0,1	0,062064
5,299167	0,1	0,057686
5,300833	0,1	0,072546
5,302500	0,1	0,063340
5,304167	0,1	0,090743
5,305833	0,1	0,060654
5,307500	0,1	0,088423
5,309167	0,1	0,044137
5,310833	0,1	0,063518
5,312500	0,1	0,093866
5,314167	0,1	0,052499
5,315833	0,1	0,049200
5,317500	0,1	0,048557
5,319167	0,1	0,046879
5,320833	0,1	0,056317
5,322500	0,1	0,043524
5,324167	0,1	0,094111
5,325833	0,1	0,058150
5,327500	0,1	0,030965
5,329167	0,1	0,048424
5,330833	0,1	0,023756
5,332500	0,1	0,049834
5,334167	0,1	0,093927
5,335833	0,1	0,080463
5,337500	0,1	0,043760
5,339167	0,1	0,065529
5,340833	0,1	0,021449
5,342500	0,1	0,065005
5,344167	0,1	0,041918
5,345833	0,1	0,046421
5,347500	0,1	0,049876
5,349167	0,1	0,015338
5,350833	0,1	0,051530
5,352500	0,1	0,057207
5,354167	0,1	0,092994
5,355833	0,1	0,024725
5,357500	0,1	0,013468
5,359167	0,1	-0,003918
5,360833	0,1	0,016009
5,362500	0,1	0,040578
5,364167	0,1	0,022146
5,365833	0,1	0,040501
5,367500	0,1	0,031540
5,369167	0,1	0,069331
5,370833	0,1	0,003899
5,372500	0,1	0,036023
5,374167	0,1	0,014217
5,375833	0,1	0,000405
5,377500	0,1	0,009552
5,379167	0,1	0,057636
5,380833	0,1	0,020576
5,382500	0,1	0,012852
5,384167	0,1	0,028704
5,385833	0,1	0,012290
5,387500	0,1	0,044718
5,389167	0,1	0,005775
5,390833	0,1	0,000860
5,392500	0,1	0,031531
5,394167	0,1	0,027504
5,395833	0,1	0,017960
5,397500	0,1	0,010259
5,399167	0,1	-0,008163
5,400833	0,1	0,028427
5,402500	0,1	0,017089
5,404167	0,1	0,033336
5,405833	0,1	-0,012314
5,407500	0,1	0,006218
5,409167	0,1	0,020547
5,410833	0,1	0,018001
5,412500	0,1	0,014274
5,414167	0,1	-0,003276
5,415833	0,1	0,034281
5,417500	0,1	0,011589
5,419167	0,1	-0,001932
5,420833	0,1	0,004665
5,422500	0,1	0,003717
5,424167	0,1	0,000878
5,425833	0,1	0,010281
5,427500	0,1	0,013034
5,429167	0,1	-0,013998
5,430833	0,1	-0,006429
5,432500	0,1	0,025052
5,434167	0,1	-0,025438
5,435833	0,1	0,049595
5,437500	0,1	0,018219
5,439167	0,1	-0,006421
5,440833	0,1	-0,003511
5,442500	0,1	0,021968
5,444167	0,1	0,008958
5,445833	0,1	-0,023745
5,447500	0,1	-0,005667
5,449167	0,1	-0,004214
5,450833	0,1	-0,013317
5,452500	0,1	-0,017976
5,454167	0,1	-0,011501
5,455833	0,1	-0,004338
5,457500	0,1	-0,012430
5,459167	0,1	-0,001542
5,460833	0,1	-0,020708
5,462500	0,1	-0,004920
5,464167	0,1	-0,003922
5,465833	0,1	0,017723
5,467500	0,1	-0,027850
5,469167	0,1	-0,034017
5,470833	0,1	-0,041428
5,472500	0,1	0,030862
5,474167	0,1	-0,026965
5,475833	0,1	-0,015720
5,477500	0,1	-0,004032
5,479167	0,1	-0,033600
5,480833	0,1	-0,019282
5,482500	0,1	-0,037514
5,484167	0,1	0,006273
5,485833	0,1	-0,035811
5,487500	0,1	-0,036524
5,489167	0,1	0,001387
5,490833	0,1	-0,002472
5,492500	0,1	0,023147
5,494167	0,1	-0,019892
5,495833	0,1	-0,013963
5,497500	0,1	-0,004689
5,499167	0,1	-0,016218
5,500833	0,1	-0,004032
5,502500	0,1	-0,032836
5,504167	0,1	0,002302
5,505833	0,1	-0,047009
5,507500	0,1	-0,006164
5,509167	0,1	-0,045681
5,510833	0,1	-0,027852
5,512500	0,1	-0,015202
5,514167	0,1	-0,035773
5,515833	0,1	-0,015661
5,517500	0,1	-0,003986
5,519167	0,1	-0,023213
5,520833	0,1	-0,049747
5,522500	0,1	-0,002254
5,524167	0,1	-0,014784
5,525833	0,1	-0,047637
5,527500	0,1	-0,040455
5,529167	0,1	-0,010944
5,530833	0,1	-0,007773
5,532500	0,1	0,010357
5,534167	0,1	0,028924
5,535833	0,1	-0,025787
5,537500	0,1	-0,024852
5,539167	0,1	-0,010053
5,540833	0,1	-0,046309
5,542500	0,1	-0,048487
5,544167	0,1	-0,039965
5,545833	0,1	0,010948
5,547500	0,1	-0,029597
5,549167	0,1	-0,003409
5,550833	0,1	-0,009256
5,552500	0,1	-0,009178
5,554167	0,1	0,006630
5,555833	0,1	-0,006934
5,557500	0,1	-0,017044
5,559167	0,1	-0,003820
5,560833	0,1	-0,059504
5,562500	0,1	-0,043052
5,564167	0,1	-0,021464
5,565833	0,1	-0,038340
5,567500	0,1	-0,038222
5,569167	0,1	-0,004986
5,570833	0,1	-0,027827
5,572500	0,1	-0,024932
5,574167	0,1	-0,022181
5,575833	0,1	-0,016680
5,577500	0,1	-0,001209
5,579167	0,1	-0,017912
5,580833	0,1	-0,022090
5,582500	0,1	-0,034307
5,584167	0,1	-0,046268
5,585833	0,1	-0,002895
5,587500	0,1	-0,003219
5,589167	0,1	-0,017289
5,590833	0,1	-0,006264
5,592500	0,1	-0,024592
5,594167	0,1	0,002673
5,595833	0,1	-0,029901
5,597500	0,1	-0,014895
5,599167	0,1	0,020824
5,600833	0,1	-0,044543
5,602500	0,1	-0,033748
5,604167	0,1	-0,025575
5,605833	0,1	-0,060548
5,607500	0,1	-0,047039
5,609167	0,1	-0,017511
5,610833	0,1	-0,017047
5,612500	0,1	-0,033619
5,614167	0,1	-0,032033
5,615833	0,1	-0,008772
5,617500	0,1	0,001683
5,619167	0,1	0,024616
5,620833	0,1	-0,030631
5,622500	0,1	0,009587
5,624167	0,1	-0,020475
5,625833	0,1	-0,066425
5,627500	0,1	-0,018649
5,629167	0,1	0,013351
5,630833	0,1	-0,004163
5,632500	0,1	0,003865
5,634167	0,1	-0,044810
5,635833	0,1	0,005384
5,637500	0,1	-0,004472
5,639167	0,1	-0,028545
5,640833	0,1	-0,040021
5,642500	0,1	-0,050119
5,644167	0,1	-0,010640
5,645833	0,1	-0,025428
5,647500	0,1	0,006338
5,649167	0,1	0,002205
5,650833	0,1	-0,018080
5,652500	0,1	-0,033971
5,654167	0,1	-0,042665
5,655833	0,1	0,001429
5,657500	0,1	-0,022788
5,659167	0,1	-0,011993
5,660833	0,1	-0,041650
5,662500	0,1	-0,001365
5,664167	0,1	-0,032393
5,665833	0,1	0,005018
5,667500	0,1	-0,003051
5,669167	0,1	-0,033600
5,670833	0,1	-0,000951
5,672500	0,1	0,009244
5,674167	0,1	-0,008136
5,675833	0,1	-0,005574
5,677500	0,1	-0,013530
5,679167	0,1	0,014970
5,680833	0,1	-0,029304
5,682500	0,1	-0,014588
5,684167	0,1	-0,003283
5,685833	0,1	0,007257
5,687500	0,1	-0,009113
5,689167	0,1	-0,001787
5,690833	0,1	-0,009327
5,692500	0,1	-0,003819
5,694167	0,1	0,017107
5,695833	0,1	0,006990
5,697500	0,1	0,004525
5,699167	0,1	0,005201
5,700833	0,1	0,008374
5,702500	0,1	0,023254
5,704167	0,1	0,015665
5,705833	0,1	0,033689
5,707500	0,1	-0,005592
5,709167	0,1	-0,002366
5,710833	0,1	-0,025610
5,712500	0,1	-0,007638
5,714167	0,1	-0,007176
5,715833	0,1	0,018944
5,717500	0,1	0,007797
5,719167	0,1	-0,006608
5,720833	0,1	0,037866
5,722500	0,1	0,015043
5,724167	0,1	0,004115
5,725833	0,1	0,029176
5,727500	0,1	0,047745
5,729167	0,1	0,050649
5,730833	0,1	0,034838
5,732500	0,1	0,002089
5,734167	0,1	0,010686
5,735833	0,1	0,032570
5,737500	0,1	0,032261
5,739167	0,1	0,050478
5,740833	0,1	0,029828
5,742500	0,1	0,041330
5,744167	0,1	0,058056
5,745833	0,1	0,058869
5,747500	0,1	0,008202
5,749167	0,1	0,024326
5,750833	0,1	0,015973
5,752500	0,1	0,005126
5,754167	0,1	0,062126
5,755833	0,1	0,036785
5,757500	0,1	0,036902
5,759167	0,1	-0,036798
5,760833	0,1	0,011283
5,762500	0,1	0,014564
5,764167	0,1	0,039401
5,765833	0,1	-0,000292
5,767500	0,1	-0,008027
5,769167	0,1	0,055868
5,770833	0,1	0,030718
5,772500	0,1	0,030106
5,774167	0,1	0,038307
5,775833	0,1	0,020299
5,777500	0,1	0,036590
5,779167	0,1	0,030029
5,780833	0,1	0,031266
5,782500	0,1	0,007343
5,784167	0,1	0,036542
5,785833	0,1	0,033114
5,787500	0,1	0,026425
5,789167	0,1	0,041248
5,790833	0,1	0,064159
5,792500	0,1	0,039388
5,794167	0,1	0,017778
5,795833	0,1	0,056372
5,797500	0,1	0,009688
5,799167	0,1	0,066076
5,800833	0,1	0,009065
5,802500	0,1	0,039251
5,804167	0,1	0,025416
5,805833	0,1	0,029323
5,807500	0,1	0,006931
5,809167	0,1	0,064792
5,810833	0,1	0,057728
5,812500	0,1	0,014591
5,814167	0,1	0,013236
5,815833	0,1	0,029505
5,817500	0,1	0,035880
5,819167	0,1	0,039986
5,820833	0,1	0,021813
5,822500	0,1	0,000802
5,824167	0,1	0,014850
5,825833	0,1	0,032422
5,827500	0,1	0,019225
5,829167	0,1	-0,020350
5,830833	0,1	0,038479
5,832500	0,1	0,047686
5,834167	0,1	0,052944
5,835833	0,1	0,069522
5,837500	0,1	0,027224
5,839167	0,1	0,033734
5,840833	0,1	-0,000969
5,842500	0,1	0,021204
5,844167	0,1	0,019987
5,845833	0,1	0,028742
5,847500	0,1	0,009436
5,849167	0,1	-0,026249
5,850833	0,1	0,011240
5,852500	0,1	0,021268
5,854167	0,1	0,001444
5,855833	0,1	0,015984
5,857500	0,1	0,041738
5,859167	0,1	0,072233
5,860833	0,1	0,008021
5,862500	0,1	0,055254
5,864167	0,1	0,044790
5,865833	0,1	-0,012311
5,867500	0,1	0,031589
5,869167	0,1	0,056499
5,870833	0,1	0,059548
5,872500	0,1	0,036389
5,874167	0,1	-0,000477
5,875833	0,1	-0,001830
5,877500	0,1	-0,001216
5,879167	0,1	0,020027
5,880833	0,1	0,011754
5,882500	0,1	0,018825
5,884167	0,1	0,007797
5,885833	0,1	0,016504
5,887500	0,1	0,030067
5,889167	0,1	-0,043856
5,890833	0,1	-0,028583
5,892500	0,1	0,013271
5,894167	0,1	-0,008147
5,895833	0,1	0,005682
5,897500	0,1	0,007110
5,899167	0,1	0,020275
5,900833	0,1	0,021516
5,902500	0,1	0,002588
5,904167	0,1	-0,016416
5,905833	0,1	0,016174
5,907500	0,1	0,045299
5,909167	0,1	0,038372
5,910833	0,1	0,034353
5,912500	0,1	0,040443
5,914167	0,1	0,020326
5,915833	0,1	0,006560
5,917500	0,1	0,023914
5,919167	0,1	-0,044621
5,920833	0,1	0,010640
5,922500	0,1	0,028704
5,924167	0,1	0,029305
5,925833	0,1	0,015517
5,927500	0,1	0,027396
5,929167	0,1	0,008917
5,930833	0,1	0,046561
5,932500	0,1	0,010493
5,934167	0,1	-0,016583
5,935833	0,1	0,031299
5,937500	0,1	-0,019617
5,939167	0,1	-0,028288
5,940833	0,1	0,001512
5,942500	0,1	-0,011926
5,944167	0,1	0,002949
5,945833	0,1	0,031865
5,947500	0,1	0,007362
5,949167	0,1	-0,018720
5,950833	0,1	0,017246
5,952500	0,1	0,003306
5,954167	0,1	0,011416
5,955833	0,1	-0,002055
5,957500	0,1	0,045522
5,959167	0,1	0,004949
5,960833	0,1	0,008085
5,962500	0,1	-0,009650
5,964167	0,1	-0,012782
5,965833	0,1	-0,033952
5,967500	0,1	-0,005688
5,969167	0,1	-0,033493
5,970833	0,1	0,018814
5,972500	0,1	-0,016888
5,974167	0,1	0,005100
5,975833	0,1	-0,002532
5,977500	0,1	-0,041849
5,979167	0,1	0,002527
5,980833	0,1	0,009261
5,982500	0,1	-0,010791
5,984167	0,1	-0,039758
5,985833	0,1	-0,011322
5,987500	0,1	0,010479
5,989167	0,1	-0,004560
5,990833	0,1	-0,014432
5,992500	0,1	-0,026669
5,994167	0,1	0,001705
5,995833	0,1	0,024519
5,997500	0,1	0,001675
5,999167	0,1	-0,023902
6,000833	0,1	-0,011168
