File Path	chrom://chromeleon01/ikbm_chromeleon/2022/Rezex/Esteban/220612_chitin_4_7.seq/764.smp/UV_VIS_1.channel/UV_VIS_1.chm
Channel	UV_VIS_1

Injection Information:
Data Vault	ikbm_chromeleon
Injection	Sc10D_24h-NT_3
Injection Number	35
Position	RD7
Comment	
Processing Method	New ProcMethod
Instrument Method	Short_Rezex_6min_194nm
Type	Unknown
Status	Finished
Injection Date	12.06.2022
Injection Time	20:54:32
Injection Volume (µl)	8,000
Dilution Factor	1,0000
Weight	1,0000

Chromatogram Data Information:
Time Min. (min)	0,000833
Time Max. (min)	6,000833
Data Points	3601
Detector	UV
Generating Data System	Chromeleon 7.2.9.11323
Exporting Data System	Chromeleon 7.2.9.0
Operator	Instrument Controller
Signal Quantity	Absorbance
Signal Unit	mAU
Signal Min.	-0,182593
Signal Max.	837,676486
Channel	UV_VIS_1
Driver Name	VWD3000.dll
Channel Type	Evaluation
Min. Step (s)	0,1
Max. Step (s)	0,1
Average Step (s)	0,1

Signal Parameter Information:
Signal Info	WVL:194 nm

Chromatogram Data:
Time (min)	Step (s)	Value (mAU)
0,000833	n.a.	-0,077115
0,002500	0,1	-0,073503
0,004167	0,1	-0,107346
0,005833	0,1	-0,097844
0,007500	0,1	-0,103452
0,009167	0,1	-0,099586
0,010833	0,1	-0,113669
0,012500	0,1	-0,064005
0,014167	0,1	-0,116268
0,015833	0,1	-0,106612
0,017500	0,1	-0,054885
0,019167	0,1	-0,117396
0,020833	0,1	-0,071129
0,022500	0,1	-0,130644
0,024167	0,1	-0,101267
0,025833	0,1	-0,105899
0,027500	0,1	-0,106804
0,029167	0,1	-0,108222
0,030833	0,1	-0,133072
0,032500	0,1	-0,150093
0,034167	0,1	-0,122413
0,035833	0,1	-0,132590
0,037500	0,1	-0,116800
0,039167	0,1	-0,158726
0,040833	0,1	-0,119065
0,042500	0,1	-0,144192
0,044167	0,1	-0,115356
0,045833	0,1	-0,129465
0,047500	0,1	-0,150382
0,049167	0,1	-0,119126
0,050833	0,1	-0,130399
0,052500	0,1	-0,123569
0,054167	0,1	-0,105554
0,055833	0,1	-0,085567
0,057500	0,1	-0,097065
0,059167	0,1	-0,107317
0,060833	0,1	-0,113414
0,062500	0,1	-0,071485
0,064167	0,1	-0,098257
0,065833	0,1	-0,130299
0,067500	0,1	-0,148031
0,069167	0,1	-0,120835
0,070833	0,1	-0,151509
0,072500	0,1	-0,141720
0,074167	0,1	-0,119737
0,075833	0,1	-0,142485
0,077500	0,1	-0,120025
0,079167	0,1	-0,122697
0,080833	0,1	-0,118798
0,082500	0,1	-0,095751
0,084167	0,1	-0,102160
0,085833	0,1	-0,079765
0,087500	0,1	-0,066705
0,089167	0,1	-0,084878
0,090833	0,1	-0,119496
0,092500	0,1	-0,101394
0,094167	0,1	-0,105964
0,095833	0,1	-0,137034
0,097500	0,1	-0,129792
0,099167	0,1	-0,102942
0,100833	0,1	-0,126528
0,102500	0,1	-0,127563
0,104167	0,1	-0,146805
0,105833	0,1	-0,142943
0,107500	0,1	-0,141201
0,109167	0,1	-0,087704
0,110833	0,1	-0,161715
0,112500	0,1	-0,158832
0,114167	0,1	-0,115584
0,115833	0,1	-0,169262
0,117500	0,1	-0,153420
0,119167	0,1	-0,146327
0,120833	0,1	-0,104238
0,122500	0,1	-0,122695
0,124167	0,1	-0,122470
0,125833	0,1	-0,139037
0,127500	0,1	-0,135946
0,129167	0,1	-0,172296
0,130833	0,1	-0,115236
0,132500	0,1	-0,149444
0,134167	0,1	-0,149805
0,135833	0,1	-0,154480
0,137500	0,1	-0,114842
0,139167	0,1	-0,093399
0,140833	0,1	-0,147442
0,142500	0,1	-0,120900
0,144167	0,1	-0,100879
0,145833	0,1	-0,101905
0,147500	0,1	-0,097458
0,149167	0,1	-0,109898
0,150833	0,1	-0,107805
0,152500	0,1	-0,105388
0,154167	0,1	-0,084922
0,155833	0,1	-0,164743
0,157500	0,1	-0,088319
0,159167	0,1	-0,112506
0,160833	0,1	-0,082379
0,162500	0,1	-0,129037
0,164167	0,1	-0,079447
0,165833	0,1	-0,100902
0,167500	0,1	-0,105354
0,169167	0,1	-0,098942
0,170833	0,1	-0,096874
0,172500	0,1	-0,111607
0,174167	0,1	-0,119181
0,175833	0,1	-0,130850
0,177500	0,1	-0,111775
0,179167	0,1	-0,091659
0,180833	0,1	-0,121433
0,182500	0,1	-0,140454
0,184167	0,1	-0,102818
0,185833	0,1	-0,120309
0,187500	0,1	-0,122406
0,189167	0,1	-0,118539
0,190833	0,1	-0,094433
0,192500	0,1	-0,129876
0,194167	0,1	-0,119638
0,195833	0,1	-0,086248
0,197500	0,1	-0,124043
0,199167	0,1	-0,107582
0,200833	0,1	-0,112187
0,202500	0,1	-0,101713
0,204167	0,1	-0,080309
0,205833	0,1	-0,110603
0,207500	0,1	-0,112576
0,209167	0,1	-0,148285
0,210833	0,1	-0,127861
0,212500	0,1	-0,132529
0,214167	0,1	-0,107298
0,215833	0,1	-0,153147
0,217500	0,1	-0,125443
0,219167	0,1	-0,170136
0,220833	0,1	-0,114718
0,222500	0,1	-0,145415
0,224167	0,1	-0,120705
0,225833	0,1	-0,135684
0,227500	0,1	-0,150223
0,229167	0,1	-0,072491
0,230833	0,1	-0,148305
0,232500	0,1	-0,105560
0,234167	0,1	-0,139195
0,235833	0,1	-0,126149
0,237500	0,1	-0,135719
0,239167	0,1	-0,121929
0,240833	0,1	-0,081448
0,242500	0,1	-0,077635
0,244167	0,1	-0,154592
0,245833	0,1	-0,151870
0,247500	0,1	-0,101466
0,249167	0,1	-0,110384
0,250833	0,1	-0,106160
0,252500	0,1	-0,126915
0,254167	0,1	-0,107747
0,255833	0,1	-0,136067
0,257500	0,1	-0,125409
0,259167	0,1	-0,118575
0,260833	0,1	-0,152281
0,262500	0,1	-0,108622
0,264167	0,1	-0,121567
0,265833	0,1	-0,117701
0,267500	0,1	-0,122697
0,269167	0,1	-0,138456
0,270833	0,1	-0,155316
0,272500	0,1	-0,106203
0,274167	0,1	-0,071321
0,275833	0,1	-0,107311
0,277500	0,1	-0,145155
0,279167	0,1	-0,127439
0,280833	0,1	-0,125308
0,282500	0,1	-0,117639
0,284167	0,1	-0,127884
0,285833	0,1	-0,146321
0,287500	0,1	-0,100017
0,289167	0,1	-0,103679
0,290833	0,1	-0,053015
0,292500	0,1	-0,087132
0,294167	0,1	-0,091073
0,295833	0,1	-0,100066
0,297500	0,1	-0,102228
0,299167	0,1	-0,154920
0,300833	0,1	-0,131245
0,302500	0,1	-0,135686
0,304167	0,1	-0,106166
0,305833	0,1	-0,115669
0,307500	0,1	-0,126660
0,309167	0,1	-0,127950
0,310833	0,1	-0,130885
0,312500	0,1	-0,105618
0,314167	0,1	-0,156790
0,315833	0,1	-0,115454
0,317500	0,1	-0,109484
0,319167	0,1	-0,090660
0,320833	0,1	-0,111476
0,322500	0,1	-0,122340
0,324167	0,1	-0,125212
0,325833	0,1	-0,091791
0,327500	0,1	-0,090656
0,329167	0,1	-0,110249
0,330833	0,1	-0,093044
0,332500	0,1	-0,116698
0,334167	0,1	-0,080802
0,335833	0,1	-0,151692
0,337500	0,1	-0,098794
0,339167	0,1	-0,152050
0,340833	0,1	-0,140589
0,342500	0,1	-0,130243
0,344167	0,1	-0,129240
0,345833	0,1	-0,113740
0,347500	0,1	-0,083279
0,349167	0,1	-0,073764
0,350833	0,1	-0,113471
0,352500	0,1	-0,126369
0,354167	0,1	-0,123665
0,355833	0,1	-0,156150
0,357500	0,1	-0,109750
0,359167	0,1	-0,088305
0,360833	0,1	-0,090201
0,362500	0,1	-0,132423
0,364167	0,1	-0,109488
0,365833	0,1	-0,114089
0,367500	0,1	-0,129430
0,369167	0,1	-0,133463
0,370833	0,1	-0,102298
0,372500	0,1	-0,119244
0,374167	0,1	-0,092726
0,375833	0,1	-0,094332
0,377500	0,1	-0,090077
0,379167	0,1	-0,092524
0,380833	0,1	-0,127203
0,382500	0,1	-0,093402
0,384167	0,1	-0,089720
0,385833	0,1	-0,053717
0,387500	0,1	-0,117010
0,389167	0,1	-0,112351
0,390833	0,1	-0,102520
0,392500	0,1	-0,109834
0,394167	0,1	-0,138358
0,395833	0,1	-0,113227
0,397500	0,1	-0,112126
0,399167	0,1	-0,105421
0,400833	0,1	-0,116378
0,402500	0,1	-0,135780
0,404167	0,1	-0,092535
0,405833	0,1	-0,147215
0,407500	0,1	-0,129150
0,409167	0,1	-0,117381
0,410833	0,1	-0,124629
0,412500	0,1	-0,129433
0,414167	0,1	-0,142616
0,415833	0,1	-0,096823
0,417500	0,1	-0,136421
0,419167	0,1	-0,097207
0,420833	0,1	-0,096556
0,422500	0,1	-0,132039
0,424167	0,1	-0,122730
0,425833	0,1	-0,118057
0,427500	0,1	-0,070359
0,429167	0,1	-0,182593
0,430833	0,1	-0,084200
0,432500	0,1	-0,115342
0,434167	0,1	-0,154374
0,435833	0,1	-0,103722
0,437500	0,1	-0,088469
0,439167	0,1	-0,120142
0,440833	0,1	-0,119022
0,442500	0,1	-0,161305
0,444167	0,1	-0,076265
0,445833	0,1	-0,109377
0,447500	0,1	-0,128978
0,449167	0,1	-0,108972
0,450833	0,1	-0,092562
0,452500	0,1	-0,109767
0,454167	0,1	-0,097845
0,455833	0,1	-0,120920
0,457500	0,1	-0,102360
0,459167	0,1	-0,075256
0,460833	0,1	-0,097001
0,462500	0,1	-0,117147
0,464167	0,1	-0,063686
0,465833	0,1	-0,109148
0,467500	0,1	-0,083955
0,469167	0,1	-0,099678
0,470833	0,1	-0,116700
0,472500	0,1	-0,103489
0,474167	0,1	-0,089178
0,475833	0,1	-0,102838
0,477500	0,1	-0,132780
0,479167	0,1	-0,127471
0,480833	0,1	-0,118541
0,482500	0,1	-0,120763
0,484167	0,1	-0,104070
0,485833	0,1	-0,097361
0,487500	0,1	-0,092559
0,489167	0,1	-0,104772
0,490833	0,1	-0,130235
0,492500	0,1	-0,093662
0,494167	0,1	-0,114247
0,495833	0,1	-0,108710
0,497500	0,1	-0,122725
0,499167	0,1	-0,096624
0,500833	0,1	-0,142897
0,502500	0,1	-0,095695
0,504167	0,1	-0,092429
0,505833	0,1	-0,111121
0,507500	0,1	-0,084053
0,509167	0,1	-0,137544
0,510833	0,1	-0,055987
0,512500	0,1	-0,106150
0,514167	0,1	-0,121952
0,515833	0,1	-0,117606
0,517500	0,1	-0,082120
0,519167	0,1	-0,094359
0,520833	0,1	-0,108767
0,522500	0,1	-0,071131
0,524167	0,1	-0,107313
0,525833	0,1	-0,088179
0,527500	0,1	-0,069192
0,529167	0,1	-0,096676
0,530833	0,1	-0,102934
0,532500	0,1	-0,129428
0,534167	0,1	-0,092761
0,535833	0,1	-0,101644
0,537500	0,1	-0,136196
0,539167	0,1	-0,129727
0,540833	0,1	-0,093761
0,542500	0,1	-0,101744
0,544167	0,1	-0,115732
0,545833	0,1	-0,111609
0,547500	0,1	-0,055949
0,549167	0,1	-0,093773
0,550833	0,1	-0,099165
0,552500	0,1	-0,070930
0,554167	0,1	-0,095905
0,555833	0,1	-0,081989
0,557500	0,1	-0,069670
0,559167	0,1	-0,113821
0,560833	0,1	-0,076513
0,562500	0,1	-0,091750
0,564167	0,1	-0,042921
0,565833	0,1	-0,085358
0,567500	0,1	-0,074024
0,569167	0,1	-0,071508
0,570833	0,1	-0,093359
0,572500	0,1	-0,057684
0,574167	0,1	-0,101055
0,575833	0,1	-0,039927
0,577500	0,1	-0,086099
0,579167	0,1	-0,064225
0,580833	0,1	-0,092712
0,582500	0,1	-0,057104
0,584167	0,1	-0,062738
0,585833	0,1	-0,095806
0,587500	0,1	-0,066806
0,589167	0,1	-0,057389
0,590833	0,1	-0,068310
0,592500	0,1	-0,030639
0,594167	0,1	-0,092990
0,595833	0,1	-0,053556
0,597500	0,1	-0,101958
0,599167	0,1	-0,073318
0,600833	0,1	-0,059969
0,602500	0,1	-0,070698
0,604167	0,1	-0,050717
0,605833	0,1	-0,055321
0,607500	0,1	-0,046651
0,609167	0,1	-0,068858
0,610833	0,1	-0,061322
0,612500	0,1	-0,046717
0,614167	0,1	-0,066633
0,615833	0,1	-0,058642
0,617500	0,1	-0,076596
0,619167	0,1	-0,064446
0,620833	0,1	-0,030248
0,622500	0,1	-0,062696
0,624167	0,1	-0,019641
0,625833	0,1	-0,034589
0,627500	0,1	-0,027147
0,629167	0,1	-0,078519
0,630833	0,1	-0,057257
0,632500	0,1	-0,070020
0,634167	0,1	-0,046556
0,635833	0,1	-0,044876
0,637500	0,1	-0,039333
0,639167	0,1	-0,028596
0,640833	0,1	-0,039878
0,642500	0,1	-0,020795
0,644167	0,1	0,026471
0,645833	0,1	-0,005662
0,647500	0,1	-0,032456
0,649167	0,1	-0,032884
0,650833	0,1	-0,030203
0,652500	0,1	-0,013505
0,654167	0,1	0,000652
0,655833	0,1	-0,004667
0,657500	0,1	-0,002765
0,659167	0,1	0,004742
0,660833	0,1	0,009357
0,662500	0,1	0,012040
0,664167	0,1	0,057420
0,665833	0,1	0,000539
0,667500	0,1	0,033953
0,669167	0,1	0,018747
0,670833	0,1	0,022155
0,672500	0,1	0,017613
0,674167	0,1	0,013482
0,675833	0,1	-0,000926
0,677500	0,1	0,014740
0,679167	0,1	0,053814
0,680833	0,1	0,039477
0,682500	0,1	0,020000
0,684167	0,1	-0,003469
0,685833	0,1	0,039689
0,687500	0,1	0,009142
0,689167	0,1	0,072604
0,690833	0,1	0,048892
0,692500	0,1	0,017685
0,694167	0,1	0,050103
0,695833	0,1	0,038701
0,697500	0,1	0,020449
0,699167	0,1	0,061841
0,700833	0,1	0,058012
0,702500	0,1	0,060086
0,704167	0,1	0,044899
0,705833	0,1	0,072390
0,707500	0,1	0,023335
0,709167	0,1	0,052274
0,710833	0,1	0,096961
0,712500	0,1	0,036041
0,714167	0,1	0,054696
0,715833	0,1	0,044413
0,717500	0,1	0,106735
0,719167	0,1	0,052743
0,720833	0,1	0,091260
0,722500	0,1	0,090362
0,724167	0,1	0,092260
0,725833	0,1	0,123871
0,727500	0,1	0,129380
0,729167	0,1	0,079831
0,730833	0,1	0,098731
0,732500	0,1	0,113936
0,734167	0,1	0,120270
0,735833	0,1	0,109978
0,737500	0,1	0,119386
0,739167	0,1	0,126326
0,740833	0,1	0,163984
0,742500	0,1	0,120110
0,744167	0,1	0,108372
0,745833	0,1	0,126928
0,747500	0,1	0,136803
0,749167	0,1	0,156931
0,750833	0,1	0,115371
0,752500	0,1	0,109295
0,754167	0,1	0,159570
0,755833	0,1	0,096051
0,757500	0,1	0,161279
0,759167	0,1	0,154423
0,760833	0,1	0,172414
0,762500	0,1	0,161784
0,764167	0,1	0,180669
0,765833	0,1	0,120471
0,767500	0,1	0,152794
0,769167	0,1	0,137323
0,770833	0,1	0,126553
0,772500	0,1	0,196704
0,774167	0,1	0,141560
0,775833	0,1	0,194317
0,777500	0,1	0,150207
0,779167	0,1	0,169819
0,780833	0,1	0,127587
0,782500	0,1	0,188758
0,784167	0,1	0,140334
0,785833	0,1	0,158037
0,787500	0,1	0,153159
0,789167	0,1	0,186538
0,790833	0,1	0,150691
0,792500	0,1	0,183339
0,794167	0,1	0,180989
0,795833	0,1	0,191258
0,797500	0,1	0,155813
0,799167	0,1	0,180116
0,800833	0,1	0,161615
0,802500	0,1	0,197862
0,804167	0,1	0,138598
0,805833	0,1	0,129634
0,807500	0,1	0,148440
0,809167	0,1	0,141614
0,810833	0,1	0,184915
0,812500	0,1	0,165656
0,814167	0,1	0,168283
0,815833	0,1	0,170957
0,817500	0,1	0,137302
0,819167	0,1	0,171477
0,820833	0,1	0,165351
0,822500	0,1	0,147936
0,824167	0,1	0,185208
0,825833	0,1	0,171645
0,827500	0,1	0,127588
0,829167	0,1	0,164089
0,830833	0,1	0,169192
0,832500	0,1	0,140683
0,834167	0,1	0,174097
0,835833	0,1	0,178422
0,837500	0,1	0,155782
0,839167	0,1	0,161568
0,840833	0,1	0,197349
0,842500	0,1	0,167607
0,844167	0,1	0,151951
0,845833	0,1	0,181852
0,847500	0,1	0,162746
0,849167	0,1	0,155622
0,850833	0,1	0,128914
0,852500	0,1	0,173725
0,854167	0,1	0,195981
0,855833	0,1	0,206372
0,857500	0,1	0,170336
0,859167	0,1	0,164744
0,860833	0,1	0,185278
0,862500	0,1	0,139147
0,864167	0,1	0,141559
0,865833	0,1	0,177505
0,867500	0,1	0,172486
0,869167	0,1	0,165324
0,870833	0,1	0,175471
0,872500	0,1	0,155362
0,874167	0,1	0,221148
0,875833	0,1	0,185264
0,877500	0,1	0,172737
0,879167	0,1	0,168732
0,880833	0,1	0,206141
0,882500	0,1	0,179666
0,884167	0,1	0,237618
0,885833	0,1	0,179622
0,887500	0,1	0,217714
0,889167	0,1	0,198875
0,890833	0,1	0,198450
0,892500	0,1	0,220091
0,894167	0,1	0,199679
0,895833	0,1	0,208993
0,897500	0,1	0,228925
0,899167	0,1	0,209291
0,900833	0,1	0,226080
0,902500	0,1	0,231179
0,904167	0,1	0,210819
0,905833	0,1	0,220004
0,907500	0,1	0,207419
0,909167	0,1	0,255506
0,910833	0,1	0,257320
0,912500	0,1	0,262326
0,914167	0,1	0,231561
0,915833	0,1	0,235695
0,917500	0,1	0,244480
0,919167	0,1	0,245550
0,920833	0,1	0,234360
0,922500	0,1	0,244480
0,924167	0,1	0,253870
0,925833	0,1	0,243905
0,927500	0,1	0,253870
0,929167	0,1	0,238365
0,930833	0,1	0,256110
0,932500	0,1	0,248399
0,934167	0,1	0,296672
0,935833	0,1	0,262244
0,937500	0,1	0,250318
0,939167	0,1	0,218631
0,940833	0,1	0,264607
0,942500	0,1	0,310335
0,944167	0,1	0,225767
0,945833	0,1	0,287346
0,947500	0,1	0,272456
0,949167	0,1	0,290270
0,950833	0,1	0,286938
0,952500	0,1	0,260240
0,954167	0,1	0,330515
0,955833	0,1	0,263700
0,957500	0,1	0,301903
0,959167	0,1	0,311856
0,960833	0,1	0,304453
0,962500	0,1	0,262559
0,964167	0,1	0,333096
0,965833	0,1	0,330020
0,967500	0,1	0,309127
0,969167	0,1	0,337157
0,970833	0,1	0,341078
0,972500	0,1	0,334960
0,974167	0,1	0,319852
0,975833	0,1	0,332910
0,977500	0,1	0,340811
0,979167	0,1	0,387450
0,980833	0,1	0,369193
0,982500	0,1	0,353013
0,984167	0,1	0,359037
0,985833	0,1	0,355769
0,987500	0,1	0,362331
0,989167	0,1	0,394129
0,990833	0,1	0,395207
0,992500	0,1	0,371619
0,994167	0,1	0,402521
0,995833	0,1	0,394851
0,997500	0,1	0,392579
0,999167	0,1	0,378917
1,000833	0,1	0,437997
1,002500	0,1	0,422455
1,004167	0,1	0,447931
1,005833	0,1	0,412353
1,007500	0,1	0,473898
1,009167	0,1	0,421307
1,010833	0,1	0,459728
1,012500	0,1	0,445363
1,014167	0,1	0,473847
1,015833	0,1	0,473181
1,017500	0,1	0,458296
1,019167	0,1	0,514689
1,020833	0,1	0,514104
1,022500	0,1	0,520917
1,024167	0,1	0,510523
1,025833	0,1	0,564695
1,027500	0,1	0,569111
1,029167	0,1	0,560038
1,030833	0,1	0,528114
1,032500	0,1	0,585971
1,034167	0,1	0,601292
1,035833	0,1	0,593038
1,037500	0,1	0,606765
1,039167	0,1	0,579228
1,040833	0,1	0,608544
1,042500	0,1	0,604100
1,044167	0,1	0,603879
1,045833	0,1	0,667051
1,047500	0,1	0,675748
1,049167	0,1	0,666186
1,050833	0,1	0,634153
1,052500	0,1	0,679022
1,054167	0,1	0,677132
1,055833	0,1	0,770514
1,057500	0,1	0,783853
1,059167	0,1	0,868967
1,060833	0,1	0,874708
1,062500	0,1	0,984971
1,064167	0,1	1,028495
1,065833	0,1	1,119934
1,067500	0,1	1,293580
1,069167	0,1	1,471343
1,070833	0,1	1,674785
1,072500	0,1	1,967758
1,074167	0,1	2,264841
1,075833	0,1	2,578020
1,077500	0,1	3,028753
1,079167	0,1	3,524673
1,080833	0,1	4,057537
1,082500	0,1	4,702333
1,084167	0,1	5,381131
1,085833	0,1	6,073668
1,087500	0,1	6,878124
1,089167	0,1	7,758024
1,090833	0,1	8,561957
1,092500	0,1	9,473545
1,094167	0,1	10,409469
1,095833	0,1	11,277711
1,097500	0,1	12,202064
1,099167	0,1	12,983962
1,100833	0,1	13,820755
1,102500	0,1	14,563160
1,104167	0,1	15,231106
1,105833	0,1	15,859122
1,107500	0,1	16,356934
1,109167	0,1	16,842672
1,110833	0,1	17,186546
1,112500	0,1	17,510070
1,114167	0,1	17,693342
1,115833	0,1	17,854001
1,117500	0,1	17,918244
1,119167	0,1	17,972738
1,120833	0,1	17,927153
1,122500	0,1	17,844771
1,124167	0,1	17,804268
1,125833	0,1	17,716801
1,127500	0,1	17,630764
1,129167	0,1	17,498146
1,130833	0,1	17,471266
1,132500	0,1	17,356240
1,134167	0,1	17,285785
1,135833	0,1	17,282391
1,137500	0,1	17,329330
1,139167	0,1	17,406967
1,140833	0,1	17,526075
1,142500	0,1	17,696879
1,144167	0,1	17,927202
1,145833	0,1	18,207234
1,147500	0,1	18,495715
1,149167	0,1	18,924474
1,150833	0,1	19,403282
1,152500	0,1	19,922722
1,154167	0,1	20,468696
1,155833	0,1	21,058669
1,157500	0,1	21,733465
1,159167	0,1	22,418429
1,160833	0,1	23,081027
1,162500	0,1	23,808797
1,164167	0,1	24,518515
1,165833	0,1	25,251978
1,167500	0,1	26,002846
1,169167	0,1	26,658410
1,170833	0,1	27,383541
1,172500	0,1	28,046260
1,174167	0,1	28,658865
1,175833	0,1	29,288458
1,177500	0,1	29,867542
1,179167	0,1	30,370233
1,180833	0,1	30,912480
1,182500	0,1	31,316308
1,184167	0,1	31,790914
1,185833	0,1	32,233300
1,187500	0,1	32,582488
1,189167	0,1	33,021878
1,190833	0,1	33,368992
1,192500	0,1	33,818312
1,194167	0,1	34,253938
1,195833	0,1	34,831929
1,197500	0,1	35,428803
1,199167	0,1	36,153552
1,200833	0,1	36,965902
1,202500	0,1	38,020102
1,204167	0,1	39,153221
1,205833	0,1	40,495159
1,207500	0,1	42,031967
1,209167	0,1	43,877927
1,210833	0,1	45,859010
1,212500	0,1	48,083512
1,214167	0,1	50,615239
1,215833	0,1	53,350911
1,217500	0,1	56,310458
1,219167	0,1	59,476682
1,220833	0,1	62,863365
1,222500	0,1	66,392783
1,224167	0,1	70,019092
1,225833	0,1	73,802631
1,227500	0,1	77,635558
1,229167	0,1	81,465978
1,230833	0,1	85,306067
1,232500	0,1	89,080082
1,234167	0,1	92,752696
1,235833	0,1	96,364819
1,237500	0,1	99,824899
1,239167	0,1	103,055507
1,240833	0,1	106,109408
1,242500	0,1	108,973643
1,244167	0,1	111,590876
1,245833	0,1	113,965935
1,247500	0,1	116,060698
1,249167	0,1	117,808918
1,250833	0,1	119,422075
1,252500	0,1	120,652687
1,254167	0,1	121,660372
1,255833	0,1	122,359197
1,257500	0,1	122,828824
1,259167	0,1	123,104764
1,260833	0,1	122,942322
1,262500	0,1	122,624654
1,264167	0,1	122,040968
1,265833	0,1	121,280816
1,267500	0,1	120,214123
1,269167	0,1	118,990386
1,270833	0,1	117,489025
1,272500	0,1	115,930849
1,274167	0,1	114,177322
1,275833	0,1	112,254685
1,277500	0,1	110,209873
1,279167	0,1	108,072615
1,280833	0,1	105,844284
1,282500	0,1	103,421669
1,284167	0,1	101,052385
1,285833	0,1	98,576120
1,287500	0,1	96,071237
1,289167	0,1	93,590250
1,290833	0,1	91,069296
1,292500	0,1	88,614071
1,294167	0,1	86,031265
1,295833	0,1	83,648868
1,297500	0,1	81,239444
1,299167	0,1	78,905193
1,300833	0,1	76,571179
1,302500	0,1	74,340549
1,304167	0,1	72,217691
1,305833	0,1	70,044558
1,307500	0,1	68,001993
1,309167	0,1	66,077453
1,310833	0,1	64,142142
1,312500	0,1	62,327915
1,314167	0,1	60,627128
1,315833	0,1	58,980870
1,317500	0,1	57,340038
1,319167	0,1	55,810060
1,320833	0,1	54,332288
1,322500	0,1	52,957483
1,324167	0,1	51,640143
1,325833	0,1	50,351411
1,327500	0,1	49,088883
1,329167	0,1	47,866390
1,330833	0,1	46,794536
1,332500	0,1	45,705806
1,334167	0,1	44,678944
1,335833	0,1	43,629628
1,337500	0,1	42,685634
1,339167	0,1	41,776616
1,340833	0,1	40,868560
1,342500	0,1	40,013342
1,344167	0,1	39,138763
1,345833	0,1	38,346920
1,347500	0,1	37,572443
1,349167	0,1	36,783771
1,350833	0,1	36,058837
1,352500	0,1	35,329765
1,354167	0,1	34,672001
1,355833	0,1	33,962235
1,357500	0,1	33,262353
1,359167	0,1	32,600446
1,360833	0,1	31,974317
1,362500	0,1	31,328827
1,364167	0,1	30,725857
1,365833	0,1	30,176053
1,367500	0,1	29,524594
1,369167	0,1	28,968129
1,370833	0,1	28,417463
1,372500	0,1	27,860356
1,374167	0,1	27,375399
1,375833	0,1	26,845133
1,377500	0,1	26,287259
1,379167	0,1	25,833286
1,380833	0,1	25,333507
1,382500	0,1	24,859001
1,384167	0,1	24,386112
1,385833	0,1	23,998836
1,387500	0,1	23,538569
1,389167	0,1	23,118014
1,390833	0,1	22,745018
1,392500	0,1	22,325861
1,394167	0,1	21,979321
1,395833	0,1	21,588142
1,397500	0,1	21,265982
1,399167	0,1	20,968022
1,400833	0,1	20,664452
1,402500	0,1	20,327486
1,404167	0,1	20,065131
1,405833	0,1	19,764182
1,407500	0,1	19,495798
1,409167	0,1	19,236435
1,410833	0,1	19,030175
1,412500	0,1	18,791996
1,414167	0,1	18,581008
1,415833	0,1	18,415978
1,417500	0,1	18,179364
1,419167	0,1	17,984202
1,420833	0,1	17,781873
1,422500	0,1	17,624972
1,424167	0,1	17,490090
1,425833	0,1	17,346539
1,427500	0,1	17,167048
1,429167	0,1	17,039994
1,430833	0,1	16,854910
1,432500	0,1	16,734529
1,434167	0,1	16,629596
1,435833	0,1	16,476691
1,437500	0,1	16,358324
1,439167	0,1	16,222134
1,440833	0,1	16,142072
1,442500	0,1	16,017569
1,444167	0,1	15,911491
1,445833	0,1	15,799906
1,447500	0,1	15,660575
1,449167	0,1	15,562578
1,450833	0,1	15,474070
1,452500	0,1	15,353273
1,454167	0,1	15,244249
1,455833	0,1	15,155417
1,457500	0,1	15,044319
1,459167	0,1	14,945918
1,460833	0,1	14,848614
1,462500	0,1	14,749202
1,464167	0,1	14,662876
1,465833	0,1	14,556838
1,467500	0,1	14,503369
1,469167	0,1	14,390426
1,470833	0,1	14,304713
1,472500	0,1	14,189537
1,474167	0,1	14,146223
1,475833	0,1	14,039245
1,477500	0,1	13,916708
1,479167	0,1	13,841544
1,480833	0,1	13,773906
1,482500	0,1	13,693539
1,484167	0,1	13,658018
1,485833	0,1	13,517345
1,487500	0,1	13,495236
1,489167	0,1	13,428601
1,490833	0,1	13,366244
1,492500	0,1	13,345204
1,494167	0,1	13,241352
1,495833	0,1	13,146721
1,497500	0,1	13,116504
1,499167	0,1	13,057588
1,500833	0,1	12,977286
1,502500	0,1	12,893027
1,504167	0,1	12,865335
1,505833	0,1	12,835470
1,507500	0,1	12,753618
1,509167	0,1	12,672139
1,510833	0,1	12,661229
1,512500	0,1	12,600500
1,514167	0,1	12,519509
1,515833	0,1	12,423476
1,517500	0,1	12,422820
1,519167	0,1	12,367815
1,520833	0,1	12,285010
1,522500	0,1	12,193777
1,524167	0,1	12,195654
1,525833	0,1	12,100694
1,527500	0,1	12,000208
1,529167	0,1	11,967045
1,530833	0,1	11,875536
1,532500	0,1	11,798505
1,534167	0,1	11,751063
1,535833	0,1	11,617697
1,537500	0,1	11,586734
1,539167	0,1	11,513583
1,540833	0,1	11,429727
1,542500	0,1	11,354604
1,544167	0,1	11,248932
1,545833	0,1	11,206969
1,547500	0,1	11,135630
1,549167	0,1	11,033300
1,550833	0,1	10,945294
1,552500	0,1	10,858341
1,554167	0,1	10,796483
1,555833	0,1	10,705378
1,557500	0,1	10,637455
1,559167	0,1	10,514336
1,560833	0,1	10,473082
1,562500	0,1	10,390074
1,564167	0,1	10,262087
1,565833	0,1	10,170694
1,567500	0,1	10,134906
1,569167	0,1	10,031138
1,570833	0,1	9,946834
1,572500	0,1	9,799621
1,574167	0,1	9,757659
1,575833	0,1	9,652718
1,577500	0,1	9,589245
1,579167	0,1	9,495803
1,580833	0,1	9,399653
1,582500	0,1	9,302885
1,584167	0,1	9,232219
1,585833	0,1	9,141560
1,587500	0,1	9,068627
1,589167	0,1	8,957619
1,590833	0,1	8,895926
1,592500	0,1	8,804107
1,594167	0,1	8,729642
1,595833	0,1	8,677144
1,597500	0,1	8,598105
1,599167	0,1	8,495231
1,600833	0,1	8,404897
1,602500	0,1	8,345587
1,604167	0,1	8,291478
1,605833	0,1	8,233098
1,607500	0,1	8,135362
1,609167	0,1	8,090865
1,610833	0,1	8,068522
1,612500	0,1	8,004659
1,614167	0,1	7,950115
1,615833	0,1	7,970381
1,617500	0,1	7,961192
1,619167	0,1	7,954523
1,620833	0,1	7,937803
1,622500	0,1	7,946867
1,624167	0,1	7,995082
1,625833	0,1	8,018712
1,627500	0,1	8,086871
1,629167	0,1	8,168527
1,630833	0,1	8,281607
1,632500	0,1	8,398479
1,634167	0,1	8,589972
1,635833	0,1	8,793821
1,637500	0,1	9,050640
1,639167	0,1	9,314152
1,640833	0,1	9,675358
1,642500	0,1	10,067645
1,644167	0,1	10,492677
1,645833	0,1	11,040563
1,647500	0,1	11,588967
1,649167	0,1	12,269900
1,650833	0,1	13,033838
1,652500	0,1	13,854047
1,654167	0,1	14,775507
1,655833	0,1	15,858344
1,657500	0,1	16,996727
1,659167	0,1	18,287105
1,660833	0,1	19,718140
1,662500	0,1	21,293943
1,664167	0,1	23,046334
1,665833	0,1	24,889936
1,667500	0,1	26,962063
1,669167	0,1	29,190322
1,670833	0,1	31,617797
1,672500	0,1	34,275101
1,674167	0,1	37,121543
1,675833	0,1	40,154586
1,677500	0,1	43,513328
1,679167	0,1	46,984897
1,680833	0,1	50,736865
1,682500	0,1	54,827092
1,684167	0,1	59,049626
1,685833	0,1	63,548033
1,687500	0,1	68,368058
1,689167	0,1	73,385455
1,690833	0,1	78,671325
1,692500	0,1	84,229827
1,694167	0,1	90,022821
1,695833	0,1	96,166779
1,697500	0,1	102,460903
1,699167	0,1	109,071616
1,700833	0,1	115,932653
1,702500	0,1	122,978359
1,704167	0,1	130,286661
1,705833	0,1	137,797561
1,707500	0,1	145,505185
1,709167	0,1	153,436449
1,710833	0,1	161,478358
1,712500	0,1	169,789731
1,714167	0,1	178,126688
1,715833	0,1	186,655427
1,717500	0,1	195,315220
1,719167	0,1	204,062841
1,720833	0,1	212,880534
1,722500	0,1	221,748054
1,724167	0,1	230,672886
1,725833	0,1	239,623064
1,727500	0,1	248,464646
1,729167	0,1	257,355977
1,730833	0,1	266,196332
1,732500	0,1	274,863971
1,734167	0,1	283,541698
1,735833	0,1	292,113712
1,737500	0,1	300,551071
1,739167	0,1	308,799878
1,740833	0,1	316,924061
1,742500	0,1	324,692753
1,744167	0,1	332,393872
1,745833	0,1	339,827971
1,747500	0,1	347,013048
1,749167	0,1	353,968639
1,750833	0,1	360,575620
1,752500	0,1	366,913347
1,754167	0,1	372,990648
1,755833	0,1	378,708295
1,757500	0,1	384,145867
1,759167	0,1	389,242349
1,760833	0,1	394,004427
1,762500	0,1	398,336410
1,764167	0,1	402,422230
1,765833	0,1	406,200521
1,767500	0,1	409,444916
1,769167	0,1	412,416725
1,770833	0,1	414,929537
1,772500	0,1	417,221521
1,774167	0,1	419,087876
1,775833	0,1	420,556880
1,777500	0,1	421,666448
1,779167	0,1	422,457733
1,780833	0,1	422,852049
1,782500	0,1	422,967734
1,784167	0,1	422,741774
1,785833	0,1	422,023681
1,787500	0,1	421,149527
1,789167	0,1	419,915719
1,790833	0,1	418,320473
1,792500	0,1	416,474828
1,794167	0,1	414,185664
1,795833	0,1	411,706046
1,797500	0,1	408,992198
1,799167	0,1	405,970053
1,800833	0,1	402,686223
1,802500	0,1	399,200474
1,804167	0,1	395,419551
1,805833	0,1	391,430646
1,807500	0,1	387,306435
1,809167	0,1	382,889670
1,810833	0,1	378,311688
1,812500	0,1	373,580292
1,814167	0,1	368,678498
1,815833	0,1	363,603182
1,817500	0,1	358,462748
1,819167	0,1	353,109181
1,820833	0,1	347,718094
1,822500	0,1	342,113902
1,824167	0,1	336,521179
1,825833	0,1	330,816208
1,827500	0,1	325,036467
1,829167	0,1	319,225492
1,830833	0,1	313,281817
1,832500	0,1	307,353512
1,834167	0,1	301,400860
1,835833	0,1	295,473595
1,837500	0,1	289,478841
1,839167	0,1	283,543093
1,840833	0,1	277,554540
1,842500	0,1	271,669338
1,844167	0,1	265,749721
1,845833	0,1	259,908486
1,847500	0,1	254,078313
1,849167	0,1	248,336657
1,850833	0,1	242,597159
1,852500	0,1	236,923890
1,854167	0,1	231,312009
1,855833	0,1	225,803901
1,857500	0,1	220,319400
1,859167	0,1	214,932267
1,860833	0,1	209,621692
1,862500	0,1	204,404432
1,864167	0,1	199,317724
1,865833	0,1	194,193078
1,867500	0,1	189,206058
1,869167	0,1	184,382953
1,870833	0,1	179,589729
1,872500	0,1	174,896982
1,874167	0,1	170,221107
1,875833	0,1	165,818311
1,877500	0,1	161,356051
1,879167	0,1	157,017553
1,880833	0,1	152,772247
1,882500	0,1	148,703030
1,884167	0,1	144,608726
1,885833	0,1	140,704185
1,887500	0,1	136,904497
1,889167	0,1	133,130361
1,890833	0,1	129,504684
1,892500	0,1	125,918409
1,894167	0,1	122,412242
1,895833	0,1	119,016549
1,897500	0,1	115,707574
1,899167	0,1	112,515520
1,900833	0,1	109,436580
1,902500	0,1	106,356339
1,904167	0,1	103,357167
1,905833	0,1	100,491215
1,907500	0,1	97,708627
1,909167	0,1	94,977006
1,910833	0,1	92,351300
1,912500	0,1	89,795646
1,914167	0,1	87,286560
1,915833	0,1	84,890492
1,917500	0,1	82,550289
1,919167	0,1	80,204677
1,920833	0,1	78,038350
1,922500	0,1	75,903435
1,924167	0,1	73,795818
1,925833	0,1	71,745796
1,927500	0,1	69,761028
1,929167	0,1	67,867518
1,930833	0,1	66,046645
1,932500	0,1	64,181932
1,934167	0,1	62,451012
1,935833	0,1	60,725927
1,937500	0,1	59,139706
1,939167	0,1	57,551697
1,940833	0,1	55,969175
1,942500	0,1	54,454310
1,944167	0,1	53,061662
1,945833	0,1	51,631770
1,947500	0,1	50,241983
1,949167	0,1	48,963695
1,950833	0,1	47,644126
1,952500	0,1	46,444821
1,954167	0,1	45,204333
1,955833	0,1	44,048207
1,957500	0,1	42,996073
1,959167	0,1	41,865618
1,960833	0,1	40,813897
1,962500	0,1	39,770962
1,964167	0,1	38,775367
1,965833	0,1	37,834377
1,967500	0,1	36,940548
1,969167	0,1	36,025712
1,970833	0,1	35,169844
1,972500	0,1	34,357865
1,974167	0,1	33,520564
1,975833	0,1	32,782969
1,977500	0,1	32,034454
1,979167	0,1	31,312048
1,980833	0,1	30,606030
1,982500	0,1	29,915920
1,984167	0,1	29,316929
1,985833	0,1	28,606194
1,987500	0,1	28,053676
1,989167	0,1	27,459364
1,990833	0,1	26,883547
1,992500	0,1	26,372468
1,994167	0,1	25,801531
1,995833	0,1	25,280163
1,997500	0,1	24,830941
1,999167	0,1	24,352715
2,000833	0,1	23,890679
2,002500	0,1	23,487142
2,004167	0,1	23,046605
2,005833	0,1	22,675037
2,007500	0,1	22,260959
2,009167	0,1	21,868261
2,010833	0,1	21,530758
2,012500	0,1	21,144300
2,014167	0,1	20,840619
2,015833	0,1	20,488301
2,017500	0,1	20,172281
2,019167	0,1	19,881733
2,020833	0,1	19,573486
2,022500	0,1	19,359204
2,024167	0,1	19,087768
2,025833	0,1	18,810751
2,027500	0,1	18,563592
2,029167	0,1	18,311657
2,030833	0,1	18,110851
2,032500	0,1	17,916197
2,034167	0,1	17,649086
2,035833	0,1	17,481608
2,037500	0,1	17,295208
2,039167	0,1	17,068801
2,040833	0,1	16,876514
2,042500	0,1	16,698794
2,044167	0,1	16,563507
2,045833	0,1	16,333409
2,047500	0,1	16,239137
2,049167	0,1	16,087335
2,050833	0,1	15,932609
2,052500	0,1	15,769976
2,054167	0,1	15,629007
2,055833	0,1	15,520859
2,057500	0,1	15,342332
2,059167	0,1	15,291656
2,060833	0,1	15,152359
2,062500	0,1	15,021889
2,064167	0,1	14,855304
2,065833	0,1	14,793091
2,067500	0,1	14,692081
2,069167	0,1	14,572306
2,070833	0,1	14,492028
2,072500	0,1	14,387497
2,074167	0,1	14,291784
2,075833	0,1	14,146494
2,077500	0,1	14,119334
2,079167	0,1	13,998491
2,080833	0,1	13,895805
2,082500	0,1	13,799378
2,084167	0,1	13,757570
2,085833	0,1	13,691331
2,087500	0,1	13,564199
2,089167	0,1	13,527459
2,090833	0,1	13,434881
2,092500	0,1	13,326769
2,094167	0,1	13,269015
2,095833	0,1	13,149926
2,097500	0,1	13,096489
2,099167	0,1	12,997958
2,100833	0,1	12,951929
2,102500	0,1	12,867661
2,104167	0,1	12,805933
2,105833	0,1	12,729514
2,107500	0,1	12,636281
2,109167	0,1	12,577807
2,110833	0,1	12,482506
2,112500	0,1	12,395418
2,114167	0,1	12,349805
2,115833	0,1	12,254285
2,117500	0,1	12,174450
2,119167	0,1	12,151705
2,120833	0,1	12,058289
2,122500	0,1	12,003371
2,124167	0,1	11,879027
2,125833	0,1	11,848620
2,127500	0,1	11,792866
2,129167	0,1	11,682448
2,130833	0,1	11,635165
2,132500	0,1	11,544828
2,134167	0,1	11,538650
2,135833	0,1	11,418673
2,137500	0,1	11,379248
2,139167	0,1	11,292077
2,140833	0,1	11,223939
2,142500	0,1	11,167973
2,144167	0,1	11,077646
2,145833	0,1	11,014091
2,147500	0,1	10,955772
2,149167	0,1	10,908747
2,150833	0,1	10,801600
2,152500	0,1	10,785668
2,154167	0,1	10,674317
2,155833	0,1	10,606490
2,157500	0,1	10,559457
2,159167	0,1	10,463221
2,160833	0,1	10,410715
2,162500	0,1	10,355000
2,164167	0,1	10,301458
2,165833	0,1	10,227123
2,167500	0,1	10,190691
2,169167	0,1	10,101039
2,170833	0,1	10,012219
2,172500	0,1	10,002573
2,174167	0,1	9,887682
2,175833	0,1	9,881995
2,177500	0,1	9,783669
2,179167	0,1	9,795031
2,180833	0,1	9,703430
2,182500	0,1	9,666882
2,184167	0,1	9,577228
2,185833	0,1	9,515138
2,187500	0,1	9,419457
2,189167	0,1	9,389814
2,190833	0,1	9,370825
2,192500	0,1	9,329856
2,194167	0,1	9,225363
2,195833	0,1	9,230305
2,197500	0,1	9,125778
2,199167	0,1	9,075865
2,200833	0,1	9,032683
2,202500	0,1	8,984174
2,204167	0,1	8,946079
2,205833	0,1	8,842729
2,207500	0,1	8,857047
2,209167	0,1	8,789349
2,210833	0,1	8,748784
2,212500	0,1	8,654752
2,214167	0,1	8,643616
2,215833	0,1	8,572104
2,217500	0,1	8,562395
2,219167	0,1	8,515159
2,220833	0,1	8,446007
2,222500	0,1	8,412116
2,224167	0,1	8,393926
2,225833	0,1	8,332450
2,227500	0,1	8,299770
2,229167	0,1	8,287843
2,230833	0,1	8,235682
2,232500	0,1	8,185108
2,234167	0,1	8,150277
2,235833	0,1	8,089786
2,237500	0,1	8,104188
2,239167	0,1	7,992240
2,240833	0,1	8,008355
2,242500	0,1	7,939635
2,244167	0,1	7,878679
2,245833	0,1	7,855793
2,247500	0,1	7,830942
2,249167	0,1	7,804168
2,250833	0,1	7,750970
2,252500	0,1	7,745207
2,254167	0,1	7,698332
2,255833	0,1	7,653020
2,257500	0,1	7,651697
2,259167	0,1	7,616761
2,260833	0,1	7,562577
2,262500	0,1	7,561413
2,264167	0,1	7,476745
2,265833	0,1	7,456967
2,267500	0,1	7,439022
2,269167	0,1	7,395372
2,270833	0,1	7,335309
2,272500	0,1	7,375624
2,274167	0,1	7,308996
2,275833	0,1	7,262246
2,277500	0,1	7,264731
2,279167	0,1	7,171674
2,280833	0,1	7,204219
2,282500	0,1	7,175371
2,284167	0,1	7,097580
2,285833	0,1	7,101601
2,287500	0,1	7,057394
2,289167	0,1	7,023416
2,290833	0,1	7,011979
2,292500	0,1	6,989076
2,294167	0,1	6,974713
2,295833	0,1	6,946450
2,297500	0,1	6,880107
2,299167	0,1	6,893078
2,300833	0,1	6,871082
2,302500	0,1	6,849015
2,304167	0,1	6,816167
2,305833	0,1	6,823452
2,307500	0,1	6,811959
2,309167	0,1	6,771530
2,310833	0,1	6,751037
2,312500	0,1	6,716613
2,314167	0,1	6,741384
2,315833	0,1	6,719223
2,317500	0,1	6,690236
2,319167	0,1	6,683294
2,320833	0,1	6,693399
2,322500	0,1	6,701623
2,324167	0,1	6,648499
2,325833	0,1	6,685149
2,327500	0,1	6,652427
2,329167	0,1	6,648671
2,330833	0,1	6,645407
2,332500	0,1	6,635871
2,334167	0,1	6,658392
2,335833	0,1	6,634460
2,337500	0,1	6,654565
2,339167	0,1	6,635679
2,340833	0,1	6,661767
2,342500	0,1	6,660284
2,344167	0,1	6,679175
2,345833	0,1	6,663657
2,347500	0,1	6,733883
2,349167	0,1	6,739996
2,350833	0,1	6,706979
2,352500	0,1	6,760945
2,354167	0,1	6,799294
2,355833	0,1	6,796980
2,357500	0,1	6,817656
2,359167	0,1	6,796703
2,360833	0,1	6,862282
2,362500	0,1	6,887477
2,364167	0,1	6,969070
2,365833	0,1	6,979323
2,367500	0,1	7,040253
2,369167	0,1	7,079683
2,370833	0,1	7,110640
2,372500	0,1	7,169003
2,374167	0,1	7,244792
2,375833	0,1	7,244070
2,377500	0,1	7,321240
2,379167	0,1	7,404180
2,380833	0,1	7,526346
2,382500	0,1	7,571003
2,384167	0,1	7,682460
2,385833	0,1	7,786240
2,387500	0,1	7,839736
2,389167	0,1	7,991951
2,390833	0,1	8,090980
2,392500	0,1	8,195159
2,394167	0,1	8,367061
2,395833	0,1	8,499051
2,397500	0,1	8,586916
2,399167	0,1	8,827129
2,400833	0,1	8,958098
2,402500	0,1	9,158275
2,404167	0,1	9,324457
2,405833	0,1	9,503227
2,407500	0,1	9,721764
2,409167	0,1	9,949014
2,410833	0,1	10,220215
2,412500	0,1	10,439977
2,414167	0,1	10,706481
2,415833	0,1	10,952895
2,417500	0,1	11,254293
2,419167	0,1	11,556967
2,420833	0,1	11,833186
2,422500	0,1	12,162264
2,424167	0,1	12,500470
2,425833	0,1	12,855304
2,427500	0,1	13,236081
2,429167	0,1	13,555301
2,430833	0,1	13,919932
2,432500	0,1	14,288073
2,434167	0,1	14,727991
2,435833	0,1	15,136065
2,437500	0,1	15,528223
2,439167	0,1	15,965787
2,440833	0,1	16,395694
2,442500	0,1	16,853214
2,444167	0,1	17,281329
2,445833	0,1	17,758253
2,447500	0,1	18,249656
2,449167	0,1	18,782123
2,450833	0,1	19,331944
2,452500	0,1	19,911904
2,454167	0,1	20,425787
2,455833	0,1	21,004455
2,457500	0,1	21,652143
2,459167	0,1	22,329023
2,460833	0,1	23,020241
2,462500	0,1	23,830135
2,464167	0,1	24,603597
2,465833	0,1	25,551970
2,467500	0,1	26,464460
2,469167	0,1	27,535120
2,470833	0,1	28,671779
2,472500	0,1	29,857725
2,474167	0,1	31,263896
2,475833	0,1	32,740211
2,477500	0,1	34,398628
2,479167	0,1	36,170587
2,480833	0,1	38,167264
2,482500	0,1	40,376116
2,484167	0,1	42,711642
2,485833	0,1	45,351183
2,487500	0,1	48,237293
2,489167	0,1	51,383149
2,490833	0,1	54,918529
2,492500	0,1	58,670608
2,494167	0,1	62,805242
2,495833	0,1	67,309774
2,497500	0,1	72,135332
2,499167	0,1	77,493562
2,500833	0,1	83,141019
2,502500	0,1	89,296704
2,504167	0,1	95,946610
2,505833	0,1	103,106542
2,507500	0,1	110,646755
2,509167	0,1	118,862417
2,510833	0,1	127,497115
2,512500	0,1	136,735745
2,514167	0,1	146,491872
2,515833	0,1	156,859567
2,517500	0,1	167,723626
2,519167	0,1	179,154145
2,520833	0,1	191,150121
2,522500	0,1	203,740509
2,524167	0,1	216,838551
2,525833	0,1	230,447050
2,527500	0,1	244,615045
2,529167	0,1	259,277236
2,530833	0,1	274,317039
2,532500	0,1	289,856079
2,534167	0,1	305,754009
2,535833	0,1	322,054736
2,537500	0,1	338,752955
2,539167	0,1	355,664280
2,540833	0,1	372,789098
2,542500	0,1	390,194791
2,544167	0,1	407,678638
2,545833	0,1	425,373100
2,547500	0,1	443,080524
2,549167	0,1	460,744942
2,550833	0,1	478,491468
2,552500	0,1	495,979669
2,554167	0,1	513,461640
2,555833	0,1	530,757558
2,557500	0,1	547,832255
2,559167	0,1	564,519281
2,560833	0,1	580,963102
2,562500	0,1	597,218126
2,564167	0,1	612,953699
2,565833	0,1	628,187100
2,567500	0,1	643,047165
2,569167	0,1	657,478411
2,570833	0,1	671,300056
2,572500	0,1	684,670524
2,574167	0,1	697,496653
2,575833	0,1	709,802045
2,577500	0,1	721,406033
2,579167	0,1	732,556776
2,580833	0,1	743,089544
2,582500	0,1	753,022469
2,584167	0,1	762,441411
2,585833	0,1	771,112586
2,587500	0,1	779,316244
2,589167	0,1	786,815778
2,590833	0,1	793,949752
2,592500	0,1	800,371030
2,594167	0,1	806,326186
2,595833	0,1	811,770258
2,597500	0,1	816,588993
2,599167	0,1	820,766173
2,600833	0,1	824,544263
2,602500	0,1	827,903640
2,604167	0,1	830,678727
2,605833	0,1	832,734519
2,607500	0,1	834,929033
2,609167	0,1	836,027453
2,610833	0,1	837,149914
2,612500	0,1	837,676486
2,614167	0,1	837,675945
2,615833	0,1	837,327993
2,617500	0,1	836,799640
2,619167	0,1	835,621834
2,620833	0,1	834,174331
2,622500	0,1	832,279367
2,624167	0,1	830,161871
2,625833	0,1	827,392668
2,627500	0,1	824,454386
2,629167	0,1	821,317381
2,630833	0,1	817,807354
2,632500	0,1	813,902427
2,634167	0,1	809,795031
2,635833	0,1	805,332698
2,637500	0,1	800,606539
2,639167	0,1	795,584815
2,640833	0,1	790,207901
2,642500	0,1	784,615957
2,644167	0,1	778,756267
2,645833	0,1	772,744744
2,647500	0,1	766,411447
2,649167	0,1	759,854551
2,650833	0,1	752,998840
2,652500	0,1	746,203998
2,654167	0,1	738,953576
2,655833	0,1	731,506705
2,657500	0,1	723,941667
2,659167	0,1	716,212870
2,660833	0,1	708,209372
2,662500	0,1	700,128373
2,664167	0,1	691,895133
2,665833	0,1	683,585833
2,667500	0,1	675,003246
2,669167	0,1	666,449382
2,670833	0,1	657,662307
2,672500	0,1	648,840584
2,674167	0,1	639,803176
2,675833	0,1	630,983138
2,677500	0,1	621,932630
2,679167	0,1	612,709756
2,680833	0,1	603,574076
2,682500	0,1	594,369061
2,684167	0,1	585,046029
2,685833	0,1	575,911406
2,687500	0,1	566,576895
2,689167	0,1	557,305029
2,690833	0,1	548,107855
2,692500	0,1	538,735073
2,694167	0,1	529,599101
2,695833	0,1	520,331742
2,697500	0,1	511,200363
2,699167	0,1	502,168370
2,700833	0,1	493,143159
2,702500	0,1	484,195450
2,704167	0,1	475,357241
2,705833	0,1	466,577765
2,707500	0,1	457,823193
2,709167	0,1	449,073066
2,710833	0,1	440,537126
2,712500	0,1	432,109982
2,714167	0,1	423,821739
2,715833	0,1	415,580112
2,717500	0,1	407,467173
2,719167	0,1	399,479237
2,720833	0,1	391,582042
2,722500	0,1	383,817751
2,724167	0,1	376,193760
2,725833	0,1	368,663573
2,727500	0,1	361,361237
2,729167	0,1	354,136508
2,730833	0,1	346,952362
2,732500	0,1	340,019039
2,734167	0,1	333,153145
2,735833	0,1	326,423486
2,737500	0,1	319,904802
2,739167	0,1	313,416733
2,740833	0,1	307,044493
2,742500	0,1	300,823705
2,744167	0,1	294,816209
2,745833	0,1	288,835442
2,747500	0,1	283,114366
2,749167	0,1	277,370740
2,750833	0,1	271,906755
2,752500	0,1	266,456545
2,754167	0,1	261,097297
2,755833	0,1	255,891998
2,757500	0,1	250,775141
2,759167	0,1	245,873982
2,760833	0,1	241,026940
2,762500	0,1	236,246959
2,764167	0,1	231,576557
2,765833	0,1	227,053764
2,767500	0,1	222,631469
2,769167	0,1	218,219783
2,770833	0,1	214,000764
2,772500	0,1	209,827774
2,774167	0,1	205,734680
2,775833	0,1	201,795677
2,777500	0,1	197,939801
2,779167	0,1	194,082859
2,780833	0,1	190,355516
2,782500	0,1	186,705107
2,784167	0,1	183,120493
2,785833	0,1	179,643825
2,787500	0,1	176,250822
2,789167	0,1	172,882052
2,790833	0,1	169,595501
2,792500	0,1	166,357044
2,794167	0,1	163,258975
2,795833	0,1	160,095273
2,797500	0,1	157,125541
2,799167	0,1	154,173326
2,800833	0,1	151,275826
2,802500	0,1	148,423296
2,804167	0,1	145,626096
2,805833	0,1	142,873895
2,807500	0,1	140,236300
2,809167	0,1	137,647183
2,810833	0,1	135,028465
2,812500	0,1	132,551448
2,814167	0,1	130,049025
2,815833	0,1	127,640447
2,817500	0,1	125,261522
2,819167	0,1	122,912733
2,820833	0,1	120,678814
2,822500	0,1	118,470425
2,824167	0,1	116,279878
2,825833	0,1	114,146338
2,827500	0,1	112,083091
2,829167	0,1	109,989377
2,830833	0,1	107,996393
2,832500	0,1	106,006808
2,834167	0,1	104,081097
2,835833	0,1	102,187364
2,837500	0,1	100,376172
2,839167	0,1	98,565189
2,840833	0,1	96,827853
2,842500	0,1	95,036857
2,844167	0,1	93,395707
2,845833	0,1	91,746690
2,847500	0,1	90,152327
2,849167	0,1	88,498414
2,850833	0,1	87,006701
2,852500	0,1	85,467316
2,854167	0,1	84,033758
2,855833	0,1	82,587528
2,857500	0,1	81,223487
2,859167	0,1	79,806099
2,860833	0,1	78,495058
2,862500	0,1	77,186848
2,864167	0,1	75,920723
2,865833	0,1	74,725482
2,867500	0,1	73,393667
2,869167	0,1	72,292356
2,870833	0,1	71,108510
2,872500	0,1	69,986896
2,874167	0,1	68,881481
2,875833	0,1	67,869930
2,877500	0,1	66,832154
2,879167	0,1	65,739515
2,880833	0,1	64,814811
2,882500	0,1	63,798600
2,884167	0,1	62,878436
2,885833	0,1	61,937042
2,887500	0,1	61,051111
2,889167	0,1	60,169089
2,890833	0,1	59,329656
2,892500	0,1	58,472703
2,894167	0,1	57,711322
2,895833	0,1	56,857741
2,897500	0,1	56,135853
2,899167	0,1	55,380362
2,900833	0,1	54,664672
2,902500	0,1	53,947135
2,904167	0,1	53,229445
2,905833	0,1	52,542042
2,907500	0,1	51,871106
2,909167	0,1	51,235794
2,910833	0,1	50,601788
2,912500	0,1	49,958435
2,914167	0,1	49,370794
2,915833	0,1	48,729418
2,917500	0,1	48,166590
2,919167	0,1	47,603644
2,920833	0,1	47,020086
2,922500	0,1	46,495729
2,924167	0,1	46,021198
2,925833	0,1	45,509502
2,927500	0,1	44,956688
2,929167	0,1	44,425311
2,930833	0,1	43,977436
2,932500	0,1	43,521549
2,934167	0,1	43,032471
2,935833	0,1	42,570211
2,937500	0,1	42,101667
2,939167	0,1	41,632074
2,940833	0,1	41,232066
2,942500	0,1	40,831845
2,944167	0,1	40,364571
2,945833	0,1	39,941056
2,947500	0,1	39,531504
2,949167	0,1	39,128396
2,950833	0,1	38,760212
2,952500	0,1	38,356584
2,954167	0,1	37,970510
2,955833	0,1	37,578919
2,957500	0,1	37,217866
2,959167	0,1	36,855965
2,960833	0,1	36,465584
2,962500	0,1	36,129747
2,964167	0,1	35,734906
2,965833	0,1	35,442782
2,967500	0,1	35,120084
2,969167	0,1	34,737083
2,970833	0,1	34,378147
2,972500	0,1	34,085106
2,974167	0,1	33,726261
2,975833	0,1	33,449489
2,977500	0,1	33,124617
2,979167	0,1	32,776333
2,980833	0,1	32,500360
2,982500	0,1	32,188338
2,984167	0,1	31,889727
2,985833	0,1	31,575578
2,987500	0,1	31,270689
2,989167	0,1	30,936373
2,990833	0,1	30,666156
2,992500	0,1	30,405006
2,994167	0,1	30,062856
2,995833	0,1	29,811954
2,997500	0,1	29,522655
2,999167	0,1	29,245525
3,000833	0,1	28,949151
3,002500	0,1	28,713146
3,004167	0,1	28,408907
3,005833	0,1	28,171815
3,007500	0,1	27,915835
3,009167	0,1	27,611995
3,010833	0,1	27,392870
3,012500	0,1	27,096719
3,014167	0,1	26,834517
3,015833	0,1	26,566383
3,017500	0,1	26,376696
3,019167	0,1	26,122998
3,020833	0,1	25,858598
3,022500	0,1	25,596103
3,024167	0,1	25,338665
3,025833	0,1	25,092559
3,027500	0,1	24,855318
3,029167	0,1	24,644073
3,030833	0,1	24,380781
3,032500	0,1	24,134722
3,034167	0,1	23,942830
3,035833	0,1	23,688889
3,037500	0,1	23,476876
3,039167	0,1	23,240580
3,040833	0,1	23,051646
3,042500	0,1	22,810142
3,044167	0,1	22,616821
3,045833	0,1	22,365523
3,047500	0,1	22,215520
3,049167	0,1	21,967567
3,050833	0,1	21,779543
3,052500	0,1	21,557885
3,054167	0,1	21,317695
3,055833	0,1	21,165654
3,057500	0,1	20,956944
3,059167	0,1	20,734097
3,060833	0,1	20,585352
3,062500	0,1	20,358187
3,064167	0,1	20,233038
3,065833	0,1	19,975209
3,067500	0,1	19,793852
3,069167	0,1	19,632252
3,070833	0,1	19,456454
3,072500	0,1	19,255528
3,074167	0,1	19,108345
3,075833	0,1	18,902741
3,077500	0,1	18,794206
3,079167	0,1	18,577530
3,080833	0,1	18,389214
3,082500	0,1	18,248623
3,084167	0,1	18,085146
3,085833	0,1	17,941168
3,087500	0,1	17,739490
3,089167	0,1	17,606336
3,090833	0,1	17,509499
3,092500	0,1	17,348028
3,094167	0,1	17,140737
3,095833	0,1	17,062051
3,097500	0,1	16,883764
3,099167	0,1	16,772800
3,100833	0,1	16,642177
3,102500	0,1	16,471272
3,104167	0,1	16,359620
3,105833	0,1	16,225328
3,107500	0,1	16,062079
3,109167	0,1	15,980741
3,110833	0,1	15,847549
3,112500	0,1	15,689453
3,114167	0,1	15,623104
3,115833	0,1	15,500141
3,117500	0,1	15,391621
3,119167	0,1	15,236779
3,120833	0,1	15,119232
3,122500	0,1	15,079152
3,124167	0,1	14,933649
3,125833	0,1	14,847811
3,127500	0,1	14,759478
3,129167	0,1	14,612211
3,130833	0,1	14,531761
3,132500	0,1	14,472418
3,134167	0,1	14,373482
3,135833	0,1	14,265122
3,137500	0,1	14,173810
3,139167	0,1	14,085761
3,140833	0,1	13,993951
3,142500	0,1	13,901551
3,144167	0,1	13,823240
3,145833	0,1	13,765065
3,147500	0,1	13,682018
3,149167	0,1	13,575523
3,150833	0,1	13,486799
3,152500	0,1	13,439346
3,154167	0,1	13,356005
3,155833	0,1	13,246940
3,157500	0,1	13,161157
3,159167	0,1	13,105731
3,160833	0,1	13,047539
3,162500	0,1	12,941653
3,164167	0,1	12,854057
3,165833	0,1	12,840067
3,167500	0,1	12,720055
3,169167	0,1	12,669616
3,170833	0,1	12,599350
3,172500	0,1	12,565758
3,174167	0,1	12,439319
3,175833	0,1	12,383046
3,177500	0,1	12,299092
3,179167	0,1	12,223740
3,180833	0,1	12,146533
3,182500	0,1	12,128406
3,184167	0,1	12,067563
3,185833	0,1	11,969846
3,187500	0,1	11,880327
3,189167	0,1	11,840044
3,190833	0,1	11,753213
3,192500	0,1	11,708387
3,194167	0,1	11,597778
3,195833	0,1	11,538704
3,197500	0,1	11,481871
3,199167	0,1	11,433846
3,200833	0,1	11,315053
3,202500	0,1	11,254422
3,204167	0,1	11,237486
3,205833	0,1	11,137809
3,207500	0,1	11,065776
3,209167	0,1	10,971653
3,210833	0,1	10,908979
3,212500	0,1	10,874426
3,214167	0,1	10,768793
3,215833	0,1	10,722031
3,217500	0,1	10,651787
3,219167	0,1	10,546594
3,220833	0,1	10,510463
3,222500	0,1	10,461530
3,224167	0,1	10,411263
3,225833	0,1	10,311992
3,227500	0,1	10,222572
3,229167	0,1	10,133931
3,230833	0,1	10,140404
3,232500	0,1	10,000572
3,234167	0,1	9,957877
3,235833	0,1	9,893663
3,237500	0,1	9,827695
3,239167	0,1	9,779481
3,240833	0,1	9,719800
3,242500	0,1	9,632431
3,244167	0,1	9,573845
3,245833	0,1	9,523222
3,247500	0,1	9,405589
3,249167	0,1	9,365037
3,250833	0,1	9,323510
3,252500	0,1	9,248921
3,254167	0,1	9,198129
3,255833	0,1	9,125644
3,257500	0,1	9,108848
3,259167	0,1	8,997487
3,260833	0,1	8,918772
3,262500	0,1	8,871066
3,264167	0,1	8,781598
3,265833	0,1	8,755814
3,267500	0,1	8,694768
3,269167	0,1	8,660621
3,270833	0,1	8,580968
3,272500	0,1	8,523462
3,274167	0,1	8,440132
3,275833	0,1	8,428312
3,277500	0,1	8,353870
3,279167	0,1	8,275504
3,280833	0,1	8,271790
3,282500	0,1	8,182693
3,284167	0,1	8,095624
3,285833	0,1	8,060593
3,287500	0,1	8,035752
3,289167	0,1	7,948052
3,290833	0,1	7,892522
3,292500	0,1	7,815898
3,294167	0,1	7,789367
3,295833	0,1	7,759455
3,297500	0,1	7,699626
3,299167	0,1	7,624728
3,300833	0,1	7,621507
3,302500	0,1	7,536973
3,304167	0,1	7,530851
3,305833	0,1	7,449370
3,307500	0,1	7,381355
3,309167	0,1	7,324899
3,310833	0,1	7,307950
3,312500	0,1	7,274954
3,314167	0,1	7,212207
3,315833	0,1	7,162934
3,317500	0,1	7,128560
3,319167	0,1	7,118041
3,320833	0,1	7,028953
3,322500	0,1	7,016277
3,324167	0,1	6,946094
3,325833	0,1	6,956078
3,327500	0,1	6,882825
3,329167	0,1	6,829555
3,330833	0,1	6,814661
3,332500	0,1	6,771162
3,334167	0,1	6,706796
3,335833	0,1	6,704524
3,337500	0,1	6,653276
3,339167	0,1	6,669722
3,340833	0,1	6,585548
3,342500	0,1	6,598530
3,344167	0,1	6,544208
3,345833	0,1	6,514555
3,347500	0,1	6,484443
3,349167	0,1	6,454427
3,350833	0,1	6,450404
3,352500	0,1	6,386934
3,354167	0,1	6,395609
3,355833	0,1	6,337572
3,357500	0,1	6,282607
3,359167	0,1	6,280632
3,360833	0,1	6,259325
3,362500	0,1	6,201016
3,364167	0,1	6,230625
3,365833	0,1	6,132067
3,367500	0,1	6,136435
3,369167	0,1	6,096832
3,370833	0,1	6,125033
3,372500	0,1	6,091218
3,374167	0,1	6,043764
3,375833	0,1	6,037042
3,377500	0,1	5,946167
3,379167	0,1	5,997686
3,380833	0,1	5,968493
3,382500	0,1	5,941282
3,384167	0,1	5,949228
3,385833	0,1	5,885181
3,387500	0,1	5,866310
3,389167	0,1	5,848100
3,390833	0,1	5,812348
3,392500	0,1	5,811762
3,394167	0,1	5,792729
3,395833	0,1	5,762852
3,397500	0,1	5,767145
3,399167	0,1	5,711136
3,400833	0,1	5,732308
3,402500	0,1	5,715809
3,404167	0,1	5,668320
3,405833	0,1	5,708989
3,407500	0,1	5,635168
3,409167	0,1	5,615918
3,410833	0,1	5,592973
3,412500	0,1	5,589342
3,414167	0,1	5,622278
3,415833	0,1	5,572540
3,417500	0,1	5,531690
3,419167	0,1	5,526806
3,420833	0,1	5,534281
3,422500	0,1	5,502004
3,424167	0,1	5,478301
3,425833	0,1	5,465621
3,427500	0,1	5,414580
3,429167	0,1	5,442845
3,430833	0,1	5,396693
3,432500	0,1	5,327077
3,434167	0,1	5,378002
3,435833	0,1	5,389971
3,437500	0,1	5,354149
3,439167	0,1	5,327439
3,440833	0,1	5,310032
3,442500	0,1	5,341194
3,444167	0,1	5,293155
3,445833	0,1	5,273582
3,447500	0,1	5,297263
3,449167	0,1	5,267990
3,450833	0,1	5,218640
3,452500	0,1	5,217235
3,454167	0,1	5,236946
3,455833	0,1	5,199267
3,457500	0,1	5,198533
3,459167	0,1	5,169315
3,460833	0,1	5,154232
3,462500	0,1	5,107961
3,464167	0,1	5,153017
3,465833	0,1	5,128854
3,467500	0,1	5,145193
3,469167	0,1	5,125237
3,470833	0,1	5,109647
3,472500	0,1	5,090867
3,474167	0,1	5,081764
3,475833	0,1	5,081552
3,477500	0,1	5,085888
3,479167	0,1	5,041464
3,480833	0,1	5,043869
3,482500	0,1	5,030804
3,484167	0,1	5,019218
3,485833	0,1	5,033077
3,487500	0,1	5,029693
3,489167	0,1	5,019169
3,490833	0,1	5,021054
3,492500	0,1	5,021036
3,494167	0,1	4,982273
3,495833	0,1	4,963177
3,497500	0,1	4,969285
3,499167	0,1	4,999519
3,500833	0,1	4,960142
3,502500	0,1	4,956086
3,504167	0,1	4,969907
3,505833	0,1	4,939786
3,507500	0,1	4,951475
3,509167	0,1	4,908288
3,510833	0,1	4,915731
3,512500	0,1	4,934294
3,514167	0,1	4,924738
3,515833	0,1	4,977725
3,517500	0,1	4,943181
3,519167	0,1	4,906200
3,520833	0,1	4,933075
3,522500	0,1	4,891462
3,524167	0,1	4,925379
3,525833	0,1	4,903217
3,527500	0,1	4,948421
3,529167	0,1	4,904265
3,530833	0,1	4,949445
3,532500	0,1	4,895117
3,534167	0,1	4,901060
3,535833	0,1	4,949335
3,537500	0,1	4,965388
3,539167	0,1	4,907423
3,540833	0,1	4,934406
3,542500	0,1	4,936691
3,544167	0,1	4,923824
3,545833	0,1	4,939343
3,547500	0,1	4,961931
3,549167	0,1	4,946373
3,550833	0,1	4,983822
3,552500	0,1	4,923119
3,554167	0,1	4,967472
3,555833	0,1	4,976653
3,557500	0,1	4,997263
3,559167	0,1	4,996401
3,560833	0,1	4,957682
3,562500	0,1	4,986394
3,564167	0,1	4,968617
3,565833	0,1	4,985832
3,567500	0,1	5,058361
3,569167	0,1	5,027392
3,570833	0,1	5,066256
3,572500	0,1	4,976335
3,574167	0,1	4,988814
3,575833	0,1	5,003223
3,577500	0,1	5,043626
3,579167	0,1	5,013632
3,580833	0,1	5,054153
3,582500	0,1	5,031090
3,584167	0,1	5,060805
3,585833	0,1	5,048244
3,587500	0,1	5,067684
3,589167	0,1	5,076628
3,590833	0,1	5,098809
3,592500	0,1	5,094478
3,594167	0,1	5,077128
3,595833	0,1	5,130440
3,597500	0,1	5,116772
3,599167	0,1	5,121104
3,600833	0,1	5,141736
3,602500	0,1	5,100818
3,604167	0,1	5,111598
3,605833	0,1	5,106910
3,607500	0,1	5,101795
3,609167	0,1	5,132122
3,610833	0,1	5,180266
3,612500	0,1	5,142791
3,614167	0,1	5,138480
3,615833	0,1	5,154382
3,617500	0,1	5,150490
3,619167	0,1	5,169779
3,620833	0,1	5,176027
3,622500	0,1	5,153193
3,624167	0,1	5,165055
3,625833	0,1	5,179499
3,627500	0,1	5,142913
3,629167	0,1	5,161809
3,630833	0,1	5,145890
3,632500	0,1	5,140314
3,634167	0,1	5,149163
3,635833	0,1	5,177731
3,637500	0,1	5,172380
3,639167	0,1	5,150460
3,640833	0,1	5,174047
3,642500	0,1	5,131716
3,644167	0,1	5,149974
3,645833	0,1	5,109053
3,647500	0,1	5,156087
3,649167	0,1	5,092833
3,650833	0,1	5,115687
3,652500	0,1	5,115197
3,654167	0,1	5,098007
3,655833	0,1	5,120483
3,657500	0,1	5,086037
3,659167	0,1	5,093893
3,660833	0,1	5,133794
3,662500	0,1	5,103778
3,664167	0,1	5,081818
3,665833	0,1	5,078537
3,667500	0,1	5,050819
3,669167	0,1	5,058923
3,670833	0,1	5,089145
3,672500	0,1	5,063938
3,674167	0,1	5,064250
3,675833	0,1	5,073578
3,677500	0,1	5,022879
3,679167	0,1	5,005323
3,680833	0,1	5,059038
3,682500	0,1	5,023654
3,684167	0,1	5,001275
3,685833	0,1	4,985384
3,687500	0,1	4,955964
3,689167	0,1	4,979018
3,690833	0,1	4,960939
3,692500	0,1	4,967085
3,694167	0,1	4,880276
3,695833	0,1	4,875343
3,697500	0,1	4,889753
3,699167	0,1	4,893799
3,700833	0,1	4,900123
3,702500	0,1	4,883476
3,704167	0,1	4,846374
3,705833	0,1	4,803816
3,707500	0,1	4,784703
3,709167	0,1	4,788263
3,710833	0,1	4,796392
3,712500	0,1	4,761454
3,714167	0,1	4,739481
3,715833	0,1	4,793946
3,717500	0,1	4,730080
3,719167	0,1	4,721396
3,720833	0,1	4,704793
3,722500	0,1	4,687646
3,724167	0,1	4,681064
3,725833	0,1	4,703911
3,727500	0,1	4,647583
3,729167	0,1	4,629853
3,730833	0,1	4,640731
3,732500	0,1	4,590360
3,734167	0,1	4,566378
3,735833	0,1	4,585809
3,737500	0,1	4,560317
3,739167	0,1	4,584272
3,740833	0,1	4,539554
3,742500	0,1	4,561438
3,744167	0,1	4,483975
3,745833	0,1	4,502791
3,747500	0,1	4,479827
3,749167	0,1	4,497578
3,750833	0,1	4,419473
3,752500	0,1	4,397310
3,754167	0,1	4,429787
3,755833	0,1	4,399691
3,757500	0,1	4,406169
3,759167	0,1	4,367405
3,760833	0,1	4,375466
3,762500	0,1	4,313688
3,764167	0,1	4,306820
3,765833	0,1	4,284993
3,767500	0,1	4,294019
3,769167	0,1	4,287196
3,770833	0,1	4,276547
3,772500	0,1	4,259330
3,774167	0,1	4,239456
3,775833	0,1	4,199087
3,777500	0,1	4,211195
3,779167	0,1	4,173261
3,780833	0,1	4,200605
3,782500	0,1	4,175055
3,784167	0,1	4,159343
3,785833	0,1	4,129700
3,787500	0,1	4,162871
3,789167	0,1	4,096622
3,790833	0,1	4,086426
3,792500	0,1	4,096269
3,794167	0,1	4,051450
3,795833	0,1	4,054208
3,797500	0,1	4,036439
3,799167	0,1	4,040990
3,800833	0,1	4,023635
3,802500	0,1	4,000392
3,804167	0,1	3,986520
3,805833	0,1	3,960775
3,807500	0,1	3,949009
3,809167	0,1	3,923385
3,810833	0,1	3,910213
3,812500	0,1	3,903550
3,814167	0,1	3,896144
3,815833	0,1	3,848940
3,817500	0,1	3,859172
3,819167	0,1	3,837185
3,820833	0,1	3,835349
3,822500	0,1	3,848349
3,824167	0,1	3,837624
3,825833	0,1	3,825173
3,827500	0,1	3,760790
3,829167	0,1	3,767971
3,830833	0,1	3,747852
3,832500	0,1	3,727769
3,834167	0,1	3,725814
3,835833	0,1	3,728861
3,837500	0,1	3,701431
3,839167	0,1	3,684515
3,840833	0,1	3,659642
3,842500	0,1	3,647403
3,844167	0,1	3,664835
3,845833	0,1	3,651917
3,847500	0,1	3,620826
3,849167	0,1	3,642274
3,850833	0,1	3,650811
3,852500	0,1	3,604004
3,854167	0,1	3,583434
3,855833	0,1	3,560188
3,857500	0,1	3,542471
3,859167	0,1	3,538608
3,860833	0,1	3,525157
3,862500	0,1	3,523085
3,864167	0,1	3,492697
3,865833	0,1	3,493054
3,867500	0,1	3,471570
3,869167	0,1	3,473636
3,870833	0,1	3,434033
3,872500	0,1	3,455591
3,874167	0,1	3,427289
3,875833	0,1	3,395725
3,877500	0,1	3,381502
3,879167	0,1	3,410820
3,880833	0,1	3,367088
3,882500	0,1	3,391811
3,884167	0,1	3,342883
3,885833	0,1	3,318753
3,887500	0,1	3,329915
3,889167	0,1	3,348716
3,890833	0,1	3,296619
3,892500	0,1	3,316392
3,894167	0,1	3,254593
3,895833	0,1	3,264481
3,897500	0,1	3,246830
3,899167	0,1	3,244832
3,900833	0,1	3,237779
3,902500	0,1	3,210516
3,904167	0,1	3,199753
3,905833	0,1	3,198466
3,907500	0,1	3,173136
3,909167	0,1	3,197444
3,910833	0,1	3,163141
3,912500	0,1	3,161483
3,914167	0,1	3,127826
3,915833	0,1	3,153968
3,917500	0,1	3,137581
3,919167	0,1	3,117938
3,920833	0,1	3,093350
3,922500	0,1	3,074610
3,924167	0,1	3,092865
3,925833	0,1	3,017348
3,927500	0,1	3,027097
3,929167	0,1	3,078285
3,930833	0,1	3,088005
3,932500	0,1	3,008600
3,934167	0,1	3,001197
3,935833	0,1	2,980636
3,937500	0,1	3,026872
3,939167	0,1	3,006374
3,940833	0,1	2,995774
3,942500	0,1	2,952412
3,944167	0,1	2,964338
3,945833	0,1	2,948684
3,947500	0,1	2,976101
3,949167	0,1	2,986443
3,950833	0,1	2,934073
3,952500	0,1	2,946264
3,954167	0,1	2,899898
3,955833	0,1	2,881114
3,957500	0,1	2,898428
3,959167	0,1	2,887452
3,960833	0,1	2,903778
3,962500	0,1	2,877352
3,964167	0,1	2,860940
3,965833	0,1	2,855251
3,967500	0,1	2,824670
3,969167	0,1	2,823000
3,970833	0,1	2,823389
3,972500	0,1	2,815577
3,974167	0,1	2,798833
3,975833	0,1	2,811884
3,977500	0,1	2,786684
3,979167	0,1	2,788963
3,980833	0,1	2,769443
3,982500	0,1	2,790464
3,984167	0,1	2,738251
3,985833	0,1	2,760037
3,987500	0,1	2,730823
3,989167	0,1	2,750406
3,990833	0,1	2,771202
3,992500	0,1	2,773231
3,994167	0,1	2,753480
3,995833	0,1	2,723136
3,997500	0,1	2,698243
3,999167	0,1	2,725408
4,000833	0,1	2,676418
4,002500	0,1	2,724105
4,004167	0,1	2,725053
4,005833	0,1	2,683456
4,007500	0,1	2,678663
4,009167	0,1	2,689020
4,010833	0,1	2,672935
4,012500	0,1	2,712868
4,014167	0,1	2,686486
4,015833	0,1	2,670416
4,017500	0,1	2,675679
4,019167	0,1	2,697923
4,020833	0,1	2,694036
4,022500	0,1	2,664394
4,024167	0,1	2,633249
4,025833	0,1	2,631329
4,027500	0,1	2,642720
4,029167	0,1	2,665426
4,030833	0,1	2,635767
4,032500	0,1	2,667270
4,034167	0,1	2,650249
4,035833	0,1	2,582940
4,037500	0,1	2,603887
4,039167	0,1	2,674081
4,040833	0,1	2,631088
4,042500	0,1	2,622689
4,044167	0,1	2,669500
4,045833	0,1	2,631284
4,047500	0,1	2,599700
4,049167	0,1	2,659501
4,050833	0,1	2,628951
4,052500	0,1	2,618279
4,054167	0,1	2,653590
4,055833	0,1	2,605301
4,057500	0,1	2,625585
4,059167	0,1	2,625743
4,060833	0,1	2,631504
4,062500	0,1	2,619258
4,064167	0,1	2,620717
4,065833	0,1	2,603819
4,067500	0,1	2,615283
4,069167	0,1	2,630315
4,070833	0,1	2,638333
4,072500	0,1	2,623393
4,074167	0,1	2,648686
4,075833	0,1	2,632158
4,077500	0,1	2,654186
4,079167	0,1	2,647222
4,080833	0,1	2,649341
4,082500	0,1	2,628628
4,084167	0,1	2,639991
4,085833	0,1	2,688285
4,087500	0,1	2,609960
4,089167	0,1	2,673796
4,090833	0,1	2,683938
4,092500	0,1	2,664577
4,094167	0,1	2,662650
4,095833	0,1	2,682550
4,097500	0,1	2,669535
4,099167	0,1	2,682475
4,100833	0,1	2,731298
4,102500	0,1	2,697179
4,104167	0,1	2,692500
4,105833	0,1	2,717646
4,107500	0,1	2,724657
4,109167	0,1	2,725053
4,110833	0,1	2,739611
4,112500	0,1	2,771900
4,114167	0,1	2,780266
4,115833	0,1	2,731654
4,117500	0,1	2,743143
4,119167	0,1	2,773276
4,120833	0,1	2,754051
4,122500	0,1	2,787735
4,124167	0,1	2,810560
4,125833	0,1	2,779104
4,127500	0,1	2,803420
4,129167	0,1	2,792705
4,130833	0,1	2,801605
4,132500	0,1	2,800802
4,134167	0,1	2,839505
4,135833	0,1	2,834764
4,137500	0,1	2,845898
4,139167	0,1	2,874976
4,140833	0,1	2,827920
4,142500	0,1	2,823677
4,144167	0,1	2,860434
4,145833	0,1	2,852810
4,147500	0,1	2,908727
4,149167	0,1	2,903392
4,150833	0,1	2,835998
4,152500	0,1	2,878166
4,154167	0,1	2,916963
4,155833	0,1	2,911934
4,157500	0,1	2,887920
4,159167	0,1	2,885863
4,160833	0,1	2,923299
4,162500	0,1	2,919262
4,164167	0,1	2,921493
4,165833	0,1	2,919856
4,167500	0,1	2,949013
4,169167	0,1	2,934792
4,170833	0,1	2,959425
4,172500	0,1	2,935806
4,174167	0,1	2,996635
4,175833	0,1	2,980892
4,177500	0,1	2,969152
4,179167	0,1	2,968294
4,180833	0,1	2,971640
4,182500	0,1	2,970526
4,184167	0,1	2,968216
4,185833	0,1	2,986727
4,187500	0,1	2,960792
4,189167	0,1	3,003447
4,190833	0,1	3,010441
4,192500	0,1	2,986502
4,194167	0,1	3,015167
4,195833	0,1	2,946597
4,197500	0,1	3,001603
4,199167	0,1	2,998264
4,200833	0,1	3,030417
4,202500	0,1	2,997935
4,204167	0,1	3,011196
4,205833	0,1	3,008995
4,207500	0,1	3,021114
4,209167	0,1	3,011222
4,210833	0,1	2,976665
4,212500	0,1	3,012441
4,214167	0,1	2,996681
4,215833	0,1	2,999766
4,217500	0,1	3,019793
4,219167	0,1	3,004111
4,220833	0,1	2,996317
4,222500	0,1	2,992891
4,224167	0,1	2,992969
4,225833	0,1	3,047032
4,227500	0,1	3,009232
4,229167	0,1	3,024773
4,230833	0,1	2,998140
4,232500	0,1	2,983489
4,234167	0,1	3,062405
4,235833	0,1	3,002457
4,237500	0,1	3,015300
4,239167	0,1	3,007906
4,240833	0,1	3,001354
4,242500	0,1	2,991820
4,244167	0,1	2,955316
4,245833	0,1	2,996097
4,247500	0,1	2,963056
4,249167	0,1	2,983972
4,250833	0,1	2,949707
4,252500	0,1	2,965850
4,254167	0,1	2,933240
4,255833	0,1	2,988929
4,257500	0,1	2,943631
4,259167	0,1	2,974671
4,260833	0,1	2,949907
4,262500	0,1	2,927730
4,264167	0,1	2,967448
4,265833	0,1	2,928384
4,267500	0,1	2,964176
4,269167	0,1	2,961958
4,270833	0,1	2,919008
4,272500	0,1	2,894025
4,274167	0,1	2,917772
4,275833	0,1	2,882367
4,277500	0,1	2,933863
4,279167	0,1	2,919546
4,280833	0,1	2,928395
4,282500	0,1	2,919493
4,284167	0,1	2,875356
4,285833	0,1	2,890170
4,287500	0,1	2,848429
4,289167	0,1	2,902129
4,290833	0,1	2,898873
4,292500	0,1	2,841969
4,294167	0,1	2,836243
4,295833	0,1	2,867913
4,297500	0,1	2,840819
4,299167	0,1	2,844213
4,300833	0,1	2,812260
4,302500	0,1	2,861052
4,304167	0,1	2,824696
4,305833	0,1	2,819911
4,307500	0,1	2,823077
4,309167	0,1	2,811475
4,310833	0,1	2,803945
4,312500	0,1	2,851004
4,314167	0,1	2,807408
4,315833	0,1	2,804126
4,317500	0,1	2,817804
4,319167	0,1	2,789570
4,320833	0,1	2,770563
4,322500	0,1	2,778006
4,324167	0,1	2,781953
4,325833	0,1	2,724285
4,327500	0,1	2,730630
4,329167	0,1	2,748721
4,330833	0,1	2,759913
4,332500	0,1	2,747511
4,334167	0,1	2,699386
4,335833	0,1	2,699220
4,337500	0,1	2,715701
4,339167	0,1	2,706289
4,340833	0,1	2,700726
4,342500	0,1	2,688121
4,344167	0,1	2,680148
4,345833	0,1	2,688996
4,347500	0,1	2,712903
4,349167	0,1	2,689653
4,350833	0,1	2,666602
4,352500	0,1	2,702647
4,354167	0,1	2,670971
4,355833	0,1	2,618850
4,357500	0,1	2,667574
4,359167	0,1	2,632865
4,360833	0,1	2,664642
4,362500	0,1	2,618959
4,364167	0,1	2,637835
4,365833	0,1	2,628120
4,367500	0,1	2,616773
4,369167	0,1	2,591648
4,370833	0,1	2,569514
4,372500	0,1	2,576908
4,374167	0,1	2,586297
4,375833	0,1	2,601845
4,377500	0,1	2,585369
4,379167	0,1	2,552992
4,380833	0,1	2,563342
4,382500	0,1	2,557048
4,384167	0,1	2,559430
4,385833	0,1	2,525176
4,387500	0,1	2,558738
4,389167	0,1	2,540281
4,390833	0,1	2,503925
4,392500	0,1	2,521881
4,394167	0,1	2,498143
4,395833	0,1	2,484520
4,397500	0,1	2,465369
4,399167	0,1	2,513634
4,400833	0,1	2,487669
4,402500	0,1	2,485603
4,404167	0,1	2,456576
4,405833	0,1	2,483116
4,407500	0,1	2,464700
4,409167	0,1	2,464123
4,410833	0,1	2,443299
4,412500	0,1	2,439023
4,414167	0,1	2,424358
4,415833	0,1	2,456888
4,417500	0,1	2,456989
4,419167	0,1	2,425927
4,420833	0,1	2,403548
4,422500	0,1	2,390409
4,424167	0,1	2,405393
4,425833	0,1	2,405548
4,427500	0,1	2,391900
4,429167	0,1	2,394160
4,430833	0,1	2,347471
4,432500	0,1	2,388088
4,434167	0,1	2,384192
4,435833	0,1	2,346835
4,437500	0,1	2,338882
4,439167	0,1	2,331689
4,440833	0,1	2,352339
4,442500	0,1	2,324504
4,444167	0,1	2,344289
4,445833	0,1	2,335806
4,447500	0,1	2,313707
4,449167	0,1	2,323122
4,450833	0,1	2,350450
4,452500	0,1	2,325271
4,454167	0,1	2,310069
4,455833	0,1	2,253333
4,457500	0,1	2,242393
4,459167	0,1	2,274327
4,460833	0,1	2,260093
4,462500	0,1	2,230898
4,464167	0,1	2,262825
4,465833	0,1	2,223300
4,467500	0,1	2,233434
4,469167	0,1	2,222931
4,470833	0,1	2,194340
4,472500	0,1	2,192839
4,474167	0,1	2,220391
4,475833	0,1	2,189605
4,477500	0,1	2,217648
4,479167	0,1	2,234441
4,480833	0,1	2,153023
4,482500	0,1	2,183521
4,484167	0,1	2,189783
4,485833	0,1	2,124144
4,487500	0,1	2,154342
4,489167	0,1	2,161352
4,490833	0,1	2,144508
4,492500	0,1	2,165600
4,494167	0,1	2,114631
4,495833	0,1	2,136486
4,497500	0,1	2,094414
4,499167	0,1	2,122388
4,500833	0,1	2,096429
4,502500	0,1	2,080278
4,504167	0,1	2,063282
4,505833	0,1	2,035498
4,507500	0,1	2,087253
4,509167	0,1	2,049904
4,510833	0,1	2,059038
4,512500	0,1	2,054443
4,514167	0,1	2,057384
4,515833	0,1	2,021110
4,517500	0,1	2,027929
4,519167	0,1	2,029883
4,520833	0,1	2,059384
4,522500	0,1	1,996431
4,524167	0,1	2,007325
4,525833	0,1	2,004690
4,527500	0,1	2,042176
4,529167	0,1	2,001951
4,530833	0,1	1,962090
4,532500	0,1	1,962858
4,534167	0,1	1,986470
4,535833	0,1	1,947764
4,537500	0,1	1,967028
4,539167	0,1	1,979709
4,540833	0,1	1,927326
4,542500	0,1	1,950759
4,544167	0,1	1,953929
4,545833	0,1	1,933713
4,547500	0,1	1,892626
4,549167	0,1	1,933929
4,550833	0,1	1,911552
4,552500	0,1	1,872915
4,554167	0,1	1,913971
4,555833	0,1	1,892179
4,557500	0,1	1,868937
4,559167	0,1	1,878577
4,560833	0,1	1,852032
4,562500	0,1	1,851459
4,564167	0,1	1,867064
4,565833	0,1	1,867068
4,567500	0,1	1,878576
4,569167	0,1	1,845851
4,570833	0,1	1,849300
4,572500	0,1	1,831094
4,574167	0,1	1,854537
4,575833	0,1	1,819287
4,577500	0,1	1,778943
4,579167	0,1	1,835895
4,580833	0,1	1,793185
4,582500	0,1	1,753752
4,584167	0,1	1,798557
4,585833	0,1	1,785401
4,587500	0,1	1,769220
4,589167	0,1	1,781944
4,590833	0,1	1,740444
4,592500	0,1	1,756554
4,594167	0,1	1,744823
4,595833	0,1	1,731528
4,597500	0,1	1,706129
4,599167	0,1	1,726258
4,600833	0,1	1,732958
4,602500	0,1	1,722737
4,604167	0,1	1,712022
4,605833	0,1	1,718565
4,607500	0,1	1,708785
4,609167	0,1	1,727481
4,610833	0,1	1,677580
4,612500	0,1	1,685765
4,614167	0,1	1,736750
4,615833	0,1	1,682247
4,617500	0,1	1,681671
4,619167	0,1	1,700073
4,620833	0,1	1,659591
4,622500	0,1	1,664252
4,624167	0,1	1,640741
4,625833	0,1	1,644474
4,627500	0,1	1,655259
4,629167	0,1	1,619456
4,630833	0,1	1,607871
4,632500	0,1	1,650363
4,634167	0,1	1,605291
4,635833	0,1	1,580115
4,637500	0,1	1,634178
4,639167	0,1	1,579041
4,640833	0,1	1,596500
4,642500	0,1	1,595209
4,644167	0,1	1,584278
4,645833	0,1	1,596645
4,647500	0,1	1,588880
4,649167	0,1	1,584634
4,650833	0,1	1,573709
4,652500	0,1	1,552283
4,654167	0,1	1,517484
4,655833	0,1	1,555289
4,657500	0,1	1,542215
4,659167	0,1	1,522584
4,660833	0,1	1,526174
4,662500	0,1	1,555938
4,664167	0,1	1,528339
4,665833	0,1	1,503460
4,667500	0,1	1,518910
4,669167	0,1	1,496699
4,670833	0,1	1,521711
4,672500	0,1	1,516901
4,674167	0,1	1,478873
4,675833	0,1	1,498127
4,677500	0,1	1,455722
4,679167	0,1	1,484968
4,680833	0,1	1,482890
4,682500	0,1	1,447094
4,684167	0,1	1,436231
4,685833	0,1	1,457936
4,687500	0,1	1,460745
4,689167	0,1	1,461967
4,690833	0,1	1,452049
4,692500	0,1	1,450753
4,694167	0,1	1,459090
4,695833	0,1	1,423943
4,697500	0,1	1,407264
4,699167	0,1	1,385626
4,700833	0,1	1,411853
4,702500	0,1	1,396547
4,704167	0,1	1,408554
4,705833	0,1	1,396696
4,707500	0,1	1,409630
4,709167	0,1	1,385126
4,710833	0,1	1,339194
4,712500	0,1	1,392077
4,714167	0,1	1,378578
4,715833	0,1	1,381591
4,717500	0,1	1,392666
4,719167	0,1	1,392090
4,720833	0,1	1,406177
4,722500	0,1	1,358247
4,724167	0,1	1,384904
4,725833	0,1	1,347531
4,727500	0,1	1,333871
4,729167	0,1	1,337248
4,730833	0,1	1,360166
4,732500	0,1	1,350189
4,734167	0,1	1,348313
4,735833	0,1	1,332002
4,737500	0,1	1,317920
4,739167	0,1	1,302752
4,740833	0,1	1,274656
4,742500	0,1	1,348377
4,744167	0,1	1,274086
4,745833	0,1	1,271265
4,747500	0,1	1,291177
4,749167	0,1	1,303035
4,750833	0,1	1,285865
4,752500	0,1	1,286365
4,754167	0,1	1,290313
4,755833	0,1	1,279679
4,757500	0,1	1,292898
4,759167	0,1	1,284504
4,760833	0,1	1,271634
4,762500	0,1	1,281699
4,764167	0,1	1,264096
4,765833	0,1	1,213716
4,767500	0,1	1,261702
4,769167	0,1	1,261434
4,770833	0,1	1,249927
4,772500	0,1	1,237787
4,774167	0,1	1,269033
4,775833	0,1	1,237291
4,777500	0,1	1,207032
4,779167	0,1	1,275421
4,780833	0,1	1,214730
4,782500	0,1	1,253004
4,784167	0,1	1,233397
4,785833	0,1	1,209759
4,787500	0,1	1,237347
4,789167	0,1	1,229736
4,790833	0,1	1,180093
4,792500	0,1	1,195828
4,794167	0,1	1,211560
4,795833	0,1	1,189069
4,797500	0,1	1,228862
4,799167	0,1	1,219824
4,800833	0,1	1,204012
4,802500	0,1	1,208834
4,804167	0,1	1,161348
4,805833	0,1	1,178580
4,807500	0,1	1,203304
4,809167	0,1	1,161629
4,810833	0,1	1,159249
4,812500	0,1	1,181953
4,814167	0,1	1,163268
4,815833	0,1	1,181954
4,817500	0,1	1,153295
4,819167	0,1	1,154286
4,820833	0,1	1,121600
4,822500	0,1	1,169090
4,824167	0,1	1,132305
4,825833	0,1	1,101775
4,827500	0,1	1,117577
4,829167	0,1	1,123609
4,830833	0,1	1,135401
4,832500	0,1	1,114344
4,834167	0,1	1,139774
4,835833	0,1	1,089862
4,837500	0,1	1,114988
4,839167	0,1	1,128279
4,840833	0,1	1,146602
4,842500	0,1	1,121762
4,844167	0,1	1,098837
4,845833	0,1	1,123259
4,847500	0,1	1,137199
4,849167	0,1	1,102789
4,850833	0,1	1,071466
4,852500	0,1	1,125979
4,854167	0,1	1,085917
4,855833	0,1	1,116786
4,857500	0,1	1,083260
4,859167	0,1	1,094949
4,860833	0,1	1,076931
4,862500	0,1	1,058910
4,864167	0,1	1,068800
4,865833	0,1	1,091721
4,867500	0,1	1,065733
4,869167	0,1	1,053727
4,870833	0,1	1,035978
4,872500	0,1	1,066936
4,874167	0,1	1,039055
4,875833	0,1	1,055590
4,877500	0,1	1,048188
4,879167	0,1	1,010354
4,880833	0,1	1,049759
4,882500	0,1	1,058614
4,884167	0,1	1,059832
4,885833	0,1	1,046924
4,887500	0,1	1,014432
4,889167	0,1	1,021115
4,890833	0,1	1,018958
4,892500	0,1	1,050554
4,894167	0,1	1,033542
4,895833	0,1	1,019827
4,897500	0,1	1,022974
4,899167	0,1	1,026426
4,900833	0,1	1,054294
4,902500	0,1	1,008486
4,904167	0,1	1,006169
4,905833	0,1	1,026073
4,907500	0,1	1,032890
4,909167	0,1	1,020551
4,910833	0,1	1,011004
4,912500	0,1	1,024852
4,914167	0,1	0,997981
4,915833	0,1	1,034822
4,917500	0,1	0,976241
4,919167	0,1	1,019454
4,920833	0,1	1,018829
4,922500	0,1	1,018558
4,924167	0,1	0,987014
4,925833	0,1	1,014924
4,927500	0,1	0,958651
4,929167	0,1	1,000848
4,930833	0,1	0,977755
4,932500	0,1	0,972052
4,934167	0,1	0,995493
4,935833	0,1	0,969573
4,937500	0,1	0,939247
4,939167	0,1	0,970980
4,940833	0,1	0,973583
4,942500	0,1	0,936017
4,944167	0,1	0,979608
4,945833	0,1	0,966188
4,947500	0,1	0,970212
4,949167	0,1	1,022702
4,950833	0,1	0,902280
4,952500	0,1	0,931118
4,954167	0,1	0,956843
4,955833	0,1	0,961512
4,957500	0,1	0,944505
4,959167	0,1	0,908446
4,960833	0,1	0,937811
4,962500	0,1	0,938546
4,964167	0,1	0,895858
4,965833	0,1	0,911216
4,967500	0,1	0,935217
4,969167	0,1	0,895812
4,970833	0,1	0,952092
4,972500	0,1	0,893934
4,974167	0,1	0,904847
4,975833	0,1	0,940026
4,977500	0,1	0,928704
4,979167	0,1	0,914187
4,980833	0,1	0,909177
4,982500	0,1	0,917403
4,984167	0,1	0,929183
4,985833	0,1	0,911247
4,987500	0,1	0,925964
4,989167	0,1	0,837392
4,990833	0,1	0,885438
4,992500	0,1	0,861778
4,994167	0,1	0,896302
4,995833	0,1	0,938167
4,997500	0,1	0,867698
4,999167	0,1	0,902266
5,000833	0,1	0,865357
5,002500	0,1	0,891629
5,004167	0,1	0,874620
5,005833	0,1	0,891737
5,007500	0,1	0,871345
5,009167	0,1	0,884316
5,010833	0,1	0,856116
5,012500	0,1	0,894455
5,014167	0,1	0,884460
5,015833	0,1	0,855663
5,017500	0,1	0,872176
5,019167	0,1	0,830053
5,020833	0,1	0,859551
5,022500	0,1	0,851958
5,024167	0,1	0,827533
5,025833	0,1	0,838316
5,027500	0,1	0,836367
5,029167	0,1	0,875578
5,030833	0,1	0,831773
5,032500	0,1	0,806915
5,034167	0,1	0,858598
5,035833	0,1	0,836730
5,037500	0,1	0,850508
5,039167	0,1	0,812951
5,040833	0,1	0,816913
5,042500	0,1	0,825820
5,044167	0,1	0,801031
5,045833	0,1	0,815619
5,047500	0,1	0,816983
5,049167	0,1	0,825326
5,050833	0,1	0,838083
5,052500	0,1	0,842470
5,054167	0,1	0,834912
5,055833	0,1	0,778935
5,057500	0,1	0,808508
5,059167	0,1	0,784165
5,060833	0,1	0,802780
5,062500	0,1	0,812652
5,064167	0,1	0,791779
5,065833	0,1	0,786909
5,067500	0,1	0,745831
5,069167	0,1	0,784081
5,070833	0,1	0,822941
5,072500	0,1	0,781020
5,074167	0,1	0,776695
5,075833	0,1	0,807135
5,077500	0,1	0,795378
5,079167	0,1	0,776767
5,080833	0,1	0,803836
5,082500	0,1	0,752529
5,084167	0,1	0,769873
5,085833	0,1	0,789185
5,087500	0,1	0,778291
5,089167	0,1	0,727609
5,090833	0,1	0,738508
5,092500	0,1	0,762915
5,094167	0,1	0,765367
5,095833	0,1	0,736155
5,097500	0,1	0,756746
5,099167	0,1	0,734336
5,100833	0,1	0,717487
5,102500	0,1	0,749911
5,104167	0,1	0,743543
5,105833	0,1	0,754908
5,107500	0,1	0,715585
5,109167	0,1	0,700198
5,110833	0,1	0,747490
5,112500	0,1	0,719800
5,114167	0,1	0,702972
5,115833	0,1	0,696084
5,117500	0,1	0,694808
5,119167	0,1	0,697100
5,120833	0,1	0,745924
5,122500	0,1	0,668123
5,124167	0,1	0,691845
5,125833	0,1	0,716914
5,127500	0,1	0,682017
5,129167	0,1	0,697729
5,130833	0,1	0,711681
5,132500	0,1	0,683475
5,134167	0,1	0,658762
5,135833	0,1	0,699319
5,137500	0,1	0,696678
5,139167	0,1	0,701129
5,140833	0,1	0,673295
5,142500	0,1	0,687767
5,144167	0,1	0,683060
5,145833	0,1	0,700190
5,147500	0,1	0,645206
5,149167	0,1	0,668184
5,150833	0,1	0,620613
5,152500	0,1	0,653191
5,154167	0,1	0,639893
5,155833	0,1	0,634079
5,157500	0,1	0,661215
5,159167	0,1	0,664550
5,160833	0,1	0,604675
5,162500	0,1	0,662923
5,164167	0,1	0,649463
5,165833	0,1	0,646062
5,167500	0,1	0,641439
5,169167	0,1	0,661285
5,170833	0,1	0,578934
5,172500	0,1	0,647947
5,174167	0,1	0,609988
5,175833	0,1	0,667630
5,177500	0,1	0,639149
5,179167	0,1	0,596734
5,180833	0,1	0,646778
5,182500	0,1	0,630429
5,184167	0,1	0,602016
5,185833	0,1	0,597268
5,187500	0,1	0,599748
5,189167	0,1	0,608074
5,190833	0,1	0,586313
5,192500	0,1	0,610705
5,194167	0,1	0,589522
5,195833	0,1	0,648883
5,197500	0,1	0,587495
5,199167	0,1	0,612182
5,200833	0,1	0,579926
5,202500	0,1	0,589957
5,204167	0,1	0,570611
5,205833	0,1	0,598926
5,207500	0,1	0,597948
5,209167	0,1	0,580500
5,210833	0,1	0,588175
5,212500	0,1	0,562506
5,214167	0,1	0,567137
5,215833	0,1	0,564931
5,217500	0,1	0,556795
5,219167	0,1	0,593709
5,220833	0,1	0,521426
5,222500	0,1	0,545841
5,224167	0,1	0,557179
5,225833	0,1	0,565439
5,227500	0,1	0,567784
5,229167	0,1	0,584266
5,230833	0,1	0,560501
5,232500	0,1	0,537767
5,234167	0,1	0,552030
5,235833	0,1	0,564570
5,237500	0,1	0,556028
5,239167	0,1	0,544761
5,240833	0,1	0,515537
5,242500	0,1	0,552586
5,244167	0,1	0,568104
5,245833	0,1	0,513251
5,247500	0,1	0,551601
5,249167	0,1	0,516560
5,250833	0,1	0,523537
5,252500	0,1	0,496717
5,254167	0,1	0,521018
5,255833	0,1	0,546929
5,257500	0,1	0,475337
5,259167	0,1	0,501003
5,260833	0,1	0,487366
5,262500	0,1	0,536285
5,264167	0,1	0,517240
5,265833	0,1	0,486504
5,267500	0,1	0,507035
5,269167	0,1	0,532012
5,270833	0,1	0,484813
5,272500	0,1	0,504907
5,274167	0,1	0,511203
5,275833	0,1	0,491706
5,277500	0,1	0,515207
5,279167	0,1	0,496360
5,280833	0,1	0,483581
5,282500	0,1	0,472633
5,284167	0,1	0,511926
5,285833	0,1	0,463931
5,287500	0,1	0,461319
5,289167	0,1	0,470489
5,290833	0,1	0,489518
5,292500	0,1	0,458359
5,294167	0,1	0,494630
5,295833	0,1	0,463349
5,297500	0,1	0,474470
5,299167	0,1	0,492254
5,300833	0,1	0,448727
5,302500	0,1	0,469706
5,304167	0,1	0,479411
5,305833	0,1	0,446277
5,307500	0,1	0,465053
5,309167	0,1	0,466569
5,310833	0,1	0,443954
5,312500	0,1	0,484522
5,314167	0,1	0,449256
5,315833	0,1	0,470257
5,317500	0,1	0,438952
5,319167	0,1	0,380419
5,320833	0,1	0,453439
5,322500	0,1	0,433807
5,324167	0,1	0,446151
5,325833	0,1	0,457368
5,327500	0,1	0,457001
5,329167	0,1	0,443441
5,330833	0,1	0,464716
5,332500	0,1	0,431296
5,334167	0,1	0,445997
5,335833	0,1	0,457147
5,337500	0,1	0,440214
5,339167	0,1	0,408856
5,340833	0,1	0,424116
5,342500	0,1	0,416261
5,344167	0,1	0,410323
5,345833	0,1	0,447350
5,347500	0,1	0,392281
5,349167	0,1	0,420483
5,350833	0,1	0,409142
5,352500	0,1	0,424829
5,354167	0,1	0,406028
5,355833	0,1	0,393274
5,357500	0,1	0,369438
5,359167	0,1	0,412582
5,360833	0,1	0,386799
5,362500	0,1	0,423264
5,364167	0,1	0,389316
5,365833	0,1	0,381808
5,367500	0,1	0,427646
5,369167	0,1	0,423897
5,370833	0,1	0,416152
5,372500	0,1	0,386599
5,374167	0,1	0,375311
5,375833	0,1	0,393932
5,377500	0,1	0,381899
5,379167	0,1	0,385324
5,380833	0,1	0,382209
5,382500	0,1	0,354261
5,384167	0,1	0,392502
5,385833	0,1	0,352640
5,387500	0,1	0,381221
5,389167	0,1	0,391399
5,390833	0,1	0,353106
5,392500	0,1	0,425857
5,394167	0,1	0,347709
5,395833	0,1	0,367180
5,397500	0,1	0,360021
5,399167	0,1	0,343019
5,400833	0,1	0,362863
5,402500	0,1	0,365670
5,404167	0,1	0,348828
5,405833	0,1	0,368271
5,407500	0,1	0,352255
5,409167	0,1	0,339903
5,410833	0,1	0,344839
5,412500	0,1	0,353496
5,414167	0,1	0,371498
5,415833	0,1	0,340641
5,417500	0,1	0,361081
5,419167	0,1	0,357215
5,420833	0,1	0,336121
5,422500	0,1	0,348554
5,424167	0,1	0,346155
5,425833	0,1	0,342728
5,427500	0,1	0,366668
5,429167	0,1	0,316213
5,430833	0,1	0,356004
5,432500	0,1	0,350584
5,434167	0,1	0,356390
5,435833	0,1	0,312360
5,437500	0,1	0,334953
5,439167	0,1	0,308884
5,440833	0,1	0,337557
5,442500	0,1	0,336807
5,444167	0,1	0,351447
5,445833	0,1	0,350827
5,447500	0,1	0,313204
5,449167	0,1	0,326211
5,450833	0,1	0,355849
5,452500	0,1	0,378330
5,454167	0,1	0,336729
5,455833	0,1	0,329355
5,457500	0,1	0,289772
5,459167	0,1	0,322043
5,460833	0,1	0,347750
5,462500	0,1	0,320746
5,464167	0,1	0,316980
5,465833	0,1	0,302918
5,467500	0,1	0,296842
5,469167	0,1	0,286939
5,470833	0,1	0,276368
5,472500	0,1	0,271651
5,474167	0,1	0,348183
5,475833	0,1	0,278410
5,477500	0,1	0,312387
5,479167	0,1	0,347458
5,480833	0,1	0,328110
5,482500	0,1	0,307750
5,484167	0,1	0,293261
5,485833	0,1	0,299108
5,487500	0,1	0,313704
5,489167	0,1	0,312038
5,490833	0,1	0,279514
5,492500	0,1	0,308849
5,494167	0,1	0,307100
5,495833	0,1	0,304519
5,497500	0,1	0,281647
5,499167	0,1	0,313055
5,500833	0,1	0,308812
5,502500	0,1	0,281294
5,504167	0,1	0,271924
5,505833	0,1	0,291807
5,507500	0,1	0,291587
5,509167	0,1	0,314301
5,510833	0,1	0,319315
5,512500	0,1	0,301650
5,514167	0,1	0,282092
5,515833	0,1	0,322021
5,517500	0,1	0,248529
5,519167	0,1	0,271735
5,520833	0,1	0,318837
5,522500	0,1	0,294332
5,524167	0,1	0,294772
5,525833	0,1	0,272657
5,527500	0,1	0,266356
5,529167	0,1	0,279728
5,530833	0,1	0,258708
5,532500	0,1	0,259769
5,534167	0,1	0,262507
5,535833	0,1	0,249201
5,537500	0,1	0,295249
5,539167	0,1	0,286939
5,540833	0,1	0,251035
5,542500	0,1	0,234188
5,544167	0,1	0,260788
5,545833	0,1	0,273541
5,547500	0,1	0,273923
5,549167	0,1	0,281352
5,550833	0,1	0,256549
5,552500	0,1	0,258389
5,554167	0,1	0,251135
5,555833	0,1	0,269045
5,557500	0,1	0,254345
5,559167	0,1	0,241259
5,560833	0,1	0,258204
5,562500	0,1	0,260395
5,564167	0,1	0,254387
5,565833	0,1	0,226779
5,567500	0,1	0,262499
5,569167	0,1	0,258523
5,570833	0,1	0,278948
5,572500	0,1	0,274279
5,574167	0,1	0,256988
5,575833	0,1	0,227465
5,577500	0,1	0,280828
5,579167	0,1	0,265200
5,580833	0,1	0,264599
5,582500	0,1	0,297813
5,584167	0,1	0,240089
5,585833	0,1	0,261766
5,587500	0,1	0,266397
5,589167	0,1	0,227914
5,590833	0,1	0,299826
5,592500	0,1	0,275261
5,594167	0,1	0,259684
5,595833	0,1	0,244131
5,597500	0,1	0,262190
5,599167	0,1	0,265601
5,600833	0,1	0,253363
5,602500	0,1	0,238678
5,604167	0,1	0,245995
5,605833	0,1	0,242771
5,607500	0,1	0,274802
5,609167	0,1	0,280663
5,610833	0,1	0,228588
5,612500	0,1	0,233132
5,614167	0,1	0,253245
5,615833	0,1	0,258768
5,617500	0,1	0,247958
5,619167	0,1	0,257945
5,620833	0,1	0,227160
5,622500	0,1	0,246324
5,624167	0,1	0,230737
5,625833	0,1	0,246613
5,627500	0,1	0,232937
5,629167	0,1	0,272955
5,630833	0,1	0,242222
5,632500	0,1	0,239056
5,634167	0,1	0,256516
5,635833	0,1	0,255898
5,637500	0,1	0,267889
5,639167	0,1	0,265112
5,640833	0,1	0,186763
5,642500	0,1	0,257503
5,644167	0,1	0,270470
5,645833	0,1	0,254588
5,647500	0,1	0,236323
5,649167	0,1	0,256918
5,650833	0,1	0,243039
5,652500	0,1	0,218613
5,654167	0,1	0,234892
5,655833	0,1	0,239567
5,657500	0,1	0,208159
5,659167	0,1	0,267763
5,660833	0,1	0,240418
5,662500	0,1	0,266661
5,664167	0,1	0,237037
5,665833	0,1	0,272890
5,667500	0,1	0,216198
5,669167	0,1	0,237892
5,670833	0,1	0,258897
5,672500	0,1	0,228252
5,674167	0,1	0,277157
5,675833	0,1	0,238197
5,677500	0,1	0,231066
5,679167	0,1	0,228286
5,680833	0,1	0,220703
5,682500	0,1	0,255708
5,684167	0,1	0,262348
5,685833	0,1	0,232967
5,687500	0,1	0,246573
5,689167	0,1	0,201687
5,690833	0,1	0,263939
5,692500	0,1	0,222911
5,694167	0,1	0,249372
5,695833	0,1	0,214363
5,697500	0,1	0,204061
5,699167	0,1	0,243605
5,700833	0,1	0,242060
5,702500	0,1	0,276424
5,704167	0,1	0,255655
5,705833	0,1	0,271892
5,707500	0,1	0,248425
5,709167	0,1	0,266748
5,710833	0,1	0,250161
5,712500	0,1	0,240970
5,714167	0,1	0,288308
5,715833	0,1	0,245584
5,717500	0,1	0,237677
5,719167	0,1	0,250600
5,720833	0,1	0,239795
5,722500	0,1	0,248461
5,724167	0,1	0,238455
5,725833	0,1	0,247507
5,727500	0,1	0,254317
5,729167	0,1	0,239747
5,730833	0,1	0,219968
5,732500	0,1	0,226860
5,734167	0,1	0,222297
5,735833	0,1	0,259826
5,737500	0,1	0,230228
5,739167	0,1	0,256761
5,740833	0,1	0,225622
5,742500	0,1	0,187713
5,744167	0,1	0,275680
5,745833	0,1	0,209037
5,747500	0,1	0,242671
5,749167	0,1	0,250512
5,750833	0,1	0,255029
5,752500	0,1	0,243750
5,754167	0,1	0,224551
5,755833	0,1	0,236736
5,757500	0,1	0,248417
5,759167	0,1	0,228779
5,760833	0,1	0,218520
5,762500	0,1	0,218160
5,764167	0,1	0,242831
5,765833	0,1	0,217703
5,767500	0,1	0,231905
5,769167	0,1	0,244372
5,770833	0,1	0,259319
5,772500	0,1	0,200664
5,774167	0,1	0,255902
5,775833	0,1	0,237521
5,777500	0,1	0,248840
5,779167	0,1	0,217059
5,780833	0,1	0,208394
5,782500	0,1	0,229058
5,784167	0,1	0,238698
5,785833	0,1	0,241388
5,787500	0,1	0,218745
5,789167	0,1	0,204260
5,790833	0,1	0,239023
5,792500	0,1	0,211410
5,794167	0,1	0,254954
5,795833	0,1	0,211520
5,797500	0,1	0,203571
5,799167	0,1	0,212642
5,800833	0,1	0,240157
5,802500	0,1	0,218522
5,804167	0,1	0,259180
5,805833	0,1	0,258836
5,807500	0,1	0,215169
5,809167	0,1	0,217448
5,810833	0,1	0,206996
5,812500	0,1	0,224608
5,814167	0,1	0,249059
5,815833	0,1	0,226867
5,817500	0,1	0,232777
5,819167	0,1	0,261590
5,820833	0,1	0,255320
5,822500	0,1	0,259462
5,824167	0,1	0,214657
5,825833	0,1	0,239671
5,827500	0,1	0,255447
5,829167	0,1	0,250471
5,830833	0,1	0,222220
5,832500	0,1	0,208750
5,834167	0,1	0,224519
5,835833	0,1	0,220361
5,837500	0,1	0,220965
5,839167	0,1	0,256626
5,840833	0,1	0,173954
5,842500	0,1	0,207747
5,844167	0,1	0,234863
5,845833	0,1	0,229735
5,847500	0,1	0,213581
5,849167	0,1	0,213131
5,850833	0,1	0,213339
5,852500	0,1	0,236561
5,854167	0,1	0,191166
5,855833	0,1	0,211349
5,857500	0,1	0,214000
5,859167	0,1	0,252463
5,860833	0,1	0,208651
5,862500	0,1	0,184682
5,864167	0,1	0,226736
5,865833	0,1	0,240898
5,867500	0,1	0,180334
5,869167	0,1	0,182411
5,870833	0,1	0,171041
5,872500	0,1	0,221450
5,874167	0,1	0,203996
5,875833	0,1	0,184996
5,877500	0,1	0,226852
5,879167	0,1	0,217699
5,880833	0,1	0,208262
5,882500	0,1	0,173942
5,884167	0,1	0,196377
5,885833	0,1	0,206676
5,887500	0,1	0,197318
5,889167	0,1	0,211242
5,890833	0,1	0,210560
5,892500	0,1	0,202572
5,894167	0,1	0,217984
5,895833	0,1	0,212695
5,897500	0,1	0,180036
5,899167	0,1	0,176830
5,900833	0,1	0,165748
5,902500	0,1	0,152766
5,904167	0,1	0,191500
5,905833	0,1	0,191641
5,907500	0,1	0,188062
5,909167	0,1	0,201789
5,910833	0,1	0,175768
5,912500	0,1	0,172984
5,914167	0,1	0,163705
5,915833	0,1	0,156004
5,917500	0,1	0,193949
5,919167	0,1	0,219428
5,920833	0,1	0,186554
5,922500	0,1	0,175053
5,924167	0,1	0,197535
5,925833	0,1	0,159039
5,927500	0,1	0,147105
5,929167	0,1	0,176598
5,930833	0,1	0,179383
5,932500	0,1	0,165457
5,934167	0,1	0,195283
5,935833	0,1	0,155301
5,937500	0,1	0,180206
5,939167	0,1	0,166643
5,940833	0,1	0,161387
5,942500	0,1	0,165834
5,944167	0,1	0,166928
5,945833	0,1	0,175721
5,947500	0,1	0,166774
5,949167	0,1	0,180565
5,950833	0,1	0,169445
5,952500	0,1	0,137631
5,954167	0,1	0,158116
5,955833	0,1	0,132691
5,957500	0,1	0,163670
5,959167	0,1	0,189766
5,960833	0,1	0,149942
5,962500	0,1	0,133625
5,964167	0,1	0,155113
5,965833	0,1	0,148394
5,967500	0,1	0,147246
5,969167	0,1	0,130162
5,970833	0,1	0,162983
5,972500	0,1	0,158279
5,974167	0,1	0,130915
5,975833	0,1	0,159023
5,977500	0,1	0,180827
5,979167	0,1	0,159008
5,980833	0,1	0,152646
5,982500	0,1	0,129427
5,984167	0,1	0,174080
5,985833	0,1	0,121114
5,987500	0,1	0,135671
5,989167	0,1	0,148903
5,990833	0,1	0,157474
5,992500	0,1	0,168926
5,994167	0,1	0,174419
5,995833	0,1	0,184701
5,997500	0,1	0,138016
5,999167	0,1	0,148376
6,000833	0,1	0,138045
