File Path	chrom://chromeleon01/ikbm_chromeleon/2022/Rezex/Esteban/220612_chitin_4_7.seq/342.smp/UV_VIS_1.channel/UV_VIS_1.chm
Channel	UV_VIS_1

Injection Information:
Data Vault	ikbm_chromeleon
Injection	CelS2_00.5h-EGS_3
Injection Number	108
Position	BB3
Comment	
Processing Method	New ProcMethod
Instrument Method	Short_Rezex_6min_194nm
Type	Unknown
Status	Finished
Injection Date	13.06.2022
Injection Time	04:47:07
Injection Volume (µl)	8,000
Dilution Factor	1,0000
Weight	1,0000

Chromatogram Data Information:
Time Min. (min)	0,000833
Time Max. (min)	6,000833
Data Points	3601
Detector	UV
Generating Data System	Chromeleon 7.2.9.11323
Exporting Data System	Chromeleon 7.2.9.0
Operator	Instrument Controller
Signal Quantity	Absorbance
Signal Unit	mAU
Signal Min.	-0,103708
Signal Max.	114,264162
Channel	UV_VIS_1
Driver Name	VWD3000.dll
Channel Type	Evaluation
Min. Step (s)	0,1
Max. Step (s)	0,1
Average Step (s)	0,1

Signal Parameter Information:
Signal Info	WVL:194 nm

Chromatogram Data:
Time (min)	Step (s)	Value (mAU)
0,000833	n.a.	-0,038127
0,002500	0,1	-0,036430
0,004167	0,1	-0,071692
0,005833	0,1	-0,053243
0,007500	0,1	-0,064163
0,009167	0,1	-0,049433
0,010833	0,1	-0,051106
0,012500	0,1	-0,032233
0,014167	0,1	-0,065255
0,015833	0,1	-0,059738
0,017500	0,1	-0,072733
0,019167	0,1	-0,079440
0,020833	0,1	-0,032673
0,022500	0,1	-0,023310
0,024167	0,1	-0,080008
0,025833	0,1	-0,062205
0,027500	0,1	-0,063524
0,029167	0,1	-0,045832
0,030833	0,1	-0,084689
0,032500	0,1	-0,094549
0,034167	0,1	-0,095976
0,035833	0,1	-0,070712
0,037500	0,1	-0,052518
0,039167	0,1	-0,099858
0,040833	0,1	-0,100179
0,042500	0,1	-0,063533
0,044167	0,1	-0,074120
0,045833	0,1	-0,075156
0,047500	0,1	-0,095601
0,049167	0,1	-0,078680
0,050833	0,1	-0,052830
0,052500	0,1	-0,050403
0,054167	0,1	-0,068365
0,055833	0,1	-0,062719
0,057500	0,1	-0,044425
0,059167	0,1	-0,025856
0,060833	0,1	-0,043691
0,062500	0,1	-0,046199
0,064167	0,1	-0,034426
0,065833	0,1	-0,078024
0,067500	0,1	-0,074309
0,069167	0,1	-0,083807
0,070833	0,1	-0,082941
0,072500	0,1	-0,051402
0,074167	0,1	-0,032109
0,075833	0,1	-0,061428
0,077500	0,1	-0,059923
0,079167	0,1	-0,029833
0,080833	0,1	-0,010001
0,082500	0,1	-0,067651
0,084167	0,1	-0,026463
0,085833	0,1	-0,018962
0,087500	0,1	-0,040255
0,089167	0,1	-0,018261
0,090833	0,1	-0,057678
0,092500	0,1	-0,033973
0,094167	0,1	-0,033883
0,095833	0,1	-0,024675
0,097500	0,1	-0,051078
0,099167	0,1	-0,035481
0,100833	0,1	-0,033739
0,102500	0,1	-0,060083
0,104167	0,1	-0,045273
0,105833	0,1	-0,057601
0,107500	0,1	-0,074034
0,109167	0,1	-0,035673
0,110833	0,1	-0,067264
0,112500	0,1	-0,066463
0,114167	0,1	-0,072483
0,115833	0,1	-0,060567
0,117500	0,1	-0,039208
0,119167	0,1	-0,035769
0,120833	0,1	-0,046901
0,122500	0,1	-0,094496
0,124167	0,1	-0,056187
0,125833	0,1	-0,076064
0,127500	0,1	-0,054422
0,129167	0,1	-0,079041
0,130833	0,1	-0,079959
0,132500	0,1	-0,045836
0,134167	0,1	-0,053960
0,135833	0,1	-0,056010
0,137500	0,1	-0,103708
0,139167	0,1	-0,041143
0,140833	0,1	-0,063643
0,142500	0,1	-0,053489
0,144167	0,1	-0,068738
0,145833	0,1	-0,030808
0,147500	0,1	-0,028171
0,149167	0,1	-0,039678
0,150833	0,1	-0,056710
0,152500	0,1	-0,044070
0,154167	0,1	-0,036101
0,155833	0,1	-0,070141
0,157500	0,1	-0,019633
0,159167	0,1	-0,021566
0,160833	0,1	-0,059024
0,162500	0,1	-0,041941
0,164167	0,1	-0,044605
0,165833	0,1	-0,074673
0,167500	0,1	-0,018165
0,169167	0,1	-0,024567
0,170833	0,1	-0,017511
0,172500	0,1	-0,016102
0,174167	0,1	-0,048656
0,175833	0,1	-0,036599
0,177500	0,1	-0,032623
0,179167	0,1	-0,033573
0,180833	0,1	-0,054992
0,182500	0,1	-0,013152
0,184167	0,1	-0,024628
0,185833	0,1	-0,032846
0,187500	0,1	-0,023991
0,189167	0,1	-0,050291
0,190833	0,1	-0,037799
0,192500	0,1	-0,064636
0,194167	0,1	-0,019819
0,195833	0,1	-0,001265
0,197500	0,1	-0,049294
0,199167	0,1	-0,015884
0,200833	0,1	-0,043462
0,202500	0,1	-0,073889
0,204167	0,1	-0,017068
0,205833	0,1	-0,045138
0,207500	0,1	-0,023870
0,209167	0,1	-0,010434
0,210833	0,1	-0,058029
0,212500	0,1	-0,022465
0,214167	0,1	-0,075579
0,215833	0,1	-0,041840
0,217500	0,1	-0,005679
0,219167	0,1	-0,056786
0,220833	0,1	-0,012387
0,222500	0,1	-0,022124
0,224167	0,1	-0,027508
0,225833	0,1	-0,062171
0,227500	0,1	-0,006574
0,229167	0,1	0,017426
0,230833	0,1	-0,038424
0,232500	0,1	0,005353
0,234167	0,1	-0,063529
0,235833	0,1	-0,061249
0,237500	0,1	0,006650
0,239167	0,1	-0,008420
0,240833	0,1	-0,036837
0,242500	0,1	0,003553
0,244167	0,1	-0,033317
0,245833	0,1	-0,013808
0,247500	0,1	-0,014468
0,249167	0,1	-0,066060
0,250833	0,1	-0,002186
0,252500	0,1	-0,010262
0,254167	0,1	-0,052938
0,255833	0,1	-0,038090
0,257500	0,1	0,002953
0,259167	0,1	-0,035096
0,260833	0,1	-0,040816
0,262500	0,1	-0,023414
0,264167	0,1	-0,047458
0,265833	0,1	0,017396
0,267500	0,1	-0,008873
0,269167	0,1	-0,014280
0,270833	0,1	-0,044577
0,272500	0,1	-0,025856
0,274167	0,1	-0,022644
0,275833	0,1	-0,036531
0,277500	0,1	0,006967
0,279167	0,1	-0,039545
0,280833	0,1	-0,034507
0,282500	0,1	0,004299
0,284167	0,1	-0,007881
0,285833	0,1	0,001841
0,287500	0,1	-0,018975
0,289167	0,1	-0,039365
0,290833	0,1	0,018413
0,292500	0,1	0,018778
0,294167	0,1	0,004499
0,295833	0,1	0,019684
0,297500	0,1	-0,032649
0,299167	0,1	-0,005759
0,300833	0,1	0,004346
0,302500	0,1	0,021177
0,304167	0,1	-0,028345
0,305833	0,1	0,017195
0,307500	0,1	-0,010444
0,309167	0,1	-0,026883
0,310833	0,1	-0,021382
0,312500	0,1	0,000391
0,314167	0,1	-0,032117
0,315833	0,1	-0,003854
0,317500	0,1	0,014985
0,319167	0,1	0,006319
0,320833	0,1	0,020162
0,322500	0,1	-0,022489
0,324167	0,1	0,003000
0,325833	0,1	0,041498
0,327500	0,1	-0,039475
0,329167	0,1	-0,015466
0,330833	0,1	-0,005195
0,332500	0,1	0,010618
0,334167	0,1	0,015363
0,335833	0,1	0,008138
0,337500	0,1	-0,016263
0,339167	0,1	0,022518
0,340833	0,1	-0,053986
0,342500	0,1	-0,009054
0,344167	0,1	-0,017923
0,345833	0,1	0,036384
0,347500	0,1	-0,004914
0,349167	0,1	-0,067858
0,350833	0,1	0,013357
0,352500	0,1	0,012135
0,354167	0,1	-0,008148
0,355833	0,1	0,008942
0,357500	0,1	0,017804
0,359167	0,1	0,030867
0,360833	0,1	-0,005040
0,362500	0,1	0,005940
0,364167	0,1	0,017203
0,365833	0,1	0,052534
0,367500	0,1	0,047018
0,369167	0,1	-0,024718
0,370833	0,1	0,022287
0,372500	0,1	-0,019114
0,374167	0,1	0,016930
0,375833	0,1	0,031633
0,377500	0,1	0,016256
0,379167	0,1	-0,002559
0,380833	0,1	-0,001385
0,382500	0,1	-0,016036
0,384167	0,1	-0,027670
0,385833	0,1	0,017569
0,387500	0,1	-0,026070
0,389167	0,1	-0,015257
0,390833	0,1	0,015954
0,392500	0,1	0,043222
0,394167	0,1	0,021662
0,395833	0,1	0,008245
0,397500	0,1	-0,011730
0,399167	0,1	-0,006684
0,400833	0,1	0,019063
0,402500	0,1	0,055476
0,404167	0,1	0,026112
0,405833	0,1	0,031942
0,407500	0,1	-0,008660
0,409167	0,1	0,020657
0,410833	0,1	-0,016610
0,412500	0,1	0,004615
0,414167	0,1	0,017141
0,415833	0,1	0,025547
0,417500	0,1	0,068203
0,419167	0,1	0,054080
0,420833	0,1	0,040023
0,422500	0,1	0,047226
0,424167	0,1	0,059062
0,425833	0,1	0,053852
0,427500	0,1	-0,003358
0,429167	0,1	0,029680
0,430833	0,1	0,039857
0,432500	0,1	0,012037
0,434167	0,1	0,015961
0,435833	0,1	0,036226
0,437500	0,1	0,022507
0,439167	0,1	0,013090
0,440833	0,1	0,012878
0,442500	0,1	0,021798
0,444167	0,1	-0,010361
0,445833	0,1	0,041932
0,447500	0,1	0,018454
0,449167	0,1	0,012323
0,450833	0,1	0,044237
0,452500	0,1	0,036978
0,454167	0,1	0,057843
0,455833	0,1	0,009930
0,457500	0,1	0,071532
0,459167	0,1	0,016764
0,460833	0,1	0,037055
0,462500	0,1	-0,005474
0,464167	0,1	0,027817
0,465833	0,1	0,030846
0,467500	0,1	0,071662
0,469167	0,1	0,028563
0,470833	0,1	0,050511
0,472500	0,1	0,051055
0,474167	0,1	0,033317
0,475833	0,1	0,041506
0,477500	0,1	0,059435
0,479167	0,1	-0,000562
0,480833	0,1	0,032663
0,482500	0,1	0,013921
0,484167	0,1	0,061791
0,485833	0,1	0,017155
0,487500	0,1	0,055392
0,489167	0,1	0,035493
0,490833	0,1	0,033477
0,492500	0,1	0,083151
0,494167	0,1	0,059279
0,495833	0,1	0,011112
0,497500	0,1	0,049450
0,499167	0,1	0,006988
0,500833	0,1	0,021053
0,502500	0,1	0,016048
0,504167	0,1	0,037384
0,505833	0,1	0,084873
0,507500	0,1	0,005694
0,509167	0,1	0,066586
0,510833	0,1	0,059174
0,512500	0,1	0,054823
0,514167	0,1	0,076513
0,515833	0,1	0,062198
0,517500	0,1	0,070082
0,519167	0,1	0,060850
0,520833	0,1	0,070182
0,522500	0,1	0,016060
0,524167	0,1	0,045663
0,525833	0,1	0,042299
0,527500	0,1	0,043973
0,529167	0,1	0,036438
0,530833	0,1	0,043743
0,532500	0,1	0,012267
0,534167	0,1	0,067854
0,535833	0,1	0,034292
0,537500	0,1	0,026089
0,539167	0,1	0,076444
0,540833	0,1	0,044332
0,542500	0,1	0,037516
0,544167	0,1	0,079530
0,545833	0,1	0,048161
0,547500	0,1	0,025287
0,549167	0,1	0,049869
0,550833	0,1	0,000304
0,552500	0,1	0,103223
0,554167	0,1	0,077229
0,555833	0,1	0,081902
0,557500	0,1	0,052158
0,559167	0,1	0,052276
0,560833	0,1	0,083719
0,562500	0,1	0,047236
0,564167	0,1	0,053620
0,565833	0,1	0,064384
0,567500	0,1	0,054699
0,569167	0,1	0,078539
0,570833	0,1	0,063645
0,572500	0,1	0,065050
0,574167	0,1	0,080967
0,575833	0,1	0,087491
0,577500	0,1	0,103269
0,579167	0,1	0,031239
0,580833	0,1	0,079472
0,582500	0,1	0,068944
0,584167	0,1	0,087864
0,585833	0,1	0,041792
0,587500	0,1	0,051382
0,589167	0,1	0,064321
0,590833	0,1	0,107668
0,592500	0,1	0,069780
0,594167	0,1	0,085210
0,595833	0,1	0,078305
0,597500	0,1	0,089149
0,599167	0,1	0,093644
0,600833	0,1	0,050878
0,602500	0,1	0,081214
0,604167	0,1	0,101217
0,605833	0,1	0,080851
0,607500	0,1	0,053653
0,609167	0,1	0,087053
0,610833	0,1	0,087179
0,612500	0,1	0,094386
0,614167	0,1	0,090772
0,615833	0,1	0,098425
0,617500	0,1	0,071453
0,619167	0,1	0,123739
0,620833	0,1	0,098144
0,622500	0,1	0,094325
0,624167	0,1	0,112897
0,625833	0,1	0,135212
0,627500	0,1	0,102865
0,629167	0,1	0,078638
0,630833	0,1	0,098259
0,632500	0,1	0,079504
0,634167	0,1	0,119123
0,635833	0,1	0,121925
0,637500	0,1	0,081419
0,639167	0,1	0,131519
0,640833	0,1	0,124683
0,642500	0,1	0,100937
0,644167	0,1	0,111387
0,645833	0,1	0,100871
0,647500	0,1	0,101510
0,649167	0,1	0,130554
0,650833	0,1	0,115082
0,652500	0,1	0,090464
0,654167	0,1	0,131028
0,655833	0,1	0,149084
0,657500	0,1	0,138102
0,659167	0,1	0,129984
0,660833	0,1	0,133731
0,662500	0,1	0,122633
0,664167	0,1	0,135052
0,665833	0,1	0,138740
0,667500	0,1	0,148305
0,669167	0,1	0,091630
0,670833	0,1	0,125418
0,672500	0,1	0,116527
0,674167	0,1	0,171405
0,675833	0,1	0,131011
0,677500	0,1	0,157844
0,679167	0,1	0,164646
0,680833	0,1	0,131009
0,682500	0,1	0,121312
0,684167	0,1	0,124479
0,685833	0,1	0,118452
0,687500	0,1	0,164157
0,689167	0,1	0,139101
0,690833	0,1	0,186916
0,692500	0,1	0,135091
0,694167	0,1	0,139382
0,695833	0,1	0,134186
0,697500	0,1	0,164703
0,699167	0,1	0,119520
0,700833	0,1	0,176768
0,702500	0,1	0,159126
0,704167	0,1	0,195454
0,705833	0,1	0,184261
0,707500	0,1	0,166161
0,709167	0,1	0,163853
0,710833	0,1	0,182580
0,712500	0,1	0,169810
0,714167	0,1	0,191932
0,715833	0,1	0,191611
0,717500	0,1	0,210425
0,719167	0,1	0,181787
0,720833	0,1	0,201009
0,722500	0,1	0,198169
0,724167	0,1	0,213499
0,725833	0,1	0,181862
0,727500	0,1	0,225050
0,729167	0,1	0,220756
0,730833	0,1	0,211253
0,732500	0,1	0,243120
0,734167	0,1	0,215246
0,735833	0,1	0,206983
0,737500	0,1	0,222036
0,739167	0,1	0,223133
0,740833	0,1	0,190033
0,742500	0,1	0,232654
0,744167	0,1	0,233053
0,745833	0,1	0,233732
0,747500	0,1	0,252855
0,749167	0,1	0,271955
0,750833	0,1	0,280857
0,752500	0,1	0,297424
0,754167	0,1	0,258104
0,755833	0,1	0,254018
0,757500	0,1	0,244088
0,759167	0,1	0,243355
0,760833	0,1	0,232442
0,762500	0,1	0,286533
0,764167	0,1	0,282750
0,765833	0,1	0,263780
0,767500	0,1	0,328498
0,769167	0,1	0,279035
0,770833	0,1	0,287242
0,772500	0,1	0,298971
0,774167	0,1	0,281950
0,775833	0,1	0,285832
0,777500	0,1	0,288084
0,779167	0,1	0,283075
0,780833	0,1	0,275724
0,782500	0,1	0,294277
0,784167	0,1	0,286387
0,785833	0,1	0,252289
0,787500	0,1	0,289777
0,789167	0,1	0,258934
0,790833	0,1	0,298900
0,792500	0,1	0,279770
0,794167	0,1	0,226673
0,795833	0,1	0,224545
0,797500	0,1	0,266659
0,799167	0,1	0,254020
0,800833	0,1	0,285889
0,802500	0,1	0,259639
0,804167	0,1	0,288331
0,805833	0,1	0,274568
0,807500	0,1	0,253055
0,809167	0,1	0,270988
0,810833	0,1	0,262818
0,812500	0,1	0,276713
0,814167	0,1	0,265668
0,815833	0,1	0,261108
0,817500	0,1	0,258792
0,819167	0,1	0,257516
0,820833	0,1	0,277671
0,822500	0,1	0,263589
0,824167	0,1	0,265672
0,825833	0,1	0,259697
0,827500	0,1	0,235592
0,829167	0,1	0,255323
0,830833	0,1	0,289841
0,832500	0,1	0,246512
0,834167	0,1	0,249974
0,835833	0,1	0,259376
0,837500	0,1	0,254306
0,839167	0,1	0,265092
0,840833	0,1	0,280375
0,842500	0,1	0,255442
0,844167	0,1	0,253122
0,845833	0,1	0,295074
0,847500	0,1	0,222019
0,849167	0,1	0,264669
0,850833	0,1	0,244868
0,852500	0,1	0,255072
0,854167	0,1	0,283448
0,855833	0,1	0,257677
0,857500	0,1	0,216723
0,859167	0,1	0,280300
0,860833	0,1	0,235306
0,862500	0,1	0,251796
0,864167	0,1	0,250165
0,865833	0,1	0,278184
0,867500	0,1	0,275884
0,869167	0,1	0,226609
0,870833	0,1	0,241586
0,872500	0,1	0,264285
0,874167	0,1	0,260529
0,875833	0,1	0,253440
0,877500	0,1	0,295907
0,879167	0,1	0,271487
0,880833	0,1	0,239772
0,882500	0,1	0,276617
0,884167	0,1	0,257005
0,885833	0,1	0,248266
0,887500	0,1	0,281049
0,889167	0,1	0,261753
0,890833	0,1	0,277030
0,892500	0,1	0,267086
0,894167	0,1	0,264228
0,895833	0,1	0,269427
0,897500	0,1	0,303297
0,899167	0,1	0,281951
0,900833	0,1	0,250877
0,902500	0,1	0,281782
0,904167	0,1	0,260541
0,905833	0,1	0,322232
0,907500	0,1	0,302471
0,909167	0,1	0,273124
0,910833	0,1	0,270295
0,912500	0,1	0,273922
0,914167	0,1	0,265316
0,915833	0,1	0,302908
0,917500	0,1	0,234353
0,919167	0,1	0,273723
0,920833	0,1	0,263812
0,922500	0,1	0,274272
0,924167	0,1	0,302940
0,925833	0,1	0,298389
0,927500	0,1	0,333191
0,929167	0,1	0,272878
0,930833	0,1	0,264518
0,932500	0,1	0,278993
0,934167	0,1	0,282143
0,935833	0,1	0,291513
0,937500	0,1	0,291325
0,939167	0,1	0,327699
0,940833	0,1	0,286161
0,942500	0,1	0,310648
0,944167	0,1	0,339610
0,945833	0,1	0,310470
0,947500	0,1	0,328504
0,949167	0,1	0,325107
0,950833	0,1	0,345876
0,952500	0,1	0,325493
0,954167	0,1	0,329404
0,955833	0,1	0,310628
0,957500	0,1	0,307831
0,959167	0,1	0,338231
0,960833	0,1	0,307547
0,962500	0,1	0,304711
0,964167	0,1	0,387387
0,965833	0,1	0,345731
0,967500	0,1	0,322606
0,969167	0,1	0,317204
0,970833	0,1	0,375893
0,972500	0,1	0,373917
0,974167	0,1	0,334812
0,975833	0,1	0,373329
0,977500	0,1	0,357285
0,979167	0,1	0,351403
0,980833	0,1	0,338208
0,982500	0,1	0,378019
0,984167	0,1	0,375521
0,985833	0,1	0,375587
0,987500	0,1	0,401143
0,989167	0,1	0,412966
0,990833	0,1	0,341238
0,992500	0,1	0,387358
0,994167	0,1	0,399669
0,995833	0,1	0,405289
0,997500	0,1	0,406961
0,999167	0,1	0,460491
1,000833	0,1	0,437640
1,002500	0,1	0,447461
1,004167	0,1	0,455042
1,005833	0,1	0,477458
1,007500	0,1	0,520657
1,009167	0,1	0,443113
1,010833	0,1	0,463100
1,012500	0,1	0,489857
1,014167	0,1	0,520083
1,015833	0,1	0,542702
1,017500	0,1	0,537503
1,019167	0,1	0,516114
1,020833	0,1	0,545977
1,022500	0,1	0,590601
1,024167	0,1	0,573872
1,025833	0,1	0,582062
1,027500	0,1	0,591123
1,029167	0,1	0,632466
1,030833	0,1	0,592102
1,032500	0,1	0,621711
1,034167	0,1	0,667487
1,035833	0,1	0,637727
1,037500	0,1	0,626602
1,039167	0,1	0,671568
1,040833	0,1	0,683471
1,042500	0,1	0,667223
1,044167	0,1	0,697382
1,045833	0,1	0,693218
1,047500	0,1	0,746412
1,049167	0,1	0,721795
1,050833	0,1	0,730524
1,052500	0,1	0,768576
1,054167	0,1	0,754130
1,055833	0,1	0,811305
1,057500	0,1	0,858558
1,059167	0,1	0,868749
1,060833	0,1	0,978537
1,062500	0,1	1,082813
1,064167	0,1	1,234215
1,065833	0,1	1,372841
1,067500	0,1	1,646056
1,069167	0,1	1,906956
1,070833	0,1	2,245962
1,072500	0,1	2,706809
1,074167	0,1	3,230662
1,075833	0,1	3,836395
1,077500	0,1	4,598030
1,079167	0,1	5,455108
1,080833	0,1	6,476327
1,082500	0,1	7,620576
1,084167	0,1	8,822595
1,085833	0,1	10,224704
1,087500	0,1	11,766017
1,089167	0,1	13,339180
1,090833	0,1	15,031177
1,092500	0,1	16,793068
1,094167	0,1	18,575615
1,095833	0,1	20,419463
1,097500	0,1	22,175607
1,099167	0,1	23,957630
1,100833	0,1	25,597599
1,102500	0,1	27,183672
1,104167	0,1	28,629170
1,105833	0,1	29,987898
1,107500	0,1	31,152828
1,109167	0,1	32,227571
1,110833	0,1	33,088564
1,112500	0,1	33,825054
1,114167	0,1	34,414131
1,115833	0,1	34,844621
1,117500	0,1	35,205846
1,119167	0,1	35,402203
1,120833	0,1	35,517062
1,122500	0,1	35,571926
1,124167	0,1	35,518080
1,125833	0,1	35,439848
1,127500	0,1	35,321961
1,129167	0,1	35,200439
1,130833	0,1	35,079768
1,132500	0,1	34,906826
1,134167	0,1	34,807202
1,135833	0,1	34,740660
1,137500	0,1	34,667661
1,139167	0,1	34,684350
1,140833	0,1	34,759590
1,142500	0,1	34,898930
1,144167	0,1	35,175997
1,145833	0,1	35,405392
1,147500	0,1	35,841453
1,149167	0,1	36,287016
1,150833	0,1	36,848286
1,152500	0,1	37,505629
1,154167	0,1	38,210241
1,155833	0,1	38,982948
1,157500	0,1	39,829659
1,159167	0,1	40,720635
1,160833	0,1	41,677470
1,162500	0,1	42,648567
1,164167	0,1	43,645009
1,165833	0,1	44,665116
1,167500	0,1	45,608175
1,169167	0,1	46,552389
1,170833	0,1	47,545736
1,172500	0,1	48,376837
1,174167	0,1	49,218340
1,175833	0,1	50,029192
1,177500	0,1	50,708478
1,179167	0,1	51,378205
1,180833	0,1	51,946276
1,182500	0,1	52,432085
1,184167	0,1	52,866253
1,185833	0,1	53,215566
1,187500	0,1	53,481986
1,189167	0,1	53,708229
1,190833	0,1	53,888180
1,192500	0,1	54,064651
1,194167	0,1	54,232606
1,195833	0,1	54,377985
1,197500	0,1	54,556592
1,199167	0,1	54,799697
1,200833	0,1	55,102076
1,202500	0,1	55,448186
1,204167	0,1	55,956984
1,205833	0,1	56,710230
1,207500	0,1	57,507735
1,209167	0,1	58,521583
1,210833	0,1	59,750116
1,212500	0,1	61,221980
1,214167	0,1	62,874149
1,215833	0,1	64,663038
1,217500	0,1	66,779702
1,219167	0,1	69,024831
1,220833	0,1	71,475056
1,222500	0,1	74,083519
1,224167	0,1	76,840922
1,225833	0,1	79,634224
1,227500	0,1	82,554964
1,229167	0,1	85,507765
1,230833	0,1	88,419065
1,232500	0,1	91,323660
1,234167	0,1	94,194829
1,235833	0,1	96,858324
1,237500	0,1	99,457087
1,239167	0,1	101,885732
1,240833	0,1	104,164202
1,242500	0,1	106,249281
1,244167	0,1	108,057390
1,245833	0,1	109,682789
1,247500	0,1	110,991036
1,249167	0,1	112,141162
1,250833	0,1	113,046667
1,252500	0,1	113,681222
1,254167	0,1	114,120942
1,255833	0,1	114,264162
1,257500	0,1	114,170590
1,259167	0,1	113,857405
1,260833	0,1	113,295353
1,262500	0,1	112,587428
1,264167	0,1	111,572103
1,265833	0,1	110,445807
1,267500	0,1	109,064474
1,269167	0,1	107,555727
1,270833	0,1	105,944296
1,272500	0,1	104,137338
1,274167	0,1	102,146467
1,275833	0,1	100,051989
1,277500	0,1	97,928950
1,279167	0,1	95,630688
1,280833	0,1	93,413763
1,282500	0,1	90,990362
1,284167	0,1	88,534334
1,285833	0,1	86,106264
1,287500	0,1	83,686312
1,289167	0,1	81,199771
1,290833	0,1	78,810081
1,292500	0,1	76,399470
1,294167	0,1	74,032835
1,295833	0,1	71,659981
1,297500	0,1	69,379669
1,299167	0,1	67,121942
1,300833	0,1	64,939086
1,302500	0,1	62,861468
1,304167	0,1	60,818718
1,305833	0,1	58,818635
1,307500	0,1	56,951831
1,309167	0,1	55,123838
1,310833	0,1	53,334230
1,312500	0,1	51,698714
1,314167	0,1	50,035377
1,315833	0,1	48,513628
1,317500	0,1	47,027124
1,319167	0,1	45,616965
1,320833	0,1	44,263969
1,322500	0,1	42,935862
1,324167	0,1	41,690448
1,325833	0,1	40,480924
1,327500	0,1	39,356040
1,329167	0,1	38,283098
1,330833	0,1	37,196933
1,332500	0,1	36,210191
1,334167	0,1	35,238234
1,335833	0,1	34,309565
1,337500	0,1	33,429631
1,339167	0,1	32,525707
1,340833	0,1	31,727208
1,342500	0,1	30,918021
1,344167	0,1	30,122896
1,345833	0,1	29,384797
1,347500	0,1	28,658428
1,349167	0,1	27,945094
1,350833	0,1	27,219632
1,352500	0,1	26,579204
1,354167	0,1	25,907439
1,355833	0,1	25,297838
1,357500	0,1	24,710038
1,359167	0,1	24,123375
1,360833	0,1	23,533152
1,362500	0,1	22,974599
1,364167	0,1	22,421848
1,365833	0,1	21,881288
1,367500	0,1	21,387685
1,369167	0,1	20,883085
1,370833	0,1	20,352208
1,372500	0,1	19,854635
1,374167	0,1	19,412106
1,375833	0,1	18,952136
1,377500	0,1	18,522130
1,379167	0,1	18,048948
1,380833	0,1	17,682930
1,382500	0,1	17,263976
1,384167	0,1	16,892049
1,385833	0,1	16,499015
1,387500	0,1	16,111238
1,389167	0,1	15,756131
1,390833	0,1	15,459830
1,392500	0,1	15,048817
1,394167	0,1	14,736033
1,395833	0,1	14,464197
1,397500	0,1	14,142415
1,399167	0,1	13,808875
1,400833	0,1	13,563810
1,402500	0,1	13,244789
1,404167	0,1	12,973149
1,405833	0,1	12,732742
1,407500	0,1	12,492250
1,409167	0,1	12,198082
1,410833	0,1	12,034205
1,412500	0,1	11,797781
1,414167	0,1	11,591315
1,415833	0,1	11,365901
1,417500	0,1	11,215172
1,419167	0,1	10,993115
1,420833	0,1	10,778989
1,422500	0,1	10,654584
1,424167	0,1	10,436264
1,425833	0,1	10,288162
1,427500	0,1	10,125440
1,429167	0,1	9,984291
1,430833	0,1	9,808291
1,432500	0,1	9,703053
1,434167	0,1	9,513411
1,435833	0,1	9,428451
1,437500	0,1	9,239368
1,439167	0,1	9,160652
1,440833	0,1	9,040363
1,442500	0,1	8,884647
1,444167	0,1	8,762696
1,445833	0,1	8,632360
1,447500	0,1	8,573354
1,449167	0,1	8,444120
1,450833	0,1	8,359031
1,452500	0,1	8,200958
1,454167	0,1	8,124871
1,455833	0,1	8,004526
1,457500	0,1	7,935018
1,459167	0,1	7,832639
1,460833	0,1	7,763385
1,462500	0,1	7,659593
1,464167	0,1	7,593525
1,465833	0,1	7,496719
1,467500	0,1	7,402702
1,469167	0,1	7,364830
1,470833	0,1	7,241694
1,472500	0,1	7,183703
1,474167	0,1	7,109243
1,475833	0,1	7,055565
1,477500	0,1	7,020994
1,479167	0,1	6,925800
1,480833	0,1	6,865249
1,482500	0,1	6,808714
1,484167	0,1	6,759371
1,485833	0,1	6,719882
1,487500	0,1	6,663372
1,489167	0,1	6,624457
1,490833	0,1	6,613369
1,492500	0,1	6,559122
1,494167	0,1	6,521333
1,495833	0,1	6,437120
1,497500	0,1	6,464646
1,499167	0,1	6,459164
1,500833	0,1	6,411992
1,502500	0,1	6,392932
1,504167	0,1	6,384743
1,505833	0,1	6,358104
1,507500	0,1	6,336262
1,509167	0,1	6,304204
1,510833	0,1	6,276830
1,512500	0,1	6,265457
1,514167	0,1	6,225962
1,515833	0,1	6,251885
1,517500	0,1	6,188649
1,519167	0,1	6,196084
1,520833	0,1	6,152609
1,522500	0,1	6,173051
1,524167	0,1	6,105269
1,525833	0,1	6,117898
1,527500	0,1	6,074690
1,529167	0,1	6,087142
1,530833	0,1	6,052091
1,532500	0,1	6,087125
1,534167	0,1	6,022521
1,535833	0,1	6,024559
1,537500	0,1	5,932534
1,539167	0,1	5,974020
1,540833	0,1	5,932847
1,542500	0,1	5,911566
1,544167	0,1	5,869155
1,545833	0,1	5,856998
1,547500	0,1	5,876341
1,549167	0,1	5,824116
1,550833	0,1	5,847336
1,552500	0,1	5,776346
1,554167	0,1	5,748391
1,555833	0,1	5,730373
1,557500	0,1	5,701274
1,559167	0,1	5,639127
1,560833	0,1	5,631544
1,562500	0,1	5,642766
1,564167	0,1	5,579901
1,565833	0,1	5,583070
1,567500	0,1	5,556600
1,569167	0,1	5,514530
1,570833	0,1	5,506376
1,572500	0,1	5,430031
1,574167	0,1	5,400412
1,575833	0,1	5,428903
1,577500	0,1	5,377245
1,579167	0,1	5,353003
1,580833	0,1	5,302705
1,582500	0,1	5,254328
1,584167	0,1	5,255382
1,585833	0,1	5,216934
1,587500	0,1	5,210424
1,589167	0,1	5,184680
1,590833	0,1	5,099656
1,592500	0,1	5,116654
1,594167	0,1	5,063878
1,595833	0,1	5,050264
1,597500	0,1	5,029378
1,599167	0,1	5,007023
1,600833	0,1	4,990228
1,602500	0,1	4,961531
1,604167	0,1	4,882641
1,605833	0,1	4,852288
1,607500	0,1	4,881768
1,609167	0,1	4,806936
1,610833	0,1	4,824497
1,612500	0,1	4,789605
1,614167	0,1	4,728675
1,615833	0,1	4,724102
1,617500	0,1	4,670537
1,619167	0,1	4,656107
1,620833	0,1	4,649254
1,622500	0,1	4,680745
1,624167	0,1	4,612028
1,625833	0,1	4,553491
1,627500	0,1	4,554856
1,629167	0,1	4,561365
1,630833	0,1	4,448588
1,632500	0,1	4,454348
1,634167	0,1	4,505351
1,635833	0,1	4,417498
1,637500	0,1	4,436750
1,639167	0,1	4,394836
1,640833	0,1	4,358978
1,642500	0,1	4,413933
1,644167	0,1	4,373077
1,645833	0,1	4,351278
1,647500	0,1	4,346699
1,649167	0,1	4,368645
1,650833	0,1	4,343214
1,652500	0,1	4,338713
1,654167	0,1	4,387235
1,655833	0,1	4,370518
1,657500	0,1	4,383399
1,659167	0,1	4,382106
1,660833	0,1	4,456561
1,662500	0,1	4,498376
1,664167	0,1	4,445652
1,665833	0,1	4,519008
1,667500	0,1	4,574736
1,669167	0,1	4,545750
1,670833	0,1	4,638017
1,672500	0,1	4,689058
1,674167	0,1	4,766086
1,675833	0,1	4,874304
1,677500	0,1	4,928857
1,679167	0,1	4,997828
1,680833	0,1	5,112734
1,682500	0,1	5,184656
1,684167	0,1	5,289982
1,685833	0,1	5,452503
1,687500	0,1	5,547967
1,689167	0,1	5,663158
1,690833	0,1	5,789446
1,692500	0,1	5,971650
1,694167	0,1	6,077039
1,695833	0,1	6,265690
1,697500	0,1	6,417457
1,699167	0,1	6,573588
1,700833	0,1	6,763034
1,702500	0,1	6,966436
1,704167	0,1	7,171527
1,705833	0,1	7,334973
1,707500	0,1	7,509337
1,709167	0,1	7,698189
1,710833	0,1	7,950821
1,712500	0,1	8,118846
1,714167	0,1	8,336141
1,715833	0,1	8,536689
1,717500	0,1	8,772404
1,719167	0,1	8,997682
1,720833	0,1	9,192701
1,722500	0,1	9,382346
1,724167	0,1	9,612633
1,725833	0,1	9,804264
1,727500	0,1	10,004063
1,729167	0,1	10,190617
1,730833	0,1	10,409043
1,732500	0,1	10,591767
1,734167	0,1	10,816871
1,735833	0,1	10,949268
1,737500	0,1	11,146286
1,739167	0,1	11,312785
1,740833	0,1	11,490166
1,742500	0,1	11,628555
1,744167	0,1	11,798803
1,745833	0,1	11,953646
1,747500	0,1	12,074654
1,749167	0,1	12,222705
1,750833	0,1	12,339746
1,752500	0,1	12,441637
1,754167	0,1	12,484391
1,755833	0,1	12,667288
1,757500	0,1	12,717440
1,759167	0,1	12,759975
1,760833	0,1	12,854453
1,762500	0,1	12,909449
1,764167	0,1	12,914959
1,765833	0,1	12,991576
1,767500	0,1	13,049744
1,769167	0,1	13,007745
1,770833	0,1	13,040582
1,772500	0,1	13,055286
1,774167	0,1	13,047739
1,775833	0,1	13,014808
1,777500	0,1	12,996740
1,779167	0,1	12,955029
1,780833	0,1	12,910404
1,782500	0,1	12,851574
1,784167	0,1	12,802812
1,785833	0,1	12,707022
1,787500	0,1	12,676590
1,789167	0,1	12,586027
1,790833	0,1	12,466007
1,792500	0,1	12,353477
1,794167	0,1	12,275179
1,795833	0,1	12,140316
1,797500	0,1	12,071478
1,799167	0,1	11,930550
1,800833	0,1	11,798058
1,802500	0,1	11,666366
1,804167	0,1	11,542956
1,805833	0,1	11,423123
1,807500	0,1	11,261065
1,809167	0,1	11,118379
1,810833	0,1	10,978393
1,812500	0,1	10,848695
1,814167	0,1	10,658223
1,815833	0,1	10,533211
1,817500	0,1	10,328356
1,819167	0,1	10,184606
1,820833	0,1	10,043594
1,822500	0,1	9,868300
1,824167	0,1	9,726706
1,825833	0,1	9,581271
1,827500	0,1	9,392580
1,829167	0,1	9,252398
1,830833	0,1	9,077340
1,832500	0,1	8,888934
1,834167	0,1	8,765038
1,835833	0,1	8,616049
1,837500	0,1	8,553295
1,839167	0,1	8,372138
1,840833	0,1	8,230384
1,842500	0,1	8,116593
1,844167	0,1	8,001009
1,845833	0,1	7,896205
1,847500	0,1	7,811084
1,849167	0,1	7,711687
1,850833	0,1	7,637861
1,852500	0,1	7,489844
1,854167	0,1	7,459958
1,855833	0,1	7,378466
1,857500	0,1	7,296051
1,859167	0,1	7,268997
1,860833	0,1	7,192661
1,862500	0,1	7,157227
1,864167	0,1	7,114080
1,865833	0,1	7,027253
1,867500	0,1	6,951133
1,869167	0,1	6,940218
1,870833	0,1	6,896449
1,872500	0,1	6,819434
1,874167	0,1	6,759738
1,875833	0,1	6,687580
1,877500	0,1	6,668852
1,879167	0,1	6,638138
1,880833	0,1	6,575978
1,882500	0,1	6,561828
1,884167	0,1	6,509697
1,885833	0,1	6,446052
1,887500	0,1	6,383340
1,889167	0,1	6,350952
1,890833	0,1	6,311891
1,892500	0,1	6,268190
1,894167	0,1	6,218894
1,895833	0,1	6,191727
1,897500	0,1	6,183001
1,899167	0,1	6,153042
1,900833	0,1	6,071599
1,902500	0,1	6,047697
1,904167	0,1	6,016034
1,905833	0,1	5,996395
1,907500	0,1	5,947145
1,909167	0,1	5,918516
1,910833	0,1	5,879031
1,912500	0,1	5,870214
1,914167	0,1	5,814522
1,915833	0,1	5,750790
1,917500	0,1	5,764902
1,919167	0,1	5,758351
1,920833	0,1	5,682941
1,922500	0,1	5,597090
1,924167	0,1	5,606488
1,925833	0,1	5,586238
1,927500	0,1	5,519215
1,929167	0,1	5,476922
1,930833	0,1	5,474983
1,932500	0,1	5,458177
1,934167	0,1	5,400441
1,935833	0,1	5,320618
1,937500	0,1	5,346752
1,939167	0,1	5,352823
1,940833	0,1	5,268615
1,942500	0,1	5,249884
1,944167	0,1	5,239652
1,945833	0,1	5,182431
1,947500	0,1	5,149247
1,949167	0,1	5,126942
1,950833	0,1	5,113330
1,952500	0,1	5,071020
1,954167	0,1	5,056955
1,955833	0,1	5,014283
1,957500	0,1	5,037327
1,959167	0,1	4,983211
1,960833	0,1	4,978824
1,962500	0,1	4,975184
1,964167	0,1	4,934861
1,965833	0,1	4,902184
1,967500	0,1	4,854866
1,969167	0,1	4,907303
1,970833	0,1	4,883644
1,972500	0,1	4,851647
1,974167	0,1	4,910546
1,975833	0,1	4,865959
1,977500	0,1	4,861010
1,979167	0,1	4,867045
1,980833	0,1	4,850492
1,982500	0,1	4,822394
1,984167	0,1	4,829691
1,985833	0,1	4,874039
1,987500	0,1	4,817377
1,989167	0,1	4,813471
1,990833	0,1	4,845572
1,992500	0,1	4,856409
1,994167	0,1	4,847664
1,995833	0,1	4,845016
1,997500	0,1	4,841876
1,999167	0,1	4,897451
2,000833	0,1	4,914847
2,002500	0,1	4,874646
2,004167	0,1	4,929650
2,005833	0,1	4,885825
2,007500	0,1	4,891683
2,009167	0,1	4,950191
2,010833	0,1	4,904302
2,012500	0,1	4,988909
2,014167	0,1	4,985796
2,015833	0,1	4,980715
2,017500	0,1	5,014633
2,019167	0,1	5,003635
2,020833	0,1	5,013169
2,022500	0,1	5,039867
2,024167	0,1	5,084970
2,025833	0,1	5,093509
2,027500	0,1	5,141829
2,029167	0,1	5,107519
2,030833	0,1	5,126394
2,032500	0,1	5,178877
2,034167	0,1	5,215046
2,035833	0,1	5,247300
2,037500	0,1	5,238216
2,039167	0,1	5,281380
2,040833	0,1	5,348175
2,042500	0,1	5,330129
2,044167	0,1	5,320933
2,045833	0,1	5,377306
2,047500	0,1	5,395249
2,049167	0,1	5,450212
2,050833	0,1	5,432813
2,052500	0,1	5,476012
2,054167	0,1	5,509593
2,055833	0,1	5,556602
2,057500	0,1	5,561295
2,059167	0,1	5,608324
2,060833	0,1	5,620187
2,062500	0,1	5,617551
2,064167	0,1	5,667658
2,065833	0,1	5,723537
2,067500	0,1	5,709424
2,069167	0,1	5,728290
2,070833	0,1	5,804750
2,072500	0,1	5,784490
2,074167	0,1	5,799297
2,075833	0,1	5,819056
2,077500	0,1	5,865511
2,079167	0,1	5,898512
2,080833	0,1	5,944431
2,082500	0,1	5,952412
2,084167	0,1	5,945259
2,085833	0,1	6,002717
2,087500	0,1	6,039148
2,089167	0,1	6,035417
2,090833	0,1	6,076098
2,092500	0,1	6,091672
2,094167	0,1	6,076954
2,095833	0,1	6,105986
2,097500	0,1	6,166993
2,099167	0,1	6,168409
2,100833	0,1	6,134615
2,102500	0,1	6,150427
2,104167	0,1	6,164737
2,105833	0,1	6,260073
2,107500	0,1	6,218610
2,109167	0,1	6,228542
2,110833	0,1	6,256172
2,112500	0,1	6,269819
2,114167	0,1	6,271234
2,115833	0,1	6,294868
2,117500	0,1	6,303253
2,119167	0,1	6,347793
2,120833	0,1	6,355428
2,122500	0,1	6,338973
2,124167	0,1	6,348905
2,125833	0,1	6,351240
2,127500	0,1	6,369000
2,129167	0,1	6,365370
2,130833	0,1	6,357936
2,132500	0,1	6,366498
2,134167	0,1	6,399530
2,135833	0,1	6,347437
2,137500	0,1	6,405000
2,139167	0,1	6,375789
2,140833	0,1	6,419443
2,142500	0,1	6,375000
2,144167	0,1	6,382490
2,145833	0,1	6,377002
2,147500	0,1	6,384732
2,149167	0,1	6,339252
2,150833	0,1	6,357946
2,152500	0,1	6,394494
2,154167	0,1	6,364906
2,155833	0,1	6,321027
2,157500	0,1	6,333468
2,159167	0,1	6,315612
2,160833	0,1	6,330591
2,162500	0,1	6,328649
2,164167	0,1	6,321850
2,165833	0,1	6,292175
2,167500	0,1	6,302684
2,169167	0,1	6,274136
2,170833	0,1	6,277493
2,172500	0,1	6,264076
2,174167	0,1	6,214538
2,175833	0,1	6,220551
2,177500	0,1	6,241212
2,179167	0,1	6,227156
2,180833	0,1	6,164576
2,182500	0,1	6,151390
2,184167	0,1	6,140773
2,185833	0,1	6,146471
2,187500	0,1	6,108159
2,189167	0,1	6,086131
2,190833	0,1	6,065586
2,192500	0,1	6,066027
2,194167	0,1	6,055350
2,195833	0,1	6,025422
2,197500	0,1	6,062790
2,199167	0,1	6,062889
2,200833	0,1	6,009606
2,202500	0,1	5,974927
2,204167	0,1	5,989064
2,205833	0,1	5,946775
2,207500	0,1	5,926320
2,209167	0,1	5,896221
2,210833	0,1	5,882455
2,212500	0,1	5,859970
2,214167	0,1	5,866927
2,215833	0,1	5,867819
2,217500	0,1	5,840844
2,219167	0,1	5,874107
2,220833	0,1	5,820302
2,222500	0,1	5,781717
2,224167	0,1	5,793023
2,225833	0,1	5,799460
2,227500	0,1	5,787774
2,229167	0,1	5,732018
2,230833	0,1	5,756920
2,232500	0,1	5,733609
2,234167	0,1	5,729632
2,235833	0,1	5,732251
2,237500	0,1	5,710587
2,239167	0,1	5,701569
2,240833	0,1	5,642007
2,242500	0,1	5,703994
2,244167	0,1	5,648179
2,245833	0,1	5,691995
2,247500	0,1	5,654218
2,249167	0,1	5,647972
2,250833	0,1	5,647341
2,252500	0,1	5,615280
2,254167	0,1	5,593690
2,255833	0,1	5,613937
2,257500	0,1	5,596530
2,259167	0,1	5,562626
2,260833	0,1	5,574247
2,262500	0,1	5,566928
2,264167	0,1	5,566363
2,265833	0,1	5,567122
2,267500	0,1	5,569158
2,269167	0,1	5,525406
2,270833	0,1	5,502696
2,272500	0,1	5,506460
2,274167	0,1	5,479042
2,275833	0,1	5,475180
2,277500	0,1	5,458177
2,279167	0,1	5,477404
2,280833	0,1	5,450816
2,282500	0,1	5,468307
2,284167	0,1	5,419110
2,285833	0,1	5,418994
2,287500	0,1	5,423365
2,289167	0,1	5,405653
2,290833	0,1	5,365070
2,292500	0,1	5,351506
2,294167	0,1	5,352566
2,295833	0,1	5,374995
2,297500	0,1	5,337486
2,299167	0,1	5,319524
2,300833	0,1	5,322424
2,302500	0,1	5,268594
2,304167	0,1	5,298702
2,305833	0,1	5,238116
2,307500	0,1	5,275621
2,309167	0,1	5,236419
2,310833	0,1	5,244536
2,312500	0,1	5,226124
2,314167	0,1	5,261355
2,315833	0,1	5,228600
2,317500	0,1	5,219969
2,319167	0,1	5,127268
2,320833	0,1	5,161935
2,322500	0,1	5,150651
2,324167	0,1	5,162618
2,325833	0,1	5,147799
2,327500	0,1	5,141420
2,329167	0,1	5,105826
2,330833	0,1	5,114311
2,332500	0,1	5,073108
2,334167	0,1	5,054924
2,335833	0,1	5,095559
2,337500	0,1	5,009523
2,339167	0,1	5,050760
2,340833	0,1	5,045916
2,342500	0,1	4,997998
2,344167	0,1	4,959670
2,345833	0,1	4,973431
2,347500	0,1	4,999562
2,349167	0,1	4,985598
2,350833	0,1	4,940480
2,352500	0,1	4,957709
2,354167	0,1	4,928849
2,355833	0,1	4,918495
2,357500	0,1	4,901759
2,359167	0,1	4,890841
2,360833	0,1	4,910724
2,362500	0,1	4,886469
2,364167	0,1	4,880111
2,365833	0,1	4,867753
2,367500	0,1	4,850065
2,369167	0,1	4,855783
2,370833	0,1	4,870488
2,372500	0,1	4,893177
2,374167	0,1	4,850100
2,375833	0,1	4,909188
2,377500	0,1	4,885484
2,379167	0,1	4,912272
2,380833	0,1	4,856709
2,382500	0,1	4,918502
2,384167	0,1	4,959314
2,385833	0,1	4,992478
2,387500	0,1	4,972395
2,389167	0,1	5,027808
2,390833	0,1	5,054375
2,392500	0,1	5,079021
2,394167	0,1	5,130197
2,395833	0,1	5,193973
2,397500	0,1	5,216970
2,399167	0,1	5,313650
2,400833	0,1	5,340929
2,402500	0,1	5,476900
2,404167	0,1	5,566817
2,405833	0,1	5,674638
2,407500	0,1	5,776744
2,409167	0,1	5,903267
2,410833	0,1	5,972417
2,412500	0,1	6,152645
2,414167	0,1	6,275421
2,415833	0,1	6,422478
2,417500	0,1	6,611193
2,419167	0,1	6,698156
2,420833	0,1	6,909798
2,422500	0,1	7,149519
2,424167	0,1	7,338669
2,425833	0,1	7,479025
2,427500	0,1	7,739763
2,429167	0,1	7,968866
2,430833	0,1	8,218974
2,432500	0,1	8,464545
2,434167	0,1	8,682553
2,435833	0,1	8,952581
2,437500	0,1	9,172206
2,439167	0,1	9,397003
2,440833	0,1	9,638324
2,442500	0,1	9,909020
2,444167	0,1	10,141384
2,445833	0,1	10,417740
2,447500	0,1	10,620530
2,449167	0,1	10,969325
2,450833	0,1	11,157644
2,452500	0,1	11,444811
2,454167	0,1	11,652099
2,455833	0,1	11,934757
2,457500	0,1	12,101736
2,459167	0,1	12,317439
2,460833	0,1	12,510063
2,462500	0,1	12,743687
2,464167	0,1	12,933817
2,465833	0,1	13,147646
2,467500	0,1	13,324564
2,469167	0,1	13,472135
2,470833	0,1	13,659517
2,472500	0,1	13,825090
2,474167	0,1	14,005085
2,475833	0,1	14,077556
2,477500	0,1	14,282970
2,479167	0,1	14,384740
2,480833	0,1	14,558958
2,482500	0,1	14,679505
2,484167	0,1	14,780949
2,485833	0,1	14,907781
2,487500	0,1	15,045378
2,489167	0,1	15,151836
2,490833	0,1	15,255759
2,492500	0,1	15,388321
2,494167	0,1	15,507077
2,495833	0,1	15,644765
2,497500	0,1	15,819753
2,499167	0,1	15,912554
2,500833	0,1	16,051298
2,502500	0,1	16,217255
2,504167	0,1	16,355303
2,505833	0,1	16,524552
2,507500	0,1	16,705792
2,509167	0,1	16,863936
2,510833	0,1	17,057125
2,512500	0,1	17,289476
2,514167	0,1	17,419193
2,515833	0,1	17,644038
2,517500	0,1	17,901577
2,519167	0,1	18,127386
2,520833	0,1	18,358773
2,522500	0,1	18,614685
2,524167	0,1	18,915617
2,525833	0,1	19,183861
2,527500	0,1	19,450358
2,529167	0,1	19,739675
2,530833	0,1	20,056000
2,532500	0,1	20,398718
2,534167	0,1	20,730731
2,535833	0,1	21,107132
2,537500	0,1	21,428626
2,539167	0,1	21,773423
2,540833	0,1	22,114264
2,542500	0,1	22,456115
2,544167	0,1	22,830373
2,545833	0,1	23,195852
2,547500	0,1	23,590840
2,549167	0,1	23,924588
2,550833	0,1	24,302103
2,552500	0,1	24,654542
2,554167	0,1	24,993098
2,555833	0,1	25,371646
2,557500	0,1	25,758428
2,559167	0,1	26,108392
2,560833	0,1	26,403283
2,562500	0,1	26,754594
2,564167	0,1	27,036757
2,565833	0,1	27,349648
2,567500	0,1	27,645500
2,569167	0,1	27,963743
2,570833	0,1	28,233846
2,572500	0,1	28,481992
2,574167	0,1	28,754402
2,575833	0,1	28,954497
2,577500	0,1	29,226845
2,579167	0,1	29,379524
2,580833	0,1	29,564475
2,582500	0,1	29,717489
2,584167	0,1	29,904304
2,585833	0,1	29,977428
2,587500	0,1	30,111339
2,589167	0,1	30,255154
2,590833	0,1	30,348145
2,592500	0,1	30,400015
2,594167	0,1	30,460419
2,595833	0,1	30,532296
2,597500	0,1	30,503165
2,599167	0,1	30,517891
2,600833	0,1	30,564459
2,602500	0,1	30,536046
2,604167	0,1	30,503204
2,605833	0,1	30,475302
2,607500	0,1	30,423157
2,609167	0,1	30,336204
2,610833	0,1	30,219842
2,612500	0,1	30,146040
2,614167	0,1	30,053284
2,615833	0,1	29,874852
2,617500	0,1	29,797598
2,619167	0,1	29,627903
2,620833	0,1	29,494969
2,622500	0,1	29,324188
2,624167	0,1	29,135773
2,625833	0,1	28,974977
2,627500	0,1	28,815070
2,629167	0,1	28,526674
2,630833	0,1	28,366282
2,632500	0,1	28,154839
2,634167	0,1	27,910103
2,635833	0,1	27,695872
2,637500	0,1	27,419506
2,639167	0,1	27,206217
2,640833	0,1	26,942838
2,642500	0,1	26,668629
2,644167	0,1	26,435629
2,645833	0,1	26,156431
2,647500	0,1	25,881380
2,649167	0,1	25,617547
2,650833	0,1	25,306976
2,652500	0,1	24,988698
2,654167	0,1	24,704435
2,655833	0,1	24,413724
2,657500	0,1	24,114487
2,659167	0,1	23,822110
2,660833	0,1	23,495490
2,662500	0,1	23,226635
2,664167	0,1	22,923818
2,665833	0,1	22,596363
2,667500	0,1	22,255648
2,669167	0,1	21,903506
2,670833	0,1	21,622430
2,672500	0,1	21,366268
2,674167	0,1	20,997848
2,675833	0,1	20,674518
2,677500	0,1	20,356761
2,679167	0,1	20,019168
2,680833	0,1	19,716767
2,682500	0,1	19,435917
2,684167	0,1	19,107477
2,685833	0,1	18,816339
2,687500	0,1	18,473571
2,689167	0,1	18,204901
2,690833	0,1	17,876357
2,692500	0,1	17,593106
2,694167	0,1	17,291202
2,695833	0,1	16,984654
2,697500	0,1	16,682736
2,699167	0,1	16,385945
2,700833	0,1	16,128910
2,702500	0,1	15,823065
2,704167	0,1	15,528195
2,705833	0,1	15,309163
2,707500	0,1	15,009770
2,709167	0,1	14,801726
2,710833	0,1	14,499240
2,712500	0,1	14,263701
2,714167	0,1	13,942732
2,715833	0,1	13,735548
2,717500	0,1	13,490418
2,719167	0,1	13,292259
2,720833	0,1	12,998008
2,722500	0,1	12,771281
2,724167	0,1	12,603235
2,725833	0,1	12,349196
2,727500	0,1	12,138040
2,729167	0,1	11,938483
2,730833	0,1	11,750264
2,732500	0,1	11,493679
2,734167	0,1	11,342238
2,735833	0,1	11,097065
2,737500	0,1	10,905946
2,739167	0,1	10,735883
2,740833	0,1	10,563521
2,742500	0,1	10,382639
2,744167	0,1	10,174012
2,745833	0,1	10,051390
2,747500	0,1	9,876898
2,749167	0,1	9,732550
2,750833	0,1	9,558447
2,752500	0,1	9,391085
2,754167	0,1	9,255260
2,755833	0,1	9,107450
2,757500	0,1	8,969885
2,759167	0,1	8,826516
2,760833	0,1	8,711392
2,762500	0,1	8,566353
2,764167	0,1	8,454240
2,765833	0,1	8,302016
2,767500	0,1	8,190012
2,769167	0,1	8,069585
2,770833	0,1	7,906398
2,772500	0,1	7,807141
2,774167	0,1	7,728158
2,775833	0,1	7,578161
2,777500	0,1	7,455961
2,779167	0,1	7,341257
2,780833	0,1	7,270113
2,782500	0,1	7,171694
2,784167	0,1	7,064057
2,785833	0,1	6,964924
2,787500	0,1	6,858553
2,789167	0,1	6,817099
2,790833	0,1	6,726327
2,792500	0,1	6,614248
2,794167	0,1	6,492053
2,795833	0,1	6,393709
2,797500	0,1	6,327174
2,799167	0,1	6,304473
2,800833	0,1	6,132350
2,802500	0,1	6,107429
2,804167	0,1	6,022732
2,805833	0,1	5,963708
2,807500	0,1	5,913541
2,809167	0,1	5,751499
2,810833	0,1	5,701070
2,812500	0,1	5,653871
2,814167	0,1	5,556724
2,815833	0,1	5,523627
2,817500	0,1	5,429368
2,819167	0,1	5,356740
2,820833	0,1	5,288698
2,822500	0,1	5,290422
2,824167	0,1	5,195703
2,825833	0,1	5,120093
2,827500	0,1	5,059929
2,829167	0,1	5,000486
2,830833	0,1	4,964044
2,832500	0,1	4,875368
2,834167	0,1	4,878423
2,835833	0,1	4,790531
2,837500	0,1	4,742708
2,839167	0,1	4,709088
2,840833	0,1	4,605951
2,842500	0,1	4,539758
2,844167	0,1	4,494633
2,845833	0,1	4,504583
2,847500	0,1	4,430566
2,849167	0,1	4,374574
2,850833	0,1	4,346537
2,852500	0,1	4,280719
2,854167	0,1	4,275398
2,855833	0,1	4,192959
2,857500	0,1	4,156099
2,859167	0,1	4,149245
2,860833	0,1	4,054885
2,862500	0,1	4,045276
2,864167	0,1	3,984692
2,865833	0,1	3,916980
2,867500	0,1	3,915669
2,869167	0,1	3,859796
2,870833	0,1	3,832029
2,872500	0,1	3,788625
2,874167	0,1	3,743900
2,875833	0,1	3,750944
2,877500	0,1	3,717833
2,879167	0,1	3,702407
2,880833	0,1	3,681226
2,882500	0,1	3,597068
2,884167	0,1	3,539611
2,885833	0,1	3,548887
2,887500	0,1	3,506665
2,889167	0,1	3,474368
2,890833	0,1	3,448570
2,892500	0,1	3,441089
2,894167	0,1	3,398124
2,895833	0,1	3,384226
2,897500	0,1	3,323603
2,899167	0,1	3,304348
2,900833	0,1	3,238179
2,902500	0,1	3,228358
2,904167	0,1	3,256336
2,905833	0,1	3,177360
2,907500	0,1	3,179356
2,909167	0,1	3,123856
2,910833	0,1	3,087163
2,912500	0,1	3,084988
2,914167	0,1	3,056311
2,915833	0,1	3,014689
2,917500	0,1	3,025284
2,919167	0,1	3,023994
2,920833	0,1	2,967466
2,922500	0,1	3,002378
2,924167	0,1	2,941548
2,925833	0,1	2,914330
2,927500	0,1	2,845369
2,929167	0,1	2,880993
2,930833	0,1	2,837325
2,932500	0,1	2,843291
2,934167	0,1	2,792475
2,935833	0,1	2,793306
2,937500	0,1	2,787297
2,939167	0,1	2,727683
2,940833	0,1	2,763154
2,942500	0,1	2,694603
2,944167	0,1	2,725639
2,945833	0,1	2,690350
2,947500	0,1	2,631982
2,949167	0,1	2,653903
2,950833	0,1	2,623127
2,952500	0,1	2,660356
2,954167	0,1	2,593513
2,955833	0,1	2,572070
2,957500	0,1	2,566975
2,959167	0,1	2,534485
2,960833	0,1	2,505219
2,962500	0,1	2,530445
2,964167	0,1	2,456833
2,965833	0,1	2,471655
2,967500	0,1	2,469796
2,969167	0,1	2,469650
2,970833	0,1	2,483411
2,972500	0,1	2,470943
2,974167	0,1	2,389788
2,975833	0,1	2,409486
2,977500	0,1	2,397802
2,979167	0,1	2,345696
2,980833	0,1	2,378215
2,982500	0,1	2,399011
2,984167	0,1	2,358512
2,985833	0,1	2,327770
2,987500	0,1	2,351621
2,989167	0,1	2,336364
2,990833	0,1	2,274373
2,992500	0,1	2,281519
2,994167	0,1	2,266544
2,995833	0,1	2,277220
2,997500	0,1	2,249987
2,999167	0,1	2,279223
3,000833	0,1	2,227277
3,002500	0,1	2,248613
3,004167	0,1	2,216379
3,005833	0,1	2,238081
3,007500	0,1	2,192662
3,009167	0,1	2,209698
3,010833	0,1	2,213074
3,012500	0,1	2,198672
3,014167	0,1	2,146157
3,015833	0,1	2,156819
3,017500	0,1	2,152881
3,019167	0,1	2,165201
3,020833	0,1	2,145359
3,022500	0,1	2,121931
3,024167	0,1	2,125506
3,025833	0,1	2,136755
3,027500	0,1	2,091771
3,029167	0,1	2,095485
3,030833	0,1	2,125285
3,032500	0,1	2,088759
3,034167	0,1	2,105011
3,035833	0,1	2,068268
3,037500	0,1	2,075495
3,039167	0,1	2,049926
3,040833	0,1	2,037958
3,042500	0,1	2,065031
3,044167	0,1	1,981382
3,045833	0,1	2,003925
3,047500	0,1	1,987817
3,049167	0,1	1,978147
3,050833	0,1	1,987669
3,052500	0,1	2,024484
3,054167	0,1	1,993766
3,055833	0,1	1,981511
3,057500	0,1	1,968839
3,059167	0,1	1,949354
3,060833	0,1	1,959016
3,062500	0,1	1,932957
3,064167	0,1	1,915628
3,065833	0,1	1,948916
3,067500	0,1	1,965177
3,069167	0,1	1,922929
3,070833	0,1	1,912831
3,072500	0,1	1,920558
3,074167	0,1	1,922635
3,075833	0,1	1,871149
3,077500	0,1	1,904928
3,079167	0,1	1,878807
3,080833	0,1	1,890117
3,082500	0,1	1,882034
3,084167	0,1	1,879173
3,085833	0,1	1,889911
3,087500	0,1	1,868000
3,089167	0,1	1,870854
3,090833	0,1	1,862404
3,092500	0,1	1,840440
3,094167	0,1	1,850028
3,095833	0,1	1,873010
3,097500	0,1	1,860194
3,099167	0,1	1,840939
3,100833	0,1	1,893833
3,102500	0,1	1,852382
3,104167	0,1	1,900641
3,105833	0,1	1,844948
3,107500	0,1	1,902428
3,109167	0,1	1,883970
3,110833	0,1	1,887405
3,112500	0,1	1,887542
3,114167	0,1	1,890407
3,115833	0,1	1,898285
3,117500	0,1	1,899431
3,119167	0,1	1,929572
3,120833	0,1	1,931517
3,122500	0,1	1,932516
3,124167	0,1	1,945407
3,125833	0,1	1,954433
3,127500	0,1	1,985299
3,129167	0,1	1,978653
3,130833	0,1	1,996194
3,132500	0,1	2,003213
3,134167	0,1	1,994480
3,135833	0,1	2,038093
3,137500	0,1	2,041897
3,139167	0,1	2,049778
3,140833	0,1	2,049352
3,142500	0,1	2,078285
3,144167	0,1	2,074996
3,145833	0,1	2,108232
3,147500	0,1	2,061608
3,149167	0,1	2,106079
3,150833	0,1	2,090046
3,152500	0,1	2,155943
3,154167	0,1	2,125229
3,155833	0,1	2,148860
3,157500	0,1	2,173653
3,159167	0,1	2,158115
3,160833	0,1	2,170504
3,162500	0,1	2,168145
3,164167	0,1	2,180535
3,165833	0,1	2,172516
3,167500	0,1	2,213065
3,169167	0,1	2,208845
3,170833	0,1	2,247608
3,172500	0,1	2,229921
3,174167	0,1	2,238368
3,175833	0,1	2,232066
3,177500	0,1	2,256497
3,179167	0,1	2,308736
3,180833	0,1	2,274290
3,182500	0,1	2,253576
3,184167	0,1	2,279434
3,185833	0,1	2,292767
3,187500	0,1	2,265684
3,189167	0,1	2,261954
3,190833	0,1	2,263386
3,192500	0,1	2,269620
3,194167	0,1	2,258590
3,195833	0,1	2,243894
3,197500	0,1	2,286739
3,199167	0,1	2,267762
3,200833	0,1	2,231212
3,202500	0,1	2,258436
3,204167	0,1	2,236088
3,205833	0,1	2,271265
3,207500	0,1	2,247911
3,209167	0,1	2,246183
3,210833	0,1	2,245321
3,212500	0,1	2,261303
3,214167	0,1	2,240955
3,215833	0,1	2,207277
3,217500	0,1	2,224749
3,219167	0,1	2,189072
3,220833	0,1	2,204902
3,222500	0,1	2,188066
3,224167	0,1	2,184552
3,225833	0,1	2,158762
3,227500	0,1	2,184327
3,229167	0,1	2,131253
3,230833	0,1	2,131168
3,232500	0,1	2,147714
3,234167	0,1	2,070141
3,235833	0,1	2,104721
3,237500	0,1	2,090689
3,239167	0,1	2,092477
3,240833	0,1	2,090115
3,242500	0,1	2,064470
3,244167	0,1	2,048994
3,245833	0,1	2,041397
3,247500	0,1	2,026360
3,249167	0,1	2,028144
3,250833	0,1	2,015040
3,252500	0,1	2,022127
3,254167	0,1	1,945936
3,255833	0,1	1,915696
3,257500	0,1	1,958084
3,259167	0,1	1,929952
3,260833	0,1	1,923218
3,262500	0,1	1,957377
3,264167	0,1	1,908758
3,265833	0,1	1,869732
3,267500	0,1	1,838931
3,269167	0,1	1,805500
3,270833	0,1	1,821872
3,272500	0,1	1,823101
3,274167	0,1	1,790882
3,275833	0,1	1,785377
3,277500	0,1	1,796972
3,279167	0,1	1,777360
3,280833	0,1	1,761476
3,282500	0,1	1,735841
3,284167	0,1	1,736913
3,285833	0,1	1,689730
3,287500	0,1	1,699615
3,289167	0,1	1,682862
3,290833	0,1	1,699029
3,292500	0,1	1,657797
3,294167	0,1	1,648364
3,295833	0,1	1,667699
3,297500	0,1	1,619585
3,299167	0,1	1,582314
3,300833	0,1	1,576739
3,302500	0,1	1,555400
3,304167	0,1	1,541358
3,305833	0,1	1,555897
3,307500	0,1	1,541528
3,309167	0,1	1,544367
3,310833	0,1	1,512268
3,312500	0,1	1,475347
3,314167	0,1	1,491775
3,315833	0,1	1,501322
3,317500	0,1	1,461883
3,319167	0,1	1,452012
3,320833	0,1	1,424316
3,322500	0,1	1,432841
3,324167	0,1	1,399224
3,325833	0,1	1,441340
3,327500	0,1	1,399158
3,329167	0,1	1,409896
3,330833	0,1	1,370582
3,332500	0,1	1,388992
3,334167	0,1	1,406511
3,335833	0,1	1,389358
3,337500	0,1	1,344411
3,339167	0,1	1,345526
3,340833	0,1	1,298216
3,342500	0,1	1,302437
3,344167	0,1	1,312955
3,345833	0,1	1,293450
3,347500	0,1	1,298525
3,349167	0,1	1,289872
3,350833	0,1	1,316980
3,352500	0,1	1,336262
3,354167	0,1	1,282667
3,355833	0,1	1,240580
3,357500	0,1	1,290873
3,359167	0,1	1,247896
3,360833	0,1	1,241249
3,362500	0,1	1,249593
3,364167	0,1	1,252255
3,365833	0,1	1,206847
3,367500	0,1	1,230810
3,369167	0,1	1,199392
3,370833	0,1	1,221545
3,372500	0,1	1,200338
3,374167	0,1	1,229995
3,375833	0,1	1,185016
3,377500	0,1	1,196942
3,379167	0,1	1,204987
3,380833	0,1	1,163714
3,382500	0,1	1,181244
3,384167	0,1	1,202123
3,385833	0,1	1,207121
3,387500	0,1	1,144234
3,389167	0,1	1,151746
3,390833	0,1	1,128783
3,392500	0,1	1,140557
3,394167	0,1	1,145282
3,395833	0,1	1,161941
3,397500	0,1	1,117562
3,399167	0,1	1,116533
3,400833	0,1	1,120413
3,402500	0,1	1,147362
3,404167	0,1	1,124057
3,405833	0,1	1,126674
3,407500	0,1	1,107022
3,409167	0,1	1,082530
3,410833	0,1	1,131559
3,412500	0,1	1,099036
3,414167	0,1	1,120254
3,415833	0,1	1,101521
3,417500	0,1	1,093155
3,419167	0,1	1,078914
3,420833	0,1	1,080460
3,422500	0,1	1,118407
3,424167	0,1	1,108500
3,425833	0,1	1,133120
3,427500	0,1	1,096149
3,429167	0,1	1,110223
3,430833	0,1	1,144669
3,432500	0,1	1,082585
3,434167	0,1	1,065888
3,435833	0,1	1,098618
3,437500	0,1	1,060620
3,439167	0,1	1,055593
3,440833	0,1	1,095131
3,442500	0,1	1,054564
3,444167	0,1	1,008828
3,445833	0,1	1,089782
3,447500	0,1	1,086760
3,449167	0,1	1,046978
3,450833	0,1	1,034106
3,452500	0,1	1,062018
3,454167	0,1	1,053021
3,455833	0,1	1,053621
3,457500	0,1	1,058324
3,459167	0,1	1,040359
3,460833	0,1	1,052019
3,462500	0,1	1,056677
3,464167	0,1	1,055064
3,465833	0,1	1,050294
3,467500	0,1	1,019316
3,469167	0,1	1,064211
3,470833	0,1	1,047214
3,472500	0,1	1,030468
3,474167	0,1	1,038757
3,475833	0,1	1,024369
3,477500	0,1	1,056008
3,479167	0,1	1,076528
3,480833	0,1	1,041274
3,482500	0,1	1,041555
3,484167	0,1	1,038868
3,485833	0,1	1,057472
3,487500	0,1	1,032313
3,489167	0,1	1,041218
3,490833	0,1	1,039492
3,492500	0,1	1,072912
3,494167	0,1	1,077395
3,495833	0,1	1,037482
3,497500	0,1	1,056788
3,499167	0,1	1,059652
3,500833	0,1	1,055258
3,502500	0,1	1,034793
3,504167	0,1	1,036342
3,505833	0,1	1,042063
3,507500	0,1	1,020400
3,509167	0,1	1,024940
3,510833	0,1	0,994827
3,512500	0,1	1,035380
3,514167	0,1	1,040977
3,515833	0,1	1,025965
3,517500	0,1	1,015229
3,519167	0,1	1,072169
3,520833	0,1	0,980805
3,522500	0,1	1,030585
3,524167	0,1	1,055653
3,525833	0,1	1,049362
3,527500	0,1	1,013505
3,529167	0,1	1,085635
3,530833	0,1	1,040521
3,532500	0,1	1,038893
3,534167	0,1	1,029202
3,535833	0,1	1,025165
3,537500	0,1	1,027823
3,539167	0,1	1,025452
3,540833	0,1	0,972966
3,542500	0,1	1,016215
3,544167	0,1	1,037047
3,545833	0,1	1,009200
3,547500	0,1	1,057008
3,549167	0,1	1,072957
3,550833	0,1	1,008233
3,552500	0,1	1,075477
3,554167	0,1	1,073451
3,555833	0,1	1,050499
3,557500	0,1	1,051955
3,559167	0,1	1,024038
3,560833	0,1	0,997535
3,562500	0,1	1,039481
3,564167	0,1	1,037648
3,565833	0,1	1,022704
3,567500	0,1	1,047539
3,569167	0,1	1,031111
3,570833	0,1	1,049623
3,572500	0,1	1,067188
3,574167	0,1	1,025837
3,575833	0,1	1,015828
3,577500	0,1	1,036799
3,579167	0,1	1,013834
3,580833	0,1	1,073436
3,582500	0,1	1,009809
3,584167	0,1	1,012052
3,585833	0,1	1,045072
3,587500	0,1	1,014856
3,589167	0,1	1,024004
3,590833	0,1	1,031770
3,592500	0,1	0,984697
3,594167	0,1	1,001294
3,595833	0,1	0,993248
3,597500	0,1	1,010032
3,599167	0,1	0,958239
3,600833	0,1	1,043706
3,602500	0,1	1,005276
3,604167	0,1	1,007153
3,605833	0,1	0,994669
3,607500	0,1	0,993401
3,609167	0,1	1,011138
3,610833	0,1	0,974426
3,612500	0,1	0,974372
3,614167	0,1	0,971800
3,615833	0,1	1,001577
3,617500	0,1	0,988348
3,619167	0,1	0,989187
3,620833	0,1	0,959076
3,622500	0,1	0,961131
3,624167	0,1	0,974501
3,625833	0,1	0,930873
3,627500	0,1	0,947157
3,629167	0,1	0,962615
3,630833	0,1	0,955568
3,632500	0,1	0,943661
3,634167	0,1	0,972658
3,635833	0,1	0,940758
3,637500	0,1	0,956118
3,639167	0,1	0,919362
3,640833	0,1	0,907935
3,642500	0,1	0,942873
3,644167	0,1	0,944210
3,645833	0,1	0,915303
3,647500	0,1	0,906626
3,649167	0,1	0,920636
3,650833	0,1	0,880600
3,652500	0,1	0,917084
3,654167	0,1	0,938641
3,655833	0,1	0,924523
3,657500	0,1	0,901905
3,659167	0,1	0,922187
3,660833	0,1	0,957487
3,662500	0,1	0,936079
3,664167	0,1	0,931884
3,665833	0,1	0,885859
3,667500	0,1	0,907952
3,669167	0,1	0,912367
3,670833	0,1	0,851626
3,672500	0,1	0,868928
3,674167	0,1	0,920271
3,675833	0,1	0,880251
3,677500	0,1	0,850046
3,679167	0,1	0,894550
3,680833	0,1	0,872152
3,682500	0,1	0,910164
3,684167	0,1	0,895274
3,685833	0,1	0,894785
3,687500	0,1	0,837793
3,689167	0,1	0,897475
3,690833	0,1	0,903297
3,692500	0,1	0,863063
3,694167	0,1	0,881611
3,695833	0,1	0,829097
3,697500	0,1	0,901352
3,699167	0,1	0,833140
3,700833	0,1	0,889139
3,702500	0,1	0,865080
3,704167	0,1	0,904045
3,705833	0,1	0,861399
3,707500	0,1	0,874822
3,709167	0,1	0,855457
3,710833	0,1	0,848045
3,712500	0,1	0,868927
3,714167	0,1	0,848938
3,715833	0,1	0,873096
3,717500	0,1	0,807488
3,719167	0,1	0,884165
3,720833	0,1	0,850426
3,722500	0,1	0,850392
3,724167	0,1	0,859417
3,725833	0,1	0,855026
3,727500	0,1	0,854118
3,729167	0,1	0,820692
3,730833	0,1	0,862870
3,732500	0,1	0,870348
3,734167	0,1	0,847653
3,735833	0,1	0,866932
3,737500	0,1	0,871437
3,739167	0,1	0,854658
3,740833	0,1	0,857489
3,742500	0,1	0,866645
3,744167	0,1	0,869861
3,745833	0,1	0,882653
3,747500	0,1	0,907728
3,749167	0,1	0,849367
3,750833	0,1	0,886681
3,752500	0,1	0,887957
3,754167	0,1	0,886070
3,755833	0,1	0,883696
3,757500	0,1	0,891410
3,759167	0,1	0,885963
3,760833	0,1	0,877334
3,762500	0,1	0,886801
3,764167	0,1	0,879750
3,765833	0,1	0,879929
3,767500	0,1	0,908839
3,769167	0,1	0,885391
3,770833	0,1	0,948389
3,772500	0,1	0,934326
3,774167	0,1	0,894548
3,775833	0,1	0,890193
3,777500	0,1	0,932803
3,779167	0,1	0,958664
3,780833	0,1	0,929605
3,782500	0,1	0,929066
3,784167	0,1	0,948442
3,785833	0,1	0,929025
3,787500	0,1	0,968818
3,789167	0,1	0,971955
3,790833	0,1	0,940450
3,792500	0,1	0,920222
3,794167	0,1	0,996754
3,795833	0,1	0,932273
3,797500	0,1	0,951147
3,799167	0,1	0,997404
3,800833	0,1	0,979101
3,802500	0,1	0,951292
3,804167	0,1	0,983678
3,805833	0,1	1,007191
3,807500	0,1	1,005711
3,809167	0,1	0,988415
3,810833	0,1	1,016306
3,812500	0,1	1,015402
3,814167	0,1	1,038842
3,815833	0,1	1,016407
3,817500	0,1	1,005403
3,819167	0,1	1,012318
3,820833	0,1	1,010346
3,822500	0,1	1,023318
3,824167	0,1	1,008177
3,825833	0,1	1,011985
3,827500	0,1	1,054964
3,829167	0,1	1,044484
3,830833	0,1	1,026341
3,832500	0,1	1,050775
3,834167	0,1	1,046877
3,835833	0,1	1,020421
3,837500	0,1	1,056093
3,839167	0,1	1,075797
3,840833	0,1	1,062518
3,842500	0,1	1,045772
3,844167	0,1	1,057720
3,845833	0,1	1,091589
3,847500	0,1	1,074479
3,849167	0,1	1,071567
3,850833	0,1	1,074822
3,852500	0,1	1,069705
3,854167	0,1	1,126477
3,855833	0,1	1,097394
3,857500	0,1	1,108831
3,859167	0,1	1,121206
3,860833	0,1	1,106331
3,862500	0,1	1,090516
3,864167	0,1	1,071392
3,865833	0,1	1,080391
3,867500	0,1	1,058505
3,869167	0,1	1,080147
3,870833	0,1	1,093436
3,872500	0,1	1,077628
3,874167	0,1	1,113951
3,875833	0,1	1,085016
3,877500	0,1	1,101685
3,879167	0,1	1,091774
3,880833	0,1	1,124687
3,882500	0,1	1,072732
3,884167	0,1	1,118137
3,885833	0,1	1,090940
3,887500	0,1	1,047466
3,889167	0,1	1,101079
3,890833	0,1	1,068178
3,892500	0,1	1,096957
3,894167	0,1	1,074676
3,895833	0,1	1,084162
3,897500	0,1	1,057796
3,899167	0,1	1,061916
3,900833	0,1	1,045017
3,902500	0,1	1,073511
3,904167	0,1	1,082187
3,905833	0,1	1,090309
3,907500	0,1	1,064095
3,909167	0,1	1,077441
3,910833	0,1	1,066337
3,912500	0,1	1,019829
3,914167	0,1	1,043766
3,915833	0,1	1,037496
3,917500	0,1	1,011839
3,919167	0,1	1,047444
3,920833	0,1	1,006717
3,922500	0,1	1,029990
3,924167	0,1	1,032615
3,925833	0,1	1,049155
3,927500	0,1	1,022397
3,929167	0,1	1,037115
3,930833	0,1	1,034098
3,932500	0,1	1,003322
3,934167	0,1	1,021763
3,935833	0,1	1,020148
3,937500	0,1	1,011768
3,939167	0,1	0,981034
3,940833	0,1	1,023709
3,942500	0,1	0,984982
3,944167	0,1	0,998322
3,945833	0,1	0,948570
3,947500	0,1	0,969954
3,949167	0,1	0,973971
3,950833	0,1	0,952510
3,952500	0,1	0,967516
3,954167	0,1	0,939296
3,955833	0,1	0,930354
3,957500	0,1	0,961102
3,959167	0,1	0,927987
3,960833	0,1	0,965848
3,962500	0,1	0,948052
3,964167	0,1	0,896215
3,965833	0,1	0,949345
3,967500	0,1	0,907079
3,969167	0,1	0,905915
3,970833	0,1	0,887734
3,972500	0,1	0,871195
3,974167	0,1	0,940670
3,975833	0,1	0,909138
3,977500	0,1	0,891794
3,979167	0,1	0,864702
3,980833	0,1	0,866491
3,982500	0,1	0,906615
3,984167	0,1	0,852712
3,985833	0,1	0,900138
3,987500	0,1	0,907889
3,989167	0,1	0,882507
3,990833	0,1	0,881990
3,992500	0,1	0,842645
3,994167	0,1	0,873022
3,995833	0,1	0,888284
3,997500	0,1	0,843330
3,999167	0,1	0,876086
4,000833	0,1	0,830982
4,002500	0,1	0,897653
4,004167	0,1	0,840563
4,005833	0,1	0,874090
4,007500	0,1	0,847407
4,009167	0,1	0,866109
4,010833	0,1	0,870702
4,012500	0,1	0,841291
4,014167	0,1	0,852944
4,015833	0,1	0,864451
4,017500	0,1	0,868882
4,019167	0,1	0,864851
4,020833	0,1	0,874338
4,022500	0,1	0,843616
4,024167	0,1	0,849328
4,025833	0,1	0,857331
4,027500	0,1	0,886639
4,029167	0,1	0,838922
4,030833	0,1	0,855844
4,032500	0,1	0,890209
4,034167	0,1	0,877893
4,035833	0,1	0,896331
4,037500	0,1	0,871576
4,039167	0,1	0,896575
4,040833	0,1	0,891240
4,042500	0,1	0,877203
4,044167	0,1	0,899280
4,045833	0,1	0,933360
4,047500	0,1	0,865487
4,049167	0,1	0,924550
4,050833	0,1	0,896166
4,052500	0,1	0,869449
4,054167	0,1	0,917189
4,055833	0,1	0,918643
4,057500	0,1	0,950969
4,059167	0,1	0,934435
4,060833	0,1	0,917138
4,062500	0,1	1,002074
4,064167	0,1	0,956619
4,065833	0,1	0,991262
4,067500	0,1	1,006770
4,069167	0,1	1,006620
4,070833	0,1	0,996908
4,072500	0,1	1,019323
4,074167	0,1	1,048356
4,075833	0,1	1,025632
4,077500	0,1	1,024984
4,079167	0,1	1,060443
4,080833	0,1	1,054998
4,082500	0,1	1,061071
4,084167	0,1	1,099729
4,085833	0,1	1,108054
4,087500	0,1	1,115908
4,089167	0,1	1,097919
4,090833	0,1	1,132697
4,092500	0,1	1,175295
4,094167	0,1	1,180114
4,095833	0,1	1,194439
4,097500	0,1	1,197707
4,099167	0,1	1,234785
4,100833	0,1	1,219150
4,102500	0,1	1,249012
4,104167	0,1	1,247157
4,105833	0,1	1,291335
4,107500	0,1	1,260950
4,109167	0,1	1,332333
4,110833	0,1	1,330488
4,112500	0,1	1,321123
4,114167	0,1	1,333771
4,115833	0,1	1,336334
4,117500	0,1	1,346206
4,119167	0,1	1,389288
4,120833	0,1	1,422084
4,122500	0,1	1,401659
4,124167	0,1	1,464803
4,125833	0,1	1,467487
4,127500	0,1	1,452368
4,129167	0,1	1,468089
4,130833	0,1	1,463694
4,132500	0,1	1,492499
4,134167	0,1	1,499505
4,135833	0,1	1,554668
4,137500	0,1	1,546600
4,139167	0,1	1,579652
4,140833	0,1	1,597978
4,142500	0,1	1,585895
4,144167	0,1	1,607904
4,145833	0,1	1,635253
4,147500	0,1	1,645347
4,149167	0,1	1,665105
4,150833	0,1	1,695031
4,152500	0,1	1,710495
4,154167	0,1	1,662336
4,155833	0,1	1,675560
4,157500	0,1	1,723294
4,159167	0,1	1,714281
4,160833	0,1	1,710779
4,162500	0,1	1,734835
4,164167	0,1	1,765465
4,165833	0,1	1,730464
4,167500	0,1	1,755507
4,169167	0,1	1,802474
4,170833	0,1	1,824249
4,172500	0,1	1,794334
4,174167	0,1	1,819451
4,175833	0,1	1,797905
4,177500	0,1	1,841638
4,179167	0,1	1,852672
4,180833	0,1	1,824045
4,182500	0,1	1,874004
4,184167	0,1	1,816898
4,185833	0,1	1,866559
4,187500	0,1	1,838867
4,189167	0,1	1,834632
4,190833	0,1	1,847802
4,192500	0,1	1,890763
4,194167	0,1	1,864779
4,195833	0,1	1,841929
4,197500	0,1	1,889120
4,199167	0,1	1,881672
4,200833	0,1	1,890485
4,202500	0,1	1,891705
4,204167	0,1	1,871796
4,205833	0,1	1,877882
4,207500	0,1	1,883108
4,209167	0,1	1,889117
4,210833	0,1	1,897208
4,212500	0,1	1,885620
4,214167	0,1	1,884043
4,215833	0,1	1,873022
4,217500	0,1	1,876302
4,219167	0,1	1,920479
4,220833	0,1	1,864430
4,222500	0,1	1,925568
4,224167	0,1	1,894583
4,225833	0,1	1,864635
4,227500	0,1	1,856403
4,229167	0,1	1,856042
4,230833	0,1	1,853038
4,232500	0,1	1,826112
4,234167	0,1	1,800839
4,235833	0,1	1,812652
4,237500	0,1	1,823033
4,239167	0,1	1,811439
4,240833	0,1	1,799547
4,242500	0,1	1,783083
4,244167	0,1	1,827964
4,245833	0,1	1,785597
4,247500	0,1	1,769698
4,249167	0,1	1,766319
4,250833	0,1	1,759465
4,252500	0,1	1,773551
4,254167	0,1	1,763191
4,255833	0,1	1,755871
4,257500	0,1	1,727317
4,259167	0,1	1,726955
4,260833	0,1	1,730525
4,262500	0,1	1,706414
4,264167	0,1	1,705469
4,265833	0,1	1,678007
4,267500	0,1	1,679072
4,269167	0,1	1,677635
4,270833	0,1	1,634190
4,272500	0,1	1,670401
4,274167	0,1	1,658671
4,275833	0,1	1,636772
4,277500	0,1	1,612505
4,279167	0,1	1,626674
4,280833	0,1	1,589321
4,282500	0,1	1,577592
4,284167	0,1	1,591815
4,285833	0,1	1,560921
4,287500	0,1	1,573078
4,289167	0,1	1,517563
4,290833	0,1	1,528058
4,292500	0,1	1,539028
4,294167	0,1	1,525061
4,295833	0,1	1,514264
4,297500	0,1	1,487991
4,299167	0,1	1,456730
4,300833	0,1	1,447628
4,302500	0,1	1,442845
4,304167	0,1	1,415592
4,305833	0,1	1,426089
4,307500	0,1	1,418448
4,309167	0,1	1,431072
4,310833	0,1	1,422243
4,312500	0,1	1,406877
4,314167	0,1	1,360245
4,315833	0,1	1,363451
4,317500	0,1	1,364658
4,319167	0,1	1,342313
4,320833	0,1	1,348713
4,322500	0,1	1,344665
4,324167	0,1	1,330725
4,325833	0,1	1,310303
4,327500	0,1	1,305099
4,329167	0,1	1,266745
4,330833	0,1	1,307070
4,332500	0,1	1,271199
4,334167	0,1	1,265550
4,335833	0,1	1,280856
4,337500	0,1	1,256240
4,339167	0,1	1,267630
4,340833	0,1	1,227708
4,342500	0,1	1,248017
4,344167	0,1	1,193844
4,345833	0,1	1,181723
4,347500	0,1	1,192879
4,349167	0,1	1,212130
4,350833	0,1	1,176160
4,352500	0,1	1,191405
4,354167	0,1	1,177545
4,355833	0,1	1,176966
4,357500	0,1	1,142499
4,359167	0,1	1,094960
4,360833	0,1	1,148353
4,362500	0,1	1,147857
4,364167	0,1	1,138852
4,365833	0,1	1,171032
4,367500	0,1	1,114704
4,369167	0,1	1,107481
4,370833	0,1	1,110225
4,372500	0,1	1,116839
4,374167	0,1	1,087522
4,375833	0,1	1,093285
4,377500	0,1	1,098893
4,379167	0,1	1,059729
4,380833	0,1	1,034218
4,382500	0,1	1,067144
4,384167	0,1	1,061605
4,385833	0,1	1,047322
4,387500	0,1	1,014747
4,389167	0,1	1,042125
4,390833	0,1	1,008382
4,392500	0,1	1,038927
4,394167	0,1	1,000331
4,395833	0,1	0,978302
4,397500	0,1	1,011624
4,399167	0,1	0,980544
4,400833	0,1	0,995216
4,402500	0,1	0,982582
4,404167	0,1	0,975106
4,405833	0,1	0,951115
4,407500	0,1	0,966230
4,409167	0,1	0,954947
4,410833	0,1	0,917011
4,412500	0,1	0,919353
4,414167	0,1	0,920349
4,415833	0,1	0,883903
4,417500	0,1	0,938811
4,419167	0,1	0,958089
4,420833	0,1	0,938606
4,422500	0,1	0,904372
4,424167	0,1	0,910815
4,425833	0,1	0,935180
4,427500	0,1	0,919556
4,429167	0,1	0,864312
4,430833	0,1	0,888125
4,432500	0,1	0,877492
4,434167	0,1	0,882210
4,435833	0,1	0,875628
4,437500	0,1	0,836282
4,439167	0,1	0,851674
4,440833	0,1	0,811208
4,442500	0,1	0,838614
4,444167	0,1	0,826144
4,445833	0,1	0,807384
4,447500	0,1	0,844513
4,449167	0,1	0,793984
4,450833	0,1	0,838883
4,452500	0,1	0,819848
4,454167	0,1	0,814100
4,455833	0,1	0,787887
4,457500	0,1	0,781337
4,459167	0,1	0,758592
4,460833	0,1	0,816862
4,462500	0,1	0,739950
4,464167	0,1	0,743669
4,465833	0,1	0,787242
4,467500	0,1	0,759709
4,469167	0,1	0,754980
4,470833	0,1	0,718413
4,472500	0,1	0,707741
4,474167	0,1	0,764922
4,475833	0,1	0,735505
4,477500	0,1	0,724482
4,479167	0,1	0,717752
4,480833	0,1	0,719820
4,482500	0,1	0,701566
4,484167	0,1	0,709694
4,485833	0,1	0,730325
4,487500	0,1	0,714253
4,489167	0,1	0,680138
4,490833	0,1	0,718461
4,492500	0,1	0,701958
4,494167	0,1	0,665682
4,495833	0,1	0,656835
4,497500	0,1	0,685040
4,499167	0,1	0,646884
4,500833	0,1	0,641792
4,502500	0,1	0,638551
4,504167	0,1	0,628140
4,505833	0,1	0,603788
4,507500	0,1	0,663115
4,509167	0,1	0,629596
4,510833	0,1	0,627235
4,512500	0,1	0,637579
4,514167	0,1	0,586450
4,515833	0,1	0,623760
4,517500	0,1	0,612977
4,519167	0,1	0,626234
4,520833	0,1	0,618117
4,522500	0,1	0,606384
4,524167	0,1	0,600636
4,525833	0,1	0,567676
4,527500	0,1	0,601457
4,529167	0,1	0,570663
4,530833	0,1	0,586203
4,532500	0,1	0,583248
4,534167	0,1	0,589832
4,535833	0,1	0,574421
4,537500	0,1	0,567444
4,539167	0,1	0,544607
4,540833	0,1	0,593965
4,542500	0,1	0,577598
4,544167	0,1	0,542134
4,545833	0,1	0,583080
4,547500	0,1	0,556622
4,549167	0,1	0,546014
4,550833	0,1	0,562876
4,552500	0,1	0,587032
4,554167	0,1	0,531216
4,555833	0,1	0,540454
4,557500	0,1	0,542706
4,559167	0,1	0,530692
4,560833	0,1	0,543956
4,562500	0,1	0,512581
4,564167	0,1	0,499630
4,565833	0,1	0,479845
4,567500	0,1	0,539318
4,569167	0,1	0,483611
4,570833	0,1	0,493104
4,572500	0,1	0,492784
4,574167	0,1	0,457973
4,575833	0,1	0,503308
4,577500	0,1	0,488290
4,579167	0,1	0,508810
4,580833	0,1	0,467097
4,582500	0,1	0,488024
4,584167	0,1	0,460606
4,585833	0,1	0,465192
4,587500	0,1	0,439535
4,589167	0,1	0,484134
4,590833	0,1	0,462693
4,592500	0,1	0,470972
4,594167	0,1	0,434591
4,595833	0,1	0,435579
4,597500	0,1	0,473759
4,599167	0,1	0,465388
4,600833	0,1	0,450324
4,602500	0,1	0,434170
4,604167	0,1	0,430151
4,605833	0,1	0,421513
4,607500	0,1	0,435350
4,609167	0,1	0,452149
4,610833	0,1	0,431923
4,612500	0,1	0,394444
4,614167	0,1	0,409239
4,615833	0,1	0,453298
4,617500	0,1	0,447752
4,619167	0,1	0,418114
4,620833	0,1	0,427034
4,622500	0,1	0,452948
4,624167	0,1	0,412496
4,625833	0,1	0,420578
4,627500	0,1	0,414157
4,629167	0,1	0,399129
4,630833	0,1	0,389429
4,632500	0,1	0,361812
4,634167	0,1	0,375904
4,635833	0,1	0,367176
4,637500	0,1	0,353558
4,639167	0,1	0,398347
4,640833	0,1	0,399738
4,642500	0,1	0,376715
4,644167	0,1	0,356648
4,645833	0,1	0,343379
4,647500	0,1	0,364884
4,649167	0,1	0,369678
4,650833	0,1	0,367817
4,652500	0,1	0,338887
4,654167	0,1	0,380457
4,655833	0,1	0,367564
4,657500	0,1	0,383064
4,659167	0,1	0,388464
4,660833	0,1	0,390647
4,662500	0,1	0,347275
4,664167	0,1	0,364119
4,665833	0,1	0,385667
4,667500	0,1	0,359023
4,669167	0,1	0,374299
4,670833	0,1	0,328234
4,672500	0,1	0,327517
4,674167	0,1	0,332398
4,675833	0,1	0,341192
4,677500	0,1	0,330315
4,679167	0,1	0,322921
4,680833	0,1	0,326163
4,682500	0,1	0,371624
4,684167	0,1	0,331634
4,685833	0,1	0,322927
4,687500	0,1	0,319327
4,689167	0,1	0,287225
4,690833	0,1	0,315206
4,692500	0,1	0,305970
4,694167	0,1	0,338358
4,695833	0,1	0,331759
4,697500	0,1	0,301062
4,699167	0,1	0,338074
4,700833	0,1	0,267363
4,702500	0,1	0,287818
4,704167	0,1	0,301502
4,705833	0,1	0,325197
4,707500	0,1	0,308476
4,709167	0,1	0,292619
4,710833	0,1	0,311458
4,712500	0,1	0,280740
4,714167	0,1	0,337842
4,715833	0,1	0,320648
4,717500	0,1	0,330629
4,719167	0,1	0,287291
4,720833	0,1	0,277263
4,722500	0,1	0,285289
4,724167	0,1	0,311486
4,725833	0,1	0,284973
4,727500	0,1	0,285679
4,729167	0,1	0,314957
4,730833	0,1	0,274131
4,732500	0,1	0,351423
4,734167	0,1	0,279077
4,735833	0,1	0,306221
4,737500	0,1	0,261480
4,739167	0,1	0,301660
4,740833	0,1	0,271848
4,742500	0,1	0,310556
4,744167	0,1	0,296408
4,745833	0,1	0,274089
4,747500	0,1	0,286318
4,749167	0,1	0,294637
4,750833	0,1	0,238177
4,752500	0,1	0,274464
4,754167	0,1	0,287475
4,755833	0,1	0,257975
4,757500	0,1	0,224110
4,759167	0,1	0,234913
4,760833	0,1	0,256868
4,762500	0,1	0,256467
4,764167	0,1	0,259450
4,765833	0,1	0,270173
4,767500	0,1	0,279968
4,769167	0,1	0,245750
4,770833	0,1	0,277033
4,772500	0,1	0,257684
4,774167	0,1	0,250391
4,775833	0,1	0,260724
4,777500	0,1	0,255374
4,779167	0,1	0,266503
4,780833	0,1	0,269308
4,782500	0,1	0,277554
4,784167	0,1	0,260413
4,785833	0,1	0,234697
4,787500	0,1	0,280214
4,789167	0,1	0,268154
4,790833	0,1	0,249400
4,792500	0,1	0,217363
4,794167	0,1	0,233890
4,795833	0,1	0,233957
4,797500	0,1	0,249553
4,799167	0,1	0,271872
4,800833	0,1	0,231237
4,802500	0,1	0,237293
4,804167	0,1	0,249617
4,805833	0,1	0,239223
4,807500	0,1	0,289583
4,809167	0,1	0,252713
4,810833	0,1	0,235600
4,812500	0,1	0,296200
4,814167	0,1	0,222797
4,815833	0,1	0,259018
4,817500	0,1	0,245103
4,819167	0,1	0,239323
4,820833	0,1	0,231970
4,822500	0,1	0,251453
4,824167	0,1	0,240706
4,825833	0,1	0,218013
4,827500	0,1	0,236259
4,829167	0,1	0,229455
4,830833	0,1	0,182571
4,832500	0,1	0,217094
4,834167	0,1	0,246276
4,835833	0,1	0,243652
4,837500	0,1	0,239095
4,839167	0,1	0,237168
4,840833	0,1	0,222947
4,842500	0,1	0,275617
4,844167	0,1	0,225423
4,845833	0,1	0,236261
4,847500	0,1	0,230135
4,849167	0,1	0,201059
4,850833	0,1	0,257349
4,852500	0,1	0,237941
4,854167	0,1	0,229980
4,855833	0,1	0,193771
4,857500	0,1	0,228135
4,859167	0,1	0,218098
4,860833	0,1	0,228113
4,862500	0,1	0,203752
4,864167	0,1	0,253461
4,865833	0,1	0,180136
4,867500	0,1	0,246529
4,869167	0,1	0,181064
4,870833	0,1	0,195243
4,872500	0,1	0,206989
4,874167	0,1	0,193249
4,875833	0,1	0,212123
4,877500	0,1	0,206919
4,879167	0,1	0,206767
4,880833	0,1	0,220987
4,882500	0,1	0,185413
4,884167	0,1	0,234588
4,885833	0,1	0,217458
4,887500	0,1	0,225156
4,889167	0,1	0,208985
4,890833	0,1	0,215978
4,892500	0,1	0,236947
4,894167	0,1	0,192327
4,895833	0,1	0,221815
4,897500	0,1	0,188283
4,899167	0,1	0,221498
4,900833	0,1	0,243330
4,902500	0,1	0,233182
4,904167	0,1	0,149473
4,905833	0,1	0,205431
4,907500	0,1	0,202852
4,909167	0,1	0,207082
4,910833	0,1	0,212253
4,912500	0,1	0,202780
4,914167	0,1	0,230452
4,915833	0,1	0,233406
4,917500	0,1	0,173649
4,919167	0,1	0,201182
4,920833	0,1	0,224068
4,922500	0,1	0,217582
4,924167	0,1	0,235373
4,925833	0,1	0,258422
4,927500	0,1	0,181357
4,929167	0,1	0,207666
4,930833	0,1	0,214333
4,932500	0,1	0,227986
4,934167	0,1	0,197018
4,935833	0,1	0,204159
4,937500	0,1	0,221656
4,939167	0,1	0,240373
4,940833	0,1	0,243398
4,942500	0,1	0,228888
4,944167	0,1	0,187415
4,945833	0,1	0,189547
4,947500	0,1	0,253403
4,949167	0,1	0,216090
4,950833	0,1	0,259984
4,952500	0,1	0,231687
4,954167	0,1	0,246634
4,955833	0,1	0,256338
4,957500	0,1	0,209182
4,959167	0,1	0,206929
4,960833	0,1	0,217552
4,962500	0,1	0,207222
4,964167	0,1	0,228500
4,965833	0,1	0,191746
4,967500	0,1	0,231633
4,969167	0,1	0,207667
4,970833	0,1	0,224035
4,972500	0,1	0,201798
4,974167	0,1	0,236428
4,975833	0,1	0,211456
4,977500	0,1	0,236620
4,979167	0,1	0,206711
4,980833	0,1	0,238770
4,982500	0,1	0,214919
4,984167	0,1	0,212192
4,985833	0,1	0,237035
4,987500	0,1	0,249499
4,989167	0,1	0,221891
4,990833	0,1	0,244740
4,992500	0,1	0,220644
4,994167	0,1	0,230330
4,995833	0,1	0,239382
4,997500	0,1	0,252675
4,999167	0,1	0,251909
5,000833	0,1	0,239840
5,002500	0,1	0,212741
5,004167	0,1	0,205611
5,005833	0,1	0,232866
5,007500	0,1	0,222340
5,009167	0,1	0,224389
5,010833	0,1	0,263991
5,012500	0,1	0,229598
5,014167	0,1	0,255203
5,015833	0,1	0,219037
5,017500	0,1	0,251703
5,019167	0,1	0,243809
5,020833	0,1	0,247892
5,022500	0,1	0,264232
5,024167	0,1	0,266867
5,025833	0,1	0,233956
5,027500	0,1	0,209629
5,029167	0,1	0,249711
5,030833	0,1	0,268562
5,032500	0,1	0,251939
5,034167	0,1	0,234704
5,035833	0,1	0,252412
5,037500	0,1	0,294920
5,039167	0,1	0,247064
5,040833	0,1	0,295039
5,042500	0,1	0,241928
5,044167	0,1	0,237839
5,045833	0,1	0,297484
5,047500	0,1	0,305005
5,049167	0,1	0,236833
5,050833	0,1	0,283063
5,052500	0,1	0,280062
5,054167	0,1	0,265135
5,055833	0,1	0,231704
5,057500	0,1	0,314196
5,059167	0,1	0,285107
5,060833	0,1	0,278390
5,062500	0,1	0,256942
5,064167	0,1	0,316458
5,065833	0,1	0,287646
5,067500	0,1	0,298519
5,069167	0,1	0,265393
5,070833	0,1	0,263847
5,072500	0,1	0,309907
5,074167	0,1	0,299582
5,075833	0,1	0,283791
5,077500	0,1	0,274313
5,079167	0,1	0,297874
5,080833	0,1	0,264045
5,082500	0,1	0,319092
5,084167	0,1	0,295578
5,085833	0,1	0,274026
5,087500	0,1	0,282881
5,089167	0,1	0,321919
5,090833	0,1	0,314190
5,092500	0,1	0,274482
5,094167	0,1	0,284583
5,095833	0,1	0,285508
5,097500	0,1	0,323558
5,099167	0,1	0,276347
5,100833	0,1	0,308880
5,102500	0,1	0,319520
5,104167	0,1	0,314895
5,105833	0,1	0,321575
5,107500	0,1	0,320553
5,109167	0,1	0,289730
5,110833	0,1	0,313731
5,112500	0,1	0,308156
5,114167	0,1	0,331041
5,115833	0,1	0,308993
5,117500	0,1	0,322052
5,119167	0,1	0,284431
5,120833	0,1	0,289333
5,122500	0,1	0,336208
5,124167	0,1	0,299715
5,125833	0,1	0,296723
5,127500	0,1	0,321407
5,129167	0,1	0,313039
5,130833	0,1	0,316375
5,132500	0,1	0,334867
5,134167	0,1	0,318715
5,135833	0,1	0,350468
5,137500	0,1	0,336060
5,139167	0,1	0,325369
5,140833	0,1	0,311241
5,142500	0,1	0,322216
5,144167	0,1	0,296284
5,145833	0,1	0,346192
5,147500	0,1	0,272847
5,149167	0,1	0,318001
5,150833	0,1	0,310788
5,152500	0,1	0,284880
5,154167	0,1	0,315917
5,155833	0,1	0,332072
5,157500	0,1	0,333072
5,159167	0,1	0,283791
5,160833	0,1	0,300478
5,162500	0,1	0,276307
5,164167	0,1	0,296527
5,165833	0,1	0,336019
5,167500	0,1	0,292492
5,169167	0,1	0,311521
5,170833	0,1	0,312459
5,172500	0,1	0,316438
5,174167	0,1	0,313771
5,175833	0,1	0,281543
5,177500	0,1	0,312930
5,179167	0,1	0,289284
5,180833	0,1	0,306484
5,182500	0,1	0,310404
5,184167	0,1	0,255096
5,185833	0,1	0,258448
5,187500	0,1	0,264712
5,189167	0,1	0,261533
5,190833	0,1	0,295979
5,192500	0,1	0,306965
5,194167	0,1	0,288540
5,195833	0,1	0,280127
5,197500	0,1	0,285070
5,199167	0,1	0,281185
5,200833	0,1	0,286257
5,202500	0,1	0,278300
5,204167	0,1	0,295983
5,205833	0,1	0,276567
5,207500	0,1	0,274798
5,209167	0,1	0,265675
5,210833	0,1	0,270167
5,212500	0,1	0,290042
5,214167	0,1	0,283210
5,215833	0,1	0,247196
5,217500	0,1	0,232930
5,219167	0,1	0,277257
5,220833	0,1	0,262149
5,222500	0,1	0,262174
5,224167	0,1	0,264777
5,225833	0,1	0,266513
5,227500	0,1	0,250304
5,229167	0,1	0,254891
5,230833	0,1	0,227445
5,232500	0,1	0,239606
5,234167	0,1	0,220279
5,235833	0,1	0,283454
5,237500	0,1	0,243526
5,239167	0,1	0,235307
5,240833	0,1	0,205778
5,242500	0,1	0,275352
5,244167	0,1	0,214132
5,245833	0,1	0,248040
5,247500	0,1	0,235924
5,249167	0,1	0,236724
5,250833	0,1	0,233354
5,252500	0,1	0,216363
5,254167	0,1	0,235528
5,255833	0,1	0,276299
5,257500	0,1	0,204052
5,259167	0,1	0,239955
5,260833	0,1	0,201124
5,262500	0,1	0,170910
5,264167	0,1	0,206794
5,265833	0,1	0,227307
5,267500	0,1	0,199585
5,269167	0,1	0,181859
5,270833	0,1	0,221370
5,272500	0,1	0,193780
5,274167	0,1	0,224329
5,275833	0,1	0,196701
5,277500	0,1	0,204586
5,279167	0,1	0,207128
5,280833	0,1	0,181318
5,282500	0,1	0,200921
5,284167	0,1	0,211585
5,285833	0,1	0,192647
5,287500	0,1	0,158272
5,289167	0,1	0,188783
5,290833	0,1	0,194098
5,292500	0,1	0,175187
5,294167	0,1	0,195080
5,295833	0,1	0,143740
5,297500	0,1	0,153252
5,299167	0,1	0,157660
5,300833	0,1	0,145491
5,302500	0,1	0,180409
5,304167	0,1	0,180481
5,305833	0,1	0,205007
5,307500	0,1	0,151632
5,309167	0,1	0,125118
5,310833	0,1	0,157137
5,312500	0,1	0,198762
5,314167	0,1	0,167397
5,315833	0,1	0,162270
5,317500	0,1	0,179031
5,319167	0,1	0,148642
5,320833	0,1	0,118107
5,322500	0,1	0,118944
5,324167	0,1	0,105719
5,325833	0,1	0,172662
5,327500	0,1	0,123526
5,329167	0,1	0,101265
5,330833	0,1	0,134253
5,332500	0,1	0,139005
5,334167	0,1	0,122697
5,335833	0,1	0,145459
5,337500	0,1	0,128012
5,339167	0,1	0,116331
5,340833	0,1	0,141405
5,342500	0,1	0,101723
5,344167	0,1	0,134091
5,345833	0,1	0,129606
5,347500	0,1	0,136123
5,349167	0,1	0,129683
5,350833	0,1	0,143308
5,352500	0,1	0,090095
5,354167	0,1	0,104857
5,355833	0,1	0,103514
5,357500	0,1	0,131108
5,359167	0,1	0,112264
5,360833	0,1	0,114137
5,362500	0,1	0,102358
5,364167	0,1	0,122061
5,365833	0,1	0,076029
5,367500	0,1	0,079232
5,369167	0,1	0,138099
5,370833	0,1	0,078850
5,372500	0,1	0,084924
5,374167	0,1	0,110405
5,375833	0,1	0,112890
5,377500	0,1	0,113621
5,379167	0,1	0,132784
5,380833	0,1	0,078128
5,382500	0,1	0,093531
5,384167	0,1	0,100922
5,385833	0,1	0,086791
5,387500	0,1	0,110115
5,389167	0,1	0,092256
5,390833	0,1	0,096139
5,392500	0,1	0,091445
5,394167	0,1	0,109600
5,395833	0,1	0,073568
5,397500	0,1	0,103218
5,399167	0,1	0,073771
5,400833	0,1	0,102223
5,402500	0,1	0,104774
5,404167	0,1	0,094405
5,405833	0,1	0,019791
5,407500	0,1	0,089526
5,409167	0,1	0,108230
5,410833	0,1	0,059489
5,412500	0,1	0,100585
5,414167	0,1	0,061249
5,415833	0,1	0,075457
5,417500	0,1	0,052402
5,419167	0,1	0,023358
5,420833	0,1	0,099168
5,422500	0,1	0,071845
5,424167	0,1	0,065171
5,425833	0,1	0,073737
5,427500	0,1	0,040107
5,429167	0,1	0,088880
5,430833	0,1	0,020244
5,432500	0,1	0,052819
5,434167	0,1	0,080379
5,435833	0,1	0,080698
5,437500	0,1	0,050087
5,439167	0,1	0,068108
5,440833	0,1	0,026656
5,442500	0,1	0,051975
5,444167	0,1	0,077154
5,445833	0,1	0,048802
5,447500	0,1	0,045876
5,449167	0,1	0,055874
5,450833	0,1	0,039690
5,452500	0,1	0,071085
5,454167	0,1	0,066085
5,455833	0,1	0,035967
5,457500	0,1	0,043636
5,459167	0,1	0,009843
5,460833	0,1	0,027675
5,462500	0,1	0,067045
5,464167	0,1	0,044950
5,465833	0,1	0,028097
5,467500	0,1	0,034651
5,469167	0,1	0,049684
5,470833	0,1	0,076221
5,472500	0,1	0,018418
5,474167	0,1	0,035932
5,475833	0,1	0,040264
5,477500	0,1	0,053324
5,479167	0,1	0,033294
5,480833	0,1	0,047093
5,482500	0,1	0,055745
5,484167	0,1	0,082514
5,485833	0,1	0,029594
5,487500	0,1	0,051233
5,489167	0,1	0,016137
5,490833	0,1	0,051580
5,492500	0,1	0,030745
5,494167	0,1	0,051067
5,495833	0,1	0,006824
5,497500	0,1	0,006336
5,499167	0,1	0,066501
5,500833	0,1	0,045609
5,502500	0,1	-0,000817
5,504167	0,1	0,011054
5,505833	0,1	0,067057
5,507500	0,1	0,031165
5,509167	0,1	0,012531
5,510833	0,1	0,054083
5,512500	0,1	0,060447
5,514167	0,1	0,059644
5,515833	0,1	0,021292
5,517500	0,1	0,012529
5,519167	0,1	0,033552
5,520833	0,1	0,021016
5,522500	0,1	0,031403
5,524167	0,1	0,030577
5,525833	0,1	0,040842
5,527500	0,1	0,034803
5,529167	0,1	0,002306
5,530833	0,1	0,014530
5,532500	0,1	0,002158
5,534167	0,1	0,016083
5,535833	0,1	0,017224
5,537500	0,1	0,015464
5,539167	0,1	0,048333
5,540833	0,1	0,057920
5,542500	0,1	0,031121
5,544167	0,1	0,004043
5,545833	0,1	0,055780
5,547500	0,1	0,039791
5,549167	0,1	0,006301
5,550833	0,1	0,019560
5,552500	0,1	0,046801
5,554167	0,1	0,004400
5,555833	0,1	-0,000804
5,557500	0,1	-0,004282
5,559167	0,1	0,028064
5,560833	0,1	0,058290
5,562500	0,1	-0,025150
5,564167	0,1	0,023607
5,565833	0,1	0,041357
5,567500	0,1	0,045499
5,569167	0,1	-0,005740
5,570833	0,1	0,034768
5,572500	0,1	0,036994
5,574167	0,1	0,016359
5,575833	0,1	0,025212
5,577500	0,1	0,052844
5,579167	0,1	0,014935
5,580833	0,1	0,024962
5,582500	0,1	0,045870
5,584167	0,1	0,000839
5,585833	0,1	0,033362
5,587500	0,1	0,009137
5,589167	0,1	0,006646
5,590833	0,1	0,015048
5,592500	0,1	0,006442
5,594167	0,1	0,030179
5,595833	0,1	0,001830
5,597500	0,1	0,013081
5,599167	0,1	0,000337
5,600833	0,1	0,013784
5,602500	0,1	0,019063
5,604167	0,1	0,001019
5,605833	0,1	0,022148
5,607500	0,1	0,001518
5,609167	0,1	0,005031
5,610833	0,1	-0,004385
5,612500	0,1	0,008300
5,614167	0,1	0,019727
5,615833	0,1	0,005573
5,617500	0,1	0,007163
5,619167	0,1	0,041149
5,620833	0,1	0,043967
5,622500	0,1	0,013525
5,624167	0,1	0,009195
5,625833	0,1	-0,010717
5,627500	0,1	-0,021297
5,629167	0,1	0,020774
5,630833	0,1	0,019605
5,632500	0,1	0,021799
5,634167	0,1	0,031483
5,635833	0,1	0,010812
5,637500	0,1	0,031151
5,639167	0,1	0,014950
5,640833	0,1	0,020988
5,642500	0,1	0,020247
5,644167	0,1	0,036616
5,645833	0,1	0,005390
5,647500	0,1	0,058302
5,649167	0,1	0,032591
5,650833	0,1	0,057751
5,652500	0,1	0,026217
5,654167	0,1	0,021115
5,655833	0,1	0,004643
5,657500	0,1	0,028604
5,659167	0,1	0,017414
5,660833	0,1	0,031464
5,662500	0,1	-0,004689
5,664167	0,1	0,029410
5,665833	0,1	-0,006988
5,667500	0,1	0,023754
5,669167	0,1	0,046199
5,670833	0,1	0,029585
5,672500	0,1	0,010066
5,674167	0,1	0,029164
5,675833	0,1	-0,009056
5,677500	0,1	0,013618
5,679167	0,1	0,030718
5,680833	0,1	0,035811
5,682500	0,1	0,034074
5,684167	0,1	0,027120
5,685833	0,1	0,045933
5,687500	0,1	0,062036
5,689167	0,1	0,030667
5,690833	0,1	0,033330
5,692500	0,1	0,006672
5,694167	0,1	0,020555
5,695833	0,1	0,016958
5,697500	0,1	0,042309
5,699167	0,1	0,020727
5,700833	0,1	0,003916
5,702500	0,1	0,042595
5,704167	0,1	0,062432
5,705833	0,1	-0,002653
5,707500	0,1	0,057000
5,709167	0,1	0,055707
5,710833	0,1	0,015847
5,712500	0,1	0,046510
5,714167	0,1	0,021245
5,715833	0,1	0,022875
5,717500	0,1	0,038500
5,719167	0,1	0,037698
5,720833	0,1	0,040702
5,722500	0,1	0,047840
5,724167	0,1	0,046205
5,725833	0,1	0,050179
5,727500	0,1	0,056825
5,729167	0,1	0,040394
5,730833	0,1	0,086213
5,732500	0,1	0,042944
5,734167	0,1	0,007981
5,735833	0,1	0,047315
5,737500	0,1	0,048380
5,739167	0,1	0,054671
5,740833	0,1	0,066176
5,742500	0,1	0,074754
5,744167	0,1	0,036549
5,745833	0,1	0,066634
5,747500	0,1	0,049896
5,749167	0,1	0,084704
5,750833	0,1	0,033569
5,752500	0,1	0,037531
5,754167	0,1	0,043927
5,755833	0,1	0,062824
5,757500	0,1	0,015911
5,759167	0,1	0,047817
5,760833	0,1	0,060112
5,762500	0,1	0,010011
5,764167	0,1	0,082669
5,765833	0,1	0,048100
5,767500	0,1	0,027020
5,769167	0,1	0,045371
5,770833	0,1	0,032941
5,772500	0,1	0,068433
5,774167	0,1	0,058276
5,775833	0,1	0,059352
5,777500	0,1	0,073431
5,779167	0,1	0,027088
5,780833	0,1	0,059119
5,782500	0,1	0,091993
5,784167	0,1	0,017884
5,785833	0,1	0,042497
5,787500	0,1	0,073693
5,789167	0,1	0,023386
5,790833	0,1	0,100880
5,792500	0,1	0,078590
5,794167	0,1	0,075581
5,795833	0,1	0,081877
5,797500	0,1	0,057433
5,799167	0,1	0,064940
5,800833	0,1	0,056749
5,802500	0,1	0,080668
5,804167	0,1	0,069602
5,805833	0,1	0,048902
5,807500	0,1	0,079570
5,809167	0,1	0,029038
5,810833	0,1	0,042562
5,812500	0,1	0,029938
5,814167	0,1	0,054400
5,815833	0,1	0,026278
5,817500	0,1	0,028734
5,819167	0,1	0,070623
5,820833	0,1	0,032244
5,822500	0,1	0,046288
5,824167	0,1	0,102507
5,825833	0,1	0,036469
5,827500	0,1	0,016382
5,829167	0,1	0,020744
5,830833	0,1	0,029603
5,832500	0,1	0,049783
5,834167	0,1	0,032420
5,835833	0,1	0,074020
5,837500	0,1	0,002957
5,839167	0,1	0,048160
5,840833	0,1	0,033272
5,842500	0,1	0,076508
5,844167	0,1	0,067222
5,845833	0,1	0,064817
5,847500	0,1	0,030710
5,849167	0,1	0,052579
5,850833	0,1	0,035941
5,852500	0,1	0,035586
5,854167	0,1	0,034074
5,855833	0,1	0,041319
5,857500	0,1	0,073255
5,859167	0,1	0,037520
5,860833	0,1	0,056906
5,862500	0,1	-0,002592
5,864167	0,1	0,028023
5,865833	0,1	0,032272
5,867500	0,1	0,046100
5,869167	0,1	0,047841
5,870833	0,1	0,047096
5,872500	0,1	0,087874
5,874167	0,1	0,092376
5,875833	0,1	0,040465
5,877500	0,1	0,061376
5,879167	0,1	0,042733
5,880833	0,1	0,014311
5,882500	0,1	0,034485
5,884167	0,1	0,061413
5,885833	0,1	0,062852
5,887500	0,1	0,040933
5,889167	0,1	0,054107
5,890833	0,1	0,005519
5,892500	0,1	0,007785
5,894167	0,1	0,024755
5,895833	0,1	0,021925
5,897500	0,1	0,023868
5,899167	0,1	-0,005310
5,900833	0,1	0,063932
5,902500	0,1	0,020631
5,904167	0,1	0,050236
5,905833	0,1	0,026527
5,907500	0,1	0,000029
5,909167	0,1	0,056335
5,910833	0,1	0,045856
5,912500	0,1	0,032505
5,914167	0,1	0,014083
5,915833	0,1	0,048413
5,917500	0,1	0,063779
5,919167	0,1	0,025348
5,920833	0,1	0,028526
5,922500	0,1	0,042600
5,924167	0,1	0,045853
5,925833	0,1	0,026627
5,927500	0,1	0,029025
5,929167	0,1	-0,002537
5,930833	0,1	0,021007
5,932500	0,1	0,004332
5,934167	0,1	0,029599
5,935833	0,1	-0,013256
5,937500	0,1	0,016989
5,939167	0,1	0,044977
5,940833	0,1	-0,004209
5,942500	0,1	-0,004243
5,944167	0,1	0,039943
5,945833	0,1	0,011001
5,947500	0,1	0,000438
5,949167	0,1	0,036985
5,950833	0,1	-0,021201
5,952500	0,1	0,016345
5,954167	0,1	0,006131
5,955833	0,1	0,011861
5,957500	0,1	0,039905
5,959167	0,1	-0,018573
5,960833	0,1	0,013036
5,962500	0,1	0,026125
5,964167	0,1	0,036389
5,965833	0,1	0,038628
5,967500	0,1	0,007047
5,969167	0,1	-0,013801
5,970833	0,1	-0,017178
5,972500	0,1	0,023466
5,974167	0,1	-0,009326
5,975833	0,1	0,047890
5,977500	0,1	0,031386
5,979167	0,1	0,027408
5,980833	0,1	0,007996
5,982500	0,1	-0,014587
5,984167	0,1	0,007263
5,985833	0,1	-0,007095
5,987500	0,1	0,001530
5,989167	0,1	0,003208
5,990833	0,1	-0,006041
5,992500	0,1	-0,004532
5,994167	0,1	0,044621
5,995833	0,1	-0,008991
5,997500	0,1	0,001468
5,999167	0,1	-0,000972
6,000833	0,1	-0,004220
