File Path	chrom://chromeleon01/ikbm_chromeleon/2022/Rezex/Esteban/220612_chitin_4_7.seq/858.smp/UV_VIS_1.channel/UV_VIS_1.chm
Channel	UV_VIS_1

Injection Information:
Data Vault	ikbm_chromeleon
Injection	CelS2_04h-EGS_3
Injection Number	80
Position	GC8
Comment	
Processing Method	New ProcMethod
Instrument Method	Short_Rezex_6min_194nm
Type	Unknown
Status	Finished
Injection Date	13.06.2022
Injection Time	01:45:27
Injection Volume (µl)	8,000
Dilution Factor	1,0000
Weight	1,0000

Chromatogram Data Information:
Time Min. (min)	0,000833
Time Max. (min)	6,000833
Data Points	3601
Detector	UV
Generating Data System	Chromeleon 7.2.9.11323
Exporting Data System	Chromeleon 7.2.9.0
Operator	Instrument Controller
Signal Quantity	Absorbance
Signal Unit	mAU
Signal Min.	-0,142470
Signal Max.	302,815653
Channel	UV_VIS_1
Driver Name	VWD3000.dll
Channel Type	Evaluation
Min. Step (s)	0,1
Max. Step (s)	0,1
Average Step (s)	0,1

Signal Parameter Information:
Signal Info	WVL:194 nm

Chromatogram Data:
Time (min)	Step (s)	Value (mAU)
0,000833	n.a.	-0,055566
0,002500	0,1	-0,068143
0,004167	0,1	-0,045251
0,005833	0,1	-0,088152
0,007500	0,1	-0,063530
0,009167	0,1	-0,086459
0,010833	0,1	-0,037155
0,012500	0,1	0,005439
0,014167	0,1	-0,058471
0,015833	0,1	0,006176
0,017500	0,1	-0,048298
0,019167	0,1	-0,028938
0,020833	0,1	-0,047397
0,022500	0,1	-0,041972
0,024167	0,1	-0,063995
0,025833	0,1	-0,074027
0,027500	0,1	-0,054244
0,029167	0,1	-0,043445
0,030833	0,1	-0,076427
0,032500	0,1	-0,061434
0,034167	0,1	-0,133483
0,035833	0,1	-0,111107
0,037500	0,1	-0,099417
0,039167	0,1	-0,129267
0,040833	0,1	-0,142470
0,042500	0,1	-0,104274
0,044167	0,1	-0,107455
0,045833	0,1	-0,036934
0,047500	0,1	-0,112970
0,049167	0,1	-0,091380
0,050833	0,1	-0,079234
0,052500	0,1	-0,062905
0,054167	0,1	-0,052026
0,055833	0,1	-0,058922
0,057500	0,1	-0,056479
0,059167	0,1	-0,057287
0,060833	0,1	-0,059937
0,062500	0,1	-0,052189
0,064167	0,1	-0,070150
0,065833	0,1	-0,079501
0,067500	0,1	-0,076662
0,069167	0,1	-0,070675
0,070833	0,1	-0,043803
0,072500	0,1	-0,099754
0,074167	0,1	-0,046067
0,075833	0,1	-0,092297
0,077500	0,1	-0,005996
0,079167	0,1	-0,056383
0,080833	0,1	-0,078770
0,082500	0,1	-0,078527
0,084167	0,1	-0,033136
0,085833	0,1	-0,038013
0,087500	0,1	-0,008427
0,089167	0,1	-0,077992
0,090833	0,1	-0,043992
0,092500	0,1	-0,020878
0,094167	0,1	-0,017786
0,095833	0,1	-0,031524
0,097500	0,1	-0,058792
0,099167	0,1	-0,048296
0,100833	0,1	-0,048787
0,102500	0,1	-0,041478
0,104167	0,1	-0,042158
0,105833	0,1	-0,050487
0,107500	0,1	-0,010185
0,109167	0,1	-0,076544
0,110833	0,1	-0,037340
0,112500	0,1	-0,080693
0,114167	0,1	-0,110514
0,115833	0,1	-0,073026
0,117500	0,1	-0,053295
0,119167	0,1	-0,111503
0,120833	0,1	-0,094777
0,122500	0,1	-0,094091
0,124167	0,1	-0,093240
0,125833	0,1	-0,090153
0,127500	0,1	-0,040447
0,129167	0,1	-0,073566
0,130833	0,1	-0,027746
0,132500	0,1	-0,069398
0,134167	0,1	-0,051965
0,135833	0,1	-0,040358
0,137500	0,1	-0,048188
0,139167	0,1	-0,036441
0,140833	0,1	-0,081937
0,142500	0,1	-0,047430
0,144167	0,1	-0,088795
0,145833	0,1	-0,020809
0,147500	0,1	-0,026095
0,149167	0,1	-0,032935
0,150833	0,1	-0,020709
0,152500	0,1	0,021894
0,154167	0,1	-0,029087
0,155833	0,1	-0,032850
0,157500	0,1	-0,018101
0,159167	0,1	-0,051828
0,160833	0,1	-0,048687
0,162500	0,1	-0,043069
0,164167	0,1	-0,043109
0,165833	0,1	-0,087074
0,167500	0,1	-0,051264
0,169167	0,1	-0,026995
0,170833	0,1	-0,033845
0,172500	0,1	0,011133
0,174167	0,1	-0,024264
0,175833	0,1	-0,025516
0,177500	0,1	-0,040227
0,179167	0,1	-0,006563
0,180833	0,1	-0,029469
0,182500	0,1	-0,032294
0,184167	0,1	-0,027445
0,185833	0,1	-0,034509
0,187500	0,1	-0,058562
0,189167	0,1	-0,044460
0,190833	0,1	-0,029312
0,192500	0,1	-0,015452
0,194167	0,1	-0,047745
0,195833	0,1	-0,028979
0,197500	0,1	-0,020278
0,199167	0,1	-0,021310
0,200833	0,1	-0,038198
0,202500	0,1	-0,008427
0,204167	0,1	-0,007151
0,205833	0,1	-0,048322
0,207500	0,1	-0,021997
0,209167	0,1	-0,000527
0,210833	0,1	-0,050765
0,212500	0,1	-0,027841
0,214167	0,1	-0,015076
0,215833	0,1	-0,052719
0,217500	0,1	-0,048333
0,219167	0,1	-0,025563
0,220833	0,1	-0,012732
0,222500	0,1	-0,019670
0,224167	0,1	-0,038857
0,225833	0,1	-0,040646
0,227500	0,1	-0,015430
0,229167	0,1	-0,027215
0,230833	0,1	-0,006475
0,232500	0,1	-0,011647
0,234167	0,1	-0,031106
0,235833	0,1	0,021600
0,237500	0,1	-0,035368
0,239167	0,1	-0,007699
0,240833	0,1	-0,013825
0,242500	0,1	-0,012934
0,244167	0,1	-0,039519
0,245833	0,1	-0,002749
0,247500	0,1	-0,027125
0,249167	0,1	-0,055353
0,250833	0,1	-0,013507
0,252500	0,1	-0,001584
0,254167	0,1	-0,040512
0,255833	0,1	-0,017461
0,257500	0,1	-0,036287
0,259167	0,1	-0,049201
0,260833	0,1	-0,038017
0,262500	0,1	-0,026741
0,264167	0,1	-0,025495
0,265833	0,1	-0,042445
0,267500	0,1	-0,015159
0,269167	0,1	-0,049838
0,270833	0,1	-0,036441
0,272500	0,1	0,011486
0,274167	0,1	-0,027083
0,275833	0,1	-0,020503
0,277500	0,1	-0,000527
0,279167	0,1	-0,015813
0,280833	0,1	-0,014760
0,282500	0,1	0,003492
0,284167	0,1	-0,001476
0,285833	0,1	-0,000876
0,287500	0,1	-0,039352
0,289167	0,1	-0,003767
0,290833	0,1	0,029592
0,292500	0,1	0,018756
0,294167	0,1	-0,004058
0,295833	0,1	0,000120
0,297500	0,1	0,008409
0,299167	0,1	-0,026543
0,300833	0,1	-0,005479
0,302500	0,1	0,005233
0,304167	0,1	0,008159
0,305833	0,1	0,004391
0,307500	0,1	-0,016516
0,309167	0,1	-0,017493
0,310833	0,1	0,007596
0,312500	0,1	-0,028119
0,314167	0,1	-0,016377
0,315833	0,1	-0,034774
0,317500	0,1	0,037973
0,319167	0,1	0,000794
0,320833	0,1	-0,047990
0,322500	0,1	-0,010851
0,324167	0,1	0,018355
0,325833	0,1	-0,000830
0,327500	0,1	-0,006594
0,329167	0,1	0,021026
0,330833	0,1	-0,006877
0,332500	0,1	0,020158
0,334167	0,1	-0,000909
0,335833	0,1	-0,001847
0,337500	0,1	0,027225
0,339167	0,1	-0,015079
0,340833	0,1	-0,024270
0,342500	0,1	0,006576
0,344167	0,1	-0,057353
0,345833	0,1	0,002448
0,347500	0,1	0,008055
0,349167	0,1	-0,043846
0,350833	0,1	-0,020649
0,352500	0,1	0,004634
0,354167	0,1	0,016986
0,355833	0,1	0,009557
0,357500	0,1	0,017035
0,359167	0,1	0,014608
0,360833	0,1	-0,021193
0,362500	0,1	0,007432
0,364167	0,1	-0,012515
0,365833	0,1	-0,004332
0,367500	0,1	0,007537
0,369167	0,1	0,016330
0,370833	0,1	0,024018
0,372500	0,1	0,045319
0,374167	0,1	0,037327
0,375833	0,1	-0,006294
0,377500	0,1	-0,001416
0,379167	0,1	0,020676
0,380833	0,1	0,010341
0,382500	0,1	0,008286
0,384167	0,1	-0,009929
0,385833	0,1	0,016200
0,387500	0,1	0,009344
0,389167	0,1	0,002918
0,390833	0,1	0,050579
0,392500	0,1	0,050491
0,394167	0,1	-0,029432
0,395833	0,1	0,020316
0,397500	0,1	0,018237
0,399167	0,1	0,010425
0,400833	0,1	-0,004248
0,402500	0,1	0,006064
0,404167	0,1	0,018422
0,405833	0,1	0,018588
0,407500	0,1	0,012039
0,409167	0,1	0,007252
0,410833	0,1	0,034608
0,412500	0,1	0,041327
0,414167	0,1	0,033660
0,415833	0,1	0,005048
0,417500	0,1	0,012098
0,419167	0,1	0,015892
0,420833	0,1	0,016763
0,422500	0,1	0,019496
0,424167	0,1	0,002842
0,425833	0,1	0,021460
0,427500	0,1	-0,004575
0,429167	0,1	0,052028
0,430833	0,1	0,015033
0,432500	0,1	0,010941
0,434167	0,1	0,040985
0,435833	0,1	0,009688
0,437500	0,1	0,017489
0,439167	0,1	0,005248
0,440833	0,1	0,001429
0,442500	0,1	0,036117
0,444167	0,1	0,034692
0,445833	0,1	0,035092
0,447500	0,1	0,045801
0,449167	0,1	0,081668
0,450833	0,1	0,016262
0,452500	0,1	0,043150
0,454167	0,1	0,035336
0,455833	0,1	0,032082
0,457500	0,1	0,010178
0,459167	0,1	0,023600
0,460833	0,1	0,069920
0,462500	0,1	0,009193
0,464167	0,1	0,003773
0,465833	0,1	0,007022
0,467500	0,1	0,050745
0,469167	0,1	0,033043
0,470833	0,1	0,041264
0,472500	0,1	0,046608
0,474167	0,1	0,057203
0,475833	0,1	0,046072
0,477500	0,1	0,013026
0,479167	0,1	0,045568
0,480833	0,1	0,071349
0,482500	0,1	0,065083
0,484167	0,1	0,022845
0,485833	0,1	0,034132
0,487500	0,1	0,035937
0,489167	0,1	0,027940
0,490833	0,1	0,025265
0,492500	0,1	0,052058
0,494167	0,1	0,060744
0,495833	0,1	0,013522
0,497500	0,1	0,077856
0,499167	0,1	0,056693
0,500833	0,1	0,056917
0,502500	0,1	0,078181
0,504167	0,1	0,015353
0,505833	0,1	0,058569
0,507500	0,1	0,042492
0,509167	0,1	0,066487
0,510833	0,1	0,066970
0,512500	0,1	0,021586
0,514167	0,1	0,065260
0,515833	0,1	0,034394
0,517500	0,1	0,072330
0,519167	0,1	0,043969
0,520833	0,1	0,076224
0,522500	0,1	0,049477
0,524167	0,1	0,043056
0,525833	0,1	0,037124
0,527500	0,1	0,039189
0,529167	0,1	0,050448
0,530833	0,1	0,077384
0,532500	0,1	0,052964
0,534167	0,1	0,049723
0,535833	0,1	0,057783
0,537500	0,1	0,062901
0,539167	0,1	0,116832
0,540833	0,1	0,029558
0,542500	0,1	0,048055
0,544167	0,1	0,103248
0,545833	0,1	0,093585
0,547500	0,1	0,060389
0,549167	0,1	0,045102
0,550833	0,1	0,016010
0,552500	0,1	0,065901
0,554167	0,1	0,067715
0,555833	0,1	0,071835
0,557500	0,1	0,038641
0,559167	0,1	0,066234
0,560833	0,1	0,078259
0,562500	0,1	0,074911
0,564167	0,1	0,041854
0,565833	0,1	0,062278
0,567500	0,1	0,080815
0,569167	0,1	0,082306
0,570833	0,1	0,056482
0,572500	0,1	0,070282
0,574167	0,1	0,100191
0,575833	0,1	0,107467
0,577500	0,1	0,078670
0,579167	0,1	0,052853
0,580833	0,1	0,107972
0,582500	0,1	0,109033
0,584167	0,1	0,107949
0,585833	0,1	0,064198
0,587500	0,1	0,078988
0,589167	0,1	0,062678
0,590833	0,1	0,072539
0,592500	0,1	0,076396
0,594167	0,1	0,066104
0,595833	0,1	0,081459
0,597500	0,1	0,081045
0,599167	0,1	0,086386
0,600833	0,1	0,078969
0,602500	0,1	0,068814
0,604167	0,1	0,104941
0,605833	0,1	0,103187
0,607500	0,1	0,076162
0,609167	0,1	0,121596
0,610833	0,1	0,150740
0,612500	0,1	0,078290
0,614167	0,1	0,158919
0,615833	0,1	0,106385
0,617500	0,1	0,128671
0,619167	0,1	0,097825
0,620833	0,1	0,117809
0,622500	0,1	0,162729
0,624167	0,1	0,065546
0,625833	0,1	0,128689
0,627500	0,1	0,119091
0,629167	0,1	0,112587
0,630833	0,1	0,108782
0,632500	0,1	0,137822
0,634167	0,1	0,131730
0,635833	0,1	0,147539
0,637500	0,1	0,161958
0,639167	0,1	0,114233
0,640833	0,1	0,107371
0,642500	0,1	0,120118
0,644167	0,1	0,133225
0,645833	0,1	0,120704
0,647500	0,1	0,150296
0,649167	0,1	0,128520
0,650833	0,1	0,144379
0,652500	0,1	0,166032
0,654167	0,1	0,124757
0,655833	0,1	0,160443
0,657500	0,1	0,143789
0,659167	0,1	0,164917
0,660833	0,1	0,140957
0,662500	0,1	0,140273
0,664167	0,1	0,149747
0,665833	0,1	0,136645
0,667500	0,1	0,108244
0,669167	0,1	0,169153
0,670833	0,1	0,124153
0,672500	0,1	0,166451
0,674167	0,1	0,158614
0,675833	0,1	0,156431
0,677500	0,1	0,145253
0,679167	0,1	0,166528
0,680833	0,1	0,180083
0,682500	0,1	0,176783
0,684167	0,1	0,196252
0,685833	0,1	0,218877
0,687500	0,1	0,200413
0,689167	0,1	0,180218
0,690833	0,1	0,195483
0,692500	0,1	0,178035
0,694167	0,1	0,183146
0,695833	0,1	0,207982
0,697500	0,1	0,193461
0,699167	0,1	0,210301
0,700833	0,1	0,191724
0,702500	0,1	0,202873
0,704167	0,1	0,172734
0,705833	0,1	0,258465
0,707500	0,1	0,194399
0,709167	0,1	0,252973
0,710833	0,1	0,229914
0,712500	0,1	0,226109
0,714167	0,1	0,232253
0,715833	0,1	0,224449
0,717500	0,1	0,276251
0,719167	0,1	0,193930
0,720833	0,1	0,219356
0,722500	0,1	0,242147
0,724167	0,1	0,266965
0,725833	0,1	0,272916
0,727500	0,1	0,264753
0,729167	0,1	0,261892
0,730833	0,1	0,267773
0,732500	0,1	0,248811
0,734167	0,1	0,317296
0,735833	0,1	0,306675
0,737500	0,1	0,292499
0,739167	0,1	0,300014
0,740833	0,1	0,305225
0,742500	0,1	0,288156
0,744167	0,1	0,303195
0,745833	0,1	0,296320
0,747500	0,1	0,287383
0,749167	0,1	0,316822
0,750833	0,1	0,322679
0,752500	0,1	0,245934
0,754167	0,1	0,296178
0,755833	0,1	0,326051
0,757500	0,1	0,327794
0,759167	0,1	0,334573
0,760833	0,1	0,353639
0,762500	0,1	0,329857
0,764167	0,1	0,304590
0,765833	0,1	0,337077
0,767500	0,1	0,337792
0,769167	0,1	0,338369
0,770833	0,1	0,333903
0,772500	0,1	0,332069
0,774167	0,1	0,342741
0,775833	0,1	0,319794
0,777500	0,1	0,325894
0,779167	0,1	0,290767
0,780833	0,1	0,346267
0,782500	0,1	0,356565
0,784167	0,1	0,320346
0,785833	0,1	0,357717
0,787500	0,1	0,364380
0,789167	0,1	0,330889
0,790833	0,1	0,330847
0,792500	0,1	0,356112
0,794167	0,1	0,298197
0,795833	0,1	0,334376
0,797500	0,1	0,338274
0,799167	0,1	0,379836
0,800833	0,1	0,340052
0,802500	0,1	0,364312
0,804167	0,1	0,322274
0,805833	0,1	0,368903
0,807500	0,1	0,325491
0,809167	0,1	0,339010
0,810833	0,1	0,282478
0,812500	0,1	0,366386
0,814167	0,1	0,330277
0,815833	0,1	0,367652
0,817500	0,1	0,332754
0,819167	0,1	0,323875
0,820833	0,1	0,333517
0,822500	0,1	0,348817
0,824167	0,1	0,357852
0,825833	0,1	0,376788
0,827500	0,1	0,312795
0,829167	0,1	0,336661
0,830833	0,1	0,288554
0,832500	0,1	0,344529
0,834167	0,1	0,343227
0,835833	0,1	0,345443
0,837500	0,1	0,341491
0,839167	0,1	0,336540
0,840833	0,1	0,352641
0,842500	0,1	0,324874
0,844167	0,1	0,352125
0,845833	0,1	0,322337
0,847500	0,1	0,345760
0,849167	0,1	0,321885
0,850833	0,1	0,308733
0,852500	0,1	0,331711
0,854167	0,1	0,314555
0,855833	0,1	0,345791
0,857500	0,1	0,319186
0,859167	0,1	0,339557
0,860833	0,1	0,328698
0,862500	0,1	0,313167
0,864167	0,1	0,335729
0,865833	0,1	0,323553
0,867500	0,1	0,382854
0,869167	0,1	0,330379
0,870833	0,1	0,329273
0,872500	0,1	0,347432
0,874167	0,1	0,357821
0,875833	0,1	0,351104
0,877500	0,1	0,317160
0,879167	0,1	0,339329
0,880833	0,1	0,347628
0,882500	0,1	0,378938
0,884167	0,1	0,352073
0,885833	0,1	0,365279
0,887500	0,1	0,385147
0,889167	0,1	0,343010
0,890833	0,1	0,373215
0,892500	0,1	0,375570
0,894167	0,1	0,358694
0,895833	0,1	0,333073
0,897500	0,1	0,362253
0,899167	0,1	0,331145
0,900833	0,1	0,373953
0,902500	0,1	0,368723
0,904167	0,1	0,351912
0,905833	0,1	0,384982
0,907500	0,1	0,403732
0,909167	0,1	0,368537
0,910833	0,1	0,369847
0,912500	0,1	0,382835
0,914167	0,1	0,387754
0,915833	0,1	0,399072
0,917500	0,1	0,381072
0,919167	0,1	0,380137
0,920833	0,1	0,399103
0,922500	0,1	0,414183
0,924167	0,1	0,390496
0,925833	0,1	0,347190
0,927500	0,1	0,428028
0,929167	0,1	0,369605
0,930833	0,1	0,405882
0,932500	0,1	0,392294
0,934167	0,1	0,388207
0,935833	0,1	0,418264
0,937500	0,1	0,404384
0,939167	0,1	0,411067
0,940833	0,1	0,419074
0,942500	0,1	0,415538
0,944167	0,1	0,408757
0,945833	0,1	0,412063
0,947500	0,1	0,404254
0,949167	0,1	0,379178
0,950833	0,1	0,397753
0,952500	0,1	0,453376
0,954167	0,1	0,419374
0,955833	0,1	0,402036
0,957500	0,1	0,394415
0,959167	0,1	0,437584
0,960833	0,1	0,407410
0,962500	0,1	0,446689
0,964167	0,1	0,462131
0,965833	0,1	0,411210
0,967500	0,1	0,430553
0,969167	0,1	0,410944
0,970833	0,1	0,399497
0,972500	0,1	0,442060
0,974167	0,1	0,456375
0,975833	0,1	0,464415
0,977500	0,1	0,465832
0,979167	0,1	0,453166
0,980833	0,1	0,462999
0,982500	0,1	0,462746
0,984167	0,1	0,433781
0,985833	0,1	0,434317
0,987500	0,1	0,475632
0,989167	0,1	0,477410
0,990833	0,1	0,456290
0,992500	0,1	0,461490
0,994167	0,1	0,461973
0,995833	0,1	0,491360
0,997500	0,1	0,518376
0,999167	0,1	0,506742
1,000833	0,1	0,509673
1,002500	0,1	0,507803
1,004167	0,1	0,490829
1,005833	0,1	0,496802
1,007500	0,1	0,518573
1,009167	0,1	0,579829
1,010833	0,1	0,547181
1,012500	0,1	0,597369
1,014167	0,1	0,559685
1,015833	0,1	0,602071
1,017500	0,1	0,597803
1,019167	0,1	0,620287
1,020833	0,1	0,609030
1,022500	0,1	0,601468
1,024167	0,1	0,657299
1,025833	0,1	0,644328
1,027500	0,1	0,624764
1,029167	0,1	0,659431
1,030833	0,1	0,657232
1,032500	0,1	0,680866
1,034167	0,1	0,664026
1,035833	0,1	0,699459
1,037500	0,1	0,699008
1,039167	0,1	0,710786
1,040833	0,1	0,700284
1,042500	0,1	0,730639
1,044167	0,1	0,756384
1,045833	0,1	0,727609
1,047500	0,1	0,750832
1,049167	0,1	0,802745
1,050833	0,1	0,809830
1,052500	0,1	0,819756
1,054167	0,1	0,863498
1,055833	0,1	0,907434
1,057500	0,1	0,959386
1,059167	0,1	1,028842
1,060833	0,1	1,117586
1,062500	0,1	1,238491
1,064167	0,1	1,355324
1,065833	0,1	1,556717
1,067500	0,1	1,800528
1,069167	0,1	2,094668
1,070833	0,1	2,433592
1,072500	0,1	2,930626
1,074167	0,1	3,485291
1,075833	0,1	4,160861
1,077500	0,1	4,981494
1,079167	0,1	5,810903
1,080833	0,1	6,923696
1,082500	0,1	8,119426
1,084167	0,1	9,428244
1,085833	0,1	10,929441
1,087500	0,1	12,479792
1,089167	0,1	14,141835
1,090833	0,1	15,943462
1,092500	0,1	17,711815
1,094167	0,1	19,642409
1,095833	0,1	21,477598
1,097500	0,1	23,366973
1,099167	0,1	25,099302
1,100833	0,1	26,864513
1,102500	0,1	28,460905
1,104167	0,1	29,963710
1,105833	0,1	31,334354
1,107500	0,1	32,516314
1,109167	0,1	33,594303
1,110833	0,1	34,426491
1,112500	0,1	35,185754
1,114167	0,1	35,790491
1,115833	0,1	36,215909
1,117500	0,1	36,456716
1,119167	0,1	36,634252
1,120833	0,1	36,682994
1,122500	0,1	36,693021
1,124167	0,1	36,486872
1,125833	0,1	36,294757
1,127500	0,1	36,015185
1,129167	0,1	35,722815
1,130833	0,1	35,400200
1,132500	0,1	35,052741
1,134167	0,1	34,770048
1,135833	0,1	34,462950
1,137500	0,1	34,154378
1,139167	0,1	33,912098
1,140833	0,1	33,754209
1,142500	0,1	33,614427
1,144167	0,1	33,542585
1,145833	0,1	33,530796
1,147500	0,1	33,561349
1,149167	0,1	33,740301
1,150833	0,1	33,959978
1,152500	0,1	34,243504
1,154167	0,1	34,664326
1,155833	0,1	35,123822
1,157500	0,1	35,646634
1,159167	0,1	36,246131
1,160833	0,1	36,866528
1,162500	0,1	37,525186
1,164167	0,1	38,240691
1,165833	0,1	38,970319
1,167500	0,1	39,636676
1,169167	0,1	40,362517
1,170833	0,1	41,077723
1,172500	0,1	41,762185
1,174167	0,1	42,390247
1,175833	0,1	43,027782
1,177500	0,1	43,600022
1,179167	0,1	44,154674
1,180833	0,1	44,657293
1,182500	0,1	45,042162
1,184167	0,1	45,422926
1,185833	0,1	45,747575
1,187500	0,1	46,070485
1,189167	0,1	46,357686
1,190833	0,1	46,659972
1,192500	0,1	46,922369
1,194167	0,1	47,225663
1,195833	0,1	47,566749
1,197500	0,1	47,993480
1,199167	0,1	48,545027
1,200833	0,1	49,137846
1,202500	0,1	49,897353
1,204167	0,1	50,843064
1,205833	0,1	52,018188
1,207500	0,1	53,374928
1,209167	0,1	54,966929
1,210833	0,1	56,826158
1,212500	0,1	58,926469
1,214167	0,1	61,300715
1,215833	0,1	63,953545
1,217500	0,1	66,813683
1,219167	0,1	69,957519
1,220833	0,1	73,294453
1,222500	0,1	76,839376
1,224167	0,1	80,529623
1,225833	0,1	84,289063
1,227500	0,1	88,171102
1,229167	0,1	92,103142
1,230833	0,1	96,050732
1,232500	0,1	99,916489
1,234167	0,1	103,735872
1,235833	0,1	107,355950
1,237500	0,1	110,924548
1,239167	0,1	114,166183
1,240833	0,1	117,287243
1,242500	0,1	120,150191
1,244167	0,1	122,727578
1,245833	0,1	124,932709
1,247500	0,1	126,980006
1,249167	0,1	128,675371
1,250833	0,1	130,055952
1,252500	0,1	131,183846
1,254167	0,1	131,961537
1,255833	0,1	132,465686
1,257500	0,1	132,640618
1,259167	0,1	132,546884
1,260833	0,1	132,141456
1,262500	0,1	131,510267
1,264167	0,1	130,581969
1,265833	0,1	129,425910
1,267500	0,1	128,051143
1,269167	0,1	126,419739
1,270833	0,1	124,628399
1,272500	0,1	122,606936
1,274167	0,1	120,406499
1,275833	0,1	118,100423
1,277500	0,1	115,639238
1,279167	0,1	113,087841
1,280833	0,1	110,394381
1,282500	0,1	107,715862
1,284167	0,1	104,882805
1,285833	0,1	102,083398
1,287500	0,1	99,273611
1,289167	0,1	96,349647
1,290833	0,1	93,461402
1,292500	0,1	90,638476
1,294167	0,1	87,822983
1,295833	0,1	85,127834
1,297500	0,1	82,363338
1,299167	0,1	79,733665
1,300833	0,1	77,151043
1,302500	0,1	74,630848
1,304167	0,1	72,222130
1,305833	0,1	69,859539
1,307500	0,1	67,599286
1,309167	0,1	65,413424
1,310833	0,1	63,343738
1,312500	0,1	61,287275
1,314167	0,1	59,396327
1,315833	0,1	57,546791
1,317500	0,1	55,757431
1,319167	0,1	54,085066
1,320833	0,1	52,443486
1,322500	0,1	50,887910
1,324167	0,1	49,420992
1,325833	0,1	47,993345
1,327500	0,1	46,657531
1,329167	0,1	45,313555
1,330833	0,1	44,055323
1,332500	0,1	42,835151
1,334167	0,1	41,724165
1,335833	0,1	40,589126
1,337500	0,1	39,545292
1,339167	0,1	38,535166
1,340833	0,1	37,547044
1,342500	0,1	36,562777
1,344167	0,1	35,641377
1,345833	0,1	34,735213
1,347500	0,1	33,858637
1,349167	0,1	33,033186
1,350833	0,1	32,241480
1,352500	0,1	31,463127
1,354167	0,1	30,672035
1,355833	0,1	29,929608
1,357500	0,1	29,212171
1,359167	0,1	28,494691
1,360833	0,1	27,820558
1,362500	0,1	27,138089
1,364167	0,1	26,510303
1,365833	0,1	25,885377
1,367500	0,1	25,272047
1,369167	0,1	24,692628
1,370833	0,1	24,099260
1,372500	0,1	23,481075
1,374167	0,1	22,976607
1,375833	0,1	22,447728
1,377500	0,1	21,936285
1,379167	0,1	21,421726
1,380833	0,1	20,881664
1,382500	0,1	20,423940
1,384167	0,1	19,956326
1,385833	0,1	19,535564
1,387500	0,1	19,080016
1,389167	0,1	18,661196
1,390833	0,1	18,257226
1,392500	0,1	17,869134
1,394167	0,1	17,449606
1,395833	0,1	17,092844
1,397500	0,1	16,775554
1,399167	0,1	16,402530
1,400833	0,1	16,068763
1,402500	0,1	15,743804
1,404167	0,1	15,436115
1,405833	0,1	15,108688
1,407500	0,1	14,845322
1,409167	0,1	14,566416
1,410833	0,1	14,299150
1,412500	0,1	14,018923
1,414167	0,1	13,837962
1,415833	0,1	13,567316
1,417500	0,1	13,280596
1,419167	0,1	13,099803
1,420833	0,1	12,898964
1,422500	0,1	12,671289
1,424167	0,1	12,483667
1,425833	0,1	12,297681
1,427500	0,1	12,086936
1,429167	0,1	11,952091
1,430833	0,1	11,751891
1,432500	0,1	11,584620
1,434167	0,1	11,391984
1,435833	0,1	11,186001
1,437500	0,1	11,033293
1,439167	0,1	10,895080
1,440833	0,1	10,764002
1,442500	0,1	10,578977
1,444167	0,1	10,457460
1,445833	0,1	10,312533
1,447500	0,1	10,183377
1,449167	0,1	10,038859
1,450833	0,1	9,869854
1,452500	0,1	9,765469
1,454167	0,1	9,696384
1,455833	0,1	9,492499
1,457500	0,1	9,369876
1,459167	0,1	9,253098
1,460833	0,1	9,143777
1,462500	0,1	8,998897
1,464167	0,1	8,918143
1,465833	0,1	8,803501
1,467500	0,1	8,729454
1,469167	0,1	8,589793
1,470833	0,1	8,488295
1,472500	0,1	8,434159
1,474167	0,1	8,289428
1,475833	0,1	8,250667
1,477500	0,1	8,155208
1,479167	0,1	8,055231
1,480833	0,1	7,980500
1,482500	0,1	7,937108
1,484167	0,1	7,873549
1,485833	0,1	7,755368
1,487500	0,1	7,736099
1,489167	0,1	7,669378
1,490833	0,1	7,596809
1,492500	0,1	7,575501
1,494167	0,1	7,519479
1,495833	0,1	7,476795
1,497500	0,1	7,442151
1,499167	0,1	7,419820
1,500833	0,1	7,375116
1,502500	0,1	7,330484
1,504167	0,1	7,317980
1,505833	0,1	7,255733
1,507500	0,1	7,205990
1,509167	0,1	7,200016
1,510833	0,1	7,175094
1,512500	0,1	7,198039
1,514167	0,1	7,152512
1,515833	0,1	7,101207
1,517500	0,1	7,098208
1,519167	0,1	7,069854
1,520833	0,1	7,049146
1,522500	0,1	7,015653
1,524167	0,1	7,040640
1,525833	0,1	6,970055
1,527500	0,1	6,983558
1,529167	0,1	6,981693
1,530833	0,1	6,898154
1,532500	0,1	6,880047
1,534167	0,1	6,924419
1,535833	0,1	6,854321
1,537500	0,1	6,807604
1,539167	0,1	6,811040
1,540833	0,1	6,833692
1,542500	0,1	6,763510
1,544167	0,1	6,785585
1,545833	0,1	6,739548
1,547500	0,1	6,733847
1,549167	0,1	6,679427
1,550833	0,1	6,603003
1,552500	0,1	6,601404
1,554167	0,1	6,588453
1,555833	0,1	6,562272
1,557500	0,1	6,561346
1,559167	0,1	6,508340
1,560833	0,1	6,507206
1,562500	0,1	6,496122
1,564167	0,1	6,427659
1,565833	0,1	6,397191
1,567500	0,1	6,417301
1,569167	0,1	6,347089
1,570833	0,1	6,344359
1,572500	0,1	6,306186
1,574167	0,1	6,321819
1,575833	0,1	6,241580
1,577500	0,1	6,220618
1,579167	0,1	6,177971
1,580833	0,1	6,133747
1,582500	0,1	6,171446
1,584167	0,1	6,136934
1,585833	0,1	6,058261
1,587500	0,1	6,043926
1,589167	0,1	6,048851
1,590833	0,1	5,995381
1,592500	0,1	5,983991
1,594167	0,1	5,956381
1,595833	0,1	5,926024
1,597500	0,1	5,887984
1,599167	0,1	5,854918
1,600833	0,1	5,836783
1,602500	0,1	5,815503
1,604167	0,1	5,811254
1,605833	0,1	5,759724
1,607500	0,1	5,762227
1,609167	0,1	5,739888
1,610833	0,1	5,691915
1,612500	0,1	5,705322
1,614167	0,1	5,611370
1,615833	0,1	5,648914
1,617500	0,1	5,673143
1,619167	0,1	5,624676
1,620833	0,1	5,648197
1,622500	0,1	5,640287
1,624167	0,1	5,638265
1,625833	0,1	5,637945
1,627500	0,1	5,666386
1,629167	0,1	5,679233
1,630833	0,1	5,705866
1,632500	0,1	5,744199
1,634167	0,1	5,802638
1,635833	0,1	5,861156
1,637500	0,1	5,933355
1,639167	0,1	5,971856
1,640833	0,1	6,093433
1,642500	0,1	6,211833
1,644167	0,1	6,382912
1,645833	0,1	6,482686
1,647500	0,1	6,668751
1,649167	0,1	6,931547
1,650833	0,1	7,079704
1,652500	0,1	7,337876
1,654167	0,1	7,612322
1,655833	0,1	7,916184
1,657500	0,1	8,281504
1,659167	0,1	8,699360
1,660833	0,1	9,138567
1,662500	0,1	9,593208
1,664167	0,1	10,119307
1,665833	0,1	10,727262
1,667500	0,1	11,335936
1,669167	0,1	12,026448
1,670833	0,1	12,729461
1,672500	0,1	13,603612
1,674167	0,1	14,423512
1,675833	0,1	15,418225
1,677500	0,1	16,441151
1,679167	0,1	17,543108
1,680833	0,1	18,627612
1,682500	0,1	19,881861
1,684167	0,1	21,215077
1,685833	0,1	22,604663
1,687500	0,1	24,083224
1,689167	0,1	25,639416
1,690833	0,1	27,288755
1,692500	0,1	28,939750
1,694167	0,1	30,774301
1,695833	0,1	32,664756
1,697500	0,1	34,666425
1,699167	0,1	36,642216
1,700833	0,1	38,740919
1,702500	0,1	40,935134
1,704167	0,1	43,130834
1,705833	0,1	45,477273
1,707500	0,1	47,816598
1,709167	0,1	50,274089
1,710833	0,1	52,760664
1,712500	0,1	55,296772
1,714167	0,1	57,862303
1,715833	0,1	60,471550
1,717500	0,1	63,172814
1,719167	0,1	65,876907
1,720833	0,1	68,538740
1,722500	0,1	71,262561
1,724167	0,1	73,988571
1,725833	0,1	76,733012
1,727500	0,1	79,464753
1,729167	0,1	82,177999
1,730833	0,1	84,879441
1,732500	0,1	87,544996
1,734167	0,1	90,213405
1,735833	0,1	92,825267
1,737500	0,1	95,423242
1,739167	0,1	97,921738
1,740833	0,1	100,470531
1,742500	0,1	102,886367
1,744167	0,1	105,168869
1,745833	0,1	107,491597
1,747500	0,1	109,669395
1,749167	0,1	111,788446
1,750833	0,1	113,790983
1,752500	0,1	115,689435
1,754167	0,1	117,537354
1,755833	0,1	119,293349
1,757500	0,1	120,916834
1,759167	0,1	122,476258
1,760833	0,1	123,904494
1,762500	0,1	125,201803
1,764167	0,1	126,416821
1,765833	0,1	127,503923
1,767500	0,1	128,512398
1,769167	0,1	129,345888
1,770833	0,1	130,070233
1,772500	0,1	130,693890
1,774167	0,1	131,211890
1,775833	0,1	131,636641
1,777500	0,1	131,910858
1,779167	0,1	132,080350
1,780833	0,1	132,099860
1,782500	0,1	132,039914
1,784167	0,1	131,880058
1,785833	0,1	131,536150
1,787500	0,1	131,237611
1,789167	0,1	130,751232
1,790833	0,1	130,213313
1,792500	0,1	129,573429
1,794167	0,1	128,762910
1,795833	0,1	127,878475
1,797500	0,1	126,958560
1,799167	0,1	125,990318
1,800833	0,1	124,848943
1,802500	0,1	123,715418
1,804167	0,1	122,445746
1,805833	0,1	121,111444
1,807500	0,1	119,735226
1,809167	0,1	118,331692
1,810833	0,1	116,830476
1,812500	0,1	115,333827
1,814167	0,1	113,712543
1,815833	0,1	112,113929
1,817500	0,1	110,468492
1,819167	0,1	108,727301
1,820833	0,1	107,041392
1,822500	0,1	105,288179
1,824167	0,1	103,485440
1,825833	0,1	101,694903
1,827500	0,1	99,820269
1,829167	0,1	98,016751
1,830833	0,1	96,188124
1,832500	0,1	94,343578
1,834167	0,1	92,567263
1,835833	0,1	90,616634
1,837500	0,1	88,795474
1,839167	0,1	86,926633
1,840833	0,1	85,092608
1,842500	0,1	83,302479
1,844167	0,1	81,480326
1,845833	0,1	79,714708
1,847500	0,1	77,965262
1,849167	0,1	76,230694
1,850833	0,1	74,486324
1,852500	0,1	72,833346
1,854167	0,1	71,117296
1,855833	0,1	69,571977
1,857500	0,1	67,959414
1,859167	0,1	66,316329
1,860833	0,1	64,835154
1,862500	0,1	63,291079
1,864167	0,1	61,806712
1,865833	0,1	60,317639
1,867500	0,1	58,882690
1,869167	0,1	57,488162
1,870833	0,1	56,184413
1,872500	0,1	54,809494
1,874167	0,1	53,454148
1,875833	0,1	52,151460
1,877500	0,1	50,886212
1,879167	0,1	49,662896
1,880833	0,1	48,452561
1,882500	0,1	47,245935
1,884167	0,1	46,108039
1,885833	0,1	44,971435
1,887500	0,1	43,924543
1,889167	0,1	42,841042
1,890833	0,1	41,769490
1,892500	0,1	40,751811
1,894167	0,1	39,749587
1,895833	0,1	38,756800
1,897500	0,1	37,822655
1,899167	0,1	36,898375
1,900833	0,1	36,030988
1,902500	0,1	35,154873
1,904167	0,1	34,271948
1,905833	0,1	33,467568
1,907500	0,1	32,605505
1,909167	0,1	31,870798
1,910833	0,1	31,139280
1,912500	0,1	30,385444
1,914167	0,1	29,698469
1,915833	0,1	28,950678
1,917500	0,1	28,290689
1,919167	0,1	27,611553
1,920833	0,1	26,981801
1,922500	0,1	26,297171
1,924167	0,1	25,724846
1,925833	0,1	25,112136
1,927500	0,1	24,537656
1,929167	0,1	23,936884
1,930833	0,1	23,425950
1,932500	0,1	22,877240
1,934167	0,1	22,314873
1,935833	0,1	21,869239
1,937500	0,1	21,321265
1,939167	0,1	20,850696
1,940833	0,1	20,400836
1,942500	0,1	19,946704
1,944167	0,1	19,526223
1,945833	0,1	19,045747
1,947500	0,1	18,658882
1,949167	0,1	18,230374
1,950833	0,1	17,846397
1,952500	0,1	17,445023
1,954167	0,1	17,070765
1,955833	0,1	16,721702
1,957500	0,1	16,392495
1,959167	0,1	16,045432
1,960833	0,1	15,705432
1,962500	0,1	15,367299
1,964167	0,1	15,063068
1,965833	0,1	14,765306
1,967500	0,1	14,479434
1,969167	0,1	14,179827
1,970833	0,1	13,973549
1,972500	0,1	13,696356
1,974167	0,1	13,491234
1,975833	0,1	13,237142
1,977500	0,1	12,995308
1,979167	0,1	12,760755
1,980833	0,1	12,518184
1,982500	0,1	12,315484
1,984167	0,1	12,120233
1,985833	0,1	11,959673
1,987500	0,1	11,786920
1,989167	0,1	11,582235
1,990833	0,1	11,415494
1,992500	0,1	11,265105
1,994167	0,1	11,088099
1,995833	0,1	10,997071
1,997500	0,1	10,817287
1,999167	0,1	10,693195
2,000833	0,1	10,534864
2,002500	0,1	10,413862
2,004167	0,1	10,331050
2,005833	0,1	10,254623
2,007500	0,1	10,128356
2,009167	0,1	10,000794
2,010833	0,1	9,904305
2,012500	0,1	9,850462
2,014167	0,1	9,754552
2,015833	0,1	9,680893
2,017500	0,1	9,571011
2,019167	0,1	9,539362
2,020833	0,1	9,509938
2,022500	0,1	9,446946
2,024167	0,1	9,388691
2,025833	0,1	9,338758
2,027500	0,1	9,298049
2,029167	0,1	9,216715
2,030833	0,1	9,148084
2,032500	0,1	9,173031
2,034167	0,1	9,116967
2,035833	0,1	9,068308
2,037500	0,1	9,111106
2,039167	0,1	9,082256
2,040833	0,1	9,000715
2,042500	0,1	8,990512
2,044167	0,1	8,996553
2,045833	0,1	9,019442
2,047500	0,1	8,993453
2,049167	0,1	8,990484
2,050833	0,1	8,926738
2,052500	0,1	8,917811
2,054167	0,1	8,947086
2,055833	0,1	8,883382
2,057500	0,1	8,922500
2,059167	0,1	8,913403
2,060833	0,1	8,926339
2,062500	0,1	8,872478
2,064167	0,1	8,894407
2,065833	0,1	8,869675
2,067500	0,1	8,891960
2,069167	0,1	8,884619
2,070833	0,1	8,893418
2,072500	0,1	8,882193
2,074167	0,1	8,870562
2,075833	0,1	8,859660
2,077500	0,1	8,855203
2,079167	0,1	8,860005
2,080833	0,1	8,873601
2,082500	0,1	8,874596
2,084167	0,1	8,858586
2,085833	0,1	8,870629
2,087500	0,1	8,835785
2,089167	0,1	8,805129
2,090833	0,1	8,797268
2,092500	0,1	8,804316
2,094167	0,1	8,802440
2,095833	0,1	8,838402
2,097500	0,1	8,777918
2,099167	0,1	8,757354
2,100833	0,1	8,757580
2,102500	0,1	8,771694
2,104167	0,1	8,746211
2,105833	0,1	8,712532
2,107500	0,1	8,737895
2,109167	0,1	8,730620
2,110833	0,1	8,676837
2,112500	0,1	8,672791
2,114167	0,1	8,657393
2,115833	0,1	8,611599
2,117500	0,1	8,562929
2,119167	0,1	8,616615
2,120833	0,1	8,577092
2,122500	0,1	8,562342
2,124167	0,1	8,529003
2,125833	0,1	8,499366
2,127500	0,1	8,466787
2,129167	0,1	8,434460
2,130833	0,1	8,401579
2,132500	0,1	8,396207
2,134167	0,1	8,392023
2,135833	0,1	8,352564
2,137500	0,1	8,317386
2,139167	0,1	8,287359
2,140833	0,1	8,287608
2,142500	0,1	8,214463
2,144167	0,1	8,222102
2,145833	0,1	8,196931
2,147500	0,1	8,138574
2,149167	0,1	8,125948
2,150833	0,1	8,126221
2,152500	0,1	8,062270
2,154167	0,1	8,063340
2,155833	0,1	8,027099
2,157500	0,1	7,963548
2,159167	0,1	7,966641
2,160833	0,1	7,907045
2,162500	0,1	7,903466
2,164167	0,1	7,852752
2,165833	0,1	7,853431
2,167500	0,1	7,812176
2,169167	0,1	7,846537
2,170833	0,1	7,767217
2,172500	0,1	7,725613
2,174167	0,1	7,686482
2,175833	0,1	7,655274
2,177500	0,1	7,665824
2,179167	0,1	7,626118
2,180833	0,1	7,597356
2,182500	0,1	7,530412
2,184167	0,1	7,547476
2,185833	0,1	7,529909
2,187500	0,1	7,489395
2,189167	0,1	7,445872
2,190833	0,1	7,421703
2,192500	0,1	7,405649
2,194167	0,1	7,352908
2,195833	0,1	7,341694
2,197500	0,1	7,320419
2,199167	0,1	7,271124
2,200833	0,1	7,265614
2,202500	0,1	7,251058
2,204167	0,1	7,240421
2,205833	0,1	7,224649
2,207500	0,1	7,190021
2,209167	0,1	7,173138
2,210833	0,1	7,125468
2,212500	0,1	7,152406
2,214167	0,1	7,082272
2,215833	0,1	7,073575
2,217500	0,1	7,062104
2,219167	0,1	7,057060
2,220833	0,1	7,035333
2,222500	0,1	7,030386
2,224167	0,1	6,988518
2,225833	0,1	6,985896
2,227500	0,1	6,942347
2,229167	0,1	6,968261
2,230833	0,1	6,961081
2,232500	0,1	6,958933
2,234167	0,1	6,946904
2,235833	0,1	6,892642
2,237500	0,1	6,890580
2,239167	0,1	6,923953
2,240833	0,1	6,813772
2,242500	0,1	6,869583
2,244167	0,1	6,832310
2,245833	0,1	6,812911
2,247500	0,1	6,802559
2,249167	0,1	6,781773
2,250833	0,1	6,822315
2,252500	0,1	6,762202
2,254167	0,1	6,769459
2,255833	0,1	6,767597
2,257500	0,1	6,737960
2,259167	0,1	6,732267
2,260833	0,1	6,701698
2,262500	0,1	6,696001
2,264167	0,1	6,659752
2,265833	0,1	6,662821
2,267500	0,1	6,678013
2,269167	0,1	6,677457
2,270833	0,1	6,619409
2,272500	0,1	6,600298
2,274167	0,1	6,560229
2,275833	0,1	6,578847
2,277500	0,1	6,571218
2,279167	0,1	6,548582
2,280833	0,1	6,511495
2,282500	0,1	6,488101
2,284167	0,1	6,466400
2,285833	0,1	6,445533
2,287500	0,1	6,415253
2,289167	0,1	6,447202
2,290833	0,1	6,402215
2,292500	0,1	6,404278
2,294167	0,1	6,360116
2,295833	0,1	6,340370
2,297500	0,1	6,357024
2,299167	0,1	6,313744
2,300833	0,1	6,313182
2,302500	0,1	6,249126
2,304167	0,1	6,240241
2,305833	0,1	6,223416
2,307500	0,1	6,187265
2,309167	0,1	6,204036
2,310833	0,1	6,197995
2,312500	0,1	6,145512
2,314167	0,1	6,110389
2,315833	0,1	6,071462
2,317500	0,1	6,048871
2,319167	0,1	6,039530
2,320833	0,1	6,002249
2,322500	0,1	5,993773
2,324167	0,1	5,995893
2,325833	0,1	5,960253
2,327500	0,1	5,946019
2,329167	0,1	5,942507
2,330833	0,1	5,928522
2,332500	0,1	5,921192
2,334167	0,1	5,872459
2,335833	0,1	5,903392
2,337500	0,1	5,856711
2,339167	0,1	5,797474
2,340833	0,1	5,798850
2,342500	0,1	5,794517
2,344167	0,1	5,727760
2,345833	0,1	5,760587
2,347500	0,1	5,729914
2,349167	0,1	5,710768
2,350833	0,1	5,727685
2,352500	0,1	5,699106
2,354167	0,1	5,703443
2,355833	0,1	5,723568
2,357500	0,1	5,690150
2,359167	0,1	5,661860
2,360833	0,1	5,653305
2,362500	0,1	5,715814
2,364167	0,1	5,660089
2,365833	0,1	5,692597
2,367500	0,1	5,688649
2,369167	0,1	5,705711
2,370833	0,1	5,659736
2,372500	0,1	5,691421
2,374167	0,1	5,694312
2,375833	0,1	5,727627
2,377500	0,1	5,743207
2,379167	0,1	5,835767
2,380833	0,1	5,780368
2,382500	0,1	5,816897
2,384167	0,1	5,886729
2,385833	0,1	5,897446
2,387500	0,1	5,920239
2,389167	0,1	6,024364
2,390833	0,1	6,065526
2,392500	0,1	6,168913
2,394167	0,1	6,192464
2,395833	0,1	6,337729
2,397500	0,1	6,372112
2,399167	0,1	6,501953
2,400833	0,1	6,578646
2,402500	0,1	6,755155
2,404167	0,1	6,853162
2,405833	0,1	6,993787
2,407500	0,1	7,112363
2,409167	0,1	7,310184
2,410833	0,1	7,464424
2,412500	0,1	7,623998
2,414167	0,1	7,830554
2,415833	0,1	8,047560
2,417500	0,1	8,257434
2,419167	0,1	8,479426
2,420833	0,1	8,730235
2,422500	0,1	8,971777
2,424167	0,1	9,248019
2,425833	0,1	9,489516
2,427500	0,1	9,780744
2,429167	0,1	10,070377
2,430833	0,1	10,390288
2,432500	0,1	10,660896
2,434167	0,1	10,985558
2,435833	0,1	11,286211
2,437500	0,1	11,634506
2,439167	0,1	11,952061
2,440833	0,1	12,275205
2,442500	0,1	12,624336
2,444167	0,1	13,011707
2,445833	0,1	13,315984
2,447500	0,1	13,673452
2,449167	0,1	14,048265
2,450833	0,1	14,384968
2,452500	0,1	14,740696
2,454167	0,1	15,093124
2,455833	0,1	15,471376
2,457500	0,1	15,859421
2,459167	0,1	16,219160
2,460833	0,1	16,654885
2,462500	0,1	17,054432
2,464167	0,1	17,432835
2,465833	0,1	17,847018
2,467500	0,1	18,321523
2,469167	0,1	18,825719
2,470833	0,1	19,268375
2,472500	0,1	19,802003
2,474167	0,1	20,355016
2,475833	0,1	20,944809
2,477500	0,1	21,556239
2,479167	0,1	22,281423
2,480833	0,1	22,996954
2,482500	0,1	23,827509
2,484167	0,1	24,652538
2,485833	0,1	25,626930
2,487500	0,1	26,658507
2,489167	0,1	27,734710
2,490833	0,1	28,942598
2,492500	0,1	30,318956
2,494167	0,1	31,674107
2,495833	0,1	33,247592
2,497500	0,1	34,915327
2,499167	0,1	36,721960
2,500833	0,1	38,647949
2,502500	0,1	40,713643
2,504167	0,1	42,950890
2,505833	0,1	45,368172
2,507500	0,1	47,958512
2,509167	0,1	50,724369
2,510833	0,1	53,629226
2,512500	0,1	56,746442
2,514167	0,1	60,056872
2,515833	0,1	63,495249
2,517500	0,1	67,189561
2,519167	0,1	71,055447
2,520833	0,1	75,090845
2,522500	0,1	79,273996
2,524167	0,1	83,771162
2,525833	0,1	88,388042
2,527500	0,1	93,135493
2,529167	0,1	98,097475
2,530833	0,1	103,268574
2,532500	0,1	108,464962
2,534167	0,1	113,878871
2,535833	0,1	119,463731
2,537500	0,1	125,075486
2,539167	0,1	130,895623
2,540833	0,1	136,737076
2,542500	0,1	142,672269
2,544167	0,1	148,771341
2,545833	0,1	154,870160
2,547500	0,1	160,972016
2,549167	0,1	167,168237
2,550833	0,1	173,331738
2,552500	0,1	179,437735
2,554167	0,1	185,595050
2,555833	0,1	191,647477
2,557500	0,1	197,667548
2,559167	0,1	203,645591
2,560833	0,1	209,462637
2,562500	0,1	215,185048
2,564167	0,1	220,841750
2,565833	0,1	226,362564
2,567500	0,1	231,742928
2,569167	0,1	236,984297
2,570833	0,1	242,039067
2,572500	0,1	246,909045
2,574167	0,1	251,556304
2,575833	0,1	256,134951
2,577500	0,1	260,408022
2,579167	0,1	264,635598
2,580833	0,1	268,456198
2,582500	0,1	272,151861
2,584167	0,1	275,638918
2,585833	0,1	278,912619
2,587500	0,1	281,997755
2,589167	0,1	284,775032
2,590833	0,1	287,471270
2,592500	0,1	289,808585
2,594167	0,1	292,031031
2,595833	0,1	294,002644
2,597500	0,1	295,780896
2,599167	0,1	297,375810
2,600833	0,1	298,692514
2,602500	0,1	299,868661
2,604167	0,1	300,831649
2,605833	0,1	301,569915
2,607500	0,1	302,183852
2,609167	0,1	302,539657
2,610833	0,1	302,815653
2,612500	0,1	302,787701
2,614167	0,1	302,628847
2,615833	0,1	302,342081
2,617500	0,1	301,902968
2,619167	0,1	301,269984
2,620833	0,1	300,492539
2,622500	0,1	299,523429
2,624167	0,1	298,467218
2,625833	0,1	297,314566
2,627500	0,1	295,956769
2,629167	0,1	294,421917
2,630833	0,1	292,901594
2,632500	0,1	291,130672
2,634167	0,1	289,303014
2,635833	0,1	287,316746
2,637500	0,1	285,294196
2,639167	0,1	283,109709
2,640833	0,1	280,857536
2,642500	0,1	278,558386
2,644167	0,1	276,055618
2,645833	0,1	273,485092
2,647500	0,1	270,904766
2,649167	0,1	268,119615
2,650833	0,1	265,376004
2,652500	0,1	262,566524
2,654167	0,1	259,621487
2,655833	0,1	256,693352
2,657500	0,1	253,665465
2,659167	0,1	250,552906
2,660833	0,1	247,451128
2,662500	0,1	244,209812
2,664167	0,1	241,038792
2,665833	0,1	237,707503
2,667500	0,1	234,426462
2,669167	0,1	231,142364
2,670833	0,1	227,734532
2,672500	0,1	224,422210
2,674167	0,1	221,060706
2,675833	0,1	217,592459
2,677500	0,1	214,213604
2,679167	0,1	210,799943
2,680833	0,1	207,431675
2,682500	0,1	204,029935
2,684167	0,1	200,542267
2,685833	0,1	197,159864
2,687500	0,1	193,752101
2,689167	0,1	190,471929
2,690833	0,1	187,064209
2,692500	0,1	183,718450
2,694167	0,1	180,383256
2,695833	0,1	177,140833
2,697500	0,1	173,855297
2,699167	0,1	170,585778
2,700833	0,1	167,476689
2,702500	0,1	164,260195
2,704167	0,1	161,087786
2,705833	0,1	158,075373
2,707500	0,1	154,999824
2,709167	0,1	152,026725
2,710833	0,1	148,999020
2,712500	0,1	146,125422
2,714167	0,1	143,225767
2,715833	0,1	140,374338
2,717500	0,1	137,603153
2,719167	0,1	134,896462
2,720833	0,1	132,150847
2,722500	0,1	129,530141
2,724167	0,1	126,889116
2,725833	0,1	124,382797
2,727500	0,1	121,899480
2,729167	0,1	119,433088
2,730833	0,1	117,053753
2,732500	0,1	114,602192
2,734167	0,1	112,369793
2,735833	0,1	110,108973
2,737500	0,1	107,910765
2,739167	0,1	105,758061
2,740833	0,1	103,667598
2,742500	0,1	101,563869
2,744167	0,1	99,541392
2,745833	0,1	97,602245
2,747500	0,1	95,674477
2,749167	0,1	93,742826
2,750833	0,1	91,907907
2,752500	0,1	90,125040
2,754167	0,1	88,369390
2,755833	0,1	86,694293
2,757500	0,1	84,991592
2,759167	0,1	83,327840
2,760833	0,1	81,732248
2,762500	0,1	80,137177
2,764167	0,1	78,597434
2,765833	0,1	77,098840
2,767500	0,1	75,600875
2,769167	0,1	74,158326
2,770833	0,1	72,831020
2,772500	0,1	71,442195
2,774167	0,1	70,082006
2,775833	0,1	68,802476
2,777500	0,1	67,494879
2,779167	0,1	66,201962
2,780833	0,1	64,985050
2,782500	0,1	63,752224
2,784167	0,1	62,604138
2,785833	0,1	61,465169
2,787500	0,1	60,324235
2,789167	0,1	59,205734
2,790833	0,1	58,146388
2,792500	0,1	57,058608
2,794167	0,1	56,005299
2,795833	0,1	54,987244
2,797500	0,1	54,019668
2,799167	0,1	53,010817
2,800833	0,1	52,051530
2,802500	0,1	51,090380
2,804167	0,1	50,193477
2,805833	0,1	49,288117
2,807500	0,1	48,394069
2,809167	0,1	47,552639
2,810833	0,1	46,670284
2,812500	0,1	45,811864
2,814167	0,1	44,978594
2,815833	0,1	44,177443
2,817500	0,1	43,400404
2,819167	0,1	42,634561
2,820833	0,1	41,906459
2,822500	0,1	41,127013
2,824167	0,1	40,401510
2,825833	0,1	39,663673
2,827500	0,1	38,953041
2,829167	0,1	38,290830
2,830833	0,1	37,607212
2,832500	0,1	36,956131
2,834167	0,1	36,298354
2,835833	0,1	35,677361
2,837500	0,1	35,049171
2,839167	0,1	34,435547
2,840833	0,1	33,836404
2,842500	0,1	33,241655
2,844167	0,1	32,705569
2,845833	0,1	32,133009
2,847500	0,1	31,572681
2,849167	0,1	31,057510
2,850833	0,1	30,526465
2,852500	0,1	30,044554
2,854167	0,1	29,568718
2,855833	0,1	29,085789
2,857500	0,1	28,585718
2,859167	0,1	28,111244
2,860833	0,1	27,655320
2,862500	0,1	27,258522
2,864167	0,1	26,763863
2,865833	0,1	26,335837
2,867500	0,1	25,925591
2,869167	0,1	25,536299
2,870833	0,1	25,131988
2,872500	0,1	24,725898
2,874167	0,1	24,383846
2,875833	0,1	23,995557
2,877500	0,1	23,672119
2,879167	0,1	23,312941
2,880833	0,1	22,974886
2,882500	0,1	22,628847
2,884167	0,1	22,277808
2,885833	0,1	21,998918
2,887500	0,1	21,682193
2,889167	0,1	21,389429
2,890833	0,1	21,083777
2,892500	0,1	20,784755
2,894167	0,1	20,508652
2,895833	0,1	20,250391
2,897500	0,1	20,006020
2,899167	0,1	19,678449
2,900833	0,1	19,416000
2,902500	0,1	19,208012
2,904167	0,1	18,930325
2,905833	0,1	18,719223
2,907500	0,1	18,494539
2,909167	0,1	18,278421
2,910833	0,1	18,077464
2,912500	0,1	17,816458
2,914167	0,1	17,612857
2,915833	0,1	17,439455
2,917500	0,1	17,200300
2,919167	0,1	17,021740
2,920833	0,1	16,771078
2,922500	0,1	16,596509
2,924167	0,1	16,448235
2,925833	0,1	16,245592
2,927500	0,1	16,113375
2,929167	0,1	15,901561
2,930833	0,1	15,717521
2,932500	0,1	15,544482
2,934167	0,1	15,420504
2,935833	0,1	15,229763
2,937500	0,1	15,119582
2,939167	0,1	14,918582
2,940833	0,1	14,759043
2,942500	0,1	14,622658
2,944167	0,1	14,457521
2,945833	0,1	14,348307
2,947500	0,1	14,194252
2,949167	0,1	14,087190
2,950833	0,1	13,936025
2,952500	0,1	13,769272
2,954167	0,1	13,652953
2,955833	0,1	13,516918
2,957500	0,1	13,378614
2,959167	0,1	13,269493
2,960833	0,1	13,121416
2,962500	0,1	12,990747
2,964167	0,1	12,857882
2,965833	0,1	12,705941
2,967500	0,1	12,635809
2,969167	0,1	12,529816
2,970833	0,1	12,414737
2,972500	0,1	12,280826
2,974167	0,1	12,172013
2,975833	0,1	12,089811
2,977500	0,1	11,933875
2,979167	0,1	11,827903
2,980833	0,1	11,728461
2,982500	0,1	11,607061
2,984167	0,1	11,513158
2,985833	0,1	11,374026
2,987500	0,1	11,350347
2,989167	0,1	11,188515
2,990833	0,1	11,137231
2,992500	0,1	11,010432
2,994167	0,1	10,930904
2,995833	0,1	10,852337
2,997500	0,1	10,750704
2,999167	0,1	10,637007
3,000833	0,1	10,554757
3,002500	0,1	10,460033
3,004167	0,1	10,394162
3,005833	0,1	10,267859
3,007500	0,1	10,201895
3,009167	0,1	10,096452
3,010833	0,1	10,020171
3,012500	0,1	9,930780
3,014167	0,1	9,841606
3,015833	0,1	9,764736
3,017500	0,1	9,667040
3,019167	0,1	9,567870
3,020833	0,1	9,494555
3,022500	0,1	9,460795
3,024167	0,1	9,339079
3,025833	0,1	9,271183
3,027500	0,1	9,204378
3,029167	0,1	9,091738
3,030833	0,1	9,015877
3,032500	0,1	8,952213
3,034167	0,1	8,910645
3,035833	0,1	8,765862
3,037500	0,1	8,750869
3,039167	0,1	8,646475
3,040833	0,1	8,581581
3,042500	0,1	8,522709
3,044167	0,1	8,388102
3,045833	0,1	8,345372
3,047500	0,1	8,280298
3,049167	0,1	8,180522
3,050833	0,1	8,175421
3,052500	0,1	8,028470
3,054167	0,1	8,014399
3,055833	0,1	7,920188
3,057500	0,1	7,870484
3,059167	0,1	7,818301
3,060833	0,1	7,760391
3,062500	0,1	7,659262
3,064167	0,1	7,637773
3,065833	0,1	7,580161
3,067500	0,1	7,498375
3,069167	0,1	7,425724
3,070833	0,1	7,421585
3,072500	0,1	7,348595
3,074167	0,1	7,251358
3,075833	0,1	7,248062
3,077500	0,1	7,134994
3,079167	0,1	7,155011
3,080833	0,1	7,051213
3,082500	0,1	6,997188
3,084167	0,1	6,956709
3,085833	0,1	6,880805
3,087500	0,1	6,833336
3,089167	0,1	6,803311
3,090833	0,1	6,782148
3,092500	0,1	6,714568
3,094167	0,1	6,706172
3,095833	0,1	6,620995
3,097500	0,1	6,583619
3,099167	0,1	6,529014
3,100833	0,1	6,536926
3,102500	0,1	6,466504
3,104167	0,1	6,438838
3,105833	0,1	6,378481
3,107500	0,1	6,312530
3,109167	0,1	6,326975
3,110833	0,1	6,285152
3,112500	0,1	6,272787
3,114167	0,1	6,194562
3,115833	0,1	6,195406
3,117500	0,1	6,142344
3,119167	0,1	6,142331
3,120833	0,1	6,101390
3,122500	0,1	6,105469
3,124167	0,1	6,073451
3,125833	0,1	6,016943
3,127500	0,1	5,996690
3,129167	0,1	5,953012
3,130833	0,1	5,955455
3,132500	0,1	5,941680
3,134167	0,1	5,935638
3,135833	0,1	5,915758
3,137500	0,1	5,873287
3,139167	0,1	5,883265
3,140833	0,1	5,865364
3,142500	0,1	5,823056
3,144167	0,1	5,853555
3,145833	0,1	5,791703
3,147500	0,1	5,773212
3,149167	0,1	5,782956
3,150833	0,1	5,751432
3,152500	0,1	5,730244
3,154167	0,1	5,732562
3,155833	0,1	5,710274
3,157500	0,1	5,705943
3,159167	0,1	5,745364
3,160833	0,1	5,735714
3,162500	0,1	5,668554
3,164167	0,1	5,674167
3,165833	0,1	5,637427
3,167500	0,1	5,609651
3,169167	0,1	5,588873
3,170833	0,1	5,599579
3,172500	0,1	5,570460
3,174167	0,1	5,564664
3,175833	0,1	5,567955
3,177500	0,1	5,544952
3,179167	0,1	5,545374
3,180833	0,1	5,485525
3,182500	0,1	5,493208
3,184167	0,1	5,479155
3,185833	0,1	5,440888
3,187500	0,1	5,419328
3,189167	0,1	5,425567
3,190833	0,1	5,392766
3,192500	0,1	5,397398
3,194167	0,1	5,357320
3,195833	0,1	5,312373
3,197500	0,1	5,256642
3,199167	0,1	5,292019
3,200833	0,1	5,245866
3,202500	0,1	5,267593
3,204167	0,1	5,201788
3,205833	0,1	5,176850
3,207500	0,1	5,149715
3,209167	0,1	5,109410
3,210833	0,1	5,110615
3,212500	0,1	5,080943
3,214167	0,1	5,050904
3,215833	0,1	5,030301
3,217500	0,1	5,010547
3,219167	0,1	5,003225
3,220833	0,1	4,932801
3,222500	0,1	4,941115
3,224167	0,1	4,845876
3,225833	0,1	4,888728
3,227500	0,1	4,850470
3,229167	0,1	4,798300
3,230833	0,1	4,786827
3,232500	0,1	4,797186
3,234167	0,1	4,724538
3,235833	0,1	4,694765
3,237500	0,1	4,606461
3,239167	0,1	4,641531
3,240833	0,1	4,582180
3,242500	0,1	4,572162
3,244167	0,1	4,534531
3,245833	0,1	4,526203
3,247500	0,1	4,479118
3,249167	0,1	4,468074
3,250833	0,1	4,430470
3,252500	0,1	4,380049
3,254167	0,1	4,353080
3,255833	0,1	4,315035
3,257500	0,1	4,285064
3,259167	0,1	4,273212
3,260833	0,1	4,233569
3,262500	0,1	4,194117
3,264167	0,1	4,170273
3,265833	0,1	4,139016
3,267500	0,1	4,098399
3,269167	0,1	4,057339
3,270833	0,1	4,032652
3,272500	0,1	4,016274
3,274167	0,1	4,032807
3,275833	0,1	4,036012
3,277500	0,1	3,975804
3,279167	0,1	3,912711
3,280833	0,1	3,880690
3,282500	0,1	3,850711
3,284167	0,1	3,801943
3,285833	0,1	3,826555
3,287500	0,1	3,767107
3,289167	0,1	3,744099
3,290833	0,1	3,700484
3,292500	0,1	3,697313
3,294167	0,1	3,655758
3,295833	0,1	3,589237
3,297500	0,1	3,612950
3,299167	0,1	3,653700
3,300833	0,1	3,582131
3,302500	0,1	3,539352
3,304167	0,1	3,519522
3,305833	0,1	3,449694
3,307500	0,1	3,438358
3,309167	0,1	3,462959
3,310833	0,1	3,473113
3,312500	0,1	3,420986
3,314167	0,1	3,386870
3,315833	0,1	3,368735
3,317500	0,1	3,344522
3,319167	0,1	3,300502
3,320833	0,1	3,334796
3,322500	0,1	3,305108
3,324167	0,1	3,258734
3,325833	0,1	3,228877
3,327500	0,1	3,260117
3,329167	0,1	3,191346
3,330833	0,1	3,215796
3,332500	0,1	3,127260
3,334167	0,1	3,164841
3,335833	0,1	3,167228
3,337500	0,1	3,169357
3,339167	0,1	3,162130
3,340833	0,1	3,109646
3,342500	0,1	3,106532
3,344167	0,1	3,069942
3,345833	0,1	3,081690
3,347500	0,1	3,068832
3,349167	0,1	3,063599
3,350833	0,1	3,039340
3,352500	0,1	3,054401
3,354167	0,1	3,009699
3,355833	0,1	3,030101
3,357500	0,1	3,017416
3,359167	0,1	3,032632
3,360833	0,1	2,980114
3,362500	0,1	2,983583
3,364167	0,1	2,975252
3,365833	0,1	2,988052
3,367500	0,1	2,980958
3,369167	0,1	2,974792
3,370833	0,1	2,940211
3,372500	0,1	2,942925
3,374167	0,1	2,945377
3,375833	0,1	2,984125
3,377500	0,1	2,938257
3,379167	0,1	2,976438
3,380833	0,1	2,919594
3,382500	0,1	2,954753
3,384167	0,1	2,922840
3,385833	0,1	2,966430
3,387500	0,1	2,923967
3,389167	0,1	2,931414
3,390833	0,1	2,910412
3,392500	0,1	2,931865
3,394167	0,1	2,930693
3,395833	0,1	2,928427
3,397500	0,1	2,899898
3,399167	0,1	2,893770
3,400833	0,1	2,886656
3,402500	0,1	2,868732
3,404167	0,1	2,912723
3,405833	0,1	2,928859
3,407500	0,1	2,881969
3,409167	0,1	2,886290
3,410833	0,1	2,875134
3,412500	0,1	2,877448
3,414167	0,1	2,927582
3,415833	0,1	2,865686
3,417500	0,1	2,912991
3,419167	0,1	2,833327
3,420833	0,1	2,891512
3,422500	0,1	2,874100
3,424167	0,1	2,859419
3,425833	0,1	2,857189
3,427500	0,1	2,859429
3,429167	0,1	2,854873
3,430833	0,1	2,889039
3,432500	0,1	2,874459
3,434167	0,1	2,844429
3,435833	0,1	2,831641
3,437500	0,1	2,864596
3,439167	0,1	2,837147
3,440833	0,1	2,894039
3,442500	0,1	2,881121
3,444167	0,1	2,846565
3,445833	0,1	2,831700
3,447500	0,1	2,857559
3,449167	0,1	2,822668
3,450833	0,1	2,817170
3,452500	0,1	2,823846
3,454167	0,1	2,841814
3,455833	0,1	2,866582
3,457500	0,1	2,856379
3,459167	0,1	2,837522
3,460833	0,1	2,855531
3,462500	0,1	2,826622
3,464167	0,1	2,857708
3,465833	0,1	2,862184
3,467500	0,1	2,878451
3,469167	0,1	2,857782
3,470833	0,1	2,830379
3,472500	0,1	2,849800
3,474167	0,1	2,838258
3,475833	0,1	2,878672
3,477500	0,1	2,897778
3,479167	0,1	2,853802
3,480833	0,1	2,916180
3,482500	0,1	2,909637
3,484167	0,1	2,900540
3,485833	0,1	2,906416
3,487500	0,1	2,921400
3,489167	0,1	2,900072
3,490833	0,1	2,871785
3,492500	0,1	2,949148
3,494167	0,1	2,944489
3,495833	0,1	2,932084
3,497500	0,1	2,928738
3,499167	0,1	2,894079
3,500833	0,1	2,926536
3,502500	0,1	2,924202
3,504167	0,1	2,905222
3,505833	0,1	2,968458
3,507500	0,1	2,959419
3,509167	0,1	2,934901
3,510833	0,1	2,952548
3,512500	0,1	2,968394
3,514167	0,1	2,961762
3,515833	0,1	2,967808
3,517500	0,1	2,986127
3,519167	0,1	2,983317
3,520833	0,1	2,992846
3,522500	0,1	2,971334
3,524167	0,1	2,968247
3,525833	0,1	2,993452
3,527500	0,1	2,978560
3,529167	0,1	2,989479
3,530833	0,1	3,007763
3,532500	0,1	3,001164
3,534167	0,1	3,002934
3,535833	0,1	3,005255
3,537500	0,1	3,017050
3,539167	0,1	3,028239
3,540833	0,1	3,020594
3,542500	0,1	3,007199
3,544167	0,1	3,039689
3,545833	0,1	3,003759
3,547500	0,1	2,999738
3,549167	0,1	2,983567
3,550833	0,1	3,009263
3,552500	0,1	2,992225
3,554167	0,1	3,026310
3,555833	0,1	3,014942
3,557500	0,1	2,988877
3,559167	0,1	3,018015
3,560833	0,1	2,964245
3,562500	0,1	2,987631
3,564167	0,1	2,965815
3,565833	0,1	2,981715
3,567500	0,1	2,970836
3,569167	0,1	3,031652
3,570833	0,1	2,967766
3,572500	0,1	2,990958
3,574167	0,1	2,986419
3,575833	0,1	2,996024
3,577500	0,1	2,962129
3,579167	0,1	2,977071
3,580833	0,1	2,940423
3,582500	0,1	2,930805
3,584167	0,1	2,934096
3,585833	0,1	2,967934
3,587500	0,1	2,967867
3,589167	0,1	2,921852
3,590833	0,1	2,916290
3,592500	0,1	2,897233
3,594167	0,1	2,931997
3,595833	0,1	2,896379
3,597500	0,1	2,912866
3,599167	0,1	2,916538
3,600833	0,1	2,875608
3,602500	0,1	2,876413
3,604167	0,1	2,874877
3,605833	0,1	2,873012
3,607500	0,1	2,861961
3,609167	0,1	2,871281
3,610833	0,1	2,864185
3,612500	0,1	2,828096
3,614167	0,1	2,817759
3,615833	0,1	2,855332
3,617500	0,1	2,791123
3,619167	0,1	2,823282
3,620833	0,1	2,760160
3,622500	0,1	2,769645
3,624167	0,1	2,812348
3,625833	0,1	2,738813
3,627500	0,1	2,746340
3,629167	0,1	2,744403
3,630833	0,1	2,751934
3,632500	0,1	2,717543
3,634167	0,1	2,725216
3,635833	0,1	2,722297
3,637500	0,1	2,715795
3,639167	0,1	2,670376
3,640833	0,1	2,673225
3,642500	0,1	2,673300
3,644167	0,1	2,666961
3,645833	0,1	2,631775
3,647500	0,1	2,673837
3,649167	0,1	2,633418
3,650833	0,1	2,614606
3,652500	0,1	2,629390
3,654167	0,1	2,611523
3,655833	0,1	2,593277
3,657500	0,1	2,604257
3,659167	0,1	2,595860
3,660833	0,1	2,576980
3,662500	0,1	2,594338
3,664167	0,1	2,540500
3,665833	0,1	2,554343
3,667500	0,1	2,528012
3,669167	0,1	2,523409
3,670833	0,1	2,534181
3,672500	0,1	2,500577
3,674167	0,1	2,503080
3,675833	0,1	2,499924
3,677500	0,1	2,487936
3,679167	0,1	2,485202
3,680833	0,1	2,463024
3,682500	0,1	2,480101
3,684167	0,1	2,445737
3,685833	0,1	2,454552
3,687500	0,1	2,431652
3,689167	0,1	2,418440
3,690833	0,1	2,420155
3,692500	0,1	2,403949
3,694167	0,1	2,420879
3,695833	0,1	2,354509
3,697500	0,1	2,398898
3,699167	0,1	2,436806
3,700833	0,1	2,413421
3,702500	0,1	2,369862
3,704167	0,1	2,329878
3,705833	0,1	2,392287
3,707500	0,1	2,306855
3,709167	0,1	2,334884
3,710833	0,1	2,373339
3,712500	0,1	2,308364
3,714167	0,1	2,304891
3,715833	0,1	2,344716
3,717500	0,1	2,336111
3,719167	0,1	2,296145
3,720833	0,1	2,300503
3,722500	0,1	2,337173
3,724167	0,1	2,292771
3,725833	0,1	2,291035
3,727500	0,1	2,306751
3,729167	0,1	2,288383
3,730833	0,1	2,271017
3,732500	0,1	2,269655
3,734167	0,1	2,242894
3,735833	0,1	2,273016
3,737500	0,1	2,223671
3,739167	0,1	2,219645
3,740833	0,1	2,225595
3,742500	0,1	2,239007
3,744167	0,1	2,239804
3,745833	0,1	2,220077
3,747500	0,1	2,267706
3,749167	0,1	2,219940
3,750833	0,1	2,257014
3,752500	0,1	2,198703
3,754167	0,1	2,215758
3,755833	0,1	2,196463
3,757500	0,1	2,216976
3,759167	0,1	2,180112
3,760833	0,1	2,204851
3,762500	0,1	2,196392
3,764167	0,1	2,141953
3,765833	0,1	2,160587
3,767500	0,1	2,176229
3,769167	0,1	2,163964
3,770833	0,1	2,155641
3,772500	0,1	2,123941
3,774167	0,1	2,131892
3,775833	0,1	2,142438
3,777500	0,1	2,113397
3,779167	0,1	2,150108
3,780833	0,1	2,181816
3,782500	0,1	2,124520
3,784167	0,1	2,150038
3,785833	0,1	2,091162
3,787500	0,1	2,100902
3,789167	0,1	2,122564
3,790833	0,1	2,100120
3,792500	0,1	2,112738
3,794167	0,1	2,089075
3,795833	0,1	2,094733
3,797500	0,1	2,090506
3,799167	0,1	2,091580
3,800833	0,1	2,044967
3,802500	0,1	2,070628
3,804167	0,1	2,083972
3,805833	0,1	2,021734
3,807500	0,1	2,032116
3,809167	0,1	2,030683
3,810833	0,1	2,051335
3,812500	0,1	2,017064
3,814167	0,1	2,054846
3,815833	0,1	2,057365
3,817500	0,1	2,042592
3,819167	0,1	2,001717
3,820833	0,1	2,025226
3,822500	0,1	1,982785
3,824167	0,1	1,990232
3,825833	0,1	2,002350
3,827500	0,1	1,983713
3,829167	0,1	1,969655
3,830833	0,1	1,951300
3,832500	0,1	1,966279
3,834167	0,1	1,908071
3,835833	0,1	1,937665
3,837500	0,1	1,940253
3,839167	0,1	1,919390
3,840833	0,1	1,957095
3,842500	0,1	1,923985
3,844167	0,1	1,899242
3,845833	0,1	1,909203
3,847500	0,1	1,890422
3,849167	0,1	1,901246
3,850833	0,1	1,859672
3,852500	0,1	1,853353
3,854167	0,1	1,852274
3,855833	0,1	1,829334
3,857500	0,1	1,823102
3,859167	0,1	1,818299
3,860833	0,1	1,886391
3,862500	0,1	1,822759
3,864167	0,1	1,767550
3,865833	0,1	1,763744
3,867500	0,1	1,782810
3,869167	0,1	1,769986
3,870833	0,1	1,789688
3,872500	0,1	1,764610
3,874167	0,1	1,749989
3,875833	0,1	1,735152
3,877500	0,1	1,712718
3,879167	0,1	1,757211
3,880833	0,1	1,730851
3,882500	0,1	1,743824
3,884167	0,1	1,701175
3,885833	0,1	1,703323
3,887500	0,1	1,730920
3,889167	0,1	1,691661
3,890833	0,1	1,674093
3,892500	0,1	1,714784
3,894167	0,1	1,678396
3,895833	0,1	1,641206
3,897500	0,1	1,662469
3,899167	0,1	1,659691
3,900833	0,1	1,628377
3,902500	0,1	1,656663
3,904167	0,1	1,629945
3,905833	0,1	1,623421
3,907500	0,1	1,611519
3,909167	0,1	1,592881
3,910833	0,1	1,587517
3,912500	0,1	1,605655
3,914167	0,1	1,602777
3,915833	0,1	1,553275
3,917500	0,1	1,556722
3,919167	0,1	1,576358
3,920833	0,1	1,590023
3,922500	0,1	1,548917
3,924167	0,1	1,561522
3,925833	0,1	1,528422
3,927500	0,1	1,568886
3,929167	0,1	1,513965
3,930833	0,1	1,521687
3,932500	0,1	1,499276
3,934167	0,1	1,508433
3,935833	0,1	1,477073
3,937500	0,1	1,505136
3,939167	0,1	1,515089
3,940833	0,1	1,487950
3,942500	0,1	1,493308
3,944167	0,1	1,437733
3,945833	0,1	1,504930
3,947500	0,1	1,460463
3,949167	0,1	1,462561
3,950833	0,1	1,440672
3,952500	0,1	1,443543
3,954167	0,1	1,454846
3,955833	0,1	1,449426
3,957500	0,1	1,467460
3,959167	0,1	1,444332
3,960833	0,1	1,440828
3,962500	0,1	1,421274
3,964167	0,1	1,426484
3,965833	0,1	1,426426
3,967500	0,1	1,398361
3,969167	0,1	1,403934
3,970833	0,1	1,393350
3,972500	0,1	1,401000
3,974167	0,1	1,404992
3,975833	0,1	1,391461
3,977500	0,1	1,388249
3,979167	0,1	1,383105
3,980833	0,1	1,392483
3,982500	0,1	1,396613
3,984167	0,1	1,388975
3,985833	0,1	1,357374
3,987500	0,1	1,365837
3,989167	0,1	1,357600
3,990833	0,1	1,397343
3,992500	0,1	1,422566
3,994167	0,1	1,384734
3,995833	0,1	1,371726
3,997500	0,1	1,347307
3,999167	0,1	1,368275
4,000833	0,1	1,387473
4,002500	0,1	1,366641
4,004167	0,1	1,357958
4,005833	0,1	1,388252
4,007500	0,1	1,364983
4,009167	0,1	1,378932
4,010833	0,1	1,360730
4,012500	0,1	1,349924
4,014167	0,1	1,345053
4,015833	0,1	1,350740
4,017500	0,1	1,352293
4,019167	0,1	1,336459
4,020833	0,1	1,361130
4,022500	0,1	1,331746
4,024167	0,1	1,343486
4,025833	0,1	1,341350
4,027500	0,1	1,330863
4,029167	0,1	1,392550
4,030833	0,1	1,352959
4,032500	0,1	1,335622
4,034167	0,1	1,346860
4,035833	0,1	1,368839
4,037500	0,1	1,345347
4,039167	0,1	1,356157
4,040833	0,1	1,380357
4,042500	0,1	1,365267
4,044167	0,1	1,378371
4,045833	0,1	1,377922
4,047500	0,1	1,382596
4,049167	0,1	1,363186
4,050833	0,1	1,380647
4,052500	0,1	1,424068
4,054167	0,1	1,428142
4,055833	0,1	1,379523
4,057500	0,1	1,416035
4,059167	0,1	1,415689
4,060833	0,1	1,409796
4,062500	0,1	1,401334
4,064167	0,1	1,377091
4,065833	0,1	1,434723
4,067500	0,1	1,475974
4,069167	0,1	1,446324
4,070833	0,1	1,483214
4,072500	0,1	1,455211
4,074167	0,1	1,448621
4,075833	0,1	1,458770
4,077500	0,1	1,470833
4,079167	0,1	1,493900
4,080833	0,1	1,494610
4,082500	0,1	1,512221
4,084167	0,1	1,476360
4,085833	0,1	1,488715
4,087500	0,1	1,549120
4,089167	0,1	1,525493
4,090833	0,1	1,531208
4,092500	0,1	1,577825
4,094167	0,1	1,564613
4,095833	0,1	1,578147
4,097500	0,1	1,578499
4,099167	0,1	1,592393
4,100833	0,1	1,597989
4,102500	0,1	1,622001
4,104167	0,1	1,632595
4,105833	0,1	1,606799
4,107500	0,1	1,656882
4,109167	0,1	1,667412
4,110833	0,1	1,710416
4,112500	0,1	1,670223
4,114167	0,1	1,705110
4,115833	0,1	1,708624
4,117500	0,1	1,736796
4,119167	0,1	1,776066
4,120833	0,1	1,776861
4,122500	0,1	1,754499
4,124167	0,1	1,839285
4,125833	0,1	1,792930
4,127500	0,1	1,819514
4,129167	0,1	1,830265
4,130833	0,1	1,779380
4,132500	0,1	1,772565
4,134167	0,1	1,862434
4,135833	0,1	1,868696
4,137500	0,1	1,847623
4,139167	0,1	1,887256
4,140833	0,1	1,896512
4,142500	0,1	1,897946
4,144167	0,1	1,900958
4,145833	0,1	1,946834
4,147500	0,1	1,937599
4,149167	0,1	1,927633
4,150833	0,1	1,994021
4,152500	0,1	1,938327
4,154167	0,1	2,006641
4,155833	0,1	1,985866
4,157500	0,1	1,994748
4,159167	0,1	1,996833
4,160833	0,1	1,987869
4,162500	0,1	2,032395
4,164167	0,1	2,024230
4,165833	0,1	2,048966
4,167500	0,1	2,054349
4,169167	0,1	2,048328
4,170833	0,1	2,062595
4,172500	0,1	2,099028
4,174167	0,1	2,062466
4,175833	0,1	2,104266
4,177500	0,1	2,065479
4,179167	0,1	2,090713
4,180833	0,1	2,095235
4,182500	0,1	2,072434
4,184167	0,1	2,069414
4,185833	0,1	2,064180
4,187500	0,1	2,144215
4,189167	0,1	2,135986
4,190833	0,1	2,131463
4,192500	0,1	2,146451
4,194167	0,1	2,122936
4,195833	0,1	2,157567
4,197500	0,1	2,115478
4,199167	0,1	2,140783
4,200833	0,1	2,157139
4,202500	0,1	2,151626
4,204167	0,1	2,132043
4,205833	0,1	2,151186
4,207500	0,1	2,166179
4,209167	0,1	2,132332
4,210833	0,1	2,165746
4,212500	0,1	2,161735
4,214167	0,1	2,118848
4,215833	0,1	2,152186
4,217500	0,1	2,151693
4,219167	0,1	2,115044
4,220833	0,1	2,164950
4,222500	0,1	2,162670
4,224167	0,1	2,135846
4,225833	0,1	2,114899
4,227500	0,1	2,118836
4,229167	0,1	2,138129
4,230833	0,1	2,101844
4,232500	0,1	2,118404
4,234167	0,1	2,134184
4,235833	0,1	2,097469
4,237500	0,1	2,107857
4,239167	0,1	2,095958
4,240833	0,1	2,101404
4,242500	0,1	2,096960
4,244167	0,1	2,065837
4,245833	0,1	2,089348
4,247500	0,1	2,052137
4,249167	0,1	2,069984
4,250833	0,1	2,052993
4,252500	0,1	2,055930
4,254167	0,1	2,035564
4,255833	0,1	2,042156
4,257500	0,1	2,024519
4,259167	0,1	1,995188
4,260833	0,1	2,015187
4,262500	0,1	2,023438
4,264167	0,1	2,011106
4,265833	0,1	1,998484
4,267500	0,1	1,964280
4,269167	0,1	1,972806
4,270833	0,1	1,976608
4,272500	0,1	1,988797
4,274167	0,1	1,938611
4,275833	0,1	1,959395
4,277500	0,1	1,966569
4,279167	0,1	1,899827
4,280833	0,1	1,919166
4,282500	0,1	1,914298
4,284167	0,1	1,915801
4,285833	0,1	1,888847
4,287500	0,1	1,905112
4,289167	0,1	1,914576
4,290833	0,1	1,879030
4,292500	0,1	1,859667
4,294167	0,1	1,854714
4,295833	0,1	1,834503
4,297500	0,1	1,849193
4,299167	0,1	1,797515
4,300833	0,1	1,840227
4,302500	0,1	1,823746
4,304167	0,1	1,803888
4,305833	0,1	1,804964
4,307500	0,1	1,807762
4,309167	0,1	1,783325
4,310833	0,1	1,779735
4,312500	0,1	1,778011
4,314167	0,1	1,750419
4,315833	0,1	1,774638
4,317500	0,1	1,723625
4,319167	0,1	1,717945
4,320833	0,1	1,711495
4,322500	0,1	1,733201
4,324167	0,1	1,695439
4,325833	0,1	1,713710
4,327500	0,1	1,668505
4,329167	0,1	1,710334
4,330833	0,1	1,654614
4,332500	0,1	1,661763
4,334167	0,1	1,678459
4,335833	0,1	1,672941
4,337500	0,1	1,640490
4,339167	0,1	1,631799
4,340833	0,1	1,628729
4,342500	0,1	1,656234
4,344167	0,1	1,612546
4,345833	0,1	1,583881
4,347500	0,1	1,564761
4,349167	0,1	1,585089
4,350833	0,1	1,581218
4,352500	0,1	1,523695
4,354167	0,1	1,551202
4,355833	0,1	1,531859
4,357500	0,1	1,565672
4,359167	0,1	1,524217
4,360833	0,1	1,560949
4,362500	0,1	1,536235
4,364167	0,1	1,539185
4,365833	0,1	1,516039
4,367500	0,1	1,508082
4,369167	0,1	1,428921
4,370833	0,1	1,483062
4,372500	0,1	1,474040
4,374167	0,1	1,461528
4,375833	0,1	1,471538
4,377500	0,1	1,462159
4,379167	0,1	1,464320
4,380833	0,1	1,399059
4,382500	0,1	1,411887
4,384167	0,1	1,453065
4,385833	0,1	1,382957
4,387500	0,1	1,444530
4,389167	0,1	1,450288
4,390833	0,1	1,425281
4,392500	0,1	1,406011
4,394167	0,1	1,398781
4,395833	0,1	1,385673
4,397500	0,1	1,371274
4,399167	0,1	1,371053
4,400833	0,1	1,366485
4,402500	0,1	1,399278
4,404167	0,1	1,333386
4,405833	0,1	1,362323
4,407500	0,1	1,348853
4,409167	0,1	1,326286
4,410833	0,1	1,344197
4,412500	0,1	1,361613
4,414167	0,1	1,324410
4,415833	0,1	1,336918
4,417500	0,1	1,325309
4,419167	0,1	1,322290
4,420833	0,1	1,296109
4,422500	0,1	1,292989
4,424167	0,1	1,271114
4,425833	0,1	1,295331
4,427500	0,1	1,298803
4,429167	0,1	1,300970
4,430833	0,1	1,273337
4,432500	0,1	1,244159
4,434167	0,1	1,271118
4,435833	0,1	1,271603
4,437500	0,1	1,246190
4,439167	0,1	1,244609
4,440833	0,1	1,229997
4,442500	0,1	1,233146
4,444167	0,1	1,275033
4,445833	0,1	1,185066
4,447500	0,1	1,267525
4,449167	0,1	1,231662
4,450833	0,1	1,183836
4,452500	0,1	1,210605
4,454167	0,1	1,201729
4,455833	0,1	1,204457
4,457500	0,1	1,186796
4,459167	0,1	1,176351
4,460833	0,1	1,153570
4,462500	0,1	1,175172
4,464167	0,1	1,163957
4,465833	0,1	1,134755
4,467500	0,1	1,142679
4,469167	0,1	1,106581
4,470833	0,1	1,130774
4,472500	0,1	1,130374
4,474167	0,1	1,142524
4,475833	0,1	1,121275
4,477500	0,1	1,096512
4,479167	0,1	1,125433
4,480833	0,1	1,102344
4,482500	0,1	1,094373
4,484167	0,1	1,101724
4,485833	0,1	1,072459
4,487500	0,1	1,081008
4,489167	0,1	1,098501
4,490833	0,1	1,088815
4,492500	0,1	1,106248
4,494167	0,1	1,033164
4,495833	0,1	1,092731
4,497500	0,1	1,125094
4,499167	0,1	1,067755
4,500833	0,1	1,077420
4,502500	0,1	1,064342
4,504167	0,1	1,021208
4,505833	0,1	1,069460
4,507500	0,1	1,060439
4,509167	0,1	1,035700
4,510833	0,1	1,010826
4,512500	0,1	0,974062
4,514167	0,1	1,026203
4,515833	0,1	1,023459
4,517500	0,1	1,021747
4,519167	0,1	1,012849
4,520833	0,1	0,982097
4,522500	0,1	0,983109
4,524167	0,1	1,004671
4,525833	0,1	0,983095
4,527500	0,1	0,941867
4,529167	0,1	0,990315
4,530833	0,1	0,967418
4,532500	0,1	0,969809
4,534167	0,1	0,939465
4,535833	0,1	0,945365
4,537500	0,1	0,993757
4,539167	0,1	0,919406
4,540833	0,1	0,945422
4,542500	0,1	0,959395
4,544167	0,1	0,900220
4,545833	0,1	0,929216
4,547500	0,1	0,920634
4,549167	0,1	0,921786
4,550833	0,1	0,924318
4,552500	0,1	0,939144
4,554167	0,1	0,935796
4,555833	0,1	0,927093
4,557500	0,1	0,878040
4,559167	0,1	0,876076
4,560833	0,1	0,894074
4,562500	0,1	0,907685
4,564167	0,1	0,911417
4,565833	0,1	0,871933
4,567500	0,1	0,870304
4,569167	0,1	0,883197
4,570833	0,1	0,882424
4,572500	0,1	0,837616
4,574167	0,1	0,880349
4,575833	0,1	0,855258
4,577500	0,1	0,845244
4,579167	0,1	0,835721
4,580833	0,1	0,838846
4,582500	0,1	0,823890
4,584167	0,1	0,836003
4,585833	0,1	0,847881
4,587500	0,1	0,824005
4,589167	0,1	0,817407
4,590833	0,1	0,803181
4,592500	0,1	0,853088
4,594167	0,1	0,797886
4,595833	0,1	0,808993
4,597500	0,1	0,830918
4,599167	0,1	0,776091
4,600833	0,1	0,747782
4,602500	0,1	0,815193
4,604167	0,1	0,770537
4,605833	0,1	0,826693
4,607500	0,1	0,777090
4,609167	0,1	0,757378
4,610833	0,1	0,787616
4,612500	0,1	0,777922
4,614167	0,1	0,743328
4,615833	0,1	0,780689
4,617500	0,1	0,773729
4,619167	0,1	0,747676
4,620833	0,1	0,756569
4,622500	0,1	0,752819
4,624167	0,1	0,715210
4,625833	0,1	0,758624
4,627500	0,1	0,729878
4,629167	0,1	0,768081
4,630833	0,1	0,770690
4,632500	0,1	0,727663
4,634167	0,1	0,749463
4,635833	0,1	0,755441
4,637500	0,1	0,742062
4,639167	0,1	0,719250
4,640833	0,1	0,716868
4,642500	0,1	0,718116
4,644167	0,1	0,745320
4,645833	0,1	0,727576
4,647500	0,1	0,708679
4,649167	0,1	0,692615
4,650833	0,1	0,699269
4,652500	0,1	0,716825
4,654167	0,1	0,668394
4,655833	0,1	0,673713
4,657500	0,1	0,674974
4,659167	0,1	0,679031
4,660833	0,1	0,697938
4,662500	0,1	0,659802
4,664167	0,1	0,677637
4,665833	0,1	0,654298
4,667500	0,1	0,679538
4,669167	0,1	0,683653
4,670833	0,1	0,658893
4,672500	0,1	0,694703
4,674167	0,1	0,663727
4,675833	0,1	0,637700
4,677500	0,1	0,628386
4,679167	0,1	0,648587
4,680833	0,1	0,631579
4,682500	0,1	0,628777
4,684167	0,1	0,631629
4,685833	0,1	0,613339
4,687500	0,1	0,607258
4,689167	0,1	0,608243
4,690833	0,1	0,655383
4,692500	0,1	0,611183
4,694167	0,1	0,648611
4,695833	0,1	0,626433
4,697500	0,1	0,601789
4,699167	0,1	0,613332
4,700833	0,1	0,590692
4,702500	0,1	0,594545
4,704167	0,1	0,608671
4,705833	0,1	0,582329
4,707500	0,1	0,600688
4,709167	0,1	0,610106
4,710833	0,1	0,618088
4,712500	0,1	0,583069
4,714167	0,1	0,548143
4,715833	0,1	0,578773
4,717500	0,1	0,585959
4,719167	0,1	0,607317
4,720833	0,1	0,602810
4,722500	0,1	0,587055
4,724167	0,1	0,617282
4,725833	0,1	0,573905
4,727500	0,1	0,574380
4,729167	0,1	0,555951
4,730833	0,1	0,571960
4,732500	0,1	0,520356
4,734167	0,1	0,541696
4,735833	0,1	0,586685
4,737500	0,1	0,522029
4,739167	0,1	0,571887
4,740833	0,1	0,512898
4,742500	0,1	0,607551
4,744167	0,1	0,508730
4,745833	0,1	0,571623
4,747500	0,1	0,533543
4,749167	0,1	0,569925
4,750833	0,1	0,545016
4,752500	0,1	0,564082
4,754167	0,1	0,585564
4,755833	0,1	0,548013
4,757500	0,1	0,527199
4,759167	0,1	0,554358
4,760833	0,1	0,500994
4,762500	0,1	0,525193
4,764167	0,1	0,520728
4,765833	0,1	0,529282
4,767500	0,1	0,514746
4,769167	0,1	0,535770
4,770833	0,1	0,549380
4,772500	0,1	0,525170
4,774167	0,1	0,553879
4,775833	0,1	0,485978
4,777500	0,1	0,508370
4,779167	0,1	0,496611
4,780833	0,1	0,491464
4,782500	0,1	0,511976
4,784167	0,1	0,530241
4,785833	0,1	0,513980
4,787500	0,1	0,501850
4,789167	0,1	0,504586
4,790833	0,1	0,504875
4,792500	0,1	0,507895
4,794167	0,1	0,482459
4,795833	0,1	0,524864
4,797500	0,1	0,498892
4,799167	0,1	0,496383
4,800833	0,1	0,498597
4,802500	0,1	0,509947
4,804167	0,1	0,513490
4,805833	0,1	0,449028
4,807500	0,1	0,474119
4,809167	0,1	0,494031
4,810833	0,1	0,468153
4,812500	0,1	0,513928
4,814167	0,1	0,456903
4,815833	0,1	0,446123
4,817500	0,1	0,486312
4,819167	0,1	0,471268
4,820833	0,1	0,478726
4,822500	0,1	0,487889
4,824167	0,1	0,503065
4,825833	0,1	0,522587
4,827500	0,1	0,450604
4,829167	0,1	0,510486
4,830833	0,1	0,454589
4,832500	0,1	0,510131
4,834167	0,1	0,490853
4,835833	0,1	0,511231
4,837500	0,1	0,484039
4,839167	0,1	0,501200
4,840833	0,1	0,460499
4,842500	0,1	0,477721
4,844167	0,1	0,474963
4,845833	0,1	0,502261
4,847500	0,1	0,463875
4,849167	0,1	0,511580
4,850833	0,1	0,487897
4,852500	0,1	0,486540
4,854167	0,1	0,478341
4,855833	0,1	0,509595
4,857500	0,1	0,465810
4,859167	0,1	0,485988
4,860833	0,1	0,490624
4,862500	0,1	0,488086
4,864167	0,1	0,495284
4,865833	0,1	0,524709
4,867500	0,1	0,470922
4,869167	0,1	0,482904
4,870833	0,1	0,517379
4,872500	0,1	0,486224
4,874167	0,1	0,468600
4,875833	0,1	0,440946
4,877500	0,1	0,471226
4,879167	0,1	0,472615
4,880833	0,1	0,449949
4,882500	0,1	0,449013
4,884167	0,1	0,501034
4,885833	0,1	0,453685
4,887500	0,1	0,520327
4,889167	0,1	0,460086
4,890833	0,1	0,505084
4,892500	0,1	0,426522
4,894167	0,1	0,461867
4,895833	0,1	0,500134
4,897500	0,1	0,473265
4,899167	0,1	0,470881
4,900833	0,1	0,473517
4,902500	0,1	0,495895
4,904167	0,1	0,440824
4,905833	0,1	0,480579
4,907500	0,1	0,485701
4,909167	0,1	0,460240
4,910833	0,1	0,464865
4,912500	0,1	0,468530
4,914167	0,1	0,451813
4,915833	0,1	0,454316
4,917500	0,1	0,476567
4,919167	0,1	0,462264
4,920833	0,1	0,437601
4,922500	0,1	0,459747
4,924167	0,1	0,477656
4,925833	0,1	0,477377
4,927500	0,1	0,440626
4,929167	0,1	0,463153
4,930833	0,1	0,431847
4,932500	0,1	0,468388
4,934167	0,1	0,459237
4,935833	0,1	0,487467
4,937500	0,1	0,445613
4,939167	0,1	0,457978
4,940833	0,1	0,495891
4,942500	0,1	0,442110
4,944167	0,1	0,507522
4,945833	0,1	0,449091
4,947500	0,1	0,485346
4,949167	0,1	0,466282
4,950833	0,1	0,459111
4,952500	0,1	0,477915
4,954167	0,1	0,438796
4,955833	0,1	0,438367
4,957500	0,1	0,425992
4,959167	0,1	0,501635
4,960833	0,1	0,440825
4,962500	0,1	0,465854
4,964167	0,1	0,468530
4,965833	0,1	0,453806
4,967500	0,1	0,477914
4,969167	0,1	0,469980
4,970833	0,1	0,484029
4,972500	0,1	0,480654
4,974167	0,1	0,473095
4,975833	0,1	0,486791
4,977500	0,1	0,503708
4,979167	0,1	0,473650
4,980833	0,1	0,467088
4,982500	0,1	0,492836
4,984167	0,1	0,532809
4,985833	0,1	0,508381
4,987500	0,1	0,460601
4,989167	0,1	0,498493
4,990833	0,1	0,487412
4,992500	0,1	0,437028
4,994167	0,1	0,489933
4,995833	0,1	0,498375
4,997500	0,1	0,531589
4,999167	0,1	0,493591
5,000833	0,1	0,499727
5,002500	0,1	0,492715
5,004167	0,1	0,505190
5,005833	0,1	0,488793
5,007500	0,1	0,527568
5,009167	0,1	0,504138
5,010833	0,1	0,540622
5,012500	0,1	0,502824
5,014167	0,1	0,521264
5,015833	0,1	0,496998
5,017500	0,1	0,524159
5,019167	0,1	0,512532
5,020833	0,1	0,518700
5,022500	0,1	0,511114
5,024167	0,1	0,540726
5,025833	0,1	0,543593
5,027500	0,1	0,567355
5,029167	0,1	0,554367
5,030833	0,1	0,561251
5,032500	0,1	0,537652
5,034167	0,1	0,576645
5,035833	0,1	0,535922
5,037500	0,1	0,581567
5,039167	0,1	0,548973
5,040833	0,1	0,551603
5,042500	0,1	0,575913
5,044167	0,1	0,563194
5,045833	0,1	0,593700
5,047500	0,1	0,575476
5,049167	0,1	0,598401
5,050833	0,1	0,554866
5,052500	0,1	0,564923
5,054167	0,1	0,594343
5,055833	0,1	0,572073
5,057500	0,1	0,607983
5,059167	0,1	0,636556
5,060833	0,1	0,638428
5,062500	0,1	0,631603
5,064167	0,1	0,641959
5,065833	0,1	0,649012
5,067500	0,1	0,633481
5,069167	0,1	0,652329
5,070833	0,1	0,637657
5,072500	0,1	0,671105
5,074167	0,1	0,650789
5,075833	0,1	0,640127
5,077500	0,1	0,652478
5,079167	0,1	0,694033
5,080833	0,1	0,615927
5,082500	0,1	0,659876
5,084167	0,1	0,640298
5,085833	0,1	0,650363
5,087500	0,1	0,661905
5,089167	0,1	0,667185
5,090833	0,1	0,680474
5,092500	0,1	0,649898
5,094167	0,1	0,711995
5,095833	0,1	0,705732
5,097500	0,1	0,696567
5,099167	0,1	0,673049
5,100833	0,1	0,673109
5,102500	0,1	0,695404
5,104167	0,1	0,709432
5,105833	0,1	0,687890
5,107500	0,1	0,742937
5,109167	0,1	0,726773
5,110833	0,1	0,729435
5,112500	0,1	0,680396
5,114167	0,1	0,688841
5,115833	0,1	0,705307
5,117500	0,1	0,693928
5,119167	0,1	0,677645
5,120833	0,1	0,685309
5,122500	0,1	0,701000
5,124167	0,1	0,725476
5,125833	0,1	0,711080
5,127500	0,1	0,718599
5,129167	0,1	0,717736
5,130833	0,1	0,729538
5,132500	0,1	0,713878
5,134167	0,1	0,741944
5,135833	0,1	0,690876
5,137500	0,1	0,700777
5,139167	0,1	0,665974
5,140833	0,1	0,727754
5,142500	0,1	0,675789
5,144167	0,1	0,706235
5,145833	0,1	0,703106
5,147500	0,1	0,729430
5,149167	0,1	0,692530
5,150833	0,1	0,703890
5,152500	0,1	0,689134
5,154167	0,1	0,681030
5,155833	0,1	0,703112
5,157500	0,1	0,716051
5,159167	0,1	0,677242
5,160833	0,1	0,695298
5,162500	0,1	0,707502
5,164167	0,1	0,693417
5,165833	0,1	0,719173
5,167500	0,1	0,691687
5,169167	0,1	0,704492
5,170833	0,1	0,674850
5,172500	0,1	0,701510
5,174167	0,1	0,717980
5,175833	0,1	0,649542
5,177500	0,1	0,674352
5,179167	0,1	0,710292
5,180833	0,1	0,638408
5,182500	0,1	0,619420
5,184167	0,1	0,662278
5,185833	0,1	0,671820
5,187500	0,1	0,625756
5,189167	0,1	0,689811
5,190833	0,1	0,610623
5,192500	0,1	0,643371
5,194167	0,1	0,665513
5,195833	0,1	0,635955
5,197500	0,1	0,645438
5,199167	0,1	0,598839
5,200833	0,1	0,625069
5,202500	0,1	0,650451
5,204167	0,1	0,596620
5,205833	0,1	0,566024
5,207500	0,1	0,594670
5,209167	0,1	0,623492
5,210833	0,1	0,582519
5,212500	0,1	0,588242
5,214167	0,1	0,599811
5,215833	0,1	0,596086
5,217500	0,1	0,567981
5,219167	0,1	0,572636
5,220833	0,1	0,557014
5,222500	0,1	0,540997
5,224167	0,1	0,554404
5,225833	0,1	0,533950
5,227500	0,1	0,561860
5,229167	0,1	0,514501
5,230833	0,1	0,574327
5,232500	0,1	0,539773
5,234167	0,1	0,529899
5,235833	0,1	0,511089
5,237500	0,1	0,511916
5,239167	0,1	0,508346
5,240833	0,1	0,506864
5,242500	0,1	0,506257
5,244167	0,1	0,485194
5,245833	0,1	0,495190
5,247500	0,1	0,480916
5,249167	0,1	0,487371
5,250833	0,1	0,459565
5,252500	0,1	0,473798
5,254167	0,1	0,460205
5,255833	0,1	0,507944
5,257500	0,1	0,450119
5,259167	0,1	0,452871
5,260833	0,1	0,440555
5,262500	0,1	0,415286
5,264167	0,1	0,437622
5,265833	0,1	0,450968
5,267500	0,1	0,475595
5,269167	0,1	0,463097
5,270833	0,1	0,430916
5,272500	0,1	0,396607
5,274167	0,1	0,400457
5,275833	0,1	0,423632
5,277500	0,1	0,402970
5,279167	0,1	0,407529
5,280833	0,1	0,414506
5,282500	0,1	0,398531
5,284167	0,1	0,396407
5,285833	0,1	0,402578
5,287500	0,1	0,357737
5,289167	0,1	0,381126
5,290833	0,1	0,343943
5,292500	0,1	0,415516
5,294167	0,1	0,394096
5,295833	0,1	0,392964
5,297500	0,1	0,362910
5,299167	0,1	0,352841
5,300833	0,1	0,347117
5,302500	0,1	0,333360
5,304167	0,1	0,364889
5,305833	0,1	0,330921
5,307500	0,1	0,343577
5,309167	0,1	0,342038
5,310833	0,1	0,344899
5,312500	0,1	0,325389
5,314167	0,1	0,315388
5,315833	0,1	0,296873
5,317500	0,1	0,324833
5,319167	0,1	0,316706
5,320833	0,1	0,354600
5,322500	0,1	0,321183
5,324167	0,1	0,297552
5,325833	0,1	0,284145
5,327500	0,1	0,296226
5,329167	0,1	0,324991
5,330833	0,1	0,340619
5,332500	0,1	0,330307
5,334167	0,1	0,292764
5,335833	0,1	0,258659
5,337500	0,1	0,267712
5,339167	0,1	0,280505
5,340833	0,1	0,298345
5,342500	0,1	0,302206
5,344167	0,1	0,272381
5,345833	0,1	0,269708
5,347500	0,1	0,239085
5,349167	0,1	0,249615
5,350833	0,1	0,222595
5,352500	0,1	0,292031
5,354167	0,1	0,254224
5,355833	0,1	0,280310
5,357500	0,1	0,228132
5,359167	0,1	0,233482
5,360833	0,1	0,234414
5,362500	0,1	0,244472
5,364167	0,1	0,254664
5,365833	0,1	0,225649
5,367500	0,1	0,260479
5,369167	0,1	0,240623
5,370833	0,1	0,219282
5,372500	0,1	0,237305
5,374167	0,1	0,196237
5,375833	0,1	0,179556
5,377500	0,1	0,242437
5,379167	0,1	0,218801
5,380833	0,1	0,219150
5,382500	0,1	0,207837
5,384167	0,1	0,203370
5,385833	0,1	0,198355
5,387500	0,1	0,206326
5,389167	0,1	0,220657
5,390833	0,1	0,198848
5,392500	0,1	0,210403
5,394167	0,1	0,200258
5,395833	0,1	0,206327
5,397500	0,1	0,183250
5,399167	0,1	0,162691
5,400833	0,1	0,177430
5,402500	0,1	0,210368
5,404167	0,1	0,163467
5,405833	0,1	0,124630
5,407500	0,1	0,165175
5,409167	0,1	0,133899
5,410833	0,1	0,175014
5,412500	0,1	0,189515
5,414167	0,1	0,160375
5,415833	0,1	0,165636
5,417500	0,1	0,192506
5,419167	0,1	0,189393
5,420833	0,1	0,144891
5,422500	0,1	0,142212
5,424167	0,1	0,168755
5,425833	0,1	0,136761
5,427500	0,1	0,174283
5,429167	0,1	0,160372
5,430833	0,1	0,201396
5,432500	0,1	0,154785
5,434167	0,1	0,141091
5,435833	0,1	0,135459
5,437500	0,1	0,140444
5,439167	0,1	0,132446
5,440833	0,1	0,150008
5,442500	0,1	0,165544
5,444167	0,1	0,118089
5,445833	0,1	0,139256
5,447500	0,1	0,123223
5,449167	0,1	0,147771
5,450833	0,1	0,159244
5,452500	0,1	0,131998
5,454167	0,1	0,122290
5,455833	0,1	0,126948
5,457500	0,1	0,100886
5,459167	0,1	0,097313
5,460833	0,1	0,149468
5,462500	0,1	0,110540
5,464167	0,1	0,120747
5,465833	0,1	0,145681
5,467500	0,1	0,108458
5,469167	0,1	0,150692
5,470833	0,1	0,116295
5,472500	0,1	0,124250
5,474167	0,1	0,105166
5,475833	0,1	0,107089
5,477500	0,1	0,063631
5,479167	0,1	0,060535
5,480833	0,1	0,085940
5,482500	0,1	0,117845
5,484167	0,1	0,130233
5,485833	0,1	0,069859
5,487500	0,1	0,074014
5,489167	0,1	0,090543
5,490833	0,1	0,081123
5,492500	0,1	0,109881
5,494167	0,1	0,099696
5,495833	0,1	0,087715
5,497500	0,1	0,053537
5,499167	0,1	0,097995
5,500833	0,1	0,062431
5,502500	0,1	0,097153
5,504167	0,1	0,097714
5,505833	0,1	0,075670
5,507500	0,1	0,062564
5,509167	0,1	0,078396
5,510833	0,1	0,054717
5,512500	0,1	0,048099
5,514167	0,1	0,077976
5,515833	0,1	0,041226
5,517500	0,1	0,042025
5,519167	0,1	0,072408
5,520833	0,1	0,066507
5,522500	0,1	0,093009
5,524167	0,1	0,103333
5,525833	0,1	0,068668
5,527500	0,1	0,078650
5,529167	0,1	0,086410
5,530833	0,1	0,078817
5,532500	0,1	0,041846
5,534167	0,1	0,073855
5,535833	0,1	0,067541
5,537500	0,1	0,076305
5,539167	0,1	0,124630
5,540833	0,1	0,064629
5,542500	0,1	0,052346
5,544167	0,1	0,089126
5,545833	0,1	0,036067
5,547500	0,1	0,042578
5,549167	0,1	0,048575
5,550833	0,1	0,052054
5,552500	0,1	0,066062
5,554167	0,1	0,051479
5,555833	0,1	0,067950
5,557500	0,1	0,047248
5,559167	0,1	0,056299
5,560833	0,1	0,069613
5,562500	0,1	0,067414
5,564167	0,1	0,002597
5,565833	0,1	0,019862
5,567500	0,1	0,071217
5,569167	0,1	0,065964
5,570833	0,1	0,038982
5,572500	0,1	0,037325
5,574167	0,1	0,058310
5,575833	0,1	0,040468
5,577500	0,1	0,035953
5,579167	0,1	0,054141
5,580833	0,1	0,042582
5,582500	0,1	0,059219
5,584167	0,1	0,072110
5,585833	0,1	0,047186
5,587500	0,1	0,019105
5,589167	0,1	0,059981
5,590833	0,1	-0,001112
5,592500	0,1	0,073947
5,594167	0,1	0,034613
5,595833	0,1	0,028080
5,597500	0,1	0,073828
5,599167	0,1	0,023592
5,600833	0,1	0,037359
5,602500	0,1	0,028863
5,604167	0,1	0,046722
5,605833	0,1	0,018296
5,607500	0,1	0,005944
5,609167	0,1	0,004860
5,610833	0,1	0,047610
5,612500	0,1	-0,004035
5,614167	0,1	0,055065
5,615833	0,1	0,022795
5,617500	0,1	0,026390
5,619167	0,1	0,014673
5,620833	0,1	0,020820
5,622500	0,1	0,063257
5,624167	0,1	0,030530
5,625833	0,1	0,036053
5,627500	0,1	0,033610
5,629167	0,1	0,034001
5,630833	0,1	0,004475
5,632500	0,1	0,042596
5,634167	0,1	0,064924
5,635833	0,1	0,020190
5,637500	0,1	0,030395
5,639167	0,1	0,066057
5,640833	0,1	0,038794
5,642500	0,1	0,010157
5,644167	0,1	0,056479
5,645833	0,1	0,042771
5,647500	0,1	0,052304
5,649167	0,1	0,030919
5,650833	0,1	-0,012226
5,652500	0,1	0,044002
5,654167	0,1	0,028724
5,655833	0,1	0,054265
5,657500	0,1	0,046297
5,659167	0,1	0,050666
5,660833	0,1	0,001581
5,662500	0,1	0,058076
5,664167	0,1	0,051162
5,665833	0,1	0,035792
5,667500	0,1	0,073956
5,669167	0,1	0,033291
5,670833	0,1	0,048170
5,672500	0,1	0,033510
5,674167	0,1	0,069912
5,675833	0,1	-0,025063
5,677500	0,1	0,038735
5,679167	0,1	0,018984
5,680833	0,1	0,021690
5,682500	0,1	0,033230
5,684167	0,1	0,042061
5,685833	0,1	0,072295
5,687500	0,1	0,038341
5,689167	0,1	0,060049
5,690833	0,1	0,009244
5,692500	0,1	0,036602
5,694167	0,1	0,048939
5,695833	0,1	0,048362
5,697500	0,1	0,045011
5,699167	0,1	0,045401
5,700833	0,1	0,065733
5,702500	0,1	0,052863
5,704167	0,1	0,069009
5,705833	0,1	0,069050
5,707500	0,1	0,027232
5,709167	0,1	0,031844
5,710833	0,1	0,066762
5,712500	0,1	0,042171
5,714167	0,1	0,040387
5,715833	0,1	0,067884
5,717500	0,1	0,014284
5,719167	0,1	0,041642
5,720833	0,1	0,034708
5,722500	0,1	0,038975
5,724167	0,1	0,061725
5,725833	0,1	0,063985
5,727500	0,1	0,039624
5,729167	0,1	0,017567
5,730833	0,1	0,065852
5,732500	0,1	0,034814
5,734167	0,1	0,081677
5,735833	0,1	0,056370
5,737500	0,1	0,015958
5,739167	0,1	0,088373
5,740833	0,1	0,051256
5,742500	0,1	0,083948
5,744167	0,1	0,058675
5,745833	0,1	0,060924
5,747500	0,1	0,044020
5,749167	0,1	0,038146
5,750833	0,1	0,069168
5,752500	0,1	0,103327
5,754167	0,1	0,066035
5,755833	0,1	0,076569
5,757500	0,1	0,065247
5,759167	0,1	0,036804
5,760833	0,1	0,033673
5,762500	0,1	0,091275
5,764167	0,1	0,079397
5,765833	0,1	0,047462
5,767500	0,1	0,077813
5,769167	0,1	0,074645
5,770833	0,1	0,084824
5,772500	0,1	0,048083
5,774167	0,1	0,075658
5,775833	0,1	0,038468
5,777500	0,1	0,035601
5,779167	0,1	0,047843
5,780833	0,1	0,060379
5,782500	0,1	0,080071
5,784167	0,1	0,072682
5,785833	0,1	0,058256
5,787500	0,1	0,040014
5,789167	0,1	0,041483
5,790833	0,1	0,076073
5,792500	0,1	0,070979
5,794167	0,1	0,058609
5,795833	0,1	0,094493
5,797500	0,1	0,076414
5,799167	0,1	0,061382
5,800833	0,1	0,029888
5,802500	0,1	0,095092
5,804167	0,1	0,064585
5,805833	0,1	0,010680
5,807500	0,1	0,026372
5,809167	0,1	0,061042
5,810833	0,1	0,072575
5,812500	0,1	0,079558
5,814167	0,1	0,059519
5,815833	0,1	0,075309
5,817500	0,1	0,020042
5,819167	0,1	0,060978
5,820833	0,1	0,059451
5,822500	0,1	0,084793
5,824167	0,1	0,056003
5,825833	0,1	0,047482
5,827500	0,1	0,061941
5,829167	0,1	0,078559
5,830833	0,1	0,044564
5,832500	0,1	0,071803
5,834167	0,1	0,039046
5,835833	0,1	0,100372
5,837500	0,1	0,083734
5,839167	0,1	0,076574
5,840833	0,1	0,061382
5,842500	0,1	0,064514
5,844167	0,1	0,048455
5,845833	0,1	0,055303
5,847500	0,1	0,068116
5,849167	0,1	0,054049
5,850833	0,1	0,072675
5,852500	0,1	0,073157
5,854167	0,1	0,058547
5,855833	0,1	0,032431
5,857500	0,1	0,066597
5,859167	0,1	0,048492
5,860833	0,1	0,058792
5,862500	0,1	0,079906
5,864167	0,1	0,058194
5,865833	0,1	0,069753
5,867500	0,1	0,056202
5,869167	0,1	0,040179
5,870833	0,1	0,089892
5,872500	0,1	0,037124
5,874167	0,1	0,040237
5,875833	0,1	0,057417
5,877500	0,1	0,051248
5,879167	0,1	0,054976
5,880833	0,1	0,067159
5,882500	0,1	0,047687
5,884167	0,1	0,039683
5,885833	0,1	0,044406
5,887500	0,1	0,032679
5,889167	0,1	0,043573
5,890833	0,1	0,033738
5,892500	0,1	0,088314
5,894167	0,1	0,019365
5,895833	0,1	0,046531
5,897500	0,1	0,065607
5,899167	0,1	0,050899
5,900833	0,1	0,057873
5,902500	0,1	0,031600
5,904167	0,1	-0,000435
5,905833	0,1	0,047457
5,907500	0,1	0,037216
5,909167	0,1	0,032489
5,910833	0,1	0,058083
5,912500	0,1	0,028931
5,914167	0,1	0,042136
5,915833	0,1	0,073441
5,917500	0,1	0,002019
5,919167	0,1	0,014055
5,920833	0,1	0,011702
5,922500	0,1	0,062235
5,924167	0,1	0,015997
5,925833	0,1	0,022560
5,927500	0,1	0,047902
5,929167	0,1	0,056753
5,930833	0,1	-0,045494
5,932500	0,1	0,033982
5,934167	0,1	0,002981
5,935833	0,1	0,008588
5,937500	0,1	0,024094
5,939167	0,1	0,044893
5,940833	0,1	0,021799
5,942500	0,1	0,007019
5,944167	0,1	0,009523
5,945833	0,1	0,003742
5,947500	0,1	0,019523
5,949167	0,1	-0,019583
5,950833	0,1	-0,005298
5,952500	0,1	0,024394
5,954167	0,1	-0,004691
5,955833	0,1	-0,016134
5,957500	0,1	0,023837
5,959167	0,1	0,033433
5,960833	0,1	-0,016289
5,962500	0,1	0,012766
5,964167	0,1	0,014183
5,965833	0,1	0,026037
5,967500	0,1	0,028960
5,969167	0,1	0,015888
5,970833	0,1	-0,011985
5,972500	0,1	-0,004137
5,974167	0,1	-0,026803
5,975833	0,1	0,008433
5,977500	0,1	0,019612
5,979167	0,1	0,016451
5,980833	0,1	0,016402
5,982500	0,1	0,043193
5,984167	0,1	0,005865
5,985833	0,1	-0,002769
5,987500	0,1	-0,032764
5,989167	0,1	0,002861
5,990833	0,1	-0,011903
5,992500	0,1	0,006407
5,994167	0,1	0,012546
5,995833	0,1	-0,014242
5,997500	0,1	-0,042758
5,999167	0,1	-0,026788
6,000833	0,1	0,018341
