File Path	chrom://chromeleon01/ikbm_chromeleon/2022/Rezex/Esteban/220612_chitin_4_7.seq/674.smp/UV_VIS_1.channel/UV_VIS_1.chm
Channel	UV_VIS_1

Injection Information:
Data Vault	ikbm_chromeleon
Injection	CelS2_00h-EGS_3
Injection Number	120
Position	BC6
Comment	
Processing Method	New ProcMethod
Instrument Method	Short_Rezex_6min_194nm
Type	Unknown
Status	Finished
Injection Date	13.06.2022
Injection Time	06:04:49
Injection Volume (µl)	8,000
Dilution Factor	1,0000
Weight	1,0000

Chromatogram Data Information:
Time Min. (min)	0,000833
Time Max. (min)	6,000833
Data Points	3601
Detector	UV
Generating Data System	Chromeleon 7.2.9.11323
Exporting Data System	Chromeleon 7.2.9.0
Operator	Instrument Controller
Signal Quantity	Absorbance
Signal Unit	mAU
Signal Min.	-0,129637
Signal Max.	114,190164
Channel	UV_VIS_1
Driver Name	VWD3000.dll
Channel Type	Evaluation
Min. Step (s)	0,1
Max. Step (s)	0,1
Average Step (s)	0,1

Signal Parameter Information:
Signal Info	WVL:194 nm

Chromatogram Data:
Time (min)	Step (s)	Value (mAU)
0,000833	n.a.	-0,065850
0,002500	0,1	-0,082938
0,004167	0,1	-0,038315
0,005833	0,1	-0,088323
0,007500	0,1	-0,062692
0,009167	0,1	-0,089076
0,010833	0,1	-0,055621
0,012500	0,1	-0,068381
0,014167	0,1	-0,122309
0,015833	0,1	-0,059309
0,017500	0,1	-0,098575
0,019167	0,1	-0,068925
0,020833	0,1	-0,053674
0,022500	0,1	-0,067404
0,024167	0,1	-0,040358
0,025833	0,1	-0,096082
0,027500	0,1	-0,061991
0,029167	0,1	-0,070797
0,030833	0,1	-0,096012
0,032500	0,1	-0,113458
0,034167	0,1	-0,102314
0,035833	0,1	-0,124135
0,037500	0,1	-0,129637
0,039167	0,1	-0,120140
0,040833	0,1	-0,121206
0,042500	0,1	-0,124108
0,044167	0,1	-0,098179
0,045833	0,1	-0,064788
0,047500	0,1	-0,128751
0,049167	0,1	-0,123055
0,050833	0,1	-0,051734
0,052500	0,1	-0,047104
0,054167	0,1	-0,084308
0,055833	0,1	-0,034512
0,057500	0,1	-0,071554
0,059167	0,1	-0,074386
0,060833	0,1	-0,066829
0,062500	0,1	-0,095278
0,064167	0,1	-0,059410
0,065833	0,1	-0,063510
0,067500	0,1	-0,078477
0,069167	0,1	-0,050959
0,070833	0,1	-0,090709
0,072500	0,1	-0,080408
0,074167	0,1	-0,055054
0,075833	0,1	-0,094969
0,077500	0,1	-0,059486
0,079167	0,1	-0,057784
0,080833	0,1	-0,033969
0,082500	0,1	-0,031080
0,084167	0,1	-0,043787
0,085833	0,1	-0,062375
0,087500	0,1	-0,074004
0,089167	0,1	-0,095204
0,090833	0,1	-0,084013
0,092500	0,1	-0,046654
0,094167	0,1	-0,054739
0,095833	0,1	-0,062104
0,097500	0,1	-0,053889
0,099167	0,1	-0,049854
0,100833	0,1	-0,052938
0,102500	0,1	-0,076445
0,104167	0,1	-0,048104
0,105833	0,1	-0,051427
0,107500	0,1	-0,044830
0,109167	0,1	-0,087147
0,110833	0,1	-0,102263
0,112500	0,1	-0,088994
0,114167	0,1	-0,097376
0,115833	0,1	-0,082809
0,117500	0,1	-0,058676
0,119167	0,1	-0,062746
0,120833	0,1	-0,080357
0,122500	0,1	-0,072664
0,124167	0,1	-0,047674
0,125833	0,1	-0,080520
0,127500	0,1	-0,099757
0,129167	0,1	-0,031597
0,130833	0,1	-0,101272
0,132500	0,1	-0,088811
0,134167	0,1	-0,059272
0,135833	0,1	-0,105983
0,137500	0,1	-0,056343
0,139167	0,1	-0,097827
0,140833	0,1	-0,052615
0,142500	0,1	-0,085134
0,144167	0,1	-0,044776
0,145833	0,1	-0,072747
0,147500	0,1	-0,076159
0,149167	0,1	-0,044087
0,150833	0,1	-0,026725
0,152500	0,1	-0,055087
0,154167	0,1	-0,078017
0,155833	0,1	-0,078726
0,157500	0,1	-0,068463
0,159167	0,1	-0,085673
0,160833	0,1	-0,032726
0,162500	0,1	-0,028787
0,164167	0,1	-0,077064
0,165833	0,1	-0,052991
0,167500	0,1	-0,038783
0,169167	0,1	-0,065336
0,170833	0,1	-0,064640
0,172500	0,1	-0,075165
0,174167	0,1	-0,066660
0,175833	0,1	-0,065923
0,177500	0,1	-0,060366
0,179167	0,1	-0,054912
0,180833	0,1	-0,046006
0,182500	0,1	-0,048555
0,184167	0,1	-0,049381
0,185833	0,1	-0,042523
0,187500	0,1	-0,015748
0,189167	0,1	-0,081123
0,190833	0,1	-0,045371
0,192500	0,1	-0,063889
0,194167	0,1	-0,019038
0,195833	0,1	-0,075962
0,197500	0,1	-0,046346
0,199167	0,1	-0,038659
0,200833	0,1	-0,047576
0,202500	0,1	-0,056696
0,204167	0,1	-0,040586
0,205833	0,1	-0,082032
0,207500	0,1	-0,065988
0,209167	0,1	-0,031150
0,210833	0,1	-0,033382
0,212500	0,1	-0,076210
0,214167	0,1	-0,041978
0,215833	0,1	-0,023032
0,217500	0,1	-0,063257
0,219167	0,1	-0,006772
0,220833	0,1	-0,044773
0,222500	0,1	-0,033069
0,224167	0,1	-0,104357
0,225833	0,1	-0,016589
0,227500	0,1	-0,067488
0,229167	0,1	-0,059786
0,230833	0,1	-0,068000
0,232500	0,1	-0,037792
0,234167	0,1	-0,056784
0,235833	0,1	-0,067510
0,237500	0,1	-0,055631
0,239167	0,1	-0,038492
0,240833	0,1	-0,048279
0,242500	0,1	-0,076077
0,244167	0,1	-0,048165
0,245833	0,1	-0,046646
0,247500	0,1	-0,044064
0,249167	0,1	-0,065705
0,250833	0,1	-0,026414
0,252500	0,1	-0,027914
0,254167	0,1	-0,067672
0,255833	0,1	-0,055984
0,257500	0,1	-0,047747
0,259167	0,1	-0,038948
0,260833	0,1	0,012649
0,262500	0,1	-0,056711
0,264167	0,1	-0,047289
0,265833	0,1	0,011318
0,267500	0,1	-0,008660
0,269167	0,1	-0,042069
0,270833	0,1	-0,043148
0,272500	0,1	-0,067982
0,274167	0,1	-0,044787
0,275833	0,1	-0,030073
0,277500	0,1	-0,064069
0,279167	0,1	-0,006753
0,280833	0,1	-0,044361
0,282500	0,1	-0,027673
0,284167	0,1	-0,073979
0,285833	0,1	-0,056901
0,287500	0,1	-0,023554
0,289167	0,1	-0,008352
0,290833	0,1	-0,048132
0,292500	0,1	-0,036461
0,294167	0,1	-0,041846
0,295833	0,1	-0,014753
0,297500	0,1	-0,036727
0,299167	0,1	-0,039482
0,300833	0,1	-0,014999
0,302500	0,1	-0,029044
0,304167	0,1	-0,032881
0,305833	0,1	-0,054614
0,307500	0,1	-0,065664
0,309167	0,1	-0,042328
0,310833	0,1	-0,040672
0,312500	0,1	-0,041970
0,314167	0,1	-0,046828
0,315833	0,1	0,004491
0,317500	0,1	-0,027846
0,319167	0,1	-0,036668
0,320833	0,1	-0,050247
0,322500	0,1	-0,023782
0,324167	0,1	-0,008318
0,325833	0,1	-0,038220
0,327500	0,1	-0,054492
0,329167	0,1	-0,038142
0,330833	0,1	-0,004365
0,332500	0,1	-0,015325
0,334167	0,1	-0,000695
0,335833	0,1	-0,016422
0,337500	0,1	-0,020398
0,339167	0,1	-0,006408
0,340833	0,1	-0,015889
0,342500	0,1	-0,043080
0,344167	0,1	0,001758
0,345833	0,1	0,016858
0,347500	0,1	-0,007894
0,349167	0,1	-0,006943
0,350833	0,1	-0,055890
0,352500	0,1	-0,034628
0,354167	0,1	-0,003373
0,355833	0,1	-0,010422
0,357500	0,1	-0,010669
0,359167	0,1	0,004604
0,360833	0,1	-0,015491
0,362500	0,1	-0,004405
0,364167	0,1	-0,030537
0,365833	0,1	-0,004671
0,367500	0,1	-0,002221
0,369167	0,1	-0,001272
0,370833	0,1	0,010918
0,372500	0,1	-0,023538
0,374167	0,1	0,003046
0,375833	0,1	-0,019629
0,377500	0,1	-0,029214
0,379167	0,1	-0,033750
0,380833	0,1	-0,021194
0,382500	0,1	-0,004987
0,384167	0,1	-0,018682
0,385833	0,1	0,001686
0,387500	0,1	-0,019218
0,389167	0,1	-0,025899
0,390833	0,1	-0,014918
0,392500	0,1	-0,011355
0,394167	0,1	-0,048684
0,395833	0,1	0,029036
0,397500	0,1	0,001468
0,399167	0,1	-0,039851
0,400833	0,1	-0,010738
0,402500	0,1	-0,026400
0,404167	0,1	0,020781
0,405833	0,1	-0,008139
0,407500	0,1	-0,013815
0,409167	0,1	-0,028448
0,410833	0,1	-0,035033
0,412500	0,1	0,009626
0,414167	0,1	-0,038735
0,415833	0,1	-0,004841
0,417500	0,1	0,017929
0,419167	0,1	-0,029644
0,420833	0,1	0,004495
0,422500	0,1	-0,037864
0,424167	0,1	-0,001115
0,425833	0,1	0,014080
0,427500	0,1	-0,012843
0,429167	0,1	-0,015995
0,430833	0,1	0,013558
0,432500	0,1	0,000339
0,434167	0,1	0,019178
0,435833	0,1	0,015290
0,437500	0,1	-0,009592
0,439167	0,1	-0,009859
0,440833	0,1	-0,010424
0,442500	0,1	-0,006863
0,444167	0,1	0,012278
0,445833	0,1	0,008539
0,447500	0,1	-0,015901
0,449167	0,1	-0,030048
0,450833	0,1	0,033637
0,452500	0,1	0,025576
0,454167	0,1	0,035094
0,455833	0,1	-0,010808
0,457500	0,1	0,000605
0,459167	0,1	0,020023
0,460833	0,1	0,031330
0,462500	0,1	0,029486
0,464167	0,1	-0,009650
0,465833	0,1	0,012594
0,467500	0,1	0,007273
0,469167	0,1	-0,006570
0,470833	0,1	-0,010150
0,472500	0,1	0,011661
0,474167	0,1	0,024122
0,475833	0,1	0,012515
0,477500	0,1	0,028347
0,479167	0,1	0,019450
0,480833	0,1	-0,016006
0,482500	0,1	0,039161
0,484167	0,1	0,051347
0,485833	0,1	-0,021692
0,487500	0,1	0,007494
0,489167	0,1	-0,024911
0,490833	0,1	0,012238
0,492500	0,1	-0,014829
0,494167	0,1	0,015010
0,495833	0,1	-0,000196
0,497500	0,1	0,007691
0,499167	0,1	0,006656
0,500833	0,1	0,005224
0,502500	0,1	0,010129
0,504167	0,1	0,049662
0,505833	0,1	-0,012411
0,507500	0,1	-0,001504
0,509167	0,1	0,022009
0,510833	0,1	0,037948
0,512500	0,1	0,020427
0,514167	0,1	0,016406
0,515833	0,1	0,004523
0,517500	0,1	0,031651
0,519167	0,1	0,029399
0,520833	0,1	-0,029933
0,522500	0,1	0,020991
0,524167	0,1	-0,008676
0,525833	0,1	0,057461
0,527500	0,1	0,011010
0,529167	0,1	0,020833
0,530833	0,1	0,002081
0,532500	0,1	0,011745
0,534167	0,1	0,023856
0,535833	0,1	-0,010415
0,537500	0,1	0,027947
0,539167	0,1	0,066699
0,540833	0,1	-0,003664
0,542500	0,1	0,032484
0,544167	0,1	-0,004885
0,545833	0,1	0,036975
0,547500	0,1	0,013536
0,549167	0,1	-0,008141
0,550833	0,1	0,017973
0,552500	0,1	0,017293
0,554167	0,1	-0,001770
0,555833	0,1	0,071475
0,557500	0,1	0,020909
0,559167	0,1	0,014332
0,560833	0,1	0,023954
0,562500	0,1	0,053162
0,564167	0,1	0,016598
0,565833	0,1	0,047966
0,567500	0,1	0,032348
0,569167	0,1	0,020821
0,570833	0,1	0,019403
0,572500	0,1	0,027743
0,574167	0,1	0,052048
0,575833	0,1	0,039485
0,577500	0,1	0,037602
0,579167	0,1	0,050767
0,580833	0,1	0,052115
0,582500	0,1	0,018814
0,584167	0,1	0,042668
0,585833	0,1	0,027256
0,587500	0,1	0,029777
0,589167	0,1	0,019117
0,590833	0,1	0,019904
0,592500	0,1	0,015537
0,594167	0,1	0,052728
0,595833	0,1	0,046321
0,597500	0,1	0,055031
0,599167	0,1	0,069958
0,600833	0,1	0,042471
0,602500	0,1	0,036345
0,604167	0,1	0,044017
0,605833	0,1	0,061261
0,607500	0,1	0,028378
0,609167	0,1	0,042133
0,610833	0,1	0,014197
0,612500	0,1	0,056931
0,614167	0,1	0,070539
0,615833	0,1	0,050089
0,617500	0,1	0,083597
0,619167	0,1	0,015964
0,620833	0,1	0,027065
0,622500	0,1	0,061961
0,624167	0,1	0,062902
0,625833	0,1	0,077763
0,627500	0,1	0,042021
0,629167	0,1	0,083762
0,630833	0,1	0,080688
0,632500	0,1	0,044317
0,634167	0,1	0,078753
0,635833	0,1	0,060837
0,637500	0,1	0,083890
0,639167	0,1	0,077147
0,640833	0,1	0,041231
0,642500	0,1	0,089702
0,644167	0,1	0,081619
0,645833	0,1	0,082403
0,647500	0,1	0,052456
0,649167	0,1	0,076725
0,650833	0,1	0,062511
0,652500	0,1	0,089645
0,654167	0,1	0,061852
0,655833	0,1	0,080700
0,657500	0,1	0,036346
0,659167	0,1	0,080653
0,660833	0,1	0,134235
0,662500	0,1	0,068465
0,664167	0,1	0,105957
0,665833	0,1	0,072081
0,667500	0,1	0,101134
0,669167	0,1	0,123269
0,670833	0,1	0,092433
0,672500	0,1	0,085261
0,674167	0,1	0,069238
0,675833	0,1	0,072879
0,677500	0,1	0,078778
0,679167	0,1	0,083044
0,680833	0,1	0,083604
0,682500	0,1	0,098406
0,684167	0,1	0,113042
0,685833	0,1	0,089531
0,687500	0,1	0,091244
0,689167	0,1	0,091492
0,690833	0,1	0,126373
0,692500	0,1	0,101913
0,694167	0,1	0,119171
0,695833	0,1	0,111868
0,697500	0,1	0,090297
0,699167	0,1	0,087477
0,700833	0,1	0,110224
0,702500	0,1	0,079140
0,704167	0,1	0,110203
0,705833	0,1	0,080795
0,707500	0,1	0,112665
0,709167	0,1	0,103171
0,710833	0,1	0,128010
0,712500	0,1	0,138201
0,714167	0,1	0,090365
0,715833	0,1	0,168024
0,717500	0,1	0,140487
0,719167	0,1	0,105063
0,720833	0,1	0,152625
0,722500	0,1	0,164147
0,724167	0,1	0,117819
0,725833	0,1	0,148032
0,727500	0,1	0,165907
0,729167	0,1	0,156595
0,730833	0,1	0,141211
0,732500	0,1	0,146423
0,734167	0,1	0,141519
0,735833	0,1	0,168450
0,737500	0,1	0,160073
0,739167	0,1	0,164358
0,740833	0,1	0,144732
0,742500	0,1	0,165821
0,744167	0,1	0,142621
0,745833	0,1	0,208783
0,747500	0,1	0,209854
0,749167	0,1	0,198842
0,750833	0,1	0,231716
0,752500	0,1	0,203816
0,754167	0,1	0,204593
0,755833	0,1	0,212813
0,757500	0,1	0,225818
0,759167	0,1	0,187498
0,760833	0,1	0,194673
0,762500	0,1	0,216436
0,764167	0,1	0,213315
0,765833	0,1	0,198757
0,767500	0,1	0,194034
0,769167	0,1	0,185398
0,770833	0,1	0,156682
0,772500	0,1	0,203010
0,774167	0,1	0,208923
0,775833	0,1	0,202960
0,777500	0,1	0,206997
0,779167	0,1	0,177949
0,780833	0,1	0,178148
0,782500	0,1	0,160325
0,784167	0,1	0,190917
0,785833	0,1	0,192749
0,787500	0,1	0,189311
0,789167	0,1	0,190158
0,790833	0,1	0,194219
0,792500	0,1	0,152896
0,794167	0,1	0,198248
0,795833	0,1	0,143974
0,797500	0,1	0,189198
0,799167	0,1	0,150390
0,800833	0,1	0,134169
0,802500	0,1	0,199982
0,804167	0,1	0,177223
0,805833	0,1	0,180943
0,807500	0,1	0,144860
0,809167	0,1	0,147625
0,810833	0,1	0,176651
0,812500	0,1	0,207463
0,814167	0,1	0,195484
0,815833	0,1	0,183702
0,817500	0,1	0,178791
0,819167	0,1	0,149290
0,820833	0,1	0,162531
0,822500	0,1	0,146201
0,824167	0,1	0,166486
0,825833	0,1	0,117572
0,827500	0,1	0,176044
0,829167	0,1	0,141421
0,830833	0,1	0,132015
0,832500	0,1	0,176024
0,834167	0,1	0,178563
0,835833	0,1	0,148255
0,837500	0,1	0,159447
0,839167	0,1	0,173071
0,840833	0,1	0,174545
0,842500	0,1	0,157010
0,844167	0,1	0,179075
0,845833	0,1	0,166284
0,847500	0,1	0,167980
0,849167	0,1	0,174585
0,850833	0,1	0,184378
0,852500	0,1	0,152396
0,854167	0,1	0,149035
0,855833	0,1	0,160835
0,857500	0,1	0,187732
0,859167	0,1	0,112278
0,860833	0,1	0,163433
0,862500	0,1	0,173880
0,864167	0,1	0,174649
0,865833	0,1	0,150593
0,867500	0,1	0,162761
0,869167	0,1	0,162826
0,870833	0,1	0,190008
0,872500	0,1	0,143517
0,874167	0,1	0,152592
0,875833	0,1	0,196840
0,877500	0,1	0,179914
0,879167	0,1	0,140119
0,880833	0,1	0,182156
0,882500	0,1	0,199103
0,884167	0,1	0,167782
0,885833	0,1	0,145685
0,887500	0,1	0,161931
0,889167	0,1	0,144980
0,890833	0,1	0,169695
0,892500	0,1	0,167939
0,894167	0,1	0,167359
0,895833	0,1	0,198353
0,897500	0,1	0,200759
0,899167	0,1	0,180596
0,900833	0,1	0,187838
0,902500	0,1	0,154302
0,904167	0,1	0,159386
0,905833	0,1	0,204294
0,907500	0,1	0,185338
0,909167	0,1	0,171463
0,910833	0,1	0,191460
0,912500	0,1	0,201922
0,914167	0,1	0,190371
0,915833	0,1	0,172892
0,917500	0,1	0,192079
0,919167	0,1	0,193929
0,920833	0,1	0,194571
0,922500	0,1	0,187903
0,924167	0,1	0,188936
0,925833	0,1	0,204465
0,927500	0,1	0,194989
0,929167	0,1	0,192500
0,930833	0,1	0,185710
0,932500	0,1	0,213162
0,934167	0,1	0,212963
0,935833	0,1	0,226710
0,937500	0,1	0,212051
0,939167	0,1	0,225919
0,940833	0,1	0,205428
0,942500	0,1	0,206394
0,944167	0,1	0,194616
0,945833	0,1	0,197430
0,947500	0,1	0,267914
0,949167	0,1	0,248789
0,950833	0,1	0,215061
0,952500	0,1	0,260049
0,954167	0,1	0,249313
0,955833	0,1	0,229137
0,957500	0,1	0,256796
0,959167	0,1	0,199700
0,960833	0,1	0,237578
0,962500	0,1	0,232468
0,964167	0,1	0,253299
0,965833	0,1	0,254093
0,967500	0,1	0,294764
0,969167	0,1	0,225075
0,970833	0,1	0,252890
0,972500	0,1	0,308573
0,974167	0,1	0,255844
0,975833	0,1	0,272584
0,977500	0,1	0,245589
0,979167	0,1	0,316338
0,980833	0,1	0,291983
0,982500	0,1	0,271043
0,984167	0,1	0,257871
0,985833	0,1	0,295319
0,987500	0,1	0,309867
0,989167	0,1	0,260839
0,990833	0,1	0,291368
0,992500	0,1	0,306869
0,994167	0,1	0,319209
0,995833	0,1	0,297371
0,997500	0,1	0,321762
0,999167	0,1	0,318660
1,000833	0,1	0,329448
1,002500	0,1	0,329865
1,004167	0,1	0,349354
1,005833	0,1	0,359014
1,007500	0,1	0,351224
1,009167	0,1	0,370232
1,010833	0,1	0,387671
1,012500	0,1	0,380150
1,014167	0,1	0,352853
1,015833	0,1	0,392352
1,017500	0,1	0,399288
1,019167	0,1	0,420899
1,020833	0,1	0,415159
1,022500	0,1	0,422095
1,024167	0,1	0,385621
1,025833	0,1	0,419582
1,027500	0,1	0,442865
1,029167	0,1	0,463168
1,030833	0,1	0,444900
1,032500	0,1	0,494702
1,034167	0,1	0,487683
1,035833	0,1	0,489411
1,037500	0,1	0,483313
1,039167	0,1	0,516614
1,040833	0,1	0,502751
1,042500	0,1	0,528695
1,044167	0,1	0,542513
1,045833	0,1	0,536991
1,047500	0,1	0,542962
1,049167	0,1	0,581216
1,050833	0,1	0,602331
1,052500	0,1	0,627422
1,054167	0,1	0,637677
1,055833	0,1	0,649760
1,057500	0,1	0,713567
1,059167	0,1	0,782923
1,060833	0,1	0,917546
1,062500	0,1	0,982648
1,064167	0,1	1,170150
1,065833	0,1	1,449308
1,067500	0,1	1,641072
1,069167	0,1	1,929942
1,070833	0,1	2,376804
1,072500	0,1	2,843330
1,074167	0,1	3,431248
1,075833	0,1	4,100957
1,077500	0,1	4,905017
1,079167	0,1	5,894096
1,080833	0,1	6,980602
1,082500	0,1	8,151173
1,084167	0,1	9,489769
1,085833	0,1	10,993025
1,087500	0,1	12,580118
1,089167	0,1	14,237335
1,090833	0,1	15,983103
1,092500	0,1	17,778613
1,094167	0,1	19,576882
1,095833	0,1	21,423630
1,097500	0,1	23,251819
1,099167	0,1	24,971733
1,100833	0,1	26,625131
1,102500	0,1	28,151560
1,104167	0,1	29,571669
1,105833	0,1	30,883919
1,107500	0,1	32,007966
1,109167	0,1	32,955315
1,110833	0,1	33,790294
1,112500	0,1	34,499765
1,114167	0,1	34,967880
1,115833	0,1	35,380254
1,117500	0,1	35,669323
1,119167	0,1	35,766428
1,120833	0,1	35,848466
1,122500	0,1	35,839866
1,124167	0,1	35,727234
1,125833	0,1	35,609466
1,127500	0,1	35,437528
1,129167	0,1	35,207294
1,130833	0,1	35,077469
1,132500	0,1	34,830795
1,134167	0,1	34,664380
1,135833	0,1	34,494654
1,137500	0,1	34,414084
1,139167	0,1	34,384593
1,140833	0,1	34,420292
1,142500	0,1	34,511453
1,144167	0,1	34,656722
1,145833	0,1	34,903689
1,147500	0,1	35,277278
1,149167	0,1	35,668329
1,150833	0,1	36,178348
1,152500	0,1	36,805066
1,154167	0,1	37,474228
1,155833	0,1	38,192529
1,157500	0,1	38,979631
1,159167	0,1	39,841280
1,160833	0,1	40,711555
1,162500	0,1	41,607054
1,164167	0,1	42,542576
1,165833	0,1	43,445729
1,167500	0,1	44,351748
1,169167	0,1	45,270597
1,170833	0,1	46,116597
1,172500	0,1	46,921749
1,174167	0,1	47,653811
1,175833	0,1	48,382303
1,177500	0,1	49,020421
1,179167	0,1	49,589656
1,180833	0,1	50,069465
1,182500	0,1	50,484851
1,184167	0,1	50,845419
1,185833	0,1	51,202084
1,187500	0,1	51,434121
1,189167	0,1	51,636289
1,190833	0,1	51,798369
1,192500	0,1	51,971488
1,194167	0,1	52,172821
1,195833	0,1	52,347568
1,197500	0,1	52,584726
1,199167	0,1	52,917505
1,200833	0,1	53,296563
1,202500	0,1	53,823031
1,204167	0,1	54,449524
1,205833	0,1	55,274941
1,207500	0,1	56,277926
1,209167	0,1	57,466685
1,210833	0,1	58,906477
1,212500	0,1	60,529643
1,214167	0,1	62,352151
1,215833	0,1	64,354496
1,217500	0,1	66,681792
1,219167	0,1	69,057584
1,220833	0,1	71,689996
1,222500	0,1	74,389236
1,224167	0,1	77,258295
1,225833	0,1	80,155419
1,227500	0,1	83,146155
1,229167	0,1	86,149915
1,230833	0,1	89,151550
1,232500	0,1	92,041015
1,234167	0,1	94,860628
1,235833	0,1	97,548327
1,237500	0,1	100,073902
1,239167	0,1	102,506733
1,240833	0,1	104,755504
1,242500	0,1	106,731217
1,244167	0,1	108,488811
1,245833	0,1	109,993514
1,247500	0,1	111,314099
1,249167	0,1	112,437057
1,250833	0,1	113,238218
1,252500	0,1	113,784854
1,254167	0,1	114,152902
1,255833	0,1	114,190164
1,257500	0,1	114,076980
1,259167	0,1	113,715185
1,260833	0,1	113,036428
1,262500	0,1	112,289861
1,264167	0,1	111,262836
1,265833	0,1	109,965749
1,267500	0,1	108,672463
1,269167	0,1	107,070088
1,270833	0,1	105,341507
1,272500	0,1	103,453438
1,274167	0,1	101,488213
1,275833	0,1	99,398127
1,277500	0,1	97,152115
1,279167	0,1	94,928381
1,280833	0,1	92,486754
1,282500	0,1	90,126728
1,284167	0,1	87,669181
1,285833	0,1	85,209189
1,287500	0,1	82,741692
1,289167	0,1	80,226901
1,290833	0,1	77,788662
1,292500	0,1	75,387772
1,294167	0,1	72,951190
1,295833	0,1	70,611706
1,297500	0,1	68,291869
1,299167	0,1	66,035273
1,300833	0,1	63,817612
1,302500	0,1	61,676730
1,304167	0,1	59,696581
1,305833	0,1	57,638104
1,307500	0,1	55,726157
1,309167	0,1	53,910532
1,310833	0,1	52,095873
1,312500	0,1	50,390608
1,314167	0,1	48,727544
1,315833	0,1	47,187824
1,317500	0,1	45,675628
1,319167	0,1	44,201468
1,320833	0,1	42,836828
1,322500	0,1	41,511522
1,324167	0,1	40,232576
1,325833	0,1	39,010963
1,327500	0,1	37,836716
1,329167	0,1	36,732386
1,330833	0,1	35,682608
1,332500	0,1	34,615694
1,334167	0,1	33,653023
1,335833	0,1	32,733911
1,337500	0,1	31,734459
1,339167	0,1	30,909396
1,340833	0,1	30,045060
1,342500	0,1	29,249568
1,344167	0,1	28,396095
1,345833	0,1	27,683633
1,347500	0,1	26,897702
1,349167	0,1	26,205443
1,350833	0,1	25,499578
1,352500	0,1	24,842974
1,354167	0,1	24,223521
1,355833	0,1	23,584762
1,357500	0,1	22,969600
1,359167	0,1	22,383471
1,360833	0,1	21,783849
1,362500	0,1	21,249790
1,364167	0,1	20,694820
1,365833	0,1	20,209829
1,367500	0,1	19,688914
1,369167	0,1	19,177909
1,370833	0,1	18,686554
1,372500	0,1	18,254908
1,374167	0,1	17,788680
1,375833	0,1	17,326450
1,377500	0,1	16,941780
1,379167	0,1	16,496696
1,380833	0,1	16,094952
1,382500	0,1	15,742805
1,384167	0,1	15,327962
1,385833	0,1	14,952925
1,387500	0,1	14,639522
1,389167	0,1	14,297606
1,390833	0,1	13,940658
1,392500	0,1	13,638659
1,394167	0,1	13,323235
1,395833	0,1	13,027459
1,397500	0,1	12,761053
1,399167	0,1	12,470000
1,400833	0,1	12,170367
1,402500	0,1	11,941405
1,404167	0,1	11,690766
1,405833	0,1	11,450171
1,407500	0,1	11,208268
1,409167	0,1	11,003359
1,410833	0,1	10,784635
1,412500	0,1	10,537964
1,414167	0,1	10,381985
1,415833	0,1	10,200645
1,417500	0,1	10,011682
1,419167	0,1	9,810471
1,420833	0,1	9,631865
1,422500	0,1	9,497032
1,424167	0,1	9,352311
1,425833	0,1	9,188084
1,427500	0,1	9,033575
1,429167	0,1	8,875356
1,430833	0,1	8,713288
1,432500	0,1	8,613997
1,434167	0,1	8,481807
1,435833	0,1	8,338469
1,437500	0,1	8,226960
1,439167	0,1	8,084177
1,440833	0,1	7,957808
1,442500	0,1	7,862487
1,444167	0,1	7,731831
1,445833	0,1	7,652696
1,447500	0,1	7,528361
1,449167	0,1	7,427895
1,450833	0,1	7,351431
1,452500	0,1	7,254666
1,454167	0,1	7,184008
1,455833	0,1	7,074523
1,457500	0,1	6,968595
1,459167	0,1	6,848726
1,460833	0,1	6,770021
1,462500	0,1	6,696648
1,464167	0,1	6,620422
1,465833	0,1	6,543629
1,467500	0,1	6,447410
1,469167	0,1	6,434212
1,470833	0,1	6,330955
1,472500	0,1	6,289270
1,474167	0,1	6,254202
1,475833	0,1	6,146610
1,477500	0,1	6,099098
1,479167	0,1	6,082927
1,480833	0,1	6,054297
1,482500	0,1	5,993809
1,484167	0,1	5,946087
1,485833	0,1	5,881603
1,487500	0,1	5,884330
1,489167	0,1	5,886931
1,490833	0,1	5,794845
1,492500	0,1	5,772823
1,494167	0,1	5,747035
1,495833	0,1	5,771794
1,497500	0,1	5,689850
1,499167	0,1	5,679257
1,500833	0,1	5,684735
1,502500	0,1	5,689286
1,504167	0,1	5,613525
1,505833	0,1	5,627782
1,507500	0,1	5,657943
1,509167	0,1	5,644778
1,510833	0,1	5,596877
1,512500	0,1	5,597211
1,514167	0,1	5,597623
1,515833	0,1	5,545183
1,517500	0,1	5,565746
1,519167	0,1	5,540581
1,520833	0,1	5,516813
1,522500	0,1	5,517443
1,524167	0,1	5,506239
1,525833	0,1	5,480837
1,527500	0,1	5,497809
1,529167	0,1	5,434966
1,530833	0,1	5,468083
1,532500	0,1	5,446026
1,534167	0,1	5,439194
1,535833	0,1	5,391941
1,537500	0,1	5,377160
1,539167	0,1	5,367243
1,540833	0,1	5,361077
1,542500	0,1	5,334840
1,544167	0,1	5,355874
1,545833	0,1	5,292795
1,547500	0,1	5,258842
1,549167	0,1	5,215302
1,550833	0,1	5,230027
1,552500	0,1	5,191185
1,554167	0,1	5,196879
1,555833	0,1	5,169838
1,557500	0,1	5,129213
1,559167	0,1	5,129034
1,560833	0,1	5,087826
1,562500	0,1	5,143787
1,564167	0,1	5,027298
1,565833	0,1	5,005425
1,567500	0,1	5,016348
1,569167	0,1	4,994755
1,570833	0,1	4,898542
1,572500	0,1	4,943724
1,574167	0,1	4,884988
1,575833	0,1	4,864777
1,577500	0,1	4,848422
1,579167	0,1	4,795789
1,580833	0,1	4,798584
1,582500	0,1	4,804196
1,584167	0,1	4,727224
1,585833	0,1	4,676476
1,587500	0,1	4,648888
1,589167	0,1	4,658124
1,590833	0,1	4,597459
1,592500	0,1	4,562633
1,594167	0,1	4,592972
1,595833	0,1	4,568385
1,597500	0,1	4,499787
1,599167	0,1	4,467034
1,600833	0,1	4,441951
1,602500	0,1	4,439474
1,604167	0,1	4,404880
1,605833	0,1	4,365583
1,607500	0,1	4,376791
1,609167	0,1	4,301139
1,610833	0,1	4,273179
1,612500	0,1	4,228754
1,614167	0,1	4,279564
1,615833	0,1	4,201548
1,617500	0,1	4,211930
1,619167	0,1	4,166879
1,620833	0,1	4,136586
1,622500	0,1	4,100512
1,624167	0,1	4,103459
1,625833	0,1	4,098890
1,627500	0,1	4,088358
1,629167	0,1	3,996688
1,630833	0,1	3,985215
1,632500	0,1	3,952320
1,634167	0,1	3,901768
1,635833	0,1	3,901519
1,637500	0,1	3,884689
1,639167	0,1	3,864475
1,640833	0,1	3,853356
1,642500	0,1	3,832641
1,644167	0,1	3,805198
1,645833	0,1	3,777873
1,647500	0,1	3,780015
1,649167	0,1	3,753332
1,650833	0,1	3,764036
1,652500	0,1	3,724387
1,654167	0,1	3,658045
1,655833	0,1	3,730315
1,657500	0,1	3,719046
1,659167	0,1	3,711981
1,660833	0,1	3,686612
1,662500	0,1	3,716811
1,664167	0,1	3,704473
1,665833	0,1	3,649915
1,667500	0,1	3,709841
1,669167	0,1	3,707914
1,670833	0,1	3,735865
1,672500	0,1	3,748040
1,674167	0,1	3,731296
1,675833	0,1	3,727800
1,677500	0,1	3,765667
1,679167	0,1	3,814705
1,680833	0,1	3,870821
1,682500	0,1	3,876993
1,684167	0,1	3,918597
1,685833	0,1	3,957735
1,687500	0,1	3,967472
1,689167	0,1	4,015766
1,690833	0,1	4,032395
1,692500	0,1	4,129509
1,694167	0,1	4,156051
1,695833	0,1	4,224684
1,697500	0,1	4,265345
1,699167	0,1	4,289614
1,700833	0,1	4,308087
1,702500	0,1	4,355229
1,704167	0,1	4,467564
1,705833	0,1	4,488295
1,707500	0,1	4,552724
1,709167	0,1	4,626409
1,710833	0,1	4,687586
1,712500	0,1	4,731206
1,714167	0,1	4,776666
1,715833	0,1	4,785807
1,717500	0,1	4,868713
1,719167	0,1	4,934780
1,720833	0,1	4,911987
1,722500	0,1	4,981729
1,724167	0,1	5,017105
1,725833	0,1	5,044372
1,727500	0,1	5,052442
1,729167	0,1	5,110390
1,730833	0,1	5,137837
1,732500	0,1	5,184077
1,734167	0,1	5,187676
1,735833	0,1	5,212998
1,737500	0,1	5,227487
1,739167	0,1	5,245219
1,740833	0,1	5,216823
1,742500	0,1	5,266391
1,744167	0,1	5,262396
1,745833	0,1	5,231872
1,747500	0,1	5,247677
1,749167	0,1	5,257392
1,750833	0,1	5,233652
1,752500	0,1	5,241240
1,754167	0,1	5,166261
1,755833	0,1	5,200232
1,757500	0,1	5,179097
1,759167	0,1	5,166561
1,760833	0,1	5,143806
1,762500	0,1	5,059805
1,764167	0,1	5,047039
1,765833	0,1	5,022618
1,767500	0,1	4,985746
1,769167	0,1	4,919452
1,770833	0,1	4,862673
1,772500	0,1	4,899908
1,774167	0,1	4,837034
1,775833	0,1	4,767163
1,777500	0,1	4,732369
1,779167	0,1	4,630225
1,780833	0,1	4,648349
1,782500	0,1	4,571149
1,784167	0,1	4,544105
1,785833	0,1	4,473931
1,787500	0,1	4,407642
1,789167	0,1	4,347601
1,790833	0,1	4,259383
1,792500	0,1	4,255841
1,794167	0,1	4,162886
1,795833	0,1	4,122379
1,797500	0,1	4,069991
1,799167	0,1	4,031979
1,800833	0,1	3,940109
1,802500	0,1	3,876756
1,804167	0,1	3,869923
1,805833	0,1	3,757159
1,807500	0,1	3,725887
1,809167	0,1	3,631003
1,810833	0,1	3,608776
1,812500	0,1	3,547241
1,814167	0,1	3,528784
1,815833	0,1	3,456183
1,817500	0,1	3,405531
1,819167	0,1	3,311643
1,820833	0,1	3,295877
1,822500	0,1	3,196447
1,824167	0,1	3,143354
1,825833	0,1	3,081938
1,827500	0,1	3,066404
1,829167	0,1	3,024239
1,830833	0,1	3,006458
1,832500	0,1	2,964105
1,834167	0,1	2,883087
1,835833	0,1	2,858378
1,837500	0,1	2,860099
1,839167	0,1	2,821576
1,840833	0,1	2,799621
1,842500	0,1	2,795224
1,844167	0,1	2,798673
1,845833	0,1	2,818395
1,847500	0,1	2,766258
1,849167	0,1	2,807274
1,850833	0,1	2,875215
1,852500	0,1	2,848764
1,854167	0,1	2,909751
1,855833	0,1	2,897718
1,857500	0,1	2,944503
1,859167	0,1	3,004801
1,860833	0,1	3,003536
1,862500	0,1	3,050909
1,864167	0,1	3,085943
1,865833	0,1	3,148766
1,867500	0,1	3,179892
1,869167	0,1	3,195410
1,870833	0,1	3,246191
1,872500	0,1	3,268750
1,874167	0,1	3,309042
1,875833	0,1	3,334362
1,877500	0,1	3,340395
1,879167	0,1	3,407562
1,880833	0,1	3,463432
1,882500	0,1	3,465585
1,884167	0,1	3,483099
1,885833	0,1	3,524679
1,887500	0,1	3,548105
1,889167	0,1	3,548105
1,890833	0,1	3,599520
1,892500	0,1	3,628099
1,894167	0,1	3,575086
1,895833	0,1	3,665178
1,897500	0,1	3,668796
1,899167	0,1	3,700244
1,900833	0,1	3,750377
1,902500	0,1	3,763857
1,904167	0,1	3,746645
1,905833	0,1	3,782007
1,907500	0,1	3,807374
1,909167	0,1	3,796280
1,910833	0,1	3,819576
1,912500	0,1	3,799645
1,914167	0,1	3,851860
1,915833	0,1	3,844467
1,917500	0,1	3,847086
1,919167	0,1	3,892256
1,920833	0,1	3,845753
1,922500	0,1	3,854774
1,924167	0,1	3,875254
1,925833	0,1	3,837334
1,927500	0,1	3,871444
1,929167	0,1	3,870884
1,930833	0,1	3,825007
1,932500	0,1	3,832653
1,934167	0,1	3,834138
1,935833	0,1	3,886743
1,937500	0,1	3,859677
1,939167	0,1	3,808824
1,940833	0,1	3,769774
1,942500	0,1	3,816519
1,944167	0,1	3,804068
1,945833	0,1	3,731024
1,947500	0,1	3,802576
1,949167	0,1	3,774531
1,950833	0,1	3,773052
1,952500	0,1	3,802978
1,954167	0,1	3,745233
1,955833	0,1	3,717316
1,957500	0,1	3,733357
1,959167	0,1	3,715243
1,960833	0,1	3,705093
1,962500	0,1	3,699138
1,964167	0,1	3,733895
1,965833	0,1	3,682116
1,967500	0,1	3,697555
1,969167	0,1	3,699705
1,970833	0,1	3,715777
1,972500	0,1	3,689487
1,974167	0,1	3,697634
1,975833	0,1	3,696210
1,977500	0,1	3,706588
1,979167	0,1	3,702994
1,980833	0,1	3,724681
1,982500	0,1	3,660685
1,984167	0,1	3,690690
1,985833	0,1	3,694628
1,987500	0,1	3,701287
1,989167	0,1	3,680217
1,990833	0,1	3,698407
1,992500	0,1	3,711563
1,994167	0,1	3,731258
1,995833	0,1	3,716978
1,997500	0,1	3,752045
1,999167	0,1	3,718973
2,000833	0,1	3,764783
2,002500	0,1	3,777267
2,004167	0,1	3,768707
2,005833	0,1	3,760292
2,007500	0,1	3,808957
2,009167	0,1	3,803819
2,010833	0,1	3,857576
2,012500	0,1	3,827072
2,014167	0,1	3,851062
2,015833	0,1	3,838152
2,017500	0,1	3,836618
2,019167	0,1	3,844966
2,020833	0,1	3,939053
2,022500	0,1	3,906013
2,024167	0,1	3,907300
2,025833	0,1	3,943727
2,027500	0,1	3,949830
2,029167	0,1	3,999892
2,030833	0,1	3,974732
2,032500	0,1	4,030899
2,034167	0,1	4,063164
2,035833	0,1	4,075646
2,037500	0,1	4,090703
2,039167	0,1	4,099491
2,040833	0,1	4,142770
2,042500	0,1	4,137467
2,044167	0,1	4,154597
2,045833	0,1	4,172047
2,047500	0,1	4,238575
2,049167	0,1	4,242436
2,050833	0,1	4,242598
2,052500	0,1	4,299327
2,054167	0,1	4,301653
2,055833	0,1	4,342187
2,057500	0,1	4,372210
2,059167	0,1	4,364116
2,060833	0,1	4,441642
2,062500	0,1	4,410551
2,064167	0,1	4,459517
2,065833	0,1	4,499105
2,067500	0,1	4,504427
2,069167	0,1	4,530762
2,070833	0,1	4,539644
2,072500	0,1	4,608043
2,074167	0,1	4,592378
2,075833	0,1	4,623945
2,077500	0,1	4,656739
2,079167	0,1	4,659625
2,080833	0,1	4,663808
2,082500	0,1	4,740198
2,084167	0,1	4,685311
2,085833	0,1	4,740781
2,087500	0,1	4,776102
2,089167	0,1	4,789732
2,090833	0,1	4,826063
2,092500	0,1	4,841392
2,094167	0,1	4,874118
2,095833	0,1	4,904536
2,097500	0,1	4,881935
2,099167	0,1	4,890962
2,100833	0,1	4,933807
2,102500	0,1	4,957777
2,104167	0,1	4,976382
2,105833	0,1	4,988130
2,107500	0,1	5,029292
2,109167	0,1	5,030044
2,110833	0,1	5,067512
2,112500	0,1	5,031396
2,114167	0,1	5,102673
2,115833	0,1	5,057031
2,117500	0,1	5,111209
2,119167	0,1	5,113787
2,120833	0,1	5,119293
2,122500	0,1	5,116417
2,124167	0,1	5,152036
2,125833	0,1	5,149390
2,127500	0,1	5,184476
2,129167	0,1	5,163485
2,130833	0,1	5,201333
2,132500	0,1	5,143587
2,134167	0,1	5,180636
2,135833	0,1	5,227196
2,137500	0,1	5,179358
2,139167	0,1	5,234423
2,140833	0,1	5,225627
2,142500	0,1	5,243976
2,144167	0,1	5,193956
2,145833	0,1	5,233663
2,147500	0,1	5,255045
2,149167	0,1	5,243532
2,150833	0,1	5,186250
2,152500	0,1	5,236627
2,154167	0,1	5,195760
2,155833	0,1	5,196823
2,157500	0,1	5,194284
2,159167	0,1	5,212744
2,160833	0,1	5,207895
2,162500	0,1	5,202304
2,164167	0,1	5,181188
2,165833	0,1	5,180391
2,167500	0,1	5,212318
2,169167	0,1	5,203884
2,170833	0,1	5,172491
2,172500	0,1	5,191596
2,174167	0,1	5,138616
2,175833	0,1	5,158845
2,177500	0,1	5,190858
2,179167	0,1	5,170202
2,180833	0,1	5,156198
2,182500	0,1	5,134206
2,184167	0,1	5,104760
2,185833	0,1	5,104529
2,187500	0,1	5,113870
2,189167	0,1	5,080454
2,190833	0,1	5,114460
2,192500	0,1	5,042868
2,194167	0,1	5,073357
2,195833	0,1	5,051495
2,197500	0,1	5,010372
2,199167	0,1	4,993371
2,200833	0,1	5,017810
2,202500	0,1	4,999047
2,204167	0,1	4,971638
2,205833	0,1	5,002564
2,207500	0,1	5,005398
2,209167	0,1	4,925581
2,210833	0,1	4,949222
2,212500	0,1	4,948894
2,214167	0,1	4,909679
2,215833	0,1	4,932161
2,217500	0,1	4,901324
2,219167	0,1	4,883315
2,220833	0,1	4,925051
2,222500	0,1	4,920670
2,224167	0,1	4,907142
2,225833	0,1	4,843823
2,227500	0,1	4,880789
2,229167	0,1	4,859205
2,230833	0,1	4,870479
2,232500	0,1	4,832288
2,234167	0,1	4,823664
2,235833	0,1	4,889484
2,237500	0,1	4,808953
2,239167	0,1	4,867638
2,240833	0,1	4,859650
2,242500	0,1	4,820973
2,244167	0,1	4,827486
2,245833	0,1	4,824493
2,247500	0,1	4,843222
2,249167	0,1	4,835125
2,250833	0,1	4,824278
2,252500	0,1	4,812483
2,254167	0,1	4,788113
2,255833	0,1	4,821142
2,257500	0,1	4,804497
2,259167	0,1	4,798172
2,260833	0,1	4,742152
2,262500	0,1	4,764261
2,264167	0,1	4,732133
2,265833	0,1	4,737868
2,267500	0,1	4,755617
2,269167	0,1	4,758344
2,270833	0,1	4,699610
2,272500	0,1	4,713673
2,274167	0,1	4,713631
2,275833	0,1	4,650570
2,277500	0,1	4,690467
2,279167	0,1	4,685052
2,280833	0,1	4,658617
2,282500	0,1	4,637259
2,284167	0,1	4,657473
2,285833	0,1	4,628708
2,287500	0,1	4,658357
2,289167	0,1	4,615009
2,290833	0,1	4,629549
2,292500	0,1	4,604054
2,294167	0,1	4,599466
2,295833	0,1	4,573416
2,297500	0,1	4,565472
2,299167	0,1	4,558208
2,300833	0,1	4,531147
2,302500	0,1	4,514285
2,304167	0,1	4,511970
2,305833	0,1	4,522500
2,307500	0,1	4,446987
2,309167	0,1	4,481445
2,310833	0,1	4,427695
2,312500	0,1	4,441172
2,314167	0,1	4,437812
2,315833	0,1	4,413020
2,317500	0,1	4,396730
2,319167	0,1	4,386843
2,320833	0,1	4,387855
2,322500	0,1	4,346380
2,324167	0,1	4,355401
2,325833	0,1	4,313122
2,327500	0,1	4,318455
2,329167	0,1	4,293430
2,330833	0,1	4,312260
2,332500	0,1	4,239697
2,334167	0,1	4,253284
2,335833	0,1	4,237379
2,337500	0,1	4,223117
2,339167	0,1	4,224977
2,340833	0,1	4,189634
2,342500	0,1	4,179014
2,344167	0,1	4,173509
2,345833	0,1	4,114033
2,347500	0,1	4,111713
2,349167	0,1	4,113379
2,350833	0,1	4,067956
2,352500	0,1	4,059447
2,354167	0,1	4,092393
2,355833	0,1	4,029143
2,357500	0,1	4,060302
2,359167	0,1	4,044562
2,360833	0,1	3,995699
2,362500	0,1	4,025597
2,364167	0,1	4,038511
2,365833	0,1	3,977186
2,367500	0,1	3,988812
2,369167	0,1	4,001764
2,370833	0,1	3,986432
2,372500	0,1	3,989586
2,374167	0,1	3,976069
2,375833	0,1	3,941342
2,377500	0,1	3,940355
2,379167	0,1	3,956668
2,380833	0,1	3,966952
2,382500	0,1	4,018798
2,384167	0,1	3,988888
2,385833	0,1	4,005729
2,387500	0,1	4,019568
2,389167	0,1	4,032873
2,390833	0,1	4,041274
2,392500	0,1	4,089277
2,394167	0,1	4,122521
2,395833	0,1	4,199974
2,397500	0,1	4,243352
2,399167	0,1	4,306255
2,400833	0,1	4,293061
2,402500	0,1	4,383821
2,404167	0,1	4,462065
2,405833	0,1	4,556320
2,407500	0,1	4,673501
2,409167	0,1	4,750471
2,410833	0,1	4,867973
2,412500	0,1	4,971336
2,414167	0,1	5,091995
2,415833	0,1	5,202953
2,417500	0,1	5,350902
2,419167	0,1	5,521535
2,420833	0,1	5,613504
2,422500	0,1	5,792769
2,424167	0,1	5,997527
2,425833	0,1	6,150703
2,427500	0,1	6,345555
2,429167	0,1	6,534989
2,430833	0,1	6,687939
2,432500	0,1	6,940281
2,434167	0,1	7,114895
2,435833	0,1	7,316775
2,437500	0,1	7,544132
2,439167	0,1	7,800149
2,440833	0,1	8,005441
2,442500	0,1	8,186949
2,444167	0,1	8,399065
2,445833	0,1	8,664438
2,447500	0,1	8,839634
2,449167	0,1	9,075649
2,450833	0,1	9,277414
2,452500	0,1	9,413296
2,454167	0,1	9,644575
2,455833	0,1	9,883884
2,457500	0,1	10,026138
2,459167	0,1	10,173877
2,460833	0,1	10,350838
2,462500	0,1	10,546731
2,464167	0,1	10,664841
2,465833	0,1	10,847917
2,467500	0,1	10,949605
2,469167	0,1	11,111891
2,470833	0,1	11,271129
2,472500	0,1	11,363085
2,474167	0,1	11,462110
2,475833	0,1	11,567492
2,477500	0,1	11,619959
2,479167	0,1	11,739716
2,480833	0,1	11,783811
2,482500	0,1	11,848643
2,484167	0,1	11,931206
2,485833	0,1	11,937966
2,487500	0,1	11,938157
2,489167	0,1	12,049866
2,490833	0,1	12,031260
2,492500	0,1	12,068310
2,494167	0,1	12,085706
2,495833	0,1	12,089941
2,497500	0,1	12,106080
2,499167	0,1	12,106206
2,500833	0,1	12,073339
2,502500	0,1	12,040540
2,504167	0,1	12,061335
2,505833	0,1	12,004805
2,507500	0,1	11,974799
2,509167	0,1	11,938835
2,510833	0,1	11,933382
2,512500	0,1	11,838716
2,514167	0,1	11,808770
2,515833	0,1	11,732693
2,517500	0,1	11,688921
2,519167	0,1	11,651004
2,520833	0,1	11,573402
2,522500	0,1	11,533465
2,524167	0,1	11,457717
2,525833	0,1	11,381600
2,527500	0,1	11,294912
2,529167	0,1	11,221694
2,530833	0,1	11,147005
2,532500	0,1	11,021561
2,534167	0,1	10,961269
2,535833	0,1	10,872327
2,537500	0,1	10,825875
2,539167	0,1	10,710661
2,540833	0,1	10,625814
2,542500	0,1	10,558248
2,544167	0,1	10,426065
2,545833	0,1	10,329658
2,547500	0,1	10,278344
2,549167	0,1	10,207113
2,550833	0,1	10,105776
2,552500	0,1	9,964624
2,554167	0,1	9,887772
2,555833	0,1	9,792998
2,557500	0,1	9,702498
2,559167	0,1	9,577957
2,560833	0,1	9,458710
2,562500	0,1	9,409231
2,564167	0,1	9,285640
2,565833	0,1	9,182345
2,567500	0,1	9,097206
2,569167	0,1	8,991443
2,570833	0,1	8,858450
2,572500	0,1	8,763487
2,574167	0,1	8,679401
2,575833	0,1	8,527030
2,577500	0,1	8,462061
2,579167	0,1	8,346652
2,580833	0,1	8,232144
2,582500	0,1	8,187087
2,584167	0,1	8,050655
2,585833	0,1	7,960413
2,587500	0,1	7,882110
2,589167	0,1	7,756545
2,590833	0,1	7,675854
2,592500	0,1	7,566406
2,594167	0,1	7,494492
2,595833	0,1	7,361054
2,597500	0,1	7,287009
2,599167	0,1	7,214394
2,600833	0,1	7,118687
2,602500	0,1	7,051032
2,604167	0,1	6,936736
2,605833	0,1	6,855982
2,607500	0,1	6,773654
2,609167	0,1	6,667149
2,610833	0,1	6,596481
2,612500	0,1	6,521100
2,614167	0,1	6,434852
2,615833	0,1	6,354839
2,617500	0,1	6,288893
2,619167	0,1	6,191737
2,620833	0,1	6,105349
2,622500	0,1	6,032464
2,624167	0,1	5,965995
2,625833	0,1	5,875317
2,627500	0,1	5,831728
2,629167	0,1	5,712677
2,630833	0,1	5,650250
2,632500	0,1	5,572442
2,634167	0,1	5,501446
2,635833	0,1	5,422367
2,637500	0,1	5,360527
2,639167	0,1	5,290119
2,640833	0,1	5,227927
2,642500	0,1	5,194517
2,644167	0,1	5,095523
2,645833	0,1	5,064986
2,647500	0,1	4,997593
2,649167	0,1	4,941035
2,650833	0,1	4,878201
2,652500	0,1	4,824505
2,654167	0,1	4,758493
2,655833	0,1	4,675460
2,657500	0,1	4,625790
2,659167	0,1	4,545544
2,660833	0,1	4,471423
2,662500	0,1	4,472251
2,664167	0,1	4,397960
2,665833	0,1	4,306045
2,667500	0,1	4,282778
2,669167	0,1	4,245360
2,670833	0,1	4,161538
2,672500	0,1	4,090840
2,674167	0,1	4,062213
2,675833	0,1	4,037348
2,677500	0,1	3,950342
2,679167	0,1	3,900552
2,680833	0,1	3,853286
2,682500	0,1	3,824893
2,684167	0,1	3,755336
2,685833	0,1	3,691775
2,687500	0,1	3,697791
2,689167	0,1	3,631332
2,690833	0,1	3,609166
2,692500	0,1	3,526568
2,694167	0,1	3,503501
2,695833	0,1	3,460529
2,697500	0,1	3,406068
2,699167	0,1	3,370076
2,700833	0,1	3,294637
2,702500	0,1	3,283135
2,704167	0,1	3,233987
2,705833	0,1	3,221543
2,707500	0,1	3,182536
2,709167	0,1	3,126187
2,710833	0,1	3,077698
2,712500	0,1	3,045533
2,714167	0,1	3,057079
2,715833	0,1	3,007187
2,717500	0,1	2,986803
2,719167	0,1	2,940301
2,720833	0,1	2,920753
2,722500	0,1	2,907980
2,724167	0,1	2,823747
2,725833	0,1	2,802924
2,727500	0,1	2,840120
2,729167	0,1	2,727321
2,730833	0,1	2,755610
2,732500	0,1	2,700406
2,734167	0,1	2,684727
2,735833	0,1	2,697634
2,737500	0,1	2,651315
2,739167	0,1	2,590345
2,740833	0,1	2,615635
2,742500	0,1	2,572553
2,744167	0,1	2,568170
2,745833	0,1	2,548157
2,747500	0,1	2,521264
2,749167	0,1	2,489792
2,750833	0,1	2,526194
2,752500	0,1	2,435227
2,754167	0,1	2,459295
2,755833	0,1	2,431846
2,757500	0,1	2,439648
2,759167	0,1	2,413701
2,760833	0,1	2,392910
2,762500	0,1	2,365025
2,764167	0,1	2,375481
2,765833	0,1	2,361793
2,767500	0,1	2,317784
2,769167	0,1	2,356547
2,770833	0,1	2,321152
2,772500	0,1	2,294914
2,774167	0,1	2,282940
2,775833	0,1	2,295909
2,777500	0,1	2,265457
2,779167	0,1	2,262439
2,780833	0,1	2,266093
2,782500	0,1	2,239867
2,784167	0,1	2,229186
2,785833	0,1	2,205393
2,787500	0,1	2,190705
2,789167	0,1	2,172355
2,790833	0,1	2,191628
2,792500	0,1	2,189911
2,794167	0,1	2,181026
2,795833	0,1	2,187686
2,797500	0,1	2,153585
2,799167	0,1	2,143474
2,800833	0,1	2,174855
2,802500	0,1	2,159317
2,804167	0,1	2,128941
2,805833	0,1	2,093322
2,807500	0,1	2,125056
2,809167	0,1	2,103499
2,810833	0,1	2,099484
2,812500	0,1	2,050062
2,814167	0,1	2,114660
2,815833	0,1	2,085084
2,817500	0,1	2,091526
2,819167	0,1	2,049562
2,820833	0,1	2,074607
2,822500	0,1	2,052060
2,824167	0,1	2,048117
2,825833	0,1	2,053269
2,827500	0,1	2,049980
2,829167	0,1	2,024408
2,830833	0,1	2,019030
2,832500	0,1	1,993810
2,834167	0,1	2,036288
2,835833	0,1	1,972702
2,837500	0,1	1,996533
2,839167	0,1	1,987727
2,840833	0,1	2,009353
2,842500	0,1	1,977355
2,844167	0,1	1,991097
2,845833	0,1	1,939895
2,847500	0,1	1,943034
2,849167	0,1	1,918827
2,850833	0,1	1,934436
2,852500	0,1	1,885807
2,854167	0,1	1,906509
2,855833	0,1	1,900630
2,857500	0,1	1,918826
2,859167	0,1	1,908660
2,860833	0,1	1,895411
2,862500	0,1	1,874843
2,864167	0,1	1,895622
2,865833	0,1	1,867197
2,867500	0,1	1,834132
2,869167	0,1	1,833967
2,870833	0,1	1,843203
2,872500	0,1	1,815564
2,874167	0,1	1,837184
2,875833	0,1	1,831965
2,877500	0,1	1,813053
2,879167	0,1	1,806120
2,880833	0,1	1,772241
2,882500	0,1	1,782679
2,884167	0,1	1,802752
2,885833	0,1	1,786849
2,887500	0,1	1,775053
2,889167	0,1	1,784702
2,890833	0,1	1,772048
2,892500	0,1	1,780905
2,894167	0,1	1,741971
2,895833	0,1	1,753784
2,897500	0,1	1,736326
2,899167	0,1	1,724062
2,900833	0,1	1,693866
2,902500	0,1	1,722774
2,904167	0,1	1,710256
2,905833	0,1	1,730369
2,907500	0,1	1,709039
2,909167	0,1	1,649561
2,910833	0,1	1,661772
2,912500	0,1	1,651633
2,914167	0,1	1,641258
2,915833	0,1	1,620760
2,917500	0,1	1,655625
2,919167	0,1	1,668538
2,920833	0,1	1,582648
2,922500	0,1	1,539816
2,924167	0,1	1,635077
2,925833	0,1	1,576627
2,927500	0,1	1,597752
2,929167	0,1	1,578055
2,930833	0,1	1,574750
2,932500	0,1	1,560870
2,934167	0,1	1,576979
2,935833	0,1	1,556597
2,937500	0,1	1,544222
2,939167	0,1	1,544206
2,940833	0,1	1,518013
2,942500	0,1	1,511228
2,944167	0,1	1,567816
2,945833	0,1	1,537733
2,947500	0,1	1,560478
2,949167	0,1	1,503799
2,950833	0,1	1,501786
2,952500	0,1	1,531758
2,954167	0,1	1,458715
2,955833	0,1	1,489257
2,957500	0,1	1,455297
2,959167	0,1	1,488340
2,960833	0,1	1,455872
2,962500	0,1	1,453053
2,964167	0,1	1,459082
2,965833	0,1	1,437082
2,967500	0,1	1,472650
2,969167	0,1	1,481042
2,970833	0,1	1,450213
2,972500	0,1	1,442109
2,974167	0,1	1,427911
2,975833	0,1	1,449710
2,977500	0,1	1,439906
2,979167	0,1	1,413378
2,980833	0,1	1,405565
2,982500	0,1	1,408221
2,984167	0,1	1,413287
2,985833	0,1	1,405919
2,987500	0,1	1,392250
2,989167	0,1	1,436963
2,990833	0,1	1,399710
2,992500	0,1	1,379865
2,994167	0,1	1,368581
2,995833	0,1	1,417376
2,997500	0,1	1,414746
2,999167	0,1	1,390575
3,000833	0,1	1,353782
3,002500	0,1	1,383378
3,004167	0,1	1,360573
3,005833	0,1	1,347628
3,007500	0,1	1,401229
3,009167	0,1	1,391334
3,010833	0,1	1,424869
3,012500	0,1	1,369187
3,014167	0,1	1,389988
3,015833	0,1	1,372243
3,017500	0,1	1,339417
3,019167	0,1	1,370502
3,020833	0,1	1,359366
3,022500	0,1	1,391984
3,024167	0,1	1,363706
3,025833	0,1	1,376657
3,027500	0,1	1,389684
3,029167	0,1	1,372023
3,030833	0,1	1,351933
3,032500	0,1	1,364610
3,034167	0,1	1,336161
3,035833	0,1	1,359409
3,037500	0,1	1,351084
3,039167	0,1	1,351487
3,040833	0,1	1,350844
3,042500	0,1	1,323000
3,044167	0,1	1,370958
3,045833	0,1	1,353133
3,047500	0,1	1,333064
3,049167	0,1	1,337679
3,050833	0,1	1,351858
3,052500	0,1	1,319665
3,054167	0,1	1,355071
3,055833	0,1	1,288778
3,057500	0,1	1,321782
3,059167	0,1	1,308449
3,060833	0,1	1,350949
3,062500	0,1	1,373182
3,064167	0,1	1,314724
3,065833	0,1	1,304115
3,067500	0,1	1,296757
3,069167	0,1	1,315925
3,070833	0,1	1,341421
3,072500	0,1	1,321563
3,074167	0,1	1,305252
3,075833	0,1	1,325600
3,077500	0,1	1,333327
3,079167	0,1	1,351635
3,080833	0,1	1,347508
3,082500	0,1	1,286184
3,084167	0,1	1,330013
3,085833	0,1	1,335124
3,087500	0,1	1,317443
3,089167	0,1	1,317524
3,090833	0,1	1,345704
3,092500	0,1	1,322901
3,094167	0,1	1,347012
3,095833	0,1	1,358669
3,097500	0,1	1,363698
3,099167	0,1	1,383094
3,100833	0,1	1,367787
3,102500	0,1	1,390750
3,104167	0,1	1,335965
3,105833	0,1	1,392132
3,107500	0,1	1,412301
3,109167	0,1	1,401413
3,110833	0,1	1,402513
3,112500	0,1	1,387338
3,114167	0,1	1,424936
3,115833	0,1	1,457720
3,117500	0,1	1,438214
3,119167	0,1	1,492045
3,120833	0,1	1,477252
3,122500	0,1	1,500001
3,124167	0,1	1,477761
3,125833	0,1	1,515452
3,127500	0,1	1,528994
3,129167	0,1	1,525778
3,130833	0,1	1,521091
3,132500	0,1	1,557955
3,134167	0,1	1,576278
3,135833	0,1	1,590928
3,137500	0,1	1,559477
3,139167	0,1	1,624435
3,140833	0,1	1,648071
3,142500	0,1	1,662096
3,144167	0,1	1,674404
3,145833	0,1	1,642194
3,147500	0,1	1,637392
3,149167	0,1	1,707946
3,150833	0,1	1,692022
3,152500	0,1	1,695918
3,154167	0,1	1,720002
3,155833	0,1	1,703158
3,157500	0,1	1,787122
3,159167	0,1	1,790444
3,160833	0,1	1,780068
3,162500	0,1	1,791600
3,164167	0,1	1,782715
3,165833	0,1	1,790493
3,167500	0,1	1,794866
3,169167	0,1	1,841131
3,170833	0,1	1,802400
3,172500	0,1	1,860810
3,174167	0,1	1,835488
3,175833	0,1	1,884300
3,177500	0,1	1,893053
3,179167	0,1	1,867050
3,180833	0,1	1,904851
3,182500	0,1	1,909805
3,184167	0,1	1,904433
3,185833	0,1	1,920606
3,187500	0,1	1,920475
3,189167	0,1	1,908380
3,190833	0,1	1,921117
3,192500	0,1	1,914326
3,194167	0,1	1,882954
3,195833	0,1	1,924327
3,197500	0,1	1,884680
3,199167	0,1	1,903992
3,200833	0,1	1,916039
3,202500	0,1	1,864913
3,204167	0,1	1,882079
3,205833	0,1	1,917392
3,207500	0,1	1,903155
3,209167	0,1	1,883821
3,210833	0,1	1,888248
3,212500	0,1	1,885820
3,214167	0,1	1,883801
3,215833	0,1	1,896764
3,217500	0,1	1,890549
3,219167	0,1	1,855677
3,220833	0,1	1,863112
3,222500	0,1	1,856106
3,224167	0,1	1,836766
3,225833	0,1	1,841646
3,227500	0,1	1,837347
3,229167	0,1	1,849238
3,230833	0,1	1,822966
3,232500	0,1	1,790800
3,234167	0,1	1,811982
3,235833	0,1	1,781073
3,237500	0,1	1,792741
3,239167	0,1	1,825885
3,240833	0,1	1,762742
3,242500	0,1	1,765373
3,244167	0,1	1,726725
3,245833	0,1	1,721575
3,247500	0,1	1,743254
3,249167	0,1	1,718587
3,250833	0,1	1,691163
3,252500	0,1	1,678883
3,254167	0,1	1,680605
3,255833	0,1	1,652444
3,257500	0,1	1,643559
3,259167	0,1	1,641473
3,260833	0,1	1,635528
3,262500	0,1	1,602971
3,264167	0,1	1,575851
3,265833	0,1	1,572186
3,267500	0,1	1,587243
3,269167	0,1	1,555298
3,270833	0,1	1,560470
3,272500	0,1	1,525431
3,274167	0,1	1,532505
3,275833	0,1	1,531710
3,277500	0,1	1,491645
3,279167	0,1	1,473593
3,280833	0,1	1,481028
3,282500	0,1	1,444623
3,284167	0,1	1,413431
3,285833	0,1	1,439965
3,287500	0,1	1,393188
3,289167	0,1	1,386454
3,290833	0,1	1,389584
3,292500	0,1	1,409267
3,294167	0,1	1,410882
3,295833	0,1	1,362324
3,297500	0,1	1,361279
3,299167	0,1	1,339077
3,300833	0,1	1,351195
3,302500	0,1	1,380754
3,304167	0,1	1,304871
3,305833	0,1	1,242439
3,307500	0,1	1,286753
3,309167	0,1	1,259941
3,310833	0,1	1,257333
3,312500	0,1	1,266764
3,314167	0,1	1,237859
3,315833	0,1	1,217907
3,317500	0,1	1,208274
3,319167	0,1	1,185756
3,320833	0,1	1,188281
3,322500	0,1	1,224351
3,324167	0,1	1,192923
3,325833	0,1	1,179210
3,327500	0,1	1,170287
3,329167	0,1	1,140341
3,330833	0,1	1,131506
3,332500	0,1	1,146232
3,334167	0,1	1,122612
3,335833	0,1	1,130748
3,337500	0,1	1,094175
3,339167	0,1	1,131451
3,340833	0,1	1,125314
3,342500	0,1	1,102647
3,344167	0,1	1,083524
3,345833	0,1	1,061010
3,347500	0,1	1,097730
3,349167	0,1	1,050297
3,350833	0,1	1,092491
3,352500	0,1	1,053317
3,354167	0,1	1,092094
3,355833	0,1	1,062232
3,357500	0,1	1,059230
3,359167	0,1	1,051332
3,360833	0,1	1,068629
3,362500	0,1	1,004877
3,364167	0,1	1,071369
3,365833	0,1	1,022620
3,367500	0,1	0,948413
3,369167	0,1	1,040464
3,370833	0,1	1,011795
3,372500	0,1	1,004204
3,374167	0,1	0,971738
3,375833	0,1	1,038901
3,377500	0,1	0,975117
3,379167	0,1	0,986362
3,380833	0,1	0,967586
3,382500	0,1	0,956349
3,384167	0,1	0,996828
3,385833	0,1	0,953667
3,387500	0,1	0,965649
3,389167	0,1	0,944697
3,390833	0,1	0,961146
3,392500	0,1	0,918625
3,394167	0,1	0,944986
3,395833	0,1	0,955072
3,397500	0,1	0,940287
3,399167	0,1	0,954100
3,400833	0,1	0,956543
3,402500	0,1	0,962041
3,404167	0,1	0,929186
3,405833	0,1	0,927578
3,407500	0,1	0,947063
3,409167	0,1	0,916534
3,410833	0,1	0,911792
3,412500	0,1	0,869976
3,414167	0,1	0,915258
3,415833	0,1	0,888136
3,417500	0,1	0,878683
3,419167	0,1	0,928983
3,420833	0,1	0,875151
3,422500	0,1	0,893872
3,424167	0,1	0,910501
3,425833	0,1	0,876760
3,427500	0,1	0,913159
3,429167	0,1	0,879844
3,430833	0,1	0,839886
3,432500	0,1	0,877477
3,434167	0,1	0,885174
3,435833	0,1	0,860654
3,437500	0,1	0,876643
3,439167	0,1	0,897508
3,440833	0,1	0,842135
3,442500	0,1	0,823129
3,444167	0,1	0,864394
3,445833	0,1	0,853251
3,447500	0,1	0,852961
3,449167	0,1	0,853408
3,450833	0,1	0,861409
3,452500	0,1	0,850222
3,454167	0,1	0,832651
3,455833	0,1	0,843787
3,457500	0,1	0,843985
3,459167	0,1	0,819012
3,460833	0,1	0,824761
3,462500	0,1	0,846487
3,464167	0,1	0,854757
3,465833	0,1	0,825608
3,467500	0,1	0,854964
3,469167	0,1	0,828822
3,470833	0,1	0,855487
3,472500	0,1	0,802636
3,474167	0,1	0,832787
3,475833	0,1	0,864135
3,477500	0,1	0,848388
3,479167	0,1	0,811718
3,480833	0,1	0,790181
3,482500	0,1	0,788118
3,484167	0,1	0,856727
3,485833	0,1	0,799545
3,487500	0,1	0,790308
3,489167	0,1	0,782145
3,490833	0,1	0,790594
3,492500	0,1	0,760352
3,494167	0,1	0,834222
3,495833	0,1	0,766796
3,497500	0,1	0,813656
3,499167	0,1	0,800625
3,500833	0,1	0,792722
3,502500	0,1	0,809163
3,504167	0,1	0,843837
3,505833	0,1	0,786073
3,507500	0,1	0,780247
3,509167	0,1	0,766010
3,510833	0,1	0,789975
3,512500	0,1	0,799036
3,514167	0,1	0,775238
3,515833	0,1	0,813536
3,517500	0,1	0,827482
3,519167	0,1	0,799306
3,520833	0,1	0,793169
3,522500	0,1	0,799167
3,524167	0,1	0,843948
3,525833	0,1	0,775054
3,527500	0,1	0,780849
3,529167	0,1	0,758616
3,530833	0,1	0,781293
3,532500	0,1	0,775876
3,534167	0,1	0,778539
3,535833	0,1	0,826644
3,537500	0,1	0,795357
3,539167	0,1	0,819613
3,540833	0,1	0,792524
3,542500	0,1	0,813120
3,544167	0,1	0,739121
3,545833	0,1	0,806140
3,547500	0,1	0,792463
3,549167	0,1	0,782847
3,550833	0,1	0,789979
3,552500	0,1	0,793325
3,554167	0,1	0,789116
3,555833	0,1	0,779280
3,557500	0,1	0,789821
3,559167	0,1	0,788473
3,560833	0,1	0,787735
3,562500	0,1	0,800972
3,564167	0,1	0,858081
3,565833	0,1	0,750988
3,567500	0,1	0,745821
3,569167	0,1	0,766320
3,570833	0,1	0,761248
3,572500	0,1	0,815005
3,574167	0,1	0,769386
3,575833	0,1	0,740526
3,577500	0,1	0,754528
3,579167	0,1	0,786499
3,580833	0,1	0,782332
3,582500	0,1	0,759426
3,584167	0,1	0,748748
3,585833	0,1	0,769247
3,587500	0,1	0,742259
3,589167	0,1	0,790772
3,590833	0,1	0,789526
3,592500	0,1	0,725555
3,594167	0,1	0,767984
3,595833	0,1	0,754594
3,597500	0,1	0,765197
3,599167	0,1	0,743119
3,600833	0,1	0,761274
3,602500	0,1	0,729723
3,604167	0,1	0,757702
3,605833	0,1	0,772880
3,607500	0,1	0,764883
3,609167	0,1	0,765141
3,610833	0,1	0,774810
3,612500	0,1	0,746052
3,614167	0,1	0,737848
3,615833	0,1	0,736020
3,617500	0,1	0,755169
3,619167	0,1	0,740457
3,620833	0,1	0,762911
3,622500	0,1	0,730141
3,624167	0,1	0,719403
3,625833	0,1	0,742789
3,627500	0,1	0,758029
3,629167	0,1	0,715170
3,630833	0,1	0,712556
3,632500	0,1	0,722482
3,634167	0,1	0,766021
3,635833	0,1	0,721274
3,637500	0,1	0,765124
3,639167	0,1	0,696791
3,640833	0,1	0,734978
3,642500	0,1	0,727883
3,644167	0,1	0,719467
3,645833	0,1	0,714069
3,647500	0,1	0,716893
3,649167	0,1	0,717503
3,650833	0,1	0,672975
3,652500	0,1	0,723919
3,654167	0,1	0,702629
3,655833	0,1	0,718753
3,657500	0,1	0,711882
3,659167	0,1	0,716407
3,660833	0,1	0,653120
3,662500	0,1	0,731436
3,664167	0,1	0,715547
3,665833	0,1	0,677728
3,667500	0,1	0,694651
3,669167	0,1	0,700855
3,670833	0,1	0,657773
3,672500	0,1	0,668492
3,674167	0,1	0,663806
3,675833	0,1	0,738951
3,677500	0,1	0,665140
3,679167	0,1	0,672833
3,680833	0,1	0,679935
3,682500	0,1	0,687102
3,684167	0,1	0,709175
3,685833	0,1	0,685052
3,687500	0,1	0,662815
3,689167	0,1	0,716270
3,690833	0,1	0,692475
3,692500	0,1	0,677273
3,694167	0,1	0,706857
3,695833	0,1	0,688168
3,697500	0,1	0,673769
3,699167	0,1	0,662971
3,700833	0,1	0,679965
3,702500	0,1	0,711133
3,704167	0,1	0,660122
3,705833	0,1	0,688318
3,707500	0,1	0,678205
3,709167	0,1	0,697028
3,710833	0,1	0,682576
3,712500	0,1	0,673768
3,714167	0,1	0,662393
3,715833	0,1	0,702775
3,717500	0,1	0,663492
3,719167	0,1	0,640802
3,720833	0,1	0,675172
3,722500	0,1	0,706727
3,724167	0,1	0,699925
3,725833	0,1	0,674511
3,727500	0,1	0,687999
3,729167	0,1	0,669336
3,730833	0,1	0,688928
3,732500	0,1	0,665801
3,734167	0,1	0,716687
3,735833	0,1	0,688684
3,737500	0,1	0,717335
3,739167	0,1	0,694370
3,740833	0,1	0,698831
3,742500	0,1	0,722062
3,744167	0,1	0,657264
3,745833	0,1	0,704670
3,747500	0,1	0,710561
3,749167	0,1	0,709600
3,750833	0,1	0,705135
3,752500	0,1	0,700829
3,754167	0,1	0,741147
3,755833	0,1	0,703663
3,757500	0,1	0,730321
3,759167	0,1	0,746684
3,760833	0,1	0,653222
3,762500	0,1	0,726837
3,764167	0,1	0,700030
3,765833	0,1	0,693019
3,767500	0,1	0,766626
3,769167	0,1	0,695157
3,770833	0,1	0,731252
3,772500	0,1	0,737720
3,774167	0,1	0,741096
3,775833	0,1	0,738943
3,777500	0,1	0,767286
3,779167	0,1	0,746244
3,780833	0,1	0,719795
3,782500	0,1	0,741185
3,784167	0,1	0,732582
3,785833	0,1	0,740097
3,787500	0,1	0,726510
3,789167	0,1	0,773963
3,790833	0,1	0,758522
3,792500	0,1	0,803248
3,794167	0,1	0,742301
3,795833	0,1	0,700450
3,797500	0,1	0,767625
3,799167	0,1	0,765040
3,800833	0,1	0,753212
3,802500	0,1	0,784991
3,804167	0,1	0,753541
3,805833	0,1	0,753505
3,807500	0,1	0,762373
3,809167	0,1	0,821720
3,810833	0,1	0,796966
3,812500	0,1	0,786416
3,814167	0,1	0,776866
3,815833	0,1	0,767260
3,817500	0,1	0,786372
3,819167	0,1	0,806721
3,820833	0,1	0,756083
3,822500	0,1	0,778144
3,824167	0,1	0,765716
3,825833	0,1	0,785989
3,827500	0,1	0,753989
3,829167	0,1	0,748846
3,830833	0,1	0,732679
3,832500	0,1	0,740162
3,834167	0,1	0,746331
3,835833	0,1	0,747206
3,837500	0,1	0,768097
3,839167	0,1	0,782010
3,840833	0,1	0,784297
3,842500	0,1	0,771406
3,844167	0,1	0,777310
3,845833	0,1	0,779407
3,847500	0,1	0,752479
3,849167	0,1	0,746658
3,850833	0,1	0,755843
3,852500	0,1	0,756682
3,854167	0,1	0,763919
3,855833	0,1	0,756137
3,857500	0,1	0,778441
3,859167	0,1	0,725428
3,860833	0,1	0,736465
3,862500	0,1	0,731456
3,864167	0,1	0,776760
3,865833	0,1	0,712604
3,867500	0,1	0,779651
3,869167	0,1	0,753246
3,870833	0,1	0,711603
3,872500	0,1	0,743435
3,874167	0,1	0,751856
3,875833	0,1	0,747456
3,877500	0,1	0,717992
3,879167	0,1	0,673617
3,880833	0,1	0,717013
3,882500	0,1	0,736367
3,884167	0,1	0,708092
3,885833	0,1	0,716762
3,887500	0,1	0,689103
3,889167	0,1	0,706576
3,890833	0,1	0,714579
3,892500	0,1	0,718339
3,894167	0,1	0,693760
3,895833	0,1	0,711234
3,897500	0,1	0,714418
3,899167	0,1	0,679558
3,900833	0,1	0,703680
3,902500	0,1	0,713035
3,904167	0,1	0,678399
3,905833	0,1	0,653238
3,907500	0,1	0,676750
3,909167	0,1	0,656966
3,910833	0,1	0,644719
3,912500	0,1	0,651205
3,914167	0,1	0,641025
3,915833	0,1	0,708392
3,917500	0,1	0,642388
3,919167	0,1	0,627145
3,920833	0,1	0,658976
3,922500	0,1	0,683400
3,924167	0,1	0,660980
3,925833	0,1	0,655000
3,927500	0,1	0,686096
3,929167	0,1	0,654364
3,930833	0,1	0,670548
3,932500	0,1	0,636113
3,934167	0,1	0,645518
3,935833	0,1	0,641504
3,937500	0,1	0,651366
3,939167	0,1	0,652847
3,940833	0,1	0,627918
3,942500	0,1	0,643525
3,944167	0,1	0,669516
3,945833	0,1	0,630009
3,947500	0,1	0,638771
3,949167	0,1	0,645036
3,950833	0,1	0,609285
3,952500	0,1	0,607765
3,954167	0,1	0,599734
3,955833	0,1	0,635230
3,957500	0,1	0,632250
3,959167	0,1	0,619078
3,960833	0,1	0,590229
3,962500	0,1	0,641974
3,964167	0,1	0,648892
3,965833	0,1	0,593418
3,967500	0,1	0,634489
3,969167	0,1	0,594956
3,970833	0,1	0,618717
3,972500	0,1	0,596268
3,974167	0,1	0,637059
3,975833	0,1	0,601475
3,977500	0,1	0,588974
3,979167	0,1	0,589323
3,980833	0,1	0,606702
3,982500	0,1	0,602496
3,984167	0,1	0,594306
3,985833	0,1	0,617976
3,987500	0,1	0,615862
3,989167	0,1	0,591931
3,990833	0,1	0,575575
3,992500	0,1	0,572199
3,994167	0,1	0,592435
3,995833	0,1	0,641780
3,997500	0,1	0,625248
3,999167	0,1	0,604718
4,000833	0,1	0,608825
4,002500	0,1	0,590354
4,004167	0,1	0,626875
4,005833	0,1	0,588786
4,007500	0,1	0,577277
4,009167	0,1	0,596676
4,010833	0,1	0,600984
4,012500	0,1	0,584347
4,014167	0,1	0,625010
4,015833	0,1	0,624987
4,017500	0,1	0,625020
4,019167	0,1	0,637677
4,020833	0,1	0,629359
4,022500	0,1	0,674717
4,024167	0,1	0,594868
4,025833	0,1	0,623116
4,027500	0,1	0,600734
4,029167	0,1	0,631118
4,030833	0,1	0,655283
4,032500	0,1	0,638713
4,034167	0,1	0,659750
4,035833	0,1	0,635339
4,037500	0,1	0,702478
4,039167	0,1	0,674254
4,040833	0,1	0,647808
4,042500	0,1	0,700585
4,044167	0,1	0,658190
4,045833	0,1	0,656413
4,047500	0,1	0,715654
4,049167	0,1	0,675897
4,050833	0,1	0,709010
4,052500	0,1	0,714321
4,054167	0,1	0,680300
4,055833	0,1	0,689095
4,057500	0,1	0,737034
4,059167	0,1	0,726089
4,060833	0,1	0,732096
4,062500	0,1	0,740771
4,064167	0,1	0,770298
4,065833	0,1	0,705788
4,067500	0,1	0,759046
4,069167	0,1	0,804404
4,070833	0,1	0,825205
4,072500	0,1	0,809849
4,074167	0,1	0,784174
4,075833	0,1	0,834842
4,077500	0,1	0,817016
4,079167	0,1	0,832735
4,080833	0,1	0,843340
4,082500	0,1	0,785885
4,084167	0,1	0,844810
4,085833	0,1	0,859834
4,087500	0,1	0,862158
4,089167	0,1	0,848555
4,090833	0,1	0,947202
4,092500	0,1	0,925169
4,094167	0,1	0,930857
4,095833	0,1	0,951080
4,097500	0,1	0,975294
4,099167	0,1	0,974773
4,100833	0,1	0,971600
4,102500	0,1	0,962621
4,104167	0,1	0,960573
4,105833	0,1	0,961835
4,107500	0,1	1,010151
4,109167	0,1	1,072701
4,110833	0,1	1,071121
4,112500	0,1	1,032949
4,114167	0,1	1,091046
4,115833	0,1	1,109136
4,117500	0,1	1,069730
4,119167	0,1	1,124170
4,120833	0,1	1,111385
4,122500	0,1	1,108519
4,124167	0,1	1,186551
4,125833	0,1	1,183398
4,127500	0,1	1,199789
4,129167	0,1	1,197467
4,130833	0,1	1,192740
4,132500	0,1	1,239484
4,134167	0,1	1,216401
4,135833	0,1	1,234965
4,137500	0,1	1,303280
4,139167	0,1	1,267284
4,140833	0,1	1,259689
4,142500	0,1	1,307790
4,144167	0,1	1,366382
4,145833	0,1	1,321245
4,147500	0,1	1,333939
4,149167	0,1	1,326881
4,150833	0,1	1,358597
4,152500	0,1	1,351692
4,154167	0,1	1,359938
4,155833	0,1	1,378555
4,157500	0,1	1,380625
4,159167	0,1	1,424645
4,160833	0,1	1,402993
4,162500	0,1	1,419451
4,164167	0,1	1,433699
4,165833	0,1	1,453370
4,167500	0,1	1,464300
4,169167	0,1	1,448346
4,170833	0,1	1,461133
4,172500	0,1	1,473807
4,174167	0,1	1,506877
4,175833	0,1	1,463890
4,177500	0,1	1,523711
4,179167	0,1	1,494218
4,180833	0,1	1,511154
4,182500	0,1	1,524571
4,184167	0,1	1,522763
4,185833	0,1	1,543215
4,187500	0,1	1,544878
4,189167	0,1	1,538508
4,190833	0,1	1,557191
4,192500	0,1	1,555758
4,194167	0,1	1,509169
4,195833	0,1	1,526690
4,197500	0,1	1,539080
4,199167	0,1	1,508164
4,200833	0,1	1,516526
4,202500	0,1	1,519324
4,204167	0,1	1,557310
4,205833	0,1	1,533306
4,207500	0,1	1,582643
4,209167	0,1	1,526503
4,210833	0,1	1,511230
4,212500	0,1	1,533841
4,214167	0,1	1,566630
4,215833	0,1	1,541444
4,217500	0,1	1,570644
4,219167	0,1	1,558035
4,220833	0,1	1,580800
4,222500	0,1	1,536843
4,224167	0,1	1,493152
4,225833	0,1	1,543494
4,227500	0,1	1,525450
4,229167	0,1	1,537064
4,230833	0,1	1,538273
4,232500	0,1	1,513701
4,234167	0,1	1,486232
4,235833	0,1	1,526701
4,237500	0,1	1,539737
4,239167	0,1	1,487662
4,240833	0,1	1,514567
4,242500	0,1	1,494996
4,244167	0,1	1,515167
4,245833	0,1	1,478122
4,247500	0,1	1,507590
4,249167	0,1	1,454150
4,250833	0,1	1,488271
4,252500	0,1	1,439440
4,254167	0,1	1,418019
4,255833	0,1	1,418811
4,257500	0,1	1,405988
4,259167	0,1	1,439624
4,260833	0,1	1,433264
4,262500	0,1	1,419643
4,264167	0,1	1,417371
4,265833	0,1	1,400635
4,267500	0,1	1,349482
4,269167	0,1	1,378620
4,270833	0,1	1,391702
4,272500	0,1	1,372194
4,274167	0,1	1,391192
4,275833	0,1	1,349313
4,277500	0,1	1,375248
4,279167	0,1	1,317558
4,280833	0,1	1,328925
4,282500	0,1	1,299375
4,284167	0,1	1,298168
4,285833	0,1	1,240199
4,287500	0,1	1,282153
4,289167	0,1	1,241369
4,290833	0,1	1,305654
4,292500	0,1	1,287825
4,294167	0,1	1,245893
4,295833	0,1	1,221683
4,297500	0,1	1,271970
4,299167	0,1	1,205405
4,300833	0,1	1,213686
4,302500	0,1	1,227641
4,304167	0,1	1,223141
4,305833	0,1	1,183540
4,307500	0,1	1,185970
4,309167	0,1	1,179319
4,310833	0,1	1,133268
4,312500	0,1	1,156567
4,314167	0,1	1,159636
4,315833	0,1	1,155267
4,317500	0,1	1,104384
4,319167	0,1	1,093857
4,320833	0,1	1,130806
4,322500	0,1	1,097192
4,324167	0,1	1,133559
4,325833	0,1	1,039703
4,327500	0,1	1,081712
4,329167	0,1	1,086313
4,330833	0,1	1,065800
4,332500	0,1	1,047655
4,334167	0,1	1,057761
4,335833	0,1	1,053154
4,337500	0,1	1,027430
4,339167	0,1	1,011766
4,340833	0,1	1,009167
4,342500	0,1	1,058905
4,344167	0,1	0,994923
4,345833	0,1	0,992022
4,347500	0,1	0,978034
4,349167	0,1	0,995349
4,350833	0,1	0,987614
4,352500	0,1	1,003687
4,354167	0,1	0,939168
4,355833	0,1	0,963008
4,357500	0,1	0,981571
4,359167	0,1	0,944372
4,360833	0,1	0,920288
4,362500	0,1	0,934385
4,364167	0,1	0,934298
4,365833	0,1	0,949359
4,367500	0,1	0,892710
4,369167	0,1	0,928212
4,370833	0,1	0,861427
4,372500	0,1	0,889762
4,374167	0,1	0,885007
4,375833	0,1	0,876230
4,377500	0,1	0,899527
4,379167	0,1	0,879932
4,380833	0,1	0,843194
4,382500	0,1	0,843763
4,384167	0,1	0,852091
4,385833	0,1	0,822580
4,387500	0,1	0,833473
4,389167	0,1	0,849768
4,390833	0,1	0,817280
4,392500	0,1	0,820226
4,394167	0,1	0,829933
4,395833	0,1	0,836298
4,397500	0,1	0,820296
4,399167	0,1	0,802685
4,400833	0,1	0,778863
4,402500	0,1	0,758257
4,404167	0,1	0,777119
4,405833	0,1	0,775708
4,407500	0,1	0,755078
4,409167	0,1	0,803182
4,410833	0,1	0,789406
4,412500	0,1	0,780046
4,414167	0,1	0,780468
4,415833	0,1	0,737344
4,417500	0,1	0,735820
4,419167	0,1	0,703019
4,420833	0,1	0,723252
4,422500	0,1	0,738232
4,424167	0,1	0,675389
4,425833	0,1	0,722667
4,427500	0,1	0,718819
4,429167	0,1	0,740607
4,430833	0,1	0,721813
4,432500	0,1	0,740856
4,434167	0,1	0,692929
4,435833	0,1	0,703615
4,437500	0,1	0,660857
4,439167	0,1	0,674147
4,440833	0,1	0,690246
4,442500	0,1	0,713864
4,444167	0,1	0,617717
4,445833	0,1	0,702441
4,447500	0,1	0,665516
4,449167	0,1	0,607105
4,450833	0,1	0,643841
4,452500	0,1	0,658080
4,454167	0,1	0,658726
4,455833	0,1	0,626794
4,457500	0,1	0,652839
4,459167	0,1	0,628013
4,460833	0,1	0,593155
4,462500	0,1	0,608180
4,464167	0,1	0,652772
4,465833	0,1	0,633379
4,467500	0,1	0,587246
4,469167	0,1	0,573166
4,470833	0,1	0,601332
4,472500	0,1	0,618076
4,474167	0,1	0,597424
4,475833	0,1	0,605740
4,477500	0,1	0,552132
4,479167	0,1	0,605087
4,480833	0,1	0,612647
4,482500	0,1	0,571117
4,484167	0,1	0,591408
4,485833	0,1	0,576317
4,487500	0,1	0,567446
4,489167	0,1	0,572969
4,490833	0,1	0,575156
4,492500	0,1	0,563722
4,494167	0,1	0,561534
4,495833	0,1	0,518559
4,497500	0,1	0,521215
4,499167	0,1	0,528923
4,500833	0,1	0,509528
4,502500	0,1	0,524165
4,504167	0,1	0,530847
4,505833	0,1	0,538273
4,507500	0,1	0,547942
4,509167	0,1	0,529476
4,510833	0,1	0,554331
4,512500	0,1	0,498779
4,514167	0,1	0,509776
4,515833	0,1	0,494267
4,517500	0,1	0,530202
4,519167	0,1	0,501082
4,520833	0,1	0,501363
4,522500	0,1	0,485018
4,524167	0,1	0,497414
4,525833	0,1	0,508496
4,527500	0,1	0,475965
4,529167	0,1	0,494801
4,530833	0,1	0,485080
4,532500	0,1	0,496512
4,534167	0,1	0,488489
4,535833	0,1	0,466353
4,537500	0,1	0,460604
4,539167	0,1	0,471809
4,540833	0,1	0,477304
4,542500	0,1	0,438481
4,544167	0,1	0,436736
4,545833	0,1	0,461979
4,547500	0,1	0,412528
4,549167	0,1	0,443024
4,550833	0,1	0,450477
4,552500	0,1	0,426310
4,554167	0,1	0,452507
4,555833	0,1	0,394962
4,557500	0,1	0,445906
4,559167	0,1	0,429575
4,560833	0,1	0,395030
4,562500	0,1	0,380379
4,564167	0,1	0,414055
4,565833	0,1	0,437155
4,567500	0,1	0,404338
4,569167	0,1	0,379350
4,570833	0,1	0,412255
4,572500	0,1	0,409631
4,574167	0,1	0,426427
4,575833	0,1	0,411045
4,577500	0,1	0,380446
4,579167	0,1	0,390207
4,580833	0,1	0,414665
4,582500	0,1	0,402568
4,584167	0,1	0,391901
4,585833	0,1	0,406643
4,587500	0,1	0,384333
4,589167	0,1	0,365924
4,590833	0,1	0,415082
4,592500	0,1	0,373346
4,594167	0,1	0,335680
4,595833	0,1	0,372053
4,597500	0,1	0,362030
4,599167	0,1	0,399319
4,600833	0,1	0,382848
4,602500	0,1	0,368980
4,604167	0,1	0,324801
4,605833	0,1	0,358819
4,607500	0,1	0,315585
4,609167	0,1	0,332393
4,610833	0,1	0,381547
4,612500	0,1	0,371864
4,614167	0,1	0,300719
4,615833	0,1	0,350694
4,617500	0,1	0,348804
4,619167	0,1	0,363383
4,620833	0,1	0,331283
4,622500	0,1	0,341296
4,624167	0,1	0,337284
4,625833	0,1	0,334298
4,627500	0,1	0,314609
4,629167	0,1	0,318595
4,630833	0,1	0,354866
4,632500	0,1	0,301232
4,634167	0,1	0,307225
4,635833	0,1	0,343657
4,637500	0,1	0,319268
4,639167	0,1	0,294161
4,640833	0,1	0,307600
4,642500	0,1	0,297822
4,644167	0,1	0,334453
4,645833	0,1	0,287996
4,647500	0,1	0,312811
4,649167	0,1	0,298177
4,650833	0,1	0,323791
4,652500	0,1	0,302320
4,654167	0,1	0,273779
4,655833	0,1	0,278680
4,657500	0,1	0,332295
4,659167	0,1	0,321846
4,660833	0,1	0,307078
4,662500	0,1	0,278916
4,664167	0,1	0,282533
4,665833	0,1	0,262219
4,667500	0,1	0,264303
4,669167	0,1	0,283839
4,670833	0,1	0,278785
4,672500	0,1	0,299250
4,674167	0,1	0,269724
4,675833	0,1	0,298355
4,677500	0,1	0,334894
4,679167	0,1	0,276668
4,680833	0,1	0,284624
4,682500	0,1	0,250211
4,684167	0,1	0,247588
4,685833	0,1	0,275589
4,687500	0,1	0,234928
4,689167	0,1	0,261566
4,690833	0,1	0,255090
4,692500	0,1	0,282567
4,694167	0,1	0,274604
4,695833	0,1	0,238613
4,697500	0,1	0,248187
4,699167	0,1	0,204711
4,700833	0,1	0,256398
4,702500	0,1	0,270079
4,704167	0,1	0,224923
4,705833	0,1	0,274794
4,707500	0,1	0,232086
4,709167	0,1	0,250753
4,710833	0,1	0,269108
4,712500	0,1	0,228421
4,714167	0,1	0,258706
4,715833	0,1	0,249375
4,717500	0,1	0,245872
4,719167	0,1	0,204627
4,720833	0,1	0,226316
4,722500	0,1	0,236738
4,724167	0,1	0,233986
4,725833	0,1	0,243113
4,727500	0,1	0,223592
4,729167	0,1	0,248308
4,730833	0,1	0,221975
4,732500	0,1	0,227517
4,734167	0,1	0,202635
4,735833	0,1	0,207104
4,737500	0,1	0,228201
4,739167	0,1	0,225781
4,740833	0,1	0,194620
4,742500	0,1	0,210641
4,744167	0,1	0,257192
4,745833	0,1	0,225249
4,747500	0,1	0,223816
4,749167	0,1	0,230210
4,750833	0,1	0,208287
4,752500	0,1	0,210309
4,754167	0,1	0,196955
4,755833	0,1	0,191942
4,757500	0,1	0,212896
4,759167	0,1	0,218199
4,760833	0,1	0,239383
4,762500	0,1	0,217564
4,764167	0,1	0,168802
4,765833	0,1	0,224507
4,767500	0,1	0,214642
4,769167	0,1	0,205903
4,770833	0,1	0,206831
4,772500	0,1	0,185526
4,774167	0,1	0,179931
4,775833	0,1	0,205645
4,777500	0,1	0,145384
4,779167	0,1	0,218825
4,780833	0,1	0,200291
4,782500	0,1	0,180101
4,784167	0,1	0,182271
4,785833	0,1	0,229763
4,787500	0,1	0,210439
4,789167	0,1	0,204015
4,790833	0,1	0,198573
4,792500	0,1	0,191176
4,794167	0,1	0,159437
4,795833	0,1	0,200069
4,797500	0,1	0,195006
4,799167	0,1	0,196021
4,800833	0,1	0,173185
4,802500	0,1	0,181048
4,804167	0,1	0,176142
4,805833	0,1	0,187486
4,807500	0,1	0,198875
4,809167	0,1	0,176581
4,810833	0,1	0,217198
4,812500	0,1	0,206688
4,814167	0,1	0,157060
4,815833	0,1	0,188622
4,817500	0,1	0,204215
4,819167	0,1	0,186230
4,820833	0,1	0,209786
4,822500	0,1	0,182835
4,824167	0,1	0,156122
4,825833	0,1	0,181520
4,827500	0,1	0,162870
4,829167	0,1	0,219058
4,830833	0,1	0,177663
4,832500	0,1	0,216800
4,834167	0,1	0,141349
4,835833	0,1	0,142097
4,837500	0,1	0,178575
4,839167	0,1	0,161091
4,840833	0,1	0,188953
4,842500	0,1	0,179228
4,844167	0,1	0,135937
4,845833	0,1	0,150459
4,847500	0,1	0,184003
4,849167	0,1	0,210202
4,850833	0,1	0,192836
4,852500	0,1	0,150639
4,854167	0,1	0,172633
4,855833	0,1	0,182662
4,857500	0,1	0,174134
4,859167	0,1	0,153490
4,860833	0,1	0,150401
4,862500	0,1	0,147606
4,864167	0,1	0,178475
4,865833	0,1	0,165996
4,867500	0,1	0,207981
4,869167	0,1	0,182297
4,870833	0,1	0,151816
4,872500	0,1	0,142038
4,874167	0,1	0,160542
4,875833	0,1	0,172122
4,877500	0,1	0,206036
4,879167	0,1	0,170577
4,880833	0,1	0,155353
4,882500	0,1	0,139305
4,884167	0,1	0,146982
4,885833	0,1	0,189755
4,887500	0,1	0,157014
4,889167	0,1	0,151023
4,890833	0,1	0,156176
4,892500	0,1	0,201583
4,894167	0,1	0,152897
4,895833	0,1	0,166176
4,897500	0,1	0,158065
4,899167	0,1	0,139823
4,900833	0,1	0,161701
4,902500	0,1	0,184045
4,904167	0,1	0,180654
4,905833	0,1	0,131300
4,907500	0,1	0,125491
4,909167	0,1	0,168842
4,910833	0,1	0,162641
4,912500	0,1	0,146366
4,914167	0,1	0,160605
4,915833	0,1	0,152432
4,917500	0,1	0,209240
4,919167	0,1	0,217994
4,920833	0,1	0,155013
4,922500	0,1	0,150732
4,924167	0,1	0,166713
4,925833	0,1	0,166160
4,927500	0,1	0,169533
4,929167	0,1	0,167752
4,930833	0,1	0,163282
4,932500	0,1	0,182574
4,934167	0,1	0,155977
4,935833	0,1	0,127877
4,937500	0,1	0,187911
4,939167	0,1	0,204943
4,940833	0,1	0,161654
4,942500	0,1	0,214065
4,944167	0,1	0,178592
4,945833	0,1	0,149621
4,947500	0,1	0,144853
4,949167	0,1	0,175242
4,950833	0,1	0,146205
4,952500	0,1	0,157750
4,954167	0,1	0,157959
4,955833	0,1	0,198580
4,957500	0,1	0,172337
4,959167	0,1	0,135831
4,960833	0,1	0,148678
4,962500	0,1	0,184974
4,964167	0,1	0,150761
4,965833	0,1	0,172699
4,967500	0,1	0,169099
4,969167	0,1	0,184564
4,970833	0,1	0,141466
4,972500	0,1	0,174930
4,974167	0,1	0,148958
4,975833	0,1	0,146654
4,977500	0,1	0,166339
4,979167	0,1	0,148872
4,980833	0,1	0,146300
4,982500	0,1	0,133424
4,984167	0,1	0,139011
4,985833	0,1	0,108001
4,987500	0,1	0,141032
4,989167	0,1	0,138349
4,990833	0,1	0,178161
4,992500	0,1	0,146661
4,994167	0,1	0,141870
4,995833	0,1	0,133443
4,997500	0,1	0,162279
4,999167	0,1	0,165082
5,000833	0,1	0,169120
5,002500	0,1	0,175808
5,004167	0,1	0,142518
5,005833	0,1	0,173981
5,007500	0,1	0,163925
5,009167	0,1	0,150425
5,010833	0,1	0,156281
5,012500	0,1	0,177088
5,014167	0,1	0,160655
5,015833	0,1	0,140796
5,017500	0,1	0,161475
5,019167	0,1	0,190338
5,020833	0,1	0,146912
5,022500	0,1	0,186029
5,024167	0,1	0,180904
5,025833	0,1	0,173679
5,027500	0,1	0,158376
5,029167	0,1	0,128604
5,030833	0,1	0,198861
5,032500	0,1	0,115031
5,034167	0,1	0,148735
5,035833	0,1	0,162469
5,037500	0,1	0,159015
5,039167	0,1	0,170940
5,040833	0,1	0,161358
5,042500	0,1	0,196138
5,044167	0,1	0,173784
5,045833	0,1	0,104986
5,047500	0,1	0,154819
5,049167	0,1	0,151789
5,050833	0,1	0,155557
5,052500	0,1	0,145784
5,054167	0,1	0,168287
5,055833	0,1	0,181832
5,057500	0,1	0,156577
5,059167	0,1	0,167504
5,060833	0,1	0,182536
5,062500	0,1	0,164900
5,064167	0,1	0,146366
5,065833	0,1	0,117214
5,067500	0,1	0,142588
5,069167	0,1	0,216899
5,070833	0,1	0,154247
5,072500	0,1	0,160358
5,074167	0,1	0,163569
5,075833	0,1	0,179388
5,077500	0,1	0,167840
5,079167	0,1	0,180444
5,080833	0,1	0,194443
5,082500	0,1	0,163246
5,084167	0,1	0,158808
5,085833	0,1	0,150837
5,087500	0,1	0,167915
5,089167	0,1	0,168603
5,090833	0,1	0,182121
5,092500	0,1	0,182890
5,094167	0,1	0,166453
5,095833	0,1	0,149411
5,097500	0,1	0,126552
5,099167	0,1	0,179504
5,100833	0,1	0,137345
5,102500	0,1	0,156048
5,104167	0,1	0,129409
5,105833	0,1	0,204412
5,107500	0,1	0,191551
5,109167	0,1	0,168154
5,110833	0,1	0,150839
5,112500	0,1	0,164002
5,114167	0,1	0,194917
5,115833	0,1	0,146003
5,117500	0,1	0,175367
5,119167	0,1	0,172250
5,120833	0,1	0,174256
5,122500	0,1	0,171729
5,124167	0,1	0,179515
5,125833	0,1	0,154320
5,127500	0,1	0,153963
5,129167	0,1	0,176943
5,130833	0,1	0,190342
5,132500	0,1	0,196950
5,134167	0,1	0,118841
5,135833	0,1	0,152857
5,137500	0,1	0,169137
5,139167	0,1	0,164939
5,140833	0,1	0,136762
5,142500	0,1	0,143772
5,144167	0,1	0,185823
5,145833	0,1	0,169083
5,147500	0,1	0,174213
5,149167	0,1	0,160425
5,150833	0,1	0,166012
5,152500	0,1	0,155125
5,154167	0,1	0,147441
5,155833	0,1	0,127234
5,157500	0,1	0,152300
5,159167	0,1	0,193794
5,160833	0,1	0,163744
5,162500	0,1	0,154833
5,164167	0,1	0,186922
5,165833	0,1	0,170016
5,167500	0,1	0,144815
5,169167	0,1	0,155802
5,170833	0,1	0,183549
5,172500	0,1	0,178627
5,174167	0,1	0,151504
5,175833	0,1	0,155161
5,177500	0,1	0,136675
5,179167	0,1	0,180312
5,180833	0,1	0,146081
5,182500	0,1	0,164872
5,184167	0,1	0,151252
5,185833	0,1	0,174415
5,187500	0,1	0,122292
5,189167	0,1	0,127745
5,190833	0,1	0,133151
5,192500	0,1	0,168634
5,194167	0,1	0,102459
5,195833	0,1	0,140804
5,197500	0,1	0,186794
5,199167	0,1	0,170242
5,200833	0,1	0,129496
5,202500	0,1	0,156400
5,204167	0,1	0,158787
5,205833	0,1	0,120530
5,207500	0,1	0,168405
5,209167	0,1	0,146243
5,210833	0,1	0,151974
5,212500	0,1	0,145060
5,214167	0,1	0,117194
5,215833	0,1	0,160909
5,217500	0,1	0,132869
5,219167	0,1	0,166669
5,220833	0,1	0,089854
5,222500	0,1	0,126060
5,224167	0,1	0,147021
5,225833	0,1	0,131623
5,227500	0,1	0,095435
5,229167	0,1	0,133288
5,230833	0,1	0,118763
5,232500	0,1	0,133045
5,234167	0,1	0,134084
5,235833	0,1	0,140210
5,237500	0,1	0,105580
5,239167	0,1	0,134345
5,240833	0,1	0,127397
5,242500	0,1	0,122364
5,244167	0,1	0,113462
5,245833	0,1	0,088390
5,247500	0,1	0,115876
5,249167	0,1	0,116896
5,250833	0,1	0,107416
5,252500	0,1	0,108428
5,254167	0,1	0,117827
5,255833	0,1	0,102366
5,257500	0,1	0,127823
5,259167	0,1	0,086345
5,260833	0,1	0,110658
5,262500	0,1	0,124617
5,264167	0,1	0,093694
5,265833	0,1	0,107969
5,267500	0,1	0,113397
5,269167	0,1	0,104517
5,270833	0,1	0,110538
5,272500	0,1	0,132526
5,274167	0,1	0,130419
5,275833	0,1	0,088169
5,277500	0,1	0,116951
5,279167	0,1	0,111620
5,280833	0,1	0,071232
5,282500	0,1	0,118128
5,284167	0,1	0,097604
5,285833	0,1	0,110518
5,287500	0,1	0,074790
5,289167	0,1	0,097387
5,290833	0,1	0,112338
5,292500	0,1	0,093276
5,294167	0,1	0,081061
5,295833	0,1	0,109438
5,297500	0,1	0,096754
5,299167	0,1	0,097290
5,300833	0,1	0,099233
5,302500	0,1	0,044711
5,304167	0,1	0,076287
5,305833	0,1	0,076627
5,307500	0,1	0,098857
5,309167	0,1	0,076365
5,310833	0,1	0,052492
5,312500	0,1	0,081525
5,314167	0,1	0,061703
5,315833	0,1	0,063870
5,317500	0,1	0,097176
5,319167	0,1	0,105155
5,320833	0,1	0,071106
5,322500	0,1	0,085898
5,324167	0,1	0,086357
5,325833	0,1	0,093602
5,327500	0,1	0,067604
5,329167	0,1	0,071695
5,330833	0,1	0,095297
5,332500	0,1	0,092444
5,334167	0,1	0,038607
5,335833	0,1	0,055671
5,337500	0,1	0,086474
5,339167	0,1	0,086131
5,340833	0,1	0,054295
5,342500	0,1	0,064325
5,344167	0,1	0,048224
5,345833	0,1	0,066248
5,347500	0,1	0,032949
5,349167	0,1	0,075004
5,350833	0,1	0,077619
5,352500	0,1	0,036636
5,354167	0,1	0,063864
5,355833	0,1	0,054685
5,357500	0,1	0,058471
5,359167	0,1	0,059237
5,360833	0,1	0,042925
5,362500	0,1	0,058362
5,364167	0,1	0,057312
5,365833	0,1	0,057473
5,367500	0,1	0,044084
5,369167	0,1	0,112533
5,370833	0,1	0,087876
5,372500	0,1	0,054358
5,374167	0,1	0,045655
5,375833	0,1	0,043131
5,377500	0,1	0,024832
5,379167	0,1	0,009780
5,380833	0,1	0,071996
5,382500	0,1	0,031667
5,384167	0,1	0,036712
5,385833	0,1	0,024954
5,387500	0,1	0,036357
5,389167	0,1	0,036873
5,390833	0,1	0,065315
5,392500	0,1	0,019248
5,394167	0,1	0,061811
5,395833	0,1	0,029390
5,397500	0,1	0,013446
5,399167	0,1	0,029667
5,400833	0,1	0,048174
5,402500	0,1	0,024315
5,404167	0,1	0,010652
5,405833	0,1	0,010937
5,407500	0,1	0,018390
5,409167	0,1	0,025653
5,410833	0,1	0,015389
5,412500	0,1	0,011888
5,414167	0,1	0,033849
5,415833	0,1	0,007631
5,417500	0,1	0,040926
5,419167	0,1	0,012457
5,420833	0,1	0,041260
5,422500	0,1	0,056024
5,424167	0,1	0,023174
5,425833	0,1	0,045569
5,427500	0,1	0,033278
5,429167	0,1	0,042548
5,430833	0,1	-0,005033
5,432500	0,1	0,017825
5,434167	0,1	-0,003069
5,435833	0,1	0,032582
5,437500	0,1	0,026982
5,439167	0,1	0,052356
5,440833	0,1	0,002230
5,442500	0,1	0,014100
5,444167	0,1	0,012283
5,445833	0,1	-0,025201
5,447500	0,1	0,010805
5,449167	0,1	0,031574
5,450833	0,1	0,012533
5,452500	0,1	0,019605
5,454167	0,1	0,040595
5,455833	0,1	0,003887
5,457500	0,1	0,035834
5,459167	0,1	0,009767
5,460833	0,1	-0,006228
5,462500	0,1	0,023661
5,464167	0,1	0,017725
5,465833	0,1	0,021285
5,467500	0,1	0,001089
5,469167	0,1	0,034797
5,470833	0,1	0,038013
5,472500	0,1	0,038033
5,474167	0,1	0,003721
5,475833	0,1	0,028981
5,477500	0,1	0,013922
5,479167	0,1	-0,019795
5,480833	0,1	0,009604
5,482500	0,1	0,002139
5,484167	0,1	-0,000322
5,485833	0,1	-0,013902
5,487500	0,1	-0,002357
5,489167	0,1	0,003526
5,490833	0,1	0,002491
5,492500	0,1	0,022010
5,494167	0,1	0,038528
5,495833	0,1	0,006945
5,497500	0,1	0,005242
5,499167	0,1	-0,019137
5,500833	0,1	-0,003350
5,502500	0,1	0,022605
5,504167	0,1	-0,009721
5,505833	0,1	0,009895
5,507500	0,1	0,019964
5,509167	0,1	-0,011101
5,510833	0,1	-0,019037
5,512500	0,1	-0,030709
5,514167	0,1	0,002878
5,515833	0,1	-0,002677
5,517500	0,1	-0,000122
5,519167	0,1	0,035359
5,520833	0,1	0,013405
5,522500	0,1	0,027761
5,524167	0,1	0,009826
5,525833	0,1	0,002843
5,527500	0,1	-0,013778
5,529167	0,1	0,015652
5,530833	0,1	-0,041008
5,532500	0,1	-0,007266
5,534167	0,1	0,003402
5,535833	0,1	0,012782
5,537500	0,1	0,008539
5,539167	0,1	0,023541
5,540833	0,1	-0,020750
5,542500	0,1	-0,007384
5,544167	0,1	-0,017066
5,545833	0,1	0,030074
5,547500	0,1	-0,010687
5,549167	0,1	0,013764
5,550833	0,1	-0,014924
5,552500	0,1	-0,006145
5,554167	0,1	0,000441
5,555833	0,1	-0,030336
5,557500	0,1	-0,006499
5,559167	0,1	0,006918
5,560833	0,1	-0,063876
5,562500	0,1	-0,015200
5,564167	0,1	0,052926
5,565833	0,1	0,013083
5,567500	0,1	-0,029384
5,569167	0,1	-0,010287
5,570833	0,1	-0,014562
5,572500	0,1	-0,042009
5,574167	0,1	0,001696
5,575833	0,1	0,016359
5,577500	0,1	-0,011727
5,579167	0,1	-0,019282
5,580833	0,1	-0,003703
5,582500	0,1	-0,028947
5,584167	0,1	-0,032117
5,585833	0,1	-0,007863
5,587500	0,1	-0,010958
5,589167	0,1	-0,007673
5,590833	0,1	0,008428
5,592500	0,1	-0,018971
5,594167	0,1	-0,003887
5,595833	0,1	-0,001652
5,597500	0,1	0,007542
5,599167	0,1	0,035502
5,600833	0,1	-0,043893
5,602500	0,1	0,030031
5,604167	0,1	-0,001186
5,605833	0,1	0,016876
5,607500	0,1	0,000842
5,609167	0,1	0,009256
5,610833	0,1	-0,001023
5,612500	0,1	-0,009991
5,614167	0,1	-0,016900
5,615833	0,1	0,005202
5,617500	0,1	-0,014726
5,619167	0,1	-0,003015
5,620833	0,1	0,014890
5,622500	0,1	-0,002104
5,624167	0,1	0,018308
5,625833	0,1	0,023174
5,627500	0,1	0,020460
5,629167	0,1	-0,030865
5,630833	0,1	-0,014198
5,632500	0,1	-0,016867
5,634167	0,1	0,053715
5,635833	0,1	-0,015936
5,637500	0,1	0,016996
5,639167	0,1	0,009532
5,640833	0,1	0,029649
5,642500	0,1	-0,003066
5,644167	0,1	0,052267
5,645833	0,1	-0,002323
5,647500	0,1	-0,013384
5,649167	0,1	0,003954
5,650833	0,1	-0,008188
5,652500	0,1	0,040885
5,654167	0,1	0,018890
5,655833	0,1	0,014665
5,657500	0,1	-0,006903
5,659167	0,1	0,003111
5,660833	0,1	0,042664
5,662500	0,1	-0,007415
5,664167	0,1	-0,040707
5,665833	0,1	0,020425
5,667500	0,1	-0,014554
5,669167	0,1	-0,032218
5,670833	0,1	0,004634
5,672500	0,1	0,022361
5,674167	0,1	0,015308
5,675833	0,1	0,021635
5,677500	0,1	0,016610
5,679167	0,1	0,008330
5,680833	0,1	0,007378
5,682500	0,1	0,003237
5,684167	0,1	-0,023769
5,685833	0,1	-0,015936
5,687500	0,1	-0,014363
5,689167	0,1	0,034361
5,690833	0,1	-0,004639
5,692500	0,1	0,016215
5,694167	0,1	0,073361
5,695833	0,1	0,013642
5,697500	0,1	0,015121
5,699167	0,1	0,002889
5,700833	0,1	0,019856
5,702500	0,1	-0,008719
5,704167	0,1	0,016726
5,705833	0,1	0,047677
5,707500	0,1	0,045057
5,709167	0,1	0,038948
5,710833	0,1	0,022097
5,712500	0,1	0,040848
5,714167	0,1	0,028698
5,715833	0,1	0,049228
5,717500	0,1	-0,030140
5,719167	0,1	0,014734
5,720833	0,1	0,029378
5,722500	0,1	0,037703
5,724167	0,1	-0,019314
5,725833	0,1	0,047686
5,727500	0,1	0,061348
5,729167	0,1	0,048841
5,730833	0,1	0,011131
5,732500	0,1	0,031714
5,734167	0,1	-0,000421
5,735833	0,1	0,044421
5,737500	0,1	0,033771
5,739167	0,1	0,049668
5,740833	0,1	0,061843
5,742500	0,1	0,027465
5,744167	0,1	0,039339
5,745833	0,1	0,049501
5,747500	0,1	0,020200
5,749167	0,1	0,046992
5,750833	0,1	0,025517
5,752500	0,1	-0,000896
5,754167	0,1	0,030638
5,755833	0,1	0,034330
5,757500	0,1	0,047057
5,759167	0,1	0,037436
5,760833	0,1	0,032881
5,762500	0,1	0,058174
5,764167	0,1	0,051870
5,765833	0,1	0,061678
5,767500	0,1	0,077783
5,769167	0,1	0,009320
5,770833	0,1	0,051131
5,772500	0,1	0,029572
5,774167	0,1	0,047495
5,775833	0,1	0,062898
5,777500	0,1	0,021733
5,779167	0,1	0,035443
5,780833	0,1	0,037988
5,782500	0,1	0,034621
5,784167	0,1	0,091438
5,785833	0,1	0,063012
5,787500	0,1	0,044769
5,789167	0,1	0,072461
5,790833	0,1	0,030096
5,792500	0,1	0,056663
5,794167	0,1	0,022681
5,795833	0,1	0,035032
5,797500	0,1	0,072229
5,799167	0,1	0,020595
5,800833	0,1	0,044635
5,802500	0,1	0,050350
5,804167	0,1	0,071862
5,805833	0,1	0,054292
5,807500	0,1	0,033095
5,809167	0,1	0,036483
5,810833	0,1	0,019592
5,812500	0,1	0,071666
5,814167	0,1	0,043841
5,815833	0,1	0,042260
5,817500	0,1	0,045344
5,819167	0,1	0,072293
5,820833	0,1	0,017659
5,822500	0,1	0,063904
5,824167	0,1	0,056733
5,825833	0,1	0,054474
5,827500	0,1	0,016864
5,829167	0,1	0,059306
5,830833	0,1	0,051722
5,832500	0,1	0,058260
5,834167	0,1	0,026926
5,835833	0,1	0,042152
5,837500	0,1	0,043913
5,839167	0,1	0,061923
5,840833	0,1	0,065610
5,842500	0,1	0,017077
5,844167	0,1	0,012283
5,845833	0,1	0,045998
5,847500	0,1	0,030397
5,849167	0,1	0,001671
5,850833	0,1	0,037840
5,852500	0,1	0,027274
5,854167	0,1	0,028802
5,855833	0,1	0,054879
5,857500	0,1	-0,004265
5,859167	0,1	0,031403
5,860833	0,1	0,028433
5,862500	0,1	0,042256
5,864167	0,1	0,033338
5,865833	0,1	0,068793
5,867500	0,1	0,035413
5,869167	0,1	0,060803
5,870833	0,1	0,055449
5,872500	0,1	0,035266
5,874167	0,1	0,065085
5,875833	0,1	0,024880
5,877500	0,1	0,005228
5,879167	0,1	0,029023
5,880833	0,1	0,052608
5,882500	0,1	0,051203
5,884167	0,1	0,025580
5,885833	0,1	0,012577
5,887500	0,1	0,024534
5,889167	0,1	0,025803
5,890833	0,1	0,026358
5,892500	0,1	0,011109
5,894167	0,1	0,016607
5,895833	0,1	0,019094
5,897500	0,1	0,050491
5,899167	0,1	0,051782
5,900833	0,1	0,005403
5,902500	0,1	0,021263
5,904167	0,1	0,021496
5,905833	0,1	0,018868
5,907500	0,1	-0,013360
5,909167	0,1	0,002698
5,910833	0,1	0,036932
5,912500	0,1	0,057348
5,914167	0,1	-0,021937
5,915833	0,1	-0,014671
5,917500	0,1	0,031338
5,919167	0,1	0,041800
5,920833	0,1	-0,031775
5,922500	0,1	-0,043250
5,924167	0,1	-0,007662
5,925833	0,1	0,033783
5,927500	0,1	0,010635
5,929167	0,1	0,032154
5,930833	0,1	-0,007952
5,932500	0,1	0,003218
5,934167	0,1	0,008246
5,935833	0,1	0,009698
5,937500	0,1	0,036583
5,939167	0,1	-0,000252
5,940833	0,1	0,008536
5,942500	0,1	0,029876
5,944167	0,1	0,009431
5,945833	0,1	0,003361
5,947500	0,1	-0,010586
5,949167	0,1	-0,011004
5,950833	0,1	0,015423
5,952500	0,1	0,043124
5,954167	0,1	-0,006789
5,955833	0,1	0,014617
5,957500	0,1	-0,021904
5,959167	0,1	-0,026799
5,960833	0,1	-0,004135
5,962500	0,1	-0,002478
5,964167	0,1	-0,028719
5,965833	0,1	-0,011281
5,967500	0,1	0,025523
5,969167	0,1	-0,019669
5,970833	0,1	-0,017219
5,972500	0,1	0,010263
5,974167	0,1	0,004048
5,975833	0,1	0,030825
5,977500	0,1	-0,000376
5,979167	0,1	-0,013030
5,980833	0,1	0,030549
5,982500	0,1	-0,002820
5,984167	0,1	-0,007441
5,985833	0,1	0,010168
5,987500	0,1	-0,004215
5,989167	0,1	0,024468
5,990833	0,1	-0,020891
5,992500	0,1	-0,014441
5,994167	0,1	-0,005776
5,995833	0,1	-0,002187
5,997500	0,1	0,008060
5,999167	0,1	0,008723
6,000833	0,1	-0,009486
