File Path	chrom://chromeleon01/ikbm_chromeleon/2022/Rezex/Esteban/220612_chitin_4_7.seq/272.smp/UV_VIS_1.channel/UV_VIS_1.chm
Channel	UV_VIS_1

Injection Information:
Data Vault	ikbm_chromeleon
Injection	CelS2_01h-EGS_1
Injection Number	97
Position	GE8
Comment	
Processing Method	New ProcMethod
Instrument Method	Short_Rezex_6min_194nm
Type	Unknown
Status	Finished
Injection Date	13.06.2022
Injection Time	03:35:36
Injection Volume (µl)	8,000
Dilution Factor	1,0000
Weight	1,0000

Chromatogram Data Information:
Time Min. (min)	0,000833
Time Max. (min)	6,000833
Data Points	3601
Detector	UV
Generating Data System	Chromeleon 7.2.9.11323
Exporting Data System	Chromeleon 7.2.9.0
Operator	Instrument Controller
Signal Quantity	Absorbance
Signal Unit	mAU
Signal Min.	-0,111345
Signal Max.	126,733327
Channel	UV_VIS_1
Driver Name	VWD3000.dll
Channel Type	Evaluation
Min. Step (s)	0,1
Max. Step (s)	0,1
Average Step (s)	0,1

Signal Parameter Information:
Signal Info	WVL:194 nm

Chromatogram Data:
Time (min)	Step (s)	Value (mAU)
0,000833	n.a.	-0,026103
0,002500	0,1	-0,058638
0,004167	0,1	-0,059349
0,005833	0,1	-0,044013
0,007500	0,1	-0,018514
0,009167	0,1	-0,034240
0,010833	0,1	-0,024928
0,012500	0,1	-0,006837
0,014167	0,1	-0,026143
0,015833	0,1	-0,025876
0,017500	0,1	-0,008200
0,019167	0,1	-0,035187
0,020833	0,1	-0,011929
0,022500	0,1	-0,044520
0,024167	0,1	-0,091756
0,025833	0,1	-0,030758
0,027500	0,1	-0,056899
0,029167	0,1	-0,084413
0,030833	0,1	-0,111345
0,032500	0,1	-0,093423
0,034167	0,1	-0,093280
0,035833	0,1	-0,073989
0,037500	0,1	-0,092545
0,039167	0,1	-0,044831
0,040833	0,1	-0,102600
0,042500	0,1	-0,080925
0,044167	0,1	-0,084558
0,045833	0,1	-0,105712
0,047500	0,1	-0,097746
0,049167	0,1	-0,067436
0,050833	0,1	-0,090874
0,052500	0,1	-0,088120
0,054167	0,1	-0,034705
0,055833	0,1	-0,070751
0,057500	0,1	-0,029470
0,059167	0,1	-0,057294
0,060833	0,1	-0,039752
0,062500	0,1	-0,032584
0,064167	0,1	-0,005494
0,065833	0,1	-0,076165
0,067500	0,1	-0,021668
0,069167	0,1	-0,091170
0,070833	0,1	-0,063724
0,072500	0,1	-0,063763
0,074167	0,1	-0,037705
0,075833	0,1	-0,015384
0,077500	0,1	-0,024632
0,079167	0,1	-0,020452
0,080833	0,1	-0,021840
0,082500	0,1	-0,010766
0,084167	0,1	-0,008591
0,085833	0,1	-0,036285
0,087500	0,1	-0,077782
0,089167	0,1	-0,020657
0,090833	0,1	-0,007996
0,092500	0,1	-0,005135
0,094167	0,1	-0,028857
0,095833	0,1	-0,021366
0,097500	0,1	-0,011555
0,099167	0,1	-0,031190
0,100833	0,1	-0,028049
0,102500	0,1	-0,062452
0,104167	0,1	-0,055834
0,105833	0,1	-0,027393
0,107500	0,1	-0,031984
0,109167	0,1	-0,015921
0,110833	0,1	-0,068258
0,112500	0,1	-0,103538
0,114167	0,1	-0,055283
0,115833	0,1	-0,087225
0,117500	0,1	-0,067161
0,119167	0,1	-0,035966
0,120833	0,1	-0,080436
0,122500	0,1	-0,067801
0,124167	0,1	-0,045862
0,125833	0,1	-0,062845
0,127500	0,1	-0,045527
0,129167	0,1	-0,062887
0,130833	0,1	-0,064421
0,132500	0,1	-0,023011
0,134167	0,1	-0,032476
0,135833	0,1	-0,028506
0,137500	0,1	-0,056652
0,139167	0,1	-0,087022
0,140833	0,1	-0,042404
0,142500	0,1	-0,053325
0,144167	0,1	-0,034618
0,145833	0,1	-0,049185
0,147500	0,1	-0,035197
0,149167	0,1	-0,055970
0,150833	0,1	0,007214
0,152500	0,1	-0,051223
0,154167	0,1	-0,066388
0,155833	0,1	-0,062331
0,157500	0,1	0,008700
0,159167	0,1	-0,024585
0,160833	0,1	-0,026473
0,162500	0,1	-0,039683
0,164167	0,1	-0,052595
0,165833	0,1	0,004149
0,167500	0,1	-0,030940
0,169167	0,1	-0,021325
0,170833	0,1	-0,012711
0,172500	0,1	-0,047045
0,174167	0,1	-0,050137
0,175833	0,1	-0,012285
0,177500	0,1	-0,038149
0,179167	0,1	-0,049642
0,180833	0,1	-0,009904
0,182500	0,1	-0,058300
0,184167	0,1	-0,088736
0,185833	0,1	-0,048450
0,187500	0,1	-0,052334
0,189167	0,1	-0,086775
0,190833	0,1	-0,005401
0,192500	0,1	-0,033570
0,194167	0,1	-0,023250
0,195833	0,1	-0,041211
0,197500	0,1	-0,060884
0,199167	0,1	-0,065826
0,200833	0,1	-0,027564
0,202500	0,1	-0,028152
0,204167	0,1	-0,019485
0,205833	0,1	-0,060149
0,207500	0,1	0,017103
0,209167	0,1	-0,056353
0,210833	0,1	-0,015450
0,212500	0,1	-0,022937
0,214167	0,1	-0,031815
0,215833	0,1	-0,007457
0,217500	0,1	-0,043051
0,219167	0,1	-0,023356
0,220833	0,1	-0,040279
0,222500	0,1	-0,005514
0,224167	0,1	-0,062132
0,225833	0,1	0,003025
0,227500	0,1	-0,003746
0,229167	0,1	-0,025686
0,230833	0,1	-0,032539
0,232500	0,1	-0,018800
0,234167	0,1	-0,027219
0,235833	0,1	-0,014081
0,237500	0,1	-0,016582
0,239167	0,1	-0,004578
0,240833	0,1	-0,008960
0,242500	0,1	-0,010910
0,244167	0,1	-0,065649
0,245833	0,1	-0,036834
0,247500	0,1	-0,054107
0,249167	0,1	-0,033254
0,250833	0,1	-0,035815
0,252500	0,1	-0,024657
0,254167	0,1	-0,018115
0,255833	0,1	-0,058620
0,257500	0,1	-0,020793
0,259167	0,1	-0,012858
0,260833	0,1	-0,042560
0,262500	0,1	-0,016775
0,264167	0,1	0,009891
0,265833	0,1	-0,026551
0,267500	0,1	-0,026580
0,269167	0,1	-0,025918
0,270833	0,1	-0,027949
0,272500	0,1	-0,007912
0,274167	0,1	0,000021
0,275833	0,1	-0,006808
0,277500	0,1	-0,022849
0,279167	0,1	0,020983
0,280833	0,1	-0,020732
0,282500	0,1	0,010014
0,284167	0,1	-0,013781
0,285833	0,1	-0,019852
0,287500	0,1	-0,033036
0,289167	0,1	0,012951
0,290833	0,1	-0,007346
0,292500	0,1	-0,003890
0,294167	0,1	-0,033427
0,295833	0,1	-0,010669
0,297500	0,1	-0,026637
0,299167	0,1	-0,025506
0,300833	0,1	-0,012691
0,302500	0,1	0,003764
0,304167	0,1	-0,008131
0,305833	0,1	0,010079
0,307500	0,1	-0,022245
0,309167	0,1	-0,014677
0,310833	0,1	0,001032
0,312500	0,1	-0,028436
0,314167	0,1	-0,013790
0,315833	0,1	-0,039450
0,317500	0,1	-0,044009
0,319167	0,1	-0,015492
0,320833	0,1	0,002689
0,322500	0,1	-0,036485
0,324167	0,1	-0,016729
0,325833	0,1	-0,033203
0,327500	0,1	-0,019504
0,329167	0,1	-0,032105
0,330833	0,1	-0,033619
0,332500	0,1	-0,031238
0,334167	0,1	-0,044155
0,335833	0,1	-0,004732
0,337500	0,1	-0,019250
0,339167	0,1	-0,004331
0,340833	0,1	-0,031978
0,342500	0,1	-0,026376
0,344167	0,1	-0,017474
0,345833	0,1	-0,014844
0,347500	0,1	0,010783
0,349167	0,1	0,003584
0,350833	0,1	-0,011137
0,352500	0,1	-0,028131
0,354167	0,1	-0,003236
0,355833	0,1	-0,017177
0,357500	0,1	0,011277
0,359167	0,1	-0,013468
0,360833	0,1	0,001094
0,362500	0,1	-0,040466
0,364167	0,1	-0,014417
0,365833	0,1	-0,027243
0,367500	0,1	-0,020127
0,369167	0,1	-0,011160
0,370833	0,1	-0,006440
0,372500	0,1	-0,019850
0,374167	0,1	-0,003172
0,375833	0,1	0,037526
0,377500	0,1	0,014913
0,379167	0,1	-0,020282
0,380833	0,1	0,005646
0,382500	0,1	0,004369
0,384167	0,1	-0,019206
0,385833	0,1	-0,039286
0,387500	0,1	0,005580
0,389167	0,1	0,003874
0,390833	0,1	-0,018853
0,392500	0,1	-0,004805
0,394167	0,1	-0,011386
0,395833	0,1	0,001304
0,397500	0,1	0,001139
0,399167	0,1	-0,037751
0,400833	0,1	-0,023108
0,402500	0,1	-0,004621
0,404167	0,1	-0,012212
0,405833	0,1	0,002502
0,407500	0,1	0,027800
0,409167	0,1	0,000733
0,410833	0,1	-0,001716
0,412500	0,1	0,014015
0,414167	0,1	0,016067
0,415833	0,1	-0,019369
0,417500	0,1	-0,004455
0,419167	0,1	0,022830
0,420833	0,1	-0,019367
0,422500	0,1	-0,006892
0,424167	0,1	0,004637
0,425833	0,1	-0,009600
0,427500	0,1	-0,000665
0,429167	0,1	-0,014672
0,430833	0,1	0,027009
0,432500	0,1	0,019982
0,434167	0,1	-0,022057
0,435833	0,1	0,016077
0,437500	0,1	-0,021269
0,439167	0,1	-0,004370
0,440833	0,1	0,032454
0,442500	0,1	-0,010506
0,444167	0,1	0,034545
0,445833	0,1	-0,020420
0,447500	0,1	0,067868
0,449167	0,1	0,016554
0,450833	0,1	-0,015786
0,452500	0,1	0,009082
0,454167	0,1	-0,015170
0,455833	0,1	0,036240
0,457500	0,1	0,004253
0,459167	0,1	0,008716
0,460833	0,1	0,010704
0,462500	0,1	-0,025164
0,464167	0,1	0,038680
0,465833	0,1	-0,000238
0,467500	0,1	-0,024505
0,469167	0,1	0,034998
0,470833	0,1	-0,014663
0,472500	0,1	0,010427
0,474167	0,1	0,027430
0,475833	0,1	0,036104
0,477500	0,1	0,007896
0,479167	0,1	-0,014879
0,480833	0,1	0,009830
0,482500	0,1	0,022315
0,484167	0,1	0,028549
0,485833	0,1	0,059332
0,487500	0,1	-0,014578
0,489167	0,1	0,007263
0,490833	0,1	0,024987
0,492500	0,1	0,041777
0,494167	0,1	0,026297
0,495833	0,1	0,010937
0,497500	0,1	0,033329
0,499167	0,1	0,008102
0,500833	0,1	-0,015232
0,502500	0,1	-0,035478
0,504167	0,1	0,026548
0,505833	0,1	0,037471
0,507500	0,1	0,006861
0,509167	0,1	-0,021024
0,510833	0,1	0,005169
0,512500	0,1	0,063071
0,514167	0,1	0,000742
0,515833	0,1	0,024300
0,517500	0,1	-0,007941
0,519167	0,1	0,010305
0,520833	0,1	0,016811
0,522500	0,1	0,007000
0,524167	0,1	-0,008463
0,525833	0,1	-0,005612
0,527500	0,1	-0,001138
0,529167	0,1	0,054833
0,530833	0,1	0,009908
0,532500	0,1	0,017762
0,534167	0,1	0,025278
0,535833	0,1	0,023478
0,537500	0,1	0,032420
0,539167	0,1	-0,006261
0,540833	0,1	0,023182
0,542500	0,1	-0,001525
0,544167	0,1	0,042040
0,545833	0,1	0,015327
0,547500	0,1	0,032729
0,549167	0,1	0,031428
0,550833	0,1	-0,000137
0,552500	0,1	0,009024
0,554167	0,1	0,038214
0,555833	0,1	0,004068
0,557500	0,1	0,063381
0,559167	0,1	0,022225
0,560833	0,1	0,023269
0,562500	0,1	0,033660
0,564167	0,1	0,043911
0,565833	0,1	0,032943
0,567500	0,1	0,041757
0,569167	0,1	0,025575
0,570833	0,1	0,039479
0,572500	0,1	0,017274
0,574167	0,1	0,052891
0,575833	0,1	0,043293
0,577500	0,1	0,086598
0,579167	0,1	0,024280
0,580833	0,1	0,028156
0,582500	0,1	0,007853
0,584167	0,1	0,039745
0,585833	0,1	0,061796
0,587500	0,1	0,015061
0,589167	0,1	0,094996
0,590833	0,1	0,023910
0,592500	0,1	0,045192
0,594167	0,1	0,012491
0,595833	0,1	0,045561
0,597500	0,1	0,030253
0,599167	0,1	0,073760
0,600833	0,1	0,021295
0,602500	0,1	0,042107
0,604167	0,1	0,022385
0,605833	0,1	0,062145
0,607500	0,1	0,069957
0,609167	0,1	0,059175
0,610833	0,1	0,062009
0,612500	0,1	0,076728
0,614167	0,1	0,072674
0,615833	0,1	0,057105
0,617500	0,1	0,063996
0,619167	0,1	0,064453
0,620833	0,1	0,052735
0,622500	0,1	0,013301
0,624167	0,1	0,048749
0,625833	0,1	0,079975
0,627500	0,1	0,112316
0,629167	0,1	0,082122
0,630833	0,1	0,075760
0,632500	0,1	0,053773
0,634167	0,1	0,053498
0,635833	0,1	0,050994
0,637500	0,1	0,113098
0,639167	0,1	0,055543
0,640833	0,1	0,070102
0,642500	0,1	0,085818
0,644167	0,1	0,086215
0,645833	0,1	0,116976
0,647500	0,1	0,052211
0,649167	0,1	0,082936
0,650833	0,1	0,113002
0,652500	0,1	0,091002
0,654167	0,1	0,113540
0,655833	0,1	0,103320
0,657500	0,1	0,075598
0,659167	0,1	0,080623
0,660833	0,1	0,093584
0,662500	0,1	0,123957
0,664167	0,1	0,106904
0,665833	0,1	0,127145
0,667500	0,1	0,089391
0,669167	0,1	0,114659
0,670833	0,1	0,117708
0,672500	0,1	0,124126
0,674167	0,1	0,115166
0,675833	0,1	0,108536
0,677500	0,1	0,154001
0,679167	0,1	0,115792
0,680833	0,1	0,117027
0,682500	0,1	0,142825
0,684167	0,1	0,116493
0,685833	0,1	0,126381
0,687500	0,1	0,128933
0,689167	0,1	0,134852
0,690833	0,1	0,098171
0,692500	0,1	0,131080
0,694167	0,1	0,118252
0,695833	0,1	0,108518
0,697500	0,1	0,118371
0,699167	0,1	0,159676
0,700833	0,1	0,165855
0,702500	0,1	0,128693
0,704167	0,1	0,120527
0,705833	0,1	0,150982
0,707500	0,1	0,168670
0,709167	0,1	0,159087
0,710833	0,1	0,142335
0,712500	0,1	0,191212
0,714167	0,1	0,198310
0,715833	0,1	0,156941
0,717500	0,1	0,161135
0,719167	0,1	0,190888
0,720833	0,1	0,177049
0,722500	0,1	0,174124
0,724167	0,1	0,198807
0,725833	0,1	0,165472
0,727500	0,1	0,157661
0,729167	0,1	0,182834
0,730833	0,1	0,232039
0,732500	0,1	0,192918
0,734167	0,1	0,213653
0,735833	0,1	0,184444
0,737500	0,1	0,168969
0,739167	0,1	0,222634
0,740833	0,1	0,199122
0,742500	0,1	0,210280
0,744167	0,1	0,201233
0,745833	0,1	0,211299
0,747500	0,1	0,262257
0,749167	0,1	0,236075
0,750833	0,1	0,213335
0,752500	0,1	0,221775
0,754167	0,1	0,203515
0,755833	0,1	0,201482
0,757500	0,1	0,189827
0,759167	0,1	0,205042
0,760833	0,1	0,238566
0,762500	0,1	0,197514
0,764167	0,1	0,219001
0,765833	0,1	0,236981
0,767500	0,1	0,233273
0,769167	0,1	0,170140
0,770833	0,1	0,241314
0,772500	0,1	0,219793
0,774167	0,1	0,214302
0,775833	0,1	0,200680
0,777500	0,1	0,226391
0,779167	0,1	0,157676
0,780833	0,1	0,214398
0,782500	0,1	0,217433
0,784167	0,1	0,202127
0,785833	0,1	0,229978
0,787500	0,1	0,240333
0,789167	0,1	0,217328
0,790833	0,1	0,200530
0,792500	0,1	0,211025
0,794167	0,1	0,231844
0,795833	0,1	0,206561
0,797500	0,1	0,201962
0,799167	0,1	0,221961
0,800833	0,1	0,193307
0,802500	0,1	0,174169
0,804167	0,1	0,266352
0,805833	0,1	0,201460
0,807500	0,1	0,195188
0,809167	0,1	0,228644
0,810833	0,1	0,217513
0,812500	0,1	0,228461
0,814167	0,1	0,201465
0,815833	0,1	0,252398
0,817500	0,1	0,196133
0,819167	0,1	0,182467
0,820833	0,1	0,209180
0,822500	0,1	0,210938
0,824167	0,1	0,228485
0,825833	0,1	0,223453
0,827500	0,1	0,206559
0,829167	0,1	0,232273
0,830833	0,1	0,227974
0,832500	0,1	0,220332
0,834167	0,1	0,236744
0,835833	0,1	0,218736
0,837500	0,1	0,179019
0,839167	0,1	0,192051
0,840833	0,1	0,201745
0,842500	0,1	0,226431
0,844167	0,1	0,205442
0,845833	0,1	0,223864
0,847500	0,1	0,222445
0,849167	0,1	0,195358
0,850833	0,1	0,214193
0,852500	0,1	0,229958
0,854167	0,1	0,239919
0,855833	0,1	0,214244
0,857500	0,1	0,174008
0,859167	0,1	0,197561
0,860833	0,1	0,220450
0,862500	0,1	0,244159
0,864167	0,1	0,196810
0,865833	0,1	0,207298
0,867500	0,1	0,250737
0,869167	0,1	0,213542
0,870833	0,1	0,191402
0,872500	0,1	0,212885
0,874167	0,1	0,250411
0,875833	0,1	0,218474
0,877500	0,1	0,238179
0,879167	0,1	0,204615
0,880833	0,1	0,218729
0,882500	0,1	0,186283
0,884167	0,1	0,202473
0,885833	0,1	0,204315
0,887500	0,1	0,230509
0,889167	0,1	0,255161
0,890833	0,1	0,280721
0,892500	0,1	0,239729
0,894167	0,1	0,229345
0,895833	0,1	0,228175
0,897500	0,1	0,202270
0,899167	0,1	0,242794
0,900833	0,1	0,231576
0,902500	0,1	0,297419
0,904167	0,1	0,250620
0,905833	0,1	0,233176
0,907500	0,1	0,270897
0,909167	0,1	0,221538
0,910833	0,1	0,277704
0,912500	0,1	0,244940
0,914167	0,1	0,260214
0,915833	0,1	0,266826
0,917500	0,1	0,269294
0,919167	0,1	0,282941
0,920833	0,1	0,246162
0,922500	0,1	0,252521
0,924167	0,1	0,263575
0,925833	0,1	0,277060
0,927500	0,1	0,278323
0,929167	0,1	0,240923
0,930833	0,1	0,275483
0,932500	0,1	0,298187
0,934167	0,1	0,279876
0,935833	0,1	0,311004
0,937500	0,1	0,252738
0,939167	0,1	0,277475
0,940833	0,1	0,271159
0,942500	0,1	0,272568
0,944167	0,1	0,321139
0,945833	0,1	0,272997
0,947500	0,1	0,298766
0,949167	0,1	0,302561
0,950833	0,1	0,299705
0,952500	0,1	0,306992
0,954167	0,1	0,318326
0,955833	0,1	0,307576
0,957500	0,1	0,283392
0,959167	0,1	0,271728
0,960833	0,1	0,305312
0,962500	0,1	0,305421
0,964167	0,1	0,321220
0,965833	0,1	0,291048
0,967500	0,1	0,314923
0,969167	0,1	0,343920
0,970833	0,1	0,331050
0,972500	0,1	0,307670
0,974167	0,1	0,317684
0,975833	0,1	0,329886
0,977500	0,1	0,379333
0,979167	0,1	0,317790
0,980833	0,1	0,332012
0,982500	0,1	0,356859
0,984167	0,1	0,359108
0,985833	0,1	0,330466
0,987500	0,1	0,363922
0,989167	0,1	0,331498
0,990833	0,1	0,402035
0,992500	0,1	0,355646
0,994167	0,1	0,360228
0,995833	0,1	0,380461
0,997500	0,1	0,399350
0,999167	0,1	0,364932
1,000833	0,1	0,395748
1,002500	0,1	0,396879
1,004167	0,1	0,391197
1,005833	0,1	0,407668
1,007500	0,1	0,437087
1,009167	0,1	0,415900
1,010833	0,1	0,439335
1,012500	0,1	0,435487
1,014167	0,1	0,441039
1,015833	0,1	0,490277
1,017500	0,1	0,483447
1,019167	0,1	0,482321
1,020833	0,1	0,533484
1,022500	0,1	0,564846
1,024167	0,1	0,578185
1,025833	0,1	0,534633
1,027500	0,1	0,551068
1,029167	0,1	0,558555
1,030833	0,1	0,569606
1,032500	0,1	0,602439
1,034167	0,1	0,621015
1,035833	0,1	0,584881
1,037500	0,1	0,569099
1,039167	0,1	0,600833
1,040833	0,1	0,634378
1,042500	0,1	0,640269
1,044167	0,1	0,632205
1,045833	0,1	0,648682
1,047500	0,1	0,663693
1,049167	0,1	0,702701
1,050833	0,1	0,714445
1,052500	0,1	0,733179
1,054167	0,1	0,753880
1,055833	0,1	0,824972
1,057500	0,1	0,848867
1,059167	0,1	0,898193
1,060833	0,1	1,028054
1,062500	0,1	1,140646
1,064167	0,1	1,341628
1,065833	0,1	1,513975
1,067500	0,1	1,799987
1,069167	0,1	2,129182
1,070833	0,1	2,532636
1,072500	0,1	3,077676
1,074167	0,1	3,683993
1,075833	0,1	4,447019
1,077500	0,1	5,274585
1,079167	0,1	6,339618
1,080833	0,1	7,534017
1,082500	0,1	8,828553
1,084167	0,1	10,269063
1,085833	0,1	11,862601
1,087500	0,1	13,609101
1,089167	0,1	15,437994
1,090833	0,1	17,381767
1,092500	0,1	19,316274
1,094167	0,1	21,364847
1,095833	0,1	23,402294
1,097500	0,1	25,418046
1,099167	0,1	27,336877
1,100833	0,1	29,217429
1,102500	0,1	30,943634
1,104167	0,1	32,601894
1,105833	0,1	34,033330
1,107500	0,1	35,380158
1,109167	0,1	36,541437
1,110833	0,1	37,435747
1,112500	0,1	38,274139
1,114167	0,1	38,913190
1,115833	0,1	39,409694
1,117500	0,1	39,773425
1,119167	0,1	39,989239
1,120833	0,1	40,102112
1,122500	0,1	40,195697
1,124167	0,1	40,156556
1,125833	0,1	40,061797
1,127500	0,1	39,922901
1,129167	0,1	39,769857
1,130833	0,1	39,599760
1,132500	0,1	39,455589
1,134167	0,1	39,338431
1,135833	0,1	39,204543
1,137500	0,1	39,154859
1,139167	0,1	39,107077
1,140833	0,1	39,144991
1,142500	0,1	39,314673
1,144167	0,1	39,473300
1,145833	0,1	39,768835
1,147500	0,1	40,146164
1,149167	0,1	40,613775
1,150833	0,1	41,146367
1,152500	0,1	41,827231
1,154167	0,1	42,508855
1,155833	0,1	43,314026
1,157500	0,1	44,134564
1,159167	0,1	45,075200
1,160833	0,1	45,981680
1,162500	0,1	46,996381
1,164167	0,1	48,004937
1,165833	0,1	48,942579
1,167500	0,1	49,956633
1,169167	0,1	50,876855
1,170833	0,1	51,804493
1,172500	0,1	52,629908
1,174167	0,1	53,486845
1,175833	0,1	54,257902
1,177500	0,1	54,879470
1,179167	0,1	55,512208
1,180833	0,1	56,065334
1,182500	0,1	56,515546
1,184167	0,1	56,894422
1,185833	0,1	57,246274
1,187500	0,1	57,511693
1,189167	0,1	57,697436
1,190833	0,1	57,893856
1,192500	0,1	58,024221
1,194167	0,1	58,215695
1,195833	0,1	58,401511
1,197500	0,1	58,651151
1,199167	0,1	58,914838
1,200833	0,1	59,329713
1,202500	0,1	59,900743
1,204167	0,1	60,534007
1,205833	0,1	61,404018
1,207500	0,1	62,419381
1,209167	0,1	63,718487
1,210833	0,1	65,186344
1,212500	0,1	66,883835
1,214167	0,1	68,887439
1,215833	0,1	71,053892
1,217500	0,1	73,528122
1,219167	0,1	76,197927
1,220833	0,1	79,010341
1,222500	0,1	82,054393
1,224167	0,1	85,209477
1,225833	0,1	88,415022
1,227500	0,1	91,742956
1,229167	0,1	95,027569
1,230833	0,1	98,371469
1,232500	0,1	101,655786
1,234167	0,1	104,792752
1,235833	0,1	107,849650
1,237500	0,1	110,720563
1,239167	0,1	113,415041
1,240833	0,1	115,933369
1,242500	0,1	118,146024
1,244167	0,1	120,166038
1,245833	0,1	121,884176
1,247500	0,1	123,443909
1,249167	0,1	124,596958
1,250833	0,1	125,573806
1,252500	0,1	126,266335
1,254167	0,1	126,628597
1,255833	0,1	126,733327
1,257500	0,1	126,663630
1,259167	0,1	126,248062
1,260833	0,1	125,689092
1,262500	0,1	124,726201
1,264167	0,1	123,663557
1,265833	0,1	122,383791
1,267500	0,1	120,878802
1,269167	0,1	119,138472
1,270833	0,1	117,294286
1,272500	0,1	115,248609
1,274167	0,1	113,104809
1,275833	0,1	110,775644
1,277500	0,1	108,378281
1,279167	0,1	105,869566
1,280833	0,1	103,304436
1,282500	0,1	100,718490
1,284167	0,1	98,072225
1,285833	0,1	95,332237
1,287500	0,1	92,579646
1,289167	0,1	89,882428
1,290833	0,1	87,226090
1,292500	0,1	84,576675
1,294167	0,1	81,875019
1,295833	0,1	79,288095
1,297500	0,1	76,816125
1,299167	0,1	74,310083
1,300833	0,1	71,897096
1,302500	0,1	69,588844
1,304167	0,1	67,370500
1,305833	0,1	65,167651
1,307500	0,1	63,042739
1,309167	0,1	61,010721
1,310833	0,1	59,116666
1,312500	0,1	57,268636
1,314167	0,1	55,489047
1,315833	0,1	53,716412
1,317500	0,1	52,096500
1,319167	0,1	50,553163
1,320833	0,1	49,098498
1,322500	0,1	47,636407
1,324167	0,1	46,219916
1,325833	0,1	44,958080
1,327500	0,1	43,661024
1,329167	0,1	42,493965
1,330833	0,1	41,300136
1,332500	0,1	40,200227
1,334167	0,1	39,118763
1,335833	0,1	38,090299
1,337500	0,1	37,121978
1,339167	0,1	36,113505
1,340833	0,1	35,243085
1,342500	0,1	34,347798
1,344167	0,1	33,448646
1,345833	0,1	32,610527
1,347500	0,1	31,811893
1,349167	0,1	31,003109
1,350833	0,1	30,237278
1,352500	0,1	29,504493
1,354167	0,1	28,799814
1,355833	0,1	28,132043
1,357500	0,1	27,472530
1,359167	0,1	26,788288
1,360833	0,1	26,133273
1,362500	0,1	25,532919
1,364167	0,1	24,931155
1,365833	0,1	24,326319
1,367500	0,1	23,758988
1,369167	0,1	23,172042
1,370833	0,1	22,617278
1,372500	0,1	22,100309
1,374167	0,1	21,548227
1,375833	0,1	21,091109
1,377500	0,1	20,579566
1,379167	0,1	20,097918
1,380833	0,1	19,684826
1,382500	0,1	19,184139
1,384167	0,1	18,752969
1,385833	0,1	18,328014
1,387500	0,1	17,906201
1,389167	0,1	17,503094
1,390833	0,1	17,142481
1,392500	0,1	16,733566
1,394167	0,1	16,390364
1,395833	0,1	16,012385
1,397500	0,1	15,696327
1,399167	0,1	15,374950
1,400833	0,1	15,038635
1,402500	0,1	14,741248
1,404167	0,1	14,422384
1,405833	0,1	14,117826
1,407500	0,1	13,868894
1,409167	0,1	13,601418
1,410833	0,1	13,298048
1,412500	0,1	13,094884
1,414167	0,1	12,846188
1,415833	0,1	12,599596
1,417500	0,1	12,343371
1,419167	0,1	12,188290
1,420833	0,1	11,945798
1,422500	0,1	11,716879
1,424167	0,1	11,545230
1,425833	0,1	11,399331
1,427500	0,1	11,172695
1,429167	0,1	11,017564
1,430833	0,1	10,811324
1,432500	0,1	10,716181
1,434167	0,1	10,493330
1,435833	0,1	10,354722
1,437500	0,1	10,213484
1,439167	0,1	10,035746
1,440833	0,1	9,906157
1,442500	0,1	9,758353
1,444167	0,1	9,601621
1,445833	0,1	9,514350
1,447500	0,1	9,310001
1,449167	0,1	9,247273
1,450833	0,1	9,141468
1,452500	0,1	8,961792
1,454167	0,1	8,884759
1,455833	0,1	8,752429
1,457500	0,1	8,675075
1,459167	0,1	8,522901
1,460833	0,1	8,457992
1,462500	0,1	8,301366
1,464167	0,1	8,214573
1,465833	0,1	8,150280
1,467500	0,1	8,049250
1,469167	0,1	7,970378
1,470833	0,1	7,880589
1,472500	0,1	7,831422
1,474167	0,1	7,694373
1,475833	0,1	7,629498
1,477500	0,1	7,638336
1,479167	0,1	7,530251
1,480833	0,1	7,408807
1,482500	0,1	7,406725
1,484167	0,1	7,344270
1,485833	0,1	7,275176
1,487500	0,1	7,254376
1,489167	0,1	7,196869
1,490833	0,1	7,182124
1,492500	0,1	7,114663
1,494167	0,1	7,044123
1,495833	0,1	7,038982
1,497500	0,1	6,992218
1,499167	0,1	7,000404
1,500833	0,1	6,951504
1,502500	0,1	6,894402
1,504167	0,1	6,879771
1,505833	0,1	6,888060
1,507500	0,1	6,824271
1,509167	0,1	6,798648
1,510833	0,1	6,832349
1,512500	0,1	6,789908
1,514167	0,1	6,797534
1,515833	0,1	6,762518
1,517500	0,1	6,708441
1,519167	0,1	6,724428
1,520833	0,1	6,687759
1,522500	0,1	6,692403
1,524167	0,1	6,638220
1,525833	0,1	6,660930
1,527500	0,1	6,626776
1,529167	0,1	6,567482
1,530833	0,1	6,515920
1,532500	0,1	6,569879
1,534167	0,1	6,534906
1,535833	0,1	6,475244
1,537500	0,1	6,486580
1,539167	0,1	6,441187
1,540833	0,1	6,416058
1,542500	0,1	6,436232
1,544167	0,1	6,431786
1,545833	0,1	6,368444
1,547500	0,1	6,394662
1,549167	0,1	6,321290
1,550833	0,1	6,303302
1,552500	0,1	6,298753
1,554167	0,1	6,247394
1,555833	0,1	6,199405
1,557500	0,1	6,201206
1,559167	0,1	6,191240
1,560833	0,1	6,107748
1,562500	0,1	6,111202
1,564167	0,1	6,104374
1,565833	0,1	6,012514
1,567500	0,1	6,028061
1,569167	0,1	5,958887
1,570833	0,1	5,982320
1,572500	0,1	5,920058
1,574167	0,1	5,924523
1,575833	0,1	5,884288
1,577500	0,1	5,849249
1,579167	0,1	5,843124
1,580833	0,1	5,789853
1,582500	0,1	5,777648
1,584167	0,1	5,757172
1,585833	0,1	5,703596
1,587500	0,1	5,639038
1,589167	0,1	5,623680
1,590833	0,1	5,604177
1,592500	0,1	5,557336
1,594167	0,1	5,494813
1,595833	0,1	5,501250
1,597500	0,1	5,480591
1,599167	0,1	5,436899
1,600833	0,1	5,412835
1,602500	0,1	5,374907
1,604167	0,1	5,327222
1,605833	0,1	5,335090
1,607500	0,1	5,289907
1,609167	0,1	5,248360
1,610833	0,1	5,203118
1,612500	0,1	5,154805
1,614167	0,1	5,161400
1,615833	0,1	5,125663
1,617500	0,1	5,075751
1,619167	0,1	5,091942
1,620833	0,1	5,078313
1,622500	0,1	5,047380
1,624167	0,1	4,988188
1,625833	0,1	4,982845
1,627500	0,1	4,989334
1,629167	0,1	4,911229
1,630833	0,1	4,881058
1,632500	0,1	4,920435
1,634167	0,1	4,897616
1,635833	0,1	4,877465
1,637500	0,1	4,842055
1,639167	0,1	4,855755
1,640833	0,1	4,871198
1,642500	0,1	4,869684
1,644167	0,1	4,854730
1,645833	0,1	4,866789
1,647500	0,1	4,901048
1,649167	0,1	4,967026
1,650833	0,1	4,919062
1,652500	0,1	4,963097
1,654167	0,1	5,036795
1,655833	0,1	5,090126
1,657500	0,1	5,117828
1,659167	0,1	5,150804
1,660833	0,1	5,280121
1,662500	0,1	5,398199
1,664167	0,1	5,450006
1,665833	0,1	5,543588
1,667500	0,1	5,668118
1,669167	0,1	5,813977
1,670833	0,1	5,954594
1,672500	0,1	6,121739
1,674167	0,1	6,285308
1,675833	0,1	6,451014
1,677500	0,1	6,673176
1,679167	0,1	6,883632
1,680833	0,1	7,113383
1,682500	0,1	7,349789
1,684167	0,1	7,655047
1,685833	0,1	7,897016
1,687500	0,1	8,238472
1,689167	0,1	8,517307
1,690833	0,1	8,866012
1,692500	0,1	9,213359
1,694167	0,1	9,575185
1,695833	0,1	9,969997
1,697500	0,1	10,396830
1,699167	0,1	10,769795
1,700833	0,1	11,194157
1,702500	0,1	11,669761
1,704167	0,1	12,105922
1,705833	0,1	12,580569
1,707500	0,1	13,025588
1,709167	0,1	13,523543
1,710833	0,1	14,073403
1,712500	0,1	14,577218
1,714167	0,1	15,070479
1,715833	0,1	15,549377
1,717500	0,1	16,092865
1,719167	0,1	16,610668
1,720833	0,1	17,190405
1,722500	0,1	17,718886
1,724167	0,1	18,224510
1,725833	0,1	18,762871
1,727500	0,1	19,308145
1,729167	0,1	19,834983
1,730833	0,1	20,329441
1,732500	0,1	20,825524
1,734167	0,1	21,333653
1,735833	0,1	21,830395
1,737500	0,1	22,314227
1,739167	0,1	22,791824
1,740833	0,1	23,228058
1,742500	0,1	23,707390
1,744167	0,1	24,107827
1,745833	0,1	24,485032
1,747500	0,1	24,923855
1,749167	0,1	25,261180
1,750833	0,1	25,626908
1,752500	0,1	25,936862
1,754167	0,1	26,274487
1,755833	0,1	26,611483
1,757500	0,1	26,842808
1,759167	0,1	27,133273
1,760833	0,1	27,288159
1,762500	0,1	27,549748
1,764167	0,1	27,683392
1,765833	0,1	27,860893
1,767500	0,1	27,958619
1,769167	0,1	28,117235
1,770833	0,1	28,175996
1,772500	0,1	28,262685
1,774167	0,1	28,289008
1,775833	0,1	28,331967
1,777500	0,1	28,315047
1,779167	0,1	28,288607
1,780833	0,1	28,241384
1,782500	0,1	28,206351
1,784167	0,1	28,099479
1,785833	0,1	28,002134
1,787500	0,1	27,881623
1,789167	0,1	27,723336
1,790833	0,1	27,550363
1,792500	0,1	27,395788
1,794167	0,1	27,219781
1,795833	0,1	26,968982
1,797500	0,1	26,742065
1,799167	0,1	26,490905
1,800833	0,1	26,281912
1,802500	0,1	25,961208
1,804167	0,1	25,691992
1,805833	0,1	25,336808
1,807500	0,1	25,124185
1,809167	0,1	24,762935
1,810833	0,1	24,435358
1,812500	0,1	24,118339
1,814167	0,1	23,742502
1,815833	0,1	23,420054
1,817500	0,1	23,068175
1,819167	0,1	22,702503
1,820833	0,1	22,312551
1,822500	0,1	21,961186
1,824167	0,1	21,552435
1,825833	0,1	21,230577
1,827500	0,1	20,797522
1,829167	0,1	20,465046
1,830833	0,1	20,081046
1,832500	0,1	19,746917
1,834167	0,1	19,411621
1,835833	0,1	18,999071
1,837500	0,1	18,618201
1,839167	0,1	18,304107
1,840833	0,1	17,912836
1,842500	0,1	17,525454
1,844167	0,1	17,232600
1,845833	0,1	16,913835
1,847500	0,1	16,582432
1,849167	0,1	16,281065
1,850833	0,1	15,958038
1,852500	0,1	15,683940
1,854167	0,1	15,434756
1,855833	0,1	15,186671
1,857500	0,1	14,926500
1,859167	0,1	14,615908
1,860833	0,1	14,454446
1,862500	0,1	14,136500
1,864167	0,1	13,928273
1,865833	0,1	13,729119
1,867500	0,1	13,476401
1,869167	0,1	13,291362
1,870833	0,1	13,088449
1,872500	0,1	12,915792
1,874167	0,1	12,753668
1,875833	0,1	12,514635
1,877500	0,1	12,318928
1,879167	0,1	12,142834
1,880833	0,1	11,943799
1,882500	0,1	11,759381
1,884167	0,1	11,589433
1,885833	0,1	11,430545
1,887500	0,1	11,306252
1,889167	0,1	11,113850
1,890833	0,1	10,935801
1,892500	0,1	10,797661
1,894167	0,1	10,633545
1,895833	0,1	10,510074
1,897500	0,1	10,363317
1,899167	0,1	10,230135
1,900833	0,1	10,078768
1,902500	0,1	9,976853
1,904167	0,1	9,831657
1,905833	0,1	9,747794
1,907500	0,1	9,568231
1,909167	0,1	9,504675
1,910833	0,1	9,388358
1,912500	0,1	9,244180
1,914167	0,1	9,141498
1,915833	0,1	9,037370
1,917500	0,1	8,930138
1,919167	0,1	8,846695
1,920833	0,1	8,755289
1,922500	0,1	8,673240
1,924167	0,1	8,549296
1,925833	0,1	8,491564
1,927500	0,1	8,328170
1,929167	0,1	8,260653
1,930833	0,1	8,177860
1,932500	0,1	8,107582
1,934167	0,1	8,023119
1,935833	0,1	7,922211
1,937500	0,1	7,875157
1,939167	0,1	7,760800
1,940833	0,1	7,722259
1,942500	0,1	7,645637
1,944167	0,1	7,548413
1,945833	0,1	7,463074
1,947500	0,1	7,417733
1,949167	0,1	7,349856
1,950833	0,1	7,279375
1,952500	0,1	7,187840
1,954167	0,1	7,138518
1,955833	0,1	7,117916
1,957500	0,1	7,053719
1,959167	0,1	7,055008
1,960833	0,1	6,955155
1,962500	0,1	6,904838
1,964167	0,1	6,866180
1,965833	0,1	6,809658
1,967500	0,1	6,799209
1,969167	0,1	6,758435
1,970833	0,1	6,711873
1,972500	0,1	6,690821
1,974167	0,1	6,655266
1,975833	0,1	6,663174
1,977500	0,1	6,649304
1,979167	0,1	6,598560
1,980833	0,1	6,593454
1,982500	0,1	6,557968
1,984167	0,1	6,585249
1,985833	0,1	6,532586
1,987500	0,1	6,540207
1,989167	0,1	6,527265
1,990833	0,1	6,515917
1,992500	0,1	6,553222
1,994167	0,1	6,528761
1,995833	0,1	6,510428
1,997500	0,1	6,501850
1,999167	0,1	6,550249
2,000833	0,1	6,571281
2,002500	0,1	6,546918
2,004167	0,1	6,548286
2,005833	0,1	6,544014
2,007500	0,1	6,584313
2,009167	0,1	6,573053
2,010833	0,1	6,599285
2,012500	0,1	6,609915
2,014167	0,1	6,626656
2,015833	0,1	6,654965
2,017500	0,1	6,650880
2,019167	0,1	6,713792
2,020833	0,1	6,716331
2,022500	0,1	6,748354
2,024167	0,1	6,762322
2,025833	0,1	6,817637
2,027500	0,1	6,832636
2,029167	0,1	6,855544
2,030833	0,1	6,874727
2,032500	0,1	6,932201
2,034167	0,1	6,917308
2,035833	0,1	6,992655
2,037500	0,1	6,988203
2,039167	0,1	7,013630
2,040833	0,1	7,095711
2,042500	0,1	7,117628
2,044167	0,1	7,130771
2,045833	0,1	7,173266
2,047500	0,1	7,196755
2,049167	0,1	7,248499
2,050833	0,1	7,312163
2,052500	0,1	7,341070
2,054167	0,1	7,385168
2,055833	0,1	7,390866
2,057500	0,1	7,434223
2,059167	0,1	7,500259
2,060833	0,1	7,486752
2,062500	0,1	7,544473
2,064167	0,1	7,584600
2,065833	0,1	7,605869
2,067500	0,1	7,636651
2,069167	0,1	7,694049
2,070833	0,1	7,679887
2,072500	0,1	7,745451
2,074167	0,1	7,752020
2,075833	0,1	7,795617
2,077500	0,1	7,807193
2,079167	0,1	7,879218
2,080833	0,1	7,915183
2,082500	0,1	7,912675
2,084167	0,1	7,944304
2,085833	0,1	7,944144
2,087500	0,1	7,987847
2,089167	0,1	8,038331
2,090833	0,1	8,095863
2,092500	0,1	8,079273
2,094167	0,1	8,078811
2,095833	0,1	8,120975
2,097500	0,1	8,166308
2,099167	0,1	8,144434
2,100833	0,1	8,184521
2,102500	0,1	8,178681
2,104167	0,1	8,190106
2,105833	0,1	8,217126
2,107500	0,1	8,228067
2,109167	0,1	8,278064
2,110833	0,1	8,311054
2,112500	0,1	8,274814
2,114167	0,1	8,335708
2,115833	0,1	8,302467
2,117500	0,1	8,330402
2,119167	0,1	8,271409
2,120833	0,1	8,334775
2,122500	0,1	8,342242
2,124167	0,1	8,350687
2,125833	0,1	8,314201
2,127500	0,1	8,351731
2,129167	0,1	8,364546
2,130833	0,1	8,388115
2,132500	0,1	8,361818
2,134167	0,1	8,354973
2,135833	0,1	8,342624
2,137500	0,1	8,387041
2,139167	0,1	8,368160
2,140833	0,1	8,324453
2,142500	0,1	8,359465
2,144167	0,1	8,310933
2,145833	0,1	8,291838
2,147500	0,1	8,306381
2,149167	0,1	8,306166
2,150833	0,1	8,338212
2,152500	0,1	8,242242
2,154167	0,1	8,219770
2,155833	0,1	8,243719
2,157500	0,1	8,267506
2,159167	0,1	8,213497
2,160833	0,1	8,214551
2,162500	0,1	8,176039
2,164167	0,1	8,148129
2,165833	0,1	8,134378
2,167500	0,1	8,105234
2,169167	0,1	8,111470
2,170833	0,1	8,082954
2,172500	0,1	8,072097
2,174167	0,1	7,991994
2,175833	0,1	8,022090
2,177500	0,1	7,958985
2,179167	0,1	8,010110
2,180833	0,1	7,976501
2,182500	0,1	7,948589
2,184167	0,1	7,889329
2,185833	0,1	7,881959
2,187500	0,1	7,858691
2,189167	0,1	7,881624
2,190833	0,1	7,862708
2,192500	0,1	7,810151
2,194167	0,1	7,760881
2,195833	0,1	7,732730
2,197500	0,1	7,727477
2,199167	0,1	7,684263
2,200833	0,1	7,685924
2,202500	0,1	7,638725
2,204167	0,1	7,622589
2,205833	0,1	7,590495
2,207500	0,1	7,561377
2,209167	0,1	7,551020
2,210833	0,1	7,526027
2,212500	0,1	7,544387
2,214167	0,1	7,513974
2,215833	0,1	7,433509
2,217500	0,1	7,429289
2,219167	0,1	7,386505
2,220833	0,1	7,409045
2,222500	0,1	7,350422
2,224167	0,1	7,383111
2,225833	0,1	7,318432
2,227500	0,1	7,321962
2,229167	0,1	7,311428
2,230833	0,1	7,280201
2,232500	0,1	7,270782
2,234167	0,1	7,264248
2,235833	0,1	7,229394
2,237500	0,1	7,207301
2,239167	0,1	7,188100
2,240833	0,1	7,178963
2,242500	0,1	7,181191
2,244167	0,1	7,170942
2,245833	0,1	7,169635
2,247500	0,1	7,130877
2,249167	0,1	7,107385
2,250833	0,1	7,115487
2,252500	0,1	7,092940
2,254167	0,1	7,056136
2,255833	0,1	7,046345
2,257500	0,1	7,034605
2,259167	0,1	7,030690
2,260833	0,1	6,993429
2,262500	0,1	7,005623
2,264167	0,1	6,955420
2,265833	0,1	6,895889
2,267500	0,1	6,974767
2,269167	0,1	6,906050
2,270833	0,1	6,930902
2,272500	0,1	6,904647
2,274167	0,1	6,905010
2,275833	0,1	6,899703
2,277500	0,1	6,847734
2,279167	0,1	6,816348
2,280833	0,1	6,833847
2,282500	0,1	6,795023
2,284167	0,1	6,773888
2,285833	0,1	6,784118
2,287500	0,1	6,793995
2,289167	0,1	6,763453
2,290833	0,1	6,757680
2,292500	0,1	6,708048
2,294167	0,1	6,744542
2,295833	0,1	6,684034
2,297500	0,1	6,698355
2,299167	0,1	6,671735
2,300833	0,1	6,642506
2,302500	0,1	6,630219
2,304167	0,1	6,638685
2,305833	0,1	6,595899
2,307500	0,1	6,597531
2,309167	0,1	6,560028
2,310833	0,1	6,518424
2,312500	0,1	6,523360
2,314167	0,1	6,583378
2,315833	0,1	6,522816
2,317500	0,1	6,495256
2,319167	0,1	6,514130
2,320833	0,1	6,513505
2,322500	0,1	6,477209
2,324167	0,1	6,423230
2,325833	0,1	6,380802
2,327500	0,1	6,405644
2,329167	0,1	6,351220
2,330833	0,1	6,389050
2,332500	0,1	6,375334
2,334167	0,1	6,346373
2,335833	0,1	6,289627
2,337500	0,1	6,302835
2,339167	0,1	6,295036
2,340833	0,1	6,289535
2,342500	0,1	6,243957
2,344167	0,1	6,255135
2,345833	0,1	6,243029
2,347500	0,1	6,265280
2,349167	0,1	6,200611
2,350833	0,1	6,199126
2,352500	0,1	6,222707
2,354167	0,1	6,190123
2,355833	0,1	6,210494
2,357500	0,1	6,142969
2,359167	0,1	6,163789
2,360833	0,1	6,152541
2,362500	0,1	6,135577
2,364167	0,1	6,123634
2,365833	0,1	6,113677
2,367500	0,1	6,145587
2,369167	0,1	6,137465
2,370833	0,1	6,123135
2,372500	0,1	6,143521
2,374167	0,1	6,119806
2,375833	0,1	6,140433
2,377500	0,1	6,147021
2,379167	0,1	6,171689
2,380833	0,1	6,193339
2,382500	0,1	6,213646
2,384167	0,1	6,204886
2,385833	0,1	6,246551
2,387500	0,1	6,274631
2,389167	0,1	6,336414
2,390833	0,1	6,334836
2,392500	0,1	6,414922
2,394167	0,1	6,434393
2,395833	0,1	6,491502
2,397500	0,1	6,622548
2,399167	0,1	6,685678
2,400833	0,1	6,789866
2,402500	0,1	6,819500
2,404167	0,1	6,983411
2,405833	0,1	7,054899
2,407500	0,1	7,206141
2,409167	0,1	7,327534
2,410833	0,1	7,468053
2,412500	0,1	7,601759
2,414167	0,1	7,785652
2,415833	0,1	7,949947
2,417500	0,1	8,175321
2,419167	0,1	8,345474
2,420833	0,1	8,521489
2,422500	0,1	8,729502
2,424167	0,1	8,995358
2,425833	0,1	9,187625
2,427500	0,1	9,403122
2,429167	0,1	9,696109
2,430833	0,1	9,917277
2,432500	0,1	10,248051
2,434167	0,1	10,451978
2,435833	0,1	10,722563
2,437500	0,1	11,021961
2,439167	0,1	11,295472
2,440833	0,1	11,521431
2,442500	0,1	11,855808
2,444167	0,1	12,121609
2,445833	0,1	12,438975
2,447500	0,1	12,680001
2,449167	0,1	12,947449
2,450833	0,1	13,231131
2,452500	0,1	13,499986
2,454167	0,1	13,753475
2,455833	0,1	14,013220
2,457500	0,1	14,278444
2,459167	0,1	14,537444
2,460833	0,1	14,762173
2,462500	0,1	15,017752
2,464167	0,1	15,276013
2,465833	0,1	15,480146
2,467500	0,1	15,682762
2,469167	0,1	15,940719
2,470833	0,1	16,200165
2,472500	0,1	16,373567
2,474167	0,1	16,570763
2,475833	0,1	16,796271
2,477500	0,1	16,983906
2,479167	0,1	17,223233
2,480833	0,1	17,489020
2,482500	0,1	17,672887
2,484167	0,1	17,849026
2,485833	0,1	18,135103
2,487500	0,1	18,396696
2,489167	0,1	18,583585
2,490833	0,1	18,899841
2,492500	0,1	19,137159
2,494167	0,1	19,509847
2,495833	0,1	19,764130
2,497500	0,1	20,139601
2,499167	0,1	20,481851
2,500833	0,1	20,887436
2,502500	0,1	21,275555
2,504167	0,1	21,700701
2,505833	0,1	22,143878
2,507500	0,1	22,651175
2,509167	0,1	23,136911
2,510833	0,1	23,686535
2,512500	0,1	24,288434
2,514167	0,1	24,927731
2,515833	0,1	25,591336
2,517500	0,1	26,286968
2,519167	0,1	26,975713
2,520833	0,1	27,742940
2,522500	0,1	28,523579
2,524167	0,1	29,359695
2,525833	0,1	30,202646
2,527500	0,1	31,086825
2,529167	0,1	31,979310
2,530833	0,1	32,966866
2,532500	0,1	33,902701
2,534167	0,1	34,934406
2,535833	0,1	35,950790
2,537500	0,1	37,026892
2,539167	0,1	38,067356
2,540833	0,1	39,135196
2,542500	0,1	40,266764
2,544167	0,1	41,332513
2,545833	0,1	42,445850
2,547500	0,1	43,550872
2,549167	0,1	44,679139
2,550833	0,1	45,807706
2,552500	0,1	46,947768
2,554167	0,1	48,043119
2,555833	0,1	49,171424
2,557500	0,1	50,224160
2,559167	0,1	51,321804
2,560833	0,1	52,385071
2,562500	0,1	53,421664
2,564167	0,1	54,413172
2,565833	0,1	55,363058
2,567500	0,1	56,306276
2,569167	0,1	57,233356
2,570833	0,1	58,143472
2,572500	0,1	58,995096
2,574167	0,1	59,785907
2,575833	0,1	60,553467
2,577500	0,1	61,318942
2,579167	0,1	61,966090
2,580833	0,1	62,635522
2,582500	0,1	63,255577
2,584167	0,1	63,832473
2,585833	0,1	64,324277
2,587500	0,1	64,775163
2,589167	0,1	65,260409
2,590833	0,1	65,588559
2,592500	0,1	66,000358
2,594167	0,1	66,333864
2,595833	0,1	66,585218
2,597500	0,1	66,847300
2,599167	0,1	67,015248
2,600833	0,1	67,168279
2,602500	0,1	67,253834
2,604167	0,1	67,284730
2,605833	0,1	67,385399
2,607500	0,1	67,376310
2,609167	0,1	67,343783
2,610833	0,1	67,219583
2,612500	0,1	67,181539
2,614167	0,1	67,014111
2,615833	0,1	66,847573
2,617500	0,1	66,646464
2,619167	0,1	66,380971
2,620833	0,1	66,184338
2,622500	0,1	65,830996
2,624167	0,1	65,518920
2,625833	0,1	65,217904
2,627500	0,1	64,857872
2,629167	0,1	64,463511
2,630833	0,1	64,038286
2,632500	0,1	63,586540
2,634167	0,1	63,132083
2,635833	0,1	62,626420
2,637500	0,1	62,076959
2,639167	0,1	61,618888
2,640833	0,1	61,049901
2,642500	0,1	60,499152
2,644167	0,1	59,914708
2,645833	0,1	59,333482
2,647500	0,1	58,761425
2,649167	0,1	58,141223
2,650833	0,1	57,500394
2,652500	0,1	56,801860
2,654167	0,1	56,175766
2,655833	0,1	55,522647
2,657500	0,1	54,862010
2,659167	0,1	54,178178
2,660833	0,1	53,468301
2,662500	0,1	52,732025
2,664167	0,1	52,062707
2,665833	0,1	51,331541
2,667500	0,1	50,617788
2,669167	0,1	49,893354
2,670833	0,1	49,166786
2,672500	0,1	48,414263
2,674167	0,1	47,692371
2,675833	0,1	46,975174
2,677500	0,1	46,269592
2,679167	0,1	45,488234
2,680833	0,1	44,773807
2,682500	0,1	44,028962
2,684167	0,1	43,315081
2,685833	0,1	42,577302
2,687500	0,1	41,879407
2,689167	0,1	41,147124
2,690833	0,1	40,507829
2,692500	0,1	39,753142
2,694167	0,1	39,070526
2,695833	0,1	38,345334
2,697500	0,1	37,638114
2,699167	0,1	37,025899
2,700833	0,1	36,305021
2,702500	0,1	35,660374
2,704167	0,1	35,035156
2,705833	0,1	34,361076
2,707500	0,1	33,744504
2,709167	0,1	33,022038
2,710833	0,1	32,470014
2,712500	0,1	31,877584
2,714167	0,1	31,211564
2,715833	0,1	30,651298
2,717500	0,1	30,115257
2,719167	0,1	29,537034
2,720833	0,1	28,994795
2,722500	0,1	28,414271
2,724167	0,1	27,906732
2,725833	0,1	27,398357
2,727500	0,1	26,876801
2,729167	0,1	26,349244
2,730833	0,1	25,837854
2,732500	0,1	25,406595
2,734167	0,1	24,869235
2,735833	0,1	24,429781
2,737500	0,1	23,983563
2,739167	0,1	23,486725
2,740833	0,1	23,106660
2,742500	0,1	22,622852
2,744167	0,1	22,256800
2,745833	0,1	21,840193
2,747500	0,1	21,455041
2,749167	0,1	21,056020
2,750833	0,1	20,661487
2,752500	0,1	20,284269
2,754167	0,1	19,956643
2,755833	0,1	19,586893
2,757500	0,1	19,259602
2,759167	0,1	18,922855
2,760833	0,1	18,596490
2,762500	0,1	18,250452
2,764167	0,1	17,931379
2,765833	0,1	17,623057
2,767500	0,1	17,290895
2,769167	0,1	17,036373
2,770833	0,1	16,763972
2,772500	0,1	16,411850
2,774167	0,1	16,202431
2,775833	0,1	15,894925
2,777500	0,1	15,621803
2,779167	0,1	15,396453
2,780833	0,1	15,164326
2,782500	0,1	14,866160
2,784167	0,1	14,635928
2,785833	0,1	14,420748
2,787500	0,1	14,159566
2,789167	0,1	13,970699
2,790833	0,1	13,716773
2,792500	0,1	13,496377
2,794167	0,1	13,284359
2,795833	0,1	13,078681
2,797500	0,1	12,859880
2,799167	0,1	12,730108
2,800833	0,1	12,446194
2,802500	0,1	12,261060
2,804167	0,1	12,037068
2,805833	0,1	11,880202
2,807500	0,1	11,751414
2,809167	0,1	11,510318
2,810833	0,1	11,359662
2,812500	0,1	11,202409
2,814167	0,1	11,011444
2,815833	0,1	10,843449
2,817500	0,1	10,694105
2,819167	0,1	10,532268
2,820833	0,1	10,391369
2,822500	0,1	10,235112
2,824167	0,1	10,069698
2,825833	0,1	9,879127
2,827500	0,1	9,736603
2,829167	0,1	9,639176
2,830833	0,1	9,471769
2,832500	0,1	9,328967
2,834167	0,1	9,216541
2,835833	0,1	9,084219
2,837500	0,1	8,922856
2,839167	0,1	8,823627
2,840833	0,1	8,732043
2,842500	0,1	8,577427
2,844167	0,1	8,453070
2,845833	0,1	8,337137
2,847500	0,1	8,226171
2,849167	0,1	8,090023
2,850833	0,1	8,034825
2,852500	0,1	7,884887
2,854167	0,1	7,799825
2,855833	0,1	7,643926
2,857500	0,1	7,593104
2,859167	0,1	7,524842
2,860833	0,1	7,367423
2,862500	0,1	7,274445
2,864167	0,1	7,194269
2,865833	0,1	7,102929
2,867500	0,1	7,030426
2,869167	0,1	6,931862
2,870833	0,1	6,832183
2,872500	0,1	6,770907
2,874167	0,1	6,649132
2,875833	0,1	6,609354
2,877500	0,1	6,534637
2,879167	0,1	6,469678
2,880833	0,1	6,355040
2,882500	0,1	6,298182
2,884167	0,1	6,212513
2,885833	0,1	6,138578
2,887500	0,1	6,107161
2,889167	0,1	6,048548
2,890833	0,1	5,982045
2,892500	0,1	5,876815
2,894167	0,1	5,820618
2,895833	0,1	5,755019
2,897500	0,1	5,723339
2,899167	0,1	5,644197
2,900833	0,1	5,569044
2,902500	0,1	5,520700
2,904167	0,1	5,472730
2,905833	0,1	5,430900
2,907500	0,1	5,415887
2,909167	0,1	5,337146
2,910833	0,1	5,238183
2,912500	0,1	5,234767
2,914167	0,1	5,175789
2,915833	0,1	5,097044
2,917500	0,1	5,098522
2,919167	0,1	5,042189
2,920833	0,1	4,991716
2,922500	0,1	4,967299
2,924167	0,1	4,908408
2,925833	0,1	4,873123
2,927500	0,1	4,793996
2,929167	0,1	4,762171
2,930833	0,1	4,766772
2,932500	0,1	4,664103
2,934167	0,1	4,680479
2,935833	0,1	4,640427
2,937500	0,1	4,573108
2,939167	0,1	4,500476
2,940833	0,1	4,457596
2,942500	0,1	4,443401
2,944167	0,1	4,416537
2,945833	0,1	4,413046
2,947500	0,1	4,382785
2,949167	0,1	4,301852
2,950833	0,1	4,291464
2,952500	0,1	4,273114
2,954167	0,1	4,249341
2,955833	0,1	4,184866
2,957500	0,1	4,188581
2,959167	0,1	4,128818
2,960833	0,1	4,095484
2,962500	0,1	4,056252
2,964167	0,1	4,070660
2,965833	0,1	4,033659
2,967500	0,1	4,006335
2,969167	0,1	3,979906
2,970833	0,1	3,938526
2,972500	0,1	3,912677
2,974167	0,1	3,864591
2,975833	0,1	3,839067
2,977500	0,1	3,856158
2,979167	0,1	3,784960
2,980833	0,1	3,824584
2,982500	0,1	3,782002
2,984167	0,1	3,758142
2,985833	0,1	3,692370
2,987500	0,1	3,703740
2,989167	0,1	3,700116
2,990833	0,1	3,678966
2,992500	0,1	3,616229
2,994167	0,1	3,608397
2,995833	0,1	3,595378
2,997500	0,1	3,537284
2,999167	0,1	3,507697
3,000833	0,1	3,509627
3,002500	0,1	3,501815
3,004167	0,1	3,475553
3,005833	0,1	3,461810
3,007500	0,1	3,455754
3,009167	0,1	3,402338
3,010833	0,1	3,412718
3,012500	0,1	3,372320
3,014167	0,1	3,343727
3,015833	0,1	3,337561
3,017500	0,1	3,296896
3,019167	0,1	3,295921
3,020833	0,1	3,274892
3,022500	0,1	3,238381
3,024167	0,1	3,219797
3,025833	0,1	3,225098
3,027500	0,1	3,179642
3,029167	0,1	3,135682
3,030833	0,1	3,170746
3,032500	0,1	3,140909
3,034167	0,1	3,148354
3,035833	0,1	3,122295
3,037500	0,1	3,085185
3,039167	0,1	3,104034
3,040833	0,1	3,058612
3,042500	0,1	3,053507
3,044167	0,1	3,041305
3,045833	0,1	3,032870
3,047500	0,1	3,023058
3,049167	0,1	2,976404
3,050833	0,1	2,983829
3,052500	0,1	2,953559
3,054167	0,1	2,966456
3,055833	0,1	2,924560
3,057500	0,1	2,923168
3,059167	0,1	2,932648
3,060833	0,1	2,869996
3,062500	0,1	2,875372
3,064167	0,1	2,902501
3,065833	0,1	2,856288
3,067500	0,1	2,820671
3,069167	0,1	2,820389
3,070833	0,1	2,785665
3,072500	0,1	2,811414
3,074167	0,1	2,776833
3,075833	0,1	2,774665
3,077500	0,1	2,771955
3,079167	0,1	2,732483
3,080833	0,1	2,732695
3,082500	0,1	2,742369
3,084167	0,1	2,728380
3,085833	0,1	2,714328
3,087500	0,1	2,695159
3,089167	0,1	2,713869
3,090833	0,1	2,697235
3,092500	0,1	2,657370
3,094167	0,1	2,689907
3,095833	0,1	2,651615
3,097500	0,1	2,663731
3,099167	0,1	2,668049
3,100833	0,1	2,638338
3,102500	0,1	2,656831
3,104167	0,1	2,627876
3,105833	0,1	2,665876
3,107500	0,1	2,640070
3,109167	0,1	2,658490
3,110833	0,1	2,642985
3,112500	0,1	2,640342
3,114167	0,1	2,663287
3,115833	0,1	2,673916
3,117500	0,1	2,664726
3,119167	0,1	2,668042
3,120833	0,1	2,684818
3,122500	0,1	2,691776
3,124167	0,1	2,688199
3,125833	0,1	2,711643
3,127500	0,1	2,687190
3,129167	0,1	2,680240
3,130833	0,1	2,701396
3,132500	0,1	2,740223
3,134167	0,1	2,696604
3,135833	0,1	2,726145
3,137500	0,1	2,720574
3,139167	0,1	2,753935
3,140833	0,1	2,756591
3,142500	0,1	2,766837
3,144167	0,1	2,733984
3,145833	0,1	2,739309
3,147500	0,1	2,737555
3,149167	0,1	2,815179
3,150833	0,1	2,790246
3,152500	0,1	2,789891
3,154167	0,1	2,835955
3,155833	0,1	2,823896
3,157500	0,1	2,810554
3,159167	0,1	2,832667
3,160833	0,1	2,844099
3,162500	0,1	2,840141
3,164167	0,1	2,839345
3,165833	0,1	2,871774
3,167500	0,1	2,892648
3,169167	0,1	2,900045
3,170833	0,1	2,895402
3,172500	0,1	2,895461
3,174167	0,1	2,898705
3,175833	0,1	2,896679
3,177500	0,1	2,898706
3,179167	0,1	2,901649
3,180833	0,1	2,911461
3,182500	0,1	2,911105
3,184167	0,1	2,896608
3,185833	0,1	2,917273
3,187500	0,1	2,912425
3,189167	0,1	2,910534
3,190833	0,1	2,887852
3,192500	0,1	2,943109
3,194167	0,1	2,897425
3,195833	0,1	2,902193
3,197500	0,1	2,925026
3,199167	0,1	2,885209
3,200833	0,1	2,847465
3,202500	0,1	2,882198
3,204167	0,1	2,880106
3,205833	0,1	2,822912
3,207500	0,1	2,844917
3,209167	0,1	2,865380
3,210833	0,1	2,808837
3,212500	0,1	2,825614
3,214167	0,1	2,815001
3,215833	0,1	2,803100
3,217500	0,1	2,780335
3,219167	0,1	2,783082
3,220833	0,1	2,769850
3,222500	0,1	2,780592
3,224167	0,1	2,710735
3,225833	0,1	2,729166
3,227500	0,1	2,744243
3,229167	0,1	2,698634
3,230833	0,1	2,682373
3,232500	0,1	2,692938
3,234167	0,1	2,665172
3,235833	0,1	2,649967
3,237500	0,1	2,602480
3,239167	0,1	2,616449
3,240833	0,1	2,565190
3,242500	0,1	2,583667
3,244167	0,1	2,598159
3,245833	0,1	2,523518
3,247500	0,1	2,520055
3,249167	0,1	2,504919
3,250833	0,1	2,512951
3,252500	0,1	2,513088
3,254167	0,1	2,475306
3,255833	0,1	2,456147
3,257500	0,1	2,485467
3,259167	0,1	2,415436
3,260833	0,1	2,406532
3,262500	0,1	2,386022
3,264167	0,1	2,387235
3,265833	0,1	2,344806
3,267500	0,1	2,339991
3,269167	0,1	2,295913
3,270833	0,1	2,343846
3,272500	0,1	2,291183
3,274167	0,1	2,291884
3,275833	0,1	2,278340
3,277500	0,1	2,229177
3,279167	0,1	2,223647
3,280833	0,1	2,183234
3,282500	0,1	2,209950
3,284167	0,1	2,182943
3,285833	0,1	2,133574
3,287500	0,1	2,110636
3,289167	0,1	2,087779
3,290833	0,1	2,092857
3,292500	0,1	2,083983
3,294167	0,1	2,049739
3,295833	0,1	2,071292
3,297500	0,1	2,043070
3,299167	0,1	2,023226
3,300833	0,1	2,014480
3,302500	0,1	1,986984
3,304167	0,1	1,969213
3,305833	0,1	1,930676
3,307500	0,1	1,915855
3,309167	0,1	1,943345
3,310833	0,1	1,932466
3,312500	0,1	1,901237
3,314167	0,1	1,896590
3,315833	0,1	1,844661
3,317500	0,1	1,864479
3,319167	0,1	1,806927
3,320833	0,1	1,860329
3,322500	0,1	1,759546
3,324167	0,1	1,832829
3,325833	0,1	1,781503
3,327500	0,1	1,808056
3,329167	0,1	1,794469
3,330833	0,1	1,762898
3,332500	0,1	1,727390
3,334167	0,1	1,734321
3,335833	0,1	1,721944
3,337500	0,1	1,722308
3,339167	0,1	1,680844
3,340833	0,1	1,689139
3,342500	0,1	1,706752
3,344167	0,1	1,691158
3,345833	0,1	1,645205
3,347500	0,1	1,662078
3,349167	0,1	1,658368
3,350833	0,1	1,631754
3,352500	0,1	1,594658
3,354167	0,1	1,628368
3,355833	0,1	1,619717
3,357500	0,1	1,610929
3,359167	0,1	1,585637
3,360833	0,1	1,613474
3,362500	0,1	1,578199
3,364167	0,1	1,545387
3,365833	0,1	1,591155
3,367500	0,1	1,577918
3,369167	0,1	1,542637
3,370833	0,1	1,570686
3,372500	0,1	1,534482
3,374167	0,1	1,504759
3,375833	0,1	1,524096
3,377500	0,1	1,525456
3,379167	0,1	1,502716
3,380833	0,1	1,504204
3,382500	0,1	1,498040
3,384167	0,1	1,503189
3,385833	0,1	1,476097
3,387500	0,1	1,531747
3,389167	0,1	1,504170
3,390833	0,1	1,457495
3,392500	0,1	1,516084
3,394167	0,1	1,471811
3,395833	0,1	1,489046
3,397500	0,1	1,463354
3,399167	0,1	1,438885
3,400833	0,1	1,451042
3,402500	0,1	1,456989
3,404167	0,1	1,420842
3,405833	0,1	1,437587
3,407500	0,1	1,405320
3,409167	0,1	1,434212
3,410833	0,1	1,378709
3,412500	0,1	1,442288
3,414167	0,1	1,446166
3,415833	0,1	1,423431
3,417500	0,1	1,433875
3,419167	0,1	1,431592
3,420833	0,1	1,398813
3,422500	0,1	1,403175
3,424167	0,1	1,385442
3,425833	0,1	1,407610
3,427500	0,1	1,389084
3,429167	0,1	1,378781
3,430833	0,1	1,410994
3,432500	0,1	1,382498
3,434167	0,1	1,407119
3,435833	0,1	1,386595
3,437500	0,1	1,354103
3,439167	0,1	1,365037
3,440833	0,1	1,347255
3,442500	0,1	1,380280
3,444167	0,1	1,379491
3,445833	0,1	1,402172
3,447500	0,1	1,360204
3,449167	0,1	1,399049
3,450833	0,1	1,353681
3,452500	0,1	1,360547
3,454167	0,1	1,365039
3,455833	0,1	1,351438
3,457500	0,1	1,377585
3,459167	0,1	1,364907
3,460833	0,1	1,331655
3,462500	0,1	1,357037
3,464167	0,1	1,359753
3,465833	0,1	1,332281
3,467500	0,1	1,346468
3,469167	0,1	1,350638
3,470833	0,1	1,363038
3,472500	0,1	1,343935
3,474167	0,1	1,351552
3,475833	0,1	1,380992
3,477500	0,1	1,334233
3,479167	0,1	1,359476
3,480833	0,1	1,315870
3,482500	0,1	1,360233
3,484167	0,1	1,366122
3,485833	0,1	1,314365
3,487500	0,1	1,338722
3,489167	0,1	1,410630
3,490833	0,1	1,364236
3,492500	0,1	1,377877
3,494167	0,1	1,372631
3,495833	0,1	1,382353
3,497500	0,1	1,397024
3,499167	0,1	1,356545
3,500833	0,1	1,351758
3,502500	0,1	1,357245
3,504167	0,1	1,367273
3,505833	0,1	1,395937
3,507500	0,1	1,381933
3,509167	0,1	1,368006
3,510833	0,1	1,371492
3,512500	0,1	1,385010
3,514167	0,1	1,393480
3,515833	0,1	1,359322
3,517500	0,1	1,360837
3,519167	0,1	1,383416
3,520833	0,1	1,379255
3,522500	0,1	1,383960
3,524167	0,1	1,354339
3,525833	0,1	1,401029
3,527500	0,1	1,389862
3,529167	0,1	1,400834
3,530833	0,1	1,368910
3,532500	0,1	1,417854
3,534167	0,1	1,422068
3,535833	0,1	1,399540
3,537500	0,1	1,425198
3,539167	0,1	1,368137
3,540833	0,1	1,377896
3,542500	0,1	1,402595
3,544167	0,1	1,419861
3,545833	0,1	1,389073
3,547500	0,1	1,404577
3,549167	0,1	1,360695
3,550833	0,1	1,363379
3,552500	0,1	1,397898
3,554167	0,1	1,421911
3,555833	0,1	1,376994
3,557500	0,1	1,384843
3,559167	0,1	1,427990
3,560833	0,1	1,358483
3,562500	0,1	1,357247
3,564167	0,1	1,349877
3,565833	0,1	1,417901
3,567500	0,1	1,359851
3,569167	0,1	1,391293
3,570833	0,1	1,374497
3,572500	0,1	1,401627
3,574167	0,1	1,334374
3,575833	0,1	1,364675
3,577500	0,1	1,419495
3,579167	0,1	1,372369
3,580833	0,1	1,353878
3,582500	0,1	1,415902
3,584167	0,1	1,400840
3,585833	0,1	1,374887
3,587500	0,1	1,355098
3,589167	0,1	1,375655
3,590833	0,1	1,355964
3,592500	0,1	1,373541
3,594167	0,1	1,349238
3,595833	0,1	1,360714
3,597500	0,1	1,335161
3,599167	0,1	1,352092
3,600833	0,1	1,324810
3,602500	0,1	1,341096
3,604167	0,1	1,329143
3,605833	0,1	1,342944
3,607500	0,1	1,351398
3,609167	0,1	1,311904
3,610833	0,1	1,305680
3,612500	0,1	1,338449
3,614167	0,1	1,310411
3,615833	0,1	1,344227
3,617500	0,1	1,262168
3,619167	0,1	1,258961
3,620833	0,1	1,283855
3,622500	0,1	1,322625
3,624167	0,1	1,283600
3,625833	0,1	1,278761
3,627500	0,1	1,262354
3,629167	0,1	1,270072
3,630833	0,1	1,260132
3,632500	0,1	1,314253
3,634167	0,1	1,251845
3,635833	0,1	1,247039
3,637500	0,1	1,228021
3,639167	0,1	1,270946
3,640833	0,1	1,236816
3,642500	0,1	1,247035
3,644167	0,1	1,214778
3,645833	0,1	1,234228
3,647500	0,1	1,226462
3,649167	0,1	1,228996
3,650833	0,1	1,188751
3,652500	0,1	1,211451
3,654167	0,1	1,224661
3,655833	0,1	1,192226
3,657500	0,1	1,221747
3,659167	0,1	1,194808
3,660833	0,1	1,183970
3,662500	0,1	1,208657
3,664167	0,1	1,181467
3,665833	0,1	1,193261
3,667500	0,1	1,190932
3,669167	0,1	1,157217
3,670833	0,1	1,187264
3,672500	0,1	1,172254
3,674167	0,1	1,158941
3,675833	0,1	1,188176
3,677500	0,1	1,149206
3,679167	0,1	1,150350
3,680833	0,1	1,132070
3,682500	0,1	1,140517
3,684167	0,1	1,142160
3,685833	0,1	1,131138
3,687500	0,1	1,156023
3,689167	0,1	1,169250
3,690833	0,1	1,137577
3,692500	0,1	1,178560
3,694167	0,1	1,145942
3,695833	0,1	1,129429
3,697500	0,1	1,150186
3,699167	0,1	1,114768
3,700833	0,1	1,111123
3,702500	0,1	1,098344
3,704167	0,1	1,140688
3,705833	0,1	1,116320
3,707500	0,1	1,141068
3,709167	0,1	1,076061
3,710833	0,1	1,074316
3,712500	0,1	1,100378
3,714167	0,1	1,059505
3,715833	0,1	1,089150
3,717500	0,1	1,115706
3,719167	0,1	1,082311
3,720833	0,1	1,082192
3,722500	0,1	1,101620
3,724167	0,1	1,094862
3,725833	0,1	1,053761
3,727500	0,1	1,103389
3,729167	0,1	1,116976
3,730833	0,1	1,086170
3,732500	0,1	1,098605
3,734167	0,1	1,088029
3,735833	0,1	1,070060
3,737500	0,1	1,117278
3,739167	0,1	1,057402
3,740833	0,1	1,091522
3,742500	0,1	1,108298
3,744167	0,1	1,079670
3,745833	0,1	1,085452
3,747500	0,1	1,075648
3,749167	0,1	1,098802
3,750833	0,1	1,039102
3,752500	0,1	1,093891
3,754167	0,1	1,026415
3,755833	0,1	1,061773
3,757500	0,1	1,087664
3,759167	0,1	1,091663
3,760833	0,1	1,080286
3,762500	0,1	1,095543
3,764167	0,1	1,091888
3,765833	0,1	1,084435
3,767500	0,1	1,106680
3,769167	0,1	1,103979
3,770833	0,1	1,112807
3,772500	0,1	1,062658
3,774167	0,1	1,092056
3,775833	0,1	1,089158
3,777500	0,1	1,084521
3,779167	0,1	1,089666
3,780833	0,1	1,097675
3,782500	0,1	1,087319
3,784167	0,1	1,133784
3,785833	0,1	1,095200
3,787500	0,1	1,081796
3,789167	0,1	1,118411
3,790833	0,1	1,076190
3,792500	0,1	1,119585
3,794167	0,1	1,096573
3,795833	0,1	1,088826
3,797500	0,1	1,052340
3,799167	0,1	1,151788
3,800833	0,1	1,084403
3,802500	0,1	1,093792
3,804167	0,1	1,132789
3,805833	0,1	1,083888
3,807500	0,1	1,104903
3,809167	0,1	1,062212
3,810833	0,1	1,053840
3,812500	0,1	1,113748
3,814167	0,1	1,099987
3,815833	0,1	1,132456
3,817500	0,1	1,075970
3,819167	0,1	1,113863
3,820833	0,1	1,070332
3,822500	0,1	1,061361
3,824167	0,1	1,122179
3,825833	0,1	1,129512
3,827500	0,1	1,043478
3,829167	0,1	1,108753
3,830833	0,1	1,051524
3,832500	0,1	1,054261
3,834167	0,1	1,085289
3,835833	0,1	1,072476
3,837500	0,1	1,039916
3,839167	0,1	1,073288
3,840833	0,1	1,052846
3,842500	0,1	1,069718
3,844167	0,1	1,046058
3,845833	0,1	1,064039
3,847500	0,1	1,049384
3,849167	0,1	1,025339
3,850833	0,1	1,072728
3,852500	0,1	1,044706
3,854167	0,1	1,030151
3,855833	0,1	1,026512
3,857500	0,1	0,997326
3,859167	0,1	1,023866
3,860833	0,1	1,005573
3,862500	0,1	1,015839
3,864167	0,1	0,988831
3,865833	0,1	1,050275
3,867500	0,1	1,021173
3,869167	0,1	1,006594
3,870833	0,1	1,020694
3,872500	0,1	0,978963
3,874167	0,1	1,015655
3,875833	0,1	1,004287
3,877500	0,1	1,006923
3,879167	0,1	1,012624
3,880833	0,1	0,922994
3,882500	0,1	1,039216
3,884167	0,1	0,977417
3,885833	0,1	0,978353
3,887500	0,1	0,973767
3,889167	0,1	0,959858
3,890833	0,1	0,951983
3,892500	0,1	0,984091
3,894167	0,1	0,971370
3,895833	0,1	0,967467
3,897500	0,1	0,966666
3,899167	0,1	0,984028
3,900833	0,1	0,959927
3,902500	0,1	0,955445
3,904167	0,1	0,963694
3,905833	0,1	0,966955
3,907500	0,1	0,943230
3,909167	0,1	0,947550
3,910833	0,1	0,952474
3,912500	0,1	0,931784
3,914167	0,1	0,928696
3,915833	0,1	0,909298
3,917500	0,1	0,930511
3,919167	0,1	0,928653
3,920833	0,1	0,913314
3,922500	0,1	0,877949
3,924167	0,1	0,880617
3,925833	0,1	0,918825
3,927500	0,1	0,888186
3,929167	0,1	0,897007
3,930833	0,1	0,880950
3,932500	0,1	0,895273
3,934167	0,1	0,889137
3,935833	0,1	0,908095
3,937500	0,1	0,909556
3,939167	0,1	0,883040
3,940833	0,1	0,874728
3,942500	0,1	0,870264
3,944167	0,1	0,884984
3,945833	0,1	0,867117
3,947500	0,1	0,881440
3,949167	0,1	0,885656
3,950833	0,1	0,874282
3,952500	0,1	0,832362
3,954167	0,1	0,847911
3,955833	0,1	0,857780
3,957500	0,1	0,831884
3,959167	0,1	0,878901
3,960833	0,1	0,831299
3,962500	0,1	0,876814
3,964167	0,1	0,830512
3,965833	0,1	0,854824
3,967500	0,1	0,846918
3,969167	0,1	0,820887
3,970833	0,1	0,870029
3,972500	0,1	0,833016
3,974167	0,1	0,853120
3,975833	0,1	0,823133
3,977500	0,1	0,840457
3,979167	0,1	0,809696
3,980833	0,1	0,873870
3,982500	0,1	0,805793
3,984167	0,1	0,832030
3,985833	0,1	0,826919
3,987500	0,1	0,780768
3,989167	0,1	0,847412
3,990833	0,1	0,858844
3,992500	0,1	0,812758
3,994167	0,1	0,827938
3,995833	0,1	0,827954
3,997500	0,1	0,787812
3,999167	0,1	0,823772
4,000833	0,1	0,828689
4,002500	0,1	0,837756
4,004167	0,1	0,826187
4,005833	0,1	0,852738
4,007500	0,1	0,824720
4,009167	0,1	0,815358
4,010833	0,1	0,847302
4,012500	0,1	0,848505
4,014167	0,1	0,853202
4,015833	0,1	0,842299
4,017500	0,1	0,848332
4,019167	0,1	0,826832
4,020833	0,1	0,822208
4,022500	0,1	0,858326
4,024167	0,1	0,831019
4,025833	0,1	0,851163
4,027500	0,1	0,865495
4,029167	0,1	0,864962
4,030833	0,1	0,839403
4,032500	0,1	0,855129
4,034167	0,1	0,879325
4,035833	0,1	0,858458
4,037500	0,1	0,878106
4,039167	0,1	0,847161
4,040833	0,1	0,896709
4,042500	0,1	0,904987
4,044167	0,1	0,855616
4,045833	0,1	0,916643
4,047500	0,1	0,915898
4,049167	0,1	0,905964
4,050833	0,1	0,920223
4,052500	0,1	0,919831
4,054167	0,1	0,941553
4,055833	0,1	0,949496
4,057500	0,1	0,921677
4,059167	0,1	0,930754
4,060833	0,1	0,953863
4,062500	0,1	0,983804
4,064167	0,1	1,001972
4,065833	0,1	0,992932
4,067500	0,1	0,952970
4,069167	0,1	0,998150
4,070833	0,1	1,045687
4,072500	0,1	1,001634
4,074167	0,1	1,053826
4,075833	0,1	1,036473
4,077500	0,1	1,054501
4,079167	0,1	1,044701
4,080833	0,1	1,036316
4,082500	0,1	1,105735
4,084167	0,1	1,074234
4,085833	0,1	1,090883
4,087500	0,1	1,082682
4,089167	0,1	1,124535
4,090833	0,1	1,161235
4,092500	0,1	1,127528
4,094167	0,1	1,168956
4,095833	0,1	1,150510
4,097500	0,1	1,176172
4,099167	0,1	1,169638
4,100833	0,1	1,197783
4,102500	0,1	1,212529
4,104167	0,1	1,235956
4,105833	0,1	1,282495
4,107500	0,1	1,246959
4,109167	0,1	1,272777
4,110833	0,1	1,311614
4,112500	0,1	1,322903
4,114167	0,1	1,325498
4,115833	0,1	1,337031
4,117500	0,1	1,361103
4,119167	0,1	1,328266
4,120833	0,1	1,430786
4,122500	0,1	1,409923
4,124167	0,1	1,363560
4,125833	0,1	1,408537
4,127500	0,1	1,469363
4,129167	0,1	1,438597
4,130833	0,1	1,456410
4,132500	0,1	1,478427
4,134167	0,1	1,471773
4,135833	0,1	1,494486
4,137500	0,1	1,501394
4,139167	0,1	1,520067
4,140833	0,1	1,517428
4,142500	0,1	1,557418
4,144167	0,1	1,570114
4,145833	0,1	1,608318
4,147500	0,1	1,603530
4,149167	0,1	1,583635
4,150833	0,1	1,603869
4,152500	0,1	1,639526
4,154167	0,1	1,634809
4,155833	0,1	1,665010
4,157500	0,1	1,664797
4,159167	0,1	1,679999
4,160833	0,1	1,706025
4,162500	0,1	1,707597
4,164167	0,1	1,695508
4,165833	0,1	1,764521
4,167500	0,1	1,722793
4,169167	0,1	1,765092
4,170833	0,1	1,773408
4,172500	0,1	1,760517
4,174167	0,1	1,775541
4,175833	0,1	1,802976
4,177500	0,1	1,765818
4,179167	0,1	1,776124
4,180833	0,1	1,790659
4,182500	0,1	1,803757
4,184167	0,1	1,805109
4,185833	0,1	1,828120
4,187500	0,1	1,830043
4,189167	0,1	1,820735
4,190833	0,1	1,853958
4,192500	0,1	1,861847
4,194167	0,1	1,833778
4,195833	0,1	1,835555
4,197500	0,1	1,843716
4,199167	0,1	1,893342
4,200833	0,1	1,864784
4,202500	0,1	1,860483
4,204167	0,1	1,899860
4,205833	0,1	1,831644
4,207500	0,1	1,900077
4,209167	0,1	1,902877
4,210833	0,1	1,866221
4,212500	0,1	1,854692
4,214167	0,1	1,851964
4,215833	0,1	1,866357
4,217500	0,1	1,842861
4,219167	0,1	1,887830
4,220833	0,1	1,884694
4,222500	0,1	1,821665
4,224167	0,1	1,859828
4,225833	0,1	1,863563
4,227500	0,1	1,832055
4,229167	0,1	1,855474
4,230833	0,1	1,846523
4,232500	0,1	1,841871
4,234167	0,1	1,859981
4,235833	0,1	1,800489
4,237500	0,1	1,828399
4,239167	0,1	1,813571
4,240833	0,1	1,815142
4,242500	0,1	1,806137
4,244167	0,1	1,809427
4,245833	0,1	1,794244
4,247500	0,1	1,782879
4,249167	0,1	1,794463
4,250833	0,1	1,774355
4,252500	0,1	1,768691
4,254167	0,1	1,792032
4,255833	0,1	1,778996
4,257500	0,1	1,737108
4,259167	0,1	1,735176
4,260833	0,1	1,720209
4,262500	0,1	1,721147
4,264167	0,1	1,732881
4,265833	0,1	1,704830
4,267500	0,1	1,682784
4,269167	0,1	1,700456
4,270833	0,1	1,648795
4,272500	0,1	1,680769
4,274167	0,1	1,671311
4,275833	0,1	1,664742
4,277500	0,1	1,663521
4,279167	0,1	1,610559
4,280833	0,1	1,646533
4,282500	0,1	1,585728
4,284167	0,1	1,643156
4,285833	0,1	1,603263
4,287500	0,1	1,587168
4,289167	0,1	1,574340
4,290833	0,1	1,602523
4,292500	0,1	1,584361
4,294167	0,1	1,532542
4,295833	0,1	1,575741
4,297500	0,1	1,554364
4,299167	0,1	1,501134
4,300833	0,1	1,527726
4,302500	0,1	1,497554
4,304167	0,1	1,492601
4,305833	0,1	1,490653
4,307500	0,1	1,498338
4,309167	0,1	1,469710
4,310833	0,1	1,480253
4,312500	0,1	1,491225
4,314167	0,1	1,458780
4,315833	0,1	1,429582
4,317500	0,1	1,419245
4,319167	0,1	1,411889
4,320833	0,1	1,427435
4,322500	0,1	1,422562
4,324167	0,1	1,406975
4,325833	0,1	1,351109
4,327500	0,1	1,397203
4,329167	0,1	1,349905
4,330833	0,1	1,356108
4,332500	0,1	1,313395
4,334167	0,1	1,342651
4,335833	0,1	1,316458
4,337500	0,1	1,336336
4,339167	0,1	1,310884
4,340833	0,1	1,314198
4,342500	0,1	1,340789
4,344167	0,1	1,321725
4,345833	0,1	1,328208
4,347500	0,1	1,283430
4,349167	0,1	1,272547
4,350833	0,1	1,238238
4,352500	0,1	1,253316
4,354167	0,1	1,271798
4,355833	0,1	1,240340
4,357500	0,1	1,244577
4,359167	0,1	1,232440
4,360833	0,1	1,216860
4,362500	0,1	1,240020
4,364167	0,1	1,209006
4,365833	0,1	1,155224
4,367500	0,1	1,229257
4,369167	0,1	1,189086
4,370833	0,1	1,160961
4,372500	0,1	1,165659
4,374167	0,1	1,157921
4,375833	0,1	1,170853
4,377500	0,1	1,121763
4,379167	0,1	1,136655
4,380833	0,1	1,116766
4,382500	0,1	1,124724
4,384167	0,1	1,188717
4,385833	0,1	1,155949
4,387500	0,1	1,120339
4,389167	0,1	1,114694
4,390833	0,1	1,133103
4,392500	0,1	1,092140
4,394167	0,1	1,092950
4,395833	0,1	1,099516
4,397500	0,1	1,108900
4,399167	0,1	1,075567
4,400833	0,1	1,089554
4,402500	0,1	1,046328
4,404167	0,1	1,081738
4,405833	0,1	1,053268
4,407500	0,1	1,071338
4,409167	0,1	1,072783
4,410833	0,1	1,035079
4,412500	0,1	1,067032
4,414167	0,1	1,013168
4,415833	0,1	1,025596
4,417500	0,1	1,014665
4,419167	0,1	0,989474
4,420833	0,1	1,025723
4,422500	0,1	0,993424
4,424167	0,1	1,017098
4,425833	0,1	1,007813
4,427500	0,1	0,983420
4,429167	0,1	0,913869
4,430833	0,1	0,954611
4,432500	0,1	1,001124
4,434167	0,1	0,963634
4,435833	0,1	0,965224
4,437500	0,1	0,981235
4,439167	0,1	0,990175
4,440833	0,1	0,929640
4,442500	0,1	0,930714
4,444167	0,1	0,937342
4,445833	0,1	0,911782
4,447500	0,1	0,909244
4,449167	0,1	0,904850
4,450833	0,1	0,910752
4,452500	0,1	0,902879
4,454167	0,1	0,869707
4,455833	0,1	0,922670
4,457500	0,1	0,852471
4,459167	0,1	0,888053
4,460833	0,1	0,879348
4,462500	0,1	0,856003
4,464167	0,1	0,887486
4,465833	0,1	0,853040
4,467500	0,1	0,860525
4,469167	0,1	0,871232
4,470833	0,1	0,869489
4,472500	0,1	0,837279
4,474167	0,1	0,853605
4,475833	0,1	0,803572
4,477500	0,1	0,878829
4,479167	0,1	0,848997
4,480833	0,1	0,850434
4,482500	0,1	0,827959
4,484167	0,1	0,828375
4,485833	0,1	0,802215
4,487500	0,1	0,767563
4,489167	0,1	0,782692
4,490833	0,1	0,772019
4,492500	0,1	0,787472
4,494167	0,1	0,754032
4,495833	0,1	0,762866
4,497500	0,1	0,801648
4,499167	0,1	0,786752
4,500833	0,1	0,761932
4,502500	0,1	0,753131
4,504167	0,1	0,795730
4,505833	0,1	0,753551
4,507500	0,1	0,731650
4,509167	0,1	0,741389
4,510833	0,1	0,728174
4,512500	0,1	0,694823
4,514167	0,1	0,715829
4,515833	0,1	0,745428
4,517500	0,1	0,738431
4,519167	0,1	0,725835
4,520833	0,1	0,746073
4,522500	0,1	0,745341
4,524167	0,1	0,696266
4,525833	0,1	0,665608
4,527500	0,1	0,681083
4,529167	0,1	0,675143
4,530833	0,1	0,664984
4,532500	0,1	0,719253
4,534167	0,1	0,654749
4,535833	0,1	0,705594
4,537500	0,1	0,636593
4,539167	0,1	0,655983
4,540833	0,1	0,674655
4,542500	0,1	0,663764
4,544167	0,1	0,634978
4,545833	0,1	0,632397
4,547500	0,1	0,680526
4,549167	0,1	0,648892
4,550833	0,1	0,597000
4,552500	0,1	0,658415
4,554167	0,1	0,624308
4,555833	0,1	0,601782
4,557500	0,1	0,628569
4,559167	0,1	0,620287
4,560833	0,1	0,616685
4,562500	0,1	0,659446
4,564167	0,1	0,657435
4,565833	0,1	0,588198
4,567500	0,1	0,583525
4,569167	0,1	0,642153
4,570833	0,1	0,595361
4,572500	0,1	0,591110
4,574167	0,1	0,591878
4,575833	0,1	0,609611
4,577500	0,1	0,573345
4,579167	0,1	0,578028
4,580833	0,1	0,562449
4,582500	0,1	0,568066
4,584167	0,1	0,582138
4,585833	0,1	0,594317
4,587500	0,1	0,554839
4,589167	0,1	0,551232
4,590833	0,1	0,565622
4,592500	0,1	0,531255
4,594167	0,1	0,532916
4,595833	0,1	0,540531
4,597500	0,1	0,564432
4,599167	0,1	0,538932
4,600833	0,1	0,566038
4,602500	0,1	0,563377
4,604167	0,1	0,538064
4,605833	0,1	0,502596
4,607500	0,1	0,555074
4,609167	0,1	0,561896
4,610833	0,1	0,528589
4,612500	0,1	0,518496
4,614167	0,1	0,498514
4,615833	0,1	0,514698
4,617500	0,1	0,519712
4,619167	0,1	0,532336
4,620833	0,1	0,477095
4,622500	0,1	0,482732
4,624167	0,1	0,497993
4,625833	0,1	0,465361
4,627500	0,1	0,532999
4,629167	0,1	0,506998
4,630833	0,1	0,482324
4,632500	0,1	0,454730
4,634167	0,1	0,478844
4,635833	0,1	0,470145
4,637500	0,1	0,484082
4,639167	0,1	0,463914
4,640833	0,1	0,437448
4,642500	0,1	0,456068
4,644167	0,1	0,446051
4,645833	0,1	0,451382
4,647500	0,1	0,439275
4,649167	0,1	0,432785
4,650833	0,1	0,448682
4,652500	0,1	0,445921
4,654167	0,1	0,431275
4,655833	0,1	0,449291
4,657500	0,1	0,419843
4,659167	0,1	0,460144
4,660833	0,1	0,428491
4,662500	0,1	0,439238
4,664167	0,1	0,421003
4,665833	0,1	0,450446
4,667500	0,1	0,443133
4,669167	0,1	0,427393
4,670833	0,1	0,433972
4,672500	0,1	0,441717
4,674167	0,1	0,391264
4,675833	0,1	0,409589
4,677500	0,1	0,456703
4,679167	0,1	0,426239
4,680833	0,1	0,409730
4,682500	0,1	0,405831
4,684167	0,1	0,456192
4,685833	0,1	0,397148
4,687500	0,1	0,415919
4,689167	0,1	0,401824
4,690833	0,1	0,399928
4,692500	0,1	0,406153
4,694167	0,1	0,385158
4,695833	0,1	0,405740
4,697500	0,1	0,418844
4,699167	0,1	0,397427
4,700833	0,1	0,399829
4,702500	0,1	0,400084
4,704167	0,1	0,399639
4,705833	0,1	0,341202
4,707500	0,1	0,377817
4,709167	0,1	0,353297
4,710833	0,1	0,429749
4,712500	0,1	0,361911
4,714167	0,1	0,418318
4,715833	0,1	0,380053
4,717500	0,1	0,411519
4,719167	0,1	0,357094
4,720833	0,1	0,359975
4,722500	0,1	0,359333
4,724167	0,1	0,382451
4,725833	0,1	0,366529
4,727500	0,1	0,379884
4,729167	0,1	0,355261
4,730833	0,1	0,358690
4,732500	0,1	0,346237
4,734167	0,1	0,351336
4,735833	0,1	0,373044
4,737500	0,1	0,369738
4,739167	0,1	0,331047
4,740833	0,1	0,355609
4,742500	0,1	0,378824
4,744167	0,1	0,350187
4,745833	0,1	0,333557
4,747500	0,1	0,322916
4,749167	0,1	0,332355
4,750833	0,1	0,329337
4,752500	0,1	0,336074
4,754167	0,1	0,331609
4,755833	0,1	0,327954
4,757500	0,1	0,355346
4,759167	0,1	0,338459
4,760833	0,1	0,320602
4,762500	0,1	0,327986
4,764167	0,1	0,314830
4,765833	0,1	0,351464
4,767500	0,1	0,328348
4,769167	0,1	0,323747
4,770833	0,1	0,337521
4,772500	0,1	0,307823
4,774167	0,1	0,350846
4,775833	0,1	0,321538
4,777500	0,1	0,330394
4,779167	0,1	0,320122
4,780833	0,1	0,304573
4,782500	0,1	0,335046
4,784167	0,1	0,349433
4,785833	0,1	0,351210
4,787500	0,1	0,310748
4,789167	0,1	0,315079
4,790833	0,1	0,299986
4,792500	0,1	0,354182
4,794167	0,1	0,383319
4,795833	0,1	0,319970
4,797500	0,1	0,348571
4,799167	0,1	0,320930
4,800833	0,1	0,314692
4,802500	0,1	0,319476
4,804167	0,1	0,303741
4,805833	0,1	0,320957
4,807500	0,1	0,324586
4,809167	0,1	0,298490
4,810833	0,1	0,286084
4,812500	0,1	0,320978
4,814167	0,1	0,303198
4,815833	0,1	0,319888
4,817500	0,1	0,310387
4,819167	0,1	0,321310
4,820833	0,1	0,290068
4,822500	0,1	0,260338
4,824167	0,1	0,331572
4,825833	0,1	0,329346
4,827500	0,1	0,288660
4,829167	0,1	0,325872
4,830833	0,1	0,311809
4,832500	0,1	0,345232
4,834167	0,1	0,319329
4,835833	0,1	0,282627
4,837500	0,1	0,289554
4,839167	0,1	0,290928
4,840833	0,1	0,319768
4,842500	0,1	0,260609
4,844167	0,1	0,287107
4,845833	0,1	0,293559
4,847500	0,1	0,292476
4,849167	0,1	0,298798
4,850833	0,1	0,288526
4,852500	0,1	0,293345
4,854167	0,1	0,293686
4,855833	0,1	0,237541
4,857500	0,1	0,286558
4,859167	0,1	0,257101
4,860833	0,1	0,283896
4,862500	0,1	0,305441
4,864167	0,1	0,296748
4,865833	0,1	0,274047
4,867500	0,1	0,278095
4,869167	0,1	0,281420
4,870833	0,1	0,271967
4,872500	0,1	0,253851
4,874167	0,1	0,278216
4,875833	0,1	0,345604
4,877500	0,1	0,300347
4,879167	0,1	0,265438
4,880833	0,1	0,291666
4,882500	0,1	0,229258
4,884167	0,1	0,250214
4,885833	0,1	0,256539
4,887500	0,1	0,284058
4,889167	0,1	0,280881
4,890833	0,1	0,261002
4,892500	0,1	0,317509
4,894167	0,1	0,306256
4,895833	0,1	0,279740
4,897500	0,1	0,272192
4,899167	0,1	0,295229
4,900833	0,1	0,264002
4,902500	0,1	0,286855
4,904167	0,1	0,272221
4,905833	0,1	0,311192
4,907500	0,1	0,262848
4,909167	0,1	0,284954
4,910833	0,1	0,282769
4,912500	0,1	0,285526
4,914167	0,1	0,287401
4,915833	0,1	0,289229
4,917500	0,1	0,261748
4,919167	0,1	0,287963
4,920833	0,1	0,268684
4,922500	0,1	0,271700
4,924167	0,1	0,239211
4,925833	0,1	0,311525
4,927500	0,1	0,293839
4,929167	0,1	0,257606
4,930833	0,1	0,286527
4,932500	0,1	0,304701
4,934167	0,1	0,304678
4,935833	0,1	0,318035
4,937500	0,1	0,277301
4,939167	0,1	0,303514
4,940833	0,1	0,300916
4,942500	0,1	0,292920
4,944167	0,1	0,280368
4,945833	0,1	0,306272
4,947500	0,1	0,261362
4,949167	0,1	0,299657
4,950833	0,1	0,249691
4,952500	0,1	0,301002
4,954167	0,1	0,285959
4,955833	0,1	0,294074
4,957500	0,1	0,226439
4,959167	0,1	0,321707
4,960833	0,1	0,307050
4,962500	0,1	0,285343
4,964167	0,1	0,304122
4,965833	0,1	0,259535
4,967500	0,1	0,318505
4,969167	0,1	0,294636
4,970833	0,1	0,308328
4,972500	0,1	0,316100
4,974167	0,1	0,317775
4,975833	0,1	0,311203
4,977500	0,1	0,313416
4,979167	0,1	0,301445
4,980833	0,1	0,313252
4,982500	0,1	0,310813
4,984167	0,1	0,288944
4,985833	0,1	0,290412
4,987500	0,1	0,300471
4,989167	0,1	0,317926
4,990833	0,1	0,331775
4,992500	0,1	0,322890
4,994167	0,1	0,331109
4,995833	0,1	0,330722
4,997500	0,1	0,324914
4,999167	0,1	0,382670
5,000833	0,1	0,382012
5,002500	0,1	0,325398
5,004167	0,1	0,343571
5,005833	0,1	0,299200
5,007500	0,1	0,339159
5,009167	0,1	0,341928
5,010833	0,1	0,352709
5,012500	0,1	0,343768
5,014167	0,1	0,310855
5,015833	0,1	0,359612
5,017500	0,1	0,371239
5,019167	0,1	0,364473
5,020833	0,1	0,347940
5,022500	0,1	0,399957
5,024167	0,1	0,384226
5,025833	0,1	0,364476
5,027500	0,1	0,372920
5,029167	0,1	0,360404
5,030833	0,1	0,387880
5,032500	0,1	0,394145
5,034167	0,1	0,383907
5,035833	0,1	0,389006
5,037500	0,1	0,339526
5,039167	0,1	0,379844
5,040833	0,1	0,387657
5,042500	0,1	0,399346
5,044167	0,1	0,364382
5,045833	0,1	0,398380
5,047500	0,1	0,367268
5,049167	0,1	0,403067
5,050833	0,1	0,396880
5,052500	0,1	0,403746
5,054167	0,1	0,372534
5,055833	0,1	0,440063
5,057500	0,1	0,388407
5,059167	0,1	0,414759
5,060833	0,1	0,408534
5,062500	0,1	0,451892
5,064167	0,1	0,401224
5,065833	0,1	0,427735
5,067500	0,1	0,402215
5,069167	0,1	0,427098
5,070833	0,1	0,451314
5,072500	0,1	0,417731
5,074167	0,1	0,444634
5,075833	0,1	0,469561
5,077500	0,1	0,406557
5,079167	0,1	0,463772
5,080833	0,1	0,483889
5,082500	0,1	0,458201
5,084167	0,1	0,468341
5,085833	0,1	0,443524
5,087500	0,1	0,434007
5,089167	0,1	0,463906
5,090833	0,1	0,437743
5,092500	0,1	0,464002
5,094167	0,1	0,450553
5,095833	0,1	0,466127
5,097500	0,1	0,479428
5,099167	0,1	0,498538
5,100833	0,1	0,467197
5,102500	0,1	0,506566
5,104167	0,1	0,467454
5,105833	0,1	0,475089
5,107500	0,1	0,500720
5,109167	0,1	0,461481
5,110833	0,1	0,438025
5,112500	0,1	0,499619
5,114167	0,1	0,518328
5,115833	0,1	0,486119
5,117500	0,1	0,522918
5,119167	0,1	0,473597
5,120833	0,1	0,456239
5,122500	0,1	0,469880
5,124167	0,1	0,519959
5,125833	0,1	0,482330
5,127500	0,1	0,488744
5,129167	0,1	0,463341
5,130833	0,1	0,496415
5,132500	0,1	0,524430
5,134167	0,1	0,500572
5,135833	0,1	0,489742
5,137500	0,1	0,496710
5,139167	0,1	0,502557
5,140833	0,1	0,501596
5,142500	0,1	0,493117
5,144167	0,1	0,489741
5,145833	0,1	0,494463
5,147500	0,1	0,481710
5,149167	0,1	0,498989
5,150833	0,1	0,506957
5,152500	0,1	0,468259
5,154167	0,1	0,488128
5,155833	0,1	0,528445
5,157500	0,1	0,489461
5,159167	0,1	0,478146
5,160833	0,1	0,474708
5,162500	0,1	0,466069
5,164167	0,1	0,496992
5,165833	0,1	0,457466
5,167500	0,1	0,480484
5,169167	0,1	0,464722
5,170833	0,1	0,463948
5,172500	0,1	0,474318
5,174167	0,1	0,475992
5,175833	0,1	0,491248
5,177500	0,1	0,507920
5,179167	0,1	0,446677
5,180833	0,1	0,417921
5,182500	0,1	0,485839
5,184167	0,1	0,500659
5,185833	0,1	0,489742
5,187500	0,1	0,472717
5,189167	0,1	0,456239
5,190833	0,1	0,477562
5,192500	0,1	0,470918
5,194167	0,1	0,444099
5,195833	0,1	0,447176
5,197500	0,1	0,431859
5,199167	0,1	0,466024
5,200833	0,1	0,397953
5,202500	0,1	0,412680
5,204167	0,1	0,416086
5,205833	0,1	0,424690
5,207500	0,1	0,410239
5,209167	0,1	0,444372
5,210833	0,1	0,410150
5,212500	0,1	0,435640
5,214167	0,1	0,426558
5,215833	0,1	0,416441
5,217500	0,1	0,416341
5,219167	0,1	0,411585
5,220833	0,1	0,414580
5,222500	0,1	0,388886
5,224167	0,1	0,419515
5,225833	0,1	0,419877
5,227500	0,1	0,422219
5,229167	0,1	0,417018
5,230833	0,1	0,419489
5,232500	0,1	0,402410
5,234167	0,1	0,384291
5,235833	0,1	0,366178
5,237500	0,1	0,381620
5,239167	0,1	0,393889
5,240833	0,1	0,331695
5,242500	0,1	0,355186
5,244167	0,1	0,349095
5,245833	0,1	0,374418
5,247500	0,1	0,333680
5,249167	0,1	0,401550
5,250833	0,1	0,382144
5,252500	0,1	0,360208
5,254167	0,1	0,383899
5,255833	0,1	0,358797
5,257500	0,1	0,389495
5,259167	0,1	0,330862
5,260833	0,1	0,317652
5,262500	0,1	0,308460
5,264167	0,1	0,350403
5,265833	0,1	0,321835
5,267500	0,1	0,318545
5,269167	0,1	0,303941
5,270833	0,1	0,317221
5,272500	0,1	0,299481
5,274167	0,1	0,326997
5,275833	0,1	0,282491
5,277500	0,1	0,270092
5,279167	0,1	0,293428
5,280833	0,1	0,286220
5,282500	0,1	0,308779
5,284167	0,1	0,316727
5,285833	0,1	0,311835
5,287500	0,1	0,292354
5,289167	0,1	0,319860
5,290833	0,1	0,284841
5,292500	0,1	0,243771
5,294167	0,1	0,281135
5,295833	0,1	0,254495
5,297500	0,1	0,287295
5,299167	0,1	0,285703
5,300833	0,1	0,285124
5,302500	0,1	0,253248
5,304167	0,1	0,295487
5,305833	0,1	0,290688
5,307500	0,1	0,283940
5,309167	0,1	0,238962
5,310833	0,1	0,235841
5,312500	0,1	0,256182
5,314167	0,1	0,226970
5,315833	0,1	0,200204
5,317500	0,1	0,242503
5,319167	0,1	0,265952
5,320833	0,1	0,263780
5,322500	0,1	0,210586
5,324167	0,1	0,238101
5,325833	0,1	0,252218
5,327500	0,1	0,279400
5,329167	0,1	0,234818
5,330833	0,1	0,226776
5,332500	0,1	0,236255
5,334167	0,1	0,211181
5,335833	0,1	0,210824
5,337500	0,1	0,238505
5,339167	0,1	0,241456
5,340833	0,1	0,217414
5,342500	0,1	0,212977
5,344167	0,1	0,217698
5,345833	0,1	0,159888
5,347500	0,1	0,207868
5,349167	0,1	0,224897
5,350833	0,1	0,219955
5,352500	0,1	0,186371
5,354167	0,1	0,239555
5,355833	0,1	0,205796
5,357500	0,1	0,216161
5,359167	0,1	0,169744
5,360833	0,1	0,224458
5,362500	0,1	0,168196
5,364167	0,1	0,207667
5,365833	0,1	0,209602
5,367500	0,1	0,188811
5,369167	0,1	0,189964
5,370833	0,1	0,207045
5,372500	0,1	0,171730
5,374167	0,1	0,172464
5,375833	0,1	0,207846
5,377500	0,1	0,195229
5,379167	0,1	0,168909
5,380833	0,1	0,172338
5,382500	0,1	0,205201
5,384167	0,1	0,160034
5,385833	0,1	0,163146
5,387500	0,1	0,173417
5,389167	0,1	0,170868
5,390833	0,1	0,147119
5,392500	0,1	0,181131
5,394167	0,1	0,141699
5,395833	0,1	0,175299
5,397500	0,1	0,128240
5,399167	0,1	0,133013
5,400833	0,1	0,133240
5,402500	0,1	0,171046
5,404167	0,1	0,145610
5,405833	0,1	0,158462
5,407500	0,1	0,165629
5,409167	0,1	0,138757
5,410833	0,1	0,169247
5,412500	0,1	0,174617
5,414167	0,1	0,163253
5,415833	0,1	0,092320
5,417500	0,1	0,145386
5,419167	0,1	0,178338
5,420833	0,1	0,157806
5,422500	0,1	0,155546
5,424167	0,1	0,125050
5,425833	0,1	0,139305
5,427500	0,1	0,133657
5,429167	0,1	0,136511
5,430833	0,1	0,133968
5,432500	0,1	0,147589
5,434167	0,1	0,120636
5,435833	0,1	0,142388
5,437500	0,1	0,142665
5,439167	0,1	0,113557
5,440833	0,1	0,115639
5,442500	0,1	0,143050
5,444167	0,1	0,114136
5,445833	0,1	0,108972
5,447500	0,1	0,094521
5,449167	0,1	0,117726
5,450833	0,1	0,169282
5,452500	0,1	0,128013
5,454167	0,1	0,122907
5,455833	0,1	0,114462
5,457500	0,1	0,102161
5,459167	0,1	0,129899
5,460833	0,1	0,114608
5,462500	0,1	0,092639
5,464167	0,1	0,126108
5,465833	0,1	0,125991
5,467500	0,1	0,123385
5,469167	0,1	0,087756
5,470833	0,1	0,079134
5,472500	0,1	0,083005
5,474167	0,1	0,070295
5,475833	0,1	0,085569
5,477500	0,1	0,130207
5,479167	0,1	0,118893
5,480833	0,1	0,086636
5,482500	0,1	0,125613
5,484167	0,1	0,116076
5,485833	0,1	0,101726
5,487500	0,1	0,051504
5,489167	0,1	0,090512
5,490833	0,1	0,103645
5,492500	0,1	0,137455
5,494167	0,1	0,132435
5,495833	0,1	0,148747
5,497500	0,1	0,093620
5,499167	0,1	0,090522
5,500833	0,1	0,093875
5,502500	0,1	0,090107
5,504167	0,1	0,115571
5,505833	0,1	0,090174
5,507500	0,1	0,124535
5,509167	0,1	0,126446
5,510833	0,1	0,102786
5,512500	0,1	0,131144
5,514167	0,1	0,089536
5,515833	0,1	0,105406
5,517500	0,1	0,054403
5,519167	0,1	0,067017
5,520833	0,1	0,073726
5,522500	0,1	0,095092
5,524167	0,1	0,092117
5,525833	0,1	0,111534
5,527500	0,1	0,050139
5,529167	0,1	0,061883
5,530833	0,1	0,077058
5,532500	0,1	0,064642
5,534167	0,1	0,112044
5,535833	0,1	0,070735
5,537500	0,1	0,072630
5,539167	0,1	0,074267
5,540833	0,1	0,056631
5,542500	0,1	0,061305
5,544167	0,1	0,079398
5,545833	0,1	0,087661
5,547500	0,1	0,082551
5,549167	0,1	0,069736
5,550833	0,1	0,032760
5,552500	0,1	0,085354
5,554167	0,1	0,070087
5,555833	0,1	0,109292
5,557500	0,1	0,100421
5,559167	0,1	0,074625
5,560833	0,1	0,050875
5,562500	0,1	0,063248
5,564167	0,1	0,113681
5,565833	0,1	0,083426
5,567500	0,1	0,074765
5,569167	0,1	0,075860
5,570833	0,1	0,067789
5,572500	0,1	0,044788
5,574167	0,1	0,095707
5,575833	0,1	0,100687
5,577500	0,1	0,070774
5,579167	0,1	0,094367
5,580833	0,1	0,079240
5,582500	0,1	0,078801
5,584167	0,1	0,049406
5,585833	0,1	0,043376
5,587500	0,1	0,069994
5,589167	0,1	0,085651
5,590833	0,1	0,050651
5,592500	0,1	0,036339
5,594167	0,1	0,071463
5,595833	0,1	0,074824
5,597500	0,1	0,042802
5,599167	0,1	0,064448
5,600833	0,1	0,062547
5,602500	0,1	0,078342
5,604167	0,1	0,083067
5,605833	0,1	0,060338
5,607500	0,1	0,058965
5,609167	0,1	0,064864
5,610833	0,1	0,038453
5,612500	0,1	0,069643
5,614167	0,1	0,060768
5,615833	0,1	0,073705
5,617500	0,1	0,088426
5,619167	0,1	0,090708
5,620833	0,1	0,083069
5,622500	0,1	0,090893
5,624167	0,1	0,078515
5,625833	0,1	0,044728
5,627500	0,1	0,061984
5,629167	0,1	0,065776
5,630833	0,1	0,073291
5,632500	0,1	0,052263
5,634167	0,1	0,109163
5,635833	0,1	0,052209
5,637500	0,1	0,074345
5,639167	0,1	0,049923
5,640833	0,1	0,057927
5,642500	0,1	0,042922
5,644167	0,1	0,044720
5,645833	0,1	0,051034
5,647500	0,1	0,072295
5,649167	0,1	0,043217
5,650833	0,1	0,057575
5,652500	0,1	0,101712
5,654167	0,1	0,105698
5,655833	0,1	0,037140
5,657500	0,1	0,052192
5,659167	0,1	0,065318
5,660833	0,1	0,074368
5,662500	0,1	0,070002
5,664167	0,1	0,057104
5,665833	0,1	0,098048
5,667500	0,1	0,068705
5,669167	0,1	0,034065
5,670833	0,1	0,115763
5,672500	0,1	0,077735
5,674167	0,1	0,068409
5,675833	0,1	0,071801
5,677500	0,1	0,117180
5,679167	0,1	0,065789
5,680833	0,1	0,095028
5,682500	0,1	0,070586
5,684167	0,1	0,094718
5,685833	0,1	0,082449
5,687500	0,1	0,080147
5,689167	0,1	0,068556
5,690833	0,1	0,084450
5,692500	0,1	0,078782
5,694167	0,1	0,091885
5,695833	0,1	0,071310
5,697500	0,1	0,109086
5,699167	0,1	0,082265
5,700833	0,1	0,100372
5,702500	0,1	0,094499
5,704167	0,1	0,072636
5,705833	0,1	0,115710
5,707500	0,1	0,080797
5,709167	0,1	0,079527
5,710833	0,1	0,094141
5,712500	0,1	0,123684
5,714167	0,1	0,070429
5,715833	0,1	0,103021
5,717500	0,1	0,088082
5,719167	0,1	0,084765
5,720833	0,1	0,125402
5,722500	0,1	0,081546
5,724167	0,1	0,134945
5,725833	0,1	0,080409
5,727500	0,1	0,104471
5,729167	0,1	0,105636
5,730833	0,1	0,097336
5,732500	0,1	0,127167
5,734167	0,1	0,119223
5,735833	0,1	0,087133
5,737500	0,1	0,098697
5,739167	0,1	0,104704
5,740833	0,1	0,105989
5,742500	0,1	0,117417
5,744167	0,1	0,112574
5,745833	0,1	0,119240
5,747500	0,1	0,094088
5,749167	0,1	0,087045
5,750833	0,1	0,064914
5,752500	0,1	0,109664
5,754167	0,1	0,072165
5,755833	0,1	0,074991
5,757500	0,1	0,093727
5,759167	0,1	0,096298
5,760833	0,1	0,117890
5,762500	0,1	0,121104
5,764167	0,1	0,133341
5,765833	0,1	0,078463
5,767500	0,1	0,133164
5,769167	0,1	0,099703
5,770833	0,1	0,109072
5,772500	0,1	0,100771
5,774167	0,1	0,136090
5,775833	0,1	0,099953
5,777500	0,1	0,119840
5,779167	0,1	0,126177
5,780833	0,1	0,125123
5,782500	0,1	0,162553
5,784167	0,1	0,116105
5,785833	0,1	0,148390
5,787500	0,1	0,115047
5,789167	0,1	0,113051
5,790833	0,1	0,111333
5,792500	0,1	0,083903
5,794167	0,1	0,154283
5,795833	0,1	0,119996
5,797500	0,1	0,117607
5,799167	0,1	0,156758
5,800833	0,1	0,130390
5,802500	0,1	0,122058
5,804167	0,1	0,092310
5,805833	0,1	0,119422
5,807500	0,1	0,105640
5,809167	0,1	0,109362
5,810833	0,1	0,120398
5,812500	0,1	0,118475
5,814167	0,1	0,117067
5,815833	0,1	0,139841
5,817500	0,1	0,146612
5,819167	0,1	0,068137
5,820833	0,1	0,111196
5,822500	0,1	0,115594
5,824167	0,1	0,143130
5,825833	0,1	0,077595
5,827500	0,1	0,089979
5,829167	0,1	0,088989
5,830833	0,1	0,117930
5,832500	0,1	0,093695
5,834167	0,1	0,106668
5,835833	0,1	0,122011
5,837500	0,1	0,080324
5,839167	0,1	0,123829
5,840833	0,1	0,080406
5,842500	0,1	0,087910
5,844167	0,1	0,102960
5,845833	0,1	0,067547
5,847500	0,1	0,119684
5,849167	0,1	0,135991
5,850833	0,1	0,110053
5,852500	0,1	0,093155
5,854167	0,1	0,114286
5,855833	0,1	0,085227
5,857500	0,1	0,092757
5,859167	0,1	0,095365
5,860833	0,1	0,115011
5,862500	0,1	0,094604
5,864167	0,1	0,102778
5,865833	0,1	0,100275
5,867500	0,1	0,049929
5,869167	0,1	0,149886
5,870833	0,1	0,074967
5,872500	0,1	0,124095
5,874167	0,1	0,146365
5,875833	0,1	0,093453
5,877500	0,1	0,096360
5,879167	0,1	0,112569
5,880833	0,1	0,098621
5,882500	0,1	0,100337
5,884167	0,1	0,096588
5,885833	0,1	0,110581
5,887500	0,1	0,080341
5,889167	0,1	0,093086
5,890833	0,1	0,127228
5,892500	0,1	0,088625
5,894167	0,1	0,080935
5,895833	0,1	0,087910
5,897500	0,1	0,083069
5,899167	0,1	0,085965
5,900833	0,1	0,069549
5,902500	0,1	0,048929
5,904167	0,1	0,088027
5,905833	0,1	0,084516
5,907500	0,1	0,106894
5,909167	0,1	0,132342
5,910833	0,1	0,093036
5,912500	0,1	0,052661
5,914167	0,1	0,063269
5,915833	0,1	0,065612
5,917500	0,1	0,076066
5,919167	0,1	0,094782
5,920833	0,1	0,051896
5,922500	0,1	0,067202
5,924167	0,1	0,076231
5,925833	0,1	0,073542
5,927500	0,1	0,078262
5,929167	0,1	0,073087
5,930833	0,1	0,079028
5,932500	0,1	0,070894
5,934167	0,1	0,043278
5,935833	0,1	0,094711
5,937500	0,1	0,071912
5,939167	0,1	0,062176
5,940833	0,1	0,039696
5,942500	0,1	0,059871
5,944167	0,1	0,053936
5,945833	0,1	0,065630
5,947500	0,1	0,072070
5,949167	0,1	0,070001
5,950833	0,1	0,026180
5,952500	0,1	0,067051
5,954167	0,1	0,083725
5,955833	0,1	0,057151
5,957500	0,1	0,047891
5,959167	0,1	0,057679
5,960833	0,1	0,037872
5,962500	0,1	0,050038
5,964167	0,1	0,059709
5,965833	0,1	0,062939
5,967500	0,1	0,084657
5,969167	0,1	0,042454
5,970833	0,1	0,028824
5,972500	0,1	0,037658
5,974167	0,1	0,064260
5,975833	0,1	0,010964
5,977500	0,1	0,089343
5,979167	0,1	0,034029
5,980833	0,1	0,024599
5,982500	0,1	0,049002
5,984167	0,1	0,082045
5,985833	0,1	0,080995
5,987500	0,1	0,047338
5,989167	0,1	0,098314
5,990833	0,1	0,087315
5,992500	0,1	0,088180
5,994167	0,1	0,051625
5,995833	0,1	0,081714
5,997500	0,1	0,102690
5,999167	0,1	0,025133
6,000833	0,1	0,037306
