File Path	chrom://chromeleon01/ikbm_chromeleon/2022/Rezex/Esteban/220612_chitin_4_7.seq/194.smp/UV_VIS_1.channel/UV_VIS_1.chm
Channel	UV_VIS_1

Injection Information:
Data Vault	ikbm_chromeleon
Injection	Sc10D_06h-ChiBS_3
Injection Number	70
Position	GB7
Comment	
Processing Method	New ProcMethod
Instrument Method	Short_Rezex_6min_194nm
Type	Unknown
Status	Finished
Injection Date	13.06.2022
Injection Time	00:40:44
Injection Volume (µl)	8,000
Dilution Factor	1,0000
Weight	1,0000

Chromatogram Data Information:
Time Min. (min)	0,000833
Time Max. (min)	6,000833
Data Points	3601
Detector	UV
Generating Data System	Chromeleon 7.2.9.11323
Exporting Data System	Chromeleon 7.2.9.0
Operator	Instrument Controller
Signal Quantity	Absorbance
Signal Unit	mAU
Signal Min.	-0,086694
Signal Max.	425,894125
Channel	UV_VIS_1
Driver Name	VWD3000.dll
Channel Type	Evaluation
Min. Step (s)	0,1
Max. Step (s)	0,1
Average Step (s)	0,1

Signal Parameter Information:
Signal Info	WVL:194 nm

Chromatogram Data:
Time (min)	Step (s)	Value (mAU)
0,000833	n.a.	-0,026931
0,002500	0,1	-0,030526
0,004167	0,1	-0,011724
0,005833	0,1	-0,026547
0,007500	0,1	0,001427
0,009167	0,1	-0,014453
0,010833	0,1	-0,009177
0,012500	0,1	-0,051687
0,014167	0,1	-0,054495
0,015833	0,1	0,004961
0,017500	0,1	0,009731
0,019167	0,1	-0,009332
0,020833	0,1	-0,009400
0,022500	0,1	-0,009527
0,024167	0,1	-0,015894
0,025833	0,1	-0,021204
0,027500	0,1	-0,030116
0,029167	0,1	-0,074639
0,030833	0,1	-0,046774
0,032500	0,1	-0,039631
0,034167	0,1	-0,047545
0,035833	0,1	-0,048054
0,037500	0,1	-0,086694
0,039167	0,1	-0,052501
0,040833	0,1	-0,078538
0,042500	0,1	-0,065622
0,044167	0,1	-0,058321
0,045833	0,1	-0,059025
0,047500	0,1	-0,067573
0,049167	0,1	-0,042272
0,050833	0,1	-0,022523
0,052500	0,1	-0,031982
0,054167	0,1	-0,027448
0,055833	0,1	-0,028923
0,057500	0,1	-0,046548
0,059167	0,1	-0,023784
0,060833	0,1	0,005937
0,062500	0,1	0,017803
0,064167	0,1	-0,007756
0,065833	0,1	-0,044513
0,067500	0,1	-0,031861
0,069167	0,1	0,011879
0,070833	0,1	-0,025978
0,072500	0,1	-0,016633
0,074167	0,1	-0,038376
0,075833	0,1	-0,016708
0,077500	0,1	-0,018667
0,079167	0,1	-0,042460
0,080833	0,1	-0,026618
0,082500	0,1	0,011173
0,084167	0,1	-0,004251
0,085833	0,1	0,015778
0,087500	0,1	-0,014285
0,089167	0,1	-0,032551
0,090833	0,1	0,030880
0,092500	0,1	0,040478
0,094167	0,1	0,005465
0,095833	0,1	0,029187
0,097500	0,1	0,019835
0,099167	0,1	-0,008978
0,100833	0,1	-0,016800
0,102500	0,1	-0,005290
0,104167	0,1	0,000889
0,105833	0,1	-0,052806
0,107500	0,1	-0,019056
0,109167	0,1	0,011691
0,110833	0,1	-0,034058
0,112500	0,1	-0,036704
0,114167	0,1	-0,057028
0,115833	0,1	-0,020444
0,117500	0,1	-0,034908
0,119167	0,1	-0,010214
0,120833	0,1	-0,018631
0,122500	0,1	-0,075579
0,124167	0,1	-0,028745
0,125833	0,1	-0,001726
0,127500	0,1	-0,009335
0,129167	0,1	-0,008913
0,130833	0,1	0,001113
0,132500	0,1	-0,015122
0,134167	0,1	-0,014583
0,135833	0,1	-0,015099
0,137500	0,1	-0,008733
0,139167	0,1	-0,010207
0,140833	0,1	0,003947
0,142500	0,1	-0,002623
0,144167	0,1	-0,045418
0,145833	0,1	-0,022596
0,147500	0,1	-0,005744
0,149167	0,1	0,024365
0,150833	0,1	-0,024508
0,152500	0,1	0,006890
0,154167	0,1	0,009533
0,155833	0,1	-0,022130
0,157500	0,1	-0,027345
0,159167	0,1	0,015574
0,160833	0,1	-0,008979
0,162500	0,1	0,006605
0,164167	0,1	-0,008664
0,165833	0,1	0,020406
0,167500	0,1	0,012916
0,169167	0,1	0,002307
0,170833	0,1	-0,000813
0,172500	0,1	0,012429
0,174167	0,1	0,011408
0,175833	0,1	-0,010682
0,177500	0,1	0,016385
0,179167	0,1	0,032469
0,180833	0,1	-0,027721
0,182500	0,1	0,050790
0,184167	0,1	0,024921
0,185833	0,1	0,036618
0,187500	0,1	0,038933
0,189167	0,1	0,026848
0,190833	0,1	0,013467
0,192500	0,1	0,044751
0,194167	0,1	-0,002893
0,195833	0,1	-0,015549
0,197500	0,1	0,029762
0,199167	0,1	0,029093
0,200833	0,1	0,014911
0,202500	0,1	0,038997
0,204167	0,1	0,032475
0,205833	0,1	-0,003992
0,207500	0,1	0,031433
0,209167	0,1	0,011830
0,210833	0,1	0,003175
0,212500	0,1	0,016452
0,214167	0,1	0,010025
0,215833	0,1	0,019606
0,217500	0,1	0,029931
0,219167	0,1	0,024401
0,220833	0,1	0,058451
0,222500	0,1	0,025207
0,224167	0,1	-0,006730
0,225833	0,1	0,016704
0,227500	0,1	0,008638
0,229167	0,1	0,011915
0,230833	0,1	0,011373
0,232500	0,1	0,028318
0,234167	0,1	0,013277
0,235833	0,1	0,028573
0,237500	0,1	0,044145
0,239167	0,1	0,048942
0,240833	0,1	0,009678
0,242500	0,1	0,014906
0,244167	0,1	0,008413
0,245833	0,1	0,019243
0,247500	0,1	0,027714
0,249167	0,1	0,015524
0,250833	0,1	0,025549
0,252500	0,1	0,013142
0,254167	0,1	0,046681
0,255833	0,1	0,021055
0,257500	0,1	0,067518
0,259167	0,1	0,019033
0,260833	0,1	0,031472
0,262500	0,1	0,029221
0,264167	0,1	0,010641
0,265833	0,1	0,026228
0,267500	0,1	0,022500
0,269167	0,1	0,006520
0,270833	0,1	0,044043
0,272500	0,1	0,043154
0,274167	0,1	0,023281
0,275833	0,1	0,041474
0,277500	0,1	0,021895
0,279167	0,1	0,031184
0,280833	0,1	0,086178
0,282500	0,1	-0,007520
0,284167	0,1	0,024039
0,285833	0,1	0,016266
0,287500	0,1	0,038870
0,289167	0,1	0,018035
0,290833	0,1	0,039480
0,292500	0,1	0,052897
0,294167	0,1	0,038266
0,295833	0,1	0,027979
0,297500	0,1	0,035651
0,299167	0,1	0,055978
0,300833	0,1	0,026527
0,302500	0,1	0,040189
0,304167	0,1	0,048425
0,305833	0,1	0,049423
0,307500	0,1	0,035629
0,309167	0,1	0,029992
0,310833	0,1	0,051475
0,312500	0,1	0,075440
0,314167	0,1	0,036024
0,315833	0,1	0,062573
0,317500	0,1	0,021802
0,319167	0,1	0,051700
0,320833	0,1	0,017777
0,322500	0,1	0,075912
0,324167	0,1	0,061904
0,325833	0,1	0,016919
0,327500	0,1	0,049254
0,329167	0,1	0,035338
0,330833	0,1	0,050706
0,332500	0,1	0,053318
0,334167	0,1	0,078689
0,335833	0,1	0,056088
0,337500	0,1	0,076281
0,339167	0,1	0,042646
0,340833	0,1	0,051930
0,342500	0,1	0,100976
0,344167	0,1	0,036730
0,345833	0,1	0,052832
0,347500	0,1	0,072317
0,349167	0,1	0,046920
0,350833	0,1	0,066080
0,352500	0,1	0,049682
0,354167	0,1	0,073028
0,355833	0,1	0,066569
0,357500	0,1	0,035915
0,359167	0,1	0,026006
0,360833	0,1	0,067780
0,362500	0,1	0,080814
0,364167	0,1	0,045954
0,365833	0,1	0,034660
0,367500	0,1	0,079551
0,369167	0,1	0,025537
0,370833	0,1	0,074883
0,372500	0,1	0,095030
0,374167	0,1	0,070492
0,375833	0,1	0,044962
0,377500	0,1	0,089813
0,379167	0,1	0,032035
0,380833	0,1	0,086369
0,382500	0,1	0,079208
0,384167	0,1	0,067948
0,385833	0,1	0,092231
0,387500	0,1	0,071527
0,389167	0,1	0,077084
0,390833	0,1	0,070301
0,392500	0,1	0,105159
0,394167	0,1	0,049755
0,395833	0,1	0,061446
0,397500	0,1	0,067046
0,399167	0,1	0,131918
0,400833	0,1	0,070314
0,402500	0,1	0,063097
0,404167	0,1	0,084187
0,405833	0,1	0,042484
0,407500	0,1	0,085601
0,409167	0,1	0,148937
0,410833	0,1	0,131745
0,412500	0,1	0,125853
0,414167	0,1	0,073429
0,415833	0,1	0,089915
0,417500	0,1	0,067951
0,419167	0,1	0,107892
0,420833	0,1	0,075934
0,422500	0,1	0,100367
0,424167	0,1	0,111244
0,425833	0,1	0,068791
0,427500	0,1	0,124616
0,429167	0,1	0,079674
0,430833	0,1	0,098183
0,432500	0,1	0,092590
0,434167	0,1	0,118995
0,435833	0,1	0,104880
0,437500	0,1	0,073812
0,439167	0,1	0,079461
0,440833	0,1	0,096701
0,442500	0,1	0,091918
0,444167	0,1	0,077923
0,445833	0,1	0,064286
0,447500	0,1	0,111430
0,449167	0,1	0,114914
0,450833	0,1	0,096969
0,452500	0,1	0,085451
0,454167	0,1	0,121628
0,455833	0,1	0,140742
0,457500	0,1	0,114857
0,459167	0,1	0,124211
0,460833	0,1	0,079248
0,462500	0,1	0,093775
0,464167	0,1	0,152507
0,465833	0,1	0,098136
0,467500	0,1	0,092945
0,469167	0,1	0,090367
0,470833	0,1	0,161706
0,472500	0,1	0,108013
0,474167	0,1	0,113143
0,475833	0,1	0,121926
0,477500	0,1	0,115236
0,479167	0,1	0,100764
0,480833	0,1	0,140158
0,482500	0,1	0,084785
0,484167	0,1	0,088792
0,485833	0,1	0,100981
0,487500	0,1	0,084868
0,489167	0,1	0,137226
0,490833	0,1	0,116011
0,492500	0,1	0,146498
0,494167	0,1	0,094855
0,495833	0,1	0,092497
0,497500	0,1	0,109344
0,499167	0,1	0,098254
0,500833	0,1	0,118610
0,502500	0,1	0,119645
0,504167	0,1	0,104912
0,505833	0,1	0,124496
0,507500	0,1	0,104465
0,509167	0,1	0,122951
0,510833	0,1	0,123825
0,512500	0,1	0,138428
0,514167	0,1	0,138624
0,515833	0,1	0,149367
0,517500	0,1	0,120453
0,519167	0,1	0,111991
0,520833	0,1	0,148298
0,522500	0,1	0,130136
0,524167	0,1	0,137336
0,525833	0,1	0,140006
0,527500	0,1	0,116079
0,529167	0,1	0,154186
0,530833	0,1	0,118652
0,532500	0,1	0,106201
0,534167	0,1	0,130449
0,535833	0,1	0,126913
0,537500	0,1	0,151809
0,539167	0,1	0,127529
0,540833	0,1	0,140679
0,542500	0,1	0,143095
0,544167	0,1	0,131934
0,545833	0,1	0,124564
0,547500	0,1	0,115400
0,549167	0,1	0,144696
0,550833	0,1	0,141359
0,552500	0,1	0,105849
0,554167	0,1	0,150291
0,555833	0,1	0,173301
0,557500	0,1	0,142909
0,559167	0,1	0,175422
0,560833	0,1	0,150564
0,562500	0,1	0,109422
0,564167	0,1	0,150003
0,565833	0,1	0,136182
0,567500	0,1	0,199125
0,569167	0,1	0,145007
0,570833	0,1	0,169697
0,572500	0,1	0,150885
0,574167	0,1	0,173010
0,575833	0,1	0,134802
0,577500	0,1	0,134635
0,579167	0,1	0,172298
0,580833	0,1	0,161598
0,582500	0,1	0,157445
0,584167	0,1	0,170986
0,585833	0,1	0,132584
0,587500	0,1	0,190022
0,589167	0,1	0,180160
0,590833	0,1	0,165812
0,592500	0,1	0,166130
0,594167	0,1	0,165520
0,595833	0,1	0,205308
0,597500	0,1	0,164338
0,599167	0,1	0,177807
0,600833	0,1	0,199972
0,602500	0,1	0,153979
0,604167	0,1	0,195913
0,605833	0,1	0,202004
0,607500	0,1	0,193385
0,609167	0,1	0,152369
0,610833	0,1	0,181020
0,612500	0,1	0,195245
0,614167	0,1	0,185856
0,615833	0,1	0,202388
0,617500	0,1	0,186081
0,619167	0,1	0,195663
0,620833	0,1	0,160025
0,622500	0,1	0,236543
0,624167	0,1	0,191913
0,625833	0,1	0,219212
0,627500	0,1	0,220925
0,629167	0,1	0,211435
0,630833	0,1	0,192131
0,632500	0,1	0,232884
0,634167	0,1	0,205583
0,635833	0,1	0,226068
0,637500	0,1	0,200884
0,639167	0,1	0,214839
0,640833	0,1	0,201043
0,642500	0,1	0,241412
0,644167	0,1	0,243320
0,645833	0,1	0,217745
0,647500	0,1	0,211112
0,649167	0,1	0,269916
0,650833	0,1	0,265142
0,652500	0,1	0,233962
0,654167	0,1	0,255158
0,655833	0,1	0,273176
0,657500	0,1	0,224186
0,659167	0,1	0,262554
0,660833	0,1	0,244935
0,662500	0,1	0,283696
0,664167	0,1	0,249508
0,665833	0,1	0,246894
0,667500	0,1	0,230679
0,669167	0,1	0,270180
0,670833	0,1	0,256483
0,672500	0,1	0,272023
0,674167	0,1	0,241687
0,675833	0,1	0,233991
0,677500	0,1	0,317091
0,679167	0,1	0,300704
0,680833	0,1	0,328916
0,682500	0,1	0,311223
0,684167	0,1	0,316113
0,685833	0,1	0,297291
0,687500	0,1	0,264984
0,689167	0,1	0,280001
0,690833	0,1	0,271000
0,692500	0,1	0,295540
0,694167	0,1	0,317331
0,695833	0,1	0,310258
0,697500	0,1	0,292850
0,699167	0,1	0,311474
0,700833	0,1	0,311679
0,702500	0,1	0,325157
0,704167	0,1	0,326636
0,705833	0,1	0,332434
0,707500	0,1	0,324193
0,709167	0,1	0,315602
0,710833	0,1	0,343944
0,712500	0,1	0,330473
0,714167	0,1	0,350709
0,715833	0,1	0,343795
0,717500	0,1	0,349390
0,719167	0,1	0,319027
0,720833	0,1	0,376227
0,722500	0,1	0,396324
0,724167	0,1	0,383586
0,725833	0,1	0,354843
0,727500	0,1	0,403455
0,729167	0,1	0,379970
0,730833	0,1	0,407742
0,732500	0,1	0,402086
0,734167	0,1	0,420267
0,735833	0,1	0,360031
0,737500	0,1	0,398595
0,739167	0,1	0,402923
0,740833	0,1	0,373765
0,742500	0,1	0,468301
0,744167	0,1	0,413108
0,745833	0,1	0,408785
0,747500	0,1	0,396359
0,749167	0,1	0,414407
0,750833	0,1	0,398386
0,752500	0,1	0,433653
0,754167	0,1	0,408594
0,755833	0,1	0,417338
0,757500	0,1	0,374103
0,759167	0,1	0,447136
0,760833	0,1	0,403252
0,762500	0,1	0,421460
0,764167	0,1	0,463807
0,765833	0,1	0,450011
0,767500	0,1	0,412012
0,769167	0,1	0,432078
0,770833	0,1	0,407793
0,772500	0,1	0,398711
0,774167	0,1	0,437803
0,775833	0,1	0,401515
0,777500	0,1	0,426191
0,779167	0,1	0,418956
0,780833	0,1	0,418667
0,782500	0,1	0,402033
0,784167	0,1	0,403055
0,785833	0,1	0,400771
0,787500	0,1	0,387028
0,789167	0,1	0,436355
0,790833	0,1	0,427104
0,792500	0,1	0,446636
0,794167	0,1	0,440531
0,795833	0,1	0,402672
0,797500	0,1	0,407747
0,799167	0,1	0,444794
0,800833	0,1	0,440166
0,802500	0,1	0,453748
0,804167	0,1	0,446921
0,805833	0,1	0,405856
0,807500	0,1	0,419465
0,809167	0,1	0,469600
0,810833	0,1	0,434416
0,812500	0,1	0,373297
0,814167	0,1	0,412667
0,815833	0,1	0,357332
0,817500	0,1	0,414659
0,819167	0,1	0,447211
0,820833	0,1	0,385391
0,822500	0,1	0,424899
0,824167	0,1	0,423883
0,825833	0,1	0,407752
0,827500	0,1	0,429924
0,829167	0,1	0,501921
0,830833	0,1	0,433910
0,832500	0,1	0,493487
0,834167	0,1	0,412984
0,835833	0,1	0,450338
0,837500	0,1	0,405445
0,839167	0,1	0,446844
0,840833	0,1	0,459384
0,842500	0,1	0,465221
0,844167	0,1	0,430291
0,845833	0,1	0,450080
0,847500	0,1	0,439626
0,849167	0,1	0,474254
0,850833	0,1	0,470309
0,852500	0,1	0,440656
0,854167	0,1	0,469617
0,855833	0,1	0,465342
0,857500	0,1	0,450089
0,859167	0,1	0,475322
0,860833	0,1	0,435257
0,862500	0,1	0,481953
0,864167	0,1	0,462520
0,865833	0,1	0,453791
0,867500	0,1	0,446671
0,869167	0,1	0,451016
0,870833	0,1	0,439655
0,872500	0,1	0,511175
0,874167	0,1	0,474587
0,875833	0,1	0,461388
0,877500	0,1	0,476087
0,879167	0,1	0,484919
0,880833	0,1	0,493250
0,882500	0,1	0,490939
0,884167	0,1	0,468342
0,885833	0,1	0,498212
0,887500	0,1	0,474296
0,889167	0,1	0,504364
0,890833	0,1	0,455667
0,892500	0,1	0,473523
0,894167	0,1	0,447040
0,895833	0,1	0,501322
0,897500	0,1	0,510321
0,899167	0,1	0,495806
0,900833	0,1	0,446812
0,902500	0,1	0,485687
0,904167	0,1	0,516558
0,905833	0,1	0,528666
0,907500	0,1	0,523860
0,909167	0,1	0,478493
0,910833	0,1	0,512208
0,912500	0,1	0,509417
0,914167	0,1	0,502244
0,915833	0,1	0,483794
0,917500	0,1	0,562231
0,919167	0,1	0,509667
0,920833	0,1	0,539966
0,922500	0,1	0,528450
0,924167	0,1	0,521036
0,925833	0,1	0,532243
0,927500	0,1	0,497874
0,929167	0,1	0,545048
0,930833	0,1	0,532578
0,932500	0,1	0,554714
0,934167	0,1	0,526273
0,935833	0,1	0,580931
0,937500	0,1	0,539456
0,939167	0,1	0,555360
0,940833	0,1	0,548701
0,942500	0,1	0,521634
0,944167	0,1	0,513282
0,945833	0,1	0,557441
0,947500	0,1	0,531317
0,949167	0,1	0,533994
0,950833	0,1	0,550603
0,952500	0,1	0,545876
0,954167	0,1	0,602587
0,955833	0,1	0,562656
0,957500	0,1	0,522898
0,959167	0,1	0,552466
0,960833	0,1	0,559976
0,962500	0,1	0,582828
0,964167	0,1	0,578814
0,965833	0,1	0,583212
0,967500	0,1	0,550127
0,969167	0,1	0,567570
0,970833	0,1	0,596708
0,972500	0,1	0,565666
0,974167	0,1	0,562333
0,975833	0,1	0,583027
0,977500	0,1	0,593757
0,979167	0,1	0,605752
0,980833	0,1	0,591210
0,982500	0,1	0,621184
0,984167	0,1	0,655922
0,985833	0,1	0,574299
0,987500	0,1	0,610744
0,989167	0,1	0,633911
0,990833	0,1	0,605630
0,992500	0,1	0,633332
0,994167	0,1	0,640223
0,995833	0,1	0,653860
0,997500	0,1	0,603168
0,999167	0,1	0,637372
1,000833	0,1	0,631720
1,002500	0,1	0,654059
1,004167	0,1	0,604655
1,005833	0,1	0,695383
1,007500	0,1	0,639705
1,009167	0,1	0,673448
1,010833	0,1	0,682673
1,012500	0,1	0,717124
1,014167	0,1	0,706470
1,015833	0,1	0,727700
1,017500	0,1	0,716511
1,019167	0,1	0,720861
1,020833	0,1	0,739365
1,022500	0,1	0,712916
1,024167	0,1	0,773638
1,025833	0,1	0,803085
1,027500	0,1	0,746116
1,029167	0,1	0,748837
1,030833	0,1	0,832119
1,032500	0,1	0,830139
1,034167	0,1	0,784174
1,035833	0,1	0,807463
1,037500	0,1	0,815006
1,039167	0,1	0,835269
1,040833	0,1	0,821697
1,042500	0,1	0,836251
1,044167	0,1	0,890677
1,045833	0,1	0,885890
1,047500	0,1	0,905251
1,049167	0,1	0,917040
1,050833	0,1	0,944194
1,052500	0,1	0,930281
1,054167	0,1	0,967079
1,055833	0,1	0,991119
1,057500	0,1	1,051647
1,059167	0,1	1,144512
1,060833	0,1	1,179337
1,062500	0,1	1,351049
1,064167	0,1	1,464705
1,065833	0,1	1,666809
1,067500	0,1	1,895360
1,069167	0,1	2,167625
1,070833	0,1	2,530746
1,072500	0,1	3,013768
1,074167	0,1	3,563901
1,075833	0,1	4,170539
1,077500	0,1	4,966297
1,079167	0,1	5,875815
1,080833	0,1	6,914502
1,082500	0,1	8,084848
1,084167	0,1	9,372527
1,085833	0,1	10,786962
1,087500	0,1	12,365503
1,089167	0,1	14,012295
1,090833	0,1	15,756339
1,092500	0,1	17,578318
1,094167	0,1	19,437490
1,095833	0,1	21,280683
1,097500	0,1	23,110036
1,099167	0,1	24,971459
1,100833	0,1	26,667411
1,102500	0,1	28,371102
1,104167	0,1	29,910204
1,105833	0,1	31,256700
1,107500	0,1	32,593769
1,109167	0,1	33,655246
1,110833	0,1	34,613766
1,112500	0,1	35,374206
1,114167	0,1	36,010140
1,115833	0,1	36,488917
1,117500	0,1	36,774496
1,119167	0,1	36,934865
1,120833	0,1	36,993246
1,122500	0,1	36,958716
1,124167	0,1	36,794900
1,125833	0,1	36,516614
1,127500	0,1	36,217980
1,129167	0,1	35,913523
1,130833	0,1	35,567377
1,132500	0,1	35,112453
1,134167	0,1	34,705095
1,135833	0,1	34,243184
1,137500	0,1	33,898884
1,139167	0,1	33,538974
1,140833	0,1	33,229450
1,142500	0,1	32,906416
1,144167	0,1	32,729273
1,145833	0,1	32,506895
1,147500	0,1	32,428673
1,149167	0,1	32,412020
1,150833	0,1	32,469371
1,152500	0,1	32,566544
1,154167	0,1	32,771655
1,155833	0,1	33,022093
1,157500	0,1	33,335485
1,159167	0,1	33,726444
1,160833	0,1	34,187572
1,162500	0,1	34,688903
1,164167	0,1	35,203113
1,165833	0,1	35,714658
1,167500	0,1	36,308201
1,169167	0,1	36,884105
1,170833	0,1	37,453065
1,172500	0,1	37,988391
1,174167	0,1	38,516181
1,175833	0,1	39,067091
1,177500	0,1	39,532705
1,179167	0,1	39,950065
1,180833	0,1	40,414043
1,182500	0,1	40,803636
1,184167	0,1	41,120141
1,185833	0,1	41,382792
1,187500	0,1	41,669746
1,189167	0,1	41,938221
1,190833	0,1	42,173816
1,192500	0,1	42,414429
1,194167	0,1	42,759503
1,195833	0,1	43,057347
1,197500	0,1	43,420279
1,199167	0,1	43,963400
1,200833	0,1	44,503353
1,202500	0,1	45,230126
1,204167	0,1	46,186195
1,205833	0,1	47,224360
1,207500	0,1	48,492593
1,209167	0,1	50,028316
1,210833	0,1	51,731650
1,212500	0,1	53,712588
1,214167	0,1	55,968322
1,215833	0,1	58,436238
1,217500	0,1	61,178687
1,219167	0,1	64,135720
1,220833	0,1	67,312588
1,222500	0,1	70,708468
1,224167	0,1	74,241405
1,225833	0,1	77,820991
1,227500	0,1	81,561224
1,229167	0,1	85,363354
1,230833	0,1	89,102455
1,232500	0,1	92,915559
1,234167	0,1	96,571550
1,235833	0,1	100,124790
1,237500	0,1	103,532640
1,239167	0,1	106,867378
1,240833	0,1	109,885149
1,242500	0,1	112,731011
1,244167	0,1	115,301263
1,245833	0,1	117,662875
1,247500	0,1	119,686666
1,249167	0,1	121,524691
1,250833	0,1	123,026113
1,252500	0,1	124,224454
1,254167	0,1	125,125484
1,255833	0,1	125,805784
1,257500	0,1	126,202869
1,259167	0,1	126,280782
1,260833	0,1	126,149380
1,262500	0,1	125,688378
1,264167	0,1	124,937568
1,265833	0,1	124,088831
1,267500	0,1	122,890649
1,269167	0,1	121,495773
1,270833	0,1	119,930276
1,272500	0,1	118,193441
1,274167	0,1	116,254641
1,275833	0,1	114,202739
1,277500	0,1	111,968705
1,279167	0,1	109,646250
1,280833	0,1	107,160081
1,282500	0,1	104,644592
1,284167	0,1	102,102095
1,285833	0,1	99,402446
1,287500	0,1	96,784144
1,289167	0,1	94,079816
1,290833	0,1	91,418460
1,292500	0,1	88,687620
1,294167	0,1	86,026966
1,295833	0,1	83,433435
1,297500	0,1	80,821106
1,299167	0,1	78,283867
1,300833	0,1	75,829649
1,302500	0,1	73,437816
1,304167	0,1	71,109253
1,305833	0,1	68,761632
1,307500	0,1	66,626467
1,309167	0,1	64,520330
1,310833	0,1	62,500724
1,312500	0,1	60,497785
1,314167	0,1	58,631930
1,315833	0,1	56,825005
1,317500	0,1	55,070821
1,319167	0,1	53,420801
1,320833	0,1	51,870434
1,322500	0,1	50,349881
1,324167	0,1	48,895406
1,325833	0,1	47,519559
1,327500	0,1	46,146227
1,329167	0,1	44,889591
1,330833	0,1	43,623628
1,332500	0,1	42,450940
1,334167	0,1	41,335434
1,335833	0,1	40,241450
1,337500	0,1	39,173516
1,339167	0,1	38,179998
1,340833	0,1	37,237773
1,342500	0,1	36,279206
1,344167	0,1	35,380892
1,345833	0,1	34,466333
1,347500	0,1	33,674119
1,349167	0,1	32,799066
1,350833	0,1	32,049172
1,352500	0,1	31,261048
1,354167	0,1	30,506679
1,355833	0,1	29,799042
1,357500	0,1	29,074591
1,359167	0,1	28,441230
1,360833	0,1	27,720822
1,362500	0,1	27,101116
1,364167	0,1	26,432152
1,365833	0,1	25,825602
1,367500	0,1	25,232125
1,369167	0,1	24,626629
1,370833	0,1	24,058318
1,372500	0,1	23,498312
1,374167	0,1	23,028854
1,375833	0,1	22,422851
1,377500	0,1	21,967663
1,379167	0,1	21,451353
1,380833	0,1	20,954457
1,382500	0,1	20,528521
1,384167	0,1	20,063382
1,385833	0,1	19,597451
1,387500	0,1	19,187515
1,389167	0,1	18,705077
1,390833	0,1	18,368673
1,392500	0,1	17,962047
1,394167	0,1	17,578346
1,395833	0,1	17,193246
1,397500	0,1	16,823129
1,399167	0,1	16,525846
1,400833	0,1	16,217559
1,402500	0,1	15,863716
1,404167	0,1	15,562255
1,405833	0,1	15,291929
1,407500	0,1	14,964916
1,409167	0,1	14,702144
1,410833	0,1	14,411901
1,412500	0,1	14,164744
1,414167	0,1	13,942194
1,415833	0,1	13,709863
1,417500	0,1	13,462196
1,419167	0,1	13,246469
1,420833	0,1	13,056528
1,422500	0,1	12,810765
1,424167	0,1	12,625839
1,425833	0,1	12,438750
1,427500	0,1	12,232631
1,429167	0,1	12,036113
1,430833	0,1	11,885741
1,432500	0,1	11,729412
1,434167	0,1	11,556401
1,435833	0,1	11,362007
1,437500	0,1	11,245545
1,439167	0,1	11,003370
1,440833	0,1	10,913734
1,442500	0,1	10,750805
1,444167	0,1	10,570027
1,445833	0,1	10,398436
1,447500	0,1	10,315134
1,449167	0,1	10,206691
1,450833	0,1	10,045181
1,452500	0,1	9,914425
1,454167	0,1	9,784104
1,455833	0,1	9,682555
1,457500	0,1	9,540688
1,459167	0,1	9,439329
1,460833	0,1	9,339660
1,462500	0,1	9,204624
1,464167	0,1	9,073141
1,465833	0,1	8,935725
1,467500	0,1	8,870644
1,469167	0,1	8,729883
1,470833	0,1	8,670352
1,472500	0,1	8,595777
1,474167	0,1	8,437898
1,475833	0,1	8,355352
1,477500	0,1	8,295607
1,479167	0,1	8,262267
1,480833	0,1	8,125878
1,482500	0,1	8,061840
1,484167	0,1	7,961685
1,485833	0,1	7,917721
1,487500	0,1	7,863239
1,489167	0,1	7,789223
1,490833	0,1	7,754458
1,492500	0,1	7,713635
1,494167	0,1	7,641756
1,495833	0,1	7,590789
1,497500	0,1	7,536912
1,499167	0,1	7,506133
1,500833	0,1	7,464740
1,502500	0,1	7,418283
1,504167	0,1	7,391250
1,505833	0,1	7,409352
1,507500	0,1	7,348755
1,509167	0,1	7,355248
1,510833	0,1	7,312183
1,512500	0,1	7,295835
1,514167	0,1	7,252193
1,515833	0,1	7,227918
1,517500	0,1	7,176819
1,519167	0,1	7,170652
1,520833	0,1	7,132536
1,522500	0,1	7,168196
1,524167	0,1	7,107688
1,525833	0,1	7,114577
1,527500	0,1	7,042979
1,529167	0,1	7,034655
1,530833	0,1	7,011125
1,532500	0,1	7,017634
1,534167	0,1	6,983575
1,535833	0,1	6,938576
1,537500	0,1	6,950600
1,539167	0,1	6,898709
1,540833	0,1	6,901680
1,542500	0,1	6,877887
1,544167	0,1	6,823938
1,545833	0,1	6,817483
1,547500	0,1	6,802273
1,549167	0,1	6,766528
1,550833	0,1	6,745616
1,552500	0,1	6,795904
1,554167	0,1	6,693940
1,555833	0,1	6,658092
1,557500	0,1	6,672168
1,559167	0,1	6,634207
1,560833	0,1	6,620577
1,562500	0,1	6,593807
1,564167	0,1	6,573001
1,565833	0,1	6,535693
1,567500	0,1	6,453986
1,569167	0,1	6,457515
1,570833	0,1	6,427406
1,572500	0,1	6,424045
1,574167	0,1	6,431590
1,575833	0,1	6,371731
1,577500	0,1	6,340492
1,579167	0,1	6,323339
1,580833	0,1	6,339827
1,582500	0,1	6,308522
1,584167	0,1	6,223500
1,585833	0,1	6,246881
1,587500	0,1	6,180250
1,589167	0,1	6,154334
1,590833	0,1	6,233556
1,592500	0,1	6,138405
1,594167	0,1	6,102229
1,595833	0,1	6,085183
1,597500	0,1	6,061142
1,599167	0,1	6,044652
1,600833	0,1	6,022117
1,602500	0,1	5,968739
1,604167	0,1	6,015206
1,605833	0,1	5,969098
1,607500	0,1	5,942829
1,609167	0,1	5,902955
1,610833	0,1	5,939902
1,612500	0,1	5,918914
1,614167	0,1	5,882462
1,615833	0,1	5,882746
1,617500	0,1	5,832713
1,619167	0,1	5,888678
1,620833	0,1	5,875578
1,622500	0,1	5,865684
1,624167	0,1	5,915245
1,625833	0,1	5,917572
1,627500	0,1	5,977379
1,629167	0,1	5,996542
1,630833	0,1	6,059273
1,632500	0,1	6,132311
1,634167	0,1	6,189551
1,635833	0,1	6,257120
1,637500	0,1	6,393885
1,639167	0,1	6,511404
1,640833	0,1	6,593592
1,642500	0,1	6,814254
1,644167	0,1	6,985490
1,645833	0,1	7,214219
1,647500	0,1	7,455123
1,649167	0,1	7,708981
1,650833	0,1	8,028054
1,652500	0,1	8,383217
1,654167	0,1	8,827235
1,655833	0,1	9,216468
1,657500	0,1	9,732611
1,659167	0,1	10,251761
1,660833	0,1	10,876580
1,662500	0,1	11,557664
1,664167	0,1	12,302468
1,665833	0,1	13,095768
1,667500	0,1	13,944594
1,669167	0,1	14,933575
1,670833	0,1	15,928770
1,672500	0,1	17,117396
1,674167	0,1	18,322267
1,675833	0,1	19,562559
1,677500	0,1	21,082363
1,679167	0,1	22,550487
1,680833	0,1	24,192149
1,682500	0,1	25,918955
1,684167	0,1	27,752547
1,685833	0,1	29,695037
1,687500	0,1	31,764377
1,689167	0,1	33,964291
1,690833	0,1	36,228093
1,692500	0,1	38,685742
1,694167	0,1	41,148026
1,695833	0,1	43,809756
1,697500	0,1	46,535211
1,699167	0,1	49,442758
1,700833	0,1	52,382525
1,702500	0,1	55,453904
1,704167	0,1	58,697452
1,705833	0,1	61,917272
1,707500	0,1	65,308691
1,709167	0,1	68,769922
1,710833	0,1	72,329587
1,712500	0,1	75,998424
1,714167	0,1	79,578588
1,715833	0,1	83,331860
1,717500	0,1	87,194869
1,719167	0,1	90,987385
1,720833	0,1	94,882294
1,722500	0,1	98,848586
1,724167	0,1	102,735976
1,725833	0,1	106,694754
1,727500	0,1	110,691273
1,729167	0,1	114,569419
1,730833	0,1	118,518631
1,732500	0,1	122,420552
1,734167	0,1	126,271693
1,735833	0,1	130,065998
1,737500	0,1	133,768979
1,739167	0,1	137,525749
1,740833	0,1	141,149049
1,742500	0,1	144,662159
1,744167	0,1	148,122433
1,745833	0,1	151,488007
1,747500	0,1	154,776312
1,749167	0,1	157,840439
1,750833	0,1	160,906948
1,752500	0,1	163,736289
1,754167	0,1	166,488796
1,755833	0,1	169,151769
1,757500	0,1	171,604615
1,759167	0,1	173,919381
1,760833	0,1	176,105278
1,762500	0,1	178,062376
1,764167	0,1	179,985269
1,765833	0,1	181,644675
1,767500	0,1	183,163611
1,769167	0,1	184,529099
1,770833	0,1	185,734616
1,772500	0,1	186,719613
1,774167	0,1	187,653962
1,775833	0,1	188,365231
1,777500	0,1	188,881502
1,779167	0,1	189,265701
1,780833	0,1	189,433353
1,782500	0,1	189,518454
1,784167	0,1	189,358454
1,785833	0,1	189,126433
1,787500	0,1	188,732915
1,789167	0,1	188,195098
1,790833	0,1	187,501666
1,792500	0,1	186,622350
1,794167	0,1	185,636229
1,795833	0,1	184,510608
1,797500	0,1	183,283690
1,799167	0,1	181,896747
1,800833	0,1	180,455603
1,802500	0,1	178,886870
1,804167	0,1	177,148691
1,805833	0,1	175,354705
1,807500	0,1	173,469909
1,809167	0,1	171,502646
1,810833	0,1	169,435908
1,812500	0,1	167,293915
1,814167	0,1	165,128573
1,815833	0,1	162,791469
1,817500	0,1	160,429602
1,819167	0,1	158,039765
1,820833	0,1	155,603513
1,822500	0,1	153,122740
1,824167	0,1	150,657857
1,825833	0,1	148,046539
1,827500	0,1	145,448388
1,829167	0,1	142,885710
1,830833	0,1	140,209897
1,832500	0,1	137,577459
1,834167	0,1	134,952440
1,835833	0,1	132,254096
1,837500	0,1	129,607980
1,839167	0,1	126,918001
1,840833	0,1	124,307882
1,842500	0,1	121,629133
1,844167	0,1	119,085809
1,845833	0,1	116,432869
1,847500	0,1	113,902083
1,849167	0,1	111,382546
1,850833	0,1	108,804783
1,852500	0,1	106,394771
1,854167	0,1	103,913488
1,855833	0,1	101,491185
1,857500	0,1	99,095324
1,859167	0,1	96,812275
1,860833	0,1	94,535002
1,862500	0,1	92,243288
1,864167	0,1	90,047718
1,865833	0,1	87,808308
1,867500	0,1	85,694353
1,869167	0,1	83,565475
1,870833	0,1	81,507833
1,872500	0,1	79,488105
1,874167	0,1	77,474237
1,875833	0,1	75,559739
1,877500	0,1	73,671196
1,879167	0,1	71,815661
1,880833	0,1	69,986407
1,882500	0,1	68,250494
1,884167	0,1	66,447926
1,885833	0,1	64,768418
1,887500	0,1	63,099319
1,889167	0,1	61,529603
1,890833	0,1	59,935082
1,892500	0,1	58,373642
1,894167	0,1	56,903311
1,895833	0,1	55,462243
1,897500	0,1	53,996373
1,899167	0,1	52,607436
1,900833	0,1	51,281613
1,902500	0,1	49,980396
1,904167	0,1	48,689808
1,905833	0,1	47,431778
1,907500	0,1	46,269447
1,909167	0,1	45,101837
1,910833	0,1	43,919581
1,912500	0,1	42,810365
1,914167	0,1	41,748277
1,915833	0,1	40,681968
1,917500	0,1	39,618838
1,919167	0,1	38,678379
1,920833	0,1	37,691403
1,922500	0,1	36,746784
1,924167	0,1	35,838910
1,925833	0,1	34,966140
1,927500	0,1	34,087068
1,929167	0,1	33,241166
1,930833	0,1	32,390020
1,932500	0,1	31,605366
1,934167	0,1	30,851527
1,935833	0,1	30,068107
1,937500	0,1	29,374838
1,939167	0,1	28,645157
1,940833	0,1	27,949276
1,942500	0,1	27,318078
1,944167	0,1	26,652256
1,945833	0,1	26,004879
1,947500	0,1	25,433620
1,949167	0,1	24,793072
1,950833	0,1	24,225562
1,952500	0,1	23,700924
1,954167	0,1	23,114102
1,955833	0,1	22,676263
1,957500	0,1	22,108978
1,959167	0,1	21,632680
1,960833	0,1	21,161149
1,962500	0,1	20,696823
1,964167	0,1	20,253740
1,965833	0,1	19,835704
1,967500	0,1	19,377255
1,969167	0,1	19,003942
1,970833	0,1	18,620984
1,972500	0,1	18,270137
1,974167	0,1	17,889423
1,975833	0,1	17,510514
1,977500	0,1	17,199741
1,979167	0,1	16,891293
1,980833	0,1	16,602688
1,982500	0,1	16,243739
1,984167	0,1	15,960164
1,985833	0,1	15,682654
1,987500	0,1	15,402276
1,989167	0,1	15,184130
1,990833	0,1	14,951075
1,992500	0,1	14,669035
1,994167	0,1	14,442451
1,995833	0,1	14,271358
1,997500	0,1	14,086366
1,999167	0,1	13,889090
2,000833	0,1	13,663384
2,002500	0,1	13,501552
2,004167	0,1	13,291810
2,005833	0,1	13,171097
2,007500	0,1	13,027500
2,009167	0,1	12,879361
2,010833	0,1	12,656008
2,012500	0,1	12,599110
2,014167	0,1	12,454276
2,015833	0,1	12,401036
2,017500	0,1	12,278262
2,019167	0,1	12,176091
2,020833	0,1	12,050489
2,022500	0,1	11,961244
2,024167	0,1	11,870173
2,025833	0,1	11,790623
2,027500	0,1	11,732656
2,029167	0,1	11,643970
2,030833	0,1	11,569894
2,032500	0,1	11,541719
2,034167	0,1	11,495794
2,035833	0,1	11,427819
2,037500	0,1	11,398985
2,039167	0,1	11,331007
2,040833	0,1	11,329125
2,042500	0,1	11,223487
2,044167	0,1	11,244078
2,045833	0,1	11,199029
2,047500	0,1	11,146485
2,049167	0,1	11,105250
2,050833	0,1	11,106858
2,052500	0,1	11,046278
2,054167	0,1	11,058797
2,055833	0,1	11,034902
2,057500	0,1	10,954047
2,059167	0,1	10,999117
2,060833	0,1	10,953300
2,062500	0,1	10,944040
2,064167	0,1	10,908235
2,065833	0,1	10,895892
2,067500	0,1	10,906102
2,069167	0,1	10,898385
2,070833	0,1	10,844189
2,072500	0,1	10,865238
2,074167	0,1	10,828035
2,075833	0,1	10,822065
2,077500	0,1	10,788034
2,079167	0,1	10,749356
2,080833	0,1	10,809745
2,082500	0,1	10,758403
2,084167	0,1	10,761027
2,085833	0,1	10,736416
2,087500	0,1	10,687435
2,089167	0,1	10,707956
2,090833	0,1	10,680322
2,092500	0,1	10,665004
2,094167	0,1	10,663134
2,095833	0,1	10,602071
2,097500	0,1	10,622484
2,099167	0,1	10,589549
2,100833	0,1	10,525898
2,102500	0,1	10,509353
2,104167	0,1	10,527529
2,105833	0,1	10,463793
2,107500	0,1	10,457633
2,109167	0,1	10,463339
2,110833	0,1	10,414434
2,112500	0,1	10,405799
2,114167	0,1	10,383679
2,115833	0,1	10,352008
2,117500	0,1	10,315122
2,119167	0,1	10,273796
2,120833	0,1	10,238013
2,122500	0,1	10,234272
2,124167	0,1	10,161800
2,125833	0,1	10,107912
2,127500	0,1	10,118607
2,129167	0,1	10,077575
2,130833	0,1	10,047183
2,132500	0,1	9,982920
2,134167	0,1	9,988759
2,135833	0,1	9,902178
2,137500	0,1	9,929748
2,139167	0,1	9,831356
2,140833	0,1	9,806541
2,142500	0,1	9,784078
2,144167	0,1	9,726459
2,145833	0,1	9,691609
2,147500	0,1	9,690071
2,149167	0,1	9,601508
2,150833	0,1	9,583712
2,152500	0,1	9,526861
2,154167	0,1	9,494766
2,155833	0,1	9,447164
2,157500	0,1	9,419317
2,159167	0,1	9,410771
2,160833	0,1	9,339589
2,162500	0,1	9,280207
2,164167	0,1	9,303617
2,165833	0,1	9,235135
2,167500	0,1	9,211985
2,169167	0,1	9,145274
2,170833	0,1	9,131430
2,172500	0,1	9,073572
2,174167	0,1	9,010597
2,175833	0,1	8,999351
2,177500	0,1	8,976545
2,179167	0,1	8,928238
2,180833	0,1	8,892576
2,182500	0,1	8,838057
2,184167	0,1	8,773876
2,185833	0,1	8,761530
2,187500	0,1	8,770507
2,189167	0,1	8,690945
2,190833	0,1	8,677223
2,192500	0,1	8,601784
2,194167	0,1	8,591213
2,195833	0,1	8,538145
2,197500	0,1	8,531518
2,199167	0,1	8,504741
2,200833	0,1	8,495322
2,202500	0,1	8,403573
2,204167	0,1	8,394324
2,205833	0,1	8,366361
2,207500	0,1	8,312249
2,209167	0,1	8,313420
2,210833	0,1	8,235956
2,212500	0,1	8,241534
2,214167	0,1	8,182403
2,215833	0,1	8,178257
2,217500	0,1	8,116330
2,219167	0,1	8,123179
2,220833	0,1	8,081749
2,222500	0,1	8,076934
2,224167	0,1	8,025481
2,225833	0,1	7,991784
2,227500	0,1	7,985545
2,229167	0,1	7,978179
2,230833	0,1	7,947296
2,232500	0,1	7,918297
2,234167	0,1	7,916936
2,235833	0,1	7,922157
2,237500	0,1	7,873519
2,239167	0,1	7,869364
2,240833	0,1	7,857100
2,242500	0,1	7,814638
2,244167	0,1	7,829311
2,245833	0,1	7,810786
2,247500	0,1	7,733384
2,249167	0,1	7,740730
2,250833	0,1	7,729898
2,252500	0,1	7,717231
2,254167	0,1	7,677973
2,255833	0,1	7,647901
2,257500	0,1	7,653227
2,259167	0,1	7,654787
2,260833	0,1	7,624390
2,262500	0,1	7,624383
2,264167	0,1	7,588391
2,265833	0,1	7,562987
2,267500	0,1	7,541515
2,269167	0,1	7,496903
2,270833	0,1	7,492930
2,272500	0,1	7,474878
2,274167	0,1	7,494219
2,275833	0,1	7,404457
2,277500	0,1	7,382003
2,279167	0,1	7,395154
2,280833	0,1	7,403831
2,282500	0,1	7,355165
2,284167	0,1	7,326754
2,285833	0,1	7,298809
2,287500	0,1	7,271060
2,289167	0,1	7,288698
2,290833	0,1	7,219961
2,292500	0,1	7,166357
2,294167	0,1	7,192208
2,295833	0,1	7,131961
2,297500	0,1	7,111042
2,299167	0,1	7,096665
2,300833	0,1	7,079178
2,302500	0,1	7,066963
2,304167	0,1	7,001875
2,305833	0,1	7,020709
2,307500	0,1	6,984687
2,309167	0,1	6,968803
2,310833	0,1	6,933983
2,312500	0,1	6,915034
2,314167	0,1	6,893379
2,315833	0,1	6,876753
2,317500	0,1	6,844643
2,319167	0,1	6,825232
2,320833	0,1	6,821675
2,322500	0,1	6,764198
2,324167	0,1	6,753921
2,325833	0,1	6,723967
2,327500	0,1	6,741128
2,329167	0,1	6,658661
2,330833	0,1	6,687746
2,332500	0,1	6,635421
2,334167	0,1	6,605095
2,335833	0,1	6,635309
2,337500	0,1	6,635316
2,339167	0,1	6,568534
2,340833	0,1	6,530466
2,342500	0,1	6,520297
2,344167	0,1	6,531952
2,345833	0,1	6,495956
2,347500	0,1	6,492124
2,349167	0,1	6,478878
2,350833	0,1	6,469276
2,352500	0,1	6,471232
2,354167	0,1	6,444477
2,355833	0,1	6,453226
2,357500	0,1	6,447633
2,359167	0,1	6,436444
2,360833	0,1	6,459481
2,362500	0,1	6,440461
2,364167	0,1	6,417704
2,365833	0,1	6,423951
2,367500	0,1	6,471689
2,369167	0,1	6,445031
2,370833	0,1	6,459476
2,372500	0,1	6,483631
2,374167	0,1	6,500236
2,375833	0,1	6,508537
2,377500	0,1	6,511621
2,379167	0,1	6,548823
2,380833	0,1	6,607126
2,382500	0,1	6,654058
2,384167	0,1	6,683735
2,385833	0,1	6,765099
2,387500	0,1	6,761572
2,389167	0,1	6,840797
2,390833	0,1	6,901006
2,392500	0,1	6,988860
2,394167	0,1	7,062647
2,395833	0,1	7,172555
2,397500	0,1	7,251691
2,399167	0,1	7,368318
2,400833	0,1	7,491239
2,402500	0,1	7,591713
2,404167	0,1	7,754232
2,405833	0,1	7,861514
2,407500	0,1	8,015107
2,409167	0,1	8,180984
2,410833	0,1	8,368198
2,412500	0,1	8,503463
2,414167	0,1	8,720990
2,415833	0,1	8,961067
2,417500	0,1	9,172169
2,419167	0,1	9,438927
2,420833	0,1	9,662105
2,422500	0,1	9,898054
2,424167	0,1	10,158650
2,425833	0,1	10,446574
2,427500	0,1	10,687194
2,429167	0,1	10,978900
2,430833	0,1	11,317706
2,432500	0,1	11,625102
2,434167	0,1	11,941511
2,435833	0,1	12,278422
2,437500	0,1	12,556895
2,439167	0,1	12,913735
2,440833	0,1	13,273635
2,442500	0,1	13,615029
2,444167	0,1	13,942979
2,445833	0,1	14,324389
2,447500	0,1	14,689244
2,449167	0,1	15,027361
2,450833	0,1	15,380931
2,452500	0,1	15,771468
2,454167	0,1	16,131397
2,455833	0,1	16,585803
2,457500	0,1	16,952981
2,459167	0,1	17,438307
2,460833	0,1	17,876058
2,462500	0,1	18,323051
2,464167	0,1	18,778397
2,465833	0,1	19,266593
2,467500	0,1	19,838052
2,469167	0,1	20,333044
2,470833	0,1	20,974156
2,472500	0,1	21,588344
2,474167	0,1	22,284002
2,475833	0,1	23,096550
2,477500	0,1	23,853136
2,479167	0,1	24,695698
2,480833	0,1	25,680848
2,482500	0,1	26,711283
2,484167	0,1	27,900681
2,485833	0,1	29,101825
2,487500	0,1	30,434055
2,489167	0,1	31,920791
2,490833	0,1	33,525897
2,492500	0,1	35,359816
2,494167	0,1	37,230761
2,495833	0,1	39,275800
2,497500	0,1	41,523458
2,499167	0,1	43,972496
2,500833	0,1	46,659319
2,502500	0,1	49,457973
2,504167	0,1	52,503183
2,505833	0,1	55,780480
2,507500	0,1	59,350021
2,509167	0,1	63,130020
2,510833	0,1	67,124994
2,512500	0,1	71,447332
2,514167	0,1	75,980178
2,515833	0,1	80,741723
2,517500	0,1	85,820837
2,519167	0,1	91,159718
2,520833	0,1	96,805546
2,522500	0,1	102,749569
2,524167	0,1	108,896316
2,525833	0,1	115,293120
2,527500	0,1	121,984678
2,529167	0,1	128,844505
2,530833	0,1	136,062536
2,532500	0,1	143,409846
2,534167	0,1	151,067073
2,535833	0,1	158,822061
2,537500	0,1	166,788834
2,539167	0,1	174,903393
2,540833	0,1	183,223063
2,542500	0,1	191,697924
2,544167	0,1	200,267904
2,545833	0,1	208,890696
2,547500	0,1	217,500545
2,549167	0,1	226,267064
2,550833	0,1	235,030838
2,552500	0,1	243,798154
2,554167	0,1	252,501794
2,555833	0,1	261,205405
2,557500	0,1	269,785418
2,559167	0,1	278,329518
2,560833	0,1	286,692530
2,562500	0,1	295,020888
2,564167	0,1	303,087543
2,565833	0,1	311,096724
2,567500	0,1	318,830823
2,569167	0,1	326,314391
2,570833	0,1	333,647583
2,572500	0,1	340,753655
2,574167	0,1	347,652493
2,575833	0,1	354,117728
2,577500	0,1	360,480487
2,579167	0,1	366,497929
2,580833	0,1	372,271031
2,582500	0,1	377,661316
2,584167	0,1	382,892668
2,585833	0,1	387,706989
2,587500	0,1	392,351681
2,589167	0,1	396,603783
2,590833	0,1	400,548168
2,592500	0,1	404,166660
2,594167	0,1	407,570045
2,595833	0,1	410,560226
2,597500	0,1	413,346440
2,599167	0,1	415,829181
2,600833	0,1	418,041425
2,602500	0,1	419,869572
2,604167	0,1	421,514792
2,605833	0,1	422,900052
2,607500	0,1	423,981376
2,609167	0,1	424,839157
2,610833	0,1	425,406942
2,612500	0,1	425,828255
2,614167	0,1	425,894125
2,615833	0,1	425,643591
2,617500	0,1	425,381592
2,619167	0,1	424,742816
2,620833	0,1	423,887575
2,622500	0,1	422,864199
2,624167	0,1	421,618367
2,625833	0,1	420,248286
2,627500	0,1	418,549382
2,629167	0,1	416,730126
2,630833	0,1	414,791781
2,632500	0,1	412,521672
2,634167	0,1	410,222846
2,635833	0,1	407,692727
2,637500	0,1	405,063689
2,639167	0,1	402,258536
2,640833	0,1	399,250684
2,642500	0,1	396,130640
2,644167	0,1	392,943266
2,645833	0,1	389,558596
2,647500	0,1	386,075942
2,649167	0,1	382,430311
2,650833	0,1	378,690851
2,652500	0,1	374,882531
2,654167	0,1	370,938952
2,655833	0,1	366,889801
2,657500	0,1	362,790618
2,659167	0,1	358,607254
2,660833	0,1	354,270603
2,662500	0,1	349,920659
2,664167	0,1	345,506942
2,665833	0,1	341,042761
2,667500	0,1	336,470473
2,669167	0,1	331,933540
2,670833	0,1	327,272238
2,672500	0,1	322,608105
2,674167	0,1	317,925015
2,675833	0,1	313,172072
2,677500	0,1	308,410735
2,679167	0,1	303,645885
2,680833	0,1	298,889542
2,682500	0,1	294,137258
2,684167	0,1	289,276582
2,685833	0,1	284,539137
2,687500	0,1	279,778121
2,689167	0,1	274,990192
2,690833	0,1	270,204081
2,692500	0,1	265,520630
2,694167	0,1	260,768989
2,695833	0,1	256,130118
2,697500	0,1	251,464176
2,699167	0,1	246,880156
2,700833	0,1	242,371539
2,702500	0,1	237,826454
2,704167	0,1	233,347053
2,705833	0,1	228,923641
2,707500	0,1	224,579150
2,709167	0,1	220,245704
2,710833	0,1	215,956710
2,712500	0,1	211,698855
2,714167	0,1	207,624879
2,715833	0,1	203,505256
2,717500	0,1	199,491478
2,719167	0,1	195,555484
2,720833	0,1	191,626100
2,722500	0,1	187,814567
2,724167	0,1	184,041347
2,725833	0,1	180,359468
2,727500	0,1	176,777152
2,729167	0,1	173,147066
2,730833	0,1	169,696432
2,732500	0,1	166,274141
2,734167	0,1	162,915213
2,735833	0,1	159,616375
2,737500	0,1	156,442842
2,739167	0,1	153,330834
2,740833	0,1	150,220134
2,742500	0,1	147,235065
2,744167	0,1	144,279787
2,745833	0,1	141,381502
2,747500	0,1	138,591889
2,749167	0,1	135,766085
2,750833	0,1	133,118557
2,752500	0,1	130,439241
2,754167	0,1	127,896158
2,755833	0,1	125,346205
2,757500	0,1	122,954879
2,759167	0,1	120,535120
2,760833	0,1	118,217143
2,762500	0,1	115,863185
2,764167	0,1	113,645887
2,765833	0,1	111,433895
2,767500	0,1	109,270575
2,769167	0,1	107,207901
2,770833	0,1	105,110636
2,772500	0,1	103,162784
2,774167	0,1	101,168294
2,775833	0,1	99,268050
2,777500	0,1	97,331738
2,779167	0,1	95,542614
2,780833	0,1	93,692911
2,782500	0,1	91,953003
2,784167	0,1	90,249935
2,785833	0,1	88,543631
2,787500	0,1	86,902310
2,789167	0,1	85,299076
2,790833	0,1	83,700106
2,792500	0,1	82,156303
2,794167	0,1	80,604943
2,795833	0,1	79,135671
2,797500	0,1	77,655474
2,799167	0,1	76,227464
2,800833	0,1	74,810981
2,802500	0,1	73,442427
2,804167	0,1	72,092468
2,805833	0,1	70,813654
2,807500	0,1	69,543331
2,809167	0,1	68,244638
2,810833	0,1	66,969500
2,812500	0,1	65,754647
2,814167	0,1	64,575896
2,815833	0,1	63,379383
2,817500	0,1	62,232314
2,819167	0,1	61,132505
2,820833	0,1	60,010567
2,822500	0,1	58,940017
2,824167	0,1	57,893245
2,825833	0,1	56,826499
2,827500	0,1	55,758275
2,829167	0,1	54,870375
2,830833	0,1	53,833428
2,832500	0,1	52,902070
2,834167	0,1	51,939507
2,835833	0,1	51,054108
2,837500	0,1	50,153143
2,839167	0,1	49,242985
2,840833	0,1	48,404212
2,842500	0,1	47,567439
2,844167	0,1	46,678601
2,845833	0,1	45,871110
2,847500	0,1	45,142844
2,849167	0,1	44,297790
2,850833	0,1	43,585264
2,852500	0,1	42,845530
2,854167	0,1	42,141567
2,855833	0,1	41,415750
2,857500	0,1	40,690179
2,859167	0,1	40,079617
2,860833	0,1	39,379765
2,862500	0,1	38,736670
2,864167	0,1	38,110089
2,865833	0,1	37,505400
2,867500	0,1	36,901883
2,869167	0,1	36,316190
2,870833	0,1	35,690082
2,872500	0,1	35,166669
2,874167	0,1	34,619504
2,875833	0,1	34,113703
2,877500	0,1	33,596290
2,879167	0,1	33,079787
2,880833	0,1	32,601238
2,882500	0,1	32,117667
2,884167	0,1	31,630020
2,885833	0,1	31,147394
2,887500	0,1	30,771641
2,889167	0,1	30,287935
2,890833	0,1	29,878790
2,892500	0,1	29,475445
2,894167	0,1	29,085308
2,895833	0,1	28,665221
2,897500	0,1	28,282919
2,899167	0,1	27,889449
2,900833	0,1	27,559211
2,902500	0,1	27,174938
2,904167	0,1	26,792033
2,905833	0,1	26,451268
2,907500	0,1	26,178979
2,909167	0,1	25,831663
2,910833	0,1	25,508117
2,912500	0,1	25,213977
2,914167	0,1	24,888086
2,915833	0,1	24,569766
2,917500	0,1	24,298407
2,919167	0,1	24,003563
2,920833	0,1	23,732195
2,922500	0,1	23,455114
2,924167	0,1	23,219431
2,925833	0,1	22,940412
2,927500	0,1	22,695004
2,929167	0,1	22,408957
2,930833	0,1	22,154380
2,932500	0,1	21,933498
2,934167	0,1	21,704505
2,935833	0,1	21,445692
2,937500	0,1	21,243551
2,939167	0,1	21,008755
2,940833	0,1	20,796928
2,942500	0,1	20,596010
2,944167	0,1	20,341103
2,945833	0,1	20,169913
2,947500	0,1	19,960491
2,949167	0,1	19,771602
2,950833	0,1	19,550750
2,952500	0,1	19,386708
2,954167	0,1	19,199400
2,955833	0,1	19,007148
2,957500	0,1	18,839784
2,959167	0,1	18,620089
2,960833	0,1	18,452481
2,962500	0,1	18,262042
2,964167	0,1	18,098685
2,965833	0,1	17,916133
2,967500	0,1	17,745699
2,969167	0,1	17,579398
2,970833	0,1	17,396147
2,972500	0,1	17,253038
2,974167	0,1	17,110548
2,975833	0,1	16,894536
2,977500	0,1	16,771862
2,979167	0,1	16,637617
2,980833	0,1	16,469397
2,982500	0,1	16,306298
2,984167	0,1	16,136189
2,985833	0,1	15,982271
2,987500	0,1	15,865510
2,989167	0,1	15,698632
2,990833	0,1	15,581269
2,992500	0,1	15,436499
2,994167	0,1	15,270849
2,995833	0,1	15,158669
2,997500	0,1	14,999267
2,999167	0,1	14,808494
3,000833	0,1	14,699224
3,002500	0,1	14,653703
3,004167	0,1	14,490003
3,005833	0,1	14,340111
3,007500	0,1	14,203517
3,009167	0,1	14,090208
3,010833	0,1	13,973907
3,012500	0,1	13,829456
3,014167	0,1	13,734272
3,015833	0,1	13,562913
3,017500	0,1	13,484674
3,019167	0,1	13,352799
3,020833	0,1	13,215818
3,022500	0,1	13,132049
3,024167	0,1	12,990588
3,025833	0,1	12,893682
3,027500	0,1	12,756051
3,029167	0,1	12,678035
3,030833	0,1	12,539963
3,032500	0,1	12,447677
3,034167	0,1	12,322000
3,035833	0,1	12,216407
3,037500	0,1	12,085297
3,039167	0,1	11,974163
3,040833	0,1	11,903682
3,042500	0,1	11,752348
3,044167	0,1	11,681628
3,045833	0,1	11,540500
3,047500	0,1	11,469008
3,049167	0,1	11,325179
3,050833	0,1	11,278419
3,052500	0,1	11,218470
3,054167	0,1	11,064594
3,055833	0,1	10,981319
3,057500	0,1	10,899191
3,059167	0,1	10,773698
3,060833	0,1	10,681889
3,062500	0,1	10,584825
3,064167	0,1	10,495312
3,065833	0,1	10,456532
3,067500	0,1	10,329142
3,069167	0,1	10,222935
3,070833	0,1	10,201522
3,072500	0,1	10,077657
3,074167	0,1	10,001351
3,075833	0,1	9,907022
3,077500	0,1	9,822189
3,079167	0,1	9,761472
3,080833	0,1	9,693102
3,082500	0,1	9,566773
3,084167	0,1	9,543455
3,085833	0,1	9,415800
3,087500	0,1	9,343111
3,089167	0,1	9,284791
3,090833	0,1	9,250618
3,092500	0,1	9,139023
3,094167	0,1	9,114078
3,095833	0,1	9,040081
3,097500	0,1	8,986436
3,099167	0,1	8,870310
3,100833	0,1	8,854046
3,102500	0,1	8,809803
3,104167	0,1	8,700283
3,105833	0,1	8,634700
3,107500	0,1	8,621494
3,109167	0,1	8,565508
3,110833	0,1	8,536669
3,112500	0,1	8,396776
3,114167	0,1	8,417041
3,115833	0,1	8,345009
3,117500	0,1	8,263743
3,119167	0,1	8,239951
3,120833	0,1	8,222759
3,122500	0,1	8,133666
3,124167	0,1	8,096521
3,125833	0,1	8,099524
3,127500	0,1	7,990870
3,129167	0,1	7,988224
3,130833	0,1	7,956110
3,132500	0,1	7,873590
3,134167	0,1	7,867722
3,135833	0,1	7,825869
3,137500	0,1	7,788329
3,139167	0,1	7,788892
3,140833	0,1	7,717294
3,142500	0,1	7,705365
3,144167	0,1	7,636195
3,145833	0,1	7,633157
3,147500	0,1	7,603220
3,149167	0,1	7,581285
3,150833	0,1	7,521711
3,152500	0,1	7,497696
3,154167	0,1	7,499882
3,155833	0,1	7,485152
3,157500	0,1	7,424990
3,159167	0,1	7,385985
3,160833	0,1	7,371758
3,162500	0,1	7,317495
3,164167	0,1	7,290605
3,165833	0,1	7,320842
3,167500	0,1	7,294221
3,169167	0,1	7,278337
3,170833	0,1	7,208190
3,172500	0,1	7,208068
3,174167	0,1	7,202184
3,175833	0,1	7,176107
3,177500	0,1	7,115615
3,179167	0,1	7,040996
3,180833	0,1	7,049105
3,182500	0,1	7,001112
3,184167	0,1	6,977491
3,185833	0,1	6,972716
3,187500	0,1	6,932493
3,189167	0,1	6,852126
3,190833	0,1	6,868715
3,192500	0,1	6,790801
3,194167	0,1	6,788542
3,195833	0,1	6,738156
3,197500	0,1	6,742903
3,199167	0,1	6,713888
3,200833	0,1	6,698301
3,202500	0,1	6,638783
3,204167	0,1	6,582340
3,205833	0,1	6,582884
3,207500	0,1	6,505298
3,209167	0,1	6,512277
3,210833	0,1	6,454929
3,212500	0,1	6,438225
3,214167	0,1	6,414727
3,215833	0,1	6,300898
3,217500	0,1	6,314103
3,219167	0,1	6,325959
3,220833	0,1	6,232840
3,222500	0,1	6,207573
3,224167	0,1	6,175592
3,225833	0,1	6,125288
3,227500	0,1	6,107295
3,229167	0,1	6,092591
3,230833	0,1	6,035388
3,232500	0,1	6,003977
3,234167	0,1	5,943691
3,235833	0,1	5,910363
3,237500	0,1	5,903657
3,239167	0,1	5,855783
3,240833	0,1	5,752229
3,242500	0,1	5,795391
3,244167	0,1	5,740129
3,245833	0,1	5,725753
3,247500	0,1	5,675508
3,249167	0,1	5,623717
3,250833	0,1	5,606091
3,252500	0,1	5,524816
3,254167	0,1	5,468546
3,255833	0,1	5,501743
3,257500	0,1	5,425653
3,259167	0,1	5,404818
3,260833	0,1	5,401645
3,262500	0,1	5,303827
3,264167	0,1	5,299094
3,265833	0,1	5,255438
3,267500	0,1	5,218048
3,269167	0,1	5,183137
3,270833	0,1	5,174409
3,272500	0,1	5,087476
3,274167	0,1	5,070256
3,275833	0,1	5,037245
3,277500	0,1	4,996024
3,279167	0,1	4,943868
3,280833	0,1	4,946628
3,282500	0,1	4,895757
3,284167	0,1	4,867729
3,285833	0,1	4,859322
3,287500	0,1	4,830935
3,289167	0,1	4,743895
3,290833	0,1	4,687347
3,292500	0,1	4,683065
3,294167	0,1	4,683998
3,295833	0,1	4,621486
3,297500	0,1	4,598473
3,299167	0,1	4,542833
3,300833	0,1	4,563311
3,302500	0,1	4,489229
3,304167	0,1	4,500405
3,305833	0,1	4,472971
3,307500	0,1	4,467249
3,309167	0,1	4,399422
3,310833	0,1	4,334900
3,312500	0,1	4,352457
3,314167	0,1	4,333059
3,315833	0,1	4,300169
3,317500	0,1	4,303089
3,319167	0,1	4,242083
3,320833	0,1	4,238704
3,322500	0,1	4,214112
3,324167	0,1	4,172710
3,325833	0,1	4,134113
3,327500	0,1	4,137841
3,329167	0,1	4,088266
3,330833	0,1	4,111051
3,332500	0,1	4,104810
3,334167	0,1	4,056045
3,335833	0,1	4,032789
3,337500	0,1	3,998225
3,339167	0,1	3,983088
3,340833	0,1	3,973187
3,342500	0,1	3,954002
3,344167	0,1	3,946250
3,345833	0,1	3,974193
3,347500	0,1	3,898280
3,349167	0,1	3,875957
3,350833	0,1	3,938000
3,352500	0,1	3,873210
3,354167	0,1	3,846513
3,355833	0,1	3,877934
3,357500	0,1	3,845056
3,359167	0,1	3,866582
3,360833	0,1	3,817404
3,362500	0,1	3,800119
3,364167	0,1	3,798371
3,365833	0,1	3,771121
3,367500	0,1	3,784459
3,369167	0,1	3,822288
3,370833	0,1	3,787066
3,372500	0,1	3,763787
3,374167	0,1	3,789974
3,375833	0,1	3,761074
3,377500	0,1	3,718341
3,379167	0,1	3,760286
3,380833	0,1	3,699722
3,382500	0,1	3,726918
3,384167	0,1	3,705728
3,385833	0,1	3,653149
3,387500	0,1	3,661157
3,389167	0,1	3,689454
3,390833	0,1	3,654522
3,392500	0,1	3,708579
3,394167	0,1	3,688045
3,395833	0,1	3,659346
3,397500	0,1	3,674378
3,399167	0,1	3,660490
3,400833	0,1	3,711237
3,402500	0,1	3,627817
3,404167	0,1	3,643324
3,405833	0,1	3,625298
3,407500	0,1	3,650296
3,409167	0,1	3,661077
3,410833	0,1	3,626178
3,412500	0,1	3,628580
3,414167	0,1	3,628695
3,415833	0,1	3,602712
3,417500	0,1	3,605108
3,419167	0,1	3,617870
3,420833	0,1	3,643810
3,422500	0,1	3,610134
3,424167	0,1	3,613857
3,425833	0,1	3,567890
3,427500	0,1	3,612105
3,429167	0,1	3,636835
3,430833	0,1	3,556522
3,432500	0,1	3,598089
3,434167	0,1	3,598656
3,435833	0,1	3,542933
3,437500	0,1	3,586212
3,439167	0,1	3,582285
3,440833	0,1	3,587108
3,442500	0,1	3,561586
3,444167	0,1	3,571667
3,445833	0,1	3,577438
3,447500	0,1	3,588893
3,449167	0,1	3,529662
3,450833	0,1	3,569463
3,452500	0,1	3,553392
3,454167	0,1	3,577500
3,455833	0,1	3,570467
3,457500	0,1	3,587388
3,459167	0,1	3,535448
3,460833	0,1	3,578872
3,462500	0,1	3,564984
3,464167	0,1	3,562057
3,465833	0,1	3,534621
3,467500	0,1	3,576472
3,469167	0,1	3,593193
3,470833	0,1	3,605628
3,472500	0,1	3,574795
3,474167	0,1	3,586093
3,475833	0,1	3,600188
3,477500	0,1	3,593322
3,479167	0,1	3,581387
3,480833	0,1	3,591202
3,482500	0,1	3,618936
3,484167	0,1	3,583338
3,485833	0,1	3,631210
3,487500	0,1	3,627523
3,489167	0,1	3,621153
3,490833	0,1	3,625611
3,492500	0,1	3,660911
3,494167	0,1	3,638520
3,495833	0,1	3,660116
3,497500	0,1	3,665309
3,499167	0,1	3,662707
3,500833	0,1	3,682855
3,502500	0,1	3,669196
3,504167	0,1	3,704292
3,505833	0,1	3,693355
3,507500	0,1	3,720228
3,509167	0,1	3,719418
3,510833	0,1	3,681366
3,512500	0,1	3,707254
3,514167	0,1	3,699201
3,515833	0,1	3,711184
3,517500	0,1	3,760734
3,519167	0,1	3,769297
3,520833	0,1	3,742741
3,522500	0,1	3,743303
3,524167	0,1	3,734143
3,525833	0,1	3,731226
3,527500	0,1	3,762438
3,529167	0,1	3,744044
3,530833	0,1	3,782388
3,532500	0,1	3,775869
3,534167	0,1	3,757131
3,535833	0,1	3,766657
3,537500	0,1	3,775907
3,539167	0,1	3,763171
3,540833	0,1	3,804003
3,542500	0,1	3,767120
3,544167	0,1	3,816687
3,545833	0,1	3,782530
3,547500	0,1	3,804532
3,549167	0,1	3,758923
3,550833	0,1	3,789887
3,552500	0,1	3,785481
3,554167	0,1	3,821072
3,555833	0,1	3,809886
3,557500	0,1	3,784066
3,559167	0,1	3,857608
3,560833	0,1	3,791008
3,562500	0,1	3,778340
3,564167	0,1	3,809152
3,565833	0,1	3,780088
3,567500	0,1	3,768689
3,569167	0,1	3,793581
3,570833	0,1	3,791722
3,572500	0,1	3,795452
3,574167	0,1	3,773721
3,575833	0,1	3,816411
3,577500	0,1	3,749203
3,579167	0,1	3,784947
3,580833	0,1	3,726736
3,582500	0,1	3,791755
3,584167	0,1	3,704241
3,585833	0,1	3,687724
3,587500	0,1	3,756677
3,589167	0,1	3,720526
3,590833	0,1	3,696024
3,592500	0,1	3,715200
3,594167	0,1	3,723957
3,595833	0,1	3,714398
3,597500	0,1	3,697897
3,599167	0,1	3,678428
3,600833	0,1	3,656740
3,602500	0,1	3,696801
3,604167	0,1	3,664500
3,605833	0,1	3,676211
3,607500	0,1	3,621893
3,609167	0,1	3,613450
3,610833	0,1	3,609443
3,612500	0,1	3,642113
3,614167	0,1	3,612374
3,615833	0,1	3,609443
3,617500	0,1	3,621113
3,619167	0,1	3,592622
3,620833	0,1	3,595094
3,622500	0,1	3,612728
3,624167	0,1	3,586842
3,625833	0,1	3,537789
3,627500	0,1	3,584549
3,629167	0,1	3,582443
3,630833	0,1	3,538894
3,632500	0,1	3,552339
3,634167	0,1	3,530950
3,635833	0,1	3,542486
3,637500	0,1	3,519562
3,639167	0,1	3,494151
3,640833	0,1	3,479315
3,642500	0,1	3,447992
3,644167	0,1	3,471289
3,645833	0,1	3,470344
3,647500	0,1	3,458344
3,649167	0,1	3,402601
3,650833	0,1	3,390038
3,652500	0,1	3,425129
3,654167	0,1	3,383298
3,655833	0,1	3,382099
3,657500	0,1	3,373281
3,659167	0,1	3,371629
3,660833	0,1	3,402667
3,662500	0,1	3,350528
3,664167	0,1	3,287329
3,665833	0,1	3,345885
3,667500	0,1	3,304174
3,669167	0,1	3,312695
3,670833	0,1	3,292867
3,672500	0,1	3,276066
3,674167	0,1	3,271504
3,675833	0,1	3,267147
3,677500	0,1	3,255459
3,679167	0,1	3,259057
3,680833	0,1	3,233042
3,682500	0,1	3,217385
3,684167	0,1	3,198957
3,685833	0,1	3,211908
3,687500	0,1	3,201418
3,689167	0,1	3,201908
3,690833	0,1	3,193487
3,692500	0,1	3,194055
3,694167	0,1	3,162316
3,695833	0,1	3,140364
3,697500	0,1	3,172097
3,699167	0,1	3,149047
3,700833	0,1	3,120229
3,702500	0,1	3,085589
3,704167	0,1	3,127238
3,705833	0,1	3,088544
3,707500	0,1	3,076776
3,709167	0,1	3,038383
3,710833	0,1	3,069250
3,712500	0,1	3,048819
3,714167	0,1	3,073322
3,715833	0,1	3,013853
3,717500	0,1	3,033265
3,719167	0,1	2,995276
3,720833	0,1	2,976721
3,722500	0,1	2,990444
3,724167	0,1	3,006383
3,725833	0,1	3,015265
3,727500	0,1	2,982113
3,729167	0,1	2,975707
3,730833	0,1	2,951904
3,732500	0,1	2,974175
3,734167	0,1	2,939660
3,735833	0,1	2,964747
3,737500	0,1	2,938175
3,739167	0,1	2,919660
3,740833	0,1	2,952803
3,742500	0,1	2,866067
3,744167	0,1	2,915187
3,745833	0,1	2,909944
3,747500	0,1	2,913256
3,749167	0,1	2,859301
3,750833	0,1	2,894984
3,752500	0,1	2,904337
3,754167	0,1	2,863030
3,755833	0,1	2,867493
3,757500	0,1	2,834199
3,759167	0,1	2,856177
3,760833	0,1	2,832463
3,762500	0,1	2,830727
3,764167	0,1	2,848049
3,765833	0,1	2,800940
3,767500	0,1	2,799730
3,769167	0,1	2,814100
3,770833	0,1	2,798495
3,772500	0,1	2,802849
3,774167	0,1	2,795141
3,775833	0,1	2,772472
3,777500	0,1	2,720790
3,779167	0,1	2,765219
3,780833	0,1	2,750554
3,782500	0,1	2,772764
3,784167	0,1	2,724926
3,785833	0,1	2,712998
3,787500	0,1	2,730617
3,789167	0,1	2,730982
3,790833	0,1	2,708244
3,792500	0,1	2,656989
3,794167	0,1	2,669136
3,795833	0,1	2,660728
3,797500	0,1	2,610490
3,799167	0,1	2,639303
3,800833	0,1	2,681245
3,802500	0,1	2,679250
3,804167	0,1	2,662083
3,805833	0,1	2,618192
3,807500	0,1	2,603845
3,809167	0,1	2,618795
3,810833	0,1	2,606223
3,812500	0,1	2,576342
3,814167	0,1	2,602691
3,815833	0,1	2,581985
3,817500	0,1	2,565238
3,819167	0,1	2,564225
3,820833	0,1	2,539586
3,822500	0,1	2,546332
3,824167	0,1	2,486559
3,825833	0,1	2,510175
3,827500	0,1	2,490580
3,829167	0,1	2,493723
3,830833	0,1	2,501559
3,832500	0,1	2,453207
3,834167	0,1	2,443208
3,835833	0,1	2,470728
3,837500	0,1	2,445799
3,839167	0,1	2,447436
3,840833	0,1	2,443643
3,842500	0,1	2,433380
3,844167	0,1	2,399001
3,845833	0,1	2,385424
3,847500	0,1	2,373931
3,849167	0,1	2,410700
3,850833	0,1	2,351873
3,852500	0,1	2,374339
3,854167	0,1	2,380818
3,855833	0,1	2,329173
3,857500	0,1	2,324849
3,859167	0,1	2,298424
3,860833	0,1	2,294753
3,862500	0,1	2,326632
3,864167	0,1	2,278820
3,865833	0,1	2,263065
3,867500	0,1	2,295676
3,869167	0,1	2,274566
3,870833	0,1	2,267278
3,872500	0,1	2,230180
3,874167	0,1	2,224552
3,875833	0,1	2,263061
3,877500	0,1	2,222849
3,879167	0,1	2,179543
3,880833	0,1	2,180179
3,882500	0,1	2,192807
3,884167	0,1	2,185481
3,885833	0,1	2,149515
3,887500	0,1	2,139893
3,889167	0,1	2,128967
3,890833	0,1	2,130407
3,892500	0,1	2,105634
3,894167	0,1	2,121636
3,895833	0,1	2,079641
3,897500	0,1	2,123356
3,899167	0,1	2,120209
3,900833	0,1	2,075479
3,902500	0,1	2,075681
3,904167	0,1	2,063841
3,905833	0,1	2,050769
3,907500	0,1	2,037060
3,909167	0,1	2,010135
3,910833	0,1	2,009844
3,912500	0,1	2,033312
3,914167	0,1	2,025640
3,915833	0,1	2,030444
3,917500	0,1	1,988598
3,919167	0,1	1,974740
3,920833	0,1	1,980405
3,922500	0,1	1,963824
3,924167	0,1	1,973152
3,925833	0,1	1,963751
3,927500	0,1	1,970497
3,929167	0,1	1,960163
3,930833	0,1	1,937049
3,932500	0,1	1,968407
3,934167	0,1	1,901389
3,935833	0,1	1,926704
3,937500	0,1	1,900159
3,939167	0,1	1,863053
3,940833	0,1	1,918010
3,942500	0,1	1,850285
3,944167	0,1	1,859382
3,945833	0,1	1,870433
3,947500	0,1	1,875601
3,949167	0,1	1,852069
3,950833	0,1	1,869140
3,952500	0,1	1,844391
3,954167	0,1	1,856152
3,955833	0,1	1,833481
3,957500	0,1	1,832830
3,959167	0,1	1,809654
3,960833	0,1	1,805919
3,962500	0,1	1,813308
3,964167	0,1	1,773491
3,965833	0,1	1,776421
3,967500	0,1	1,795866
3,969167	0,1	1,794365
3,970833	0,1	1,775855
3,972500	0,1	1,777070
3,974167	0,1	1,769680
3,975833	0,1	1,778863
3,977500	0,1	1,765021
3,979167	0,1	1,753465
3,980833	0,1	1,779719
3,982500	0,1	1,734678
3,984167	0,1	1,782080
3,985833	0,1	1,748450
3,987500	0,1	1,739831
3,989167	0,1	1,687894
3,990833	0,1	1,714065
3,992500	0,1	1,720811
3,994167	0,1	1,719237
3,995833	0,1	1,730501
3,997500	0,1	1,746932
3,999167	0,1	1,737328
4,000833	0,1	1,718235
4,002500	0,1	1,712424
4,004167	0,1	1,686672
4,005833	0,1	1,714424
4,007500	0,1	1,696712
4,009167	0,1	1,686384
4,010833	0,1	1,713423
4,012500	0,1	1,700869
4,014167	0,1	1,721957
4,015833	0,1	1,728137
4,017500	0,1	1,674129
4,019167	0,1	1,711554
4,020833	0,1	1,710491
4,022500	0,1	1,657484
4,024167	0,1	1,687377
4,025833	0,1	1,671176
4,027500	0,1	1,656538
4,029167	0,1	1,692326
4,030833	0,1	1,691689
4,032500	0,1	1,656690
4,034167	0,1	1,663344
4,035833	0,1	1,676764
4,037500	0,1	1,683145
4,039167	0,1	1,666725
4,040833	0,1	1,663281
4,042500	0,1	1,675899
4,044167	0,1	1,655466
4,045833	0,1	1,687090
4,047500	0,1	1,691825
4,049167	0,1	1,686383
4,050833	0,1	1,686590
4,052500	0,1	1,661493
4,054167	0,1	1,670020
4,055833	0,1	1,649797
4,057500	0,1	1,668861
4,059167	0,1	1,708758
4,060833	0,1	1,694342
4,062500	0,1	1,681144
4,064167	0,1	1,681429
4,065833	0,1	1,696418
4,067500	0,1	1,681648
4,069167	0,1	1,702082
4,070833	0,1	1,685882
4,072500	0,1	1,660691
4,074167	0,1	1,681133
4,075833	0,1	1,700434
4,077500	0,1	1,677194
4,079167	0,1	1,675767
4,080833	0,1	1,734293
4,082500	0,1	1,740691
4,084167	0,1	1,733160
4,085833	0,1	1,721894
4,087500	0,1	1,679349
4,089167	0,1	1,740603
4,090833	0,1	1,715947
4,092500	0,1	1,761418
4,094167	0,1	1,720755
4,095833	0,1	1,753386
4,097500	0,1	1,746862
4,099167	0,1	1,750164
4,100833	0,1	1,750807
4,102500	0,1	1,781512
4,104167	0,1	1,796011
4,105833	0,1	1,755338
4,107500	0,1	1,748225
4,109167	0,1	1,765296
4,110833	0,1	1,795721
4,112500	0,1	1,778006
4,114167	0,1	1,781448
4,115833	0,1	1,844152
4,117500	0,1	1,812744
4,119167	0,1	1,821202
4,120833	0,1	1,815536
4,122500	0,1	1,825651
4,124167	0,1	1,838353
4,125833	0,1	1,835702
4,127500	0,1	1,876956
4,129167	0,1	1,851424
4,130833	0,1	1,847615
4,132500	0,1	1,860887
4,134167	0,1	1,894903
4,135833	0,1	1,835283
4,137500	0,1	1,880761
4,139167	0,1	1,873882
4,140833	0,1	1,879622
4,142500	0,1	1,920525
4,144167	0,1	1,908480
4,145833	0,1	1,912354
4,147500	0,1	1,917304
4,149167	0,1	1,902739
4,150833	0,1	1,942710
4,152500	0,1	1,912000
4,154167	0,1	1,894127
4,155833	0,1	1,905316
4,157500	0,1	1,934671
4,159167	0,1	1,933744
4,160833	0,1	1,995320
4,162500	0,1	1,985360
4,164167	0,1	1,913590
4,165833	0,1	1,964527
4,167500	0,1	1,949614
4,169167	0,1	1,974224
4,170833	0,1	1,995547
4,172500	0,1	1,939071
4,174167	0,1	1,978098
4,175833	0,1	1,999139
4,177500	0,1	1,951990
4,179167	0,1	1,984705
4,180833	0,1	1,988656
4,182500	0,1	2,011343
4,184167	0,1	1,958668
4,185833	0,1	1,963967
4,187500	0,1	1,958657
4,189167	0,1	1,956645
4,190833	0,1	1,999419
4,192500	0,1	2,013068
4,194167	0,1	1,991468
4,195833	0,1	1,997345
4,197500	0,1	1,967852
4,199167	0,1	1,986646
4,200833	0,1	1,978471
4,202500	0,1	1,991817
4,204167	0,1	1,974166
4,205833	0,1	2,021605
4,207500	0,1	1,943886
4,209167	0,1	1,999710
4,210833	0,1	2,005531
4,212500	0,1	1,980412
4,214167	0,1	1,952992
4,215833	0,1	1,995893
4,217500	0,1	1,993548
4,219167	0,1	1,969357
4,220833	0,1	1,962029
4,222500	0,1	1,977746
4,224167	0,1	1,930096
4,225833	0,1	1,983624
4,227500	0,1	1,983131
4,229167	0,1	1,962035
4,230833	0,1	1,929659
4,232500	0,1	1,978311
4,234167	0,1	1,974448
4,235833	0,1	1,931744
4,237500	0,1	1,983977
4,239167	0,1	1,956431
4,240833	0,1	1,930808
4,242500	0,1	1,933887
4,244167	0,1	1,964242
4,245833	0,1	1,940571
4,247500	0,1	1,950323
4,249167	0,1	1,946597
4,250833	0,1	1,922049
4,252500	0,1	1,915441
4,254167	0,1	1,929862
4,255833	0,1	1,932307
4,257500	0,1	1,936901
4,259167	0,1	1,881072
4,260833	0,1	1,918804
4,262500	0,1	1,903313
4,264167	0,1	1,873960
4,265833	0,1	1,861324
4,267500	0,1	1,909399
4,269167	0,1	1,910271
4,270833	0,1	1,844472
4,272500	0,1	1,890163
4,274167	0,1	1,873310
4,275833	0,1	1,891103
4,277500	0,1	1,860827
4,279167	0,1	1,868281
4,280833	0,1	1,843098
4,282500	0,1	1,871074
4,284167	0,1	1,846902
4,285833	0,1	1,850053
4,287500	0,1	1,822502
4,289167	0,1	1,830962
4,290833	0,1	1,825438
4,292500	0,1	1,821706
4,294167	0,1	1,822567
4,295833	0,1	1,803771
4,297500	0,1	1,797596
4,299167	0,1	1,784249
4,300833	0,1	1,774704
4,302500	0,1	1,788906
4,304167	0,1	1,813520
4,305833	0,1	1,770840
4,307500	0,1	1,765162
4,309167	0,1	1,777356
4,310833	0,1	1,804765
4,312500	0,1	1,772846
4,314167	0,1	1,759280
4,315833	0,1	1,726855
4,317500	0,1	1,716803
4,319167	0,1	1,780427
4,320833	0,1	1,718250
4,322500	0,1	1,701520
4,324167	0,1	1,689821
4,325833	0,1	1,736375
4,327500	0,1	1,722687
4,329167	0,1	1,719522
4,330833	0,1	1,693129
4,332500	0,1	1,735877
4,334167	0,1	1,702391
4,335833	0,1	1,687173
4,337500	0,1	1,694272
4,339167	0,1	1,667302
4,340833	0,1	1,668445
4,342500	0,1	1,666936
4,344167	0,1	1,652307
4,345833	0,1	1,693977
4,347500	0,1	1,657407
4,349167	0,1	1,649007
4,350833	0,1	1,667433
4,352500	0,1	1,607696
4,354167	0,1	1,652437
4,355833	0,1	1,626913
4,357500	0,1	1,622607
4,359167	0,1	1,630567
4,360833	0,1	1,673600
4,362500	0,1	1,606557
4,364167	0,1	1,607469
4,365833	0,1	1,618441
4,367500	0,1	1,620819
4,369167	0,1	1,581586
4,370833	0,1	1,597355
4,372500	0,1	1,556912
4,374167	0,1	1,590108
4,375833	0,1	1,537485
4,377500	0,1	1,586443
4,379167	0,1	1,563011
4,380833	0,1	1,536477
4,382500	0,1	1,564494
4,384167	0,1	1,548508
4,385833	0,1	1,568521
4,387500	0,1	1,528434
4,389167	0,1	1,537817
4,390833	0,1	1,547230
4,392500	0,1	1,574047
4,394167	0,1	1,516393
4,395833	0,1	1,544847
4,397500	0,1	1,551960
4,399167	0,1	1,516533
4,400833	0,1	1,546866
4,402500	0,1	1,522059
4,404167	0,1	1,527355
4,405833	0,1	1,490717
4,407500	0,1	1,487701
4,409167	0,1	1,480743
4,410833	0,1	1,498036
4,412500	0,1	1,477020
4,414167	0,1	1,468987
4,415833	0,1	1,454495
4,417500	0,1	1,473644
4,419167	0,1	1,476369
4,420833	0,1	1,495951
4,422500	0,1	1,452356
4,424167	0,1	1,504614
4,425833	0,1	1,491876
4,427500	0,1	1,473507
4,429167	0,1	1,422604
4,430833	0,1	1,453279
4,432500	0,1	1,429842
4,434167	0,1	1,453342
4,435833	0,1	1,442948
4,437500	0,1	1,444462
4,439167	0,1	1,416362
4,440833	0,1	1,441960
4,442500	0,1	1,459517
4,444167	0,1	1,417074
4,445833	0,1	1,416286
4,447500	0,1	1,387187
4,449167	0,1	1,428031
4,450833	0,1	1,396562
4,452500	0,1	1,430474
4,454167	0,1	1,421450
4,455833	0,1	1,380371
4,457500	0,1	1,378139
4,459167	0,1	1,425814
4,460833	0,1	1,374646
4,462500	0,1	1,343086
4,464167	0,1	1,369169
4,465833	0,1	1,298870
4,467500	0,1	1,369873
4,469167	0,1	1,407173
4,470833	0,1	1,397209
4,472500	0,1	1,368109
4,474167	0,1	1,354934
4,475833	0,1	1,312570
4,477500	0,1	1,304808
4,479167	0,1	1,342941
4,480833	0,1	1,343665
4,482500	0,1	1,304171
4,484167	0,1	1,348457
4,485833	0,1	1,317430
4,487500	0,1	1,294928
4,489167	0,1	1,337857
4,490833	0,1	1,268435
4,492500	0,1	1,327670
4,494167	0,1	1,301699
4,495833	0,1	1,304092
4,497500	0,1	1,236160
4,499167	0,1	1,250768
4,500833	0,1	1,266456
4,502500	0,1	1,271044
4,504167	0,1	1,245917
4,505833	0,1	1,277083
4,507500	0,1	1,284243
4,509167	0,1	1,255719
4,510833	0,1	1,227489
4,512500	0,1	1,213834
4,514167	0,1	1,263453
4,515833	0,1	1,222964
4,517500	0,1	1,214723
4,519167	0,1	1,176389
4,520833	0,1	1,254439
4,522500	0,1	1,187924
4,524167	0,1	1,195356
4,525833	0,1	1,202889
4,527500	0,1	1,202260
4,529167	0,1	1,188049
4,530833	0,1	1,174448
4,532500	0,1	1,219087
4,534167	0,1	1,219098
4,535833	0,1	1,160328
4,537500	0,1	1,218877
4,539167	0,1	1,187339
4,540833	0,1	1,169290
4,542500	0,1	1,170205
4,544167	0,1	1,155033
4,545833	0,1	1,181108
4,547500	0,1	1,169384
4,549167	0,1	1,166665
4,550833	0,1	1,167049
4,552500	0,1	1,146529
4,554167	0,1	1,116635
4,555833	0,1	1,115762
4,557500	0,1	1,125447
4,559167	0,1	1,164762
4,560833	0,1	1,153372
4,562500	0,1	1,114481
4,564167	0,1	1,106957
4,565833	0,1	1,147254
4,567500	0,1	1,105152
4,569167	0,1	1,138186
4,570833	0,1	1,105863
4,572500	0,1	1,105171
4,574167	0,1	1,101798
4,575833	0,1	1,108312
4,577500	0,1	1,083749
4,579167	0,1	1,095906
4,580833	0,1	1,046782
4,582500	0,1	1,060224
4,584167	0,1	1,039615
4,585833	0,1	1,036220
4,587500	0,1	1,103783
4,589167	0,1	1,059798
4,590833	0,1	1,066029
4,592500	0,1	1,026286
4,594167	0,1	1,015387
4,595833	0,1	1,046848
4,597500	0,1	1,020974
4,599167	0,1	1,061218
4,600833	0,1	1,052030
4,602500	0,1	1,045128
4,604167	0,1	1,024111
4,605833	0,1	1,013485
4,607500	0,1	1,004716
4,609167	0,1	1,011582
4,610833	0,1	1,000152
4,612500	0,1	0,996554
4,614167	0,1	0,970909
4,615833	0,1	0,960151
4,617500	0,1	0,986250
4,619167	0,1	1,001792
4,620833	0,1	1,007428
4,622500	0,1	1,007394
4,624167	0,1	0,986719
4,625833	0,1	0,976131
4,627500	0,1	0,991561
4,629167	0,1	0,950372
4,630833	0,1	0,971441
4,632500	0,1	0,930507
4,634167	0,1	0,973946
4,635833	0,1	0,963917
4,637500	0,1	0,983587
4,639167	0,1	0,954456
4,640833	0,1	0,956179
4,642500	0,1	0,926231
4,644167	0,1	0,919628
4,645833	0,1	0,954798
4,647500	0,1	0,938628
4,649167	0,1	0,925056
4,650833	0,1	0,926648
4,652500	0,1	0,861549
4,654167	0,1	0,936673
4,655833	0,1	0,933382
4,657500	0,1	0,874045
4,659167	0,1	0,906812
4,660833	0,1	0,891288
4,662500	0,1	0,915905
4,664167	0,1	0,922220
4,665833	0,1	0,887359
4,667500	0,1	0,877888
4,669167	0,1	0,912545
4,670833	0,1	0,849796
4,672500	0,1	0,873658
4,674167	0,1	0,874528
4,675833	0,1	0,874616
4,677500	0,1	0,872018
4,679167	0,1	0,860045
4,680833	0,1	0,878066
4,682500	0,1	0,863866
4,684167	0,1	0,851823
4,685833	0,1	0,820855
4,687500	0,1	0,857013
4,689167	0,1	0,877391
4,690833	0,1	0,875972
4,692500	0,1	0,849536
4,694167	0,1	0,881457
4,695833	0,1	0,855845
4,697500	0,1	0,827049
4,699167	0,1	0,847860
4,700833	0,1	0,864301
4,702500	0,1	0,787109
4,704167	0,1	0,827100
4,705833	0,1	0,833063
4,707500	0,1	0,829468
4,709167	0,1	0,806763
4,710833	0,1	0,830326
4,712500	0,1	0,838746
4,714167	0,1	0,812182
4,715833	0,1	0,795848
4,717500	0,1	0,829767
4,719167	0,1	0,805273
4,720833	0,1	0,813905
4,722500	0,1	0,811886
4,724167	0,1	0,771374
4,725833	0,1	0,774404
4,727500	0,1	0,804905
4,729167	0,1	0,828279
4,730833	0,1	0,788921
4,732500	0,1	0,752708
4,734167	0,1	0,799765
4,735833	0,1	0,781117
4,737500	0,1	0,794506
4,739167	0,1	0,760147
4,740833	0,1	0,789486
4,742500	0,1	0,770033
4,744167	0,1	0,798771
4,745833	0,1	0,744112
4,747500	0,1	0,768132
4,749167	0,1	0,771983
4,750833	0,1	0,764165
4,752500	0,1	0,809767
4,754167	0,1	0,772213
4,755833	0,1	0,729271
4,757500	0,1	0,763399
4,759167	0,1	0,758455
4,760833	0,1	0,754279
4,762500	0,1	0,770334
4,764167	0,1	0,749037
4,765833	0,1	0,757740
4,767500	0,1	0,737197
4,769167	0,1	0,731462
4,770833	0,1	0,727329
4,772500	0,1	0,721287
4,774167	0,1	0,727680
4,775833	0,1	0,732614
4,777500	0,1	0,737701
4,779167	0,1	0,753892
4,780833	0,1	0,739128
4,782500	0,1	0,747075
4,784167	0,1	0,769644
4,785833	0,1	0,746505
4,787500	0,1	0,725333
4,789167	0,1	0,705339
4,790833	0,1	0,711508
4,792500	0,1	0,703826
4,794167	0,1	0,726765
4,795833	0,1	0,661967
4,797500	0,1	0,708700
4,799167	0,1	0,712509
4,800833	0,1	0,693032
4,802500	0,1	0,686142
4,804167	0,1	0,685965
4,805833	0,1	0,721411
4,807500	0,1	0,668207
4,809167	0,1	0,650582
4,810833	0,1	0,686643
4,812500	0,1	0,649498
4,814167	0,1	0,677182
4,815833	0,1	0,709992
4,817500	0,1	0,690745
4,819167	0,1	0,715035
4,820833	0,1	0,691257
4,822500	0,1	0,690317
4,824167	0,1	0,677570
4,825833	0,1	0,697377
4,827500	0,1	0,682503
4,829167	0,1	0,664712
4,830833	0,1	0,664238
4,832500	0,1	0,691221
4,834167	0,1	0,702799
4,835833	0,1	0,725100
4,837500	0,1	0,657459
4,839167	0,1	0,638145
4,840833	0,1	0,667676
4,842500	0,1	0,683094
4,844167	0,1	0,699132
4,845833	0,1	0,657008
4,847500	0,1	0,681894
4,849167	0,1	0,685253
4,850833	0,1	0,684719
4,852500	0,1	0,692581
4,854167	0,1	0,692561
4,855833	0,1	0,669264
4,857500	0,1	0,672769
4,859167	0,1	0,683763
4,860833	0,1	0,662780
4,862500	0,1	0,693198
4,864167	0,1	0,657161
4,865833	0,1	0,678206
4,867500	0,1	0,703573
4,869167	0,1	0,675665
4,870833	0,1	0,675567
4,872500	0,1	0,682564
4,874167	0,1	0,669906
4,875833	0,1	0,690624
4,877500	0,1	0,654339
4,879167	0,1	0,658975
4,880833	0,1	0,686978
4,882500	0,1	0,681055
4,884167	0,1	0,678278
4,885833	0,1	0,629359
4,887500	0,1	0,677555
4,889167	0,1	0,656405
4,890833	0,1	0,730418
4,892500	0,1	0,657148
4,894167	0,1	0,671478
4,895833	0,1	0,706725
4,897500	0,1	0,682571
4,899167	0,1	0,648076
4,900833	0,1	0,672298
4,902500	0,1	0,661489
4,904167	0,1	0,668035
4,905833	0,1	0,642946
4,907500	0,1	0,645515
4,909167	0,1	0,663614
4,910833	0,1	0,650382
4,912500	0,1	0,649116
4,914167	0,1	0,652576
4,915833	0,1	0,688221
4,917500	0,1	0,659627
4,919167	0,1	0,643875
4,920833	0,1	0,650090
4,922500	0,1	0,667791
4,924167	0,1	0,672636
4,925833	0,1	0,669728
4,927500	0,1	0,670438
4,929167	0,1	0,686248
4,930833	0,1	0,681457
4,932500	0,1	0,685453
4,934167	0,1	0,647765
4,935833	0,1	0,647402
4,937500	0,1	0,643518
4,939167	0,1	0,652732
4,940833	0,1	0,633636
4,942500	0,1	0,662544
4,944167	0,1	0,662418
4,945833	0,1	0,677209
4,947500	0,1	0,656181
4,949167	0,1	0,658976
4,950833	0,1	0,642830
4,952500	0,1	0,673207
4,954167	0,1	0,636482
4,955833	0,1	0,645779
4,957500	0,1	0,646160
4,959167	0,1	0,676561
4,960833	0,1	0,653318
4,962500	0,1	0,662149
4,964167	0,1	0,648806
4,965833	0,1	0,682113
4,967500	0,1	0,654541
4,969167	0,1	0,693042
4,970833	0,1	0,642573
4,972500	0,1	0,671363
4,974167	0,1	0,656092
4,975833	0,1	0,686091
4,977500	0,1	0,687740
4,979167	0,1	0,713148
4,980833	0,1	0,693210
4,982500	0,1	0,700646
4,984167	0,1	0,677929
4,985833	0,1	0,681010
4,987500	0,1	0,671883
4,989167	0,1	0,674856
4,990833	0,1	0,656314
4,992500	0,1	0,668745
4,994167	0,1	0,684915
4,995833	0,1	0,686252
4,997500	0,1	0,663533
4,999167	0,1	0,678896
5,000833	0,1	0,691315
5,002500	0,1	0,714792
5,004167	0,1	0,693943
5,005833	0,1	0,678238
5,007500	0,1	0,686562
5,009167	0,1	0,724742
5,010833	0,1	0,673871
5,012500	0,1	0,698354
5,014167	0,1	0,698138
5,015833	0,1	0,706066
5,017500	0,1	0,708267
5,019167	0,1	0,753065
5,020833	0,1	0,738905
5,022500	0,1	0,722332
5,024167	0,1	0,714155
5,025833	0,1	0,720727
5,027500	0,1	0,716597
5,029167	0,1	0,749425
5,030833	0,1	0,789633
5,032500	0,1	0,709375
5,034167	0,1	0,727234
5,035833	0,1	0,778259
5,037500	0,1	0,755104
5,039167	0,1	0,721494
5,040833	0,1	0,800000
5,042500	0,1	0,789295
5,044167	0,1	0,804574
5,045833	0,1	0,752157
5,047500	0,1	0,797277
5,049167	0,1	0,771923
5,050833	0,1	0,765629
5,052500	0,1	0,750703
5,054167	0,1	0,729710
5,055833	0,1	0,794942
5,057500	0,1	0,785402
5,059167	0,1	0,793130
5,060833	0,1	0,777318
5,062500	0,1	0,783424
5,064167	0,1	0,831361
5,065833	0,1	0,802208
5,067500	0,1	0,810487
5,069167	0,1	0,857559
5,070833	0,1	0,824762
5,072500	0,1	0,851342
5,074167	0,1	0,835731
5,075833	0,1	0,805739
5,077500	0,1	0,829259
5,079167	0,1	0,855680
5,080833	0,1	0,861157
5,082500	0,1	0,819896
5,084167	0,1	0,869785
5,085833	0,1	0,822564
5,087500	0,1	0,834418
5,089167	0,1	0,794679
5,090833	0,1	0,854565
5,092500	0,1	0,844713
5,094167	0,1	0,850856
5,095833	0,1	0,848039
5,097500	0,1	0,865636
5,099167	0,1	0,842871
5,100833	0,1	0,843548
5,102500	0,1	0,855376
5,104167	0,1	0,860993
5,105833	0,1	0,898028
5,107500	0,1	0,877161
5,109167	0,1	0,872933
5,110833	0,1	0,839697
5,112500	0,1	0,857499
5,114167	0,1	0,870860
5,115833	0,1	0,877816
5,117500	0,1	0,885175
5,119167	0,1	0,889755
5,120833	0,1	0,872072
5,122500	0,1	0,836341
5,124167	0,1	0,901648
5,125833	0,1	0,899258
5,127500	0,1	0,854051
5,129167	0,1	0,911743
5,130833	0,1	0,850631
5,132500	0,1	0,867570
5,134167	0,1	0,878632
5,135833	0,1	0,855115
5,137500	0,1	0,871437
5,139167	0,1	0,891722
5,140833	0,1	0,825751
5,142500	0,1	0,833215
5,144167	0,1	0,875634
5,145833	0,1	0,852959
5,147500	0,1	0,889073
5,149167	0,1	0,854760
5,150833	0,1	0,845329
5,152500	0,1	0,838933
5,154167	0,1	0,845884
5,155833	0,1	0,873607
5,157500	0,1	0,827276
5,159167	0,1	0,866363
5,160833	0,1	0,862844
5,162500	0,1	0,807195
5,164167	0,1	0,866578
5,165833	0,1	0,835958
5,167500	0,1	0,816825
5,169167	0,1	0,867494
5,170833	0,1	0,814255
5,172500	0,1	0,829991
5,174167	0,1	0,800450
5,175833	0,1	0,813327
5,177500	0,1	0,791762
5,179167	0,1	0,785938
5,180833	0,1	0,803706
5,182500	0,1	0,795115
5,184167	0,1	0,821679
5,185833	0,1	0,807292
5,187500	0,1	0,787673
5,189167	0,1	0,771806
5,190833	0,1	0,788443
5,192500	0,1	0,767278
5,194167	0,1	0,789529
5,195833	0,1	0,730964
5,197500	0,1	0,776860
5,199167	0,1	0,757390
5,200833	0,1	0,753233
5,202500	0,1	0,761405
5,204167	0,1	0,714364
5,205833	0,1	0,726947
5,207500	0,1	0,718975
5,209167	0,1	0,749292
5,210833	0,1	0,723001
5,212500	0,1	0,720642
5,214167	0,1	0,699541
5,215833	0,1	0,728963
5,217500	0,1	0,671471
5,219167	0,1	0,696442
5,220833	0,1	0,687942
5,222500	0,1	0,717234
5,224167	0,1	0,712021
5,225833	0,1	0,650261
5,227500	0,1	0,685200
5,229167	0,1	0,706906
5,230833	0,1	0,685547
5,232500	0,1	0,668864
5,234167	0,1	0,614612
5,235833	0,1	0,663673
5,237500	0,1	0,658732
5,239167	0,1	0,629954
5,240833	0,1	0,653419
5,242500	0,1	0,631550
5,244167	0,1	0,630323
5,245833	0,1	0,592618
5,247500	0,1	0,620010
5,249167	0,1	0,631498
5,250833	0,1	0,577231
5,252500	0,1	0,583947
5,254167	0,1	0,661202
5,255833	0,1	0,572418
5,257500	0,1	0,574172
5,259167	0,1	0,594272
5,260833	0,1	0,576026
5,262500	0,1	0,600490
5,264167	0,1	0,585974
5,265833	0,1	0,539011
5,267500	0,1	0,566577
5,269167	0,1	0,556456
5,270833	0,1	0,561232
5,272500	0,1	0,552616
5,274167	0,1	0,535967
5,275833	0,1	0,526240
5,277500	0,1	0,532517
5,279167	0,1	0,557076
5,280833	0,1	0,531527
5,282500	0,1	0,542226
5,284167	0,1	0,494368
5,285833	0,1	0,517019
5,287500	0,1	0,533473
5,289167	0,1	0,503548
5,290833	0,1	0,518677
5,292500	0,1	0,463502
5,294167	0,1	0,445702
5,295833	0,1	0,536279
5,297500	0,1	0,476959
5,299167	0,1	0,485156
5,300833	0,1	0,488284
5,302500	0,1	0,471706
5,304167	0,1	0,459247
5,305833	0,1	0,458219
5,307500	0,1	0,459087
5,309167	0,1	0,440999
5,310833	0,1	0,445118
5,312500	0,1	0,430500
5,314167	0,1	0,444880
5,315833	0,1	0,459164
5,317500	0,1	0,472053
5,319167	0,1	0,457028
5,320833	0,1	0,434234
5,322500	0,1	0,431309
5,324167	0,1	0,415216
5,325833	0,1	0,428693
5,327500	0,1	0,444486
5,329167	0,1	0,452214
5,330833	0,1	0,394198
5,332500	0,1	0,375938
5,334167	0,1	0,398982
5,335833	0,1	0,412402
5,337500	0,1	0,371829
5,339167	0,1	0,415705
5,340833	0,1	0,388815
5,342500	0,1	0,415654
5,344167	0,1	0,376812
5,345833	0,1	0,381539
5,347500	0,1	0,378192
5,349167	0,1	0,381113
5,350833	0,1	0,382754
5,352500	0,1	0,388555
5,354167	0,1	0,358468
5,355833	0,1	0,350195
5,357500	0,1	0,338284
5,359167	0,1	0,367819
5,360833	0,1	0,334687
5,362500	0,1	0,354499
5,364167	0,1	0,332205
5,365833	0,1	0,350602
5,367500	0,1	0,343751
5,369167	0,1	0,339021
5,370833	0,1	0,346647
5,372500	0,1	0,364408
5,374167	0,1	0,337798
5,375833	0,1	0,338476
5,377500	0,1	0,347191
5,379167	0,1	0,337930
5,380833	0,1	0,336929
5,382500	0,1	0,339626
5,384167	0,1	0,324350
5,385833	0,1	0,315690
5,387500	0,1	0,308031
5,389167	0,1	0,328073
5,390833	0,1	0,310060
5,392500	0,1	0,321834
5,394167	0,1	0,293648
5,395833	0,1	0,344736
5,397500	0,1	0,301056
5,399167	0,1	0,297538
5,400833	0,1	0,275889
5,402500	0,1	0,289138
5,404167	0,1	0,306579
5,405833	0,1	0,326430
5,407500	0,1	0,312569
5,409167	0,1	0,280846
5,410833	0,1	0,296565
5,412500	0,1	0,268711
5,414167	0,1	0,264297
5,415833	0,1	0,293603
5,417500	0,1	0,285820
5,419167	0,1	0,255423
5,420833	0,1	0,275196
5,422500	0,1	0,297337
5,424167	0,1	0,287306
5,425833	0,1	0,273309
5,427500	0,1	0,237373
5,429167	0,1	0,272395
5,430833	0,1	0,216914
5,432500	0,1	0,257143
5,434167	0,1	0,251265
5,435833	0,1	0,247210
5,437500	0,1	0,244926
5,439167	0,1	0,246791
5,440833	0,1	0,243733
5,442500	0,1	0,250971
5,444167	0,1	0,256605
5,445833	0,1	0,242707
5,447500	0,1	0,242190
5,449167	0,1	0,267375
5,450833	0,1	0,255901
5,452500	0,1	0,234892
5,454167	0,1	0,222855
5,455833	0,1	0,211626
5,457500	0,1	0,212299
5,459167	0,1	0,198306
5,460833	0,1	0,236451
5,462500	0,1	0,213173
5,464167	0,1	0,237391
5,465833	0,1	0,232570
5,467500	0,1	0,188824
5,469167	0,1	0,224324
5,470833	0,1	0,254636
5,472500	0,1	0,214434
5,474167	0,1	0,194803
5,475833	0,1	0,218858
5,477500	0,1	0,216483
5,479167	0,1	0,241957
5,480833	0,1	0,202624
5,482500	0,1	0,192965
5,484167	0,1	0,201068
5,485833	0,1	0,194637
5,487500	0,1	0,222718
5,489167	0,1	0,212976
5,490833	0,1	0,165725
5,492500	0,1	0,224512
5,494167	0,1	0,156401
5,495833	0,1	0,182790
5,497500	0,1	0,190935
5,499167	0,1	0,206664
5,500833	0,1	0,164146
5,502500	0,1	0,221873
5,504167	0,1	0,210243
5,505833	0,1	0,199754
5,507500	0,1	0,198689
5,509167	0,1	0,199590
5,510833	0,1	0,187079
5,512500	0,1	0,191901
5,514167	0,1	0,169482
5,515833	0,1	0,202220
5,517500	0,1	0,197725
5,519167	0,1	0,203226
5,520833	0,1	0,179456
5,522500	0,1	0,215154
5,524167	0,1	0,171194
5,525833	0,1	0,210841
5,527500	0,1	0,165691
5,529167	0,1	0,204986
5,530833	0,1	0,147262
5,532500	0,1	0,199804
5,534167	0,1	0,183958
5,535833	0,1	0,188071
5,537500	0,1	0,150440
5,539167	0,1	0,136344
5,540833	0,1	0,155995
5,542500	0,1	0,170632
5,544167	0,1	0,181506
5,545833	0,1	0,181993
5,547500	0,1	0,203124
5,549167	0,1	0,157682
5,550833	0,1	0,195174
5,552500	0,1	0,146584
5,554167	0,1	0,147280
5,555833	0,1	0,171659
5,557500	0,1	0,156676
5,559167	0,1	0,169572
5,560833	0,1	0,143426
5,562500	0,1	0,170469
5,564167	0,1	0,156067
5,565833	0,1	0,174106
5,567500	0,1	0,129952
5,569167	0,1	0,188766
5,570833	0,1	0,163821
5,572500	0,1	0,168575
5,574167	0,1	0,144712
5,575833	0,1	0,155740
5,577500	0,1	0,119817
5,579167	0,1	0,160846
5,580833	0,1	0,146030
5,582500	0,1	0,138403
5,584167	0,1	0,151557
5,585833	0,1	0,183432
5,587500	0,1	0,126191
5,589167	0,1	0,167987
5,590833	0,1	0,097020
5,592500	0,1	0,141093
5,594167	0,1	0,134898
5,595833	0,1	0,168955
5,597500	0,1	0,144134
5,599167	0,1	0,138565
5,600833	0,1	0,156412
5,602500	0,1	0,142842
5,604167	0,1	0,109974
5,605833	0,1	0,164028
5,607500	0,1	0,135290
5,609167	0,1	0,159919
5,610833	0,1	0,182469
5,612500	0,1	0,125356
5,614167	0,1	0,165093
5,615833	0,1	0,143073
5,617500	0,1	0,133291
5,619167	0,1	0,154321
5,620833	0,1	0,132358
5,622500	0,1	0,136470
5,624167	0,1	0,126183
5,625833	0,1	0,132804
5,627500	0,1	0,120196
5,629167	0,1	0,122605
5,630833	0,1	0,116369
5,632500	0,1	0,103213
5,634167	0,1	0,128651
5,635833	0,1	0,174196
5,637500	0,1	0,148928
5,639167	0,1	0,129754
5,640833	0,1	0,128236
5,642500	0,1	0,126146
5,644167	0,1	0,152036
5,645833	0,1	0,158088
5,647500	0,1	0,155615
5,649167	0,1	0,152076
5,650833	0,1	0,128049
5,652500	0,1	0,143416
5,654167	0,1	0,120233
5,655833	0,1	0,120772
5,657500	0,1	0,137239
5,659167	0,1	0,124894
5,660833	0,1	0,148111
5,662500	0,1	0,130234
5,664167	0,1	0,148146
5,665833	0,1	0,142039
5,667500	0,1	0,135958
5,669167	0,1	0,128272
5,670833	0,1	0,195069
5,672500	0,1	0,146360
5,674167	0,1	0,129398
5,675833	0,1	0,146312
5,677500	0,1	0,122966
5,679167	0,1	0,136052
5,680833	0,1	0,165579
5,682500	0,1	0,117345
5,684167	0,1	0,147885
5,685833	0,1	0,122484
5,687500	0,1	0,140231
5,689167	0,1	0,144287
5,690833	0,1	0,141232
5,692500	0,1	0,144418
5,694167	0,1	0,145320
5,695833	0,1	0,160916
5,697500	0,1	0,144100
5,699167	0,1	0,162975
5,700833	0,1	0,155324
5,702500	0,1	0,166901
5,704167	0,1	0,160311
5,705833	0,1	0,125385
5,707500	0,1	0,146923
5,709167	0,1	0,163137
5,710833	0,1	0,149569
5,712500	0,1	0,145030
5,714167	0,1	0,177610
5,715833	0,1	0,159479
5,717500	0,1	0,122873
5,719167	0,1	0,112058
5,720833	0,1	0,161199
5,722500	0,1	0,169603
5,724167	0,1	0,169318
5,725833	0,1	0,098243
5,727500	0,1	0,149970
5,729167	0,1	0,127245
5,730833	0,1	0,168245
5,732500	0,1	0,147769
5,734167	0,1	0,162558
5,735833	0,1	0,163300
5,737500	0,1	0,118887
5,739167	0,1	0,162873
5,740833	0,1	0,130561
5,742500	0,1	0,176320
5,744167	0,1	0,112040
5,745833	0,1	0,142383
5,747500	0,1	0,149305
5,749167	0,1	0,146027
5,750833	0,1	0,167447
5,752500	0,1	0,178740
5,754167	0,1	0,163531
5,755833	0,1	0,170505
5,757500	0,1	0,140694
5,759167	0,1	0,203242
5,760833	0,1	0,188590
5,762500	0,1	0,147838
5,764167	0,1	0,205336
5,765833	0,1	0,170806
5,767500	0,1	0,152915
5,769167	0,1	0,179670
5,770833	0,1	0,175076
5,772500	0,1	0,170765
5,774167	0,1	0,134678
5,775833	0,1	0,162522
5,777500	0,1	0,165521
5,779167	0,1	0,135384
5,780833	0,1	0,163809
5,782500	0,1	0,177581
5,784167	0,1	0,134714
5,785833	0,1	0,149692
5,787500	0,1	0,143262
5,789167	0,1	0,180085
5,790833	0,1	0,119211
5,792500	0,1	0,139138
5,794167	0,1	0,196907
5,795833	0,1	0,153693
5,797500	0,1	0,126539
5,799167	0,1	0,167730
5,800833	0,1	0,163657
5,802500	0,1	0,126477
5,804167	0,1	0,177927
5,805833	0,1	0,179386
5,807500	0,1	0,151502
5,809167	0,1	0,182307
5,810833	0,1	0,185917
5,812500	0,1	0,150762
5,814167	0,1	0,154807
5,815833	0,1	0,181408
5,817500	0,1	0,171217
5,819167	0,1	0,146964
5,820833	0,1	0,167092
5,822500	0,1	0,167160
5,824167	0,1	0,149536
5,825833	0,1	0,186102
5,827500	0,1	0,148224
5,829167	0,1	0,120813
5,830833	0,1	0,157630
5,832500	0,1	0,183724
5,834167	0,1	0,160637
5,835833	0,1	0,140820
5,837500	0,1	0,152102
5,839167	0,1	0,145608
5,840833	0,1	0,173396
5,842500	0,1	0,124355
5,844167	0,1	0,140650
5,845833	0,1	0,159082
5,847500	0,1	0,165455
5,849167	0,1	0,172469
5,850833	0,1	0,174143
5,852500	0,1	0,132621
5,854167	0,1	0,129654
5,855833	0,1	0,149368
5,857500	0,1	0,136250
5,859167	0,1	0,151009
5,860833	0,1	0,142813
5,862500	0,1	0,151044
5,864167	0,1	0,152105
5,865833	0,1	0,119336
5,867500	0,1	0,134858
5,869167	0,1	0,169019
5,870833	0,1	0,121106
5,872500	0,1	0,152003
5,874167	0,1	0,153135
5,875833	0,1	0,142683
5,877500	0,1	0,156833
5,879167	0,1	0,139820
5,880833	0,1	0,159949
5,882500	0,1	0,115059
5,884167	0,1	0,146986
5,885833	0,1	0,158956
5,887500	0,1	0,177644
5,889167	0,1	0,170671
5,890833	0,1	0,133167
5,892500	0,1	0,125923
5,894167	0,1	0,153419
5,895833	0,1	0,112197
5,897500	0,1	0,112443
5,899167	0,1	0,116625
5,900833	0,1	0,103984
5,902500	0,1	0,143733
5,904167	0,1	0,106275
5,905833	0,1	0,154316
5,907500	0,1	0,138341
5,909167	0,1	0,117211
5,910833	0,1	0,147722
5,912500	0,1	0,155676
5,914167	0,1	0,121458
5,915833	0,1	0,128141
5,917500	0,1	0,107625
5,919167	0,1	0,140294
5,920833	0,1	0,166383
5,922500	0,1	0,113742
5,924167	0,1	0,090225
5,925833	0,1	0,117391
5,927500	0,1	0,149943
5,929167	0,1	0,138919
5,930833	0,1	0,112546
5,932500	0,1	0,115467
5,934167	0,1	0,095658
5,935833	0,1	0,144180
5,937500	0,1	0,100259
5,939167	0,1	0,093438
5,940833	0,1	0,116234
5,942500	0,1	0,141676
5,944167	0,1	0,105826
5,945833	0,1	0,103952
5,947500	0,1	0,080023
5,949167	0,1	0,113853
5,950833	0,1	0,104469
5,952500	0,1	0,083596
5,954167	0,1	0,115620
5,955833	0,1	0,099485
5,957500	0,1	0,165666
5,959167	0,1	0,108373
5,960833	0,1	0,096008
5,962500	0,1	0,098578
5,964167	0,1	0,093625
5,965833	0,1	0,132025
5,967500	0,1	0,138821
5,969167	0,1	0,128788
5,970833	0,1	0,150622
5,972500	0,1	0,080323
5,974167	0,1	0,079599
5,975833	0,1	0,080150
5,977500	0,1	0,140255
5,979167	0,1	0,106277
5,980833	0,1	0,112445
5,982500	0,1	0,127591
5,984167	0,1	0,096307
5,985833	0,1	0,099643
5,987500	0,1	0,088676
5,989167	0,1	0,141413
5,990833	0,1	0,100681
5,992500	0,1	0,103052
5,994167	0,1	0,097648
5,995833	0,1	0,088548
5,997500	0,1	0,103206
5,999167	0,1	0,078098
6,000833	0,1	0,098996
