File Path	chrom://chromeleon01/ikbm_chromeleon/2022/Rezex/Esteban/220612_chitin_4_7.seq/587.smp/UV_VIS_1.channel/UV_VIS_1.chm
Channel	UV_VIS_1

Injection Information:
Data Vault	ikbm_chromeleon
Injection	Sc10D_24h-ChiBS_NA
Injection Number	22
Position	RC3
Comment	
Processing Method	New ProcMethod
Instrument Method	Short_Rezex_6min_194nm
Type	Unknown
Status	Finished
Injection Date	12.06.2022
Injection Time	19:30:26
Injection Volume (µl)	8,000
Dilution Factor	1,0000
Weight	1,0000

Chromatogram Data Information:
Time Min. (min)	0,000833
Time Max. (min)	6,000833
Data Points	3601
Detector	UV
Generating Data System	Chromeleon 7.2.9.11323
Exporting Data System	Chromeleon 7.2.9.0
Operator	Instrument Controller
Signal Quantity	Absorbance
Signal Unit	mAU
Signal Min.	-0,197392
Signal Max.	125,273653
Channel	UV_VIS_1
Driver Name	VWD3000.dll
Channel Type	Evaluation
Min. Step (s)	0,1
Max. Step (s)	0,1
Average Step (s)	0,1

Signal Parameter Information:
Signal Info	WVL:194 nm

Chromatogram Data:
Time (min)	Step (s)	Value (mAU)
0,000833	n.a.	-0,115470
0,002500	0,1	-0,107046
0,004167	0,1	-0,157580
0,005833	0,1	-0,084582
0,007500	0,1	-0,120812
0,009167	0,1	-0,117078
0,010833	0,1	-0,094411
0,012500	0,1	-0,103171
0,014167	0,1	-0,090692
0,015833	0,1	-0,085856
0,017500	0,1	-0,138556
0,019167	0,1	-0,138731
0,020833	0,1	-0,090281
0,022500	0,1	-0,120268
0,024167	0,1	-0,113042
0,025833	0,1	-0,081336
0,027500	0,1	-0,098807
0,029167	0,1	-0,155099
0,030833	0,1	-0,108409
0,032500	0,1	-0,161613
0,034167	0,1	-0,164395
0,035833	0,1	-0,159629
0,037500	0,1	-0,184387
0,039167	0,1	-0,145824
0,040833	0,1	-0,181073
0,042500	0,1	-0,145281
0,044167	0,1	-0,162709
0,045833	0,1	-0,107766
0,047500	0,1	-0,163219
0,049167	0,1	-0,121564
0,050833	0,1	-0,141484
0,052500	0,1	-0,121824
0,054167	0,1	-0,159429
0,055833	0,1	-0,104504
0,057500	0,1	-0,161423
0,059167	0,1	-0,139724
0,060833	0,1	-0,111467
0,062500	0,1	-0,126078
0,064167	0,1	-0,150906
0,065833	0,1	-0,159436
0,067500	0,1	-0,088252
0,069167	0,1	-0,095228
0,070833	0,1	-0,103690
0,072500	0,1	-0,125332
0,074167	0,1	-0,128296
0,075833	0,1	-0,146621
0,077500	0,1	-0,133347
0,079167	0,1	-0,079833
0,080833	0,1	-0,084818
0,082500	0,1	-0,102524
0,084167	0,1	-0,093589
0,085833	0,1	-0,110784
0,087500	0,1	-0,077237
0,089167	0,1	-0,092202
0,090833	0,1	-0,081504
0,092500	0,1	-0,112427
0,094167	0,1	-0,088696
0,095833	0,1	-0,079367
0,097500	0,1	-0,102851
0,099167	0,1	-0,088429
0,100833	0,1	-0,110482
0,102500	0,1	-0,065636
0,104167	0,1	-0,083496
0,105833	0,1	-0,098819
0,107500	0,1	-0,146311
0,109167	0,1	-0,085542
0,110833	0,1	-0,106686
0,112500	0,1	-0,120779
0,114167	0,1	-0,093111
0,115833	0,1	-0,082177
0,117500	0,1	-0,136846
0,119167	0,1	-0,129436
0,120833	0,1	-0,131598
0,122500	0,1	-0,120305
0,124167	0,1	-0,153877
0,125833	0,1	-0,159108
0,127500	0,1	-0,130568
0,129167	0,1	-0,106179
0,130833	0,1	-0,122867
0,132500	0,1	-0,089241
0,134167	0,1	-0,095747
0,135833	0,1	-0,144057
0,137500	0,1	-0,127985
0,139167	0,1	-0,107076
0,140833	0,1	-0,142759
0,142500	0,1	-0,115311
0,144167	0,1	-0,111007
0,145833	0,1	-0,141950
0,147500	0,1	-0,100602
0,149167	0,1	-0,079281
0,150833	0,1	-0,110527
0,152500	0,1	-0,121400
0,154167	0,1	-0,108175
0,155833	0,1	-0,091391
0,157500	0,1	-0,103589
0,159167	0,1	-0,076047
0,160833	0,1	-0,081454
0,162500	0,1	-0,096453
0,164167	0,1	-0,115010
0,165833	0,1	-0,084016
0,167500	0,1	-0,102069
0,169167	0,1	-0,155541
0,170833	0,1	-0,093902
0,172500	0,1	-0,067694
0,174167	0,1	-0,117228
0,175833	0,1	-0,028960
0,177500	0,1	-0,076001
0,179167	0,1	-0,072787
0,180833	0,1	-0,092264
0,182500	0,1	-0,130968
0,184167	0,1	-0,128208
0,185833	0,1	-0,080377
0,187500	0,1	-0,073207
0,189167	0,1	-0,087333
0,190833	0,1	-0,081302
0,192500	0,1	-0,106456
0,194167	0,1	-0,095952
0,195833	0,1	-0,042438
0,197500	0,1	-0,090131
0,199167	0,1	-0,099010
0,200833	0,1	-0,087593
0,202500	0,1	-0,105333
0,204167	0,1	-0,091373
0,205833	0,1	-0,075526
0,207500	0,1	-0,078948
0,209167	0,1	-0,091039
0,210833	0,1	-0,067531
0,212500	0,1	-0,075291
0,214167	0,1	-0,066336
0,215833	0,1	-0,051008
0,217500	0,1	-0,072745
0,219167	0,1	-0,061048
0,220833	0,1	-0,066196
0,222500	0,1	-0,099622
0,224167	0,1	-0,063371
0,225833	0,1	-0,065208
0,227500	0,1	-0,067979
0,229167	0,1	-0,081526
0,230833	0,1	-0,090268
0,232500	0,1	-0,120585
0,234167	0,1	-0,067046
0,235833	0,1	-0,049435
0,237500	0,1	-0,075706
0,239167	0,1	-0,065148
0,240833	0,1	-0,084941
0,242500	0,1	-0,036948
0,244167	0,1	-0,070251
0,245833	0,1	-0,054234
0,247500	0,1	-0,068320
0,249167	0,1	-0,065591
0,250833	0,1	-0,042367
0,252500	0,1	-0,086363
0,254167	0,1	-0,055592
0,255833	0,1	-0,065070
0,257500	0,1	-0,036625
0,259167	0,1	-0,070451
0,260833	0,1	-0,082969
0,262500	0,1	-0,065785
0,264167	0,1	-0,059975
0,265833	0,1	-0,095941
0,267500	0,1	-0,032635
0,269167	0,1	-0,071550
0,270833	0,1	-0,090329
0,272500	0,1	-0,016505
0,274167	0,1	-0,062880
0,275833	0,1	-0,066943
0,277500	0,1	-0,056785
0,279167	0,1	-0,055330
0,280833	0,1	-0,001588
0,282500	0,1	-0,072906
0,284167	0,1	-0,039589
0,285833	0,1	-0,055653
0,287500	0,1	-0,072038
0,289167	0,1	-0,056787
0,290833	0,1	-0,043236
0,292500	0,1	-0,024907
0,294167	0,1	-0,036515
0,295833	0,1	-0,045331
0,297500	0,1	-0,022811
0,299167	0,1	-0,021159
0,300833	0,1	-0,035715
0,302500	0,1	-0,042713
0,304167	0,1	-0,028786
0,305833	0,1	-0,030492
0,307500	0,1	-0,023160
0,309167	0,1	0,000093
0,310833	0,1	-0,042060
0,312500	0,1	-0,010879
0,314167	0,1	-0,024037
0,315833	0,1	-0,014645
0,317500	0,1	0,006936
0,319167	0,1	-0,020316
0,320833	0,1	-0,066059
0,322500	0,1	-0,046019
0,324167	0,1	-0,033302
0,325833	0,1	-0,046748
0,327500	0,1	0,031311
0,329167	0,1	0,000751
0,330833	0,1	-0,012838
0,332500	0,1	-0,036902
0,334167	0,1	-0,001036
0,335833	0,1	0,018391
0,337500	0,1	-0,010219
0,339167	0,1	-0,052285
0,340833	0,1	-0,045781
0,342500	0,1	-0,048140
0,344167	0,1	-0,001748
0,345833	0,1	-0,034030
0,347500	0,1	0,003252
0,349167	0,1	-0,001063
0,350833	0,1	0,008159
0,352500	0,1	-0,023706
0,354167	0,1	0,014770
0,355833	0,1	0,008001
0,357500	0,1	-0,037287
0,359167	0,1	-0,004746
0,360833	0,1	0,003840
0,362500	0,1	-0,002290
0,364167	0,1	-0,002419
0,365833	0,1	-0,027579
0,367500	0,1	0,012350
0,369167	0,1	-0,009929
0,370833	0,1	0,021322
0,372500	0,1	-0,008573
0,374167	0,1	0,019290
0,375833	0,1	0,004783
0,377500	0,1	0,018292
0,379167	0,1	0,025456
0,380833	0,1	0,052433
0,382500	0,1	-0,023275
0,384167	0,1	-0,025975
0,385833	0,1	-0,003006
0,387500	0,1	0,011385
0,389167	0,1	0,010971
0,390833	0,1	0,019392
0,392500	0,1	0,024550
0,394167	0,1	0,027655
0,395833	0,1	0,049303
0,397500	0,1	0,001303
0,399167	0,1	0,048295
0,400833	0,1	-0,009601
0,402500	0,1	0,005832
0,404167	0,1	0,045229
0,405833	0,1	-0,003732
0,407500	0,1	0,036903
0,409167	0,1	0,047141
0,410833	0,1	0,006817
0,412500	0,1	0,061974
0,414167	0,1	0,037469
0,415833	0,1	0,067660
0,417500	0,1	0,042471
0,419167	0,1	0,043238
0,420833	0,1	0,013076
0,422500	0,1	0,045556
0,424167	0,1	0,020167
0,425833	0,1	0,041394
0,427500	0,1	0,060403
0,429167	0,1	-0,018277
0,430833	0,1	0,059098
0,432500	0,1	0,057791
0,434167	0,1	0,045695
0,435833	0,1	0,037368
0,437500	0,1	0,071917
0,439167	0,1	0,053986
0,440833	0,1	0,068213
0,442500	0,1	0,060862
0,444167	0,1	0,074086
0,445833	0,1	0,026888
0,447500	0,1	0,063690
0,449167	0,1	0,099509
0,450833	0,1	0,087453
0,452500	0,1	0,091807
0,454167	0,1	0,075673
0,455833	0,1	0,097737
0,457500	0,1	0,090872
0,459167	0,1	0,073059
0,460833	0,1	0,088285
0,462500	0,1	0,062217
0,464167	0,1	0,110447
0,465833	0,1	0,084743
0,467500	0,1	0,095645
0,469167	0,1	0,082772
0,470833	0,1	0,083093
0,472500	0,1	0,073607
0,474167	0,1	0,057986
0,475833	0,1	0,079341
0,477500	0,1	0,098640
0,479167	0,1	0,121748
0,480833	0,1	0,137340
0,482500	0,1	0,113531
0,484167	0,1	0,137176
0,485833	0,1	0,104205
0,487500	0,1	0,100323
0,489167	0,1	0,109586
0,490833	0,1	0,108134
0,492500	0,1	0,111395
0,494167	0,1	0,138531
0,495833	0,1	0,110208
0,497500	0,1	0,140629
0,499167	0,1	0,154349
0,500833	0,1	0,127797
0,502500	0,1	0,099169
0,504167	0,1	0,122393
0,505833	0,1	0,134984
0,507500	0,1	0,113402
0,509167	0,1	0,129174
0,510833	0,1	0,124113
0,512500	0,1	0,140664
0,514167	0,1	0,153123
0,515833	0,1	0,157096
0,517500	0,1	0,138445
0,519167	0,1	0,134118
0,520833	0,1	0,159317
0,522500	0,1	0,146449
0,524167	0,1	0,196077
0,525833	0,1	0,152460
0,527500	0,1	0,152901
0,529167	0,1	0,186268
0,530833	0,1	0,201797
0,532500	0,1	0,187085
0,534167	0,1	0,167043
0,535833	0,1	0,163812
0,537500	0,1	0,196468
0,539167	0,1	0,176177
0,540833	0,1	0,203573
0,542500	0,1	0,172823
0,544167	0,1	0,168718
0,545833	0,1	0,179367
0,547500	0,1	0,185436
0,549167	0,1	0,194280
0,550833	0,1	0,204188
0,552500	0,1	0,211258
0,554167	0,1	0,175182
0,555833	0,1	0,237845
0,557500	0,1	0,205200
0,559167	0,1	0,256211
0,560833	0,1	0,183937
0,562500	0,1	0,224714
0,564167	0,1	0,205359
0,565833	0,1	0,240885
0,567500	0,1	0,211621
0,569167	0,1	0,200384
0,570833	0,1	0,233008
0,572500	0,1	0,253060
0,574167	0,1	0,275853
0,575833	0,1	0,276049
0,577500	0,1	0,278566
0,579167	0,1	0,249489
0,580833	0,1	0,294925
0,582500	0,1	0,217154
0,584167	0,1	0,239179
0,585833	0,1	0,271232
0,587500	0,1	0,232413
0,589167	0,1	0,301122
0,590833	0,1	0,273218
0,592500	0,1	0,267661
0,594167	0,1	0,271018
0,595833	0,1	0,265045
0,597500	0,1	0,269372
0,599167	0,1	0,282698
0,600833	0,1	0,279153
0,602500	0,1	0,329540
0,604167	0,1	0,326324
0,605833	0,1	0,337495
0,607500	0,1	0,286268
0,609167	0,1	0,302041
0,610833	0,1	0,321376
0,612500	0,1	0,330841
0,614167	0,1	0,305054
0,615833	0,1	0,372160
0,617500	0,1	0,350157
0,619167	0,1	0,350122
0,620833	0,1	0,351283
0,622500	0,1	0,348027
0,624167	0,1	0,328853
0,625833	0,1	0,331458
0,627500	0,1	0,377882
0,629167	0,1	0,374010
0,630833	0,1	0,383668
0,632500	0,1	0,374797
0,634167	0,1	0,403974
0,635833	0,1	0,351745
0,637500	0,1	0,382174
0,639167	0,1	0,380674
0,640833	0,1	0,335156
0,642500	0,1	0,395252
0,644167	0,1	0,373387
0,645833	0,1	0,378699
0,647500	0,1	0,411603
0,649167	0,1	0,415552
0,650833	0,1	0,389751
0,652500	0,1	0,400723
0,654167	0,1	0,391105
0,655833	0,1	0,457314
0,657500	0,1	0,425184
0,659167	0,1	0,386562
0,660833	0,1	0,409154
0,662500	0,1	0,418003
0,664167	0,1	0,446514
0,665833	0,1	0,432931
0,667500	0,1	0,470215
0,669167	0,1	0,472780
0,670833	0,1	0,451007
0,672500	0,1	0,449011
0,674167	0,1	0,457077
0,675833	0,1	0,482954
0,677500	0,1	0,469685
0,679167	0,1	0,499221
0,680833	0,1	0,447850
0,682500	0,1	0,483729
0,684167	0,1	0,499513
0,685833	0,1	0,499757
0,687500	0,1	0,488669
0,689167	0,1	0,486836
0,690833	0,1	0,531785
0,692500	0,1	0,510835
0,694167	0,1	0,517580
0,695833	0,1	0,521458
0,697500	0,1	0,512323
0,699167	0,1	0,529628
0,700833	0,1	0,532110
0,702500	0,1	0,522885
0,704167	0,1	0,549208
0,705833	0,1	0,508058
0,707500	0,1	0,539541
0,709167	0,1	0,605083
0,710833	0,1	0,582488
0,712500	0,1	0,546350
0,714167	0,1	0,641064
0,715833	0,1	0,570000
0,717500	0,1	0,582970
0,719167	0,1	0,582995
0,720833	0,1	0,622090
0,722500	0,1	0,628227
0,724167	0,1	0,663051
0,725833	0,1	0,626232
0,727500	0,1	0,618757
0,729167	0,1	0,629743
0,730833	0,1	0,657349
0,732500	0,1	0,633783
0,734167	0,1	0,681545
0,735833	0,1	0,652681
0,737500	0,1	0,671902
0,739167	0,1	0,675518
0,740833	0,1	0,682001
0,742500	0,1	0,680265
0,744167	0,1	0,690626
0,745833	0,1	0,682964
0,747500	0,1	0,680666
0,749167	0,1	0,700252
0,750833	0,1	0,737958
0,752500	0,1	0,705101
0,754167	0,1	0,676305
0,755833	0,1	0,699829
0,757500	0,1	0,700257
0,759167	0,1	0,749750
0,760833	0,1	0,739421
0,762500	0,1	0,756689
0,764167	0,1	0,745550
0,765833	0,1	0,787537
0,767500	0,1	0,772831
0,769167	0,1	0,746155
0,770833	0,1	0,777148
0,772500	0,1	0,737800
0,774167	0,1	0,771108
0,775833	0,1	0,779249
0,777500	0,1	0,754024
0,779167	0,1	0,771557
0,780833	0,1	0,772517
0,782500	0,1	0,777512
0,784167	0,1	0,794471
0,785833	0,1	0,801943
0,787500	0,1	0,799117
0,789167	0,1	0,783489
0,790833	0,1	0,799692
0,792500	0,1	0,810481
0,794167	0,1	0,794951
0,795833	0,1	0,779233
0,797500	0,1	0,831960
0,799167	0,1	0,824642
0,800833	0,1	0,812001
0,802500	0,1	0,834439
0,804167	0,1	0,806254
0,805833	0,1	0,869593
0,807500	0,1	0,837288
0,809167	0,1	0,830749
0,810833	0,1	0,875603
0,812500	0,1	0,853584
0,814167	0,1	0,855433
0,815833	0,1	0,853292
0,817500	0,1	0,880083
0,819167	0,1	0,890162
0,820833	0,1	0,867792
0,822500	0,1	0,879663
0,824167	0,1	0,878201
0,825833	0,1	0,866158
0,827500	0,1	0,912362
0,829167	0,1	0,917341
0,830833	0,1	0,920556
0,832500	0,1	0,882600
0,834167	0,1	0,927488
0,835833	0,1	0,940498
0,837500	0,1	0,923166
0,839167	0,1	0,923570
0,840833	0,1	0,958499
0,842500	0,1	0,936373
0,844167	0,1	0,951730
0,845833	0,1	0,943771
0,847500	0,1	0,948075
0,849167	0,1	0,927368
0,850833	0,1	0,940498
0,852500	0,1	0,981833
0,854167	0,1	0,960249
0,855833	0,1	1,018559
0,857500	0,1	1,003463
0,859167	0,1	0,953890
0,860833	0,1	0,967151
0,862500	0,1	0,956248
0,864167	0,1	0,992165
0,865833	0,1	1,019418
0,867500	0,1	0,986446
0,869167	0,1	1,024796
0,870833	0,1	1,061903
0,872500	0,1	1,036454
0,874167	0,1	1,065786
0,875833	0,1	1,122640
0,877500	0,1	1,059490
0,879167	0,1	1,089280
0,880833	0,1	1,107575
0,882500	0,1	1,110058
0,884167	0,1	1,107334
0,885833	0,1	1,092910
0,887500	0,1	1,124970
0,889167	0,1	1,165164
0,890833	0,1	1,110318
0,892500	0,1	1,133632
0,894167	0,1	1,145583
0,895833	0,1	1,119329
0,897500	0,1	1,181353
0,899167	0,1	1,154486
0,900833	0,1	1,164430
0,902500	0,1	1,192085
0,904167	0,1	1,189214
0,905833	0,1	1,196329
0,907500	0,1	1,164262
0,909167	0,1	1,197133
0,910833	0,1	1,225734
0,912500	0,1	1,255525
0,914167	0,1	1,209654
0,915833	0,1	1,235799
0,917500	0,1	1,222162
0,919167	0,1	1,235884
0,920833	0,1	1,233125
0,922500	0,1	1,276856
0,924167	0,1	1,257535
0,925833	0,1	1,303830
0,927500	0,1	1,298665
0,929167	0,1	1,271696
0,930833	0,1	1,297412
0,932500	0,1	1,321958
0,934167	0,1	1,357557
0,935833	0,1	1,338736
0,937500	0,1	1,330013
0,939167	0,1	1,367843
0,940833	0,1	1,367555
0,942500	0,1	1,368412
0,944167	0,1	1,374594
0,945833	0,1	1,409119
0,947500	0,1	1,390067
0,949167	0,1	1,417833
0,950833	0,1	1,420850
0,952500	0,1	1,457184
0,954167	0,1	1,441432
0,955833	0,1	1,464028
0,957500	0,1	1,472153
0,959167	0,1	1,453087
0,960833	0,1	1,499564
0,962500	0,1	1,503298
0,964167	0,1	1,521574
0,965833	0,1	1,536839
0,967500	0,1	1,491442
0,969167	0,1	1,526179
0,970833	0,1	1,543745
0,972500	0,1	1,563601
0,974167	0,1	1,538846
0,975833	0,1	1,559853
0,977500	0,1	1,615189
0,979167	0,1	1,623257
0,980833	0,1	1,624699
0,982500	0,1	1,621174
0,984167	0,1	1,646642
0,985833	0,1	1,629527
0,987500	0,1	1,713571
0,989167	0,1	1,695744
0,990833	0,1	1,682642
0,992500	0,1	1,685160
0,994167	0,1	1,692208
0,995833	0,1	1,710424
0,997500	0,1	1,750221
0,999167	0,1	1,727556
1,000833	0,1	1,775634
1,002500	0,1	1,761248
1,004167	0,1	1,795002
1,005833	0,1	1,811997
1,007500	0,1	1,840219
1,009167	0,1	1,864414
1,010833	0,1	1,851032
1,012500	0,1	1,879247
1,014167	0,1	1,915467
1,015833	0,1	1,953204
1,017500	0,1	1,929958
1,019167	0,1	1,921600
1,020833	0,1	1,937513
1,022500	0,1	1,952200
1,024167	0,1	1,998507
1,025833	0,1	2,008168
1,027500	0,1	2,030569
1,029167	0,1	2,017320
1,030833	0,1	2,060962
1,032500	0,1	2,067668
1,034167	0,1	2,086046
1,035833	0,1	2,133148
1,037500	0,1	2,103914
1,039167	0,1	2,150156
1,040833	0,1	2,144841
1,042500	0,1	2,202964
1,044167	0,1	2,199750
1,045833	0,1	2,218327
1,047500	0,1	2,217477
1,049167	0,1	2,226709
1,050833	0,1	2,244920
1,052500	0,1	2,274188
1,054167	0,1	2,335141
1,055833	0,1	2,370181
1,057500	0,1	2,429182
1,059167	0,1	2,543517
1,060833	0,1	2,652079
1,062500	0,1	2,748983
1,064167	0,1	2,881756
1,065833	0,1	3,099559
1,067500	0,1	3,380294
1,069167	0,1	3,728056
1,070833	0,1	4,099523
1,072500	0,1	4,633046
1,074167	0,1	5,227084
1,075833	0,1	5,935128
1,077500	0,1	6,711642
1,079167	0,1	7,748907
1,080833	0,1	8,793979
1,082500	0,1	10,067999
1,084167	0,1	11,418980
1,085833	0,1	12,915710
1,087500	0,1	14,574716
1,089167	0,1	16,266695
1,090833	0,1	18,070691
1,092500	0,1	19,901833
1,094167	0,1	21,768974
1,095833	0,1	23,647667
1,097500	0,1	25,472559
1,099167	0,1	27,291359
1,100833	0,1	28,984010
1,102500	0,1	30,555057
1,104167	0,1	31,991263
1,105833	0,1	33,329905
1,107500	0,1	34,434388
1,109167	0,1	35,409235
1,110833	0,1	36,132355
1,112500	0,1	36,719301
1,114167	0,1	37,099179
1,115833	0,1	37,380903
1,117500	0,1	37,422436
1,119167	0,1	37,256087
1,120833	0,1	36,938908
1,122500	0,1	36,551504
1,124167	0,1	35,945947
1,125833	0,1	35,306705
1,127500	0,1	34,489215
1,129167	0,1	33,625999
1,130833	0,1	32,681018
1,132500	0,1	31,654735
1,134167	0,1	30,614895
1,135833	0,1	29,450876
1,137500	0,1	28,346034
1,139167	0,1	27,231782
1,140833	0,1	26,068635
1,142500	0,1	24,930747
1,144167	0,1	23,779835
1,145833	0,1	22,671681
1,147500	0,1	21,628808
1,149167	0,1	20,604935
1,150833	0,1	19,553487
1,152500	0,1	18,614740
1,154167	0,1	17,712802
1,155833	0,1	16,862458
1,157500	0,1	16,087100
1,159167	0,1	15,302864
1,160833	0,1	14,586726
1,162500	0,1	13,881372
1,164167	0,1	13,264998
1,165833	0,1	12,718891
1,167500	0,1	12,160479
1,169167	0,1	11,652913
1,170833	0,1	11,189485
1,172500	0,1	10,788186
1,174167	0,1	10,355789
1,175833	0,1	9,986952
1,177500	0,1	9,669991
1,179167	0,1	9,309593
1,180833	0,1	9,069279
1,182500	0,1	8,758191
1,184167	0,1	8,517307
1,185833	0,1	8,297439
1,187500	0,1	8,082408
1,189167	0,1	7,854428
1,190833	0,1	7,689980
1,192500	0,1	7,506296
1,194167	0,1	7,372372
1,195833	0,1	7,216848
1,197500	0,1	7,115890
1,199167	0,1	6,951407
1,200833	0,1	6,844808
1,202500	0,1	6,706148
1,204167	0,1	6,615899
1,205833	0,1	6,586027
1,207500	0,1	6,433707
1,209167	0,1	6,392341
1,210833	0,1	6,299284
1,212500	0,1	6,251666
1,214167	0,1	6,213493
1,215833	0,1	6,146096
1,217500	0,1	6,116743
1,219167	0,1	6,043756
1,220833	0,1	6,008870
1,222500	0,1	5,959798
1,224167	0,1	5,908852
1,225833	0,1	5,917444
1,227500	0,1	5,896429
1,229167	0,1	5,812997
1,230833	0,1	5,815578
1,232500	0,1	5,801773
1,234167	0,1	5,758531
1,235833	0,1	5,739267
1,237500	0,1	5,721328
1,239167	0,1	5,707535
1,240833	0,1	5,731589
1,242500	0,1	5,663821
1,244167	0,1	5,703806
1,245833	0,1	5,669043
1,247500	0,1	5,647866
1,249167	0,1	5,654278
1,250833	0,1	5,612839
1,252500	0,1	5,581326
1,254167	0,1	5,557841
1,255833	0,1	5,595291
1,257500	0,1	5,613317
1,259167	0,1	5,526492
1,260833	0,1	5,589268
1,262500	0,1	5,543944
1,264167	0,1	5,542150
1,265833	0,1	5,525903
1,267500	0,1	5,514532
1,269167	0,1	5,538577
1,270833	0,1	5,526596
1,272500	0,1	5,579334
1,274167	0,1	5,511910
1,275833	0,1	5,582953
1,277500	0,1	5,480728
1,279167	0,1	5,496698
1,280833	0,1	5,508801
1,282500	0,1	5,550355
1,284167	0,1	5,545436
1,285833	0,1	5,442086
1,287500	0,1	5,513975
1,289167	0,1	5,471934
1,290833	0,1	5,499663
1,292500	0,1	5,494251
1,294167	0,1	5,457345
1,295833	0,1	5,483204
1,297500	0,1	5,497302
1,299167	0,1	5,497074
1,300833	0,1	5,461301
1,302500	0,1	5,499715
1,304167	0,1	5,462308
1,305833	0,1	5,452923
1,307500	0,1	5,489947
1,309167	0,1	5,493806
1,310833	0,1	5,504364
1,312500	0,1	5,480144
1,314167	0,1	5,470550
1,315833	0,1	5,468657
1,317500	0,1	5,461470
1,319167	0,1	5,460939
1,320833	0,1	5,471498
1,322500	0,1	5,481389
1,324167	0,1	5,450720
1,325833	0,1	5,443298
1,327500	0,1	5,444286
1,329167	0,1	5,476525
1,330833	0,1	5,457748
1,332500	0,1	5,407688
1,334167	0,1	5,425545
1,335833	0,1	5,406323
1,337500	0,1	5,440870
1,339167	0,1	5,421069
1,340833	0,1	5,406836
1,342500	0,1	5,426110
1,344167	0,1	5,463651
1,345833	0,1	5,417436
1,347500	0,1	5,417533
1,349167	0,1	5,409499
1,350833	0,1	5,412462
1,352500	0,1	5,383370
1,354167	0,1	5,426582
1,355833	0,1	5,420253
1,357500	0,1	5,386093
1,359167	0,1	5,380487
1,360833	0,1	5,397908
1,362500	0,1	5,384567
1,364167	0,1	5,382534
1,365833	0,1	5,439062
1,367500	0,1	5,364786
1,369167	0,1	5,398595
1,370833	0,1	5,409142
1,372500	0,1	5,369351
1,374167	0,1	5,386520
1,375833	0,1	5,373089
1,377500	0,1	5,426560
1,379167	0,1	5,399916
1,380833	0,1	5,374399
1,382500	0,1	5,394837
1,384167	0,1	5,390551
1,385833	0,1	5,430820
1,387500	0,1	5,385510
1,389167	0,1	5,400505
1,390833	0,1	5,432357
1,392500	0,1	5,400886
1,394167	0,1	5,401480
1,395833	0,1	5,437407
1,397500	0,1	5,422675
1,399167	0,1	5,409676
1,400833	0,1	5,442618
1,402500	0,1	5,415472
1,404167	0,1	5,456250
1,405833	0,1	5,419747
1,407500	0,1	5,434975
1,409167	0,1	5,403343
1,410833	0,1	5,424130
1,412500	0,1	5,418188
1,414167	0,1	5,433776
1,415833	0,1	5,464182
1,417500	0,1	5,409493
1,419167	0,1	5,440306
1,420833	0,1	5,474407
1,422500	0,1	5,435854
1,424167	0,1	5,456908
1,425833	0,1	5,408346
1,427500	0,1	5,423799
1,429167	0,1	5,413843
1,430833	0,1	5,438717
1,432500	0,1	5,406735
1,434167	0,1	5,401024
1,435833	0,1	5,411843
1,437500	0,1	5,383634
1,439167	0,1	5,376128
1,440833	0,1	5,390546
1,442500	0,1	5,367885
1,444167	0,1	5,377958
1,445833	0,1	5,404371
1,447500	0,1	5,389618
1,449167	0,1	5,364657
1,450833	0,1	5,394960
1,452500	0,1	5,346948
1,454167	0,1	5,363798
1,455833	0,1	5,384421
1,457500	0,1	5,365008
1,459167	0,1	5,325427
1,460833	0,1	5,317844
1,462500	0,1	5,359942
1,464167	0,1	5,331041
1,465833	0,1	5,330837
1,467500	0,1	5,320125
1,469167	0,1	5,322239
1,470833	0,1	5,281226
1,472500	0,1	5,313153
1,474167	0,1	5,309457
1,475833	0,1	5,316183
1,477500	0,1	5,301924
1,479167	0,1	5,300381
1,480833	0,1	5,302770
1,482500	0,1	5,311913
1,484167	0,1	5,307323
1,485833	0,1	5,303384
1,487500	0,1	5,302730
1,489167	0,1	5,271189
1,490833	0,1	5,309906
1,492500	0,1	5,293871
1,494167	0,1	5,259455
1,495833	0,1	5,276033
1,497500	0,1	5,341294
1,499167	0,1	5,270370
1,500833	0,1	5,300628
1,502500	0,1	5,314047
1,504167	0,1	5,256195
1,505833	0,1	5,318520
1,507500	0,1	5,304040
1,509167	0,1	5,295128
1,510833	0,1	5,324513
1,512500	0,1	5,319540
1,514167	0,1	5,274673
1,515833	0,1	5,340708
1,517500	0,1	5,310791
1,519167	0,1	5,300598
1,520833	0,1	5,314007
1,522500	0,1	5,324762
1,524167	0,1	5,313816
1,525833	0,1	5,317140
1,527500	0,1	5,323193
1,529167	0,1	5,298923
1,530833	0,1	5,320118
1,532500	0,1	5,348595
1,534167	0,1	5,345971
1,535833	0,1	5,386569
1,537500	0,1	5,349137
1,539167	0,1	5,383041
1,540833	0,1	5,330178
1,542500	0,1	5,350342
1,544167	0,1	5,353349
1,545833	0,1	5,345758
1,547500	0,1	5,376257
1,549167	0,1	5,368679
1,550833	0,1	5,335983
1,552500	0,1	5,336326
1,554167	0,1	5,351846
1,555833	0,1	5,332762
1,557500	0,1	5,331276
1,559167	0,1	5,338568
1,560833	0,1	5,329291
1,562500	0,1	5,353520
1,564167	0,1	5,319109
1,565833	0,1	5,326653
1,567500	0,1	5,320759
1,569167	0,1	5,339999
1,570833	0,1	5,329270
1,572500	0,1	5,339844
1,574167	0,1	5,311619
1,575833	0,1	5,327265
1,577500	0,1	5,324043
1,579167	0,1	5,307891
1,580833	0,1	5,325326
1,582500	0,1	5,323740
1,584167	0,1	5,330007
1,585833	0,1	5,314707
1,587500	0,1	5,331117
1,589167	0,1	5,314619
1,590833	0,1	5,307889
1,592500	0,1	5,316358
1,594167	0,1	5,307130
1,595833	0,1	5,321553
1,597500	0,1	5,302969
1,599167	0,1	5,289360
1,600833	0,1	5,330954
1,602500	0,1	5,281819
1,604167	0,1	5,315327
1,605833	0,1	5,312179
1,607500	0,1	5,300208
1,609167	0,1	5,328199
1,610833	0,1	5,341131
1,612500	0,1	5,301736
1,614167	0,1	5,262721
1,615833	0,1	5,294925
1,617500	0,1	5,262807
1,619167	0,1	5,308967
1,620833	0,1	5,336359
1,622500	0,1	5,311833
1,624167	0,1	5,278112
1,625833	0,1	5,299937
1,627500	0,1	5,328822
1,629167	0,1	5,290894
1,630833	0,1	5,305621
1,632500	0,1	5,310217
1,634167	0,1	5,310609
1,635833	0,1	5,314527
1,637500	0,1	5,339148
1,639167	0,1	5,356204
1,640833	0,1	5,340113
1,642500	0,1	5,369461
1,644167	0,1	5,367119
1,645833	0,1	5,427760
1,647500	0,1	5,467764
1,649167	0,1	5,476496
1,650833	0,1	5,542627
1,652500	0,1	5,566376
1,654167	0,1	5,610501
1,655833	0,1	5,652918
1,657500	0,1	5,693243
1,659167	0,1	5,726410
1,660833	0,1	5,764729
1,662500	0,1	5,885095
1,664167	0,1	5,920920
1,665833	0,1	5,978835
1,667500	0,1	6,083057
1,669167	0,1	6,193383
1,670833	0,1	6,267727
1,672500	0,1	6,412604
1,674167	0,1	6,496351
1,675833	0,1	6,643546
1,677500	0,1	6,757951
1,679167	0,1	6,925000
1,680833	0,1	7,101217
1,682500	0,1	7,260836
1,684167	0,1	7,445605
1,685833	0,1	7,633481
1,687500	0,1	7,819829
1,689167	0,1	8,058589
1,690833	0,1	8,248520
1,692500	0,1	8,542230
1,694167	0,1	8,731124
1,695833	0,1	9,025561
1,697500	0,1	9,265492
1,699167	0,1	9,533627
1,700833	0,1	9,819868
1,702500	0,1	10,191129
1,704167	0,1	10,469791
1,705833	0,1	10,841149
1,707500	0,1	11,141244
1,709167	0,1	11,475864
1,710833	0,1	11,820281
1,712500	0,1	12,146115
1,714167	0,1	12,560338
1,715833	0,1	12,864282
1,717500	0,1	13,279355
1,719167	0,1	13,648203
1,720833	0,1	14,004103
1,722500	0,1	14,417305
1,724167	0,1	14,779811
1,725833	0,1	15,128839
1,727500	0,1	15,527359
1,729167	0,1	15,971752
1,730833	0,1	16,307567
1,732500	0,1	16,724933
1,734167	0,1	17,018075
1,735833	0,1	17,371920
1,737500	0,1	17,739474
1,739167	0,1	18,117014
1,740833	0,1	18,482595
1,742500	0,1	18,791436
1,744167	0,1	19,101719
1,745833	0,1	19,411741
1,747500	0,1	19,707055
1,749167	0,1	19,992175
1,750833	0,1	20,303241
1,752500	0,1	20,586025
1,754167	0,1	20,815965
1,755833	0,1	21,075148
1,757500	0,1	21,298688
1,759167	0,1	21,472961
1,760833	0,1	21,664622
1,762500	0,1	21,798871
1,764167	0,1	21,973477
1,765833	0,1	22,124450
1,767500	0,1	22,272366
1,769167	0,1	22,331045
1,770833	0,1	22,421561
1,772500	0,1	22,518719
1,774167	0,1	22,574985
1,775833	0,1	22,600385
1,777500	0,1	22,597775
1,779167	0,1	22,633691
1,780833	0,1	22,637878
1,782500	0,1	22,560796
1,784167	0,1	22,553673
1,785833	0,1	22,456232
1,787500	0,1	22,378706
1,789167	0,1	22,292726
1,790833	0,1	22,166012
1,792500	0,1	22,077095
1,794167	0,1	21,912825
1,795833	0,1	21,784146
1,797500	0,1	21,629128
1,799167	0,1	21,492120
1,800833	0,1	21,265491
1,802500	0,1	21,068421
1,804167	0,1	20,836199
1,805833	0,1	20,633608
1,807500	0,1	20,434558
1,809167	0,1	20,216833
1,810833	0,1	19,935094
1,812500	0,1	19,686532
1,814167	0,1	19,448312
1,815833	0,1	19,181310
1,817500	0,1	18,880007
1,819167	0,1	18,665057
1,820833	0,1	18,369818
1,822500	0,1	18,064736
1,824167	0,1	17,799836
1,825833	0,1	17,481988
1,827500	0,1	17,241544
1,829167	0,1	16,923349
1,830833	0,1	16,659451
1,832500	0,1	16,357673
1,834167	0,1	16,044244
1,835833	0,1	15,767001
1,837500	0,1	15,460925
1,839167	0,1	15,211446
1,840833	0,1	14,914309
1,842500	0,1	14,656335
1,844167	0,1	14,376094
1,845833	0,1	14,106876
1,847500	0,1	13,890015
1,849167	0,1	13,585652
1,850833	0,1	13,364651
1,852500	0,1	13,135705
1,854167	0,1	12,908797
1,855833	0,1	12,686466
1,857500	0,1	12,463952
1,859167	0,1	12,273709
1,860833	0,1	12,067762
1,862500	0,1	11,846940
1,864167	0,1	11,667070
1,865833	0,1	11,476612
1,867500	0,1	11,279134
1,869167	0,1	11,089430
1,870833	0,1	10,968824
1,872500	0,1	10,755216
1,874167	0,1	10,556390
1,875833	0,1	10,447460
1,877500	0,1	10,293494
1,879167	0,1	10,081679
1,880833	0,1	9,970890
1,882500	0,1	9,850254
1,884167	0,1	9,654941
1,885833	0,1	9,554860
1,887500	0,1	9,357364
1,889167	0,1	9,244641
1,890833	0,1	9,116170
1,892500	0,1	8,988423
1,894167	0,1	8,874332
1,895833	0,1	8,749886
1,897500	0,1	8,641223
1,899167	0,1	8,548552
1,900833	0,1	8,376511
1,902500	0,1	8,272469
1,904167	0,1	8,215426
1,905833	0,1	8,097674
1,907500	0,1	8,007536
1,909167	0,1	7,936293
1,910833	0,1	7,825929
1,912500	0,1	7,702695
1,914167	0,1	7,615130
1,915833	0,1	7,545748
1,917500	0,1	7,521163
1,919167	0,1	7,416672
1,920833	0,1	7,325012
1,922500	0,1	7,237256
1,924167	0,1	7,151506
1,925833	0,1	7,102855
1,927500	0,1	7,025664
1,929167	0,1	6,990892
1,930833	0,1	6,907358
1,932500	0,1	6,823069
1,934167	0,1	6,781022
1,935833	0,1	6,709035
1,937500	0,1	6,599804
1,939167	0,1	6,606329
1,940833	0,1	6,516136
1,942500	0,1	6,437913
1,944167	0,1	6,426017
1,945833	0,1	6,368127
1,947500	0,1	6,302176
1,949167	0,1	6,264687
1,950833	0,1	6,190526
1,952500	0,1	6,175650
1,954167	0,1	6,122365
1,955833	0,1	6,048046
1,957500	0,1	6,023853
1,959167	0,1	5,976453
1,960833	0,1	6,012244
1,962500	0,1	5,934232
1,964167	0,1	5,866656
1,965833	0,1	5,867037
1,967500	0,1	5,828167
1,969167	0,1	5,756498
1,970833	0,1	5,756660
1,972500	0,1	5,725963
1,974167	0,1	5,716805
1,975833	0,1	5,675535
1,977500	0,1	5,674887
1,979167	0,1	5,676654
1,980833	0,1	5,601929
1,982500	0,1	5,620982
1,984167	0,1	5,647069
1,985833	0,1	5,581100
1,987500	0,1	5,521833
1,989167	0,1	5,570572
1,990833	0,1	5,523540
1,992500	0,1	5,514825
1,994167	0,1	5,490085
1,995833	0,1	5,526755
1,997500	0,1	5,503948
1,999167	0,1	5,494640
2,000833	0,1	5,499068
2,002500	0,1	5,433563
2,004167	0,1	5,504967
2,005833	0,1	5,478235
2,007500	0,1	5,490625
2,009167	0,1	5,459763
2,010833	0,1	5,526005
2,012500	0,1	5,523670
2,014167	0,1	5,520015
2,015833	0,1	5,461537
2,017500	0,1	5,464329
2,019167	0,1	5,498301
2,020833	0,1	5,484750
2,022500	0,1	5,503444
2,024167	0,1	5,503521
2,025833	0,1	5,513886
2,027500	0,1	5,560666
2,029167	0,1	5,540525
2,030833	0,1	5,529768
2,032500	0,1	5,584474
2,034167	0,1	5,585794
2,035833	0,1	5,561827
2,037500	0,1	5,576551
2,039167	0,1	5,618749
2,040833	0,1	5,574736
2,042500	0,1	5,627244
2,044167	0,1	5,604101
2,045833	0,1	5,613333
2,047500	0,1	5,631336
2,049167	0,1	5,674105
2,050833	0,1	5,640411
2,052500	0,1	5,690728
2,054167	0,1	5,688601
2,055833	0,1	5,697097
2,057500	0,1	5,670496
2,059167	0,1	5,748003
2,060833	0,1	5,714032
2,062500	0,1	5,695142
2,064167	0,1	5,725489
2,065833	0,1	5,742208
2,067500	0,1	5,694971
2,069167	0,1	5,748367
2,070833	0,1	5,744458
2,072500	0,1	5,744827
2,074167	0,1	5,820340
2,075833	0,1	5,765854
2,077500	0,1	5,755691
2,079167	0,1	5,735783
2,080833	0,1	5,729599
2,082500	0,1	5,755399
2,084167	0,1	5,731667
2,085833	0,1	5,747439
2,087500	0,1	5,785847
2,089167	0,1	5,738199
2,090833	0,1	5,744709
2,092500	0,1	5,732318
2,094167	0,1	5,762605
2,095833	0,1	5,758484
2,097500	0,1	5,747639
2,099167	0,1	5,734665
2,100833	0,1	5,734264
2,102500	0,1	5,710091
2,104167	0,1	5,681566
2,105833	0,1	5,698107
2,107500	0,1	5,701455
2,109167	0,1	5,706458
2,110833	0,1	5,699256
2,112500	0,1	5,652256
2,114167	0,1	5,697372
2,115833	0,1	5,653058
2,117500	0,1	5,679725
2,119167	0,1	5,632392
2,120833	0,1	5,606911
2,122500	0,1	5,620628
2,124167	0,1	5,587020
2,125833	0,1	5,576557
2,127500	0,1	5,541537
2,129167	0,1	5,555534
2,130833	0,1	5,524529
2,132500	0,1	5,525297
2,134167	0,1	5,490176
2,135833	0,1	5,496966
2,137500	0,1	5,488739
2,139167	0,1	5,459781
2,140833	0,1	5,423087
2,142500	0,1	5,411232
2,144167	0,1	5,408316
2,145833	0,1	5,414177
2,147500	0,1	5,354301
2,149167	0,1	5,317890
2,150833	0,1	5,338671
2,152500	0,1	5,338911
2,154167	0,1	5,269348
2,155833	0,1	5,305414
2,157500	0,1	5,288599
2,159167	0,1	5,231244
2,160833	0,1	5,214102
2,162500	0,1	5,211684
2,164167	0,1	5,161955
2,165833	0,1	5,170822
2,167500	0,1	5,129635
2,169167	0,1	5,083674
2,170833	0,1	5,083223
2,172500	0,1	5,083663
2,174167	0,1	5,068194
2,175833	0,1	5,015846
2,177500	0,1	5,016745
2,179167	0,1	5,034020
2,180833	0,1	4,980231
2,182500	0,1	4,950632
2,184167	0,1	4,934844
2,185833	0,1	4,902699
2,187500	0,1	4,913927
2,189167	0,1	4,839020
2,190833	0,1	4,848049
2,192500	0,1	4,820428
2,194167	0,1	4,794613
2,195833	0,1	4,774727
2,197500	0,1	4,710638
2,199167	0,1	4,732201
2,200833	0,1	4,724720
2,202500	0,1	4,723669
2,204167	0,1	4,699852
2,205833	0,1	4,677505
2,207500	0,1	4,645972
2,209167	0,1	4,644209
2,210833	0,1	4,622354
2,212500	0,1	4,570614
2,214167	0,1	4,561925
2,215833	0,1	4,504642
2,217500	0,1	4,522944
2,219167	0,1	4,526745
2,220833	0,1	4,461596
2,222500	0,1	4,493517
2,224167	0,1	4,416755
2,225833	0,1	4,435751
2,227500	0,1	4,450296
2,229167	0,1	4,407771
2,230833	0,1	4,373037
2,232500	0,1	4,390575
2,234167	0,1	4,357415
2,235833	0,1	4,316858
2,237500	0,1	4,310402
2,239167	0,1	4,308293
2,240833	0,1	4,283950
2,242500	0,1	4,259188
2,244167	0,1	4,252619
2,245833	0,1	4,248509
2,247500	0,1	4,234366
2,249167	0,1	4,163787
2,250833	0,1	4,172080
2,252500	0,1	4,172395
2,254167	0,1	4,178708
2,255833	0,1	4,163518
2,257500	0,1	4,107266
2,259167	0,1	4,085598
2,260833	0,1	4,109195
2,262500	0,1	4,073227
2,264167	0,1	4,083068
2,265833	0,1	4,065610
2,267500	0,1	4,038222
2,269167	0,1	4,039640
2,270833	0,1	4,012492
2,272500	0,1	4,029250
2,274167	0,1	4,019937
2,275833	0,1	3,995723
2,277500	0,1	3,987499
2,279167	0,1	3,953197
2,280833	0,1	3,940697
2,282500	0,1	3,937276
2,284167	0,1	3,945943
2,285833	0,1	3,927920
2,287500	0,1	3,929706
2,289167	0,1	3,903304
2,290833	0,1	3,880516
2,292500	0,1	3,946254
2,294167	0,1	3,875685
2,295833	0,1	3,871599
2,297500	0,1	3,857239
2,299167	0,1	3,832422
2,300833	0,1	3,862722
2,302500	0,1	3,820423
2,304167	0,1	3,820740
2,305833	0,1	3,817489
2,307500	0,1	3,804675
2,309167	0,1	3,784741
2,310833	0,1	3,800068
2,312500	0,1	3,776199
2,314167	0,1	3,810518
2,315833	0,1	3,804634
2,317500	0,1	3,756431
2,319167	0,1	3,781683
2,320833	0,1	3,773355
2,322500	0,1	3,745610
2,324167	0,1	3,762527
2,325833	0,1	3,718689
2,327500	0,1	3,721075
2,329167	0,1	3,740801
2,330833	0,1	3,743328
2,332500	0,1	3,672001
2,334167	0,1	3,766004
2,335833	0,1	3,685990
2,337500	0,1	3,720622
2,339167	0,1	3,687040
2,340833	0,1	3,725667
2,342500	0,1	3,726407
2,344167	0,1	3,682897
2,345833	0,1	3,692484
2,347500	0,1	3,722341
2,349167	0,1	3,744699
2,350833	0,1	3,692293
2,352500	0,1	3,684554
2,354167	0,1	3,707893
2,355833	0,1	3,710260
2,357500	0,1	3,714077
2,359167	0,1	3,716768
2,360833	0,1	3,709363
2,362500	0,1	3,755119
2,364167	0,1	3,700140
2,365833	0,1	3,733594
2,367500	0,1	3,739657
2,369167	0,1	3,737713
2,370833	0,1	3,777567
2,372500	0,1	3,771644
2,374167	0,1	3,765378
2,375833	0,1	3,782052
2,377500	0,1	3,820326
2,379167	0,1	3,794139
2,380833	0,1	3,848030
2,382500	0,1	3,810742
2,384167	0,1	3,881105
2,385833	0,1	3,875711
2,387500	0,1	3,891208
2,389167	0,1	3,906344
2,390833	0,1	3,900003
2,392500	0,1	3,940359
2,394167	0,1	3,977273
2,395833	0,1	3,995059
2,397500	0,1	4,000438
2,399167	0,1	4,058756
2,400833	0,1	4,066825
2,402500	0,1	4,095396
2,404167	0,1	4,116070
2,405833	0,1	4,171722
2,407500	0,1	4,180120
2,409167	0,1	4,215745
2,410833	0,1	4,242057
2,412500	0,1	4,270561
2,414167	0,1	4,276028
2,415833	0,1	4,279287
2,417500	0,1	4,326598
2,419167	0,1	4,343431
2,420833	0,1	4,389031
2,422500	0,1	4,406485
2,424167	0,1	4,417986
2,425833	0,1	4,453163
2,427500	0,1	4,515542
2,429167	0,1	4,494951
2,430833	0,1	4,529345
2,432500	0,1	4,570767
2,434167	0,1	4,580212
2,435833	0,1	4,609637
2,437500	0,1	4,641367
2,439167	0,1	4,669443
2,440833	0,1	4,679395
2,442500	0,1	4,708234
2,444167	0,1	4,764383
2,445833	0,1	4,824402
2,447500	0,1	4,847504
2,449167	0,1	4,853722
2,450833	0,1	4,889461
2,452500	0,1	4,907795
2,454167	0,1	4,992844
2,455833	0,1	5,041094
2,457500	0,1	5,087331
2,459167	0,1	5,158555
2,460833	0,1	5,208947
2,462500	0,1	5,340594
2,464167	0,1	5,403161
2,465833	0,1	5,443959
2,467500	0,1	5,580355
2,469167	0,1	5,702507
2,470833	0,1	5,822523
2,472500	0,1	5,964663
2,474167	0,1	6,178049
2,475833	0,1	6,352265
2,477500	0,1	6,543115
2,479167	0,1	6,813337
2,480833	0,1	7,060236
2,482500	0,1	7,340524
2,484167	0,1	7,707504
2,485833	0,1	8,050448
2,487500	0,1	8,449546
2,489167	0,1	8,866718
2,490833	0,1	9,345146
2,492500	0,1	9,859963
2,494167	0,1	10,484516
2,495833	0,1	11,089104
2,497500	0,1	11,787277
2,499167	0,1	12,540695
2,500833	0,1	13,313370
2,502500	0,1	14,199275
2,504167	0,1	15,155569
2,505833	0,1	16,163406
2,507500	0,1	17,258479
2,509167	0,1	18,348324
2,510833	0,1	19,653997
2,512500	0,1	20,955154
2,514167	0,1	22,361337
2,515833	0,1	23,780816
2,517500	0,1	25,379166
2,519167	0,1	26,983053
2,520833	0,1	28,712113
2,522500	0,1	30,517444
2,524167	0,1	32,430894
2,525833	0,1	34,357777
2,527500	0,1	36,391159
2,529167	0,1	38,465530
2,530833	0,1	40,588570
2,532500	0,1	42,859276
2,534167	0,1	45,172263
2,535833	0,1	47,547424
2,537500	0,1	49,976969
2,539167	0,1	52,404019
2,540833	0,1	54,910613
2,542500	0,1	57,434646
2,544167	0,1	59,996043
2,545833	0,1	62,570867
2,547500	0,1	65,172442
2,549167	0,1	67,788872
2,550833	0,1	70,384965
2,552500	0,1	73,007505
2,554167	0,1	75,622256
2,555833	0,1	78,168297
2,557500	0,1	80,717208
2,559167	0,1	83,208632
2,560833	0,1	85,762515
2,562500	0,1	88,154923
2,564167	0,1	90,571801
2,565833	0,1	92,891744
2,567500	0,1	95,147381
2,569167	0,1	97,420841
2,570833	0,1	99,531521
2,572500	0,1	101,589131
2,574167	0,1	103,616983
2,575833	0,1	105,505765
2,577500	0,1	107,342962
2,579167	0,1	109,091020
2,580833	0,1	110,750450
2,582500	0,1	112,281942
2,584167	0,1	113,774850
2,585833	0,1	115,163111
2,587500	0,1	116,411910
2,589167	0,1	117,680766
2,590833	0,1	118,772095
2,592500	0,1	119,781890
2,594167	0,1	120,757690
2,595833	0,1	121,536990
2,597500	0,1	122,285486
2,599167	0,1	122,921999
2,600833	0,1	123,522961
2,602500	0,1	124,042704
2,604167	0,1	124,432538
2,605833	0,1	124,757173
2,607500	0,1	124,989192
2,609167	0,1	125,157878
2,610833	0,1	125,273653
2,612500	0,1	125,256013
2,614167	0,1	125,194191
2,615833	0,1	125,104050
2,617500	0,1	124,894689
2,619167	0,1	124,653914
2,620833	0,1	124,367318
2,622500	0,1	123,939606
2,624167	0,1	123,468645
2,625833	0,1	122,948902
2,627500	0,1	122,421079
2,629167	0,1	121,791121
2,630833	0,1	121,113556
2,632500	0,1	120,432129
2,634167	0,1	119,602903
2,635833	0,1	118,832129
2,637500	0,1	117,979784
2,639167	0,1	117,062843
2,640833	0,1	116,070370
2,642500	0,1	115,189272
2,644167	0,1	114,091235
2,645833	0,1	113,067839
2,647500	0,1	111,948770
2,649167	0,1	110,773095
2,650833	0,1	109,662014
2,652500	0,1	108,495021
2,654167	0,1	107,259113
2,655833	0,1	105,968779
2,657500	0,1	104,728141
2,659167	0,1	103,470366
2,660833	0,1	102,158742
2,662500	0,1	100,811784
2,664167	0,1	99,464510
2,665833	0,1	98,113267
2,667500	0,1	96,710513
2,669167	0,1	95,350834
2,670833	0,1	93,956090
2,672500	0,1	92,534897
2,674167	0,1	91,139590
2,675833	0,1	89,702068
2,677500	0,1	88,332800
2,679167	0,1	86,894869
2,680833	0,1	85,440876
2,682500	0,1	84,078132
2,684167	0,1	82,606683
2,685833	0,1	81,236039
2,687500	0,1	79,804340
2,689167	0,1	78,411334
2,690833	0,1	76,994913
2,692500	0,1	75,602873
2,694167	0,1	74,271886
2,695833	0,1	72,855554
2,697500	0,1	71,511731
2,699167	0,1	70,208167
2,700833	0,1	68,867087
2,702500	0,1	67,560978
2,704167	0,1	66,268957
2,705833	0,1	64,989343
2,707500	0,1	63,751628
2,709167	0,1	62,454392
2,710833	0,1	61,191346
2,712500	0,1	60,046921
2,714167	0,1	58,799286
2,715833	0,1	57,652884
2,717500	0,1	56,498876
2,719167	0,1	55,340575
2,720833	0,1	54,220925
2,722500	0,1	53,156994
2,724167	0,1	52,061600
2,725833	0,1	51,019214
2,727500	0,1	49,981684
2,729167	0,1	48,981637
2,730833	0,1	47,977566
2,732500	0,1	47,002459
2,734167	0,1	46,056325
2,735833	0,1	45,157617
2,737500	0,1	44,180310
2,739167	0,1	43,324587
2,740833	0,1	42,439890
2,742500	0,1	41,603457
2,744167	0,1	40,802615
2,745833	0,1	39,954759
2,747500	0,1	39,145335
2,749167	0,1	38,360387
2,750833	0,1	37,589772
2,752500	0,1	36,842746
2,754167	0,1	36,132983
2,755833	0,1	35,440518
2,757500	0,1	34,765235
2,759167	0,1	34,057532
2,760833	0,1	33,425283
2,762500	0,1	32,749312
2,764167	0,1	32,128056
2,765833	0,1	31,477604
2,767500	0,1	30,910339
2,769167	0,1	30,306989
2,770833	0,1	29,720360
2,772500	0,1	29,184131
2,774167	0,1	28,591227
2,775833	0,1	28,064510
2,777500	0,1	27,582734
2,779167	0,1	27,066889
2,780833	0,1	26,517054
2,782500	0,1	26,055843
2,784167	0,1	25,574451
2,785833	0,1	25,095695
2,787500	0,1	24,631999
2,789167	0,1	24,166403
2,790833	0,1	23,737953
2,792500	0,1	23,326370
2,794167	0,1	22,884234
2,795833	0,1	22,466312
2,797500	0,1	22,097260
2,799167	0,1	21,658833
2,800833	0,1	21,310124
2,802500	0,1	20,868392
2,804167	0,1	20,526890
2,805833	0,1	20,122149
2,807500	0,1	19,821190
2,809167	0,1	19,444230
2,810833	0,1	19,084002
2,812500	0,1	18,755249
2,814167	0,1	18,396513
2,815833	0,1	18,095683
2,817500	0,1	17,795828
2,819167	0,1	17,458305
2,820833	0,1	17,161614
2,822500	0,1	16,902315
2,824167	0,1	16,550767
2,825833	0,1	16,283565
2,827500	0,1	15,960822
2,829167	0,1	15,712647
2,830833	0,1	15,410376
2,832500	0,1	15,194471
2,834167	0,1	14,923681
2,835833	0,1	14,696818
2,837500	0,1	14,430732
2,839167	0,1	14,185984
2,840833	0,1	13,938865
2,842500	0,1	13,694321
2,844167	0,1	13,472965
2,845833	0,1	13,237693
2,847500	0,1	13,060770
2,849167	0,1	12,850819
2,850833	0,1	12,627822
2,852500	0,1	12,435104
2,854167	0,1	12,239929
2,855833	0,1	11,992021
2,857500	0,1	11,894179
2,859167	0,1	11,662682
2,860833	0,1	11,513482
2,862500	0,1	11,331209
2,864167	0,1	11,114661
2,865833	0,1	11,036797
2,867500	0,1	10,805191
2,869167	0,1	10,607291
2,870833	0,1	10,478743
2,872500	0,1	10,313592
2,874167	0,1	10,192961
2,875833	0,1	10,037437
2,877500	0,1	9,897696
2,879167	0,1	9,798901
2,880833	0,1	9,646155
2,882500	0,1	9,497763
2,884167	0,1	9,394032
2,885833	0,1	9,276055
2,887500	0,1	9,143239
2,889167	0,1	9,024405
2,890833	0,1	8,945073
2,892500	0,1	8,783680
2,894167	0,1	8,696152
2,895833	0,1	8,566667
2,897500	0,1	8,509779
2,899167	0,1	8,346349
2,900833	0,1	8,301371
2,902500	0,1	8,162472
2,904167	0,1	8,057428
2,905833	0,1	7,998222
2,907500	0,1	7,844164
2,909167	0,1	7,806835
2,910833	0,1	7,703676
2,912500	0,1	7,637209
2,914167	0,1	7,533856
2,915833	0,1	7,462490
2,917500	0,1	7,368758
2,919167	0,1	7,343029
2,920833	0,1	7,236079
2,922500	0,1	7,195222
2,924167	0,1	7,105652
2,925833	0,1	6,998576
2,927500	0,1	6,949668
2,929167	0,1	6,865480
2,930833	0,1	6,788701
2,932500	0,1	6,697144
2,934167	0,1	6,659222
2,935833	0,1	6,612988
2,937500	0,1	6,544024
2,939167	0,1	6,511921
2,940833	0,1	6,438024
2,942500	0,1	6,331768
2,944167	0,1	6,322862
2,945833	0,1	6,242820
2,947500	0,1	6,176716
2,949167	0,1	6,168477
2,950833	0,1	6,070515
2,952500	0,1	5,992192
2,954167	0,1	5,991799
2,955833	0,1	5,906693
2,957500	0,1	5,871556
2,959167	0,1	5,819164
2,960833	0,1	5,788056
2,962500	0,1	5,738444
2,964167	0,1	5,676892
2,965833	0,1	5,631131
2,967500	0,1	5,579600
2,969167	0,1	5,537668
2,970833	0,1	5,474907
2,972500	0,1	5,440393
2,974167	0,1	5,395760
2,975833	0,1	5,374971
2,977500	0,1	5,327643
2,979167	0,1	5,283596
2,980833	0,1	5,200578
2,982500	0,1	5,214594
2,984167	0,1	5,186329
2,985833	0,1	5,137104
2,987500	0,1	5,079522
2,989167	0,1	5,066354
2,990833	0,1	5,019292
2,992500	0,1	4,931107
2,994167	0,1	4,940529
2,995833	0,1	4,906101
2,997500	0,1	4,883060
2,999167	0,1	4,822560
3,000833	0,1	4,790613
3,002500	0,1	4,786663
3,004167	0,1	4,743022
3,005833	0,1	4,701362
3,007500	0,1	4,659761
3,009167	0,1	4,683173
3,010833	0,1	4,591046
3,012500	0,1	4,573484
3,014167	0,1	4,550127
3,015833	0,1	4,522850
3,017500	0,1	4,501398
3,019167	0,1	4,498587
3,020833	0,1	4,417991
3,022500	0,1	4,388330
3,024167	0,1	4,387857
3,025833	0,1	4,335732
3,027500	0,1	4,336704
3,029167	0,1	4,283564
3,030833	0,1	4,231355
3,032500	0,1	4,199794
3,034167	0,1	4,159772
3,035833	0,1	4,149350
3,037500	0,1	4,163098
3,039167	0,1	4,155353
3,040833	0,1	4,098951
3,042500	0,1	4,055884
3,044167	0,1	4,042327
3,045833	0,1	4,026121
3,047500	0,1	4,011589
3,049167	0,1	4,005076
3,050833	0,1	3,957268
3,052500	0,1	3,908721
3,054167	0,1	3,901755
3,055833	0,1	3,873848
3,057500	0,1	3,872783
3,059167	0,1	3,849761
3,060833	0,1	3,784680
3,062500	0,1	3,757781
3,064167	0,1	3,742768
3,065833	0,1	3,723735
3,067500	0,1	3,728166
3,069167	0,1	3,682335
3,070833	0,1	3,646465
3,072500	0,1	3,647230
3,074167	0,1	3,615244
3,075833	0,1	3,611457
3,077500	0,1	3,555068
3,079167	0,1	3,573788
3,080833	0,1	3,524127
3,082500	0,1	3,503910
3,084167	0,1	3,531993
3,085833	0,1	3,474775
3,087500	0,1	3,465692
3,089167	0,1	3,461184
3,090833	0,1	3,432987
3,092500	0,1	3,404866
3,094167	0,1	3,439033
3,095833	0,1	3,433048
3,097500	0,1	3,381699
3,099167	0,1	3,375343
3,100833	0,1	3,368636
3,102500	0,1	3,344818
3,104167	0,1	3,331832
3,105833	0,1	3,342958
3,107500	0,1	3,302660
3,109167	0,1	3,299842
3,110833	0,1	3,264616
3,112500	0,1	3,281376
3,114167	0,1	3,310545
3,115833	0,1	3,294566
3,117500	0,1	3,258557
3,119167	0,1	3,287303
3,120833	0,1	3,256527
3,122500	0,1	3,293924
3,124167	0,1	3,292219
3,125833	0,1	3,256865
3,127500	0,1	3,234267
3,129167	0,1	3,269928
3,130833	0,1	3,248854
3,132500	0,1	3,257011
3,134167	0,1	3,243002
3,135833	0,1	3,263247
3,137500	0,1	3,280800
3,139167	0,1	3,280338
3,140833	0,1	3,303609
3,142500	0,1	3,279330
3,144167	0,1	3,296167
3,145833	0,1	3,331012
3,147500	0,1	3,304628
3,149167	0,1	3,298721
3,150833	0,1	3,265080
3,152500	0,1	3,295126
3,154167	0,1	3,285126
3,155833	0,1	3,331787
3,157500	0,1	3,271722
3,159167	0,1	3,318421
3,160833	0,1	3,308631
3,162500	0,1	3,298722
3,164167	0,1	3,286714
3,165833	0,1	3,292767
3,167500	0,1	3,267577
3,169167	0,1	3,299576
3,170833	0,1	3,312941
3,172500	0,1	3,284925
3,174167	0,1	3,294638
3,175833	0,1	3,302518
3,177500	0,1	3,325212
3,179167	0,1	3,278193
3,180833	0,1	3,296508
3,182500	0,1	3,267993
3,184167	0,1	3,322477
3,185833	0,1	3,253936
3,187500	0,1	3,257378
3,189167	0,1	3,266762
3,190833	0,1	3,276330
3,192500	0,1	3,249506
3,194167	0,1	3,222904
3,195833	0,1	3,212735
3,197500	0,1	3,207846
3,199167	0,1	3,240078
3,200833	0,1	3,193582
3,202500	0,1	3,210104
3,204167	0,1	3,155525
3,205833	0,1	3,178825
3,207500	0,1	3,142702
3,209167	0,1	3,178353
3,210833	0,1	3,080331
3,212500	0,1	3,102997
3,214167	0,1	3,099596
3,215833	0,1	3,053965
3,217500	0,1	3,060218
3,219167	0,1	3,051719
3,220833	0,1	3,044107
3,222500	0,1	3,022329
3,224167	0,1	2,961578
3,225833	0,1	2,994225
3,227500	0,1	2,989609
3,229167	0,1	2,958125
3,230833	0,1	2,924293
3,232500	0,1	2,938284
3,234167	0,1	2,884808
3,235833	0,1	2,842115
3,237500	0,1	2,893876
3,239167	0,1	2,831937
3,240833	0,1	2,846494
3,242500	0,1	2,815198
3,244167	0,1	2,791513
3,245833	0,1	2,761856
3,247500	0,1	2,732730
3,249167	0,1	2,703498
3,250833	0,1	2,705799
3,252500	0,1	2,700455
3,254167	0,1	2,654390
3,255833	0,1	2,633443
3,257500	0,1	2,622859
3,259167	0,1	2,583075
3,260833	0,1	2,592711
3,262500	0,1	2,537333
3,264167	0,1	2,560979
3,265833	0,1	2,530988
3,267500	0,1	2,495957
3,269167	0,1	2,495499
3,270833	0,1	2,434244
3,272500	0,1	2,428592
3,274167	0,1	2,404454
3,275833	0,1	2,376133
3,277500	0,1	2,379869
3,279167	0,1	2,333459
3,280833	0,1	2,328982
3,282500	0,1	2,323562
3,284167	0,1	2,298778
3,285833	0,1	2,270677
3,287500	0,1	2,288235
3,289167	0,1	2,253454
3,290833	0,1	2,224557
3,292500	0,1	2,196524
3,294167	0,1	2,190173
3,295833	0,1	2,148116
3,297500	0,1	2,153659
3,299167	0,1	2,127870
3,300833	0,1	2,097973
3,302500	0,1	2,034669
3,304167	0,1	2,094414
3,305833	0,1	2,015296
3,307500	0,1	1,986838
3,309167	0,1	2,003535
3,310833	0,1	2,016643
3,312500	0,1	1,992233
3,314167	0,1	1,982362
3,315833	0,1	1,948308
3,317500	0,1	1,935128
3,319167	0,1	1,929073
3,320833	0,1	1,863063
3,322500	0,1	1,903357
3,324167	0,1	1,869967
3,325833	0,1	1,845485
3,327500	0,1	1,846487
3,329167	0,1	1,824319
3,330833	0,1	1,786746
3,332500	0,1	1,801779
3,334167	0,1	1,795593
3,335833	0,1	1,745791
3,337500	0,1	1,787952
3,339167	0,1	1,762701
3,340833	0,1	1,759098
3,342500	0,1	1,689942
3,344167	0,1	1,712877
3,345833	0,1	1,709724
3,347500	0,1	1,669933
3,349167	0,1	1,699206
3,350833	0,1	1,705906
3,352500	0,1	1,673170
3,354167	0,1	1,677766
3,355833	0,1	1,630926
3,357500	0,1	1,676247
3,359167	0,1	1,629565
3,360833	0,1	1,646673
3,362500	0,1	1,636103
3,364167	0,1	1,623581
3,365833	0,1	1,609334
3,367500	0,1	1,588471
3,369167	0,1	1,588971
3,370833	0,1	1,573511
3,372500	0,1	1,577240
3,374167	0,1	1,561563
3,375833	0,1	1,566519
3,377500	0,1	1,535659
3,379167	0,1	1,528315
3,380833	0,1	1,525794
3,382500	0,1	1,552781
3,384167	0,1	1,532144
3,385833	0,1	1,486239
3,387500	0,1	1,485151
3,389167	0,1	1,497091
3,390833	0,1	1,518883
3,392500	0,1	1,513651
3,394167	0,1	1,500264
3,395833	0,1	1,472434
3,397500	0,1	1,476094
3,399167	0,1	1,453433
3,400833	0,1	1,448757
3,402500	0,1	1,446161
3,404167	0,1	1,438189
3,405833	0,1	1,463788
3,407500	0,1	1,446326
3,409167	0,1	1,444817
3,410833	0,1	1,417754
3,412500	0,1	1,419922
3,414167	0,1	1,450122
3,415833	0,1	1,425537
3,417500	0,1	1,434942
3,419167	0,1	1,414391
3,420833	0,1	1,440841
3,422500	0,1	1,414096
3,424167	0,1	1,410854
3,425833	0,1	1,429191
3,427500	0,1	1,413953
3,429167	0,1	1,430626
3,430833	0,1	1,414678
3,432500	0,1	1,432779
3,434167	0,1	1,417260
3,435833	0,1	1,438674
3,437500	0,1	1,436395
3,439167	0,1	1,423226
3,440833	0,1	1,422380
3,442500	0,1	1,406833
3,444167	0,1	1,424012
3,445833	0,1	1,417459
3,447500	0,1	1,405965
3,449167	0,1	1,426234
3,450833	0,1	1,436588
3,452500	0,1	1,434002
3,454167	0,1	1,460411
3,455833	0,1	1,499314
3,457500	0,1	1,473222
3,459167	0,1	1,455960
3,460833	0,1	1,456167
3,462500	0,1	1,459769
3,464167	0,1	1,516014
3,465833	0,1	1,500186
3,467500	0,1	1,537157
3,469167	0,1	1,510631
3,470833	0,1	1,553860
3,472500	0,1	1,554001
3,474167	0,1	1,556736
3,475833	0,1	1,588609
3,477500	0,1	1,573137
3,479167	0,1	1,567105
3,480833	0,1	1,619677
3,482500	0,1	1,615089
3,484167	0,1	1,643861
3,485833	0,1	1,661137
3,487500	0,1	1,698412
3,489167	0,1	1,695688
3,490833	0,1	1,689140
3,492500	0,1	1,722888
3,494167	0,1	1,745559
3,495833	0,1	1,714550
3,497500	0,1	1,749151
3,499167	0,1	1,812494
3,500833	0,1	1,770696
3,502500	0,1	1,787597
3,504167	0,1	1,793503
3,505833	0,1	1,819556
3,507500	0,1	1,819276
3,509167	0,1	1,836406
3,510833	0,1	1,875711
3,512500	0,1	1,879748
3,514167	0,1	1,891555
3,515833	0,1	1,862911
3,517500	0,1	1,933377
3,519167	0,1	1,958447
3,520833	0,1	1,958240
3,522500	0,1	1,945852
3,524167	0,1	1,998478
3,525833	0,1	1,995468
3,527500	0,1	2,030680
3,529167	0,1	2,033640
3,530833	0,1	2,002680
3,532500	0,1	2,022187
3,534167	0,1	2,016138
3,535833	0,1	1,998278
3,537500	0,1	2,025783
3,539167	0,1	2,040330
3,540833	0,1	2,073815
3,542500	0,1	2,015291
3,544167	0,1	2,056886
3,545833	0,1	2,057622
3,547500	0,1	2,016578
3,549167	0,1	2,088220
3,550833	0,1	2,096155
3,552500	0,1	2,070092
3,554167	0,1	2,079948
3,555833	0,1	2,072757
3,557500	0,1	2,057693
3,559167	0,1	2,081393
3,560833	0,1	2,065555
3,562500	0,1	2,061440
3,564167	0,1	2,095068
3,565833	0,1	2,132805
3,567500	0,1	2,072839
3,569167	0,1	2,035230
3,570833	0,1	2,055028
3,572500	0,1	2,043802
3,574167	0,1	2,065327
3,575833	0,1	2,094139
3,577500	0,1	2,046982
3,579167	0,1	2,035448
3,580833	0,1	1,997785
3,582500	0,1	2,010448
3,584167	0,1	1,998568
3,585833	0,1	1,993956
3,587500	0,1	2,008500
3,589167	0,1	2,002453
3,590833	0,1	2,016565
3,592500	0,1	1,954438
3,594167	0,1	1,986242
3,595833	0,1	1,937511
3,597500	0,1	1,963196
3,599167	0,1	1,960972
3,600833	0,1	1,928503
3,602500	0,1	1,948725
3,604167	0,1	1,885307
3,605833	0,1	1,905381
3,607500	0,1	1,885299
3,609167	0,1	1,951375
3,610833	0,1	1,927849
3,612500	0,1	1,882497
3,614167	0,1	1,818067
3,615833	0,1	1,869873
3,617500	0,1	1,874998
3,619167	0,1	1,876437
3,620833	0,1	1,804822
3,622500	0,1	1,829636
3,624167	0,1	1,778040
3,625833	0,1	1,790405
3,627500	0,1	1,788250
3,629167	0,1	1,734133
3,630833	0,1	1,771038
3,632500	0,1	1,764135
3,634167	0,1	1,754779
3,635833	0,1	1,729452
3,637500	0,1	1,761322
3,639167	0,1	1,725922
3,640833	0,1	1,651733
3,642500	0,1	1,680498
3,644167	0,1	1,656326
3,645833	0,1	1,651143
3,647500	0,1	1,634738
3,649167	0,1	1,634158
3,650833	0,1	1,594596
3,652500	0,1	1,621926
3,654167	0,1	1,618982
3,655833	0,1	1,585529
3,657500	0,1	1,516816
3,659167	0,1	1,530758
3,660833	0,1	1,537458
3,662500	0,1	1,551843
3,664167	0,1	1,523651
3,665833	0,1	1,502996
3,667500	0,1	1,502780
3,669167	0,1	1,484599
3,670833	0,1	1,468111
3,672500	0,1	1,450195
3,674167	0,1	1,498742
3,675833	0,1	1,445751
3,677500	0,1	1,400227
3,679167	0,1	1,385970
3,680833	0,1	1,422643
3,682500	0,1	1,389018
3,684167	0,1	1,379716
3,685833	0,1	1,367479
3,687500	0,1	1,338954
3,689167	0,1	1,356836
3,690833	0,1	1,376131
3,692500	0,1	1,343128
3,694167	0,1	1,319111
3,695833	0,1	1,339074
3,697500	0,1	1,351520
3,699167	0,1	1,380214
3,700833	0,1	1,324366
3,702500	0,1	1,291357
3,704167	0,1	1,302774
3,705833	0,1	1,230381
3,707500	0,1	1,304860
3,709167	0,1	1,258255
3,710833	0,1	1,216278
3,712500	0,1	1,269036
3,714167	0,1	1,229667
3,715833	0,1	1,248694
3,717500	0,1	1,224556
3,719167	0,1	1,212181
3,720833	0,1	1,191836
3,722500	0,1	1,207586
3,724167	0,1	1,227216
3,725833	0,1	1,208601
3,727500	0,1	1,190624
3,729167	0,1	1,199686
3,730833	0,1	1,185157
3,732500	0,1	1,136069
3,734167	0,1	1,170542
3,735833	0,1	1,141158
3,737500	0,1	1,114332
3,739167	0,1	1,177320
3,740833	0,1	1,141103
3,742500	0,1	1,149157
3,744167	0,1	1,156825
3,745833	0,1	1,190623
3,747500	0,1	1,112073
3,749167	0,1	1,109467
3,750833	0,1	1,171429
3,752500	0,1	1,145134
3,754167	0,1	1,112861
3,755833	0,1	1,050982
3,757500	0,1	1,105297
3,759167	0,1	1,115217
3,760833	0,1	1,102932
3,762500	0,1	1,084823
3,764167	0,1	1,055501
3,765833	0,1	1,054253
3,767500	0,1	1,082172
3,769167	0,1	1,082878
3,770833	0,1	1,062323
3,772500	0,1	1,070054
3,774167	0,1	1,102990
3,775833	0,1	1,077697
3,777500	0,1	1,044918
3,779167	0,1	1,036466
3,780833	0,1	1,105941
3,782500	0,1	1,086985
3,784167	0,1	1,094078
3,785833	0,1	1,054870
3,787500	0,1	1,048091
3,789167	0,1	1,042697
3,790833	0,1	1,033301
3,792500	0,1	1,032735
3,794167	0,1	1,085384
3,795833	0,1	1,012044
3,797500	0,1	1,041327
3,799167	0,1	1,018635
3,800833	0,1	1,003674
3,802500	0,1	1,020991
3,804167	0,1	0,990147
3,805833	0,1	0,987216
3,807500	0,1	1,005911
3,809167	0,1	1,001717
3,810833	0,1	1,035505
3,812500	0,1	0,998386
3,814167	0,1	0,980972
3,815833	0,1	0,986941
3,817500	0,1	1,007204
3,819167	0,1	0,965969
3,820833	0,1	0,991920
3,822500	0,1	0,973996
3,824167	0,1	0,972547
3,825833	0,1	0,982482
3,827500	0,1	0,995429
3,829167	0,1	0,994171
3,830833	0,1	0,993409
3,832500	0,1	0,961746
3,834167	0,1	0,962165
3,835833	0,1	0,932954
3,837500	0,1	0,979833
3,839167	0,1	0,914809
3,840833	0,1	0,971715
3,842500	0,1	0,955635
3,844167	0,1	0,934367
3,845833	0,1	0,946762
3,847500	0,1	0,906415
3,849167	0,1	0,949053
3,850833	0,1	0,894117
3,852500	0,1	0,917630
3,854167	0,1	0,926446
3,855833	0,1	0,937641
3,857500	0,1	0,906073
3,859167	0,1	0,899498
3,860833	0,1	0,877066
3,862500	0,1	0,890478
3,864167	0,1	0,907406
3,865833	0,1	0,884005
3,867500	0,1	0,908358
3,869167	0,1	0,888733
3,870833	0,1	0,894139
3,872500	0,1	0,856586
3,874167	0,1	0,885438
3,875833	0,1	0,888186
3,877500	0,1	0,853738
3,879167	0,1	0,870592
3,880833	0,1	0,866901
3,882500	0,1	0,850387
3,884167	0,1	0,840398
3,885833	0,1	0,846232
3,887500	0,1	0,822929
3,889167	0,1	0,823212
3,890833	0,1	0,839031
3,892500	0,1	0,780496
3,894167	0,1	0,819412
3,895833	0,1	0,819884
3,897500	0,1	0,812111
3,899167	0,1	0,819775
3,900833	0,1	0,828064
3,902500	0,1	0,798744
3,904167	0,1	0,776052
3,905833	0,1	0,772014
3,907500	0,1	0,771321
3,909167	0,1	0,813814
3,910833	0,1	0,762796
3,912500	0,1	0,794695
3,914167	0,1	0,747486
3,915833	0,1	0,815236
3,917500	0,1	0,773808
3,919167	0,1	0,755347
3,920833	0,1	0,773902
3,922500	0,1	0,796299
3,924167	0,1	0,771932
3,925833	0,1	0,775534
3,927500	0,1	0,700004
3,929167	0,1	0,759247
3,930833	0,1	0,753670
3,932500	0,1	0,715706
3,934167	0,1	0,726189
3,935833	0,1	0,757450
3,937500	0,1	0,740615
3,939167	0,1	0,748186
3,940833	0,1	0,734974
3,942500	0,1	0,702244
3,944167	0,1	0,699026
3,945833	0,1	0,720594
3,947500	0,1	0,721312
3,949167	0,1	0,725701
3,950833	0,1	0,694376
3,952500	0,1	0,685326
3,954167	0,1	0,675120
3,955833	0,1	0,672088
3,957500	0,1	0,735846
3,959167	0,1	0,728533
3,960833	0,1	0,710106
3,962500	0,1	0,723512
3,964167	0,1	0,696916
3,965833	0,1	0,698580
3,967500	0,1	0,728725
3,969167	0,1	0,681656
3,970833	0,1	0,698110
3,972500	0,1	0,673497
3,974167	0,1	0,686165
3,975833	0,1	0,705952
3,977500	0,1	0,705400
3,979167	0,1	0,687220
3,980833	0,1	0,704884
3,982500	0,1	0,658885
3,984167	0,1	0,683691
3,985833	0,1	0,688999
3,987500	0,1	0,729747
3,989167	0,1	0,730805
3,990833	0,1	0,704760
3,992500	0,1	0,720327
3,994167	0,1	0,699877
3,995833	0,1	0,680002
3,997500	0,1	0,670350
3,999167	0,1	0,679192
4,000833	0,1	0,695814
4,002500	0,1	0,700384
4,004167	0,1	0,678754
4,005833	0,1	0,718584
4,007500	0,1	0,675239
4,009167	0,1	0,668589
4,010833	0,1	0,692403
4,012500	0,1	0,695060
4,014167	0,1	0,686171
4,015833	0,1	0,702232
4,017500	0,1	0,702882
4,019167	0,1	0,725562
4,020833	0,1	0,698811
4,022500	0,1	0,737259
4,024167	0,1	0,713985
4,025833	0,1	0,691011
4,027500	0,1	0,703080
4,029167	0,1	0,666814
4,030833	0,1	0,755094
4,032500	0,1	0,750147
4,034167	0,1	0,711002
4,035833	0,1	0,716362
4,037500	0,1	0,773400
4,039167	0,1	0,736071
4,040833	0,1	0,702087
4,042500	0,1	0,737637
4,044167	0,1	0,757810
4,045833	0,1	0,758125
4,047500	0,1	0,766772
4,049167	0,1	0,751759
4,050833	0,1	0,751506
4,052500	0,1	0,764832
4,054167	0,1	0,786720
4,055833	0,1	0,745168
4,057500	0,1	0,782318
4,059167	0,1	0,802629
4,060833	0,1	0,839452
4,062500	0,1	0,800955
4,064167	0,1	0,821086
4,065833	0,1	0,783368
4,067500	0,1	0,840073
4,069167	0,1	0,886679
4,070833	0,1	0,875855
4,072500	0,1	0,870221
4,074167	0,1	0,861798
4,075833	0,1	0,867650
4,077500	0,1	0,872805
4,079167	0,1	0,885479
4,080833	0,1	0,907014
4,082500	0,1	0,898820
4,084167	0,1	0,953168
4,085833	0,1	0,899238
4,087500	0,1	1,018715
4,089167	0,1	0,955220
4,090833	0,1	0,931423
4,092500	0,1	0,962956
4,094167	0,1	0,990730
4,095833	0,1	0,982723
4,097500	0,1	1,029613
4,099167	0,1	1,042227
4,100833	0,1	1,055436
4,102500	0,1	1,089891
4,104167	0,1	1,078285
4,105833	0,1	1,041480
4,107500	0,1	1,085264
4,109167	0,1	1,113494
4,110833	0,1	1,104803
4,112500	0,1	1,153595
4,114167	0,1	1,118821
4,115833	0,1	1,157341
4,117500	0,1	1,188682
4,119167	0,1	1,193795
4,120833	0,1	1,181634
4,122500	0,1	1,260409
4,124167	0,1	1,228949
4,125833	0,1	1,264671
4,127500	0,1	1,277687
4,129167	0,1	1,273310
4,130833	0,1	1,332392
4,132500	0,1	1,359302
4,134167	0,1	1,358094
4,135833	0,1	1,367719
4,137500	0,1	1,363832
4,139167	0,1	1,365272
4,140833	0,1	1,397697
4,142500	0,1	1,384178
4,144167	0,1	1,399853
4,145833	0,1	1,437110
4,147500	0,1	1,432372
4,149167	0,1	1,462864
4,150833	0,1	1,500700
4,152500	0,1	1,488706
4,154167	0,1	1,514004
4,155833	0,1	1,518687
4,157500	0,1	1,535235
4,159167	0,1	1,548252
4,160833	0,1	1,546536
4,162500	0,1	1,570986
4,164167	0,1	1,550702
4,165833	0,1	1,581628
4,167500	0,1	1,585668
4,169167	0,1	1,597396
4,170833	0,1	1,570701
4,172500	0,1	1,640976
4,174167	0,1	1,615023
4,175833	0,1	1,618551
4,177500	0,1	1,612149
4,179167	0,1	1,658475
4,180833	0,1	1,670353
4,182500	0,1	1,627916
4,184167	0,1	1,688264
4,185833	0,1	1,694324
4,187500	0,1	1,670296
4,189167	0,1	1,648919
4,190833	0,1	1,660281
4,192500	0,1	1,668484
4,194167	0,1	1,693020
4,195833	0,1	1,713895
4,197500	0,1	1,723109
4,199167	0,1	1,742110
4,200833	0,1	1,716854
4,202500	0,1	1,746782
4,204167	0,1	1,721032
4,205833	0,1	1,730810
4,207500	0,1	1,736065
4,209167	0,1	1,730667
4,210833	0,1	1,742756
4,212500	0,1	1,726064
4,214167	0,1	1,728149
4,215833	0,1	1,762182
4,217500	0,1	1,774140
4,219167	0,1	1,744351
4,220833	0,1	1,754419
4,222500	0,1	1,730167
4,224167	0,1	1,783345
4,225833	0,1	1,748884
4,227500	0,1	1,706280
4,229167	0,1	1,748653
4,230833	0,1	1,748159
4,232500	0,1	1,737436
4,234167	0,1	1,740886
4,235833	0,1	1,709297
4,237500	0,1	1,749302
4,239167	0,1	1,719808
4,240833	0,1	1,748800
4,242500	0,1	1,724341
4,244167	0,1	1,732897
4,245833	0,1	1,747003
4,247500	0,1	1,715703
4,249167	0,1	1,670444
4,250833	0,1	1,703600
4,252500	0,1	1,689720
4,254167	0,1	1,687049
4,255833	0,1	1,691662
4,257500	0,1	1,683317
4,259167	0,1	1,683309
4,260833	0,1	1,679206
4,262500	0,1	1,664674
4,264167	0,1	1,637334
4,265833	0,1	1,659055
4,267500	0,1	1,684024
4,269167	0,1	1,697277
4,270833	0,1	1,632309
4,272500	0,1	1,631710
4,274167	0,1	1,631933
4,275833	0,1	1,621361
4,277500	0,1	1,644735
4,279167	0,1	1,615537
4,280833	0,1	1,599274
4,282500	0,1	1,577685
4,284167	0,1	1,574150
4,285833	0,1	1,591918
4,287500	0,1	1,564155
4,289167	0,1	1,576817
4,290833	0,1	1,545372
4,292500	0,1	1,578831
4,294167	0,1	1,528635
4,295833	0,1	1,557677
4,297500	0,1	1,547908
4,299167	0,1	1,543434
4,300833	0,1	1,528399
4,302500	0,1	1,501919
4,304167	0,1	1,517390
4,305833	0,1	1,493374
4,307500	0,1	1,493376
4,309167	0,1	1,492356
4,310833	0,1	1,468543
4,312500	0,1	1,474742
4,314167	0,1	1,461870
4,315833	0,1	1,451067
4,317500	0,1	1,440226
4,319167	0,1	1,422516
4,320833	0,1	1,445965
4,322500	0,1	1,399080
4,324167	0,1	1,406337
4,325833	0,1	1,373187
4,327500	0,1	1,429627
4,329167	0,1	1,395624
4,330833	0,1	1,381404
4,332500	0,1	1,349251
4,334167	0,1	1,374905
4,335833	0,1	1,348382
4,337500	0,1	1,362673
4,339167	0,1	1,338534
4,340833	0,1	1,335444
4,342500	0,1	1,288781
4,344167	0,1	1,358556
4,345833	0,1	1,314517
4,347500	0,1	1,304741
4,349167	0,1	1,264282
4,350833	0,1	1,272442
4,352500	0,1	1,297028
4,354167	0,1	1,252257
4,355833	0,1	1,262168
4,357500	0,1	1,225368
4,359167	0,1	1,254560
4,360833	0,1	1,241897
4,362500	0,1	1,221552
4,364167	0,1	1,203657
4,365833	0,1	1,211886
4,367500	0,1	1,187692
4,369167	0,1	1,161539
4,370833	0,1	1,218727
4,372500	0,1	1,149616
4,374167	0,1	1,160004
4,375833	0,1	1,106176
4,377500	0,1	1,169557
4,379167	0,1	1,148888
4,380833	0,1	1,108542
4,382500	0,1	1,180439
4,384167	0,1	1,140346
4,385833	0,1	1,116106
4,387500	0,1	1,150100
4,389167	0,1	1,146656
4,390833	0,1	1,088357
4,392500	0,1	1,112585
4,394167	0,1	1,065563
4,395833	0,1	1,089659
4,397500	0,1	1,087519
4,399167	0,1	1,047247
4,400833	0,1	1,089380
4,402500	0,1	1,040493
4,404167	0,1	1,016983
4,405833	0,1	1,023019
4,407500	0,1	1,008286
4,409167	0,1	1,045677
4,410833	0,1	1,014057
4,412500	0,1	0,994025
4,414167	0,1	0,997403
4,415833	0,1	0,951676
4,417500	0,1	1,006649
4,419167	0,1	0,996455
4,420833	0,1	0,982078
4,422500	0,1	0,984812
4,424167	0,1	0,961456
4,425833	0,1	0,979668
4,427500	0,1	0,925595
4,429167	0,1	0,966935
4,430833	0,1	0,899174
4,432500	0,1	0,949577
4,434167	0,1	0,893643
4,435833	0,1	0,900572
4,437500	0,1	0,914247
4,439167	0,1	0,887834
4,440833	0,1	0,876651
4,442500	0,1	0,921794
4,444167	0,1	0,870520
4,445833	0,1	0,884118
4,447500	0,1	0,832380
4,449167	0,1	0,855702
4,450833	0,1	0,827938
4,452500	0,1	0,843797
4,454167	0,1	0,843648
4,455833	0,1	0,817702
4,457500	0,1	0,801238
4,459167	0,1	0,807313
4,460833	0,1	0,862825
4,462500	0,1	0,806458
4,464167	0,1	0,799067
4,465833	0,1	0,806868
4,467500	0,1	0,767229
4,469167	0,1	0,823344
4,470833	0,1	0,780555
4,472500	0,1	0,806169
4,474167	0,1	0,697270
4,475833	0,1	0,770388
4,477500	0,1	0,748235
4,479167	0,1	0,708350
4,480833	0,1	0,735432
4,482500	0,1	0,722852
4,484167	0,1	0,742744
4,485833	0,1	0,684556
4,487500	0,1	0,709225
4,489167	0,1	0,690050
4,490833	0,1	0,659370
4,492500	0,1	0,684849
4,494167	0,1	0,648211
4,495833	0,1	0,708751
4,497500	0,1	0,645341
4,499167	0,1	0,698346
4,500833	0,1	0,647744
4,502500	0,1	0,653212
4,504167	0,1	0,671413
4,505833	0,1	0,632125
4,507500	0,1	0,662765
4,509167	0,1	0,651991
4,510833	0,1	0,681059
4,512500	0,1	0,643285
4,514167	0,1	0,627417
4,515833	0,1	0,626814
4,517500	0,1	0,607455
4,519167	0,1	0,631799
4,520833	0,1	0,592889
4,522500	0,1	0,587652
4,524167	0,1	0,626959
4,525833	0,1	0,608281
4,527500	0,1	0,560323
4,529167	0,1	0,570380
4,530833	0,1	0,563990
4,532500	0,1	0,526994
4,534167	0,1	0,579680
4,535833	0,1	0,550141
4,537500	0,1	0,543120
4,539167	0,1	0,552782
4,540833	0,1	0,566462
4,542500	0,1	0,533122
4,544167	0,1	0,517416
4,545833	0,1	0,499108
4,547500	0,1	0,533894
4,549167	0,1	0,527394
4,550833	0,1	0,505700
4,552500	0,1	0,534846
4,554167	0,1	0,517549
4,555833	0,1	0,510996
4,557500	0,1	0,488997
4,559167	0,1	0,478767
4,560833	0,1	0,470607
4,562500	0,1	0,463290
4,564167	0,1	0,465003
4,565833	0,1	0,484018
4,567500	0,1	0,468973
4,569167	0,1	0,459061
4,570833	0,1	0,458993
4,572500	0,1	0,435774
4,574167	0,1	0,438720
4,575833	0,1	0,434978
4,577500	0,1	0,451014
4,579167	0,1	0,445049
4,580833	0,1	0,423832
4,582500	0,1	0,447651
4,584167	0,1	0,460307
4,585833	0,1	0,393809
4,587500	0,1	0,408561
4,589167	0,1	0,424929
4,590833	0,1	0,388197
4,592500	0,1	0,401353
4,594167	0,1	0,412714
4,595833	0,1	0,362784
4,597500	0,1	0,382719
4,599167	0,1	0,363327
4,600833	0,1	0,392141
4,602500	0,1	0,389313
4,604167	0,1	0,394543
4,605833	0,1	0,389697
4,607500	0,1	0,351962
4,609167	0,1	0,362704
4,610833	0,1	0,384711
4,612500	0,1	0,362616
4,614167	0,1	0,338952
4,615833	0,1	0,344399
4,617500	0,1	0,353149
4,619167	0,1	0,327200
4,620833	0,1	0,316190
4,622500	0,1	0,334872
4,624167	0,1	0,302087
4,625833	0,1	0,325475
4,627500	0,1	0,359142
4,629167	0,1	0,339175
4,630833	0,1	0,314678
4,632500	0,1	0,325608
4,634167	0,1	0,272400
4,635833	0,1	0,323242
4,637500	0,1	0,305926
4,639167	0,1	0,309665
4,640833	0,1	0,298112
4,642500	0,1	0,320790
4,644167	0,1	0,258259
4,645833	0,1	0,327792
4,647500	0,1	0,294210
4,649167	0,1	0,328896
4,650833	0,1	0,270298
4,652500	0,1	0,262635
4,654167	0,1	0,279414
4,655833	0,1	0,272863
4,657500	0,1	0,299460
4,659167	0,1	0,252410
4,660833	0,1	0,280281
4,662500	0,1	0,273318
4,664167	0,1	0,262474
4,665833	0,1	0,265114
4,667500	0,1	0,244661
4,669167	0,1	0,258826
4,670833	0,1	0,273479
4,672500	0,1	0,262891
4,674167	0,1	0,252145
4,675833	0,1	0,265147
4,677500	0,1	0,253372
4,679167	0,1	0,228329
4,680833	0,1	0,250943
4,682500	0,1	0,252337
4,684167	0,1	0,245884
4,685833	0,1	0,252592
4,687500	0,1	0,222005
4,689167	0,1	0,241936
4,690833	0,1	0,240459
4,692500	0,1	0,235360
4,694167	0,1	0,172797
4,695833	0,1	0,217147
4,697500	0,1	0,241419
4,699167	0,1	0,224840
4,700833	0,1	0,185376
4,702500	0,1	0,214275
4,704167	0,1	0,199150
4,705833	0,1	0,248290
4,707500	0,1	0,214873
4,709167	0,1	0,223543
4,710833	0,1	0,184441
4,712500	0,1	0,276814
4,714167	0,1	0,233465
4,715833	0,1	0,225033
4,717500	0,1	0,182375
4,719167	0,1	0,201499
4,720833	0,1	0,200021
4,722500	0,1	0,216376
4,724167	0,1	0,165887
4,725833	0,1	0,162680
4,727500	0,1	0,180329
4,729167	0,1	0,201048
4,730833	0,1	0,229928
4,732500	0,1	0,195153
4,734167	0,1	0,152074
4,735833	0,1	0,170969
4,737500	0,1	0,162973
4,739167	0,1	0,155323
4,740833	0,1	0,197716
4,742500	0,1	0,167560
4,744167	0,1	0,212691
4,745833	0,1	0,197505
4,747500	0,1	0,170430
4,749167	0,1	0,147969
4,750833	0,1	0,175968
4,752500	0,1	0,184041
4,754167	0,1	0,115809
4,755833	0,1	0,147827
4,757500	0,1	0,145416
4,759167	0,1	0,163191
4,760833	0,1	0,138934
4,762500	0,1	0,136412
4,764167	0,1	0,205941
4,765833	0,1	0,126491
4,767500	0,1	0,177867
4,769167	0,1	0,149876
4,770833	0,1	0,167709
4,772500	0,1	0,164585
4,774167	0,1	0,149615
4,775833	0,1	0,145933
4,777500	0,1	0,136995
4,779167	0,1	0,120508
4,780833	0,1	0,155217
4,782500	0,1	0,130063
4,784167	0,1	0,179482
4,785833	0,1	0,130519
4,787500	0,1	0,146024
4,789167	0,1	0,141544
4,790833	0,1	0,127961
4,792500	0,1	0,139669
4,794167	0,1	0,116444
4,795833	0,1	0,150021
4,797500	0,1	0,109058
4,799167	0,1	0,115759
4,800833	0,1	0,134375
4,802500	0,1	0,121829
4,804167	0,1	0,121925
4,805833	0,1	0,135377
4,807500	0,1	0,122573
4,809167	0,1	0,126859
4,810833	0,1	0,104054
4,812500	0,1	0,129307
4,814167	0,1	0,121281
4,815833	0,1	0,124634
4,817500	0,1	0,118571
4,819167	0,1	0,099212
4,820833	0,1	0,110659
4,822500	0,1	0,096530
4,824167	0,1	0,129725
4,825833	0,1	0,138733
4,827500	0,1	0,105604
4,829167	0,1	0,120274
4,830833	0,1	0,093890
4,832500	0,1	0,092176
4,834167	0,1	0,130757
4,835833	0,1	0,142734
4,837500	0,1	0,105736
4,839167	0,1	0,132889
4,840833	0,1	0,089246
4,842500	0,1	0,132206
4,844167	0,1	0,081991
4,845833	0,1	0,089429
4,847500	0,1	0,078046
4,849167	0,1	0,108654
4,850833	0,1	0,090533
4,852500	0,1	0,137562
4,854167	0,1	0,074668
4,855833	0,1	0,089074
4,857500	0,1	0,031110
4,859167	0,1	0,088127
4,860833	0,1	0,090201
4,862500	0,1	0,065108
4,864167	0,1	0,089781
4,865833	0,1	0,103367
4,867500	0,1	0,098338
4,869167	0,1	0,102561
4,870833	0,1	0,066176
4,872500	0,1	0,094750
4,874167	0,1	0,024916
4,875833	0,1	0,100643
4,877500	0,1	0,072563
4,879167	0,1	0,123492
4,880833	0,1	0,096279
4,882500	0,1	0,073625
4,884167	0,1	0,078170
4,885833	0,1	0,093428
4,887500	0,1	0,082916
4,889167	0,1	0,047724
4,890833	0,1	0,059873
4,892500	0,1	0,084747
4,894167	0,1	0,046527
4,895833	0,1	0,116295
4,897500	0,1	0,083567
4,899167	0,1	0,095659
4,900833	0,1	0,119016
4,902500	0,1	0,105149
4,904167	0,1	0,081535
4,905833	0,1	0,056528
4,907500	0,1	0,088521
4,909167	0,1	0,110434
4,910833	0,1	0,057633
4,912500	0,1	0,094006
4,914167	0,1	0,058402
4,915833	0,1	0,105973
4,917500	0,1	0,082694
4,919167	0,1	0,050950
4,920833	0,1	0,076682
4,922500	0,1	0,085139
4,924167	0,1	0,071815
4,925833	0,1	0,090139
4,927500	0,1	0,061209
4,929167	0,1	0,126910
4,930833	0,1	0,109603
4,932500	0,1	0,094337
4,934167	0,1	0,097661
4,935833	0,1	0,111176
4,937500	0,1	0,091920
4,939167	0,1	0,086334
4,940833	0,1	0,073012
4,942500	0,1	0,119656
4,944167	0,1	0,091277
4,945833	0,1	0,125563
4,947500	0,1	0,104859
4,949167	0,1	0,088308
4,950833	0,1	0,105624
4,952500	0,1	0,100855
4,954167	0,1	0,110402
4,955833	0,1	0,099437
4,957500	0,1	0,139048
4,959167	0,1	0,137704
4,960833	0,1	0,135736
4,962500	0,1	0,120539
4,964167	0,1	0,121990
4,965833	0,1	0,131087
4,967500	0,1	0,111700
4,969167	0,1	0,130697
4,970833	0,1	0,120829
4,972500	0,1	0,154701
4,974167	0,1	0,099317
4,975833	0,1	0,117047
4,977500	0,1	0,144021
4,979167	0,1	0,151545
4,980833	0,1	0,117190
4,982500	0,1	0,142730
4,984167	0,1	0,146835
4,985833	0,1	0,169161
4,987500	0,1	0,159101
4,989167	0,1	0,183456
4,990833	0,1	0,124327
4,992500	0,1	0,194903
4,994167	0,1	0,199016
4,995833	0,1	0,156042
4,997500	0,1	0,202490
4,999167	0,1	0,224153
5,000833	0,1	0,155049
5,002500	0,1	0,170067
5,004167	0,1	0,222468
5,005833	0,1	0,254328
5,007500	0,1	0,212582
5,009167	0,1	0,221671
5,010833	0,1	0,222770
5,012500	0,1	0,183634
5,014167	0,1	0,216566
5,015833	0,1	0,236677
5,017500	0,1	0,247171
5,019167	0,1	0,248850
5,020833	0,1	0,241171
5,022500	0,1	0,263498
5,024167	0,1	0,245302
5,025833	0,1	0,257206
5,027500	0,1	0,318394
5,029167	0,1	0,290434
5,030833	0,1	0,315566
5,032500	0,1	0,251220
5,034167	0,1	0,301031
5,035833	0,1	0,317533
5,037500	0,1	0,323899
5,039167	0,1	0,307568
5,040833	0,1	0,312858
5,042500	0,1	0,336067
5,044167	0,1	0,334231
5,045833	0,1	0,323807
5,047500	0,1	0,310600
5,049167	0,1	0,318123
5,050833	0,1	0,335779
5,052500	0,1	0,401330
5,054167	0,1	0,374074
5,055833	0,1	0,375760
5,057500	0,1	0,340862
5,059167	0,1	0,375098
5,060833	0,1	0,398626
5,062500	0,1	0,379087
5,064167	0,1	0,380429
5,065833	0,1	0,386436
5,067500	0,1	0,440539
5,069167	0,1	0,428985
5,070833	0,1	0,433804
5,072500	0,1	0,400773
5,074167	0,1	0,406258
5,075833	0,1	0,438450
5,077500	0,1	0,421631
5,079167	0,1	0,468181
5,080833	0,1	0,450442
5,082500	0,1	0,459925
5,084167	0,1	0,434943
5,085833	0,1	0,462636
5,087500	0,1	0,462407
5,089167	0,1	0,504417
5,090833	0,1	0,488443
5,092500	0,1	0,492022
5,094167	0,1	0,437151
5,095833	0,1	0,505745
5,097500	0,1	0,526278
5,099167	0,1	0,497843
5,100833	0,1	0,510289
5,102500	0,1	0,523646
5,104167	0,1	0,527101
5,105833	0,1	0,499375
5,107500	0,1	0,523652
5,109167	0,1	0,533807
5,110833	0,1	0,531451
5,112500	0,1	0,533875
5,114167	0,1	0,530332
5,115833	0,1	0,531623
5,117500	0,1	0,533968
5,119167	0,1	0,524337
5,120833	0,1	0,560510
5,122500	0,1	0,519270
5,124167	0,1	0,527639
5,125833	0,1	0,572177
5,127500	0,1	0,541677
5,129167	0,1	0,507127
5,130833	0,1	0,568721
5,132500	0,1	0,526979
5,134167	0,1	0,582046
5,135833	0,1	0,558520
5,137500	0,1	0,530364
5,139167	0,1	0,543363
5,140833	0,1	0,571759
5,142500	0,1	0,567046
5,144167	0,1	0,501439
5,145833	0,1	0,544889
5,147500	0,1	0,502118
5,149167	0,1	0,538365
5,150833	0,1	0,526434
5,152500	0,1	0,513540
5,154167	0,1	0,562618
5,155833	0,1	0,567465
5,157500	0,1	0,587266
5,159167	0,1	0,538161
5,160833	0,1	0,534367
5,162500	0,1	0,509865
5,164167	0,1	0,530972
5,165833	0,1	0,519181
5,167500	0,1	0,544182
5,169167	0,1	0,525591
5,170833	0,1	0,498068
5,172500	0,1	0,470598
5,174167	0,1	0,473201
5,175833	0,1	0,554461
5,177500	0,1	0,489191
5,179167	0,1	0,505532
5,180833	0,1	0,537545
5,182500	0,1	0,443224
5,184167	0,1	0,468700
5,185833	0,1	0,500322
5,187500	0,1	0,468425
5,189167	0,1	0,457610
5,190833	0,1	0,463669
5,192500	0,1	0,448438
5,194167	0,1	0,452468
5,195833	0,1	0,436010
5,197500	0,1	0,445663
5,199167	0,1	0,510093
5,200833	0,1	0,463262
5,202500	0,1	0,465306
5,204167	0,1	0,474187
5,205833	0,1	0,462646
5,207500	0,1	0,453208
5,209167	0,1	0,436907
5,210833	0,1	0,437192
5,212500	0,1	0,438286
5,214167	0,1	0,469108
5,215833	0,1	0,436936
5,217500	0,1	0,417177
5,219167	0,1	0,417463
5,220833	0,1	0,425145
5,222500	0,1	0,386830
5,224167	0,1	0,383501
5,225833	0,1	0,384212
5,227500	0,1	0,363777
5,229167	0,1	0,363932
5,230833	0,1	0,340440
5,232500	0,1	0,377510
5,234167	0,1	0,354963
5,235833	0,1	0,346659
5,237500	0,1	0,336467
5,239167	0,1	0,356759
5,240833	0,1	0,374774
5,242500	0,1	0,305970
5,244167	0,1	0,333157
5,245833	0,1	0,305184
5,247500	0,1	0,335158
5,249167	0,1	0,328617
5,250833	0,1	0,326353
5,252500	0,1	0,315929
5,254167	0,1	0,329605
5,255833	0,1	0,318440
5,257500	0,1	0,292430
5,259167	0,1	0,269030
5,260833	0,1	0,275283
5,262500	0,1	0,298678
5,264167	0,1	0,291910
5,265833	0,1	0,290589
5,267500	0,1	0,283062
5,269167	0,1	0,265410
5,270833	0,1	0,252597
5,272500	0,1	0,265822
5,274167	0,1	0,229039
5,275833	0,1	0,259553
5,277500	0,1	0,259856
5,279167	0,1	0,244851
5,280833	0,1	0,217002
5,282500	0,1	0,221348
5,284167	0,1	0,259880
5,285833	0,1	0,247237
5,287500	0,1	0,198448
5,289167	0,1	0,260937
5,290833	0,1	0,208453
5,292500	0,1	0,213281
5,294167	0,1	0,203570
5,295833	0,1	0,162980
5,297500	0,1	0,210365
5,299167	0,1	0,219897
5,300833	0,1	0,167437
5,302500	0,1	0,181329
5,304167	0,1	0,186558
5,305833	0,1	0,183496
5,307500	0,1	0,190012
5,309167	0,1	0,155234
5,310833	0,1	0,151032
5,312500	0,1	0,166001
5,314167	0,1	0,136742
5,315833	0,1	0,159351
5,317500	0,1	0,101770
5,319167	0,1	0,161795
5,320833	0,1	0,126933
5,322500	0,1	0,120571
5,324167	0,1	0,116763
5,325833	0,1	0,149216
5,327500	0,1	0,124996
5,329167	0,1	0,161090
5,330833	0,1	0,138968
5,332500	0,1	0,107895
5,334167	0,1	0,106274
5,335833	0,1	0,093630
5,337500	0,1	0,114240
5,339167	0,1	0,102956
5,340833	0,1	0,103113
5,342500	0,1	0,099210
5,344167	0,1	0,113499
5,345833	0,1	0,103665
5,347500	0,1	0,116147
5,349167	0,1	0,083342
5,350833	0,1	0,059818
5,352500	0,1	0,056819
5,354167	0,1	0,083780
5,355833	0,1	0,102884
5,357500	0,1	0,093501
5,359167	0,1	0,081273
5,360833	0,1	0,112333
5,362500	0,1	0,064921
5,364167	0,1	0,019337
5,365833	0,1	0,079319
5,367500	0,1	0,077559
5,369167	0,1	0,083882
5,370833	0,1	0,090206
5,372500	0,1	0,051049
5,374167	0,1	0,038622
5,375833	0,1	0,064194
5,377500	0,1	0,032144
5,379167	0,1	0,038553
5,380833	0,1	0,021102
5,382500	0,1	0,037811
5,384167	0,1	0,028720
5,385833	0,1	0,042323
5,387500	0,1	0,014014
5,389167	0,1	0,057161
5,390833	0,1	0,003855
5,392500	0,1	0,043154
5,394167	0,1	0,036621
5,395833	0,1	-0,001374
5,397500	0,1	0,015323
5,399167	0,1	0,010748
5,400833	0,1	0,018552
5,402500	0,1	0,009940
5,404167	0,1	0,021101
5,405833	0,1	0,018268
5,407500	0,1	-0,003542
5,409167	0,1	0,008036
5,410833	0,1	-0,018342
5,412500	0,1	0,000773
5,414167	0,1	-0,021805
5,415833	0,1	0,001162
5,417500	0,1	-0,045278
5,419167	0,1	-0,051438
5,420833	0,1	-0,024679
5,422500	0,1	-0,038962
5,424167	0,1	-0,015901
5,425833	0,1	-0,001514
5,427500	0,1	-0,027666
5,429167	0,1	-0,003509
5,430833	0,1	-0,034931
5,432500	0,1	-0,014129
5,434167	0,1	-0,007772
5,435833	0,1	-0,045243
5,437500	0,1	-0,033935
5,439167	0,1	-0,025447
5,440833	0,1	-0,023120
5,442500	0,1	-0,071008
5,444167	0,1	-0,034748
5,445833	0,1	-0,047676
5,447500	0,1	-0,030673
5,449167	0,1	0,022098
5,450833	0,1	-0,013243
5,452500	0,1	-0,051141
5,454167	0,1	-0,042121
5,455833	0,1	-0,037087
5,457500	0,1	-0,072702
5,459167	0,1	-0,063062
5,460833	0,1	-0,047101
5,462500	0,1	-0,050186
5,464167	0,1	-0,051213
5,465833	0,1	-0,084012
5,467500	0,1	-0,064927
5,469167	0,1	-0,058219
5,470833	0,1	-0,095268
5,472500	0,1	-0,067573
5,474167	0,1	-0,051735
5,475833	0,1	-0,081534
5,477500	0,1	-0,063700
5,479167	0,1	-0,055858
5,480833	0,1	-0,048470
5,482500	0,1	-0,086717
5,484167	0,1	-0,079090
5,485833	0,1	-0,057733
5,487500	0,1	-0,061924
5,489167	0,1	-0,088429
5,490833	0,1	-0,091495
5,492500	0,1	-0,099498
5,494167	0,1	-0,070090
5,495833	0,1	-0,078431
5,497500	0,1	-0,097208
5,499167	0,1	-0,080280
5,500833	0,1	-0,120612
5,502500	0,1	-0,074990
5,504167	0,1	-0,088214
5,505833	0,1	-0,092252
5,507500	0,1	-0,068509
5,509167	0,1	-0,109165
5,510833	0,1	-0,093751
5,512500	0,1	-0,108945
5,514167	0,1	-0,135387
5,515833	0,1	-0,099837
5,517500	0,1	-0,108920
5,519167	0,1	-0,086922
5,520833	0,1	-0,150807
5,522500	0,1	-0,133273
5,524167	0,1	-0,107867
5,525833	0,1	-0,082535
5,527500	0,1	-0,112622
5,529167	0,1	-0,110113
5,530833	0,1	-0,104915
5,532500	0,1	-0,067867
5,534167	0,1	-0,093981
5,535833	0,1	-0,080825
5,537500	0,1	-0,112040
5,539167	0,1	-0,101363
5,540833	0,1	-0,104951
5,542500	0,1	-0,072635
5,544167	0,1	-0,112327
5,545833	0,1	-0,137106
5,547500	0,1	-0,114341
5,549167	0,1	-0,091338
5,550833	0,1	-0,098853
5,552500	0,1	-0,083850
5,554167	0,1	-0,097981
5,555833	0,1	-0,124130
5,557500	0,1	-0,097927
5,559167	0,1	-0,115293
5,560833	0,1	-0,159308
5,562500	0,1	-0,120378
5,564167	0,1	-0,115728
5,565833	0,1	-0,131746
5,567500	0,1	-0,125428
5,569167	0,1	-0,121723
5,570833	0,1	-0,120686
5,572500	0,1	-0,099279
5,574167	0,1	-0,104824
5,575833	0,1	-0,147155
5,577500	0,1	-0,118984
5,579167	0,1	-0,092386
5,580833	0,1	-0,104178
5,582500	0,1	-0,134588
5,584167	0,1	-0,129198
5,585833	0,1	-0,125075
5,587500	0,1	-0,126071
5,589167	0,1	-0,132722
5,590833	0,1	-0,151031
5,592500	0,1	-0,139618
5,594167	0,1	-0,098283
5,595833	0,1	-0,129960
5,597500	0,1	-0,150362
5,599167	0,1	-0,147977
5,600833	0,1	-0,102447
5,602500	0,1	-0,118391
5,604167	0,1	-0,162799
5,605833	0,1	-0,090286
5,607500	0,1	-0,141096
5,609167	0,1	-0,135723
5,610833	0,1	-0,121271
5,612500	0,1	-0,132202
5,614167	0,1	-0,114783
5,615833	0,1	-0,146931
5,617500	0,1	-0,107404
5,619167	0,1	-0,111718
5,620833	0,1	-0,122389
5,622500	0,1	-0,079959
5,624167	0,1	-0,124545
5,625833	0,1	-0,111457
5,627500	0,1	-0,132326
5,629167	0,1	-0,123430
5,630833	0,1	-0,131482
5,632500	0,1	-0,148288
5,634167	0,1	-0,140744
5,635833	0,1	-0,176494
5,637500	0,1	-0,077392
5,639167	0,1	-0,132837
5,640833	0,1	-0,141461
5,642500	0,1	-0,151930
5,644167	0,1	-0,095580
5,645833	0,1	-0,126709
5,647500	0,1	-0,144189
5,649167	0,1	-0,160619
5,650833	0,1	-0,149977
5,652500	0,1	-0,111083
5,654167	0,1	-0,114069
5,655833	0,1	-0,097241
5,657500	0,1	-0,133968
5,659167	0,1	-0,118046
5,660833	0,1	-0,080641
5,662500	0,1	-0,134253
5,664167	0,1	-0,108892
5,665833	0,1	-0,108114
5,667500	0,1	-0,112463
5,669167	0,1	-0,098569
5,670833	0,1	-0,117519
5,672500	0,1	-0,106372
5,674167	0,1	-0,110238
5,675833	0,1	-0,119619
5,677500	0,1	-0,163797
5,679167	0,1	-0,107673
5,680833	0,1	-0,111236
5,682500	0,1	-0,129684
5,684167	0,1	-0,091342
5,685833	0,1	-0,118970
5,687500	0,1	-0,117524
5,689167	0,1	-0,122821
5,690833	0,1	-0,092503
5,692500	0,1	-0,128453
5,694167	0,1	-0,097245
5,695833	0,1	-0,092952
5,697500	0,1	-0,089762
5,699167	0,1	-0,116454
5,700833	0,1	-0,115827
5,702500	0,1	-0,139155
5,704167	0,1	-0,107931
5,705833	0,1	-0,078348
5,707500	0,1	-0,108625
5,709167	0,1	-0,079212
5,710833	0,1	-0,095717
5,712500	0,1	-0,128707
5,714167	0,1	-0,098953
5,715833	0,1	-0,119553
5,717500	0,1	-0,092830
5,719167	0,1	-0,089952
5,720833	0,1	-0,130679
5,722500	0,1	-0,115629
5,724167	0,1	-0,091639
5,725833	0,1	-0,125545
5,727500	0,1	-0,144063
5,729167	0,1	-0,122752
5,730833	0,1	-0,115464
5,732500	0,1	-0,112994
5,734167	0,1	-0,110631
5,735833	0,1	-0,094382
5,737500	0,1	-0,081407
5,739167	0,1	-0,135835
5,740833	0,1	-0,089092
5,742500	0,1	-0,111623
5,744167	0,1	-0,105725
5,745833	0,1	-0,132491
5,747500	0,1	-0,054366
5,749167	0,1	-0,068017
5,750833	0,1	-0,131671
5,752500	0,1	-0,095931
5,754167	0,1	-0,093241
5,755833	0,1	-0,114128
5,757500	0,1	-0,101339
5,759167	0,1	-0,075531
5,760833	0,1	-0,089821
5,762500	0,1	-0,107718
5,764167	0,1	-0,097896
5,765833	0,1	-0,103115
5,767500	0,1	-0,102144
5,769167	0,1	-0,092206
5,770833	0,1	-0,076727
5,772500	0,1	-0,097852
5,774167	0,1	-0,039515
5,775833	0,1	-0,090433
5,777500	0,1	-0,117454
5,779167	0,1	-0,100367
5,780833	0,1	-0,080989
5,782500	0,1	-0,114164
5,784167	0,1	-0,122302
5,785833	0,1	-0,105753
5,787500	0,1	-0,130164
5,789167	0,1	-0,040069
5,790833	0,1	-0,063753
5,792500	0,1	-0,105359
5,794167	0,1	-0,084152
5,795833	0,1	-0,080023
5,797500	0,1	-0,075508
5,799167	0,1	-0,093299
5,800833	0,1	-0,065637
5,802500	0,1	-0,096232
5,804167	0,1	-0,103914
5,805833	0,1	-0,080409
5,807500	0,1	-0,114038
5,809167	0,1	-0,115763
5,810833	0,1	-0,079957
5,812500	0,1	-0,074310
5,814167	0,1	-0,103391
5,815833	0,1	-0,086794
5,817500	0,1	-0,075792
5,819167	0,1	-0,113100
5,820833	0,1	-0,084217
5,822500	0,1	-0,061667
5,824167	0,1	-0,100174
5,825833	0,1	-0,102333
5,827500	0,1	-0,073960
5,829167	0,1	-0,071792
5,830833	0,1	-0,096487
5,832500	0,1	-0,102117
5,834167	0,1	-0,076059
5,835833	0,1	-0,088976
5,837500	0,1	-0,071958
5,839167	0,1	-0,059310
5,840833	0,1	-0,112767
5,842500	0,1	-0,086063
5,844167	0,1	-0,058834
5,845833	0,1	-0,092323
5,847500	0,1	-0,075057
5,849167	0,1	-0,125706
5,850833	0,1	-0,074839
5,852500	0,1	-0,117462
5,854167	0,1	-0,114426
5,855833	0,1	-0,066796
5,857500	0,1	-0,099330
5,859167	0,1	-0,115395
5,860833	0,1	-0,147803
5,862500	0,1	-0,100765
5,864167	0,1	-0,097530
5,865833	0,1	-0,088956
5,867500	0,1	-0,117427
5,869167	0,1	-0,078604
5,870833	0,1	-0,104607
5,872500	0,1	-0,106077
5,874167	0,1	-0,073052
5,875833	0,1	-0,103137
5,877500	0,1	-0,116014
5,879167	0,1	-0,076352
5,880833	0,1	-0,091756
5,882500	0,1	-0,107110
5,884167	0,1	-0,101246
5,885833	0,1	-0,118367
5,887500	0,1	-0,086635
5,889167	0,1	-0,100497
5,890833	0,1	-0,105494
5,892500	0,1	-0,115813
5,894167	0,1	-0,114426
5,895833	0,1	-0,110201
5,897500	0,1	-0,089540
5,899167	0,1	-0,127087
5,900833	0,1	-0,097473
5,902500	0,1	-0,116582
5,904167	0,1	-0,096597
5,905833	0,1	-0,117772
5,907500	0,1	-0,131999
5,909167	0,1	-0,115075
5,910833	0,1	-0,111946
5,912500	0,1	-0,123742
5,914167	0,1	-0,129448
5,915833	0,1	-0,136618
5,917500	0,1	-0,080607
5,919167	0,1	-0,112444
5,920833	0,1	-0,123199
5,922500	0,1	-0,129358
5,924167	0,1	-0,118588
5,925833	0,1	-0,156401
5,927500	0,1	-0,116406
5,929167	0,1	-0,133050
5,930833	0,1	-0,091114
5,932500	0,1	-0,138543
5,934167	0,1	-0,141121
5,935833	0,1	-0,129844
5,937500	0,1	-0,121369
5,939167	0,1	-0,139990
5,940833	0,1	-0,130070
5,942500	0,1	-0,137869
5,944167	0,1	-0,144471
5,945833	0,1	-0,105797
5,947500	0,1	-0,122324
5,949167	0,1	-0,166984
5,950833	0,1	-0,129874
5,952500	0,1	-0,157896
5,954167	0,1	-0,141225
5,955833	0,1	-0,197392
5,957500	0,1	-0,080558
5,959167	0,1	-0,137338
5,960833	0,1	-0,160437
5,962500	0,1	-0,140886
5,964167	0,1	-0,130652
5,965833	0,1	-0,100596
5,967500	0,1	-0,114913
5,969167	0,1	-0,159561
5,970833	0,1	-0,124943
5,972500	0,1	-0,101658
5,974167	0,1	-0,129934
5,975833	0,1	-0,183497
5,977500	0,1	-0,160841
5,979167	0,1	-0,112918
5,980833	0,1	-0,125071
5,982500	0,1	-0,120458
5,984167	0,1	-0,119257
5,985833	0,1	-0,131837
5,987500	0,1	-0,171626
5,989167	0,1	-0,128435
5,990833	0,1	-0,166986
5,992500	0,1	-0,121658
5,994167	0,1	-0,150991
5,995833	0,1	-0,159191
5,997500	0,1	-0,180925
5,999167	0,1	-0,147616
6,000833	0,1	-0,157419
