File Path	chrom://chromeleon01/ikbm_chromeleon/2022/Rezex/Esteban/220612_chitin_4_7.seq/800.smp/UV_VIS_1.channel/UV_VIS_1.chm
Channel	UV_VIS_1

Injection Information:
Data Vault	ikbm_chromeleon
Injection	Sc10D_24h-ChiBI_1
Injection Number	47
Position	GA2
Comment	
Processing Method	New ProcMethod
Instrument Method	Short_Rezex_6min_194nm
Type	Unknown
Status	Finished
Injection Date	12.06.2022
Injection Time	22:12:05
Injection Volume (µl)	8,000
Dilution Factor	1,0000
Weight	1,0000

Chromatogram Data Information:
Time Min. (min)	0,000833
Time Max. (min)	6,000833
Data Points	3601
Detector	UV
Generating Data System	Chromeleon 7.2.9.11323
Exporting Data System	Chromeleon 7.2.9.0
Operator	Instrument Controller
Signal Quantity	Absorbance
Signal Unit	mAU
Signal Min.	-0,094565
Signal Max.	423,761228
Channel	UV_VIS_1
Driver Name	VWD3000.dll
Channel Type	Evaluation
Min. Step (s)	0,1
Max. Step (s)	0,1
Average Step (s)	0,1

Signal Parameter Information:
Signal Info	WVL:194 nm

Chromatogram Data:
Time (min)	Step (s)	Value (mAU)
0,000833	n.a.	-0,039985
0,002500	0,1	-0,039085
0,004167	0,1	-0,029295
0,005833	0,1	0,025449
0,007500	0,1	-0,030377
0,009167	0,1	-0,029905
0,010833	0,1	-0,042721
0,012500	0,1	-0,076502
0,014167	0,1	-0,043152
0,015833	0,1	0,001939
0,017500	0,1	-0,047736
0,019167	0,1	-0,032003
0,020833	0,1	-0,017798
0,022500	0,1	-0,030093
0,024167	0,1	-0,056115
0,025833	0,1	-0,053931
0,027500	0,1	-0,029270
0,029167	0,1	-0,047069
0,030833	0,1	-0,026915
0,032500	0,1	-0,048101
0,034167	0,1	-0,064365
0,035833	0,1	-0,079533
0,037500	0,1	-0,066690
0,039167	0,1	-0,080854
0,040833	0,1	-0,022124
0,042500	0,1	-0,059433
0,044167	0,1	-0,094439
0,045833	0,1	-0,053943
0,047500	0,1	-0,073059
0,049167	0,1	-0,044922
0,050833	0,1	-0,055025
0,052500	0,1	-0,073832
0,054167	0,1	-0,012113
0,055833	0,1	-0,051509
0,057500	0,1	-0,019252
0,059167	0,1	-0,034864
0,060833	0,1	-0,031550
0,062500	0,1	-0,032128
0,064167	0,1	-0,002567
0,065833	0,1	-0,029708
0,067500	0,1	-0,049611
0,069167	0,1	-0,094565
0,070833	0,1	0,012616
0,072500	0,1	-0,037914
0,074167	0,1	-0,053703
0,075833	0,1	-0,069709
0,077500	0,1	-0,015171
0,079167	0,1	-0,027361
0,080833	0,1	-0,033610
0,082500	0,1	-0,030585
0,084167	0,1	-0,002146
0,085833	0,1	0,000307
0,087500	0,1	-0,050439
0,089167	0,1	0,010017
0,090833	0,1	-0,046157
0,092500	0,1	-0,052223
0,094167	0,1	0,003646
0,095833	0,1	-0,033437
0,097500	0,1	-0,037440
0,099167	0,1	-0,009427
0,100833	0,1	-0,014123
0,102500	0,1	0,032633
0,104167	0,1	-0,023096
0,105833	0,1	-0,014316
0,107500	0,1	-0,047131
0,109167	0,1	-0,036255
0,110833	0,1	-0,031324
0,112500	0,1	-0,061879
0,114167	0,1	-0,032424
0,115833	0,1	-0,051772
0,117500	0,1	-0,069903
0,119167	0,1	-0,039995
0,120833	0,1	-0,052030
0,122500	0,1	-0,050969
0,124167	0,1	-0,062304
0,125833	0,1	-0,027466
0,127500	0,1	-0,046069
0,129167	0,1	-0,064782
0,130833	0,1	-0,045434
0,132500	0,1	-0,050358
0,134167	0,1	-0,059534
0,135833	0,1	-0,036417
0,137500	0,1	-0,013262
0,139167	0,1	-0,006520
0,140833	0,1	-0,030449
0,142500	0,1	-0,016250
0,144167	0,1	-0,035859
0,145833	0,1	-0,009782
0,147500	0,1	-0,034379
0,149167	0,1	-0,017960
0,150833	0,1	0,008640
0,152500	0,1	-0,047025
0,154167	0,1	-0,002794
0,155833	0,1	0,015469
0,157500	0,1	-0,030699
0,159167	0,1	-0,023785
0,160833	0,1	-0,017569
0,162500	0,1	0,006968
0,164167	0,1	-0,004944
0,165833	0,1	-0,026999
0,167500	0,1	-0,008747
0,169167	0,1	-0,002816
0,170833	0,1	0,006003
0,172500	0,1	-0,047476
0,174167	0,1	0,021261
0,175833	0,1	-0,022196
0,177500	0,1	-0,014348
0,179167	0,1	0,027515
0,180833	0,1	0,017024
0,182500	0,1	-0,014533
0,184167	0,1	-0,045613
0,185833	0,1	-0,045530
0,187500	0,1	0,033589
0,189167	0,1	0,002537
0,190833	0,1	0,022722
0,192500	0,1	-0,003032
0,194167	0,1	-0,000337
0,195833	0,1	0,000531
0,197500	0,1	0,008356
0,199167	0,1	-0,021235
0,200833	0,1	-0,022365
0,202500	0,1	0,007611
0,204167	0,1	0,019212
0,205833	0,1	-0,006739
0,207500	0,1	0,007905
0,209167	0,1	0,007335
0,210833	0,1	0,034701
0,212500	0,1	0,013486
0,214167	0,1	0,002238
0,215833	0,1	0,021758
0,217500	0,1	0,001991
0,219167	0,1	-0,021431
0,220833	0,1	0,005261
0,222500	0,1	-0,012154
0,224167	0,1	-0,022427
0,225833	0,1	-0,009584
0,227500	0,1	-0,014957
0,229167	0,1	0,010443
0,230833	0,1	0,015413
0,232500	0,1	0,022883
0,234167	0,1	-0,007930
0,235833	0,1	-0,031249
0,237500	0,1	0,018205
0,239167	0,1	0,004790
0,240833	0,1	0,026392
0,242500	0,1	-0,000524
0,244167	0,1	0,005684
0,245833	0,1	0,018279
0,247500	0,1	0,000985
0,249167	0,1	0,010229
0,250833	0,1	-0,000139
0,252500	0,1	0,024493
0,254167	0,1	-0,009253
0,255833	0,1	-0,010838
0,257500	0,1	0,001464
0,259167	0,1	0,015766
0,260833	0,1	0,030482
0,262500	0,1	0,037354
0,264167	0,1	0,007981
0,265833	0,1	0,052127
0,267500	0,1	-0,009247
0,269167	0,1	0,015278
0,270833	0,1	0,028296
0,272500	0,1	0,017095
0,274167	0,1	-0,014436
0,275833	0,1	0,012641
0,277500	0,1	0,034507
0,279167	0,1	0,059798
0,280833	0,1	0,023126
0,282500	0,1	0,056800
0,284167	0,1	0,052522
0,285833	0,1	0,011818
0,287500	0,1	0,055218
0,289167	0,1	0,035911
0,290833	0,1	0,032521
0,292500	0,1	0,009782
0,294167	0,1	0,033252
0,295833	0,1	0,030356
0,297500	0,1	0,047298
0,299167	0,1	0,015037
0,300833	0,1	0,018086
0,302500	0,1	0,017796
0,304167	0,1	0,028203
0,305833	0,1	0,022923
0,307500	0,1	0,008785
0,309167	0,1	0,024922
0,310833	0,1	0,054064
0,312500	0,1	0,085600
0,314167	0,1	0,069024
0,315833	0,1	0,036713
0,317500	0,1	0,073103
0,319167	0,1	0,020741
0,320833	0,1	0,074828
0,322500	0,1	0,036040
0,324167	0,1	0,049941
0,325833	0,1	0,055995
0,327500	0,1	0,047434
0,329167	0,1	0,050821
0,330833	0,1	0,054902
0,332500	0,1	0,062575
0,334167	0,1	0,046987
0,335833	0,1	0,074133
0,337500	0,1	0,017874
0,339167	0,1	0,060917
0,340833	0,1	0,068592
0,342500	0,1	0,009181
0,344167	0,1	0,086007
0,345833	0,1	0,032787
0,347500	0,1	0,074839
0,349167	0,1	0,071786
0,350833	0,1	0,065670
0,352500	0,1	0,048276
0,354167	0,1	0,063471
0,355833	0,1	0,066921
0,357500	0,1	0,068245
0,359167	0,1	0,095910
0,360833	0,1	0,071604
0,362500	0,1	0,042901
0,364167	0,1	0,042829
0,365833	0,1	0,049175
0,367500	0,1	0,035259
0,369167	0,1	0,021026
0,370833	0,1	0,048265
0,372500	0,1	0,069268
0,374167	0,1	0,071048
0,375833	0,1	0,080010
0,377500	0,1	0,057776
0,379167	0,1	0,083255
0,380833	0,1	0,065833
0,382500	0,1	0,105694
0,384167	0,1	0,050835
0,385833	0,1	0,080959
0,387500	0,1	0,079770
0,389167	0,1	0,107901
0,390833	0,1	0,086322
0,392500	0,1	0,047537
0,394167	0,1	0,086634
0,395833	0,1	0,069315
0,397500	0,1	0,085312
0,399167	0,1	0,100385
0,400833	0,1	0,070990
0,402500	0,1	0,098393
0,404167	0,1	0,123302
0,405833	0,1	0,105688
0,407500	0,1	0,106262
0,409167	0,1	0,083463
0,410833	0,1	0,086316
0,412500	0,1	0,112690
0,414167	0,1	0,089161
0,415833	0,1	0,085382
0,417500	0,1	0,073759
0,419167	0,1	0,128963
0,420833	0,1	0,107324
0,422500	0,1	0,094667
0,424167	0,1	0,090929
0,425833	0,1	0,099332
0,427500	0,1	0,120211
0,429167	0,1	0,118405
0,430833	0,1	0,114866
0,432500	0,1	0,126870
0,434167	0,1	0,122206
0,435833	0,1	0,103271
0,437500	0,1	0,119016
0,439167	0,1	0,105098
0,440833	0,1	0,129866
0,442500	0,1	0,117351
0,444167	0,1	0,122269
0,445833	0,1	0,092132
0,447500	0,1	0,145679
0,449167	0,1	0,089430
0,450833	0,1	0,100686
0,452500	0,1	0,106617
0,454167	0,1	0,125721
0,455833	0,1	0,100312
0,457500	0,1	0,115440
0,459167	0,1	0,105238
0,460833	0,1	0,166458
0,462500	0,1	0,135137
0,464167	0,1	0,117156
0,465833	0,1	0,173877
0,467500	0,1	0,164858
0,469167	0,1	0,179265
0,470833	0,1	0,140546
0,472500	0,1	0,137289
0,474167	0,1	0,166635
0,475833	0,1	0,124261
0,477500	0,1	0,158481
0,479167	0,1	0,164260
0,480833	0,1	0,129760
0,482500	0,1	0,123018
0,484167	0,1	0,189051
0,485833	0,1	0,161505
0,487500	0,1	0,125828
0,489167	0,1	0,160545
0,490833	0,1	0,142234
0,492500	0,1	0,166217
0,494167	0,1	0,146959
0,495833	0,1	0,172305
0,497500	0,1	0,179952
0,499167	0,1	0,179691
0,500833	0,1	0,125898
0,502500	0,1	0,174167
0,504167	0,1	0,128801
0,505833	0,1	0,173116
0,507500	0,1	0,174757
0,509167	0,1	0,143897
0,510833	0,1	0,160299
0,512500	0,1	0,146613
0,514167	0,1	0,176342
0,515833	0,1	0,202321
0,517500	0,1	0,185377
0,519167	0,1	0,185266
0,520833	0,1	0,222324
0,522500	0,1	0,192297
0,524167	0,1	0,203863
0,525833	0,1	0,175671
0,527500	0,1	0,174154
0,529167	0,1	0,208789
0,530833	0,1	0,157737
0,532500	0,1	0,198725
0,534167	0,1	0,176774
0,535833	0,1	0,188288
0,537500	0,1	0,181889
0,539167	0,1	0,172747
0,540833	0,1	0,168195
0,542500	0,1	0,180752
0,544167	0,1	0,184911
0,545833	0,1	0,214172
0,547500	0,1	0,250488
0,549167	0,1	0,224983
0,550833	0,1	0,250358
0,552500	0,1	0,199630
0,554167	0,1	0,211307
0,555833	0,1	0,254512
0,557500	0,1	0,224630
0,559167	0,1	0,227291
0,560833	0,1	0,221756
0,562500	0,1	0,245889
0,564167	0,1	0,262056
0,565833	0,1	0,265636
0,567500	0,1	0,248567
0,569167	0,1	0,246342
0,570833	0,1	0,236831
0,572500	0,1	0,246141
0,574167	0,1	0,250324
0,575833	0,1	0,249654
0,577500	0,1	0,189358
0,579167	0,1	0,239329
0,580833	0,1	0,245182
0,582500	0,1	0,250339
0,584167	0,1	0,254363
0,585833	0,1	0,218921
0,587500	0,1	0,303807
0,589167	0,1	0,245015
0,590833	0,1	0,239384
0,592500	0,1	0,266027
0,594167	0,1	0,260563
0,595833	0,1	0,297594
0,597500	0,1	0,300290
0,599167	0,1	0,273355
0,600833	0,1	0,292459
0,602500	0,1	0,285308
0,604167	0,1	0,260330
0,605833	0,1	0,329506
0,607500	0,1	0,345529
0,609167	0,1	0,277943
0,610833	0,1	0,247323
0,612500	0,1	0,304499
0,614167	0,1	0,300623
0,615833	0,1	0,269198
0,617500	0,1	0,300192
0,619167	0,1	0,298357
0,620833	0,1	0,325137
0,622500	0,1	0,328233
0,624167	0,1	0,302670
0,625833	0,1	0,320983
0,627500	0,1	0,344968
0,629167	0,1	0,363534
0,630833	0,1	0,293257
0,632500	0,1	0,295018
0,634167	0,1	0,327227
0,635833	0,1	0,332457
0,637500	0,1	0,324923
0,639167	0,1	0,363306
0,640833	0,1	0,346713
0,642500	0,1	0,364046
0,644167	0,1	0,373895
0,645833	0,1	0,406465
0,647500	0,1	0,327362
0,649167	0,1	0,346813
0,650833	0,1	0,372247
0,652500	0,1	0,367118
0,654167	0,1	0,346756
0,655833	0,1	0,373071
0,657500	0,1	0,348113
0,659167	0,1	0,395587
0,660833	0,1	0,374348
0,662500	0,1	0,398061
0,664167	0,1	0,389420
0,665833	0,1	0,370923
0,667500	0,1	0,407797
0,669167	0,1	0,412031
0,670833	0,1	0,367684
0,672500	0,1	0,417222
0,674167	0,1	0,441776
0,675833	0,1	0,376737
0,677500	0,1	0,429651
0,679167	0,1	0,449362
0,680833	0,1	0,436606
0,682500	0,1	0,444737
0,684167	0,1	0,392122
0,685833	0,1	0,409137
0,687500	0,1	0,426458
0,689167	0,1	0,394896
0,690833	0,1	0,419273
0,692500	0,1	0,473034
0,694167	0,1	0,488125
0,695833	0,1	0,445084
0,697500	0,1	0,458149
0,699167	0,1	0,454150
0,700833	0,1	0,463443
0,702500	0,1	0,439920
0,704167	0,1	0,442359
0,705833	0,1	0,500235
0,707500	0,1	0,495404
0,709167	0,1	0,494933
0,710833	0,1	0,509342
0,712500	0,1	0,484977
0,714167	0,1	0,483283
0,715833	0,1	0,472028
0,717500	0,1	0,511491
0,719167	0,1	0,530087
0,720833	0,1	0,489984
0,722500	0,1	0,517675
0,724167	0,1	0,522754
0,725833	0,1	0,526940
0,727500	0,1	0,542304
0,729167	0,1	0,557225
0,730833	0,1	0,549115
0,732500	0,1	0,560615
0,734167	0,1	0,566683
0,735833	0,1	0,551764
0,737500	0,1	0,508380
0,739167	0,1	0,576681
0,740833	0,1	0,571961
0,742500	0,1	0,605939
0,744167	0,1	0,597870
0,745833	0,1	0,614637
0,747500	0,1	0,645075
0,749167	0,1	0,622014
0,750833	0,1	0,629903
0,752500	0,1	0,626219
0,754167	0,1	0,657417
0,755833	0,1	0,621901
0,757500	0,1	0,648522
0,759167	0,1	0,630264
0,760833	0,1	0,603596
0,762500	0,1	0,676374
0,764167	0,1	0,628881
0,765833	0,1	0,623232
0,767500	0,1	0,677957
0,769167	0,1	0,659655
0,770833	0,1	0,642641
0,772500	0,1	0,656437
0,774167	0,1	0,617944
0,775833	0,1	0,670181
0,777500	0,1	0,689919
0,779167	0,1	0,675071
0,780833	0,1	0,681654
0,782500	0,1	0,675051
0,784167	0,1	0,614332
0,785833	0,1	0,685273
0,787500	0,1	0,683574
0,789167	0,1	0,675425
0,790833	0,1	0,693266
0,792500	0,1	0,662001
0,794167	0,1	0,679867
0,795833	0,1	0,675714
0,797500	0,1	0,674253
0,799167	0,1	0,700513
0,800833	0,1	0,700111
0,802500	0,1	0,678349
0,804167	0,1	0,700446
0,805833	0,1	0,712744
0,807500	0,1	0,697738
0,809167	0,1	0,758954
0,810833	0,1	0,710941
0,812500	0,1	0,714341
0,814167	0,1	0,702952
0,815833	0,1	0,749604
0,817500	0,1	0,749578
0,819167	0,1	0,710193
0,820833	0,1	0,737939
0,822500	0,1	0,740154
0,824167	0,1	0,728337
0,825833	0,1	0,738929
0,827500	0,1	0,738440
0,829167	0,1	0,751221
0,830833	0,1	0,762315
0,832500	0,1	0,774948
0,834167	0,1	0,765342
0,835833	0,1	0,738597
0,837500	0,1	0,775298
0,839167	0,1	0,744202
0,840833	0,1	0,756810
0,842500	0,1	0,797324
0,844167	0,1	0,764313
0,845833	0,1	0,779586
0,847500	0,1	0,837760
0,849167	0,1	0,812087
0,850833	0,1	0,782482
0,852500	0,1	0,825859
0,854167	0,1	0,806277
0,855833	0,1	0,807508
0,857500	0,1	0,778442
0,859167	0,1	0,838268
0,860833	0,1	0,786564
0,862500	0,1	0,825997
0,864167	0,1	0,811150
0,865833	0,1	0,875185
0,867500	0,1	0,813880
0,869167	0,1	0,830726
0,870833	0,1	0,829727
0,872500	0,1	0,823632
0,874167	0,1	0,830879
0,875833	0,1	0,851366
0,877500	0,1	0,853322
0,879167	0,1	0,902381
0,880833	0,1	0,875413
0,882500	0,1	0,896992
0,884167	0,1	0,897149
0,885833	0,1	0,885807
0,887500	0,1	0,898944
0,889167	0,1	0,921512
0,890833	0,1	0,885661
0,892500	0,1	0,919791
0,894167	0,1	0,923258
0,895833	0,1	0,916517
0,897500	0,1	0,944349
0,899167	0,1	0,904753
0,900833	0,1	0,935217
0,902500	0,1	0,956249
0,904167	0,1	0,939830
0,905833	0,1	0,938177
0,907500	0,1	0,957738
0,909167	0,1	0,944267
0,910833	0,1	0,968008
0,912500	0,1	0,977420
0,914167	0,1	0,979566
0,915833	0,1	0,982508
0,917500	0,1	0,980075
0,919167	0,1	0,996710
0,920833	0,1	1,028138
0,922500	0,1	1,048953
0,924167	0,1	1,061712
0,925833	0,1	1,039048
0,927500	0,1	1,031168
0,929167	0,1	1,049452
0,930833	0,1	1,073623
0,932500	0,1	1,055350
0,934167	0,1	1,023613
0,935833	0,1	1,043856
0,937500	0,1	1,059905
0,939167	0,1	1,098955
0,940833	0,1	1,072692
0,942500	0,1	1,090050
0,944167	0,1	1,061791
0,945833	0,1	1,113230
0,947500	0,1	1,141446
0,949167	0,1	1,090510
0,950833	0,1	1,126082
0,952500	0,1	1,146685
0,954167	0,1	1,097659
0,955833	0,1	1,152124
0,957500	0,1	1,153009
0,959167	0,1	1,136142
0,960833	0,1	1,179841
0,962500	0,1	1,183797
0,964167	0,1	1,155087
0,965833	0,1	1,170080
0,967500	0,1	1,172155
0,969167	0,1	1,209212
0,970833	0,1	1,225139
0,972500	0,1	1,211936
0,974167	0,1	1,157747
0,975833	0,1	1,277520
0,977500	0,1	1,272159
0,979167	0,1	1,253785
0,980833	0,1	1,278401
0,982500	0,1	1,287669
0,984167	0,1	1,294918
0,985833	0,1	1,285305
0,987500	0,1	1,326575
0,989167	0,1	1,251285
0,990833	0,1	1,276734
0,992500	0,1	1,320900
0,994167	0,1	1,347257
0,995833	0,1	1,344464
0,997500	0,1	1,370088
0,999167	0,1	1,392202
1,000833	0,1	1,381443
1,002500	0,1	1,451726
1,004167	0,1	1,415912
1,005833	0,1	1,428902
1,007500	0,1	1,442979
1,009167	0,1	1,459210
1,010833	0,1	1,478169
1,012500	0,1	1,474079
1,014167	0,1	1,486288
1,015833	0,1	1,510776
1,017500	0,1	1,473154
1,019167	0,1	1,564134
1,020833	0,1	1,542683
1,022500	0,1	1,568675
1,024167	0,1	1,562578
1,025833	0,1	1,611702
1,027500	0,1	1,572859
1,029167	0,1	1,614362
1,030833	0,1	1,654599
1,032500	0,1	1,637943
1,034167	0,1	1,646492
1,035833	0,1	1,669192
1,037500	0,1	1,670991
1,039167	0,1	1,676739
1,040833	0,1	1,679756
1,042500	0,1	1,751538
1,044167	0,1	1,751831
1,045833	0,1	1,763056
1,047500	0,1	1,745091
1,049167	0,1	1,817156
1,050833	0,1	1,817027
1,052500	0,1	1,831183
1,054167	0,1	1,841761
1,055833	0,1	1,906236
1,057500	0,1	1,973741
1,059167	0,1	2,003021
1,060833	0,1	2,087239
1,062500	0,1	2,212893
1,064167	0,1	2,381560
1,065833	0,1	2,556129
1,067500	0,1	2,824166
1,069167	0,1	3,124167
1,070833	0,1	3,509419
1,072500	0,1	4,028153
1,074167	0,1	4,595390
1,075833	0,1	5,289045
1,077500	0,1	6,139727
1,079167	0,1	7,115834
1,080833	0,1	8,235769
1,082500	0,1	9,461071
1,084167	0,1	10,951489
1,085833	0,1	12,468700
1,087500	0,1	14,178968
1,089167	0,1	16,034478
1,090833	0,1	17,949513
1,092500	0,1	19,988149
1,094167	0,1	22,028813
1,095833	0,1	24,155097
1,097500	0,1	26,229586
1,099167	0,1	28,184976
1,100833	0,1	30,181317
1,102500	0,1	32,023239
1,104167	0,1	33,780002
1,105833	0,1	35,327779
1,107500	0,1	36,709485
1,109167	0,1	37,925872
1,110833	0,1	38,938372
1,112500	0,1	39,772736
1,114167	0,1	40,369654
1,115833	0,1	40,811705
1,117500	0,1	41,074622
1,119167	0,1	41,072414
1,120833	0,1	41,004470
1,122500	0,1	40,683585
1,124167	0,1	40,329736
1,125833	0,1	39,740528
1,127500	0,1	39,080613
1,129167	0,1	38,351438
1,130833	0,1	37,535684
1,132500	0,1	36,650907
1,134167	0,1	35,763040
1,135833	0,1	34,735946
1,137500	0,1	33,740956
1,139167	0,1	32,770788
1,140833	0,1	31,787009
1,142500	0,1	30,710655
1,144167	0,1	29,768313
1,145833	0,1	28,812116
1,147500	0,1	27,887926
1,149167	0,1	26,969835
1,150833	0,1	26,154456
1,152500	0,1	25,356248
1,154167	0,1	24,609176
1,155833	0,1	23,946711
1,157500	0,1	23,312696
1,159167	0,1	22,675649
1,160833	0,1	22,126440
1,162500	0,1	21,690252
1,164167	0,1	21,196250
1,165833	0,1	20,768992
1,167500	0,1	20,389858
1,169167	0,1	19,979138
1,170833	0,1	19,664627
1,172500	0,1	19,328125
1,174167	0,1	19,080628
1,175833	0,1	18,809194
1,177500	0,1	18,540639
1,179167	0,1	18,338336
1,180833	0,1	18,127753
1,182500	0,1	17,910909
1,184167	0,1	17,716606
1,185833	0,1	17,593370
1,187500	0,1	17,490260
1,189167	0,1	17,438772
1,190833	0,1	17,443120
1,192500	0,1	17,427462
1,194167	0,1	17,570432
1,195833	0,1	17,838119
1,197500	0,1	18,217592
1,199167	0,1	18,662624
1,200833	0,1	19,349711
1,202500	0,1	20,125569
1,204167	0,1	21,193366
1,205833	0,1	22,475168
1,207500	0,1	23,987524
1,209167	0,1	25,812285
1,210833	0,1	27,877012
1,212500	0,1	30,263127
1,214167	0,1	32,906973
1,215833	0,1	35,887307
1,217500	0,1	39,199699
1,219167	0,1	42,706427
1,220833	0,1	46,476191
1,222500	0,1	50,540375
1,224167	0,1	54,737508
1,225833	0,1	59,096101
1,227500	0,1	63,603214
1,229167	0,1	68,179974
1,230833	0,1	72,766098
1,232500	0,1	77,304828
1,234167	0,1	81,835691
1,235833	0,1	86,239009
1,237500	0,1	90,455436
1,239167	0,1	94,490621
1,240833	0,1	98,353248
1,242500	0,1	101,982853
1,244167	0,1	105,258067
1,245833	0,1	108,291578
1,247500	0,1	111,112220
1,249167	0,1	113,466552
1,250833	0,1	115,609788
1,252500	0,1	117,425735
1,254167	0,1	118,913821
1,255833	0,1	120,080170
1,257500	0,1	120,897914
1,259167	0,1	121,484136
1,260833	0,1	121,809584
1,262500	0,1	121,746621
1,264167	0,1	121,425949
1,265833	0,1	120,905776
1,267500	0,1	119,998454
1,269167	0,1	118,893566
1,270833	0,1	117,625462
1,272500	0,1	116,109581
1,274167	0,1	114,390386
1,275833	0,1	112,540058
1,277500	0,1	110,518582
1,279167	0,1	108,340102
1,280833	0,1	106,106436
1,282500	0,1	103,678294
1,284167	0,1	101,277389
1,285833	0,1	98,739715
1,287500	0,1	96,182187
1,289167	0,1	93,573994
1,290833	0,1	90,955212
1,292500	0,1	88,389301
1,294167	0,1	85,856963
1,295833	0,1	83,256913
1,297500	0,1	80,732562
1,299167	0,1	78,274219
1,300833	0,1	75,846813
1,302500	0,1	73,465586
1,304167	0,1	71,190946
1,305833	0,1	69,019978
1,307500	0,1	66,869068
1,309167	0,1	64,794917
1,310833	0,1	62,858806
1,312500	0,1	60,880076
1,314167	0,1	59,125621
1,315833	0,1	57,317014
1,317500	0,1	55,651867
1,319167	0,1	54,088126
1,320833	0,1	52,538811
1,322500	0,1	51,060393
1,324167	0,1	49,651454
1,325833	0,1	48,330690
1,327500	0,1	47,027931
1,329167	0,1	45,798610
1,330833	0,1	44,564074
1,332500	0,1	43,426860
1,334167	0,1	42,385855
1,335833	0,1	41,282854
1,337500	0,1	40,279855
1,339167	0,1	39,313554
1,340833	0,1	38,418514
1,342500	0,1	37,487973
1,344167	0,1	36,624733
1,345833	0,1	35,808463
1,347500	0,1	34,985401
1,349167	0,1	34,163878
1,350833	0,1	33,386479
1,352500	0,1	32,642398
1,354167	0,1	31,949280
1,355833	0,1	31,232680
1,357500	0,1	30,510078
1,359167	0,1	29,869150
1,360833	0,1	29,204882
1,362500	0,1	28,642808
1,364167	0,1	28,018393
1,365833	0,1	27,421912
1,367500	0,1	26,758877
1,369167	0,1	26,254539
1,370833	0,1	25,749151
1,372500	0,1	25,175280
1,374167	0,1	24,677909
1,375833	0,1	24,189393
1,377500	0,1	23,677688
1,379167	0,1	23,186175
1,380833	0,1	22,745182
1,382500	0,1	22,302613
1,384167	0,1	21,849810
1,385833	0,1	21,426842
1,387500	0,1	21,008674
1,389167	0,1	20,613720
1,390833	0,1	20,281989
1,392500	0,1	19,888809
1,394167	0,1	19,513782
1,395833	0,1	19,196403
1,397500	0,1	18,892075
1,399167	0,1	18,568109
1,400833	0,1	18,217507
1,402500	0,1	17,916304
1,404167	0,1	17,649498
1,405833	0,1	17,361237
1,407500	0,1	17,131465
1,409167	0,1	16,927213
1,410833	0,1	16,678567
1,412500	0,1	16,430984
1,414167	0,1	16,242123
1,415833	0,1	16,025324
1,417500	0,1	15,811111
1,419167	0,1	15,608441
1,420833	0,1	15,420438
1,422500	0,1	15,248916
1,424167	0,1	15,135750
1,425833	0,1	14,923300
1,427500	0,1	14,762370
1,429167	0,1	14,563260
1,430833	0,1	14,436843
1,432500	0,1	14,280620
1,434167	0,1	14,159054
1,435833	0,1	13,946797
1,437500	0,1	13,836239
1,439167	0,1	13,735157
1,440833	0,1	13,535784
1,442500	0,1	13,417338
1,444167	0,1	13,260695
1,445833	0,1	13,109969
1,447500	0,1	13,011727
1,449167	0,1	12,855925
1,450833	0,1	12,708979
1,452500	0,1	12,590099
1,454167	0,1	12,458966
1,455833	0,1	12,349013
1,457500	0,1	12,180164
1,459167	0,1	12,091731
1,460833	0,1	11,956664
1,462500	0,1	11,812552
1,464167	0,1	11,682050
1,465833	0,1	11,563288
1,467500	0,1	11,467711
1,469167	0,1	11,361660
1,470833	0,1	11,243896
1,472500	0,1	11,117014
1,474167	0,1	11,038745
1,475833	0,1	10,925384
1,477500	0,1	10,795922
1,479167	0,1	10,687184
1,480833	0,1	10,636796
1,482500	0,1	10,481012
1,484167	0,1	10,436860
1,485833	0,1	10,341006
1,487500	0,1	10,252101
1,489167	0,1	10,222837
1,490833	0,1	10,085761
1,492500	0,1	9,975929
1,494167	0,1	9,953278
1,495833	0,1	9,851084
1,497500	0,1	9,799128
1,499167	0,1	9,757616
1,500833	0,1	9,680704
1,502500	0,1	9,596898
1,504167	0,1	9,555672
1,505833	0,1	9,513192
1,507500	0,1	9,456126
1,509167	0,1	9,399170
1,510833	0,1	9,353702
1,512500	0,1	9,346192
1,514167	0,1	9,303952
1,515833	0,1	9,211278
1,517500	0,1	9,193281
1,519167	0,1	9,205289
1,520833	0,1	9,100829
1,522500	0,1	9,091262
1,524167	0,1	9,064377
1,525833	0,1	9,058410
1,527500	0,1	9,028963
1,529167	0,1	9,003716
1,530833	0,1	8,984641
1,532500	0,1	8,937470
1,534167	0,1	8,962548
1,535833	0,1	8,913730
1,537500	0,1	8,892653
1,539167	0,1	8,896346
1,540833	0,1	8,882054
1,542500	0,1	8,898828
1,544167	0,1	8,895307
1,545833	0,1	8,895899
1,547500	0,1	8,826465
1,549167	0,1	8,804101
1,550833	0,1	8,804992
1,552500	0,1	8,812013
1,554167	0,1	8,789700
1,555833	0,1	8,786311
1,557500	0,1	8,796752
1,559167	0,1	8,811041
1,560833	0,1	8,827058
1,562500	0,1	8,826338
1,564167	0,1	8,819697
1,565833	0,1	8,821631
1,567500	0,1	8,836062
1,569167	0,1	8,839486
1,570833	0,1	8,768056
1,572500	0,1	8,806433
1,574167	0,1	8,778115
1,575833	0,1	8,807437
1,577500	0,1	8,823427
1,579167	0,1	8,778738
1,580833	0,1	8,814771
1,582500	0,1	8,778183
1,584167	0,1	8,793882
1,585833	0,1	8,784162
1,587500	0,1	8,721560
1,589167	0,1	8,752843
1,590833	0,1	8,714045
1,592500	0,1	8,747205
1,594167	0,1	8,699588
1,595833	0,1	8,712789
1,597500	0,1	8,739385
1,599167	0,1	8,671054
1,600833	0,1	8,685838
1,602500	0,1	8,649462
1,604167	0,1	8,652843
1,605833	0,1	8,661801
1,607500	0,1	8,618821
1,609167	0,1	8,611998
1,610833	0,1	8,642425
1,612500	0,1	8,604327
1,614167	0,1	8,651173
1,615833	0,1	8,629537
1,617500	0,1	8,689529
1,619167	0,1	8,713511
1,620833	0,1	8,755053
1,622500	0,1	8,840468
1,624167	0,1	8,867170
1,625833	0,1	8,987159
1,627500	0,1	9,023197
1,629167	0,1	9,134524
1,630833	0,1	9,287576
1,632500	0,1	9,443506
1,634167	0,1	9,622511
1,635833	0,1	9,837334
1,637500	0,1	10,120107
1,639167	0,1	10,389560
1,640833	0,1	10,739521
1,642500	0,1	11,122265
1,644167	0,1	11,531639
1,645833	0,1	12,052145
1,647500	0,1	12,640239
1,649167	0,1	13,303980
1,650833	0,1	13,961096
1,652500	0,1	14,832648
1,654167	0,1	15,763117
1,655833	0,1	16,800742
1,657500	0,1	17,918383
1,659167	0,1	19,188071
1,660833	0,1	20,584702
1,662500	0,1	22,088587
1,664167	0,1	23,777965
1,665833	0,1	25,655122
1,667500	0,1	27,683877
1,669167	0,1	29,869446
1,670833	0,1	32,252695
1,672500	0,1	34,830719
1,674167	0,1	37,611832
1,675833	0,1	40,648649
1,677500	0,1	43,878437
1,679167	0,1	47,370566
1,680833	0,1	51,086392
1,682500	0,1	55,102187
1,684167	0,1	59,271948
1,685833	0,1	63,723131
1,687500	0,1	68,407093
1,689167	0,1	73,440308
1,690833	0,1	78,669126
1,692500	0,1	84,196407
1,694167	0,1	90,009321
1,695833	0,1	96,011733
1,697500	0,1	102,285145
1,699167	0,1	108,879891
1,700833	0,1	115,693957
1,702500	0,1	122,706624
1,704167	0,1	129,946783
1,705833	0,1	137,455671
1,707500	0,1	145,161456
1,709167	0,1	153,020065
1,710833	0,1	161,053365
1,712500	0,1	169,388887
1,714167	0,1	177,732054
1,715833	0,1	186,210358
1,717500	0,1	194,889279
1,719167	0,1	203,636499
1,720833	0,1	212,458834
1,722500	0,1	221,272136
1,724167	0,1	230,249973
1,725833	0,1	239,158509
1,727500	0,1	248,030521
1,729167	0,1	256,949223
1,730833	0,1	265,811180
1,732500	0,1	274,576121
1,734167	0,1	283,227617
1,735833	0,1	291,824530
1,737500	0,1	300,254280
1,739167	0,1	308,463043
1,740833	0,1	316,609593
1,742500	0,1	324,504303
1,744167	0,1	332,182815
1,745833	0,1	339,728111
1,747500	0,1	346,861566
1,749167	0,1	353,852610
1,750833	0,1	360,658598
1,752500	0,1	366,945287
1,754167	0,1	373,059553
1,755833	0,1	378,808031
1,757500	0,1	384,285571
1,759167	0,1	389,429827
1,760833	0,1	394,136685
1,762500	0,1	398,635642
1,764167	0,1	402,713448
1,765833	0,1	406,501255
1,767500	0,1	409,798778
1,769167	0,1	412,834335
1,770833	0,1	415,508862
1,772500	0,1	417,685227
1,774167	0,1	419,620166
1,775833	0,1	421,165509
1,777500	0,1	422,318769
1,779167	0,1	423,114929
1,780833	0,1	423,737193
1,782500	0,1	423,761228
1,784167	0,1	423,529100
1,785833	0,1	422,928184
1,787500	0,1	422,008306
1,789167	0,1	420,843434
1,790833	0,1	419,306795
1,792500	0,1	417,416987
1,794167	0,1	415,368565
1,795833	0,1	412,915346
1,797500	0,1	410,159693
1,799167	0,1	407,181399
1,800833	0,1	403,961585
1,802500	0,1	400,501431
1,804167	0,1	396,757833
1,805833	0,1	392,894397
1,807500	0,1	388,749483
1,809167	0,1	384,347887
1,810833	0,1	379,764564
1,812500	0,1	375,137496
1,814167	0,1	370,178666
1,815833	0,1	365,216781
1,817500	0,1	360,070709
1,819167	0,1	354,836082
1,820833	0,1	349,390216
1,822500	0,1	343,934425
1,824167	0,1	338,337630
1,825833	0,1	332,597360
1,827500	0,1	326,859651
1,829167	0,1	321,088878
1,830833	0,1	315,227808
1,832500	0,1	309,400068
1,834167	0,1	303,472264
1,835833	0,1	297,550918
1,837500	0,1	291,611859
1,839167	0,1	285,677162
1,840833	0,1	279,764086
1,842500	0,1	273,854133
1,844167	0,1	268,044225
1,845833	0,1	262,212113
1,847500	0,1	256,342879
1,849167	0,1	250,658082
1,850833	0,1	244,890575
1,852500	0,1	239,276330
1,854167	0,1	233,692461
1,855833	0,1	228,145131
1,857500	0,1	222,722768
1,859167	0,1	217,326383
1,860833	0,1	212,062627
1,862500	0,1	206,832574
1,864167	0,1	201,713534
1,865833	0,1	196,658414
1,867500	0,1	191,712131
1,869167	0,1	186,815103
1,870833	0,1	182,039550
1,872500	0,1	177,333174
1,874167	0,1	172,742794
1,875833	0,1	168,265981
1,877500	0,1	163,833793
1,879167	0,1	159,573815
1,880833	0,1	155,281314
1,882500	0,1	151,166169
1,884167	0,1	147,196188
1,885833	0,1	143,201588
1,887500	0,1	139,414862
1,889167	0,1	135,659432
1,890833	0,1	132,049736
1,892500	0,1	128,494897
1,894167	0,1	125,002312
1,895833	0,1	121,640353
1,897500	0,1	118,351559
1,899167	0,1	115,164394
1,900833	0,1	112,078465
1,902500	0,1	109,081906
1,904167	0,1	106,122267
1,905833	0,1	103,279539
1,907500	0,1	100,488970
1,909167	0,1	97,808114
1,910833	0,1	95,170530
1,912500	0,1	92,629603
1,914167	0,1	90,177868
1,915833	0,1	87,740307
1,917500	0,1	85,452466
1,919167	0,1	83,191112
1,920833	0,1	81,002602
1,922500	0,1	78,876534
1,924167	0,1	76,815547
1,925833	0,1	74,837565
1,927500	0,1	72,865703
1,929167	0,1	71,006919
1,930833	0,1	69,161996
1,932500	0,1	67,417052
1,934167	0,1	65,695783
1,935833	0,1	64,058039
1,937500	0,1	62,469436
1,939167	0,1	60,909571
1,940833	0,1	59,380123
1,942500	0,1	57,985079
1,944167	0,1	56,496858
1,945833	0,1	55,145695
1,947500	0,1	53,820049
1,949167	0,1	52,552978
1,950833	0,1	51,346540
1,952500	0,1	50,119017
1,954167	0,1	48,973727
1,955833	0,1	47,893927
1,957500	0,1	46,795054
1,959167	0,1	45,775314
1,960833	0,1	44,753447
1,962500	0,1	43,813635
1,964167	0,1	42,888585
1,965833	0,1	41,948867
1,967500	0,1	41,040646
1,969167	0,1	40,222336
1,970833	0,1	39,430601
1,972500	0,1	38,642626
1,974167	0,1	37,884600
1,975833	0,1	37,140650
1,977500	0,1	36,479853
1,979167	0,1	35,784658
1,980833	0,1	35,137806
1,982500	0,1	34,518427
1,984167	0,1	33,943378
1,985833	0,1	33,319363
1,987500	0,1	32,780694
1,989167	0,1	32,269700
1,990833	0,1	31,716932
1,992500	0,1	31,273931
1,994167	0,1	30,782923
1,995833	0,1	30,272238
1,997500	0,1	29,854284
1,999167	0,1	29,496839
2,000833	0,1	29,091022
2,002500	0,1	28,699738
2,004167	0,1	28,289891
2,005833	0,1	27,967688
2,007500	0,1	27,594568
2,009167	0,1	27,260604
2,010833	0,1	26,965993
2,012500	0,1	26,679811
2,014167	0,1	26,359347
2,015833	0,1	26,132681
2,017500	0,1	25,844675
2,019167	0,1	25,572703
2,020833	0,1	25,356791
2,022500	0,1	25,078494
2,024167	0,1	24,854417
2,025833	0,1	24,682723
2,027500	0,1	24,458983
2,029167	0,1	24,251663
2,030833	0,1	24,068779
2,032500	0,1	23,884288
2,034167	0,1	23,747998
2,035833	0,1	23,501963
2,037500	0,1	23,402733
2,039167	0,1	23,269579
2,040833	0,1	23,103529
2,042500	0,1	22,993383
2,044167	0,1	22,844920
2,045833	0,1	22,673258
2,047500	0,1	22,551427
2,049167	0,1	22,442604
2,050833	0,1	22,374861
2,052500	0,1	22,186372
2,054167	0,1	22,125071
2,055833	0,1	22,008174
2,057500	0,1	21,896844
2,059167	0,1	21,823471
2,060833	0,1	21,769328
2,062500	0,1	21,680896
2,064167	0,1	21,539729
2,065833	0,1	21,482401
2,067500	0,1	21,440340
2,069167	0,1	21,342958
2,070833	0,1	21,250561
2,072500	0,1	21,181520
2,074167	0,1	21,080179
2,075833	0,1	21,024299
2,077500	0,1	20,913300
2,079167	0,1	20,883228
2,080833	0,1	20,801483
2,082500	0,1	20,738572
2,084167	0,1	20,688985
2,085833	0,1	20,629795
2,087500	0,1	20,560320
2,089167	0,1	20,449359
2,090833	0,1	20,404430
2,092500	0,1	20,366663
2,094167	0,1	20,315044
2,095833	0,1	20,237373
2,097500	0,1	20,127073
2,099167	0,1	20,054768
2,100833	0,1	20,036848
2,102500	0,1	19,944455
2,104167	0,1	19,876744
2,105833	0,1	19,845874
2,107500	0,1	19,755277
2,109167	0,1	19,697287
2,110833	0,1	19,637314
2,112500	0,1	19,614533
2,114167	0,1	19,484502
2,115833	0,1	19,450026
2,117500	0,1	19,356802
2,119167	0,1	19,279454
2,120833	0,1	19,229374
2,122500	0,1	19,143178
2,124167	0,1	19,104793
2,125833	0,1	18,988849
2,127500	0,1	18,885709
2,129167	0,1	18,864120
2,130833	0,1	18,789867
2,132500	0,1	18,711283
2,134167	0,1	18,608398
2,135833	0,1	18,553104
2,137500	0,1	18,433760
2,139167	0,1	18,376469
2,140833	0,1	18,308632
2,142500	0,1	18,229534
2,144167	0,1	18,185433
2,145833	0,1	18,062667
2,147500	0,1	18,006998
2,149167	0,1	17,940969
2,150833	0,1	17,870334
2,152500	0,1	17,733224
2,154167	0,1	17,678977
2,155833	0,1	17,608564
2,157500	0,1	17,501995
2,159167	0,1	17,427734
2,160833	0,1	17,306962
2,162500	0,1	17,259922
2,164167	0,1	17,192734
2,165833	0,1	17,095185
2,167500	0,1	17,012628
2,169167	0,1	16,914102
2,170833	0,1	16,815869
2,172500	0,1	16,741488
2,174167	0,1	16,634386
2,175833	0,1	16,606130
2,177500	0,1	16,489303
2,179167	0,1	16,449919
2,180833	0,1	16,347313
2,182500	0,1	16,241387
2,184167	0,1	16,178635
2,185833	0,1	16,062634
2,187500	0,1	15,977307
2,189167	0,1	15,891503
2,190833	0,1	15,748833
2,192500	0,1	15,743703
2,194167	0,1	15,636184
2,195833	0,1	15,564067
2,197500	0,1	15,445907
2,199167	0,1	15,394097
2,200833	0,1	15,338964
2,202500	0,1	15,213136
2,204167	0,1	15,162553
2,205833	0,1	15,089853
2,207500	0,1	14,985686
2,209167	0,1	14,881283
2,210833	0,1	14,828870
2,212500	0,1	14,723183
2,214167	0,1	14,643608
2,215833	0,1	14,564850
2,217500	0,1	14,493312
2,219167	0,1	14,402861
2,220833	0,1	14,332696
2,222500	0,1	14,268127
2,224167	0,1	14,194380
2,225833	0,1	14,120999
2,227500	0,1	14,042607
2,229167	0,1	13,990241
2,230833	0,1	13,886855
2,232500	0,1	13,792880
2,234167	0,1	13,755149
2,235833	0,1	13,648885
2,237500	0,1	13,636155
2,239167	0,1	13,539192
2,240833	0,1	13,486554
2,242500	0,1	13,427327
2,244167	0,1	13,305065
2,245833	0,1	13,258343
2,247500	0,1	13,242935
2,249167	0,1	13,127596
2,250833	0,1	13,059819
2,252500	0,1	13,011567
2,254167	0,1	12,971640
2,255833	0,1	12,900046
2,257500	0,1	12,808061
2,259167	0,1	12,759128
2,260833	0,1	12,684663
2,262500	0,1	12,653153
2,264167	0,1	12,614374
2,265833	0,1	12,537459
2,267500	0,1	12,458412
2,269167	0,1	12,461828
2,270833	0,1	12,381212
2,272500	0,1	12,320863
2,274167	0,1	12,261883
2,275833	0,1	12,250096
2,277500	0,1	12,175208
2,279167	0,1	12,103357
2,280833	0,1	12,059601
2,282500	0,1	12,028840
2,284167	0,1	11,998154
2,285833	0,1	11,909197
2,287500	0,1	11,878290
2,289167	0,1	11,850720
2,290833	0,1	11,795935
2,292500	0,1	11,748242
2,294167	0,1	11,692495
2,295833	0,1	11,689756
2,297500	0,1	11,597803
2,299167	0,1	11,601516
2,300833	0,1	11,548212
2,302500	0,1	11,490077
2,304167	0,1	11,463921
2,305833	0,1	11,438748
2,307500	0,1	11,410738
2,309167	0,1	11,330535
2,310833	0,1	11,268699
2,312500	0,1	11,276493
2,314167	0,1	11,243255
2,315833	0,1	11,192473
2,317500	0,1	11,206224
2,319167	0,1	11,166146
2,320833	0,1	11,130842
2,322500	0,1	11,092007
2,324167	0,1	11,043249
2,325833	0,1	11,003505
2,327500	0,1	11,040172
2,329167	0,1	10,940480
2,330833	0,1	10,962824
2,332500	0,1	10,910697
2,334167	0,1	10,877048
2,335833	0,1	10,849283
2,337500	0,1	10,846998
2,339167	0,1	10,798022
2,340833	0,1	10,792229
2,342500	0,1	10,798170
2,344167	0,1	10,772215
2,345833	0,1	10,780177
2,347500	0,1	10,751631
2,349167	0,1	10,704478
2,350833	0,1	10,689125
2,352500	0,1	10,731577
2,354167	0,1	10,686311
2,355833	0,1	10,682340
2,357500	0,1	10,695332
2,359167	0,1	10,646009
2,360833	0,1	10,650149
2,362500	0,1	10,649537
2,364167	0,1	10,631460
2,365833	0,1	10,658998
2,367500	0,1	10,694102
2,369167	0,1	10,676676
2,370833	0,1	10,690145
2,372500	0,1	10,757710
2,374167	0,1	10,716863
2,375833	0,1	10,792255
2,377500	0,1	10,808893
2,379167	0,1	10,831323
2,380833	0,1	10,865509
2,382500	0,1	10,876696
2,384167	0,1	10,893915
2,385833	0,1	10,977980
2,387500	0,1	10,989961
2,389167	0,1	11,042193
2,390833	0,1	11,116247
2,392500	0,1	11,172922
2,394167	0,1	11,275512
2,395833	0,1	11,312933
2,397500	0,1	11,384415
2,399167	0,1	11,419982
2,400833	0,1	11,474991
2,402500	0,1	11,587402
2,404167	0,1	11,679071
2,405833	0,1	11,760977
2,407500	0,1	11,855643
2,409167	0,1	11,948221
2,410833	0,1	12,029780
2,412500	0,1	12,139270
2,414167	0,1	12,267772
2,415833	0,1	12,316258
2,417500	0,1	12,449528
2,419167	0,1	12,528654
2,420833	0,1	12,644332
2,422500	0,1	12,734600
2,424167	0,1	12,857823
2,425833	0,1	12,971063
2,427500	0,1	13,065080
2,429167	0,1	13,214172
2,430833	0,1	13,277702
2,432500	0,1	13,394960
2,434167	0,1	13,506628
2,435833	0,1	13,586659
2,437500	0,1	13,728400
2,439167	0,1	13,815081
2,440833	0,1	13,890170
2,442500	0,1	14,059077
2,444167	0,1	14,115914
2,445833	0,1	14,209769
2,447500	0,1	14,279523
2,449167	0,1	14,402420
2,450833	0,1	14,400981
2,452500	0,1	14,509790
2,454167	0,1	14,551889
2,455833	0,1	14,683284
2,457500	0,1	14,709160
2,459167	0,1	14,761924
2,460833	0,1	14,773132
2,462500	0,1	14,858427
2,464167	0,1	14,859379
2,465833	0,1	14,892174
2,467500	0,1	14,953378
2,469167	0,1	14,981256
2,470833	0,1	15,017531
2,472500	0,1	14,984869
2,474167	0,1	15,014063
2,475833	0,1	14,984733
2,477500	0,1	14,973929
2,479167	0,1	15,021801
2,480833	0,1	14,968609
2,482500	0,1	14,954329
2,484167	0,1	14,950188
2,485833	0,1	14,883272
2,487500	0,1	14,928845
2,489167	0,1	14,844344
2,490833	0,1	14,817803
2,492500	0,1	14,762748
2,494167	0,1	14,693834
2,495833	0,1	14,673168
2,497500	0,1	14,591225
2,499167	0,1	14,558574
2,500833	0,1	14,507308
2,502500	0,1	14,462392
2,504167	0,1	14,422874
2,505833	0,1	14,322709
2,507500	0,1	14,213921
2,509167	0,1	14,161067
2,510833	0,1	14,122077
2,512500	0,1	14,056063
2,514167	0,1	13,953614
2,515833	0,1	13,865413
2,517500	0,1	13,740057
2,519167	0,1	13,701736
2,520833	0,1	13,600754
2,522500	0,1	13,514741
2,524167	0,1	13,429415
2,525833	0,1	13,375466
2,527500	0,1	13,261533
2,529167	0,1	13,161003
2,530833	0,1	13,090843
2,532500	0,1	12,999629
2,534167	0,1	12,887201
2,535833	0,1	12,772559
2,537500	0,1	12,747501
2,539167	0,1	12,608362
2,540833	0,1	12,516816
2,542500	0,1	12,398938
2,544167	0,1	12,332975
2,545833	0,1	12,228523
2,547500	0,1	12,122545
2,549167	0,1	12,046733
2,550833	0,1	11,962561
2,552500	0,1	11,876623
2,554167	0,1	11,750129
2,555833	0,1	11,690005
2,557500	0,1	11,567101
2,559167	0,1	11,442234
2,560833	0,1	11,363679
2,562500	0,1	11,266525
2,564167	0,1	11,181014
2,565833	0,1	11,107962
2,567500	0,1	10,966827
2,569167	0,1	10,872395
2,570833	0,1	10,798076
2,572500	0,1	10,700415
2,574167	0,1	10,603140
2,575833	0,1	10,582821
2,577500	0,1	10,454969
2,579167	0,1	10,363530
2,580833	0,1	10,275338
2,582500	0,1	10,175761
2,584167	0,1	10,080639
2,585833	0,1	9,989494
2,587500	0,1	9,909406
2,589167	0,1	9,909995
2,590833	0,1	9,774384
2,592500	0,1	9,670946
2,594167	0,1	9,619459
2,595833	0,1	9,490395
2,597500	0,1	9,419767
2,599167	0,1	9,353403
2,600833	0,1	9,234680
2,602500	0,1	9,181786
2,604167	0,1	9,090452
2,605833	0,1	9,049617
2,607500	0,1	8,985587
2,609167	0,1	8,882906
2,610833	0,1	8,824655
2,612500	0,1	8,743836
2,614167	0,1	8,653800
2,615833	0,1	8,626601
2,617500	0,1	8,535208
2,619167	0,1	8,511547
2,620833	0,1	8,416980
2,622500	0,1	8,341307
2,624167	0,1	8,279885
2,625833	0,1	8,218697
2,627500	0,1	8,129685
2,629167	0,1	8,099628
2,630833	0,1	8,008497
2,632500	0,1	7,929831
2,634167	0,1	7,943562
2,635833	0,1	7,827834
2,637500	0,1	7,776460
2,639167	0,1	7,694019
2,640833	0,1	7,663944
2,642500	0,1	7,607622
2,644167	0,1	7,552383
2,645833	0,1	7,500063
2,647500	0,1	7,423963
2,649167	0,1	7,338965
2,650833	0,1	7,348294
2,652500	0,1	7,242138
2,654167	0,1	7,195858
2,655833	0,1	7,157143
2,657500	0,1	7,085384
2,659167	0,1	7,048793
2,660833	0,1	7,000533
2,662500	0,1	6,969306
2,664167	0,1	6,942939
2,665833	0,1	6,871238
2,667500	0,1	6,824479
2,669167	0,1	6,746809
2,670833	0,1	6,736032
2,672500	0,1	6,662027
2,674167	0,1	6,631651
2,675833	0,1	6,620240
2,677500	0,1	6,555038
2,679167	0,1	6,513184
2,680833	0,1	6,443784
2,682500	0,1	6,417061
2,684167	0,1	6,374570
2,685833	0,1	6,335812
2,687500	0,1	6,297249
2,689167	0,1	6,229934
2,690833	0,1	6,231605
2,692500	0,1	6,201548
2,694167	0,1	6,153763
2,695833	0,1	6,149364
2,697500	0,1	6,060155
2,699167	0,1	6,049412
2,700833	0,1	5,990255
2,702500	0,1	5,980072
2,704167	0,1	5,925327
2,705833	0,1	5,915424
2,707500	0,1	5,913947
2,709167	0,1	5,799498
2,710833	0,1	5,807030
2,712500	0,1	5,808634
2,714167	0,1	5,771125
2,715833	0,1	5,698404
2,717500	0,1	5,701740
2,719167	0,1	5,671083
2,720833	0,1	5,650837
2,722500	0,1	5,644419
2,724167	0,1	5,577389
2,725833	0,1	5,592198
2,727500	0,1	5,586600
2,729167	0,1	5,543105
2,730833	0,1	5,492833
2,732500	0,1	5,507081
2,734167	0,1	5,461530
2,735833	0,1	5,457710
2,737500	0,1	5,433681
2,739167	0,1	5,426858
2,740833	0,1	5,348238
2,742500	0,1	5,367335
2,744167	0,1	5,350549
2,745833	0,1	5,313366
2,747500	0,1	5,323434
2,749167	0,1	5,303226
2,750833	0,1	5,241765
2,752500	0,1	5,274238
2,754167	0,1	5,233266
2,755833	0,1	5,219463
2,757500	0,1	5,170311
2,759167	0,1	5,169064
2,760833	0,1	5,168520
2,762500	0,1	5,165717
2,764167	0,1	5,159287
2,765833	0,1	5,141181
2,767500	0,1	5,144010
2,769167	0,1	5,110511
2,770833	0,1	5,127447
2,772500	0,1	5,090624
2,774167	0,1	5,069182
2,775833	0,1	5,048462
2,777500	0,1	5,018026
2,779167	0,1	5,039152
2,780833	0,1	5,003840
2,782500	0,1	5,004529
2,784167	0,1	5,019642
2,785833	0,1	4,966331
2,787500	0,1	4,976419
2,789167	0,1	4,931775
2,790833	0,1	4,957734
2,792500	0,1	4,920610
2,794167	0,1	4,920515
2,795833	0,1	4,900365
2,797500	0,1	4,929519
2,799167	0,1	4,878025
2,800833	0,1	4,895101
2,802500	0,1	4,899772
2,804167	0,1	4,867751
2,805833	0,1	4,819723
2,807500	0,1	4,836320
2,809167	0,1	4,814049
2,810833	0,1	4,831519
2,812500	0,1	4,789036
2,814167	0,1	4,789663
2,815833	0,1	4,774121
2,817500	0,1	4,725908
2,819167	0,1	4,764323
2,820833	0,1	4,698365
2,822500	0,1	4,740633
2,824167	0,1	4,703310
2,825833	0,1	4,658576
2,827500	0,1	4,695244
2,829167	0,1	4,667345
2,830833	0,1	4,632477
2,832500	0,1	4,641523
2,834167	0,1	4,627058
2,835833	0,1	4,635492
2,837500	0,1	4,614295
2,839167	0,1	4,573315
2,840833	0,1	4,561137
2,842500	0,1	4,547663
2,844167	0,1	4,554393
2,845833	0,1	4,500748
2,847500	0,1	4,462963
2,849167	0,1	4,480864
2,850833	0,1	4,512924
2,852500	0,1	4,426304
2,854167	0,1	4,403422
2,855833	0,1	4,415074
2,857500	0,1	4,446762
2,859167	0,1	4,407336
2,860833	0,1	4,393520
2,862500	0,1	4,349049
2,864167	0,1	4,383097
2,865833	0,1	4,296469
2,867500	0,1	4,310277
2,869167	0,1	4,301581
2,870833	0,1	4,305366
2,872500	0,1	4,288455
2,874167	0,1	4,280584
2,875833	0,1	4,217643
2,877500	0,1	4,219012
2,879167	0,1	4,257048
2,880833	0,1	4,211050
2,882500	0,1	4,150916
2,884167	0,1	4,140282
2,885833	0,1	4,113788
2,887500	0,1	4,103530
2,889167	0,1	4,069368
2,890833	0,1	4,083647
2,892500	0,1	4,085153
2,894167	0,1	4,035074
2,895833	0,1	4,022830
2,897500	0,1	4,014092
2,899167	0,1	3,983704
2,900833	0,1	3,973984
2,902500	0,1	3,948834
2,904167	0,1	3,944728
2,905833	0,1	3,948827
2,907500	0,1	3,965644
2,909167	0,1	3,932136
2,910833	0,1	3,914334
2,912500	0,1	3,869178
2,914167	0,1	3,861034
2,915833	0,1	3,836422
2,917500	0,1	3,846163
2,919167	0,1	3,806777
2,920833	0,1	3,837663
2,922500	0,1	3,764342
2,924167	0,1	3,728190
2,925833	0,1	3,713607
2,927500	0,1	3,683318
2,929167	0,1	3,715826
2,930833	0,1	3,713154
2,932500	0,1	3,647471
2,934167	0,1	3,651433
2,935833	0,1	3,634385
2,937500	0,1	3,646926
2,939167	0,1	3,655534
2,940833	0,1	3,593960
2,942500	0,1	3,610873
2,944167	0,1	3,551050
2,945833	0,1	3,557933
2,947500	0,1	3,570235
2,949167	0,1	3,495892
2,950833	0,1	3,510726
2,952500	0,1	3,498474
2,954167	0,1	3,456593
2,955833	0,1	3,458209
2,957500	0,1	3,466527
2,959167	0,1	3,471765
2,960833	0,1	3,494408
2,962500	0,1	3,410990
2,964167	0,1	3,426966
2,965833	0,1	3,427328
2,967500	0,1	3,366952
2,969167	0,1	3,352143
2,970833	0,1	3,329493
2,972500	0,1	3,348276
2,974167	0,1	3,311048
2,975833	0,1	3,301588
2,977500	0,1	3,288152
2,979167	0,1	3,283619
2,980833	0,1	3,273791
2,982500	0,1	3,247992
2,984167	0,1	3,214845
2,985833	0,1	3,243038
2,987500	0,1	3,242600
2,989167	0,1	3,193813
2,990833	0,1	3,213107
2,992500	0,1	3,201686
2,994167	0,1	3,206368
2,995833	0,1	3,185623
2,997500	0,1	3,186724
2,999167	0,1	3,140314
3,000833	0,1	3,112821
3,002500	0,1	3,120000
3,004167	0,1	3,112218
3,005833	0,1	3,083735
3,007500	0,1	3,081024
3,009167	0,1	3,064061
3,010833	0,1	3,065138
3,012500	0,1	3,067477
3,014167	0,1	3,057257
3,015833	0,1	3,048952
3,017500	0,1	3,032293
3,019167	0,1	3,023031
3,020833	0,1	3,036799
3,022500	0,1	3,004298
3,024167	0,1	2,994254
3,025833	0,1	2,989790
3,027500	0,1	2,973991
3,029167	0,1	2,964987
3,030833	0,1	2,949397
3,032500	0,1	2,964229
3,034167	0,1	2,916951
3,035833	0,1	2,908328
3,037500	0,1	2,937245
3,039167	0,1	2,894407
3,040833	0,1	2,907078
3,042500	0,1	2,936078
3,044167	0,1	2,873660
3,045833	0,1	2,898049
3,047500	0,1	2,830214
3,049167	0,1	2,900969
3,050833	0,1	2,852102
3,052500	0,1	2,908779
3,054167	0,1	2,851634
3,055833	0,1	2,856966
3,057500	0,1	2,827407
3,059167	0,1	2,838780
3,060833	0,1	2,846900
3,062500	0,1	2,810497
3,064167	0,1	2,853326
3,065833	0,1	2,783506
3,067500	0,1	2,813461
3,069167	0,1	2,757779
3,070833	0,1	2,809050
3,072500	0,1	2,834472
3,074167	0,1	2,812777
3,075833	0,1	2,803097
3,077500	0,1	2,815982
3,079167	0,1	2,834190
3,080833	0,1	2,786094
3,082500	0,1	2,810120
3,084167	0,1	2,823817
3,085833	0,1	2,842333
3,087500	0,1	2,827610
3,089167	0,1	2,789875
3,090833	0,1	2,811882
3,092500	0,1	2,805612
3,094167	0,1	2,768456
3,095833	0,1	2,779442
3,097500	0,1	2,782840
3,099167	0,1	2,796710
3,100833	0,1	2,818728
3,102500	0,1	2,818449
3,104167	0,1	2,820394
3,105833	0,1	2,823742
3,107500	0,1	2,827033
3,109167	0,1	2,859631
3,110833	0,1	2,869130
3,112500	0,1	2,872918
3,114167	0,1	2,884302
3,115833	0,1	2,881454
3,117500	0,1	2,960712
3,119167	0,1	2,874936
3,120833	0,1	2,950439
3,122500	0,1	2,929682
3,124167	0,1	2,931984
3,125833	0,1	2,983291
3,127500	0,1	3,011218
3,129167	0,1	3,004426
3,130833	0,1	3,065045
3,132500	0,1	3,010773
3,134167	0,1	3,051976
3,135833	0,1	3,126139
3,137500	0,1	3,077123
3,139167	0,1	3,140051
3,140833	0,1	3,150604
3,142500	0,1	3,182698
3,144167	0,1	3,184715
3,145833	0,1	3,197043
3,147500	0,1	3,227779
3,149167	0,1	3,257203
3,150833	0,1	3,251847
3,152500	0,1	3,245105
3,154167	0,1	3,286475
3,155833	0,1	3,328679
3,157500	0,1	3,322964
3,159167	0,1	3,358339
3,160833	0,1	3,340687
3,162500	0,1	3,401671
3,164167	0,1	3,382115
3,165833	0,1	3,421189
3,167500	0,1	3,457471
3,169167	0,1	3,456503
3,170833	0,1	3,476876
3,172500	0,1	3,458462
3,174167	0,1	3,467986
3,175833	0,1	3,482030
3,177500	0,1	3,527079
3,179167	0,1	3,492957
3,180833	0,1	3,525655
3,182500	0,1	3,509430
3,184167	0,1	3,545384
3,185833	0,1	3,542227
3,187500	0,1	3,551559
3,189167	0,1	3,552008
3,190833	0,1	3,564349
3,192500	0,1	3,506967
3,194167	0,1	3,560076
3,195833	0,1	3,549574
3,197500	0,1	3,582286
3,199167	0,1	3,561067
3,200833	0,1	3,539795
3,202500	0,1	3,615200
3,204167	0,1	3,606125
3,205833	0,1	3,555797
3,207500	0,1	3,541055
3,209167	0,1	3,542637
3,210833	0,1	3,567389
3,212500	0,1	3,546700
3,214167	0,1	3,518977
3,215833	0,1	3,534714
3,217500	0,1	3,522826
3,219167	0,1	3,524326
3,220833	0,1	3,514019
3,222500	0,1	3,497010
3,224167	0,1	3,483136
3,225833	0,1	3,488080
3,227500	0,1	3,487995
3,229167	0,1	3,438619
3,230833	0,1	3,481294
3,232500	0,1	3,445151
3,234167	0,1	3,430097
3,235833	0,1	3,393005
3,237500	0,1	3,386915
3,239167	0,1	3,355589
3,240833	0,1	3,390674
3,242500	0,1	3,328933
3,244167	0,1	3,345883
3,245833	0,1	3,339763
3,247500	0,1	3,286373
3,249167	0,1	3,284016
3,250833	0,1	3,266574
3,252500	0,1	3,273581
3,254167	0,1	3,253434
3,255833	0,1	3,206758
3,257500	0,1	3,189134
3,259167	0,1	3,178591
3,260833	0,1	3,153240
3,262500	0,1	3,182634
3,264167	0,1	3,099525
3,265833	0,1	3,131989
3,267500	0,1	3,100240
3,269167	0,1	3,117353
3,270833	0,1	3,044092
3,272500	0,1	3,050973
3,274167	0,1	3,005033
3,275833	0,1	3,016304
3,277500	0,1	2,984217
3,279167	0,1	2,971581
3,280833	0,1	3,010589
3,282500	0,1	2,947956
3,284167	0,1	2,919435
3,285833	0,1	2,902053
3,287500	0,1	2,903813
3,289167	0,1	2,865872
3,290833	0,1	2,866174
3,292500	0,1	2,870219
3,294167	0,1	2,784938
3,295833	0,1	2,819064
3,297500	0,1	2,759540
3,299167	0,1	2,754887
3,300833	0,1	2,753666
3,302500	0,1	2,751413
3,304167	0,1	2,668119
3,305833	0,1	2,656171
3,307500	0,1	2,661505
3,309167	0,1	2,677534
3,310833	0,1	2,656361
3,312500	0,1	2,635850
3,314167	0,1	2,667213
3,315833	0,1	2,631352
3,317500	0,1	2,562629
3,319167	0,1	2,594111
3,320833	0,1	2,600179
3,322500	0,1	2,579161
3,324167	0,1	2,567057
3,325833	0,1	2,525746
3,327500	0,1	2,481116
3,329167	0,1	2,507739
3,330833	0,1	2,491056
3,332500	0,1	2,494443
3,334167	0,1	2,447848
3,335833	0,1	2,447129
3,337500	0,1	2,465324
3,339167	0,1	2,409493
3,340833	0,1	2,410624
3,342500	0,1	2,434394
3,344167	0,1	2,376023
3,345833	0,1	2,404107
3,347500	0,1	2,327676
3,349167	0,1	2,349085
3,350833	0,1	2,334799
3,352500	0,1	2,333470
3,354167	0,1	2,325687
3,355833	0,1	2,368754
3,357500	0,1	2,306676
3,359167	0,1	2,279120
3,360833	0,1	2,313371
3,362500	0,1	2,314403
3,364167	0,1	2,305189
3,365833	0,1	2,288666
3,367500	0,1	2,299806
3,369167	0,1	2,242323
3,370833	0,1	2,233261
3,372500	0,1	2,284798
3,374167	0,1	2,254272
3,375833	0,1	2,256555
3,377500	0,1	2,207505
3,379167	0,1	2,242514
3,380833	0,1	2,232026
3,382500	0,1	2,231526
3,384167	0,1	2,191341
3,385833	0,1	2,250911
3,387500	0,1	2,176148
3,389167	0,1	2,192100
3,390833	0,1	2,179008
3,392500	0,1	2,196172
3,394167	0,1	2,206918
3,395833	0,1	2,200373
3,397500	0,1	2,186703
3,399167	0,1	2,153702
3,400833	0,1	2,176410
3,402500	0,1	2,195898
3,404167	0,1	2,179507
3,405833	0,1	2,158930
3,407500	0,1	2,148443
3,409167	0,1	2,149000
3,410833	0,1	2,146910
3,412500	0,1	2,142689
3,414167	0,1	2,165966
3,415833	0,1	2,154131
3,417500	0,1	2,146115
3,419167	0,1	2,128874
3,420833	0,1	2,092055
3,422500	0,1	2,104404
3,424167	0,1	2,120088
3,425833	0,1	2,107563
3,427500	0,1	2,125480
3,429167	0,1	2,101390
3,430833	0,1	2,126411
3,432500	0,1	2,097888
3,434167	0,1	2,082839
3,435833	0,1	2,079727
3,437500	0,1	2,094334
3,439167	0,1	2,044444
3,440833	0,1	2,050673
3,442500	0,1	2,054779
3,444167	0,1	2,094403
3,445833	0,1	2,083114
3,447500	0,1	2,040559
3,449167	0,1	2,054277
3,450833	0,1	2,022241
3,452500	0,1	2,050890
3,454167	0,1	2,038103
3,455833	0,1	2,016395
3,457500	0,1	2,020336
3,459167	0,1	2,029895
3,460833	0,1	2,060173
3,462500	0,1	2,033927
3,464167	0,1	1,997114
3,465833	0,1	2,018039
3,467500	0,1	2,022851
3,469167	0,1	2,002140
3,470833	0,1	1,967999
3,472500	0,1	1,988335
3,474167	0,1	1,990207
3,475833	0,1	2,008388
3,477500	0,1	2,014641
3,479167	0,1	1,979141
3,480833	0,1	1,924730
3,482500	0,1	2,001164
3,484167	0,1	1,933931
3,485833	0,1	1,947847
3,487500	0,1	1,979256
3,489167	0,1	1,917812
3,490833	0,1	1,922260
3,492500	0,1	1,893079
3,494167	0,1	1,938354
3,495833	0,1	1,918678
3,497500	0,1	1,918026
3,499167	0,1	1,900046
3,500833	0,1	1,915779
3,502500	0,1	1,932537
3,504167	0,1	1,894087
3,505833	0,1	1,904215
3,507500	0,1	1,913848
3,509167	0,1	1,886962
3,510833	0,1	1,894930
3,512500	0,1	1,924475
3,514167	0,1	1,898466
3,515833	0,1	1,822509
3,517500	0,1	1,841967
3,519167	0,1	1,830820
3,520833	0,1	1,885347
3,522500	0,1	1,830330
3,524167	0,1	1,856473
3,525833	0,1	1,827020
3,527500	0,1	1,833549
3,529167	0,1	1,825289
3,530833	0,1	1,818604
3,532500	0,1	1,813289
3,534167	0,1	1,795100
3,535833	0,1	1,817957
3,537500	0,1	1,833182
3,539167	0,1	1,824350
3,540833	0,1	1,822189
3,542500	0,1	1,790572
3,544167	0,1	1,812261
3,545833	0,1	1,803007
3,547500	0,1	1,807886
3,549167	0,1	1,767863
3,550833	0,1	1,764841
3,552500	0,1	1,757444
3,554167	0,1	1,760312
3,555833	0,1	1,759808
3,557500	0,1	1,768792
3,559167	0,1	1,807739
3,560833	0,1	1,750985
3,562500	0,1	1,756495
3,564167	0,1	1,768136
3,565833	0,1	1,692853
3,567500	0,1	1,715961
3,569167	0,1	1,723013
3,570833	0,1	1,676535
3,572500	0,1	1,698574
3,574167	0,1	1,689527
3,575833	0,1	1,693119
3,577500	0,1	1,699156
3,579167	0,1	1,703611
3,580833	0,1	1,703684
3,582500	0,1	1,703970
3,584167	0,1	1,690898
3,585833	0,1	1,685574
3,587500	0,1	1,683564
3,589167	0,1	1,708061
3,590833	0,1	1,686152
3,592500	0,1	1,654540
3,594167	0,1	1,630616
3,595833	0,1	1,662570
3,597500	0,1	1,630546
3,599167	0,1	1,673420
3,600833	0,1	1,604402
3,602500	0,1	1,638145
3,604167	0,1	1,606119
3,605833	0,1	1,665800
3,607500	0,1	1,645198
3,609167	0,1	1,647422
3,610833	0,1	1,570497
3,612500	0,1	1,588647
3,614167	0,1	1,635627
3,615833	0,1	1,590099
3,617500	0,1	1,612065
3,619167	0,1	1,574293
3,620833	0,1	1,560999
3,622500	0,1	1,580386
3,624167	0,1	1,604452
3,625833	0,1	1,614010
3,627500	0,1	1,595766
3,629167	0,1	1,544127
3,630833	0,1	1,549069
3,632500	0,1	1,564153
3,634167	0,1	1,567243
3,635833	0,1	1,554821
3,637500	0,1	1,550436
3,639167	0,1	1,559196
3,640833	0,1	1,535211
3,642500	0,1	1,539731
3,644167	0,1	1,541240
3,645833	0,1	1,546628
3,647500	0,1	1,553235
3,649167	0,1	1,504117
3,650833	0,1	1,501303
3,652500	0,1	1,499077
3,654167	0,1	1,504321
3,655833	0,1	1,516026
3,657500	0,1	1,516889
3,659167	0,1	1,471723
3,660833	0,1	1,496127
3,662500	0,1	1,496853
3,664167	0,1	1,501305
3,665833	0,1	1,448813
3,667500	0,1	1,497200
3,669167	0,1	1,527227
3,670833	0,1	1,467274
3,672500	0,1	1,488729
3,674167	0,1	1,463459
3,675833	0,1	1,476595
3,677500	0,1	1,455202
3,679167	0,1	1,481545
3,680833	0,1	1,424542
3,682500	0,1	1,454686
3,684167	0,1	1,459362
3,685833	0,1	1,452826
3,687500	0,1	1,455624
3,689167	0,1	1,445432
3,690833	0,1	1,414912
3,692500	0,1	1,463873
3,694167	0,1	1,448662
3,695833	0,1	1,428199
3,697500	0,1	1,419360
3,699167	0,1	1,443128
3,700833	0,1	1,415350
3,702500	0,1	1,431496
3,704167	0,1	1,432574
3,705833	0,1	1,398981
3,707500	0,1	1,393936
3,709167	0,1	1,418636
3,710833	0,1	1,411462
3,712500	0,1	1,411317
3,714167	0,1	1,386909
3,715833	0,1	1,384601
3,717500	0,1	1,415978
3,719167	0,1	1,404788
3,720833	0,1	1,435870
3,722500	0,1	1,377868
3,724167	0,1	1,361413
3,725833	0,1	1,388116
3,727500	0,1	1,378935
3,729167	0,1	1,392288
3,730833	0,1	1,398390
3,732500	0,1	1,396169
3,734167	0,1	1,379004
3,735833	0,1	1,387257
3,737500	0,1	1,378497
3,739167	0,1	1,352155
3,740833	0,1	1,397375
3,742500	0,1	1,371542
3,744167	0,1	1,347482
3,745833	0,1	1,424374
3,747500	0,1	1,431927
3,749167	0,1	1,412830
3,750833	0,1	1,416127
3,752500	0,1	1,439972
3,754167	0,1	1,376719
3,755833	0,1	1,398459
3,757500	0,1	1,408664
3,759167	0,1	1,407013
3,760833	0,1	1,405141
3,762500	0,1	1,404570
3,764167	0,1	1,397174
3,765833	0,1	1,378362
3,767500	0,1	1,419638
3,769167	0,1	1,411250
3,770833	0,1	1,395379
3,772500	0,1	1,389203
3,774167	0,1	1,399468
3,775833	0,1	1,411243
3,777500	0,1	1,398685
3,779167	0,1	1,396815
3,780833	0,1	1,396240
3,782500	0,1	1,376206
3,784167	0,1	1,388193
3,785833	0,1	1,423375
3,787500	0,1	1,416205
3,789167	0,1	1,429269
3,790833	0,1	1,447440
3,792500	0,1	1,397686
3,794167	0,1	1,392650
3,795833	0,1	1,396809
3,797500	0,1	1,384748
3,799167	0,1	1,409582
3,800833	0,1	1,399321
3,802500	0,1	1,398032
3,804167	0,1	1,386040
3,805833	0,1	1,411530
3,807500	0,1	1,395237
3,809167	0,1	1,404492
3,810833	0,1	1,414044
3,812500	0,1	1,417418
3,814167	0,1	1,409596
3,815833	0,1	1,372404
3,817500	0,1	1,386181
3,819167	0,1	1,457119
3,820833	0,1	1,354112
3,822500	0,1	1,410231
3,824167	0,1	1,410742
3,825833	0,1	1,388774
3,827500	0,1	1,390774
3,829167	0,1	1,407151
3,830833	0,1	1,404997
3,832500	0,1	1,398109
3,834167	0,1	1,382454
3,835833	0,1	1,406503
3,837500	0,1	1,378367
3,839167	0,1	1,398460
3,840833	0,1	1,404137
3,842500	0,1	1,360274
3,844167	0,1	1,385391
3,845833	0,1	1,350295
3,847500	0,1	1,368298
3,849167	0,1	1,354884
3,850833	0,1	1,388115
3,852500	0,1	1,378942
3,854167	0,1	1,367732
3,855833	0,1	1,384674
3,857500	0,1	1,397820
3,859167	0,1	1,411966
3,860833	0,1	1,366595
3,862500	0,1	1,350070
3,864167	0,1	1,358039
3,865833	0,1	1,354309
3,867500	0,1	1,331411
3,869167	0,1	1,317763
3,870833	0,1	1,350492
3,872500	0,1	1,350074
3,874167	0,1	1,358396
3,875833	0,1	1,325448
3,877500	0,1	1,318192
3,879167	0,1	1,300457
3,880833	0,1	1,350852
3,882500	0,1	1,312751
3,884167	0,1	1,323933
3,885833	0,1	1,300397
3,887500	0,1	1,326446
3,889167	0,1	1,311308
3,890833	0,1	1,300610
3,892500	0,1	1,339584
3,894167	0,1	1,303120
3,895833	0,1	1,340225
3,897500	0,1	1,286543
3,899167	0,1	1,312440
3,900833	0,1	1,248780
3,902500	0,1	1,294707
3,904167	0,1	1,247841
3,905833	0,1	1,260043
3,907500	0,1	1,264849
3,909167	0,1	1,257964
3,910833	0,1	1,290343
3,912500	0,1	1,274192
3,914167	0,1	1,262762
3,915833	0,1	1,272466
3,917500	0,1	1,234643
3,919167	0,1	1,244322
3,920833	0,1	1,233262
3,922500	0,1	1,224581
3,924167	0,1	1,236926
3,925833	0,1	1,213538
3,927500	0,1	1,210430
3,929167	0,1	1,231680
3,930833	0,1	1,215763
3,932500	0,1	1,189764
3,934167	0,1	1,203623
3,935833	0,1	1,206912
3,937500	0,1	1,166156
3,939167	0,1	1,197019
3,940833	0,1	1,219763
3,942500	0,1	1,179371
3,944167	0,1	1,167658
3,945833	0,1	1,221995
3,947500	0,1	1,165094
3,949167	0,1	1,165866
3,950833	0,1	1,189690
3,952500	0,1	1,166664
3,954167	0,1	1,157767
3,955833	0,1	1,167022
3,957500	0,1	1,102645
3,959167	0,1	1,147131
3,960833	0,1	1,155186
3,962500	0,1	1,134292
3,964167	0,1	1,127760
3,965833	0,1	1,155897
3,967500	0,1	1,147283
3,969167	0,1	1,152736
3,970833	0,1	1,121097
3,972500	0,1	1,123453
3,974167	0,1	1,141394
3,975833	0,1	1,111183
3,977500	0,1	1,107458
3,979167	0,1	1,133781
3,980833	0,1	1,124897
3,982500	0,1	1,158768
3,984167	0,1	1,124544
3,985833	0,1	1,117513
3,987500	0,1	1,084781
3,989167	0,1	1,093307
3,990833	0,1	1,124748
3,992500	0,1	1,117852
3,994167	0,1	1,072514
3,995833	0,1	1,110318
3,997500	0,1	1,129052
3,999167	0,1	1,076827
4,000833	0,1	1,053584
4,002500	0,1	1,073940
4,004167	0,1	1,117710
4,005833	0,1	1,088945
4,007500	0,1	1,120593
4,009167	0,1	1,072159
4,010833	0,1	1,074242
4,012500	0,1	1,090435
4,014167	0,1	1,053916
4,015833	0,1	1,097103
4,017500	0,1	1,073932
4,019167	0,1	1,072496
4,020833	0,1	1,087790
4,022500	0,1	1,098919
4,024167	0,1	1,113693
4,025833	0,1	1,074600
4,027500	0,1	1,077819
4,029167	0,1	1,069783
4,030833	0,1	1,077965
4,032500	0,1	1,082269
4,034167	0,1	1,067769
4,035833	0,1	1,078034
4,037500	0,1	1,111900
4,039167	0,1	1,090661
4,040833	0,1	1,111893
4,042500	0,1	1,106227
4,044167	0,1	1,125676
4,045833	0,1	1,137895
4,047500	0,1	1,084438
4,049167	0,1	1,089355
4,050833	0,1	1,126394
4,052500	0,1	1,133935
4,054167	0,1	1,144275
4,055833	0,1	1,103732
4,057500	0,1	1,139958
4,059167	0,1	1,137647
4,060833	0,1	1,166371
4,062500	0,1	1,145708
4,064167	0,1	1,116356
4,065833	0,1	1,134865
4,067500	0,1	1,139304
4,069167	0,1	1,174907
4,070833	0,1	1,124681
4,072500	0,1	1,195344
4,074167	0,1	1,180966
4,075833	0,1	1,184014
4,077500	0,1	1,195429
4,079167	0,1	1,181378
4,080833	0,1	1,210787
4,082500	0,1	1,240082
4,084167	0,1	1,217703
4,085833	0,1	1,243519
4,087500	0,1	1,233267
4,089167	0,1	1,254010
4,090833	0,1	1,272171
4,092500	0,1	1,249428
4,094167	0,1	1,289099
4,095833	0,1	1,298879
4,097500	0,1	1,277349
4,099167	0,1	1,302459
4,100833	0,1	1,303037
4,102500	0,1	1,311081
4,104167	0,1	1,297306
4,105833	0,1	1,389757
4,107500	0,1	1,325809
4,109167	0,1	1,352143
4,110833	0,1	1,354376
4,112500	0,1	1,415038
4,114167	0,1	1,411176
4,115833	0,1	1,401697
4,117500	0,1	1,446779
4,119167	0,1	1,418220
4,120833	0,1	1,469622
4,122500	0,1	1,452040
4,124167	0,1	1,505532
4,125833	0,1	1,489169
4,127500	0,1	1,502451
4,129167	0,1	1,484934
4,130833	0,1	1,503239
4,132500	0,1	1,535486
4,134167	0,1	1,527596
4,135833	0,1	1,532978
4,137500	0,1	1,527594
4,139167	0,1	1,553734
4,140833	0,1	1,628075
4,142500	0,1	1,579757
4,144167	0,1	1,590302
4,145833	0,1	1,596627
4,147500	0,1	1,608764
4,149167	0,1	1,629312
4,150833	0,1	1,635565
4,152500	0,1	1,687578
4,154167	0,1	1,661150
4,155833	0,1	1,683555
4,157500	0,1	1,720339
4,159167	0,1	1,707713
4,160833	0,1	1,714607
4,162500	0,1	1,750526
4,164167	0,1	1,747805
4,165833	0,1	1,756645
4,167500	0,1	1,749744
4,169167	0,1	1,770729
4,170833	0,1	1,770667
4,172500	0,1	1,779566
4,174167	0,1	1,810975
4,175833	0,1	1,819526
4,177500	0,1	1,808975
4,179167	0,1	1,807460
4,180833	0,1	1,815144
4,182500	0,1	1,839795
4,184167	0,1	1,803952
4,185833	0,1	1,822407
4,187500	0,1	1,855605
4,189167	0,1	1,822920
4,190833	0,1	1,877096
4,192500	0,1	1,888527
4,194167	0,1	1,826669
4,195833	0,1	1,862220
4,197500	0,1	1,862382
4,199167	0,1	1,877886
4,200833	0,1	1,826232
4,202500	0,1	1,838362
4,204167	0,1	1,866612
4,205833	0,1	1,872440
4,207500	0,1	1,893994
4,209167	0,1	1,837023
4,210833	0,1	1,912823
4,212500	0,1	1,844784
4,214167	0,1	1,843333
4,215833	0,1	1,896226
4,217500	0,1	1,856716
4,219167	0,1	1,874590
4,220833	0,1	1,896215
4,222500	0,1	1,847880
4,224167	0,1	1,871061
4,225833	0,1	1,887598
4,227500	0,1	1,887461
4,229167	0,1	1,848798
4,230833	0,1	1,883932
4,232500	0,1	1,835649
4,234167	0,1	1,839592
4,235833	0,1	1,872775
4,237500	0,1	1,882869
4,239167	0,1	1,856420
4,240833	0,1	1,826728
4,242500	0,1	1,834993
4,244167	0,1	1,835485
4,245833	0,1	1,800352
4,247500	0,1	1,774840
4,249167	0,1	1,807239
4,250833	0,1	1,768089
4,252500	0,1	1,805288
4,254167	0,1	1,819100
4,255833	0,1	1,796756
4,257500	0,1	1,766575
4,259167	0,1	1,794943
4,260833	0,1	1,745881
4,262500	0,1	1,776613
4,264167	0,1	1,779125
4,265833	0,1	1,760462
4,267500	0,1	1,715554
4,269167	0,1	1,721787
4,270833	0,1	1,737307
4,272500	0,1	1,706424
4,274167	0,1	1,678538
4,275833	0,1	1,679318
4,277500	0,1	1,711506
4,279167	0,1	1,689317
4,280833	0,1	1,635651
4,282500	0,1	1,669827
4,284167	0,1	1,638951
4,285833	0,1	1,645336
4,287500	0,1	1,619047
4,289167	0,1	1,602808
4,290833	0,1	1,609054
4,292500	0,1	1,608695
4,294167	0,1	1,595625
4,295833	0,1	1,536514
4,297500	0,1	1,558476
4,299167	0,1	1,565159
4,300833	0,1	1,555179
4,302500	0,1	1,545051
4,304167	0,1	1,569250
4,305833	0,1	1,483941
4,307500	0,1	1,471644
4,309167	0,1	1,497060
4,310833	0,1	1,459294
4,312500	0,1	1,477097
4,314167	0,1	1,504315
4,315833	0,1	1,469067
4,317500	0,1	1,431505
4,319167	0,1	1,427405
4,320833	0,1	1,437381
4,322500	0,1	1,418855
4,324167	0,1	1,401414
4,325833	0,1	1,409088
4,327500	0,1	1,376491
4,329167	0,1	1,373326
4,330833	0,1	1,378927
4,332500	0,1	1,386473
4,334167	0,1	1,365015
4,335833	0,1	1,303267
4,337500	0,1	1,310214
4,339167	0,1	1,330038
4,340833	0,1	1,303336
4,342500	0,1	1,287463
4,344167	0,1	1,300671
4,345833	0,1	1,310435
4,347500	0,1	1,324578
4,349167	0,1	1,262558
4,350833	0,1	1,275039
4,352500	0,1	1,217128
4,354167	0,1	1,272808
4,355833	0,1	1,239235
4,357500	0,1	1,210880
4,359167	0,1	1,197232
4,360833	0,1	1,228237
4,362500	0,1	1,212736
4,364167	0,1	1,173268
4,365833	0,1	1,199525
4,367500	0,1	1,195665
4,369167	0,1	1,197607
4,370833	0,1	1,174190
4,372500	0,1	1,132569
4,374167	0,1	1,127829
4,375833	0,1	1,137950
4,377500	0,1	1,128632
4,379167	0,1	1,144633
4,380833	0,1	1,082704
4,382500	0,1	1,103288
4,384167	0,1	1,087720
4,385833	0,1	1,081983
4,387500	0,1	1,110826
4,389167	0,1	1,082574
4,390833	0,1	1,056017
4,392500	0,1	1,089880
4,394167	0,1	1,056158
4,395833	0,1	1,021002
4,397500	0,1	1,061585
4,399167	0,1	1,031669
4,400833	0,1	1,018493
4,402500	0,1	1,018032
4,404167	0,1	1,014607
4,405833	0,1	1,014745
4,407500	0,1	0,978734
4,409167	0,1	0,985618
4,410833	0,1	0,976652
4,412500	0,1	0,968674
4,414167	0,1	0,943384
4,415833	0,1	0,938491
4,417500	0,1	0,958993
4,419167	0,1	0,923004
4,420833	0,1	0,907399
4,422500	0,1	0,949742
4,424167	0,1	0,926781
4,425833	0,1	0,931249
4,427500	0,1	0,895671
4,429167	0,1	0,912870
4,430833	0,1	0,873162
4,432500	0,1	0,864955
4,434167	0,1	0,938828
4,435833	0,1	0,878317
4,437500	0,1	0,881391
4,439167	0,1	0,839502
4,440833	0,1	0,860815
4,442500	0,1	0,880455
4,444167	0,1	0,867346
4,445833	0,1	0,832688
4,447500	0,1	0,860374
4,449167	0,1	0,791526
4,450833	0,1	0,837270
4,452500	0,1	0,857642
4,454167	0,1	0,814125
4,455833	0,1	0,825948
4,457500	0,1	0,806319
4,459167	0,1	0,822280
4,460833	0,1	0,811783
4,462500	0,1	0,810901
4,464167	0,1	0,803047
4,465833	0,1	0,839374
4,467500	0,1	0,771604
4,469167	0,1	0,797410
4,470833	0,1	0,798941
4,472500	0,1	0,751966
4,474167	0,1	0,783334
4,475833	0,1	0,782299
4,477500	0,1	0,781556
4,479167	0,1	0,757578
4,480833	0,1	0,739781
4,482500	0,1	0,772969
4,484167	0,1	0,735169
4,485833	0,1	0,729186
4,487500	0,1	0,709318
4,489167	0,1	0,714427
4,490833	0,1	0,710131
4,492500	0,1	0,714595
4,494167	0,1	0,703461
4,495833	0,1	0,690318
4,497500	0,1	0,737778
4,499167	0,1	0,713022
4,500833	0,1	0,684395
4,502500	0,1	0,704555
4,504167	0,1	0,666637
4,505833	0,1	0,656597
4,507500	0,1	0,672483
4,509167	0,1	0,676697
4,510833	0,1	0,676747
4,512500	0,1	0,636008
4,514167	0,1	0,661189
4,515833	0,1	0,666475
4,517500	0,1	0,695436
4,519167	0,1	0,651257
4,520833	0,1	0,660548
4,522500	0,1	0,667374
4,524167	0,1	0,624212
4,525833	0,1	0,656807
4,527500	0,1	0,646223
4,529167	0,1	0,669629
4,530833	0,1	0,584227
4,532500	0,1	0,619439
4,534167	0,1	0,629599
4,535833	0,1	0,610744
4,537500	0,1	0,640746
4,539167	0,1	0,607099
4,540833	0,1	0,614676
4,542500	0,1	0,575350
4,544167	0,1	0,621965
4,545833	0,1	0,597316
4,547500	0,1	0,597868
4,549167	0,1	0,615454
4,550833	0,1	0,632891
4,552500	0,1	0,622624
4,554167	0,1	0,610435
4,555833	0,1	0,621433
4,557500	0,1	0,570450
4,559167	0,1	0,609423
4,560833	0,1	0,542565
4,562500	0,1	0,553905
4,564167	0,1	0,586711
4,565833	0,1	0,580182
4,567500	0,1	0,540266
4,569167	0,1	0,590865
4,570833	0,1	0,571732
4,572500	0,1	0,569063
4,574167	0,1	0,572237
4,575833	0,1	0,605418
4,577500	0,1	0,531198
4,579167	0,1	0,577320
4,580833	0,1	0,523432
4,582500	0,1	0,553015
4,584167	0,1	0,550577
4,585833	0,1	0,544128
4,587500	0,1	0,542011
4,589167	0,1	0,531048
4,590833	0,1	0,561757
4,592500	0,1	0,526674
4,594167	0,1	0,518637
4,595833	0,1	0,520368
4,597500	0,1	0,536269
4,599167	0,1	0,516974
4,600833	0,1	0,536739
4,602500	0,1	0,522664
4,604167	0,1	0,518462
4,605833	0,1	0,490421
4,607500	0,1	0,508204
4,609167	0,1	0,519125
4,610833	0,1	0,512854
4,612500	0,1	0,521705
4,614167	0,1	0,519308
4,615833	0,1	0,527241
4,617500	0,1	0,478352
4,619167	0,1	0,482189
4,620833	0,1	0,512891
4,622500	0,1	0,478772
4,624167	0,1	0,509491
4,625833	0,1	0,457138
4,627500	0,1	0,494946
4,629167	0,1	0,484147
4,630833	0,1	0,439260
4,632500	0,1	0,457322
4,634167	0,1	0,442076
4,635833	0,1	0,453053
4,637500	0,1	0,482202
4,639167	0,1	0,441481
4,640833	0,1	0,458500
4,642500	0,1	0,459283
4,644167	0,1	0,476423
4,645833	0,1	0,433499
4,647500	0,1	0,446737
4,649167	0,1	0,448541
4,650833	0,1	0,456501
4,652500	0,1	0,455635
4,654167	0,1	0,432359
4,655833	0,1	0,430131
4,657500	0,1	0,411302
4,659167	0,1	0,425768
4,660833	0,1	0,451248
4,662500	0,1	0,445097
4,664167	0,1	0,413884
4,665833	0,1	0,428547
4,667500	0,1	0,455737
4,669167	0,1	0,429225
4,670833	0,1	0,399208
4,672500	0,1	0,460201
4,674167	0,1	0,434361
4,675833	0,1	0,384849
4,677500	0,1	0,419427
4,679167	0,1	0,379335
4,680833	0,1	0,416981
4,682500	0,1	0,458003
4,684167	0,1	0,402638
4,685833	0,1	0,368660
4,687500	0,1	0,375588
4,689167	0,1	0,424159
4,690833	0,1	0,373979
4,692500	0,1	0,422091
4,694167	0,1	0,410499
4,695833	0,1	0,397760
4,697500	0,1	0,408071
4,699167	0,1	0,397536
4,700833	0,1	0,383264
4,702500	0,1	0,412401
4,704167	0,1	0,364728
4,705833	0,1	0,386900
4,707500	0,1	0,366547
4,709167	0,1	0,389502
4,710833	0,1	0,422829
4,712500	0,1	0,369554
4,714167	0,1	0,389991
4,715833	0,1	0,353187
4,717500	0,1	0,424331
4,719167	0,1	0,366444
4,720833	0,1	0,372676
4,722500	0,1	0,376745
4,724167	0,1	0,371722
4,725833	0,1	0,374654
4,727500	0,1	0,356672
4,729167	0,1	0,339422
4,730833	0,1	0,382959
4,732500	0,1	0,343874
4,734167	0,1	0,386407
4,735833	0,1	0,351988
4,737500	0,1	0,395101
4,739167	0,1	0,414604
4,740833	0,1	0,346814
4,742500	0,1	0,338197
4,744167	0,1	0,353553
4,745833	0,1	0,370939
4,747500	0,1	0,366032
4,749167	0,1	0,353759
4,750833	0,1	0,362136
4,752500	0,1	0,373807
4,754167	0,1	0,338070
4,755833	0,1	0,329882
4,757500	0,1	0,369998
4,759167	0,1	0,368253
4,760833	0,1	0,393770
4,762500	0,1	0,322449
4,764167	0,1	0,329721
4,765833	0,1	0,318234
4,767500	0,1	0,358596
4,769167	0,1	0,354247
4,770833	0,1	0,323820
4,772500	0,1	0,321143
4,774167	0,1	0,331900
4,775833	0,1	0,376224
4,777500	0,1	0,318470
4,779167	0,1	0,338569
4,780833	0,1	0,332482
4,782500	0,1	0,353240
4,784167	0,1	0,301616
4,785833	0,1	0,308560
4,787500	0,1	0,367394
4,789167	0,1	0,330802
4,790833	0,1	0,346951
4,792500	0,1	0,346377
4,794167	0,1	0,301326
4,795833	0,1	0,319560
4,797500	0,1	0,328967
4,799167	0,1	0,356063
4,800833	0,1	0,325422
4,802500	0,1	0,346327
4,804167	0,1	0,312150
4,805833	0,1	0,336922
4,807500	0,1	0,311835
4,809167	0,1	0,305985
4,810833	0,1	0,331877
4,812500	0,1	0,292631
4,814167	0,1	0,359634
4,815833	0,1	0,308309
4,817500	0,1	0,330342
4,819167	0,1	0,344660
4,820833	0,1	0,297657
4,822500	0,1	0,323004
4,824167	0,1	0,303476
4,825833	0,1	0,304225
4,827500	0,1	0,278023
4,829167	0,1	0,322313
4,830833	0,1	0,297008
4,832500	0,1	0,249599
4,834167	0,1	0,309078
4,835833	0,1	0,285625
4,837500	0,1	0,279241
4,839167	0,1	0,331138
4,840833	0,1	0,312014
4,842500	0,1	0,267739
4,844167	0,1	0,293688
4,845833	0,1	0,264199
4,847500	0,1	0,277461
4,849167	0,1	0,343184
4,850833	0,1	0,267390
4,852500	0,1	0,302909
4,854167	0,1	0,317229
4,855833	0,1	0,272582
4,857500	0,1	0,299729
4,859167	0,1	0,312740
4,860833	0,1	0,338855
4,862500	0,1	0,297837
4,864167	0,1	0,246327
4,865833	0,1	0,291080
4,867500	0,1	0,313227
4,869167	0,1	0,299433
4,870833	0,1	0,295448
4,872500	0,1	0,260382
4,874167	0,1	0,273147
4,875833	0,1	0,253262
4,877500	0,1	0,281325
4,879167	0,1	0,294353
4,880833	0,1	0,284267
4,882500	0,1	0,268533
4,884167	0,1	0,303661
4,885833	0,1	0,277758
4,887500	0,1	0,293978
4,889167	0,1	0,298983
4,890833	0,1	0,269603
4,892500	0,1	0,267927
4,894167	0,1	0,255392
4,895833	0,1	0,294617
4,897500	0,1	0,285846
4,899167	0,1	0,297534
4,900833	0,1	0,249362
4,902500	0,1	0,353000
4,904167	0,1	0,292106
4,905833	0,1	0,254225
4,907500	0,1	0,301370
4,909167	0,1	0,295604
4,910833	0,1	0,274732
4,912500	0,1	0,270067
4,914167	0,1	0,281749
4,915833	0,1	0,247110
4,917500	0,1	0,291900
4,919167	0,1	0,321094
4,920833	0,1	0,288942
4,922500	0,1	0,323248
4,924167	0,1	0,278226
4,925833	0,1	0,331649
4,927500	0,1	0,264274
4,929167	0,1	0,299373
4,930833	0,1	0,290937
4,932500	0,1	0,294868
4,934167	0,1	0,310403
4,935833	0,1	0,259940
4,937500	0,1	0,290217
4,939167	0,1	0,287687
4,940833	0,1	0,283382
4,942500	0,1	0,286801
4,944167	0,1	0,278821
4,945833	0,1	0,277712
4,947500	0,1	0,294574
4,949167	0,1	0,259754
4,950833	0,1	0,279525
4,952500	0,1	0,283552
4,954167	0,1	0,290395
4,955833	0,1	0,296536
4,957500	0,1	0,283689
4,959167	0,1	0,236048
4,960833	0,1	0,291739
4,962500	0,1	0,262067
4,964167	0,1	0,336132
4,965833	0,1	0,290169
4,967500	0,1	0,297716
4,969167	0,1	0,296026
4,970833	0,1	0,301355
4,972500	0,1	0,296738
4,974167	0,1	0,274114
4,975833	0,1	0,263103
4,977500	0,1	0,282748
4,979167	0,1	0,274597
4,980833	0,1	0,276240
4,982500	0,1	0,282064
4,984167	0,1	0,296287
4,985833	0,1	0,268380
4,987500	0,1	0,293309
4,989167	0,1	0,284778
4,990833	0,1	0,282175
4,992500	0,1	0,259460
4,994167	0,1	0,315797
4,995833	0,1	0,265318
4,997500	0,1	0,265398
4,999167	0,1	0,290929
5,000833	0,1	0,286844
5,002500	0,1	0,240905
5,004167	0,1	0,281857
5,005833	0,1	0,354541
5,007500	0,1	0,289396
5,009167	0,1	0,254357
5,010833	0,1	0,299411
5,012500	0,1	0,258896
5,014167	0,1	0,270923
5,015833	0,1	0,260796
5,017500	0,1	0,263636
5,019167	0,1	0,259680
5,020833	0,1	0,270172
5,022500	0,1	0,283682
5,024167	0,1	0,280662
5,025833	0,1	0,230578
5,027500	0,1	0,281832
5,029167	0,1	0,302714
5,030833	0,1	0,272982
5,032500	0,1	0,261689
5,034167	0,1	0,241966
5,035833	0,1	0,285278
5,037500	0,1	0,272912
5,039167	0,1	0,296845
5,040833	0,1	0,280691
5,042500	0,1	0,252910
5,044167	0,1	0,258835
5,045833	0,1	0,268394
5,047500	0,1	0,273106
5,049167	0,1	0,269703
5,050833	0,1	0,267547
5,052500	0,1	0,250197
5,054167	0,1	0,272946
5,055833	0,1	0,243820
5,057500	0,1	0,284122
5,059167	0,1	0,280067
5,060833	0,1	0,271374
5,062500	0,1	0,255591
5,064167	0,1	0,303640
5,065833	0,1	0,286493
5,067500	0,1	0,215419
5,069167	0,1	0,274762
5,070833	0,1	0,261970
5,072500	0,1	0,245922
5,074167	0,1	0,252191
5,075833	0,1	0,256099
5,077500	0,1	0,252878
5,079167	0,1	0,238528
5,080833	0,1	0,249453
5,082500	0,1	0,268392
5,084167	0,1	0,221883
5,085833	0,1	0,222253
5,087500	0,1	0,244756
5,089167	0,1	0,269970
5,090833	0,1	0,254550
5,092500	0,1	0,238370
5,094167	0,1	0,231817
5,095833	0,1	0,223544
5,097500	0,1	0,239585
5,099167	0,1	0,221786
5,100833	0,1	0,248649
5,102500	0,1	0,226877
5,104167	0,1	0,233499
5,105833	0,1	0,219273
5,107500	0,1	0,255512
5,109167	0,1	0,215107
5,110833	0,1	0,259180
5,112500	0,1	0,232704
5,114167	0,1	0,251435
5,115833	0,1	0,270838
5,117500	0,1	0,225594
5,119167	0,1	0,178373
5,120833	0,1	0,222506
5,122500	0,1	0,233812
5,124167	0,1	0,234789
5,125833	0,1	0,229437
5,127500	0,1	0,202792
5,129167	0,1	0,200603
5,130833	0,1	0,219448
5,132500	0,1	0,257876
5,134167	0,1	0,212571
5,135833	0,1	0,228116
5,137500	0,1	0,213208
5,139167	0,1	0,210205
5,140833	0,1	0,206944
5,142500	0,1	0,199578
5,144167	0,1	0,192003
5,145833	0,1	0,212936
5,147500	0,1	0,194675
5,149167	0,1	0,190188
5,150833	0,1	0,214935
5,152500	0,1	0,211587
5,154167	0,1	0,247696
5,155833	0,1	0,210504
5,157500	0,1	0,239582
5,159167	0,1	0,196576
5,160833	0,1	0,201536
5,162500	0,1	0,238582
5,164167	0,1	0,184174
5,165833	0,1	0,177430
5,167500	0,1	0,190828
5,169167	0,1	0,205204
5,170833	0,1	0,214780
5,172500	0,1	0,212481
5,174167	0,1	0,223788
5,175833	0,1	0,207893
5,177500	0,1	0,195661
5,179167	0,1	0,200812
5,180833	0,1	0,181338
5,182500	0,1	0,183845
5,184167	0,1	0,239669
5,185833	0,1	0,148673
5,187500	0,1	0,179077
5,189167	0,1	0,222374
5,190833	0,1	0,195374
5,192500	0,1	0,216052
5,194167	0,1	0,163945
5,195833	0,1	0,157621
5,197500	0,1	0,189350
5,199167	0,1	0,185320
5,200833	0,1	0,187740
5,202500	0,1	0,188804
5,204167	0,1	0,178692
5,205833	0,1	0,198363
5,207500	0,1	0,187321
5,209167	0,1	0,160035
5,210833	0,1	0,210666
5,212500	0,1	0,152124
5,214167	0,1	0,200816
5,215833	0,1	0,172083
5,217500	0,1	0,177321
5,219167	0,1	0,176653
5,220833	0,1	0,177047
5,222500	0,1	0,191576
5,224167	0,1	0,172278
5,225833	0,1	0,200755
5,227500	0,1	0,166835
5,229167	0,1	0,187157
5,230833	0,1	0,148766
5,232500	0,1	0,132519
5,234167	0,1	0,165755
5,235833	0,1	0,128750
5,237500	0,1	0,144912
5,239167	0,1	0,141367
5,240833	0,1	0,139761
5,242500	0,1	0,140918
5,244167	0,1	0,114188
5,245833	0,1	0,119113
5,247500	0,1	0,165555
5,249167	0,1	0,139713
5,250833	0,1	0,145690
5,252500	0,1	0,158118
5,254167	0,1	0,149087
5,255833	0,1	0,143472
5,257500	0,1	0,169661
5,259167	0,1	0,170312
5,260833	0,1	0,139163
5,262500	0,1	0,104106
5,264167	0,1	0,109447
5,265833	0,1	0,133471
5,267500	0,1	0,118565
5,269167	0,1	0,116985
5,270833	0,1	0,124872
5,272500	0,1	0,188776
5,274167	0,1	0,149596
5,275833	0,1	0,124749
5,277500	0,1	0,125388
5,279167	0,1	0,085682
5,280833	0,1	0,129927
5,282500	0,1	0,141785
5,284167	0,1	0,142273
5,285833	0,1	0,100791
5,287500	0,1	0,155792
5,289167	0,1	0,123931
5,290833	0,1	0,152497
5,292500	0,1	0,133966
5,294167	0,1	0,103852
5,295833	0,1	0,121386
5,297500	0,1	0,101132
5,299167	0,1	0,114823
5,300833	0,1	0,111372
5,302500	0,1	0,108926
5,304167	0,1	0,116048
5,305833	0,1	0,131026
5,307500	0,1	0,119826
5,309167	0,1	0,081394
5,310833	0,1	0,126956
5,312500	0,1	0,127994
5,314167	0,1	0,107743
5,315833	0,1	0,108765
5,317500	0,1	0,121950
5,319167	0,1	0,110132
5,320833	0,1	0,094819
5,322500	0,1	0,125737
5,324167	0,1	0,108612
5,325833	0,1	0,087415
5,327500	0,1	0,126444
5,329167	0,1	0,107939
5,330833	0,1	0,124357
5,332500	0,1	0,106613
5,334167	0,1	0,102548
5,335833	0,1	0,117923
5,337500	0,1	0,117881
5,339167	0,1	0,084065
5,340833	0,1	0,098331
5,342500	0,1	0,087982
5,344167	0,1	0,089948
5,345833	0,1	0,080324
5,347500	0,1	0,119291
5,349167	0,1	0,074504
5,350833	0,1	0,078285
5,352500	0,1	0,083513
5,354167	0,1	0,085764
5,355833	0,1	0,121804
5,357500	0,1	0,056882
5,359167	0,1	0,054876
5,360833	0,1	0,051936
5,362500	0,1	0,066758
5,364167	0,1	0,108176
5,365833	0,1	0,040940
5,367500	0,1	0,064113
5,369167	0,1	0,105376
5,370833	0,1	0,079040
5,372500	0,1	0,089854
5,374167	0,1	0,039743
5,375833	0,1	0,069549
5,377500	0,1	0,068629
5,379167	0,1	0,090344
5,380833	0,1	0,090762
5,382500	0,1	0,086374
5,384167	0,1	0,065152
5,385833	0,1	0,097234
5,387500	0,1	0,099996
5,389167	0,1	0,091109
5,390833	0,1	0,072565
5,392500	0,1	0,053526
5,394167	0,1	0,060665
5,395833	0,1	0,092043
5,397500	0,1	0,132215
5,399167	0,1	0,082202
5,400833	0,1	0,048310
5,402500	0,1	0,089621
5,404167	0,1	0,097874
5,405833	0,1	0,095460
5,407500	0,1	0,048023
5,409167	0,1	0,103532
5,410833	0,1	0,089634
5,412500	0,1	0,098744
5,414167	0,1	0,059909
5,415833	0,1	0,086525
5,417500	0,1	0,059868
5,419167	0,1	0,076835
5,420833	0,1	0,055234
5,422500	0,1	0,075842
5,424167	0,1	0,056645
5,425833	0,1	0,039893
5,427500	0,1	0,075129
5,429167	0,1	0,053432
5,430833	0,1	0,087401
5,432500	0,1	0,091079
5,434167	0,1	0,063416
5,435833	0,1	0,076836
5,437500	0,1	0,050334
5,439167	0,1	0,095131
5,440833	0,1	0,106924
5,442500	0,1	0,050379
5,444167	0,1	0,055837
5,445833	0,1	0,016322
5,447500	0,1	0,042497
5,449167	0,1	0,068718
5,450833	0,1	0,043024
5,452500	0,1	0,007468
5,454167	0,1	0,062687
5,455833	0,1	0,051780
5,457500	0,1	0,060309
5,459167	0,1	0,070168
5,460833	0,1	0,031430
5,462500	0,1	0,033679
5,464167	0,1	0,055580
5,465833	0,1	0,028495
5,467500	0,1	0,021954
5,469167	0,1	0,059377
5,470833	0,1	0,074324
5,472500	0,1	0,035101
5,474167	0,1	0,039346
5,475833	0,1	0,035736
5,477500	0,1	0,019639
5,479167	0,1	0,027040
5,480833	0,1	0,071804
5,482500	0,1	0,014295
5,484167	0,1	-0,008158
5,485833	0,1	0,024745
5,487500	0,1	0,011772
5,489167	0,1	0,029543
5,490833	0,1	0,003725
5,492500	0,1	0,051475
5,494167	0,1	0,015807
5,495833	0,1	0,027943
5,497500	0,1	0,054889
5,499167	0,1	0,015774
5,500833	0,1	0,044495
5,502500	0,1	0,047685
5,504167	0,1	0,018673
5,505833	0,1	0,030325
5,507500	0,1	0,031130
5,509167	0,1	-0,005452
5,510833	0,1	0,044901
5,512500	0,1	0,040600
5,514167	0,1	0,023499
5,515833	0,1	0,038597
5,517500	0,1	0,003436
5,519167	0,1	0,035047
5,520833	0,1	0,053257
5,522500	0,1	0,023118
5,524167	0,1	0,037151
5,525833	0,1	0,039180
5,527500	0,1	0,044658
5,529167	0,1	0,023760
5,530833	0,1	0,005656
5,532500	0,1	0,026355
5,534167	0,1	0,029227
5,535833	0,1	0,019790
5,537500	0,1	0,018087
5,539167	0,1	0,025590
5,540833	0,1	0,020340
5,542500	0,1	0,085553
5,544167	0,1	-0,005663
5,545833	0,1	0,009092
5,547500	0,1	0,012607
5,549167	0,1	-0,019755
5,550833	0,1	0,022456
5,552500	0,1	-0,005293
5,554167	0,1	0,019239
5,555833	0,1	0,021980
5,557500	0,1	0,032642
5,559167	0,1	0,002466
5,560833	0,1	-0,002369
5,562500	0,1	0,005655
5,564167	0,1	0,008807
5,565833	0,1	0,001113
5,567500	0,1	0,010187
5,569167	0,1	0,015348
5,570833	0,1	-0,000888
5,572500	0,1	-0,006267
5,574167	0,1	0,012928
5,575833	0,1	0,001693
5,577500	0,1	-0,018823
5,579167	0,1	-0,046811
5,580833	0,1	0,004421
5,582500	0,1	0,007134
5,584167	0,1	0,025553
5,585833	0,1	0,008196
5,587500	0,1	-0,010545
5,589167	0,1	0,017464
5,590833	0,1	-0,002394
5,592500	0,1	0,029509
5,594167	0,1	0,005302
5,595833	0,1	0,016855
5,597500	0,1	0,025556
5,599167	0,1	-0,027740
5,600833	0,1	-0,008141
5,602500	0,1	0,012733
5,604167	0,1	0,001693
5,605833	0,1	-0,018664
5,607500	0,1	-0,014546
5,609167	0,1	0,005327
5,610833	0,1	-0,019692
5,612500	0,1	-0,042398
5,614167	0,1	-0,010656
5,615833	0,1	0,003744
5,617500	0,1	0,037341
5,619167	0,1	-0,027316
5,620833	0,1	0,005124
5,622500	0,1	-0,007136
5,624167	0,1	-0,000244
5,625833	0,1	-0,018535
5,627500	0,1	-0,026297
5,629167	0,1	-0,012070
5,630833	0,1	-0,036311
5,632500	0,1	0,017003
5,634167	0,1	0,018790
5,635833	0,1	0,002014
5,637500	0,1	0,016795
5,639167	0,1	-0,010387
5,640833	0,1	-0,078747
5,642500	0,1	0,005501
5,644167	0,1	-0,008100
5,645833	0,1	0,005199
5,647500	0,1	0,033471
5,649167	0,1	-0,000494
5,650833	0,1	0,004845
5,652500	0,1	0,010609
5,654167	0,1	0,001173
5,655833	0,1	-0,005623
5,657500	0,1	-0,008941
5,659167	0,1	-0,024107
5,660833	0,1	-0,010716
5,662500	0,1	0,030535
5,664167	0,1	-0,001848
5,665833	0,1	-0,002403
5,667500	0,1	0,019138
5,669167	0,1	-0,018340
5,670833	0,1	0,024064
5,672500	0,1	0,000922
5,674167	0,1	-0,009324
5,675833	0,1	0,038589
5,677500	0,1	-0,012920
5,679167	0,1	-0,016959
5,680833	0,1	0,000527
5,682500	0,1	-0,011739
5,684167	0,1	0,011088
5,685833	0,1	0,006297
5,687500	0,1	0,032347
5,689167	0,1	-0,012986
5,690833	0,1	0,025932
5,692500	0,1	0,010425
5,694167	0,1	-0,000500
5,695833	0,1	-0,010646
5,697500	0,1	0,023812
5,699167	0,1	0,007492
5,700833	0,1	0,024104
5,702500	0,1	0,018891
5,704167	0,1	0,001206
5,705833	0,1	0,012959
5,707500	0,1	0,018764
5,709167	0,1	0,006782
5,710833	0,1	0,030322
5,712500	0,1	-0,001783
5,714167	0,1	0,002949
5,715833	0,1	-0,011669
5,717500	0,1	0,013896
5,719167	0,1	-0,005521
5,720833	0,1	-0,004786
5,722500	0,1	-0,000792
5,724167	0,1	0,019885
5,725833	0,1	0,019085
5,727500	0,1	0,037924
5,729167	0,1	0,042335
5,730833	0,1	0,044371
5,732500	0,1	-0,026282
5,734167	0,1	-0,024496
5,735833	0,1	-0,003793
5,737500	0,1	0,007132
5,739167	0,1	-0,016246
5,740833	0,1	-0,000664
5,742500	0,1	0,019820
5,744167	0,1	-0,012828
5,745833	0,1	0,061712
5,747500	0,1	0,041502
5,749167	0,1	0,029395
5,750833	0,1	0,006366
5,752500	0,1	0,020429
5,754167	0,1	0,034828
5,755833	0,1	0,017026
5,757500	0,1	-0,010062
5,759167	0,1	0,017074
5,760833	0,1	-0,029509
5,762500	0,1	0,017785
5,764167	0,1	0,024593
5,765833	0,1	0,041276
5,767500	0,1	0,011166
5,769167	0,1	0,013127
5,770833	0,1	0,013766
5,772500	0,1	0,042939
5,774167	0,1	0,035186
5,775833	0,1	0,030843
5,777500	0,1	0,050940
5,779167	0,1	0,074349
5,780833	0,1	0,042546
5,782500	0,1	0,021211
5,784167	0,1	0,013737
5,785833	0,1	0,019213
5,787500	0,1	0,027133
5,789167	0,1	-0,007256
5,790833	0,1	0,026677
5,792500	0,1	0,014544
5,794167	0,1	0,001854
5,795833	0,1	0,043652
5,797500	0,1	0,000189
5,799167	0,1	0,031962
5,800833	0,1	0,032867
5,802500	0,1	0,023011
5,804167	0,1	-0,002748
5,805833	0,1	0,019500
5,807500	0,1	0,022754
5,809167	0,1	0,006879
5,810833	0,1	0,020980
5,812500	0,1	0,011517
5,814167	0,1	0,013766
5,815833	0,1	0,010450
5,817500	0,1	-0,010898
5,819167	0,1	0,031888
5,820833	0,1	0,015898
5,822500	0,1	0,015473
5,824167	0,1	0,031380
5,825833	0,1	0,020471
5,827500	0,1	0,030774
5,829167	0,1	-0,008966
5,830833	0,1	0,003461
5,832500	0,1	0,024134
5,834167	0,1	0,010354
5,835833	0,1	0,011189
5,837500	0,1	-0,024293
5,839167	0,1	-0,028684
5,840833	0,1	0,031211
5,842500	0,1	0,065840
5,844167	0,1	-0,001548
5,845833	0,1	0,019500
5,847500	0,1	-0,007161
5,849167	0,1	0,009962
5,850833	0,1	0,007938
5,852500	0,1	0,003364
5,854167	0,1	0,034793
5,855833	0,1	-0,041902
5,857500	0,1	0,029369
5,859167	0,1	-0,020489
5,860833	0,1	0,022710
5,862500	0,1	-0,028964
5,864167	0,1	-0,010879
5,865833	0,1	-0,026360
5,867500	0,1	0,024994
5,869167	0,1	0,027329
5,870833	0,1	0,039793
5,872500	0,1	-0,042513
5,874167	0,1	-0,009719
5,875833	0,1	-0,019182
5,877500	0,1	0,003519
5,879167	0,1	-0,016343
5,880833	0,1	-0,029002
5,882500	0,1	0,020268
5,884167	0,1	0,021178
5,885833	0,1	-0,015404
5,887500	0,1	0,000299
5,889167	0,1	-0,012289
5,890833	0,1	-0,004050
5,892500	0,1	-0,016183
5,894167	0,1	0,017717
5,895833	0,1	0,002754
5,897500	0,1	-0,055013
5,899167	0,1	-0,001868
5,900833	0,1	-0,036597
5,902500	0,1	-0,032648
5,904167	0,1	-0,050261
5,905833	0,1	-0,007214
5,907500	0,1	0,001784
5,909167	0,1	-0,040043
5,910833	0,1	0,004802
5,912500	0,1	0,009869
5,914167	0,1	-0,035565
5,915833	0,1	0,013300
5,917500	0,1	-0,031927
5,919167	0,1	-0,023400
5,920833	0,1	0,000845
5,922500	0,1	-0,056981
5,924167	0,1	0,025371
5,925833	0,1	-0,000820
5,927500	0,1	-0,037467
5,929167	0,1	-0,015648
5,930833	0,1	-0,006752
5,932500	0,1	-0,003952
5,934167	0,1	-0,008520
5,935833	0,1	-0,010424
5,937500	0,1	-0,028296
5,939167	0,1	-0,013325
5,940833	0,1	-0,001728
5,942500	0,1	-0,023493
5,944167	0,1	-0,014770
5,945833	0,1	-0,029228
5,947500	0,1	-0,011972
5,949167	0,1	-0,008777
5,950833	0,1	-0,040948
5,952500	0,1	0,005734
5,954167	0,1	-0,029417
5,955833	0,1	-0,018187
5,957500	0,1	-0,035443
5,959167	0,1	-0,035288
5,960833	0,1	-0,018962
5,962500	0,1	-0,007430
5,964167	0,1	-0,033608
5,965833	0,1	-0,036349
5,967500	0,1	-0,035220
5,969167	0,1	-0,047718
5,970833	0,1	-0,003669
5,972500	0,1	-0,007717
5,974167	0,1	-0,052119
5,975833	0,1	-0,031298
5,977500	0,1	-0,075566
5,979167	0,1	-0,057288
5,980833	0,1	0,000967
5,982500	0,1	-0,024939
5,984167	0,1	-0,040628
5,985833	0,1	-0,019352
5,987500	0,1	-0,005818
5,989167	0,1	0,002493
5,990833	0,1	-0,008069
5,992500	0,1	-0,001242
5,994167	0,1	-0,030481
5,995833	0,1	-0,014034
5,997500	0,1	-0,021050
5,999167	0,1	-0,044071
6,000833	0,1	-0,045335
