File Path	chrom://chromeleon01/ikbm_chromeleon/2022/Rezex/Esteban/220612_chitin_4_7.seq/685.smp/UV_VIS_1.channel/UV_VIS_1.chm
Channel	UV_VIS_1

Injection Information:
Data Vault	ikbm_chromeleon
Injection	Sc10D_06h-ChiBS_2
Injection Number	69
Position	GB6
Comment	
Processing Method	New ProcMethod
Instrument Method	Short_Rezex_6min_194nm
Type	Unknown
Status	Finished
Injection Date	13.06.2022
Injection Time	00:34:15
Injection Volume (µl)	8,000
Dilution Factor	1,0000
Weight	1,0000

Chromatogram Data Information:
Time Min. (min)	0,000833
Time Max. (min)	6,000833
Data Points	3601
Detector	UV
Generating Data System	Chromeleon 7.2.9.11323
Exporting Data System	Chromeleon 7.2.9.0
Operator	Instrument Controller
Signal Quantity	Absorbance
Signal Unit	mAU
Signal Min.	-0,141995
Signal Max.	415,257194
Channel	UV_VIS_1
Driver Name	VWD3000.dll
Channel Type	Evaluation
Min. Step (s)	0,1
Max. Step (s)	0,1
Average Step (s)	0,1

Signal Parameter Information:
Signal Info	WVL:194 nm

Chromatogram Data:
Time (min)	Step (s)	Value (mAU)
0,000833	n.a.	-0,024258
0,002500	0,1	-0,049016
0,004167	0,1	-0,106528
0,005833	0,1	-0,068714
0,007500	0,1	-0,035615
0,009167	0,1	-0,054845
0,010833	0,1	-0,060810
0,012500	0,1	-0,010891
0,014167	0,1	-0,068174
0,015833	0,1	-0,041123
0,017500	0,1	-0,017935
0,019167	0,1	-0,013969
0,020833	0,1	-0,062994
0,022500	0,1	-0,008194
0,024167	0,1	-0,060773
0,025833	0,1	-0,055871
0,027500	0,1	-0,045809
0,029167	0,1	-0,070425
0,030833	0,1	-0,106963
0,032500	0,1	-0,074877
0,034167	0,1	-0,090172
0,035833	0,1	-0,085136
0,037500	0,1	-0,101620
0,039167	0,1	-0,141995
0,040833	0,1	-0,109639
0,042500	0,1	-0,085038
0,044167	0,1	-0,100484
0,045833	0,1	-0,091276
0,047500	0,1	-0,069793
0,049167	0,1	-0,074225
0,050833	0,1	-0,105766
0,052500	0,1	-0,071828
0,054167	0,1	-0,076634
0,055833	0,1	-0,067672
0,057500	0,1	-0,051473
0,059167	0,1	-0,069643
0,060833	0,1	-0,042396
0,062500	0,1	-0,108250
0,064167	0,1	-0,036947
0,065833	0,1	-0,037510
0,067500	0,1	-0,057088
0,069167	0,1	-0,084131
0,070833	0,1	-0,066374
0,072500	0,1	-0,056327
0,074167	0,1	-0,098399
0,075833	0,1	-0,054052
0,077500	0,1	-0,072858
0,079167	0,1	-0,056705
0,080833	0,1	-0,026194
0,082500	0,1	-0,049080
0,084167	0,1	-0,049188
0,085833	0,1	-0,032661
0,087500	0,1	-0,034106
0,089167	0,1	-0,023265
0,090833	0,1	-0,028443
0,092500	0,1	-0,015069
0,094167	0,1	-0,026638
0,095833	0,1	-0,022621
0,097500	0,1	-0,032817
0,099167	0,1	-0,024462
0,100833	0,1	-0,025709
0,102500	0,1	-0,052874
0,104167	0,1	-0,058252
0,105833	0,1	-0,091783
0,107500	0,1	-0,056544
0,109167	0,1	-0,031463
0,110833	0,1	-0,089104
0,112500	0,1	-0,042692
0,114167	0,1	-0,073576
0,115833	0,1	-0,084034
0,117500	0,1	-0,084906
0,119167	0,1	-0,053431
0,120833	0,1	-0,060455
0,122500	0,1	-0,115113
0,124167	0,1	-0,093913
0,125833	0,1	-0,075971
0,127500	0,1	-0,092517
0,129167	0,1	-0,039250
0,130833	0,1	-0,092672
0,132500	0,1	-0,034020
0,134167	0,1	-0,100739
0,135833	0,1	-0,059221
0,137500	0,1	-0,055251
0,139167	0,1	-0,040981
0,140833	0,1	-0,049209
0,142500	0,1	-0,069391
0,144167	0,1	0,010487
0,145833	0,1	-0,038973
0,147500	0,1	-0,039439
0,149167	0,1	-0,032533
0,150833	0,1	-0,029403
0,152500	0,1	-0,036702
0,154167	0,1	-0,070877
0,155833	0,1	-0,034973
0,157500	0,1	-0,031107
0,159167	0,1	-0,049484
0,160833	0,1	-0,005745
0,162500	0,1	0,004325
0,164167	0,1	-0,020847
0,165833	0,1	-0,029300
0,167500	0,1	-0,016355
0,169167	0,1	-0,032010
0,170833	0,1	-0,005804
0,172500	0,1	-0,040365
0,174167	0,1	0,002994
0,175833	0,1	-0,041195
0,177500	0,1	-0,015462
0,179167	0,1	-0,079480
0,180833	0,1	-0,022898
0,182500	0,1	-0,024612
0,184167	0,1	-0,062517
0,185833	0,1	-0,032625
0,187500	0,1	-0,081704
0,189167	0,1	-0,007468
0,190833	0,1	0,011724
0,192500	0,1	-0,081857
0,194167	0,1	-0,030223
0,195833	0,1	-0,023063
0,197500	0,1	-0,075891
0,199167	0,1	-0,035262
0,200833	0,1	-0,038758
0,202500	0,1	-0,061134
0,204167	0,1	-0,010539
0,205833	0,1	-0,030710
0,207500	0,1	-0,025710
0,209167	0,1	-0,018333
0,210833	0,1	-0,006671
0,212500	0,1	-0,031325
0,214167	0,1	-0,034420
0,215833	0,1	-0,037572
0,217500	0,1	-0,041305
0,219167	0,1	-0,036642
0,220833	0,1	-0,020655
0,222500	0,1	-0,014411
0,224167	0,1	-0,018306
0,225833	0,1	-0,035375
0,227500	0,1	-0,034925
0,229167	0,1	-0,004557
0,230833	0,1	-0,041423
0,232500	0,1	-0,008894
0,234167	0,1	-0,007664
0,235833	0,1	0,000088
0,237500	0,1	-0,015794
0,239167	0,1	-0,045611
0,240833	0,1	-0,036315
0,242500	0,1	-0,013685
0,244167	0,1	-0,028364
0,245833	0,1	-0,023994
0,247500	0,1	-0,008701
0,249167	0,1	-0,022414
0,250833	0,1	-0,010176
0,252500	0,1	-0,044625
0,254167	0,1	-0,038572
0,255833	0,1	-0,067523
0,257500	0,1	-0,035085
0,259167	0,1	-0,021665
0,260833	0,1	-0,030106
0,262500	0,1	-0,026088
0,264167	0,1	-0,022368
0,265833	0,1	0,001397
0,267500	0,1	-0,015704
0,269167	0,1	-0,020046
0,270833	0,1	-0,016253
0,272500	0,1	-0,010439
0,274167	0,1	-0,019843
0,275833	0,1	-0,015106
0,277500	0,1	-0,031821
0,279167	0,1	-0,014288
0,280833	0,1	0,002394
0,282500	0,1	0,006256
0,284167	0,1	0,023617
0,285833	0,1	-0,021674
0,287500	0,1	0,000691
0,289167	0,1	-0,010323
0,290833	0,1	0,004236
0,292500	0,1	-0,030667
0,294167	0,1	-0,012296
0,295833	0,1	-0,039230
0,297500	0,1	-0,023267
0,299167	0,1	-0,034912
0,300833	0,1	-0,061485
0,302500	0,1	-0,054420
0,304167	0,1	-0,073076
0,305833	0,1	-0,062757
0,307500	0,1	0,005762
0,309167	0,1	-0,027441
0,310833	0,1	-0,013229
0,312500	0,1	0,007576
0,314167	0,1	-0,016309
0,315833	0,1	-0,033359
0,317500	0,1	-0,009247
0,319167	0,1	-0,028754
0,320833	0,1	-0,016796
0,322500	0,1	-0,019921
0,324167	0,1	0,014419
0,325833	0,1	-0,024401
0,327500	0,1	0,018125
0,329167	0,1	-0,011542
0,330833	0,1	-0,002332
0,332500	0,1	-0,013966
0,334167	0,1	0,007664
0,335833	0,1	0,028420
0,337500	0,1	-0,007264
0,339167	0,1	-0,001045
0,340833	0,1	-0,011861
0,342500	0,1	0,003491
0,344167	0,1	-0,038849
0,345833	0,1	-0,027085
0,347500	0,1	0,022361
0,349167	0,1	0,018224
0,350833	0,1	0,030278
0,352500	0,1	-0,035250
0,354167	0,1	0,013748
0,355833	0,1	0,013106
0,357500	0,1	-0,000361
0,359167	0,1	0,020991
0,360833	0,1	-0,004481
0,362500	0,1	-0,010853
0,364167	0,1	0,029400
0,365833	0,1	0,022463
0,367500	0,1	0,004785
0,369167	0,1	0,000923
0,370833	0,1	0,005978
0,372500	0,1	0,012398
0,374167	0,1	0,005074
0,375833	0,1	0,061719
0,377500	0,1	0,017176
0,379167	0,1	0,027035
0,380833	0,1	0,046102
0,382500	0,1	-0,006566
0,384167	0,1	0,001527
0,385833	0,1	0,009912
0,387500	0,1	0,007354
0,389167	0,1	-0,028624
0,390833	0,1	0,017596
0,392500	0,1	0,016838
0,394167	0,1	0,034009
0,395833	0,1	0,034681
0,397500	0,1	-0,001969
0,399167	0,1	0,018372
0,400833	0,1	0,040692
0,402500	0,1	-0,035589
0,404167	0,1	0,033680
0,405833	0,1	0,036167
0,407500	0,1	0,032110
0,409167	0,1	0,024972
0,410833	0,1	0,018769
0,412500	0,1	0,028929
0,414167	0,1	0,028351
0,415833	0,1	0,014494
0,417500	0,1	-0,007307
0,419167	0,1	0,016678
0,420833	0,1	-0,003473
0,422500	0,1	0,000368
0,424167	0,1	0,015394
0,425833	0,1	0,021855
0,427500	0,1	-0,004228
0,429167	0,1	0,025381
0,430833	0,1	0,023523
0,432500	0,1	0,021766
0,434167	0,1	0,032433
0,435833	0,1	0,036648
0,437500	0,1	0,038894
0,439167	0,1	0,023498
0,440833	0,1	0,017809
0,442500	0,1	0,012299
0,444167	0,1	0,037033
0,445833	0,1	0,026424
0,447500	0,1	0,011633
0,449167	0,1	0,006321
0,450833	0,1	0,040879
0,452500	0,1	0,053938
0,454167	0,1	0,029025
0,455833	0,1	0,027417
0,457500	0,1	0,051300
0,459167	0,1	0,029632
0,460833	0,1	0,042054
0,462500	0,1	0,055488
0,464167	0,1	0,032795
0,465833	0,1	0,032499
0,467500	0,1	0,042534
0,469167	0,1	0,038906
0,470833	0,1	0,042199
0,472500	0,1	0,020059
0,474167	0,1	0,061523
0,475833	0,1	0,026430
0,477500	0,1	0,031148
0,479167	0,1	0,067928
0,480833	0,1	0,017339
0,482500	0,1	0,074972
0,484167	0,1	0,040263
0,485833	0,1	0,035943
0,487500	0,1	0,027029
0,489167	0,1	0,052747
0,490833	0,1	0,028772
0,492500	0,1	0,027607
0,494167	0,1	0,011760
0,495833	0,1	0,041650
0,497500	0,1	0,049311
0,499167	0,1	0,045328
0,500833	0,1	0,029704
0,502500	0,1	0,063816
0,504167	0,1	0,066460
0,505833	0,1	0,082185
0,507500	0,1	0,041513
0,509167	0,1	0,075486
0,510833	0,1	0,052579
0,512500	0,1	0,033111
0,514167	0,1	0,073500
0,515833	0,1	0,048169
0,517500	0,1	0,071917
0,519167	0,1	0,067196
0,520833	0,1	0,053248
0,522500	0,1	0,091700
0,524167	0,1	0,039940
0,525833	0,1	0,076353
0,527500	0,1	0,055813
0,529167	0,1	0,042729
0,530833	0,1	0,045263
0,532500	0,1	0,092532
0,534167	0,1	0,047682
0,535833	0,1	0,062046
0,537500	0,1	0,054849
0,539167	0,1	0,059032
0,540833	0,1	0,088740
0,542500	0,1	0,062154
0,544167	0,1	0,062791
0,545833	0,1	0,091885
0,547500	0,1	0,056722
0,549167	0,1	0,116554
0,550833	0,1	0,057850
0,552500	0,1	0,060509
0,554167	0,1	0,084692
0,555833	0,1	0,093791
0,557500	0,1	0,086203
0,559167	0,1	0,092089
0,560833	0,1	0,092379
0,562500	0,1	0,062798
0,564167	0,1	0,045910
0,565833	0,1	0,064545
0,567500	0,1	0,054080
0,569167	0,1	0,105523
0,570833	0,1	0,086079
0,572500	0,1	0,050481
0,574167	0,1	0,096553
0,575833	0,1	0,077491
0,577500	0,1	0,100284
0,579167	0,1	0,089872
0,580833	0,1	0,092252
0,582500	0,1	0,104889
0,584167	0,1	0,093706
0,585833	0,1	0,132932
0,587500	0,1	0,126735
0,589167	0,1	0,137506
0,590833	0,1	0,119565
0,592500	0,1	0,114995
0,594167	0,1	0,107819
0,595833	0,1	0,111351
0,597500	0,1	0,123092
0,599167	0,1	0,055986
0,600833	0,1	0,085516
0,602500	0,1	0,130097
0,604167	0,1	0,142749
0,605833	0,1	0,101233
0,607500	0,1	0,131223
0,609167	0,1	0,116890
0,610833	0,1	0,102159
0,612500	0,1	0,146920
0,614167	0,1	0,165004
0,615833	0,1	0,134843
0,617500	0,1	0,147862
0,619167	0,1	0,153427
0,620833	0,1	0,206014
0,622500	0,1	0,155470
0,624167	0,1	0,167422
0,625833	0,1	0,167002
0,627500	0,1	0,176974
0,629167	0,1	0,157356
0,630833	0,1	0,139437
0,632500	0,1	0,176099
0,634167	0,1	0,155973
0,635833	0,1	0,143104
0,637500	0,1	0,178318
0,639167	0,1	0,178007
0,640833	0,1	0,145455
0,642500	0,1	0,149725
0,644167	0,1	0,147541
0,645833	0,1	0,144103
0,647500	0,1	0,171503
0,649167	0,1	0,183055
0,650833	0,1	0,181511
0,652500	0,1	0,186817
0,654167	0,1	0,163147
0,655833	0,1	0,174691
0,657500	0,1	0,204055
0,659167	0,1	0,197821
0,660833	0,1	0,176466
0,662500	0,1	0,193763
0,664167	0,1	0,159129
0,665833	0,1	0,210967
0,667500	0,1	0,185829
0,669167	0,1	0,160217
0,670833	0,1	0,220456
0,672500	0,1	0,215807
0,674167	0,1	0,199146
0,675833	0,1	0,221848
0,677500	0,1	0,180618
0,679167	0,1	0,219977
0,680833	0,1	0,209051
0,682500	0,1	0,248319
0,684167	0,1	0,204943
0,685833	0,1	0,202904
0,687500	0,1	0,246646
0,689167	0,1	0,206034
0,690833	0,1	0,254817
0,692500	0,1	0,241288
0,694167	0,1	0,237617
0,695833	0,1	0,222692
0,697500	0,1	0,239639
0,699167	0,1	0,278500
0,700833	0,1	0,268859
0,702500	0,1	0,224694
0,704167	0,1	0,254693
0,705833	0,1	0,275513
0,707500	0,1	0,275742
0,709167	0,1	0,265032
0,710833	0,1	0,257275
0,712500	0,1	0,312024
0,714167	0,1	0,273049
0,715833	0,1	0,319396
0,717500	0,1	0,279711
0,719167	0,1	0,323032
0,720833	0,1	0,274467
0,722500	0,1	0,293339
0,724167	0,1	0,357910
0,725833	0,1	0,281907
0,727500	0,1	0,317370
0,729167	0,1	0,301006
0,730833	0,1	0,344719
0,732500	0,1	0,326234
0,734167	0,1	0,357306
0,735833	0,1	0,347151
0,737500	0,1	0,319994
0,739167	0,1	0,368503
0,740833	0,1	0,323825
0,742500	0,1	0,380540
0,744167	0,1	0,352140
0,745833	0,1	0,339329
0,747500	0,1	0,377322
0,749167	0,1	0,370512
0,750833	0,1	0,354003
0,752500	0,1	0,371405
0,754167	0,1	0,363785
0,755833	0,1	0,371315
0,757500	0,1	0,368964
0,759167	0,1	0,336533
0,760833	0,1	0,335884
0,762500	0,1	0,335399
0,764167	0,1	0,367831
0,765833	0,1	0,359603
0,767500	0,1	0,324146
0,769167	0,1	0,340929
0,770833	0,1	0,430575
0,772500	0,1	0,345976
0,774167	0,1	0,341225
0,775833	0,1	0,329128
0,777500	0,1	0,430182
0,779167	0,1	0,347971
0,780833	0,1	0,367866
0,782500	0,1	0,364589
0,784167	0,1	0,350047
0,785833	0,1	0,402774
0,787500	0,1	0,386221
0,789167	0,1	0,377686
0,790833	0,1	0,383771
0,792500	0,1	0,376115
0,794167	0,1	0,366715
0,795833	0,1	0,372922
0,797500	0,1	0,406576
0,799167	0,1	0,355525
0,800833	0,1	0,389492
0,802500	0,1	0,377015
0,804167	0,1	0,352847
0,805833	0,1	0,388394
0,807500	0,1	0,382899
0,809167	0,1	0,422349
0,810833	0,1	0,378144
0,812500	0,1	0,371738
0,814167	0,1	0,347184
0,815833	0,1	0,338396
0,817500	0,1	0,378387
0,819167	0,1	0,352239
0,820833	0,1	0,365038
0,822500	0,1	0,374144
0,824167	0,1	0,429586
0,825833	0,1	0,401312
0,827500	0,1	0,437446
0,829167	0,1	0,388962
0,830833	0,1	0,397830
0,832500	0,1	0,398702
0,834167	0,1	0,398346
0,835833	0,1	0,389082
0,837500	0,1	0,409705
0,839167	0,1	0,375377
0,840833	0,1	0,409924
0,842500	0,1	0,425183
0,844167	0,1	0,381043
0,845833	0,1	0,400633
0,847500	0,1	0,403436
0,849167	0,1	0,418622
0,850833	0,1	0,420906
0,852500	0,1	0,416761
0,854167	0,1	0,401215
0,855833	0,1	0,453694
0,857500	0,1	0,418984
0,859167	0,1	0,392500
0,860833	0,1	0,416076
0,862500	0,1	0,419618
0,864167	0,1	0,429279
0,865833	0,1	0,430018
0,867500	0,1	0,440157
0,869167	0,1	0,383301
0,870833	0,1	0,433420
0,872500	0,1	0,410003
0,874167	0,1	0,430007
0,875833	0,1	0,411290
0,877500	0,1	0,463864
0,879167	0,1	0,412974
0,880833	0,1	0,429856
0,882500	0,1	0,440866
0,884167	0,1	0,409912
0,885833	0,1	0,436767
0,887500	0,1	0,470792
0,889167	0,1	0,457825
0,890833	0,1	0,411528
0,892500	0,1	0,455692
0,894167	0,1	0,430575
0,895833	0,1	0,440315
0,897500	0,1	0,482471
0,899167	0,1	0,456253
0,900833	0,1	0,469993
0,902500	0,1	0,457414
0,904167	0,1	0,494126
0,905833	0,1	0,500349
0,907500	0,1	0,451890
0,909167	0,1	0,464107
0,910833	0,1	0,451816
0,912500	0,1	0,446822
0,914167	0,1	0,529053
0,915833	0,1	0,454919
0,917500	0,1	0,481356
0,919167	0,1	0,497967
0,920833	0,1	0,486225
0,922500	0,1	0,471709
0,924167	0,1	0,482199
0,925833	0,1	0,484486
0,927500	0,1	0,495981
0,929167	0,1	0,513867
0,930833	0,1	0,513489
0,932500	0,1	0,477470
0,934167	0,1	0,501668
0,935833	0,1	0,529168
0,937500	0,1	0,486167
0,939167	0,1	0,483909
0,940833	0,1	0,471165
0,942500	0,1	0,491472
0,944167	0,1	0,502959
0,945833	0,1	0,537079
0,947500	0,1	0,549991
0,949167	0,1	0,571238
0,950833	0,1	0,503521
0,952500	0,1	0,541073
0,954167	0,1	0,519577
0,955833	0,1	0,524881
0,957500	0,1	0,510077
0,959167	0,1	0,546028
0,960833	0,1	0,539246
0,962500	0,1	0,538310
0,964167	0,1	0,595831
0,965833	0,1	0,583060
0,967500	0,1	0,549948
0,969167	0,1	0,568729
0,970833	0,1	0,571571
0,972500	0,1	0,577878
0,974167	0,1	0,582005
0,975833	0,1	0,592952
0,977500	0,1	0,574112
0,979167	0,1	0,595418
0,980833	0,1	0,579578
0,982500	0,1	0,608362
0,984167	0,1	0,620497
0,985833	0,1	0,574828
0,987500	0,1	0,623079
0,989167	0,1	0,646411
0,990833	0,1	0,661110
0,992500	0,1	0,633600
0,994167	0,1	0,669059
0,995833	0,1	0,675018
0,997500	0,1	0,681683
0,999167	0,1	0,678505
1,000833	0,1	0,662984
1,002500	0,1	0,676413
1,004167	0,1	0,673642
1,005833	0,1	0,686875
1,007500	0,1	0,678483
1,009167	0,1	0,698798
1,010833	0,1	0,737623
1,012500	0,1	0,736057
1,014167	0,1	0,765904
1,015833	0,1	0,779259
1,017500	0,1	0,783571
1,019167	0,1	0,799031
1,020833	0,1	0,781356
1,022500	0,1	0,832526
1,024167	0,1	0,818033
1,025833	0,1	0,823162
1,027500	0,1	0,862635
1,029167	0,1	0,838677
1,030833	0,1	0,861395
1,032500	0,1	0,883438
1,034167	0,1	0,907303
1,035833	0,1	0,889516
1,037500	0,1	0,930835
1,039167	0,1	0,940616
1,040833	0,1	0,962438
1,042500	0,1	0,974551
1,044167	0,1	0,938924
1,045833	0,1	0,989839
1,047500	0,1	0,964008
1,049167	0,1	0,995051
1,050833	0,1	0,986920
1,052500	0,1	1,006251
1,054167	0,1	1,046228
1,055833	0,1	1,093627
1,057500	0,1	1,150736
1,059167	0,1	1,220006
1,060833	0,1	1,300432
1,062500	0,1	1,347274
1,064167	0,1	1,490795
1,065833	0,1	1,683833
1,067500	0,1	1,909351
1,069167	0,1	2,251933
1,070833	0,1	2,590165
1,072500	0,1	3,045954
1,074167	0,1	3,585039
1,075833	0,1	4,212748
1,077500	0,1	4,981631
1,079167	0,1	5,865714
1,080833	0,1	6,895701
1,082500	0,1	8,015583
1,084167	0,1	9,327127
1,085833	0,1	10,738531
1,087500	0,1	12,278015
1,089167	0,1	13,925006
1,090833	0,1	15,576693
1,092500	0,1	17,388235
1,094167	0,1	19,154091
1,095833	0,1	20,999671
1,097500	0,1	22,812841
1,099167	0,1	24,487139
1,100833	0,1	26,201140
1,102500	0,1	27,741805
1,104167	0,1	29,193313
1,105833	0,1	30,463548
1,107500	0,1	31,620374
1,109167	0,1	32,639098
1,110833	0,1	33,442174
1,112500	0,1	34,102329
1,114167	0,1	34,603307
1,115833	0,1	35,033476
1,117500	0,1	35,203680
1,119167	0,1	35,341351
1,120833	0,1	35,391393
1,122500	0,1	35,246968
1,124167	0,1	35,048996
1,125833	0,1	34,776086
1,127500	0,1	34,434385
1,129167	0,1	34,107571
1,130833	0,1	33,747303
1,132500	0,1	33,367386
1,134167	0,1	32,927925
1,135833	0,1	32,558965
1,137500	0,1	32,228288
1,139167	0,1	31,844807
1,140833	0,1	31,623229
1,142500	0,1	31,339993
1,144167	0,1	31,228750
1,145833	0,1	31,038556
1,147500	0,1	31,084078
1,149167	0,1	31,076408
1,150833	0,1	31,182059
1,152500	0,1	31,367840
1,154167	0,1	31,622040
1,155833	0,1	31,834975
1,157500	0,1	32,287737
1,159167	0,1	32,689703
1,160833	0,1	33,185706
1,162500	0,1	33,681111
1,164167	0,1	34,210263
1,165833	0,1	34,784639
1,167500	0,1	35,356612
1,169167	0,1	35,928115
1,170833	0,1	36,463050
1,172500	0,1	36,980467
1,174167	0,1	37,511588
1,175833	0,1	38,000050
1,177500	0,1	38,485796
1,179167	0,1	38,866188
1,180833	0,1	39,216338
1,182500	0,1	39,554844
1,184167	0,1	39,830814
1,185833	0,1	40,157053
1,187500	0,1	40,350613
1,189167	0,1	40,561893
1,190833	0,1	40,767857
1,192500	0,1	41,020525
1,194167	0,1	41,303128
1,195833	0,1	41,585477
1,197500	0,1	42,004841
1,199167	0,1	42,412928
1,200833	0,1	43,044963
1,202500	0,1	43,780019
1,204167	0,1	44,715144
1,205833	0,1	45,760875
1,207500	0,1	47,081719
1,209167	0,1	48,657443
1,210833	0,1	50,462818
1,212500	0,1	52,497715
1,214167	0,1	54,808124
1,215833	0,1	57,441688
1,217500	0,1	60,226745
1,219167	0,1	63,328483
1,220833	0,1	66,524182
1,222500	0,1	70,021544
1,224167	0,1	73,644999
1,225833	0,1	77,381960
1,227500	0,1	81,188940
1,229167	0,1	85,025529
1,230833	0,1	88,867906
1,232500	0,1	92,660985
1,234167	0,1	96,304349
1,235833	0,1	99,855377
1,237500	0,1	103,303939
1,239167	0,1	106,516543
1,240833	0,1	109,536310
1,242500	0,1	112,289812
1,244167	0,1	114,796614
1,245833	0,1	117,015982
1,247500	0,1	118,934907
1,249167	0,1	120,579594
1,250833	0,1	122,009371
1,252500	0,1	123,064928
1,254167	0,1	123,838654
1,255833	0,1	124,347992
1,257500	0,1	124,628386
1,259167	0,1	124,569195
1,260833	0,1	124,265675
1,262500	0,1	123,675039
1,264167	0,1	122,895852
1,265833	0,1	121,848404
1,267500	0,1	120,589455
1,269167	0,1	119,095557
1,270833	0,1	117,423107
1,272500	0,1	115,646270
1,274167	0,1	113,636007
1,275833	0,1	111,451892
1,277500	0,1	109,203345
1,279167	0,1	106,838248
1,280833	0,1	104,369394
1,282500	0,1	101,794582
1,284167	0,1	99,228708
1,285833	0,1	96,641827
1,287500	0,1	93,873259
1,289167	0,1	91,254666
1,290833	0,1	88,578474
1,292500	0,1	85,871218
1,294167	0,1	83,276636
1,295833	0,1	80,707651
1,297500	0,1	78,178259
1,299167	0,1	75,699249
1,300833	0,1	73,297054
1,302500	0,1	70,884041
1,304167	0,1	68,659988
1,305833	0,1	66,487772
1,307500	0,1	64,375636
1,309167	0,1	62,313603
1,310833	0,1	60,372349
1,312500	0,1	58,480270
1,314167	0,1	56,698093
1,315833	0,1	54,955825
1,317500	0,1	53,348901
1,319167	0,1	51,707546
1,320833	0,1	50,245405
1,322500	0,1	48,759247
1,324167	0,1	47,418706
1,325833	0,1	46,110499
1,327500	0,1	44,806805
1,329167	0,1	43,627623
1,330833	0,1	42,485410
1,332500	0,1	41,323613
1,334167	0,1	40,259592
1,335833	0,1	39,251387
1,337500	0,1	38,206860
1,339167	0,1	37,276190
1,340833	0,1	36,338229
1,342500	0,1	35,474618
1,344167	0,1	34,566335
1,345833	0,1	33,719103
1,347500	0,1	32,970320
1,349167	0,1	32,179347
1,350833	0,1	31,436986
1,352500	0,1	30,672085
1,354167	0,1	29,980888
1,355833	0,1	29,231523
1,357500	0,1	28,589515
1,359167	0,1	27,911619
1,360833	0,1	27,302728
1,362500	0,1	26,627109
1,364167	0,1	26,035918
1,365833	0,1	25,466231
1,367500	0,1	24,854137
1,369167	0,1	24,270615
1,370833	0,1	23,737530
1,372500	0,1	23,169739
1,374167	0,1	22,687710
1,375833	0,1	22,154273
1,377500	0,1	21,670237
1,379167	0,1	21,192550
1,380833	0,1	20,725189
1,382500	0,1	20,263018
1,384167	0,1	19,821262
1,385833	0,1	19,341959
1,387500	0,1	18,978918
1,389167	0,1	18,527516
1,390833	0,1	18,146024
1,392500	0,1	17,746721
1,394167	0,1	17,384397
1,395833	0,1	17,033549
1,397500	0,1	16,626090
1,399167	0,1	16,411306
1,400833	0,1	16,027622
1,402500	0,1	15,701971
1,404167	0,1	15,415877
1,405833	0,1	15,127313
1,407500	0,1	14,869449
1,409167	0,1	14,549957
1,410833	0,1	14,334453
1,412500	0,1	14,075927
1,414167	0,1	13,824771
1,415833	0,1	13,621072
1,417500	0,1	13,345360
1,419167	0,1	13,146833
1,420833	0,1	12,907805
1,422500	0,1	12,741863
1,424167	0,1	12,530582
1,425833	0,1	12,363890
1,427500	0,1	12,196131
1,429167	0,1	11,950724
1,430833	0,1	11,765693
1,432500	0,1	11,639344
1,434167	0,1	11,452261
1,435833	0,1	11,296911
1,437500	0,1	11,125750
1,439167	0,1	11,002813
1,440833	0,1	10,798149
1,442500	0,1	10,661185
1,444167	0,1	10,526260
1,445833	0,1	10,372281
1,447500	0,1	10,246495
1,449167	0,1	10,116586
1,450833	0,1	10,018847
1,452500	0,1	9,825088
1,454167	0,1	9,716329
1,455833	0,1	9,602169
1,457500	0,1	9,456244
1,459167	0,1	9,315954
1,460833	0,1	9,213115
1,462500	0,1	9,093752
1,464167	0,1	8,992424
1,465833	0,1	8,881346
1,467500	0,1	8,775363
1,469167	0,1	8,707126
1,470833	0,1	8,574178
1,472500	0,1	8,509407
1,474167	0,1	8,348636
1,475833	0,1	8,317819
1,477500	0,1	8,236707
1,479167	0,1	8,150147
1,480833	0,1	8,075250
1,482500	0,1	8,013942
1,484167	0,1	7,909809
1,485833	0,1	7,817571
1,487500	0,1	7,821528
1,489167	0,1	7,715607
1,490833	0,1	7,714537
1,492500	0,1	7,601107
1,494167	0,1	7,580783
1,495833	0,1	7,566335
1,497500	0,1	7,512071
1,499167	0,1	7,462828
1,500833	0,1	7,452887
1,502500	0,1	7,386857
1,504167	0,1	7,350105
1,505833	0,1	7,331318
1,507500	0,1	7,292152
1,509167	0,1	7,234827
1,510833	0,1	7,242554
1,512500	0,1	7,201857
1,514167	0,1	7,184838
1,515833	0,1	7,161278
1,517500	0,1	7,150654
1,519167	0,1	7,090154
1,520833	0,1	7,074076
1,522500	0,1	7,069678
1,524167	0,1	7,053246
1,525833	0,1	7,030664
1,527500	0,1	6,966442
1,529167	0,1	6,929559
1,530833	0,1	6,954740
1,532500	0,1	6,923389
1,534167	0,1	6,874860
1,535833	0,1	6,902936
1,537500	0,1	6,837625
1,539167	0,1	6,864948
1,540833	0,1	6,786300
1,542500	0,1	6,770237
1,544167	0,1	6,772097
1,545833	0,1	6,696070
1,547500	0,1	6,702212
1,549167	0,1	6,691019
1,550833	0,1	6,666674
1,552500	0,1	6,620776
1,554167	0,1	6,605846
1,555833	0,1	6,617690
1,557500	0,1	6,545141
1,559167	0,1	6,562094
1,560833	0,1	6,513891
1,562500	0,1	6,496816
1,564167	0,1	6,495885
1,565833	0,1	6,432576
1,567500	0,1	6,440575
1,569167	0,1	6,436677
1,570833	0,1	6,404239
1,572500	0,1	6,373664
1,574167	0,1	6,323872
1,575833	0,1	6,299353
1,577500	0,1	6,276507
1,579167	0,1	6,279695
1,580833	0,1	6,238316
1,582500	0,1	6,207470
1,584167	0,1	6,189193
1,585833	0,1	6,154617
1,587500	0,1	6,135227
1,589167	0,1	6,129372
1,590833	0,1	6,116601
1,592500	0,1	6,046855
1,594167	0,1	6,060427
1,595833	0,1	6,035747
1,597500	0,1	5,990648
1,599167	0,1	5,996909
1,600833	0,1	5,936357
1,602500	0,1	5,935984
1,604167	0,1	5,929352
1,605833	0,1	5,876779
1,607500	0,1	5,870235
1,609167	0,1	5,853352
1,610833	0,1	5,801068
1,612500	0,1	5,840535
1,614167	0,1	5,806086
1,615833	0,1	5,815261
1,617500	0,1	5,845368
1,619167	0,1	5,793885
1,620833	0,1	5,841852
1,622500	0,1	5,818836
1,624167	0,1	5,875345
1,625833	0,1	5,829820
1,627500	0,1	5,935027
1,629167	0,1	5,935038
1,630833	0,1	6,010485
1,632500	0,1	6,059306
1,634167	0,1	6,118612
1,635833	0,1	6,197568
1,637500	0,1	6,333819
1,639167	0,1	6,466856
1,640833	0,1	6,626796
1,642500	0,1	6,720942
1,644167	0,1	6,922315
1,645833	0,1	7,171781
1,647500	0,1	7,423385
1,649167	0,1	7,723908
1,650833	0,1	8,006357
1,652500	0,1	8,380255
1,654167	0,1	8,743198
1,655833	0,1	9,265130
1,657500	0,1	9,706609
1,659167	0,1	10,283695
1,660833	0,1	10,842960
1,662500	0,1	11,582562
1,664167	0,1	12,291597
1,665833	0,1	13,124076
1,667500	0,1	13,994905
1,669167	0,1	14,978146
1,670833	0,1	16,031145
1,672500	0,1	17,178874
1,674167	0,1	18,408592
1,675833	0,1	19,715771
1,677500	0,1	21,151540
1,679167	0,1	22,692122
1,680833	0,1	24,290414
1,682500	0,1	26,001840
1,684167	0,1	27,875078
1,685833	0,1	29,836595
1,687500	0,1	31,881395
1,689167	0,1	34,038906
1,690833	0,1	36,406426
1,692500	0,1	38,788338
1,694167	0,1	41,287350
1,695833	0,1	43,950442
1,697500	0,1	46,673973
1,699167	0,1	49,547894
1,700833	0,1	52,518432
1,702500	0,1	55,532779
1,704167	0,1	58,729414
1,705833	0,1	61,981045
1,707500	0,1	65,346134
1,709167	0,1	68,798824
1,710833	0,1	72,280166
1,712500	0,1	75,843254
1,714167	0,1	79,494580
1,715833	0,1	83,172304
1,717500	0,1	86,944416
1,719167	0,1	90,699990
1,720833	0,1	94,521829
1,722500	0,1	98,395894
1,724167	0,1	102,199172
1,725833	0,1	106,075363
1,727500	0,1	109,914737
1,729167	0,1	113,779307
1,730833	0,1	117,627876
1,732500	0,1	121,449069
1,734167	0,1	125,189580
1,735833	0,1	128,848171
1,737500	0,1	132,491785
1,739167	0,1	136,073998
1,740833	0,1	139,592166
1,742500	0,1	143,016048
1,744167	0,1	146,342633
1,745833	0,1	149,521916
1,747500	0,1	152,663894
1,749167	0,1	155,631586
1,750833	0,1	158,537363
1,752500	0,1	161,293886
1,754167	0,1	163,872883
1,755833	0,1	166,412390
1,757500	0,1	168,685288
1,759167	0,1	170,860790
1,760833	0,1	172,843952
1,762500	0,1	174,756261
1,764167	0,1	176,485608
1,765833	0,1	178,006735
1,767500	0,1	179,412605
1,769167	0,1	180,661307
1,770833	0,1	181,761267
1,772500	0,1	182,646049
1,774167	0,1	183,382442
1,775833	0,1	184,065602
1,777500	0,1	184,402079
1,779167	0,1	184,663179
1,780833	0,1	184,788630
1,782500	0,1	184,723425
1,784167	0,1	184,526504
1,785833	0,1	184,218254
1,787500	0,1	183,685447
1,789167	0,1	183,064727
1,790833	0,1	182,260741
1,792500	0,1	181,333619
1,794167	0,1	180,313373
1,795833	0,1	179,140587
1,797500	0,1	177,783941
1,799167	0,1	176,420476
1,800833	0,1	174,940593
1,802500	0,1	173,292208
1,804167	0,1	171,531011
1,805833	0,1	169,762262
1,807500	0,1	167,835821
1,809167	0,1	165,847973
1,810833	0,1	163,807337
1,812500	0,1	161,590727
1,814167	0,1	159,455729
1,815833	0,1	157,152060
1,817500	0,1	154,854142
1,819167	0,1	152,453949
1,820833	0,1	150,078175
1,822500	0,1	147,602429
1,824167	0,1	145,072570
1,825833	0,1	142,577250
1,827500	0,1	140,039844
1,829167	0,1	137,407080
1,830833	0,1	134,859165
1,832500	0,1	132,230071
1,834167	0,1	129,675940
1,835833	0,1	127,084317
1,837500	0,1	124,503979
1,839167	0,1	121,946931
1,840833	0,1	119,346416
1,842500	0,1	116,773590
1,844167	0,1	114,245751
1,845833	0,1	111,740435
1,847500	0,1	109,258914
1,849167	0,1	106,816479
1,850833	0,1	104,409445
1,852500	0,1	102,004751
1,854167	0,1	99,615319
1,855833	0,1	97,284846
1,857500	0,1	95,011503
1,859167	0,1	92,781306
1,860833	0,1	90,579970
1,862500	0,1	88,354151
1,864167	0,1	86,271014
1,865833	0,1	84,172498
1,867500	0,1	82,123201
1,869167	0,1	80,065960
1,870833	0,1	78,059298
1,872500	0,1	76,152294
1,874167	0,1	74,291660
1,875833	0,1	72,409422
1,877500	0,1	70,560660
1,879167	0,1	68,801584
1,880833	0,1	67,088362
1,882500	0,1	65,376114
1,884167	0,1	63,677269
1,885833	0,1	62,046111
1,887500	0,1	60,567999
1,889167	0,1	58,981634
1,890833	0,1	57,509798
1,892500	0,1	56,048674
1,894167	0,1	54,629275
1,895833	0,1	53,183031
1,897500	0,1	51,855385
1,899167	0,1	50,588298
1,900833	0,1	49,265517
1,902500	0,1	48,048979
1,904167	0,1	46,838294
1,905833	0,1	45,668123
1,907500	0,1	44,535439
1,909167	0,1	43,393259
1,910833	0,1	42,329634
1,912500	0,1	41,263929
1,914167	0,1	40,225563
1,915833	0,1	39,220088
1,917500	0,1	38,297378
1,919167	0,1	37,302843
1,920833	0,1	36,440085
1,922500	0,1	35,538872
1,924167	0,1	34,680303
1,925833	0,1	33,831770
1,927500	0,1	32,978579
1,929167	0,1	32,244739
1,930833	0,1	31,452968
1,932500	0,1	30,697415
1,934167	0,1	29,895487
1,935833	0,1	29,292910
1,937500	0,1	28,590127
1,939167	0,1	27,874556
1,940833	0,1	27,222941
1,942500	0,1	26,638718
1,944167	0,1	25,990458
1,945833	0,1	25,397404
1,947500	0,1	24,835817
1,949167	0,1	24,304938
1,950833	0,1	23,743909
1,952500	0,1	23,203139
1,954167	0,1	22,701921
1,955833	0,1	22,231946
1,957500	0,1	21,729857
1,959167	0,1	21,335507
1,960833	0,1	20,851549
1,962500	0,1	20,403242
1,964167	0,1	20,009828
1,965833	0,1	19,619548
1,967500	0,1	19,212412
1,969167	0,1	18,857744
1,970833	0,1	18,490669
1,972500	0,1	18,135266
1,974167	0,1	17,797144
1,975833	0,1	17,485490
1,977500	0,1	17,152207
1,979167	0,1	16,841090
1,980833	0,1	16,592988
1,982500	0,1	16,363985
1,984167	0,1	16,049465
1,985833	0,1	15,811309
1,987500	0,1	15,574213
1,989167	0,1	15,320595
1,990833	0,1	15,132368
1,992500	0,1	14,928536
1,994167	0,1	14,703772
1,995833	0,1	14,486397
1,997500	0,1	14,299873
1,999167	0,1	14,082608
2,000833	0,1	13,955618
2,002500	0,1	13,788238
2,004167	0,1	13,621396
2,005833	0,1	13,504857
2,007500	0,1	13,321980
2,009167	0,1	13,234434
2,010833	0,1	13,130728
2,012500	0,1	12,990132
2,014167	0,1	12,895625
2,015833	0,1	12,794226
2,017500	0,1	12,735154
2,019167	0,1	12,598324
2,020833	0,1	12,524865
2,022500	0,1	12,427482
2,024167	0,1	12,392088
2,025833	0,1	12,301170
2,027500	0,1	12,227704
2,029167	0,1	12,199087
2,030833	0,1	12,129809
2,032500	0,1	12,115403
2,034167	0,1	12,055088
2,035833	0,1	12,011999
2,037500	0,1	11,980803
2,039167	0,1	11,934885
2,040833	0,1	11,914739
2,042500	0,1	11,873533
2,044167	0,1	11,863225
2,045833	0,1	11,844723
2,047500	0,1	11,831970
2,049167	0,1	11,771923
2,050833	0,1	11,746071
2,052500	0,1	11,769340
2,054167	0,1	11,741644
2,055833	0,1	11,736427
2,057500	0,1	11,730712
2,059167	0,1	11,703672
2,060833	0,1	11,700826
2,062500	0,1	11,687424
2,064167	0,1	11,705065
2,065833	0,1	11,686031
2,067500	0,1	11,654359
2,069167	0,1	11,688932
2,070833	0,1	11,667410
2,072500	0,1	11,653925
2,074167	0,1	11,625334
2,075833	0,1	11,624551
2,077500	0,1	11,660172
2,079167	0,1	11,569553
2,080833	0,1	11,625786
2,082500	0,1	11,597667
2,084167	0,1	11,543316
2,085833	0,1	11,577722
2,087500	0,1	11,530003
2,089167	0,1	11,555311
2,090833	0,1	11,526611
2,092500	0,1	11,537672
2,094167	0,1	11,500428
2,095833	0,1	11,518932
2,097500	0,1	11,459538
2,099167	0,1	11,454128
2,100833	0,1	11,474994
2,102500	0,1	11,396592
2,104167	0,1	11,419648
2,105833	0,1	11,386450
2,107500	0,1	11,371597
2,109167	0,1	11,335825
2,110833	0,1	11,267327
2,112500	0,1	11,265830
2,114167	0,1	11,239576
2,115833	0,1	11,212726
2,117500	0,1	11,187259
2,119167	0,1	11,194555
2,120833	0,1	11,160320
2,122500	0,1	11,100285
2,124167	0,1	11,083651
2,125833	0,1	11,077598
2,127500	0,1	10,993941
2,129167	0,1	10,982887
2,130833	0,1	10,905505
2,132500	0,1	10,895960
2,134167	0,1	10,864688
2,135833	0,1	10,796411
2,137500	0,1	10,817427
2,139167	0,1	10,706332
2,140833	0,1	10,711621
2,142500	0,1	10,712657
2,144167	0,1	10,644026
2,145833	0,1	10,581753
2,147500	0,1	10,537002
2,149167	0,1	10,558671
2,150833	0,1	10,468932
2,152500	0,1	10,410790
2,154167	0,1	10,352664
2,155833	0,1	10,347659
2,157500	0,1	10,293729
2,159167	0,1	10,226288
2,160833	0,1	10,190951
2,162500	0,1	10,142565
2,164167	0,1	10,125999
2,165833	0,1	10,056395
2,167500	0,1	10,032375
2,169167	0,1	10,021350
2,170833	0,1	9,950994
2,172500	0,1	9,880057
2,174167	0,1	9,857879
2,175833	0,1	9,825983
2,177500	0,1	9,818098
2,179167	0,1	9,740137
2,180833	0,1	9,696666
2,182500	0,1	9,653461
2,184167	0,1	9,620477
2,185833	0,1	9,603737
2,187500	0,1	9,576382
2,189167	0,1	9,494120
2,190833	0,1	9,469577
2,192500	0,1	9,394433
2,194167	0,1	9,383667
2,195833	0,1	9,313611
2,197500	0,1	9,320336
2,199167	0,1	9,285448
2,200833	0,1	9,237428
2,202500	0,1	9,187551
2,204167	0,1	9,141157
2,205833	0,1	9,090278
2,207500	0,1	9,066391
2,209167	0,1	9,032561
2,210833	0,1	8,986605
2,212500	0,1	8,967560
2,214167	0,1	8,883712
2,215833	0,1	8,904429
2,217500	0,1	8,868162
2,219167	0,1	8,829684
2,220833	0,1	8,791272
2,222500	0,1	8,788925
2,224167	0,1	8,768239
2,225833	0,1	8,723728
2,227500	0,1	8,677452
2,229167	0,1	8,644674
2,230833	0,1	8,682272
2,232500	0,1	8,584995
2,234167	0,1	8,599825
2,235833	0,1	8,572562
2,237500	0,1	8,506864
2,239167	0,1	8,516023
2,240833	0,1	8,490380
2,242500	0,1	8,463090
2,244167	0,1	8,437568
2,245833	0,1	8,442177
2,247500	0,1	8,399745
2,249167	0,1	8,346696
2,250833	0,1	8,355858
2,252500	0,1	8,322737
2,254167	0,1	8,325605
2,255833	0,1	8,291298
2,257500	0,1	8,275771
2,259167	0,1	8,250334
2,260833	0,1	8,239133
2,262500	0,1	8,154355
2,264167	0,1	8,177544
2,265833	0,1	8,158209
2,267500	0,1	8,127971
2,269167	0,1	8,089118
2,270833	0,1	8,083828
2,272500	0,1	8,064159
2,274167	0,1	8,018288
2,275833	0,1	8,001806
2,277500	0,1	7,984796
2,279167	0,1	7,933930
2,280833	0,1	7,895218
2,282500	0,1	7,870791
2,284167	0,1	7,874582
2,285833	0,1	7,824192
2,287500	0,1	7,812921
2,289167	0,1	7,783313
2,290833	0,1	7,744313
2,292500	0,1	7,776328
2,294167	0,1	7,745034
2,295833	0,1	7,696625
2,297500	0,1	7,664450
2,299167	0,1	7,625641
2,300833	0,1	7,630392
2,302500	0,1	7,575423
2,304167	0,1	7,538991
2,305833	0,1	7,537491
2,307500	0,1	7,493349
2,309167	0,1	7,502799
2,310833	0,1	7,488024
2,312500	0,1	7,437742
2,314167	0,1	7,435210
2,315833	0,1	7,372246
2,317500	0,1	7,356267
2,319167	0,1	7,328615
2,320833	0,1	7,326821
2,322500	0,1	7,296919
2,324167	0,1	7,259847
2,325833	0,1	7,250118
2,327500	0,1	7,249080
2,329167	0,1	7,207366
2,330833	0,1	7,127416
2,332500	0,1	7,180137
2,334167	0,1	7,129929
2,335833	0,1	7,141579
2,337500	0,1	7,080904
2,339167	0,1	7,122979
2,340833	0,1	7,081547
2,342500	0,1	7,092738
2,344167	0,1	7,053071
2,345833	0,1	7,039889
2,347500	0,1	7,024769
2,349167	0,1	7,052578
2,350833	0,1	7,002465
2,352500	0,1	6,963445
2,354167	0,1	7,026341
2,355833	0,1	6,972126
2,357500	0,1	6,995067
2,359167	0,1	6,968664
2,360833	0,1	6,981912
2,362500	0,1	6,980793
2,364167	0,1	7,002358
2,365833	0,1	6,965495
2,367500	0,1	6,983320
2,369167	0,1	7,004689
2,370833	0,1	7,039603
2,372500	0,1	7,003776
2,374167	0,1	7,071997
2,375833	0,1	7,072212
2,377500	0,1	7,076222
2,379167	0,1	7,122233
2,380833	0,1	7,147650
2,382500	0,1	7,172220
2,384167	0,1	7,230132
2,385833	0,1	7,323912
2,387500	0,1	7,393242
2,389167	0,1	7,421918
2,390833	0,1	7,500626
2,392500	0,1	7,588221
2,394167	0,1	7,650753
2,395833	0,1	7,771019
2,397500	0,1	7,851055
2,399167	0,1	7,959158
2,400833	0,1	8,067442
2,402500	0,1	8,191438
2,404167	0,1	8,348712
2,405833	0,1	8,478112
2,407500	0,1	8,664347
2,409167	0,1	8,806638
2,410833	0,1	9,005861
2,412500	0,1	9,196893
2,414167	0,1	9,360535
2,415833	0,1	9,587223
2,417500	0,1	9,830595
2,419167	0,1	10,063778
2,420833	0,1	10,340511
2,422500	0,1	10,541279
2,424167	0,1	10,827030
2,425833	0,1	11,101232
2,427500	0,1	11,397162
2,429167	0,1	11,670139
2,430833	0,1	11,964783
2,432500	0,1	12,281650
2,434167	0,1	12,640190
2,435833	0,1	12,918151
2,437500	0,1	13,225796
2,439167	0,1	13,597856
2,440833	0,1	13,899182
2,442500	0,1	14,293370
2,444167	0,1	14,625678
2,445833	0,1	14,996017
2,447500	0,1	15,356293
2,449167	0,1	15,727797
2,450833	0,1	16,099372
2,452500	0,1	16,465227
2,454167	0,1	16,808733
2,455833	0,1	17,247343
2,457500	0,1	17,646656
2,459167	0,1	18,091844
2,460833	0,1	18,504837
2,462500	0,1	18,982375
2,464167	0,1	19,464860
2,465833	0,1	19,950594
2,467500	0,1	20,453412
2,469167	0,1	21,012309
2,470833	0,1	21,595694
2,472500	0,1	22,232080
2,474167	0,1	22,948937
2,475833	0,1	23,713942
2,477500	0,1	24,493010
2,479167	0,1	25,425927
2,480833	0,1	26,365262
2,482500	0,1	27,392560
2,484167	0,1	28,559974
2,485833	0,1	29,805772
2,487500	0,1	31,139690
2,489167	0,1	32,682301
2,490833	0,1	34,272256
2,492500	0,1	36,044953
2,494167	0,1	37,996636
2,495833	0,1	40,100730
2,497500	0,1	42,351441
2,499167	0,1	44,876883
2,500833	0,1	47,530313
2,502500	0,1	50,355091
2,504167	0,1	53,498626
2,505833	0,1	56,803400
2,507500	0,1	60,361460
2,509167	0,1	64,126323
2,510833	0,1	68,216880
2,512500	0,1	72,497626
2,514167	0,1	77,024948
2,515833	0,1	81,921007
2,517500	0,1	87,035239
2,519167	0,1	92,353563
2,520833	0,1	97,989006
2,522500	0,1	103,887378
2,524167	0,1	110,063669
2,525833	0,1	116,438893
2,527500	0,1	123,135714
2,529167	0,1	129,949300
2,530833	0,1	137,136387
2,532500	0,1	144,481573
2,534167	0,1	152,017224
2,535833	0,1	159,701329
2,537500	0,1	167,617627
2,539167	0,1	175,664602
2,540833	0,1	183,814272
2,542500	0,1	192,133520
2,544167	0,1	200,599690
2,545833	0,1	209,053735
2,547500	0,1	217,590118
2,549167	0,1	226,136405
2,550833	0,1	234,658337
2,552500	0,1	243,224345
2,554167	0,1	251,713061
2,555833	0,1	260,125806
2,557500	0,1	268,517654
2,559167	0,1	276,762659
2,560833	0,1	284,873765
2,562500	0,1	292,951839
2,564167	0,1	300,761762
2,565833	0,1	308,350115
2,567500	0,1	315,850741
2,569167	0,1	323,095209
2,570833	0,1	330,133625
2,572500	0,1	336,872437
2,574167	0,1	343,392561
2,575833	0,1	349,659470
2,577500	0,1	355,714473
2,579167	0,1	361,325824
2,580833	0,1	366,743098
2,582500	0,1	371,886327
2,584167	0,1	376,714829
2,585833	0,1	381,228711
2,587500	0,1	385,526103
2,589167	0,1	389,473932
2,590833	0,1	393,100559
2,592500	0,1	396,504101
2,594167	0,1	399,530664
2,595833	0,1	402,367148
2,597500	0,1	404,806169
2,599167	0,1	407,075624
2,600833	0,1	408,977472
2,602500	0,1	410,670981
2,604167	0,1	412,043226
2,605833	0,1	413,231410
2,607500	0,1	414,023589
2,609167	0,1	414,648851
2,610833	0,1	415,080365
2,612500	0,1	415,257194
2,614167	0,1	415,155758
2,615833	0,1	414,783624
2,617500	0,1	414,279567
2,619167	0,1	413,610457
2,620833	0,1	412,688732
2,622500	0,1	411,569644
2,624167	0,1	410,175068
2,625833	0,1	408,714857
2,627500	0,1	406,882690
2,629167	0,1	405,046222
2,630833	0,1	402,938109
2,632500	0,1	400,738799
2,634167	0,1	398,342249
2,635833	0,1	395,792908
2,637500	0,1	393,076374
2,639167	0,1	390,223206
2,640833	0,1	387,269674
2,642500	0,1	384,168565
2,644167	0,1	380,897754
2,645833	0,1	377,494166
2,647500	0,1	374,067128
2,649167	0,1	370,495994
2,650833	0,1	366,805891
2,652500	0,1	362,945451
2,654167	0,1	359,042122
2,655833	0,1	355,085622
2,657500	0,1	350,989977
2,659167	0,1	346,889083
2,660833	0,1	342,681031
2,662500	0,1	338,306817
2,664167	0,1	334,011373
2,665833	0,1	329,528444
2,667500	0,1	325,084509
2,669167	0,1	320,653483
2,670833	0,1	316,064221
2,672500	0,1	311,529825
2,674167	0,1	306,864155
2,675833	0,1	302,234656
2,677500	0,1	297,644399
2,679167	0,1	292,993027
2,680833	0,1	288,259582
2,682500	0,1	283,586326
2,684167	0,1	279,007840
2,685833	0,1	274,294661
2,687500	0,1	269,651163
2,689167	0,1	265,056692
2,690833	0,1	260,333161
2,692500	0,1	255,890032
2,694167	0,1	251,309164
2,695833	0,1	246,747321
2,697500	0,1	242,271616
2,699167	0,1	237,779765
2,700833	0,1	233,416581
2,702500	0,1	229,002655
2,704167	0,1	224,724783
2,705833	0,1	220,466555
2,707500	0,1	216,241347
2,709167	0,1	212,062812
2,710833	0,1	207,879803
2,712500	0,1	203,902671
2,714167	0,1	199,945139
2,715833	0,1	195,918912
2,717500	0,1	192,092142
2,719167	0,1	188,322175
2,720833	0,1	184,541001
2,722500	0,1	180,879970
2,724167	0,1	177,272283
2,725833	0,1	173,722132
2,727500	0,1	170,234250
2,729167	0,1	166,833008
2,730833	0,1	163,501191
2,732500	0,1	160,194821
2,734167	0,1	157,015542
2,735833	0,1	153,822996
2,737500	0,1	150,809412
2,739167	0,1	147,812722
2,740833	0,1	144,814058
2,742500	0,1	141,944500
2,744167	0,1	139,098418
2,745833	0,1	136,385361
2,747500	0,1	133,712149
2,749167	0,1	131,078877
2,750833	0,1	128,490298
2,752500	0,1	125,958637
2,754167	0,1	123,526980
2,755833	0,1	121,088652
2,757500	0,1	118,734361
2,759167	0,1	116,411010
2,760833	0,1	114,148812
2,762500	0,1	111,942144
2,764167	0,1	109,811677
2,765833	0,1	107,733718
2,767500	0,1	105,647056
2,769167	0,1	103,672967
2,770833	0,1	101,696682
2,772500	0,1	99,736379
2,774167	0,1	97,898954
2,775833	0,1	96,057768
2,777500	0,1	94,264371
2,779167	0,1	92,484937
2,780833	0,1	90,763913
2,782500	0,1	89,043401
2,784167	0,1	87,411346
2,785833	0,1	85,795817
2,787500	0,1	84,216275
2,789167	0,1	82,650344
2,790833	0,1	81,131794
2,792500	0,1	79,664257
2,794167	0,1	78,169403
2,795833	0,1	76,720089
2,797500	0,1	75,309044
2,799167	0,1	73,911378
2,800833	0,1	72,635086
2,802500	0,1	71,299673
2,804167	0,1	69,964972
2,805833	0,1	68,661501
2,807500	0,1	67,409784
2,809167	0,1	66,221334
2,810833	0,1	64,995482
2,812500	0,1	63,845850
2,814167	0,1	62,688072
2,815833	0,1	61,560694
2,817500	0,1	60,418092
2,819167	0,1	59,336466
2,820833	0,1	58,297836
2,822500	0,1	57,263098
2,824167	0,1	56,229460
2,825833	0,1	55,210159
2,827500	0,1	54,208379
2,829167	0,1	53,265740
2,830833	0,1	52,304613
2,832500	0,1	51,370806
2,834167	0,1	50,467266
2,835833	0,1	49,587602
2,837500	0,1	48,677035
2,839167	0,1	47,841559
2,840833	0,1	46,992627
2,842500	0,1	46,152894
2,844167	0,1	45,397205
2,845833	0,1	44,595370
2,847500	0,1	43,846663
2,849167	0,1	43,072203
2,850833	0,1	42,350067
2,852500	0,1	41,654594
2,854167	0,1	40,911398
2,855833	0,1	40,251894
2,857500	0,1	39,595301
2,859167	0,1	38,924492
2,860833	0,1	38,310147
2,862500	0,1	37,672181
2,864167	0,1	37,065929
2,865833	0,1	36,403904
2,867500	0,1	35,855063
2,869167	0,1	35,269479
2,870833	0,1	34,740406
2,872500	0,1	34,254220
2,874167	0,1	33,703802
2,875833	0,1	33,145321
2,877500	0,1	32,710111
2,879167	0,1	32,158299
2,880833	0,1	31,694939
2,882500	0,1	31,248078
2,884167	0,1	30,793887
2,885833	0,1	30,374124
2,887500	0,1	29,894001
2,889167	0,1	29,478400
2,890833	0,1	29,057007
2,892500	0,1	28,655440
2,894167	0,1	28,279137
2,895833	0,1	27,889754
2,897500	0,1	27,504573
2,899167	0,1	27,150984
2,900833	0,1	26,782780
2,902500	0,1	26,419231
2,904167	0,1	26,093832
2,905833	0,1	25,785771
2,907500	0,1	25,452107
2,909167	0,1	25,177850
2,910833	0,1	24,793634
2,912500	0,1	24,525203
2,914167	0,1	24,198063
2,915833	0,1	23,916477
2,917500	0,1	23,634826
2,919167	0,1	23,422659
2,920833	0,1	23,085000
2,922500	0,1	22,799132
2,924167	0,1	22,572221
2,925833	0,1	22,300266
2,927500	0,1	22,074722
2,929167	0,1	21,834203
2,930833	0,1	21,596854
2,932500	0,1	21,365063
2,934167	0,1	21,129358
2,935833	0,1	20,895706
2,937500	0,1	20,671468
2,939167	0,1	20,487382
2,940833	0,1	20,240111
2,942500	0,1	20,069250
2,944167	0,1	19,833205
2,945833	0,1	19,606878
2,947500	0,1	19,476810
2,949167	0,1	19,228648
2,950833	0,1	19,027402
2,952500	0,1	18,862477
2,954167	0,1	18,672978
2,955833	0,1	18,502343
2,957500	0,1	18,333328
2,959167	0,1	18,135959
2,960833	0,1	17,903735
2,962500	0,1	17,770704
2,964167	0,1	17,596182
2,965833	0,1	17,429117
2,967500	0,1	17,300804
2,969167	0,1	17,075343
2,970833	0,1	16,947602
2,972500	0,1	16,814265
2,974167	0,1	16,634108
2,975833	0,1	16,461761
2,977500	0,1	16,312004
2,979167	0,1	16,168771
2,980833	0,1	16,050892
2,982500	0,1	15,894786
2,984167	0,1	15,700338
2,985833	0,1	15,599375
2,987500	0,1	15,443166
2,989167	0,1	15,288071
2,990833	0,1	15,160184
2,992500	0,1	15,027421
2,994167	0,1	14,880716
2,995833	0,1	14,749116
2,997500	0,1	14,587211
2,999167	0,1	14,508350
3,000833	0,1	14,355363
3,002500	0,1	14,225697
3,004167	0,1	14,093815
3,005833	0,1	13,961866
3,007500	0,1	13,854167
3,009167	0,1	13,737336
3,010833	0,1	13,620949
3,012500	0,1	13,467086
3,014167	0,1	13,356833
3,015833	0,1	13,210164
3,017500	0,1	13,126187
3,019167	0,1	13,022090
3,020833	0,1	12,876790
3,022500	0,1	12,780647
3,024167	0,1	12,663175
3,025833	0,1	12,556189
3,027500	0,1	12,416428
3,029167	0,1	12,312183
3,030833	0,1	12,223054
3,032500	0,1	12,143273
3,034167	0,1	11,965521
3,035833	0,1	11,935038
3,037500	0,1	11,808906
3,039167	0,1	11,678593
3,040833	0,1	11,590301
3,042500	0,1	11,448376
3,044167	0,1	11,362220
3,045833	0,1	11,263033
3,047500	0,1	11,188409
3,049167	0,1	11,082851
3,050833	0,1	10,987105
3,052500	0,1	10,932699
3,054167	0,1	10,811465
3,055833	0,1	10,640756
3,057500	0,1	10,658558
3,059167	0,1	10,491129
3,060833	0,1	10,416064
3,062500	0,1	10,374231
3,064167	0,1	10,230584
3,065833	0,1	10,164402
3,067500	0,1	10,080767
3,069167	0,1	10,004856
3,070833	0,1	9,953752
3,072500	0,1	9,847890
3,074167	0,1	9,796403
3,075833	0,1	9,677000
3,077500	0,1	9,592790
3,079167	0,1	9,525796
3,080833	0,1	9,452177
3,082500	0,1	9,375482
3,084167	0,1	9,292420
3,085833	0,1	9,199937
3,087500	0,1	9,145099
3,089167	0,1	9,093907
3,090833	0,1	9,010042
3,092500	0,1	8,954889
3,094167	0,1	8,883131
3,095833	0,1	8,823863
3,097500	0,1	8,716963
3,099167	0,1	8,729835
3,100833	0,1	8,630230
3,102500	0,1	8,602052
3,104167	0,1	8,506839
3,105833	0,1	8,480795
3,107500	0,1	8,391512
3,109167	0,1	8,368322
3,110833	0,1	8,277268
3,112500	0,1	8,259486
3,114167	0,1	8,192103
3,115833	0,1	8,124347
3,117500	0,1	8,131274
3,119167	0,1	8,066433
3,120833	0,1	8,001974
3,122500	0,1	8,013671
3,124167	0,1	7,936441
3,125833	0,1	7,891998
3,127500	0,1	7,832608
3,129167	0,1	7,808832
3,130833	0,1	7,777910
3,132500	0,1	7,771771
3,134167	0,1	7,714716
3,135833	0,1	7,668588
3,137500	0,1	7,648544
3,139167	0,1	7,596751
3,140833	0,1	7,554770
3,142500	0,1	7,536623
3,144167	0,1	7,527958
3,145833	0,1	7,490669
3,147500	0,1	7,433080
3,149167	0,1	7,459710
3,150833	0,1	7,386551
3,152500	0,1	7,368877
3,154167	0,1	7,385856
3,155833	0,1	7,350367
3,157500	0,1	7,280781
3,159167	0,1	7,273675
3,160833	0,1	7,227808
3,162500	0,1	7,230030
3,164167	0,1	7,168686
3,165833	0,1	7,182753
3,167500	0,1	7,079882
3,169167	0,1	7,087334
3,170833	0,1	7,086587
3,172500	0,1	7,077434
3,174167	0,1	7,036250
3,175833	0,1	7,008063
3,177500	0,1	6,979391
3,179167	0,1	6,939732
3,180833	0,1	6,925444
3,182500	0,1	6,882421
3,184167	0,1	6,831274
3,185833	0,1	6,826224
3,187500	0,1	6,833966
3,189167	0,1	6,779949
3,190833	0,1	6,776858
3,192500	0,1	6,710066
3,194167	0,1	6,703520
3,195833	0,1	6,696805
3,197500	0,1	6,604943
3,199167	0,1	6,589344
3,200833	0,1	6,549424
3,202500	0,1	6,503737
3,204167	0,1	6,516315
3,205833	0,1	6,452457
3,207500	0,1	6,447314
3,209167	0,1	6,396331
3,210833	0,1	6,347857
3,212500	0,1	6,324630
3,214167	0,1	6,278470
3,215833	0,1	6,273082
3,217500	0,1	6,221363
3,219167	0,1	6,187918
3,220833	0,1	6,115158
3,222500	0,1	6,089774
3,224167	0,1	6,099286
3,225833	0,1	6,027843
3,227500	0,1	6,030704
3,229167	0,1	5,950001
3,230833	0,1	5,938225
3,232500	0,1	5,879105
3,234167	0,1	5,861674
3,235833	0,1	5,810118
3,237500	0,1	5,765327
3,239167	0,1	5,736651
3,240833	0,1	5,690078
3,242500	0,1	5,694113
3,244167	0,1	5,658586
3,245833	0,1	5,574704
3,247500	0,1	5,601489
3,249167	0,1	5,522983
3,250833	0,1	5,471380
3,252500	0,1	5,434986
3,254167	0,1	5,440294
3,255833	0,1	5,365634
3,257500	0,1	5,372102
3,259167	0,1	5,327367
3,260833	0,1	5,310695
3,262500	0,1	5,211492
3,264167	0,1	5,179720
3,265833	0,1	5,133644
3,267500	0,1	5,151703
3,269167	0,1	5,097035
3,270833	0,1	5,045268
3,272500	0,1	5,011913
3,274167	0,1	4,995817
3,275833	0,1	4,934428
3,277500	0,1	4,892403
3,279167	0,1	4,896634
3,280833	0,1	4,876026
3,282500	0,1	4,853859
3,284167	0,1	4,799839
3,285833	0,1	4,755512
3,287500	0,1	4,701776
3,289167	0,1	4,685913
3,290833	0,1	4,660680
3,292500	0,1	4,647363
3,294167	0,1	4,594958
3,295833	0,1	4,556212
3,297500	0,1	4,554536
3,299167	0,1	4,503446
3,300833	0,1	4,492806
3,302500	0,1	4,412806
3,304167	0,1	4,427995
3,305833	0,1	4,418975
3,307500	0,1	4,338538
3,309167	0,1	4,354719
3,310833	0,1	4,303010
3,312500	0,1	4,258322
3,314167	0,1	4,247230
3,315833	0,1	4,243779
3,317500	0,1	4,191514
3,319167	0,1	4,179250
3,320833	0,1	4,147117
3,322500	0,1	4,132259
3,324167	0,1	4,139517
3,325833	0,1	4,046956
3,327500	0,1	4,090776
3,329167	0,1	4,053392
3,330833	0,1	4,017043
3,332500	0,1	4,002679
3,334167	0,1	3,996022
3,335833	0,1	3,986981
3,337500	0,1	3,966784
3,339167	0,1	3,953518
3,340833	0,1	3,937457
3,342500	0,1	3,875536
3,344167	0,1	3,879821
3,345833	0,1	3,874391
3,347500	0,1	3,845120
3,349167	0,1	3,907347
3,350833	0,1	3,832445
3,352500	0,1	3,859669
3,354167	0,1	3,787266
3,355833	0,1	3,787614
3,357500	0,1	3,820334
3,359167	0,1	3,799296
3,360833	0,1	3,772301
3,362500	0,1	3,761669
3,364167	0,1	3,736375
3,365833	0,1	3,741122
3,367500	0,1	3,733900
3,369167	0,1	3,726971
3,370833	0,1	3,701589
3,372500	0,1	3,712742
3,374167	0,1	3,700050
3,375833	0,1	3,732400
3,377500	0,1	3,679887
3,379167	0,1	3,694740
3,380833	0,1	3,680718
3,382500	0,1	3,673378
3,384167	0,1	3,646542
3,385833	0,1	3,660244
3,387500	0,1	3,644718
3,389167	0,1	3,632965
3,390833	0,1	3,625641
3,392500	0,1	3,640709
3,394167	0,1	3,657297
3,395833	0,1	3,642297
3,397500	0,1	3,635161
3,399167	0,1	3,607600
3,400833	0,1	3,571909
3,402500	0,1	3,600898
3,404167	0,1	3,614519
3,405833	0,1	3,611280
3,407500	0,1	3,592985
3,409167	0,1	3,553344
3,410833	0,1	3,524844
3,412500	0,1	3,563350
3,414167	0,1	3,588783
3,415833	0,1	3,532297
3,417500	0,1	3,541741
3,419167	0,1	3,552762
3,420833	0,1	3,508325
3,422500	0,1	3,508757
3,424167	0,1	3,558667
3,425833	0,1	3,537826
3,427500	0,1	3,563955
3,429167	0,1	3,502623
3,430833	0,1	3,523632
3,432500	0,1	3,493206
3,434167	0,1	3,507583
3,435833	0,1	3,534100
3,437500	0,1	3,514028
3,439167	0,1	3,518008
3,440833	0,1	3,526672
3,442500	0,1	3,489366
3,444167	0,1	3,488661
3,445833	0,1	3,459418
3,447500	0,1	3,524033
3,449167	0,1	3,461921
3,450833	0,1	3,492512
3,452500	0,1	3,527725
3,454167	0,1	3,482759
3,455833	0,1	3,514789
3,457500	0,1	3,511588
3,459167	0,1	3,529721
3,460833	0,1	3,484074
3,462500	0,1	3,517020
3,464167	0,1	3,518736
3,465833	0,1	3,494627
3,467500	0,1	3,518240
3,469167	0,1	3,516979
3,470833	0,1	3,498644
3,472500	0,1	3,513261
3,474167	0,1	3,535222
3,475833	0,1	3,538754
3,477500	0,1	3,510011
3,479167	0,1	3,536185
3,480833	0,1	3,526057
3,482500	0,1	3,549249
3,484167	0,1	3,559325
3,485833	0,1	3,589034
3,487500	0,1	3,576031
3,489167	0,1	3,574652
3,490833	0,1	3,587933
3,492500	0,1	3,563665
3,494167	0,1	3,611819
3,495833	0,1	3,590961
3,497500	0,1	3,578433
3,499167	0,1	3,647671
3,500833	0,1	3,617169
3,502500	0,1	3,597509
3,504167	0,1	3,594421
3,505833	0,1	3,619372
3,507500	0,1	3,607185
3,509167	0,1	3,630853
3,510833	0,1	3,696641
3,512500	0,1	3,659083
3,514167	0,1	3,689297
3,515833	0,1	3,691170
3,517500	0,1	3,709294
3,519167	0,1	3,650944
3,520833	0,1	3,674144
3,522500	0,1	3,656188
3,524167	0,1	3,687319
3,525833	0,1	3,680274
3,527500	0,1	3,709802
3,529167	0,1	3,725020
3,530833	0,1	3,731961
3,532500	0,1	3,710553
3,534167	0,1	3,747228
3,535833	0,1	3,719704
3,537500	0,1	3,735521
3,539167	0,1	3,737391
3,540833	0,1	3,718292
3,542500	0,1	3,757739
3,544167	0,1	3,732813
3,545833	0,1	3,751976
3,547500	0,1	3,754175
3,549167	0,1	3,747272
3,550833	0,1	3,745903
3,552500	0,1	3,726883
3,554167	0,1	3,737867
3,555833	0,1	3,751534
3,557500	0,1	3,742129
3,559167	0,1	3,741841
3,560833	0,1	3,702161
3,562500	0,1	3,717885
3,564167	0,1	3,740948
3,565833	0,1	3,727575
3,567500	0,1	3,725217
3,569167	0,1	3,731179
3,570833	0,1	3,724250
3,572500	0,1	3,704103
3,574167	0,1	3,727293
3,575833	0,1	3,712577
3,577500	0,1	3,726680
3,579167	0,1	3,688096
3,580833	0,1	3,671686
3,582500	0,1	3,688095
3,584167	0,1	3,668556
3,585833	0,1	3,708480
3,587500	0,1	3,695395
3,589167	0,1	3,672063
3,590833	0,1	3,652628
3,592500	0,1	3,659152
3,594167	0,1	3,643594
3,595833	0,1	3,631920
3,597500	0,1	3,604753
3,599167	0,1	3,627135
3,600833	0,1	3,624137
3,602500	0,1	3,605810
3,604167	0,1	3,617886
3,605833	0,1	3,629369
3,607500	0,1	3,563422
3,609167	0,1	3,572909
3,610833	0,1	3,559473
3,612500	0,1	3,584134
3,614167	0,1	3,571475
3,615833	0,1	3,569021
3,617500	0,1	3,565006
3,619167	0,1	3,532563
3,620833	0,1	3,526310
3,622500	0,1	3,498892
3,624167	0,1	3,516011
3,625833	0,1	3,531649
3,627500	0,1	3,499217
3,629167	0,1	3,460294
3,630833	0,1	3,446450
3,632500	0,1	3,451601
3,634167	0,1	3,476877
3,635833	0,1	3,439217
3,637500	0,1	3,417854
3,639167	0,1	3,407011
3,640833	0,1	3,389570
3,642500	0,1	3,396016
3,644167	0,1	3,366007
3,645833	0,1	3,362708
3,647500	0,1	3,371958
3,649167	0,1	3,359756
3,650833	0,1	3,346509
3,652500	0,1	3,320331
3,654167	0,1	3,330302
3,655833	0,1	3,321857
3,657500	0,1	3,304958
3,659167	0,1	3,296610
3,660833	0,1	3,311533
3,662500	0,1	3,262538
3,664167	0,1	3,294320
3,665833	0,1	3,232503
3,667500	0,1	3,259668
3,669167	0,1	3,313131
3,670833	0,1	3,249222
3,672500	0,1	3,221016
3,674167	0,1	3,222073
3,675833	0,1	3,226658
3,677500	0,1	3,187670
3,679167	0,1	3,186858
3,680833	0,1	3,165486
3,682500	0,1	3,214909
3,684167	0,1	3,154167
3,685833	0,1	3,133275
3,687500	0,1	3,149983
3,689167	0,1	3,158560
3,690833	0,1	3,114321
3,692500	0,1	3,124979
3,694167	0,1	3,146876
3,695833	0,1	3,073886
3,697500	0,1	3,118887
3,699167	0,1	3,034561
3,700833	0,1	3,097533
3,702500	0,1	3,040360
3,704167	0,1	3,071842
3,705833	0,1	3,029042
3,707500	0,1	3,005824
3,709167	0,1	3,047781
3,710833	0,1	3,017711
3,712500	0,1	2,983163
3,714167	0,1	2,998309
3,715833	0,1	2,989840
3,717500	0,1	3,035553
3,719167	0,1	2,976331
3,720833	0,1	2,959773
3,722500	0,1	2,995504
3,724167	0,1	2,921644
3,725833	0,1	2,923453
3,727500	0,1	2,962615
3,729167	0,1	2,935495
3,730833	0,1	2,924942
3,732500	0,1	2,898211
3,734167	0,1	2,943343
3,735833	0,1	2,924867
3,737500	0,1	2,910548
3,739167	0,1	2,863451
3,740833	0,1	2,872104
3,742500	0,1	2,859123
3,744167	0,1	2,866406
3,745833	0,1	2,870291
3,747500	0,1	2,823277
3,749167	0,1	2,873061
3,750833	0,1	2,844633
3,752500	0,1	2,815623
3,754167	0,1	2,797649
3,755833	0,1	2,805923
3,757500	0,1	2,798445
3,759167	0,1	2,806268
3,760833	0,1	2,839406
3,762500	0,1	2,803899
3,764167	0,1	2,847859
3,765833	0,1	2,771792
3,767500	0,1	2,783597
3,769167	0,1	2,777054
3,770833	0,1	2,748482
3,772500	0,1	2,761172
3,774167	0,1	2,776495
3,775833	0,1	2,707239
3,777500	0,1	2,748735
3,779167	0,1	2,734813
3,780833	0,1	2,786841
3,782500	0,1	2,712720
3,784167	0,1	2,715967
3,785833	0,1	2,716297
3,787500	0,1	2,678370
3,789167	0,1	2,735713
3,790833	0,1	2,753497
3,792500	0,1	2,679373
3,794167	0,1	2,719013
3,795833	0,1	2,712116
3,797500	0,1	2,719051
3,799167	0,1	2,715380
3,800833	0,1	2,682433
3,802500	0,1	2,715328
3,804167	0,1	2,639918
3,805833	0,1	2,667912
3,807500	0,1	2,636660
3,809167	0,1	2,669654
3,810833	0,1	2,575962
3,812500	0,1	2,639189
3,814167	0,1	2,613543
3,815833	0,1	2,616372
3,817500	0,1	2,642244
3,819167	0,1	2,625371
3,820833	0,1	2,595390
3,822500	0,1	2,602423
3,824167	0,1	2,587574
3,825833	0,1	2,601216
3,827500	0,1	2,575623
3,829167	0,1	2,589273
3,830833	0,1	2,547612
3,832500	0,1	2,591654
3,834167	0,1	2,550782
3,835833	0,1	2,547664
3,837500	0,1	2,564044
3,839167	0,1	2,565415
3,840833	0,1	2,541796
3,842500	0,1	2,542139
3,844167	0,1	2,542065
3,845833	0,1	2,520588
3,847500	0,1	2,520645
3,849167	0,1	2,533643
3,850833	0,1	2,520172
3,852500	0,1	2,491982
3,854167	0,1	2,481120
3,855833	0,1	2,484860
3,857500	0,1	2,506834
3,859167	0,1	2,491905
3,860833	0,1	2,488668
3,862500	0,1	2,502955
3,864167	0,1	2,462511
3,865833	0,1	2,446781
3,867500	0,1	2,431398
3,869167	0,1	2,443541
3,870833	0,1	2,423631
3,872500	0,1	2,401811
3,874167	0,1	2,446249
3,875833	0,1	2,397291
3,877500	0,1	2,417587
3,879167	0,1	2,423421
3,880833	0,1	2,386130
3,882500	0,1	2,360198
3,884167	0,1	2,355660
3,885833	0,1	2,346125
3,887500	0,1	2,356588
3,889167	0,1	2,346257
3,890833	0,1	2,386970
3,892500	0,1	2,360771
3,894167	0,1	2,331603
3,895833	0,1	2,296194
3,897500	0,1	2,311404
3,899167	0,1	2,288860
3,900833	0,1	2,307245
3,902500	0,1	2,285209
3,904167	0,1	2,277940
3,905833	0,1	2,274421
3,907500	0,1	2,247136
3,909167	0,1	2,262066
3,910833	0,1	2,244336
3,912500	0,1	2,239947
3,914167	0,1	2,268015
3,915833	0,1	2,208868
3,917500	0,1	2,210146
3,919167	0,1	2,252290
3,920833	0,1	2,231335
3,922500	0,1	2,193135
3,924167	0,1	2,195419
3,925833	0,1	2,156503
3,927500	0,1	2,173156
3,929167	0,1	2,189808
3,930833	0,1	2,146956
3,932500	0,1	2,139914
3,934167	0,1	2,148449
3,935833	0,1	2,142503
3,937500	0,1	2,149531
3,939167	0,1	2,140843
3,940833	0,1	2,120600
3,942500	0,1	2,083990
3,944167	0,1	2,089144
3,945833	0,1	2,091585
3,947500	0,1	2,104439
3,949167	0,1	2,077955
3,950833	0,1	2,064454
3,952500	0,1	2,072487
3,954167	0,1	2,076506
3,955833	0,1	2,031799
3,957500	0,1	2,043700
3,959167	0,1	2,022030
3,960833	0,1	2,039819
3,962500	0,1	2,008321
3,964167	0,1	2,026324
3,965833	0,1	2,007957
3,967500	0,1	1,988937
3,969167	0,1	2,012037
3,970833	0,1	2,001137
3,972500	0,1	1,953915
3,974167	0,1	1,959501
3,975833	0,1	1,994666
3,977500	0,1	1,946022
3,979167	0,1	1,949740
3,980833	0,1	1,995019
3,982500	0,1	1,939277
3,984167	0,1	1,927064
3,985833	0,1	1,944212
3,987500	0,1	1,918814
3,989167	0,1	1,912493
3,990833	0,1	1,918519
3,992500	0,1	1,854019
3,994167	0,1	1,880837
3,995833	0,1	1,881780
3,997500	0,1	1,875895
3,999167	0,1	1,879551
4,000833	0,1	1,890314
4,002500	0,1	1,884289
4,004167	0,1	1,878192
4,005833	0,1	1,873100
4,007500	0,1	1,848346
4,009167	0,1	1,817275
4,010833	0,1	1,844527
4,012500	0,1	1,820574
4,014167	0,1	1,815906
4,015833	0,1	1,842379
4,017500	0,1	1,819139
4,019167	0,1	1,835849
4,020833	0,1	1,815193
4,022500	0,1	1,854429
4,024167	0,1	1,824596
4,025833	0,1	1,831474
4,027500	0,1	1,823442
4,029167	0,1	1,829323
4,030833	0,1	1,772146
4,032500	0,1	1,778089
4,034167	0,1	1,833471
4,035833	0,1	1,818492
4,037500	0,1	1,785563
4,039167	0,1	1,836340
4,040833	0,1	1,801564
4,042500	0,1	1,783766
4,044167	0,1	1,815756
4,045833	0,1	1,808305
4,047500	0,1	1,826949
4,049167	0,1	1,840371
4,050833	0,1	1,822656
4,052500	0,1	1,828026
4,054167	0,1	1,870145
4,055833	0,1	1,844757
4,057500	0,1	1,820712
4,059167	0,1	1,816551
4,060833	0,1	1,874085
4,062500	0,1	1,843681
4,064167	0,1	1,861392
4,065833	0,1	1,861539
4,067500	0,1	1,888947
4,069167	0,1	1,872954
4,070833	0,1	1,899424
4,072500	0,1	1,888885
4,074167	0,1	1,935592
4,075833	0,1	1,883871
4,077500	0,1	1,885224
4,079167	0,1	1,935663
4,080833	0,1	1,944284
4,082500	0,1	1,944788
4,084167	0,1	1,944718
4,085833	0,1	1,979952
4,087500	0,1	1,965393
4,089167	0,1	1,950392
4,090833	0,1	2,008011
4,092500	0,1	1,983411
4,094167	0,1	2,000340
4,095833	0,1	2,015990
4,097500	0,1	2,025827
4,099167	0,1	2,036449
4,100833	0,1	2,039685
4,102500	0,1	2,052673
4,104167	0,1	2,035885
4,105833	0,1	2,035668
4,107500	0,1	2,060926
4,109167	0,1	2,125890
4,110833	0,1	2,095119
4,112500	0,1	2,142628
4,114167	0,1	2,142279
4,115833	0,1	2,174948
4,117500	0,1	2,147170
4,119167	0,1	2,173235
4,120833	0,1	2,179697
4,122500	0,1	2,249413
4,124167	0,1	2,234066
4,125833	0,1	2,267587
4,127500	0,1	2,226893
4,129167	0,1	2,273702
4,130833	0,1	2,303203
4,132500	0,1	2,289797
4,134167	0,1	2,295318
4,135833	0,1	2,352575
4,137500	0,1	2,365869
4,139167	0,1	2,320557
4,140833	0,1	2,364428
4,142500	0,1	2,395673
4,144167	0,1	2,392448
4,145833	0,1	2,413135
4,147500	0,1	2,417960
4,149167	0,1	2,446834
4,150833	0,1	2,437504
4,152500	0,1	2,482198
4,154167	0,1	2,467761
4,155833	0,1	2,513977
4,157500	0,1	2,481656
4,159167	0,1	2,527972
4,160833	0,1	2,521231
4,162500	0,1	2,546512
4,164167	0,1	2,537762
4,165833	0,1	2,547810
4,167500	0,1	2,562053
4,169167	0,1	2,568585
4,170833	0,1	2,600117
4,172500	0,1	2,591330
4,174167	0,1	2,629949
4,175833	0,1	2,603825
4,177500	0,1	2,648090
4,179167	0,1	2,608331
4,180833	0,1	2,630525
4,182500	0,1	2,655334
4,184167	0,1	2,661447
4,185833	0,1	2,662757
4,187500	0,1	2,648302
4,189167	0,1	2,665191
4,190833	0,1	2,652708
4,192500	0,1	2,666921
4,194167	0,1	2,667014
4,195833	0,1	2,703226
4,197500	0,1	2,635659
4,199167	0,1	2,719317
4,200833	0,1	2,700154
4,202500	0,1	2,688220
4,204167	0,1	2,683327
4,205833	0,1	2,719900
4,207500	0,1	2,712237
4,209167	0,1	2,698212
4,210833	0,1	2,690161
4,212500	0,1	2,729456
4,214167	0,1	2,688212
4,215833	0,1	2,731714
4,217500	0,1	2,709547
4,219167	0,1	2,726167
4,220833	0,1	2,732925
4,222500	0,1	2,723208
4,224167	0,1	2,720557
4,225833	0,1	2,694845
4,227500	0,1	2,678575
4,229167	0,1	2,752309
4,230833	0,1	2,688308
4,232500	0,1	2,702450
4,234167	0,1	2,674002
4,235833	0,1	2,677788
4,237500	0,1	2,666295
4,239167	0,1	2,703062
4,240833	0,1	2,669970
4,242500	0,1	2,671303
4,244167	0,1	2,657060
4,245833	0,1	2,677859
4,247500	0,1	2,634611
4,249167	0,1	2,669007
4,250833	0,1	2,613884
4,252500	0,1	2,631200
4,254167	0,1	2,659228
4,255833	0,1	2,650104
4,257500	0,1	2,614900
4,259167	0,1	2,587378
4,260833	0,1	2,606103
4,262500	0,1	2,575723
4,264167	0,1	2,598402
4,265833	0,1	2,593891
4,267500	0,1	2,556752
4,269167	0,1	2,525862
4,270833	0,1	2,540981
4,272500	0,1	2,557003
4,274167	0,1	2,557166
4,275833	0,1	2,524249
4,277500	0,1	2,507651
4,279167	0,1	2,484525
4,280833	0,1	2,469639
4,282500	0,1	2,502177
4,284167	0,1	2,483783
4,285833	0,1	2,493403
4,287500	0,1	2,435935
4,289167	0,1	2,426603
4,290833	0,1	2,441515
4,292500	0,1	2,462294
4,294167	0,1	2,424641
4,295833	0,1	2,453947
4,297500	0,1	2,435067
4,299167	0,1	2,384931
4,300833	0,1	2,395393
4,302500	0,1	2,349710
4,304167	0,1	2,376285
4,305833	0,1	2,383909
4,307500	0,1	2,358847
4,309167	0,1	2,333057
4,310833	0,1	2,345532
4,312500	0,1	2,323778
4,314167	0,1	2,325704
4,315833	0,1	2,324279
4,317500	0,1	2,299565
4,319167	0,1	2,315218
4,320833	0,1	2,287215
4,322500	0,1	2,283692
4,324167	0,1	2,250584
4,325833	0,1	2,253678
4,327500	0,1	2,228824
4,329167	0,1	2,205419
4,330833	0,1	2,199014
4,332500	0,1	2,220914
4,334167	0,1	2,201821
4,335833	0,1	2,166563
4,337500	0,1	2,137116
4,339167	0,1	2,166047
4,340833	0,1	2,179832
4,342500	0,1	2,132814
4,344167	0,1	2,151473
4,345833	0,1	2,134308
4,347500	0,1	2,115002
4,349167	0,1	2,100925
4,350833	0,1	2,128338
4,352500	0,1	2,114284
4,354167	0,1	2,083198
4,355833	0,1	2,067469
4,357500	0,1	2,048808
4,359167	0,1	2,063585
4,360833	0,1	2,065527
4,362500	0,1	2,040406
4,364167	0,1	2,054972
4,365833	0,1	2,022820
4,367500	0,1	2,020517
4,369167	0,1	1,991235
4,370833	0,1	1,944370
4,372500	0,1	1,992150
4,374167	0,1	1,951115
4,375833	0,1	1,975933
4,377500	0,1	1,946519
4,379167	0,1	1,964021
4,380833	0,1	1,979022
4,382500	0,1	1,972927
4,384167	0,1	1,916741
4,385833	0,1	1,935884
4,387500	0,1	1,912281
4,389167	0,1	1,926269
4,390833	0,1	1,928067
4,392500	0,1	1,896495
4,394167	0,1	1,893187
4,395833	0,1	1,908613
4,397500	0,1	1,892402
4,399167	0,1	1,864058
4,400833	0,1	1,875676
4,402500	0,1	1,838658
4,404167	0,1	1,794173
4,405833	0,1	1,838928
4,407500	0,1	1,815479
4,409167	0,1	1,824655
4,410833	0,1	1,813106
4,412500	0,1	1,809805
4,414167	0,1	1,796679
4,415833	0,1	1,801983
4,417500	0,1	1,771352
4,419167	0,1	1,773712
4,420833	0,1	1,779309
4,422500	0,1	1,777309
4,424167	0,1	1,746096
4,425833	0,1	1,732898
4,427500	0,1	1,747379
4,429167	0,1	1,759582
4,430833	0,1	1,736129
4,432500	0,1	1,723644
4,434167	0,1	1,686713
4,435833	0,1	1,655569
4,437500	0,1	1,727792
4,439167	0,1	1,725793
4,440833	0,1	1,673442
4,442500	0,1	1,650407
4,444167	0,1	1,659648
4,445833	0,1	1,644392
4,447500	0,1	1,645378
4,449167	0,1	1,653709
4,450833	0,1	1,633337
4,452500	0,1	1,618489
4,454167	0,1	1,609022
4,455833	0,1	1,593247
4,457500	0,1	1,659137
4,459167	0,1	1,603575
4,460833	0,1	1,562769
4,462500	0,1	1,596322
4,464167	0,1	1,545992
4,465833	0,1	1,538961
4,467500	0,1	1,531504
4,469167	0,1	1,530281
4,470833	0,1	1,546691
4,472500	0,1	1,580542
4,474167	0,1	1,528551
4,475833	0,1	1,504972
4,477500	0,1	1,519167
4,479167	0,1	1,518525
4,480833	0,1	1,465390
4,482500	0,1	1,512270
4,484167	0,1	1,499162
4,485833	0,1	1,497300
4,487500	0,1	1,457443
4,489167	0,1	1,499226
4,490833	0,1	1,454167
4,492500	0,1	1,454555
4,494167	0,1	1,490908
4,495833	0,1	1,411920
4,497500	0,1	1,392988
4,499167	0,1	1,463451
4,500833	0,1	1,393208
4,502500	0,1	1,403225
4,504167	0,1	1,417001
4,505833	0,1	1,411257
4,507500	0,1	1,380088
4,509167	0,1	1,418057
4,510833	0,1	1,369415
4,512500	0,1	1,355491
4,514167	0,1	1,388679
4,515833	0,1	1,368335
4,517500	0,1	1,335646
4,519167	0,1	1,360376
4,520833	0,1	1,339652
4,522500	0,1	1,306909
4,524167	0,1	1,338938
4,525833	0,1	1,301116
4,527500	0,1	1,302741
4,529167	0,1	1,328481
4,530833	0,1	1,284543
4,532500	0,1	1,323304
4,534167	0,1	1,232806
4,535833	0,1	1,267534
4,537500	0,1	1,291289
4,539167	0,1	1,267643
4,540833	0,1	1,254742
4,542500	0,1	1,286485
4,544167	0,1	1,263334
4,545833	0,1	1,224574
4,547500	0,1	1,253731
4,549167	0,1	1,261598
4,550833	0,1	1,255316
4,552500	0,1	1,225095
4,554167	0,1	1,212028
4,555833	0,1	1,173464
4,557500	0,1	1,191522
4,559167	0,1	1,180157
4,560833	0,1	1,230590
4,562500	0,1	1,217051
4,564167	0,1	1,186170
4,565833	0,1	1,184395
4,567500	0,1	1,171758
4,569167	0,1	1,192248
4,570833	0,1	1,208044
4,572500	0,1	1,165266
4,574167	0,1	1,155842
4,575833	0,1	1,176652
4,577500	0,1	1,137372
4,579167	0,1	1,109796
4,580833	0,1	1,155723
4,582500	0,1	1,120046
4,584167	0,1	1,112964
4,585833	0,1	1,130198
4,587500	0,1	1,139545
4,589167	0,1	1,179279
4,590833	0,1	1,069626
4,592500	0,1	1,092090
4,594167	0,1	1,062074
4,595833	0,1	1,084862
4,597500	0,1	1,088871
4,599167	0,1	1,084851
4,600833	0,1	1,077489
4,602500	0,1	1,049419
4,604167	0,1	1,047614
4,605833	0,1	1,075191
4,607500	0,1	1,060374
4,609167	0,1	1,043343
4,610833	0,1	1,041168
4,612500	0,1	1,048002
4,614167	0,1	1,043679
4,615833	0,1	1,036489
4,617500	0,1	1,040963
4,619167	0,1	1,014320
4,620833	0,1	1,013295
4,622500	0,1	1,037955
4,624167	0,1	1,035740
4,625833	0,1	0,994275
4,627500	0,1	1,020582
4,629167	0,1	0,960881
4,630833	0,1	1,041080
4,632500	0,1	0,986459
4,634167	0,1	0,957651
4,635833	0,1	0,998429
4,637500	0,1	0,980397
4,639167	0,1	0,983057
4,640833	0,1	0,955140
4,642500	0,1	0,958971
4,644167	0,1	0,981878
4,645833	0,1	0,922078
4,647500	0,1	0,942479
4,649167	0,1	0,939483
4,650833	0,1	0,989403
4,652500	0,1	0,928965
4,654167	0,1	0,906334
4,655833	0,1	0,939407
4,657500	0,1	0,920202
4,659167	0,1	0,909553
4,660833	0,1	0,925321
4,662500	0,1	0,913130
4,664167	0,1	0,905329
4,665833	0,1	0,925965
4,667500	0,1	0,929170
4,669167	0,1	0,888918
4,670833	0,1	0,912880
4,672500	0,1	0,916147
4,674167	0,1	0,863212
4,675833	0,1	0,884459
4,677500	0,1	0,866958
4,679167	0,1	0,903143
4,680833	0,1	0,894221
4,682500	0,1	0,875782
4,684167	0,1	0,880973
4,685833	0,1	0,866581
4,687500	0,1	0,887212
4,689167	0,1	0,875091
4,690833	0,1	0,858272
4,692500	0,1	0,818463
4,694167	0,1	0,864921
4,695833	0,1	0,863710
4,697500	0,1	0,837321
4,699167	0,1	0,834118
4,700833	0,1	0,849129
4,702500	0,1	0,820703
4,704167	0,1	0,855481
4,705833	0,1	0,789543
4,707500	0,1	0,833835
4,709167	0,1	0,843111
4,710833	0,1	0,837316
4,712500	0,1	0,821765
4,714167	0,1	0,806082
4,715833	0,1	0,805321
4,717500	0,1	0,820626
4,719167	0,1	0,837621
4,720833	0,1	0,827052
4,722500	0,1	0,791934
4,724167	0,1	0,833082
4,725833	0,1	0,765661
4,727500	0,1	0,805578
4,729167	0,1	0,762479
4,730833	0,1	0,797672
4,732500	0,1	0,805786
4,734167	0,1	0,792972
4,735833	0,1	0,769516
4,737500	0,1	0,768289
4,739167	0,1	0,785878
4,740833	0,1	0,791924
4,742500	0,1	0,778801
4,744167	0,1	0,742175
4,745833	0,1	0,762041
4,747500	0,1	0,754118
4,749167	0,1	0,751407
4,750833	0,1	0,761112
4,752500	0,1	0,738951
4,754167	0,1	0,737990
4,755833	0,1	0,690598
4,757500	0,1	0,747328
4,759167	0,1	0,751916
4,760833	0,1	0,735417
4,762500	0,1	0,723375
4,764167	0,1	0,716557
4,765833	0,1	0,727569
4,767500	0,1	0,746160
4,769167	0,1	0,753536
4,770833	0,1	0,718562
4,772500	0,1	0,700813
4,774167	0,1	0,722035
4,775833	0,1	0,758151
4,777500	0,1	0,685722
4,779167	0,1	0,697718
4,780833	0,1	0,737670
4,782500	0,1	0,730264
4,784167	0,1	0,680894
4,785833	0,1	0,702909
4,787500	0,1	0,719551
4,789167	0,1	0,719198
4,790833	0,1	0,705693
4,792500	0,1	0,716752
4,794167	0,1	0,720510
4,795833	0,1	0,701259
4,797500	0,1	0,711756
4,799167	0,1	0,700745
4,800833	0,1	0,721927
4,802500	0,1	0,651074
4,804167	0,1	0,713430
4,805833	0,1	0,691489
4,807500	0,1	0,729672
4,809167	0,1	0,701501
4,810833	0,1	0,661569
4,812500	0,1	0,681901
4,814167	0,1	0,681147
4,815833	0,1	0,671603
4,817500	0,1	0,676597
4,819167	0,1	0,690276
4,820833	0,1	0,696719
4,822500	0,1	0,680912
4,824167	0,1	0,683995
4,825833	0,1	0,697740
4,827500	0,1	0,698166
4,829167	0,1	0,665366
4,830833	0,1	0,674126
4,832500	0,1	0,685612
4,834167	0,1	0,674312
4,835833	0,1	0,661563
4,837500	0,1	0,661536
4,839167	0,1	0,647708
4,840833	0,1	0,620034
4,842500	0,1	0,660956
4,844167	0,1	0,673794
4,845833	0,1	0,664271
4,847500	0,1	0,635110
4,849167	0,1	0,663775
4,850833	0,1	0,649485
4,852500	0,1	0,652057
4,854167	0,1	0,638982
4,855833	0,1	0,622526
4,857500	0,1	0,696150
4,859167	0,1	0,635393
4,860833	0,1	0,635022
4,862500	0,1	0,639331
4,864167	0,1	0,632094
4,865833	0,1	0,680764
4,867500	0,1	0,697073
4,869167	0,1	0,631372
4,870833	0,1	0,634443
4,872500	0,1	0,694129
4,874167	0,1	0,644182
4,875833	0,1	0,630742
4,877500	0,1	0,643104
4,879167	0,1	0,646012
4,880833	0,1	0,667219
4,882500	0,1	0,636566
4,884167	0,1	0,612844
4,885833	0,1	0,615584
4,887500	0,1	0,662417
4,889167	0,1	0,632165
4,890833	0,1	0,651920
4,892500	0,1	0,638734
4,894167	0,1	0,629255
4,895833	0,1	0,668265
4,897500	0,1	0,688920
4,899167	0,1	0,633840
4,900833	0,1	0,651921
4,902500	0,1	0,620954
4,904167	0,1	0,629736
4,905833	0,1	0,637060
4,907500	0,1	0,668951
4,909167	0,1	0,636213
4,910833	0,1	0,622684
4,912500	0,1	0,676651
4,914167	0,1	0,630657
4,915833	0,1	0,630292
4,917500	0,1	0,660380
4,919167	0,1	0,653569
4,920833	0,1	0,653543
4,922500	0,1	0,669598
4,924167	0,1	0,641271
4,925833	0,1	0,635116
4,927500	0,1	0,616036
4,929167	0,1	0,623652
4,930833	0,1	0,584447
4,932500	0,1	0,638966
4,934167	0,1	0,645747
4,935833	0,1	0,623567
4,937500	0,1	0,603197
4,939167	0,1	0,651111
4,940833	0,1	0,607853
4,942500	0,1	0,609040
4,944167	0,1	0,648405
4,945833	0,1	0,637849
4,947500	0,1	0,597064
4,949167	0,1	0,654775
4,950833	0,1	0,611533
4,952500	0,1	0,610197
4,954167	0,1	0,602799
4,955833	0,1	0,571264
4,957500	0,1	0,611133
4,959167	0,1	0,655399
4,960833	0,1	0,646221
4,962500	0,1	0,637022
4,964167	0,1	0,629452
4,965833	0,1	0,615615
4,967500	0,1	0,612707
4,969167	0,1	0,623808
4,970833	0,1	0,639949
4,972500	0,1	0,636245
4,974167	0,1	0,634181
4,975833	0,1	0,631266
4,977500	0,1	0,632472
4,979167	0,1	0,630424
4,980833	0,1	0,693551
4,982500	0,1	0,629663
4,984167	0,1	0,616837
4,985833	0,1	0,625387
4,987500	0,1	0,633708
4,989167	0,1	0,623762
4,990833	0,1	0,691197
4,992500	0,1	0,598666
4,994167	0,1	0,647735
4,995833	0,1	0,634225
4,997500	0,1	0,665483
4,999167	0,1	0,710416
5,000833	0,1	0,652401
5,002500	0,1	0,682724
5,004167	0,1	0,697740
5,005833	0,1	0,658573
5,007500	0,1	0,667998
5,009167	0,1	0,692496
5,010833	0,1	0,672200
5,012500	0,1	0,661298
5,014167	0,1	0,707504
5,015833	0,1	0,708296
5,017500	0,1	0,681691
5,019167	0,1	0,690501
5,020833	0,1	0,753947
5,022500	0,1	0,699243
5,024167	0,1	0,692371
5,025833	0,1	0,704917
5,027500	0,1	0,685439
5,029167	0,1	0,727341
5,030833	0,1	0,737810
5,032500	0,1	0,720491
5,034167	0,1	0,719265
5,035833	0,1	0,693193
5,037500	0,1	0,738736
5,039167	0,1	0,753913
5,040833	0,1	0,740437
5,042500	0,1	0,753980
5,044167	0,1	0,751498
5,045833	0,1	0,727556
5,047500	0,1	0,735765
5,049167	0,1	0,744205
5,050833	0,1	0,794203
5,052500	0,1	0,733229
5,054167	0,1	0,721045
5,055833	0,1	0,768879
5,057500	0,1	0,713127
5,059167	0,1	0,761702
5,060833	0,1	0,790342
5,062500	0,1	0,787861
5,064167	0,1	0,782774
5,065833	0,1	0,806604
5,067500	0,1	0,787487
5,069167	0,1	0,762231
5,070833	0,1	0,774483
5,072500	0,1	0,834413
5,074167	0,1	0,757488
5,075833	0,1	0,774838
5,077500	0,1	0,787346
5,079167	0,1	0,819554
5,080833	0,1	0,811678
5,082500	0,1	0,837262
5,084167	0,1	0,815280
5,085833	0,1	0,810056
5,087500	0,1	0,831512
5,089167	0,1	0,815346
5,090833	0,1	0,814854
5,092500	0,1	0,839710
5,094167	0,1	0,840380
5,095833	0,1	0,837159
5,097500	0,1	0,820654
5,099167	0,1	0,796330
5,100833	0,1	0,847765
5,102500	0,1	0,800224
5,104167	0,1	0,882310
5,105833	0,1	0,821576
5,107500	0,1	0,825740
5,109167	0,1	0,826005
5,110833	0,1	0,847886
5,112500	0,1	0,865170
5,114167	0,1	0,850271
5,115833	0,1	0,803001
5,117500	0,1	0,843969
5,119167	0,1	0,870925
5,120833	0,1	0,827861
5,122500	0,1	0,850329
5,124167	0,1	0,827165
5,125833	0,1	0,845310
5,127500	0,1	0,815016
5,129167	0,1	0,870472
5,130833	0,1	0,829082
5,132500	0,1	0,843908
5,134167	0,1	0,821413
5,135833	0,1	0,870808
5,137500	0,1	0,826906
5,139167	0,1	0,824119
5,140833	0,1	0,834668
5,142500	0,1	0,838736
5,144167	0,1	0,824452
5,145833	0,1	0,843176
5,147500	0,1	0,831342
5,149167	0,1	0,820543
5,150833	0,1	0,825649
5,152500	0,1	0,812591
5,154167	0,1	0,791619
5,155833	0,1	0,828152
5,157500	0,1	0,803106
5,159167	0,1	0,819404
5,160833	0,1	0,803505
5,162500	0,1	0,835661
5,164167	0,1	0,793336
5,165833	0,1	0,822312
5,167500	0,1	0,825983
5,169167	0,1	0,774078
5,170833	0,1	0,816310
5,172500	0,1	0,706938
5,174167	0,1	0,777448
5,175833	0,1	0,804516
5,177500	0,1	0,780335
5,179167	0,1	0,767269
5,180833	0,1	0,772110
5,182500	0,1	0,778796
5,184167	0,1	0,734713
5,185833	0,1	0,734923
5,187500	0,1	0,726863
5,189167	0,1	0,743829
5,190833	0,1	0,748251
5,192500	0,1	0,767597
5,194167	0,1	0,760006
5,195833	0,1	0,734197
5,197500	0,1	0,735838
5,199167	0,1	0,753779
5,200833	0,1	0,760003
5,202500	0,1	0,731311
5,204167	0,1	0,731835
5,205833	0,1	0,737145
5,207500	0,1	0,722025
5,209167	0,1	0,723527
5,210833	0,1	0,688910
5,212500	0,1	0,696942
5,214167	0,1	0,686682
5,215833	0,1	0,703135
5,217500	0,1	0,668075
5,219167	0,1	0,677461
5,220833	0,1	0,668805
5,222500	0,1	0,669579
5,224167	0,1	0,659630
5,225833	0,1	0,657524
5,227500	0,1	0,652280
5,229167	0,1	0,621439
5,230833	0,1	0,632865
5,232500	0,1	0,621842
5,234167	0,1	0,629934
5,235833	0,1	0,624207
5,237500	0,1	0,625206
5,239167	0,1	0,625047
5,240833	0,1	0,634558
5,242500	0,1	0,633183
5,244167	0,1	0,596208
5,245833	0,1	0,579159
5,247500	0,1	0,599112
5,249167	0,1	0,604911
5,250833	0,1	0,582549
5,252500	0,1	0,574399
5,254167	0,1	0,570022
5,255833	0,1	0,598688
5,257500	0,1	0,536421
5,259167	0,1	0,565625
5,260833	0,1	0,558354
5,262500	0,1	0,563950
5,264167	0,1	0,545807
5,265833	0,1	0,567165
5,267500	0,1	0,534417
5,269167	0,1	0,544800
5,270833	0,1	0,526807
5,272500	0,1	0,543474
5,274167	0,1	0,538365
5,275833	0,1	0,506022
5,277500	0,1	0,538712
5,279167	0,1	0,518700
5,280833	0,1	0,512677
5,282500	0,1	0,526800
5,284167	0,1	0,534630
5,285833	0,1	0,482428
5,287500	0,1	0,483516
5,289167	0,1	0,470439
5,290833	0,1	0,480838
5,292500	0,1	0,493870
5,294167	0,1	0,472577
5,295833	0,1	0,469962
5,297500	0,1	0,469057
5,299167	0,1	0,491367
5,300833	0,1	0,468418
5,302500	0,1	0,455315
5,304167	0,1	0,420076
5,305833	0,1	0,463635
5,307500	0,1	0,397236
5,309167	0,1	0,470139
5,310833	0,1	0,495893
5,312500	0,1	0,417741
5,314167	0,1	0,456563
5,315833	0,1	0,439065
5,317500	0,1	0,460878
5,319167	0,1	0,422327
5,320833	0,1	0,415440
5,322500	0,1	0,385576
5,324167	0,1	0,428909
5,325833	0,1	0,442081
5,327500	0,1	0,419015
5,329167	0,1	0,414341
5,330833	0,1	0,427340
5,332500	0,1	0,392079
5,334167	0,1	0,399691
5,335833	0,1	0,377660
5,337500	0,1	0,389044
5,339167	0,1	0,396733
5,340833	0,1	0,383447
5,342500	0,1	0,334189
5,344167	0,1	0,377540
5,345833	0,1	0,355227
5,347500	0,1	0,379641
5,349167	0,1	0,384504
5,350833	0,1	0,331806
5,352500	0,1	0,386459
5,354167	0,1	0,387824
5,355833	0,1	0,353231
5,357500	0,1	0,373460
5,359167	0,1	0,371503
5,360833	0,1	0,338367
5,362500	0,1	0,350455
5,364167	0,1	0,328164
5,365833	0,1	0,315193
5,367500	0,1	0,337871
5,369167	0,1	0,349455
5,370833	0,1	0,303779
5,372500	0,1	0,335903
5,374167	0,1	0,331636
5,375833	0,1	0,354090
5,377500	0,1	0,324175
5,379167	0,1	0,330053
5,380833	0,1	0,316414
5,382500	0,1	0,294443
5,384167	0,1	0,308301
5,385833	0,1	0,311940
5,387500	0,1	0,272792
5,389167	0,1	0,295655
5,390833	0,1	0,286396
5,392500	0,1	0,308590
5,394167	0,1	0,291674
5,395833	0,1	0,280185
5,397500	0,1	0,307043
5,399167	0,1	0,316731
5,400833	0,1	0,281640
5,402500	0,1	0,277064
5,404167	0,1	0,294785
5,405833	0,1	0,277775
5,407500	0,1	0,274618
5,409167	0,1	0,288223
5,410833	0,1	0,304889
5,412500	0,1	0,282890
5,414167	0,1	0,292857
5,415833	0,1	0,307690
5,417500	0,1	0,272147
5,419167	0,1	0,239460
5,420833	0,1	0,261614
5,422500	0,1	0,283459
5,424167	0,1	0,230681
5,425833	0,1	0,295096
5,427500	0,1	0,246670
5,429167	0,1	0,266183
5,430833	0,1	0,229070
5,432500	0,1	0,240478
5,434167	0,1	0,240867
5,435833	0,1	0,249262
5,437500	0,1	0,256469
5,439167	0,1	0,221701
5,440833	0,1	0,245977
5,442500	0,1	0,216553
5,444167	0,1	0,240830
5,445833	0,1	0,241831
5,447500	0,1	0,213333
5,449167	0,1	0,205834
5,450833	0,1	0,230117
5,452500	0,1	0,273770
5,454167	0,1	0,205880
5,455833	0,1	0,224809
5,457500	0,1	0,219668
5,459167	0,1	0,216867
5,460833	0,1	0,210308
5,462500	0,1	0,240924
5,464167	0,1	0,199344
5,465833	0,1	0,204448
5,467500	0,1	0,233073
5,469167	0,1	0,213752
5,470833	0,1	0,234590
5,472500	0,1	0,222403
5,474167	0,1	0,209954
5,475833	0,1	0,193551
5,477500	0,1	0,236673
5,479167	0,1	0,198312
5,480833	0,1	0,188658
5,482500	0,1	0,228632
5,484167	0,1	0,160296
5,485833	0,1	0,208749
5,487500	0,1	0,195157
5,489167	0,1	0,211362
5,490833	0,1	0,174766
5,492500	0,1	0,185789
5,494167	0,1	0,180258
5,495833	0,1	0,179202
5,497500	0,1	0,179937
5,499167	0,1	0,212712
5,500833	0,1	0,186860
5,502500	0,1	0,244070
5,504167	0,1	0,197447
5,505833	0,1	0,204383
5,507500	0,1	0,185924
5,509167	0,1	0,198076
5,510833	0,1	0,174924
5,512500	0,1	0,175593
5,514167	0,1	0,164564
5,515833	0,1	0,182315
5,517500	0,1	0,171385
5,519167	0,1	0,194057
5,520833	0,1	0,161771
5,522500	0,1	0,189616
5,524167	0,1	0,156142
5,525833	0,1	0,217852
5,527500	0,1	0,175024
5,529167	0,1	0,162443
5,530833	0,1	0,173404
5,532500	0,1	0,197788
5,534167	0,1	0,153890
5,535833	0,1	0,163175
5,537500	0,1	0,144559
5,539167	0,1	0,154074
5,540833	0,1	0,132465
5,542500	0,1	0,148180
5,544167	0,1	0,141115
5,545833	0,1	0,116738
5,547500	0,1	0,167314
5,549167	0,1	0,174564
5,550833	0,1	0,188205
5,552500	0,1	0,157395
5,554167	0,1	0,135004
5,555833	0,1	0,136383
5,557500	0,1	0,137578
5,559167	0,1	0,129606
5,560833	0,1	0,201346
5,562500	0,1	0,125113
5,564167	0,1	0,180730
5,565833	0,1	0,148167
5,567500	0,1	0,118669
5,569167	0,1	0,147509
5,570833	0,1	0,149093
5,572500	0,1	0,187296
5,574167	0,1	0,139259
5,575833	0,1	0,161311
5,577500	0,1	0,124142
5,579167	0,1	0,164232
5,580833	0,1	0,162859
5,582500	0,1	0,162764
5,584167	0,1	0,124813
5,585833	0,1	0,135066
5,587500	0,1	0,159896
5,589167	0,1	0,151541
5,590833	0,1	0,150056
5,592500	0,1	0,184276
5,594167	0,1	0,109675
5,595833	0,1	0,141367
5,597500	0,1	0,132434
5,599167	0,1	0,139246
5,600833	0,1	0,141820
5,602500	0,1	0,141948
5,604167	0,1	0,114675
5,605833	0,1	0,119918
5,607500	0,1	0,123617
5,609167	0,1	0,135066
5,610833	0,1	0,191603
5,612500	0,1	0,166596
5,614167	0,1	0,118581
5,615833	0,1	0,110916
5,617500	0,1	0,128144
5,619167	0,1	0,159274
5,620833	0,1	0,129766
5,622500	0,1	0,137795
5,624167	0,1	0,125641
5,625833	0,1	0,140727
5,627500	0,1	0,110307
5,629167	0,1	0,134229
5,630833	0,1	0,112078
5,632500	0,1	0,152364
5,634167	0,1	0,168933
5,635833	0,1	0,133111
5,637500	0,1	0,123881
5,639167	0,1	0,137314
5,640833	0,1	0,099790
5,642500	0,1	0,144092
5,644167	0,1	0,143820
5,645833	0,1	0,126158
5,647500	0,1	0,102205
5,649167	0,1	0,142524
5,650833	0,1	0,179640
5,652500	0,1	0,147427
5,654167	0,1	0,144139
5,655833	0,1	0,155169
5,657500	0,1	0,113979
5,659167	0,1	0,145226
5,660833	0,1	0,090923
5,662500	0,1	0,092649
5,664167	0,1	0,156218
5,665833	0,1	0,127900
5,667500	0,1	0,145490
5,669167	0,1	0,123007
5,670833	0,1	0,137863
5,672500	0,1	0,159345
5,674167	0,1	0,146651
5,675833	0,1	0,153728
5,677500	0,1	0,154495
5,679167	0,1	0,146522
5,680833	0,1	0,116549
5,682500	0,1	0,160147
5,684167	0,1	0,150155
5,685833	0,1	0,116041
5,687500	0,1	0,163171
5,689167	0,1	0,146940
5,690833	0,1	0,111213
5,692500	0,1	0,167348
5,694167	0,1	0,173410
5,695833	0,1	0,153241
5,697500	0,1	0,143270
5,699167	0,1	0,138899
5,700833	0,1	0,170280
5,702500	0,1	0,166369
5,704167	0,1	0,149062
5,705833	0,1	0,185015
5,707500	0,1	0,178588
5,709167	0,1	0,158712
5,710833	0,1	0,156489
5,712500	0,1	0,147513
5,714167	0,1	0,176489
5,715833	0,1	0,141701
5,717500	0,1	0,152979
5,719167	0,1	0,159030
5,720833	0,1	0,185884
5,722500	0,1	0,127809
5,724167	0,1	0,135610
5,725833	0,1	0,150537
5,727500	0,1	0,179774
5,729167	0,1	0,196696
5,730833	0,1	0,162483
5,732500	0,1	0,131535
5,734167	0,1	0,157062
5,735833	0,1	0,170575
5,737500	0,1	0,153501
5,739167	0,1	0,171924
5,740833	0,1	0,180486
5,742500	0,1	0,145786
5,744167	0,1	0,184559
5,745833	0,1	0,165985
5,747500	0,1	0,173150
5,749167	0,1	0,125395
5,750833	0,1	0,214757
5,752500	0,1	0,132191
5,754167	0,1	0,155033
5,755833	0,1	0,153434
5,757500	0,1	0,154783
5,759167	0,1	0,159965
5,760833	0,1	0,200774
5,762500	0,1	0,165792
5,764167	0,1	0,140319
5,765833	0,1	0,172082
5,767500	0,1	0,168878
5,769167	0,1	0,119063
5,770833	0,1	0,196006
5,772500	0,1	0,140963
5,774167	0,1	0,173177
5,775833	0,1	0,149579
5,777500	0,1	0,178064
5,779167	0,1	0,150925
5,780833	0,1	0,168868
5,782500	0,1	0,194248
5,784167	0,1	0,163381
5,785833	0,1	0,170609
5,787500	0,1	0,143050
5,789167	0,1	0,159510
5,790833	0,1	0,193635
5,792500	0,1	0,152256
5,794167	0,1	0,158348
5,795833	0,1	0,184406
5,797500	0,1	0,109511
5,799167	0,1	0,165094
5,800833	0,1	0,141119
5,802500	0,1	0,164783
5,804167	0,1	0,159579
5,805833	0,1	0,178038
5,807500	0,1	0,172190
5,809167	0,1	0,172125
5,810833	0,1	0,164759
5,812500	0,1	0,163507
5,814167	0,1	0,146455
5,815833	0,1	0,158449
5,817500	0,1	0,199488
5,819167	0,1	0,167918
5,820833	0,1	0,178137
5,822500	0,1	0,153248
5,824167	0,1	0,165658
5,825833	0,1	0,156785
5,827500	0,1	0,182991
5,829167	0,1	0,171033
5,830833	0,1	0,154017
5,832500	0,1	0,158482
5,834167	0,1	0,182476
5,835833	0,1	0,181000
5,837500	0,1	0,150706
5,839167	0,1	0,141179
5,840833	0,1	0,171247
5,842500	0,1	0,196982
5,844167	0,1	0,147655
5,845833	0,1	0,189386
5,847500	0,1	0,164827
5,849167	0,1	0,139520
5,850833	0,1	0,159729
5,852500	0,1	0,154948
5,854167	0,1	0,189068
5,855833	0,1	0,165697
5,857500	0,1	0,165848
5,859167	0,1	0,109282
5,860833	0,1	0,179021
5,862500	0,1	0,144471
5,864167	0,1	0,161695
5,865833	0,1	0,131026
5,867500	0,1	0,162820
5,869167	0,1	0,165268
5,870833	0,1	0,172379
5,872500	0,1	0,117677
5,874167	0,1	0,157771
5,875833	0,1	0,130509
5,877500	0,1	0,152693
5,879167	0,1	0,148288
5,880833	0,1	0,151278
5,882500	0,1	0,140791
5,884167	0,1	0,166809
5,885833	0,1	0,119444
5,887500	0,1	0,123071
5,889167	0,1	0,141816
5,890833	0,1	0,114675
5,892500	0,1	0,167254
5,894167	0,1	0,162668
5,895833	0,1	0,177173
5,897500	0,1	0,126075
5,899167	0,1	0,150599
5,900833	0,1	0,108867
5,902500	0,1	0,130370
5,904167	0,1	0,145710
5,905833	0,1	0,156328
5,907500	0,1	0,136615
5,909167	0,1	0,149346
5,910833	0,1	0,116486
5,912500	0,1	0,092049
5,914167	0,1	0,117340
5,915833	0,1	0,150441
5,917500	0,1	0,134011
5,919167	0,1	0,166488
5,920833	0,1	0,127684
5,922500	0,1	0,116642
5,924167	0,1	0,140018
5,925833	0,1	0,133174
5,927500	0,1	0,128919
5,929167	0,1	0,139730
5,930833	0,1	0,120312
5,932500	0,1	0,171209
5,934167	0,1	0,131698
5,935833	0,1	0,155038
5,937500	0,1	0,140507
5,939167	0,1	0,144717
5,940833	0,1	0,127997
5,942500	0,1	0,087669
5,944167	0,1	0,113933
5,945833	0,1	0,106088
5,947500	0,1	0,163105
5,949167	0,1	0,097549
5,950833	0,1	0,151845
5,952500	0,1	0,100473
5,954167	0,1	0,120367
5,955833	0,1	0,125743
5,957500	0,1	0,121009
5,959167	0,1	0,133297
5,960833	0,1	0,093294
5,962500	0,1	0,159498
5,964167	0,1	0,143760
5,965833	0,1	0,122654
5,967500	0,1	0,129857
5,969167	0,1	0,130763
5,970833	0,1	0,127575
5,972500	0,1	0,127186
5,974167	0,1	0,121080
5,975833	0,1	0,162146
5,977500	0,1	0,158713
5,979167	0,1	0,101697
5,980833	0,1	0,101456
5,982500	0,1	0,101520
5,984167	0,1	0,112516
5,985833	0,1	0,104513
5,987500	0,1	0,128664
5,989167	0,1	0,140276
5,990833	0,1	0,106165
5,992500	0,1	0,132617
5,994167	0,1	0,110594
5,995833	0,1	0,148469
5,997500	0,1	0,138740
5,999167	0,1	0,110857
6,000833	0,1	0,114320
