File Path	chrom://chromeleon01/ikbm_chromeleon/2022/Rezex/Esteban/220612_chitin_4_7.seq/747.smp/UV_VIS_1.channel/UV_VIS_1.chm
Channel	UV_VIS_1

Injection Information:
Data Vault	ikbm_chromeleon
Injection	Sc10D_24h-ChiBS_3
Injection Number	21
Position	RC2
Comment	
Processing Method	New ProcMethod
Instrument Method	Short_Rezex_6min_194nm
Type	Unknown
Status	Finished
Injection Date	12.06.2022
Injection Time	19:23:52
Injection Volume (µl)	8,000
Dilution Factor	1,0000
Weight	1,0000

Chromatogram Data Information:
Time Min. (min)	0,000833
Time Max. (min)	6,000833
Data Points	3601
Detector	UV
Generating Data System	Chromeleon 7.2.9.11323
Exporting Data System	Chromeleon 7.2.9.0
Operator	Instrument Controller
Signal Quantity	Absorbance
Signal Unit	mAU
Signal Min.	-0,157891
Signal Max.	790,707581
Channel	UV_VIS_1
Driver Name	VWD3000.dll
Channel Type	Evaluation
Min. Step (s)	0,1
Max. Step (s)	0,1
Average Step (s)	0,1

Signal Parameter Information:
Signal Info	WVL:194 nm

Chromatogram Data:
Time (min)	Step (s)	Value (mAU)
0,000833	n.a.	-0,112916
0,002500	0,1	-0,098561
0,004167	0,1	-0,089592
0,005833	0,1	-0,109291
0,007500	0,1	-0,061864
0,009167	0,1	-0,053594
0,010833	0,1	-0,092556
0,012500	0,1	-0,078546
0,014167	0,1	-0,067661
0,015833	0,1	-0,082659
0,017500	0,1	-0,096058
0,019167	0,1	-0,093336
0,020833	0,1	-0,139080
0,022500	0,1	-0,097383
0,024167	0,1	-0,100077
0,025833	0,1	-0,107212
0,027500	0,1	-0,106632
0,029167	0,1	-0,124669
0,030833	0,1	-0,125834
0,032500	0,1	-0,120657
0,034167	0,1	-0,156931
0,035833	0,1	-0,129066
0,037500	0,1	-0,142996
0,039167	0,1	-0,101627
0,040833	0,1	-0,121670
0,042500	0,1	-0,153832
0,044167	0,1	-0,151967
0,045833	0,1	-0,156004
0,047500	0,1	-0,120349
0,049167	0,1	-0,103847
0,050833	0,1	-0,139828
0,052500	0,1	-0,157891
0,054167	0,1	-0,104438
0,055833	0,1	-0,052439
0,057500	0,1	-0,140833
0,059167	0,1	-0,123053
0,060833	0,1	-0,106470
0,062500	0,1	-0,077612
0,064167	0,1	-0,098553
0,065833	0,1	-0,148960
0,067500	0,1	-0,119601
0,069167	0,1	-0,094862
0,070833	0,1	-0,110395
0,072500	0,1	-0,145778
0,074167	0,1	-0,155482
0,075833	0,1	-0,099382
0,077500	0,1	-0,110333
0,079167	0,1	-0,081149
0,080833	0,1	-0,124849
0,082500	0,1	-0,124544
0,084167	0,1	-0,130930
0,085833	0,1	-0,097027
0,087500	0,1	-0,099660
0,089167	0,1	-0,092442
0,090833	0,1	-0,134209
0,092500	0,1	-0,094740
0,094167	0,1	-0,050835
0,095833	0,1	-0,093387
0,097500	0,1	-0,125497
0,099167	0,1	-0,075036
0,100833	0,1	-0,118982
0,102500	0,1	-0,101725
0,104167	0,1	-0,091028
0,105833	0,1	-0,106752
0,107500	0,1	-0,065796
0,109167	0,1	-0,137178
0,110833	0,1	-0,105143
0,112500	0,1	-0,105217
0,114167	0,1	-0,132632
0,115833	0,1	-0,153420
0,117500	0,1	-0,100216
0,119167	0,1	-0,102782
0,120833	0,1	-0,119798
0,122500	0,1	-0,129435
0,124167	0,1	-0,143641
0,125833	0,1	-0,133017
0,127500	0,1	-0,124569
0,129167	0,1	-0,112336
0,130833	0,1	-0,106654
0,132500	0,1	-0,130760
0,134167	0,1	-0,144913
0,135833	0,1	-0,103376
0,137500	0,1	-0,126331
0,139167	0,1	-0,076016
0,140833	0,1	-0,136201
0,142500	0,1	-0,145163
0,144167	0,1	-0,112444
0,145833	0,1	-0,099913
0,147500	0,1	-0,130217
0,149167	0,1	-0,118556
0,150833	0,1	-0,138231
0,152500	0,1	-0,148219
0,154167	0,1	-0,108535
0,155833	0,1	-0,102803
0,157500	0,1	-0,131049
0,159167	0,1	-0,098671
0,160833	0,1	-0,107234
0,162500	0,1	-0,124167
0,164167	0,1	-0,112087
0,165833	0,1	-0,103658
0,167500	0,1	-0,106422
0,169167	0,1	-0,113787
0,170833	0,1	-0,082461
0,172500	0,1	-0,115716
0,174167	0,1	-0,100207
0,175833	0,1	-0,120985
0,177500	0,1	-0,106884
0,179167	0,1	-0,111479
0,180833	0,1	-0,108611
0,182500	0,1	-0,104115
0,184167	0,1	-0,082210
0,185833	0,1	-0,101591
0,187500	0,1	-0,094025
0,189167	0,1	-0,102301
0,190833	0,1	-0,094337
0,192500	0,1	-0,093585
0,194167	0,1	-0,070787
0,195833	0,1	-0,108495
0,197500	0,1	-0,109794
0,199167	0,1	-0,107339
0,200833	0,1	-0,075074
0,202500	0,1	-0,095453
0,204167	0,1	-0,075279
0,205833	0,1	-0,112053
0,207500	0,1	-0,130368
0,209167	0,1	-0,068299
0,210833	0,1	-0,103108
0,212500	0,1	-0,103699
0,214167	0,1	-0,096855
0,215833	0,1	-0,100473
0,217500	0,1	-0,069143
0,219167	0,1	-0,081702
0,220833	0,1	-0,104566
0,222500	0,1	-0,114098
0,224167	0,1	-0,098729
0,225833	0,1	-0,078006
0,227500	0,1	-0,121456
0,229167	0,1	-0,102912
0,230833	0,1	-0,107711
0,232500	0,1	-0,064319
0,234167	0,1	-0,093079
0,235833	0,1	-0,108812
0,237500	0,1	-0,084373
0,239167	0,1	-0,101364
0,240833	0,1	-0,131551
0,242500	0,1	-0,089475
0,244167	0,1	-0,124206
0,245833	0,1	-0,070002
0,247500	0,1	-0,102588
0,249167	0,1	-0,104842
0,250833	0,1	-0,109565
0,252500	0,1	-0,094713
0,254167	0,1	-0,106130
0,255833	0,1	-0,085017
0,257500	0,1	-0,122520
0,259167	0,1	-0,118846
0,260833	0,1	-0,115974
0,262500	0,1	-0,084334
0,264167	0,1	-0,122893
0,265833	0,1	-0,104367
0,267500	0,1	-0,131073
0,269167	0,1	-0,103475
0,270833	0,1	-0,118842
0,272500	0,1	-0,089702
0,274167	0,1	-0,105568
0,275833	0,1	-0,099849
0,277500	0,1	-0,095315
0,279167	0,1	-0,069537
0,280833	0,1	-0,073068
0,282500	0,1	-0,080308
0,284167	0,1	-0,115799
0,285833	0,1	-0,086434
0,287500	0,1	-0,074445
0,289167	0,1	-0,059464
0,290833	0,1	-0,127672
0,292500	0,1	-0,102954
0,294167	0,1	-0,122960
0,295833	0,1	-0,085146
0,297500	0,1	-0,087134
0,299167	0,1	-0,083183
0,300833	0,1	-0,113781
0,302500	0,1	-0,081275
0,304167	0,1	-0,094996
0,305833	0,1	-0,075488
0,307500	0,1	-0,078271
0,309167	0,1	-0,100260
0,310833	0,1	-0,071891
0,312500	0,1	-0,082679
0,314167	0,1	-0,091295
0,315833	0,1	-0,081125
0,317500	0,1	-0,102195
0,319167	0,1	-0,088366
0,320833	0,1	-0,066769
0,322500	0,1	-0,086465
0,324167	0,1	-0,106586
0,325833	0,1	-0,075366
0,327500	0,1	-0,015026
0,329167	0,1	-0,094774
0,330833	0,1	-0,119005
0,332500	0,1	-0,092052
0,334167	0,1	-0,081874
0,335833	0,1	-0,028384
0,337500	0,1	-0,065007
0,339167	0,1	-0,067743
0,340833	0,1	-0,070883
0,342500	0,1	-0,090355
0,344167	0,1	-0,065334
0,345833	0,1	-0,064246
0,347500	0,1	-0,085820
0,349167	0,1	-0,104545
0,350833	0,1	-0,068375
0,352500	0,1	-0,084363
0,354167	0,1	-0,052829
0,355833	0,1	-0,068675
0,357500	0,1	-0,090834
0,359167	0,1	-0,103590
0,360833	0,1	-0,072119
0,362500	0,1	-0,041343
0,364167	0,1	-0,085544
0,365833	0,1	-0,108458
0,367500	0,1	-0,066566
0,369167	0,1	-0,079184
0,370833	0,1	-0,044674
0,372500	0,1	-0,063846
0,374167	0,1	-0,092434
0,375833	0,1	-0,091983
0,377500	0,1	-0,058596
0,379167	0,1	-0,060105
0,380833	0,1	-0,065057
0,382500	0,1	-0,058339
0,384167	0,1	-0,069716
0,385833	0,1	-0,044527
0,387500	0,1	-0,098317
0,389167	0,1	-0,041642
0,390833	0,1	-0,073456
0,392500	0,1	-0,090876
0,394167	0,1	-0,031548
0,395833	0,1	-0,037858
0,397500	0,1	-0,028561
0,399167	0,1	-0,065987
0,400833	0,1	-0,028111
0,402500	0,1	-0,046886
0,404167	0,1	-0,074457
0,405833	0,1	-0,049457
0,407500	0,1	-0,075748
0,409167	0,1	-0,059507
0,410833	0,1	-0,079932
0,412500	0,1	-0,067786
0,414167	0,1	-0,067076
0,415833	0,1	-0,041404
0,417500	0,1	-0,075391
0,419167	0,1	-0,109620
0,420833	0,1	-0,068086
0,422500	0,1	-0,026675
0,424167	0,1	-0,018947
0,425833	0,1	-0,065005
0,427500	0,1	-0,087525
0,429167	0,1	-0,042949
0,430833	0,1	-0,049180
0,432500	0,1	-0,072086
0,434167	0,1	-0,004186
0,435833	0,1	-0,050086
0,437500	0,1	-0,038155
0,439167	0,1	-0,064447
0,440833	0,1	-0,044234
0,442500	0,1	-0,052632
0,444167	0,1	-0,044586
0,445833	0,1	-0,057419
0,447500	0,1	-0,060585
0,449167	0,1	-0,057588
0,450833	0,1	-0,054988
0,452500	0,1	-0,030894
0,454167	0,1	-0,055689
0,455833	0,1	-0,025735
0,457500	0,1	-0,022046
0,459167	0,1	-0,028411
0,460833	0,1	-0,021819
0,462500	0,1	-0,102078
0,464167	0,1	-0,055331
0,465833	0,1	-0,013400
0,467500	0,1	-0,026662
0,469167	0,1	-0,061449
0,470833	0,1	-0,055696
0,472500	0,1	-0,049473
0,474167	0,1	-0,044562
0,475833	0,1	-0,054755
0,477500	0,1	-0,010028
0,479167	0,1	-0,052916
0,480833	0,1	-0,035158
0,482500	0,1	-0,047076
0,484167	0,1	-0,040754
0,485833	0,1	-0,059268
0,487500	0,1	-0,015792
0,489167	0,1	-0,025811
0,490833	0,1	-0,003634
0,492500	0,1	-0,031945
0,494167	0,1	-0,030620
0,495833	0,1	-0,020757
0,497500	0,1	-0,022940
0,499167	0,1	-0,023272
0,500833	0,1	0,001317
0,502500	0,1	-0,043135
0,504167	0,1	-0,068755
0,505833	0,1	-0,019249
0,507500	0,1	-0,035400
0,509167	0,1	-0,016575
0,510833	0,1	-0,032280
0,512500	0,1	0,004979
0,514167	0,1	-0,010886
0,515833	0,1	-0,023332
0,517500	0,1	0,007687
0,519167	0,1	-0,001171
0,520833	0,1	-0,006184
0,522500	0,1	0,012308
0,524167	0,1	-0,038367
0,525833	0,1	-0,052838
0,527500	0,1	-0,015934
0,529167	0,1	0,013407
0,530833	0,1	-0,001083
0,532500	0,1	-0,012303
0,534167	0,1	0,011535
0,535833	0,1	-0,017728
0,537500	0,1	-0,002050
0,539167	0,1	0,028978
0,540833	0,1	0,007156
0,542500	0,1	-0,016565
0,544167	0,1	0,017222
0,545833	0,1	0,040405
0,547500	0,1	-0,015392
0,549167	0,1	0,033654
0,550833	0,1	0,016919
0,552500	0,1	0,010985
0,554167	0,1	0,036634
0,555833	0,1	0,031464
0,557500	0,1	0,006386
0,559167	0,1	0,045956
0,560833	0,1	0,056576
0,562500	0,1	0,055566
0,564167	0,1	0,045990
0,565833	0,1	0,039184
0,567500	0,1	0,032276
0,569167	0,1	0,018934
0,570833	0,1	0,020950
0,572500	0,1	0,042278
0,574167	0,1	0,054335
0,575833	0,1	0,072564
0,577500	0,1	0,034776
0,579167	0,1	0,044632
0,580833	0,1	0,081760
0,582500	0,1	0,038281
0,584167	0,1	0,030404
0,585833	0,1	0,052168
0,587500	0,1	0,028573
0,589167	0,1	0,084296
0,590833	0,1	0,070433
0,592500	0,1	0,126281
0,594167	0,1	0,093139
0,595833	0,1	0,073448
0,597500	0,1	0,073025
0,599167	0,1	0,109088
0,600833	0,1	0,119775
0,602500	0,1	0,093011
0,604167	0,1	0,093926
0,605833	0,1	0,123667
0,607500	0,1	0,051986
0,609167	0,1	0,051969
0,610833	0,1	0,109439
0,612500	0,1	0,110438
0,614167	0,1	0,095992
0,615833	0,1	0,134283
0,617500	0,1	0,099932
0,619167	0,1	0,068123
0,620833	0,1	0,089151
0,622500	0,1	0,127929
0,624167	0,1	0,100033
0,625833	0,1	0,144389
0,627500	0,1	0,112711
0,629167	0,1	0,145873
0,630833	0,1	0,143593
0,632500	0,1	0,117164
0,634167	0,1	0,115692
0,635833	0,1	0,101547
0,637500	0,1	0,151286
0,639167	0,1	0,099064
0,640833	0,1	0,151994
0,642500	0,1	0,144201
0,644167	0,1	0,137584
0,645833	0,1	0,144172
0,647500	0,1	0,173781
0,649167	0,1	0,131428
0,650833	0,1	0,155418
0,652500	0,1	0,165304
0,654167	0,1	0,156237
0,655833	0,1	0,166632
0,657500	0,1	0,167915
0,659167	0,1	0,188536
0,660833	0,1	0,153888
0,662500	0,1	0,157814
0,664167	0,1	0,143557
0,665833	0,1	0,178396
0,667500	0,1	0,212804
0,669167	0,1	0,145279
0,670833	0,1	0,194566
0,672500	0,1	0,179381
0,674167	0,1	0,236519
0,675833	0,1	0,180964
0,677500	0,1	0,174371
0,679167	0,1	0,204762
0,680833	0,1	0,207677
0,682500	0,1	0,230554
0,684167	0,1	0,183125
0,685833	0,1	0,232138
0,687500	0,1	0,189289
0,689167	0,1	0,209963
0,690833	0,1	0,218776
0,692500	0,1	0,261406
0,694167	0,1	0,217498
0,695833	0,1	0,266633
0,697500	0,1	0,241831
0,699167	0,1	0,241499
0,700833	0,1	0,218882
0,702500	0,1	0,239655
0,704167	0,1	0,260893
0,705833	0,1	0,210917
0,707500	0,1	0,236782
0,709167	0,1	0,262284
0,710833	0,1	0,276452
0,712500	0,1	0,273974
0,714167	0,1	0,260612
0,715833	0,1	0,257218
0,717500	0,1	0,293652
0,719167	0,1	0,240476
0,720833	0,1	0,278453
0,722500	0,1	0,269131
0,724167	0,1	0,282007
0,725833	0,1	0,330064
0,727500	0,1	0,277242
0,729167	0,1	0,268513
0,730833	0,1	0,249865
0,732500	0,1	0,287841
0,734167	0,1	0,263742
0,735833	0,1	0,267965
0,737500	0,1	0,329383
0,739167	0,1	0,295606
0,740833	0,1	0,295823
0,742500	0,1	0,292596
0,744167	0,1	0,298853
0,745833	0,1	0,326712
0,747500	0,1	0,318842
0,749167	0,1	0,306704
0,750833	0,1	0,374675
0,752500	0,1	0,327469
0,754167	0,1	0,315066
0,755833	0,1	0,336460
0,757500	0,1	0,324589
0,759167	0,1	0,356310
0,760833	0,1	0,352867
0,762500	0,1	0,339597
0,764167	0,1	0,359383
0,765833	0,1	0,365650
0,767500	0,1	0,345024
0,769167	0,1	0,363933
0,770833	0,1	0,326886
0,772500	0,1	0,392497
0,774167	0,1	0,370627
0,775833	0,1	0,362940
0,777500	0,1	0,342506
0,779167	0,1	0,335561
0,780833	0,1	0,354282
0,782500	0,1	0,328367
0,784167	0,1	0,364155
0,785833	0,1	0,378045
0,787500	0,1	0,365427
0,789167	0,1	0,384824
0,790833	0,1	0,367269
0,792500	0,1	0,333534
0,794167	0,1	0,334429
0,795833	0,1	0,400891
0,797500	0,1	0,409106
0,799167	0,1	0,360884
0,800833	0,1	0,413810
0,802500	0,1	0,400941
0,804167	0,1	0,359816
0,805833	0,1	0,368843
0,807500	0,1	0,335214
0,809167	0,1	0,370549
0,810833	0,1	0,411260
0,812500	0,1	0,370276
0,814167	0,1	0,384631
0,815833	0,1	0,367074
0,817500	0,1	0,384920
0,819167	0,1	0,370432
0,820833	0,1	0,353739
0,822500	0,1	0,368003
0,824167	0,1	0,363357
0,825833	0,1	0,378948
0,827500	0,1	0,383309
0,829167	0,1	0,368139
0,830833	0,1	0,381532
0,832500	0,1	0,362814
0,834167	0,1	0,377787
0,835833	0,1	0,380725
0,837500	0,1	0,355646
0,839167	0,1	0,399992
0,840833	0,1	0,399130
0,842500	0,1	0,379216
0,844167	0,1	0,386408
0,845833	0,1	0,387540
0,847500	0,1	0,371820
0,849167	0,1	0,369426
0,850833	0,1	0,413907
0,852500	0,1	0,393680
0,854167	0,1	0,369238
0,855833	0,1	0,418296
0,857500	0,1	0,380317
0,859167	0,1	0,341155
0,860833	0,1	0,383041
0,862500	0,1	0,376564
0,864167	0,1	0,404839
0,865833	0,1	0,367984
0,867500	0,1	0,413842
0,869167	0,1	0,387934
0,870833	0,1	0,448098
0,872500	0,1	0,420381
0,874167	0,1	0,386450
0,875833	0,1	0,363525
0,877500	0,1	0,403029
0,879167	0,1	0,393160
0,880833	0,1	0,412397
0,882500	0,1	0,435351
0,884167	0,1	0,425126
0,885833	0,1	0,431223
0,887500	0,1	0,409532
0,889167	0,1	0,431026
0,890833	0,1	0,445040
0,892500	0,1	0,442333
0,894167	0,1	0,420220
0,895833	0,1	0,439326
0,897500	0,1	0,434036
0,899167	0,1	0,421154
0,900833	0,1	0,490591
0,902500	0,1	0,448477
0,904167	0,1	0,447275
0,905833	0,1	0,494829
0,907500	0,1	0,420685
0,909167	0,1	0,469607
0,910833	0,1	0,487793
0,912500	0,1	0,463294
0,914167	0,1	0,516979
0,915833	0,1	0,455877
0,917500	0,1	0,489827
0,919167	0,1	0,469721
0,920833	0,1	0,442825
0,922500	0,1	0,457734
0,924167	0,1	0,469681
0,925833	0,1	0,468941
0,927500	0,1	0,495992
0,929167	0,1	0,481897
0,930833	0,1	0,505040
0,932500	0,1	0,535623
0,934167	0,1	0,478418
0,935833	0,1	0,488830
0,937500	0,1	0,494806
0,939167	0,1	0,502135
0,940833	0,1	0,545018
0,942500	0,1	0,524459
0,944167	0,1	0,535081
0,945833	0,1	0,544830
0,947500	0,1	0,561915
0,949167	0,1	0,554008
0,950833	0,1	0,541186
0,952500	0,1	0,526976
0,954167	0,1	0,562361
0,955833	0,1	0,564502
0,957500	0,1	0,498602
0,959167	0,1	0,597452
0,960833	0,1	0,559444
0,962500	0,1	0,583231
0,964167	0,1	0,602416
0,965833	0,1	0,609264
0,967500	0,1	0,593931
0,969167	0,1	0,624763
0,970833	0,1	0,593289
0,972500	0,1	0,628805
0,974167	0,1	0,631689
0,975833	0,1	0,627588
0,977500	0,1	0,663592
0,979167	0,1	0,639617
0,980833	0,1	0,675325
0,982500	0,1	0,655414
0,984167	0,1	0,688764
0,985833	0,1	0,666914
0,987500	0,1	0,709900
0,989167	0,1	0,684637
0,990833	0,1	0,721561
0,992500	0,1	0,690783
0,994167	0,1	0,752350
0,995833	0,1	0,708973
0,997500	0,1	0,738431
0,999167	0,1	0,754365
1,000833	0,1	0,798489
1,002500	0,1	0,760420
1,004167	0,1	0,765712
1,005833	0,1	0,752764
1,007500	0,1	0,809872
1,009167	0,1	0,775125
1,010833	0,1	0,851749
1,012500	0,1	0,862887
1,014167	0,1	0,837578
1,015833	0,1	0,871532
1,017500	0,1	0,866814
1,019167	0,1	0,902540
1,020833	0,1	0,920757
1,022500	0,1	0,897425
1,024167	0,1	0,924857
1,025833	0,1	0,927249
1,027500	0,1	0,978584
1,029167	0,1	1,002913
1,030833	0,1	0,993020
1,032500	0,1	0,997524
1,034167	0,1	1,001336
1,035833	0,1	1,072494
1,037500	0,1	1,039807
1,039167	0,1	1,035099
1,040833	0,1	1,055787
1,042500	0,1	1,059516
1,044167	0,1	1,066717
1,045833	0,1	1,090420
1,047500	0,1	1,083401
1,049167	0,1	1,129019
1,050833	0,1	1,142254
1,052500	0,1	1,185398
1,054167	0,1	1,207943
1,055833	0,1	1,216988
1,057500	0,1	1,264055
1,059167	0,1	1,336167
1,060833	0,1	1,419145
1,062500	0,1	1,558546
1,064167	0,1	1,671451
1,065833	0,1	1,879934
1,067500	0,1	2,122610
1,069167	0,1	2,413064
1,070833	0,1	2,792721
1,072500	0,1	3,267346
1,074167	0,1	3,830379
1,075833	0,1	4,554481
1,077500	0,1	5,342998
1,079167	0,1	6,292223
1,080833	0,1	7,384781
1,082500	0,1	8,607177
1,084167	0,1	9,981309
1,085833	0,1	11,518130
1,087500	0,1	13,194689
1,089167	0,1	14,969543
1,090833	0,1	16,829207
1,092500	0,1	18,808686
1,094167	0,1	20,834621
1,095833	0,1	22,833999
1,097500	0,1	24,864940
1,099167	0,1	26,863431
1,100833	0,1	28,770466
1,102500	0,1	30,586339
1,104167	0,1	32,291273
1,105833	0,1	33,854233
1,107500	0,1	35,226949
1,109167	0,1	36,482739
1,110833	0,1	37,519008
1,112500	0,1	38,371622
1,114167	0,1	39,017953
1,115833	0,1	39,482193
1,117500	0,1	39,822146
1,119167	0,1	39,965069
1,120833	0,1	39,959446
1,122500	0,1	39,793396
1,124167	0,1	39,442578
1,125833	0,1	39,020339
1,127500	0,1	38,527243
1,129167	0,1	37,931726
1,130833	0,1	37,199278
1,132500	0,1	36,414013
1,134167	0,1	35,673560
1,135833	0,1	34,819505
1,137500	0,1	33,992427
1,139167	0,1	33,131097
1,140833	0,1	32,252920
1,142500	0,1	31,466629
1,144167	0,1	30,600705
1,145833	0,1	29,851190
1,147500	0,1	29,100487
1,149167	0,1	28,416280
1,150833	0,1	27,746431
1,152500	0,1	27,210073
1,154167	0,1	26,646600
1,155833	0,1	26,155073
1,157500	0,1	25,741388
1,159167	0,1	25,356559
1,160833	0,1	25,038351
1,162500	0,1	24,785447
1,164167	0,1	24,511511
1,165833	0,1	24,311121
1,167500	0,1	24,109870
1,169167	0,1	23,942396
1,170833	0,1	23,819268
1,172500	0,1	23,714149
1,174167	0,1	23,634603
1,175833	0,1	23,546229
1,177500	0,1	23,403069
1,179167	0,1	23,383556
1,180833	0,1	23,297105
1,182500	0,1	23,245455
1,184167	0,1	23,200377
1,185833	0,1	23,193983
1,187500	0,1	23,215585
1,189167	0,1	23,261598
1,190833	0,1	23,315542
1,192500	0,1	23,537046
1,194167	0,1	23,766785
1,195833	0,1	24,119630
1,197500	0,1	24,608150
1,199167	0,1	25,235588
1,200833	0,1	26,054687
1,202500	0,1	27,128145
1,204167	0,1	28,403434
1,205833	0,1	29,926464
1,207500	0,1	31,762337
1,209167	0,1	33,881502
1,210833	0,1	36,368563
1,212500	0,1	39,158098
1,214167	0,1	42,257016
1,215833	0,1	45,774703
1,217500	0,1	49,571078
1,219167	0,1	53,710754
1,220833	0,1	58,156944
1,222500	0,1	62,885186
1,224167	0,1	67,783066
1,225833	0,1	72,913303
1,227500	0,1	78,187479
1,229167	0,1	83,589578
1,230833	0,1	88,930463
1,232500	0,1	94,369757
1,234167	0,1	99,707482
1,235833	0,1	104,918652
1,237500	0,1	109,950528
1,239167	0,1	114,851721
1,240833	0,1	119,408433
1,242500	0,1	123,748009
1,244167	0,1	127,796695
1,245833	0,1	131,423967
1,247500	0,1	134,752501
1,249167	0,1	137,723506
1,250833	0,1	140,317578
1,252500	0,1	142,444196
1,254167	0,1	144,294987
1,255833	0,1	145,706871
1,257500	0,1	146,771312
1,259167	0,1	147,458538
1,260833	0,1	147,825948
1,262500	0,1	147,803737
1,264167	0,1	147,439857
1,265833	0,1	146,740045
1,267500	0,1	145,757943
1,269167	0,1	144,432441
1,270833	0,1	142,882463
1,272500	0,1	141,073281
1,274167	0,1	139,042599
1,275833	0,1	136,790489
1,277500	0,1	134,396504
1,279167	0,1	131,728478
1,280833	0,1	128,972715
1,282500	0,1	126,138388
1,284167	0,1	123,137701
1,285833	0,1	120,045582
1,287500	0,1	116,963712
1,289167	0,1	113,829363
1,290833	0,1	110,620621
1,292500	0,1	107,459265
1,294167	0,1	104,284068
1,295833	0,1	101,166255
1,297500	0,1	98,120606
1,299167	0,1	95,054611
1,300833	0,1	92,086286
1,302500	0,1	89,168431
1,304167	0,1	86,396218
1,305833	0,1	83,599881
1,307500	0,1	80,946858
1,309167	0,1	78,419473
1,310833	0,1	75,945763
1,312500	0,1	73,623736
1,314167	0,1	71,369968
1,315833	0,1	69,137259
1,317500	0,1	67,041269
1,319167	0,1	65,033565
1,320833	0,1	63,126023
1,322500	0,1	61,309016
1,324167	0,1	59,536609
1,325833	0,1	57,883598
1,327500	0,1	56,256375
1,329167	0,1	54,730316
1,330833	0,1	53,234911
1,332500	0,1	51,818586
1,334167	0,1	50,447707
1,335833	0,1	49,192962
1,337500	0,1	47,957812
1,339167	0,1	46,704137
1,340833	0,1	45,558070
1,342500	0,1	44,413131
1,344167	0,1	43,306359
1,345833	0,1	42,303633
1,347500	0,1	41,262906
1,349167	0,1	40,290509
1,350833	0,1	39,332527
1,352500	0,1	38,403068
1,354167	0,1	37,534206
1,355833	0,1	36,635551
1,357500	0,1	35,824422
1,359167	0,1	34,976579
1,360833	0,1	34,208301
1,362500	0,1	33,409586
1,364167	0,1	32,668249
1,365833	0,1	31,921254
1,367500	0,1	31,158732
1,369167	0,1	30,512056
1,370833	0,1	29,841744
1,372500	0,1	29,154381
1,374167	0,1	28,488515
1,375833	0,1	27,891717
1,377500	0,1	27,302935
1,379167	0,1	26,686606
1,380833	0,1	26,076017
1,382500	0,1	25,518433
1,384167	0,1	24,996817
1,385833	0,1	24,463619
1,387500	0,1	24,013611
1,389167	0,1	23,478491
1,390833	0,1	22,982085
1,392500	0,1	22,552899
1,394167	0,1	22,138865
1,395833	0,1	21,678073
1,397500	0,1	21,282519
1,399167	0,1	20,891438
1,400833	0,1	20,453076
1,402500	0,1	20,144990
1,404167	0,1	19,779103
1,405833	0,1	19,467329
1,407500	0,1	19,135920
1,409167	0,1	18,851791
1,410833	0,1	18,539520
1,412500	0,1	18,240108
1,414167	0,1	17,956236
1,415833	0,1	17,704503
1,417500	0,1	17,442614
1,419167	0,1	17,225739
1,420833	0,1	16,949487
1,422500	0,1	16,770004
1,424167	0,1	16,520663
1,425833	0,1	16,283478
1,427500	0,1	16,092235
1,429167	0,1	15,862397
1,430833	0,1	15,658754
1,432500	0,1	15,467378
1,434167	0,1	15,294127
1,435833	0,1	15,102937
1,437500	0,1	14,937835
1,439167	0,1	14,717972
1,440833	0,1	14,585287
1,442500	0,1	14,391725
1,444167	0,1	14,191540
1,445833	0,1	14,030662
1,447500	0,1	13,855747
1,449167	0,1	13,684792
1,450833	0,1	13,530188
1,452500	0,1	13,369430
1,454167	0,1	13,165215
1,455833	0,1	13,016270
1,457500	0,1	12,834594
1,459167	0,1	12,660439
1,460833	0,1	12,504707
1,462500	0,1	12,347491
1,464167	0,1	12,222836
1,465833	0,1	12,031558
1,467500	0,1	11,872439
1,469167	0,1	11,732563
1,470833	0,1	11,587336
1,472500	0,1	11,433841
1,474167	0,1	11,317733
1,475833	0,1	11,186423
1,477500	0,1	11,017081
1,479167	0,1	10,829205
1,480833	0,1	10,764123
1,482500	0,1	10,629256
1,484167	0,1	10,546060
1,485833	0,1	10,372380
1,487500	0,1	10,296273
1,489167	0,1	10,205572
1,490833	0,1	10,099471
1,492500	0,1	9,936591
1,494167	0,1	9,888828
1,495833	0,1	9,796351
1,497500	0,1	9,683575
1,499167	0,1	9,571657
1,500833	0,1	9,509935
1,502500	0,1	9,419964
1,504167	0,1	9,340060
1,505833	0,1	9,274004
1,507500	0,1	9,209141
1,509167	0,1	9,149595
1,510833	0,1	9,069988
1,512500	0,1	9,032572
1,514167	0,1	8,941800
1,515833	0,1	8,903520
1,517500	0,1	8,888401
1,519167	0,1	8,781002
1,520833	0,1	8,729614
1,522500	0,1	8,658536
1,524167	0,1	8,662292
1,525833	0,1	8,607706
1,527500	0,1	8,559041
1,529167	0,1	8,520169
1,530833	0,1	8,471081
1,532500	0,1	8,471683
1,534167	0,1	8,438393
1,535833	0,1	8,388353
1,537500	0,1	8,371857
1,539167	0,1	8,320413
1,540833	0,1	8,261475
1,542500	0,1	8,294166
1,544167	0,1	8,251067
1,545833	0,1	8,216696
1,547500	0,1	8,180019
1,549167	0,1	8,198655
1,550833	0,1	8,176849
1,552500	0,1	8,151909
1,554167	0,1	8,100626
1,555833	0,1	8,154878
1,557500	0,1	8,065081
1,559167	0,1	8,061854
1,560833	0,1	8,042224
1,562500	0,1	8,020340
1,564167	0,1	8,022899
1,565833	0,1	8,002415
1,567500	0,1	7,974803
1,569167	0,1	7,962330
1,570833	0,1	7,958123
1,572500	0,1	7,938941
1,574167	0,1	7,919641
1,575833	0,1	7,928703
1,577500	0,1	7,879390
1,579167	0,1	7,836802
1,580833	0,1	7,839654
1,582500	0,1	7,884593
1,584167	0,1	7,821348
1,585833	0,1	7,790314
1,587500	0,1	7,715274
1,589167	0,1	7,738138
1,590833	0,1	7,737206
1,592500	0,1	7,727905
1,594167	0,1	7,675382
1,595833	0,1	7,670566
1,597500	0,1	7,654104
1,599167	0,1	7,685295
1,600833	0,1	7,620500
1,602500	0,1	7,598018
1,604167	0,1	7,557114
1,605833	0,1	7,542549
1,607500	0,1	7,494757
1,609167	0,1	7,535037
1,610833	0,1	7,568988
1,612500	0,1	7,528867
1,614167	0,1	7,557572
1,615833	0,1	7,577344
1,617500	0,1	7,567331
1,619167	0,1	7,597811
1,620833	0,1	7,670172
1,622500	0,1	7,694406
1,624167	0,1	7,760723
1,625833	0,1	7,862985
1,627500	0,1	7,924681
1,629167	0,1	8,083009
1,630833	0,1	8,195623
1,632500	0,1	8,435750
1,634167	0,1	8,590525
1,635833	0,1	8,884521
1,637500	0,1	9,131557
1,639167	0,1	9,480374
1,640833	0,1	9,868968
1,642500	0,1	10,351411
1,644167	0,1	10,807708
1,645833	0,1	11,465896
1,647500	0,1	12,129247
1,649167	0,1	12,858510
1,650833	0,1	13,703253
1,652500	0,1	14,657180
1,654167	0,1	15,747940
1,655833	0,1	16,892184
1,657500	0,1	18,213245
1,659167	0,1	19,660807
1,660833	0,1	21,282172
1,662500	0,1	23,052461
1,664167	0,1	25,055462
1,665833	0,1	27,169658
1,667500	0,1	29,511386
1,669167	0,1	32,053954
1,670833	0,1	34,824028
1,672500	0,1	37,863738
1,674167	0,1	41,055916
1,675833	0,1	44,603783
1,677500	0,1	48,317581
1,679167	0,1	52,335345
1,680833	0,1	56,632609
1,682500	0,1	61,219235
1,684167	0,1	66,146670
1,685833	0,1	71,318279
1,687500	0,1	76,807173
1,689167	0,1	82,609923
1,690833	0,1	88,645372
1,692500	0,1	95,018080
1,694167	0,1	101,761069
1,695833	0,1	108,737061
1,697500	0,1	116,085866
1,699167	0,1	123,629056
1,700833	0,1	131,508516
1,702500	0,1	139,682699
1,704167	0,1	148,101433
1,705833	0,1	156,761833
1,707500	0,1	165,643130
1,709167	0,1	174,784853
1,710833	0,1	184,143127
1,712500	0,1	193,712352
1,714167	0,1	203,408065
1,715833	0,1	213,308307
1,717500	0,1	223,319782
1,719167	0,1	233,386288
1,720833	0,1	243,614652
1,722500	0,1	253,838149
1,724167	0,1	264,140741
1,725833	0,1	274,474804
1,727500	0,1	284,839280
1,729167	0,1	295,069970
1,730833	0,1	305,284285
1,732500	0,1	315,491828
1,734167	0,1	325,410193
1,735833	0,1	335,328194
1,737500	0,1	345,170193
1,739167	0,1	354,641231
1,740833	0,1	364,009081
1,742500	0,1	373,085411
1,744167	0,1	382,033949
1,745833	0,1	390,685282
1,747500	0,1	398,996151
1,749167	0,1	407,118890
1,750833	0,1	414,832687
1,752500	0,1	422,172201
1,754167	0,1	429,192960
1,755833	0,1	435,869943
1,757500	0,1	442,182647
1,759167	0,1	448,136599
1,760833	0,1	453,659202
1,762500	0,1	458,907513
1,764167	0,1	463,594748
1,765833	0,1	467,912363
1,767500	0,1	471,847471
1,769167	0,1	475,438002
1,770833	0,1	478,414167
1,772500	0,1	481,032219
1,774167	0,1	483,286681
1,775833	0,1	485,244184
1,777500	0,1	486,560801
1,779167	0,1	487,651665
1,780833	0,1	488,347453
1,782500	0,1	488,547310
1,784167	0,1	488,282286
1,785833	0,1	487,644874
1,787500	0,1	486,788976
1,789167	0,1	485,528157
1,790833	0,1	483,793049
1,792500	0,1	481,736407
1,794167	0,1	479,473616
1,795833	0,1	476,698396
1,797500	0,1	473,702562
1,799167	0,1	470,438629
1,800833	0,1	466,851583
1,802500	0,1	462,932243
1,804167	0,1	458,687083
1,805833	0,1	454,357305
1,807500	0,1	449,597215
1,809167	0,1	444,683201
1,810833	0,1	439,525033
1,812500	0,1	434,240876
1,814167	0,1	428,658318
1,815833	0,1	422,989662
1,817500	0,1	417,109724
1,819167	0,1	411,168807
1,820833	0,1	405,058206
1,822500	0,1	398,718597
1,824167	0,1	392,312053
1,825833	0,1	385,894218
1,827500	0,1	379,247783
1,829167	0,1	372,594112
1,830833	0,1	365,902553
1,832500	0,1	359,219460
1,834167	0,1	352,383685
1,835833	0,1	345,498113
1,837500	0,1	338,700123
1,839167	0,1	331,795300
1,840833	0,1	324,995345
1,842500	0,1	318,155951
1,844167	0,1	311,365508
1,845833	0,1	304,537992
1,847500	0,1	297,823095
1,849167	0,1	291,202295
1,850833	0,1	284,584566
1,852500	0,1	278,030436
1,854167	0,1	271,550033
1,855833	0,1	265,122584
1,857500	0,1	258,824915
1,859167	0,1	252,604659
1,860833	0,1	246,416938
1,862500	0,1	240,416298
1,864167	0,1	234,474920
1,865833	0,1	228,605105
1,867500	0,1	222,849229
1,869167	0,1	217,201034
1,870833	0,1	211,664491
1,872500	0,1	206,312646
1,874167	0,1	200,919825
1,875833	0,1	195,739773
1,877500	0,1	190,548902
1,879167	0,1	185,551868
1,880833	0,1	180,678932
1,882500	0,1	175,838237
1,884167	0,1	171,122998
1,885833	0,1	166,580592
1,887500	0,1	162,117087
1,889167	0,1	157,724069
1,890833	0,1	153,461292
1,892500	0,1	149,272451
1,894167	0,1	145,200186
1,895833	0,1	141,255762
1,897500	0,1	137,395520
1,899167	0,1	133,673569
1,900833	0,1	129,972792
1,902500	0,1	126,436214
1,904167	0,1	122,945892
1,905833	0,1	119,601574
1,907500	0,1	116,327934
1,909167	0,1	113,105718
1,910833	0,1	110,009837
1,912500	0,1	107,005984
1,914167	0,1	104,040237
1,915833	0,1	101,212891
1,917500	0,1	98,430203
1,919167	0,1	95,736385
1,920833	0,1	93,107635
1,922500	0,1	90,597176
1,924167	0,1	88,111587
1,925833	0,1	85,763555
1,927500	0,1	83,412092
1,929167	0,1	81,159675
1,930833	0,1	78,902611
1,932500	0,1	76,828014
1,934167	0,1	74,691908
1,935833	0,1	72,710353
1,937500	0,1	70,769038
1,939167	0,1	68,943886
1,940833	0,1	67,041041
1,942500	0,1	65,275056
1,944167	0,1	63,485723
1,945833	0,1	61,874931
1,947500	0,1	60,234913
1,949167	0,1	58,676492
1,950833	0,1	57,157297
1,952500	0,1	55,674513
1,954167	0,1	54,223442
1,955833	0,1	52,842822
1,957500	0,1	51,523065
1,959167	0,1	50,192996
1,960833	0,1	48,939496
1,962500	0,1	47,690539
1,964167	0,1	46,522489
1,965833	0,1	45,365431
1,967500	0,1	44,241288
1,969167	0,1	43,226430
1,970833	0,1	42,173771
1,972500	0,1	41,130605
1,974167	0,1	40,206797
1,975833	0,1	39,223915
1,977500	0,1	38,347806
1,979167	0,1	37,427329
1,980833	0,1	36,591783
1,982500	0,1	35,788929
1,984167	0,1	35,023470
1,985833	0,1	34,262559
1,987500	0,1	33,504277
1,989167	0,1	32,814082
1,990833	0,1	32,156776
1,992500	0,1	31,442508
1,994167	0,1	30,820947
1,995833	0,1	30,207933
1,997500	0,1	29,575481
1,999167	0,1	29,061560
2,000833	0,1	28,469760
2,002500	0,1	27,960281
2,004167	0,1	27,442771
2,005833	0,1	26,916326
2,007500	0,1	26,450468
2,009167	0,1	25,974383
2,010833	0,1	25,512757
2,012500	0,1	25,086698
2,014167	0,1	24,735219
2,015833	0,1	24,264232
2,017500	0,1	23,899326
2,019167	0,1	23,545782
2,020833	0,1	23,193729
2,022500	0,1	22,829573
2,024167	0,1	22,466445
2,025833	0,1	22,156255
2,027500	0,1	21,861269
2,029167	0,1	21,544786
2,030833	0,1	21,302109
2,032500	0,1	20,989485
2,034167	0,1	20,688177
2,035833	0,1	20,486782
2,037500	0,1	20,221202
2,039167	0,1	19,986314
2,040833	0,1	19,741504
2,042500	0,1	19,492430
2,044167	0,1	19,331510
2,045833	0,1	19,127086
2,047500	0,1	18,926423
2,049167	0,1	18,710243
2,050833	0,1	18,505771
2,052500	0,1	18,324944
2,054167	0,1	18,166009
2,055833	0,1	17,966396
2,057500	0,1	17,783929
2,059167	0,1	17,684957
2,060833	0,1	17,506605
2,062500	0,1	17,348911
2,064167	0,1	17,243007
2,065833	0,1	17,091800
2,067500	0,1	16,924390
2,069167	0,1	16,834308
2,070833	0,1	16,671582
2,072500	0,1	16,508692
2,074167	0,1	16,386881
2,075833	0,1	16,335102
2,077500	0,1	16,186475
2,079167	0,1	16,005332
2,080833	0,1	15,925788
2,082500	0,1	15,827696
2,084167	0,1	15,743806
2,085833	0,1	15,600557
2,087500	0,1	15,478726
2,089167	0,1	15,428842
2,090833	0,1	15,324185
2,092500	0,1	15,198585
2,094167	0,1	15,125094
2,095833	0,1	15,059231
2,097500	0,1	14,963476
2,099167	0,1	14,886707
2,100833	0,1	14,756121
2,102500	0,1	14,662964
2,104167	0,1	14,601057
2,105833	0,1	14,507662
2,107500	0,1	14,388260
2,109167	0,1	14,321453
2,110833	0,1	14,228905
2,112500	0,1	14,123025
2,114167	0,1	14,019967
2,115833	0,1	13,955964
2,117500	0,1	13,906289
2,119167	0,1	13,797288
2,120833	0,1	13,739320
2,122500	0,1	13,639673
2,124167	0,1	13,572515
2,125833	0,1	13,487207
2,127500	0,1	13,406052
2,129167	0,1	13,337499
2,130833	0,1	13,281793
2,132500	0,1	13,216627
2,134167	0,1	13,086016
2,135833	0,1	12,999902
2,137500	0,1	12,983990
2,139167	0,1	12,872727
2,140833	0,1	12,789209
2,142500	0,1	12,705137
2,144167	0,1	12,621480
2,145833	0,1	12,592616
2,147500	0,1	12,508690
2,149167	0,1	12,412466
2,150833	0,1	12,308747
2,152500	0,1	12,242560
2,154167	0,1	12,191546
2,155833	0,1	12,112765
2,157500	0,1	12,053491
2,159167	0,1	11,951331
2,160833	0,1	11,898194
2,162500	0,1	11,790146
2,164167	0,1	11,725726
2,165833	0,1	11,632827
2,167500	0,1	11,578599
2,169167	0,1	11,508580
2,170833	0,1	11,409914
2,172500	0,1	11,368704
2,174167	0,1	11,304068
2,175833	0,1	11,216040
2,177500	0,1	11,156071
2,179167	0,1	11,061597
2,180833	0,1	11,022269
2,182500	0,1	10,923599
2,184167	0,1	10,848397
2,185833	0,1	10,820871
2,187500	0,1	10,751175
2,189167	0,1	10,658880
2,190833	0,1	10,604168
2,192500	0,1	10,558169
2,194167	0,1	10,489493
2,195833	0,1	10,392033
2,197500	0,1	10,333275
2,199167	0,1	10,283618
2,200833	0,1	10,202001
2,202500	0,1	10,176783
2,204167	0,1	10,081988
2,205833	0,1	10,012938
2,207500	0,1	9,926564
2,209167	0,1	9,930225
2,210833	0,1	9,883349
2,212500	0,1	9,777130
2,214167	0,1	9,734014
2,215833	0,1	9,665266
2,217500	0,1	9,652123
2,219167	0,1	9,625447
2,220833	0,1	9,525875
2,222500	0,1	9,510673
2,224167	0,1	9,440178
2,225833	0,1	9,395828
2,227500	0,1	9,370078
2,229167	0,1	9,310172
2,230833	0,1	9,289209
2,232500	0,1	9,223705
2,234167	0,1	9,184892
2,235833	0,1	9,158360
2,237500	0,1	9,094365
2,239167	0,1	9,047555
2,240833	0,1	9,043728
2,242500	0,1	8,985504
2,244167	0,1	8,920207
2,245833	0,1	8,917731
2,247500	0,1	8,904946
2,249167	0,1	8,838253
2,250833	0,1	8,814850
2,252500	0,1	8,801197
2,254167	0,1	8,719136
2,255833	0,1	8,701277
2,257500	0,1	8,653870
2,259167	0,1	8,574054
2,260833	0,1	8,595591
2,262500	0,1	8,557139
2,264167	0,1	8,511491
2,265833	0,1	8,496886
2,267500	0,1	8,437213
2,269167	0,1	8,442762
2,270833	0,1	8,386135
2,272500	0,1	8,356711
2,274167	0,1	8,330484
2,275833	0,1	8,283480
2,277500	0,1	8,244669
2,279167	0,1	8,228286
2,280833	0,1	8,178530
2,282500	0,1	8,160475
2,284167	0,1	8,164357
2,285833	0,1	8,097568
2,287500	0,1	8,017395
2,289167	0,1	8,060061
2,290833	0,1	7,991305
2,292500	0,1	7,973140
2,294167	0,1	7,928533
2,295833	0,1	7,860535
2,297500	0,1	7,865704
2,299167	0,1	7,853031
2,300833	0,1	7,756878
2,302500	0,1	7,787449
2,304167	0,1	7,690081
2,305833	0,1	7,660529
2,307500	0,1	7,653860
2,309167	0,1	7,627797
2,310833	0,1	7,576683
2,312500	0,1	7,557648
2,314167	0,1	7,540850
2,315833	0,1	7,469514
2,317500	0,1	7,462465
2,319167	0,1	7,451859
2,320833	0,1	7,416077
2,322500	0,1	7,378108
2,324167	0,1	7,325539
2,325833	0,1	7,341520
2,327500	0,1	7,285334
2,329167	0,1	7,243986
2,330833	0,1	7,209135
2,332500	0,1	7,201724
2,334167	0,1	7,198443
2,335833	0,1	7,148601
2,337500	0,1	7,172187
2,339167	0,1	7,130706
2,340833	0,1	7,101766
2,342500	0,1	7,060736
2,344167	0,1	7,095004
2,345833	0,1	7,077212
2,347500	0,1	7,043683
2,349167	0,1	7,056691
2,350833	0,1	7,035534
2,352500	0,1	7,048732
2,354167	0,1	7,053597
2,355833	0,1	7,085259
2,357500	0,1	7,065882
2,359167	0,1	7,103618
2,360833	0,1	7,086860
2,362500	0,1	7,112430
2,364167	0,1	7,149236
2,365833	0,1	7,177175
2,367500	0,1	7,220183
2,369167	0,1	7,293814
2,370833	0,1	7,352945
2,372500	0,1	7,369652
2,374167	0,1	7,456264
2,375833	0,1	7,551982
2,377500	0,1	7,630045
2,379167	0,1	7,719182
2,380833	0,1	7,778794
2,382500	0,1	7,865782
2,384167	0,1	7,975887
2,385833	0,1	8,129341
2,387500	0,1	8,287841
2,389167	0,1	8,393030
2,390833	0,1	8,571689
2,392500	0,1	8,758129
2,394167	0,1	8,885991
2,395833	0,1	9,082092
2,397500	0,1	9,313293
2,399167	0,1	9,524639
2,400833	0,1	9,737400
2,402500	0,1	9,983494
2,404167	0,1	10,242317
2,405833	0,1	10,492280
2,407500	0,1	10,750212
2,409167	0,1	11,058904
2,410833	0,1	11,321139
2,412500	0,1	11,649263
2,414167	0,1	12,026504
2,415833	0,1	12,334901
2,417500	0,1	12,679530
2,419167	0,1	13,011801
2,420833	0,1	13,368370
2,422500	0,1	13,798924
2,424167	0,1	14,167772
2,425833	0,1	14,595183
2,427500	0,1	15,002201
2,429167	0,1	15,423125
2,430833	0,1	15,845908
2,432500	0,1	16,312213
2,434167	0,1	16,754894
2,435833	0,1	17,235939
2,437500	0,1	17,681931
2,439167	0,1	18,182479
2,440833	0,1	18,638116
2,442500	0,1	19,108087
2,444167	0,1	19,635598
2,445833	0,1	20,110620
2,447500	0,1	20,641965
2,449167	0,1	21,142475
2,450833	0,1	21,716124
2,452500	0,1	22,255788
2,454167	0,1	22,851112
2,455833	0,1	23,444005
2,457500	0,1	24,103230
2,459167	0,1	24,760849
2,460833	0,1	25,458585
2,462500	0,1	26,133553
2,464167	0,1	26,966174
2,465833	0,1	27,758735
2,467500	0,1	28,724811
2,469167	0,1	29,661900
2,470833	0,1	30,701766
2,472500	0,1	31,842425
2,474167	0,1	33,032999
2,475833	0,1	34,440433
2,477500	0,1	35,944191
2,479167	0,1	37,615164
2,480833	0,1	39,386195
2,482500	0,1	41,374586
2,484167	0,1	43,579896
2,485833	0,1	45,976737
2,487500	0,1	48,562530
2,489167	0,1	51,501469
2,490833	0,1	54,613039
2,492500	0,1	58,062878
2,494167	0,1	61,837705
2,495833	0,1	65,961667
2,497500	0,1	70,392608
2,499167	0,1	75,196279
2,500833	0,1	80,480321
2,502500	0,1	86,126129
2,504167	0,1	92,269163
2,505833	0,1	98,794984
2,507500	0,1	105,848914
2,509167	0,1	113,267027
2,510833	0,1	121,371967
2,512500	0,1	129,862035
2,514167	0,1	138,923459
2,515833	0,1	148,468523
2,517500	0,1	158,595237
2,519167	0,1	169,273865
2,520833	0,1	180,414867
2,522500	0,1	192,130758
2,524167	0,1	204,337096
2,525833	0,1	216,966725
2,527500	0,1	230,252926
2,529167	0,1	243,926327
2,530833	0,1	258,003162
2,532500	0,1	272,574080
2,534167	0,1	287,476745
2,535833	0,1	302,773816
2,537500	0,1	318,408652
2,539167	0,1	334,222520
2,540833	0,1	350,436353
2,542500	0,1	366,764358
2,544167	0,1	383,294052
2,545833	0,1	399,914999
2,547500	0,1	416,619939
2,549167	0,1	433,313442
2,550833	0,1	450,101489
2,552500	0,1	466,625567
2,554167	0,1	483,223154
2,555833	0,1	499,566646
2,557500	0,1	515,680924
2,559167	0,1	531,649857
2,560833	0,1	547,246202
2,562500	0,1	562,561142
2,564167	0,1	577,392860
2,565833	0,1	591,924407
2,567500	0,1	606,030807
2,569167	0,1	619,736640
2,570833	0,1	633,000780
2,572500	0,1	645,665389
2,574167	0,1	657,770495
2,575833	0,1	669,598369
2,577500	0,1	680,628358
2,579167	0,1	691,091227
2,580833	0,1	701,245875
2,582500	0,1	710,710122
2,584167	0,1	719,623333
2,585833	0,1	727,940207
2,587500	0,1	735,755971
2,589167	0,1	742,912043
2,590833	0,1	749,617364
2,592500	0,1	755,757142
2,594167	0,1	761,455084
2,595833	0,1	766,433839
2,597500	0,1	770,959712
2,599167	0,1	775,052521
2,600833	0,1	778,577622
2,602500	0,1	781,748230
2,604167	0,1	784,173556
2,605833	0,1	786,516406
2,607500	0,1	788,245804
2,609167	0,1	789,401836
2,610833	0,1	790,175443
2,612500	0,1	790,707581
2,614167	0,1	790,625427
2,615833	0,1	790,356566
2,617500	0,1	789,552875
2,619167	0,1	788,355732
2,620833	0,1	786,875363
2,622500	0,1	784,909302
2,624167	0,1	782,920115
2,625833	0,1	780,354260
2,627500	0,1	777,430758
2,629167	0,1	774,295013
2,630833	0,1	770,964400
2,632500	0,1	767,175001
2,634167	0,1	763,236858
2,635833	0,1	758,740114
2,637500	0,1	754,280472
2,639167	0,1	749,307503
2,640833	0,1	744,166675
2,642500	0,1	738,986050
2,644167	0,1	733,352223
2,645833	0,1	727,587052
2,647500	0,1	721,514563
2,649167	0,1	715,144083
2,650833	0,1	708,627461
2,652500	0,1	702,062854
2,654167	0,1	695,259856
2,655833	0,1	688,192172
2,657500	0,1	681,027226
2,659167	0,1	673,577882
2,660833	0,1	666,019933
2,662500	0,1	658,325966
2,664167	0,1	650,598545
2,665833	0,1	642,600765
2,667500	0,1	634,448257
2,669167	0,1	626,459847
2,670833	0,1	618,066094
2,672500	0,1	609,838759
2,674167	0,1	601,372114
2,675833	0,1	592,846347
2,677500	0,1	584,389297
2,679167	0,1	575,671465
2,680833	0,1	567,124337
2,682500	0,1	558,355515
2,684167	0,1	549,692392
2,685833	0,1	540,894356
2,687500	0,1	532,278116
2,689167	0,1	523,557172
2,690833	0,1	514,893064
2,692500	0,1	506,122021
2,694167	0,1	497,423624
2,695833	0,1	488,871371
2,697500	0,1	480,258009
2,699167	0,1	471,781357
2,700833	0,1	463,251942
2,702500	0,1	454,920115
2,704167	0,1	446,566012
2,705833	0,1	438,300172
2,707500	0,1	430,138334
2,709167	0,1	421,969054
2,710833	0,1	413,995743
2,712500	0,1	406,143174
2,714167	0,1	398,361472
2,715833	0,1	390,602314
2,717500	0,1	383,018074
2,719167	0,1	375,564458
2,720833	0,1	368,152070
2,722500	0,1	360,929311
2,724167	0,1	353,757886
2,725833	0,1	346,745864
2,727500	0,1	339,881328
2,729167	0,1	333,120424
2,730833	0,1	326,509361
2,732500	0,1	319,920048
2,734167	0,1	313,511062
2,735833	0,1	307,273792
2,737500	0,1	301,122416
2,739167	0,1	295,074214
2,740833	0,1	289,117152
2,742500	0,1	283,322656
2,744167	0,1	277,708784
2,745833	0,1	272,124689
2,747500	0,1	266,734154
2,749167	0,1	261,457606
2,750833	0,1	256,260963
2,752500	0,1	251,202179
2,754167	0,1	246,197878
2,755833	0,1	241,310407
2,757500	0,1	236,558365
2,759167	0,1	232,032971
2,760833	0,1	227,396476
2,762500	0,1	222,974171
2,764167	0,1	218,619194
2,765833	0,1	214,358555
2,767500	0,1	210,220326
2,769167	0,1	206,123854
2,770833	0,1	202,190768
2,772500	0,1	198,297618
2,774167	0,1	194,509514
2,775833	0,1	190,719209
2,777500	0,1	187,149061
2,779167	0,1	183,560869
2,780833	0,1	180,115186
2,782500	0,1	176,653539
2,784167	0,1	173,307632
2,785833	0,1	170,035509
2,787500	0,1	166,812118
2,789167	0,1	163,665593
2,790833	0,1	160,654713
2,792500	0,1	157,643280
2,794167	0,1	154,632214
2,795833	0,1	151,780161
2,797500	0,1	148,941164
2,799167	0,1	146,139407
2,800833	0,1	143,423620
2,802500	0,1	140,764926
2,804167	0,1	138,184834
2,805833	0,1	135,577593
2,807500	0,1	133,093681
2,809167	0,1	130,572662
2,810833	0,1	128,198073
2,812500	0,1	125,820095
2,814167	0,1	123,533856
2,815833	0,1	121,252491
2,817500	0,1	119,038268
2,819167	0,1	116,859675
2,820833	0,1	114,660623
2,822500	0,1	112,582647
2,824167	0,1	110,561469
2,825833	0,1	108,493958
2,827500	0,1	106,495815
2,829167	0,1	104,555186
2,830833	0,1	102,701121
2,832500	0,1	100,793590
2,834167	0,1	98,999906
2,835833	0,1	97,167711
2,837500	0,1	95,462348
2,839167	0,1	93,775502
2,840833	0,1	92,062915
2,842500	0,1	90,478497
2,844167	0,1	88,847222
2,845833	0,1	87,299363
2,847500	0,1	85,745943
2,849167	0,1	84,264857
2,850833	0,1	82,791797
2,852500	0,1	81,369732
2,854167	0,1	79,917245
2,855833	0,1	78,613185
2,857500	0,1	77,283010
2,859167	0,1	76,007575
2,860833	0,1	74,695545
2,862500	0,1	73,447793
2,864167	0,1	72,225649
2,865833	0,1	71,115071
2,867500	0,1	69,918659
2,869167	0,1	68,770418
2,870833	0,1	67,698422
2,872500	0,1	66,631485
2,874167	0,1	65,587592
2,875833	0,1	64,572750
2,877500	0,1	63,563431
2,879167	0,1	62,515533
2,880833	0,1	61,646141
2,882500	0,1	60,738124
2,884167	0,1	59,807795
2,885833	0,1	58,953831
2,887500	0,1	58,082050
2,889167	0,1	57,249318
2,890833	0,1	56,432419
2,892500	0,1	55,612208
2,894167	0,1	54,813059
2,895833	0,1	54,087892
2,897500	0,1	53,373985
2,899167	0,1	52,645994
2,900833	0,1	51,927622
2,902500	0,1	51,273149
2,904167	0,1	50,597358
2,905833	0,1	49,940849
2,907500	0,1	49,228472
2,909167	0,1	48,655624
2,910833	0,1	48,056792
2,912500	0,1	47,459064
2,914167	0,1	46,856154
2,915833	0,1	46,292408
2,917500	0,1	45,750830
2,919167	0,1	45,201266
2,920833	0,1	44,676553
2,922500	0,1	44,132115
2,924167	0,1	43,631817
2,925833	0,1	43,170713
2,927500	0,1	42,645672
2,929167	0,1	42,152797
2,930833	0,1	41,722541
2,932500	0,1	41,259731
2,934167	0,1	40,811661
2,935833	0,1	40,337617
2,937500	0,1	39,875659
2,939167	0,1	39,488835
2,940833	0,1	39,057685
2,942500	0,1	38,708539
2,944167	0,1	38,210275
2,945833	0,1	37,849691
2,947500	0,1	37,439345
2,949167	0,1	37,101720
2,950833	0,1	36,708686
2,952500	0,1	36,264328
2,954167	0,1	35,934121
2,955833	0,1	35,583930
2,957500	0,1	35,234704
2,959167	0,1	34,834667
2,960833	0,1	34,592794
2,962500	0,1	34,186307
2,964167	0,1	33,868648
2,965833	0,1	33,550336
2,967500	0,1	33,214286
2,969167	0,1	32,876449
2,970833	0,1	32,567962
2,972500	0,1	32,230973
2,974167	0,1	31,922995
2,975833	0,1	31,625882
2,977500	0,1	31,315247
2,979167	0,1	30,985966
2,980833	0,1	30,720845
2,982500	0,1	30,394926
2,984167	0,1	30,129594
2,985833	0,1	29,823024
2,987500	0,1	29,569129
2,989167	0,1	29,257097
2,990833	0,1	29,013225
2,992500	0,1	28,714283
2,994167	0,1	28,451567
2,995833	0,1	28,205800
2,997500	0,1	27,904850
2,999167	0,1	27,643447
3,000833	0,1	27,381035
3,002500	0,1	27,149428
3,004167	0,1	26,872115
3,005833	0,1	26,582730
3,007500	0,1	26,342755
3,009167	0,1	26,044166
3,010833	0,1	25,882306
3,012500	0,1	25,647173
3,014167	0,1	25,428926
3,015833	0,1	25,102133
3,017500	0,1	24,907106
3,019167	0,1	24,637692
3,020833	0,1	24,419769
3,022500	0,1	24,204280
3,024167	0,1	24,006591
3,025833	0,1	23,712396
3,027500	0,1	23,472888
3,029167	0,1	23,238551
3,030833	0,1	23,074639
3,032500	0,1	22,801342
3,034167	0,1	22,654785
3,035833	0,1	22,413172
3,037500	0,1	22,202651
3,039167	0,1	22,059504
3,040833	0,1	21,864128
3,042500	0,1	21,605601
3,044167	0,1	21,403727
3,045833	0,1	21,146226
3,047500	0,1	21,008080
3,049167	0,1	20,799009
3,050833	0,1	20,562171
3,052500	0,1	20,457108
3,054167	0,1	20,180150
3,055833	0,1	20,034802
3,057500	0,1	19,845980
3,059167	0,1	19,665578
3,060833	0,1	19,483961
3,062500	0,1	19,273136
3,064167	0,1	19,139917
3,065833	0,1	18,973521
3,067500	0,1	18,831247
3,069167	0,1	18,620334
3,070833	0,1	18,419752
3,072500	0,1	18,294892
3,074167	0,1	18,095302
3,075833	0,1	17,926381
3,077500	0,1	17,796548
3,079167	0,1	17,644408
3,080833	0,1	17,502083
3,082500	0,1	17,312185
3,084167	0,1	17,229932
3,085833	0,1	17,075856
3,087500	0,1	16,917572
3,089167	0,1	16,761337
3,090833	0,1	16,616378
3,092500	0,1	16,513295
3,094167	0,1	16,395916
3,095833	0,1	16,259551
3,097500	0,1	16,142506
3,099167	0,1	16,027900
3,100833	0,1	15,857547
3,102500	0,1	15,726690
3,104167	0,1	15,610050
3,105833	0,1	15,432224
3,107500	0,1	15,421241
3,109167	0,1	15,265549
3,110833	0,1	15,182825
3,112500	0,1	15,060200
3,114167	0,1	14,950815
3,115833	0,1	14,822784
3,117500	0,1	14,772067
3,119167	0,1	14,673985
3,120833	0,1	14,568310
3,122500	0,1	14,477324
3,124167	0,1	14,375569
3,125833	0,1	14,299767
3,127500	0,1	14,189818
3,129167	0,1	14,088918
3,130833	0,1	14,016231
3,132500	0,1	13,954705
3,134167	0,1	13,896268
3,135833	0,1	13,791539
3,137500	0,1	13,738610
3,139167	0,1	13,680547
3,140833	0,1	13,564992
3,142500	0,1	13,517284
3,144167	0,1	13,411672
3,145833	0,1	13,376938
3,147500	0,1	13,329319
3,149167	0,1	13,238998
3,150833	0,1	13,147572
3,152500	0,1	13,098390
3,154167	0,1	13,058500
3,155833	0,1	13,002182
3,157500	0,1	12,890305
3,159167	0,1	12,826868
3,160833	0,1	12,781445
3,162500	0,1	12,716288
3,164167	0,1	12,688172
3,165833	0,1	12,588900
3,167500	0,1	12,554932
3,169167	0,1	12,473504
3,170833	0,1	12,415048
3,172500	0,1	12,335540
3,174167	0,1	12,294420
3,175833	0,1	12,253633
3,177500	0,1	12,171720
3,179167	0,1	12,117783
3,180833	0,1	12,092769
3,182500	0,1	11,978721
3,184167	0,1	11,948395
3,185833	0,1	11,856563
3,187500	0,1	11,800242
3,189167	0,1	11,714593
3,190833	0,1	11,671087
3,192500	0,1	11,667347
3,194167	0,1	11,591469
3,195833	0,1	11,500992
3,197500	0,1	11,478685
3,199167	0,1	11,376235
3,200833	0,1	11,300467
3,202500	0,1	11,261423
3,204167	0,1	11,185940
3,205833	0,1	11,111021
3,207500	0,1	11,062318
3,209167	0,1	10,979022
3,210833	0,1	10,992055
3,212500	0,1	10,865580
3,214167	0,1	10,751835
3,215833	0,1	10,754779
3,217500	0,1	10,672753
3,219167	0,1	10,610937
3,220833	0,1	10,574634
3,222500	0,1	10,453823
3,224167	0,1	10,416524
3,225833	0,1	10,361858
3,227500	0,1	10,304000
3,229167	0,1	10,231959
3,230833	0,1	10,157277
3,232500	0,1	10,127277
3,234167	0,1	10,048445
3,235833	0,1	9,968756
3,237500	0,1	9,914615
3,239167	0,1	9,833544
3,240833	0,1	9,787874
3,242500	0,1	9,688019
3,244167	0,1	9,654217
3,245833	0,1	9,582868
3,247500	0,1	9,511741
3,249167	0,1	9,505106
3,250833	0,1	9,373878
3,252500	0,1	9,385413
3,254167	0,1	9,288429
3,255833	0,1	9,239961
3,257500	0,1	9,169087
3,259167	0,1	9,111320
3,260833	0,1	9,065691
3,262500	0,1	8,997376
3,264167	0,1	8,902662
3,265833	0,1	8,902640
3,267500	0,1	8,792707
3,269167	0,1	8,718496
3,270833	0,1	8,684765
3,272500	0,1	8,598779
3,274167	0,1	8,570676
3,275833	0,1	8,465740
3,277500	0,1	8,463367
3,279167	0,1	8,411190
3,280833	0,1	8,318176
3,282500	0,1	8,229477
3,284167	0,1	8,210097
3,285833	0,1	8,143699
3,287500	0,1	8,087373
3,289167	0,1	8,069105
3,290833	0,1	7,965425
3,292500	0,1	7,955088
3,294167	0,1	7,889028
3,295833	0,1	7,827186
3,297500	0,1	7,775300
3,299167	0,1	7,691378
3,300833	0,1	7,658793
3,302500	0,1	7,610979
3,304167	0,1	7,567555
3,305833	0,1	7,531444
3,307500	0,1	7,441729
3,309167	0,1	7,420714
3,310833	0,1	7,383039
3,312500	0,1	7,363917
3,314167	0,1	7,342349
3,315833	0,1	7,246033
3,317500	0,1	7,180084
3,319167	0,1	7,186135
3,320833	0,1	7,130978
3,322500	0,1	7,079359
3,324167	0,1	7,072509
3,325833	0,1	7,035703
3,327500	0,1	6,916995
3,329167	0,1	6,854531
3,330833	0,1	6,850023
3,332500	0,1	6,829433
3,334167	0,1	6,789654
3,335833	0,1	6,784122
3,337500	0,1	6,746318
3,339167	0,1	6,674631
3,340833	0,1	6,632239
3,342500	0,1	6,616796
3,344167	0,1	6,589576
3,345833	0,1	6,590597
3,347500	0,1	6,490426
3,349167	0,1	6,505918
3,350833	0,1	6,480873
3,352500	0,1	6,407642
3,354167	0,1	6,390434
3,355833	0,1	6,366206
3,357500	0,1	6,344781
3,359167	0,1	6,303557
3,360833	0,1	6,323559
3,362500	0,1	6,275335
3,364167	0,1	6,166231
3,365833	0,1	6,226320
3,367500	0,1	6,211831
3,369167	0,1	6,143163
3,370833	0,1	6,143237
3,372500	0,1	6,114355
3,374167	0,1	6,092201
3,375833	0,1	6,091835
3,377500	0,1	6,086977
3,379167	0,1	6,042786
3,380833	0,1	6,040353
3,382500	0,1	6,009579
3,384167	0,1	5,958020
3,385833	0,1	5,949625
3,387500	0,1	5,936519
3,389167	0,1	5,925430
3,390833	0,1	5,896990
3,392500	0,1	5,821752
3,394167	0,1	5,901406
3,395833	0,1	5,823269
3,397500	0,1	5,859587
3,399167	0,1	5,839227
3,400833	0,1	5,753661
3,402500	0,1	5,780364
3,404167	0,1	5,750574
3,405833	0,1	5,747826
3,407500	0,1	5,720345
3,409167	0,1	5,720127
3,410833	0,1	5,680640
3,412500	0,1	5,724834
3,414167	0,1	5,644120
3,415833	0,1	5,645394
3,417500	0,1	5,640289
3,419167	0,1	5,637729
3,420833	0,1	5,633859
3,422500	0,1	5,596953
3,424167	0,1	5,558353
3,425833	0,1	5,606860
3,427500	0,1	5,580886
3,429167	0,1	5,546570
3,430833	0,1	5,559902
3,432500	0,1	5,547240
3,434167	0,1	5,500753
3,435833	0,1	5,498911
3,437500	0,1	5,450452
3,439167	0,1	5,447285
3,440833	0,1	5,449961
3,442500	0,1	5,457211
3,444167	0,1	5,462806
3,445833	0,1	5,420209
3,447500	0,1	5,423290
3,449167	0,1	5,433739
3,450833	0,1	5,393016
3,452500	0,1	5,382798
3,454167	0,1	5,365732
3,455833	0,1	5,343616
3,457500	0,1	5,338276
3,459167	0,1	5,321105
3,460833	0,1	5,335510
3,462500	0,1	5,326742
3,464167	0,1	5,354492
3,465833	0,1	5,319352
3,467500	0,1	5,311614
3,469167	0,1	5,270334
3,470833	0,1	5,275067
3,472500	0,1	5,288210
3,474167	0,1	5,272335
3,475833	0,1	5,263490
3,477500	0,1	5,258179
3,479167	0,1	5,209802
3,480833	0,1	5,206269
3,482500	0,1	5,180665
3,484167	0,1	5,191618
3,485833	0,1	5,175269
3,487500	0,1	5,183577
3,489167	0,1	5,111512
3,490833	0,1	5,176692
3,492500	0,1	5,148198
3,494167	0,1	5,162515
3,495833	0,1	5,202133
3,497500	0,1	5,163129
3,499167	0,1	5,105521
3,500833	0,1	5,112375
3,502500	0,1	5,128633
3,504167	0,1	5,138511
3,505833	0,1	5,097541
3,507500	0,1	5,094808
3,509167	0,1	5,100113
3,510833	0,1	5,136737
3,512500	0,1	5,112463
3,514167	0,1	5,086810
3,515833	0,1	5,092848
3,517500	0,1	5,077559
3,519167	0,1	5,076844
3,520833	0,1	5,056648
3,522500	0,1	5,091820
3,524167	0,1	5,071174
3,525833	0,1	5,072816
3,527500	0,1	5,114259
3,529167	0,1	5,080371
3,530833	0,1	5,057100
3,532500	0,1	5,066148
3,534167	0,1	5,061187
3,535833	0,1	5,063596
3,537500	0,1	5,095705
3,539167	0,1	5,052823
3,540833	0,1	5,109523
3,542500	0,1	5,073338
3,544167	0,1	5,087684
3,545833	0,1	5,085955
3,547500	0,1	5,060850
3,549167	0,1	5,108273
3,550833	0,1	5,128170
3,552500	0,1	5,120601
3,554167	0,1	5,111661
3,555833	0,1	5,093791
3,557500	0,1	5,079036
3,559167	0,1	5,074636
3,560833	0,1	5,115598
3,562500	0,1	5,098841
3,564167	0,1	5,107859
3,565833	0,1	5,094896
3,567500	0,1	5,128200
3,569167	0,1	5,104774
3,570833	0,1	5,086697
3,572500	0,1	5,110441
3,574167	0,1	5,119693
3,575833	0,1	5,122814
3,577500	0,1	5,158851
3,579167	0,1	5,114484
3,580833	0,1	5,132515
3,582500	0,1	5,136159
3,584167	0,1	5,166033
3,585833	0,1	5,158837
3,587500	0,1	5,159907
3,589167	0,1	5,146941
3,590833	0,1	5,198386
3,592500	0,1	5,123939
3,594167	0,1	5,165919
3,595833	0,1	5,150696
3,597500	0,1	5,163230
3,599167	0,1	5,176852
3,600833	0,1	5,178665
3,602500	0,1	5,162017
3,604167	0,1	5,209645
3,605833	0,1	5,230383
3,607500	0,1	5,191028
3,609167	0,1	5,227483
3,610833	0,1	5,215965
3,612500	0,1	5,180238
3,614167	0,1	5,217494
3,615833	0,1	5,196839
3,617500	0,1	5,205663
3,619167	0,1	5,214631
3,620833	0,1	5,197773
3,622500	0,1	5,210514
3,624167	0,1	5,229582
3,625833	0,1	5,214574
3,627500	0,1	5,200790
3,629167	0,1	5,219457
3,630833	0,1	5,228192
3,632500	0,1	5,196670
3,634167	0,1	5,202622
3,635833	0,1	5,183498
3,637500	0,1	5,227951
3,639167	0,1	5,217211
3,640833	0,1	5,199794
3,642500	0,1	5,190762
3,644167	0,1	5,212693
3,645833	0,1	5,174253
3,647500	0,1	5,198588
3,649167	0,1	5,129220
3,650833	0,1	5,173519
3,652500	0,1	5,176879
3,654167	0,1	5,164960
3,655833	0,1	5,166462
3,657500	0,1	5,162186
3,659167	0,1	5,137352
3,660833	0,1	5,139337
3,662500	0,1	5,129884
3,664167	0,1	5,118763
3,665833	0,1	5,116855
3,667500	0,1	5,130274
3,669167	0,1	5,110733
3,670833	0,1	5,126047
3,672500	0,1	5,097282
3,674167	0,1	5,092422
3,675833	0,1	5,112763
3,677500	0,1	5,067692
3,679167	0,1	5,053924
3,680833	0,1	5,055366
3,682500	0,1	5,084813
3,684167	0,1	5,046351
3,685833	0,1	5,051957
3,687500	0,1	4,987828
3,689167	0,1	5,007609
3,690833	0,1	4,971366
3,692500	0,1	4,961685
3,694167	0,1	4,965542
3,695833	0,1	4,975298
3,697500	0,1	4,947790
3,699167	0,1	4,941828
3,700833	0,1	4,916136
3,702500	0,1	4,956851
3,704167	0,1	4,932842
3,705833	0,1	4,907568
3,707500	0,1	4,876426
3,709167	0,1	4,914385
3,710833	0,1	4,876770
3,712500	0,1	4,844684
3,714167	0,1	4,886451
3,715833	0,1	4,829012
3,717500	0,1	4,791148
3,719167	0,1	4,823321
3,720833	0,1	4,814116
3,722500	0,1	4,765883
3,724167	0,1	4,744607
3,725833	0,1	4,761080
3,727500	0,1	4,725245
3,729167	0,1	4,738458
3,730833	0,1	4,729314
3,732500	0,1	4,685904
3,734167	0,1	4,671919
3,735833	0,1	4,645189
3,737500	0,1	4,676507
3,739167	0,1	4,649872
3,740833	0,1	4,621886
3,742500	0,1	4,637523
3,744167	0,1	4,624275
3,745833	0,1	4,604233
3,747500	0,1	4,587399
3,749167	0,1	4,562880
3,750833	0,1	4,521784
3,752500	0,1	4,518196
3,754167	0,1	4,501810
3,755833	0,1	4,482993
3,757500	0,1	4,527132
3,759167	0,1	4,492856
3,760833	0,1	4,430012
3,762500	0,1	4,429145
3,764167	0,1	4,420024
3,765833	0,1	4,427271
3,767500	0,1	4,393596
3,769167	0,1	4,416464
3,770833	0,1	4,409671
3,772500	0,1	4,369160
3,774167	0,1	4,374565
3,775833	0,1	4,344968
3,777500	0,1	4,305438
3,779167	0,1	4,313112
3,780833	0,1	4,313564
3,782500	0,1	4,284380
3,784167	0,1	4,254865
3,785833	0,1	4,275494
3,787500	0,1	4,242163
3,789167	0,1	4,268531
3,790833	0,1	4,228935
3,792500	0,1	4,213989
3,794167	0,1	4,209059
3,795833	0,1	4,192128
3,797500	0,1	4,176376
3,799167	0,1	4,137631
3,800833	0,1	4,165089
3,802500	0,1	4,107844
3,804167	0,1	4,155520
3,805833	0,1	4,110729
3,807500	0,1	4,067631
3,809167	0,1	4,075311
3,810833	0,1	4,071448
3,812500	0,1	4,045898
3,814167	0,1	3,989184
3,815833	0,1	3,998318
3,817500	0,1	4,014147
3,819167	0,1	3,942962
3,820833	0,1	3,985861
3,822500	0,1	3,929698
3,824167	0,1	3,958239
3,825833	0,1	3,924004
3,827500	0,1	3,895185
3,829167	0,1	3,938546
3,830833	0,1	3,889625
3,832500	0,1	3,914760
3,834167	0,1	3,899035
3,835833	0,1	3,885598
3,837500	0,1	3,788845
3,839167	0,1	3,832219
3,840833	0,1	3,791275
3,842500	0,1	3,803706
3,844167	0,1	3,810581
3,845833	0,1	3,753841
3,847500	0,1	3,730078
3,849167	0,1	3,720188
3,850833	0,1	3,747187
3,852500	0,1	3,702789
3,854167	0,1	3,723054
3,855833	0,1	3,697533
3,857500	0,1	3,666926
3,859167	0,1	3,696265
3,860833	0,1	3,632490
3,862500	0,1	3,641055
3,864167	0,1	3,636555
3,865833	0,1	3,644326
3,867500	0,1	3,621933
3,869167	0,1	3,572123
3,870833	0,1	3,613462
3,872500	0,1	3,565776
3,874167	0,1	3,552860
3,875833	0,1	3,565269
3,877500	0,1	3,489797
3,879167	0,1	3,544547
3,880833	0,1	3,474738
3,882500	0,1	3,531927
3,884167	0,1	3,501934
3,885833	0,1	3,445268
3,887500	0,1	3,483398
3,889167	0,1	3,427347
3,890833	0,1	3,452113
3,892500	0,1	3,457319
3,894167	0,1	3,397755
3,895833	0,1	3,420178
3,897500	0,1	3,366289
3,899167	0,1	3,367109
3,900833	0,1	3,399683
3,902500	0,1	3,340990
3,904167	0,1	3,333022
3,905833	0,1	3,332396
3,907500	0,1	3,333175
3,909167	0,1	3,322522
3,910833	0,1	3,327718
3,912500	0,1	3,271751
3,914167	0,1	3,284501
3,915833	0,1	3,259064
3,917500	0,1	3,274597
3,919167	0,1	3,234868
3,920833	0,1	3,272774
3,922500	0,1	3,226289
3,924167	0,1	3,220795
3,925833	0,1	3,219230
3,927500	0,1	3,189995
3,929167	0,1	3,203684
3,930833	0,1	3,143386
3,932500	0,1	3,146299
3,934167	0,1	3,173406
3,935833	0,1	3,125652
3,937500	0,1	3,156973
3,939167	0,1	3,128380
3,940833	0,1	3,133073
3,942500	0,1	3,119511
3,944167	0,1	3,097348
3,945833	0,1	3,088822
3,947500	0,1	3,089280
3,949167	0,1	3,077856
3,950833	0,1	3,051073
3,952500	0,1	3,090950
3,954167	0,1	3,079232
3,955833	0,1	3,043642
3,957500	0,1	3,043845
3,959167	0,1	3,032232
3,960833	0,1	3,009157
3,962500	0,1	2,976776
3,964167	0,1	3,002077
3,965833	0,1	2,996238
3,967500	0,1	3,007048
3,969167	0,1	2,947059
3,970833	0,1	2,946513
3,972500	0,1	2,992005
3,974167	0,1	2,932013
3,975833	0,1	2,969523
3,977500	0,1	2,947244
3,979167	0,1	2,937636
3,980833	0,1	2,937691
3,982500	0,1	2,904944
3,984167	0,1	2,928915
3,985833	0,1	2,911374
3,987500	0,1	2,913378
3,989167	0,1	2,919009
3,990833	0,1	2,918119
3,992500	0,1	2,900259
3,994167	0,1	2,896723
3,995833	0,1	2,859703
3,997500	0,1	2,851588
3,999167	0,1	2,853866
4,000833	0,1	2,883831
4,002500	0,1	2,840439
4,004167	0,1	2,864505
4,005833	0,1	2,849205
4,007500	0,1	2,807055
4,009167	0,1	2,825534
4,010833	0,1	2,824001
4,012500	0,1	2,827879
4,014167	0,1	2,859792
4,015833	0,1	2,765033
4,017500	0,1	2,806446
4,019167	0,1	2,820403
4,020833	0,1	2,815608
4,022500	0,1	2,849857
4,024167	0,1	2,792836
4,025833	0,1	2,769909
4,027500	0,1	2,784107
4,029167	0,1	2,805788
4,030833	0,1	2,790380
4,032500	0,1	2,778844
4,034167	0,1	2,778869
4,035833	0,1	2,804865
4,037500	0,1	2,813398
4,039167	0,1	2,766657
4,040833	0,1	2,774584
4,042500	0,1	2,765800
4,044167	0,1	2,752743
4,045833	0,1	2,741707
4,047500	0,1	2,774851
4,049167	0,1	2,729757
4,050833	0,1	2,784944
4,052500	0,1	2,749139
4,054167	0,1	2,738623
4,055833	0,1	2,789941
4,057500	0,1	2,778243
4,059167	0,1	2,777817
4,060833	0,1	2,772201
4,062500	0,1	2,781273
4,064167	0,1	2,761532
4,065833	0,1	2,798732
4,067500	0,1	2,789942
4,069167	0,1	2,803843
4,070833	0,1	2,772432
4,072500	0,1	2,725848
4,074167	0,1	2,773985
4,075833	0,1	2,803475
4,077500	0,1	2,785789
4,079167	0,1	2,794994
4,080833	0,1	2,737959
4,082500	0,1	2,770382
4,084167	0,1	2,779975
4,085833	0,1	2,806390
4,087500	0,1	2,817506
4,089167	0,1	2,761628
4,090833	0,1	2,810900
4,092500	0,1	2,848784
4,094167	0,1	2,816293
4,095833	0,1	2,778339
4,097500	0,1	2,816699
4,099167	0,1	2,870025
4,100833	0,1	2,857900
4,102500	0,1	2,828612
4,104167	0,1	2,804890
4,105833	0,1	2,847364
4,107500	0,1	2,818676
4,109167	0,1	2,869936
4,110833	0,1	2,889633
4,112500	0,1	2,887903
4,114167	0,1	2,912089
4,115833	0,1	2,886188
4,117500	0,1	2,892839
4,119167	0,1	2,894320
4,120833	0,1	2,927790
4,122500	0,1	2,936560
4,124167	0,1	2,930112
4,125833	0,1	2,933524
4,127500	0,1	2,913669
4,129167	0,1	2,938984
4,130833	0,1	2,947752
4,132500	0,1	2,966853
4,134167	0,1	2,995790
4,135833	0,1	3,022613
4,137500	0,1	3,008373
4,139167	0,1	2,990127
4,140833	0,1	2,990853
4,142500	0,1	2,985868
4,144167	0,1	3,024787
4,145833	0,1	3,035169
4,147500	0,1	3,052094
4,149167	0,1	3,031297
4,150833	0,1	3,078471
4,152500	0,1	3,062590
4,154167	0,1	3,048701
4,155833	0,1	3,066518
4,157500	0,1	3,083543
4,159167	0,1	3,081598
4,160833	0,1	3,099342
4,162500	0,1	3,124050
4,164167	0,1	3,102315
4,165833	0,1	3,090772
4,167500	0,1	3,136235
4,169167	0,1	3,111334
4,170833	0,1	3,161055
4,172500	0,1	3,131977
4,174167	0,1	3,145855
4,175833	0,1	3,153633
4,177500	0,1	3,195990
4,179167	0,1	3,188680
4,180833	0,1	3,162661
4,182500	0,1	3,190664
4,184167	0,1	3,203299
4,185833	0,1	3,188548
4,187500	0,1	3,217956
4,189167	0,1	3,191327
4,190833	0,1	3,256474
4,192500	0,1	3,223994
4,194167	0,1	3,212479
4,195833	0,1	3,218116
4,197500	0,1	3,261886
4,199167	0,1	3,259762
4,200833	0,1	3,194110
4,202500	0,1	3,285945
4,204167	0,1	3,255946
4,205833	0,1	3,253232
4,207500	0,1	3,287436
4,209167	0,1	3,264186
4,210833	0,1	3,238764
4,212500	0,1	3,288168
4,214167	0,1	3,320979
4,215833	0,1	3,273080
4,217500	0,1	3,328980
4,219167	0,1	3,278775
4,220833	0,1	3,270548
4,222500	0,1	3,311173
4,224167	0,1	3,304060
4,225833	0,1	3,288253
4,227500	0,1	3,304937
4,229167	0,1	3,337568
4,230833	0,1	3,288084
4,232500	0,1	3,318816
4,234167	0,1	3,284775
4,235833	0,1	3,314192
4,237500	0,1	3,274068
4,239167	0,1	3,295161
4,240833	0,1	3,301354
4,242500	0,1	3,324958
4,244167	0,1	3,325042
4,245833	0,1	3,356858
4,247500	0,1	3,315642
4,249167	0,1	3,300269
4,250833	0,1	3,325608
4,252500	0,1	3,277112
4,254167	0,1	3,295139
4,255833	0,1	3,302136
4,257500	0,1	3,287293
4,259167	0,1	3,296704
4,260833	0,1	3,287787
4,262500	0,1	3,322618
4,264167	0,1	3,282619
4,265833	0,1	3,301329
4,267500	0,1	3,280015
4,269167	0,1	3,296022
4,270833	0,1	3,309724
4,272500	0,1	3,286700
4,274167	0,1	3,286330
4,275833	0,1	3,273932
4,277500	0,1	3,245681
4,279167	0,1	3,263130
4,280833	0,1	3,253001
4,282500	0,1	3,237462
4,284167	0,1	3,271528
4,285833	0,1	3,287263
4,287500	0,1	3,272917
4,289167	0,1	3,287264
4,290833	0,1	3,254085
4,292500	0,1	3,227770
4,294167	0,1	3,234439
4,295833	0,1	3,258873
4,297500	0,1	3,244224
4,299167	0,1	3,246486
4,300833	0,1	3,214125
4,302500	0,1	3,214791
4,304167	0,1	3,205541
4,305833	0,1	3,231603
4,307500	0,1	3,199830
4,309167	0,1	3,216428
4,310833	0,1	3,176540
4,312500	0,1	3,217312
4,314167	0,1	3,185283
4,315833	0,1	3,196902
4,317500	0,1	3,129919
4,319167	0,1	3,159322
4,320833	0,1	3,190641
4,322500	0,1	3,177006
4,324167	0,1	3,131534
4,325833	0,1	3,159930
4,327500	0,1	3,125287
4,329167	0,1	3,156415
4,330833	0,1	3,123414
4,332500	0,1	3,150185
4,334167	0,1	3,146335
4,335833	0,1	3,094162
4,337500	0,1	3,168484
4,339167	0,1	3,119687
4,340833	0,1	3,085427
4,342500	0,1	3,086832
4,344167	0,1	3,072257
4,345833	0,1	3,072062
4,347500	0,1	3,024006
4,349167	0,1	3,063761
4,350833	0,1	3,037985
4,352500	0,1	3,077652
4,354167	0,1	3,020264
4,355833	0,1	3,029953
4,357500	0,1	3,028333
4,359167	0,1	3,007914
4,360833	0,1	3,011483
4,362500	0,1	3,004686
4,364167	0,1	2,970364
4,365833	0,1	2,969817
4,367500	0,1	2,977745
4,369167	0,1	2,984906
4,370833	0,1	2,942365
4,372500	0,1	2,968993
4,374167	0,1	2,949807
4,375833	0,1	2,906322
4,377500	0,1	2,954279
4,379167	0,1	2,937965
4,380833	0,1	2,944632
4,382500	0,1	2,913959
4,384167	0,1	2,891154
4,385833	0,1	2,881985
4,387500	0,1	2,902512
4,389167	0,1	2,885248
4,390833	0,1	2,869845
4,392500	0,1	2,879291
4,394167	0,1	2,863731
4,395833	0,1	2,872437
4,397500	0,1	2,860044
4,399167	0,1	2,841731
4,400833	0,1	2,848277
4,402500	0,1	2,797667
4,404167	0,1	2,818773
4,405833	0,1	2,820424
4,407500	0,1	2,752306
4,409167	0,1	2,802671
4,410833	0,1	2,780118
4,412500	0,1	2,748826
4,414167	0,1	2,777085
4,415833	0,1	2,759146
4,417500	0,1	2,735917
4,419167	0,1	2,734813
4,420833	0,1	2,743110
4,422500	0,1	2,737211
4,424167	0,1	2,755141
4,425833	0,1	2,692864
4,427500	0,1	2,720463
4,429167	0,1	2,719659
4,430833	0,1	2,694303
4,432500	0,1	2,695730
4,434167	0,1	2,683052
4,435833	0,1	2,653352
4,437500	0,1	2,678850
4,439167	0,1	2,645416
4,440833	0,1	2,663701
4,442500	0,1	2,648984
4,444167	0,1	2,582702
4,445833	0,1	2,638756
4,447500	0,1	2,612000
4,449167	0,1	2,600486
4,450833	0,1	2,601652
4,452500	0,1	2,539729
4,454167	0,1	2,597279
4,455833	0,1	2,554499
4,457500	0,1	2,562550
4,459167	0,1	2,513552
4,460833	0,1	2,537680
4,462500	0,1	2,548053
4,464167	0,1	2,510084
4,465833	0,1	2,504960
4,467500	0,1	2,509425
4,469167	0,1	2,506905
4,470833	0,1	2,484641
4,472500	0,1	2,482697
4,474167	0,1	2,482976
4,475833	0,1	2,491753
4,477500	0,1	2,472742
4,479167	0,1	2,443561
4,480833	0,1	2,435418
4,482500	0,1	2,429146
4,484167	0,1	2,428496
4,485833	0,1	2,395130
4,487500	0,1	2,451731
4,489167	0,1	2,409247
4,490833	0,1	2,334899
4,492500	0,1	2,370901
4,494167	0,1	2,346205
4,495833	0,1	2,365859
4,497500	0,1	2,337183
4,499167	0,1	2,358143
4,500833	0,1	2,359591
4,502500	0,1	2,358166
4,504167	0,1	2,322642
4,505833	0,1	2,361817
4,507500	0,1	2,325303
4,509167	0,1	2,312903
4,510833	0,1	2,283369
4,512500	0,1	2,262123
4,514167	0,1	2,284793
4,515833	0,1	2,248001
4,517500	0,1	2,266863
4,519167	0,1	2,247846
4,520833	0,1	2,229994
4,522500	0,1	2,285580
4,524167	0,1	2,251963
4,525833	0,1	2,210689
4,527500	0,1	2,209161
4,529167	0,1	2,216870
4,530833	0,1	2,241213
4,532500	0,1	2,174174
4,534167	0,1	2,168611
4,535833	0,1	2,206484
4,537500	0,1	2,204115
4,539167	0,1	2,126568
4,540833	0,1	2,180120
4,542500	0,1	2,146722
4,544167	0,1	2,132529
4,545833	0,1	2,131015
4,547500	0,1	2,120861
4,549167	0,1	2,125609
4,550833	0,1	2,106244
4,552500	0,1	2,099975
4,554167	0,1	2,072759
4,555833	0,1	2,126390
4,557500	0,1	2,055991
4,559167	0,1	2,077499
4,560833	0,1	2,038772
4,562500	0,1	2,036675
4,564167	0,1	2,026884
4,565833	0,1	2,030122
4,567500	0,1	2,031778
4,569167	0,1	2,014578
4,570833	0,1	1,997512
4,572500	0,1	2,000097
4,574167	0,1	2,026157
4,575833	0,1	1,969875
4,577500	0,1	1,967198
4,579167	0,1	1,968489
4,580833	0,1	1,984398
4,582500	0,1	1,974184
4,584167	0,1	2,003548
4,585833	0,1	1,963319
4,587500	0,1	1,952512
4,589167	0,1	1,947043
4,590833	0,1	1,916016
4,592500	0,1	1,954087
4,594167	0,1	1,971944
4,595833	0,1	1,900982
4,597500	0,1	1,911113
4,599167	0,1	1,921694
4,600833	0,1	1,891618
4,602500	0,1	1,919751
4,604167	0,1	1,908028
4,605833	0,1	1,873907
4,607500	0,1	1,871885
4,609167	0,1	1,879727
4,610833	0,1	1,841240
4,612500	0,1	1,855975
4,614167	0,1	1,852891
4,615833	0,1	1,821665
4,617500	0,1	1,834816
4,619167	0,1	1,836913
4,620833	0,1	1,806903
4,622500	0,1	1,816180
4,624167	0,1	1,794389
4,625833	0,1	1,797321
4,627500	0,1	1,803308
4,629167	0,1	1,778262
4,630833	0,1	1,793368
4,632500	0,1	1,734950
4,634167	0,1	1,800767
4,635833	0,1	1,748183
4,637500	0,1	1,783354
4,639167	0,1	1,738263
4,640833	0,1	1,778329
4,642500	0,1	1,762210
4,644167	0,1	1,724085
4,645833	0,1	1,710979
4,647500	0,1	1,701617
4,649167	0,1	1,722340
4,650833	0,1	1,694864
4,652500	0,1	1,725787
4,654167	0,1	1,692416
4,655833	0,1	1,728016
4,657500	0,1	1,711636
4,659167	0,1	1,686088
4,660833	0,1	1,656374
4,662500	0,1	1,695209
4,664167	0,1	1,657601
4,665833	0,1	1,647375
4,667500	0,1	1,653425
4,669167	0,1	1,666380
4,670833	0,1	1,650551
4,672500	0,1	1,653426
4,674167	0,1	1,629607
4,675833	0,1	1,635951
4,677500	0,1	1,620691
4,679167	0,1	1,605223
4,680833	0,1	1,612049
4,682500	0,1	1,552220
4,684167	0,1	1,595987
4,685833	0,1	1,580034
4,687500	0,1	1,607155
4,689167	0,1	1,611343
4,690833	0,1	1,572500
4,692500	0,1	1,549610
4,694167	0,1	1,604776
4,695833	0,1	1,588697
4,697500	0,1	1,556036
4,699167	0,1	1,570843
4,700833	0,1	1,579838
4,702500	0,1	1,577681
4,704167	0,1	1,533604
4,705833	0,1	1,544087
4,707500	0,1	1,528558
4,709167	0,1	1,527677
4,710833	0,1	1,546813
4,712500	0,1	1,526040
4,714167	0,1	1,481304
4,715833	0,1	1,494881
4,717500	0,1	1,554650
4,719167	0,1	1,538276
4,720833	0,1	1,501148
4,722500	0,1	1,502225
4,724167	0,1	1,525391
4,725833	0,1	1,507268
4,727500	0,1	1,468440
4,729167	0,1	1,451041
4,730833	0,1	1,437069
4,732500	0,1	1,472431
4,734167	0,1	1,443323
4,735833	0,1	1,449717
4,737500	0,1	1,462949
4,739167	0,1	1,436010
4,740833	0,1	1,440809
4,742500	0,1	1,430677
4,744167	0,1	1,435203
4,745833	0,1	1,438301
4,747500	0,1	1,419307
4,749167	0,1	1,459579
4,750833	0,1	1,414878
4,752500	0,1	1,405948
4,754167	0,1	1,417140
4,755833	0,1	1,399686
4,757500	0,1	1,420522
4,759167	0,1	1,419259
4,760833	0,1	1,410742
4,762500	0,1	1,386677
4,764167	0,1	1,367527
4,765833	0,1	1,414128
4,767500	0,1	1,381598
4,769167	0,1	1,370704
4,770833	0,1	1,394154
4,772500	0,1	1,350806
4,774167	0,1	1,349583
4,775833	0,1	1,317722
4,777500	0,1	1,371198
4,779167	0,1	1,382663
4,780833	0,1	1,361813
4,782500	0,1	1,346545
4,784167	0,1	1,353876
4,785833	0,1	1,380415
4,787500	0,1	1,326801
4,789167	0,1	1,328866
4,790833	0,1	1,327792
4,792500	0,1	1,343687
4,794167	0,1	1,331486
4,795833	0,1	1,295811
4,797500	0,1	1,319253
4,799167	0,1	1,309155
4,800833	0,1	1,327581
4,802500	0,1	1,278772
4,804167	0,1	1,286469
4,805833	0,1	1,296765
4,807500	0,1	1,285659
4,809167	0,1	1,269656
4,810833	0,1	1,280646
4,812500	0,1	1,295182
4,814167	0,1	1,224593
4,815833	0,1	1,284448
4,817500	0,1	1,270234
4,819167	0,1	1,259746
4,820833	0,1	1,291995
4,822500	0,1	1,270013
4,824167	0,1	1,263968
4,825833	0,1	1,267847
4,827500	0,1	1,249025
4,829167	0,1	1,267211
4,830833	0,1	1,208114
4,832500	0,1	1,209919
4,834167	0,1	1,286316
4,835833	0,1	1,229848
4,837500	0,1	1,255565
4,839167	0,1	1,211787
4,840833	0,1	1,233710
4,842500	0,1	1,211082
4,844167	0,1	1,193209
4,845833	0,1	1,240463
4,847500	0,1	1,214691
4,849167	0,1	1,216473
4,850833	0,1	1,190624
4,852500	0,1	1,201016
4,854167	0,1	1,210003
4,855833	0,1	1,207503
4,857500	0,1	1,180873
4,859167	0,1	1,194393
4,860833	0,1	1,182197
4,862500	0,1	1,187367
4,864167	0,1	1,140082
4,865833	0,1	1,161475
4,867500	0,1	1,155305
4,869167	0,1	1,202131
4,870833	0,1	1,165369
4,872500	0,1	1,181525
4,874167	0,1	1,169909
4,875833	0,1	1,192775
4,877500	0,1	1,120822
4,879167	0,1	1,161470
4,880833	0,1	1,132249
4,882500	0,1	1,170986
4,884167	0,1	1,145848
4,885833	0,1	1,155828
4,887500	0,1	1,134391
4,889167	0,1	1,132003
4,890833	0,1	1,114238
4,892500	0,1	1,145847
4,894167	0,1	1,167757
4,895833	0,1	1,130379
4,897500	0,1	1,136392
4,899167	0,1	1,149017
4,900833	0,1	1,137641
4,902500	0,1	1,135938
4,904167	0,1	1,129964
4,905833	0,1	1,104442
4,907500	0,1	1,078577
4,909167	0,1	1,131023
4,910833	0,1	1,135610
4,912500	0,1	1,118618
4,914167	0,1	1,085365
4,915833	0,1	1,105010
4,917500	0,1	1,091574
4,919167	0,1	1,104906
4,920833	0,1	1,110680
4,922500	0,1	1,108095
4,924167	0,1	1,131541
4,925833	0,1	1,093452
4,927500	0,1	1,093974
4,929167	0,1	1,104040
4,930833	0,1	1,072200
4,932500	0,1	1,087263
4,934167	0,1	1,140944
4,935833	0,1	1,052082
4,937500	0,1	1,076336
4,939167	0,1	1,079642
4,940833	0,1	1,140603
4,942500	0,1	1,082261
4,944167	0,1	1,041590
4,945833	0,1	1,053013
4,947500	0,1	1,073258
4,949167	0,1	1,064347
4,950833	0,1	1,074130
4,952500	0,1	1,071479
4,954167	0,1	1,031138
4,955833	0,1	1,050851
4,957500	0,1	1,076045
4,959167	0,1	1,060895
4,960833	0,1	1,036530
4,962500	0,1	1,072049
4,964167	0,1	1,033987
4,965833	0,1	1,023951
4,967500	0,1	1,033618
4,969167	0,1	1,048312
4,970833	0,1	1,042268
4,972500	0,1	1,066126
4,974167	0,1	1,050434
4,975833	0,1	1,013277
4,977500	0,1	1,003352
4,979167	0,1	1,063347
4,980833	0,1	0,993244
4,982500	0,1	1,031625
4,984167	0,1	1,028362
4,985833	0,1	1,028806
4,987500	0,1	1,039369
4,989167	0,1	1,013875
4,990833	0,1	1,009102
4,992500	0,1	0,979059
4,994167	0,1	1,014283
4,995833	0,1	1,024345
4,997500	0,1	0,976363
4,999167	0,1	1,004453
5,000833	0,1	1,001007
5,002500	0,1	0,963076
5,004167	0,1	1,008866
5,005833	0,1	1,009901
5,007500	0,1	0,978010
5,009167	0,1	0,999552
5,010833	0,1	0,978587
5,012500	0,1	0,992375
5,014167	0,1	1,029799
5,015833	0,1	0,975474
5,017500	0,1	0,991351
5,019167	0,1	0,962515
5,020833	0,1	0,954887
5,022500	0,1	0,950096
5,024167	0,1	0,970173
5,025833	0,1	0,959770
5,027500	0,1	0,963867
5,029167	0,1	0,949184
5,030833	0,1	0,992570
5,032500	0,1	0,983042
5,034167	0,1	0,922893
5,035833	0,1	0,936316
5,037500	0,1	0,952363
5,039167	0,1	0,955487
5,040833	0,1	0,928456
5,042500	0,1	0,948128
5,044167	0,1	0,967966
5,045833	0,1	0,971960
5,047500	0,1	0,923357
5,049167	0,1	0,924283
5,050833	0,1	0,930588
5,052500	0,1	0,900242
5,054167	0,1	0,914651
5,055833	0,1	0,940346
5,057500	0,1	0,942469
5,059167	0,1	0,882194
5,060833	0,1	0,899114
5,062500	0,1	0,928979
5,064167	0,1	0,960316
5,065833	0,1	0,926964
5,067500	0,1	0,925664
5,069167	0,1	0,920048
5,070833	0,1	0,913631
5,072500	0,1	0,900304
5,074167	0,1	0,903866
5,075833	0,1	0,880671
5,077500	0,1	0,870415
5,079167	0,1	0,914644
5,080833	0,1	0,885509
5,082500	0,1	0,899048
5,084167	0,1	0,876593
5,085833	0,1	0,904440
5,087500	0,1	0,888871
5,089167	0,1	0,863576
5,090833	0,1	0,867918
5,092500	0,1	0,893365
5,094167	0,1	0,895397
5,095833	0,1	0,903641
5,097500	0,1	0,845621
5,099167	0,1	0,914749
5,100833	0,1	0,849415
5,102500	0,1	0,887187
5,104167	0,1	0,877282
5,105833	0,1	0,862173
5,107500	0,1	0,844857
5,109167	0,1	0,820700
5,110833	0,1	0,852401
5,112500	0,1	0,829663
5,114167	0,1	0,844226
5,115833	0,1	0,841736
5,117500	0,1	0,850623
5,119167	0,1	0,854948
5,120833	0,1	0,806671
5,122500	0,1	0,827821
5,124167	0,1	0,841485
5,125833	0,1	0,813062
5,127500	0,1	0,838898
5,129167	0,1	0,802384
5,130833	0,1	0,853556
5,132500	0,1	0,842740
5,134167	0,1	0,817625
5,135833	0,1	0,819070
5,137500	0,1	0,800003
5,139167	0,1	0,848941
5,140833	0,1	0,807829
5,142500	0,1	0,825883
5,144167	0,1	0,808758
5,145833	0,1	0,826197
5,147500	0,1	0,809430
5,149167	0,1	0,784073
5,150833	0,1	0,772282
5,152500	0,1	0,844145
5,154167	0,1	0,759194
5,155833	0,1	0,766015
5,157500	0,1	0,791102
5,159167	0,1	0,732971
5,160833	0,1	0,778240
5,162500	0,1	0,773192
5,164167	0,1	0,770564
5,165833	0,1	0,750265
5,167500	0,1	0,752381
5,169167	0,1	0,759025
5,170833	0,1	0,729998
5,172500	0,1	0,748144
5,174167	0,1	0,765721
5,175833	0,1	0,722672
5,177500	0,1	0,747670
5,179167	0,1	0,739594
5,180833	0,1	0,733025
5,182500	0,1	0,742424
5,184167	0,1	0,740725
5,185833	0,1	0,739512
5,187500	0,1	0,698648
5,189167	0,1	0,708446
5,190833	0,1	0,713706
5,192500	0,1	0,711798
5,194167	0,1	0,763775
5,195833	0,1	0,770033
5,197500	0,1	0,728063
5,199167	0,1	0,708783
5,200833	0,1	0,728604
5,202500	0,1	0,676805
5,204167	0,1	0,749068
5,205833	0,1	0,708233
5,207500	0,1	0,699208
5,209167	0,1	0,669851
5,210833	0,1	0,715214
5,212500	0,1	0,682866
5,214167	0,1	0,659591
5,215833	0,1	0,691866
5,217500	0,1	0,686641
5,219167	0,1	0,675821
5,220833	0,1	0,657061
5,222500	0,1	0,700870
5,224167	0,1	0,674018
5,225833	0,1	0,678887
5,227500	0,1	0,702522
5,229167	0,1	0,665108
5,230833	0,1	0,697392
5,232500	0,1	0,674372
5,234167	0,1	0,693413
5,235833	0,1	0,680869
5,237500	0,1	0,662388
5,239167	0,1	0,694451
5,240833	0,1	0,670616
5,242500	0,1	0,625088
5,244167	0,1	0,628951
5,245833	0,1	0,676255
5,247500	0,1	0,629291
5,249167	0,1	0,633128
5,250833	0,1	0,668189
5,252500	0,1	0,709335
5,254167	0,1	0,625163
5,255833	0,1	0,634249
5,257500	0,1	0,621047
5,259167	0,1	0,612265
5,260833	0,1	0,629053
5,262500	0,1	0,632565
5,264167	0,1	0,664708
5,265833	0,1	0,634324
5,267500	0,1	0,643161
5,269167	0,1	0,620019
5,270833	0,1	0,637571
5,272500	0,1	0,601131
5,274167	0,1	0,607478
5,275833	0,1	0,613675
5,277500	0,1	0,653583
5,279167	0,1	0,631158
5,280833	0,1	0,636702
5,282500	0,1	0,623948
5,284167	0,1	0,624657
5,285833	0,1	0,594177
5,287500	0,1	0,585326
5,289167	0,1	0,604526
5,290833	0,1	0,615031
5,292500	0,1	0,605610
5,294167	0,1	0,591110
5,295833	0,1	0,645248
5,297500	0,1	0,591664
5,299167	0,1	0,599501
5,300833	0,1	0,610284
5,302500	0,1	0,557116
5,304167	0,1	0,598454
5,305833	0,1	0,611605
5,307500	0,1	0,570994
5,309167	0,1	0,577019
5,310833	0,1	0,557201
5,312500	0,1	0,585774
5,314167	0,1	0,560242
5,315833	0,1	0,574180
5,317500	0,1	0,576447
5,319167	0,1	0,541640
5,320833	0,1	0,605657
5,322500	0,1	0,600207
5,324167	0,1	0,591784
5,325833	0,1	0,561724
5,327500	0,1	0,565563
5,329167	0,1	0,546613
5,330833	0,1	0,578342
5,332500	0,1	0,581737
5,334167	0,1	0,547685
5,335833	0,1	0,550737
5,337500	0,1	0,554481
5,339167	0,1	0,557326
5,340833	0,1	0,514751
5,342500	0,1	0,552443
5,344167	0,1	0,533372
5,345833	0,1	0,563843
5,347500	0,1	0,548906
5,349167	0,1	0,524913
5,350833	0,1	0,548090
5,352500	0,1	0,555322
5,354167	0,1	0,542383
5,355833	0,1	0,553291
5,357500	0,1	0,519009
5,359167	0,1	0,530461
5,360833	0,1	0,541666
5,362500	0,1	0,547160
5,364167	0,1	0,541763
5,365833	0,1	0,481953
5,367500	0,1	0,514023
5,369167	0,1	0,512804
5,370833	0,1	0,504184
5,372500	0,1	0,496272
5,374167	0,1	0,549564
5,375833	0,1	0,516361
5,377500	0,1	0,484464
5,379167	0,1	0,496106
5,380833	0,1	0,500339
5,382500	0,1	0,487072
5,384167	0,1	0,516505
5,385833	0,1	0,498245
5,387500	0,1	0,489718
5,389167	0,1	0,488750
5,390833	0,1	0,502919
5,392500	0,1	0,501696
5,394167	0,1	0,497336
5,395833	0,1	0,527933
5,397500	0,1	0,498990
5,399167	0,1	0,520316
5,400833	0,1	0,482589
5,402500	0,1	0,504529
5,404167	0,1	0,455053
5,405833	0,1	0,462435
5,407500	0,1	0,473603
5,409167	0,1	0,474865
5,410833	0,1	0,502591
5,412500	0,1	0,454212
5,414167	0,1	0,465758
5,415833	0,1	0,475994
5,417500	0,1	0,466249
5,419167	0,1	0,438813
5,420833	0,1	0,464074
5,422500	0,1	0,440778
5,424167	0,1	0,464463
5,425833	0,1	0,407054
5,427500	0,1	0,477207
5,429167	0,1	0,469279
5,430833	0,1	0,472573
5,432500	0,1	0,445140
5,434167	0,1	0,465853
5,435833	0,1	0,473279
5,437500	0,1	0,482608
5,439167	0,1	0,452824
5,440833	0,1	0,458784
5,442500	0,1	0,459401
5,444167	0,1	0,449008
5,445833	0,1	0,481830
5,447500	0,1	0,450177
5,449167	0,1	0,444841
5,450833	0,1	0,423380
5,452500	0,1	0,470460
5,454167	0,1	0,452109
5,455833	0,1	0,451232
5,457500	0,1	0,454716
5,459167	0,1	0,422380
5,460833	0,1	0,455648
5,462500	0,1	0,459624
5,464167	0,1	0,415379
5,465833	0,1	0,420532
5,467500	0,1	0,410594
5,469167	0,1	0,410558
5,470833	0,1	0,427890
5,472500	0,1	0,406367
5,474167	0,1	0,468101
5,475833	0,1	0,442136
5,477500	0,1	0,471016
5,479167	0,1	0,412315
5,480833	0,1	0,461809
5,482500	0,1	0,392725
5,484167	0,1	0,407133
5,485833	0,1	0,408169
5,487500	0,1	0,426500
5,489167	0,1	0,420243
5,490833	0,1	0,414691
5,492500	0,1	0,412366
5,494167	0,1	0,381160
5,495833	0,1	0,433110
5,497500	0,1	0,420890
5,499167	0,1	0,357831
5,500833	0,1	0,359557
5,502500	0,1	0,400059
5,504167	0,1	0,410008
5,505833	0,1	0,409654
5,507500	0,1	0,397455
5,509167	0,1	0,408295
5,510833	0,1	0,393389
5,512500	0,1	0,419688
5,514167	0,1	0,397169
5,515833	0,1	0,446249
5,517500	0,1	0,427929
5,519167	0,1	0,384359
5,520833	0,1	0,395577
5,522500	0,1	0,420980
5,524167	0,1	0,389618
5,525833	0,1	0,430402
5,527500	0,1	0,406690
5,529167	0,1	0,405329
5,530833	0,1	0,423951
5,532500	0,1	0,373740
5,534167	0,1	0,384603
5,535833	0,1	0,382282
5,537500	0,1	0,393351
5,539167	0,1	0,391191
5,540833	0,1	0,423010
5,542500	0,1	0,419824
5,544167	0,1	0,415628
5,545833	0,1	0,345860
5,547500	0,1	0,425614
5,549167	0,1	0,373226
5,550833	0,1	0,394542
5,552500	0,1	0,392515
5,554167	0,1	0,417395
5,555833	0,1	0,348086
5,557500	0,1	0,370721
5,559167	0,1	0,410517
5,560833	0,1	0,412786
5,562500	0,1	0,357572
5,564167	0,1	0,397347
5,565833	0,1	0,375478
5,567500	0,1	0,375924
5,569167	0,1	0,402933
5,570833	0,1	0,382256
5,572500	0,1	0,407259
5,574167	0,1	0,352762
5,575833	0,1	0,310381
5,577500	0,1	0,391205
5,579167	0,1	0,386027
5,580833	0,1	0,333980
5,582500	0,1	0,381142
5,584167	0,1	0,413553
5,585833	0,1	0,328529
5,587500	0,1	0,331414
5,589167	0,1	0,348258
5,590833	0,1	0,322352
5,592500	0,1	0,377074
5,594167	0,1	0,351142
5,595833	0,1	0,377403
5,597500	0,1	0,367728
5,599167	0,1	0,351041
5,600833	0,1	0,384438
5,602500	0,1	0,348627
5,604167	0,1	0,422225
5,605833	0,1	0,342570
5,607500	0,1	0,403475
5,609167	0,1	0,399037
5,610833	0,1	0,353857
5,612500	0,1	0,344423
5,614167	0,1	0,384403
5,615833	0,1	0,379670
5,617500	0,1	0,358308
5,619167	0,1	0,394345
5,620833	0,1	0,370700
5,622500	0,1	0,391250
5,624167	0,1	0,355406
5,625833	0,1	0,317255
5,627500	0,1	0,366970
5,629167	0,1	0,355365
5,630833	0,1	0,398767
5,632500	0,1	0,366537
5,634167	0,1	0,382054
5,635833	0,1	0,385220
5,637500	0,1	0,342077
5,639167	0,1	0,354780
5,640833	0,1	0,342361
5,642500	0,1	0,368331
5,644167	0,1	0,360335
5,645833	0,1	0,354041
5,647500	0,1	0,351233
5,649167	0,1	0,370691
5,650833	0,1	0,368181
5,652500	0,1	0,333616
5,654167	0,1	0,367073
5,655833	0,1	0,384731
5,657500	0,1	0,379959
5,659167	0,1	0,347980
5,660833	0,1	0,346617
5,662500	0,1	0,383146
5,664167	0,1	0,367372
5,665833	0,1	0,348494
5,667500	0,1	0,361332
5,669167	0,1	0,333328
5,670833	0,1	0,399730
5,672500	0,1	0,363634
5,674167	0,1	0,351235
5,675833	0,1	0,361815
5,677500	0,1	0,364755
5,679167	0,1	0,374631
5,680833	0,1	0,364179
5,682500	0,1	0,370467
5,684167	0,1	0,370825
5,685833	0,1	0,361820
5,687500	0,1	0,383472
5,689167	0,1	0,384993
5,690833	0,1	0,353339
5,692500	0,1	0,370692
5,694167	0,1	0,373889
5,695833	0,1	0,359756
5,697500	0,1	0,385632
5,699167	0,1	0,367826
5,700833	0,1	0,370824
5,702500	0,1	0,357982
5,704167	0,1	0,378532
5,705833	0,1	0,384251
5,707500	0,1	0,367473
5,709167	0,1	0,394541
5,710833	0,1	0,386836
5,712500	0,1	0,352079
5,714167	0,1	0,353233
5,715833	0,1	0,389149
5,717500	0,1	0,383962
5,719167	0,1	0,373216
5,720833	0,1	0,385635
5,722500	0,1	0,362855
5,724167	0,1	0,392831
5,725833	0,1	0,402679
5,727500	0,1	0,359538
5,729167	0,1	0,373629
5,730833	0,1	0,359465
5,732500	0,1	0,359658
5,734167	0,1	0,375920
5,735833	0,1	0,364049
5,737500	0,1	0,371758
5,739167	0,1	0,357401
5,740833	0,1	0,393312
5,742500	0,1	0,350115
5,744167	0,1	0,403637
5,745833	0,1	0,380609
5,747500	0,1	0,409260
5,749167	0,1	0,398230
5,750833	0,1	0,384061
5,752500	0,1	0,363663
5,754167	0,1	0,382923
5,755833	0,1	0,318167
5,757500	0,1	0,365907
5,759167	0,1	0,395349
5,760833	0,1	0,379802
5,762500	0,1	0,394449
5,764167	0,1	0,370121
5,765833	0,1	0,385733
5,767500	0,1	0,388512
5,769167	0,1	0,362180
5,770833	0,1	0,389183
5,772500	0,1	0,375958
5,774167	0,1	0,374763
5,775833	0,1	0,372698
5,777500	0,1	0,367307
5,779167	0,1	0,384635
5,780833	0,1	0,416683
5,782500	0,1	0,399071
5,784167	0,1	0,364248
5,785833	0,1	0,416906
5,787500	0,1	0,410301
5,789167	0,1	0,359893
5,790833	0,1	0,369497
5,792500	0,1	0,352398
5,794167	0,1	0,375240
5,795833	0,1	0,387542
5,797500	0,1	0,435401
5,799167	0,1	0,389717
5,800833	0,1	0,396353
5,802500	0,1	0,359632
5,804167	0,1	0,361236
5,805833	0,1	0,376856
5,807500	0,1	0,383313
5,809167	0,1	0,360760
5,810833	0,1	0,371112
5,812500	0,1	0,374697
5,814167	0,1	0,365275
5,815833	0,1	0,389152
5,817500	0,1	0,394998
5,819167	0,1	0,399905
5,820833	0,1	0,397389
5,822500	0,1	0,379898
5,824167	0,1	0,378378
5,825833	0,1	0,407485
5,827500	0,1	0,383418
5,829167	0,1	0,369117
5,830833	0,1	0,372404
5,832500	0,1	0,394090
5,834167	0,1	0,376283
5,835833	0,1	0,353691
5,837500	0,1	0,377757
5,839167	0,1	0,343494
5,840833	0,1	0,378756
5,842500	0,1	0,332588
5,844167	0,1	0,359585
5,845833	0,1	0,342780
5,847500	0,1	0,355359
5,849167	0,1	0,354136
5,850833	0,1	0,357107
5,852500	0,1	0,321580
5,854167	0,1	0,313311
5,855833	0,1	0,326347
5,857500	0,1	0,393855
5,859167	0,1	0,366279
5,860833	0,1	0,348333
5,862500	0,1	0,368560
5,864167	0,1	0,349560
5,865833	0,1	0,372304
5,867500	0,1	0,367114
5,869167	0,1	0,394476
5,870833	0,1	0,399388
5,872500	0,1	0,361827
5,874167	0,1	0,351299
5,875833	0,1	0,352718
5,877500	0,1	0,363301
5,879167	0,1	0,352204
5,880833	0,1	0,343295
5,882500	0,1	0,351747
5,884167	0,1	0,366334
5,885833	0,1	0,327680
5,887500	0,1	0,342869
5,889167	0,1	0,333228
5,890833	0,1	0,340549
5,892500	0,1	0,369979
5,894167	0,1	0,335427
5,895833	0,1	0,322577
5,897500	0,1	0,355743
5,899167	0,1	0,359687
5,900833	0,1	0,351815
5,902500	0,1	0,306056
5,904167	0,1	0,364808
5,905833	0,1	0,359595
5,907500	0,1	0,336102
5,909167	0,1	0,353844
5,910833	0,1	0,344233
5,912500	0,1	0,341293
5,914167	0,1	0,333099
5,915833	0,1	0,294377
5,917500	0,1	0,359867
5,919167	0,1	0,324226
5,920833	0,1	0,294667
5,922500	0,1	0,309273
5,924167	0,1	0,347481
5,925833	0,1	0,325354
5,927500	0,1	0,317152
5,929167	0,1	0,285242
5,930833	0,1	0,284105
5,932500	0,1	0,328372
5,934167	0,1	0,290988
5,935833	0,1	0,296755
5,937500	0,1	0,292788
5,939167	0,1	0,316987
5,940833	0,1	0,280823
5,942500	0,1	0,313979
5,944167	0,1	0,287402
5,945833	0,1	0,340115
5,947500	0,1	0,331452
5,949167	0,1	0,330676
5,950833	0,1	0,314607
5,952500	0,1	0,341835
5,954167	0,1	0,324871
5,955833	0,1	0,323448
5,957500	0,1	0,330802
5,959167	0,1	0,269404
5,960833	0,1	0,340244
5,962500	0,1	0,278411
5,964167	0,1	0,301497
5,965833	0,1	0,296113
5,967500	0,1	0,315309
5,969167	0,1	0,308604
5,970833	0,1	0,275561
5,972500	0,1	0,319628
5,974167	0,1	0,347063
5,975833	0,1	0,326516
5,977500	0,1	0,314443
5,979167	0,1	0,309795
5,980833	0,1	0,287501
5,982500	0,1	0,314337
5,984167	0,1	0,287113
5,985833	0,1	0,340053
5,987500	0,1	0,306190
5,989167	0,1	0,282402
5,990833	0,1	0,289976
5,992500	0,1	0,274336
5,994167	0,1	0,314238
5,995833	0,1	0,324928
5,997500	0,1	0,276019
5,999167	0,1	0,279906
6,000833	0,1	0,333984
