File Path	chrom://chromeleon01/ikbm_chromeleon/2022/Rezex/Esteban/220612_chitin_4_7.seq/719.smp/UV_VIS_1.channel/UV_VIS_1.chm
Channel	UV_VIS_1

Injection Information:
Data Vault	ikbm_chromeleon
Injection	Sc10D_24h-ChiBI_2
Injection Number	48
Position	GA3
Comment	
Processing Method	New ProcMethod
Instrument Method	Short_Rezex_6min_194nm
Type	Unknown
Status	Finished
Injection Date	12.06.2022
Injection Time	22:18:35
Injection Volume (µl)	8,000
Dilution Factor	1,0000
Weight	1,0000

Chromatogram Data Information:
Time Min. (min)	0,000833
Time Max. (min)	6,000833
Data Points	3601
Detector	UV
Generating Data System	Chromeleon 7.2.9.11323
Exporting Data System	Chromeleon 7.2.9.0
Operator	Instrument Controller
Signal Quantity	Absorbance
Signal Unit	mAU
Signal Min.	-0,056678
Signal Max.	443,340716
Channel	UV_VIS_1
Driver Name	VWD3000.dll
Channel Type	Evaluation
Min. Step (s)	0,1
Max. Step (s)	0,1
Average Step (s)	0,1

Signal Parameter Information:
Signal Info	WVL:194 nm

Chromatogram Data:
Time (min)	Step (s)	Value (mAU)
0,000833	n.a.	-0,005621
0,002500	0,1	0,056193
0,004167	0,1	0,024334
0,005833	0,1	0,044997
0,007500	0,1	-0,005480
0,009167	0,1	0,004197
0,010833	0,1	0,007676
0,012500	0,1	0,043673
0,014167	0,1	-0,003132
0,015833	0,1	0,043926
0,017500	0,1	0,033829
0,019167	0,1	0,035534
0,020833	0,1	0,043970
0,022500	0,1	0,015992
0,024167	0,1	0,034145
0,025833	0,1	0,015959
0,027500	0,1	-0,016884
0,029167	0,1	0,013659
0,030833	0,1	-0,021328
0,032500	0,1	0,000394
0,034167	0,1	-0,040938
0,035833	0,1	0,001582
0,037500	0,1	-0,056678
0,039167	0,1	-0,054085
0,040833	0,1	-0,006761
0,042500	0,1	-0,017052
0,044167	0,1	-0,016990
0,045833	0,1	0,001683
0,047500	0,1	-0,001627
0,049167	0,1	0,004039
0,050833	0,1	0,011444
0,052500	0,1	0,012508
0,054167	0,1	0,018754
0,055833	0,1	0,022490
0,057500	0,1	0,002499
0,059167	0,1	0,029860
0,060833	0,1	0,051341
0,062500	0,1	0,054536
0,064167	0,1	0,045230
0,065833	0,1	0,025813
0,067500	0,1	0,025905
0,069167	0,1	0,029866
0,070833	0,1	0,001887
0,072500	0,1	0,041804
0,074167	0,1	0,063515
0,075833	0,1	0,034283
0,077500	0,1	-0,015754
0,079167	0,1	0,016107
0,080833	0,1	0,035982
0,082500	0,1	0,015638
0,084167	0,1	0,083763
0,085833	0,1	0,039504
0,087500	0,1	0,018729
0,089167	0,1	0,047766
0,090833	0,1	0,100391
0,092500	0,1	0,035938
0,094167	0,1	0,077393
0,095833	0,1	0,039438
0,097500	0,1	0,028967
0,099167	0,1	0,036823
0,100833	0,1	0,078131
0,102500	0,1	0,031875
0,104167	0,1	0,051374
0,105833	0,1	0,034767
0,107500	0,1	0,076619
0,109167	0,1	0,040470
0,110833	0,1	-0,016976
0,112500	0,1	0,008091
0,114167	0,1	0,039264
0,115833	0,1	0,058812
0,117500	0,1	0,031033
0,119167	0,1	0,002531
0,120833	0,1	0,048341
0,122500	0,1	0,044488
0,124167	0,1	0,034795
0,125833	0,1	0,007491
0,127500	0,1	0,029764
0,129167	0,1	0,076262
0,130833	0,1	0,055766
0,132500	0,1	0,042752
0,134167	0,1	0,032155
0,135833	0,1	0,079742
0,137500	0,1	0,032164
0,139167	0,1	0,028836
0,140833	0,1	0,059233
0,142500	0,1	0,056020
0,144167	0,1	0,033480
0,145833	0,1	0,044808
0,147500	0,1	0,112910
0,149167	0,1	0,046694
0,150833	0,1	0,071503
0,152500	0,1	0,054347
0,154167	0,1	0,073339
0,155833	0,1	0,072764
0,157500	0,1	0,093952
0,159167	0,1	0,097915
0,160833	0,1	0,062984
0,162500	0,1	0,018058
0,164167	0,1	0,069725
0,165833	0,1	0,087640
0,167500	0,1	0,056604
0,169167	0,1	0,065065
0,170833	0,1	0,112336
0,172500	0,1	0,035361
0,174167	0,1	0,050798
0,175833	0,1	0,062520
0,177500	0,1	0,103963
0,179167	0,1	0,048109
0,180833	0,1	0,053956
0,182500	0,1	0,067511
0,184167	0,1	0,067935
0,185833	0,1	0,058499
0,187500	0,1	0,064774
0,189167	0,1	0,060686
0,190833	0,1	0,069060
0,192500	0,1	0,054091
0,194167	0,1	0,057175
0,195833	0,1	0,075016
0,197500	0,1	0,104160
0,199167	0,1	0,075607
0,200833	0,1	0,086228
0,202500	0,1	0,045917
0,204167	0,1	0,069826
0,205833	0,1	0,102458
0,207500	0,1	0,067458
0,209167	0,1	0,051320
0,210833	0,1	0,113107
0,212500	0,1	0,073451
0,214167	0,1	0,055089
0,215833	0,1	0,070796
0,217500	0,1	0,099651
0,219167	0,1	0,090288
0,220833	0,1	0,105133
0,222500	0,1	0,112216
0,224167	0,1	0,106356
0,225833	0,1	0,072805
0,227500	0,1	0,068454
0,229167	0,1	0,090605
0,230833	0,1	0,058119
0,232500	0,1	0,081906
0,234167	0,1	0,092670
0,235833	0,1	0,084973
0,237500	0,1	0,065039
0,239167	0,1	0,089216
0,240833	0,1	0,066555
0,242500	0,1	0,085776
0,244167	0,1	0,081816
0,245833	0,1	0,074054
0,247500	0,1	0,057215
0,249167	0,1	0,100097
0,250833	0,1	0,070422
0,252500	0,1	0,064357
0,254167	0,1	0,092082
0,255833	0,1	0,082303
0,257500	0,1	0,093569
0,259167	0,1	0,089611
0,260833	0,1	0,071193
0,262500	0,1	0,068385
0,264167	0,1	0,064683
0,265833	0,1	0,114522
0,267500	0,1	0,113961
0,269167	0,1	0,095218
0,270833	0,1	0,098530
0,272500	0,1	0,102909
0,274167	0,1	0,093384
0,275833	0,1	0,110766
0,277500	0,1	0,070330
0,279167	0,1	0,069738
0,280833	0,1	0,134105
0,282500	0,1	0,088045
0,284167	0,1	0,092381
0,285833	0,1	0,109512
0,287500	0,1	0,109807
0,289167	0,1	0,075961
0,290833	0,1	0,121652
0,292500	0,1	0,118827
0,294167	0,1	0,100148
0,295833	0,1	0,137014
0,297500	0,1	0,111296
0,299167	0,1	0,127327
0,300833	0,1	0,082924
0,302500	0,1	0,092670
0,304167	0,1	0,124196
0,305833	0,1	0,079285
0,307500	0,1	0,109799
0,309167	0,1	0,095703
0,310833	0,1	0,093217
0,312500	0,1	0,135631
0,314167	0,1	0,099671
0,315833	0,1	0,098305
0,317500	0,1	0,103782
0,319167	0,1	0,104972
0,320833	0,1	0,113504
0,322500	0,1	0,170316
0,324167	0,1	0,167139
0,325833	0,1	0,147459
0,327500	0,1	0,128299
0,329167	0,1	0,147385
0,330833	0,1	0,136772
0,332500	0,1	0,123373
0,334167	0,1	0,110324
0,335833	0,1	0,125135
0,337500	0,1	0,129907
0,339167	0,1	0,143304
0,340833	0,1	0,121603
0,342500	0,1	0,099055
0,344167	0,1	0,142783
0,345833	0,1	0,129462
0,347500	0,1	0,164783
0,349167	0,1	0,137060
0,350833	0,1	0,140990
0,352500	0,1	0,162854
0,354167	0,1	0,162540
0,355833	0,1	0,146307
0,357500	0,1	0,170745
0,359167	0,1	0,140803
0,360833	0,1	0,103148
0,362500	0,1	0,133280
0,364167	0,1	0,136344
0,365833	0,1	0,154935
0,367500	0,1	0,133423
0,369167	0,1	0,195733
0,370833	0,1	0,183675
0,372500	0,1	0,154932
0,374167	0,1	0,159283
0,375833	0,1	0,121511
0,377500	0,1	0,186142
0,379167	0,1	0,143838
0,380833	0,1	0,131937
0,382500	0,1	0,163047
0,384167	0,1	0,145858
0,385833	0,1	0,170005
0,387500	0,1	0,167370
0,389167	0,1	0,184408
0,390833	0,1	0,182384
0,392500	0,1	0,168952
0,394167	0,1	0,169527
0,395833	0,1	0,147308
0,397500	0,1	0,173843
0,399167	0,1	0,157485
0,400833	0,1	0,163539
0,402500	0,1	0,174100
0,404167	0,1	0,186024
0,405833	0,1	0,155265
0,407500	0,1	0,140898
0,409167	0,1	0,204436
0,410833	0,1	0,152823
0,412500	0,1	0,219573
0,414167	0,1	0,178462
0,415833	0,1	0,216460
0,417500	0,1	0,169835
0,419167	0,1	0,190589
0,420833	0,1	0,171082
0,422500	0,1	0,221546
0,424167	0,1	0,203877
0,425833	0,1	0,202845
0,427500	0,1	0,205066
0,429167	0,1	0,200391
0,430833	0,1	0,188542
0,432500	0,1	0,196753
0,434167	0,1	0,166451
0,435833	0,1	0,191081
0,437500	0,1	0,191638
0,439167	0,1	0,231702
0,440833	0,1	0,197016
0,442500	0,1	0,193721
0,444167	0,1	0,229704
0,445833	0,1	0,173741
0,447500	0,1	0,240138
0,449167	0,1	0,156957
0,450833	0,1	0,210078
0,452500	0,1	0,216114
0,454167	0,1	0,189255
0,455833	0,1	0,192113
0,457500	0,1	0,215623
0,459167	0,1	0,222744
0,460833	0,1	0,233194
0,462500	0,1	0,221561
0,464167	0,1	0,233351
0,465833	0,1	0,218435
0,467500	0,1	0,238599
0,469167	0,1	0,226847
0,470833	0,1	0,254482
0,472500	0,1	0,223041
0,474167	0,1	0,212026
0,475833	0,1	0,222593
0,477500	0,1	0,217209
0,479167	0,1	0,206714
0,480833	0,1	0,219557
0,482500	0,1	0,204716
0,484167	0,1	0,211734
0,485833	0,1	0,257820
0,487500	0,1	0,214006
0,489167	0,1	0,280436
0,490833	0,1	0,276692
0,492500	0,1	0,234205
0,494167	0,1	0,249712
0,495833	0,1	0,222537
0,497500	0,1	0,255453
0,499167	0,1	0,218188
0,500833	0,1	0,226358
0,502500	0,1	0,250001
0,504167	0,1	0,264862
0,505833	0,1	0,272309
0,507500	0,1	0,242252
0,509167	0,1	0,234302
0,510833	0,1	0,287700
0,512500	0,1	0,276075
0,514167	0,1	0,251928
0,515833	0,1	0,252005
0,517500	0,1	0,292214
0,519167	0,1	0,254563
0,520833	0,1	0,276013
0,522500	0,1	0,303001
0,524167	0,1	0,277538
0,525833	0,1	0,258294
0,527500	0,1	0,260972
0,529167	0,1	0,307352
0,530833	0,1	0,305915
0,532500	0,1	0,313779
0,534167	0,1	0,294319
0,535833	0,1	0,271803
0,537500	0,1	0,276177
0,539167	0,1	0,288314
0,540833	0,1	0,290894
0,542500	0,1	0,242361
0,544167	0,1	0,311806
0,545833	0,1	0,289586
0,547500	0,1	0,290447
0,549167	0,1	0,331107
0,550833	0,1	0,337810
0,552500	0,1	0,284462
0,554167	0,1	0,318062
0,555833	0,1	0,299093
0,557500	0,1	0,377954
0,559167	0,1	0,315244
0,560833	0,1	0,293071
0,562500	0,1	0,333266
0,564167	0,1	0,309763
0,565833	0,1	0,337400
0,567500	0,1	0,332317
0,569167	0,1	0,323136
0,570833	0,1	0,357916
0,572500	0,1	0,308165
0,574167	0,1	0,315463
0,575833	0,1	0,355049
0,577500	0,1	0,345366
0,579167	0,1	0,333212
0,580833	0,1	0,329895
0,582500	0,1	0,352673
0,584167	0,1	0,371697
0,585833	0,1	0,414997
0,587500	0,1	0,376511
0,589167	0,1	0,387127
0,590833	0,1	0,366600
0,592500	0,1	0,361703
0,594167	0,1	0,383300
0,595833	0,1	0,364523
0,597500	0,1	0,349723
0,599167	0,1	0,373878
0,600833	0,1	0,422665
0,602500	0,1	0,421941
0,604167	0,1	0,383760
0,605833	0,1	0,404639
0,607500	0,1	0,367800
0,609167	0,1	0,409858
0,610833	0,1	0,417095
0,612500	0,1	0,397316
0,614167	0,1	0,406202
0,615833	0,1	0,416758
0,617500	0,1	0,412073
0,619167	0,1	0,410164
0,620833	0,1	0,402289
0,622500	0,1	0,401867
0,624167	0,1	0,387176
0,625833	0,1	0,386974
0,627500	0,1	0,410711
0,629167	0,1	0,447498
0,630833	0,1	0,434060
0,632500	0,1	0,443883
0,634167	0,1	0,408901
0,635833	0,1	0,446740
0,637500	0,1	0,413502
0,639167	0,1	0,463214
0,640833	0,1	0,440130
0,642500	0,1	0,463287
0,644167	0,1	0,441799
0,645833	0,1	0,474890
0,647500	0,1	0,480587
0,649167	0,1	0,467829
0,650833	0,1	0,499035
0,652500	0,1	0,411757
0,654167	0,1	0,458456
0,655833	0,1	0,493697
0,657500	0,1	0,490773
0,659167	0,1	0,490572
0,660833	0,1	0,487927
0,662500	0,1	0,478790
0,664167	0,1	0,514709
0,665833	0,1	0,507448
0,667500	0,1	0,450764
0,669167	0,1	0,497787
0,670833	0,1	0,461122
0,672500	0,1	0,542292
0,674167	0,1	0,533219
0,675833	0,1	0,494961
0,677500	0,1	0,533809
0,679167	0,1	0,525460
0,680833	0,1	0,557914
0,682500	0,1	0,540959
0,684167	0,1	0,568610
0,685833	0,1	0,551343
0,687500	0,1	0,540603
0,689167	0,1	0,494028
0,690833	0,1	0,536477
0,692500	0,1	0,552027
0,694167	0,1	0,578398
0,695833	0,1	0,543409
0,697500	0,1	0,561476
0,699167	0,1	0,571504
0,700833	0,1	0,524180
0,702500	0,1	0,582771
0,704167	0,1	0,600503
0,705833	0,1	0,600064
0,707500	0,1	0,596818
0,709167	0,1	0,560644
0,710833	0,1	0,604855
0,712500	0,1	0,619320
0,714167	0,1	0,624839
0,715833	0,1	0,646004
0,717500	0,1	0,618416
0,719167	0,1	0,659526
0,720833	0,1	0,616687
0,722500	0,1	0,634915
0,724167	0,1	0,628981
0,725833	0,1	0,694796
0,727500	0,1	0,684983
0,729167	0,1	0,700526
0,730833	0,1	0,645695
0,732500	0,1	0,638589
0,734167	0,1	0,704674
0,735833	0,1	0,705808
0,737500	0,1	0,646427
0,739167	0,1	0,707476
0,740833	0,1	0,679539
0,742500	0,1	0,694480
0,744167	0,1	0,702598
0,745833	0,1	0,738873
0,747500	0,1	0,723028
0,749167	0,1	0,730848
0,750833	0,1	0,691393
0,752500	0,1	0,734220
0,754167	0,1	0,717799
0,755833	0,1	0,730866
0,757500	0,1	0,722803
0,759167	0,1	0,741661
0,760833	0,1	0,704632
0,762500	0,1	0,737429
0,764167	0,1	0,722602
0,765833	0,1	0,726249
0,767500	0,1	0,771333
0,769167	0,1	0,739025
0,770833	0,1	0,734144
0,772500	0,1	0,751848
0,774167	0,1	0,778518
0,775833	0,1	0,741691
0,777500	0,1	0,763970
0,779167	0,1	0,717094
0,780833	0,1	0,793074
0,782500	0,1	0,746770
0,784167	0,1	0,766177
0,785833	0,1	0,816173
0,787500	0,1	0,816389
0,789167	0,1	0,779231
0,790833	0,1	0,820964
0,792500	0,1	0,792099
0,794167	0,1	0,760383
0,795833	0,1	0,792915
0,797500	0,1	0,783688
0,799167	0,1	0,803600
0,800833	0,1	0,773728
0,802500	0,1	0,810845
0,804167	0,1	0,813638
0,805833	0,1	0,813148
0,807500	0,1	0,857321
0,809167	0,1	0,830082
0,810833	0,1	0,772120
0,812500	0,1	0,838365
0,814167	0,1	0,866069
0,815833	0,1	0,868421
0,817500	0,1	0,873835
0,819167	0,1	0,804622
0,820833	0,1	0,854366
0,822500	0,1	0,817877
0,824167	0,1	0,846951
0,825833	0,1	0,859756
0,827500	0,1	0,862227
0,829167	0,1	0,851017
0,830833	0,1	0,877617
0,832500	0,1	0,875658
0,834167	0,1	0,863279
0,835833	0,1	0,863313
0,837500	0,1	0,871305
0,839167	0,1	0,900478
0,840833	0,1	0,890519
0,842500	0,1	0,945610
0,844167	0,1	0,935560
0,845833	0,1	0,908760
0,847500	0,1	0,916783
0,849167	0,1	0,923072
0,850833	0,1	0,900506
0,852500	0,1	0,947987
0,854167	0,1	0,931552
0,855833	0,1	0,937986
0,857500	0,1	0,942245
0,859167	0,1	0,983519
0,860833	0,1	0,930036
0,862500	0,1	0,950439
0,864167	0,1	0,963584
0,865833	0,1	0,996142
0,867500	0,1	0,976720
0,869167	0,1	1,009712
0,870833	0,1	0,967333
0,872500	0,1	0,985240
0,874167	0,1	1,025366
0,875833	0,1	1,015311
0,877500	0,1	1,042648
0,879167	0,1	0,997534
0,880833	0,1	1,026967
0,882500	0,1	1,007843
0,884167	0,1	1,026707
0,885833	0,1	1,071811
0,887500	0,1	1,055708
0,889167	0,1	1,053330
0,890833	0,1	1,062932
0,892500	0,1	1,035825
0,894167	0,1	1,071329
0,895833	0,1	1,066588
0,897500	0,1	1,105526
0,899167	0,1	1,058357
0,900833	0,1	1,068821
0,902500	0,1	1,100592
0,904167	0,1	1,133384
0,905833	0,1	1,114462
0,907500	0,1	1,111568
0,909167	0,1	1,136385
0,910833	0,1	1,146373
0,912500	0,1	1,102963
0,914167	0,1	1,136105
0,915833	0,1	1,124264
0,917500	0,1	1,118312
0,919167	0,1	1,136974
0,920833	0,1	1,138169
0,922500	0,1	1,164581
0,924167	0,1	1,129079
0,925833	0,1	1,161131
0,927500	0,1	1,158985
0,929167	0,1	1,174767
0,930833	0,1	1,191506
0,932500	0,1	1,199904
0,934167	0,1	1,243744
0,935833	0,1	1,211252
0,937500	0,1	1,252351
0,939167	0,1	1,242178
0,940833	0,1	1,229531
0,942500	0,1	1,261545
0,944167	0,1	1,238236
0,945833	0,1	1,287735
0,947500	0,1	1,275617
0,949167	0,1	1,268209
0,950833	0,1	1,285953
0,952500	0,1	1,293623
0,954167	0,1	1,309130
0,955833	0,1	1,292553
0,957500	0,1	1,317596
0,959167	0,1	1,315378
0,960833	0,1	1,315862
0,962500	0,1	1,324271
0,964167	0,1	1,309840
0,965833	0,1	1,368409
0,967500	0,1	1,394120
0,969167	0,1	1,390402
0,970833	0,1	1,377613
0,972500	0,1	1,369142
0,974167	0,1	1,393256
0,975833	0,1	1,396199
0,977500	0,1	1,384639
0,979167	0,1	1,419892
0,980833	0,1	1,425063
0,982500	0,1	1,448681
0,984167	0,1	1,445885
0,985833	0,1	1,509858
0,987500	0,1	1,488761
0,989167	0,1	1,518193
0,990833	0,1	1,490197
0,992500	0,1	1,483225
0,994167	0,1	1,549134
0,995833	0,1	1,549721
0,997500	0,1	1,535866
0,999167	0,1	1,550293
1,000833	0,1	1,566380
1,002500	0,1	1,561357
1,004167	0,1	1,622608
1,005833	0,1	1,600723
1,007500	0,1	1,602509
1,009167	0,1	1,627214
1,010833	0,1	1,681802
1,012500	0,1	1,645186
1,014167	0,1	1,666722
1,015833	0,1	1,691077
1,017500	0,1	1,747318
1,019167	0,1	1,725859
1,020833	0,1	1,761697
1,022500	0,1	1,751867
1,024167	0,1	1,788789
1,025833	0,1	1,765811
1,027500	0,1	1,790158
1,029167	0,1	1,833699
1,030833	0,1	1,812014
1,032500	0,1	1,861227
1,034167	0,1	1,841337
1,035833	0,1	1,899669
1,037500	0,1	1,917868
1,039167	0,1	1,924329
1,040833	0,1	1,941647
1,042500	0,1	1,932259
1,044167	0,1	1,947842
1,045833	0,1	1,942457
1,047500	0,1	1,992041
1,049167	0,1	1,972648
1,050833	0,1	2,030356
1,052500	0,1	2,054665
1,054167	0,1	2,091991
1,055833	0,1	2,129436
1,057500	0,1	2,212795
1,059167	0,1	2,254810
1,060833	0,1	2,363709
1,062500	0,1	2,481668
1,064167	0,1	2,662472
1,065833	0,1	2,866560
1,067500	0,1	3,116684
1,069167	0,1	3,447727
1,070833	0,1	3,824567
1,072500	0,1	4,384512
1,074167	0,1	5,029653
1,075833	0,1	5,748360
1,077500	0,1	6,655785
1,079167	0,1	7,654899
1,080833	0,1	8,891671
1,082500	0,1	10,201909
1,084167	0,1	11,670782
1,085833	0,1	13,357389
1,087500	0,1	15,151250
1,089167	0,1	17,067390
1,090833	0,1	19,092474
1,092500	0,1	21,174178
1,094167	0,1	23,348508
1,095833	0,1	25,435644
1,097500	0,1	27,617215
1,099167	0,1	29,673947
1,100833	0,1	31,679641
1,102500	0,1	33,554759
1,104167	0,1	35,339335
1,105833	0,1	36,914491
1,107500	0,1	38,336991
1,109167	0,1	39,600869
1,110833	0,1	40,574634
1,112500	0,1	41,398235
1,114167	0,1	42,030543
1,115833	0,1	42,492643
1,117500	0,1	42,703215
1,119167	0,1	42,720235
1,120833	0,1	42,602990
1,122500	0,1	42,266548
1,124167	0,1	41,907652
1,125833	0,1	41,305781
1,127500	0,1	40,619385
1,129167	0,1	39,869442
1,130833	0,1	38,989663
1,132500	0,1	38,052538
1,134167	0,1	37,095332
1,135833	0,1	36,080781
1,137500	0,1	35,005325
1,139167	0,1	33,952376
1,140833	0,1	32,925109
1,142500	0,1	31,897871
1,144167	0,1	30,824523
1,145833	0,1	29,795748
1,147500	0,1	28,860808
1,149167	0,1	27,964692
1,150833	0,1	27,056475
1,152500	0,1	26,192087
1,154167	0,1	25,444882
1,155833	0,1	24,732849
1,157500	0,1	24,000788
1,159167	0,1	23,398631
1,160833	0,1	22,822180
1,162500	0,1	22,302033
1,164167	0,1	21,769318
1,165833	0,1	21,368116
1,167500	0,1	20,883044
1,169167	0,1	20,531844
1,170833	0,1	20,165446
1,172500	0,1	19,836846
1,174167	0,1	19,502136
1,175833	0,1	19,192501
1,177500	0,1	18,951003
1,179167	0,1	18,678757
1,180833	0,1	18,506536
1,182500	0,1	18,254923
1,184167	0,1	18,143632
1,185833	0,1	17,985105
1,187500	0,1	17,927472
1,189167	0,1	17,841164
1,190833	0,1	17,879152
1,192500	0,1	17,919773
1,194167	0,1	18,065797
1,195833	0,1	18,391242
1,197500	0,1	18,857201
1,199167	0,1	19,401745
1,200833	0,1	20,104892
1,202500	0,1	21,112292
1,204167	0,1	22,262780
1,205833	0,1	23,683130
1,207500	0,1	25,405516
1,209167	0,1	27,377838
1,210833	0,1	29,645309
1,212500	0,1	32,310512
1,214167	0,1	35,188460
1,215833	0,1	38,367232
1,217500	0,1	41,825850
1,219167	0,1	45,607088
1,220833	0,1	49,675533
1,222500	0,1	53,979093
1,224167	0,1	58,400550
1,225833	0,1	62,986483
1,227500	0,1	67,675633
1,229167	0,1	72,467895
1,230833	0,1	77,238771
1,232500	0,1	81,983222
1,234167	0,1	86,671893
1,235833	0,1	91,191237
1,237500	0,1	95,558275
1,239167	0,1	99,718134
1,240833	0,1	103,666580
1,242500	0,1	107,375428
1,244167	0,1	110,724495
1,245833	0,1	113,837381
1,247500	0,1	116,604905
1,249167	0,1	119,067252
1,250833	0,1	121,168166
1,252500	0,1	123,001379
1,254167	0,1	124,492472
1,255833	0,1	125,637711
1,257500	0,1	126,472440
1,259167	0,1	127,061493
1,260833	0,1	127,263043
1,262500	0,1	127,118983
1,264167	0,1	126,756915
1,265833	0,1	126,124321
1,267500	0,1	125,234870
1,269167	0,1	124,028880
1,270833	0,1	122,676952
1,272500	0,1	121,038271
1,274167	0,1	119,270887
1,275833	0,1	117,342530
1,277500	0,1	115,242172
1,279167	0,1	112,914155
1,280833	0,1	110,615643
1,282500	0,1	108,072313
1,284167	0,1	105,528412
1,285833	0,1	102,928886
1,287500	0,1	100,235104
1,289167	0,1	97,542687
1,290833	0,1	94,835739
1,292500	0,1	92,127104
1,294167	0,1	89,496285
1,295833	0,1	86,824810
1,297500	0,1	84,207719
1,299167	0,1	81,658854
1,300833	0,1	79,150023
1,302500	0,1	76,704648
1,304167	0,1	74,354543
1,305833	0,1	72,095324
1,307500	0,1	69,877508
1,309167	0,1	67,729706
1,310833	0,1	65,625957
1,312500	0,1	63,669139
1,314167	0,1	61,784216
1,315833	0,1	60,004499
1,317500	0,1	58,234934
1,319167	0,1	56,592684
1,320833	0,1	54,983823
1,322500	0,1	53,455037
1,324167	0,1	51,991908
1,325833	0,1	50,573375
1,327500	0,1	49,251420
1,329167	0,1	47,977128
1,330833	0,1	46,744509
1,332500	0,1	45,560138
1,334167	0,1	44,420286
1,335833	0,1	43,316721
1,337500	0,1	42,257081
1,339167	0,1	41,258708
1,340833	0,1	40,271548
1,342500	0,1	39,344733
1,344167	0,1	38,416623
1,345833	0,1	37,526238
1,347500	0,1	36,714554
1,349167	0,1	35,844972
1,350833	0,1	35,057589
1,352500	0,1	34,274686
1,354167	0,1	33,522451
1,355833	0,1	32,823272
1,357500	0,1	32,105792
1,359167	0,1	31,422049
1,360833	0,1	30,726953
1,362500	0,1	30,087542
1,364167	0,1	29,417193
1,365833	0,1	28,836585
1,367500	0,1	28,243749
1,369167	0,1	27,632627
1,370833	0,1	27,072729
1,372500	0,1	26,482066
1,374167	0,1	25,983812
1,375833	0,1	25,401099
1,377500	0,1	24,939571
1,379167	0,1	24,442905
1,380833	0,1	23,900256
1,382500	0,1	23,492889
1,384167	0,1	23,004037
1,385833	0,1	22,557482
1,387500	0,1	22,102434
1,389167	0,1	21,728347
1,390833	0,1	21,329594
1,392500	0,1	20,939865
1,394167	0,1	20,574433
1,395833	0,1	20,222639
1,397500	0,1	19,879584
1,399167	0,1	19,529606
1,400833	0,1	19,205687
1,402500	0,1	18,916244
1,404167	0,1	18,634908
1,405833	0,1	18,350781
1,407500	0,1	18,083732
1,409167	0,1	17,801765
1,410833	0,1	17,552598
1,412500	0,1	17,327279
1,414167	0,1	17,121839
1,415833	0,1	16,876614
1,417500	0,1	16,644161
1,419167	0,1	16,438016
1,420833	0,1	16,274755
1,422500	0,1	16,093334
1,424167	0,1	15,885149
1,425833	0,1	15,691333
1,427500	0,1	15,514540
1,429167	0,1	15,384798
1,430833	0,1	15,199344
1,432500	0,1	14,976489
1,434167	0,1	14,853970
1,435833	0,1	14,690444
1,437500	0,1	14,557458
1,439167	0,1	14,395277
1,440833	0,1	14,251910
1,442500	0,1	14,064650
1,444167	0,1	13,923499
1,445833	0,1	13,791646
1,447500	0,1	13,634087
1,449167	0,1	13,493986
1,450833	0,1	13,348098
1,452500	0,1	13,273348
1,454167	0,1	13,086606
1,455833	0,1	12,944621
1,457500	0,1	12,791983
1,459167	0,1	12,683135
1,460833	0,1	12,566229
1,462500	0,1	12,401647
1,464167	0,1	12,266460
1,465833	0,1	12,155360
1,467500	0,1	12,034342
1,469167	0,1	11,891263
1,470833	0,1	11,779595
1,472500	0,1	11,674501
1,474167	0,1	11,567844
1,475833	0,1	11,431419
1,477500	0,1	11,321704
1,479167	0,1	11,269971
1,480833	0,1	11,081390
1,482500	0,1	11,034538
1,484167	0,1	10,919915
1,485833	0,1	10,797815
1,487500	0,1	10,759739
1,489167	0,1	10,625940
1,490833	0,1	10,553067
1,492500	0,1	10,469269
1,494167	0,1	10,376743
1,495833	0,1	10,263366
1,497500	0,1	10,224713
1,499167	0,1	10,163947
1,500833	0,1	10,111313
1,502500	0,1	10,034416
1,504167	0,1	9,984045
1,505833	0,1	9,940880
1,507500	0,1	9,866708
1,509167	0,1	9,801643
1,510833	0,1	9,796142
1,512500	0,1	9,663607
1,514167	0,1	9,638126
1,515833	0,1	9,625132
1,517500	0,1	9,580656
1,519167	0,1	9,582316
1,520833	0,1	9,462972
1,522500	0,1	9,478080
1,524167	0,1	9,422408
1,525833	0,1	9,432158
1,527500	0,1	9,407405
1,529167	0,1	9,355657
1,530833	0,1	9,312946
1,532500	0,1	9,338674
1,534167	0,1	9,230694
1,535833	0,1	9,240919
1,537500	0,1	9,267930
1,539167	0,1	9,244129
1,540833	0,1	9,235361
1,542500	0,1	9,189977
1,544167	0,1	9,194910
1,545833	0,1	9,166292
1,547500	0,1	9,172521
1,549167	0,1	9,148281
1,550833	0,1	9,120315
1,552500	0,1	9,132436
1,554167	0,1	9,149755
1,555833	0,1	9,157295
1,557500	0,1	9,148633
1,559167	0,1	9,150800
1,560833	0,1	9,130521
1,562500	0,1	9,118588
1,564167	0,1	9,116338
1,565833	0,1	9,107473
1,567500	0,1	9,091070
1,569167	0,1	9,137332
1,570833	0,1	9,109792
1,572500	0,1	9,068783
1,574167	0,1	9,106421
1,575833	0,1	9,109849
1,577500	0,1	9,078645
1,579167	0,1	9,095061
1,580833	0,1	9,084413
1,582500	0,1	9,078520
1,584167	0,1	9,085146
1,585833	0,1	9,052062
1,587500	0,1	9,077407
1,589167	0,1	9,038769
1,590833	0,1	8,993541
1,592500	0,1	9,000551
1,594167	0,1	9,025602
1,595833	0,1	9,024806
1,597500	0,1	8,972502
1,599167	0,1	8,979092
1,600833	0,1	8,971938
1,602500	0,1	8,940140
1,604167	0,1	8,970195
1,605833	0,1	8,942730
1,607500	0,1	8,899352
1,609167	0,1	8,920440
1,610833	0,1	8,902011
1,612500	0,1	8,924004
1,614167	0,1	8,960436
1,615833	0,1	9,003411
1,617500	0,1	8,987055
1,619167	0,1	9,030553
1,620833	0,1	9,025924
1,622500	0,1	9,081991
1,624167	0,1	9,150865
1,625833	0,1	9,202006
1,627500	0,1	9,348497
1,629167	0,1	9,484236
1,630833	0,1	9,607369
1,632500	0,1	9,751139
1,634167	0,1	10,014067
1,635833	0,1	10,212784
1,637500	0,1	10,482918
1,639167	0,1	10,822389
1,640833	0,1	11,187817
1,642500	0,1	11,584766
1,644167	0,1	12,077460
1,645833	0,1	12,625466
1,647500	0,1	13,227765
1,649167	0,1	13,924458
1,650833	0,1	14,721938
1,652500	0,1	15,592666
1,654167	0,1	16,573263
1,655833	0,1	17,656788
1,657500	0,1	18,884040
1,659167	0,1	20,233495
1,660833	0,1	21,733640
1,662500	0,1	23,406145
1,664167	0,1	25,182763
1,665833	0,1	27,165533
1,667500	0,1	29,301947
1,669167	0,1	31,685665
1,670833	0,1	34,239793
1,672500	0,1	37,008169
1,674167	0,1	39,942486
1,675833	0,1	43,179875
1,677500	0,1	46,640544
1,679167	0,1	50,299920
1,680833	0,1	54,263338
1,682500	0,1	58,417231
1,684167	0,1	62,917409
1,685833	0,1	67,645517
1,687500	0,1	72,664225
1,689167	0,1	77,931017
1,690833	0,1	83,483306
1,692500	0,1	89,339057
1,694167	0,1	95,445118
1,695833	0,1	101,759907
1,697500	0,1	108,462556
1,699167	0,1	115,384749
1,700833	0,1	122,557590
1,702500	0,1	129,925890
1,704167	0,1	137,652608
1,705833	0,1	145,478329
1,707500	0,1	153,581618
1,709167	0,1	161,883062
1,710833	0,1	170,352058
1,712500	0,1	178,963814
1,714167	0,1	187,792701
1,715833	0,1	196,732404
1,717500	0,1	205,838475
1,719167	0,1	214,977723
1,720833	0,1	224,154982
1,722500	0,1	233,465816
1,724167	0,1	242,777260
1,725833	0,1	252,054249
1,727500	0,1	261,426140
1,729167	0,1	270,725543
1,730833	0,1	279,884043
1,732500	0,1	289,068701
1,734167	0,1	298,078418
1,735833	0,1	307,002884
1,737500	0,1	315,741073
1,739167	0,1	324,423287
1,740833	0,1	332,760122
1,742500	0,1	340,971766
1,744167	0,1	349,028875
1,745833	0,1	356,745375
1,747500	0,1	364,232352
1,749167	0,1	371,445368
1,750833	0,1	378,471170
1,752500	0,1	385,027912
1,754167	0,1	391,281294
1,755833	0,1	397,349022
1,757500	0,1	402,960319
1,759167	0,1	408,185703
1,760833	0,1	413,208901
1,762500	0,1	417,717689
1,764167	0,1	421,966965
1,765833	0,1	425,804864
1,767500	0,1	429,239795
1,769167	0,1	432,320065
1,770833	0,1	435,042759
1,772500	0,1	437,270995
1,774167	0,1	439,229990
1,775833	0,1	440,794173
1,777500	0,1	442,111509
1,779167	0,1	442,798344
1,780833	0,1	443,270315
1,782500	0,1	443,340716
1,784167	0,1	443,104221
1,785833	0,1	442,466011
1,787500	0,1	441,481480
1,789167	0,1	440,178152
1,790833	0,1	438,499550
1,792500	0,1	436,600009
1,794167	0,1	434,320139
1,795833	0,1	431,766364
1,797500	0,1	428,956312
1,799167	0,1	425,834473
1,800833	0,1	422,403331
1,802500	0,1	418,756325
1,804167	0,1	414,964281
1,805833	0,1	410,805516
1,807500	0,1	406,523283
1,809167	0,1	402,023036
1,810833	0,1	397,220742
1,812500	0,1	392,298313
1,814167	0,1	387,216887
1,815833	0,1	382,046361
1,817500	0,1	376,584640
1,819167	0,1	371,093103
1,820833	0,1	365,539256
1,822500	0,1	359,791870
1,824167	0,1	353,915465
1,825833	0,1	347,943480
1,827500	0,1	342,064323
1,829167	0,1	335,934329
1,830833	0,1	329,823305
1,832500	0,1	323,695744
1,834167	0,1	317,580984
1,835833	0,1	311,325411
1,837500	0,1	305,169704
1,839167	0,1	298,959928
1,840833	0,1	292,804164
1,842500	0,1	286,602986
1,844167	0,1	280,531184
1,845833	0,1	274,420747
1,847500	0,1	268,369824
1,849167	0,1	262,388518
1,850833	0,1	256,390776
1,852500	0,1	250,485091
1,854167	0,1	244,635873
1,855833	0,1	238,856191
1,857500	0,1	233,198136
1,859167	0,1	227,543196
1,860833	0,1	222,006037
1,862500	0,1	216,557684
1,864167	0,1	211,176771
1,865833	0,1	205,918397
1,867500	0,1	200,725006
1,869167	0,1	195,646646
1,870833	0,1	190,587954
1,872500	0,1	185,724409
1,874167	0,1	180,984486
1,875833	0,1	176,182140
1,877500	0,1	171,627393
1,879167	0,1	167,038770
1,880833	0,1	162,669388
1,882500	0,1	158,343904
1,884167	0,1	154,102300
1,885833	0,1	149,994803
1,887500	0,1	145,974576
1,889167	0,1	142,137591
1,890833	0,1	138,253955
1,892500	0,1	134,502651
1,894167	0,1	130,922058
1,895833	0,1	127,377792
1,897500	0,1	123,978148
1,899167	0,1	120,533349
1,900833	0,1	117,299540
1,902500	0,1	114,154470
1,904167	0,1	111,010907
1,905833	0,1	108,013915
1,907500	0,1	105,143149
1,909167	0,1	102,302287
1,910833	0,1	99,486623
1,912500	0,1	96,869722
1,914167	0,1	94,265343
1,915833	0,1	91,729660
1,917500	0,1	89,238109
1,919167	0,1	86,898924
1,920833	0,1	84,560808
1,922500	0,1	82,321078
1,924167	0,1	80,145580
1,925833	0,1	78,054565
1,927500	0,1	75,960534
1,929167	0,1	74,048987
1,930833	0,1	72,101765
1,932500	0,1	70,225499
1,934167	0,1	68,418304
1,935833	0,1	66,629854
1,937500	0,1	64,976825
1,939167	0,1	63,314797
1,940833	0,1	61,792727
1,942500	0,1	60,143984
1,944167	0,1	58,685165
1,945833	0,1	57,253658
1,947500	0,1	55,803903
1,949167	0,1	54,485839
1,950833	0,1	53,145936
1,952500	0,1	51,884125
1,954167	0,1	50,658351
1,955833	0,1	49,448846
1,957500	0,1	48,346391
1,959167	0,1	47,211014
1,960833	0,1	46,132351
1,962500	0,1	45,095899
1,964167	0,1	44,099132
1,965833	0,1	43,131576
1,967500	0,1	42,188684
1,969167	0,1	41,303240
1,970833	0,1	40,443741
1,972500	0,1	39,581995
1,974167	0,1	38,752316
1,975833	0,1	37,975614
1,977500	0,1	37,265982
1,979167	0,1	36,505973
1,980833	0,1	35,787336
1,982500	0,1	35,128598
1,984167	0,1	34,460100
1,985833	0,1	33,821179
1,987500	0,1	33,255766
1,989167	0,1	32,618585
1,990833	0,1	32,076866
1,992500	0,1	31,502251
1,994167	0,1	31,036002
1,995833	0,1	30,498704
1,997500	0,1	30,030131
1,999167	0,1	29,592537
2,000833	0,1	29,166100
2,002500	0,1	28,654509
2,004167	0,1	28,282645
2,005833	0,1	27,892452
2,007500	0,1	27,520154
2,009167	0,1	27,169214
2,010833	0,1	26,805736
2,012500	0,1	26,470374
2,014167	0,1	26,167732
2,015833	0,1	25,823516
2,017500	0,1	25,485273
2,019167	0,1	25,271366
2,020833	0,1	24,971626
2,022500	0,1	24,684241
2,024167	0,1	24,438780
2,025833	0,1	24,214832
2,027500	0,1	23,965184
2,029167	0,1	23,741310
2,030833	0,1	23,530159
2,032500	0,1	23,330641
2,034167	0,1	23,127155
2,035833	0,1	22,938436
2,037500	0,1	22,729788
2,039167	0,1	22,545632
2,040833	0,1	22,356759
2,042500	0,1	22,241557
2,044167	0,1	22,076720
2,045833	0,1	21,909211
2,047500	0,1	21,773494
2,049167	0,1	21,597055
2,050833	0,1	21,469835
2,052500	0,1	21,344768
2,054167	0,1	21,175169
2,055833	0,1	21,087184
2,057500	0,1	20,969492
2,059167	0,1	20,849085
2,060833	0,1	20,782301
2,062500	0,1	20,643004
2,064167	0,1	20,542947
2,065833	0,1	20,437610
2,067500	0,1	20,320119
2,069167	0,1	20,237366
2,070833	0,1	20,133415
2,072500	0,1	20,002982
2,074167	0,1	19,976344
2,075833	0,1	19,875429
2,077500	0,1	19,797532
2,079167	0,1	19,675078
2,080833	0,1	19,579174
2,082500	0,1	19,519217
2,084167	0,1	19,456510
2,085833	0,1	19,351172
2,087500	0,1	19,268781
2,089167	0,1	19,180853
2,090833	0,1	19,161053
2,092500	0,1	19,066654
2,094167	0,1	18,964939
2,095833	0,1	18,921115
2,097500	0,1	18,843207
2,099167	0,1	18,783605
2,100833	0,1	18,725250
2,102500	0,1	18,619070
2,104167	0,1	18,527605
2,105833	0,1	18,487868
2,107500	0,1	18,407125
2,109167	0,1	18,349302
2,110833	0,1	18,271119
2,112500	0,1	18,201690
2,114167	0,1	18,108973
2,115833	0,1	18,036283
2,117500	0,1	17,938336
2,119167	0,1	17,879059
2,120833	0,1	17,859736
2,122500	0,1	17,736238
2,124167	0,1	17,657422
2,125833	0,1	17,565063
2,127500	0,1	17,533412
2,129167	0,1	17,430384
2,130833	0,1	17,351607
2,132500	0,1	17,285445
2,134167	0,1	17,219651
2,135833	0,1	17,145461
2,137500	0,1	17,034367
2,139167	0,1	16,912109
2,140833	0,1	16,925821
2,142500	0,1	16,811217
2,144167	0,1	16,756763
2,145833	0,1	16,673058
2,147500	0,1	16,558929
2,149167	0,1	16,535853
2,150833	0,1	16,419668
2,152500	0,1	16,383886
2,154167	0,1	16,265829
2,155833	0,1	16,202705
2,157500	0,1	16,087075
2,159167	0,1	15,986571
2,160833	0,1	15,950322
2,162500	0,1	15,828886
2,164167	0,1	15,768510
2,165833	0,1	15,707608
2,167500	0,1	15,585024
2,169167	0,1	15,573241
2,170833	0,1	15,435778
2,172500	0,1	15,354893
2,174167	0,1	15,265225
2,175833	0,1	15,233325
2,177500	0,1	15,131298
2,179167	0,1	15,013275
2,180833	0,1	14,968450
2,182500	0,1	14,885417
2,184167	0,1	14,793572
2,185833	0,1	14,736390
2,187500	0,1	14,657257
2,189167	0,1	14,560258
2,190833	0,1	14,466244
2,192500	0,1	14,393010
2,194167	0,1	14,318143
2,195833	0,1	14,244551
2,197500	0,1	14,188283
2,199167	0,1	14,148342
2,200833	0,1	14,006423
2,202500	0,1	13,931323
2,204167	0,1	13,846520
2,205833	0,1	13,761483
2,207500	0,1	13,693436
2,209167	0,1	13,675908
2,210833	0,1	13,560135
2,212500	0,1	13,508669
2,214167	0,1	13,420444
2,215833	0,1	13,384411
2,217500	0,1	13,214313
2,219167	0,1	13,188384
2,220833	0,1	13,125955
2,222500	0,1	13,076688
2,224167	0,1	12,974743
2,225833	0,1	12,917618
2,227500	0,1	12,853315
2,229167	0,1	12,779076
2,230833	0,1	12,717852
2,232500	0,1	12,655070
2,234167	0,1	12,614729
2,235833	0,1	12,490242
2,237500	0,1	12,460600
2,239167	0,1	12,420507
2,240833	0,1	12,353819
2,242500	0,1	12,280215
2,244167	0,1	12,219503
2,245833	0,1	12,151516
2,247500	0,1	12,085743
2,249167	0,1	12,042932
2,250833	0,1	11,953170
2,252500	0,1	11,936129
2,254167	0,1	11,879717
2,255833	0,1	11,850271
2,257500	0,1	11,762847
2,259167	0,1	11,700842
2,260833	0,1	11,655265
2,262500	0,1	11,640432
2,264167	0,1	11,559709
2,265833	0,1	11,501342
2,267500	0,1	11,433305
2,269167	0,1	11,389899
2,270833	0,1	11,362712
2,272500	0,1	11,265355
2,274167	0,1	11,254443
2,275833	0,1	11,258620
2,277500	0,1	11,153146
2,279167	0,1	11,106938
2,280833	0,1	11,064881
2,282500	0,1	11,036355
2,284167	0,1	10,972152
2,285833	0,1	10,894310
2,287500	0,1	10,871957
2,289167	0,1	10,805499
2,290833	0,1	10,811198
2,292500	0,1	10,693051
2,294167	0,1	10,743889
2,295833	0,1	10,662164
2,297500	0,1	10,611736
2,299167	0,1	10,609395
2,300833	0,1	10,596535
2,302500	0,1	10,554368
2,304167	0,1	10,493830
2,305833	0,1	10,457211
2,307500	0,1	10,383216
2,309167	0,1	10,390238
2,310833	0,1	10,336992
2,312500	0,1	10,330328
2,314167	0,1	10,270109
2,315833	0,1	10,224994
2,317500	0,1	10,230689
2,319167	0,1	10,165045
2,320833	0,1	10,146189
2,322500	0,1	10,097578
2,324167	0,1	10,125687
2,325833	0,1	10,052871
2,327500	0,1	10,028196
2,329167	0,1	10,006227
2,330833	0,1	9,986181
2,332500	0,1	9,976017
2,334167	0,1	9,942804
2,335833	0,1	9,903815
2,337500	0,1	9,881126
2,339167	0,1	9,842099
2,340833	0,1	9,826122
2,342500	0,1	9,788188
2,344167	0,1	9,785260
2,345833	0,1	9,780540
2,347500	0,1	9,728918
2,349167	0,1	9,765232
2,350833	0,1	9,722310
2,352500	0,1	9,724069
2,354167	0,1	9,720118
2,355833	0,1	9,702437
2,357500	0,1	9,687191
2,359167	0,1	9,697111
2,360833	0,1	9,679731
2,362500	0,1	9,729444
2,364167	0,1	9,748177
2,365833	0,1	9,744714
2,367500	0,1	9,731524
2,369167	0,1	9,741625
2,370833	0,1	9,787024
2,372500	0,1	9,771338
2,374167	0,1	9,783231
2,375833	0,1	9,854755
2,377500	0,1	9,804608
2,379167	0,1	9,875015
2,380833	0,1	9,887880
2,382500	0,1	9,902256
2,384167	0,1	10,034145
2,385833	0,1	10,070366
2,387500	0,1	10,067245
2,389167	0,1	10,143476
2,390833	0,1	10,191339
2,392500	0,1	10,230957
2,394167	0,1	10,299313
2,395833	0,1	10,427810
2,397500	0,1	10,484026
2,399167	0,1	10,572105
2,400833	0,1	10,633089
2,402500	0,1	10,733364
2,404167	0,1	10,824610
2,405833	0,1	10,942341
2,407500	0,1	10,988298
2,409167	0,1	11,070525
2,410833	0,1	11,201492
2,412500	0,1	11,264499
2,414167	0,1	11,412306
2,415833	0,1	11,493796
2,417500	0,1	11,626114
2,419167	0,1	11,699915
2,420833	0,1	11,843112
2,422500	0,1	11,947401
2,424167	0,1	12,047806
2,425833	0,1	12,174294
2,427500	0,1	12,291823
2,429167	0,1	12,409744
2,430833	0,1	12,544533
2,432500	0,1	12,628446
2,434167	0,1	12,718575
2,435833	0,1	12,846635
2,437500	0,1	12,912477
2,439167	0,1	13,044297
2,440833	0,1	13,151321
2,442500	0,1	13,235938
2,444167	0,1	13,368206
2,445833	0,1	13,412606
2,447500	0,1	13,516967
2,449167	0,1	13,616946
2,450833	0,1	13,710586
2,452500	0,1	13,773840
2,454167	0,1	13,794429
2,455833	0,1	13,917465
2,457500	0,1	13,956979
2,459167	0,1	14,045573
2,460833	0,1	14,063296
2,462500	0,1	14,115973
2,464167	0,1	14,131122
2,465833	0,1	14,184100
2,467500	0,1	14,204855
2,469167	0,1	14,217897
2,470833	0,1	14,255569
2,472500	0,1	14,241348
2,474167	0,1	14,257850
2,475833	0,1	14,242271
2,477500	0,1	14,248384
2,479167	0,1	14,245200
2,480833	0,1	14,241872
2,482500	0,1	14,211789
2,484167	0,1	14,207546
2,485833	0,1	14,182379
2,487500	0,1	14,118499
2,489167	0,1	14,113059
2,490833	0,1	14,057198
2,492500	0,1	14,043576
2,494167	0,1	13,989195
2,495833	0,1	13,932238
2,497500	0,1	13,850305
2,499167	0,1	13,854364
2,500833	0,1	13,767007
2,502500	0,1	13,694784
2,504167	0,1	13,646763
2,505833	0,1	13,574331
2,507500	0,1	13,474188
2,509167	0,1	13,393187
2,510833	0,1	13,359527
2,512500	0,1	13,238453
2,514167	0,1	13,211522
2,515833	0,1	13,151778
2,517500	0,1	13,033317
2,519167	0,1	12,976329
2,520833	0,1	12,895630
2,522500	0,1	12,798481
2,524167	0,1	12,720185
2,525833	0,1	12,620261
2,527500	0,1	12,553706
2,529167	0,1	12,428480
2,530833	0,1	12,365477
2,532500	0,1	12,284646
2,534167	0,1	12,145671
2,535833	0,1	12,078221
2,537500	0,1	11,989519
2,539167	0,1	11,903590
2,540833	0,1	11,785867
2,542500	0,1	11,716215
2,544167	0,1	11,571589
2,545833	0,1	11,489757
2,547500	0,1	11,439758
2,549167	0,1	11,309610
2,550833	0,1	11,230364
2,552500	0,1	11,128969
2,554167	0,1	11,014804
2,555833	0,1	10,947530
2,557500	0,1	10,891003
2,559167	0,1	10,744693
2,560833	0,1	10,688626
2,562500	0,1	10,593031
2,564167	0,1	10,497685
2,565833	0,1	10,385767
2,567500	0,1	10,307324
2,569167	0,1	10,226754
2,570833	0,1	10,163780
2,572500	0,1	10,030913
2,574167	0,1	9,972901
2,575833	0,1	9,896353
2,577500	0,1	9,802750
2,579167	0,1	9,693523
2,580833	0,1	9,599520
2,582500	0,1	9,520159
2,584167	0,1	9,444151
2,585833	0,1	9,345649
2,587500	0,1	9,269590
2,589167	0,1	9,195606
2,590833	0,1	9,138398
2,592500	0,1	9,022385
2,594167	0,1	8,991593
2,595833	0,1	8,877157
2,597500	0,1	8,806846
2,599167	0,1	8,719098
2,600833	0,1	8,655252
2,602500	0,1	8,623406
2,604167	0,1	8,550634
2,605833	0,1	8,444407
2,607500	0,1	8,395843
2,609167	0,1	8,307070
2,610833	0,1	8,280788
2,612500	0,1	8,211932
2,614167	0,1	8,043759
2,615833	0,1	8,037112
2,617500	0,1	7,941078
2,619167	0,1	7,935409
2,620833	0,1	7,835662
2,622500	0,1	7,761818
2,624167	0,1	7,679091
2,625833	0,1	7,690930
2,627500	0,1	7,578531
2,629167	0,1	7,528314
2,630833	0,1	7,515707
2,632500	0,1	7,412627
2,634167	0,1	7,373666
2,635833	0,1	7,287773
2,637500	0,1	7,240342
2,639167	0,1	7,215793
2,640833	0,1	7,138093
2,642500	0,1	7,099176
2,644167	0,1	7,010258
2,645833	0,1	6,976874
2,647500	0,1	6,938921
2,649167	0,1	6,888617
2,650833	0,1	6,820574
2,652500	0,1	6,807665
2,654167	0,1	6,742818
2,655833	0,1	6,707864
2,657500	0,1	6,664510
2,659167	0,1	6,583053
2,660833	0,1	6,538022
2,662500	0,1	6,543803
2,664167	0,1	6,459767
2,665833	0,1	6,419973
2,667500	0,1	6,350423
2,669167	0,1	6,305320
2,670833	0,1	6,310630
2,672500	0,1	6,246798
2,674167	0,1	6,234097
2,675833	0,1	6,161227
2,677500	0,1	6,136466
2,679167	0,1	6,091968
2,680833	0,1	6,068554
2,682500	0,1	6,005582
2,684167	0,1	5,955579
2,685833	0,1	5,951082
2,687500	0,1	5,917789
2,689167	0,1	5,884311
2,690833	0,1	5,836369
2,692500	0,1	5,810073
2,694167	0,1	5,792176
2,695833	0,1	5,686729
2,697500	0,1	5,697614
2,699167	0,1	5,713748
2,700833	0,1	5,650891
2,702500	0,1	5,592606
2,704167	0,1	5,594716
2,705833	0,1	5,545978
2,707500	0,1	5,525020
2,709167	0,1	5,523905
2,710833	0,1	5,484304
2,712500	0,1	5,422528
2,714167	0,1	5,437895
2,715833	0,1	5,390956
2,717500	0,1	5,379667
2,719167	0,1	5,392204
2,720833	0,1	5,389479
2,722500	0,1	5,325667
2,724167	0,1	5,313619
2,725833	0,1	5,277396
2,727500	0,1	5,261552
2,729167	0,1	5,213601
2,730833	0,1	5,206860
2,732500	0,1	5,227611
2,734167	0,1	5,214107
2,735833	0,1	5,209680
2,737500	0,1	5,198375
2,739167	0,1	5,120707
2,740833	0,1	5,078321
2,742500	0,1	5,119509
2,744167	0,1	5,092329
2,745833	0,1	5,035883
2,747500	0,1	5,091914
2,749167	0,1	5,010672
2,750833	0,1	5,014628
2,752500	0,1	5,052627
2,754167	0,1	4,977510
2,755833	0,1	4,996121
2,757500	0,1	5,021897
2,759167	0,1	4,987293
2,760833	0,1	4,938329
2,762500	0,1	5,036106
2,764167	0,1	4,953082
2,765833	0,1	4,974014
2,767500	0,1	4,937305
2,769167	0,1	4,939971
2,770833	0,1	4,915610
2,772500	0,1	4,889516
2,774167	0,1	4,931820
2,775833	0,1	4,885329
2,777500	0,1	4,851521
2,779167	0,1	4,892253
2,780833	0,1	4,873710
2,782500	0,1	4,832794
2,784167	0,1	4,841593
2,785833	0,1	4,802910
2,787500	0,1	4,793750
2,789167	0,1	4,788565
2,790833	0,1	4,829188
2,792500	0,1	4,804678
2,794167	0,1	4,773201
2,795833	0,1	4,780722
2,797500	0,1	4,787346
2,799167	0,1	4,721375
2,800833	0,1	4,719459
2,802500	0,1	4,755740
2,804167	0,1	4,748365
2,805833	0,1	4,740723
2,807500	0,1	4,736275
2,809167	0,1	4,719040
2,810833	0,1	4,725204
2,812500	0,1	4,697190
2,814167	0,1	4,668431
2,815833	0,1	4,694455
2,817500	0,1	4,659261
2,819167	0,1	4,640719
2,820833	0,1	4,649853
2,822500	0,1	4,647337
2,824167	0,1	4,599347
2,825833	0,1	4,628735
2,827500	0,1	4,607123
2,829167	0,1	4,576222
2,830833	0,1	4,571208
2,832500	0,1	4,541387
2,834167	0,1	4,503357
2,835833	0,1	4,514186
2,837500	0,1	4,549690
2,839167	0,1	4,507437
2,840833	0,1	4,515177
2,842500	0,1	4,505615
2,844167	0,1	4,485503
2,845833	0,1	4,421287
2,847500	0,1	4,435836
2,849167	0,1	4,427728
2,850833	0,1	4,386210
2,852500	0,1	4,377178
2,854167	0,1	4,396889
2,855833	0,1	4,357920
2,857500	0,1	4,381618
2,859167	0,1	4,347942
2,860833	0,1	4,346452
2,862500	0,1	4,290973
2,864167	0,1	4,308835
2,865833	0,1	4,300081
2,867500	0,1	4,291278
2,869167	0,1	4,275283
2,870833	0,1	4,236432
2,872500	0,1	4,236439
2,874167	0,1	4,212016
2,875833	0,1	4,187820
2,877500	0,1	4,197552
2,879167	0,1	4,157394
2,880833	0,1	4,176271
2,882500	0,1	4,160709
2,884167	0,1	4,090099
2,885833	0,1	4,107914
2,887500	0,1	4,103782
2,889167	0,1	4,070585
2,890833	0,1	4,068827
2,892500	0,1	4,049933
2,894167	0,1	4,072227
2,895833	0,1	4,029220
2,897500	0,1	3,981128
2,899167	0,1	3,965760
2,900833	0,1	3,928357
2,902500	0,1	3,947792
2,904167	0,1	4,002745
2,905833	0,1	3,865258
2,907500	0,1	3,933929
2,909167	0,1	3,901950
2,910833	0,1	3,906607
2,912500	0,1	3,833609
2,914167	0,1	3,861646
2,915833	0,1	3,788533
2,917500	0,1	3,807434
2,919167	0,1	3,827655
2,920833	0,1	3,801435
2,922500	0,1	3,778815
2,924167	0,1	3,781895
2,925833	0,1	3,763222
2,927500	0,1	3,730542
2,929167	0,1	3,674846
2,930833	0,1	3,680472
2,932500	0,1	3,724516
2,934167	0,1	3,690837
2,935833	0,1	3,676906
2,937500	0,1	3,653327
2,939167	0,1	3,636270
2,940833	0,1	3,624700
2,942500	0,1	3,545045
2,944167	0,1	3,547906
2,945833	0,1	3,550548
2,947500	0,1	3,535412
2,949167	0,1	3,540808
2,950833	0,1	3,529926
2,952500	0,1	3,517926
2,954167	0,1	3,509067
2,955833	0,1	3,503346
2,957500	0,1	3,433291
2,959167	0,1	3,486097
2,960833	0,1	3,433251
2,962500	0,1	3,419816
2,964167	0,1	3,456360
2,965833	0,1	3,365046
2,967500	0,1	3,426369
2,969167	0,1	3,355557
2,970833	0,1	3,352340
2,972500	0,1	3,338872
2,974167	0,1	3,338030
2,975833	0,1	3,351767
2,977500	0,1	3,317633
2,979167	0,1	3,320570
2,980833	0,1	3,322770
2,982500	0,1	3,303669
2,984167	0,1	3,323826
2,985833	0,1	3,259236
2,987500	0,1	3,254583
2,989167	0,1	3,254029
2,990833	0,1	3,240327
2,992500	0,1	3,255323
2,994167	0,1	3,235313
2,995833	0,1	3,195230
2,997500	0,1	3,211468
2,999167	0,1	3,184669
3,000833	0,1	3,191267
3,002500	0,1	3,157473
3,004167	0,1	3,139766
3,005833	0,1	3,141324
3,007500	0,1	3,159475
3,009167	0,1	3,132505
3,010833	0,1	3,126197
3,012500	0,1	3,102251
3,014167	0,1	3,081129
3,015833	0,1	3,120683
3,017500	0,1	3,054106
3,019167	0,1	3,067707
3,020833	0,1	3,043017
3,022500	0,1	3,069158
3,024167	0,1	3,064831
3,025833	0,1	3,044884
3,027500	0,1	3,025610
3,029167	0,1	3,016450
3,030833	0,1	3,031230
3,032500	0,1	3,013079
3,034167	0,1	3,005346
3,035833	0,1	3,024379
3,037500	0,1	3,000005
3,039167	0,1	2,952983
3,040833	0,1	2,972059
3,042500	0,1	2,952405
3,044167	0,1	2,965731
3,045833	0,1	2,998746
3,047500	0,1	2,942792
3,049167	0,1	2,970450
3,050833	0,1	2,914391
3,052500	0,1	2,947206
3,054167	0,1	2,937955
3,055833	0,1	2,870383
3,057500	0,1	2,896865
3,059167	0,1	2,921088
3,060833	0,1	2,900273
3,062500	0,1	2,884788
3,064167	0,1	2,859814
3,065833	0,1	2,907263
3,067500	0,1	2,893972
3,069167	0,1	2,840064
3,070833	0,1	2,871140
3,072500	0,1	2,817605
3,074167	0,1	2,874397
3,075833	0,1	2,871247
3,077500	0,1	2,851339
3,079167	0,1	2,876196
3,080833	0,1	2,842784
3,082500	0,1	2,888380
3,084167	0,1	2,830550
3,085833	0,1	2,864764
3,087500	0,1	2,900366
3,089167	0,1	2,891093
3,090833	0,1	2,894023
3,092500	0,1	2,871724
3,094167	0,1	2,879210
3,095833	0,1	2,893990
3,097500	0,1	2,843360
3,099167	0,1	2,886667
3,100833	0,1	2,926117
3,102500	0,1	2,941142
3,104167	0,1	2,911714
3,105833	0,1	2,919592
3,107500	0,1	2,957785
3,109167	0,1	2,926575
3,110833	0,1	2,957713
3,112500	0,1	2,961451
3,114167	0,1	2,963917
3,115833	0,1	3,025588
3,117500	0,1	2,985017
3,119167	0,1	3,016802
3,120833	0,1	3,086530
3,122500	0,1	3,115882
3,124167	0,1	3,111585
3,125833	0,1	3,095449
3,127500	0,1	3,125591
3,129167	0,1	3,157662
3,130833	0,1	3,166702
3,132500	0,1	3,169524
3,134167	0,1	3,215814
3,135833	0,1	3,227472
3,137500	0,1	3,223565
3,139167	0,1	3,257897
3,140833	0,1	3,255310
3,142500	0,1	3,294965
3,144167	0,1	3,298946
3,145833	0,1	3,341945
3,147500	0,1	3,373036
3,149167	0,1	3,372177
3,150833	0,1	3,400695
3,152500	0,1	3,439231
3,154167	0,1	3,432181
3,155833	0,1	3,479116
3,157500	0,1	3,485219
3,159167	0,1	3,536615
3,160833	0,1	3,541171
3,162500	0,1	3,547381
3,164167	0,1	3,612266
3,165833	0,1	3,581687
3,167500	0,1	3,608540
3,169167	0,1	3,632287
3,170833	0,1	3,580834
3,172500	0,1	3,652692
3,174167	0,1	3,692199
3,175833	0,1	3,669319
3,177500	0,1	3,653278
3,179167	0,1	3,704944
3,180833	0,1	3,700611
3,182500	0,1	3,700572
3,184167	0,1	3,734423
3,185833	0,1	3,713607
3,187500	0,1	3,740434
3,189167	0,1	3,748315
3,190833	0,1	3,769182
3,192500	0,1	3,754938
3,194167	0,1	3,813109
3,195833	0,1	3,751174
3,197500	0,1	3,730621
3,199167	0,1	3,762885
3,200833	0,1	3,768738
3,202500	0,1	3,792083
3,204167	0,1	3,767121
3,205833	0,1	3,761026
3,207500	0,1	3,745804
3,209167	0,1	3,794066
3,210833	0,1	3,730019
3,212500	0,1	3,758581
3,214167	0,1	3,727292
3,215833	0,1	3,722902
3,217500	0,1	3,717257
3,219167	0,1	3,714577
3,220833	0,1	3,721763
3,222500	0,1	3,666120
3,224167	0,1	3,698168
3,225833	0,1	3,702683
3,227500	0,1	3,639569
3,229167	0,1	3,663341
3,230833	0,1	3,648775
3,232500	0,1	3,632216
3,234167	0,1	3,610414
3,235833	0,1	3,615325
3,237500	0,1	3,572718
3,239167	0,1	3,606307
3,240833	0,1	3,557418
3,242500	0,1	3,535174
3,244167	0,1	3,547059
3,245833	0,1	3,510415
3,247500	0,1	3,451545
3,249167	0,1	3,484837
3,250833	0,1	3,478720
3,252500	0,1	3,419656
3,254167	0,1	3,430026
3,255833	0,1	3,434833
3,257500	0,1	3,418029
3,259167	0,1	3,416532
3,260833	0,1	3,414369
3,262500	0,1	3,340961
3,264167	0,1	3,352147
3,265833	0,1	3,301903
3,267500	0,1	3,280119
3,269167	0,1	3,269114
3,270833	0,1	3,297612
3,272500	0,1	3,227632
3,274167	0,1	3,198660
3,275833	0,1	3,187802
3,277500	0,1	3,203072
3,279167	0,1	3,178515
3,280833	0,1	3,178253
3,282500	0,1	3,112745
3,284167	0,1	3,137417
3,285833	0,1	3,064511
3,287500	0,1	3,103113
3,289167	0,1	3,072308
3,290833	0,1	3,046728
3,292500	0,1	3,007066
3,294167	0,1	3,005732
3,295833	0,1	3,003892
3,297500	0,1	2,945386
3,299167	0,1	2,948431
3,300833	0,1	2,936842
3,302500	0,1	2,909691
3,304167	0,1	2,893688
3,305833	0,1	2,877111
3,307500	0,1	2,867754
3,309167	0,1	2,884240
3,310833	0,1	2,829253
3,312500	0,1	2,829216
3,314167	0,1	2,802875
3,315833	0,1	2,785889
3,317500	0,1	2,783249
3,319167	0,1	2,784665
3,320833	0,1	2,739930
3,322500	0,1	2,742017
3,324167	0,1	2,757208
3,325833	0,1	2,697578
3,327500	0,1	2,682149
3,329167	0,1	2,701964
3,330833	0,1	2,672967
3,332500	0,1	2,635194
3,334167	0,1	2,642062
3,335833	0,1	2,628193
3,337500	0,1	2,632915
3,339167	0,1	2,631887
3,340833	0,1	2,625942
3,342500	0,1	2,588657
3,344167	0,1	2,593811
3,345833	0,1	2,584359
3,347500	0,1	2,574681
3,349167	0,1	2,553020
3,350833	0,1	2,534081
3,352500	0,1	2,514992
3,354167	0,1	2,529100
3,355833	0,1	2,519524
3,357500	0,1	2,512204
3,359167	0,1	2,489400
3,360833	0,1	2,478867
3,362500	0,1	2,477720
3,364167	0,1	2,474497
3,365833	0,1	2,485987
3,367500	0,1	2,469167
3,369167	0,1	2,473952
3,370833	0,1	2,437661
3,372500	0,1	2,425757
3,374167	0,1	2,455345
3,375833	0,1	2,463091
3,377500	0,1	2,483243
3,379167	0,1	2,423718
3,380833	0,1	2,420090
3,382500	0,1	2,394960
3,384167	0,1	2,418625
3,385833	0,1	2,341838
3,387500	0,1	2,389836
3,389167	0,1	2,349675
3,390833	0,1	2,355042
3,392500	0,1	2,365450
3,394167	0,1	2,405005
3,395833	0,1	2,350087
3,397500	0,1	2,371410
3,399167	0,1	2,391079
3,400833	0,1	2,354780
3,402500	0,1	2,309504
3,404167	0,1	2,374203
3,405833	0,1	2,361148
3,407500	0,1	2,364157
3,409167	0,1	2,349403
3,410833	0,1	2,318277
3,412500	0,1	2,324807
3,414167	0,1	2,325392
3,415833	0,1	2,339873
3,417500	0,1	2,324239
3,419167	0,1	2,312172
3,420833	0,1	2,265775
3,422500	0,1	2,315034
3,424167	0,1	2,314086
3,425833	0,1	2,321793
3,427500	0,1	2,316965
3,429167	0,1	2,292526
3,430833	0,1	2,265981
3,432500	0,1	2,260699
3,434167	0,1	2,304078
3,435833	0,1	2,277211
3,437500	0,1	2,328318
3,439167	0,1	2,252598
3,440833	0,1	2,266334
3,442500	0,1	2,250939
3,444167	0,1	2,262426
3,445833	0,1	2,262080
3,447500	0,1	2,250165
3,449167	0,1	2,247190
3,450833	0,1	2,229365
3,452500	0,1	2,259619
3,454167	0,1	2,204710
3,455833	0,1	2,244028
3,457500	0,1	2,174799
3,459167	0,1	2,206610
3,460833	0,1	2,238054
3,462500	0,1	2,170607
3,464167	0,1	2,212169
3,465833	0,1	2,201792
3,467500	0,1	2,191954
3,469167	0,1	2,187145
3,470833	0,1	2,195038
3,472500	0,1	2,149964
3,474167	0,1	2,174395
3,475833	0,1	2,142204
3,477500	0,1	2,216532
3,479167	0,1	2,191800
3,480833	0,1	2,113220
3,482500	0,1	2,161128
3,484167	0,1	2,120208
3,485833	0,1	2,173168
3,487500	0,1	2,161524
3,489167	0,1	2,115949
3,490833	0,1	2,126716
3,492500	0,1	2,104931
3,494167	0,1	2,112469
3,495833	0,1	2,118811
3,497500	0,1	2,132836
3,499167	0,1	2,120823
3,500833	0,1	2,076978
3,502500	0,1	2,091694
3,504167	0,1	2,129085
3,505833	0,1	2,081640
3,507500	0,1	2,102064
3,509167	0,1	2,095099
3,510833	0,1	2,084377
3,512500	0,1	2,080492
3,514167	0,1	2,065880
3,515833	0,1	2,073223
3,517500	0,1	2,082930
3,519167	0,1	2,071277
3,520833	0,1	2,023990
3,522500	0,1	2,020018
3,524167	0,1	2,014635
3,525833	0,1	2,040281
3,527500	0,1	2,025270
3,529167	0,1	2,036691
3,530833	0,1	2,042221
3,532500	0,1	2,029005
3,534167	0,1	2,025914
3,535833	0,1	2,053575
3,537500	0,1	1,987328
3,539167	0,1	1,993280
3,540833	0,1	1,969634
3,542500	0,1	2,013101
3,544167	0,1	1,972221
3,545833	0,1	2,008788
3,547500	0,1	1,963018
3,549167	0,1	2,019054
3,550833	0,1	1,981412
3,552500	0,1	2,018338
3,554167	0,1	1,955618
3,555833	0,1	1,965458
3,557500	0,1	2,000883
3,559167	0,1	1,954185
3,560833	0,1	1,951143
3,562500	0,1	1,926716
3,564167	0,1	1,935552
3,565833	0,1	1,929508
3,567500	0,1	1,930946
3,569167	0,1	1,922684
3,570833	0,1	1,967025
3,572500	0,1	1,925923
3,574167	0,1	1,931953
3,575833	0,1	1,936043
3,577500	0,1	1,919239
3,579167	0,1	1,901983
3,580833	0,1	1,904347
3,582500	0,1	1,892497
3,584167	0,1	1,917209
3,585833	0,1	1,898321
3,587500	0,1	1,883509
3,589167	0,1	1,836662
3,590833	0,1	1,873584
3,592500	0,1	1,876972
3,594167	0,1	1,865688
3,595833	0,1	1,877544
3,597500	0,1	1,853335
3,599167	0,1	1,859717
3,600833	0,1	1,867842
3,602500	0,1	1,828833
3,604167	0,1	1,836866
3,605833	0,1	1,831552
3,607500	0,1	1,811585
3,609167	0,1	1,866675
3,610833	0,1	1,809720
3,612500	0,1	1,827455
3,614167	0,1	1,829254
3,615833	0,1	1,827524
3,617500	0,1	1,799509
3,619167	0,1	1,810925
3,620833	0,1	1,812438
3,622500	0,1	1,792109
3,624167	0,1	1,782835
3,625833	0,1	1,788941
3,627500	0,1	1,780677
3,629167	0,1	1,783045
3,630833	0,1	1,773994
3,632500	0,1	1,787573
3,634167	0,1	1,734920
3,635833	0,1	1,786478
3,637500	0,1	1,778878
3,639167	0,1	1,803155
3,640833	0,1	1,773713
3,642500	0,1	1,746261
3,644167	0,1	1,759408
3,645833	0,1	1,742168
3,647500	0,1	1,743097
3,649167	0,1	1,745899
3,650833	0,1	1,729377
3,652500	0,1	1,737708
3,654167	0,1	1,712998
3,655833	0,1	1,753289
3,657500	0,1	1,757177
3,659167	0,1	1,735417
3,660833	0,1	1,699136
3,662500	0,1	1,714426
3,664167	0,1	1,727286
3,665833	0,1	1,670550
3,667500	0,1	1,683103
3,669167	0,1	1,716791
3,670833	0,1	1,682037
3,672500	0,1	1,709322
3,674167	0,1	1,675213
3,675833	0,1	1,697038
3,677500	0,1	1,717011
3,679167	0,1	1,695614
3,680833	0,1	1,642462
3,682500	0,1	1,685324
3,684167	0,1	1,696825
3,685833	0,1	1,651942
3,687500	0,1	1,676206
3,689167	0,1	1,637285
3,690833	0,1	1,661479
3,692500	0,1	1,700411
3,694167	0,1	1,682609
3,695833	0,1	1,694239
3,697500	0,1	1,655676
3,699167	0,1	1,666725
3,700833	0,1	1,652077
3,702500	0,1	1,628233
3,704167	0,1	1,655658
3,705833	0,1	1,678361
3,707500	0,1	1,627448
3,709167	0,1	1,643665
3,710833	0,1	1,657458
3,712500	0,1	1,639509
3,714167	0,1	1,662054
3,715833	0,1	1,660407
3,717500	0,1	1,656313
3,719167	0,1	1,651213
3,720833	0,1	1,701197
3,722500	0,1	1,639879
3,724167	0,1	1,607691
3,725833	0,1	1,651560
3,727500	0,1	1,671537
3,729167	0,1	1,660985
3,730833	0,1	1,648270
3,732500	0,1	1,692722
3,734167	0,1	1,684834
3,735833	0,1	1,654955
3,737500	0,1	1,653799
3,739167	0,1	1,603456
3,740833	0,1	1,632889
3,742500	0,1	1,644099
3,744167	0,1	1,613363
3,745833	0,1	1,643951
3,747500	0,1	1,646398
3,749167	0,1	1,648338
3,750833	0,1	1,652074
3,752500	0,1	1,655593
3,754167	0,1	1,633044
3,755833	0,1	1,668084
3,757500	0,1	1,622274
3,759167	0,1	1,618027
3,760833	0,1	1,649625
3,762500	0,1	1,623564
3,764167	0,1	1,709523
3,765833	0,1	1,664727
3,767500	0,1	1,652938
3,769167	0,1	1,667300
3,770833	0,1	1,679369
3,772500	0,1	1,697686
3,774167	0,1	1,704225
3,775833	0,1	1,676290
3,777500	0,1	1,686768
3,779167	0,1	1,682462
3,780833	0,1	1,679946
3,782500	0,1	1,688563
3,784167	0,1	1,693092
3,785833	0,1	1,667380
3,787500	0,1	1,668884
3,789167	0,1	1,697253
3,790833	0,1	1,665658
3,792500	0,1	1,712623
3,794167	0,1	1,696689
3,795833	0,1	1,730803
3,797500	0,1	1,695616
3,799167	0,1	1,720673
3,800833	0,1	1,695972
3,802500	0,1	1,691584
3,804167	0,1	1,684259
3,805833	0,1	1,709251
3,807500	0,1	1,719958
3,809167	0,1	1,703513
3,810833	0,1	1,731162
3,812500	0,1	1,736482
3,814167	0,1	1,732249
3,815833	0,1	1,745608
3,817500	0,1	1,745897
3,819167	0,1	1,730959
3,820833	0,1	1,765216
3,822500	0,1	1,721480
3,824167	0,1	1,753504
3,825833	0,1	1,735341
3,827500	0,1	1,742015
3,829167	0,1	1,734406
3,830833	0,1	1,721115
3,832500	0,1	1,788850
3,834167	0,1	1,753379
3,835833	0,1	1,824418
3,837500	0,1	1,787152
3,839167	0,1	1,771626
3,840833	0,1	1,729314
3,842500	0,1	1,749486
3,844167	0,1	1,751572
3,845833	0,1	1,751070
3,847500	0,1	1,763859
3,849167	0,1	1,722989
3,850833	0,1	1,745248
3,852500	0,1	1,748053
3,854167	0,1	1,744893
3,855833	0,1	1,764432
3,857500	0,1	1,779809
3,859167	0,1	1,736066
3,860833	0,1	1,769457
3,862500	0,1	1,749424
3,864167	0,1	1,749277
3,865833	0,1	1,729811
3,867500	0,1	1,759472
3,869167	0,1	1,769314
3,870833	0,1	1,731109
3,872500	0,1	1,763424
3,874167	0,1	1,760770
3,875833	0,1	1,787060
3,877500	0,1	1,774067
3,879167	0,1	1,757186
3,880833	0,1	1,718679
3,882500	0,1	1,742445
3,884167	0,1	1,741371
3,885833	0,1	1,726646
3,887500	0,1	1,724057
3,889167	0,1	1,737560
3,890833	0,1	1,757463
3,892500	0,1	1,707833
3,894167	0,1	1,729726
3,895833	0,1	1,778358
3,897500	0,1	1,746337
3,899167	0,1	1,700718
3,900833	0,1	1,726783
3,902500	0,1	1,713067
3,904167	0,1	1,714789
3,905833	0,1	1,686777
3,907500	0,1	1,701927
3,909167	0,1	1,705304
3,910833	0,1	1,714713
3,912500	0,1	1,672486
3,914167	0,1	1,692729
3,915833	0,1	1,700419
3,917500	0,1	1,700349
3,919167	0,1	1,662211
3,920833	0,1	1,675057
3,922500	0,1	1,692874
3,924167	0,1	1,643250
3,925833	0,1	1,676201
3,927500	0,1	1,647197
3,929167	0,1	1,683744
3,930833	0,1	1,678009
3,932500	0,1	1,646766
3,934167	0,1	1,637279
3,935833	0,1	1,637781
3,937500	0,1	1,650994
3,939167	0,1	1,625863
3,940833	0,1	1,638135
3,942500	0,1	1,579041
3,944167	0,1	1,615575
3,945833	0,1	1,587147
3,947500	0,1	1,611126
3,949167	0,1	1,614363
3,950833	0,1	1,600719
3,952500	0,1	1,586068
3,954167	0,1	1,586711
3,955833	0,1	1,618521
3,957500	0,1	1,604380
3,959167	0,1	1,589589
3,960833	0,1	1,577379
3,962500	0,1	1,578594
3,964167	0,1	1,576441
3,965833	0,1	1,638126
3,967500	0,1	1,577531
3,969167	0,1	1,542553
3,970833	0,1	1,577657
3,972500	0,1	1,516056
3,974167	0,1	1,548426
3,975833	0,1	1,574784
3,977500	0,1	1,573209
3,979167	0,1	1,552320
3,980833	0,1	1,562936
3,982500	0,1	1,534648
3,984167	0,1	1,516911
3,985833	0,1	1,564295
3,987500	0,1	1,514476
3,989167	0,1	1,553237
3,990833	0,1	1,491140
3,992500	0,1	1,515964
3,994167	0,1	1,488982
3,995833	0,1	1,504262
3,997500	0,1	1,518558
3,999167	0,1	1,502906
4,000833	0,1	1,498599
4,002500	0,1	1,480073
4,004167	0,1	1,466067
4,005833	0,1	1,506053
4,007500	0,1	1,504123
4,009167	0,1	1,467152
4,010833	0,1	1,510503
4,012500	0,1	1,457392
4,014167	0,1	1,464265
4,015833	0,1	1,498661
4,017500	0,1	1,501544
4,019167	0,1	1,480146
4,020833	0,1	1,466642
4,022500	0,1	1,490260
4,024167	0,1	1,466787
4,025833	0,1	1,512584
4,027500	0,1	1,490487
4,029167	0,1	1,499740
4,030833	0,1	1,524941
4,032500	0,1	1,477928
4,034167	0,1	1,513096
4,035833	0,1	1,538299
4,037500	0,1	1,506721
4,039167	0,1	1,491058
4,040833	0,1	1,512307
4,042500	0,1	1,488690
4,044167	0,1	1,527817
4,045833	0,1	1,487116
4,047500	0,1	1,482507
4,049167	0,1	1,493497
4,050833	0,1	1,497593
4,052500	0,1	1,506416
4,054167	0,1	1,543828
4,055833	0,1	1,532706
4,057500	0,1	1,518492
4,059167	0,1	1,539236
4,060833	0,1	1,576074
4,062500	0,1	1,530850
4,064167	0,1	1,552231
4,065833	0,1	1,566095
4,067500	0,1	1,606168
4,069167	0,1	1,590882
4,070833	0,1	1,559857
4,072500	0,1	1,577083
4,074167	0,1	1,593100
4,075833	0,1	1,578098
4,077500	0,1	1,606743
4,079167	0,1	1,649334
4,080833	0,1	1,636130
4,082500	0,1	1,673257
4,084167	0,1	1,663139
4,085833	0,1	1,655309
4,087500	0,1	1,675630
4,089167	0,1	1,716932
4,090833	0,1	1,656399
4,092500	0,1	1,664786
4,094167	0,1	1,683748
4,095833	0,1	1,732090
4,097500	0,1	1,735336
4,099167	0,1	1,748194
4,100833	0,1	1,749848
4,102500	0,1	1,765296
4,104167	0,1	1,803509
4,105833	0,1	1,782260
4,107500	0,1	1,790442
4,109167	0,1	1,823991
4,110833	0,1	1,818470
4,112500	0,1	1,848932
4,114167	0,1	1,874651
4,115833	0,1	1,888677
4,117500	0,1	1,882866
4,119167	0,1	1,875387
4,120833	0,1	1,940411
4,122500	0,1	1,966798
4,124167	0,1	1,923273
4,125833	0,1	1,944021
4,127500	0,1	1,975358
4,129167	0,1	1,971419
4,130833	0,1	1,990022
4,132500	0,1	2,014386
4,134167	0,1	1,989625
4,135833	0,1	1,988111
4,137500	0,1	2,062485
4,139167	0,1	2,067170
4,140833	0,1	2,042023
4,142500	0,1	2,041949
4,144167	0,1	2,102896
4,145833	0,1	2,094714
4,147500	0,1	2,128578
4,149167	0,1	2,118741
4,150833	0,1	2,148854
4,152500	0,1	2,145489
4,154167	0,1	2,191136
4,155833	0,1	2,183518
4,157500	0,1	2,192089
4,159167	0,1	2,226964
4,160833	0,1	2,217974
4,162500	0,1	2,203746
4,164167	0,1	2,229980
4,165833	0,1	2,261859
4,167500	0,1	2,256976
4,169167	0,1	2,266745
4,170833	0,1	2,309892
4,172500	0,1	2,306605
4,174167	0,1	2,295387
4,175833	0,1	2,353420
4,177500	0,1	2,274474
4,179167	0,1	2,361531
4,180833	0,1	2,301937
4,182500	0,1	2,350110
4,184167	0,1	2,356173
4,185833	0,1	2,355044
4,187500	0,1	2,401493
4,189167	0,1	2,379492
4,190833	0,1	2,415247
4,192500	0,1	2,361280
4,194167	0,1	2,438025
4,195833	0,1	2,399061
4,197500	0,1	2,404094
4,199167	0,1	2,390908
4,200833	0,1	2,412208
4,202500	0,1	2,433070
4,204167	0,1	2,419988
4,205833	0,1	2,401434
4,207500	0,1	2,428263
4,209167	0,1	2,371472
4,210833	0,1	2,438555
4,212500	0,1	2,431824
4,214167	0,1	2,440076
4,215833	0,1	2,428227
4,217500	0,1	2,438764
4,219167	0,1	2,444535
4,220833	0,1	2,422221
4,222500	0,1	2,409023
4,224167	0,1	2,450280
4,225833	0,1	2,447985
4,227500	0,1	2,418216
4,229167	0,1	2,397264
4,230833	0,1	2,455667
4,232500	0,1	2,421664
4,234167	0,1	2,438537
4,235833	0,1	2,412972
4,237500	0,1	2,392580
4,239167	0,1	2,422359
4,240833	0,1	2,378849
4,242500	0,1	2,406725
4,244167	0,1	2,421548
4,245833	0,1	2,417471
4,247500	0,1	2,367482
4,249167	0,1	2,361071
4,250833	0,1	2,340066
4,252500	0,1	2,355661
4,254167	0,1	2,332992
4,255833	0,1	2,374493
4,257500	0,1	2,357959
4,259167	0,1	2,312080
4,260833	0,1	2,296472
4,262500	0,1	2,334572
4,264167	0,1	2,302353
4,265833	0,1	2,266333
4,267500	0,1	2,258621
4,269167	0,1	2,276444
4,270833	0,1	2,302973
4,272500	0,1	2,285080
4,274167	0,1	2,276600
4,275833	0,1	2,256045
4,277500	0,1	2,223583
4,279167	0,1	2,232499
4,280833	0,1	2,225828
4,282500	0,1	2,205179
4,284167	0,1	2,205524
4,285833	0,1	2,148376
4,287500	0,1	2,160575
4,289167	0,1	2,184244
4,290833	0,1	2,151894
4,292500	0,1	2,087830
4,294167	0,1	2,105069
4,295833	0,1	2,086458
4,297500	0,1	2,114693
4,299167	0,1	2,074234
4,300833	0,1	2,090038
4,302500	0,1	2,033110
4,304167	0,1	2,057115
4,305833	0,1	2,033905
4,307500	0,1	2,045314
4,309167	0,1	2,014554
4,310833	0,1	2,052573
4,312500	0,1	1,997316
4,314167	0,1	2,010300
4,315833	0,1	1,974441
4,317500	0,1	1,934917
4,319167	0,1	1,956032
4,320833	0,1	1,955671
4,322500	0,1	1,943021
4,324167	0,1	1,990955
4,325833	0,1	1,887773
4,327500	0,1	1,928922
4,329167	0,1	1,910960
4,330833	0,1	1,889059
4,332500	0,1	1,851543
4,334167	0,1	1,853684
4,335833	0,1	1,830551
4,337500	0,1	1,836794
4,339167	0,1	1,839813
4,340833	0,1	1,781983
4,342500	0,1	1,807102
4,344167	0,1	1,764804
4,345833	0,1	1,837704
4,347500	0,1	1,786653
4,349167	0,1	1,793749
4,350833	0,1	1,770331
4,352500	0,1	1,763502
4,354167	0,1	1,715808
4,355833	0,1	1,734683
4,357500	0,1	1,719966
4,359167	0,1	1,670906
4,360833	0,1	1,691150
4,362500	0,1	1,693739
4,364167	0,1	1,662856
4,365833	0,1	1,617102
4,367500	0,1	1,682660
4,369167	0,1	1,639155
4,370833	0,1	1,629810
4,372500	0,1	1,611137
4,374167	0,1	1,658958
4,375833	0,1	1,588307
4,377500	0,1	1,631521
4,379167	0,1	1,612501
4,380833	0,1	1,573650
4,382500	0,1	1,556982
4,384167	0,1	1,577943
4,385833	0,1	1,533859
4,387500	0,1	1,572125
4,389167	0,1	1,563012
4,390833	0,1	1,534724
4,392500	0,1	1,545412
4,394167	0,1	1,536013
4,395833	0,1	1,493794
4,397500	0,1	1,502543
4,399167	0,1	1,488624
4,400833	0,1	1,475401
4,402500	0,1	1,484734
4,404167	0,1	1,449492
4,405833	0,1	1,433687
4,407500	0,1	1,461463
4,409167	0,1	1,454145
4,410833	0,1	1,465706
4,412500	0,1	1,451850
4,414167	0,1	1,395355
4,415833	0,1	1,407197
4,417500	0,1	1,380851
4,419167	0,1	1,398433
4,420833	0,1	1,366927
4,422500	0,1	1,407836
4,424167	0,1	1,389682
4,425833	0,1	1,378411
4,427500	0,1	1,372105
4,429167	0,1	1,387101
4,430833	0,1	1,355444
4,432500	0,1	1,352143
4,434167	0,1	1,308717
4,435833	0,1	1,296717
4,437500	0,1	1,317605
4,439167	0,1	1,341941
4,440833	0,1	1,317046
4,442500	0,1	1,325219
4,444167	0,1	1,349341
4,445833	0,1	1,279661
4,447500	0,1	1,261993
4,449167	0,1	1,285368
4,450833	0,1	1,259901
4,452500	0,1	1,259475
4,454167	0,1	1,242756
4,455833	0,1	1,243754
4,457500	0,1	1,227884
4,459167	0,1	1,273470
4,460833	0,1	1,206450
4,462500	0,1	1,227532
4,464167	0,1	1,220644
4,465833	0,1	1,211167
4,467500	0,1	1,234420
4,469167	0,1	1,216642
4,470833	0,1	1,213260
4,472500	0,1	1,202642
4,474167	0,1	1,213745
4,475833	0,1	1,196622
4,477500	0,1	1,194523
4,479167	0,1	1,145235
4,480833	0,1	1,179738
4,482500	0,1	1,173213
4,484167	0,1	1,168274
4,485833	0,1	1,152280
4,487500	0,1	1,153548
4,489167	0,1	1,116820
4,490833	0,1	1,118887
4,492500	0,1	1,120199
4,494167	0,1	1,176207
4,495833	0,1	1,162325
4,497500	0,1	1,155270
4,499167	0,1	1,146537
4,500833	0,1	1,114028
4,502500	0,1	1,095174
4,504167	0,1	1,108933
4,505833	0,1	1,102031
4,507500	0,1	1,101327
4,509167	0,1	1,093212
4,510833	0,1	1,111364
4,512500	0,1	1,083670
4,514167	0,1	1,113081
4,515833	0,1	1,075497
4,517500	0,1	1,070913
4,519167	0,1	1,049612
4,520833	0,1	1,080520
4,522500	0,1	1,042007
4,524167	0,1	1,050306
4,525833	0,1	1,059506
4,527500	0,1	1,048536
4,529167	0,1	1,028653
4,530833	0,1	1,029580
4,532500	0,1	1,050040
4,534167	0,1	1,030783
4,535833	0,1	1,055260
4,537500	0,1	1,035257
4,539167	0,1	1,050121
4,540833	0,1	1,028008
4,542500	0,1	1,069736
4,544167	0,1	1,052424
4,545833	0,1	1,061789
4,547500	0,1	1,030741
4,549167	0,1	0,999824
4,550833	0,1	1,015457
4,552500	0,1	0,979019
4,554167	0,1	0,989568
4,555833	0,1	1,004991
4,557500	0,1	0,948836
4,559167	0,1	0,968621
4,560833	0,1	1,007923
4,562500	0,1	0,958531
4,564167	0,1	0,984042
4,565833	0,1	0,997050
4,567500	0,1	0,989283
4,569167	0,1	0,979245
4,570833	0,1	0,966761
4,572500	0,1	0,936279
4,574167	0,1	0,982020
4,575833	0,1	0,987839
4,577500	0,1	0,941076
4,579167	0,1	0,948244
4,580833	0,1	0,942453
4,582500	0,1	0,925578
4,584167	0,1	0,934059
4,585833	0,1	0,968205
4,587500	0,1	0,951053
4,589167	0,1	0,936441
4,590833	0,1	0,920140
4,592500	0,1	0,945452
4,594167	0,1	0,925523
4,595833	0,1	0,932797
4,597500	0,1	0,917930
4,599167	0,1	0,951988
4,600833	0,1	0,899070
4,602500	0,1	0,937073
4,604167	0,1	0,903514
4,605833	0,1	0,943088
4,607500	0,1	0,876844
4,609167	0,1	0,890869
4,610833	0,1	0,900140
4,612500	0,1	0,906982
4,614167	0,1	0,916069
4,615833	0,1	0,920422
4,617500	0,1	0,873954
4,619167	0,1	0,887369
4,620833	0,1	0,919306
4,622500	0,1	0,875988
4,624167	0,1	0,880917
4,625833	0,1	0,876996
4,627500	0,1	0,878200
4,629167	0,1	0,923737
4,630833	0,1	0,869316
4,632500	0,1	0,874297
4,634167	0,1	0,857182
4,635833	0,1	0,896496
4,637500	0,1	0,872620
4,639167	0,1	0,858335
4,640833	0,1	0,828383
4,642500	0,1	0,881939
4,644167	0,1	0,884503
4,645833	0,1	0,849391
4,647500	0,1	0,873032
4,649167	0,1	0,814704
4,650833	0,1	0,880615
4,652500	0,1	0,831023
4,654167	0,1	0,856816
4,655833	0,1	0,828164
4,657500	0,1	0,846289
4,659167	0,1	0,840828
4,660833	0,1	0,813341
4,662500	0,1	0,843719
4,664167	0,1	0,857837
4,665833	0,1	0,845324
4,667500	0,1	0,837361
4,669167	0,1	0,845305
4,670833	0,1	0,825513
4,672500	0,1	0,871616
4,674167	0,1	0,833192
4,675833	0,1	0,825492
4,677500	0,1	0,816187
4,679167	0,1	0,797258
4,680833	0,1	0,825569
4,682500	0,1	0,786770
4,684167	0,1	0,846597
4,685833	0,1	0,808910
4,687500	0,1	0,812448
4,689167	0,1	0,807069
4,690833	0,1	0,797815
4,692500	0,1	0,796896
4,694167	0,1	0,791788
4,695833	0,1	0,838962
4,697500	0,1	0,773465
4,699167	0,1	0,804563
4,700833	0,1	0,807287
4,702500	0,1	0,801126
4,704167	0,1	0,800699
4,705833	0,1	0,785557
4,707500	0,1	0,809507
4,709167	0,1	0,790516
4,710833	0,1	0,784842
4,712500	0,1	0,823137
4,714167	0,1	0,806460
4,715833	0,1	0,765275
4,717500	0,1	0,790863
4,719167	0,1	0,799492
4,720833	0,1	0,792618
4,722500	0,1	0,768242
4,724167	0,1	0,745084
4,725833	0,1	0,777328
4,727500	0,1	0,773567
4,729167	0,1	0,749855
4,730833	0,1	0,754006
4,732500	0,1	0,779605
4,734167	0,1	0,788660
4,735833	0,1	0,765475
4,737500	0,1	0,765655
4,739167	0,1	0,771071
4,740833	0,1	0,777251
4,742500	0,1	0,757341
4,744167	0,1	0,769134
4,745833	0,1	0,786349
4,747500	0,1	0,780344
4,749167	0,1	0,771448
4,750833	0,1	0,786078
4,752500	0,1	0,721766
4,754167	0,1	0,757089
4,755833	0,1	0,751040
4,757500	0,1	0,766262
4,759167	0,1	0,785753
4,760833	0,1	0,770397
4,762500	0,1	0,712155
4,764167	0,1	0,747344
4,765833	0,1	0,697674
4,767500	0,1	0,747766
4,769167	0,1	0,756469
4,770833	0,1	0,785818
4,772500	0,1	0,722565
4,774167	0,1	0,777816
4,775833	0,1	0,734496
4,777500	0,1	0,711606
4,779167	0,1	0,752591
4,780833	0,1	0,736525
4,782500	0,1	0,736453
4,784167	0,1	0,756209
4,785833	0,1	0,770813
4,787500	0,1	0,732304
4,789167	0,1	0,763425
4,790833	0,1	0,759985
4,792500	0,1	0,757830
4,794167	0,1	0,724307
4,795833	0,1	0,708582
4,797500	0,1	0,746121
4,799167	0,1	0,692072
4,800833	0,1	0,716978
4,802500	0,1	0,695952
4,804167	0,1	0,727397
4,805833	0,1	0,718411
4,807500	0,1	0,759178
4,809167	0,1	0,710660
4,810833	0,1	0,729420
4,812500	0,1	0,722349
4,814167	0,1	0,724214
4,815833	0,1	0,706512
4,817500	0,1	0,738197
4,819167	0,1	0,735637
4,820833	0,1	0,691442
4,822500	0,1	0,706977
4,824167	0,1	0,731390
4,825833	0,1	0,727951
4,827500	0,1	0,709498
4,829167	0,1	0,702196
4,830833	0,1	0,741131
4,832500	0,1	0,725816
4,834167	0,1	0,716237
4,835833	0,1	0,707493
4,837500	0,1	0,700906
4,839167	0,1	0,720424
4,840833	0,1	0,710806
4,842500	0,1	0,714095
4,844167	0,1	0,732036
4,845833	0,1	0,688321
4,847500	0,1	0,685154
4,849167	0,1	0,697369
4,850833	0,1	0,737837
4,852500	0,1	0,695109
4,854167	0,1	0,667609
4,855833	0,1	0,709945
4,857500	0,1	0,692948
4,859167	0,1	0,719115
4,860833	0,1	0,711960
4,862500	0,1	0,720004
4,864167	0,1	0,696972
4,865833	0,1	0,712954
4,867500	0,1	0,685834
4,869167	0,1	0,690822
4,870833	0,1	0,710866
4,872500	0,1	0,640933
4,874167	0,1	0,709834
4,875833	0,1	0,706221
4,877500	0,1	0,706933
4,879167	0,1	0,698241
4,880833	0,1	0,654366
4,882500	0,1	0,725266
4,884167	0,1	0,687522
4,885833	0,1	0,692432
4,887500	0,1	0,693048
4,889167	0,1	0,694079
4,890833	0,1	0,713514
4,892500	0,1	0,713874
4,894167	0,1	0,663638
4,895833	0,1	0,723488
4,897500	0,1	0,654566
4,899167	0,1	0,688198
4,900833	0,1	0,731417
4,902500	0,1	0,681497
4,904167	0,1	0,694298
4,905833	0,1	0,694146
4,907500	0,1	0,696341
4,909167	0,1	0,751007
4,910833	0,1	0,687461
4,912500	0,1	0,678262
4,914167	0,1	0,745504
4,915833	0,1	0,710203
4,917500	0,1	0,693033
4,919167	0,1	0,714176
4,920833	0,1	0,675584
4,922500	0,1	0,694449
4,924167	0,1	0,747646
4,925833	0,1	0,772237
4,927500	0,1	0,707593
4,929167	0,1	0,718812
4,930833	0,1	0,729864
4,932500	0,1	0,694327
4,934167	0,1	0,716111
4,935833	0,1	0,727370
4,937500	0,1	0,687263
4,939167	0,1	0,706658
4,940833	0,1	0,684783
4,942500	0,1	0,683488
4,944167	0,1	0,670013
4,945833	0,1	0,687644
4,947500	0,1	0,712037
4,949167	0,1	0,736466
4,950833	0,1	0,703358
4,952500	0,1	0,713688
4,954167	0,1	0,694171
4,955833	0,1	0,697746
4,957500	0,1	0,675022
4,959167	0,1	0,709589
4,960833	0,1	0,710330
4,962500	0,1	0,719187
4,964167	0,1	0,689473
4,965833	0,1	0,690651
4,967500	0,1	0,683645
4,969167	0,1	0,732232
4,970833	0,1	0,669872
4,972500	0,1	0,710658
4,974167	0,1	0,694083
4,975833	0,1	0,705978
4,977500	0,1	0,720409
4,979167	0,1	0,699676
4,980833	0,1	0,689093
4,982500	0,1	0,691363
4,984167	0,1	0,705589
4,985833	0,1	0,673532
4,987500	0,1	0,692109
4,989167	0,1	0,669015
4,990833	0,1	0,751374
4,992500	0,1	0,696335
4,994167	0,1	0,694069
4,995833	0,1	0,701770
4,997500	0,1	0,704946
4,999167	0,1	0,701483
5,000833	0,1	0,686649
5,002500	0,1	0,746441
5,004167	0,1	0,699693
5,005833	0,1	0,715842
5,007500	0,1	0,677961
5,009167	0,1	0,711083
5,010833	0,1	0,669307
5,012500	0,1	0,663783
5,014167	0,1	0,695534
5,015833	0,1	0,732457
5,017500	0,1	0,690748
5,019167	0,1	0,686321
5,020833	0,1	0,679859
5,022500	0,1	0,713818
5,024167	0,1	0,678048
5,025833	0,1	0,655133
5,027500	0,1	0,659063
5,029167	0,1	0,701252
5,030833	0,1	0,714775
5,032500	0,1	0,700725
5,034167	0,1	0,691778
5,035833	0,1	0,687157
5,037500	0,1	0,690295
5,039167	0,1	0,707746
5,040833	0,1	0,690128
5,042500	0,1	0,670477
5,044167	0,1	0,691223
5,045833	0,1	0,674019
5,047500	0,1	0,670453
5,049167	0,1	0,669924
5,050833	0,1	0,673301
5,052500	0,1	0,690849
5,054167	0,1	0,693163
5,055833	0,1	0,651738
5,057500	0,1	0,675472
5,059167	0,1	0,712152
5,060833	0,1	0,664130
5,062500	0,1	0,654995
5,064167	0,1	0,673538
5,065833	0,1	0,676729
5,067500	0,1	0,649443
5,069167	0,1	0,678696
5,070833	0,1	0,652755
5,072500	0,1	0,656838
5,074167	0,1	0,719923
5,075833	0,1	0,674978
5,077500	0,1	0,719725
5,079167	0,1	0,688251
5,080833	0,1	0,667675
5,082500	0,1	0,696044
5,084167	0,1	0,671085
5,085833	0,1	0,651751
5,087500	0,1	0,647435
5,089167	0,1	0,679378
5,090833	0,1	0,661206
5,092500	0,1	0,673454
5,094167	0,1	0,699051
5,095833	0,1	0,680777
5,097500	0,1	0,650397
5,099167	0,1	0,674202
5,100833	0,1	0,648393
5,102500	0,1	0,687234
5,104167	0,1	0,645172
5,105833	0,1	0,703626
5,107500	0,1	0,698565
5,109167	0,1	0,664127
5,110833	0,1	0,679719
5,112500	0,1	0,713325
5,114167	0,1	0,661540
5,115833	0,1	0,643723
5,117500	0,1	0,641516
5,119167	0,1	0,637182
5,120833	0,1	0,665757
5,122500	0,1	0,644416
5,124167	0,1	0,638848
5,125833	0,1	0,684227
5,127500	0,1	0,695066
5,129167	0,1	0,648841
5,130833	0,1	0,670804
5,132500	0,1	0,635294
5,134167	0,1	0,625286
5,135833	0,1	0,651740
5,137500	0,1	0,634403
5,139167	0,1	0,650070
5,140833	0,1	0,674606
5,142500	0,1	0,665757
5,144167	0,1	0,634272
5,145833	0,1	0,644564
5,147500	0,1	0,633622
5,149167	0,1	0,647873
5,150833	0,1	0,667647
5,152500	0,1	0,672782
5,154167	0,1	0,629250
5,155833	0,1	0,656833
5,157500	0,1	0,644367
5,159167	0,1	0,673893
5,160833	0,1	0,659617
5,162500	0,1	0,631692
5,164167	0,1	0,658229
5,165833	0,1	0,635474
5,167500	0,1	0,638760
5,169167	0,1	0,607494
5,170833	0,1	0,637772
5,172500	0,1	0,670705
5,174167	0,1	0,608616
5,175833	0,1	0,609689
5,177500	0,1	0,619428
5,179167	0,1	0,582880
5,180833	0,1	0,647082
5,182500	0,1	0,606630
5,184167	0,1	0,596774
5,185833	0,1	0,643506
5,187500	0,1	0,624326
5,189167	0,1	0,588416
5,190833	0,1	0,604150
5,192500	0,1	0,646375
5,194167	0,1	0,630842
5,195833	0,1	0,592911
5,197500	0,1	0,590786
5,199167	0,1	0,625227
5,200833	0,1	0,667613
5,202500	0,1	0,610880
5,204167	0,1	0,618005
5,205833	0,1	0,594708
5,207500	0,1	0,587476
5,209167	0,1	0,587165
5,210833	0,1	0,605748
5,212500	0,1	0,579918
5,214167	0,1	0,597170
5,215833	0,1	0,623410
5,217500	0,1	0,585415
5,219167	0,1	0,599147
5,220833	0,1	0,637972
5,222500	0,1	0,624991
5,224167	0,1	0,604180
5,225833	0,1	0,577565
5,227500	0,1	0,600811
5,229167	0,1	0,605975
5,230833	0,1	0,597083
5,232500	0,1	0,590168
5,234167	0,1	0,573626
5,235833	0,1	0,582777
5,237500	0,1	0,602013
5,239167	0,1	0,586055
5,240833	0,1	0,573491
5,242500	0,1	0,610258
5,244167	0,1	0,603376
5,245833	0,1	0,568690
5,247500	0,1	0,591358
5,249167	0,1	0,594654
5,250833	0,1	0,574668
5,252500	0,1	0,581091
5,254167	0,1	0,600764
5,255833	0,1	0,569445
5,257500	0,1	0,623859
5,259167	0,1	0,579814
5,260833	0,1	0,601322
5,262500	0,1	0,594791
5,264167	0,1	0,582453
5,265833	0,1	0,583047
5,267500	0,1	0,591320
5,269167	0,1	0,579914
5,270833	0,1	0,565041
5,272500	0,1	0,590559
5,274167	0,1	0,584185
5,275833	0,1	0,565863
5,277500	0,1	0,605388
5,279167	0,1	0,577850
5,280833	0,1	0,572334
5,282500	0,1	0,604544
5,284167	0,1	0,566847
5,285833	0,1	0,559967
5,287500	0,1	0,555051
5,289167	0,1	0,556406
5,290833	0,1	0,581173
5,292500	0,1	0,554612
5,294167	0,1	0,581974
5,295833	0,1	0,581671
5,297500	0,1	0,529450
5,299167	0,1	0,533526
5,300833	0,1	0,581768
5,302500	0,1	0,542678
5,304167	0,1	0,602756
5,305833	0,1	0,588746
5,307500	0,1	0,550860
5,309167	0,1	0,548004
5,310833	0,1	0,598579
5,312500	0,1	0,543436
5,314167	0,1	0,559317
5,315833	0,1	0,559787
5,317500	0,1	0,535046
5,319167	0,1	0,542109
5,320833	0,1	0,541111
5,322500	0,1	0,551116
5,324167	0,1	0,555650
5,325833	0,1	0,576548
5,327500	0,1	0,554324
5,329167	0,1	0,527463
5,330833	0,1	0,562914
5,332500	0,1	0,568705
5,334167	0,1	0,546740
5,335833	0,1	0,515904
5,337500	0,1	0,550818
5,339167	0,1	0,566232
5,340833	0,1	0,577374
5,342500	0,1	0,552256
5,344167	0,1	0,536244
5,345833	0,1	0,549955
5,347500	0,1	0,577996
5,349167	0,1	0,534139
5,350833	0,1	0,549334
5,352500	0,1	0,551605
5,354167	0,1	0,554429
5,355833	0,1	0,577104
5,357500	0,1	0,526624
5,359167	0,1	0,528993
5,360833	0,1	0,512632
5,362500	0,1	0,536902
5,364167	0,1	0,554515
5,365833	0,1	0,514350
5,367500	0,1	0,553731
5,369167	0,1	0,550537
5,370833	0,1	0,536644
5,372500	0,1	0,558961
5,374167	0,1	0,529465
5,375833	0,1	0,544419
5,377500	0,1	0,513924
5,379167	0,1	0,524431
5,380833	0,1	0,556065
5,382500	0,1	0,517283
5,384167	0,1	0,511917
5,385833	0,1	0,583211
5,387500	0,1	0,535029
5,389167	0,1	0,507188
5,390833	0,1	0,489108
5,392500	0,1	0,555880
5,394167	0,1	0,513394
5,395833	0,1	0,564376
5,397500	0,1	0,462407
5,399167	0,1	0,523663
5,400833	0,1	0,493425
5,402500	0,1	0,510822
5,404167	0,1	0,557174
5,405833	0,1	0,544849
5,407500	0,1	0,503056
5,409167	0,1	0,507536
5,410833	0,1	0,501202
5,412500	0,1	0,502132
5,414167	0,1	0,510158
5,415833	0,1	0,526875
5,417500	0,1	0,516454
5,419167	0,1	0,485200
5,420833	0,1	0,506374
5,422500	0,1	0,496822
5,424167	0,1	0,523805
5,425833	0,1	0,516921
5,427500	0,1	0,535190
5,429167	0,1	0,505098
5,430833	0,1	0,492776
5,432500	0,1	0,519892
5,434167	0,1	0,502405
5,435833	0,1	0,508225
5,437500	0,1	0,485776
5,439167	0,1	0,479501
5,440833	0,1	0,497194
5,442500	0,1	0,491351
5,444167	0,1	0,470456
5,445833	0,1	0,493678
5,447500	0,1	0,532896
5,449167	0,1	0,495316
5,450833	0,1	0,508467
5,452500	0,1	0,529610
5,454167	0,1	0,464797
5,455833	0,1	0,484810
5,457500	0,1	0,481546
5,459167	0,1	0,485725
5,460833	0,1	0,502573
5,462500	0,1	0,452145
5,464167	0,1	0,476648
5,465833	0,1	0,484746
5,467500	0,1	0,470501
5,469167	0,1	0,506083
5,470833	0,1	0,449302
5,472500	0,1	0,492384
5,474167	0,1	0,472079
5,475833	0,1	0,505860
5,477500	0,1	0,480108
5,479167	0,1	0,453006
5,480833	0,1	0,503300
5,482500	0,1	0,509224
5,484167	0,1	0,497023
5,485833	0,1	0,510378
5,487500	0,1	0,471572
5,489167	0,1	0,527888
5,490833	0,1	0,422503
5,492500	0,1	0,485444
5,494167	0,1	0,473433
5,495833	0,1	0,522598
5,497500	0,1	0,442529
5,499167	0,1	0,455774
5,500833	0,1	0,512613
5,502500	0,1	0,488556
5,504167	0,1	0,478857
5,505833	0,1	0,491326
5,507500	0,1	0,469322
5,509167	0,1	0,479430
5,510833	0,1	0,477433
5,512500	0,1	0,474766
5,514167	0,1	0,494859
5,515833	0,1	0,490839
5,517500	0,1	0,508687
5,519167	0,1	0,466061
5,520833	0,1	0,497302
5,522500	0,1	0,476659
5,524167	0,1	0,510618
5,525833	0,1	0,464194
5,527500	0,1	0,459448
5,529167	0,1	0,436913
5,530833	0,1	0,482981
5,532500	0,1	0,456562
5,534167	0,1	0,501301
5,535833	0,1	0,479950
5,537500	0,1	0,475723
5,539167	0,1	0,457608
5,540833	0,1	0,459825
5,542500	0,1	0,481474
5,544167	0,1	0,440049
5,545833	0,1	0,489516
5,547500	0,1	0,480724
5,549167	0,1	0,498861
5,550833	0,1	0,467082
5,552500	0,1	0,480764
5,554167	0,1	0,473520
5,555833	0,1	0,457250
5,557500	0,1	0,465916
5,559167	0,1	0,430890
5,560833	0,1	0,443260
5,562500	0,1	0,494050
5,564167	0,1	0,495375
5,565833	0,1	0,483104
5,567500	0,1	0,469965
5,569167	0,1	0,461008
5,570833	0,1	0,473252
5,572500	0,1	0,467384
5,574167	0,1	0,458604
5,575833	0,1	0,473717
5,577500	0,1	0,434360
5,579167	0,1	0,451108
5,580833	0,1	0,452379
5,582500	0,1	0,444332
5,584167	0,1	0,419640
5,585833	0,1	0,495712
5,587500	0,1	0,431519
5,589167	0,1	0,500115
5,590833	0,1	0,438145
5,592500	0,1	0,461865
5,594167	0,1	0,424131
5,595833	0,1	0,451059
5,597500	0,1	0,490541
5,599167	0,1	0,448629
5,600833	0,1	0,420971
5,602500	0,1	0,452659
5,604167	0,1	0,491676
5,605833	0,1	0,415958
5,607500	0,1	0,463727
5,609167	0,1	0,467784
5,610833	0,1	0,479587
5,612500	0,1	0,485903
5,614167	0,1	0,429896
5,615833	0,1	0,442460
5,617500	0,1	0,459887
5,619167	0,1	0,454091
5,620833	0,1	0,445113
5,622500	0,1	0,462424
5,624167	0,1	0,449314
5,625833	0,1	0,472136
5,627500	0,1	0,462984
5,629167	0,1	0,437112
5,630833	0,1	0,459266
5,632500	0,1	0,434154
5,634167	0,1	0,381721
5,635833	0,1	0,460608
5,637500	0,1	0,462138
5,639167	0,1	0,442423
5,640833	0,1	0,465002
5,642500	0,1	0,485899
5,644167	0,1	0,451743
5,645833	0,1	0,451065
5,647500	0,1	0,407463
5,649167	0,1	0,484085
5,650833	0,1	0,430960
5,652500	0,1	0,442972
5,654167	0,1	0,433307
5,655833	0,1	0,487269
5,657500	0,1	0,454543
5,659167	0,1	0,473559
5,660833	0,1	0,456451
5,662500	0,1	0,473584
5,664167	0,1	0,421647
5,665833	0,1	0,460640
5,667500	0,1	0,471830
5,669167	0,1	0,429242
5,670833	0,1	0,462017
5,672500	0,1	0,457983
5,674167	0,1	0,470960
5,675833	0,1	0,503683
5,677500	0,1	0,474040
5,679167	0,1	0,451091
5,680833	0,1	0,504011
5,682500	0,1	0,467724
5,684167	0,1	0,450804
5,685833	0,1	0,473004
5,687500	0,1	0,492547
5,689167	0,1	0,462212
5,690833	0,1	0,454291
5,692500	0,1	0,454023
5,694167	0,1	0,466269
5,695833	0,1	0,474364
5,697500	0,1	0,460540
5,699167	0,1	0,477119
5,700833	0,1	0,484813
5,702500	0,1	0,442183
5,704167	0,1	0,445528
5,705833	0,1	0,475648
5,707500	0,1	0,478987
5,709167	0,1	0,482456
5,710833	0,1	0,514353
5,712500	0,1	0,499247
5,714167	0,1	0,475059
5,715833	0,1	0,506616
5,717500	0,1	0,467662
5,719167	0,1	0,485032
5,720833	0,1	0,486325
5,722500	0,1	0,435185
5,724167	0,1	0,470356
5,725833	0,1	0,480922
5,727500	0,1	0,465764
5,729167	0,1	0,479608
5,730833	0,1	0,436671
5,732500	0,1	0,454437
5,734167	0,1	0,466826
5,735833	0,1	0,420512
5,737500	0,1	0,494756
5,739167	0,1	0,476882
5,740833	0,1	0,514352
5,742500	0,1	0,478019
5,744167	0,1	0,486813
5,745833	0,1	0,475746
5,747500	0,1	0,485324
5,749167	0,1	0,452495
5,750833	0,1	0,462114
5,752500	0,1	0,459139
5,754167	0,1	0,442779
5,755833	0,1	0,484559
5,757500	0,1	0,461453
5,759167	0,1	0,475806
5,760833	0,1	0,464786
5,762500	0,1	0,493277
5,764167	0,1	0,482438
5,765833	0,1	0,481812
5,767500	0,1	0,446428
5,769167	0,1	0,471424
5,770833	0,1	0,477209
5,772500	0,1	0,497371
5,774167	0,1	0,483683
5,775833	0,1	0,475790
5,777500	0,1	0,474100
5,779167	0,1	0,431157
5,780833	0,1	0,463752
5,782500	0,1	0,466850
5,784167	0,1	0,452690
5,785833	0,1	0,488608
5,787500	0,1	0,486371
5,789167	0,1	0,507664
5,790833	0,1	0,515805
5,792500	0,1	0,473665
5,794167	0,1	0,436825
5,795833	0,1	0,464821
5,797500	0,1	0,466850
5,799167	0,1	0,484720
5,800833	0,1	0,460387
5,802500	0,1	0,500633
5,804167	0,1	0,490263
5,805833	0,1	0,488750
5,807500	0,1	0,509531
5,809167	0,1	0,476641
5,810833	0,1	0,507017
5,812500	0,1	0,473929
5,814167	0,1	0,469654
5,815833	0,1	0,480187
5,817500	0,1	0,527779
5,819167	0,1	0,478866
5,820833	0,1	0,506484
5,822500	0,1	0,517138
5,824167	0,1	0,498380
5,825833	0,1	0,495065
5,827500	0,1	0,455275
5,829167	0,1	0,457869
5,830833	0,1	0,489653
5,832500	0,1	0,468901
5,834167	0,1	0,465274
5,835833	0,1	0,525688
5,837500	0,1	0,501094
5,839167	0,1	0,494042
5,840833	0,1	0,503931
5,842500	0,1	0,461502
5,844167	0,1	0,469893
5,845833	0,1	0,493657
5,847500	0,1	0,476504
5,849167	0,1	0,446048
5,850833	0,1	0,471378
5,852500	0,1	0,466028
5,854167	0,1	0,470895
5,855833	0,1	0,470630
5,857500	0,1	0,453402
5,859167	0,1	0,487673
5,860833	0,1	0,478591
5,862500	0,1	0,492348
5,864167	0,1	0,489305
5,865833	0,1	0,464523
5,867500	0,1	0,474031
5,869167	0,1	0,475788
5,870833	0,1	0,467787
5,872500	0,1	0,488079
5,874167	0,1	0,463365
5,875833	0,1	0,455558
5,877500	0,1	0,469625
5,879167	0,1	0,470942
5,880833	0,1	0,467408
5,882500	0,1	0,447426
5,884167	0,1	0,440752
5,885833	0,1	0,460465
5,887500	0,1	0,494121
5,889167	0,1	0,483749
5,890833	0,1	0,444163
5,892500	0,1	0,436416
5,894167	0,1	0,446661
5,895833	0,1	0,462646
5,897500	0,1	0,470429
5,899167	0,1	0,443626
5,900833	0,1	0,407792
5,902500	0,1	0,446430
5,904167	0,1	0,453443
5,905833	0,1	0,472028
5,907500	0,1	0,432982
5,909167	0,1	0,449127
5,910833	0,1	0,444108
5,912500	0,1	0,430553
5,914167	0,1	0,464109
5,915833	0,1	0,442310
5,917500	0,1	0,445708
5,919167	0,1	0,452154
5,920833	0,1	0,451757
5,922500	0,1	0,444042
5,924167	0,1	0,455821
5,925833	0,1	0,425130
5,927500	0,1	0,455817
5,929167	0,1	0,429712
5,930833	0,1	0,413612
5,932500	0,1	0,424277
5,934167	0,1	0,411810
5,935833	0,1	0,424324
5,937500	0,1	0,418611
5,939167	0,1	0,463707
5,940833	0,1	0,446335
5,942500	0,1	0,443330
5,944167	0,1	0,408839
5,945833	0,1	0,419053
5,947500	0,1	0,412051
5,949167	0,1	0,455103
5,950833	0,1	0,418376
5,952500	0,1	0,431434
5,954167	0,1	0,452773
5,955833	0,1	0,440712
5,957500	0,1	0,425481
5,959167	0,1	0,421013
5,960833	0,1	0,441503
5,962500	0,1	0,395860
5,964167	0,1	0,436054
5,965833	0,1	0,426794
5,967500	0,1	0,410654
5,969167	0,1	0,439767
5,970833	0,1	0,431439
5,972500	0,1	0,407904
5,974167	0,1	0,430654
5,975833	0,1	0,431080
5,977500	0,1	0,408036
5,979167	0,1	0,452457
5,980833	0,1	0,434466
5,982500	0,1	0,431839
5,984167	0,1	0,392702
5,985833	0,1	0,410424
5,987500	0,1	0,425455
5,989167	0,1	0,402077
5,990833	0,1	0,433989
5,992500	0,1	0,424238
5,994167	0,1	0,420412
5,995833	0,1	0,444126
5,997500	0,1	0,427753
5,999167	0,1	0,396277
6,000833	0,1	0,422675
