File Path	chrom://chromeleon01/ikbm_chromeleon/2022/Rezex/Esteban/220612_chitin_4_7.seq/570.smp/UV_VIS_1.channel/UV_VIS_1.chm
Channel	UV_VIS_1

Injection Information:
Data Vault	ikbm_chromeleon
Injection	Sc10D_24h-ChiBI_NA
Injection Number	50
Position	GA5
Comment	
Processing Method	New ProcMethod
Instrument Method	Short_Rezex_6min_194nm
Type	Unknown
Status	Finished
Injection Date	12.06.2022
Injection Time	22:31:34
Injection Volume (µl)	8,000
Dilution Factor	1,0000
Weight	1,0000

Chromatogram Data Information:
Time Min. (min)	0,000833
Time Max. (min)	6,000833
Data Points	3601
Detector	UV
Generating Data System	Chromeleon 7.2.9.11323
Exporting Data System	Chromeleon 7.2.9.0
Operator	Instrument Controller
Signal Quantity	Absorbance
Signal Unit	mAU
Signal Min.	-0,142318
Signal Max.	42,482894
Channel	UV_VIS_1
Driver Name	VWD3000.dll
Channel Type	Evaluation
Min. Step (s)	0,1
Max. Step (s)	0,1
Average Step (s)	0,1

Signal Parameter Information:
Signal Info	WVL:194 nm

Chromatogram Data:
Time (min)	Step (s)	Value (mAU)
0,000833	n.a.	0,003051
0,002500	0,1	-0,039312
0,004167	0,1	-0,025516
0,005833	0,1	-0,008335
0,007500	0,1	-0,020533
0,009167	0,1	0,021026
0,010833	0,1	-0,012438
0,012500	0,1	-0,007198
0,014167	0,1	-0,015708
0,015833	0,1	-0,004911
0,017500	0,1	-0,025912
0,019167	0,1	-0,023026
0,020833	0,1	0,004176
0,022500	0,1	-0,006196
0,024167	0,1	-0,024244
0,025833	0,1	-0,041318
0,027500	0,1	-0,019963
0,029167	0,1	-0,042761
0,030833	0,1	-0,037209
0,032500	0,1	-0,042072
0,034167	0,1	-0,053121
0,035833	0,1	-0,035548
0,037500	0,1	-0,061745
0,039167	0,1	-0,045680
0,040833	0,1	-0,090076
0,042500	0,1	-0,055288
0,044167	0,1	-0,087923
0,045833	0,1	-0,076619
0,047500	0,1	-0,041190
0,049167	0,1	-0,026234
0,050833	0,1	-0,056032
0,052500	0,1	-0,064302
0,054167	0,1	-0,032147
0,055833	0,1	-0,023407
0,057500	0,1	-0,009491
0,059167	0,1	-0,034067
0,060833	0,1	-0,027274
0,062500	0,1	0,014734
0,064167	0,1	-0,022306
0,065833	0,1	-0,036185
0,067500	0,1	-0,035363
0,069167	0,1	-0,033786
0,070833	0,1	-0,011674
0,072500	0,1	-0,022335
0,074167	0,1	-0,038426
0,075833	0,1	-0,003451
0,077500	0,1	-0,002931
0,079167	0,1	-0,023665
0,080833	0,1	-0,039764
0,082500	0,1	-0,003230
0,084167	0,1	0,002580
0,085833	0,1	0,021074
0,087500	0,1	0,000098
0,089167	0,1	0,012340
0,090833	0,1	0,003651
0,092500	0,1	0,021942
0,094167	0,1	0,048217
0,095833	0,1	0,003839
0,097500	0,1	-0,021579
0,099167	0,1	0,020423
0,100833	0,1	0,018836
0,102500	0,1	-0,013396
0,104167	0,1	0,023581
0,105833	0,1	-0,035705
0,107500	0,1	-0,028538
0,109167	0,1	0,005376
0,110833	0,1	0,001450
0,112500	0,1	-0,022688
0,114167	0,1	-0,038559
0,115833	0,1	-0,023475
0,117500	0,1	-0,025313
0,119167	0,1	0,016934
0,120833	0,1	-0,016328
0,122500	0,1	-0,004466
0,124167	0,1	0,000092
0,125833	0,1	-0,022309
0,127500	0,1	0,018157
0,129167	0,1	-0,025417
0,130833	0,1	-0,020581
0,132500	0,1	-0,001936
0,134167	0,1	-0,006576
0,135833	0,1	-0,012956
0,137500	0,1	-0,024335
0,139167	0,1	-0,031121
0,140833	0,1	-0,037030
0,142500	0,1	-0,010319
0,144167	0,1	-0,032226
0,145833	0,1	0,013109
0,147500	0,1	0,001228
0,149167	0,1	0,027253
0,150833	0,1	0,026526
0,152500	0,1	-0,018484
0,154167	0,1	0,012136
0,155833	0,1	0,026232
0,157500	0,1	0,039996
0,159167	0,1	0,020172
0,160833	0,1	0,023946
0,162500	0,1	0,024301
0,164167	0,1	0,039862
0,165833	0,1	0,018637
0,167500	0,1	0,026013
0,169167	0,1	0,014434
0,170833	0,1	0,012385
0,172500	0,1	0,025209
0,174167	0,1	0,044329
0,175833	0,1	-0,008698
0,177500	0,1	0,019316
0,179167	0,1	-0,004259
0,180833	0,1	0,029206
0,182500	0,1	0,004745
0,184167	0,1	0,023519
0,185833	0,1	-0,012039
0,187500	0,1	0,054655
0,189167	0,1	0,040224
0,190833	0,1	0,045044
0,192500	0,1	0,006080
0,194167	0,1	0,017672
0,195833	0,1	0,038281
0,197500	0,1	0,029373
0,199167	0,1	0,052531
0,200833	0,1	0,022153
0,202500	0,1	0,022234
0,204167	0,1	0,017789
0,205833	0,1	0,045704
0,207500	0,1	0,018061
0,209167	0,1	0,010831
0,210833	0,1	0,019142
0,212500	0,1	0,048328
0,214167	0,1	0,028910
0,215833	0,1	0,036461
0,217500	0,1	0,013281
0,219167	0,1	0,039614
0,220833	0,1	0,074852
0,222500	0,1	0,020912
0,224167	0,1	0,045329
0,225833	0,1	0,027063
0,227500	0,1	0,030527
0,229167	0,1	0,007077
0,230833	0,1	0,000162
0,232500	0,1	0,038655
0,234167	0,1	0,050466
0,235833	0,1	0,050871
0,237500	0,1	0,053226
0,239167	0,1	0,020419
0,240833	0,1	0,053930
0,242500	0,1	0,042357
0,244167	0,1	0,013681
0,245833	0,1	0,064908
0,247500	0,1	0,043673
0,249167	0,1	0,076763
0,250833	0,1	0,042495
0,252500	0,1	0,063559
0,254167	0,1	0,082549
0,255833	0,1	0,077707
0,257500	0,1	0,029695
0,259167	0,1	0,068380
0,260833	0,1	0,084995
0,262500	0,1	0,089155
0,264167	0,1	0,006270
0,265833	0,1	0,070641
0,267500	0,1	0,063299
0,269167	0,1	0,072900
0,270833	0,1	0,039272
0,272500	0,1	0,041687
0,274167	0,1	0,037221
0,275833	0,1	0,060668
0,277500	0,1	0,067098
0,279167	0,1	0,039981
0,280833	0,1	0,052179
0,282500	0,1	0,045446
0,284167	0,1	0,047091
0,285833	0,1	0,092168
0,287500	0,1	0,022542
0,289167	0,1	0,061578
0,290833	0,1	0,061385
0,292500	0,1	0,060231
0,294167	0,1	0,062786
0,295833	0,1	0,042026
0,297500	0,1	0,080053
0,299167	0,1	0,039585
0,300833	0,1	0,081431
0,302500	0,1	0,077129
0,304167	0,1	0,076484
0,305833	0,1	0,077195
0,307500	0,1	0,083130
0,309167	0,1	0,076307
0,310833	0,1	0,079105
0,312500	0,1	0,079974
0,314167	0,1	0,071704
0,315833	0,1	0,097198
0,317500	0,1	0,097250
0,319167	0,1	0,084822
0,320833	0,1	0,069949
0,322500	0,1	0,078392
0,324167	0,1	0,072326
0,325833	0,1	0,108070
0,327500	0,1	0,079758
0,329167	0,1	0,109916
0,330833	0,1	0,077336
0,332500	0,1	0,084175
0,334167	0,1	0,074507
0,335833	0,1	0,084863
0,337500	0,1	0,108939
0,339167	0,1	0,075024
0,340833	0,1	0,100622
0,342500	0,1	0,081312
0,344167	0,1	0,099779
0,345833	0,1	0,086513
0,347500	0,1	0,079819
0,349167	0,1	0,083798
0,350833	0,1	0,109186
0,352500	0,1	0,108280
0,354167	0,1	0,081936
0,355833	0,1	0,083465
0,357500	0,1	0,109228
0,359167	0,1	0,068245
0,360833	0,1	0,079948
0,362500	0,1	0,091444
0,364167	0,1	0,118233
0,365833	0,1	0,092075
0,367500	0,1	0,111342
0,369167	0,1	0,136156
0,370833	0,1	0,097570
0,372500	0,1	0,140780
0,374167	0,1	0,157863
0,375833	0,1	0,149996
0,377500	0,1	0,111800
0,379167	0,1	0,138715
0,380833	0,1	0,112733
0,382500	0,1	0,106768
0,384167	0,1	0,099298
0,385833	0,1	0,146133
0,387500	0,1	0,089460
0,389167	0,1	0,119790
0,390833	0,1	0,089964
0,392500	0,1	0,133728
0,394167	0,1	0,143610
0,395833	0,1	0,124271
0,397500	0,1	0,149497
0,399167	0,1	0,122606
0,400833	0,1	0,101192
0,402500	0,1	0,131506
0,404167	0,1	0,153993
0,405833	0,1	0,119270
0,407500	0,1	0,132047
0,409167	0,1	0,122245
0,410833	0,1	0,174910
0,412500	0,1	0,138194
0,414167	0,1	0,153819
0,415833	0,1	0,110626
0,417500	0,1	0,184802
0,419167	0,1	0,143045
0,420833	0,1	0,138366
0,422500	0,1	0,112355
0,424167	0,1	0,103147
0,425833	0,1	0,142333
0,427500	0,1	0,158930
0,429167	0,1	0,162824
0,430833	0,1	0,153892
0,432500	0,1	0,141129
0,434167	0,1	0,162046
0,435833	0,1	0,178326
0,437500	0,1	0,196914
0,439167	0,1	0,113349
0,440833	0,1	0,149031
0,442500	0,1	0,174675
0,444167	0,1	0,144042
0,445833	0,1	0,157111
0,447500	0,1	0,185794
0,449167	0,1	0,185242
0,450833	0,1	0,151695
0,452500	0,1	0,173896
0,454167	0,1	0,186018
0,455833	0,1	0,161165
0,457500	0,1	0,148331
0,459167	0,1	0,173433
0,460833	0,1	0,212254
0,462500	0,1	0,247105
0,464167	0,1	0,202666
0,465833	0,1	0,189451
0,467500	0,1	0,226579
0,469167	0,1	0,209198
0,470833	0,1	0,205325
0,472500	0,1	0,226073
0,474167	0,1	0,203086
0,475833	0,1	0,182224
0,477500	0,1	0,183691
0,479167	0,1	0,228618
0,480833	0,1	0,168179
0,482500	0,1	0,233447
0,484167	0,1	0,241421
0,485833	0,1	0,177209
0,487500	0,1	0,216152
0,489167	0,1	0,209801
0,490833	0,1	0,205151
0,492500	0,1	0,241789
0,494167	0,1	0,194197
0,495833	0,1	0,251797
0,497500	0,1	0,194352
0,499167	0,1	0,208843
0,500833	0,1	0,200772
0,502500	0,1	0,211375
0,504167	0,1	0,227941
0,505833	0,1	0,247156
0,507500	0,1	0,219259
0,509167	0,1	0,199368
0,510833	0,1	0,195966
0,512500	0,1	0,226272
0,514167	0,1	0,253740
0,515833	0,1	0,242294
0,517500	0,1	0,242051
0,519167	0,1	0,256238
0,520833	0,1	0,238425
0,522500	0,1	0,250876
0,524167	0,1	0,254391
0,525833	0,1	0,261418
0,527500	0,1	0,240053
0,529167	0,1	0,235774
0,530833	0,1	0,291235
0,532500	0,1	0,246577
0,534167	0,1	0,271397
0,535833	0,1	0,276238
0,537500	0,1	0,254532
0,539167	0,1	0,244681
0,540833	0,1	0,240606
0,542500	0,1	0,285634
0,544167	0,1	0,314872
0,545833	0,1	0,258295
0,547500	0,1	0,249128
0,549167	0,1	0,284395
0,550833	0,1	0,252177
0,552500	0,1	0,306344
0,554167	0,1	0,278063
0,555833	0,1	0,260387
0,557500	0,1	0,311725
0,559167	0,1	0,276671
0,560833	0,1	0,321388
0,562500	0,1	0,299266
0,564167	0,1	0,299615
0,565833	0,1	0,282694
0,567500	0,1	0,276615
0,569167	0,1	0,315040
0,570833	0,1	0,340136
0,572500	0,1	0,304853
0,574167	0,1	0,327370
0,575833	0,1	0,309077
0,577500	0,1	0,340407
0,579167	0,1	0,342636
0,580833	0,1	0,328566
0,582500	0,1	0,317191
0,584167	0,1	0,300739
0,585833	0,1	0,316811
0,587500	0,1	0,310617
0,589167	0,1	0,331886
0,590833	0,1	0,328070
0,592500	0,1	0,333807
0,594167	0,1	0,367792
0,595833	0,1	0,346072
0,597500	0,1	0,335033
0,599167	0,1	0,354008
0,600833	0,1	0,332150
0,602500	0,1	0,377520
0,604167	0,1	0,336535
0,605833	0,1	0,327766
0,607500	0,1	0,379727
0,609167	0,1	0,355343
0,610833	0,1	0,396280
0,612500	0,1	0,389298
0,614167	0,1	0,394594
0,615833	0,1	0,347149
0,617500	0,1	0,403092
0,619167	0,1	0,387501
0,620833	0,1	0,382677
0,622500	0,1	0,404559
0,624167	0,1	0,371001
0,625833	0,1	0,380551
0,627500	0,1	0,397426
0,629167	0,1	0,384223
0,630833	0,1	0,407208
0,632500	0,1	0,382001
0,634167	0,1	0,433082
0,635833	0,1	0,418034
0,637500	0,1	0,452968
0,639167	0,1	0,433979
0,640833	0,1	0,459698
0,642500	0,1	0,424151
0,644167	0,1	0,447756
0,645833	0,1	0,437188
0,647500	0,1	0,445080
0,649167	0,1	0,428663
0,650833	0,1	0,440849
0,652500	0,1	0,440412
0,654167	0,1	0,456131
0,655833	0,1	0,446649
0,657500	0,1	0,452962
0,659167	0,1	0,484660
0,660833	0,1	0,506045
0,662500	0,1	0,481584
0,664167	0,1	0,496282
0,665833	0,1	0,491906
0,667500	0,1	0,495639
0,669167	0,1	0,491481
0,670833	0,1	0,478341
0,672500	0,1	0,468810
0,674167	0,1	0,503377
0,675833	0,1	0,486390
0,677500	0,1	0,512209
0,679167	0,1	0,519148
0,680833	0,1	0,568196
0,682500	0,1	0,542187
0,684167	0,1	0,525830
0,685833	0,1	0,522943
0,687500	0,1	0,567620
0,689167	0,1	0,565075
0,690833	0,1	0,552305
0,692500	0,1	0,548281
0,694167	0,1	0,548403
0,695833	0,1	0,550792
0,697500	0,1	0,561568
0,699167	0,1	0,558087
0,700833	0,1	0,549710
0,702500	0,1	0,591530
0,704167	0,1	0,579071
0,705833	0,1	0,577107
0,707500	0,1	0,604134
0,709167	0,1	0,612600
0,710833	0,1	0,568588
0,712500	0,1	0,620117
0,714167	0,1	0,615048
0,715833	0,1	0,611899
0,717500	0,1	0,640817
0,719167	0,1	0,610489
0,720833	0,1	0,681115
0,722500	0,1	0,640973
0,724167	0,1	0,638507
0,725833	0,1	0,680386
0,727500	0,1	0,648649
0,729167	0,1	0,697986
0,730833	0,1	0,701585
0,732500	0,1	0,714408
0,734167	0,1	0,699443
0,735833	0,1	0,716413
0,737500	0,1	0,705014
0,739167	0,1	0,689231
0,740833	0,1	0,737437
0,742500	0,1	0,734639
0,744167	0,1	0,711694
0,745833	0,1	0,764420
0,747500	0,1	0,745361
0,749167	0,1	0,734659
0,750833	0,1	0,763421
0,752500	0,1	0,740603
0,754167	0,1	0,744394
0,755833	0,1	0,765579
0,757500	0,1	0,779283
0,759167	0,1	0,780568
0,760833	0,1	0,785594
0,762500	0,1	0,778929
0,764167	0,1	0,748285
0,765833	0,1	0,801869
0,767500	0,1	0,849176
0,769167	0,1	0,769252
0,770833	0,1	0,785165
0,772500	0,1	0,848667
0,774167	0,1	0,789913
0,775833	0,1	0,795990
0,777500	0,1	0,810274
0,779167	0,1	0,785322
0,780833	0,1	0,826494
0,782500	0,1	0,820412
0,784167	0,1	0,802532
0,785833	0,1	0,825207
0,787500	0,1	0,846803
0,789167	0,1	0,824937
0,790833	0,1	0,858938
0,792500	0,1	0,835047
0,794167	0,1	0,884127
0,795833	0,1	0,856229
0,797500	0,1	0,857654
0,799167	0,1	0,854131
0,800833	0,1	0,844157
0,802500	0,1	0,919365
0,804167	0,1	0,881054
0,805833	0,1	0,907172
0,807500	0,1	0,868429
0,809167	0,1	0,900276
0,810833	0,1	0,919876
0,812500	0,1	0,868059
0,814167	0,1	0,944271
0,815833	0,1	0,920539
0,817500	0,1	0,862247
0,819167	0,1	0,944058
0,820833	0,1	0,942857
0,822500	0,1	0,914292
0,824167	0,1	0,960935
0,825833	0,1	0,936543
0,827500	0,1	0,949021
0,829167	0,1	0,951251
0,830833	0,1	0,969553
0,832500	0,1	0,992246
0,834167	0,1	0,966687
0,835833	0,1	0,977379
0,837500	0,1	0,962168
0,839167	0,1	1,022024
0,840833	0,1	0,978177
0,842500	0,1	0,941997
0,844167	0,1	0,973710
0,845833	0,1	1,012625
0,847500	0,1	1,059370
0,849167	0,1	1,028649
0,850833	0,1	1,064105
0,852500	0,1	1,067783
0,854167	0,1	1,064048
0,855833	0,1	1,051625
0,857500	0,1	1,006396
0,859167	0,1	1,091171
0,860833	0,1	1,108347
0,862500	0,1	1,099234
0,864167	0,1	1,082935
0,865833	0,1	1,121268
0,867500	0,1	1,125083
0,869167	0,1	1,115106
0,870833	0,1	1,103398
0,872500	0,1	1,111727
0,874167	0,1	1,112442
0,875833	0,1	1,120772
0,877500	0,1	1,143608
0,879167	0,1	1,160055
0,880833	0,1	1,174205
0,882500	0,1	1,163008
0,884167	0,1	1,167672
0,885833	0,1	1,193236
0,887500	0,1	1,185846
0,889167	0,1	1,200638
0,890833	0,1	1,243658
0,892500	0,1	1,201511
0,894167	0,1	1,237337
0,895833	0,1	1,247688
0,897500	0,1	1,241011
0,899167	0,1	1,236988
0,900833	0,1	1,243235
0,902500	0,1	1,288701
0,904167	0,1	1,256391
0,905833	0,1	1,270602
0,907500	0,1	1,284399
0,909167	0,1	1,319381
0,910833	0,1	1,354223
0,912500	0,1	1,341807
0,914167	0,1	1,307541
0,915833	0,1	1,369027
0,917500	0,1	1,348711
0,919167	0,1	1,357399
0,920833	0,1	1,373493
0,922500	0,1	1,355679
0,924167	0,1	1,394322
0,925833	0,1	1,429320
0,927500	0,1	1,402825
0,929167	0,1	1,385283
0,930833	0,1	1,422571
0,932500	0,1	1,440174
0,934167	0,1	1,391256
0,935833	0,1	1,451160
0,937500	0,1	1,486600
0,939167	0,1	1,472314
0,940833	0,1	1,493072
0,942500	0,1	1,487044
0,944167	0,1	1,521533
0,945833	0,1	1,481234
0,947500	0,1	1,510756
0,949167	0,1	1,554879
0,950833	0,1	1,551082
0,952500	0,1	1,572154
0,954167	0,1	1,556993
0,955833	0,1	1,613468
0,957500	0,1	1,608674
0,959167	0,1	1,611555
0,960833	0,1	1,603425
0,962500	0,1	1,649771
0,964167	0,1	1,668561
0,965833	0,1	1,645579
0,967500	0,1	1,672664
0,969167	0,1	1,662107
0,970833	0,1	1,736060
0,972500	0,1	1,674194
0,974167	0,1	1,714240
0,975833	0,1	1,742064
0,977500	0,1	1,725959
0,979167	0,1	1,761048
0,980833	0,1	1,767791
0,982500	0,1	1,781321
0,984167	0,1	1,833821
0,985833	0,1	1,818735
0,987500	0,1	1,829659
0,989167	0,1	1,819306
0,990833	0,1	1,844709
0,992500	0,1	1,882020
0,994167	0,1	1,853349
0,995833	0,1	1,886567
0,997500	0,1	1,934888
0,999167	0,1	1,951174
1,000833	0,1	1,944117
1,002500	0,1	1,937021
1,004167	0,1	1,993560
1,005833	0,1	1,998316
1,007500	0,1	1,998739
1,009167	0,1	2,088389
1,010833	0,1	2,048367
1,012500	0,1	2,037964
1,014167	0,1	2,092326
1,015833	0,1	2,081950
1,017500	0,1	2,119344
1,019167	0,1	2,160957
1,020833	0,1	2,157937
1,022500	0,1	2,185618
1,024167	0,1	2,221272
1,025833	0,1	2,237210
1,027500	0,1	2,194249
1,029167	0,1	2,251667
1,030833	0,1	2,282932
1,032500	0,1	2,315809
1,034167	0,1	2,314180
1,035833	0,1	2,334914
1,037500	0,1	2,361851
1,039167	0,1	2,371655
1,040833	0,1	2,393976
1,042500	0,1	2,411325
1,044167	0,1	2,416931
1,045833	0,1	2,471686
1,047500	0,1	2,491638
1,049167	0,1	2,473542
1,050833	0,1	2,504552
1,052500	0,1	2,549885
1,054167	0,1	2,625756
1,055833	0,1	2,674953
1,057500	0,1	2,754167
1,059167	0,1	2,795098
1,060833	0,1	2,884255
1,062500	0,1	3,017225
1,064167	0,1	3,212046
1,065833	0,1	3,394019
1,067500	0,1	3,649168
1,069167	0,1	4,071872
1,070833	0,1	4,490981
1,072500	0,1	5,022304
1,074167	0,1	5,667299
1,075833	0,1	6,465764
1,077500	0,1	7,356922
1,079167	0,1	8,408589
1,080833	0,1	9,560944
1,082500	0,1	10,941787
1,084167	0,1	12,438833
1,085833	0,1	14,110293
1,087500	0,1	15,898861
1,089167	0,1	17,857441
1,090833	0,1	19,822497
1,092500	0,1	21,876939
1,094167	0,1	23,982088
1,095833	0,1	26,124937
1,097500	0,1	28,233636
1,099167	0,1	30,286303
1,100833	0,1	32,262310
1,102500	0,1	34,071226
1,104167	0,1	35,788077
1,105833	0,1	37,332803
1,107500	0,1	38,648633
1,109167	0,1	39,832346
1,110833	0,1	40,754083
1,112500	0,1	41,550464
1,114167	0,1	42,068721
1,115833	0,1	42,357431
1,117500	0,1	42,482894
1,119167	0,1	42,406561
1,120833	0,1	42,184252
1,122500	0,1	41,770381
1,124167	0,1	41,152807
1,125833	0,1	40,537893
1,127500	0,1	39,711891
1,129167	0,1	38,724786
1,130833	0,1	37,740433
1,132500	0,1	36,675418
1,134167	0,1	35,461035
1,135833	0,1	34,337179
1,137500	0,1	33,098501
1,139167	0,1	31,862509
1,140833	0,1	30,552456
1,142500	0,1	29,318285
1,144167	0,1	28,084981
1,145833	0,1	26,899828
1,147500	0,1	25,688036
1,149167	0,1	24,500222
1,150833	0,1	23,405750
1,152500	0,1	22,328027
1,154167	0,1	21,342606
1,155833	0,1	20,338883
1,157500	0,1	19,447553
1,159167	0,1	18,528814
1,160833	0,1	17,782309
1,162500	0,1	16,950862
1,164167	0,1	16,210798
1,165833	0,1	15,558788
1,167500	0,1	14,940494
1,169167	0,1	14,368380
1,170833	0,1	13,822143
1,172500	0,1	13,248508
1,174167	0,1	12,820169
1,175833	0,1	12,377974
1,177500	0,1	11,978205
1,179167	0,1	11,565479
1,180833	0,1	11,212798
1,182500	0,1	10,889689
1,184167	0,1	10,603513
1,185833	0,1	10,324488
1,187500	0,1	10,046656
1,189167	0,1	9,811722
1,190833	0,1	9,555019
1,192500	0,1	9,366014
1,194167	0,1	9,185858
1,195833	0,1	8,994132
1,197500	0,1	8,804354
1,199167	0,1	8,618483
1,200833	0,1	8,486475
1,202500	0,1	8,352874
1,204167	0,1	8,250565
1,205833	0,1	8,095339
1,207500	0,1	7,986447
1,209167	0,1	7,878873
1,210833	0,1	7,793809
1,212500	0,1	7,691360
1,214167	0,1	7,633659
1,215833	0,1	7,572121
1,217500	0,1	7,470176
1,219167	0,1	7,427709
1,220833	0,1	7,376123
1,222500	0,1	7,349772
1,224167	0,1	7,292441
1,225833	0,1	7,230425
1,227500	0,1	7,184935
1,229167	0,1	7,159747
1,230833	0,1	7,095074
1,232500	0,1	7,080253
1,234167	0,1	7,090142
1,235833	0,1	7,029170
1,237500	0,1	7,005825
1,239167	0,1	7,033526
1,240833	0,1	7,033239
1,242500	0,1	6,974763
1,244167	0,1	6,930231
1,245833	0,1	6,969124
1,247500	0,1	6,939468
1,249167	0,1	6,912443
1,250833	0,1	6,875864
1,252500	0,1	6,875017
1,254167	0,1	6,865306
1,255833	0,1	6,871197
1,257500	0,1	6,840787
1,259167	0,1	6,845908
1,260833	0,1	6,821223
1,262500	0,1	6,812973
1,264167	0,1	6,773726
1,265833	0,1	6,762865
1,267500	0,1	6,811576
1,269167	0,1	6,771846
1,270833	0,1	6,762661
1,272500	0,1	6,758451
1,274167	0,1	6,774635
1,275833	0,1	6,785198
1,277500	0,1	6,764981
1,279167	0,1	6,766211
1,280833	0,1	6,732065
1,282500	0,1	6,718803
1,284167	0,1	6,720100
1,285833	0,1	6,724016
1,287500	0,1	6,703939
1,289167	0,1	6,703174
1,290833	0,1	6,711780
1,292500	0,1	6,706738
1,294167	0,1	6,703067
1,295833	0,1	6,717671
1,297500	0,1	6,692781
1,299167	0,1	6,723270
1,300833	0,1	6,713275
1,302500	0,1	6,742086
1,304167	0,1	6,707304
1,305833	0,1	6,751904
1,307500	0,1	6,729184
1,309167	0,1	6,708148
1,310833	0,1	6,722993
1,312500	0,1	6,724221
1,314167	0,1	6,690193
1,315833	0,1	6,714319
1,317500	0,1	6,752161
1,319167	0,1	6,713562
1,320833	0,1	6,724777
1,322500	0,1	6,679154
1,324167	0,1	6,719059
1,325833	0,1	6,759063
1,327500	0,1	6,698325
1,329167	0,1	6,732532
1,330833	0,1	6,734202
1,332500	0,1	6,728891
1,334167	0,1	6,701205
1,335833	0,1	6,717734
1,337500	0,1	6,698026
1,339167	0,1	6,734882
1,340833	0,1	6,754591
1,342500	0,1	6,731794
1,344167	0,1	6,758154
1,345833	0,1	6,745165
1,347500	0,1	6,779556
1,349167	0,1	6,737336
1,350833	0,1	6,737123
1,352500	0,1	6,756652
1,354167	0,1	6,793317
1,355833	0,1	6,760497
1,357500	0,1	6,773485
1,359167	0,1	6,765548
1,360833	0,1	6,812488
1,362500	0,1	6,775119
1,364167	0,1	6,780906
1,365833	0,1	6,818855
1,367500	0,1	6,843453
1,369167	0,1	6,804213
1,370833	0,1	6,809598
1,372500	0,1	6,810170
1,374167	0,1	6,832151
1,375833	0,1	6,834533
1,377500	0,1	6,837117
1,379167	0,1	6,861829
1,380833	0,1	6,846581
1,382500	0,1	6,872320
1,384167	0,1	6,842181
1,385833	0,1	6,862679
1,387500	0,1	6,889686
1,389167	0,1	6,874755
1,390833	0,1	6,934791
1,392500	0,1	6,954994
1,394167	0,1	6,956951
1,395833	0,1	6,920863
1,397500	0,1	6,906643
1,399167	0,1	6,953205
1,400833	0,1	6,931870
1,402500	0,1	6,940224
1,404167	0,1	6,957351
1,405833	0,1	6,931271
1,407500	0,1	6,962783
1,409167	0,1	6,993603
1,410833	0,1	6,988410
1,412500	0,1	7,023221
1,414167	0,1	7,018215
1,415833	0,1	7,026256
1,417500	0,1	6,998913
1,419167	0,1	7,019655
1,420833	0,1	7,008095
1,422500	0,1	7,047839
1,424167	0,1	7,039235
1,425833	0,1	7,028767
1,427500	0,1	7,049658
1,429167	0,1	7,067599
1,430833	0,1	7,043825
1,432500	0,1	7,033731
1,434167	0,1	7,025574
1,435833	0,1	7,047760
1,437500	0,1	7,078112
1,439167	0,1	7,032986
1,440833	0,1	7,079107
1,442500	0,1	7,025727
1,444167	0,1	7,085166
1,445833	0,1	7,101313
1,447500	0,1	7,073213
1,449167	0,1	7,080066
1,450833	0,1	7,082379
1,452500	0,1	7,091944
1,454167	0,1	7,075583
1,455833	0,1	7,082393
1,457500	0,1	7,080986
1,459167	0,1	7,098576
1,460833	0,1	7,110765
1,462500	0,1	7,111325
1,464167	0,1	7,097683
1,465833	0,1	7,080990
1,467500	0,1	7,125978
1,469167	0,1	7,122451
1,470833	0,1	7,069071
1,472500	0,1	7,112462
1,474167	0,1	7,106477
1,475833	0,1	7,126706
1,477500	0,1	7,133393
1,479167	0,1	7,155228
1,480833	0,1	7,186014
1,482500	0,1	7,180238
1,484167	0,1	7,188739
1,485833	0,1	7,196029
1,487500	0,1	7,209846
1,489167	0,1	7,225245
1,490833	0,1	7,203103
1,492500	0,1	7,262202
1,494167	0,1	7,241677
1,495833	0,1	7,241689
1,497500	0,1	7,234167
1,499167	0,1	7,280536
1,500833	0,1	7,275922
1,502500	0,1	7,318981
1,504167	0,1	7,281847
1,505833	0,1	7,348656
1,507500	0,1	7,334173
1,509167	0,1	7,357609
1,510833	0,1	7,349510
1,512500	0,1	7,378491
1,514167	0,1	7,401799
1,515833	0,1	7,434149
1,517500	0,1	7,403406
1,519167	0,1	7,401349
1,520833	0,1	7,453100
1,522500	0,1	7,427029
1,524167	0,1	7,432326
1,525833	0,1	7,433601
1,527500	0,1	7,473198
1,529167	0,1	7,501148
1,530833	0,1	7,509614
1,532500	0,1	7,548352
1,534167	0,1	7,519406
1,535833	0,1	7,528656
1,537500	0,1	7,572196
1,539167	0,1	7,532549
1,540833	0,1	7,561674
1,542500	0,1	7,577375
1,544167	0,1	7,553034
1,545833	0,1	7,591168
1,547500	0,1	7,652983
1,549167	0,1	7,630498
1,550833	0,1	7,633544
1,552500	0,1	7,634808
1,554167	0,1	7,630844
1,555833	0,1	7,646160
1,557500	0,1	7,616617
1,559167	0,1	7,630034
1,560833	0,1	7,650245
1,562500	0,1	7,657540
1,564167	0,1	7,663221
1,565833	0,1	7,649721
1,567500	0,1	7,662866
1,569167	0,1	7,675332
1,570833	0,1	7,694636
1,572500	0,1	7,660831
1,574167	0,1	7,703541
1,575833	0,1	7,632828
1,577500	0,1	7,660439
1,579167	0,1	7,669831
1,580833	0,1	7,693424
1,582500	0,1	7,653413
1,584167	0,1	7,680729
1,585833	0,1	7,667767
1,587500	0,1	7,692289
1,589167	0,1	7,678744
1,590833	0,1	7,683057
1,592500	0,1	7,678365
1,594167	0,1	7,644931
1,595833	0,1	7,671617
1,597500	0,1	7,679776
1,599167	0,1	7,657119
1,600833	0,1	7,680199
1,602500	0,1	7,701954
1,604167	0,1	7,652708
1,605833	0,1	7,682015
1,607500	0,1	7,693251
1,609167	0,1	7,655105
1,610833	0,1	7,683580
1,612500	0,1	7,653690
1,614167	0,1	7,692992
1,615833	0,1	7,634215
1,617500	0,1	7,666999
1,619167	0,1	7,684366
1,620833	0,1	7,674227
1,622500	0,1	7,668775
1,624167	0,1	7,672911
1,625833	0,1	7,680355
1,627500	0,1	7,665396
1,629167	0,1	7,707024
1,630833	0,1	7,704965
1,632500	0,1	7,714351
1,634167	0,1	7,738276
1,635833	0,1	7,767200
1,637500	0,1	7,778994
1,639167	0,1	7,805571
1,640833	0,1	7,796112
1,642500	0,1	7,824910
1,644167	0,1	7,903949
1,645833	0,1	7,902497
1,647500	0,1	7,974526
1,649167	0,1	8,001734
1,650833	0,1	8,079799
1,652500	0,1	8,122088
1,654167	0,1	8,154552
1,655833	0,1	8,263205
1,657500	0,1	8,290200
1,659167	0,1	8,409751
1,660833	0,1	8,480062
1,662500	0,1	8,602139
1,664167	0,1	8,747338
1,665833	0,1	8,894450
1,667500	0,1	9,004252
1,669167	0,1	9,212365
1,670833	0,1	9,330379
1,672500	0,1	9,527402
1,674167	0,1	9,751392
1,675833	0,1	9,928071
1,677500	0,1	10,210356
1,679167	0,1	10,475449
1,680833	0,1	10,706111
1,682500	0,1	10,971184
1,684167	0,1	11,325059
1,685833	0,1	11,589102
1,687500	0,1	11,941185
1,689167	0,1	12,251364
1,690833	0,1	12,666696
1,692500	0,1	13,052240
1,694167	0,1	13,501968
1,695833	0,1	13,910614
1,697500	0,1	14,377321
1,699167	0,1	14,784409
1,700833	0,1	15,324704
1,702500	0,1	15,800887
1,704167	0,1	16,359708
1,705833	0,1	16,863211
1,707500	0,1	17,428083
1,709167	0,1	18,007218
1,710833	0,1	18,595873
1,712500	0,1	19,190979
1,714167	0,1	19,770305
1,715833	0,1	20,350327
1,717500	0,1	21,025688
1,719167	0,1	21,628999
1,720833	0,1	22,218551
1,722500	0,1	22,909349
1,724167	0,1	23,535196
1,725833	0,1	24,196312
1,727500	0,1	24,801019
1,729167	0,1	25,459022
1,730833	0,1	26,078505
1,732500	0,1	26,684703
1,734167	0,1	27,380633
1,735833	0,1	27,963470
1,737500	0,1	28,594196
1,739167	0,1	29,206055
1,740833	0,1	29,764482
1,742500	0,1	30,354134
1,744167	0,1	30,933574
1,745833	0,1	31,430102
1,747500	0,1	31,992144
1,749167	0,1	32,410734
1,750833	0,1	32,975460
1,752500	0,1	33,398514
1,754167	0,1	33,842211
1,755833	0,1	34,274973
1,757500	0,1	34,637215
1,759167	0,1	35,031157
1,760833	0,1	35,340391
1,762500	0,1	35,659619
1,764167	0,1	35,928448
1,765833	0,1	36,180624
1,767500	0,1	36,429891
1,769167	0,1	36,630950
1,770833	0,1	36,773366
1,772500	0,1	36,977064
1,774167	0,1	37,072122
1,775833	0,1	37,172294
1,777500	0,1	37,200403
1,779167	0,1	37,272025
1,780833	0,1	37,251032
1,782500	0,1	37,246272
1,784167	0,1	37,185414
1,785833	0,1	37,129712
1,787500	0,1	37,036599
1,789167	0,1	36,894604
1,790833	0,1	36,755874
1,792500	0,1	36,560428
1,794167	0,1	36,366441
1,795833	0,1	36,148269
1,797500	0,1	35,962875
1,799167	0,1	35,672125
1,800833	0,1	35,376902
1,802500	0,1	35,162944
1,804167	0,1	34,770963
1,805833	0,1	34,480545
1,807500	0,1	34,116127
1,809167	0,1	33,766268
1,810833	0,1	33,400028
1,812500	0,1	33,058468
1,814167	0,1	32,633274
1,815833	0,1	32,195205
1,817500	0,1	31,852610
1,819167	0,1	31,396371
1,820833	0,1	30,958709
1,822500	0,1	30,512135
1,824167	0,1	30,042116
1,825833	0,1	29,615619
1,827500	0,1	29,197268
1,829167	0,1	28,707353
1,830833	0,1	28,257742
1,832500	0,1	27,793544
1,834167	0,1	27,347320
1,835833	0,1	26,866359
1,837500	0,1	26,452553
1,839167	0,1	26,006457
1,840833	0,1	25,539497
1,842500	0,1	25,167291
1,844167	0,1	24,720591
1,845833	0,1	24,278650
1,847500	0,1	23,901457
1,849167	0,1	23,423371
1,850833	0,1	23,028380
1,852500	0,1	22,643044
1,854167	0,1	22,247525
1,855833	0,1	21,928373
1,857500	0,1	21,550625
1,859167	0,1	21,138721
1,860833	0,1	20,796231
1,862500	0,1	20,479935
1,864167	0,1	20,138284
1,865833	0,1	19,797157
1,867500	0,1	19,484542
1,869167	0,1	19,149217
1,870833	0,1	18,837864
1,872500	0,1	18,510357
1,874167	0,1	18,254960
1,875833	0,1	18,000825
1,877500	0,1	17,726771
1,879167	0,1	17,391656
1,880833	0,1	17,173673
1,882500	0,1	16,877817
1,884167	0,1	16,606989
1,885833	0,1	16,371716
1,887500	0,1	16,157095
1,889167	0,1	15,907618
1,890833	0,1	15,665592
1,892500	0,1	15,445764
1,894167	0,1	15,254623
1,895833	0,1	15,025278
1,897500	0,1	14,859390
1,899167	0,1	14,636116
1,900833	0,1	14,431865
1,902500	0,1	14,282470
1,904167	0,1	14,081993
1,905833	0,1	13,934582
1,907500	0,1	13,809718
1,909167	0,1	13,599217
1,910833	0,1	13,459539
1,912500	0,1	13,313276
1,914167	0,1	13,155819
1,915833	0,1	13,029689
1,917500	0,1	12,908784
1,919167	0,1	12,749314
1,920833	0,1	12,655143
1,922500	0,1	12,481988
1,924167	0,1	12,413878
1,925833	0,1	12,327709
1,927500	0,1	12,225984
1,929167	0,1	12,115813
1,930833	0,1	11,996963
1,932500	0,1	11,900034
1,934167	0,1	11,797257
1,935833	0,1	11,770958
1,937500	0,1	11,630556
1,939167	0,1	11,539958
1,940833	0,1	11,512871
1,942500	0,1	11,403879
1,944167	0,1	11,346986
1,945833	0,1	11,275030
1,947500	0,1	11,230739
1,949167	0,1	11,159345
1,950833	0,1	11,077064
1,952500	0,1	11,066159
1,954167	0,1	10,988573
1,955833	0,1	10,941972
1,957500	0,1	10,914905
1,959167	0,1	10,887067
1,960833	0,1	10,810425
1,962500	0,1	10,836304
1,964167	0,1	10,787874
1,965833	0,1	10,771188
1,967500	0,1	10,729533
1,969167	0,1	10,716353
1,970833	0,1	10,710863
1,972500	0,1	10,703851
1,974167	0,1	10,641408
1,975833	0,1	10,711207
1,977500	0,1	10,683022
1,979167	0,1	10,680645
1,980833	0,1	10,682292
1,982500	0,1	10,620247
1,984167	0,1	10,660937
1,985833	0,1	10,663263
1,987500	0,1	10,662014
1,989167	0,1	10,678023
1,990833	0,1	10,697386
1,992500	0,1	10,751289
1,994167	0,1	10,737296
1,995833	0,1	10,728864
1,997500	0,1	10,756811
1,999167	0,1	10,740601
2,000833	0,1	10,849273
2,002500	0,1	10,837448
2,004167	0,1	10,808012
2,005833	0,1	10,854775
2,007500	0,1	10,866943
2,009167	0,1	10,885179
2,010833	0,1	10,929977
2,012500	0,1	10,986218
2,014167	0,1	10,970393
2,015833	0,1	11,063564
2,017500	0,1	11,064950
2,019167	0,1	11,078209
2,020833	0,1	11,115862
2,022500	0,1	11,143212
2,024167	0,1	11,173404
2,025833	0,1	11,216789
2,027500	0,1	11,233061
2,029167	0,1	11,256331
2,030833	0,1	11,322994
2,032500	0,1	11,343202
2,034167	0,1	11,353247
2,035833	0,1	11,381508
2,037500	0,1	11,460989
2,039167	0,1	11,471786
2,040833	0,1	11,482507
2,042500	0,1	11,559624
2,044167	0,1	11,576650
2,045833	0,1	11,607967
2,047500	0,1	11,645981
2,049167	0,1	11,639591
2,050833	0,1	11,680705
2,052500	0,1	11,730830
2,054167	0,1	11,732201
2,055833	0,1	11,781387
2,057500	0,1	11,774255
2,059167	0,1	11,845780
2,060833	0,1	11,867928
2,062500	0,1	11,884076
2,064167	0,1	11,908828
2,065833	0,1	11,931055
2,067500	0,1	11,935938
2,069167	0,1	11,969847
2,070833	0,1	11,988977
2,072500	0,1	12,013617
2,074167	0,1	12,031123
2,075833	0,1	12,045464
2,077500	0,1	12,082330
2,079167	0,1	12,081046
2,080833	0,1	12,105686
2,082500	0,1	12,093342
2,084167	0,1	12,131629
2,085833	0,1	12,145163
2,087500	0,1	12,152729
2,089167	0,1	12,164661
2,090833	0,1	12,146860
2,092500	0,1	12,151374
2,094167	0,1	12,152731
2,095833	0,1	12,193498
2,097500	0,1	12,158797
2,099167	0,1	12,162432
2,100833	0,1	12,172345
2,102500	0,1	12,184850
2,104167	0,1	12,172892
2,105833	0,1	12,163133
2,107500	0,1	12,201054
2,109167	0,1	12,158166
2,110833	0,1	12,159993
2,112500	0,1	12,130383
2,114167	0,1	12,094374
2,115833	0,1	12,145275
2,117500	0,1	12,087001
2,119167	0,1	12,071020
2,120833	0,1	12,087705
2,122500	0,1	12,068098
2,124167	0,1	12,062609
2,125833	0,1	12,004540
2,127500	0,1	12,001184
2,129167	0,1	11,946795
2,130833	0,1	11,986924
2,132500	0,1	11,902469
2,134167	0,1	11,910005
2,135833	0,1	11,865534
2,137500	0,1	11,849840
2,139167	0,1	11,831021
2,140833	0,1	11,821385
2,142500	0,1	11,765451
2,144167	0,1	11,733414
2,145833	0,1	11,724560
2,147500	0,1	11,698329
2,149167	0,1	11,659565
2,150833	0,1	11,634739
2,152500	0,1	11,557523
2,154167	0,1	11,559691
2,155833	0,1	11,545980
2,157500	0,1	11,417013
2,159167	0,1	11,408145
2,160833	0,1	11,399659
2,162500	0,1	11,378984
2,164167	0,1	11,331468
2,165833	0,1	11,289274
2,167500	0,1	11,245064
2,169167	0,1	11,244778
2,170833	0,1	11,159815
2,172500	0,1	11,142951
2,174167	0,1	11,049909
2,175833	0,1	11,052496
2,177500	0,1	10,964344
2,179167	0,1	10,965679
2,180833	0,1	10,894264
2,182500	0,1	10,877841
2,184167	0,1	10,833636
2,185833	0,1	10,777030
2,187500	0,1	10,739215
2,189167	0,1	10,700546
2,190833	0,1	10,665845
2,192500	0,1	10,621813
2,194167	0,1	10,561227
2,195833	0,1	10,535710
2,197500	0,1	10,486659
2,199167	0,1	10,420444
2,200833	0,1	10,348770
2,202500	0,1	10,386473
2,204167	0,1	10,253464
2,205833	0,1	10,232575
2,207500	0,1	10,205726
2,209167	0,1	10,187904
2,210833	0,1	10,135391
2,212500	0,1	10,066895
2,214167	0,1	10,036263
2,215833	0,1	10,003430
2,217500	0,1	9,967306
2,219167	0,1	9,920426
2,220833	0,1	9,867013
2,222500	0,1	9,866008
2,224167	0,1	9,785414
2,225833	0,1	9,742938
2,227500	0,1	9,685805
2,229167	0,1	9,655366
2,230833	0,1	9,600940
2,232500	0,1	9,581872
2,234167	0,1	9,531901
2,235833	0,1	9,512022
2,237500	0,1	9,466342
2,239167	0,1	9,416604
2,240833	0,1	9,391624
2,242500	0,1	9,341885
2,244167	0,1	9,338637
2,245833	0,1	9,273292
2,247500	0,1	9,259655
2,249167	0,1	9,212572
2,250833	0,1	9,213027
2,252500	0,1	9,156005
2,254167	0,1	9,094793
2,255833	0,1	9,081448
2,257500	0,1	9,059022
2,259167	0,1	9,063837
2,260833	0,1	8,997849
2,262500	0,1	8,978021
2,264167	0,1	8,940539
2,265833	0,1	8,879305
2,267500	0,1	8,875937
2,269167	0,1	8,887097
2,270833	0,1	8,847547
2,272500	0,1	8,802069
2,274167	0,1	8,802653
2,275833	0,1	8,773204
2,277500	0,1	8,750480
2,279167	0,1	8,716726
2,280833	0,1	8,669495
2,282500	0,1	8,647958
2,284167	0,1	8,611936
2,285833	0,1	8,582677
2,287500	0,1	8,593712
2,289167	0,1	8,574574
2,290833	0,1	8,551982
2,292500	0,1	8,529152
2,294167	0,1	8,501436
2,295833	0,1	8,494504
2,297500	0,1	8,464584
2,299167	0,1	8,465721
2,300833	0,1	8,434729
2,302500	0,1	8,425453
2,304167	0,1	8,347813
2,305833	0,1	8,366950
2,307500	0,1	8,375878
2,309167	0,1	8,351050
2,310833	0,1	8,309723
2,312500	0,1	8,349097
2,314167	0,1	8,319300
2,315833	0,1	8,296194
2,317500	0,1	8,260475
2,319167	0,1	8,242623
2,320833	0,1	8,244107
2,322500	0,1	8,232596
2,324167	0,1	8,248496
2,325833	0,1	8,215417
2,327500	0,1	8,233490
2,329167	0,1	8,211506
2,330833	0,1	8,187269
2,332500	0,1	8,209631
2,334167	0,1	8,167012
2,335833	0,1	8,176647
2,337500	0,1	8,203095
2,339167	0,1	8,146273
2,340833	0,1	8,154140
2,342500	0,1	8,121788
2,344167	0,1	8,133531
2,345833	0,1	8,121743
2,347500	0,1	8,154204
2,349167	0,1	8,088504
2,350833	0,1	8,105634
2,352500	0,1	8,140442
2,354167	0,1	8,128218
2,355833	0,1	8,110651
2,357500	0,1	8,134224
2,359167	0,1	8,099940
2,360833	0,1	8,109955
2,362500	0,1	8,098376
2,364167	0,1	8,096411
2,365833	0,1	8,106814
2,367500	0,1	8,143693
2,369167	0,1	8,114492
2,370833	0,1	8,130458
2,372500	0,1	8,136435
2,374167	0,1	8,099497
2,375833	0,1	8,116800
2,377500	0,1	8,155658
2,379167	0,1	8,125390
2,380833	0,1	8,118388
2,382500	0,1	8,164401
2,384167	0,1	8,192893
2,385833	0,1	8,124805
2,387500	0,1	8,150573
2,389167	0,1	8,179476
2,390833	0,1	8,193141
2,392500	0,1	8,190407
2,394167	0,1	8,208146
2,395833	0,1	8,231031
2,397500	0,1	8,219875
2,399167	0,1	8,189725
2,400833	0,1	8,241639
2,402500	0,1	8,262536
2,404167	0,1	8,235093
2,405833	0,1	8,276744
2,407500	0,1	8,301164
2,409167	0,1	8,268392
2,410833	0,1	8,293797
2,412500	0,1	8,312509
2,414167	0,1	8,335578
2,415833	0,1	8,273897
2,417500	0,1	8,328687
2,419167	0,1	8,342705
2,420833	0,1	8,323585
2,422500	0,1	8,367842
2,424167	0,1	8,365432
2,425833	0,1	8,377363
2,427500	0,1	8,388190
2,429167	0,1	8,417834
2,430833	0,1	8,360362
2,432500	0,1	8,402817
2,434167	0,1	8,415345
2,435833	0,1	8,435858
2,437500	0,1	8,430362
2,439167	0,1	8,415560
2,440833	0,1	8,420536
2,442500	0,1	8,410888
2,444167	0,1	8,437099
2,445833	0,1	8,430325
2,447500	0,1	8,431742
2,449167	0,1	8,466676
2,450833	0,1	8,438047
2,452500	0,1	8,406774
2,454167	0,1	8,392864
2,455833	0,1	8,407113
2,457500	0,1	8,405628
2,459167	0,1	8,385083
2,460833	0,1	8,361843
2,462500	0,1	8,351356
2,464167	0,1	8,316775
2,465833	0,1	8,284750
2,467500	0,1	8,254386
2,469167	0,1	8,291373
2,470833	0,1	8,276411
2,472500	0,1	8,288475
2,474167	0,1	8,267421
2,475833	0,1	8,223059
2,477500	0,1	8,217381
2,479167	0,1	8,214856
2,480833	0,1	8,137975
2,482500	0,1	8,167273
2,484167	0,1	8,155806
2,485833	0,1	8,124352
2,487500	0,1	8,088989
2,489167	0,1	8,080990
2,490833	0,1	8,065722
2,492500	0,1	8,050473
2,494167	0,1	7,991555
2,495833	0,1	8,001974
2,497500	0,1	7,971193
2,499167	0,1	7,959312
2,500833	0,1	7,924652
2,502500	0,1	7,892732
2,504167	0,1	7,880688
2,505833	0,1	7,850699
2,507500	0,1	7,810255
2,509167	0,1	7,787558
2,510833	0,1	7,725447
2,512500	0,1	7,760182
2,514167	0,1	7,700106
2,515833	0,1	7,681824
2,517500	0,1	7,661360
2,519167	0,1	7,632944
2,520833	0,1	7,568511
2,522500	0,1	7,580477
2,524167	0,1	7,530061
2,525833	0,1	7,492637
2,527500	0,1	7,481892
2,529167	0,1	7,483145
2,530833	0,1	7,415933
2,532500	0,1	7,375089
2,534167	0,1	7,393832
2,535833	0,1	7,361933
2,537500	0,1	7,317510
2,539167	0,1	7,265581
2,540833	0,1	7,276294
2,542500	0,1	7,256635
2,544167	0,1	7,167494
2,545833	0,1	7,132403
2,547500	0,1	7,127218
2,549167	0,1	7,121582
2,550833	0,1	7,050389
2,552500	0,1	7,064618
2,554167	0,1	7,015884
2,555833	0,1	6,969910
2,557500	0,1	6,958709
2,559167	0,1	6,935828
2,560833	0,1	6,913557
2,562500	0,1	6,868007
2,564167	0,1	6,846278
2,565833	0,1	6,801498
2,567500	0,1	6,783788
2,569167	0,1	6,748272
2,570833	0,1	6,736740
2,572500	0,1	6,681013
2,574167	0,1	6,641454
2,575833	0,1	6,598637
2,577500	0,1	6,632908
2,579167	0,1	6,550755
2,580833	0,1	6,587377
2,582500	0,1	6,496918
2,584167	0,1	6,479497
2,585833	0,1	6,457346
2,587500	0,1	6,386994
2,589167	0,1	6,362025
2,590833	0,1	6,372382
2,592500	0,1	6,288409
2,594167	0,1	6,306868
2,595833	0,1	6,208713
2,597500	0,1	6,205228
2,599167	0,1	6,192156
2,600833	0,1	6,146297
2,602500	0,1	6,145160
2,604167	0,1	6,132461
2,605833	0,1	6,077275
2,607500	0,1	6,028804
2,609167	0,1	6,011803
2,610833	0,1	5,969230
2,612500	0,1	5,963994
2,614167	0,1	5,921987
2,615833	0,1	5,882874
2,617500	0,1	5,763406
2,619167	0,1	5,810323
2,620833	0,1	5,781964
2,622500	0,1	5,759381
2,624167	0,1	5,721304
2,625833	0,1	5,653949
2,627500	0,1	5,717544
2,629167	0,1	5,630718
2,630833	0,1	5,600302
2,632500	0,1	5,567471
2,634167	0,1	5,569324
2,635833	0,1	5,547121
2,637500	0,1	5,457958
2,639167	0,1	5,440985
2,640833	0,1	5,431373
2,642500	0,1	5,400989
2,644167	0,1	5,364499
2,645833	0,1	5,318634
2,647500	0,1	5,320794
2,649167	0,1	5,290580
2,650833	0,1	5,253680
2,652500	0,1	5,173336
2,654167	0,1	5,225343
2,655833	0,1	5,164838
2,657500	0,1	5,137380
2,659167	0,1	5,065435
2,660833	0,1	5,030935
2,662500	0,1	5,016300
2,664167	0,1	5,024819
2,665833	0,1	5,017619
2,667500	0,1	4,937620
2,669167	0,1	4,932475
2,670833	0,1	4,907810
2,672500	0,1	4,841340
2,674167	0,1	4,830579
2,675833	0,1	4,803874
2,677500	0,1	4,802372
2,679167	0,1	4,778736
2,680833	0,1	4,760290
2,682500	0,1	4,725471
2,684167	0,1	4,660183
2,685833	0,1	4,690304
2,687500	0,1	4,670141
2,689167	0,1	4,602864
2,690833	0,1	4,585739
2,692500	0,1	4,489497
2,694167	0,1	4,533738
2,695833	0,1	4,497691
2,697500	0,1	4,470354
2,699167	0,1	4,431403
2,700833	0,1	4,437263
2,702500	0,1	4,416812
2,704167	0,1	4,374734
2,705833	0,1	4,327631
2,707500	0,1	4,335541
2,709167	0,1	4,328187
2,710833	0,1	4,290028
2,712500	0,1	4,276212
2,714167	0,1	4,246099
2,715833	0,1	4,190919
2,717500	0,1	4,206013
2,719167	0,1	4,187230
2,720833	0,1	4,157632
2,722500	0,1	4,143422
2,724167	0,1	4,130744
2,725833	0,1	4,111279
2,727500	0,1	4,079308
2,729167	0,1	4,076191
2,730833	0,1	4,060520
2,732500	0,1	4,008555
2,734167	0,1	3,994513
2,735833	0,1	3,985412
2,737500	0,1	3,951106
2,739167	0,1	3,926552
2,740833	0,1	3,952507
2,742500	0,1	3,898722
2,744167	0,1	3,908129
2,745833	0,1	3,854222
2,747500	0,1	3,892376
2,749167	0,1	3,828661
2,750833	0,1	3,825412
2,752500	0,1	3,820909
2,754167	0,1	3,760660
2,755833	0,1	3,781000
2,757500	0,1	3,753300
2,759167	0,1	3,715687
2,760833	0,1	3,701161
2,762500	0,1	3,723660
2,764167	0,1	3,714316
2,765833	0,1	3,682596
2,767500	0,1	3,669386
2,769167	0,1	3,684970
2,770833	0,1	3,645624
2,772500	0,1	3,602473
2,774167	0,1	3,574043
2,775833	0,1	3,610134
2,777500	0,1	3,556664
2,779167	0,1	3,590469
2,780833	0,1	3,549330
2,782500	0,1	3,553427
2,784167	0,1	3,536131
2,785833	0,1	3,499294
2,787500	0,1	3,494573
2,789167	0,1	3,501397
2,790833	0,1	3,507201
2,792500	0,1	3,439277
2,794167	0,1	3,468614
2,795833	0,1	3,450961
2,797500	0,1	3,441899
2,799167	0,1	3,426874
2,800833	0,1	3,419030
2,802500	0,1	3,419723
2,804167	0,1	3,372590
2,805833	0,1	3,358411
2,807500	0,1	3,341075
2,809167	0,1	3,345088
2,810833	0,1	3,338431
2,812500	0,1	3,344926
2,814167	0,1	3,295853
2,815833	0,1	3,336351
2,817500	0,1	3,289153
2,819167	0,1	3,245472
2,820833	0,1	3,291122
2,822500	0,1	3,262030
2,824167	0,1	3,253217
2,825833	0,1	3,250982
2,827500	0,1	3,250941
2,829167	0,1	3,224685
2,830833	0,1	3,225610
2,832500	0,1	3,198908
2,834167	0,1	3,175811
2,835833	0,1	3,170285
2,837500	0,1	3,181487
2,839167	0,1	3,153084
2,840833	0,1	3,157178
2,842500	0,1	3,120737
2,844167	0,1	3,147715
2,845833	0,1	3,113322
2,847500	0,1	3,105074
2,849167	0,1	3,110949
2,850833	0,1	3,123773
2,852500	0,1	3,081823
2,854167	0,1	3,043394
2,855833	0,1	3,084649
2,857500	0,1	3,063799
2,859167	0,1	3,031341
2,860833	0,1	2,973050
2,862500	0,1	3,047111
2,864167	0,1	3,043804
2,865833	0,1	3,008232
2,867500	0,1	2,972157
2,869167	0,1	2,991526
2,870833	0,1	2,992633
2,872500	0,1	2,979427
2,874167	0,1	2,970362
2,875833	0,1	2,935920
2,877500	0,1	2,936574
2,879167	0,1	2,965821
2,880833	0,1	2,962492
2,882500	0,1	2,905991
2,884167	0,1	2,893173
2,885833	0,1	2,879624
2,887500	0,1	2,883846
2,889167	0,1	2,870049
2,890833	0,1	2,880727
2,892500	0,1	2,843418
2,894167	0,1	2,839389
2,895833	0,1	2,840893
2,897500	0,1	2,826589
2,899167	0,1	2,817074
2,900833	0,1	2,803546
2,902500	0,1	2,803858
2,904167	0,1	2,796536
2,905833	0,1	2,775885
2,907500	0,1	2,776166
2,909167	0,1	2,760520
2,910833	0,1	2,718259
2,912500	0,1	2,796418
2,914167	0,1	2,701946
2,915833	0,1	2,751646
2,917500	0,1	2,748997
2,919167	0,1	2,740171
2,920833	0,1	2,758377
2,922500	0,1	2,689279
2,924167	0,1	2,688479
2,925833	0,1	2,653826
2,927500	0,1	2,679913
2,929167	0,1	2,664535
2,930833	0,1	2,696128
2,932500	0,1	2,632690
2,934167	0,1	2,636487
2,935833	0,1	2,610629
2,937500	0,1	2,613919
2,939167	0,1	2,593766
2,940833	0,1	2,613109
2,942500	0,1	2,591693
2,944167	0,1	2,644311
2,945833	0,1	2,539599
2,947500	0,1	2,575828
2,949167	0,1	2,538209
2,950833	0,1	2,571366
2,952500	0,1	2,550965
2,954167	0,1	2,517873
2,955833	0,1	2,550201
2,957500	0,1	2,512144
2,959167	0,1	2,485607
2,960833	0,1	2,502117
2,962500	0,1	2,492165
2,964167	0,1	2,478937
2,965833	0,1	2,459904
2,967500	0,1	2,493242
2,969167	0,1	2,484306
2,970833	0,1	2,422621
2,972500	0,1	2,457504
2,974167	0,1	2,457229
2,975833	0,1	2,445043
2,977500	0,1	2,468322
2,979167	0,1	2,467161
2,980833	0,1	2,405093
2,982500	0,1	2,386053
2,984167	0,1	2,411039
2,985833	0,1	2,399303
2,987500	0,1	2,420039
2,989167	0,1	2,410298
2,990833	0,1	2,330194
2,992500	0,1	2,324309
2,994167	0,1	2,379346
2,995833	0,1	2,370627
2,997500	0,1	2,321113
2,999167	0,1	2,330985
3,000833	0,1	2,302696
3,002500	0,1	2,311278
3,004167	0,1	2,310521
3,005833	0,1	2,324986
3,007500	0,1	2,317080
3,009167	0,1	2,278355
3,010833	0,1	2,297059
3,012500	0,1	2,291497
3,014167	0,1	2,310098
3,015833	0,1	2,259887
3,017500	0,1	2,289085
3,019167	0,1	2,253444
3,020833	0,1	2,241544
3,022500	0,1	2,277287
3,024167	0,1	2,224266
3,025833	0,1	2,277037
3,027500	0,1	2,221103
3,029167	0,1	2,219223
3,030833	0,1	2,274745
3,032500	0,1	2,231107
3,034167	0,1	2,221227
3,035833	0,1	2,200647
3,037500	0,1	2,196146
3,039167	0,1	2,189324
3,040833	0,1	2,163202
3,042500	0,1	2,168093
3,044167	0,1	2,187544
3,045833	0,1	2,215157
3,047500	0,1	2,139050
3,049167	0,1	2,176297
3,050833	0,1	2,172706
3,052500	0,1	2,197168
3,054167	0,1	2,151184
3,055833	0,1	2,136976
3,057500	0,1	2,195768
3,059167	0,1	2,161739
3,060833	0,1	2,161159
3,062500	0,1	2,175637
3,064167	0,1	2,163274
3,065833	0,1	2,128314
3,067500	0,1	2,148349
3,069167	0,1	2,147818
3,070833	0,1	2,126484
3,072500	0,1	2,116419
3,074167	0,1	2,144021
3,075833	0,1	2,151112
3,077500	0,1	2,127552
3,079167	0,1	2,130726
3,080833	0,1	2,104517
3,082500	0,1	2,107328
3,084167	0,1	2,133807
3,085833	0,1	2,123031
3,087500	0,1	2,136269
3,089167	0,1	2,091028
3,090833	0,1	2,156129
3,092500	0,1	2,135494
3,094167	0,1	2,129164
3,095833	0,1	2,107429
3,097500	0,1	2,155657
3,099167	0,1	2,181521
3,100833	0,1	2,166878
3,102500	0,1	2,172476
3,104167	0,1	2,163350
3,105833	0,1	2,206024
3,107500	0,1	2,231908
3,109167	0,1	2,170985
3,110833	0,1	2,198768
3,112500	0,1	2,219865
3,114167	0,1	2,208001
3,115833	0,1	2,194755
3,117500	0,1	2,263154
3,119167	0,1	2,277027
3,120833	0,1	2,250599
3,122500	0,1	2,312200
3,124167	0,1	2,308389
3,125833	0,1	2,330377
3,127500	0,1	2,320455
3,129167	0,1	2,354028
3,130833	0,1	2,318801
3,132500	0,1	2,384627
3,134167	0,1	2,372463
3,135833	0,1	2,390165
3,137500	0,1	2,396418
3,139167	0,1	2,472877
3,140833	0,1	2,463302
3,142500	0,1	2,460494
3,144167	0,1	2,461041
3,145833	0,1	2,499492
3,147500	0,1	2,545761
3,149167	0,1	2,538485
3,150833	0,1	2,556274
3,152500	0,1	2,590588
3,154167	0,1	2,629889
3,155833	0,1	2,629976
3,157500	0,1	2,620432
3,159167	0,1	2,629898
3,160833	0,1	2,607750
3,162500	0,1	2,666646
3,164167	0,1	2,684718
3,165833	0,1	2,666072
3,167500	0,1	2,708194
3,169167	0,1	2,729686
3,170833	0,1	2,733268
3,172500	0,1	2,717731
3,174167	0,1	2,723260
3,175833	0,1	2,764683
3,177500	0,1	2,783661
3,179167	0,1	2,788600
3,180833	0,1	2,793192
3,182500	0,1	2,776661
3,184167	0,1	2,799203
3,185833	0,1	2,753498
3,187500	0,1	2,805398
3,189167	0,1	2,798938
3,190833	0,1	2,813430
3,192500	0,1	2,824493
3,194167	0,1	2,835129
3,195833	0,1	2,827140
3,197500	0,1	2,812662
3,199167	0,1	2,828639
3,200833	0,1	2,813960
3,202500	0,1	2,805649
3,204167	0,1	2,796486
3,205833	0,1	2,781056
3,207500	0,1	2,799487
3,209167	0,1	2,778874
3,210833	0,1	2,791115
3,212500	0,1	2,804679
3,214167	0,1	2,798020
3,215833	0,1	2,780189
3,217500	0,1	2,755018
3,219167	0,1	2,718572
3,220833	0,1	2,777626
3,222500	0,1	2,749523
3,224167	0,1	2,738796
3,225833	0,1	2,724190
3,227500	0,1	2,731919
3,229167	0,1	2,720533
3,230833	0,1	2,735495
3,232500	0,1	2,668316
3,234167	0,1	2,693249
3,235833	0,1	2,642674
3,237500	0,1	2,633847
3,239167	0,1	2,669041
3,240833	0,1	2,632371
3,242500	0,1	2,647925
3,244167	0,1	2,620278
3,245833	0,1	2,562569
3,247500	0,1	2,528792
3,249167	0,1	2,545873
3,250833	0,1	2,560839
3,252500	0,1	2,518524
3,254167	0,1	2,489886
3,255833	0,1	2,569202
3,257500	0,1	2,457826
3,259167	0,1	2,438509
3,260833	0,1	2,427826
3,262500	0,1	2,402701
3,264167	0,1	2,454443
3,265833	0,1	2,402060
3,267500	0,1	2,393752
3,269167	0,1	2,353902
3,270833	0,1	2,377486
3,272500	0,1	2,335260
3,274167	0,1	2,330550
3,275833	0,1	2,301719
3,277500	0,1	2,283209
3,279167	0,1	2,266608
3,280833	0,1	2,266528
3,282500	0,1	2,199799
3,284167	0,1	2,227660
3,285833	0,1	2,197427
3,287500	0,1	2,182999
3,289167	0,1	2,173508
3,290833	0,1	2,146357
3,292500	0,1	2,133112
3,294167	0,1	2,143092
3,295833	0,1	2,127339
3,297500	0,1	2,096990
3,299167	0,1	2,065534
3,300833	0,1	2,049474
3,302500	0,1	2,030615
3,304167	0,1	2,018624
3,305833	0,1	2,021920
3,307500	0,1	1,992646
3,309167	0,1	2,000604
3,310833	0,1	1,919045
3,312500	0,1	1,966000
3,314167	0,1	1,940748
3,315833	0,1	1,921156
3,317500	0,1	1,933016
3,319167	0,1	1,892884
3,320833	0,1	1,870518
3,322500	0,1	1,840414
3,324167	0,1	1,846506
3,325833	0,1	1,870369
3,327500	0,1	1,836632
3,329167	0,1	1,807361
3,330833	0,1	1,819440
3,332500	0,1	1,801978
3,334167	0,1	1,775579
3,335833	0,1	1,788132
3,337500	0,1	1,742931
3,339167	0,1	1,746453
3,340833	0,1	1,660110
3,342500	0,1	1,723414
3,344167	0,1	1,711930
3,345833	0,1	1,703442
3,347500	0,1	1,713792
3,349167	0,1	1,654631
3,350833	0,1	1,710175
3,352500	0,1	1,649166
3,354167	0,1	1,668923
3,355833	0,1	1,614010
3,357500	0,1	1,605513
3,359167	0,1	1,596234
3,360833	0,1	1,606221
3,362500	0,1	1,592853
3,364167	0,1	1,593291
3,365833	0,1	1,607066
3,367500	0,1	1,575541
3,369167	0,1	1,530755
3,370833	0,1	1,567687
3,372500	0,1	1,552679
3,374167	0,1	1,524636
3,375833	0,1	1,517307
3,377500	0,1	1,500924
3,379167	0,1	1,531018
3,380833	0,1	1,523691
3,382500	0,1	1,488637
3,384167	0,1	1,513198
3,385833	0,1	1,449617
3,387500	0,1	1,485166
3,389167	0,1	1,458873
3,390833	0,1	1,473813
3,392500	0,1	1,439394
3,394167	0,1	1,409652
3,395833	0,1	1,459717
3,397500	0,1	1,412744
3,399167	0,1	1,416467
3,400833	0,1	1,379467
3,402500	0,1	1,412076
3,404167	0,1	1,439520
3,405833	0,1	1,392620
3,407500	0,1	1,386072
3,409167	0,1	1,369760
3,410833	0,1	1,363508
3,412500	0,1	1,389507
3,414167	0,1	1,374147
3,415833	0,1	1,361063
3,417500	0,1	1,331035
3,419167	0,1	1,332682
3,420833	0,1	1,332249
3,422500	0,1	1,304953
3,424167	0,1	1,352999
3,425833	0,1	1,345618
3,427500	0,1	1,266892
3,429167	0,1	1,310398
3,430833	0,1	1,318451
3,432500	0,1	1,314719
3,434167	0,1	1,245624
3,435833	0,1	1,278717
3,437500	0,1	1,281527
3,439167	0,1	1,272262
3,440833	0,1	1,269027
3,442500	0,1	1,277862
3,444167	0,1	1,285331
3,445833	0,1	1,240804
3,447500	0,1	1,295953
3,449167	0,1	1,228168
3,450833	0,1	1,252713
3,452500	0,1	1,255879
3,454167	0,1	1,270316
3,455833	0,1	1,240515
3,457500	0,1	1,222552
3,459167	0,1	1,214793
3,460833	0,1	1,212277
3,462500	0,1	1,239854
3,464167	0,1	1,230454
3,465833	0,1	1,226214
3,467500	0,1	1,200933
3,469167	0,1	1,194824
3,470833	0,1	1,224338
3,472500	0,1	1,192963
3,474167	0,1	1,204588
3,475833	0,1	1,186925
3,477500	0,1	1,175146
3,479167	0,1	1,197547
3,480833	0,1	1,163874
3,482500	0,1	1,202930
3,484167	0,1	1,182329
3,485833	0,1	1,174642
3,487500	0,1	1,175287
3,489167	0,1	1,193884
3,490833	0,1	1,170047
3,492500	0,1	1,164371
3,494167	0,1	1,143113
3,495833	0,1	1,164722
3,497500	0,1	1,123155
3,499167	0,1	1,180227
3,500833	0,1	1,122870
3,502500	0,1	1,120414
3,504167	0,1	1,125797
3,505833	0,1	1,141382
3,507500	0,1	1,113742
3,509167	0,1	1,150643
3,510833	0,1	1,102185
3,512500	0,1	1,106696
3,514167	0,1	1,083939
3,515833	0,1	1,093270
3,517500	0,1	1,088891
3,519167	0,1	1,128881
3,520833	0,1	1,089689
3,522500	0,1	1,113231
3,524167	0,1	1,104257
3,525833	0,1	1,085663
3,527500	0,1	1,135128
3,529167	0,1	1,089908
3,530833	0,1	1,124433
3,532500	0,1	1,089546
3,534167	0,1	1,080705
3,535833	0,1	1,109780
3,537500	0,1	1,104407
3,539167	0,1	1,082149
3,540833	0,1	1,098653
3,542500	0,1	1,073814
3,544167	0,1	1,066343
3,545833	0,1	1,084938
3,547500	0,1	1,094919
3,549167	0,1	1,071167
3,550833	0,1	1,053130
3,552500	0,1	1,070430
3,554167	0,1	1,090178
3,555833	0,1	1,068647
3,557500	0,1	1,038491
3,559167	0,1	1,045158
3,560833	0,1	1,057149
3,562500	0,1	1,047604
3,564167	0,1	1,022049
3,565833	0,1	1,036540
3,567500	0,1	1,062606
3,569167	0,1	1,056365
3,570833	0,1	1,027361
3,572500	0,1	1,027499
3,574167	0,1	1,035755
3,575833	0,1	1,033741
3,577500	0,1	1,087299
3,579167	0,1	1,044666
3,580833	0,1	1,056789
3,582500	0,1	1,036692
3,584167	0,1	1,012711
3,585833	0,1	1,026345
3,587500	0,1	1,009186
3,589167	0,1	0,986935
3,590833	0,1	0,971641
3,592500	0,1	1,042704
3,594167	0,1	1,010341
3,595833	0,1	0,989952
3,597500	0,1	1,032301
3,599167	0,1	0,981843
3,600833	0,1	1,017582
3,602500	0,1	1,038479
3,604167	0,1	1,021545
3,605833	0,1	1,021822
3,607500	0,1	0,980057
3,609167	0,1	1,000638
3,610833	0,1	1,009913
3,612500	0,1	0,974877
3,614167	0,1	1,026057
3,615833	0,1	0,963108
3,617500	0,1	0,952324
3,619167	0,1	0,962519
3,620833	0,1	0,986502
3,622500	0,1	0,974373
3,624167	0,1	0,947170
3,625833	0,1	0,949165
3,627500	0,1	0,979525
3,629167	0,1	0,983338
3,630833	0,1	0,950465
3,632500	0,1	0,949812
3,634167	0,1	0,980611
3,635833	0,1	0,908692
3,637500	0,1	0,968540
3,639167	0,1	0,960878
3,640833	0,1	0,912558
3,642500	0,1	0,969116
3,644167	0,1	0,948312
3,645833	0,1	0,940270
3,647500	0,1	0,976312
3,649167	0,1	0,923699
3,650833	0,1	0,943558
3,652500	0,1	0,951976
3,654167	0,1	0,920252
3,655833	0,1	0,925635
3,657500	0,1	0,975791
3,659167	0,1	0,962171
3,660833	0,1	0,933309
3,662500	0,1	0,923618
3,664167	0,1	0,927416
3,665833	0,1	0,901939
3,667500	0,1	0,924757
3,669167	0,1	0,903660
3,670833	0,1	0,905170
3,672500	0,1	0,901718
3,674167	0,1	0,921751
3,675833	0,1	0,897987
3,677500	0,1	0,901939
3,679167	0,1	0,935378
3,680833	0,1	0,921970
3,682500	0,1	0,946515
3,684167	0,1	0,911709
3,685833	0,1	0,867271
3,687500	0,1	0,900499
3,689167	0,1	0,889450
3,690833	0,1	0,884781
3,692500	0,1	0,909264
3,694167	0,1	0,927558
3,695833	0,1	0,886657
3,697500	0,1	0,889371
3,699167	0,1	0,914495
3,700833	0,1	0,897422
3,702500	0,1	0,885434
3,704167	0,1	0,861676
3,705833	0,1	0,864262
3,707500	0,1	0,874671
3,709167	0,1	0,910616
3,710833	0,1	0,911776
3,712500	0,1	0,884351
3,714167	0,1	0,881058
3,715833	0,1	0,880545
3,717500	0,1	0,875953
3,719167	0,1	0,904658
3,720833	0,1	0,896493
3,722500	0,1	0,868918
3,724167	0,1	0,861597
3,725833	0,1	0,855067
3,727500	0,1	0,908106
3,729167	0,1	0,909833
3,730833	0,1	0,902799
3,732500	0,1	0,887667
3,734167	0,1	0,911272
3,735833	0,1	0,899711
3,737500	0,1	0,910986
3,739167	0,1	0,902307
3,740833	0,1	0,911487
3,742500	0,1	0,931586
3,744167	0,1	0,884874
3,745833	0,1	0,916572
3,747500	0,1	0,939698
3,749167	0,1	0,914871
3,750833	0,1	0,932158
3,752500	0,1	0,925058
3,754167	0,1	0,907892
3,755833	0,1	0,901160
3,757500	0,1	0,931368
3,759167	0,1	0,907185
3,760833	0,1	0,925984
3,762500	0,1	0,938331
3,764167	0,1	0,900087
3,765833	0,1	0,946944
3,767500	0,1	0,920176
3,769167	0,1	0,948600
3,770833	0,1	0,897654
3,772500	0,1	0,912919
3,774167	0,1	0,952040
3,775833	0,1	0,912925
3,777500	0,1	0,937759
3,779167	0,1	0,929573
3,780833	0,1	0,947018
3,782500	0,1	0,977738
3,784167	0,1	0,946528
3,785833	0,1	0,933176
3,787500	0,1	0,944505
3,789167	0,1	0,944579
3,790833	0,1	0,913651
3,792500	0,1	0,952474
3,794167	0,1	0,954552
3,795833	0,1	0,968127
3,797500	0,1	0,943720
3,799167	0,1	0,949669
3,800833	0,1	0,967551
3,802500	0,1	0,946734
3,804167	0,1	0,927069
3,805833	0,1	0,971643
3,807500	0,1	0,960444
3,809167	0,1	0,908683
3,810833	0,1	0,939255
3,812500	0,1	0,954553
3,814167	0,1	0,959296
3,815833	0,1	0,967765
3,817500	0,1	0,958512
3,819167	0,1	0,937622
3,820833	0,1	0,939474
3,822500	0,1	0,945227
3,824167	0,1	0,951466
3,825833	0,1	0,974011
3,827500	0,1	0,960808
3,829167	0,1	0,943079
3,830833	0,1	0,950032
3,832500	0,1	0,953193
3,834167	0,1	0,940494
3,835833	0,1	0,964965
3,837500	0,1	0,963891
3,839167	0,1	0,936832
3,840833	0,1	0,949966
3,842500	0,1	0,930586
3,844167	0,1	0,933020
3,845833	0,1	0,944792
3,847500	0,1	0,933309
3,849167	0,1	0,934241
3,850833	0,1	0,931517
3,852500	0,1	0,944727
3,854167	0,1	0,918736
3,855833	0,1	0,907604
3,857500	0,1	0,928920
3,859167	0,1	0,891676
3,860833	0,1	0,982397
3,862500	0,1	0,896645
3,864167	0,1	0,920740
3,865833	0,1	0,923333
3,867500	0,1	0,914428
3,869167	0,1	0,900358
3,870833	0,1	0,932935
3,872500	0,1	0,916091
3,874167	0,1	0,880918
3,875833	0,1	0,922462
3,877500	0,1	0,891541
3,879167	0,1	0,917443
3,880833	0,1	0,913358
3,882500	0,1	0,882419
3,884167	0,1	0,860454
3,885833	0,1	0,898912
3,887500	0,1	0,899220
3,889167	0,1	0,875671
3,890833	0,1	0,893249
3,892500	0,1	0,864191
3,894167	0,1	0,916939
3,895833	0,1	0,850285
3,897500	0,1	0,885928
3,899167	0,1	0,888163
3,900833	0,1	0,832696
3,902500	0,1	0,895892
3,904167	0,1	0,868650
3,905833	0,1	0,878253
3,907500	0,1	0,876760
3,909167	0,1	0,808637
3,910833	0,1	0,886774
3,912500	0,1	0,845307
3,914167	0,1	0,848821
3,915833	0,1	0,836848
3,917500	0,1	0,843077
3,919167	0,1	0,852990
3,920833	0,1	0,845968
3,922500	0,1	0,836412
3,924167	0,1	0,847528
3,925833	0,1	0,855793
3,927500	0,1	0,856792
3,929167	0,1	0,817331
3,930833	0,1	0,872498
3,932500	0,1	0,834481
3,934167	0,1	0,803531
3,935833	0,1	0,831165
3,937500	0,1	0,825509
3,939167	0,1	0,829374
3,940833	0,1	0,809716
3,942500	0,1	0,807275
3,944167	0,1	0,796291
3,945833	0,1	0,840274
3,947500	0,1	0,815180
3,949167	0,1	0,837564
3,950833	0,1	0,819340
3,952500	0,1	0,772184
3,954167	0,1	0,801035
3,955833	0,1	0,793340
3,957500	0,1	0,805038
3,959167	0,1	0,785600
3,960833	0,1	0,801388
3,962500	0,1	0,823129
3,964167	0,1	0,804136
3,965833	0,1	0,803183
3,967500	0,1	0,799658
3,969167	0,1	0,776935
3,970833	0,1	0,807066
3,972500	0,1	0,774344
3,974167	0,1	0,779921
3,975833	0,1	0,778780
3,977500	0,1	0,794417
3,979167	0,1	0,786260
3,980833	0,1	0,791502
3,982500	0,1	0,817961
3,984167	0,1	0,784468
3,985833	0,1	0,826360
3,987500	0,1	0,780945
3,989167	0,1	0,811361
3,990833	0,1	0,810077
3,992500	0,1	0,803394
3,994167	0,1	0,785320
3,995833	0,1	0,803045
3,997500	0,1	0,774912
3,999167	0,1	0,820555
4,000833	0,1	0,798534
4,002500	0,1	0,790764
4,004167	0,1	0,771541
4,005833	0,1	0,784380
4,007500	0,1	0,812435
4,009167	0,1	0,787958
4,010833	0,1	0,785675
4,012500	0,1	0,779225
4,014167	0,1	0,779067
4,015833	0,1	0,788386
4,017500	0,1	0,838420
4,019167	0,1	0,823775
4,020833	0,1	0,820202
4,022500	0,1	0,811867
4,024167	0,1	0,812310
4,025833	0,1	0,778282
4,027500	0,1	0,851972
4,029167	0,1	0,843595
4,030833	0,1	0,816549
4,032500	0,1	0,842646
4,034167	0,1	0,799388
4,035833	0,1	0,847308
4,037500	0,1	0,846183
4,039167	0,1	0,834685
4,040833	0,1	0,837764
4,042500	0,1	0,860957
4,044167	0,1	0,868853
4,045833	0,1	0,869865
4,047500	0,1	0,815022
4,049167	0,1	0,875938
4,050833	0,1	0,877533
4,052500	0,1	0,873518
4,054167	0,1	0,922531
4,055833	0,1	0,902807
4,057500	0,1	0,916072
4,059167	0,1	0,898491
4,060833	0,1	0,892028
4,062500	0,1	0,904662
4,064167	0,1	0,925192
4,065833	0,1	0,898129
4,067500	0,1	0,933940
4,069167	0,1	0,939261
4,070833	0,1	0,937254
4,072500	0,1	0,998548
4,074167	0,1	0,998996
4,075833	0,1	1,023616
4,077500	0,1	0,985499
4,079167	0,1	0,986065
4,080833	0,1	0,995044
4,082500	0,1	1,019736
4,084167	0,1	1,029724
4,085833	0,1	1,031880
4,087500	0,1	1,064472
4,089167	0,1	1,054000
4,090833	0,1	1,065621
4,092500	0,1	1,056432
4,094167	0,1	1,070431
4,095833	0,1	1,086943
4,097500	0,1	1,115593
4,099167	0,1	1,126232
4,100833	0,1	1,122139
4,102500	0,1	1,137287
4,104167	0,1	1,133127
4,105833	0,1	1,172334
4,107500	0,1	1,183041
4,109167	0,1	1,148576
4,110833	0,1	1,199119
4,112500	0,1	1,199850
4,114167	0,1	1,239636
4,115833	0,1	1,257529
4,117500	0,1	1,254013
4,119167	0,1	1,254586
4,120833	0,1	1,272829
4,122500	0,1	1,296607
4,124167	0,1	1,283543
4,125833	0,1	1,305086
4,127500	0,1	1,303867
4,129167	0,1	1,297908
4,130833	0,1	1,365214
4,132500	0,1	1,375648
4,134167	0,1	1,390737
4,135833	0,1	1,380035
4,137500	0,1	1,388007
4,139167	0,1	1,414659
4,140833	0,1	1,449080
4,142500	0,1	1,452261
4,144167	0,1	1,455355
4,145833	0,1	1,495947
4,147500	0,1	1,451762
4,149167	0,1	1,478485
4,150833	0,1	1,514917
4,152500	0,1	1,519526
4,154167	0,1	1,498045
4,155833	0,1	1,555462
4,157500	0,1	1,516668
4,159167	0,1	1,576380
4,160833	0,1	1,584002
4,162500	0,1	1,586453
4,164167	0,1	1,542628
4,165833	0,1	1,635393
4,167500	0,1	1,639223
4,169167	0,1	1,613362
4,170833	0,1	1,632758
4,172500	0,1	1,643613
4,174167	0,1	1,647210
4,175833	0,1	1,664320
4,177500	0,1	1,645136
4,179167	0,1	1,676029
4,180833	0,1	1,708535
4,182500	0,1	1,730332
4,184167	0,1	1,671390
4,185833	0,1	1,709255
4,187500	0,1	1,689217
4,189167	0,1	1,742050
4,190833	0,1	1,700713
4,192500	0,1	1,708478
4,194167	0,1	1,708987
4,195833	0,1	1,718833
4,197500	0,1	1,711633
4,199167	0,1	1,750402
4,200833	0,1	1,728623
4,202500	0,1	1,782510
4,204167	0,1	1,773419
4,205833	0,1	1,769736
4,207500	0,1	1,772208
4,209167	0,1	1,790010
4,210833	0,1	1,763853
4,212500	0,1	1,756218
4,214167	0,1	1,771249
4,215833	0,1	1,724469
4,217500	0,1	1,781447
4,219167	0,1	1,763563
4,220833	0,1	1,785339
4,222500	0,1	1,768785
4,224167	0,1	1,790508
4,225833	0,1	1,777803
4,227500	0,1	1,751139
4,229167	0,1	1,719277
4,230833	0,1	1,793518
4,232500	0,1	1,744090
4,234167	0,1	1,760817
4,235833	0,1	1,749886
4,237500	0,1	1,720137
4,239167	0,1	1,728753
4,240833	0,1	1,764708
4,242500	0,1	1,695339
4,244167	0,1	1,724856
4,245833	0,1	1,720915
4,247500	0,1	1,692732
4,249167	0,1	1,731962
4,250833	0,1	1,703956
4,252500	0,1	1,710919
4,254167	0,1	1,671902
4,255833	0,1	1,678715
4,257500	0,1	1,687831
4,259167	0,1	1,669432
4,260833	0,1	1,599358
4,262500	0,1	1,616507
4,264167	0,1	1,652952
4,265833	0,1	1,676762
4,267500	0,1	1,618531
4,269167	0,1	1,659415
4,270833	0,1	1,567584
4,272500	0,1	1,608007
4,274167	0,1	1,607658
4,275833	0,1	1,567920
4,277500	0,1	1,554832
4,279167	0,1	1,546127
4,280833	0,1	1,564089
4,282500	0,1	1,540877
4,284167	0,1	1,568042
4,285833	0,1	1,546418
4,287500	0,1	1,537065
4,289167	0,1	1,483977
4,290833	0,1	1,498537
4,292500	0,1	1,456723
4,294167	0,1	1,482220
4,295833	0,1	1,529654
4,297500	0,1	1,497821
4,299167	0,1	1,439330
4,300833	0,1	1,419481
4,302500	0,1	1,444409
4,304167	0,1	1,416691
4,305833	0,1	1,405977
4,307500	0,1	1,437514
4,309167	0,1	1,389749
4,310833	0,1	1,428309
4,312500	0,1	1,359427
4,314167	0,1	1,346836
4,315833	0,1	1,371546
4,317500	0,1	1,342100
4,319167	0,1	1,350565
4,320833	0,1	1,296698
4,322500	0,1	1,331233
4,324167	0,1	1,286353
4,325833	0,1	1,271619
4,327500	0,1	1,266011
4,329167	0,1	1,301990
4,330833	0,1	1,275136
4,332500	0,1	1,249636
4,334167	0,1	1,233758
4,335833	0,1	1,220181
4,337500	0,1	1,184631
4,339167	0,1	1,217082
4,340833	0,1	1,200213
4,342500	0,1	1,209904
4,344167	0,1	1,179103
4,345833	0,1	1,163011
4,347500	0,1	1,174564
4,349167	0,1	1,118916
4,350833	0,1	1,158900
4,352500	0,1	1,120212
4,354167	0,1	1,109864
4,355833	0,1	1,126084
4,357500	0,1	1,143467
4,359167	0,1	1,078778
4,360833	0,1	1,074388
4,362500	0,1	1,082425
4,364167	0,1	1,040147
4,365833	0,1	1,047671
4,367500	0,1	1,055717
4,369167	0,1	1,010993
4,370833	0,1	1,048890
4,372500	0,1	1,021761
4,374167	0,1	1,013860
4,375833	0,1	1,021894
4,377500	0,1	1,043007
4,379167	0,1	0,977616
4,380833	0,1	0,989520
4,382500	0,1	0,960953
4,384167	0,1	0,952327
4,385833	0,1	0,963599
4,387500	0,1	0,940344
4,389167	0,1	0,962809
4,390833	0,1	0,898726
4,392500	0,1	0,894541
4,394167	0,1	0,902514
4,395833	0,1	0,848035
4,397500	0,1	0,874367
4,399167	0,1	0,897202
4,400833	0,1	0,899795
4,402500	0,1	0,898065
4,404167	0,1	0,866349
4,405833	0,1	0,891661
4,407500	0,1	0,854288
4,409167	0,1	0,853422
4,410833	0,1	0,856657
4,412500	0,1	0,865833
4,414167	0,1	0,877325
4,415833	0,1	0,854228
4,417500	0,1	0,815533
4,419167	0,1	0,794512
4,420833	0,1	0,826363
4,422500	0,1	0,771836
4,424167	0,1	0,786970
4,425833	0,1	0,798239
4,427500	0,1	0,826217
4,429167	0,1	0,753409
4,430833	0,1	0,785178
4,432500	0,1	0,779644
4,434167	0,1	0,769252
4,435833	0,1	0,745501
4,437500	0,1	0,739318
4,439167	0,1	0,735381
4,440833	0,1	0,704462
4,442500	0,1	0,728778
4,444167	0,1	0,707987
4,445833	0,1	0,749151
4,447500	0,1	0,710206
4,449167	0,1	0,691247
4,450833	0,1	0,692178
4,452500	0,1	0,648192
4,454167	0,1	0,678750
4,455833	0,1	0,689315
4,457500	0,1	0,672244
4,459167	0,1	0,689889
4,460833	0,1	0,678839
4,462500	0,1	0,657764
4,464167	0,1	0,700779
4,465833	0,1	0,667234
4,467500	0,1	0,604535
4,469167	0,1	0,650866
4,470833	0,1	0,648251
4,472500	0,1	0,636746
4,474167	0,1	0,608332
4,475833	0,1	0,617430
4,477500	0,1	0,638882
4,479167	0,1	0,647001
4,480833	0,1	0,610998
4,482500	0,1	0,581553
4,484167	0,1	0,572891
4,485833	0,1	0,556167
4,487500	0,1	0,553513
4,489167	0,1	0,594389
4,490833	0,1	0,586102
4,492500	0,1	0,591183
4,494167	0,1	0,528641
4,495833	0,1	0,549233
4,497500	0,1	0,542197
4,499167	0,1	0,556955
4,500833	0,1	0,558839
4,502500	0,1	0,536322
4,504167	0,1	0,520227
4,505833	0,1	0,553008
4,507500	0,1	0,528150
4,509167	0,1	0,542725
4,510833	0,1	0,530580
4,512500	0,1	0,503460
4,514167	0,1	0,537600
4,515833	0,1	0,522751
4,517500	0,1	0,481354
4,519167	0,1	0,527434
4,520833	0,1	0,491517
4,522500	0,1	0,511400
4,524167	0,1	0,497292
4,525833	0,1	0,500967
4,527500	0,1	0,496081
4,529167	0,1	0,519488
4,530833	0,1	0,484184
4,532500	0,1	0,478655
4,534167	0,1	0,503696
4,535833	0,1	0,490427
4,537500	0,1	0,470269
4,539167	0,1	0,502086
4,540833	0,1	0,484535
4,542500	0,1	0,438722
4,544167	0,1	0,451327
4,545833	0,1	0,434061
4,547500	0,1	0,431750
4,549167	0,1	0,468622
4,550833	0,1	0,443152
4,552500	0,1	0,439592
4,554167	0,1	0,421193
4,555833	0,1	0,460809
4,557500	0,1	0,439938
4,559167	0,1	0,408898
4,560833	0,1	0,437854
4,562500	0,1	0,447166
4,564167	0,1	0,423093
4,565833	0,1	0,453015
4,567500	0,1	0,420530
4,569167	0,1	0,419929
4,570833	0,1	0,437143
4,572500	0,1	0,384369
4,574167	0,1	0,416817
4,575833	0,1	0,368033
4,577500	0,1	0,429525
4,579167	0,1	0,405011
4,580833	0,1	0,390150
4,582500	0,1	0,415269
4,584167	0,1	0,371394
4,585833	0,1	0,410052
4,587500	0,1	0,428450
4,589167	0,1	0,370921
4,590833	0,1	0,417572
4,592500	0,1	0,422813
4,594167	0,1	0,377711
4,595833	0,1	0,358567
4,597500	0,1	0,365489
4,599167	0,1	0,381414
4,600833	0,1	0,374644
4,602500	0,1	0,345225
4,604167	0,1	0,354656
4,605833	0,1	0,395839
4,607500	0,1	0,347267
4,609167	0,1	0,360291
4,610833	0,1	0,331321
4,612500	0,1	0,348526
4,614167	0,1	0,350669
4,615833	0,1	0,356474
4,617500	0,1	0,346884
4,619167	0,1	0,332895
4,620833	0,1	0,289205
4,622500	0,1	0,357969
4,624167	0,1	0,332864
4,625833	0,1	0,362717
4,627500	0,1	0,305080
4,629167	0,1	0,302977
4,630833	0,1	0,331764
4,632500	0,1	0,305921
4,634167	0,1	0,352967
4,635833	0,1	0,295826
4,637500	0,1	0,306525
4,639167	0,1	0,331154
4,640833	0,1	0,329802
4,642500	0,1	0,307430
4,644167	0,1	0,306847
4,645833	0,1	0,358006
4,647500	0,1	0,306182
4,649167	0,1	0,290539
4,650833	0,1	0,328095
4,652500	0,1	0,346096
4,654167	0,1	0,303293
4,655833	0,1	0,301416
4,657500	0,1	0,270526
4,659167	0,1	0,266514
4,660833	0,1	0,304989
4,662500	0,1	0,315402
4,664167	0,1	0,288539
4,665833	0,1	0,284508
4,667500	0,1	0,298222
4,669167	0,1	0,316658
4,670833	0,1	0,282242
4,672500	0,1	0,309372
4,674167	0,1	0,253202
4,675833	0,1	0,344874
4,677500	0,1	0,292703
4,679167	0,1	0,293354
4,680833	0,1	0,263430
4,682500	0,1	0,247030
4,684167	0,1	0,281090
4,685833	0,1	0,237141
4,687500	0,1	0,226505
4,689167	0,1	0,258139
4,690833	0,1	0,263900
4,692500	0,1	0,268399
4,694167	0,1	0,283097
4,695833	0,1	0,249904
4,697500	0,1	0,272485
4,699167	0,1	0,238109
4,700833	0,1	0,222944
4,702500	0,1	0,236567
4,704167	0,1	0,222164
4,705833	0,1	0,248002
4,707500	0,1	0,232215
4,709167	0,1	0,227609
4,710833	0,1	0,259379
4,712500	0,1	0,245979
4,714167	0,1	0,250048
4,715833	0,1	0,207758
4,717500	0,1	0,225601
4,719167	0,1	0,205818
4,720833	0,1	0,242147
4,722500	0,1	0,222849
4,724167	0,1	0,247993
4,725833	0,1	0,218855
4,727500	0,1	0,255268
4,729167	0,1	0,241244
4,730833	0,1	0,225832
4,732500	0,1	0,199217
4,734167	0,1	0,216996
4,735833	0,1	0,212756
4,737500	0,1	0,214286
4,739167	0,1	0,219002
4,740833	0,1	0,229321
4,742500	0,1	0,220160
4,744167	0,1	0,213218
4,745833	0,1	0,202793
4,747500	0,1	0,202897
4,749167	0,1	0,271915
4,750833	0,1	0,196936
4,752500	0,1	0,174506
4,754167	0,1	0,201735
4,755833	0,1	0,171082
4,757500	0,1	0,158494
4,759167	0,1	0,156067
4,760833	0,1	0,210470
4,762500	0,1	0,163172
4,764167	0,1	0,223946
4,765833	0,1	0,202278
4,767500	0,1	0,166037
4,769167	0,1	0,200645
4,770833	0,1	0,223733
4,772500	0,1	0,165397
4,774167	0,1	0,208383
4,775833	0,1	0,196585
4,777500	0,1	0,179683
4,779167	0,1	0,208560
4,780833	0,1	0,207163
4,782500	0,1	0,158610
4,784167	0,1	0,178406
4,785833	0,1	0,184415
4,787500	0,1	0,181480
4,789167	0,1	0,182885
4,790833	0,1	0,189312
4,792500	0,1	0,180240
4,794167	0,1	0,152600
4,795833	0,1	0,199016
4,797500	0,1	0,151181
4,799167	0,1	0,197775
4,800833	0,1	0,223568
4,802500	0,1	0,180517
4,804167	0,1	0,166497
4,805833	0,1	0,197662
4,807500	0,1	0,156252
4,809167	0,1	0,163622
4,810833	0,1	0,161577
4,812500	0,1	0,164469
4,814167	0,1	0,148552
4,815833	0,1	0,157261
4,817500	0,1	0,170002
4,819167	0,1	0,142572
4,820833	0,1	0,141631
4,822500	0,1	0,156526
4,824167	0,1	0,147861
4,825833	0,1	0,165755
4,827500	0,1	0,159689
4,829167	0,1	0,196573
4,830833	0,1	0,151429
4,832500	0,1	0,180210
4,834167	0,1	0,172877
4,835833	0,1	0,159448
4,837500	0,1	0,200885
4,839167	0,1	0,125131
4,840833	0,1	0,149054
4,842500	0,1	0,157597
4,844167	0,1	0,171628
4,845833	0,1	0,156157
4,847500	0,1	0,145703
4,849167	0,1	0,143901
4,850833	0,1	0,172976
4,852500	0,1	0,169920
4,854167	0,1	0,151490
4,855833	0,1	0,153130
4,857500	0,1	0,146705
4,859167	0,1	0,175314
4,860833	0,1	0,151089
4,862500	0,1	0,197592
4,864167	0,1	0,143067
4,865833	0,1	0,169335
4,867500	0,1	0,130501
4,869167	0,1	0,111796
4,870833	0,1	0,167259
4,872500	0,1	0,131146
4,874167	0,1	0,143051
4,875833	0,1	0,165378
4,877500	0,1	0,147419
4,879167	0,1	0,167617
4,880833	0,1	0,131255
4,882500	0,1	0,136537
4,884167	0,1	0,173444
4,885833	0,1	0,127346
4,887500	0,1	0,168195
4,889167	0,1	0,119030
4,890833	0,1	0,174883
4,892500	0,1	0,140639
4,894167	0,1	0,153034
4,895833	0,1	0,139766
4,897500	0,1	0,122780
4,899167	0,1	0,074848
4,900833	0,1	0,127163
4,902500	0,1	0,151030
4,904167	0,1	0,120849
4,905833	0,1	0,165387
4,907500	0,1	0,102491
4,909167	0,1	0,139176
4,910833	0,1	0,108798
4,912500	0,1	0,132644
4,914167	0,1	0,108462
4,915833	0,1	0,131709
4,917500	0,1	0,158968
4,919167	0,1	0,135168
4,920833	0,1	0,168063
4,922500	0,1	0,141659
4,924167	0,1	0,121980
4,925833	0,1	0,105013
4,927500	0,1	0,119124
4,929167	0,1	0,131290
4,930833	0,1	0,130492
4,932500	0,1	0,145585
4,934167	0,1	0,151149
4,935833	0,1	0,118270
4,937500	0,1	0,129819
4,939167	0,1	0,100658
4,940833	0,1	0,159829
4,942500	0,1	0,148350
4,944167	0,1	0,138409
4,945833	0,1	0,117622
4,947500	0,1	0,148052
4,949167	0,1	0,109311
4,950833	0,1	0,122153
4,952500	0,1	0,094811
4,954167	0,1	0,133018
4,955833	0,1	0,115263
4,957500	0,1	0,140960
4,959167	0,1	0,165265
4,960833	0,1	0,070192
4,962500	0,1	0,131767
4,964167	0,1	0,156747
4,965833	0,1	0,123315
4,967500	0,1	0,151699
4,969167	0,1	0,105644
4,970833	0,1	0,127572
4,972500	0,1	0,113018
4,974167	0,1	0,126910
4,975833	0,1	0,138228
4,977500	0,1	0,126601
4,979167	0,1	0,129378
4,980833	0,1	0,112840
4,982500	0,1	0,134599
4,984167	0,1	0,118110
4,985833	0,1	0,121486
4,987500	0,1	0,105169
4,989167	0,1	0,118303
4,990833	0,1	0,113105
4,992500	0,1	0,142801
4,994167	0,1	0,090681
4,995833	0,1	0,154647
4,997500	0,1	0,137612
4,999167	0,1	0,140650
5,000833	0,1	0,138541
5,002500	0,1	0,110885
5,004167	0,1	0,143847
5,005833	0,1	0,128469
5,007500	0,1	0,129936
5,009167	0,1	0,124712
5,010833	0,1	0,097722
5,012500	0,1	0,095982
5,014167	0,1	0,093359
5,015833	0,1	0,101716
5,017500	0,1	0,094627
5,019167	0,1	0,127659
5,020833	0,1	0,108037
5,022500	0,1	0,103366
5,024167	0,1	0,112834
5,025833	0,1	0,132310
5,027500	0,1	0,134584
5,029167	0,1	0,124088
5,030833	0,1	0,084230
5,032500	0,1	0,116675
5,034167	0,1	0,141161
5,035833	0,1	0,129314
5,037500	0,1	0,117950
5,039167	0,1	0,127198
5,040833	0,1	0,141359
5,042500	0,1	0,090036
5,044167	0,1	0,114918
5,045833	0,1	0,075848
5,047500	0,1	0,099046
5,049167	0,1	0,101874
5,050833	0,1	0,142798
5,052500	0,1	0,092128
5,054167	0,1	0,082155
5,055833	0,1	0,078730
5,057500	0,1	0,103358
5,059167	0,1	0,132442
5,060833	0,1	0,078631
5,062500	0,1	0,089531
5,064167	0,1	0,080310
5,065833	0,1	0,112183
5,067500	0,1	0,091205
5,069167	0,1	0,109451
5,070833	0,1	0,106165
5,072500	0,1	0,109278
5,074167	0,1	0,083004
5,075833	0,1	0,105849
5,077500	0,1	0,098208
5,079167	0,1	0,146577
5,080833	0,1	0,111800
5,082500	0,1	0,090895
5,084167	0,1	0,120854
5,085833	0,1	0,078916
5,087500	0,1	0,087664
5,089167	0,1	0,098203
5,090833	0,1	0,086579
5,092500	0,1	0,080865
5,094167	0,1	0,127723
5,095833	0,1	0,098391
5,097500	0,1	0,072821
5,099167	0,1	0,106447
5,100833	0,1	0,098275
5,102500	0,1	0,078867
5,104167	0,1	0,105803
5,105833	0,1	0,048083
5,107500	0,1	0,057737
5,109167	0,1	0,063587
5,110833	0,1	0,058786
5,112500	0,1	0,106731
5,114167	0,1	0,100342
5,115833	0,1	0,077999
5,117500	0,1	0,092399
5,119167	0,1	0,067218
5,120833	0,1	0,109602
5,122500	0,1	0,100607
5,124167	0,1	0,074489
5,125833	0,1	0,039006
5,127500	0,1	0,056401
5,129167	0,1	0,083880
5,130833	0,1	0,065971
5,132500	0,1	0,048339
5,134167	0,1	0,051782
5,135833	0,1	0,060629
5,137500	0,1	0,090816
5,139167	0,1	0,078842
5,140833	0,1	0,045410
5,142500	0,1	0,088167
5,144167	0,1	0,101427
5,145833	0,1	0,075221
5,147500	0,1	0,070969
5,149167	0,1	0,078549
5,150833	0,1	0,055523
5,152500	0,1	0,086592
5,154167	0,1	0,071084
5,155833	0,1	0,047941
5,157500	0,1	0,058337
5,159167	0,1	0,074188
5,160833	0,1	0,056611
5,162500	0,1	0,053028
5,164167	0,1	0,075122
5,165833	0,1	0,093398
5,167500	0,1	0,088933
5,169167	0,1	0,049834
5,170833	0,1	0,033867
5,172500	0,1	0,072472
5,174167	0,1	0,054409
5,175833	0,1	0,049450
5,177500	0,1	0,036978
5,179167	0,1	0,054912
5,180833	0,1	0,056650
5,182500	0,1	0,074478
5,184167	0,1	0,023025
5,185833	0,1	0,071314
5,187500	0,1	0,124430
5,189167	0,1	0,052778
5,190833	0,1	0,063495
5,192500	0,1	0,032137
5,194167	0,1	0,002148
5,195833	0,1	0,055081
5,197500	0,1	0,050271
5,199167	0,1	0,064184
5,200833	0,1	0,040292
5,202500	0,1	0,084077
5,204167	0,1	0,067370
5,205833	0,1	0,071902
5,207500	0,1	0,075170
5,209167	0,1	0,054611
5,210833	0,1	0,071676
5,212500	0,1	0,081860
5,214167	0,1	0,043831
5,215833	0,1	0,037821
5,217500	0,1	0,033553
5,219167	0,1	0,072939
5,220833	0,1	0,084506
5,222500	0,1	0,061904
5,224167	0,1	0,062208
5,225833	0,1	0,022089
5,227500	0,1	0,083382
5,229167	0,1	0,061014
5,230833	0,1	0,060631
5,232500	0,1	0,027823
5,234167	0,1	0,064913
5,235833	0,1	0,053096
5,237500	0,1	0,052827
5,239167	0,1	0,045313
5,240833	0,1	0,023330
5,242500	0,1	0,043596
5,244167	0,1	0,016995
5,245833	0,1	0,037860
5,247500	0,1	0,023618
5,249167	0,1	-0,003433
5,250833	0,1	0,028765
5,252500	0,1	0,059445
5,254167	0,1	0,030268
5,255833	0,1	0,048821
5,257500	0,1	0,052781
5,259167	0,1	0,022753
5,260833	0,1	0,033126
5,262500	0,1	0,021883
5,264167	0,1	0,059444
5,265833	0,1	0,050762
5,267500	0,1	0,013596
5,269167	0,1	0,003474
5,270833	0,1	0,008274
5,272500	0,1	0,055461
5,274167	0,1	0,033711
5,275833	0,1	0,010480
5,277500	0,1	0,014610
5,279167	0,1	-0,004127
5,280833	0,1	0,044833
5,282500	0,1	0,010928
5,284167	0,1	0,032502
5,285833	0,1	0,027859
5,287500	0,1	0,014302
5,289167	0,1	-0,006661
5,290833	0,1	0,020028
5,292500	0,1	0,040372
5,294167	0,1	-0,031455
5,295833	0,1	0,007663
5,297500	0,1	0,026676
5,299167	0,1	-0,001679
5,300833	0,1	-0,013173
5,302500	0,1	-0,017179
5,304167	0,1	0,018424
5,305833	0,1	-0,004771
5,307500	0,1	0,062549
5,309167	0,1	0,032249
5,310833	0,1	0,002746
5,312500	0,1	0,018828
5,314167	0,1	0,052129
5,315833	0,1	0,013995
5,317500	0,1	0,012943
5,319167	0,1	0,029701
5,320833	0,1	0,048043
5,322500	0,1	0,006550
5,324167	0,1	-0,004995
5,325833	0,1	-0,010709
5,327500	0,1	-0,002354
5,329167	0,1	-0,024531
5,330833	0,1	0,002002
5,332500	0,1	-0,000728
5,334167	0,1	-0,011220
5,335833	0,1	0,000179
5,337500	0,1	0,014074
5,339167	0,1	0,033680
5,340833	0,1	0,002503
5,342500	0,1	-0,018442
5,344167	0,1	-0,006002
5,345833	0,1	0,011516
5,347500	0,1	0,007919
5,349167	0,1	-0,034420
5,350833	0,1	0,018890
5,352500	0,1	0,049396
5,354167	0,1	0,025842
5,355833	0,1	0,015369
5,357500	0,1	-0,007836
5,359167	0,1	-0,046024
5,360833	0,1	-0,014984
5,362500	0,1	0,053500
5,364167	0,1	-0,005028
5,365833	0,1	0,018361
5,367500	0,1	-0,032193
5,369167	0,1	0,022866
5,370833	0,1	0,003966
5,372500	0,1	-0,017219
5,374167	0,1	-0,030269
5,375833	0,1	-0,031133
5,377500	0,1	-0,013246
5,379167	0,1	0,017714
5,380833	0,1	-0,022239
5,382500	0,1	-0,051917
5,384167	0,1	0,009682
5,385833	0,1	-0,050399
5,387500	0,1	-0,019430
5,389167	0,1	-0,030649
5,390833	0,1	0,030202
5,392500	0,1	0,014302
5,394167	0,1	-0,011391
5,395833	0,1	0,000226
5,397500	0,1	0,001073
5,399167	0,1	-0,001704
5,400833	0,1	-0,035910
5,402500	0,1	0,013487
5,404167	0,1	-0,031774
5,405833	0,1	-0,014359
5,407500	0,1	-0,025690
5,409167	0,1	-0,041963
5,410833	0,1	-0,036141
5,412500	0,1	0,044181
5,414167	0,1	-0,021828
5,415833	0,1	-0,030733
5,417500	0,1	-0,022250
5,419167	0,1	-0,044028
5,420833	0,1	-0,018494
5,422500	0,1	-0,076735
5,424167	0,1	-0,049197
5,425833	0,1	-0,017784
5,427500	0,1	-0,051024
5,429167	0,1	-0,035145
5,430833	0,1	-0,009204
5,432500	0,1	-0,014486
5,434167	0,1	-0,038002
5,435833	0,1	-0,009204
5,437500	0,1	-0,028889
5,439167	0,1	-0,021845
5,440833	0,1	-0,020536
5,442500	0,1	-0,012846
5,444167	0,1	-0,034646
5,445833	0,1	-0,037759
5,447500	0,1	0,004596
5,449167	0,1	-0,004550
5,450833	0,1	-0,013130
5,452500	0,1	-0,021734
5,454167	0,1	-0,048646
5,455833	0,1	0,009506
5,457500	0,1	-0,075598
5,459167	0,1	-0,053328
5,460833	0,1	-0,011697
5,462500	0,1	-0,048801
5,464167	0,1	-0,010919
5,465833	0,1	0,004649
5,467500	0,1	-0,044971
5,469167	0,1	-0,010182
5,470833	0,1	0,009316
5,472500	0,1	-0,039236
5,474167	0,1	-0,031382
5,475833	0,1	-0,040874
5,477500	0,1	-0,054790
5,479167	0,1	0,002415
5,480833	0,1	-0,041551
5,482500	0,1	-0,040092
5,484167	0,1	-0,026871
5,485833	0,1	-0,041046
5,487500	0,1	-0,005117
5,489167	0,1	-0,064200
5,490833	0,1	-0,019902
5,492500	0,1	-0,026777
5,494167	0,1	-0,038313
5,495833	0,1	-0,056383
5,497500	0,1	-0,025700
5,499167	0,1	-0,057182
5,500833	0,1	-0,004542
5,502500	0,1	-0,026863
5,504167	0,1	-0,007066
5,505833	0,1	0,002271
5,507500	0,1	-0,079439
5,509167	0,1	-0,071108
5,510833	0,1	-0,023501
5,512500	0,1	-0,020754
5,514167	0,1	-0,079025
5,515833	0,1	-0,006102
5,517500	0,1	-0,009974
5,519167	0,1	-0,026197
5,520833	0,1	-0,045781
5,522500	0,1	-0,068588
5,524167	0,1	-0,032571
5,525833	0,1	-0,064114
5,527500	0,1	-0,095394
5,529167	0,1	-0,048689
5,530833	0,1	-0,075099
5,532500	0,1	-0,041684
5,534167	0,1	-0,032516
5,535833	0,1	-0,030652
5,537500	0,1	-0,043046
5,539167	0,1	-0,048717
5,540833	0,1	-0,064607
5,542500	0,1	-0,070906
5,544167	0,1	-0,080062
5,545833	0,1	-0,040463
5,547500	0,1	-0,059234
5,549167	0,1	-0,032900
5,550833	0,1	-0,028604
5,552500	0,1	-0,057603
5,554167	0,1	-0,072878
5,555833	0,1	-0,053707
5,557500	0,1	-0,057437
5,559167	0,1	-0,051209
5,560833	0,1	-0,050413
5,562500	0,1	-0,043523
5,564167	0,1	-0,055204
5,565833	0,1	-0,053611
5,567500	0,1	-0,056766
5,569167	0,1	-0,052454
5,570833	0,1	-0,072324
5,572500	0,1	-0,065554
5,574167	0,1	-0,022035
5,575833	0,1	-0,064270
5,577500	0,1	-0,065989
5,579167	0,1	-0,086280
5,580833	0,1	-0,044127
5,582500	0,1	-0,068340
5,584167	0,1	-0,045857
5,585833	0,1	-0,067340
5,587500	0,1	-0,075986
5,589167	0,1	-0,070859
5,590833	0,1	-0,018478
5,592500	0,1	-0,024800
5,594167	0,1	-0,083246
5,595833	0,1	-0,059509
5,597500	0,1	-0,079124
5,599167	0,1	-0,080328
5,600833	0,1	-0,073818
5,602500	0,1	-0,073999
5,604167	0,1	-0,099038
5,605833	0,1	-0,070667
5,607500	0,1	-0,056457
5,609167	0,1	-0,054100
5,610833	0,1	-0,096695
5,612500	0,1	-0,066823
5,614167	0,1	-0,074790
5,615833	0,1	-0,097683
5,617500	0,1	-0,040378
5,619167	0,1	-0,090563
5,620833	0,1	-0,045259
5,622500	0,1	-0,085541
5,624167	0,1	-0,070862
5,625833	0,1	-0,082259
5,627500	0,1	-0,098554
5,629167	0,1	-0,080372
5,630833	0,1	-0,065441
5,632500	0,1	-0,000785
5,634167	0,1	-0,052484
5,635833	0,1	-0,093854
5,637500	0,1	-0,082909
5,639167	0,1	-0,035616
5,640833	0,1	-0,080605
5,642500	0,1	-0,043795
5,644167	0,1	-0,040008
5,645833	0,1	-0,115271
5,647500	0,1	-0,064226
5,649167	0,1	-0,041230
5,650833	0,1	-0,031696
5,652500	0,1	-0,055918
5,654167	0,1	-0,073918
5,655833	0,1	-0,072528
5,657500	0,1	-0,077012
5,659167	0,1	-0,056507
5,660833	0,1	-0,079876
5,662500	0,1	-0,070900
5,664167	0,1	-0,049376
5,665833	0,1	-0,083426
5,667500	0,1	-0,077107
5,669167	0,1	-0,060037
5,670833	0,1	-0,060519
5,672500	0,1	-0,020788
5,674167	0,1	-0,099670
5,675833	0,1	-0,033794
5,677500	0,1	-0,056183
5,679167	0,1	-0,072167
5,680833	0,1	-0,080773
5,682500	0,1	-0,055064
5,684167	0,1	-0,060610
5,685833	0,1	-0,048456
5,687500	0,1	-0,053741
5,689167	0,1	-0,037344
5,690833	0,1	-0,035827
5,692500	0,1	-0,043626
5,694167	0,1	-0,018693
5,695833	0,1	-0,062178
5,697500	0,1	-0,035899
5,699167	0,1	-0,042561
5,700833	0,1	-0,075138
5,702500	0,1	-0,048949
5,704167	0,1	-0,061474
5,705833	0,1	-0,029347
5,707500	0,1	-0,104629
5,709167	0,1	-0,067446
5,710833	0,1	-0,010387
5,712500	0,1	-0,098917
5,714167	0,1	-0,063354
5,715833	0,1	-0,024365
5,717500	0,1	-0,068831
5,719167	0,1	-0,055300
5,720833	0,1	-0,054255
5,722500	0,1	-0,053256
5,724167	0,1	-0,048365
5,725833	0,1	-0,020940
5,727500	0,1	-0,041292
5,729167	0,1	-0,055607
5,730833	0,1	-0,061436
5,732500	0,1	-0,024788
5,734167	0,1	-0,047671
5,735833	0,1	-0,043341
5,737500	0,1	-0,039893
5,739167	0,1	-0,051832
5,740833	0,1	-0,047323
5,742500	0,1	-0,058922
5,744167	0,1	-0,046672
5,745833	0,1	-0,007008
5,747500	0,1	-0,021755
5,749167	0,1	-0,044672
5,750833	0,1	-0,029674
5,752500	0,1	-0,029049
5,754167	0,1	-0,012804
5,755833	0,1	-0,042423
5,757500	0,1	-0,054384
5,759167	0,1	-0,050811
5,760833	0,1	-0,010695
5,762500	0,1	-0,024757
5,764167	0,1	-0,029139
5,765833	0,1	0,009934
5,767500	0,1	-0,074457
5,769167	0,1	-0,008034
5,770833	0,1	-0,036688
5,772500	0,1	-0,071584
5,774167	0,1	-0,015834
5,775833	0,1	-0,023510
5,777500	0,1	-0,028314
5,779167	0,1	-0,015448
5,780833	0,1	-0,075892
5,782500	0,1	-0,037191
5,784167	0,1	-0,066429
5,785833	0,1	-0,038213
5,787500	0,1	-0,001628
5,789167	0,1	-0,043776
5,790833	0,1	-0,070389
5,792500	0,1	-0,044658
5,794167	0,1	-0,044232
5,795833	0,1	0,009773
5,797500	0,1	-0,068152
5,799167	0,1	-0,040817
5,800833	0,1	-0,034696
5,802500	0,1	-0,032339
5,804167	0,1	-0,042428
5,805833	0,1	-0,011960
5,807500	0,1	-0,042357
5,809167	0,1	-0,020740
5,810833	0,1	-0,072224
5,812500	0,1	0,013879
5,814167	0,1	-0,048505
5,815833	0,1	-0,037806
5,817500	0,1	-0,046072
5,819167	0,1	-0,026921
5,820833	0,1	-0,042648
5,822500	0,1	-0,010737
5,824167	0,1	-0,013933
5,825833	0,1	-0,016645
5,827500	0,1	-0,056403
5,829167	0,1	-0,020033
5,830833	0,1	-0,058090
5,832500	0,1	-0,024990
5,834167	0,1	-0,047251
5,835833	0,1	-0,033896
5,837500	0,1	-0,052342
5,839167	0,1	-0,054056
5,840833	0,1	-0,062212
5,842500	0,1	-0,041989
5,844167	0,1	-0,024625
5,845833	0,1	-0,015178
5,847500	0,1	-0,043002
5,849167	0,1	-0,068142
5,850833	0,1	-0,044327
5,852500	0,1	-0,045296
5,854167	0,1	-0,027988
5,855833	0,1	-0,043451
5,857500	0,1	-0,027939
5,859167	0,1	-0,025447
5,860833	0,1	-0,036402
5,862500	0,1	-0,007489
5,864167	0,1	-0,042422
5,865833	0,1	-0,060762
5,867500	0,1	-0,044880
5,869167	0,1	-0,039209
5,870833	0,1	-0,073874
5,872500	0,1	-0,029994
5,874167	0,1	-0,014980
5,875833	0,1	-0,030021
5,877500	0,1	-0,060785
5,879167	0,1	-0,026275
5,880833	0,1	-0,044250
5,882500	0,1	-0,053320
5,884167	0,1	-0,051032
5,885833	0,1	-0,037715
5,887500	0,1	-0,067073
5,889167	0,1	-0,006785
5,890833	0,1	-0,066398
5,892500	0,1	-0,066320
5,894167	0,1	-0,071459
5,895833	0,1	-0,079301
5,897500	0,1	-0,082433
5,899167	0,1	-0,052239
5,900833	0,1	-0,032206
5,902500	0,1	-0,060786
5,904167	0,1	-0,073565
5,905833	0,1	-0,045082
5,907500	0,1	-0,067365
5,909167	0,1	-0,045236
5,910833	0,1	-0,081791
5,912500	0,1	-0,093531
5,914167	0,1	-0,060378
5,915833	0,1	-0,082719
5,917500	0,1	-0,038308
5,919167	0,1	-0,083762
5,920833	0,1	-0,052708
5,922500	0,1	-0,085461
5,924167	0,1	-0,093994
5,925833	0,1	-0,063071
5,927500	0,1	-0,089280
5,929167	0,1	-0,060658
5,930833	0,1	-0,077968
5,932500	0,1	-0,068570
5,934167	0,1	-0,070567
5,935833	0,1	-0,074906
5,937500	0,1	-0,072792
5,939167	0,1	-0,066388
5,940833	0,1	-0,075368
5,942500	0,1	-0,057994
5,944167	0,1	-0,088634
5,945833	0,1	-0,101817
5,947500	0,1	-0,036512
5,949167	0,1	-0,099475
5,950833	0,1	-0,042154
5,952500	0,1	-0,055673
5,954167	0,1	-0,092104
5,955833	0,1	-0,051752
5,957500	0,1	-0,054519
5,959167	0,1	-0,071052
5,960833	0,1	-0,079433
5,962500	0,1	-0,064036
5,964167	0,1	-0,060166
5,965833	0,1	-0,063321
5,967500	0,1	-0,076392
5,969167	0,1	-0,095924
5,970833	0,1	-0,058488
5,972500	0,1	-0,109701
5,974167	0,1	-0,085622
5,975833	0,1	-0,108104
5,977500	0,1	-0,056310
5,979167	0,1	-0,081875
5,980833	0,1	-0,101947
5,982500	0,1	-0,070129
5,984167	0,1	-0,100143
5,985833	0,1	-0,068394
5,987500	0,1	-0,077946
5,989167	0,1	-0,065176
5,990833	0,1	-0,083679
5,992500	0,1	-0,094991
5,994167	0,1	-0,055306
5,995833	0,1	-0,080874
5,997500	0,1	-0,142318
5,999167	0,1	-0,083185
6,000833	0,1	-0,080038
