File Path	chrom://chromeleon01/ikbm_chromeleon/2022/Rezex/Esteban/220612_chitin_4_7.seq/731.smp/UV_VIS_1.channel/UV_VIS_1.chm
Channel	UV_VIS_1

Injection Information:
Data Vault	ikbm_chromeleon
Injection	CelS2_04h-EGS_2
Injection Number	79
Position	GC7
Comment	
Processing Method	New ProcMethod
Instrument Method	Short_Rezex_6min_194nm
Type	Unknown
Status	Finished
Injection Date	13.06.2022
Injection Time	01:38:57
Injection Volume (µl)	8,000
Dilution Factor	1,0000
Weight	1,0000

Chromatogram Data Information:
Time Min. (min)	0,000833
Time Max. (min)	6,000833
Data Points	3601
Detector	UV
Generating Data System	Chromeleon 7.2.9.11323
Exporting Data System	Chromeleon 7.2.9.0
Operator	Instrument Controller
Signal Quantity	Absorbance
Signal Unit	mAU
Signal Min.	-0,088045
Signal Max.	271,195751
Channel	UV_VIS_1
Driver Name	VWD3000.dll
Channel Type	Evaluation
Min. Step (s)	0,1
Max. Step (s)	0,1
Average Step (s)	0,1

Signal Parameter Information:
Signal Info	WVL:194 nm

Chromatogram Data:
Time (min)	Step (s)	Value (mAU)
0,000833	n.a.	-0,025140
0,002500	0,1	-0,031272
0,004167	0,1	-0,053109
0,005833	0,1	-0,028152
0,007500	0,1	-0,029119
0,009167	0,1	-0,025515
0,010833	0,1	-0,020933
0,012500	0,1	-0,028144
0,014167	0,1	-0,018967
0,015833	0,1	-0,040284
0,017500	0,1	-0,036498
0,019167	0,1	-0,053588
0,020833	0,1	-0,038136
0,022500	0,1	-0,015654
0,024167	0,1	-0,045566
0,025833	0,1	-0,053382
0,027500	0,1	-0,031652
0,029167	0,1	-0,054456
0,030833	0,1	-0,063515
0,032500	0,1	-0,068509
0,034167	0,1	-0,088045
0,035833	0,1	-0,040921
0,037500	0,1	-0,067427
0,039167	0,1	-0,069940
0,040833	0,1	-0,065383
0,042500	0,1	-0,085476
0,044167	0,1	-0,077486
0,045833	0,1	-0,054778
0,047500	0,1	-0,056286
0,049167	0,1	-0,080917
0,050833	0,1	-0,085418
0,052500	0,1	-0,032551
0,054167	0,1	-0,024913
0,055833	0,1	-0,070677
0,057500	0,1	-0,028776
0,059167	0,1	-0,032350
0,060833	0,1	-0,037262
0,062500	0,1	-0,021558
0,064167	0,1	-0,029884
0,065833	0,1	-0,047558
0,067500	0,1	-0,048991
0,069167	0,1	-0,049592
0,070833	0,1	-0,046465
0,072500	0,1	-0,021436
0,074167	0,1	-0,021057
0,075833	0,1	-0,012087
0,077500	0,1	-0,055674
0,079167	0,1	0,010260
0,080833	0,1	-0,022851
0,082500	0,1	-0,031727
0,084167	0,1	0,001835
0,085833	0,1	-0,021529
0,087500	0,1	0,001338
0,089167	0,1	-0,010424
0,090833	0,1	-0,022525
0,092500	0,1	-0,026175
0,094167	0,1	-0,043248
0,095833	0,1	-0,009087
0,097500	0,1	-0,004583
0,099167	0,1	-0,040838
0,100833	0,1	-0,061690
0,102500	0,1	-0,055686
0,104167	0,1	-0,076589
0,105833	0,1	0,007397
0,107500	0,1	-0,051298
0,109167	0,1	-0,031300
0,110833	0,1	-0,042627
0,112500	0,1	-0,064052
0,114167	0,1	-0,034908
0,115833	0,1	-0,065666
0,117500	0,1	-0,056639
0,119167	0,1	-0,084565
0,120833	0,1	-0,077486
0,122500	0,1	-0,061904
0,124167	0,1	-0,077294
0,125833	0,1	-0,027555
0,127500	0,1	-0,064007
0,129167	0,1	-0,007123
0,130833	0,1	-0,057186
0,132500	0,1	-0,011703
0,134167	0,1	-0,040096
0,135833	0,1	-0,052780
0,137500	0,1	-0,036541
0,139167	0,1	-0,042857
0,140833	0,1	-0,014308
0,142500	0,1	-0,031871
0,144167	0,1	-0,028146
0,145833	0,1	-0,063738
0,147500	0,1	-0,044790
0,149167	0,1	-0,027652
0,150833	0,1	0,001462
0,152500	0,1	0,001448
0,154167	0,1	-0,065719
0,155833	0,1	-0,019618
0,157500	0,1	-0,045338
0,159167	0,1	0,014077
0,160833	0,1	-0,052208
0,162500	0,1	-0,016611
0,164167	0,1	0,014185
0,165833	0,1	-0,042761
0,167500	0,1	-0,050543
0,169167	0,1	-0,013730
0,170833	0,1	-0,001892
0,172500	0,1	-0,008187
0,174167	0,1	0,024714
0,175833	0,1	-0,002793
0,177500	0,1	-0,047323
0,179167	0,1	-0,025850
0,180833	0,1	-0,039932
0,182500	0,1	-0,021664
0,184167	0,1	-0,060919
0,185833	0,1	0,016786
0,187500	0,1	-0,054755
0,189167	0,1	-0,033103
0,190833	0,1	-0,037407
0,192500	0,1	-0,046586
0,194167	0,1	0,010616
0,195833	0,1	-0,031554
0,197500	0,1	-0,021639
0,199167	0,1	-0,043411
0,200833	0,1	-0,016048
0,202500	0,1	-0,014944
0,204167	0,1	-0,054576
0,205833	0,1	-0,026287
0,207500	0,1	-0,011715
0,209167	0,1	-0,014550
0,210833	0,1	-0,026484
0,212500	0,1	0,014599
0,214167	0,1	0,008849
0,215833	0,1	0,001949
0,217500	0,1	-0,012724
0,219167	0,1	-0,031704
0,220833	0,1	-0,018034
0,222500	0,1	-0,009226
0,224167	0,1	-0,041606
0,225833	0,1	-0,009916
0,227500	0,1	-0,018963
0,229167	0,1	0,004033
0,230833	0,1	-0,033794
0,232500	0,1	-0,028976
0,234167	0,1	0,007596
0,235833	0,1	-0,018172
0,237500	0,1	-0,029841
0,239167	0,1	0,009231
0,240833	0,1	-0,011831
0,242500	0,1	0,003434
0,244167	0,1	0,011064
0,245833	0,1	0,017529
0,247500	0,1	-0,038348
0,249167	0,1	-0,034964
0,250833	0,1	-0,022013
0,252500	0,1	-0,012231
0,254167	0,1	-0,037442
0,255833	0,1	-0,018803
0,257500	0,1	-0,036595
0,259167	0,1	-0,004302
0,260833	0,1	-0,007774
0,262500	0,1	-0,009617
0,264167	0,1	0,003435
0,265833	0,1	-0,022171
0,267500	0,1	-0,023150
0,269167	0,1	-0,006222
0,270833	0,1	0,009941
0,272500	0,1	-0,019931
0,274167	0,1	-0,011091
0,275833	0,1	0,006542
0,277500	0,1	-0,004498
0,279167	0,1	-0,015419
0,280833	0,1	0,019324
0,282500	0,1	-0,007228
0,284167	0,1	-0,045003
0,285833	0,1	0,019130
0,287500	0,1	-0,007270
0,289167	0,1	-0,000481
0,290833	0,1	-0,027061
0,292500	0,1	-0,003926
0,294167	0,1	-0,001289
0,295833	0,1	-0,008996
0,297500	0,1	-0,022980
0,299167	0,1	0,017044
0,300833	0,1	-0,056827
0,302500	0,1	-0,011890
0,304167	0,1	-0,019314
0,305833	0,1	-0,019129
0,307500	0,1	0,020070
0,309167	0,1	-0,001385
0,310833	0,1	-0,040673
0,312500	0,1	-0,029433
0,314167	0,1	-0,014927
0,315833	0,1	-0,032740
0,317500	0,1	0,040642
0,319167	0,1	0,013268
0,320833	0,1	-0,009986
0,322500	0,1	-0,032782
0,324167	0,1	-0,052096
0,325833	0,1	0,041446
0,327500	0,1	-0,008281
0,329167	0,1	-0,009017
0,330833	0,1	-0,022400
0,332500	0,1	-0,020726
0,334167	0,1	-0,019028
0,335833	0,1	0,013584
0,337500	0,1	-0,026704
0,339167	0,1	-0,010637
0,340833	0,1	-0,003404
0,342500	0,1	0,030351
0,344167	0,1	-0,014208
0,345833	0,1	-0,001892
0,347500	0,1	0,004243
0,349167	0,1	0,016846
0,350833	0,1	-0,032981
0,352500	0,1	0,012296
0,354167	0,1	0,006009
0,355833	0,1	-0,025090
0,357500	0,1	0,038200
0,359167	0,1	0,008524
0,360833	0,1	-0,000831
0,362500	0,1	-0,008291
0,364167	0,1	-0,024287
0,365833	0,1	0,048870
0,367500	0,1	0,003261
0,369167	0,1	0,005489
0,370833	0,1	0,010730
0,372500	0,1	0,002238
0,374167	0,1	0,005551
0,375833	0,1	-0,001014
0,377500	0,1	0,004555
0,379167	0,1	0,053147
0,380833	0,1	-0,003697
0,382500	0,1	0,023636
0,384167	0,1	0,043555
0,385833	0,1	0,014179
0,387500	0,1	0,019043
0,389167	0,1	0,020596
0,390833	0,1	0,011500
0,392500	0,1	-0,004723
0,394167	0,1	-0,017779
0,395833	0,1	0,019428
0,397500	0,1	-0,004410
0,399167	0,1	-0,035431
0,400833	0,1	0,006104
0,402500	0,1	-0,012723
0,404167	0,1	0,059856
0,405833	0,1	0,003825
0,407500	0,1	0,030373
0,409167	0,1	0,014777
0,410833	0,1	0,029650
0,412500	0,1	0,001436
0,414167	0,1	0,065117
0,415833	0,1	0,009959
0,417500	0,1	0,027118
0,419167	0,1	0,008189
0,420833	0,1	0,025298
0,422500	0,1	0,013782
0,424167	0,1	0,030730
0,425833	0,1	0,034234
0,427500	0,1	0,011402
0,429167	0,1	0,035122
0,430833	0,1	0,067224
0,432500	0,1	0,007868
0,434167	0,1	0,007336
0,435833	0,1	-0,001492
0,437500	0,1	0,007022
0,439167	0,1	0,015725
0,440833	0,1	0,033258
0,442500	0,1	0,053154
0,444167	0,1	0,040600
0,445833	0,1	0,004877
0,447500	0,1	0,005677
0,449167	0,1	0,004579
0,450833	0,1	0,057002
0,452500	0,1	0,019740
0,454167	0,1	-0,010170
0,455833	0,1	0,022662
0,457500	0,1	0,024433
0,459167	0,1	0,052510
0,460833	0,1	0,045347
0,462500	0,1	0,020148
0,464167	0,1	0,051412
0,465833	0,1	0,027982
0,467500	0,1	0,034337
0,469167	0,1	-0,013729
0,470833	0,1	0,033956
0,472500	0,1	0,015794
0,474167	0,1	0,018734
0,475833	0,1	0,033339
0,477500	0,1	0,018717
0,479167	0,1	0,010902
0,480833	0,1	0,033861
0,482500	0,1	0,008024
0,484167	0,1	0,029443
0,485833	0,1	0,025428
0,487500	0,1	0,035517
0,489167	0,1	0,043769
0,490833	0,1	0,055106
0,492500	0,1	0,046632
0,494167	0,1	0,023505
0,495833	0,1	0,036325
0,497500	0,1	0,010719
0,499167	0,1	0,069067
0,500833	0,1	0,034038
0,502500	0,1	0,057673
0,504167	0,1	0,010953
0,505833	0,1	0,019872
0,507500	0,1	0,021447
0,509167	0,1	0,023416
0,510833	0,1	0,024059
0,512500	0,1	0,010716
0,514167	0,1	0,044115
0,515833	0,1	0,044744
0,517500	0,1	0,042838
0,519167	0,1	0,037119
0,520833	0,1	0,024288
0,522500	0,1	0,042107
0,524167	0,1	0,044640
0,525833	0,1	0,039213
0,527500	0,1	0,039642
0,529167	0,1	0,028580
0,530833	0,1	0,089228
0,532500	0,1	0,040154
0,534167	0,1	0,045118
0,535833	0,1	0,067202
0,537500	0,1	0,041826
0,539167	0,1	0,049302
0,540833	0,1	0,059745
0,542500	0,1	0,037459
0,544167	0,1	0,067435
0,545833	0,1	0,035903
0,547500	0,1	0,037408
0,549167	0,1	0,038795
0,550833	0,1	0,042962
0,552500	0,1	0,069154
0,554167	0,1	0,053201
0,555833	0,1	0,046757
0,557500	0,1	0,074582
0,559167	0,1	0,066842
0,560833	0,1	0,050176
0,562500	0,1	0,046961
0,564167	0,1	0,061900
0,565833	0,1	0,044002
0,567500	0,1	0,083741
0,569167	0,1	0,097655
0,570833	0,1	0,059490
0,572500	0,1	0,084889
0,574167	0,1	0,065560
0,575833	0,1	0,036482
0,577500	0,1	0,092316
0,579167	0,1	0,076599
0,580833	0,1	0,076705
0,582500	0,1	0,075006
0,584167	0,1	0,102856
0,585833	0,1	0,085439
0,587500	0,1	0,043490
0,589167	0,1	0,063160
0,590833	0,1	0,073702
0,592500	0,1	0,068832
0,594167	0,1	0,082798
0,595833	0,1	0,064604
0,597500	0,1	0,086589
0,599167	0,1	0,098627
0,600833	0,1	0,098818
0,602500	0,1	0,105885
0,604167	0,1	0,106304
0,605833	0,1	0,109930
0,607500	0,1	0,086954
0,609167	0,1	0,099358
0,610833	0,1	0,074103
0,612500	0,1	0,100577
0,614167	0,1	0,052465
0,615833	0,1	0,100594
0,617500	0,1	0,070248
0,619167	0,1	0,111826
0,620833	0,1	0,099740
0,622500	0,1	0,114717
0,624167	0,1	0,084814
0,625833	0,1	0,121426
0,627500	0,1	0,075431
0,629167	0,1	0,118715
0,630833	0,1	0,081791
0,632500	0,1	0,081745
0,634167	0,1	0,094531
0,635833	0,1	0,096687
0,637500	0,1	0,101993
0,639167	0,1	0,098051
0,640833	0,1	0,137038
0,642500	0,1	0,108427
0,644167	0,1	0,158961
0,645833	0,1	0,125779
0,647500	0,1	0,180322
0,649167	0,1	0,143861
0,650833	0,1	0,139141
0,652500	0,1	0,166414
0,654167	0,1	0,182586
0,655833	0,1	0,152025
0,657500	0,1	0,139873
0,659167	0,1	0,145175
0,660833	0,1	0,169466
0,662500	0,1	0,132683
0,664167	0,1	0,168140
0,665833	0,1	0,170667
0,667500	0,1	0,173075
0,669167	0,1	0,170821
0,670833	0,1	0,161471
0,672500	0,1	0,172167
0,674167	0,1	0,181618
0,675833	0,1	0,147212
0,677500	0,1	0,217949
0,679167	0,1	0,168400
0,680833	0,1	0,200667
0,682500	0,1	0,169946
0,684167	0,1	0,205004
0,685833	0,1	0,193154
0,687500	0,1	0,149938
0,689167	0,1	0,162589
0,690833	0,1	0,205680
0,692500	0,1	0,213718
0,694167	0,1	0,214299
0,695833	0,1	0,197629
0,697500	0,1	0,212532
0,699167	0,1	0,220472
0,700833	0,1	0,199748
0,702500	0,1	0,179823
0,704167	0,1	0,207323
0,705833	0,1	0,215709
0,707500	0,1	0,171889
0,709167	0,1	0,201700
0,710833	0,1	0,228272
0,712500	0,1	0,206401
0,714167	0,1	0,229594
0,715833	0,1	0,232297
0,717500	0,1	0,248337
0,719167	0,1	0,212696
0,720833	0,1	0,260797
0,722500	0,1	0,286326
0,724167	0,1	0,263618
0,725833	0,1	0,241331
0,727500	0,1	0,248720
0,729167	0,1	0,292687
0,730833	0,1	0,278621
0,732500	0,1	0,285490
0,734167	0,1	0,246774
0,735833	0,1	0,306535
0,737500	0,1	0,279103
0,739167	0,1	0,298478
0,740833	0,1	0,307445
0,742500	0,1	0,274216
0,744167	0,1	0,301367
0,745833	0,1	0,295489
0,747500	0,1	0,307672
0,749167	0,1	0,307935
0,750833	0,1	0,316031
0,752500	0,1	0,289459
0,754167	0,1	0,325540
0,755833	0,1	0,316966
0,757500	0,1	0,304399
0,759167	0,1	0,308896
0,760833	0,1	0,340745
0,762500	0,1	0,295886
0,764167	0,1	0,315773
0,765833	0,1	0,309314
0,767500	0,1	0,324165
0,769167	0,1	0,340489
0,770833	0,1	0,318997
0,772500	0,1	0,285661
0,774167	0,1	0,267403
0,775833	0,1	0,289987
0,777500	0,1	0,307576
0,779167	0,1	0,309475
0,780833	0,1	0,319214
0,782500	0,1	0,276954
0,784167	0,1	0,306191
0,785833	0,1	0,272415
0,787500	0,1	0,289606
0,789167	0,1	0,284439
0,790833	0,1	0,337432
0,792500	0,1	0,309771
0,794167	0,1	0,274796
0,795833	0,1	0,304614
0,797500	0,1	0,339685
0,799167	0,1	0,314753
0,800833	0,1	0,314844
0,802500	0,1	0,303050
0,804167	0,1	0,259624
0,805833	0,1	0,284461
0,807500	0,1	0,318596
0,809167	0,1	0,300316
0,810833	0,1	0,297001
0,812500	0,1	0,303716
0,814167	0,1	0,305236
0,815833	0,1	0,281449
0,817500	0,1	0,257309
0,819167	0,1	0,294065
0,820833	0,1	0,335275
0,822500	0,1	0,309834
0,824167	0,1	0,283315
0,825833	0,1	0,276684
0,827500	0,1	0,305224
0,829167	0,1	0,278136
0,830833	0,1	0,288640
0,832500	0,1	0,314294
0,834167	0,1	0,317318
0,835833	0,1	0,297266
0,837500	0,1	0,304486
0,839167	0,1	0,293370
0,840833	0,1	0,331837
0,842500	0,1	0,344351
0,844167	0,1	0,322467
0,845833	0,1	0,315195
0,847500	0,1	0,346919
0,849167	0,1	0,301800
0,850833	0,1	0,307637
0,852500	0,1	0,308930
0,854167	0,1	0,282799
0,855833	0,1	0,276175
0,857500	0,1	0,313776
0,859167	0,1	0,325255
0,860833	0,1	0,295919
0,862500	0,1	0,321042
0,864167	0,1	0,327025
0,865833	0,1	0,333518
0,867500	0,1	0,334486
0,869167	0,1	0,350684
0,870833	0,1	0,312345
0,872500	0,1	0,348043
0,874167	0,1	0,309386
0,875833	0,1	0,284728
0,877500	0,1	0,316313
0,879167	0,1	0,363888
0,880833	0,1	0,351494
0,882500	0,1	0,332174
0,884167	0,1	0,305462
0,885833	0,1	0,316864
0,887500	0,1	0,337436
0,889167	0,1	0,353735
0,890833	0,1	0,323081
0,892500	0,1	0,316577
0,894167	0,1	0,296199
0,895833	0,1	0,330844
0,897500	0,1	0,355343
0,899167	0,1	0,284675
0,900833	0,1	0,336754
0,902500	0,1	0,329500
0,904167	0,1	0,337890
0,905833	0,1	0,357848
0,907500	0,1	0,362388
0,909167	0,1	0,365088
0,910833	0,1	0,326775
0,912500	0,1	0,313783
0,914167	0,1	0,352220
0,915833	0,1	0,360938
0,917500	0,1	0,366374
0,919167	0,1	0,378298
0,920833	0,1	0,360046
0,922500	0,1	0,350626
0,924167	0,1	0,363058
0,925833	0,1	0,354288
0,927500	0,1	0,373990
0,929167	0,1	0,380327
0,930833	0,1	0,325590
0,932500	0,1	0,395520
0,934167	0,1	0,374032
0,935833	0,1	0,423496
0,937500	0,1	0,401298
0,939167	0,1	0,357384
0,940833	0,1	0,358978
0,942500	0,1	0,366373
0,944167	0,1	0,406427
0,945833	0,1	0,390299
0,947500	0,1	0,373740
0,949167	0,1	0,346094
0,950833	0,1	0,396521
0,952500	0,1	0,379047
0,954167	0,1	0,388846
0,955833	0,1	0,384797
0,957500	0,1	0,416460
0,959167	0,1	0,410713
0,960833	0,1	0,408783
0,962500	0,1	0,359186
0,964167	0,1	0,401088
0,965833	0,1	0,374740
0,967500	0,1	0,398037
0,969167	0,1	0,430608
0,970833	0,1	0,399305
0,972500	0,1	0,379464
0,974167	0,1	0,450663
0,975833	0,1	0,412296
0,977500	0,1	0,397339
0,979167	0,1	0,412477
0,980833	0,1	0,443984
0,982500	0,1	0,449424
0,984167	0,1	0,381245
0,985833	0,1	0,422053
0,987500	0,1	0,407949
0,989167	0,1	0,411901
0,990833	0,1	0,443565
0,992500	0,1	0,460580
0,994167	0,1	0,479904
0,995833	0,1	0,477306
0,997500	0,1	0,452261
0,999167	0,1	0,455920
1,000833	0,1	0,485146
1,002500	0,1	0,494252
1,004167	0,1	0,510906
1,005833	0,1	0,483453
1,007500	0,1	0,507752
1,009167	0,1	0,485029
1,010833	0,1	0,522996
1,012500	0,1	0,565481
1,014167	0,1	0,557035
1,015833	0,1	0,557162
1,017500	0,1	0,596230
1,019167	0,1	0,585275
1,020833	0,1	0,613768
1,022500	0,1	0,606152
1,024167	0,1	0,581196
1,025833	0,1	0,585238
1,027500	0,1	0,644869
1,029167	0,1	0,618641
1,030833	0,1	0,620882
1,032500	0,1	0,673946
1,034167	0,1	0,686610
1,035833	0,1	0,716289
1,037500	0,1	0,634095
1,039167	0,1	0,702581
1,040833	0,1	0,671085
1,042500	0,1	0,669752
1,044167	0,1	0,714076
1,045833	0,1	0,744038
1,047500	0,1	0,779815
1,049167	0,1	0,772141
1,050833	0,1	0,776958
1,052500	0,1	0,807334
1,054167	0,1	0,830441
1,055833	0,1	0,858366
1,057500	0,1	0,930723
1,059167	0,1	0,950694
1,060833	0,1	1,066428
1,062500	0,1	1,209488
1,064167	0,1	1,357498
1,065833	0,1	1,546491
1,067500	0,1	1,766318
1,069167	0,1	2,071451
1,070833	0,1	2,496668
1,072500	0,1	2,941009
1,074167	0,1	3,551004
1,075833	0,1	4,231149
1,077500	0,1	5,036004
1,079167	0,1	5,959478
1,080833	0,1	7,017837
1,082500	0,1	8,209620
1,084167	0,1	9,553041
1,085833	0,1	11,014539
1,087500	0,1	12,524074
1,089167	0,1	14,217046
1,090833	0,1	15,964414
1,092500	0,1	17,756586
1,094167	0,1	19,543949
1,095833	0,1	21,417093
1,097500	0,1	23,159959
1,099167	0,1	24,907070
1,100833	0,1	26,509085
1,102500	0,1	28,061916
1,104167	0,1	29,502020
1,105833	0,1	30,770661
1,107500	0,1	31,798771
1,109167	0,1	32,813624
1,110833	0,1	33,553541
1,112500	0,1	34,188271
1,114167	0,1	34,653152
1,115833	0,1	34,902782
1,117500	0,1	35,120796
1,119167	0,1	35,173476
1,120833	0,1	35,135330
1,122500	0,1	35,007131
1,124167	0,1	34,699012
1,125833	0,1	34,514850
1,127500	0,1	34,115579
1,129167	0,1	33,753394
1,130833	0,1	33,411004
1,132500	0,1	32,994285
1,134167	0,1	32,561951
1,135833	0,1	32,228439
1,137500	0,1	31,878012
1,139167	0,1	31,584397
1,140833	0,1	31,280789
1,142500	0,1	31,115592
1,144167	0,1	30,960125
1,145833	0,1	30,885640
1,147500	0,1	30,928086
1,149167	0,1	30,971397
1,150833	0,1	31,086092
1,152500	0,1	31,318975
1,154167	0,1	31,584402
1,155833	0,1	31,920988
1,157500	0,1	32,328780
1,159167	0,1	32,819079
1,160833	0,1	33,352322
1,162500	0,1	33,848527
1,164167	0,1	34,473380
1,165833	0,1	35,051569
1,167500	0,1	35,575790
1,169167	0,1	36,184268
1,170833	0,1	36,783794
1,172500	0,1	37,293850
1,174167	0,1	37,832051
1,175833	0,1	38,371421
1,177500	0,1	38,808202
1,179167	0,1	39,212269
1,180833	0,1	39,560321
1,182500	0,1	39,943460
1,184167	0,1	40,199055
1,185833	0,1	40,448383
1,187500	0,1	40,663066
1,189167	0,1	40,865425
1,190833	0,1	41,067824
1,192500	0,1	41,340931
1,194167	0,1	41,548687
1,195833	0,1	41,847360
1,197500	0,1	42,262852
1,199167	0,1	42,654575
1,200833	0,1	43,286740
1,202500	0,1	43,952681
1,204167	0,1	44,805371
1,205833	0,1	45,918974
1,207500	0,1	47,181283
1,209167	0,1	48,696408
1,210833	0,1	50,429054
1,212500	0,1	52,373878
1,214167	0,1	54,634533
1,215833	0,1	57,063348
1,217500	0,1	59,810183
1,219167	0,1	62,702550
1,220833	0,1	65,793592
1,222500	0,1	69,136526
1,224167	0,1	72,529410
1,225833	0,1	75,996546
1,227500	0,1	79,624400
1,229167	0,1	83,237301
1,230833	0,1	86,790446
1,232500	0,1	90,257703
1,234167	0,1	93,736783
1,235833	0,1	96,931142
1,237500	0,1	100,152651
1,239167	0,1	103,078479
1,240833	0,1	105,810598
1,242500	0,1	108,288337
1,244167	0,1	110,596160
1,245833	0,1	112,534716
1,247500	0,1	114,284863
1,249167	0,1	115,754458
1,250833	0,1	116,897204
1,252500	0,1	117,899197
1,254167	0,1	118,538559
1,255833	0,1	118,877940
1,257500	0,1	118,967655
1,259167	0,1	118,798047
1,260833	0,1	118,417763
1,262500	0,1	117,781553
1,264167	0,1	116,832515
1,265833	0,1	115,825808
1,267500	0,1	114,496701
1,269167	0,1	112,957029
1,270833	0,1	111,251419
1,272500	0,1	109,488132
1,274167	0,1	107,462035
1,275833	0,1	105,377467
1,277500	0,1	103,088403
1,279167	0,1	100,814501
1,280833	0,1	98,426051
1,282500	0,1	95,981330
1,284167	0,1	93,420904
1,285833	0,1	90,882883
1,287500	0,1	88,277427
1,289167	0,1	85,730078
1,290833	0,1	83,178705
1,292500	0,1	80,637670
1,294167	0,1	78,129385
1,295833	0,1	75,674774
1,297500	0,1	73,283535
1,299167	0,1	70,939290
1,300833	0,1	68,618549
1,302500	0,1	66,393467
1,304167	0,1	64,218521
1,305833	0,1	62,116223
1,307500	0,1	60,198169
1,309167	0,1	58,229039
1,310833	0,1	56,400448
1,312500	0,1	54,584139
1,314167	0,1	52,875363
1,315833	0,1	51,249571
1,317500	0,1	49,686879
1,319167	0,1	48,179016
1,320833	0,1	46,760950
1,322500	0,1	45,406874
1,324167	0,1	44,134981
1,325833	0,1	42,875446
1,327500	0,1	41,642312
1,329167	0,1	40,508770
1,330833	0,1	39,397356
1,332500	0,1	38,358928
1,334167	0,1	37,331084
1,335833	0,1	36,333409
1,337500	0,1	35,377920
1,339167	0,1	34,512246
1,340833	0,1	33,632301
1,342500	0,1	32,833540
1,344167	0,1	31,958922
1,345833	0,1	31,143731
1,347500	0,1	30,434294
1,349167	0,1	29,691291
1,350833	0,1	28,932164
1,352500	0,1	28,252335
1,354167	0,1	27,542534
1,355833	0,1	26,896614
1,357500	0,1	26,231330
1,359167	0,1	25,647259
1,360833	0,1	25,042240
1,362500	0,1	24,462361
1,364167	0,1	23,828105
1,365833	0,1	23,268104
1,367500	0,1	22,777472
1,369167	0,1	22,209711
1,370833	0,1	21,691355
1,372500	0,1	21,234215
1,374167	0,1	20,714562
1,375833	0,1	20,189282
1,377500	0,1	19,765585
1,379167	0,1	19,304683
1,380833	0,1	18,858000
1,382500	0,1	18,443243
1,384167	0,1	17,996618
1,385833	0,1	17,632456
1,387500	0,1	17,201353
1,389167	0,1	16,807813
1,390833	0,1	16,503909
1,392500	0,1	16,116644
1,394167	0,1	15,741561
1,395833	0,1	15,444280
1,397500	0,1	15,084153
1,399167	0,1	14,798922
1,400833	0,1	14,497877
1,402500	0,1	14,171084
1,404167	0,1	13,927931
1,405833	0,1	13,639529
1,407500	0,1	13,378886
1,409167	0,1	13,166673
1,410833	0,1	12,896262
1,412500	0,1	12,649527
1,414167	0,1	12,440890
1,415833	0,1	12,194256
1,417500	0,1	12,007721
1,419167	0,1	11,776092
1,420833	0,1	11,593817
1,422500	0,1	11,413111
1,424167	0,1	11,207069
1,425833	0,1	11,076492
1,427500	0,1	10,860401
1,429167	0,1	10,762003
1,430833	0,1	10,570219
1,432500	0,1	10,353981
1,434167	0,1	10,263885
1,435833	0,1	10,050388
1,437500	0,1	9,901468
1,439167	0,1	9,768397
1,440833	0,1	9,644822
1,442500	0,1	9,519965
1,444167	0,1	9,358487
1,445833	0,1	9,241923
1,447500	0,1	9,118980
1,449167	0,1	8,926032
1,450833	0,1	8,864475
1,452500	0,1	8,750483
1,454167	0,1	8,648307
1,455833	0,1	8,519327
1,457500	0,1	8,428989
1,459167	0,1	8,280658
1,460833	0,1	8,227855
1,462500	0,1	8,121680
1,464167	0,1	7,991955
1,465833	0,1	7,886301
1,467500	0,1	7,807907
1,469167	0,1	7,718115
1,470833	0,1	7,609609
1,472500	0,1	7,513409
1,474167	0,1	7,509803
1,475833	0,1	7,380728
1,477500	0,1	7,310710
1,479167	0,1	7,258900
1,480833	0,1	7,162805
1,482500	0,1	7,112319
1,484167	0,1	7,026504
1,485833	0,1	6,976129
1,487500	0,1	6,950385
1,489167	0,1	6,922314
1,490833	0,1	6,877281
1,492500	0,1	6,856668
1,494167	0,1	6,802511
1,495833	0,1	6,740236
1,497500	0,1	6,701831
1,499167	0,1	6,690734
1,500833	0,1	6,665097
1,502500	0,1	6,619913
1,504167	0,1	6,603130
1,505833	0,1	6,568380
1,507500	0,1	6,544989
1,509167	0,1	6,542943
1,510833	0,1	6,557481
1,512500	0,1	6,470086
1,514167	0,1	6,479114
1,515833	0,1	6,447354
1,517500	0,1	6,415898
1,519167	0,1	6,467653
1,520833	0,1	6,417632
1,522500	0,1	6,346950
1,524167	0,1	6,322446
1,525833	0,1	6,377882
1,527500	0,1	6,351981
1,529167	0,1	6,277300
1,530833	0,1	6,320882
1,532500	0,1	6,279176
1,534167	0,1	6,226919
1,535833	0,1	6,251938
1,537500	0,1	6,203826
1,539167	0,1	6,216575
1,540833	0,1	6,208780
1,542500	0,1	6,127783
1,544167	0,1	6,121798
1,545833	0,1	6,127504
1,547500	0,1	6,077045
1,549167	0,1	6,084770
1,550833	0,1	6,057774
1,552500	0,1	6,025523
1,554167	0,1	6,016487
1,555833	0,1	5,961860
1,557500	0,1	5,959465
1,559167	0,1	5,972723
1,560833	0,1	5,925725
1,562500	0,1	5,913181
1,564167	0,1	5,883863
1,565833	0,1	5,825756
1,567500	0,1	5,770131
1,569167	0,1	5,783859
1,570833	0,1	5,767061
1,572500	0,1	5,752930
1,574167	0,1	5,713403
1,575833	0,1	5,719813
1,577500	0,1	5,662686
1,579167	0,1	5,649570
1,580833	0,1	5,615965
1,582500	0,1	5,579676
1,584167	0,1	5,590273
1,585833	0,1	5,581320
1,587500	0,1	5,502469
1,589167	0,1	5,554164
1,590833	0,1	5,489063
1,592500	0,1	5,448980
1,594167	0,1	5,429199
1,595833	0,1	5,450570
1,597500	0,1	5,357689
1,599167	0,1	5,376586
1,600833	0,1	5,324570
1,602500	0,1	5,306941
1,604167	0,1	5,288770
1,605833	0,1	5,245487
1,607500	0,1	5,255707
1,609167	0,1	5,251944
1,610833	0,1	5,200136
1,612500	0,1	5,234269
1,614167	0,1	5,210738
1,615833	0,1	5,172406
1,617500	0,1	5,178896
1,619167	0,1	5,193848
1,620833	0,1	5,204673
1,622500	0,1	5,102721
1,624167	0,1	5,154208
1,625833	0,1	5,195450
1,627500	0,1	5,174038
1,629167	0,1	5,250967
1,630833	0,1	5,281089
1,632500	0,1	5,295116
1,634167	0,1	5,327888
1,635833	0,1	5,373023
1,637500	0,1	5,433149
1,639167	0,1	5,510673
1,640833	0,1	5,614736
1,642500	0,1	5,767495
1,644167	0,1	5,814853
1,645833	0,1	5,964239
1,647500	0,1	6,103519
1,649167	0,1	6,335168
1,650833	0,1	6,553593
1,652500	0,1	6,812689
1,654167	0,1	7,045080
1,655833	0,1	7,352898
1,657500	0,1	7,697084
1,659167	0,1	8,056054
1,660833	0,1	8,470870
1,662500	0,1	8,955599
1,664167	0,1	9,370790
1,665833	0,1	9,940535
1,667500	0,1	10,506297
1,669167	0,1	11,144019
1,670833	0,1	11,871933
1,672500	0,1	12,597227
1,674167	0,1	13,454938
1,675833	0,1	14,281113
1,677500	0,1	15,248949
1,679167	0,1	16,248353
1,680833	0,1	17,326338
1,682500	0,1	18,504620
1,684167	0,1	19,659678
1,685833	0,1	20,971236
1,687500	0,1	22,313436
1,689167	0,1	23,761524
1,690833	0,1	25,227803
1,692500	0,1	26,790794
1,694167	0,1	28,439790
1,695833	0,1	30,157322
1,697500	0,1	31,935854
1,699167	0,1	33,781097
1,700833	0,1	35,737970
1,702500	0,1	37,684064
1,704167	0,1	39,695497
1,705833	0,1	41,835468
1,707500	0,1	43,931546
1,709167	0,1	46,188807
1,710833	0,1	48,434014
1,712500	0,1	50,754432
1,714167	0,1	53,071803
1,715833	0,1	55,425783
1,717500	0,1	57,848880
1,719167	0,1	60,242028
1,720833	0,1	62,628964
1,722500	0,1	65,142156
1,724167	0,1	67,594974
1,725833	0,1	70,020506
1,727500	0,1	72,471919
1,729167	0,1	74,854253
1,730833	0,1	77,282454
1,732500	0,1	79,662609
1,734167	0,1	82,000031
1,735833	0,1	84,401007
1,737500	0,1	86,672980
1,739167	0,1	88,922072
1,740833	0,1	91,072390
1,742500	0,1	93,245383
1,744167	0,1	95,287935
1,745833	0,1	97,266358
1,747500	0,1	99,245692
1,749167	0,1	101,070174
1,750833	0,1	102,820601
1,752500	0,1	104,518346
1,754167	0,1	106,117113
1,755833	0,1	107,637304
1,757500	0,1	109,064441
1,759167	0,1	110,359334
1,760833	0,1	111,572252
1,762500	0,1	112,707566
1,764167	0,1	113,691280
1,765833	0,1	114,609808
1,767500	0,1	115,490779
1,769167	0,1	116,094001
1,770833	0,1	116,789232
1,772500	0,1	117,296466
1,774167	0,1	117,665592
1,775833	0,1	117,986247
1,777500	0,1	118,175870
1,779167	0,1	118,259575
1,780833	0,1	118,243609
1,782500	0,1	118,132985
1,784167	0,1	117,949062
1,785833	0,1	117,651096
1,787500	0,1	117,274045
1,789167	0,1	116,750015
1,790833	0,1	116,229334
1,792500	0,1	115,566807
1,794167	0,1	114,813768
1,795833	0,1	114,048325
1,797500	0,1	113,144467
1,799167	0,1	112,237830
1,800833	0,1	111,170859
1,802500	0,1	110,044638
1,804167	0,1	108,927621
1,805833	0,1	107,693502
1,807500	0,1	106,424682
1,809167	0,1	105,094109
1,810833	0,1	103,785553
1,812500	0,1	102,359965
1,814167	0,1	100,939760
1,815833	0,1	99,466783
1,817500	0,1	97,899651
1,819167	0,1	96,389745
1,820833	0,1	94,827412
1,822500	0,1	93,229660
1,824167	0,1	91,605799
1,825833	0,1	89,979739
1,827500	0,1	88,340094
1,829167	0,1	86,715465
1,830833	0,1	85,050988
1,832500	0,1	83,413214
1,834167	0,1	81,706368
1,835833	0,1	80,115972
1,837500	0,1	78,468254
1,839167	0,1	76,818593
1,840833	0,1	75,226498
1,842500	0,1	73,598638
1,844167	0,1	71,981498
1,845833	0,1	70,424485
1,847500	0,1	68,893766
1,849167	0,1	67,365596
1,850833	0,1	65,845709
1,852500	0,1	64,379645
1,854167	0,1	62,896662
1,855833	0,1	61,435189
1,857500	0,1	60,013360
1,859167	0,1	58,658381
1,860833	0,1	57,269727
1,862500	0,1	55,936205
1,864167	0,1	54,585135
1,865833	0,1	53,291021
1,867500	0,1	52,022452
1,869167	0,1	50,796716
1,870833	0,1	49,558024
1,872500	0,1	48,308684
1,874167	0,1	47,207248
1,875833	0,1	46,063846
1,877500	0,1	44,924168
1,879167	0,1	43,800656
1,880833	0,1	42,766056
1,882500	0,1	41,687685
1,884167	0,1	40,705768
1,885833	0,1	39,678665
1,887500	0,1	38,672743
1,889167	0,1	37,798718
1,890833	0,1	36,864345
1,892500	0,1	35,971274
1,894167	0,1	35,125818
1,895833	0,1	34,242229
1,897500	0,1	33,365172
1,899167	0,1	32,568088
1,900833	0,1	31,786752
1,902500	0,1	31,007677
1,904167	0,1	30,284996
1,905833	0,1	29,543124
1,907500	0,1	28,875116
1,909167	0,1	28,179092
1,910833	0,1	27,531856
1,912500	0,1	26,876257
1,914167	0,1	26,260159
1,915833	0,1	25,617790
1,917500	0,1	25,005165
1,919167	0,1	24,427003
1,920833	0,1	23,828678
1,922500	0,1	23,310719
1,924167	0,1	22,743972
1,925833	0,1	22,217488
1,927500	0,1	21,738783
1,929167	0,1	21,183563
1,930833	0,1	20,744909
1,932500	0,1	20,283823
1,934167	0,1	19,783957
1,935833	0,1	19,367624
1,937500	0,1	18,902857
1,939167	0,1	18,531346
1,940833	0,1	18,088430
1,942500	0,1	17,687211
1,944167	0,1	17,339119
1,945833	0,1	16,992279
1,947500	0,1	16,557832
1,949167	0,1	16,264918
1,950833	0,1	15,923585
1,952500	0,1	15,549487
1,954167	0,1	15,239567
1,955833	0,1	14,930523
1,957500	0,1	14,614397
1,959167	0,1	14,325993
1,960833	0,1	14,078956
1,962500	0,1	13,815676
1,964167	0,1	13,579315
1,965833	0,1	13,281978
1,967500	0,1	13,076192
1,969167	0,1	12,788253
1,970833	0,1	12,583594
1,972500	0,1	12,387023
1,974167	0,1	12,112262
1,975833	0,1	11,898142
1,977500	0,1	11,782394
1,979167	0,1	11,529227
1,980833	0,1	11,384015
1,982500	0,1	11,172020
1,984167	0,1	11,025257
1,985833	0,1	10,836459
1,987500	0,1	10,670390
1,989167	0,1	10,560106
1,990833	0,1	10,437969
1,992500	0,1	10,325894
1,994167	0,1	10,201459
1,995833	0,1	10,073297
1,997500	0,1	9,938352
1,999167	0,1	9,813374
2,000833	0,1	9,720086
2,002500	0,1	9,628627
2,004167	0,1	9,560169
2,005833	0,1	9,461545
2,007500	0,1	9,360681
2,009167	0,1	9,289718
2,010833	0,1	9,255822
2,012500	0,1	9,145048
2,014167	0,1	9,050774
2,015833	0,1	9,033052
2,017500	0,1	8,953428
2,019167	0,1	8,954966
2,020833	0,1	8,893021
2,022500	0,1	8,817723
2,024167	0,1	8,843808
2,025833	0,1	8,744331
2,027500	0,1	8,726004
2,029167	0,1	8,678138
2,030833	0,1	8,646376
2,032500	0,1	8,620486
2,034167	0,1	8,618615
2,035833	0,1	8,592435
2,037500	0,1	8,610545
2,039167	0,1	8,565726
2,040833	0,1	8,566042
2,042500	0,1	8,520818
2,044167	0,1	8,535092
2,045833	0,1	8,551649
2,047500	0,1	8,510741
2,049167	0,1	8,541841
2,050833	0,1	8,508141
2,052500	0,1	8,478960
2,054167	0,1	8,529617
2,055833	0,1	8,506652
2,057500	0,1	8,461856
2,059167	0,1	8,513711
2,060833	0,1	8,462588
2,062500	0,1	8,527318
2,064167	0,1	8,530686
2,065833	0,1	8,496775
2,067500	0,1	8,508178
2,069167	0,1	8,535189
2,070833	0,1	8,478259
2,072500	0,1	8,493061
2,074167	0,1	8,502435
2,075833	0,1	8,502109
2,077500	0,1	8,511507
2,079167	0,1	8,504859
2,080833	0,1	8,526751
2,082500	0,1	8,469796
2,084167	0,1	8,489731
2,085833	0,1	8,514023
2,087500	0,1	8,509775
2,089167	0,1	8,453944
2,090833	0,1	8,468593
2,092500	0,1	8,424463
2,094167	0,1	8,485013
2,095833	0,1	8,448882
2,097500	0,1	8,433435
2,099167	0,1	8,415041
2,100833	0,1	8,459168
2,102500	0,1	8,437112
2,104167	0,1	8,377338
2,105833	0,1	8,384981
2,107500	0,1	8,358216
2,109167	0,1	8,369873
2,110833	0,1	8,396900
2,112500	0,1	8,360248
2,114167	0,1	8,361704
2,115833	0,1	8,335395
2,117500	0,1	8,330427
2,119167	0,1	8,295493
2,120833	0,1	8,281239
2,122500	0,1	8,241106
2,124167	0,1	8,239806
2,125833	0,1	8,226555
2,127500	0,1	8,256722
2,129167	0,1	8,194546
2,130833	0,1	8,132771
2,132500	0,1	8,154456
2,134167	0,1	8,140200
2,135833	0,1	8,093734
2,137500	0,1	8,071395
2,139167	0,1	8,026716
2,140833	0,1	7,996610
2,142500	0,1	8,013401
2,144167	0,1	7,997294
2,145833	0,1	7,951449
2,147500	0,1	7,922279
2,149167	0,1	7,887215
2,150833	0,1	7,855188
2,152500	0,1	7,815038
2,154167	0,1	7,844861
2,155833	0,1	7,821061
2,157500	0,1	7,743907
2,159167	0,1	7,753283
2,160833	0,1	7,724058
2,162500	0,1	7,674412
2,164167	0,1	7,687442
2,165833	0,1	7,665592
2,167500	0,1	7,604635
2,169167	0,1	7,571448
2,170833	0,1	7,561944
2,172500	0,1	7,543346
2,174167	0,1	7,487158
2,175833	0,1	7,449984
2,177500	0,1	7,458463
2,179167	0,1	7,429525
2,180833	0,1	7,384172
2,182500	0,1	7,383126
2,184167	0,1	7,337202
2,185833	0,1	7,311170
2,187500	0,1	7,271503
2,189167	0,1	7,253385
2,190833	0,1	7,203763
2,192500	0,1	7,210550
2,194167	0,1	7,219237
2,195833	0,1	7,163538
2,197500	0,1	7,096836
2,199167	0,1	7,111655
2,200833	0,1	7,090380
2,202500	0,1	7,058673
2,204167	0,1	7,023789
2,205833	0,1	7,031700
2,207500	0,1	6,944059
2,209167	0,1	6,947299
2,210833	0,1	6,933409
2,212500	0,1	6,891453
2,214167	0,1	6,899832
2,215833	0,1	6,889393
2,217500	0,1	6,882307
2,219167	0,1	6,869163
2,220833	0,1	6,828238
2,222500	0,1	6,831304
2,224167	0,1	6,848734
2,225833	0,1	6,810521
2,227500	0,1	6,789263
2,229167	0,1	6,766613
2,230833	0,1	6,700160
2,232500	0,1	6,749817
2,234167	0,1	6,723452
2,235833	0,1	6,695491
2,237500	0,1	6,732671
2,239167	0,1	6,654868
2,240833	0,1	6,696693
2,242500	0,1	6,650296
2,244167	0,1	6,645068
2,245833	0,1	6,630624
2,247500	0,1	6,621775
2,249167	0,1	6,558054
2,250833	0,1	6,588493
2,252500	0,1	6,548250
2,254167	0,1	6,554959
2,255833	0,1	6,574244
2,257500	0,1	6,551226
2,259167	0,1	6,508746
2,260833	0,1	6,529441
2,262500	0,1	6,500651
2,264167	0,1	6,486861
2,265833	0,1	6,436561
2,267500	0,1	6,452573
2,269167	0,1	6,464311
2,270833	0,1	6,422420
2,272500	0,1	6,400982
2,274167	0,1	6,390276
2,275833	0,1	6,366695
2,277500	0,1	6,388964
2,279167	0,1	6,368748
2,280833	0,1	6,362614
2,282500	0,1	6,324894
2,284167	0,1	6,289423
2,285833	0,1	6,272452
2,287500	0,1	6,247047
2,289167	0,1	6,245295
2,290833	0,1	6,234829
2,292500	0,1	6,212604
2,294167	0,1	6,207398
2,295833	0,1	6,178552
2,297500	0,1	6,176286
2,299167	0,1	6,111221
2,300833	0,1	6,116799
2,302500	0,1	6,099213
2,304167	0,1	6,068034
2,305833	0,1	6,042714
2,307500	0,1	6,050818
2,309167	0,1	6,056310
2,310833	0,1	6,006330
2,312500	0,1	6,008579
2,314167	0,1	5,964359
2,315833	0,1	5,937946
2,317500	0,1	5,920804
2,319167	0,1	5,942701
2,320833	0,1	5,889287
2,322500	0,1	5,844756
2,324167	0,1	5,861109
2,325833	0,1	5,818693
2,327500	0,1	5,796816
2,329167	0,1	5,758619
2,330833	0,1	5,776432
2,332500	0,1	5,767374
2,334167	0,1	5,734251
2,335833	0,1	5,720557
2,337500	0,1	5,721715
2,339167	0,1	5,693979
2,340833	0,1	5,680412
2,342500	0,1	5,659197
2,344167	0,1	5,671751
2,345833	0,1	5,631517
2,347500	0,1	5,672413
2,349167	0,1	5,604910
2,350833	0,1	5,632764
2,352500	0,1	5,625333
2,354167	0,1	5,604637
2,355833	0,1	5,587756
2,357500	0,1	5,578670
2,359167	0,1	5,529963
2,360833	0,1	5,550855
2,362500	0,1	5,558191
2,364167	0,1	5,517015
2,365833	0,1	5,583577
2,367500	0,1	5,551413
2,369167	0,1	5,572417
2,370833	0,1	5,567802
2,372500	0,1	5,596183
2,374167	0,1	5,599425
2,375833	0,1	5,594414
2,377500	0,1	5,599617
2,379167	0,1	5,663278
2,380833	0,1	5,674598
2,382500	0,1	5,694882
2,384167	0,1	5,782396
2,385833	0,1	5,766391
2,387500	0,1	5,806744
2,389167	0,1	5,867016
2,390833	0,1	5,925657
2,392500	0,1	5,965257
2,394167	0,1	6,038258
2,395833	0,1	6,151397
2,397500	0,1	6,211833
2,399167	0,1	6,304937
2,400833	0,1	6,388002
2,402500	0,1	6,499226
2,404167	0,1	6,608033
2,405833	0,1	6,761721
2,407500	0,1	6,916489
2,409167	0,1	7,007342
2,410833	0,1	7,190634
2,412500	0,1	7,338639
2,414167	0,1	7,472079
2,415833	0,1	7,749963
2,417500	0,1	7,913909
2,419167	0,1	8,112120
2,420833	0,1	8,308653
2,422500	0,1	8,560160
2,424167	0,1	8,782498
2,425833	0,1	9,045865
2,427500	0,1	9,258251
2,429167	0,1	9,542457
2,430833	0,1	9,784566
2,432500	0,1	10,101835
2,434167	0,1	10,393946
2,435833	0,1	10,640718
2,437500	0,1	10,941630
2,439167	0,1	11,249393
2,440833	0,1	11,573153
2,442500	0,1	11,849296
2,444167	0,1	12,101409
2,445833	0,1	12,466030
2,447500	0,1	12,786242
2,449167	0,1	13,050540
2,450833	0,1	13,397931
2,452500	0,1	13,751076
2,454167	0,1	14,034209
2,455833	0,1	14,385603
2,457500	0,1	14,722856
2,459167	0,1	15,041291
2,460833	0,1	15,403642
2,462500	0,1	15,733798
2,464167	0,1	16,117396
2,465833	0,1	16,536664
2,467500	0,1	16,935039
2,469167	0,1	17,398502
2,470833	0,1	17,767615
2,472500	0,1	18,252380
2,474167	0,1	18,763140
2,475833	0,1	19,311967
2,477500	0,1	19,922589
2,479167	0,1	20,534565
2,480833	0,1	21,133886
2,482500	0,1	21,921367
2,484167	0,1	22,690532
2,485833	0,1	23,578477
2,487500	0,1	24,509420
2,489167	0,1	25,556199
2,490833	0,1	26,615339
2,492500	0,1	27,815751
2,494167	0,1	29,108244
2,495833	0,1	30,504199
2,497500	0,1	32,057902
2,499167	0,1	33,731564
2,500833	0,1	35,470545
2,502500	0,1	37,383817
2,504167	0,1	39,388364
2,505833	0,1	41,635472
2,507500	0,1	43,966897
2,509167	0,1	46,461042
2,510833	0,1	49,120718
2,512500	0,1	51,952500
2,514167	0,1	54,949439
2,515833	0,1	58,110001
2,517500	0,1	61,429600
2,519167	0,1	64,980526
2,520833	0,1	68,626411
2,522500	0,1	72,449099
2,524167	0,1	76,488583
2,525833	0,1	80,630081
2,527500	0,1	84,967024
2,529167	0,1	89,458416
2,530833	0,1	94,092878
2,532500	0,1	98,828379
2,534167	0,1	103,702730
2,535833	0,1	108,700725
2,537500	0,1	113,825030
2,539167	0,1	119,022525
2,540833	0,1	124,340477
2,542500	0,1	129,712403
2,544167	0,1	135,119198
2,545833	0,1	140,555273
2,547500	0,1	146,065234
2,549167	0,1	151,620078
2,550833	0,1	157,058504
2,552500	0,1	162,532920
2,554167	0,1	168,041945
2,555833	0,1	173,506053
2,557500	0,1	178,807889
2,559167	0,1	184,171764
2,560833	0,1	189,363224
2,562500	0,1	194,451710
2,564167	0,1	199,495232
2,565833	0,1	204,366908
2,567500	0,1	209,117040
2,569167	0,1	213,765709
2,570833	0,1	218,250614
2,572500	0,1	222,553563
2,574167	0,1	226,671771
2,575833	0,1	230,727815
2,577500	0,1	234,480479
2,579167	0,1	238,050841
2,580833	0,1	241,552667
2,582500	0,1	244,778398
2,584167	0,1	247,866439
2,585833	0,1	250,756979
2,587500	0,1	253,389917
2,589167	0,1	255,865326
2,590833	0,1	258,208942
2,592500	0,1	260,245621
2,594167	0,1	262,174605
2,595833	0,1	263,857042
2,597500	0,1	265,384626
2,599167	0,1	266,748746
2,600833	0,1	267,895860
2,602500	0,1	268,900702
2,604167	0,1	269,668948
2,605833	0,1	270,271986
2,607500	0,1	270,763489
2,609167	0,1	271,076004
2,610833	0,1	271,159758
2,612500	0,1	271,195751
2,614167	0,1	271,027902
2,615833	0,1	270,706319
2,617500	0,1	270,248875
2,619167	0,1	269,649183
2,620833	0,1	268,931051
2,622500	0,1	268,023272
2,624167	0,1	267,056433
2,625833	0,1	265,965229
2,627500	0,1	264,660724
2,629167	0,1	263,351128
2,630833	0,1	261,899974
2,632500	0,1	260,307289
2,634167	0,1	258,689165
2,635833	0,1	256,851588
2,637500	0,1	254,963907
2,639167	0,1	252,995773
2,640833	0,1	250,943217
2,642500	0,1	248,774619
2,644167	0,1	246,638816
2,645833	0,1	244,290519
2,647500	0,1	241,907161
2,649167	0,1	239,487361
2,650833	0,1	236,941401
2,652500	0,1	234,360863
2,654167	0,1	231,715845
2,655833	0,1	229,067895
2,657500	0,1	226,347081
2,659167	0,1	223,538956
2,660833	0,1	220,749442
2,662500	0,1	217,867544
2,664167	0,1	214,941029
2,665833	0,1	212,021870
2,667500	0,1	209,056195
2,669167	0,1	206,067880
2,670833	0,1	203,022004
2,672500	0,1	200,053811
2,674167	0,1	196,946952
2,675833	0,1	193,942339
2,677500	0,1	190,852278
2,679167	0,1	187,777864
2,680833	0,1	184,721253
2,682500	0,1	181,683528
2,684167	0,1	178,528874
2,685833	0,1	175,585701
2,687500	0,1	172,521757
2,689167	0,1	169,440626
2,690833	0,1	166,465404
2,692500	0,1	163,459692
2,694167	0,1	160,527691
2,695833	0,1	157,552509
2,697500	0,1	154,640235
2,699167	0,1	151,733631
2,700833	0,1	148,921526
2,702500	0,1	146,090455
2,704167	0,1	143,233031
2,705833	0,1	140,491190
2,707500	0,1	137,784995
2,709167	0,1	135,088420
2,710833	0,1	132,402031
2,712500	0,1	129,847165
2,714167	0,1	127,218747
2,715833	0,1	124,720298
2,717500	0,1	122,227925
2,719167	0,1	119,799664
2,720833	0,1	117,368422
2,722500	0,1	115,013462
2,724167	0,1	112,690444
2,725833	0,1	110,440345
2,727500	0,1	108,207454
2,729167	0,1	106,092014
2,730833	0,1	103,918535
2,732500	0,1	101,809052
2,734167	0,1	99,757270
2,735833	0,1	97,807465
2,737500	0,1	95,859965
2,739167	0,1	93,915507
2,740833	0,1	92,030149
2,742500	0,1	90,208040
2,744167	0,1	88,381691
2,745833	0,1	86,697630
2,747500	0,1	84,963421
2,749167	0,1	83,297070
2,750833	0,1	81,626711
2,752500	0,1	80,062003
2,754167	0,1	78,479131
2,755833	0,1	76,963832
2,757500	0,1	75,472506
2,759167	0,1	74,007304
2,760833	0,1	72,541294
2,762500	0,1	71,190432
2,764167	0,1	69,855122
2,765833	0,1	68,526764
2,767500	0,1	67,174673
2,769167	0,1	65,920391
2,770833	0,1	64,649789
2,772500	0,1	63,382658
2,774167	0,1	62,264545
2,775833	0,1	61,131892
2,777500	0,1	59,981859
2,779167	0,1	58,864386
2,780833	0,1	57,799566
2,782500	0,1	56,696900
2,784167	0,1	55,638404
2,785833	0,1	54,610584
2,787500	0,1	53,622254
2,789167	0,1	52,610838
2,790833	0,1	51,681808
2,792500	0,1	50,705344
2,794167	0,1	49,786062
2,795833	0,1	48,905969
2,797500	0,1	48,004973
2,799167	0,1	47,173374
2,800833	0,1	46,264855
2,802500	0,1	45,452227
2,804167	0,1	44,649459
2,805833	0,1	43,834245
2,807500	0,1	43,013673
2,809167	0,1	42,260976
2,810833	0,1	41,491858
2,812500	0,1	40,721792
2,814167	0,1	40,060773
2,815833	0,1	39,321501
2,817500	0,1	38,630005
2,819167	0,1	37,905482
2,820833	0,1	37,227162
2,822500	0,1	36,574387
2,824167	0,1	35,910929
2,825833	0,1	35,264060
2,827500	0,1	34,671304
2,829167	0,1	34,071282
2,830833	0,1	33,421551
2,832500	0,1	32,879695
2,834167	0,1	32,307292
2,835833	0,1	31,750679
2,837500	0,1	31,197802
2,839167	0,1	30,641674
2,840833	0,1	30,129051
2,842500	0,1	29,606973
2,844167	0,1	29,108970
2,845833	0,1	28,597680
2,847500	0,1	28,153318
2,849167	0,1	27,652116
2,850833	0,1	27,188221
2,852500	0,1	26,775358
2,854167	0,1	26,283246
2,855833	0,1	25,873511
2,857500	0,1	25,485402
2,859167	0,1	25,050543
2,860833	0,1	24,654495
2,862500	0,1	24,248928
2,864167	0,1	23,840428
2,865833	0,1	23,542388
2,867500	0,1	23,147108
2,869167	0,1	22,762897
2,870833	0,1	22,401117
2,872500	0,1	22,071299
2,874167	0,1	21,761285
2,875833	0,1	21,405420
2,877500	0,1	21,087077
2,879167	0,1	20,812001
2,880833	0,1	20,505307
2,882500	0,1	20,225682
2,884167	0,1	19,917123
2,885833	0,1	19,659392
2,887500	0,1	19,391992
2,889167	0,1	19,086565
2,890833	0,1	18,848977
2,892500	0,1	18,566158
2,894167	0,1	18,310942
2,895833	0,1	18,090623
2,897500	0,1	17,857524
2,899167	0,1	17,666702
2,900833	0,1	17,418845
2,902500	0,1	17,186770
2,904167	0,1	16,960963
2,905833	0,1	16,741513
2,907500	0,1	16,502148
2,909167	0,1	16,345580
2,910833	0,1	16,187120
2,912500	0,1	15,974871
2,914167	0,1	15,753650
2,915833	0,1	15,582461
2,917500	0,1	15,448235
2,919167	0,1	15,242868
2,920833	0,1	15,090507
2,922500	0,1	14,894602
2,924167	0,1	14,729077
2,925833	0,1	14,557646
2,927500	0,1	14,429577
2,929167	0,1	14,221233
2,930833	0,1	14,158173
2,932500	0,1	13,964264
2,934167	0,1	13,806365
2,935833	0,1	13,646732
2,937500	0,1	13,552859
2,939167	0,1	13,412625
2,940833	0,1	13,269066
2,942500	0,1	13,135410
2,944167	0,1	12,954363
2,945833	0,1	12,838921
2,947500	0,1	12,735074
2,949167	0,1	12,618149
2,950833	0,1	12,504511
2,952500	0,1	12,348521
2,954167	0,1	12,291540
2,955833	0,1	12,113094
2,957500	0,1	12,055635
2,959167	0,1	11,857244
2,960833	0,1	11,771165
2,962500	0,1	11,654078
2,964167	0,1	11,550552
2,965833	0,1	11,438884
2,967500	0,1	11,389155
2,969167	0,1	11,254840
2,970833	0,1	11,131244
2,972500	0,1	11,059295
2,974167	0,1	10,981677
2,975833	0,1	10,854504
2,977500	0,1	10,740893
2,979167	0,1	10,681885
2,980833	0,1	10,566690
2,982500	0,1	10,482434
2,984167	0,1	10,360707
2,985833	0,1	10,277966
2,987500	0,1	10,182055
2,989167	0,1	10,121319
2,990833	0,1	10,002049
2,992500	0,1	9,934820
2,994167	0,1	9,838612
2,995833	0,1	9,756791
2,997500	0,1	9,652000
2,999167	0,1	9,589461
3,000833	0,1	9,529683
3,002500	0,1	9,430754
3,004167	0,1	9,358877
3,005833	0,1	9,230528
3,007500	0,1	9,199558
3,009167	0,1	9,083374
3,010833	0,1	9,051011
3,012500	0,1	8,963729
3,014167	0,1	8,892512
3,015833	0,1	8,825531
3,017500	0,1	8,721410
3,019167	0,1	8,620379
3,020833	0,1	8,570035
3,022500	0,1	8,497746
3,024167	0,1	8,456590
3,025833	0,1	8,350995
3,027500	0,1	8,320311
3,029167	0,1	8,204478
3,030833	0,1	8,184122
3,032500	0,1	8,080480
3,034167	0,1	8,004670
3,035833	0,1	7,993973
3,037500	0,1	7,920560
3,039167	0,1	7,839293
3,040833	0,1	7,763082
3,042500	0,1	7,718650
3,044167	0,1	7,648700
3,045833	0,1	7,558571
3,047500	0,1	7,516916
3,049167	0,1	7,461555
3,050833	0,1	7,378734
3,052500	0,1	7,320400
3,054167	0,1	7,253772
3,055833	0,1	7,231163
3,057500	0,1	7,123058
3,059167	0,1	7,070249
3,060833	0,1	7,042809
3,062500	0,1	6,956648
3,064167	0,1	6,915791
3,065833	0,1	6,855467
3,067500	0,1	6,836626
3,069167	0,1	6,730094
3,070833	0,1	6,680860
3,072500	0,1	6,662774
3,074167	0,1	6,628031
3,075833	0,1	6,567195
3,077500	0,1	6,465994
3,079167	0,1	6,435890
3,080833	0,1	6,418488
3,082500	0,1	6,318662
3,084167	0,1	6,307008
3,085833	0,1	6,301701
3,087500	0,1	6,204792
3,089167	0,1	6,172675
3,090833	0,1	6,165951
3,092500	0,1	6,089669
3,094167	0,1	6,080060
3,095833	0,1	6,012923
3,097500	0,1	6,017712
3,099167	0,1	5,922895
3,100833	0,1	5,880804
3,102500	0,1	5,855170
3,104167	0,1	5,841267
3,105833	0,1	5,804125
3,107500	0,1	5,804392
3,109167	0,1	5,750619
3,110833	0,1	5,712364
3,112500	0,1	5,678464
3,114167	0,1	5,690715
3,115833	0,1	5,616731
3,117500	0,1	5,573257
3,119167	0,1	5,598835
3,120833	0,1	5,581034
3,122500	0,1	5,542822
3,124167	0,1	5,538607
3,125833	0,1	5,498945
3,127500	0,1	5,460974
3,129167	0,1	5,430980
3,130833	0,1	5,446692
3,132500	0,1	5,385259
3,134167	0,1	5,398358
3,135833	0,1	5,368925
3,137500	0,1	5,385850
3,139167	0,1	5,346447
3,140833	0,1	5,379514
3,142500	0,1	5,324313
3,144167	0,1	5,358833
3,145833	0,1	5,308728
3,147500	0,1	5,344524
3,149167	0,1	5,308333
3,150833	0,1	5,292204
3,152500	0,1	5,189291
3,154167	0,1	5,218073
3,155833	0,1	5,230790
3,157500	0,1	5,218503
3,159167	0,1	5,219688
3,160833	0,1	5,154630
3,162500	0,1	5,152132
3,164167	0,1	5,127572
3,165833	0,1	5,150851
3,167500	0,1	5,156982
3,169167	0,1	5,114661
3,170833	0,1	5,068706
3,172500	0,1	5,138371
3,174167	0,1	5,088602
3,175833	0,1	5,037340
3,177500	0,1	5,058940
3,179167	0,1	5,032050
3,180833	0,1	4,995715
3,182500	0,1	4,995849
3,184167	0,1	5,017600
3,185833	0,1	4,962125
3,187500	0,1	4,956548
3,189167	0,1	4,928750
3,190833	0,1	4,990043
3,192500	0,1	4,884983
3,194167	0,1	4,840509
3,195833	0,1	4,850752
3,197500	0,1	4,791507
3,199167	0,1	4,820068
3,200833	0,1	4,814891
3,202500	0,1	4,782273
3,204167	0,1	4,761401
3,205833	0,1	4,708118
3,207500	0,1	4,742268
3,209167	0,1	4,706117
3,210833	0,1	4,661442
3,212500	0,1	4,656871
3,214167	0,1	4,616520
3,215833	0,1	4,574695
3,217500	0,1	4,592598
3,219167	0,1	4,538282
3,220833	0,1	4,510149
3,222500	0,1	4,471370
3,224167	0,1	4,491525
3,225833	0,1	4,449714
3,227500	0,1	4,410929
3,229167	0,1	4,376451
3,230833	0,1	4,400612
3,232500	0,1	4,348270
3,234167	0,1	4,315018
3,235833	0,1	4,267491
3,237500	0,1	4,299627
3,239167	0,1	4,222856
3,240833	0,1	4,205449
3,242500	0,1	4,190893
3,244167	0,1	4,161345
3,245833	0,1	4,153233
3,247500	0,1	4,095119
3,249167	0,1	4,033305
3,250833	0,1	4,026932
3,252500	0,1	3,997875
3,254167	0,1	3,987141
3,255833	0,1	3,959470
3,257500	0,1	3,956542
3,259167	0,1	3,910651
3,260833	0,1	3,889094
3,262500	0,1	3,866090
3,264167	0,1	3,834591
3,265833	0,1	3,802405
3,267500	0,1	3,735760
3,269167	0,1	3,768280
3,270833	0,1	3,746228
3,272500	0,1	3,682771
3,274167	0,1	3,676404
3,275833	0,1	3,642231
3,277500	0,1	3,613804
3,279167	0,1	3,568364
3,280833	0,1	3,550038
3,282500	0,1	3,539673
3,284167	0,1	3,521098
3,285833	0,1	3,482686
3,287500	0,1	3,400430
3,289167	0,1	3,409447
3,290833	0,1	3,395650
3,292500	0,1	3,374413
3,294167	0,1	3,405301
3,295833	0,1	3,332552
3,297500	0,1	3,323603
3,299167	0,1	3,262022
3,300833	0,1	3,237955
3,302500	0,1	3,265520
3,304167	0,1	3,230585
3,305833	0,1	3,217965
3,307500	0,1	3,197081
3,309167	0,1	3,148574
3,310833	0,1	3,150314
3,312500	0,1	3,131113
3,314167	0,1	3,131298
3,315833	0,1	3,105726
3,317500	0,1	3,061449
3,319167	0,1	3,069582
3,320833	0,1	3,050712
3,322500	0,1	3,041081
3,324167	0,1	2,994966
3,325833	0,1	2,967742
3,327500	0,1	2,957497
3,329167	0,1	2,921645
3,330833	0,1	2,916823
3,332500	0,1	2,926130
3,334167	0,1	2,890464
3,335833	0,1	2,915433
3,337500	0,1	2,856827
3,339167	0,1	2,841235
3,340833	0,1	2,858824
3,342500	0,1	2,872465
3,344167	0,1	2,812237
3,345833	0,1	2,798620
3,347500	0,1	2,844291
3,349167	0,1	2,780528
3,350833	0,1	2,789588
3,352500	0,1	2,752433
3,354167	0,1	2,752797
3,355833	0,1	2,723551
3,357500	0,1	2,784377
3,359167	0,1	2,730604
3,360833	0,1	2,701805
3,362500	0,1	2,737335
3,364167	0,1	2,707613
3,365833	0,1	2,716069
3,367500	0,1	2,711919
3,369167	0,1	2,740271
3,370833	0,1	2,703597
3,372500	0,1	2,700111
3,374167	0,1	2,691172
3,375833	0,1	2,650085
3,377500	0,1	2,698382
3,379167	0,1	2,674145
3,380833	0,1	2,703994
3,382500	0,1	2,672610
3,384167	0,1	2,667507
3,385833	0,1	2,671392
3,387500	0,1	2,617622
3,389167	0,1	2,640374
3,390833	0,1	2,627805
3,392500	0,1	2,638500
3,394167	0,1	2,620899
3,395833	0,1	2,660618
3,397500	0,1	2,615237
3,399167	0,1	2,605775
3,400833	0,1	2,605108
3,402500	0,1	2,613729
3,404167	0,1	2,624070
3,405833	0,1	2,627864
3,407500	0,1	2,643098
3,409167	0,1	2,594861
3,410833	0,1	2,632021
3,412500	0,1	2,643321
3,414167	0,1	2,604821
3,415833	0,1	2,629937
3,417500	0,1	2,612082
3,419167	0,1	2,590599
3,420833	0,1	2,610495
3,422500	0,1	2,586519
3,424167	0,1	2,571505
3,425833	0,1	2,583490
3,427500	0,1	2,646107
3,429167	0,1	2,588252
3,430833	0,1	2,557808
3,432500	0,1	2,556860
3,434167	0,1	2,583929
3,435833	0,1	2,596979
3,437500	0,1	2,556665
3,439167	0,1	2,563180
3,440833	0,1	2,536334
3,442500	0,1	2,481637
3,444167	0,1	2,551810
3,445833	0,1	2,592254
3,447500	0,1	2,580035
3,449167	0,1	2,541932
3,450833	0,1	2,580972
3,452500	0,1	2,554003
3,454167	0,1	2,599214
3,455833	0,1	2,582935
3,457500	0,1	2,574162
3,459167	0,1	2,550263
3,460833	0,1	2,550471
3,462500	0,1	2,598356
3,464167	0,1	2,594897
3,465833	0,1	2,538926
3,467500	0,1	2,556845
3,469167	0,1	2,585638
3,470833	0,1	2,583485
3,472500	0,1	2,557446
3,474167	0,1	2,599640
3,475833	0,1	2,581780
3,477500	0,1	2,598013
3,479167	0,1	2,612942
3,480833	0,1	2,602533
3,482500	0,1	2,582862
3,484167	0,1	2,630513
3,485833	0,1	2,615452
3,487500	0,1	2,619991
3,489167	0,1	2,621920
3,490833	0,1	2,616614
3,492500	0,1	2,606476
3,494167	0,1	2,635901
3,495833	0,1	2,634266
3,497500	0,1	2,600887
3,499167	0,1	2,634118
3,500833	0,1	2,615885
3,502500	0,1	2,663254
3,504167	0,1	2,652799
3,505833	0,1	2,655817
3,507500	0,1	2,682027
3,509167	0,1	2,676863
3,510833	0,1	2,653386
3,512500	0,1	2,663909
3,514167	0,1	2,679359
3,515833	0,1	2,695520
3,517500	0,1	2,729415
3,519167	0,1	2,698773
3,520833	0,1	2,659282
3,522500	0,1	2,710951
3,524167	0,1	2,704785
3,525833	0,1	2,687942
3,527500	0,1	2,708247
3,529167	0,1	2,726846
3,530833	0,1	2,719654
3,532500	0,1	2,745082
3,534167	0,1	2,709456
3,535833	0,1	2,718157
3,537500	0,1	2,727407
3,539167	0,1	2,761456
3,540833	0,1	2,743962
3,542500	0,1	2,719025
3,544167	0,1	2,757363
3,545833	0,1	2,764631
3,547500	0,1	2,698222
3,549167	0,1	2,725998
3,550833	0,1	2,712929
3,552500	0,1	2,732824
3,554167	0,1	2,705673
3,555833	0,1	2,779400
3,557500	0,1	2,726664
3,559167	0,1	2,701593
3,560833	0,1	2,754351
3,562500	0,1	2,752637
3,564167	0,1	2,724769
3,565833	0,1	2,735750
3,567500	0,1	2,712696
3,569167	0,1	2,725057
3,570833	0,1	2,738112
3,572500	0,1	2,711204
3,574167	0,1	2,713136
3,575833	0,1	2,730936
3,577500	0,1	2,709327
3,579167	0,1	2,702497
3,580833	0,1	2,719276
3,582500	0,1	2,707172
3,584167	0,1	2,657482
3,585833	0,1	2,685459
3,587500	0,1	2,674767
3,589167	0,1	2,681162
3,590833	0,1	2,663440
3,592500	0,1	2,674348
3,594167	0,1	2,662696
3,595833	0,1	2,663064
3,597500	0,1	2,646476
3,599167	0,1	2,640517
3,600833	0,1	2,621702
3,602500	0,1	2,626805
3,604167	0,1	2,595716
3,605833	0,1	2,613875
3,607500	0,1	2,597069
3,609167	0,1	2,589469
3,610833	0,1	2,590971
3,612500	0,1	2,563033
3,614167	0,1	2,578902
3,615833	0,1	2,594486
3,617500	0,1	2,565405
3,619167	0,1	2,581329
3,620833	0,1	2,529239
3,622500	0,1	2,557433
3,624167	0,1	2,536537
3,625833	0,1	2,517232
3,627500	0,1	2,526911
3,629167	0,1	2,529276
3,630833	0,1	2,544364
3,632500	0,1	2,516015
3,634167	0,1	2,504674
3,635833	0,1	2,498762
3,637500	0,1	2,451480
3,639167	0,1	2,468396
3,640833	0,1	2,508958
3,642500	0,1	2,462816
3,644167	0,1	2,448017
3,645833	0,1	2,408912
3,647500	0,1	2,451665
3,649167	0,1	2,399225
3,650833	0,1	2,423958
3,652500	0,1	2,384718
3,654167	0,1	2,431778
3,655833	0,1	2,367071
3,657500	0,1	2,383413
3,659167	0,1	2,431490
3,660833	0,1	2,360034
3,662500	0,1	2,386198
3,664167	0,1	2,353556
3,665833	0,1	2,357068
3,667500	0,1	2,353049
3,669167	0,1	2,316968
3,670833	0,1	2,306120
3,672500	0,1	2,330017
3,674167	0,1	2,283597
3,675833	0,1	2,316513
3,677500	0,1	2,309065
3,679167	0,1	2,273340
3,680833	0,1	2,279424
3,682500	0,1	2,236887
3,684167	0,1	2,262918
3,685833	0,1	2,271535
3,687500	0,1	2,262138
3,689167	0,1	2,257755
3,690833	0,1	2,231288
3,692500	0,1	2,234010
3,694167	0,1	2,201085
3,695833	0,1	2,199498
3,697500	0,1	2,165357
3,699167	0,1	2,193896
3,700833	0,1	2,206453
3,702500	0,1	2,200286
3,704167	0,1	2,205452
3,705833	0,1	2,186228
3,707500	0,1	2,169083
3,709167	0,1	2,202001
3,710833	0,1	2,167652
3,712500	0,1	2,146200
3,714167	0,1	2,162834
3,715833	0,1	2,135155
3,717500	0,1	2,152718
3,719167	0,1	2,172945
3,720833	0,1	2,106185
3,722500	0,1	2,103229
3,724167	0,1	2,089531
3,725833	0,1	2,117926
3,727500	0,1	2,148981
3,729167	0,1	2,122888
3,730833	0,1	2,063935
3,732500	0,1	2,124158
3,734167	0,1	2,052822
3,735833	0,1	2,098483
3,737500	0,1	2,074688
3,739167	0,1	2,078050
3,740833	0,1	2,107740
3,742500	0,1	2,074760
3,744167	0,1	2,085436
3,745833	0,1	2,087949
3,747500	0,1	2,068087
3,749167	0,1	2,040905
3,750833	0,1	2,050078
3,752500	0,1	2,086148
3,754167	0,1	2,079919
3,755833	0,1	2,024207
3,757500	0,1	2,086788
3,759167	0,1	2,074972
3,760833	0,1	2,047864
3,762500	0,1	2,046998
3,764167	0,1	2,048289
3,765833	0,1	2,048001
3,767500	0,1	2,029501
3,769167	0,1	2,051511
3,770833	0,1	2,019608
3,772500	0,1	2,044698
3,774167	0,1	2,052731
3,775833	0,1	2,007132
3,777500	0,1	2,027984
3,779167	0,1	2,017307
3,780833	0,1	2,034727
3,782500	0,1	2,029141
3,784167	0,1	2,025842
3,785833	0,1	2,026558
3,787500	0,1	1,994865
3,789167	0,1	1,938510
3,790833	0,1	2,016711
3,792500	0,1	1,991139
3,794167	0,1	2,028268
3,795833	0,1	2,001679
3,797500	0,1	1,986399
3,799167	0,1	2,013643
3,800833	0,1	2,001315
3,802500	0,1	1,991205
3,804167	0,1	2,001599
3,805833	0,1	2,012071
3,807500	0,1	2,017664
3,809167	0,1	1,974932
3,810833	0,1	2,019876
3,812500	0,1	1,995656
3,814167	0,1	2,034939
3,815833	0,1	2,012720
3,817500	0,1	2,002608
3,819167	0,1	1,983535
3,820833	0,1	1,997654
3,822500	0,1	1,983173
3,824167	0,1	2,009051
3,825833	0,1	1,997371
3,827500	0,1	1,994858
3,829167	0,1	1,984467
3,830833	0,1	2,005682
3,832500	0,1	1,961171
3,834167	0,1	1,998364
3,835833	0,1	2,003326
3,837500	0,1	1,995077
3,839167	0,1	1,955216
3,840833	0,1	1,958430
3,842500	0,1	1,993064
3,844167	0,1	1,961306
3,845833	0,1	1,991334
3,847500	0,1	1,997228
3,849167	0,1	1,963673
3,850833	0,1	1,989043
3,852500	0,1	1,989339
3,854167	0,1	1,993214
3,855833	0,1	1,991920
3,857500	0,1	1,958080
3,859167	0,1	1,934845
3,860833	0,1	1,983590
3,862500	0,1	1,965180
3,864167	0,1	2,006683
3,865833	0,1	1,942965
3,867500	0,1	1,966388
3,869167	0,1	1,903304
3,870833	0,1	1,899639
3,872500	0,1	1,955126
3,874167	0,1	1,935998
3,875833	0,1	1,961298
3,877500	0,1	1,932128
3,879167	0,1	1,892832
3,880833	0,1	1,883432
3,882500	0,1	1,943653
3,884167	0,1	1,928319
3,885833	0,1	1,891544
3,887500	0,1	1,906876
3,889167	0,1	1,870469
3,890833	0,1	1,915690
3,892500	0,1	1,888754
3,894167	0,1	1,898701
3,895833	0,1	1,887667
3,897500	0,1	1,873116
3,899167	0,1	1,885875
3,900833	0,1	1,841220
3,902500	0,1	1,869375
3,904167	0,1	1,875983
3,905833	0,1	1,855122
3,907500	0,1	1,879205
3,909167	0,1	1,820871
3,910833	0,1	1,834765
3,912500	0,1	1,841567
3,914167	0,1	1,811973
3,915833	0,1	1,858916
3,917500	0,1	1,804093
3,919167	0,1	1,775273
3,920833	0,1	1,811812
3,922500	0,1	1,807967
3,924167	0,1	1,818133
3,925833	0,1	1,802798
3,927500	0,1	1,785822
3,929167	0,1	1,751991
3,930833	0,1	1,738068
3,932500	0,1	1,737714
3,934167	0,1	1,751634
3,935833	0,1	1,687771
3,937500	0,1	1,751182
3,939167	0,1	1,712064
3,940833	0,1	1,719871
3,942500	0,1	1,675164
3,944167	0,1	1,680451
3,945833	0,1	1,679591
3,947500	0,1	1,717220
3,949167	0,1	1,676523
3,950833	0,1	1,647273
3,952500	0,1	1,646492
3,954167	0,1	1,675512
3,955833	0,1	1,643989
3,957500	0,1	1,663261
3,959167	0,1	1,645353
3,960833	0,1	1,617627
3,962500	0,1	1,618544
3,964167	0,1	1,646921
3,965833	0,1	1,625503
3,967500	0,1	1,602440
3,969167	0,1	1,582072
3,970833	0,1	1,585747
3,972500	0,1	1,581435
3,974167	0,1	1,557433
3,975833	0,1	1,572632
3,977500	0,1	1,546256
3,979167	0,1	1,565976
3,980833	0,1	1,556499
3,982500	0,1	1,588438
3,984167	0,1	1,549941
3,985833	0,1	1,542245
3,987500	0,1	1,563891
3,989167	0,1	1,535963
3,990833	0,1	1,526713
3,992500	0,1	1,522429
3,994167	0,1	1,527781
3,995833	0,1	1,549559
3,997500	0,1	1,517762
3,999167	0,1	1,527560
4,000833	0,1	1,513189
4,002500	0,1	1,469106
4,004167	0,1	1,495737
4,005833	0,1	1,484617
4,007500	0,1	1,479928
4,009167	0,1	1,454286
4,010833	0,1	1,485238
4,012500	0,1	1,456304
4,014167	0,1	1,493100
4,015833	0,1	1,481232
4,017500	0,1	1,466969
4,019167	0,1	1,433512
4,020833	0,1	1,446831
4,022500	0,1	1,447754
4,024167	0,1	1,438744
4,025833	0,1	1,487237
4,027500	0,1	1,443908
4,029167	0,1	1,484994
4,030833	0,1	1,455326
4,032500	0,1	1,419371
4,034167	0,1	1,449829
4,035833	0,1	1,469264
4,037500	0,1	1,447126
4,039167	0,1	1,459709
4,040833	0,1	1,461439
4,042500	0,1	1,475631
4,044167	0,1	1,428001
4,045833	0,1	1,433323
4,047500	0,1	1,471838
4,049167	0,1	1,485187
4,050833	0,1	1,489526
4,052500	0,1	1,447363
4,054167	0,1	1,444268
4,055833	0,1	1,472036
4,057500	0,1	1,475565
4,059167	0,1	1,434514
4,060833	0,1	1,505985
4,062500	0,1	1,492892
4,064167	0,1	1,544495
4,065833	0,1	1,494848
4,067500	0,1	1,501129
4,069167	0,1	1,491670
4,070833	0,1	1,568231
4,072500	0,1	1,523337
4,074167	0,1	1,543112
4,075833	0,1	1,485042
4,077500	0,1	1,575826
4,079167	0,1	1,560378
4,080833	0,1	1,538977
4,082500	0,1	1,560736
4,084167	0,1	1,592466
4,085833	0,1	1,576072
4,087500	0,1	1,613048
4,089167	0,1	1,574984
4,090833	0,1	1,607068
4,092500	0,1	1,624937
4,094167	0,1	1,672718
4,095833	0,1	1,619062
4,097500	0,1	1,610452
4,099167	0,1	1,667550
4,100833	0,1	1,643412
4,102500	0,1	1,715776
4,104167	0,1	1,671853
4,105833	0,1	1,704946
4,107500	0,1	1,728098
4,109167	0,1	1,742809
4,110833	0,1	1,711496
4,112500	0,1	1,767520
4,114167	0,1	1,778918
4,115833	0,1	1,760518
4,117500	0,1	1,780997
4,119167	0,1	1,797477
4,120833	0,1	1,821351
4,122500	0,1	1,842283
4,124167	0,1	1,815053
4,125833	0,1	1,847014
4,127500	0,1	1,860208
4,129167	0,1	1,859563
4,130833	0,1	1,850748
4,132500	0,1	1,917484
4,134167	0,1	1,895845
4,135833	0,1	1,900353
4,137500	0,1	1,934328
4,139167	0,1	1,939431
4,140833	0,1	1,941658
4,142500	0,1	1,945452
4,144167	0,1	1,977643
4,145833	0,1	1,946966
4,147500	0,1	2,016069
4,149167	0,1	2,037380
4,150833	0,1	2,027563
4,152500	0,1	2,016805
4,154167	0,1	2,060828
4,155833	0,1	2,062129
4,157500	0,1	2,082135
4,159167	0,1	2,039043
4,160833	0,1	2,080480
4,162500	0,1	2,081566
4,164167	0,1	2,106664
4,165833	0,1	2,111331
4,167500	0,1	2,118145
4,169167	0,1	2,149485
4,170833	0,1	2,136657
4,172500	0,1	2,126686
4,174167	0,1	2,088675
4,175833	0,1	2,153138
4,177500	0,1	2,192025
4,179167	0,1	2,135880
4,180833	0,1	2,196251
4,182500	0,1	2,191823
4,184167	0,1	2,156822
4,185833	0,1	2,181268
4,187500	0,1	2,189309
4,189167	0,1	2,187803
4,190833	0,1	2,222514
4,192500	0,1	2,241177
4,194167	0,1	2,187747
4,195833	0,1	2,222519
4,197500	0,1	2,254590
4,199167	0,1	2,209839
4,200833	0,1	2,205743
4,202500	0,1	2,217503
4,204167	0,1	2,213993
4,205833	0,1	2,241029
4,207500	0,1	2,236521
4,209167	0,1	2,213998
4,210833	0,1	2,235297
4,212500	0,1	2,226981
4,214167	0,1	2,221665
4,215833	0,1	2,200938
4,217500	0,1	2,204306
4,219167	0,1	2,233285
4,220833	0,1	2,224614
4,222500	0,1	2,210262
4,224167	0,1	2,239599
4,225833	0,1	2,227338
4,227500	0,1	2,229344
4,229167	0,1	2,208114
4,230833	0,1	2,185800
4,232500	0,1	2,215634
4,234167	0,1	2,204807
4,235833	0,1	2,243466
4,237500	0,1	2,190543
4,239167	0,1	2,159402
4,240833	0,1	2,151219
4,242500	0,1	2,163337
4,244167	0,1	2,156671
4,245833	0,1	2,193176
4,247500	0,1	2,196622
4,249167	0,1	2,179699
4,250833	0,1	2,190527
4,252500	0,1	2,149935
4,254167	0,1	2,119015
4,255833	0,1	2,148699
4,257500	0,1	2,093629
4,259167	0,1	2,090676
4,260833	0,1	2,123233
4,262500	0,1	2,046154
4,264167	0,1	2,100346
4,265833	0,1	2,090606
4,267500	0,1	2,063572
4,269167	0,1	2,089379
4,270833	0,1	2,067513
4,272500	0,1	2,035456
4,274167	0,1	2,072880
4,275833	0,1	2,043561
4,277500	0,1	2,011219
4,279167	0,1	2,036519
4,280833	0,1	2,005769
4,282500	0,1	2,021316
4,284167	0,1	1,977448
4,285833	0,1	2,001381
4,287500	0,1	1,961740
4,289167	0,1	1,968111
4,290833	0,1	1,999158
4,292500	0,1	1,961810
4,294167	0,1	1,927395
4,295833	0,1	1,941786
4,297500	0,1	1,906673
4,299167	0,1	1,933973
4,300833	0,1	1,901938
4,302500	0,1	1,915265
4,304167	0,1	1,916771
4,305833	0,1	1,876922
4,307500	0,1	1,853111
4,309167	0,1	1,854395
4,310833	0,1	1,903788
4,312500	0,1	1,870177
4,314167	0,1	1,813915
4,315833	0,1	1,857042
4,317500	0,1	1,803229
4,319167	0,1	1,822999
4,320833	0,1	1,824153
4,322500	0,1	1,804589
4,324167	0,1	1,810893
4,325833	0,1	1,779867
4,327500	0,1	1,769253
4,329167	0,1	1,774620
4,330833	0,1	1,746829
4,332500	0,1	1,740514
4,334167	0,1	1,741017
4,335833	0,1	1,743092
4,337500	0,1	1,725743
4,339167	0,1	1,722025
4,340833	0,1	1,658610
4,342500	0,1	1,692551
4,344167	0,1	1,722522
4,345833	0,1	1,692217
4,347500	0,1	1,658334
4,349167	0,1	1,669556
4,350833	0,1	1,677601
4,352500	0,1	1,633308
4,354167	0,1	1,671640
4,355833	0,1	1,664627
4,357500	0,1	1,643141
4,359167	0,1	1,619283
4,360833	0,1	1,630349
4,362500	0,1	1,629447
4,364167	0,1	1,558803
4,365833	0,1	1,638376
4,367500	0,1	1,585801
4,369167	0,1	1,584658
4,370833	0,1	1,586809
4,372500	0,1	1,561600
4,374167	0,1	1,516903
4,375833	0,1	1,539520
4,377500	0,1	1,548688
4,379167	0,1	1,565242
4,380833	0,1	1,508857
4,382500	0,1	1,517522
4,384167	0,1	1,526271
4,385833	0,1	1,515823
4,387500	0,1	1,483296
4,389167	0,1	1,539085
4,390833	0,1	1,483325
4,392500	0,1	1,492968
4,394167	0,1	1,458470
4,395833	0,1	1,476630
4,397500	0,1	1,447953
4,399167	0,1	1,475777
4,400833	0,1	1,440191
4,402500	0,1	1,453165
4,404167	0,1	1,427366
4,405833	0,1	1,419201
4,407500	0,1	1,440326
4,409167	0,1	1,450587
4,410833	0,1	1,402303
4,412500	0,1	1,411901
4,414167	0,1	1,417717
4,415833	0,1	1,398003
4,417500	0,1	1,378092
4,419167	0,1	1,394992
4,420833	0,1	1,406458
4,422500	0,1	1,381400
4,424167	0,1	1,362996
4,425833	0,1	1,352396
4,427500	0,1	1,348362
4,429167	0,1	1,337340
4,430833	0,1	1,327097
4,432500	0,1	1,285016
4,434167	0,1	1,378641
4,435833	0,1	1,326971
4,437500	0,1	1,314224
4,439167	0,1	1,308219
4,440833	0,1	1,284436
4,442500	0,1	1,267764
4,444167	0,1	1,301493
4,445833	0,1	1,279008
4,447500	0,1	1,279579
4,449167	0,1	1,247847
4,450833	0,1	1,240024
4,452500	0,1	1,260364
4,454167	0,1	1,253233
4,455833	0,1	1,225448
4,457500	0,1	1,262901
4,459167	0,1	1,228486
4,460833	0,1	1,221307
4,462500	0,1	1,249713
4,464167	0,1	1,252533
4,465833	0,1	1,203617
4,467500	0,1	1,178046
4,469167	0,1	1,192331
4,470833	0,1	1,163453
4,472500	0,1	1,203189
4,474167	0,1	1,183675
4,475833	0,1	1,138929
4,477500	0,1	1,177509
4,479167	0,1	1,179364
4,480833	0,1	1,167215
4,482500	0,1	1,163702
4,484167	0,1	1,142990
4,485833	0,1	1,094824
4,487500	0,1	1,121945
4,489167	0,1	1,125133
4,490833	0,1	1,139579
4,492500	0,1	1,104280
4,494167	0,1	1,101678
4,495833	0,1	1,118660
4,497500	0,1	1,097174
4,499167	0,1	1,116610
4,500833	0,1	1,083536
4,502500	0,1	1,077598
4,504167	0,1	1,094695
4,505833	0,1	1,057288
4,507500	0,1	1,087452
4,509167	0,1	1,075448
4,510833	0,1	1,063788
4,512500	0,1	1,029507
4,514167	0,1	1,072636
4,515833	0,1	1,024225
4,517500	0,1	1,036535
4,519167	0,1	1,044308
4,520833	0,1	1,049858
4,522500	0,1	1,020491
4,524167	0,1	1,007388
4,525833	0,1	0,982165
4,527500	0,1	1,012061
4,529167	0,1	0,984988
4,530833	0,1	1,020163
4,532500	0,1	0,977085
4,534167	0,1	0,980006
4,535833	0,1	0,959896
4,537500	0,1	0,995429
4,539167	0,1	0,956548
4,540833	0,1	0,973141
4,542500	0,1	0,992947
4,544167	0,1	0,958944
4,545833	0,1	0,943178
4,547500	0,1	0,940842
4,549167	0,1	0,953206
4,550833	0,1	0,950257
4,552500	0,1	0,909907
4,554167	0,1	0,922059
4,555833	0,1	0,915469
4,557500	0,1	0,921904
4,559167	0,1	0,890169
4,560833	0,1	0,910067
4,562500	0,1	0,954263
4,564167	0,1	0,907778
4,565833	0,1	0,894605
4,567500	0,1	0,877177
4,569167	0,1	0,922251
4,570833	0,1	0,869774
4,572500	0,1	0,868764
4,574167	0,1	0,886115
4,575833	0,1	0,882860
4,577500	0,1	0,882058
4,579167	0,1	0,861177
4,580833	0,1	0,883829
4,582500	0,1	0,803614
4,584167	0,1	0,870679
4,585833	0,1	0,853408
4,587500	0,1	0,837580
4,589167	0,1	0,844830
4,590833	0,1	0,845234
4,592500	0,1	0,871355
4,594167	0,1	0,812976
4,595833	0,1	0,841920
4,597500	0,1	0,845524
4,599167	0,1	0,810842
4,600833	0,1	0,777835
4,602500	0,1	0,811822
4,604167	0,1	0,821664
4,605833	0,1	0,773187
4,607500	0,1	0,828750
4,609167	0,1	0,812125
4,610833	0,1	0,781076
4,612500	0,1	0,803590
4,614167	0,1	0,785183
4,615833	0,1	0,757329
4,617500	0,1	0,785370
4,619167	0,1	0,777970
4,620833	0,1	0,758483
4,622500	0,1	0,750470
4,624167	0,1	0,748182
4,625833	0,1	0,766643
4,627500	0,1	0,766820
4,629167	0,1	0,756733
4,630833	0,1	0,771058
4,632500	0,1	0,737802
4,634167	0,1	0,744187
4,635833	0,1	0,762387
4,637500	0,1	0,726023
4,639167	0,1	0,730490
4,640833	0,1	0,725909
4,642500	0,1	0,754900
4,644167	0,1	0,746699
4,645833	0,1	0,699577
4,647500	0,1	0,698501
4,649167	0,1	0,720979
4,650833	0,1	0,729492
4,652500	0,1	0,704916
4,654167	0,1	0,734857
4,655833	0,1	0,721341
4,657500	0,1	0,716585
4,659167	0,1	0,702430
4,660833	0,1	0,691007
4,662500	0,1	0,698695
4,664167	0,1	0,691806
4,665833	0,1	0,672470
4,667500	0,1	0,693032
4,669167	0,1	0,705288
4,670833	0,1	0,710700
4,672500	0,1	0,661772
4,674167	0,1	0,657296
4,675833	0,1	0,696851
4,677500	0,1	0,705867
4,679167	0,1	0,657819
4,680833	0,1	0,674522
4,682500	0,1	0,659255
4,684167	0,1	0,658004
4,685833	0,1	0,610275
4,687500	0,1	0,655567
4,689167	0,1	0,636963
4,690833	0,1	0,625286
4,692500	0,1	0,647087
4,694167	0,1	0,620107
4,695833	0,1	0,646825
4,697500	0,1	0,605089
4,699167	0,1	0,616759
4,700833	0,1	0,646637
4,702500	0,1	0,621429
4,704167	0,1	0,614861
4,705833	0,1	0,648466
4,707500	0,1	0,618083
4,709167	0,1	0,613929
4,710833	0,1	0,579652
4,712500	0,1	0,605428
4,714167	0,1	0,630041
4,715833	0,1	0,632519
4,717500	0,1	0,644451
4,719167	0,1	0,626156
4,720833	0,1	0,630225
4,722500	0,1	0,596081
4,724167	0,1	0,580603
4,725833	0,1	0,586168
4,727500	0,1	0,562275
4,729167	0,1	0,582466
4,730833	0,1	0,581342
4,732500	0,1	0,596329
4,734167	0,1	0,605012
4,735833	0,1	0,573861
4,737500	0,1	0,558025
4,739167	0,1	0,594582
4,740833	0,1	0,575074
4,742500	0,1	0,564490
4,744167	0,1	0,576582
4,745833	0,1	0,589572
4,747500	0,1	0,585268
4,749167	0,1	0,614369
4,750833	0,1	0,558263
4,752500	0,1	0,580211
4,754167	0,1	0,523593
4,755833	0,1	0,581198
4,757500	0,1	0,524527
4,759167	0,1	0,588888
4,760833	0,1	0,534175
4,762500	0,1	0,556698
4,764167	0,1	0,549500
4,765833	0,1	0,531950
4,767500	0,1	0,558691
4,769167	0,1	0,548279
4,770833	0,1	0,547763
4,772500	0,1	0,535516
4,774167	0,1	0,551206
4,775833	0,1	0,543322
4,777500	0,1	0,520595
4,779167	0,1	0,547951
4,780833	0,1	0,527799
4,782500	0,1	0,576184
4,784167	0,1	0,541500
4,785833	0,1	0,525897
4,787500	0,1	0,489214
4,789167	0,1	0,498302
4,790833	0,1	0,537721
4,792500	0,1	0,581745
4,794167	0,1	0,506296
4,795833	0,1	0,514379
4,797500	0,1	0,536050
4,799167	0,1	0,507154
4,800833	0,1	0,516343
4,802500	0,1	0,548758
4,804167	0,1	0,513264
4,805833	0,1	0,528947
4,807500	0,1	0,505863
4,809167	0,1	0,549908
4,810833	0,1	0,538149
4,812500	0,1	0,512683
4,814167	0,1	0,510234
4,815833	0,1	0,532704
4,817500	0,1	0,487476
4,819167	0,1	0,510099
4,820833	0,1	0,505351
4,822500	0,1	0,506985
4,824167	0,1	0,507244
4,825833	0,1	0,524797
4,827500	0,1	0,515382
4,829167	0,1	0,524701
4,830833	0,1	0,519398
4,832500	0,1	0,498565
4,834167	0,1	0,485315
4,835833	0,1	0,525082
4,837500	0,1	0,479470
4,839167	0,1	0,543216
4,840833	0,1	0,540753
4,842500	0,1	0,497733
4,844167	0,1	0,541575
4,845833	0,1	0,468255
4,847500	0,1	0,447341
4,849167	0,1	0,518643
4,850833	0,1	0,484096
4,852500	0,1	0,497462
4,854167	0,1	0,507497
4,855833	0,1	0,479049
4,857500	0,1	0,464606
4,859167	0,1	0,508743
4,860833	0,1	0,482616
4,862500	0,1	0,520322
4,864167	0,1	0,487120
4,865833	0,1	0,501000
4,867500	0,1	0,504541
4,869167	0,1	0,469980
4,870833	0,1	0,471195
4,872500	0,1	0,469425
4,874167	0,1	0,510418
4,875833	0,1	0,497952
4,877500	0,1	0,463838
4,879167	0,1	0,507874
4,880833	0,1	0,456769
4,882500	0,1	0,457656
4,884167	0,1	0,511666
4,885833	0,1	0,508015
4,887500	0,1	0,487664
4,889167	0,1	0,497497
4,890833	0,1	0,498495
4,892500	0,1	0,489078
4,894167	0,1	0,482130
4,895833	0,1	0,467211
4,897500	0,1	0,474859
4,899167	0,1	0,451552
4,900833	0,1	0,514430
4,902500	0,1	0,488631
4,904167	0,1	0,457055
4,905833	0,1	0,546935
4,907500	0,1	0,473078
4,909167	0,1	0,493152
4,910833	0,1	0,493350
4,912500	0,1	0,497496
4,914167	0,1	0,503704
4,915833	0,1	0,470496
4,917500	0,1	0,492828
4,919167	0,1	0,479109
4,920833	0,1	0,494826
4,922500	0,1	0,487112
4,924167	0,1	0,466891
4,925833	0,1	0,461999
4,927500	0,1	0,486463
4,929167	0,1	0,437058
4,930833	0,1	0,480894
4,932500	0,1	0,458146
4,934167	0,1	0,504528
4,935833	0,1	0,525565
4,937500	0,1	0,478569
4,939167	0,1	0,462870
4,940833	0,1	0,524980
4,942500	0,1	0,471787
4,944167	0,1	0,496498
4,945833	0,1	0,488721
4,947500	0,1	0,500583
4,949167	0,1	0,492870
4,950833	0,1	0,485795
4,952500	0,1	0,476953
4,954167	0,1	0,479458
4,955833	0,1	0,494504
4,957500	0,1	0,469528
4,959167	0,1	0,476917
4,960833	0,1	0,486886
4,962500	0,1	0,470235
4,964167	0,1	0,480646
4,965833	0,1	0,467436
4,967500	0,1	0,528487
4,969167	0,1	0,494001
4,970833	0,1	0,530617
4,972500	0,1	0,507053
4,974167	0,1	0,530451
4,975833	0,1	0,536442
4,977500	0,1	0,479892
4,979167	0,1	0,489295
4,980833	0,1	0,494283
4,982500	0,1	0,499716
4,984167	0,1	0,536855
4,985833	0,1	0,492559
4,987500	0,1	0,521161
4,989167	0,1	0,508211
4,990833	0,1	0,513930
4,992500	0,1	0,506280
4,994167	0,1	0,531708
4,995833	0,1	0,511364
4,997500	0,1	0,543447
4,999167	0,1	0,504971
5,000833	0,1	0,557399
5,002500	0,1	0,487290
5,004167	0,1	0,515117
5,005833	0,1	0,534125
5,007500	0,1	0,567825
5,009167	0,1	0,562883
5,010833	0,1	0,569307
5,012500	0,1	0,554458
5,014167	0,1	0,568343
5,015833	0,1	0,551691
5,017500	0,1	0,567152
5,019167	0,1	0,554522
5,020833	0,1	0,548218
5,022500	0,1	0,577345
5,024167	0,1	0,551693
5,025833	0,1	0,534583
5,027500	0,1	0,547541
5,029167	0,1	0,574714
5,030833	0,1	0,562467
5,032500	0,1	0,579055
5,034167	0,1	0,611600
5,035833	0,1	0,597335
5,037500	0,1	0,562830
5,039167	0,1	0,545489
5,040833	0,1	0,579246
5,042500	0,1	0,601316
5,044167	0,1	0,605939
5,045833	0,1	0,581963
5,047500	0,1	0,615046
5,049167	0,1	0,629104
5,050833	0,1	0,599717
5,052500	0,1	0,635755
5,054167	0,1	0,633777
5,055833	0,1	0,637245
5,057500	0,1	0,631169
5,059167	0,1	0,615449
5,060833	0,1	0,628917
5,062500	0,1	0,626413
5,064167	0,1	0,651750
5,065833	0,1	0,688840
5,067500	0,1	0,647132
5,069167	0,1	0,632111
5,070833	0,1	0,658406
5,072500	0,1	0,651532
5,074167	0,1	0,640373
5,075833	0,1	0,648611
5,077500	0,1	0,671696
5,079167	0,1	0,649932
5,080833	0,1	0,697846
5,082500	0,1	0,671577
5,084167	0,1	0,670004
5,085833	0,1	0,691904
5,087500	0,1	0,670103
5,089167	0,1	0,698337
5,090833	0,1	0,715517
5,092500	0,1	0,669100
5,094167	0,1	0,689357
5,095833	0,1	0,674605
5,097500	0,1	0,716889
5,099167	0,1	0,732786
5,100833	0,1	0,688925
5,102500	0,1	0,735577
5,104167	0,1	0,714948
5,105833	0,1	0,699410
5,107500	0,1	0,705224
5,109167	0,1	0,680399
5,110833	0,1	0,713648
5,112500	0,1	0,731958
5,114167	0,1	0,744844
5,115833	0,1	0,726687
5,117500	0,1	0,653321
5,119167	0,1	0,721387
5,120833	0,1	0,745878
5,122500	0,1	0,773654
5,124167	0,1	0,727272
5,125833	0,1	0,706387
5,127500	0,1	0,725300
5,129167	0,1	0,754059
5,130833	0,1	0,727398
5,132500	0,1	0,705035
5,134167	0,1	0,708861
5,135833	0,1	0,723658
5,137500	0,1	0,740601
5,139167	0,1	0,714725
5,140833	0,1	0,710374
5,142500	0,1	0,752282
5,144167	0,1	0,722132
5,145833	0,1	0,726932
5,147500	0,1	0,736714
5,149167	0,1	0,709774
5,150833	0,1	0,726994
5,152500	0,1	0,719737
5,154167	0,1	0,695039
5,155833	0,1	0,755339
5,157500	0,1	0,702021
5,159167	0,1	0,695667
5,160833	0,1	0,702938
5,162500	0,1	0,714900
5,164167	0,1	0,710215
5,165833	0,1	0,718578
5,167500	0,1	0,715548
5,169167	0,1	0,733719
5,170833	0,1	0,714686
5,172500	0,1	0,695092
5,174167	0,1	0,672732
5,175833	0,1	0,667460
5,177500	0,1	0,700452
5,179167	0,1	0,683941
5,180833	0,1	0,692969
5,182500	0,1	0,714320
5,184167	0,1	0,686190
5,185833	0,1	0,668674
5,187500	0,1	0,667198
5,189167	0,1	0,643433
5,190833	0,1	0,681213
5,192500	0,1	0,642272
5,194167	0,1	0,661242
5,195833	0,1	0,660669
5,197500	0,1	0,634652
5,199167	0,1	0,628791
5,200833	0,1	0,636666
5,202500	0,1	0,664457
5,204167	0,1	0,655067
5,205833	0,1	0,626093
5,207500	0,1	0,655897
5,209167	0,1	0,612073
5,210833	0,1	0,597428
5,212500	0,1	0,610605
5,214167	0,1	0,572187
5,215833	0,1	0,615334
5,217500	0,1	0,574566
5,219167	0,1	0,605102
5,220833	0,1	0,559228
5,222500	0,1	0,589184
5,224167	0,1	0,593823
5,225833	0,1	0,606941
5,227500	0,1	0,565335
5,229167	0,1	0,595610
5,230833	0,1	0,569704
5,232500	0,1	0,571952
5,234167	0,1	0,539445
5,235833	0,1	0,580689
5,237500	0,1	0,538513
5,239167	0,1	0,568376
5,240833	0,1	0,541438
5,242500	0,1	0,537278
5,244167	0,1	0,557762
5,245833	0,1	0,546932
5,247500	0,1	0,517639
5,249167	0,1	0,561356
5,250833	0,1	0,512434
5,252500	0,1	0,527726
5,254167	0,1	0,482268
5,255833	0,1	0,534408
5,257500	0,1	0,491270
5,259167	0,1	0,491033
5,260833	0,1	0,491262
5,262500	0,1	0,474189
5,264167	0,1	0,509612
5,265833	0,1	0,457510
5,267500	0,1	0,469198
5,269167	0,1	0,414841
5,270833	0,1	0,480633
5,272500	0,1	0,469846
5,274167	0,1	0,460200
5,275833	0,1	0,454282
5,277500	0,1	0,462412
5,279167	0,1	0,445282
5,280833	0,1	0,440487
5,282500	0,1	0,430039
5,284167	0,1	0,444147
5,285833	0,1	0,434026
5,287500	0,1	0,449163
5,289167	0,1	0,458940
5,290833	0,1	0,419210
5,292500	0,1	0,442507
5,294167	0,1	0,424062
5,295833	0,1	0,473978
5,297500	0,1	0,384627
5,299167	0,1	0,418228
5,300833	0,1	0,383520
5,302500	0,1	0,449280
5,304167	0,1	0,395550
5,305833	0,1	0,371720
5,307500	0,1	0,404822
5,309167	0,1	0,401489
5,310833	0,1	0,363588
5,312500	0,1	0,382384
5,314167	0,1	0,357930
5,315833	0,1	0,374957
5,317500	0,1	0,403409
5,319167	0,1	0,357643
5,320833	0,1	0,383249
5,322500	0,1	0,342950
5,324167	0,1	0,390962
5,325833	0,1	0,352438
5,327500	0,1	0,368399
5,329167	0,1	0,388045
5,330833	0,1	0,354944
5,332500	0,1	0,337870
5,334167	0,1	0,391924
5,335833	0,1	0,346230
5,337500	0,1	0,330185
5,339167	0,1	0,350204
5,340833	0,1	0,313985
5,342500	0,1	0,338051
5,344167	0,1	0,370967
5,345833	0,1	0,302130
5,347500	0,1	0,332647
5,349167	0,1	0,326933
5,350833	0,1	0,292675
5,352500	0,1	0,309026
5,354167	0,1	0,297913
5,355833	0,1	0,312338
5,357500	0,1	0,306812
5,359167	0,1	0,304339
5,360833	0,1	0,281299
5,362500	0,1	0,316063
5,364167	0,1	0,296402
5,365833	0,1	0,288135
5,367500	0,1	0,281000
5,369167	0,1	0,309156
5,370833	0,1	0,272587
5,372500	0,1	0,291695
5,374167	0,1	0,318858
5,375833	0,1	0,297654
5,377500	0,1	0,276022
5,379167	0,1	0,279364
5,380833	0,1	0,272938
5,382500	0,1	0,261017
5,384167	0,1	0,247411
5,385833	0,1	0,276880
5,387500	0,1	0,256322
5,389167	0,1	0,259784
5,390833	0,1	0,286811
5,392500	0,1	0,250151
5,394167	0,1	0,287552
5,395833	0,1	0,270165
5,397500	0,1	0,278452
5,399167	0,1	0,255552
5,400833	0,1	0,246640
5,402500	0,1	0,254611
5,404167	0,1	0,231254
5,405833	0,1	0,247576
5,407500	0,1	0,216308
5,409167	0,1	0,269422
5,410833	0,1	0,245847
5,412500	0,1	0,244392
5,414167	0,1	0,231505
5,415833	0,1	0,222125
5,417500	0,1	0,232050
5,419167	0,1	0,259558
5,420833	0,1	0,225370
5,422500	0,1	0,194303
5,424167	0,1	0,238732
5,425833	0,1	0,245578
5,427500	0,1	0,256087
5,429167	0,1	0,253754
5,430833	0,1	0,191613
5,432500	0,1	0,205535
5,434167	0,1	0,213575
5,435833	0,1	0,204154
5,437500	0,1	0,193719
5,439167	0,1	0,176672
5,440833	0,1	0,236275
5,442500	0,1	0,209753
5,444167	0,1	0,219223
5,445833	0,1	0,194074
5,447500	0,1	0,200493
5,449167	0,1	0,181889
5,450833	0,1	0,221534
5,452500	0,1	0,202013
5,454167	0,1	0,186060
5,455833	0,1	0,182237
5,457500	0,1	0,204736
5,459167	0,1	0,191465
5,460833	0,1	0,196928
5,462500	0,1	0,187064
5,464167	0,1	0,214846
5,465833	0,1	0,171647
5,467500	0,1	0,176931
5,469167	0,1	0,166888
5,470833	0,1	0,135292
5,472500	0,1	0,163213
5,474167	0,1	0,191817
5,475833	0,1	0,180538
5,477500	0,1	0,187414
5,479167	0,1	0,201688
5,480833	0,1	0,207627
5,482500	0,1	0,185419
5,484167	0,1	0,187377
5,485833	0,1	0,170331
5,487500	0,1	0,164506
5,489167	0,1	0,180205
5,490833	0,1	0,177323
5,492500	0,1	0,144428
5,494167	0,1	0,157522
5,495833	0,1	0,125362
5,497500	0,1	0,151003
5,499167	0,1	0,176004
5,500833	0,1	0,146064
5,502500	0,1	0,146196
5,504167	0,1	0,151488
5,505833	0,1	0,168810
5,507500	0,1	0,163158
5,509167	0,1	0,158307
5,510833	0,1	0,153229
5,512500	0,1	0,127427
5,514167	0,1	0,160289
5,515833	0,1	0,123183
5,517500	0,1	0,207418
5,519167	0,1	0,120929
5,520833	0,1	0,153535
5,522500	0,1	0,139673
5,524167	0,1	0,160707
5,525833	0,1	0,162261
5,527500	0,1	0,141993
5,529167	0,1	0,142820
5,530833	0,1	0,152973
5,532500	0,1	0,125688
5,534167	0,1	0,155854
5,535833	0,1	0,136422
5,537500	0,1	0,137451
5,539167	0,1	0,167458
5,540833	0,1	0,153484
5,542500	0,1	0,123195
5,544167	0,1	0,180912
5,545833	0,1	0,166349
5,547500	0,1	0,071565
5,549167	0,1	0,125166
5,550833	0,1	0,112393
5,552500	0,1	0,164204
5,554167	0,1	0,140153
5,555833	0,1	0,109273
5,557500	0,1	0,126257
5,559167	0,1	0,122509
5,560833	0,1	0,133593
5,562500	0,1	0,178317
5,564167	0,1	0,124612
5,565833	0,1	0,142034
5,567500	0,1	0,153060
5,569167	0,1	0,108154
5,570833	0,1	0,131234
5,572500	0,1	0,126365
5,574167	0,1	0,124725
5,575833	0,1	0,138859
5,577500	0,1	0,081460
5,579167	0,1	0,105504
5,580833	0,1	0,154916
5,582500	0,1	0,128941
5,584167	0,1	0,160680
5,585833	0,1	0,126498
5,587500	0,1	0,109144
5,589167	0,1	0,089287
5,590833	0,1	0,155909
5,592500	0,1	0,071500
5,594167	0,1	0,131590
5,595833	0,1	0,133204
5,597500	0,1	0,118782
5,599167	0,1	0,117822
5,600833	0,1	0,112808
5,602500	0,1	0,149300
5,604167	0,1	0,135967
5,605833	0,1	0,087279
5,607500	0,1	0,111804
5,609167	0,1	0,096620
5,610833	0,1	0,133298
5,612500	0,1	0,103755
5,614167	0,1	0,152133
5,615833	0,1	0,145227
5,617500	0,1	0,101602
5,619167	0,1	0,150898
5,620833	0,1	0,156476
5,622500	0,1	0,157084
5,624167	0,1	0,132316
5,625833	0,1	0,087905
5,627500	0,1	0,145440
5,629167	0,1	0,113003
5,630833	0,1	0,133365
5,632500	0,1	0,142905
5,634167	0,1	0,112711
5,635833	0,1	0,102942
5,637500	0,1	0,114983
5,639167	0,1	0,147725
5,640833	0,1	0,152293
5,642500	0,1	0,123648
5,644167	0,1	0,098510
5,645833	0,1	0,145505
5,647500	0,1	0,076094
5,649167	0,1	0,124689
5,650833	0,1	0,080940
5,652500	0,1	0,077388
5,654167	0,1	0,119990
5,655833	0,1	0,101935
5,657500	0,1	0,154702
5,659167	0,1	0,122390
5,660833	0,1	0,115150
5,662500	0,1	0,114632
5,664167	0,1	0,125391
5,665833	0,1	0,149429
5,667500	0,1	0,144232
5,669167	0,1	0,117020
5,670833	0,1	0,104002
5,672500	0,1	0,115663
5,674167	0,1	0,144741
5,675833	0,1	0,123924
5,677500	0,1	0,148144
5,679167	0,1	0,103053
5,680833	0,1	0,144234
5,682500	0,1	0,131898
5,684167	0,1	0,138244
5,685833	0,1	0,148865
5,687500	0,1	0,121379
5,689167	0,1	0,139437
5,690833	0,1	0,100921
5,692500	0,1	0,160634
5,694167	0,1	0,123034
5,695833	0,1	0,109080
5,697500	0,1	0,132367
5,699167	0,1	0,128935
5,700833	0,1	0,153865
5,702500	0,1	0,170158
5,704167	0,1	0,090273
5,705833	0,1	0,177892
5,707500	0,1	0,116057
5,709167	0,1	0,140847
5,710833	0,1	0,101398
5,712500	0,1	0,104147
5,714167	0,1	0,167741
5,715833	0,1	0,115804
5,717500	0,1	0,134197
5,719167	0,1	0,122763
5,720833	0,1	0,147865
5,722500	0,1	0,147192
5,724167	0,1	0,122097
5,725833	0,1	0,144226
5,727500	0,1	0,125209
5,729167	0,1	0,153888
5,730833	0,1	0,161995
5,732500	0,1	0,120627
5,734167	0,1	0,169799
5,735833	0,1	0,136942
5,737500	0,1	0,142756
5,739167	0,1	0,150845
5,740833	0,1	0,150694
5,742500	0,1	0,149499
5,744167	0,1	0,156112
5,745833	0,1	0,133501
5,747500	0,1	0,140398
5,749167	0,1	0,165583
5,750833	0,1	0,173563
5,752500	0,1	0,133655
5,754167	0,1	0,145829
5,755833	0,1	0,125889
5,757500	0,1	0,146406
5,759167	0,1	0,132982
5,760833	0,1	0,160606
5,762500	0,1	0,144739
5,764167	0,1	0,141598
5,765833	0,1	0,171795
5,767500	0,1	0,164797
5,769167	0,1	0,126499
5,770833	0,1	0,124851
5,772500	0,1	0,144263
5,774167	0,1	0,159234
5,775833	0,1	0,128525
5,777500	0,1	0,150550
5,779167	0,1	0,133914
5,780833	0,1	0,154469
5,782500	0,1	0,140568
5,784167	0,1	0,142177
5,785833	0,1	0,158416
5,787500	0,1	0,094915
5,789167	0,1	0,153529
5,790833	0,1	0,123221
5,792500	0,1	0,117809
5,794167	0,1	0,135191
5,795833	0,1	0,128936
5,797500	0,1	0,105024
5,799167	0,1	0,190735
5,800833	0,1	0,143398
5,802500	0,1	0,124566
5,804167	0,1	0,164585
5,805833	0,1	0,174974
5,807500	0,1	0,166687
5,809167	0,1	0,163890
5,810833	0,1	0,149274
5,812500	0,1	0,140894
5,814167	0,1	0,152229
5,815833	0,1	0,163154
5,817500	0,1	0,179535
5,819167	0,1	0,160365
5,820833	0,1	0,091641
5,822500	0,1	0,148842
5,824167	0,1	0,139218
5,825833	0,1	0,144443
5,827500	0,1	0,154310
5,829167	0,1	0,163370
5,830833	0,1	0,117176
5,832500	0,1	0,092941
5,834167	0,1	0,160659
5,835833	0,1	0,142308
5,837500	0,1	0,147380
5,839167	0,1	0,145907
5,840833	0,1	0,156853
5,842500	0,1	0,150521
5,844167	0,1	0,121253
5,845833	0,1	0,183001
5,847500	0,1	0,130358
5,849167	0,1	0,132915
5,850833	0,1	0,112192
5,852500	0,1	0,114217
5,854167	0,1	0,124848
5,855833	0,1	0,163411
5,857500	0,1	0,144878
5,859167	0,1	0,140251
5,860833	0,1	0,132855
5,862500	0,1	0,070460
5,864167	0,1	0,132384
5,865833	0,1	0,109168
5,867500	0,1	0,105208
5,869167	0,1	0,124306
5,870833	0,1	0,139173
5,872500	0,1	0,121628
5,874167	0,1	0,125555
5,875833	0,1	0,105389
5,877500	0,1	0,163169
5,879167	0,1	0,134748
5,880833	0,1	0,085768
5,882500	0,1	0,111641
5,884167	0,1	0,147019
5,885833	0,1	0,095164
5,887500	0,1	0,103557
5,889167	0,1	0,146236
5,890833	0,1	0,164653
5,892500	0,1	0,155095
5,894167	0,1	0,117651
5,895833	0,1	0,133303
5,897500	0,1	0,152353
5,899167	0,1	0,098620
5,900833	0,1	0,117135
5,902500	0,1	0,120629
5,904167	0,1	0,091092
5,905833	0,1	0,093865
5,907500	0,1	0,106338
5,909167	0,1	0,108848
5,910833	0,1	0,122277
5,912500	0,1	0,137636
5,914167	0,1	0,124979
5,915833	0,1	0,064551
5,917500	0,1	0,107818
5,919167	0,1	0,137242
5,920833	0,1	0,108567
5,922500	0,1	0,109579
5,924167	0,1	0,101593
5,925833	0,1	0,127994
5,927500	0,1	0,116790
5,929167	0,1	0,137283
5,930833	0,1	0,103427
5,932500	0,1	0,103959
5,934167	0,1	0,096641
5,935833	0,1	0,100848
5,937500	0,1	0,090256
5,939167	0,1	0,100909
5,940833	0,1	0,101428
5,942500	0,1	0,124971
5,944167	0,1	0,067058
5,945833	0,1	0,102086
5,947500	0,1	0,148592
5,949167	0,1	0,102082
5,950833	0,1	0,065580
5,952500	0,1	0,081982
5,954167	0,1	0,084164
5,955833	0,1	0,108074
5,957500	0,1	0,100208
5,959167	0,1	0,118672
5,960833	0,1	0,081581
5,962500	0,1	0,118518
5,964167	0,1	0,096936
5,965833	0,1	0,077947
5,967500	0,1	0,126163
5,969167	0,1	0,090802
5,970833	0,1	0,110231
5,972500	0,1	0,117780
5,974167	0,1	0,110629
5,975833	0,1	0,091566
5,977500	0,1	0,072023
5,979167	0,1	0,103777
5,980833	0,1	0,121282
5,982500	0,1	0,096874
5,984167	0,1	0,089613
5,985833	0,1	0,110003
5,987500	0,1	0,060255
5,989167	0,1	0,072094
5,990833	0,1	0,069176
5,992500	0,1	0,131526
5,994167	0,1	0,074079
5,995833	0,1	0,082213
5,997500	0,1	0,087517
5,999167	0,1	0,114877
6,000833	0,1	0,089241
