File Path	chrom://chromeleon01/ikbm_chromeleon/2022/Rezex/Esteban/220612_chitin_4_7.seq/360.smp/UV_VIS_1.channel/UV_VIS_1.chm
Channel	UV_VIS_1

Injection Information:
Data Vault	ikbm_chromeleon
Injection	Sc10D_06h-ChiBS_1
Injection Number	68
Position	GB5
Comment	
Processing Method	New ProcMethod
Instrument Method	Short_Rezex_6min_194nm
Type	Unknown
Status	Finished
Injection Date	13.06.2022
Injection Time	00:27:45
Injection Volume (µl)	8,000
Dilution Factor	1,0000
Weight	1,0000

Chromatogram Data Information:
Time Min. (min)	0,000833
Time Max. (min)	6,000833
Data Points	3601
Detector	UV
Generating Data System	Chromeleon 7.2.9.11323
Exporting Data System	Chromeleon 7.2.9.0
Operator	Instrument Controller
Signal Quantity	Absorbance
Signal Unit	mAU
Signal Min.	-0,073060
Signal Max.	375,283317
Channel	UV_VIS_1
Driver Name	VWD3000.dll
Channel Type	Evaluation
Min. Step (s)	0,1
Max. Step (s)	0,1
Average Step (s)	0,1

Signal Parameter Information:
Signal Info	WVL:194 nm

Chromatogram Data:
Time (min)	Step (s)	Value (mAU)
0,000833	n.a.	-0,039810
0,002500	0,1	-0,016571
0,004167	0,1	-0,012771
0,005833	0,1	-0,022160
0,007500	0,1	-0,008106
0,009167	0,1	0,018807
0,010833	0,1	0,023004
0,012500	0,1	-0,031294
0,014167	0,1	-0,044307
0,015833	0,1	-0,022148
0,017500	0,1	-0,008935
0,019167	0,1	-0,035968
0,020833	0,1	0,022326
0,022500	0,1	-0,000258
0,024167	0,1	-0,017409
0,025833	0,1	-0,067917
0,027500	0,1	-0,042427
0,029167	0,1	-0,044620
0,030833	0,1	-0,007574
0,032500	0,1	-0,071145
0,034167	0,1	-0,026756
0,035833	0,1	-0,073060
0,037500	0,1	-0,021469
0,039167	0,1	-0,055083
0,040833	0,1	-0,044830
0,042500	0,1	-0,046216
0,044167	0,1	-0,052704
0,045833	0,1	-0,020263
0,047500	0,1	-0,021438
0,049167	0,1	-0,003318
0,050833	0,1	-0,039221
0,052500	0,1	-0,037093
0,054167	0,1	-0,005414
0,055833	0,1	0,013521
0,057500	0,1	0,003698
0,059167	0,1	-0,003020
0,060833	0,1	0,002927
0,062500	0,1	-0,028439
0,064167	0,1	-0,001018
0,065833	0,1	0,004297
0,067500	0,1	0,006225
0,069167	0,1	0,015016
0,070833	0,1	-0,007848
0,072500	0,1	0,005581
0,074167	0,1	-0,033021
0,075833	0,1	-0,015719
0,077500	0,1	0,000540
0,079167	0,1	0,001498
0,080833	0,1	0,042653
0,082500	0,1	-0,019081
0,084167	0,1	0,013623
0,085833	0,1	0,019517
0,087500	0,1	0,024746
0,089167	0,1	-0,011082
0,090833	0,1	0,016983
0,092500	0,1	0,009195
0,094167	0,1	0,015515
0,095833	0,1	-0,006666
0,097500	0,1	0,010763
0,099167	0,1	0,003802
0,100833	0,1	0,004755
0,102500	0,1	0,020262
0,104167	0,1	-0,049333
0,105833	0,1	-0,046260
0,107500	0,1	-0,020034
0,109167	0,1	-0,029957
0,110833	0,1	-0,047187
0,112500	0,1	-0,048768
0,114167	0,1	0,000886
0,115833	0,1	-0,039698
0,117500	0,1	-0,019617
0,119167	0,1	-0,032652
0,120833	0,1	-0,031081
0,122500	0,1	-0,058590
0,124167	0,1	0,005071
0,125833	0,1	-0,055595
0,127500	0,1	-0,032785
0,129167	0,1	-0,037299
0,130833	0,1	-0,003716
0,132500	0,1	-0,008620
0,134167	0,1	-0,006880
0,135833	0,1	-0,019838
0,137500	0,1	0,040470
0,139167	0,1	0,003602
0,140833	0,1	0,019475
0,142500	0,1	0,024041
0,144167	0,1	-0,002829
0,145833	0,1	0,034070
0,147500	0,1	0,004884
0,149167	0,1	0,001105
0,150833	0,1	-0,008225
0,152500	0,1	-0,016271
0,154167	0,1	0,041800
0,155833	0,1	-0,002493
0,157500	0,1	0,020156
0,159167	0,1	-0,017156
0,160833	0,1	-0,007338
0,162500	0,1	0,002492
0,164167	0,1	0,017462
0,165833	0,1	0,001584
0,167500	0,1	-0,018881
0,169167	0,1	-0,024899
0,170833	0,1	-0,002925
0,172500	0,1	-0,029291
0,174167	0,1	0,030020
0,175833	0,1	0,048258
0,177500	0,1	0,019879
0,179167	0,1	-0,001980
0,180833	0,1	0,019969
0,182500	0,1	0,023188
0,184167	0,1	-0,023107
0,185833	0,1	0,006716
0,187500	0,1	0,032826
0,189167	0,1	-0,026979
0,190833	0,1	0,051252
0,192500	0,1	-0,011842
0,194167	0,1	0,002780
0,195833	0,1	-0,022158
0,197500	0,1	0,039601
0,199167	0,1	0,028089
0,200833	0,1	0,005049
0,202500	0,1	0,004152
0,204167	0,1	0,009874
0,205833	0,1	0,028682
0,207500	0,1	0,015376
0,209167	0,1	-0,042327
0,210833	0,1	0,041318
0,212500	0,1	0,014218
0,214167	0,1	0,043466
0,215833	0,1	0,002151
0,217500	0,1	0,004276
0,219167	0,1	0,045061
0,220833	0,1	0,013720
0,222500	0,1	0,016471
0,224167	0,1	0,027004
0,225833	0,1	0,042745
0,227500	0,1	0,038580
0,229167	0,1	-0,003966
0,230833	0,1	-0,013327
0,232500	0,1	0,027161
0,234167	0,1	0,015540
0,235833	0,1	0,032229
0,237500	0,1	0,035738
0,239167	0,1	0,022674
0,240833	0,1	-0,008862
0,242500	0,1	0,034068
0,244167	0,1	0,015170
0,245833	0,1	0,038469
0,247500	0,1	0,050438
0,249167	0,1	0,043826
0,250833	0,1	0,013471
0,252500	0,1	0,028640
0,254167	0,1	0,074261
0,255833	0,1	0,000728
0,257500	0,1	0,010020
0,259167	0,1	0,011410
0,260833	0,1	0,048628
0,262500	0,1	0,021352
0,264167	0,1	0,019335
0,265833	0,1	0,012720
0,267500	0,1	0,043197
0,269167	0,1	0,016809
0,270833	0,1	-0,022630
0,272500	0,1	0,044724
0,274167	0,1	0,017744
0,275833	0,1	0,050581
0,277500	0,1	0,027780
0,279167	0,1	0,052843
0,280833	0,1	0,047251
0,282500	0,1	0,012540
0,284167	0,1	0,056092
0,285833	0,1	0,023571
0,287500	0,1	0,028767
0,289167	0,1	0,047638
0,290833	0,1	0,033460
0,292500	0,1	0,028314
0,294167	0,1	0,019337
0,295833	0,1	0,010979
0,297500	0,1	0,054663
0,299167	0,1	0,038292
0,300833	0,1	0,020104
0,302500	0,1	0,033328
0,304167	0,1	0,048758
0,305833	0,1	0,080715
0,307500	0,1	0,056296
0,309167	0,1	0,071655
0,310833	0,1	0,044518
0,312500	0,1	0,064480
0,314167	0,1	0,051980
0,315833	0,1	0,050629
0,317500	0,1	0,036674
0,319167	0,1	-0,001376
0,320833	0,1	0,018851
0,322500	0,1	0,041788
0,324167	0,1	0,061411
0,325833	0,1	0,076965
0,327500	0,1	0,041430
0,329167	0,1	0,032982
0,330833	0,1	0,028501
0,332500	0,1	0,061676
0,334167	0,1	0,060791
0,335833	0,1	0,042753
0,337500	0,1	0,070907
0,339167	0,1	0,054427
0,340833	0,1	0,076922
0,342500	0,1	0,063223
0,344167	0,1	0,045468
0,345833	0,1	-0,025380
0,347500	0,1	0,075721
0,349167	0,1	0,039293
0,350833	0,1	0,063086
0,352500	0,1	0,069273
0,354167	0,1	0,066539
0,355833	0,1	0,040371
0,357500	0,1	0,053259
0,359167	0,1	0,112382
0,360833	0,1	0,076522
0,362500	0,1	0,053435
0,364167	0,1	0,065312
0,365833	0,1	0,061086
0,367500	0,1	0,093223
0,369167	0,1	0,053977
0,370833	0,1	0,049885
0,372500	0,1	0,053866
0,374167	0,1	0,061973
0,375833	0,1	0,076180
0,377500	0,1	0,049560
0,379167	0,1	0,085920
0,380833	0,1	0,083608
0,382500	0,1	0,069444
0,384167	0,1	0,094778
0,385833	0,1	0,075187
0,387500	0,1	0,081843
0,389167	0,1	0,068471
0,390833	0,1	0,067699
0,392500	0,1	0,049245
0,394167	0,1	0,066079
0,395833	0,1	0,134532
0,397500	0,1	0,031388
0,399167	0,1	0,079692
0,400833	0,1	0,076786
0,402500	0,1	0,067059
0,404167	0,1	0,087109
0,405833	0,1	0,061377
0,407500	0,1	0,107178
0,409167	0,1	0,048425
0,410833	0,1	0,099232
0,412500	0,1	0,078715
0,414167	0,1	0,105959
0,415833	0,1	0,113969
0,417500	0,1	0,084361
0,419167	0,1	0,061957
0,420833	0,1	0,086253
0,422500	0,1	0,094098
0,424167	0,1	0,117306
0,425833	0,1	0,068063
0,427500	0,1	0,053433
0,429167	0,1	0,092083
0,430833	0,1	0,094203
0,432500	0,1	0,112100
0,434167	0,1	0,112129
0,435833	0,1	0,100141
0,437500	0,1	0,136140
0,439167	0,1	0,111696
0,440833	0,1	0,061862
0,442500	0,1	0,053020
0,444167	0,1	0,085570
0,445833	0,1	0,112867
0,447500	0,1	0,111691
0,449167	0,1	0,098316
0,450833	0,1	0,097457
0,452500	0,1	0,123171
0,454167	0,1	0,086543
0,455833	0,1	0,095180
0,457500	0,1	0,077866
0,459167	0,1	0,110497
0,460833	0,1	0,069388
0,462500	0,1	0,112966
0,464167	0,1	0,111675
0,465833	0,1	0,115987
0,467500	0,1	0,124988
0,469167	0,1	0,120756
0,470833	0,1	0,129527
0,472500	0,1	0,105225
0,474167	0,1	0,101011
0,475833	0,1	0,081558
0,477500	0,1	0,118071
0,479167	0,1	0,128532
0,480833	0,1	0,121109
0,482500	0,1	0,119038
0,484167	0,1	0,088282
0,485833	0,1	0,121742
0,487500	0,1	0,080795
0,489167	0,1	0,125927
0,490833	0,1	0,087766
0,492500	0,1	0,110195
0,494167	0,1	0,089816
0,495833	0,1	0,092007
0,497500	0,1	0,103830
0,499167	0,1	0,113263
0,500833	0,1	0,155571
0,502500	0,1	0,107364
0,504167	0,1	0,128630
0,505833	0,1	0,123251
0,507500	0,1	0,123579
0,509167	0,1	0,138654
0,510833	0,1	0,140312
0,512500	0,1	0,129532
0,514167	0,1	0,129758
0,515833	0,1	0,094964
0,517500	0,1	0,122286
0,519167	0,1	0,115572
0,520833	0,1	0,110531
0,522500	0,1	0,078972
0,524167	0,1	0,140950
0,525833	0,1	0,111305
0,527500	0,1	0,157664
0,529167	0,1	0,131568
0,530833	0,1	0,124929
0,532500	0,1	0,129528
0,534167	0,1	0,139856
0,535833	0,1	0,117521
0,537500	0,1	0,118143
0,539167	0,1	0,132804
0,540833	0,1	0,142780
0,542500	0,1	0,142368
0,544167	0,1	0,168499
0,545833	0,1	0,095099
0,547500	0,1	0,163496
0,549167	0,1	0,163400
0,550833	0,1	0,148222
0,552500	0,1	0,139454
0,554167	0,1	0,151291
0,555833	0,1	0,133998
0,557500	0,1	0,111633
0,559167	0,1	0,137569
0,560833	0,1	0,162612
0,562500	0,1	0,134995
0,564167	0,1	0,122318
0,565833	0,1	0,146143
0,567500	0,1	0,162574
0,569167	0,1	0,158015
0,570833	0,1	0,172928
0,572500	0,1	0,147996
0,574167	0,1	0,149779
0,575833	0,1	0,172031
0,577500	0,1	0,154110
0,579167	0,1	0,182382
0,580833	0,1	0,163266
0,582500	0,1	0,191702
0,584167	0,1	0,171007
0,585833	0,1	0,183748
0,587500	0,1	0,170415
0,589167	0,1	0,144806
0,590833	0,1	0,148846
0,592500	0,1	0,172448
0,594167	0,1	0,213933
0,595833	0,1	0,144488
0,597500	0,1	0,211643
0,599167	0,1	0,168857
0,600833	0,1	0,185273
0,602500	0,1	0,203861
0,604167	0,1	0,213676
0,605833	0,1	0,167294
0,607500	0,1	0,156504
0,609167	0,1	0,169083
0,610833	0,1	0,192548
0,612500	0,1	0,209752
0,614167	0,1	0,192584
0,615833	0,1	0,235737
0,617500	0,1	0,187900
0,619167	0,1	0,171625
0,620833	0,1	0,172201
0,622500	0,1	0,210162
0,624167	0,1	0,226539
0,625833	0,1	0,203493
0,627500	0,1	0,210978
0,629167	0,1	0,202620
0,630833	0,1	0,177817
0,632500	0,1	0,209496
0,634167	0,1	0,210589
0,635833	0,1	0,256155
0,637500	0,1	0,195330
0,639167	0,1	0,221201
0,640833	0,1	0,189372
0,642500	0,1	0,222802
0,644167	0,1	0,254647
0,645833	0,1	0,274752
0,647500	0,1	0,214688
0,649167	0,1	0,208054
0,650833	0,1	0,231075
0,652500	0,1	0,189335
0,654167	0,1	0,241398
0,655833	0,1	0,243846
0,657500	0,1	0,233367
0,659167	0,1	0,235737
0,660833	0,1	0,204442
0,662500	0,1	0,203803
0,664167	0,1	0,211393
0,665833	0,1	0,235995
0,667500	0,1	0,292784
0,669167	0,1	0,270196
0,670833	0,1	0,218900
0,672500	0,1	0,282652
0,674167	0,1	0,252859
0,675833	0,1	0,236357
0,677500	0,1	0,260501
0,679167	0,1	0,247076
0,680833	0,1	0,292694
0,682500	0,1	0,256330
0,684167	0,1	0,284310
0,685833	0,1	0,255694
0,687500	0,1	0,277163
0,689167	0,1	0,262285
0,690833	0,1	0,250244
0,692500	0,1	0,271916
0,694167	0,1	0,300934
0,695833	0,1	0,260834
0,697500	0,1	0,312310
0,699167	0,1	0,298427
0,700833	0,1	0,334576
0,702500	0,1	0,333299
0,704167	0,1	0,254183
0,705833	0,1	0,297553
0,707500	0,1	0,310390
0,709167	0,1	0,309304
0,710833	0,1	0,304477
0,712500	0,1	0,317050
0,714167	0,1	0,325803
0,715833	0,1	0,357131
0,717500	0,1	0,349415
0,719167	0,1	0,326391
0,720833	0,1	0,296763
0,722500	0,1	0,328174
0,724167	0,1	0,364590
0,725833	0,1	0,389558
0,727500	0,1	0,364281
0,729167	0,1	0,357041
0,730833	0,1	0,359288
0,732500	0,1	0,391264
0,734167	0,1	0,370875
0,735833	0,1	0,379715
0,737500	0,1	0,338710
0,739167	0,1	0,356555
0,740833	0,1	0,394507
0,742500	0,1	0,370587
0,744167	0,1	0,393292
0,745833	0,1	0,351769
0,747500	0,1	0,358419
0,749167	0,1	0,422782
0,750833	0,1	0,406810
0,752500	0,1	0,400501
0,754167	0,1	0,392396
0,755833	0,1	0,394676
0,757500	0,1	0,421053
0,759167	0,1	0,406682
0,760833	0,1	0,393844
0,762500	0,1	0,397314
0,764167	0,1	0,431155
0,765833	0,1	0,380273
0,767500	0,1	0,406573
0,769167	0,1	0,408832
0,770833	0,1	0,398476
0,772500	0,1	0,439518
0,774167	0,1	0,352906
0,775833	0,1	0,413003
0,777500	0,1	0,426783
0,779167	0,1	0,407003
0,780833	0,1	0,384451
0,782500	0,1	0,379555
0,784167	0,1	0,433564
0,785833	0,1	0,394330
0,787500	0,1	0,444312
0,789167	0,1	0,435189
0,790833	0,1	0,383011
0,792500	0,1	0,428418
0,794167	0,1	0,374935
0,795833	0,1	0,445818
0,797500	0,1	0,470446
0,799167	0,1	0,418241
0,800833	0,1	0,407613
0,802500	0,1	0,366667
0,804167	0,1	0,371704
0,805833	0,1	0,422110
0,807500	0,1	0,378568
0,809167	0,1	0,425165
0,810833	0,1	0,417587
0,812500	0,1	0,432318
0,814167	0,1	0,431067
0,815833	0,1	0,428109
0,817500	0,1	0,412890
0,819167	0,1	0,397446
0,820833	0,1	0,405002
0,822500	0,1	0,408381
0,824167	0,1	0,400985
0,825833	0,1	0,391138
0,827500	0,1	0,485648
0,829167	0,1	0,412391
0,830833	0,1	0,410347
0,832500	0,1	0,417744
0,834167	0,1	0,405074
0,835833	0,1	0,424464
0,837500	0,1	0,428716
0,839167	0,1	0,437051
0,840833	0,1	0,458606
0,842500	0,1	0,416984
0,844167	0,1	0,413760
0,845833	0,1	0,413949
0,847500	0,1	0,448786
0,849167	0,1	0,389284
0,850833	0,1	0,421759
0,852500	0,1	0,455835
0,854167	0,1	0,420133
0,855833	0,1	0,459887
0,857500	0,1	0,446225
0,859167	0,1	0,418041
0,860833	0,1	0,418741
0,862500	0,1	0,452712
0,864167	0,1	0,491389
0,865833	0,1	0,447970
0,867500	0,1	0,447670
0,869167	0,1	0,434416
0,870833	0,1	0,471472
0,872500	0,1	0,441629
0,874167	0,1	0,429299
0,875833	0,1	0,425500
0,877500	0,1	0,453036
0,879167	0,1	0,455199
0,880833	0,1	0,478555
0,882500	0,1	0,435678
0,884167	0,1	0,457318
0,885833	0,1	0,469321
0,887500	0,1	0,473089
0,889167	0,1	0,435033
0,890833	0,1	0,450755
0,892500	0,1	0,499015
0,894167	0,1	0,451059
0,895833	0,1	0,426985
0,897500	0,1	0,487106
0,899167	0,1	0,490465
0,900833	0,1	0,490047
0,902500	0,1	0,458842
0,904167	0,1	0,462887
0,905833	0,1	0,498181
0,907500	0,1	0,451735
0,909167	0,1	0,458961
0,910833	0,1	0,487273
0,912500	0,1	0,464407
0,914167	0,1	0,489912
0,915833	0,1	0,506810
0,917500	0,1	0,518395
0,919167	0,1	0,507426
0,920833	0,1	0,498320
0,922500	0,1	0,494715
0,924167	0,1	0,482777
0,925833	0,1	0,500597
0,927500	0,1	0,526405
0,929167	0,1	0,496910
0,930833	0,1	0,484193
0,932500	0,1	0,581516
0,934167	0,1	0,502680
0,935833	0,1	0,491852
0,937500	0,1	0,539499
0,939167	0,1	0,511326
0,940833	0,1	0,529016
0,942500	0,1	0,535227
0,944167	0,1	0,514961
0,945833	0,1	0,496907
0,947500	0,1	0,606618
0,949167	0,1	0,536406
0,950833	0,1	0,542536
0,952500	0,1	0,535779
0,954167	0,1	0,518112
0,955833	0,1	0,588603
0,957500	0,1	0,565551
0,959167	0,1	0,561231
0,960833	0,1	0,505122
0,962500	0,1	0,581943
0,964167	0,1	0,535274
0,965833	0,1	0,592433
0,967500	0,1	0,586371
0,969167	0,1	0,580003
0,970833	0,1	0,611183
0,972500	0,1	0,613985
0,974167	0,1	0,553494
0,975833	0,1	0,585204
0,977500	0,1	0,612596
0,979167	0,1	0,603109
0,980833	0,1	0,594584
0,982500	0,1	0,618876
0,984167	0,1	0,615404
0,985833	0,1	0,621614
0,987500	0,1	0,638257
0,989167	0,1	0,627925
0,990833	0,1	0,651963
0,992500	0,1	0,628702
0,994167	0,1	0,666159
0,995833	0,1	0,618120
0,997500	0,1	0,673107
0,999167	0,1	0,675538
1,000833	0,1	0,685734
1,002500	0,1	0,670195
1,004167	0,1	0,678625
1,005833	0,1	0,670555
1,007500	0,1	0,708329
1,009167	0,1	0,694185
1,010833	0,1	0,711657
1,012500	0,1	0,721028
1,014167	0,1	0,755480
1,015833	0,1	0,715721
1,017500	0,1	0,811392
1,019167	0,1	0,782690
1,020833	0,1	0,768346
1,022500	0,1	0,796422
1,024167	0,1	0,840494
1,025833	0,1	0,799424
1,027500	0,1	0,820939
1,029167	0,1	0,822652
1,030833	0,1	0,867177
1,032500	0,1	0,827368
1,034167	0,1	0,890337
1,035833	0,1	0,844275
1,037500	0,1	0,876463
1,039167	0,1	0,900498
1,040833	0,1	0,884205
1,042500	0,1	0,911648
1,044167	0,1	0,906833
1,045833	0,1	0,945547
1,047500	0,1	0,934897
1,049167	0,1	0,963277
1,050833	0,1	0,966127
1,052500	0,1	1,004356
1,054167	0,1	1,049794
1,055833	0,1	1,029256
1,057500	0,1	1,066063
1,059167	0,1	1,144592
1,060833	0,1	1,198436
1,062500	0,1	1,320428
1,064167	0,1	1,451356
1,065833	0,1	1,591896
1,067500	0,1	1,800207
1,069167	0,1	2,088905
1,070833	0,1	2,400282
1,072500	0,1	2,776935
1,074167	0,1	3,293078
1,075833	0,1	3,878285
1,077500	0,1	4,607067
1,079167	0,1	5,397190
1,080833	0,1	6,349359
1,082500	0,1	7,394589
1,084167	0,1	8,591894
1,085833	0,1	9,876050
1,087500	0,1	11,297473
1,089167	0,1	12,822232
1,090833	0,1	14,356896
1,092500	0,1	15,999268
1,094167	0,1	17,640327
1,095833	0,1	19,358017
1,097500	0,1	20,989005
1,099167	0,1	22,596919
1,100833	0,1	24,180565
1,102500	0,1	25,576096
1,104167	0,1	26,917613
1,105833	0,1	28,128835
1,107500	0,1	29,191177
1,109167	0,1	30,101212
1,110833	0,1	30,844716
1,112500	0,1	31,451510
1,114167	0,1	31,894317
1,115833	0,1	32,223188
1,117500	0,1	32,408065
1,119167	0,1	32,437080
1,120833	0,1	32,412091
1,122500	0,1	32,339015
1,124167	0,1	32,066699
1,125833	0,1	31,824062
1,127500	0,1	31,523822
1,129167	0,1	31,163705
1,130833	0,1	30,792407
1,132500	0,1	30,371612
1,134167	0,1	30,017135
1,135833	0,1	29,668095
1,137500	0,1	29,330618
1,139167	0,1	29,013862
1,140833	0,1	28,749510
1,142500	0,1	28,520717
1,144167	0,1	28,353451
1,145833	0,1	28,221864
1,147500	0,1	28,205492
1,149167	0,1	28,205591
1,150833	0,1	28,348270
1,152500	0,1	28,517627
1,154167	0,1	28,700885
1,155833	0,1	29,012126
1,157500	0,1	29,370345
1,159167	0,1	29,790169
1,160833	0,1	30,263347
1,162500	0,1	30,741828
1,164167	0,1	31,282920
1,165833	0,1	31,781853
1,167500	0,1	32,323091
1,169167	0,1	32,885142
1,170833	0,1	33,423471
1,172500	0,1	33,989143
1,174167	0,1	34,471734
1,175833	0,1	34,946431
1,177500	0,1	35,379249
1,179167	0,1	35,824231
1,180833	0,1	36,181881
1,182500	0,1	36,550242
1,184167	0,1	36,840330
1,185833	0,1	37,125467
1,187500	0,1	37,321834
1,189167	0,1	37,565683
1,190833	0,1	37,769695
1,192500	0,1	37,977824
1,194167	0,1	38,234899
1,195833	0,1	38,479687
1,197500	0,1	38,820789
1,199167	0,1	39,216707
1,200833	0,1	39,760539
1,202500	0,1	40,429507
1,204167	0,1	41,161684
1,205833	0,1	42,147051
1,207500	0,1	43,262626
1,209167	0,1	44,611626
1,210833	0,1	46,199283
1,212500	0,1	48,011950
1,214167	0,1	50,031557
1,215833	0,1	52,252062
1,217500	0,1	54,727285
1,219167	0,1	57,433066
1,220833	0,1	60,295276
1,222500	0,1	63,324877
1,224167	0,1	66,525232
1,225833	0,1	69,782472
1,227500	0,1	73,154954
1,229167	0,1	76,553361
1,230833	0,1	79,934891
1,232500	0,1	83,251047
1,234167	0,1	86,563760
1,235833	0,1	89,702988
1,237500	0,1	92,670329
1,239167	0,1	95,568079
1,240833	0,1	98,183174
1,242500	0,1	100,658104
1,244167	0,1	102,955298
1,245833	0,1	104,916608
1,247500	0,1	106,642010
1,249167	0,1	108,207022
1,250833	0,1	109,460196
1,252500	0,1	110,434048
1,254167	0,1	111,159262
1,255833	0,1	111,631859
1,257500	0,1	111,884052
1,259167	0,1	111,850886
1,260833	0,1	111,643021
1,262500	0,1	111,138276
1,264167	0,1	110,464601
1,265833	0,1	109,561718
1,267500	0,1	108,457273
1,269167	0,1	107,173326
1,270833	0,1	105,674759
1,272500	0,1	104,088145
1,274167	0,1	102,307415
1,275833	0,1	100,358612
1,277500	0,1	98,368246
1,279167	0,1	96,222692
1,280833	0,1	94,029384
1,282500	0,1	91,731408
1,284167	0,1	89,372846
1,285833	0,1	87,039106
1,287500	0,1	84,651209
1,289167	0,1	82,303426
1,290833	0,1	79,879393
1,292500	0,1	77,455942
1,294167	0,1	75,128228
1,295833	0,1	72,817683
1,297500	0,1	70,498210
1,299167	0,1	68,299246
1,300833	0,1	66,116677
1,302500	0,1	64,016567
1,304167	0,1	61,894697
1,305833	0,1	59,971791
1,307500	0,1	58,024332
1,309167	0,1	56,126322
1,310833	0,1	54,429247
1,312500	0,1	52,731402
1,314167	0,1	51,072846
1,315833	0,1	49,545173
1,317500	0,1	48,063361
1,319167	0,1	46,564577
1,320833	0,1	45,202662
1,322500	0,1	43,927949
1,324167	0,1	42,710527
1,325833	0,1	41,466050
1,327500	0,1	40,380085
1,329167	0,1	39,259793
1,330833	0,1	38,204524
1,332500	0,1	37,193704
1,334167	0,1	36,186585
1,335833	0,1	35,305919
1,337500	0,1	34,427996
1,339167	0,1	33,547000
1,340833	0,1	32,672094
1,342500	0,1	31,907993
1,344167	0,1	31,117051
1,345833	0,1	30,325232
1,347500	0,1	29,655957
1,349167	0,1	28,947491
1,350833	0,1	28,265169
1,352500	0,1	27,582379
1,354167	0,1	26,948431
1,355833	0,1	26,325230
1,357500	0,1	25,731058
1,359167	0,1	25,106200
1,360833	0,1	24,574928
1,362500	0,1	24,010678
1,364167	0,1	23,445943
1,365833	0,1	22,904048
1,367500	0,1	22,408016
1,369167	0,1	21,863081
1,370833	0,1	21,401145
1,372500	0,1	20,934493
1,374167	0,1	20,419050
1,375833	0,1	19,979892
1,377500	0,1	19,519140
1,379167	0,1	19,082547
1,380833	0,1	18,650602
1,382500	0,1	18,252971
1,384167	0,1	17,857861
1,385833	0,1	17,464724
1,387500	0,1	17,102998
1,389167	0,1	16,696259
1,390833	0,1	16,350561
1,392500	0,1	16,034277
1,394167	0,1	15,695694
1,395833	0,1	15,355755
1,397500	0,1	15,069099
1,399167	0,1	14,730037
1,400833	0,1	14,470755
1,402500	0,1	14,179608
1,404167	0,1	13,899741
1,405833	0,1	13,639035
1,407500	0,1	13,370948
1,409167	0,1	13,126984
1,410833	0,1	12,899494
1,412500	0,1	12,660043
1,414167	0,1	12,456258
1,415833	0,1	12,222803
1,417500	0,1	12,044296
1,419167	0,1	11,852515
1,420833	0,1	11,637159
1,422500	0,1	11,526532
1,424167	0,1	11,317840
1,425833	0,1	11,112903
1,427500	0,1	10,969236
1,429167	0,1	10,813509
1,430833	0,1	10,622870
1,432500	0,1	10,489968
1,434167	0,1	10,373467
1,435833	0,1	10,235939
1,437500	0,1	10,086616
1,439167	0,1	9,920276
1,440833	0,1	9,776060
1,442500	0,1	9,655961
1,444167	0,1	9,550288
1,445833	0,1	9,382615
1,447500	0,1	9,273535
1,449167	0,1	9,129950
1,450833	0,1	9,021557
1,452500	0,1	8,897703
1,454167	0,1	8,766139
1,455833	0,1	8,656420
1,457500	0,1	8,557201
1,459167	0,1	8,464661
1,460833	0,1	8,350701
1,462500	0,1	8,241113
1,464167	0,1	8,171108
1,465833	0,1	8,043688
1,467500	0,1	7,932740
1,469167	0,1	7,912657
1,470833	0,1	7,779431
1,472500	0,1	7,700985
1,474167	0,1	7,588852
1,475833	0,1	7,511550
1,477500	0,1	7,460705
1,479167	0,1	7,413619
1,480833	0,1	7,303509
1,482500	0,1	7,226751
1,484167	0,1	7,185460
1,485833	0,1	7,150638
1,487500	0,1	7,105456
1,489167	0,1	7,024626
1,490833	0,1	6,994190
1,492500	0,1	6,960032
1,494167	0,1	6,871397
1,495833	0,1	6,882295
1,497500	0,1	6,839297
1,499167	0,1	6,774932
1,500833	0,1	6,747684
1,502500	0,1	6,725767
1,504167	0,1	6,716063
1,505833	0,1	6,689855
1,507500	0,1	6,638299
1,509167	0,1	6,597835
1,510833	0,1	6,576652
1,512500	0,1	6,570495
1,514167	0,1	6,556425
1,515833	0,1	6,494806
1,517500	0,1	6,476790
1,519167	0,1	6,457685
1,520833	0,1	6,477736
1,522500	0,1	6,442894
1,524167	0,1	6,408474
1,525833	0,1	6,419662
1,527500	0,1	6,365892
1,529167	0,1	6,367365
1,530833	0,1	6,333270
1,532500	0,1	6,327944
1,534167	0,1	6,310546
1,535833	0,1	6,258827
1,537500	0,1	6,249957
1,539167	0,1	6,282869
1,540833	0,1	6,186663
1,542500	0,1	6,174962
1,544167	0,1	6,209635
1,545833	0,1	6,153645
1,547500	0,1	6,149464
1,549167	0,1	6,115991
1,550833	0,1	6,118257
1,552500	0,1	6,092160
1,554167	0,1	6,040855
1,555833	0,1	6,041125
1,557500	0,1	6,015442
1,559167	0,1	5,954894
1,560833	0,1	5,995115
1,562500	0,1	5,920267
1,564167	0,1	5,888027
1,565833	0,1	5,895498
1,567500	0,1	5,873278
1,569167	0,1	5,852707
1,570833	0,1	5,833796
1,572500	0,1	5,770610
1,574167	0,1	5,791365
1,575833	0,1	5,725781
1,577500	0,1	5,728214
1,579167	0,1	5,692773
1,580833	0,1	5,712050
1,582500	0,1	5,640755
1,584167	0,1	5,663587
1,585833	0,1	5,605430
1,587500	0,1	5,610840
1,589167	0,1	5,574100
1,590833	0,1	5,548702
1,592500	0,1	5,486014
1,594167	0,1	5,471483
1,595833	0,1	5,482935
1,597500	0,1	5,447684
1,599167	0,1	5,395024
1,600833	0,1	5,447553
1,602500	0,1	5,376914
1,604167	0,1	5,390585
1,605833	0,1	5,364364
1,607500	0,1	5,386921
1,609167	0,1	5,368354
1,610833	0,1	5,364704
1,612500	0,1	5,304951
1,614167	0,1	5,299989
1,615833	0,1	5,338660
1,617500	0,1	5,324119
1,619167	0,1	5,314663
1,620833	0,1	5,298740
1,622500	0,1	5,308950
1,624167	0,1	5,315433
1,625833	0,1	5,386431
1,627500	0,1	5,400434
1,629167	0,1	5,387573
1,630833	0,1	5,446294
1,632500	0,1	5,494711
1,634167	0,1	5,589805
1,635833	0,1	5,655391
1,637500	0,1	5,770707
1,639167	0,1	5,870359
1,640833	0,1	5,995289
1,642500	0,1	6,126677
1,644167	0,1	6,300335
1,645833	0,1	6,539297
1,647500	0,1	6,734297
1,649167	0,1	6,994118
1,650833	0,1	7,281846
1,652500	0,1	7,573238
1,654167	0,1	7,961467
1,655833	0,1	8,335788
1,657500	0,1	8,749276
1,659167	0,1	9,346508
1,660833	0,1	9,856569
1,662500	0,1	10,432996
1,664167	0,1	11,107402
1,665833	0,1	11,820513
1,667500	0,1	12,609291
1,669167	0,1	13,500974
1,670833	0,1	14,413305
1,672500	0,1	15,460280
1,674167	0,1	16,534792
1,675833	0,1	17,734317
1,677500	0,1	18,992214
1,679167	0,1	20,382880
1,680833	0,1	21,826156
1,682500	0,1	23,329260
1,684167	0,1	25,044212
1,685833	0,1	26,799565
1,687500	0,1	28,604793
1,689167	0,1	30,545962
1,690833	0,1	32,589928
1,692500	0,1	34,714241
1,694167	0,1	37,037924
1,695833	0,1	39,373113
1,697500	0,1	41,895371
1,699167	0,1	44,403913
1,700833	0,1	47,054119
1,702500	0,1	49,785818
1,704167	0,1	52,600307
1,705833	0,1	55,494507
1,707500	0,1	58,519552
1,709167	0,1	61,576441
1,710833	0,1	64,722852
1,712500	0,1	67,895761
1,714167	0,1	71,182025
1,715833	0,1	74,516317
1,717500	0,1	77,865381
1,719167	0,1	81,237354
1,720833	0,1	84,654045
1,722500	0,1	88,100078
1,724167	0,1	91,573663
1,725833	0,1	94,951674
1,727500	0,1	98,475908
1,729167	0,1	101,906872
1,730833	0,1	105,324479
1,732500	0,1	108,750505
1,734167	0,1	112,101324
1,735833	0,1	115,402731
1,737500	0,1	118,743022
1,739167	0,1	121,906902
1,740833	0,1	125,050148
1,742500	0,1	128,090382
1,744167	0,1	131,118531
1,745833	0,1	133,952530
1,747500	0,1	136,796859
1,749167	0,1	139,552434
1,750833	0,1	142,104588
1,752500	0,1	144,534438
1,754167	0,1	146,923010
1,755833	0,1	149,114317
1,757500	0,1	151,224578
1,759167	0,1	153,221647
1,760833	0,1	155,058287
1,762500	0,1	156,739155
1,764167	0,1	158,294030
1,765833	0,1	159,676183
1,767500	0,1	160,943728
1,769167	0,1	162,099076
1,770833	0,1	163,026379
1,772500	0,1	163,857168
1,774167	0,1	164,585227
1,775833	0,1	165,092710
1,777500	0,1	165,471864
1,779167	0,1	165,719543
1,780833	0,1	165,822125
1,782500	0,1	165,809878
1,784167	0,1	165,640317
1,785833	0,1	165,344973
1,787500	0,1	164,902204
1,789167	0,1	164,313330
1,790833	0,1	163,602586
1,792500	0,1	162,803187
1,794167	0,1	161,891403
1,795833	0,1	160,855777
1,797500	0,1	159,663861
1,799167	0,1	158,443666
1,800833	0,1	157,082095
1,802500	0,1	155,623575
1,804167	0,1	154,092506
1,805833	0,1	152,418187
1,807500	0,1	150,736555
1,809167	0,1	148,976145
1,810833	0,1	147,113678
1,812500	0,1	145,169480
1,814167	0,1	143,187457
1,815833	0,1	141,159715
1,817500	0,1	139,058158
1,819167	0,1	136,939790
1,820833	0,1	134,759894
1,822500	0,1	132,531053
1,824167	0,1	130,299919
1,825833	0,1	128,000296
1,827500	0,1	125,772227
1,829167	0,1	123,489568
1,830833	0,1	121,222561
1,832500	0,1	118,843188
1,834167	0,1	116,528892
1,835833	0,1	114,225663
1,837500	0,1	111,888444
1,839167	0,1	109,614046
1,840833	0,1	107,267599
1,842500	0,1	104,994833
1,844167	0,1	102,728451
1,845833	0,1	100,455441
1,847500	0,1	98,240333
1,849167	0,1	96,068404
1,850833	0,1	93,840998
1,852500	0,1	91,699609
1,854167	0,1	89,602302
1,855833	0,1	87,512245
1,857500	0,1	85,440404
1,859167	0,1	83,466169
1,860833	0,1	81,432281
1,862500	0,1	79,460058
1,864167	0,1	77,569002
1,865833	0,1	75,664216
1,867500	0,1	73,805910
1,869167	0,1	72,012167
1,870833	0,1	70,175910
1,872500	0,1	68,439399
1,874167	0,1	66,730631
1,875833	0,1	65,081757
1,877500	0,1	63,429135
1,879167	0,1	61,812295
1,880833	0,1	60,249776
1,882500	0,1	58,692133
1,884167	0,1	57,192800
1,885833	0,1	55,702952
1,887500	0,1	54,277778
1,889167	0,1	52,914902
1,890833	0,1	51,571936
1,892500	0,1	50,289943
1,894167	0,1	48,982130
1,895833	0,1	47,740433
1,897500	0,1	46,504531
1,899167	0,1	45,363702
1,900833	0,1	44,165648
1,902500	0,1	43,071158
1,904167	0,1	41,968878
1,905833	0,1	40,895812
1,907500	0,1	39,881769
1,909167	0,1	38,873341
1,910833	0,1	37,871708
1,912500	0,1	36,960530
1,914167	0,1	36,019873
1,915833	0,1	35,151898
1,917500	0,1	34,248260
1,919167	0,1	33,406775
1,920833	0,1	32,574287
1,922500	0,1	31,828156
1,924167	0,1	31,024559
1,925833	0,1	30,259755
1,927500	0,1	29,521756
1,929167	0,1	28,795711
1,930833	0,1	28,097475
1,932500	0,1	27,397082
1,934167	0,1	26,786403
1,935833	0,1	26,167773
1,937500	0,1	25,520532
1,939167	0,1	24,921423
1,940833	0,1	24,364459
1,942500	0,1	23,779572
1,944167	0,1	23,244894
1,945833	0,1	22,701572
1,947500	0,1	22,217123
1,949167	0,1	21,693930
1,950833	0,1	21,228417
1,952500	0,1	20,755563
1,954167	0,1	20,297568
1,955833	0,1	19,858362
1,957500	0,1	19,468313
1,959167	0,1	19,032169
1,960833	0,1	18,680636
1,962500	0,1	18,304830
1,964167	0,1	17,911646
1,965833	0,1	17,535751
1,967500	0,1	17,217721
1,969167	0,1	16,898522
1,970833	0,1	16,569052
1,972500	0,1	16,291684
1,974167	0,1	15,998521
1,975833	0,1	15,661437
1,977500	0,1	15,381190
1,979167	0,1	15,151190
1,980833	0,1	14,936903
1,982500	0,1	14,610062
1,984167	0,1	14,404143
1,985833	0,1	14,199453
1,987500	0,1	14,020617
1,989167	0,1	13,766624
1,990833	0,1	13,612184
1,992500	0,1	13,405138
1,994167	0,1	13,205316
1,995833	0,1	13,026864
1,997500	0,1	12,852041
1,999167	0,1	12,748233
2,000833	0,1	12,619287
2,002500	0,1	12,446871
2,004167	0,1	12,292872
2,005833	0,1	12,216656
2,007500	0,1	12,115547
2,009167	0,1	11,994560
2,010833	0,1	11,871311
2,012500	0,1	11,792330
2,014167	0,1	11,699951
2,015833	0,1	11,592076
2,017500	0,1	11,500440
2,019167	0,1	11,451039
2,020833	0,1	11,382268
2,022500	0,1	11,341920
2,024167	0,1	11,237048
2,025833	0,1	11,200636
2,027500	0,1	11,141164
2,029167	0,1	11,100928
2,030833	0,1	11,058075
2,032500	0,1	11,017242
2,034167	0,1	10,980144
2,035833	0,1	10,957331
2,037500	0,1	10,923891
2,039167	0,1	10,875106
2,040833	0,1	10,845501
2,042500	0,1	10,844553
2,044167	0,1	10,812056
2,045833	0,1	10,802988
2,047500	0,1	10,765265
2,049167	0,1	10,833553
2,050833	0,1	10,782181
2,052500	0,1	10,786565
2,054167	0,1	10,730509
2,055833	0,1	10,740323
2,057500	0,1	10,767876
2,059167	0,1	10,762127
2,060833	0,1	10,686526
2,062500	0,1	10,731961
2,064167	0,1	10,729561
2,065833	0,1	10,724783
2,067500	0,1	10,732356
2,069167	0,1	10,683175
2,070833	0,1	10,736295
2,072500	0,1	10,712710
2,074167	0,1	10,720003
2,075833	0,1	10,724232
2,077500	0,1	10,720554
2,079167	0,1	10,694644
2,080833	0,1	10,677456
2,082500	0,1	10,655055
2,084167	0,1	10,632492
2,085833	0,1	10,650105
2,087500	0,1	10,635840
2,089167	0,1	10,613663
2,090833	0,1	10,646807
2,092500	0,1	10,592590
2,094167	0,1	10,606242
2,095833	0,1	10,560805
2,097500	0,1	10,577642
2,099167	0,1	10,554817
2,100833	0,1	10,556730
2,102500	0,1	10,533739
2,104167	0,1	10,516665
2,105833	0,1	10,483410
2,107500	0,1	10,486315
2,109167	0,1	10,466397
2,110833	0,1	10,446641
2,112500	0,1	10,389748
2,114167	0,1	10,392962
2,115833	0,1	10,401371
2,117500	0,1	10,319799
2,119167	0,1	10,321487
2,120833	0,1	10,285340
2,122500	0,1	10,303325
2,124167	0,1	10,237738
2,125833	0,1	10,200266
2,127500	0,1	10,186616
2,129167	0,1	10,134556
2,130833	0,1	10,165978
2,132500	0,1	10,080343
2,134167	0,1	10,043670
2,135833	0,1	10,008574
2,137500	0,1	10,022148
2,139167	0,1	9,948874
2,140833	0,1	9,904525
2,142500	0,1	9,873504
2,144167	0,1	9,842934
2,145833	0,1	9,816884
2,147500	0,1	9,782779
2,149167	0,1	9,758724
2,150833	0,1	9,700477
2,152500	0,1	9,652934
2,154167	0,1	9,629712
2,155833	0,1	9,623501
2,157500	0,1	9,574470
2,159167	0,1	9,495043
2,160833	0,1	9,499175
2,162500	0,1	9,420629
2,164167	0,1	9,418049
2,165833	0,1	9,407988
2,167500	0,1	9,323098
2,169167	0,1	9,295603
2,170833	0,1	9,253402
2,172500	0,1	9,218217
2,174167	0,1	9,218483
2,175833	0,1	9,183726
2,177500	0,1	9,146856
2,179167	0,1	9,053882
2,180833	0,1	9,030450
2,182500	0,1	8,992661
2,184167	0,1	8,940049
2,185833	0,1	8,894372
2,187500	0,1	8,881096
2,189167	0,1	8,803417
2,190833	0,1	8,802788
2,192500	0,1	8,752290
2,194167	0,1	8,692178
2,195833	0,1	8,683109
2,197500	0,1	8,647955
2,199167	0,1	8,609619
2,200833	0,1	8,585607
2,202500	0,1	8,518182
2,204167	0,1	8,551976
2,205833	0,1	8,472524
2,207500	0,1	8,442993
2,209167	0,1	8,389653
2,210833	0,1	8,372880
2,212500	0,1	8,336265
2,214167	0,1	8,305186
2,215833	0,1	8,277863
2,217500	0,1	8,256459
2,219167	0,1	8,242758
2,220833	0,1	8,187538
2,222500	0,1	8,173887
2,224167	0,1	8,167891
2,225833	0,1	8,143247
2,227500	0,1	8,111548
2,229167	0,1	8,065936
2,230833	0,1	8,034741
2,232500	0,1	8,013244
2,234167	0,1	7,980732
2,235833	0,1	7,952694
2,237500	0,1	7,994501
2,239167	0,1	7,931096
2,240833	0,1	7,898160
2,242500	0,1	7,895619
2,244167	0,1	7,860485
2,245833	0,1	7,853110
2,247500	0,1	7,808388
2,249167	0,1	7,790106
2,250833	0,1	7,763540
2,252500	0,1	7,767507
2,254167	0,1	7,731474
2,255833	0,1	7,709308
2,257500	0,1	7,698822
2,259167	0,1	7,655367
2,260833	0,1	7,658917
2,262500	0,1	7,648183
2,264167	0,1	7,611615
2,265833	0,1	7,588149
2,267500	0,1	7,550517
2,269167	0,1	7,567868
2,270833	0,1	7,489871
2,272500	0,1	7,510784
2,274167	0,1	7,517034
2,275833	0,1	7,431843
2,277500	0,1	7,401954
2,279167	0,1	7,423044
2,280833	0,1	7,412793
2,282500	0,1	7,360110
2,284167	0,1	7,306395
2,285833	0,1	7,344847
2,287500	0,1	7,258785
2,289167	0,1	7,272665
2,290833	0,1	7,252335
2,292500	0,1	7,216462
2,294167	0,1	7,130581
2,295833	0,1	7,176094
2,297500	0,1	7,167624
2,299167	0,1	7,142976
2,300833	0,1	7,078109
2,302500	0,1	7,063256
2,304167	0,1	7,057279
2,305833	0,1	7,026949
2,307500	0,1	6,992324
2,309167	0,1	6,999779
2,310833	0,1	6,965913
2,312500	0,1	6,945100
2,314167	0,1	6,896676
2,315833	0,1	6,912431
2,317500	0,1	6,907117
2,319167	0,1	6,874187
2,320833	0,1	6,820728
2,322500	0,1	6,808593
2,324167	0,1	6,822305
2,325833	0,1	6,762705
2,327500	0,1	6,764002
2,329167	0,1	6,723623
2,330833	0,1	6,749909
2,332500	0,1	6,686329
2,334167	0,1	6,704220
2,335833	0,1	6,674565
2,337500	0,1	6,619912
2,339167	0,1	6,605558
2,340833	0,1	6,583541
2,342500	0,1	6,601338
2,344167	0,1	6,570883
2,345833	0,1	6,572817
2,347500	0,1	6,514923
2,349167	0,1	6,533825
2,350833	0,1	6,518379
2,352500	0,1	6,552960
2,354167	0,1	6,533943
2,355833	0,1	6,536469
2,357500	0,1	6,551647
2,359167	0,1	6,523229
2,360833	0,1	6,503363
2,362500	0,1	6,499352
2,364167	0,1	6,544187
2,365833	0,1	6,497217
2,367500	0,1	6,514644
2,369167	0,1	6,554355
2,370833	0,1	6,556036
2,372500	0,1	6,537488
2,374167	0,1	6,538232
2,375833	0,1	6,592023
2,377500	0,1	6,613647
2,379167	0,1	6,651697
2,380833	0,1	6,619627
2,382500	0,1	6,692256
2,384167	0,1	6,763799
2,385833	0,1	6,824716
2,387500	0,1	6,844599
2,389167	0,1	6,901223
2,390833	0,1	6,999197
2,392500	0,1	7,038599
2,394167	0,1	7,111863
2,395833	0,1	7,188518
2,397500	0,1	7,271440
2,399167	0,1	7,377168
2,400833	0,1	7,473111
2,402500	0,1	7,596357
2,404167	0,1	7,736366
2,405833	0,1	7,827811
2,407500	0,1	7,985698
2,409167	0,1	8,152585
2,410833	0,1	8,269232
2,412500	0,1	8,504950
2,414167	0,1	8,620350
2,415833	0,1	8,848917
2,417500	0,1	9,027017
2,419167	0,1	9,242039
2,420833	0,1	9,490118
2,422500	0,1	9,661571
2,424167	0,1	9,906507
2,425833	0,1	10,189885
2,427500	0,1	10,456453
2,429167	0,1	10,688597
2,430833	0,1	10,928876
2,432500	0,1	11,205403
2,434167	0,1	11,511567
2,435833	0,1	11,785640
2,437500	0,1	12,105686
2,439167	0,1	12,386885
2,440833	0,1	12,704138
2,442500	0,1	12,959739
2,444167	0,1	13,268672
2,445833	0,1	13,616537
2,447500	0,1	13,971752
2,449167	0,1	14,303694
2,450833	0,1	14,595172
2,452500	0,1	14,924243
2,454167	0,1	15,267166
2,455833	0,1	15,651929
2,457500	0,1	15,985710
2,459167	0,1	16,386070
2,460833	0,1	16,738835
2,462500	0,1	17,133467
2,464167	0,1	17,570810
2,465833	0,1	18,012377
2,467500	0,1	18,510086
2,469167	0,1	18,965091
2,470833	0,1	19,516508
2,472500	0,1	20,129675
2,474167	0,1	20,739119
2,475833	0,1	21,340911
2,477500	0,1	22,081412
2,479167	0,1	22,877975
2,480833	0,1	23,730940
2,482500	0,1	24,662109
2,484167	0,1	25,666564
2,485833	0,1	26,828808
2,487500	0,1	28,007819
2,489167	0,1	29,301537
2,490833	0,1	30,789317
2,492500	0,1	32,340736
2,494167	0,1	34,029197
2,495833	0,1	35,906483
2,497500	0,1	37,932243
2,499167	0,1	40,140418
2,500833	0,1	42,484835
2,502500	0,1	45,047821
2,504167	0,1	47,813234
2,505833	0,1	50,763413
2,507500	0,1	53,921418
2,509167	0,1	57,273177
2,510833	0,1	60,879616
2,512500	0,1	64,702915
2,514167	0,1	68,750717
2,515833	0,1	73,082523
2,517500	0,1	77,653318
2,519167	0,1	82,427297
2,520833	0,1	87,418155
2,522500	0,1	92,651223
2,524167	0,1	98,197783
2,525833	0,1	103,902613
2,527500	0,1	109,840507
2,529167	0,1	116,001349
2,530833	0,1	122,387742
2,532500	0,1	128,957073
2,534167	0,1	135,765136
2,535833	0,1	142,635454
2,537500	0,1	149,725275
2,539167	0,1	156,969229
2,540833	0,1	164,348093
2,542500	0,1	171,808870
2,544167	0,1	179,333484
2,545833	0,1	186,985655
2,547500	0,1	194,623019
2,549167	0,1	202,404109
2,550833	0,1	210,085757
2,552500	0,1	217,814342
2,554167	0,1	225,488609
2,555833	0,1	233,133608
2,557500	0,1	240,652191
2,559167	0,1	248,150448
2,560833	0,1	255,477727
2,562500	0,1	262,793026
2,564167	0,1	269,935336
2,565833	0,1	276,836827
2,567500	0,1	283,563361
2,569167	0,1	290,251645
2,570833	0,1	296,592327
2,572500	0,1	302,753409
2,574167	0,1	308,663282
2,575833	0,1	314,424702
2,577500	0,1	319,927463
2,579167	0,1	325,067518
2,580833	0,1	330,174854
2,582500	0,1	334,801236
2,584167	0,1	339,279756
2,585833	0,1	343,393276
2,587500	0,1	347,352328
2,589167	0,1	350,998610
2,590833	0,1	354,341671
2,592500	0,1	357,554350
2,594167	0,1	360,369189
2,595833	0,1	362,950139
2,597500	0,1	365,302379
2,599167	0,1	367,340170
2,600833	0,1	369,190064
2,602500	0,1	370,802064
2,604167	0,1	372,110145
2,605833	0,1	373,246136
2,607500	0,1	374,039771
2,609167	0,1	374,710503
2,610833	0,1	375,099568
2,612500	0,1	375,282882
2,614167	0,1	375,283317
2,615833	0,1	375,044283
2,617500	0,1	374,669038
2,619167	0,1	374,020915
2,620833	0,1	373,199184
2,622500	0,1	372,243932
2,624167	0,1	371,001161
2,625833	0,1	369,697995
2,627500	0,1	368,207642
2,629167	0,1	366,570362
2,630833	0,1	364,746815
2,632500	0,1	362,762901
2,634167	0,1	360,582842
2,635833	0,1	358,380948
2,637500	0,1	355,995570
2,639167	0,1	353,382692
2,640833	0,1	350,757526
2,642500	0,1	347,932631
2,644167	0,1	345,096272
2,645833	0,1	342,032003
2,647500	0,1	338,895164
2,649167	0,1	335,645326
2,650833	0,1	332,316649
2,652500	0,1	328,925563
2,654167	0,1	325,352359
2,655833	0,1	321,813098
2,657500	0,1	318,138650
2,659167	0,1	314,375697
2,660833	0,1	310,599788
2,662500	0,1	306,778355
2,664167	0,1	302,798397
2,665833	0,1	298,832583
2,667500	0,1	294,795147
2,669167	0,1	290,703903
2,670833	0,1	286,627243
2,672500	0,1	282,524974
2,674167	0,1	278,307410
2,675833	0,1	274,124344
2,677500	0,1	269,952652
2,679167	0,1	265,801541
2,680833	0,1	261,561114
2,682500	0,1	257,293239
2,684167	0,1	253,066412
2,685833	0,1	248,821301
2,687500	0,1	244,645011
2,689167	0,1	240,473439
2,690833	0,1	236,266265
2,692500	0,1	232,146336
2,694167	0,1	228,013060
2,695833	0,1	223,872757
2,697500	0,1	219,747120
2,699167	0,1	215,771565
2,700833	0,1	211,673545
2,702500	0,1	207,760402
2,704167	0,1	203,841238
2,705833	0,1	199,961964
2,707500	0,1	196,152715
2,709167	0,1	192,368337
2,710833	0,1	188,591540
2,712500	0,1	184,949476
2,714167	0,1	181,351064
2,715833	0,1	177,719236
2,717500	0,1	174,204487
2,719167	0,1	170,741467
2,720833	0,1	167,304075
2,722500	0,1	164,006306
2,724167	0,1	160,754882
2,725833	0,1	157,491578
2,727500	0,1	154,373431
2,729167	0,1	151,234808
2,730833	0,1	148,190102
2,732500	0,1	145,251802
2,734167	0,1	142,321212
2,735833	0,1	139,469799
2,737500	0,1	136,640871
2,739167	0,1	133,911808
2,740833	0,1	131,258258
2,742500	0,1	128,615801
2,744167	0,1	126,008742
2,745833	0,1	123,566024
2,747500	0,1	121,131500
2,749167	0,1	118,687488
2,750833	0,1	116,345387
2,752500	0,1	114,060499
2,754167	0,1	111,803267
2,755833	0,1	109,611012
2,757500	0,1	107,511319
2,759167	0,1	105,414031
2,760833	0,1	103,350102
2,762500	0,1	101,355802
2,764167	0,1	99,377205
2,765833	0,1	97,497431
2,767500	0,1	95,609801
2,769167	0,1	93,788016
2,770833	0,1	92,016579
2,772500	0,1	90,274527
2,774167	0,1	88,548819
2,775833	0,1	86,889868
2,777500	0,1	85,252232
2,779167	0,1	83,671994
2,780833	0,1	82,044742
2,782500	0,1	80,580952
2,784167	0,1	79,028918
2,785833	0,1	77,604521
2,787500	0,1	76,161801
2,789167	0,1	74,754954
2,790833	0,1	73,390039
2,792500	0,1	72,014282
2,794167	0,1	70,653438
2,795833	0,1	69,411161
2,797500	0,1	68,098796
2,799167	0,1	66,877498
2,800833	0,1	65,657807
2,802500	0,1	64,419758
2,804167	0,1	63,302876
2,805833	0,1	62,121596
2,807500	0,1	60,985123
2,809167	0,1	59,911201
2,810833	0,1	58,780525
2,812500	0,1	57,748389
2,814167	0,1	56,672013
2,815833	0,1	55,656994
2,817500	0,1	54,643746
2,819167	0,1	53,647807
2,820833	0,1	52,730489
2,822500	0,1	51,762887
2,824167	0,1	50,806295
2,825833	0,1	49,900865
2,827500	0,1	49,072131
2,829167	0,1	48,178136
2,830833	0,1	47,311089
2,832500	0,1	46,420959
2,834167	0,1	45,638184
2,835833	0,1	44,864287
2,837500	0,1	44,026945
2,839167	0,1	43,314279
2,840833	0,1	42,516049
2,842500	0,1	41,759510
2,844167	0,1	41,046761
2,845833	0,1	40,338142
2,847500	0,1	39,667230
2,849167	0,1	38,973100
2,850833	0,1	38,335515
2,852500	0,1	37,688581
2,854167	0,1	37,014842
2,855833	0,1	36,436033
2,857500	0,1	35,778366
2,859167	0,1	35,238508
2,860833	0,1	34,682422
2,862500	0,1	34,128915
2,864167	0,1	33,537404
2,865833	0,1	33,004605
2,867500	0,1	32,489468
2,869167	0,1	32,014192
2,870833	0,1	31,434617
2,872500	0,1	30,959147
2,874167	0,1	30,556871
2,875833	0,1	30,046749
2,877500	0,1	29,579456
2,879167	0,1	29,157547
2,880833	0,1	28,712130
2,882500	0,1	28,287970
2,884167	0,1	27,908385
2,885833	0,1	27,515587
2,887500	0,1	27,140864
2,889167	0,1	26,711219
2,890833	0,1	26,327971
2,892500	0,1	25,990141
2,894167	0,1	25,659670
2,895833	0,1	25,275926
2,897500	0,1	24,930083
2,899167	0,1	24,669025
2,900833	0,1	24,289708
2,902500	0,1	23,985390
2,904167	0,1	23,656371
2,905833	0,1	23,356496
2,907500	0,1	23,076757
2,909167	0,1	22,823264
2,910833	0,1	22,577050
2,912500	0,1	22,240442
2,914167	0,1	21,992146
2,915833	0,1	21,737118
2,917500	0,1	21,440522
2,919167	0,1	21,211467
2,920833	0,1	20,994792
2,922500	0,1	20,734555
2,924167	0,1	20,493995
2,925833	0,1	20,249272
2,927500	0,1	20,027100
2,929167	0,1	19,830105
2,930833	0,1	19,628436
2,932500	0,1	19,469864
2,934167	0,1	19,199516
2,935833	0,1	19,010844
2,937500	0,1	18,823468
2,939167	0,1	18,615569
2,940833	0,1	18,416051
2,942500	0,1	18,234119
2,944167	0,1	18,055746
2,945833	0,1	17,887619
2,947500	0,1	17,662852
2,949167	0,1	17,520707
2,950833	0,1	17,358058
2,952500	0,1	17,159568
2,954167	0,1	16,980366
2,955833	0,1	16,826606
2,957500	0,1	16,674132
2,959167	0,1	16,532926
2,960833	0,1	16,342126
2,962500	0,1	16,196478
2,964167	0,1	16,001038
2,965833	0,1	15,896574
2,967500	0,1	15,742443
2,969167	0,1	15,595278
2,970833	0,1	15,436727
2,972500	0,1	15,255166
2,974167	0,1	15,166188
2,975833	0,1	15,025120
2,977500	0,1	14,846378
2,979167	0,1	14,746049
2,980833	0,1	14,616791
2,982500	0,1	14,493166
2,984167	0,1	14,343094
2,985833	0,1	14,168381
2,987500	0,1	14,089091
2,989167	0,1	13,960402
2,990833	0,1	13,826238
2,992500	0,1	13,722007
2,994167	0,1	13,557750
2,995833	0,1	13,448507
2,997500	0,1	13,322912
2,999167	0,1	13,219117
3,000833	0,1	13,112522
3,002500	0,1	12,974224
3,004167	0,1	12,872765
3,005833	0,1	12,756475
3,007500	0,1	12,621393
3,009167	0,1	12,497392
3,010833	0,1	12,442296
3,012500	0,1	12,332542
3,014167	0,1	12,173660
3,015833	0,1	12,077362
3,017500	0,1	11,992876
3,019167	0,1	11,876437
3,020833	0,1	11,768643
3,022500	0,1	11,678891
3,024167	0,1	11,552103
3,025833	0,1	11,479996
3,027500	0,1	11,364535
3,029167	0,1	11,247381
3,030833	0,1	11,103780
3,032500	0,1	11,094937
3,034167	0,1	10,970934
3,035833	0,1	10,904114
3,037500	0,1	10,792241
3,039167	0,1	10,688349
3,040833	0,1	10,594300
3,042500	0,1	10,489024
3,044167	0,1	10,392110
3,045833	0,1	10,341619
3,047500	0,1	10,225019
3,049167	0,1	10,166599
3,050833	0,1	10,068288
3,052500	0,1	9,990011
3,054167	0,1	9,870850
3,055833	0,1	9,813391
3,057500	0,1	9,716856
3,059167	0,1	9,643461
3,060833	0,1	9,573228
3,062500	0,1	9,471777
3,064167	0,1	9,429257
3,065833	0,1	9,314430
3,067500	0,1	9,244353
3,069167	0,1	9,150460
3,070833	0,1	9,060312
3,072500	0,1	8,984302
3,074167	0,1	8,909255
3,075833	0,1	8,873126
3,077500	0,1	8,819914
3,079167	0,1	8,749779
3,080833	0,1	8,642827
3,082500	0,1	8,604626
3,084167	0,1	8,499053
3,085833	0,1	8,482797
3,087500	0,1	8,411130
3,089167	0,1	8,316241
3,090833	0,1	8,252477
3,092500	0,1	8,186149
3,094167	0,1	8,179645
3,095833	0,1	8,097723
3,097500	0,1	8,061577
3,099167	0,1	7,961044
3,100833	0,1	7,903598
3,102500	0,1	7,859485
3,104167	0,1	7,811870
3,105833	0,1	7,778389
3,107500	0,1	7,723058
3,109167	0,1	7,653978
3,110833	0,1	7,601613
3,112500	0,1	7,581249
3,114167	0,1	7,569175
3,115833	0,1	7,483237
3,117500	0,1	7,471724
3,119167	0,1	7,397850
3,120833	0,1	7,372622
3,122500	0,1	7,311722
3,124167	0,1	7,260441
3,125833	0,1	7,213388
3,127500	0,1	7,219061
3,129167	0,1	7,190497
3,130833	0,1	7,144288
3,132500	0,1	7,124025
3,134167	0,1	7,088557
3,135833	0,1	7,041514
3,137500	0,1	7,073512
3,139167	0,1	6,976939
3,140833	0,1	6,983168
3,142500	0,1	6,935959
3,144167	0,1	6,922887
3,145833	0,1	6,927270
3,147500	0,1	6,876150
3,149167	0,1	6,782306
3,150833	0,1	6,792730
3,152500	0,1	6,800473
3,154167	0,1	6,767654
3,155833	0,1	6,723069
3,157500	0,1	6,681461
3,159167	0,1	6,640255
3,160833	0,1	6,605930
3,162500	0,1	6,642476
3,164167	0,1	6,628404
3,165833	0,1	6,582337
3,167500	0,1	6,583444
3,169167	0,1	6,547286
3,170833	0,1	6,508040
3,172500	0,1	6,498701
3,174167	0,1	6,499091
3,175833	0,1	6,415381
3,177500	0,1	6,408286
3,179167	0,1	6,378470
3,180833	0,1	6,319397
3,182500	0,1	6,283978
3,184167	0,1	6,315470
3,185833	0,1	6,298342
3,187500	0,1	6,247548
3,189167	0,1	6,209013
3,190833	0,1	6,185319
3,192500	0,1	6,177018
3,194167	0,1	6,172655
3,195833	0,1	6,100747
3,197500	0,1	6,080092
3,199167	0,1	6,037594
3,200833	0,1	6,032207
3,202500	0,1	6,011680
3,204167	0,1	5,965628
3,205833	0,1	5,945152
3,207500	0,1	5,934265
3,209167	0,1	5,872371
3,210833	0,1	5,821159
3,212500	0,1	5,760730
3,214167	0,1	5,811538
3,215833	0,1	5,709504
3,217500	0,1	5,733494
3,219167	0,1	5,707306
3,220833	0,1	5,681941
3,222500	0,1	5,633402
3,224167	0,1	5,609719
3,225833	0,1	5,559974
3,227500	0,1	5,531971
3,229167	0,1	5,500871
3,230833	0,1	5,475782
3,232500	0,1	5,431133
3,234167	0,1	5,418494
3,235833	0,1	5,344433
3,237500	0,1	5,385529
3,239167	0,1	5,291514
3,240833	0,1	5,258940
3,242500	0,1	5,237636
3,244167	0,1	5,194244
3,245833	0,1	5,200937
3,247500	0,1	5,102646
3,249167	0,1	5,109465
3,250833	0,1	5,073616
3,252500	0,1	5,038691
3,254167	0,1	5,031984
3,255833	0,1	4,980960
3,257500	0,1	4,995562
3,259167	0,1	4,924282
3,260833	0,1	4,871897
3,262500	0,1	4,864286
3,264167	0,1	4,816841
3,265833	0,1	4,763659
3,267500	0,1	4,757868
3,269167	0,1	4,720979
3,270833	0,1	4,687186
3,272500	0,1	4,693909
3,274167	0,1	4,594852
3,275833	0,1	4,574254
3,277500	0,1	4,546145
3,279167	0,1	4,544000
3,280833	0,1	4,476624
3,282500	0,1	4,519266
3,284167	0,1	4,411229
3,285833	0,1	4,413272
3,287500	0,1	4,373716
3,289167	0,1	4,355891
3,290833	0,1	4,303994
3,292500	0,1	4,278791
3,294167	0,1	4,268968
3,295833	0,1	4,216758
3,297500	0,1	4,197483
3,299167	0,1	4,183687
3,300833	0,1	4,202098
3,302500	0,1	4,105700
3,304167	0,1	4,116546
3,305833	0,1	4,103492
3,307500	0,1	4,055518
3,309167	0,1	4,015249
3,310833	0,1	4,023191
3,312500	0,1	4,001371
3,314167	0,1	3,988570
3,315833	0,1	3,936627
3,317500	0,1	3,887610
3,319167	0,1	3,831391
3,320833	0,1	3,874002
3,322500	0,1	3,850871
3,324167	0,1	3,816104
3,325833	0,1	3,827483
3,327500	0,1	3,801186
3,329167	0,1	3,804421
3,330833	0,1	3,783882
3,332500	0,1	3,759604
3,334167	0,1	3,695149
3,335833	0,1	3,678448
3,337500	0,1	3,736273
3,339167	0,1	3,672173
3,340833	0,1	3,669584
3,342500	0,1	3,640073
3,344167	0,1	3,652489
3,345833	0,1	3,606191
3,347500	0,1	3,612064
3,349167	0,1	3,643879
3,350833	0,1	3,579804
3,352500	0,1	3,604281
3,354167	0,1	3,551175
3,355833	0,1	3,534393
3,357500	0,1	3,535090
3,359167	0,1	3,498183
3,360833	0,1	3,532437
3,362500	0,1	3,532497
3,364167	0,1	3,554008
3,365833	0,1	3,532605
3,367500	0,1	3,499687
3,369167	0,1	3,522278
3,370833	0,1	3,456846
3,372500	0,1	3,448486
3,374167	0,1	3,442030
3,375833	0,1	3,447602
3,377500	0,1	3,427080
3,379167	0,1	3,494167
3,380833	0,1	3,426470
3,382500	0,1	3,442234
3,384167	0,1	3,413553
3,385833	0,1	3,388125
3,387500	0,1	3,461478
3,389167	0,1	3,426591
3,390833	0,1	3,417978
3,392500	0,1	3,388001
3,394167	0,1	3,391255
3,395833	0,1	3,391517
3,397500	0,1	3,381749
3,399167	0,1	3,428309
3,400833	0,1	3,418809
3,402500	0,1	3,369788
3,404167	0,1	3,374203
3,405833	0,1	3,395241
3,407500	0,1	3,362936
3,409167	0,1	3,408561
3,410833	0,1	3,411994
3,412500	0,1	3,367380
3,414167	0,1	3,377132
3,415833	0,1	3,328656
3,417500	0,1	3,415913
3,419167	0,1	3,375591
3,420833	0,1	3,358789
3,422500	0,1	3,331683
3,424167	0,1	3,310458
3,425833	0,1	3,340462
3,427500	0,1	3,320854
3,429167	0,1	3,323416
3,430833	0,1	3,318028
3,432500	0,1	3,319683
3,434167	0,1	3,331628
3,435833	0,1	3,329842
3,437500	0,1	3,316241
3,439167	0,1	3,312450
3,440833	0,1	3,311462
3,442500	0,1	3,298103
3,444167	0,1	3,339602
3,445833	0,1	3,337514
3,447500	0,1	3,288703
3,449167	0,1	3,350147
3,450833	0,1	3,324333
3,452500	0,1	3,288239
3,454167	0,1	3,336746
3,455833	0,1	3,337569
3,457500	0,1	3,312564
3,459167	0,1	3,275668
3,460833	0,1	3,322834
3,462500	0,1	3,336678
3,464167	0,1	3,336998
3,465833	0,1	3,319919
3,467500	0,1	3,294164
3,469167	0,1	3,326703
3,470833	0,1	3,347174
3,472500	0,1	3,303710
3,474167	0,1	3,264317
3,475833	0,1	3,332987
3,477500	0,1	3,343203
3,479167	0,1	3,356499
3,480833	0,1	3,299430
3,482500	0,1	3,361207
3,484167	0,1	3,387339
3,485833	0,1	3,380868
3,487500	0,1	3,370165
3,489167	0,1	3,382855
3,490833	0,1	3,380267
3,492500	0,1	3,385971
3,494167	0,1	3,393252
3,495833	0,1	3,412555
3,497500	0,1	3,389402
3,499167	0,1	3,399885
3,500833	0,1	3,408854
3,502500	0,1	3,409320
3,504167	0,1	3,390119
3,505833	0,1	3,398197
3,507500	0,1	3,389833
3,509167	0,1	3,450674
3,510833	0,1	3,452787
3,512500	0,1	3,438327
3,514167	0,1	3,414094
3,515833	0,1	3,498205
3,517500	0,1	3,463758
3,519167	0,1	3,494123
3,520833	0,1	3,462255
3,522500	0,1	3,469270
3,524167	0,1	3,496613
3,525833	0,1	3,472311
3,527500	0,1	3,465827
3,529167	0,1	3,534295
3,530833	0,1	3,495046
3,532500	0,1	3,441808
3,534167	0,1	3,494843
3,535833	0,1	3,502839
3,537500	0,1	3,476872
3,539167	0,1	3,527067
3,540833	0,1	3,500617
3,542500	0,1	3,499860
3,544167	0,1	3,506728
3,545833	0,1	3,484363
3,547500	0,1	3,507683
3,549167	0,1	3,501054
3,550833	0,1	3,466610
3,552500	0,1	3,547049
3,554167	0,1	3,529081
3,555833	0,1	3,480584
3,557500	0,1	3,470881
3,559167	0,1	3,521440
3,560833	0,1	3,526819
3,562500	0,1	3,527132
3,564167	0,1	3,469518
3,565833	0,1	3,476243
3,567500	0,1	3,505426
3,569167	0,1	3,454690
3,570833	0,1	3,473027
3,572500	0,1	3,501305
3,574167	0,1	3,476250
3,575833	0,1	3,466294
3,577500	0,1	3,469115
3,579167	0,1	3,432681
3,580833	0,1	3,506064
3,582500	0,1	3,477600
3,584167	0,1	3,453934
3,585833	0,1	3,474451
3,587500	0,1	3,441804
3,589167	0,1	3,479060
3,590833	0,1	3,413146
3,592500	0,1	3,394761
3,594167	0,1	3,405768
3,595833	0,1	3,401601
3,597500	0,1	3,428182
3,599167	0,1	3,413681
3,600833	0,1	3,426192
3,602500	0,1	3,380175
3,604167	0,1	3,378714
3,605833	0,1	3,402420
3,607500	0,1	3,376445
3,609167	0,1	3,344617
3,610833	0,1	3,398370
3,612500	0,1	3,329056
3,614167	0,1	3,329401
3,615833	0,1	3,365309
3,617500	0,1	3,295064
3,619167	0,1	3,315144
3,620833	0,1	3,303492
3,622500	0,1	3,279682
3,624167	0,1	3,284880
3,625833	0,1	3,258231
3,627500	0,1	3,273119
3,629167	0,1	3,257297
3,630833	0,1	3,306541
3,632500	0,1	3,270102
3,634167	0,1	3,263144
3,635833	0,1	3,235103
3,637500	0,1	3,239441
3,639167	0,1	3,157959
3,640833	0,1	3,233575
3,642500	0,1	3,219655
3,644167	0,1	3,185238
3,645833	0,1	3,186943
3,647500	0,1	3,161868
3,649167	0,1	3,168736
3,650833	0,1	3,172299
3,652500	0,1	3,153886
3,654167	0,1	3,171285
3,655833	0,1	3,120870
3,657500	0,1	3,160384
3,659167	0,1	3,119420
3,660833	0,1	3,072310
3,662500	0,1	3,089986
3,664167	0,1	3,089610
3,665833	0,1	3,085440
3,667500	0,1	3,062820
3,669167	0,1	3,045172
3,670833	0,1	3,064544
3,672500	0,1	3,041876
3,674167	0,1	3,014210
3,675833	0,1	3,033662
3,677500	0,1	3,008593
3,679167	0,1	3,012303
3,680833	0,1	2,978365
3,682500	0,1	3,004739
3,684167	0,1	2,965723
3,685833	0,1	2,992860
3,687500	0,1	2,945796
3,689167	0,1	2,989713
3,690833	0,1	2,928325
3,692500	0,1	2,951950
3,694167	0,1	2,931972
3,695833	0,1	2,956405
3,697500	0,1	2,932620
3,699167	0,1	2,921164
3,700833	0,1	2,903584
3,702500	0,1	2,904063
3,704167	0,1	2,899548
3,705833	0,1	2,887375
3,707500	0,1	2,886107
3,709167	0,1	2,863387
3,710833	0,1	2,849149
3,712500	0,1	2,852218
3,714167	0,1	2,821766
3,715833	0,1	2,811184
3,717500	0,1	2,843350
3,719167	0,1	2,819374
3,720833	0,1	2,801679
3,722500	0,1	2,786883
3,724167	0,1	2,781918
3,725833	0,1	2,788023
3,727500	0,1	2,817644
3,729167	0,1	2,739619
3,730833	0,1	2,793699
3,732500	0,1	2,736854
3,734167	0,1	2,759118
3,735833	0,1	2,753251
3,737500	0,1	2,751743
3,739167	0,1	2,734778
3,740833	0,1	2,738169
3,742500	0,1	2,767639
3,744167	0,1	2,757470
3,745833	0,1	2,710988
3,747500	0,1	2,696876
3,749167	0,1	2,754019
3,750833	0,1	2,680019
3,752500	0,1	2,687528
3,754167	0,1	2,675402
3,755833	0,1	2,725036
3,757500	0,1	2,666136
3,759167	0,1	2,651101
3,760833	0,1	2,664759
3,762500	0,1	2,666406
3,764167	0,1	2,615915
3,765833	0,1	2,689601
3,767500	0,1	2,638552
3,769167	0,1	2,622366
3,770833	0,1	2,616321
3,772500	0,1	2,625232
3,774167	0,1	2,612875
3,775833	0,1	2,627855
3,777500	0,1	2,626455
3,779167	0,1	2,610345
3,780833	0,1	2,613936
3,782500	0,1	2,597281
3,784167	0,1	2,568683
3,785833	0,1	2,602657
3,787500	0,1	2,559994
3,789167	0,1	2,590599
3,790833	0,1	2,578084
3,792500	0,1	2,586495
3,794167	0,1	2,546341
3,795833	0,1	2,499779
3,797500	0,1	2,589635
3,799167	0,1	2,496506
3,800833	0,1	2,556310
3,802500	0,1	2,544253
3,804167	0,1	2,484852
3,805833	0,1	2,516653
3,807500	0,1	2,491456
3,809167	0,1	2,500000
3,810833	0,1	2,517221
3,812500	0,1	2,484052
3,814167	0,1	2,495606
3,815833	0,1	2,473847
3,817500	0,1	2,493672
3,819167	0,1	2,494376
3,820833	0,1	2,450582
3,822500	0,1	2,468816
3,824167	0,1	2,481170
3,825833	0,1	2,464794
3,827500	0,1	2,463929
3,829167	0,1	2,433558
3,830833	0,1	2,446117
3,832500	0,1	2,407195
3,834167	0,1	2,412144
3,835833	0,1	2,402159
3,837500	0,1	2,388877
3,839167	0,1	2,400928
3,840833	0,1	2,367405
3,842500	0,1	2,335734
3,844167	0,1	2,385193
3,845833	0,1	2,365167
3,847500	0,1	2,334732
3,849167	0,1	2,335726
3,850833	0,1	2,327617
3,852500	0,1	2,342116
3,854167	0,1	2,347359
3,855833	0,1	2,334868
3,857500	0,1	2,317707
3,859167	0,1	2,281733
3,860833	0,1	2,312738
3,862500	0,1	2,269814
3,864167	0,1	2,262488
3,865833	0,1	2,234057
3,867500	0,1	2,286167
3,869167	0,1	2,258254
3,870833	0,1	2,272605
3,872500	0,1	2,262990
3,874167	0,1	2,235926
3,875833	0,1	2,217326
3,877500	0,1	2,224713
3,879167	0,1	2,186390
3,880833	0,1	2,222266
3,882500	0,1	2,234837
3,884167	0,1	2,189764
3,885833	0,1	2,221979
3,887500	0,1	2,194856
3,889167	0,1	2,188536
3,890833	0,1	2,202815
3,892500	0,1	2,187172
3,894167	0,1	2,105286
3,895833	0,1	2,151552
3,897500	0,1	2,169002
3,899167	0,1	2,113534
3,900833	0,1	2,166697
3,902500	0,1	2,115326
3,904167	0,1	2,124358
3,905833	0,1	2,124071
3,907500	0,1	2,043779
3,909167	0,1	2,098294
3,910833	0,1	2,091057
3,912500	0,1	2,051089
3,914167	0,1	2,051942
3,915833	0,1	2,066363
3,917500	0,1	2,073687
3,919167	0,1	2,042261
3,920833	0,1	2,025104
3,922500	0,1	2,028691
3,924167	0,1	2,029118
3,925833	0,1	2,005945
3,927500	0,1	1,939007
3,929167	0,1	2,012888
3,930833	0,1	1,992961
3,932500	0,1	2,020503
3,934167	0,1	1,985932
3,935833	0,1	1,949266
3,937500	0,1	1,994020
3,939167	0,1	1,996902
3,940833	0,1	1,979905
3,942500	0,1	1,936849
3,944167	0,1	1,981679
3,945833	0,1	1,966122
3,947500	0,1	1,927674
3,949167	0,1	1,945452
3,950833	0,1	1,906724
3,952500	0,1	1,912303
3,954167	0,1	1,947960
3,955833	0,1	1,908511
3,957500	0,1	1,874571
3,959167	0,1	1,895800
3,960833	0,1	1,916250
3,962500	0,1	1,869279
3,964167	0,1	1,853186
3,965833	0,1	1,854125
3,967500	0,1	1,844949
3,969167	0,1	1,877437
3,970833	0,1	1,886482
3,972500	0,1	1,863392
3,974167	0,1	1,835845
3,975833	0,1	1,843074
3,977500	0,1	1,825860
3,979167	0,1	1,791369
3,980833	0,1	1,822203
3,982500	0,1	1,839491
3,984167	0,1	1,795825
3,985833	0,1	1,825796
3,987500	0,1	1,768493
3,989167	0,1	1,809202
3,990833	0,1	1,824930
3,992500	0,1	1,787432
3,994167	0,1	1,786997
3,995833	0,1	1,782260
3,997500	0,1	1,771499
3,999167	0,1	1,785702
4,000833	0,1	1,745042
4,002500	0,1	1,777143
4,004167	0,1	1,725037
4,005833	0,1	1,790994
4,007500	0,1	1,795028
4,009167	0,1	1,756529
4,010833	0,1	1,767776
4,012500	0,1	1,734357
4,014167	0,1	1,742878
4,015833	0,1	1,764484
4,017500	0,1	1,736649
4,019167	0,1	1,746105
4,020833	0,1	1,781684
4,022500	0,1	1,752709
4,024167	0,1	1,719729
4,025833	0,1	1,752195
4,027500	0,1	1,731772
4,029167	0,1	1,768689
4,030833	0,1	1,730842
4,032500	0,1	1,740016
4,034167	0,1	1,745957
4,035833	0,1	1,722152
4,037500	0,1	1,729464
4,039167	0,1	1,798318
4,040833	0,1	1,717003
4,042500	0,1	1,758647
4,044167	0,1	1,781819
4,045833	0,1	1,727349
4,047500	0,1	1,723152
4,049167	0,1	1,760499
4,050833	0,1	1,768991
4,052500	0,1	1,746043
4,054167	0,1	1,814448
4,055833	0,1	1,769501
4,057500	0,1	1,796594
4,059167	0,1	1,789572
4,060833	0,1	1,772785
4,062500	0,1	1,817963
4,064167	0,1	1,786785
4,065833	0,1	1,828081
4,067500	0,1	1,798833
4,069167	0,1	1,861724
4,070833	0,1	1,808373
4,072500	0,1	1,819754
4,074167	0,1	1,844647
4,075833	0,1	1,827586
4,077500	0,1	1,893281
4,079167	0,1	1,862374
4,080833	0,1	1,839853
4,082500	0,1	1,925348
4,084167	0,1	1,913599
4,085833	0,1	1,919694
4,087500	0,1	1,890288
4,089167	0,1	1,933894
4,090833	0,1	1,899540
4,092500	0,1	1,955907
4,094167	0,1	1,972858
4,095833	0,1	1,999260
4,097500	0,1	2,010681
4,099167	0,1	2,006231
4,100833	0,1	1,996468
4,102500	0,1	2,011032
4,104167	0,1	2,029974
4,105833	0,1	2,057103
4,107500	0,1	2,076265
4,109167	0,1	2,071535
4,110833	0,1	2,113868
4,112500	0,1	2,109286
4,114167	0,1	2,110434
4,115833	0,1	2,120480
4,117500	0,1	2,165119
4,119167	0,1	2,165776
4,120833	0,1	2,160467
4,122500	0,1	2,186230
4,124167	0,1	2,168508
4,125833	0,1	2,201091
4,127500	0,1	2,210500
4,129167	0,1	2,248614
4,130833	0,1	2,224433
4,132500	0,1	2,287453
4,134167	0,1	2,266080
4,135833	0,1	2,291841
4,137500	0,1	2,277493
4,139167	0,1	2,328745
4,140833	0,1	2,336657
4,142500	0,1	2,338449
4,144167	0,1	2,343193
4,145833	0,1	2,383411
4,147500	0,1	2,411412
4,149167	0,1	2,361231
4,150833	0,1	2,412925
4,152500	0,1	2,406687
4,154167	0,1	2,442947
4,155833	0,1	2,465643
4,157500	0,1	2,428962
4,159167	0,1	2,471677
4,160833	0,1	2,504506
4,162500	0,1	2,528432
4,164167	0,1	2,479599
4,165833	0,1	2,492946
4,167500	0,1	2,494462
4,169167	0,1	2,474066
4,170833	0,1	2,535094
4,172500	0,1	2,549993
4,174167	0,1	2,538213
4,175833	0,1	2,547974
4,177500	0,1	2,562795
4,179167	0,1	2,549641
4,180833	0,1	2,573411
4,182500	0,1	2,592247
4,184167	0,1	2,585859
4,185833	0,1	2,607528
4,187500	0,1	2,594057
4,189167	0,1	2,624573
4,190833	0,1	2,577814
4,192500	0,1	2,615524
4,194167	0,1	2,616468
4,195833	0,1	2,645102
4,197500	0,1	2,629388
4,199167	0,1	2,607778
4,200833	0,1	2,620409
4,202500	0,1	2,586080
4,204167	0,1	2,642665
4,205833	0,1	2,653394
4,207500	0,1	2,661359
4,209167	0,1	2,624227
4,210833	0,1	2,639737
4,212500	0,1	2,622356
4,214167	0,1	2,660992
4,215833	0,1	2,639025
4,217500	0,1	2,626734
4,219167	0,1	2,670553
4,220833	0,1	2,646926
4,222500	0,1	2,596431
4,224167	0,1	2,613434
4,225833	0,1	2,642515
4,227500	0,1	2,610349
4,229167	0,1	2,613086
4,230833	0,1	2,595767
4,232500	0,1	2,581475
4,234167	0,1	2,571552
4,235833	0,1	2,597190
4,237500	0,1	2,616519
4,239167	0,1	2,607609
4,240833	0,1	2,585283
4,242500	0,1	2,606818
4,244167	0,1	2,628869
4,245833	0,1	2,564027
4,247500	0,1	2,532774
4,249167	0,1	2,567073
4,250833	0,1	2,545763
4,252500	0,1	2,588206
4,254167	0,1	2,526013
4,255833	0,1	2,532824
4,257500	0,1	2,565156
4,259167	0,1	2,521776
4,260833	0,1	2,490884
4,262500	0,1	2,501219
4,264167	0,1	2,543210
4,265833	0,1	2,485998
4,267500	0,1	2,486272
4,269167	0,1	2,479088
4,270833	0,1	2,463001
4,272500	0,1	2,453075
4,274167	0,1	2,472836
4,275833	0,1	2,476134
4,277500	0,1	2,427310
4,279167	0,1	2,440360
4,280833	0,1	2,420199
4,282500	0,1	2,419610
4,284167	0,1	2,407762
4,285833	0,1	2,392104
4,287500	0,1	2,403301
4,289167	0,1	2,369199
4,290833	0,1	2,358782
4,292500	0,1	2,378302
4,294167	0,1	2,335449
4,295833	0,1	2,348144
4,297500	0,1	2,339026
4,299167	0,1	2,324811
4,300833	0,1	2,332278
4,302500	0,1	2,305576
4,304167	0,1	2,303046
4,305833	0,1	2,274554
4,307500	0,1	2,278922
4,309167	0,1	2,250785
4,310833	0,1	2,272816
4,312500	0,1	2,222073
4,314167	0,1	2,254860
4,315833	0,1	2,230107
4,317500	0,1	2,203903
4,319167	0,1	2,190188
4,320833	0,1	2,170663
4,322500	0,1	2,208411
4,324167	0,1	2,168084
4,325833	0,1	2,156806
4,327500	0,1	2,163192
4,329167	0,1	2,172306
4,330833	0,1	2,148914
4,332500	0,1	2,141228
4,334167	0,1	2,121996
4,335833	0,1	2,116609
4,337500	0,1	2,095081
4,339167	0,1	2,134687
4,340833	0,1	2,119483
4,342500	0,1	2,116464
4,344167	0,1	2,079365
4,345833	0,1	2,095789
4,347500	0,1	2,120837
4,349167	0,1	2,059419
4,350833	0,1	2,056250
4,352500	0,1	2,049649
4,354167	0,1	2,061916
4,355833	0,1	2,000075
4,357500	0,1	2,041095
4,359167	0,1	2,003014
4,360833	0,1	1,981622
4,362500	0,1	1,999985
4,364167	0,1	1,984494
4,365833	0,1	1,971070
4,367500	0,1	1,976877
4,369167	0,1	1,929317
4,370833	0,1	1,978808
4,372500	0,1	1,910525
4,374167	0,1	1,915319
4,375833	0,1	1,943077
4,377500	0,1	1,906511
4,379167	0,1	1,906352
4,380833	0,1	1,915324
4,382500	0,1	1,884766
4,384167	0,1	1,904198
4,385833	0,1	1,875367
4,387500	0,1	1,881099
4,389167	0,1	1,839862
4,390833	0,1	1,831321
4,392500	0,1	1,860152
4,394167	0,1	1,839277
4,395833	0,1	1,818338
4,397500	0,1	1,806141
4,399167	0,1	1,827875
4,400833	0,1	1,809005
4,402500	0,1	1,802336
4,404167	0,1	1,789419
4,405833	0,1	1,769854
4,407500	0,1	1,801603
4,409167	0,1	1,742239
4,410833	0,1	1,764540
4,412500	0,1	1,766837
4,414167	0,1	1,757018
4,415833	0,1	1,759737
4,417500	0,1	1,746546
4,419167	0,1	1,700946
4,420833	0,1	1,718576
4,422500	0,1	1,753780
4,424167	0,1	1,695926
4,425833	0,1	1,701310
4,427500	0,1	1,667378
4,429167	0,1	1,691528
4,430833	0,1	1,667881
4,432500	0,1	1,665948
4,434167	0,1	1,665511
4,435833	0,1	1,645512
4,437500	0,1	1,659920
4,439167	0,1	1,648667
4,440833	0,1	1,664279
4,442500	0,1	1,659268
4,444167	0,1	1,628451
4,445833	0,1	1,646148
4,447500	0,1	1,607666
4,449167	0,1	1,615765
4,450833	0,1	1,629600
4,452500	0,1	1,619780
4,454167	0,1	1,585728
4,455833	0,1	1,612236
4,457500	0,1	1,555835
4,459167	0,1	1,578834
4,460833	0,1	1,546004
4,462500	0,1	1,554045
4,464167	0,1	1,541990
4,465833	0,1	1,549161
4,467500	0,1	1,543634
4,469167	0,1	1,539776
4,470833	0,1	1,524859
4,472500	0,1	1,496203
4,474167	0,1	1,487236
4,475833	0,1	1,499683
4,477500	0,1	1,489378
4,479167	0,1	1,496089
4,480833	0,1	1,467672
4,482500	0,1	1,471589
4,484167	0,1	1,478259
4,485833	0,1	1,492173
4,487500	0,1	1,421449
4,489167	0,1	1,458256
4,490833	0,1	1,468720
4,492500	0,1	1,441295
4,494167	0,1	1,421381
4,495833	0,1	1,440762
4,497500	0,1	1,401311
4,499167	0,1	1,414621
4,500833	0,1	1,428317
4,502500	0,1	1,354939
4,504167	0,1	1,376145
4,505833	0,1	1,392132
4,507500	0,1	1,395223
4,509167	0,1	1,350995
4,510833	0,1	1,406448
4,512500	0,1	1,356376
4,514167	0,1	1,343962
4,515833	0,1	1,356225
4,517500	0,1	1,348983
4,519167	0,1	1,305774
4,520833	0,1	1,330869
4,522500	0,1	1,331147
4,524167	0,1	1,330503
4,525833	0,1	1,318458
4,527500	0,1	1,314723
4,529167	0,1	1,340964
4,530833	0,1	1,305006
4,532500	0,1	1,313123
4,534167	0,1	1,298790
4,535833	0,1	1,280874
4,537500	0,1	1,300207
4,539167	0,1	1,322114
4,540833	0,1	1,260034
4,542500	0,1	1,258356
4,544167	0,1	1,288108
4,545833	0,1	1,279159
4,547500	0,1	1,208629
4,549167	0,1	1,274033
4,550833	0,1	1,273065
4,552500	0,1	1,253931
4,554167	0,1	1,233082
4,555833	0,1	1,226987
4,557500	0,1	1,224562
4,559167	0,1	1,223408
4,560833	0,1	1,238212
4,562500	0,1	1,240252
4,564167	0,1	1,229873
4,565833	0,1	1,182450
4,567500	0,1	1,193394
4,569167	0,1	1,188106
4,570833	0,1	1,184835
4,572500	0,1	1,173332
4,574167	0,1	1,150148
4,575833	0,1	1,160637
4,577500	0,1	1,170651
4,579167	0,1	1,159813
4,580833	0,1	1,155926
4,582500	0,1	1,212741
4,584167	0,1	1,156294
4,585833	0,1	1,125993
4,587500	0,1	1,106059
4,589167	0,1	1,171822
4,590833	0,1	1,131616
4,592500	0,1	1,122631
4,594167	0,1	1,134075
4,595833	0,1	1,125652
4,597500	0,1	1,149108
4,599167	0,1	1,090754
4,600833	0,1	1,121507
4,602500	0,1	1,136893
4,604167	0,1	1,095149
4,605833	0,1	1,090648
4,607500	0,1	1,068855
4,609167	0,1	1,105420
4,610833	0,1	1,085764
4,612500	0,1	1,126507
4,614167	0,1	1,084011
4,615833	0,1	1,061231
4,617500	0,1	1,078513
4,619167	0,1	1,077202
4,620833	0,1	1,060987
4,622500	0,1	1,070357
4,624167	0,1	1,059053
4,625833	0,1	1,040453
4,627500	0,1	1,014550
4,629167	0,1	1,039778
4,630833	0,1	1,057866
4,632500	0,1	1,017462
4,634167	0,1	1,030827
4,635833	0,1	1,024321
4,637500	0,1	1,048800
4,639167	0,1	1,012352
4,640833	0,1	0,985532
4,642500	0,1	1,017999
4,644167	0,1	1,019896
4,645833	0,1	0,989420
4,647500	0,1	0,992123
4,649167	0,1	1,036151
4,650833	0,1	0,933141
4,652500	0,1	0,993597
4,654167	0,1	0,974577
4,655833	0,1	0,963245
4,657500	0,1	0,967040
4,659167	0,1	0,971949
4,660833	0,1	0,958004
4,662500	0,1	0,982543
4,664167	0,1	0,977151
4,665833	0,1	0,969532
4,667500	0,1	0,927287
4,669167	0,1	0,983800
4,670833	0,1	0,974663
4,672500	0,1	0,903591
4,674167	0,1	0,955610
4,675833	0,1	0,971169
4,677500	0,1	0,981945
4,679167	0,1	0,953673
4,680833	0,1	0,884951
4,682500	0,1	0,932527
4,684167	0,1	0,915793
4,685833	0,1	0,936910
4,687500	0,1	0,933653
4,689167	0,1	0,921590
4,690833	0,1	0,926919
4,692500	0,1	0,916417
4,694167	0,1	0,936357
4,695833	0,1	0,900602
4,697500	0,1	0,914545
4,699167	0,1	0,891672
4,700833	0,1	0,916493
4,702500	0,1	0,880195
4,704167	0,1	0,881828
4,705833	0,1	0,894792
4,707500	0,1	0,884738
4,709167	0,1	0,854693
4,710833	0,1	0,850152
4,712500	0,1	0,909152
4,714167	0,1	0,901732
4,715833	0,1	0,852095
4,717500	0,1	0,892721
4,719167	0,1	0,869109
4,720833	0,1	0,834502
4,722500	0,1	0,838044
4,724167	0,1	0,824219
4,725833	0,1	0,831221
4,727500	0,1	0,852970
4,729167	0,1	0,785538
4,730833	0,1	0,835533
4,732500	0,1	0,835270
4,734167	0,1	0,846244
4,735833	0,1	0,836297
4,737500	0,1	0,877177
4,739167	0,1	0,843768
4,740833	0,1	0,820133
4,742500	0,1	0,875911
4,744167	0,1	0,816343
4,745833	0,1	0,831297
4,747500	0,1	0,817554
4,749167	0,1	0,846923
4,750833	0,1	0,838453
4,752500	0,1	0,797242
4,754167	0,1	0,829376
4,755833	0,1	0,817224
4,757500	0,1	0,833912
4,759167	0,1	0,806228
4,760833	0,1	0,803961
4,762500	0,1	0,805486
4,764167	0,1	0,789612
4,765833	0,1	0,788860
4,767500	0,1	0,798491
4,769167	0,1	0,816366
4,770833	0,1	0,746543
4,772500	0,1	0,801741
4,774167	0,1	0,778824
4,775833	0,1	0,800973
4,777500	0,1	0,778074
4,779167	0,1	0,808922
4,780833	0,1	0,796262
4,782500	0,1	0,771188
4,784167	0,1	0,784099
4,785833	0,1	0,793234
4,787500	0,1	0,785680
4,789167	0,1	0,736972
4,790833	0,1	0,779400
4,792500	0,1	0,765548
4,794167	0,1	0,758304
4,795833	0,1	0,775279
4,797500	0,1	0,778871
4,799167	0,1	0,754222
4,800833	0,1	0,791427
4,802500	0,1	0,772159
4,804167	0,1	0,719111
4,805833	0,1	0,770710
4,807500	0,1	0,755664
4,809167	0,1	0,789627
4,810833	0,1	0,778465
4,812500	0,1	0,783863
4,814167	0,1	0,749426
4,815833	0,1	0,728660
4,817500	0,1	0,727237
4,819167	0,1	0,768755
4,820833	0,1	0,732855
4,822500	0,1	0,774235
4,824167	0,1	0,717853
4,825833	0,1	0,769487
4,827500	0,1	0,752354
4,829167	0,1	0,735517
4,830833	0,1	0,722481
4,832500	0,1	0,746640
4,834167	0,1	0,745369
4,835833	0,1	0,752767
4,837500	0,1	0,727017
4,839167	0,1	0,724316
4,840833	0,1	0,748190
4,842500	0,1	0,722892
4,844167	0,1	0,723464
4,845833	0,1	0,727497
4,847500	0,1	0,725080
4,849167	0,1	0,719929
4,850833	0,1	0,729836
4,852500	0,1	0,722730
4,854167	0,1	0,734382
4,855833	0,1	0,706648
4,857500	0,1	0,699298
4,859167	0,1	0,734878
4,860833	0,1	0,759296
4,862500	0,1	0,775976
4,864167	0,1	0,738152
4,865833	0,1	0,749612
4,867500	0,1	0,744333
4,869167	0,1	0,740785
4,870833	0,1	0,723628
4,872500	0,1	0,726236
4,874167	0,1	0,743553
4,875833	0,1	0,739312
4,877500	0,1	0,747168
4,879167	0,1	0,730012
4,880833	0,1	0,724214
4,882500	0,1	0,733383
4,884167	0,1	0,733992
4,885833	0,1	0,724597
4,887500	0,1	0,746771
4,889167	0,1	0,769494
4,890833	0,1	0,717682
4,892500	0,1	0,732868
4,894167	0,1	0,721247
4,895833	0,1	0,728522
4,897500	0,1	0,717420
4,899167	0,1	0,714620
4,900833	0,1	0,714012
4,902500	0,1	0,712267
4,904167	0,1	0,691154
4,905833	0,1	0,707980
4,907500	0,1	0,729833
4,909167	0,1	0,725342
4,910833	0,1	0,749572
4,912500	0,1	0,683047
4,914167	0,1	0,674989
4,915833	0,1	0,666135
4,917500	0,1	0,688241
4,919167	0,1	0,712169
4,920833	0,1	0,732055
4,922500	0,1	0,659682
4,924167	0,1	0,730858
4,925833	0,1	0,711143
4,927500	0,1	0,719533
4,929167	0,1	0,702455
4,930833	0,1	0,714868
4,932500	0,1	0,745521
4,934167	0,1	0,727557
4,935833	0,1	0,713783
4,937500	0,1	0,709878
4,939167	0,1	0,691117
4,940833	0,1	0,743937
4,942500	0,1	0,708310
4,944167	0,1	0,713105
4,945833	0,1	0,701192
4,947500	0,1	0,749053
4,949167	0,1	0,694606
4,950833	0,1	0,732051
4,952500	0,1	0,682016
4,954167	0,1	0,706596
4,955833	0,1	0,710781
4,957500	0,1	0,715328
4,959167	0,1	0,725208
4,960833	0,1	0,704218
4,962500	0,1	0,686227
4,964167	0,1	0,699611
4,965833	0,1	0,723393
4,967500	0,1	0,694114
4,969167	0,1	0,741417
4,970833	0,1	0,717871
4,972500	0,1	0,697266
4,974167	0,1	0,687961
4,975833	0,1	0,707140
4,977500	0,1	0,730112
4,979167	0,1	0,725360
4,980833	0,1	0,718893
4,982500	0,1	0,733541
4,984167	0,1	0,705834
4,985833	0,1	0,740292
4,987500	0,1	0,724664
4,989167	0,1	0,742174
4,990833	0,1	0,706797
4,992500	0,1	0,760668
4,994167	0,1	0,749737
4,995833	0,1	0,688392
4,997500	0,1	0,727580
4,999167	0,1	0,703875
5,000833	0,1	0,771350
5,002500	0,1	0,735511
5,004167	0,1	0,741467
5,005833	0,1	0,770399
5,007500	0,1	0,756111
5,009167	0,1	0,807102
5,010833	0,1	0,726873
5,012500	0,1	0,775875
5,014167	0,1	0,764745
5,015833	0,1	0,728308
5,017500	0,1	0,774312
5,019167	0,1	0,770120
5,020833	0,1	0,753864
5,022500	0,1	0,764780
5,024167	0,1	0,801783
5,025833	0,1	0,751009
5,027500	0,1	0,770533
5,029167	0,1	0,764402
5,030833	0,1	0,752772
5,032500	0,1	0,746003
5,034167	0,1	0,783186
5,035833	0,1	0,792629
5,037500	0,1	0,775853
5,039167	0,1	0,787279
5,040833	0,1	0,766075
5,042500	0,1	0,797290
5,044167	0,1	0,819741
5,045833	0,1	0,810115
5,047500	0,1	0,785265
5,049167	0,1	0,827648
5,050833	0,1	0,831785
5,052500	0,1	0,816713
5,054167	0,1	0,854568
5,055833	0,1	0,838429
5,057500	0,1	0,801749
5,059167	0,1	0,818298
5,060833	0,1	0,823792
5,062500	0,1	0,859028
5,064167	0,1	0,837548
5,065833	0,1	0,845822
5,067500	0,1	0,800214
5,069167	0,1	0,812015
5,070833	0,1	0,853989
5,072500	0,1	0,828060
5,074167	0,1	0,799144
5,075833	0,1	0,858470
5,077500	0,1	0,847775
5,079167	0,1	0,892101
5,080833	0,1	0,850986
5,082500	0,1	0,872871
5,084167	0,1	0,849604
5,085833	0,1	0,879690
5,087500	0,1	0,867925
5,089167	0,1	0,870276
5,090833	0,1	0,903945
5,092500	0,1	0,847258
5,094167	0,1	0,879666
5,095833	0,1	0,872349
5,097500	0,1	0,876179
5,099167	0,1	0,893750
5,100833	0,1	0,901887
5,102500	0,1	0,845655
5,104167	0,1	0,910108
5,105833	0,1	0,899999
5,107500	0,1	0,901509
5,109167	0,1	0,903772
5,110833	0,1	0,870020
5,112500	0,1	0,885203
5,114167	0,1	0,927223
5,115833	0,1	0,886439
5,117500	0,1	0,906434
5,119167	0,1	0,880011
5,120833	0,1	0,888087
5,122500	0,1	0,889955
5,124167	0,1	0,875614
5,125833	0,1	0,924158
5,127500	0,1	0,867565
5,129167	0,1	0,854002
5,130833	0,1	0,889104
5,132500	0,1	0,907789
5,134167	0,1	0,871887
5,135833	0,1	0,868940
5,137500	0,1	0,878516
5,139167	0,1	0,921895
5,140833	0,1	0,895206
5,142500	0,1	0,889982
5,144167	0,1	0,884648
5,145833	0,1	0,897152
5,147500	0,1	0,879744
5,149167	0,1	0,875057
5,150833	0,1	0,857108
5,152500	0,1	0,877628
5,154167	0,1	0,871920
5,155833	0,1	0,898883
5,157500	0,1	0,860515
5,159167	0,1	0,859796
5,160833	0,1	0,802187
5,162500	0,1	0,897754
5,164167	0,1	0,862027
5,165833	0,1	0,874271
5,167500	0,1	0,843767
5,169167	0,1	0,846533
5,170833	0,1	0,848466
5,172500	0,1	0,829505
5,174167	0,1	0,801235
5,175833	0,1	0,838062
5,177500	0,1	0,870450
5,179167	0,1	0,858907
5,180833	0,1	0,847735
5,182500	0,1	0,815495
5,184167	0,1	0,810114
5,185833	0,1	0,793569
5,187500	0,1	0,755907
5,189167	0,1	0,803634
5,190833	0,1	0,815865
5,192500	0,1	0,798549
5,194167	0,1	0,784591
5,195833	0,1	0,780724
5,197500	0,1	0,776691
5,199167	0,1	0,779237
5,200833	0,1	0,810261
5,202500	0,1	0,803698
5,204167	0,1	0,727320
5,205833	0,1	0,769437
5,207500	0,1	0,802020
5,209167	0,1	0,786616
5,210833	0,1	0,749624
5,212500	0,1	0,720869
5,214167	0,1	0,716291
5,215833	0,1	0,787264
5,217500	0,1	0,759375
5,219167	0,1	0,763743
5,220833	0,1	0,747937
5,222500	0,1	0,742980
5,224167	0,1	0,758851
5,225833	0,1	0,716009
5,227500	0,1	0,716606
5,229167	0,1	0,696912
5,230833	0,1	0,719559
5,232500	0,1	0,711784
5,234167	0,1	0,716867
5,235833	0,1	0,718603
5,237500	0,1	0,703377
5,239167	0,1	0,695658
5,240833	0,1	0,711965
5,242500	0,1	0,668914
5,244167	0,1	0,653158
5,245833	0,1	0,674881
5,247500	0,1	0,670024
5,249167	0,1	0,664325
5,250833	0,1	0,635655
5,252500	0,1	0,639475
5,254167	0,1	0,685624
5,255833	0,1	0,619984
5,257500	0,1	0,637634
5,259167	0,1	0,612190
5,260833	0,1	0,653239
5,262500	0,1	0,625834
5,264167	0,1	0,613828
5,265833	0,1	0,612563
5,267500	0,1	0,612763
5,269167	0,1	0,627659
5,270833	0,1	0,621199
5,272500	0,1	0,618811
5,274167	0,1	0,601888
5,275833	0,1	0,629197
5,277500	0,1	0,571219
5,279167	0,1	0,595210
5,280833	0,1	0,548982
5,282500	0,1	0,598519
5,284167	0,1	0,572793
5,285833	0,1	0,588905
5,287500	0,1	0,597983
5,289167	0,1	0,569350
5,290833	0,1	0,586750
5,292500	0,1	0,568635
5,294167	0,1	0,545629
5,295833	0,1	0,552828
5,297500	0,1	0,563931
5,299167	0,1	0,575035
5,300833	0,1	0,569020
5,302500	0,1	0,537423
5,304167	0,1	0,569367
5,305833	0,1	0,544533
5,307500	0,1	0,556304
5,309167	0,1	0,524520
5,310833	0,1	0,529787
5,312500	0,1	0,517145
5,314167	0,1	0,515823
5,315833	0,1	0,542461
5,317500	0,1	0,507495
5,319167	0,1	0,538630
5,320833	0,1	0,537833
5,322500	0,1	0,492086
5,324167	0,1	0,503528
5,325833	0,1	0,519035
5,327500	0,1	0,477347
5,329167	0,1	0,510281
5,330833	0,1	0,504048
5,332500	0,1	0,501021
5,334167	0,1	0,475027
5,335833	0,1	0,513239
5,337500	0,1	0,497258
5,339167	0,1	0,484965
5,340833	0,1	0,480716
5,342500	0,1	0,488919
5,344167	0,1	0,429217
5,345833	0,1	0,448309
5,347500	0,1	0,476237
5,349167	0,1	0,494258
5,350833	0,1	0,485899
5,352500	0,1	0,446939
5,354167	0,1	0,433067
5,355833	0,1	0,435186
5,357500	0,1	0,464040
5,359167	0,1	0,424288
5,360833	0,1	0,413663
5,362500	0,1	0,429586
5,364167	0,1	0,439496
5,365833	0,1	0,451658
5,367500	0,1	0,450984
5,369167	0,1	0,456130
5,370833	0,1	0,441370
5,372500	0,1	0,420359
5,374167	0,1	0,394786
5,375833	0,1	0,400211
5,377500	0,1	0,427812
5,379167	0,1	0,434735
5,380833	0,1	0,426310
5,382500	0,1	0,387260
5,384167	0,1	0,444568
5,385833	0,1	0,400449
5,387500	0,1	0,413177
5,389167	0,1	0,425371
5,390833	0,1	0,401219
5,392500	0,1	0,359947
5,394167	0,1	0,420147
5,395833	0,1	0,410061
5,397500	0,1	0,359561
5,399167	0,1	0,393417
5,400833	0,1	0,373356
5,402500	0,1	0,376376
5,404167	0,1	0,409666
5,405833	0,1	0,350331
5,407500	0,1	0,408857
5,409167	0,1	0,390408
5,410833	0,1	0,349073
5,412500	0,1	0,415228
5,414167	0,1	0,344316
5,415833	0,1	0,339896
5,417500	0,1	0,392094
5,419167	0,1	0,370236
5,420833	0,1	0,376535
5,422500	0,1	0,328876
5,424167	0,1	0,394665
5,425833	0,1	0,380432
5,427500	0,1	0,389566
5,429167	0,1	0,391174
5,430833	0,1	0,365317
5,432500	0,1	0,372966
5,434167	0,1	0,384482
5,435833	0,1	0,360685
5,437500	0,1	0,370616
5,439167	0,1	0,369687
5,440833	0,1	0,343923
5,442500	0,1	0,331089
5,444167	0,1	0,343497
5,445833	0,1	0,333980
5,447500	0,1	0,370674
5,449167	0,1	0,334439
5,450833	0,1	0,292681
5,452500	0,1	0,309109
5,454167	0,1	0,341435
5,455833	0,1	0,365402
5,457500	0,1	0,323792
5,459167	0,1	0,380839
5,460833	0,1	0,338051
5,462500	0,1	0,349385
5,464167	0,1	0,350222
5,465833	0,1	0,329416
5,467500	0,1	0,335233
5,469167	0,1	0,312824
5,470833	0,1	0,299856
5,472500	0,1	0,332526
5,474167	0,1	0,284426
5,475833	0,1	0,320429
5,477500	0,1	0,360703
5,479167	0,1	0,307189
5,480833	0,1	0,311622
5,482500	0,1	0,357352
5,484167	0,1	0,302368
5,485833	0,1	0,294229
5,487500	0,1	0,294609
5,489167	0,1	0,300976
5,490833	0,1	0,333621
5,492500	0,1	0,299954
5,494167	0,1	0,334258
5,495833	0,1	0,284101
5,497500	0,1	0,271806
5,499167	0,1	0,332868
5,500833	0,1	0,297961
5,502500	0,1	0,282869
5,504167	0,1	0,299650
5,505833	0,1	0,308284
5,507500	0,1	0,318188
5,509167	0,1	0,273265
5,510833	0,1	0,299622
5,512500	0,1	0,289182
5,514167	0,1	0,321590
5,515833	0,1	0,250974
5,517500	0,1	0,259064
5,519167	0,1	0,296212
5,520833	0,1	0,271331
5,522500	0,1	0,311804
5,524167	0,1	0,260592
5,525833	0,1	0,274601
5,527500	0,1	0,316152
5,529167	0,1	0,291242
5,530833	0,1	0,279943
5,532500	0,1	0,278236
5,534167	0,1	0,296153
5,535833	0,1	0,274356
5,537500	0,1	0,250130
5,539167	0,1	0,276689
5,540833	0,1	0,249009
5,542500	0,1	0,298782
5,544167	0,1	0,280813
5,545833	0,1	0,309143
5,547500	0,1	0,264992
5,549167	0,1	0,255788
5,550833	0,1	0,309298
5,552500	0,1	0,284167
5,554167	0,1	0,279751
5,555833	0,1	0,266344
5,557500	0,1	0,258652
5,559167	0,1	0,243179
5,560833	0,1	0,259362
5,562500	0,1	0,242384
5,564167	0,1	0,261998
5,565833	0,1	0,271513
5,567500	0,1	0,288498
5,569167	0,1	0,280840
5,570833	0,1	0,260521
5,572500	0,1	0,276403
5,574167	0,1	0,239905
5,575833	0,1	0,288101
5,577500	0,1	0,241067
5,579167	0,1	0,231385
5,580833	0,1	0,308488
5,582500	0,1	0,297155
5,584167	0,1	0,264067
5,585833	0,1	0,279167
5,587500	0,1	0,222381
5,589167	0,1	0,271728
5,590833	0,1	0,262322
5,592500	0,1	0,249385
5,594167	0,1	0,257460
5,595833	0,1	0,243733
5,597500	0,1	0,252606
5,599167	0,1	0,266337
5,600833	0,1	0,223675
5,602500	0,1	0,246234
5,604167	0,1	0,265015
5,605833	0,1	0,246079
5,607500	0,1	0,256563
5,609167	0,1	0,277977
5,610833	0,1	0,267087
5,612500	0,1	0,224054
5,614167	0,1	0,263343
5,615833	0,1	0,289943
5,617500	0,1	0,238017
5,619167	0,1	0,257042
5,620833	0,1	0,223128
5,622500	0,1	0,246243
5,624167	0,1	0,235497
5,625833	0,1	0,243411
5,627500	0,1	0,248519
5,629167	0,1	0,213028
5,630833	0,1	0,276971
5,632500	0,1	0,248049
5,634167	0,1	0,224566
5,635833	0,1	0,243887
5,637500	0,1	0,215184
5,639167	0,1	0,255931
5,640833	0,1	0,282796
5,642500	0,1	0,221132
5,644167	0,1	0,297650
5,645833	0,1	0,241297
5,647500	0,1	0,250676
5,649167	0,1	0,254815
5,650833	0,1	0,255396
5,652500	0,1	0,256784
5,654167	0,1	0,268740
5,655833	0,1	0,224181
5,657500	0,1	0,264239
5,659167	0,1	0,246395
5,660833	0,1	0,255467
5,662500	0,1	0,238968
5,664167	0,1	0,245838
5,665833	0,1	0,251346
5,667500	0,1	0,268583
5,669167	0,1	0,248136
5,670833	0,1	0,234275
5,672500	0,1	0,275563
5,674167	0,1	0,274930
5,675833	0,1	0,280519
5,677500	0,1	0,289169
5,679167	0,1	0,276474
5,680833	0,1	0,243231
5,682500	0,1	0,298744
5,684167	0,1	0,278304
5,685833	0,1	0,243221
5,687500	0,1	0,275946
5,689167	0,1	0,242641
5,690833	0,1	0,283634
5,692500	0,1	0,258149
5,694167	0,1	0,229358
5,695833	0,1	0,276586
5,697500	0,1	0,259849
5,699167	0,1	0,238235
5,700833	0,1	0,277012
5,702500	0,1	0,281878
5,704167	0,1	0,251129
5,705833	0,1	0,299037
5,707500	0,1	0,248090
5,709167	0,1	0,252632
5,710833	0,1	0,291799
5,712500	0,1	0,261329
5,714167	0,1	0,258296
5,715833	0,1	0,275921
5,717500	0,1	0,283290
5,719167	0,1	0,256990
5,720833	0,1	0,279136
5,722500	0,1	0,254252
5,724167	0,1	0,260642
5,725833	0,1	0,281413
5,727500	0,1	0,301815
5,729167	0,1	0,306060
5,730833	0,1	0,252231
5,732500	0,1	0,267361
5,734167	0,1	0,297953
5,735833	0,1	0,281020
5,737500	0,1	0,260747
5,739167	0,1	0,247076
5,740833	0,1	0,282730
5,742500	0,1	0,296887
5,744167	0,1	0,297534
5,745833	0,1	0,268277
5,747500	0,1	0,253027
5,749167	0,1	0,285114
5,750833	0,1	0,296472
5,752500	0,1	0,298349
5,754167	0,1	0,260979
5,755833	0,1	0,270489
5,757500	0,1	0,249007
5,759167	0,1	0,284279
5,760833	0,1	0,295186
5,762500	0,1	0,309345
5,764167	0,1	0,256860
5,765833	0,1	0,303095
5,767500	0,1	0,248081
5,769167	0,1	0,299679
5,770833	0,1	0,271974
5,772500	0,1	0,296922
5,774167	0,1	0,259176
5,775833	0,1	0,289717
5,777500	0,1	0,272615
5,779167	0,1	0,305473
5,780833	0,1	0,284102
5,782500	0,1	0,286796
5,784167	0,1	0,290013
5,785833	0,1	0,225156
5,787500	0,1	0,254366
5,789167	0,1	0,274118
5,790833	0,1	0,277592
5,792500	0,1	0,289206
5,794167	0,1	0,278827
5,795833	0,1	0,288526
5,797500	0,1	0,305032
5,799167	0,1	0,273025
5,800833	0,1	0,285444
5,802500	0,1	0,303808
5,804167	0,1	0,276122
5,805833	0,1	0,297600
5,807500	0,1	0,274509
5,809167	0,1	0,246724
5,810833	0,1	0,242216
5,812500	0,1	0,281261
5,814167	0,1	0,264253
5,815833	0,1	0,251831
5,817500	0,1	0,270386
5,819167	0,1	0,280625
5,820833	0,1	0,283998
5,822500	0,1	0,273003
5,824167	0,1	0,250367
5,825833	0,1	0,251838
5,827500	0,1	0,282125
5,829167	0,1	0,234835
5,830833	0,1	0,273372
5,832500	0,1	0,286024
5,834167	0,1	0,258692
5,835833	0,1	0,247817
5,837500	0,1	0,277594
5,839167	0,1	0,265700
5,840833	0,1	0,263768
5,842500	0,1	0,261994
5,844167	0,1	0,280551
5,845833	0,1	0,239779
5,847500	0,1	0,263600
5,849167	0,1	0,286466
5,850833	0,1	0,310049
5,852500	0,1	0,290661
5,854167	0,1	0,276708
5,855833	0,1	0,283164
5,857500	0,1	0,257370
5,859167	0,1	0,259556
5,860833	0,1	0,279166
5,862500	0,1	0,249171
5,864167	0,1	0,242933
5,865833	0,1	0,296788
5,867500	0,1	0,282327
5,869167	0,1	0,254481
5,870833	0,1	0,272832
5,872500	0,1	0,252058
5,874167	0,1	0,246592
5,875833	0,1	0,248042
5,877500	0,1	0,267169
5,879167	0,1	0,260743
5,880833	0,1	0,283033
5,882500	0,1	0,226831
5,884167	0,1	0,279319
5,885833	0,1	0,254959
5,887500	0,1	0,265957
5,889167	0,1	0,280425
5,890833	0,1	0,246510
5,892500	0,1	0,291834
5,894167	0,1	0,226088
5,895833	0,1	0,261351
5,897500	0,1	0,261486
5,899167	0,1	0,274030
5,900833	0,1	0,223449
5,902500	0,1	0,236462
5,904167	0,1	0,262412
5,905833	0,1	0,287408
5,907500	0,1	0,229302
5,909167	0,1	0,278714
5,910833	0,1	0,247923
5,912500	0,1	0,280166
5,914167	0,1	0,242326
5,915833	0,1	0,215499
5,917500	0,1	0,231277
5,919167	0,1	0,275335
5,920833	0,1	0,253899
5,922500	0,1	0,251484
5,924167	0,1	0,257081
5,925833	0,1	0,238561
5,927500	0,1	0,237650
5,929167	0,1	0,230678
5,930833	0,1	0,256233
5,932500	0,1	0,248244
5,934167	0,1	0,211742
5,935833	0,1	0,219260
5,937500	0,1	0,219715
5,939167	0,1	0,245825
5,940833	0,1	0,241700
5,942500	0,1	0,212636
5,944167	0,1	0,230029
5,945833	0,1	0,264665
5,947500	0,1	0,258107
5,949167	0,1	0,247690
5,950833	0,1	0,200748
5,952500	0,1	0,263074
5,954167	0,1	0,226952
5,955833	0,1	0,234470
5,957500	0,1	0,239932
5,959167	0,1	0,215851
5,960833	0,1	0,251630
5,962500	0,1	0,239782
5,964167	0,1	0,184321
5,965833	0,1	0,229769
5,967500	0,1	0,214853
5,969167	0,1	0,240859
5,970833	0,1	0,260230
5,972500	0,1	0,241703
5,974167	0,1	0,234309
5,975833	0,1	0,253636
5,977500	0,1	0,240264
5,979167	0,1	0,207630
5,980833	0,1	0,265810
5,982500	0,1	0,225376
5,984167	0,1	0,237457
5,985833	0,1	0,252424
5,987500	0,1	0,234350
5,989167	0,1	0,207202
5,990833	0,1	0,183442
5,992500	0,1	0,262690
5,994167	0,1	0,240139
5,995833	0,1	0,202928
5,997500	0,1	0,223343
5,999167	0,1	0,200000
6,000833	0,1	0,214393
