File Path	chrom://chromeleon01/ikbm_chromeleon/2022/Rezex/Esteban/220612_chitin_4_7.seq/231.smp/UV_VIS_1.channel/UV_VIS_1.chm
Channel	UV_VIS_1

Injection Information:
Data Vault	ikbm_chromeleon
Injection	CelS2_02h-EGS_3
Injection Number	89
Position	GE1
Comment	
Processing Method	New ProcMethod
Instrument Method	Short_Rezex_6min_194nm
Type	Unknown
Status	Finished
Injection Date	13.06.2022
Injection Time	02:43:53
Injection Volume (µl)	8,000
Dilution Factor	1,0000
Weight	1,0000

Chromatogram Data Information:
Time Min. (min)	0,000833
Time Max. (min)	6,000833
Data Points	3601
Detector	UV
Generating Data System	Chromeleon 7.2.9.11323
Exporting Data System	Chromeleon 7.2.9.0
Operator	Instrument Controller
Signal Quantity	Absorbance
Signal Unit	mAU
Signal Min.	-0,157365
Signal Max.	151,885658
Channel	UV_VIS_1
Driver Name	VWD3000.dll
Channel Type	Evaluation
Min. Step (s)	0,1
Max. Step (s)	0,1
Average Step (s)	0,1

Signal Parameter Information:
Signal Info	WVL:194 nm

Chromatogram Data:
Time (min)	Step (s)	Value (mAU)
0,000833	n.a.	-0,095536
0,002500	0,1	-0,045682
0,004167	0,1	-0,076418
0,005833	0,1	-0,019589
0,007500	0,1	-0,051874
0,009167	0,1	-0,045383
0,010833	0,1	-0,067223
0,012500	0,1	-0,039796
0,014167	0,1	-0,113394
0,015833	0,1	-0,069727
0,017500	0,1	-0,078349
0,019167	0,1	-0,075289
0,020833	0,1	-0,096901
0,022500	0,1	-0,056200
0,024167	0,1	-0,090375
0,025833	0,1	-0,050195
0,027500	0,1	-0,091348
0,029167	0,1	-0,112908
0,030833	0,1	-0,096454
0,032500	0,1	-0,102843
0,034167	0,1	-0,139758
0,035833	0,1	-0,108427
0,037500	0,1	-0,058523
0,039167	0,1	-0,061161
0,040833	0,1	-0,157365
0,042500	0,1	-0,133275
0,044167	0,1	-0,117719
0,045833	0,1	-0,126022
0,047500	0,1	-0,080659
0,049167	0,1	-0,075348
0,050833	0,1	-0,068991
0,052500	0,1	-0,043439
0,054167	0,1	-0,086188
0,055833	0,1	-0,081768
0,057500	0,1	-0,084976
0,059167	0,1	-0,082636
0,060833	0,1	-0,080277
0,062500	0,1	-0,068164
0,064167	0,1	-0,076900
0,065833	0,1	-0,067230
0,067500	0,1	-0,125121
0,069167	0,1	-0,027034
0,070833	0,1	-0,100346
0,072500	0,1	-0,086700
0,074167	0,1	-0,056569
0,075833	0,1	-0,060209
0,077500	0,1	-0,056524
0,079167	0,1	-0,048903
0,080833	0,1	-0,073230
0,082500	0,1	-0,047562
0,084167	0,1	-0,017489
0,085833	0,1	-0,095332
0,087500	0,1	-0,038745
0,089167	0,1	-0,019434
0,090833	0,1	-0,007978
0,092500	0,1	-0,033694
0,094167	0,1	-0,005331
0,095833	0,1	-0,029592
0,097500	0,1	-0,053431
0,099167	0,1	-0,061306
0,100833	0,1	-0,050229
0,102500	0,1	-0,032151
0,104167	0,1	-0,046703
0,105833	0,1	-0,051053
0,107500	0,1	-0,065817
0,109167	0,1	-0,075801
0,110833	0,1	-0,068661
0,112500	0,1	-0,044931
0,114167	0,1	-0,070228
0,115833	0,1	-0,082904
0,117500	0,1	-0,091374
0,119167	0,1	-0,060279
0,120833	0,1	-0,093664
0,122500	0,1	-0,108063
0,124167	0,1	-0,109843
0,125833	0,1	-0,098588
0,127500	0,1	-0,080923
0,129167	0,1	-0,101889
0,130833	0,1	-0,082331
0,132500	0,1	-0,063690
0,134167	0,1	-0,055509
0,135833	0,1	-0,094181
0,137500	0,1	-0,036717
0,139167	0,1	-0,034963
0,140833	0,1	-0,038399
0,142500	0,1	-0,034902
0,144167	0,1	-0,090906
0,145833	0,1	-0,070010
0,147500	0,1	-0,064538
0,149167	0,1	-0,057020
0,150833	0,1	-0,057394
0,152500	0,1	-0,072446
0,154167	0,1	-0,044662
0,155833	0,1	-0,068674
0,157500	0,1	-0,028593
0,159167	0,1	-0,056578
0,160833	0,1	-0,026645
0,162500	0,1	-0,049538
0,164167	0,1	-0,062071
0,165833	0,1	-0,031199
0,167500	0,1	-0,021005
0,169167	0,1	-0,041667
0,170833	0,1	-0,059625
0,172500	0,1	-0,019728
0,174167	0,1	-0,045000
0,175833	0,1	-0,049666
0,177500	0,1	-0,052338
0,179167	0,1	-0,039997
0,180833	0,1	-0,064863
0,182500	0,1	-0,019192
0,184167	0,1	-0,062311
0,185833	0,1	-0,022132
0,187500	0,1	-0,027713
0,189167	0,1	-0,026139
0,190833	0,1	-0,053265
0,192500	0,1	-0,016870
0,194167	0,1	-0,052002
0,195833	0,1	-0,058738
0,197500	0,1	-0,036749
0,199167	0,1	-0,083767
0,200833	0,1	-0,052284
0,202500	0,1	-0,005502
0,204167	0,1	-0,051853
0,205833	0,1	-0,026995
0,207500	0,1	-0,031212
0,209167	0,1	-0,070929
0,210833	0,1	-0,060421
0,212500	0,1	-0,054080
0,214167	0,1	-0,068367
0,215833	0,1	-0,054724
0,217500	0,1	-0,057951
0,219167	0,1	-0,041781
0,220833	0,1	-0,049998
0,222500	0,1	-0,020948
0,224167	0,1	-0,046430
0,225833	0,1	-0,023204
0,227500	0,1	-0,018603
0,229167	0,1	-0,008662
0,230833	0,1	-0,038083
0,232500	0,1	-0,005768
0,234167	0,1	-0,049989
0,235833	0,1	-0,055299
0,237500	0,1	-0,044928
0,239167	0,1	-0,064699
0,240833	0,1	0,002034
0,242500	0,1	0,005466
0,244167	0,1	-0,053590
0,245833	0,1	-0,024862
0,247500	0,1	-0,066390
0,249167	0,1	-0,043997
0,250833	0,1	-0,027945
0,252500	0,1	-0,058795
0,254167	0,1	-0,011052
0,255833	0,1	-0,087506
0,257500	0,1	-0,033568
0,259167	0,1	-0,040367
0,260833	0,1	-0,011152
0,262500	0,1	-0,043510
0,264167	0,1	-0,050349
0,265833	0,1	-0,023682
0,267500	0,1	-0,038914
0,269167	0,1	-0,045398
0,270833	0,1	-0,040845
0,272500	0,1	-0,062543
0,274167	0,1	-0,003805
0,275833	0,1	-0,039740
0,277500	0,1	-0,006928
0,279167	0,1	-0,013898
0,280833	0,1	-0,059433
0,282500	0,1	-0,017265
0,284167	0,1	-0,041812
0,285833	0,1	0,001791
0,287500	0,1	0,017290
0,289167	0,1	-0,013458
0,290833	0,1	0,007739
0,292500	0,1	-0,034767
0,294167	0,1	-0,001336
0,295833	0,1	-0,067774
0,297500	0,1	-0,060191
0,299167	0,1	-0,038343
0,300833	0,1	-0,050347
0,302500	0,1	-0,043870
0,304167	0,1	-0,048941
0,305833	0,1	-0,058052
0,307500	0,1	-0,043127
0,309167	0,1	-0,019125
0,310833	0,1	-0,048894
0,312500	0,1	-0,033952
0,314167	0,1	-0,056579
0,315833	0,1	-0,019377
0,317500	0,1	-0,036513
0,319167	0,1	-0,018956
0,320833	0,1	-0,061130
0,322500	0,1	-0,024203
0,324167	0,1	-0,032269
0,325833	0,1	-0,019163
0,327500	0,1	-0,027297
0,329167	0,1	-0,047259
0,330833	0,1	-0,017924
0,332500	0,1	-0,051917
0,334167	0,1	-0,012522
0,335833	0,1	-0,016590
0,337500	0,1	-0,016964
0,339167	0,1	-0,023405
0,340833	0,1	-0,048647
0,342500	0,1	-0,041345
0,344167	0,1	-0,037408
0,345833	0,1	-0,044322
0,347500	0,1	-0,021898
0,349167	0,1	-0,025828
0,350833	0,1	-0,055750
0,352500	0,1	-0,010576
0,354167	0,1	-0,047525
0,355833	0,1	-0,018174
0,357500	0,1	-0,040178
0,359167	0,1	-0,019890
0,360833	0,1	-0,038975
0,362500	0,1	-0,027302
0,364167	0,1	-0,098131
0,365833	0,1	-0,017026
0,367500	0,1	-0,041812
0,369167	0,1	-0,044863
0,370833	0,1	-0,017820
0,372500	0,1	-0,041750
0,374167	0,1	-0,003201
0,375833	0,1	-0,000873
0,377500	0,1	-0,046159
0,379167	0,1	-0,014921
0,380833	0,1	0,010578
0,382500	0,1	-0,049654
0,384167	0,1	0,006551
0,385833	0,1	-0,021514
0,387500	0,1	-0,011935
0,389167	0,1	-0,006403
0,390833	0,1	-0,014809
0,392500	0,1	0,015526
0,394167	0,1	-0,010248
0,395833	0,1	-0,032597
0,397500	0,1	0,038446
0,399167	0,1	-0,040577
0,400833	0,1	0,015769
0,402500	0,1	-0,024038
0,404167	0,1	0,001981
0,405833	0,1	-0,007063
0,407500	0,1	-0,027812
0,409167	0,1	-0,023966
0,410833	0,1	-0,004936
0,412500	0,1	-0,012365
0,414167	0,1	-0,014913
0,415833	0,1	-0,039079
0,417500	0,1	0,031819
0,419167	0,1	-0,041676
0,420833	0,1	0,027426
0,422500	0,1	-0,002418
0,424167	0,1	0,020272
0,425833	0,1	-0,011882
0,427500	0,1	-0,012594
0,429167	0,1	0,016480
0,430833	0,1	-0,049156
0,432500	0,1	0,016573
0,434167	0,1	-0,010744
0,435833	0,1	0,019441
0,437500	0,1	-0,038594
0,439167	0,1	-0,011896
0,440833	0,1	-0,016612
0,442500	0,1	-0,007853
0,444167	0,1	0,013518
0,445833	0,1	-0,012050
0,447500	0,1	0,022071
0,449167	0,1	0,001144
0,450833	0,1	0,053116
0,452500	0,1	-0,002867
0,454167	0,1	0,002504
0,455833	0,1	0,044253
0,457500	0,1	0,009534
0,459167	0,1	0,018287
0,460833	0,1	-0,003953
0,462500	0,1	-0,010460
0,464167	0,1	-0,029469
0,465833	0,1	-0,001043
0,467500	0,1	0,018615
0,469167	0,1	-0,031409
0,470833	0,1	0,053750
0,472500	0,1	-0,033680
0,474167	0,1	0,004278
0,475833	0,1	-0,025989
0,477500	0,1	0,014984
0,479167	0,1	0,034213
0,480833	0,1	0,020881
0,482500	0,1	0,000439
0,484167	0,1	0,016068
0,485833	0,1	-0,018571
0,487500	0,1	0,014884
0,489167	0,1	0,030070
0,490833	0,1	0,043971
0,492500	0,1	0,049753
0,494167	0,1	0,009309
0,495833	0,1	0,013378
0,497500	0,1	0,014911
0,499167	0,1	-0,004865
0,500833	0,1	-0,026341
0,502500	0,1	0,013513
0,504167	0,1	0,015327
0,505833	0,1	-0,014078
0,507500	0,1	0,014429
0,509167	0,1	-0,017412
0,510833	0,1	0,035117
0,512500	0,1	-0,000592
0,514167	0,1	0,012258
0,515833	0,1	0,031166
0,517500	0,1	0,009573
0,519167	0,1	-0,002878
0,520833	0,1	0,021618
0,522500	0,1	-0,029213
0,524167	0,1	-0,028459
0,525833	0,1	0,015834
0,527500	0,1	0,021043
0,529167	0,1	0,006341
0,530833	0,1	0,039989
0,532500	0,1	0,014980
0,534167	0,1	0,005345
0,535833	0,1	0,013212
0,537500	0,1	0,028972
0,539167	0,1	0,026120
0,540833	0,1	0,048566
0,542500	0,1	0,065513
0,544167	0,1	0,036109
0,545833	0,1	0,011356
0,547500	0,1	0,007561
0,549167	0,1	0,039181
0,550833	0,1	0,076818
0,552500	0,1	0,001508
0,554167	0,1	0,057093
0,555833	0,1	0,032773
0,557500	0,1	0,023553
0,559167	0,1	0,020256
0,560833	0,1	0,051031
0,562500	0,1	0,057685
0,564167	0,1	0,055243
0,565833	0,1	0,038425
0,567500	0,1	0,048779
0,569167	0,1	0,036477
0,570833	0,1	0,024196
0,572500	0,1	0,115918
0,574167	0,1	0,014625
0,575833	0,1	0,031478
0,577500	0,1	0,018417
0,579167	0,1	0,038417
0,580833	0,1	0,011170
0,582500	0,1	0,070640
0,584167	0,1	0,033977
0,585833	0,1	0,041568
0,587500	0,1	0,049627
0,589167	0,1	0,025813
0,590833	0,1	0,033823
0,592500	0,1	0,074789
0,594167	0,1	0,023563
0,595833	0,1	0,058507
0,597500	0,1	-0,016285
0,599167	0,1	0,044085
0,600833	0,1	0,041986
0,602500	0,1	0,027488
0,604167	0,1	0,060458
0,605833	0,1	0,075375
0,607500	0,1	0,056510
0,609167	0,1	0,020349
0,610833	0,1	0,062359
0,612500	0,1	0,056757
0,614167	0,1	0,070072
0,615833	0,1	0,070200
0,617500	0,1	0,071876
0,619167	0,1	0,031453
0,620833	0,1	0,064578
0,622500	0,1	0,081443
0,624167	0,1	0,069602
0,625833	0,1	0,037106
0,627500	0,1	0,059670
0,629167	0,1	0,098386
0,630833	0,1	0,067100
0,632500	0,1	0,029110
0,634167	0,1	0,048941
0,635833	0,1	0,086412
0,637500	0,1	0,087768
0,639167	0,1	0,032865
0,640833	0,1	0,099022
0,642500	0,1	0,072900
0,644167	0,1	0,085776
0,645833	0,1	0,108556
0,647500	0,1	0,069175
0,649167	0,1	0,087927
0,650833	0,1	0,076375
0,652500	0,1	0,099941
0,654167	0,1	0,101027
0,655833	0,1	0,092062
0,657500	0,1	0,103508
0,659167	0,1	0,103988
0,660833	0,1	0,078492
0,662500	0,1	0,104523
0,664167	0,1	0,062834
0,665833	0,1	0,088029
0,667500	0,1	0,084659
0,669167	0,1	0,108706
0,670833	0,1	0,104506
0,672500	0,1	0,120394
0,674167	0,1	0,123506
0,675833	0,1	0,117038
0,677500	0,1	0,103724
0,679167	0,1	0,107035
0,680833	0,1	0,115195
0,682500	0,1	0,147075
0,684167	0,1	0,092465
0,685833	0,1	0,147838
0,687500	0,1	0,086600
0,689167	0,1	0,162229
0,690833	0,1	0,132254
0,692500	0,1	0,104824
0,694167	0,1	0,133299
0,695833	0,1	0,144260
0,697500	0,1	0,132501
0,699167	0,1	0,126719
0,700833	0,1	0,131464
0,702500	0,1	0,124504
0,704167	0,1	0,135833
0,705833	0,1	0,174505
0,707500	0,1	0,171039
0,709167	0,1	0,143047
0,710833	0,1	0,104890
0,712500	0,1	0,130956
0,714167	0,1	0,157770
0,715833	0,1	0,143977
0,717500	0,1	0,126699
0,719167	0,1	0,185006
0,720833	0,1	0,177854
0,722500	0,1	0,175094
0,724167	0,1	0,190116
0,725833	0,1	0,204828
0,727500	0,1	0,225864
0,729167	0,1	0,179714
0,730833	0,1	0,219471
0,732500	0,1	0,233133
0,734167	0,1	0,211714
0,735833	0,1	0,189672
0,737500	0,1	0,229904
0,739167	0,1	0,224722
0,740833	0,1	0,219408
0,742500	0,1	0,235828
0,744167	0,1	0,226072
0,745833	0,1	0,233096
0,747500	0,1	0,248124
0,749167	0,1	0,245694
0,750833	0,1	0,265849
0,752500	0,1	0,240578
0,754167	0,1	0,251501
0,755833	0,1	0,220825
0,757500	0,1	0,202129
0,759167	0,1	0,265848
0,760833	0,1	0,213953
0,762500	0,1	0,241807
0,764167	0,1	0,257156
0,765833	0,1	0,268911
0,767500	0,1	0,285071
0,769167	0,1	0,241940
0,770833	0,1	0,250154
0,772500	0,1	0,265850
0,774167	0,1	0,285995
0,775833	0,1	0,223087
0,777500	0,1	0,255224
0,779167	0,1	0,274076
0,780833	0,1	0,238211
0,782500	0,1	0,273276
0,784167	0,1	0,255525
0,785833	0,1	0,222374
0,787500	0,1	0,305327
0,789167	0,1	0,262246
0,790833	0,1	0,225008
0,792500	0,1	0,265917
0,794167	0,1	0,280919
0,795833	0,1	0,259671
0,797500	0,1	0,282761
0,799167	0,1	0,241965
0,800833	0,1	0,266563
0,802500	0,1	0,257567
0,804167	0,1	0,256805
0,805833	0,1	0,273189
0,807500	0,1	0,293613
0,809167	0,1	0,248328
0,810833	0,1	0,236366
0,812500	0,1	0,290908
0,814167	0,1	0,294458
0,815833	0,1	0,290216
0,817500	0,1	0,262822
0,819167	0,1	0,275172
0,820833	0,1	0,269304
0,822500	0,1	0,275047
0,824167	0,1	0,250035
0,825833	0,1	0,266666
0,827500	0,1	0,296860
0,829167	0,1	0,271879
0,830833	0,1	0,271231
0,832500	0,1	0,279129
0,834167	0,1	0,238601
0,835833	0,1	0,267749
0,837500	0,1	0,252150
0,839167	0,1	0,278580
0,840833	0,1	0,249229
0,842500	0,1	0,271026
0,844167	0,1	0,271066
0,845833	0,1	0,293768
0,847500	0,1	0,291664
0,849167	0,1	0,287683
0,850833	0,1	0,281285
0,852500	0,1	0,267532
0,854167	0,1	0,247464
0,855833	0,1	0,318696
0,857500	0,1	0,294337
0,859167	0,1	0,298820
0,860833	0,1	0,262460
0,862500	0,1	0,308810
0,864167	0,1	0,286555
0,865833	0,1	0,229285
0,867500	0,1	0,285894
0,869167	0,1	0,312760
0,870833	0,1	0,284341
0,872500	0,1	0,280506
0,874167	0,1	0,255491
0,875833	0,1	0,322426
0,877500	0,1	0,285374
0,879167	0,1	0,265317
0,880833	0,1	0,312374
0,882500	0,1	0,272652
0,884167	0,1	0,264444
0,885833	0,1	0,301065
0,887500	0,1	0,266099
0,889167	0,1	0,324128
0,890833	0,1	0,248120
0,892500	0,1	0,275070
0,894167	0,1	0,320594
0,895833	0,1	0,315466
0,897500	0,1	0,292148
0,899167	0,1	0,290984
0,900833	0,1	0,315592
0,902500	0,1	0,292692
0,904167	0,1	0,305759
0,905833	0,1	0,333195
0,907500	0,1	0,290643
0,909167	0,1	0,297112
0,910833	0,1	0,323042
0,912500	0,1	0,341742
0,914167	0,1	0,306895
0,915833	0,1	0,303865
0,917500	0,1	0,305183
0,919167	0,1	0,278486
0,920833	0,1	0,318061
0,922500	0,1	0,334738
0,924167	0,1	0,289773
0,925833	0,1	0,341994
0,927500	0,1	0,315471
0,929167	0,1	0,330722
0,930833	0,1	0,321350
0,932500	0,1	0,318517
0,934167	0,1	0,309683
0,935833	0,1	0,327890
0,937500	0,1	0,375697
0,939167	0,1	0,327460
0,940833	0,1	0,330434
0,942500	0,1	0,330441
0,944167	0,1	0,341356
0,945833	0,1	0,321189
0,947500	0,1	0,346593
0,949167	0,1	0,369114
0,950833	0,1	0,342141
0,952500	0,1	0,307755
0,954167	0,1	0,403711
0,955833	0,1	0,329394
0,957500	0,1	0,362720
0,959167	0,1	0,372075
0,960833	0,1	0,372788
0,962500	0,1	0,367032
0,964167	0,1	0,360962
0,965833	0,1	0,321321
0,967500	0,1	0,346269
0,969167	0,1	0,371492
0,970833	0,1	0,386404
0,972500	0,1	0,393092
0,974167	0,1	0,367070
0,975833	0,1	0,392544
0,977500	0,1	0,345608
0,979167	0,1	0,364293
0,980833	0,1	0,383931
0,982500	0,1	0,394121
0,984167	0,1	0,407613
0,985833	0,1	0,427570
0,987500	0,1	0,407106
0,989167	0,1	0,376132
0,990833	0,1	0,419689
0,992500	0,1	0,434159
0,994167	0,1	0,449584
0,995833	0,1	0,436062
0,997500	0,1	0,433326
0,999167	0,1	0,444348
1,000833	0,1	0,469477
1,002500	0,1	0,490176
1,004167	0,1	0,406898
1,005833	0,1	0,496619
1,007500	0,1	0,490890
1,009167	0,1	0,505187
1,010833	0,1	0,503295
1,012500	0,1	0,526369
1,014167	0,1	0,523963
1,015833	0,1	0,552789
1,017500	0,1	0,530009
1,019167	0,1	0,546363
1,020833	0,1	0,621797
1,022500	0,1	0,607768
1,024167	0,1	0,593338
1,025833	0,1	0,589472
1,027500	0,1	0,636305
1,029167	0,1	0,641329
1,030833	0,1	0,645736
1,032500	0,1	0,645774
1,034167	0,1	0,646995
1,035833	0,1	0,701803
1,037500	0,1	0,677999
1,039167	0,1	0,681199
1,040833	0,1	0,678255
1,042500	0,1	0,674554
1,044167	0,1	0,727111
1,045833	0,1	0,725837
1,047500	0,1	0,766926
1,049167	0,1	0,729770
1,050833	0,1	0,747869
1,052500	0,1	0,782850
1,054167	0,1	0,824506
1,055833	0,1	0,889102
1,057500	0,1	0,914559
1,059167	0,1	1,028423
1,060833	0,1	1,103789
1,062500	0,1	1,293638
1,064167	0,1	1,416759
1,065833	0,1	1,639395
1,067500	0,1	1,965693
1,069167	0,1	2,286736
1,070833	0,1	2,776672
1,072500	0,1	3,282286
1,074167	0,1	3,973513
1,075833	0,1	4,785483
1,077500	0,1	5,716740
1,079167	0,1	6,798429
1,080833	0,1	8,053068
1,082500	0,1	9,507658
1,084167	0,1	11,014088
1,085833	0,1	12,734469
1,087500	0,1	14,610585
1,089167	0,1	16,532241
1,090833	0,1	18,581799
1,092500	0,1	20,671525
1,094167	0,1	22,842702
1,095833	0,1	24,939484
1,097500	0,1	27,026957
1,099167	0,1	29,076771
1,100833	0,1	31,022881
1,102500	0,1	32,828691
1,104167	0,1	34,511571
1,105833	0,1	36,043946
1,107500	0,1	37,395370
1,109167	0,1	38,503816
1,110833	0,1	39,522817
1,112500	0,1	40,331620
1,114167	0,1	40,947275
1,115833	0,1	41,387289
1,117500	0,1	41,731996
1,119167	0,1	41,929575
1,120833	0,1	41,951091
1,122500	0,1	41,937113
1,124167	0,1	41,812472
1,125833	0,1	41,562486
1,127500	0,1	41,284467
1,129167	0,1	40,991363
1,130833	0,1	40,657604
1,132500	0,1	40,297358
1,134167	0,1	39,951080
1,135833	0,1	39,668010
1,137500	0,1	39,392125
1,139167	0,1	39,191245
1,140833	0,1	38,942168
1,142500	0,1	38,816412
1,144167	0,1	38,846712
1,145833	0,1	38,832268
1,147500	0,1	38,954170
1,149167	0,1	39,134767
1,150833	0,1	39,427584
1,152500	0,1	39,781384
1,154167	0,1	40,230695
1,155833	0,1	40,672856
1,157500	0,1	41,258813
1,159167	0,1	41,905938
1,160833	0,1	42,587318
1,162500	0,1	43,279490
1,164167	0,1	44,032241
1,165833	0,1	44,745940
1,167500	0,1	45,524594
1,169167	0,1	46,225647
1,170833	0,1	46,916447
1,172500	0,1	47,587470
1,174167	0,1	48,228386
1,175833	0,1	48,815435
1,177500	0,1	49,370968
1,179167	0,1	49,849441
1,180833	0,1	50,253339
1,182500	0,1	50,584388
1,184167	0,1	50,970299
1,185833	0,1	51,241230
1,187500	0,1	51,502999
1,189167	0,1	51,689451
1,190833	0,1	51,965035
1,192500	0,1	52,197296
1,194167	0,1	52,477908
1,195833	0,1	52,795374
1,197500	0,1	53,171958
1,199167	0,1	53,682501
1,200833	0,1	54,390102
1,202500	0,1	55,185490
1,204167	0,1	56,212452
1,205833	0,1	57,402103
1,207500	0,1	58,870599
1,209167	0,1	60,511566
1,210833	0,1	62,555182
1,212500	0,1	64,769161
1,214167	0,1	67,270506
1,215833	0,1	70,070476
1,217500	0,1	73,102199
1,219167	0,1	76,325276
1,220833	0,1	79,823934
1,222500	0,1	83,522313
1,224167	0,1	87,255868
1,225833	0,1	91,145193
1,227500	0,1	95,133391
1,229167	0,1	99,078484
1,230833	0,1	103,052873
1,232500	0,1	106,879258
1,234167	0,1	110,702092
1,235833	0,1	114,268098
1,237500	0,1	117,689881
1,239167	0,1	120,939242
1,240833	0,1	123,901240
1,242500	0,1	126,591116
1,244167	0,1	129,056136
1,245833	0,1	131,181765
1,247500	0,1	133,042409
1,249167	0,1	134,541731
1,250833	0,1	135,774894
1,252500	0,1	136,650497
1,254167	0,1	137,235849
1,255833	0,1	137,561948
1,257500	0,1	137,554928
1,259167	0,1	137,247408
1,260833	0,1	136,670440
1,262500	0,1	135,816055
1,264167	0,1	134,739502
1,265833	0,1	133,438469
1,267500	0,1	131,809234
1,269167	0,1	130,036404
1,270833	0,1	128,061357
1,272500	0,1	125,890331
1,274167	0,1	123,596516
1,275833	0,1	121,134394
1,277500	0,1	118,546276
1,279167	0,1	115,934627
1,280833	0,1	113,115170
1,282500	0,1	110,281463
1,284167	0,1	107,370534
1,285833	0,1	104,450074
1,287500	0,1	101,498616
1,289167	0,1	98,595386
1,290833	0,1	95,638944
1,292500	0,1	92,746682
1,294167	0,1	89,894889
1,295833	0,1	87,108122
1,297500	0,1	84,331034
1,299167	0,1	81,625826
1,300833	0,1	79,034542
1,302500	0,1	76,434521
1,304167	0,1	74,001705
1,305833	0,1	71,633724
1,307500	0,1	69,303665
1,309167	0,1	67,117339
1,310833	0,1	65,009722
1,312500	0,1	62,960734
1,314167	0,1	60,969921
1,315833	0,1	59,209366
1,317500	0,1	57,318178
1,319167	0,1	55,680757
1,320833	0,1	54,009287
1,322500	0,1	52,422665
1,324167	0,1	50,938771
1,325833	0,1	49,483987
1,327500	0,1	48,135596
1,329167	0,1	46,811031
1,330833	0,1	45,507269
1,332500	0,1	44,300691
1,334167	0,1	43,110656
1,335833	0,1	41,985216
1,337500	0,1	40,909480
1,339167	0,1	39,820645
1,340833	0,1	38,835770
1,342500	0,1	37,848036
1,344167	0,1	36,878597
1,345833	0,1	35,990361
1,347500	0,1	35,104910
1,349167	0,1	34,260387
1,350833	0,1	33,448958
1,352500	0,1	32,607835
1,354167	0,1	31,806780
1,355833	0,1	31,075681
1,357500	0,1	30,315161
1,359167	0,1	29,549812
1,360833	0,1	28,914249
1,362500	0,1	28,197485
1,364167	0,1	27,548423
1,365833	0,1	26,897181
1,367500	0,1	26,277996
1,369167	0,1	25,706635
1,370833	0,1	25,086521
1,372500	0,1	24,491791
1,374167	0,1	23,880413
1,375833	0,1	23,335307
1,377500	0,1	22,794555
1,379167	0,1	22,294273
1,380833	0,1	21,757341
1,382500	0,1	21,248076
1,384167	0,1	20,758241
1,385833	0,1	20,287388
1,387500	0,1	19,855078
1,389167	0,1	19,403601
1,390833	0,1	18,950510
1,392500	0,1	18,591761
1,394167	0,1	18,174774
1,395833	0,1	17,822795
1,397500	0,1	17,363543
1,399167	0,1	17,038140
1,400833	0,1	16,692868
1,402500	0,1	16,359926
1,404167	0,1	16,037473
1,405833	0,1	15,707277
1,407500	0,1	15,385309
1,409167	0,1	15,124725
1,410833	0,1	14,824216
1,412500	0,1	14,551212
1,414167	0,1	14,292477
1,415833	0,1	14,018674
1,417500	0,1	13,824087
1,419167	0,1	13,568583
1,420833	0,1	13,321455
1,422500	0,1	13,110656
1,424167	0,1	12,910092
1,425833	0,1	12,707789
1,427500	0,1	12,509908
1,429167	0,1	12,314456
1,430833	0,1	12,067604
1,432500	0,1	11,932225
1,434167	0,1	11,744262
1,435833	0,1	11,579364
1,437500	0,1	11,409171
1,439167	0,1	11,204361
1,440833	0,1	11,091029
1,442500	0,1	10,936385
1,444167	0,1	10,773832
1,445833	0,1	10,617369
1,447500	0,1	10,443918
1,449167	0,1	10,295616
1,450833	0,1	10,160090
1,452500	0,1	10,008457
1,454167	0,1	9,921656
1,455833	0,1	9,795745
1,457500	0,1	9,602258
1,459167	0,1	9,522284
1,460833	0,1	9,370963
1,462500	0,1	9,288320
1,464167	0,1	9,114061
1,465833	0,1	9,030053
1,467500	0,1	8,914653
1,469167	0,1	8,854549
1,470833	0,1	8,721556
1,472500	0,1	8,594002
1,474167	0,1	8,528752
1,475833	0,1	8,434996
1,477500	0,1	8,333213
1,479167	0,1	8,277412
1,480833	0,1	8,230727
1,482500	0,1	8,113430
1,484167	0,1	8,063814
1,485833	0,1	7,975539
1,487500	0,1	7,976305
1,489167	0,1	7,853906
1,490833	0,1	7,799433
1,492500	0,1	7,796831
1,494167	0,1	7,765324
1,495833	0,1	7,663951
1,497500	0,1	7,662436
1,499167	0,1	7,581619
1,500833	0,1	7,589526
1,502500	0,1	7,558085
1,504167	0,1	7,533345
1,505833	0,1	7,461416
1,507500	0,1	7,483212
1,509167	0,1	7,442913
1,510833	0,1	7,394791
1,512500	0,1	7,386101
1,514167	0,1	7,345332
1,515833	0,1	7,329095
1,517500	0,1	7,299344
1,519167	0,1	7,296795
1,520833	0,1	7,259143
1,522500	0,1	7,258380
1,524167	0,1	7,220058
1,525833	0,1	7,183684
1,527500	0,1	7,177055
1,529167	0,1	7,189362
1,530833	0,1	7,145450
1,532500	0,1	7,084940
1,534167	0,1	7,090052
1,535833	0,1	7,066841
1,537500	0,1	7,005138
1,539167	0,1	6,997294
1,540833	0,1	6,945385
1,542500	0,1	6,974445
1,544167	0,1	6,896460
1,545833	0,1	6,952070
1,547500	0,1	6,899900
1,549167	0,1	6,838211
1,550833	0,1	6,843879
1,552500	0,1	6,776249
1,554167	0,1	6,814245
1,555833	0,1	6,758550
1,557500	0,1	6,709355
1,559167	0,1	6,689041
1,560833	0,1	6,639957
1,562500	0,1	6,621795
1,564167	0,1	6,584344
1,565833	0,1	6,576067
1,567500	0,1	6,518327
1,569167	0,1	6,464874
1,570833	0,1	6,445329
1,572500	0,1	6,382482
1,574167	0,1	6,377363
1,575833	0,1	6,348619
1,577500	0,1	6,335584
1,579167	0,1	6,315679
1,580833	0,1	6,261707
1,582500	0,1	6,207600
1,584167	0,1	6,156819
1,585833	0,1	6,143223
1,587500	0,1	6,134756
1,589167	0,1	6,094425
1,590833	0,1	6,067610
1,592500	0,1	6,034762
1,594167	0,1	6,016261
1,595833	0,1	5,963613
1,597500	0,1	5,935186
1,599167	0,1	5,899743
1,600833	0,1	5,898079
1,602500	0,1	5,848275
1,604167	0,1	5,807524
1,605833	0,1	5,788208
1,607500	0,1	5,728585
1,609167	0,1	5,781489
1,610833	0,1	5,704253
1,612500	0,1	5,672540
1,614167	0,1	5,643217
1,615833	0,1	5,618303
1,617500	0,1	5,592355
1,619167	0,1	5,560332
1,620833	0,1	5,572183
1,622500	0,1	5,506148
1,624167	0,1	5,537684
1,625833	0,1	5,488826
1,627500	0,1	5,493885
1,629167	0,1	5,505458
1,630833	0,1	5,489445
1,632500	0,1	5,473363
1,634167	0,1	5,490781
1,635833	0,1	5,490028
1,637500	0,1	5,517766
1,639167	0,1	5,574078
1,640833	0,1	5,578795
1,642500	0,1	5,633964
1,644167	0,1	5,694499
1,645833	0,1	5,714269
1,647500	0,1	5,817691
1,649167	0,1	5,845693
1,650833	0,1	5,980227
1,652500	0,1	6,061686
1,654167	0,1	6,226009
1,655833	0,1	6,383668
1,657500	0,1	6,503679
1,659167	0,1	6,735279
1,660833	0,1	6,879350
1,662500	0,1	7,117503
1,664167	0,1	7,370548
1,665833	0,1	7,627001
1,667500	0,1	7,969046
1,669167	0,1	8,313092
1,670833	0,1	8,628003
1,672500	0,1	9,056123
1,674167	0,1	9,463074
1,675833	0,1	9,916838
1,677500	0,1	10,423092
1,679167	0,1	10,928942
1,680833	0,1	11,502311
1,682500	0,1	12,069119
1,684167	0,1	12,717502
1,685833	0,1	13,406621
1,687500	0,1	14,123175
1,689167	0,1	14,865804
1,690833	0,1	15,664930
1,692500	0,1	16,524228
1,694167	0,1	17,390996
1,695833	0,1	18,259621
1,697500	0,1	19,204791
1,699167	0,1	20,249447
1,700833	0,1	21,232407
1,702500	0,1	22,343699
1,704167	0,1	23,433757
1,705833	0,1	24,504836
1,707500	0,1	25,667890
1,709167	0,1	26,863635
1,710833	0,1	28,048212
1,712500	0,1	29,237127
1,714167	0,1	30,513004
1,715833	0,1	31,766150
1,717500	0,1	33,045601
1,719167	0,1	34,335985
1,720833	0,1	35,610587
1,722500	0,1	36,883648
1,724167	0,1	38,226424
1,725833	0,1	39,482902
1,727500	0,1	40,828679
1,729167	0,1	42,125946
1,730833	0,1	43,409099
1,732500	0,1	44,644212
1,734167	0,1	45,913228
1,735833	0,1	47,140346
1,737500	0,1	48,365102
1,739167	0,1	49,510693
1,740833	0,1	50,736668
1,742500	0,1	51,801392
1,744167	0,1	52,955136
1,745833	0,1	53,953328
1,747500	0,1	54,995824
1,749167	0,1	55,958597
1,750833	0,1	56,914695
1,752500	0,1	57,793622
1,754167	0,1	58,654650
1,755833	0,1	59,411616
1,757500	0,1	60,146962
1,759167	0,1	60,867105
1,760833	0,1	61,495730
1,762500	0,1	62,098604
1,764167	0,1	62,633716
1,765833	0,1	63,094294
1,767500	0,1	63,544097
1,769167	0,1	63,884272
1,770833	0,1	64,151386
1,772500	0,1	64,457603
1,774167	0,1	64,614652
1,775833	0,1	64,827044
1,777500	0,1	64,902191
1,779167	0,1	64,917677
1,780833	0,1	64,896437
1,782500	0,1	64,828790
1,784167	0,1	64,696500
1,785833	0,1	64,575979
1,787500	0,1	64,368185
1,789167	0,1	64,083870
1,790833	0,1	63,704234
1,792500	0,1	63,376705
1,794167	0,1	62,977030
1,795833	0,1	62,575031
1,797500	0,1	62,077500
1,799167	0,1	61,587668
1,800833	0,1	60,984595
1,802500	0,1	60,415262
1,804167	0,1	59,734416
1,805833	0,1	59,124768
1,807500	0,1	58,415773
1,809167	0,1	57,726399
1,810833	0,1	56,984325
1,812500	0,1	56,253698
1,814167	0,1	55,460948
1,815833	0,1	54,664216
1,817500	0,1	53,802464
1,819167	0,1	52,969300
1,820833	0,1	52,144278
1,822500	0,1	51,318832
1,824167	0,1	50,473983
1,825833	0,1	49,551047
1,827500	0,1	48,660504
1,829167	0,1	47,765565
1,830833	0,1	46,897226
1,832500	0,1	45,972007
1,834167	0,1	45,079066
1,835833	0,1	44,215780
1,837500	0,1	43,348250
1,839167	0,1	42,477251
1,840833	0,1	41,579541
1,842500	0,1	40,705838
1,844167	0,1	39,810346
1,845833	0,1	38,998966
1,847500	0,1	38,179681
1,849167	0,1	37,341547
1,850833	0,1	36,549212
1,852500	0,1	35,776481
1,854167	0,1	34,973277
1,855833	0,1	34,255829
1,857500	0,1	33,514478
1,859167	0,1	32,799466
1,860833	0,1	32,100237
1,862500	0,1	31,444456
1,864167	0,1	30,759873
1,865833	0,1	30,120768
1,867500	0,1	29,475614
1,869167	0,1	28,846880
1,870833	0,1	28,278614
1,872500	0,1	27,657356
1,874167	0,1	27,115254
1,875833	0,1	26,485913
1,877500	0,1	25,990289
1,879167	0,1	25,440301
1,880833	0,1	24,929582
1,882500	0,1	24,341030
1,884167	0,1	23,861983
1,885833	0,1	23,416678
1,887500	0,1	22,893856
1,889167	0,1	22,403422
1,890833	0,1	21,991178
1,892500	0,1	21,530434
1,894167	0,1	21,104971
1,895833	0,1	20,640178
1,897500	0,1	20,232044
1,899167	0,1	19,847306
1,900833	0,1	19,425761
1,902500	0,1	19,053831
1,904167	0,1	18,670824
1,905833	0,1	18,273663
1,907500	0,1	17,960618
1,909167	0,1	17,607618
1,910833	0,1	17,256726
1,912500	0,1	16,969204
1,914167	0,1	16,647650
1,915833	0,1	16,305530
1,917500	0,1	16,029211
1,919167	0,1	15,711268
1,920833	0,1	15,436388
1,922500	0,1	15,150257
1,924167	0,1	14,872684
1,925833	0,1	14,597807
1,927500	0,1	14,342911
1,929167	0,1	14,061495
1,930833	0,1	13,807428
1,932500	0,1	13,616045
1,934167	0,1	13,341297
1,935833	0,1	13,106718
1,937500	0,1	12,834409
1,939167	0,1	12,667940
1,940833	0,1	12,388583
1,942500	0,1	12,204117
1,944167	0,1	11,960470
1,945833	0,1	11,760672
1,947500	0,1	11,601142
1,949167	0,1	11,369523
1,950833	0,1	11,180816
1,952500	0,1	11,063864
1,954167	0,1	10,855096
1,955833	0,1	10,685370
1,957500	0,1	10,504929
1,959167	0,1	10,372771
1,960833	0,1	10,214381
1,962500	0,1	10,028149
1,964167	0,1	9,905092
1,965833	0,1	9,734091
1,967500	0,1	9,653542
1,969167	0,1	9,513948
1,970833	0,1	9,338029
1,972500	0,1	9,241925
1,974167	0,1	9,148764
1,975833	0,1	9,031167
1,977500	0,1	8,929009
1,979167	0,1	8,774832
1,980833	0,1	8,681864
1,982500	0,1	8,612653
1,984167	0,1	8,536482
1,985833	0,1	8,456708
1,987500	0,1	8,378571
1,989167	0,1	8,249823
1,990833	0,1	8,180904
1,992500	0,1	8,103248
1,994167	0,1	8,041381
1,995833	0,1	8,028630
1,997500	0,1	7,971674
1,999167	0,1	7,875115
2,000833	0,1	7,815247
2,002500	0,1	7,788144
2,004167	0,1	7,781660
2,005833	0,1	7,689266
2,007500	0,1	7,664972
2,009167	0,1	7,607826
2,010833	0,1	7,578897
2,012500	0,1	7,599421
2,014167	0,1	7,521232
2,015833	0,1	7,508071
2,017500	0,1	7,456448
2,019167	0,1	7,472013
2,020833	0,1	7,455986
2,022500	0,1	7,441138
2,024167	0,1	7,400749
2,025833	0,1	7,397570
2,027500	0,1	7,421063
2,029167	0,1	7,411941
2,030833	0,1	7,398403
2,032500	0,1	7,414452
2,034167	0,1	7,423503
2,035833	0,1	7,424348
2,037500	0,1	7,456428
2,039167	0,1	7,418855
2,040833	0,1	7,411649
2,042500	0,1	7,429760
2,044167	0,1	7,451109
2,045833	0,1	7,471368
2,047500	0,1	7,451304
2,049167	0,1	7,517172
2,050833	0,1	7,501697
2,052500	0,1	7,490511
2,054167	0,1	7,500025
2,055833	0,1	7,499836
2,057500	0,1	7,510104
2,059167	0,1	7,564598
2,060833	0,1	7,568523
2,062500	0,1	7,582346
2,064167	0,1	7,592543
2,065833	0,1	7,605284
2,067500	0,1	7,599243
2,069167	0,1	7,655128
2,070833	0,1	7,655344
2,072500	0,1	7,624841
2,074167	0,1	7,686422
2,075833	0,1	7,677084
2,077500	0,1	7,700195
2,079167	0,1	7,686076
2,080833	0,1	7,745586
2,082500	0,1	7,708387
2,084167	0,1	7,735159
2,085833	0,1	7,724697
2,087500	0,1	7,762161
2,089167	0,1	7,772820
2,090833	0,1	7,813027
2,092500	0,1	7,798367
2,094167	0,1	7,765460
2,095833	0,1	7,756821
2,097500	0,1	7,779789
2,099167	0,1	7,847308
2,100833	0,1	7,805325
2,102500	0,1	7,812867
2,104167	0,1	7,809381
2,105833	0,1	7,808281
2,107500	0,1	7,801491
2,109167	0,1	7,805482
2,110833	0,1	7,797752
2,112500	0,1	7,840511
2,114167	0,1	7,827908
2,115833	0,1	7,807255
2,117500	0,1	7,794495
2,119167	0,1	7,796610
2,120833	0,1	7,830403
2,122500	0,1	7,811397
2,124167	0,1	7,822840
2,125833	0,1	7,801663
2,127500	0,1	7,793998
2,129167	0,1	7,759553
2,130833	0,1	7,754607
2,132500	0,1	7,789423
2,134167	0,1	7,715695
2,135833	0,1	7,728650
2,137500	0,1	7,745703
2,139167	0,1	7,713241
2,140833	0,1	7,703248
2,142500	0,1	7,679082
2,144167	0,1	7,686724
2,145833	0,1	7,646301
2,147500	0,1	7,638547
2,149167	0,1	7,639114
2,150833	0,1	7,619302
2,152500	0,1	7,588794
2,154167	0,1	7,557885
2,155833	0,1	7,548002
2,157500	0,1	7,526548
2,159167	0,1	7,511879
2,160833	0,1	7,512693
2,162500	0,1	7,482947
2,164167	0,1	7,482478
2,165833	0,1	7,442465
2,167500	0,1	7,452800
2,169167	0,1	7,403555
2,170833	0,1	7,427037
2,172500	0,1	7,395414
2,174167	0,1	7,336747
2,175833	0,1	7,354733
2,177500	0,1	7,306615
2,179167	0,1	7,275165
2,180833	0,1	7,297362
2,182500	0,1	7,269203
2,184167	0,1	7,244388
2,185833	0,1	7,225084
2,187500	0,1	7,198980
2,189167	0,1	7,187873
2,190833	0,1	7,142005
2,192500	0,1	7,117095
2,194167	0,1	7,119052
2,195833	0,1	7,129113
2,197500	0,1	7,112154
2,199167	0,1	7,070011
2,200833	0,1	7,046332
2,202500	0,1	7,016689
2,204167	0,1	7,032242
2,205833	0,1	7,000376
2,207500	0,1	6,958804
2,209167	0,1	6,961962
2,210833	0,1	6,948264
2,212500	0,1	6,931767
2,214167	0,1	6,951799
2,215833	0,1	6,921055
2,217500	0,1	6,874832
2,219167	0,1	6,874635
2,220833	0,1	6,819478
2,222500	0,1	6,843878
2,224167	0,1	6,792276
2,225833	0,1	6,806424
2,227500	0,1	6,802141
2,229167	0,1	6,790496
2,230833	0,1	6,767112
2,232500	0,1	6,760305
2,234167	0,1	6,755278
2,235833	0,1	6,782851
2,237500	0,1	6,710851
2,239167	0,1	6,723317
2,240833	0,1	6,731422
2,242500	0,1	6,676295
2,244167	0,1	6,703647
2,245833	0,1	6,662775
2,247500	0,1	6,655503
2,249167	0,1	6,648520
2,250833	0,1	6,620484
2,252500	0,1	6,625223
2,254167	0,1	6,672548
2,255833	0,1	6,612206
2,257500	0,1	6,625512
2,259167	0,1	6,584070
2,260833	0,1	6,609775
2,262500	0,1	6,570112
2,264167	0,1	6,590010
2,265833	0,1	6,565344
2,267500	0,1	6,534342
2,269167	0,1	6,548592
2,270833	0,1	6,479048
2,272500	0,1	6,519620
2,274167	0,1	6,489760
2,275833	0,1	6,469443
2,277500	0,1	6,459573
2,279167	0,1	6,459122
2,280833	0,1	6,440691
2,282500	0,1	6,449981
2,284167	0,1	6,427750
2,285833	0,1	6,380822
2,287500	0,1	6,359972
2,289167	0,1	6,373006
2,290833	0,1	6,370295
2,292500	0,1	6,381212
2,294167	0,1	6,329918
2,295833	0,1	6,301800
2,297500	0,1	6,277314
2,299167	0,1	6,273040
2,300833	0,1	6,248090
2,302500	0,1	6,245389
2,304167	0,1	6,229939
2,305833	0,1	6,225947
2,307500	0,1	6,168757
2,309167	0,1	6,111323
2,310833	0,1	6,148266
2,312500	0,1	6,113744
2,314167	0,1	6,101928
2,315833	0,1	6,103417
2,317500	0,1	6,063427
2,319167	0,1	6,066226
2,320833	0,1	6,042778
2,322500	0,1	6,046104
2,324167	0,1	6,026706
2,325833	0,1	6,005223
2,327500	0,1	5,965918
2,329167	0,1	5,960124
2,330833	0,1	5,966334
2,332500	0,1	5,903774
2,334167	0,1	5,873707
2,335833	0,1	5,824603
2,337500	0,1	5,865721
2,339167	0,1	5,824322
2,340833	0,1	5,803913
2,342500	0,1	5,807846
2,344167	0,1	5,788805
2,345833	0,1	5,793848
2,347500	0,1	5,782806
2,349167	0,1	5,765766
2,350833	0,1	5,719246
2,352500	0,1	5,761145
2,354167	0,1	5,695335
2,355833	0,1	5,730479
2,357500	0,1	5,680631
2,359167	0,1	5,693840
2,360833	0,1	5,662450
2,362500	0,1	5,664977
2,364167	0,1	5,666628
2,365833	0,1	5,660261
2,367500	0,1	5,600013
2,369167	0,1	5,629522
2,370833	0,1	5,628491
2,372500	0,1	5,685130
2,374167	0,1	5,697180
2,375833	0,1	5,680623
2,377500	0,1	5,675824
2,379167	0,1	5,681531
2,380833	0,1	5,713403
2,382500	0,1	5,710371
2,384167	0,1	5,740152
2,385833	0,1	5,812244
2,387500	0,1	5,810574
2,389167	0,1	5,835104
2,390833	0,1	5,937686
2,392500	0,1	5,997762
2,394167	0,1	6,073219
2,395833	0,1	6,121460
2,397500	0,1	6,172705
2,399167	0,1	6,270389
2,400833	0,1	6,342350
2,402500	0,1	6,469974
2,404167	0,1	6,614123
2,405833	0,1	6,726370
2,407500	0,1	6,901619
2,409167	0,1	7,044144
2,410833	0,1	7,177391
2,412500	0,1	7,349472
2,414167	0,1	7,544033
2,415833	0,1	7,699384
2,417500	0,1	7,971858
2,419167	0,1	8,204843
2,420833	0,1	8,443237
2,422500	0,1	8,641810
2,424167	0,1	8,912667
2,425833	0,1	9,138541
2,427500	0,1	9,356305
2,429167	0,1	9,670475
2,430833	0,1	10,004214
2,432500	0,1	10,297108
2,434167	0,1	10,624709
2,435833	0,1	10,870833
2,437500	0,1	11,198207
2,439167	0,1	11,557952
2,440833	0,1	11,880327
2,442500	0,1	12,198713
2,444167	0,1	12,564493
2,445833	0,1	12,825985
2,447500	0,1	13,157393
2,449167	0,1	13,489053
2,450833	0,1	13,819737
2,452500	0,1	14,156953
2,454167	0,1	14,459904
2,455833	0,1	14,816055
2,457500	0,1	15,077650
2,459167	0,1	15,453669
2,460833	0,1	15,709399
2,462500	0,1	16,033455
2,464167	0,1	16,370841
2,465833	0,1	16,693120
2,467500	0,1	17,036993
2,469167	0,1	17,335364
2,470833	0,1	17,656656
2,472500	0,1	18,003028
2,474167	0,1	18,357762
2,475833	0,1	18,707923
2,477500	0,1	19,091862
2,479167	0,1	19,449408
2,480833	0,1	19,888692
2,482500	0,1	20,368678
2,484167	0,1	20,795480
2,485833	0,1	21,294621
2,487500	0,1	21,846299
2,489167	0,1	22,409939
2,490833	0,1	23,007989
2,492500	0,1	23,652476
2,494167	0,1	24,353929
2,495833	0,1	25,155348
2,497500	0,1	25,943808
2,499167	0,1	26,740198
2,500833	0,1	27,722410
2,502500	0,1	28,753553
2,504167	0,1	29,811663
2,505833	0,1	30,989070
2,507500	0,1	32,181489
2,509167	0,1	33,550494
2,510833	0,1	34,930089
2,512500	0,1	36,427394
2,514167	0,1	37,981933
2,515833	0,1	39,583409
2,517500	0,1	41,349736
2,519167	0,1	43,193264
2,520833	0,1	45,135118
2,522500	0,1	47,110144
2,524167	0,1	49,261436
2,525833	0,1	51,411923
2,527500	0,1	53,649076
2,529167	0,1	56,018048
2,530833	0,1	58,483606
2,532500	0,1	60,983371
2,534167	0,1	63,499560
2,535833	0,1	66,150409
2,537500	0,1	68,815180
2,539167	0,1	71,576223
2,540833	0,1	74,358096
2,542500	0,1	77,169802
2,544167	0,1	80,039466
2,545833	0,1	82,946655
2,547500	0,1	85,840416
2,549167	0,1	88,727906
2,550833	0,1	91,651511
2,552500	0,1	94,579660
2,554167	0,1	97,461428
2,555833	0,1	100,349945
2,557500	0,1	103,176573
2,559167	0,1	106,026544
2,560833	0,1	108,789842
2,562500	0,1	111,466417
2,564167	0,1	114,180079
2,565833	0,1	116,716928
2,567500	0,1	119,288490
2,569167	0,1	121,768433
2,570833	0,1	124,130243
2,572500	0,1	126,424141
2,574167	0,1	128,603359
2,575833	0,1	130,756145
2,577500	0,1	132,713941
2,579167	0,1	134,661723
2,580833	0,1	136,486438
2,582500	0,1	138,222314
2,584167	0,1	139,859142
2,585833	0,1	141,418587
2,587500	0,1	142,786066
2,589167	0,1	144,080029
2,590833	0,1	145,278727
2,592500	0,1	146,392327
2,594167	0,1	147,354328
2,595833	0,1	148,263270
2,597500	0,1	149,057815
2,599167	0,1	149,732271
2,600833	0,1	150,323003
2,602500	0,1	150,745407
2,604167	0,1	151,156330
2,605833	0,1	151,530284
2,607500	0,1	151,706206
2,609167	0,1	151,798824
2,610833	0,1	151,885658
2,612500	0,1	151,784474
2,614167	0,1	151,654315
2,615833	0,1	151,397728
2,617500	0,1	151,075323
2,619167	0,1	150,748313
2,620833	0,1	150,271549
2,622500	0,1	149,778363
2,624167	0,1	149,192960
2,625833	0,1	148,520133
2,627500	0,1	147,778634
2,629167	0,1	147,008720
2,630833	0,1	146,181537
2,632500	0,1	145,289169
2,634167	0,1	144,267947
2,635833	0,1	143,255730
2,637500	0,1	142,218437
2,639167	0,1	141,087660
2,640833	0,1	139,954578
2,642500	0,1	138,711052
2,644167	0,1	137,425328
2,645833	0,1	136,126703
2,647500	0,1	134,831825
2,649167	0,1	133,478229
2,650833	0,1	132,008356
2,652500	0,1	130,532981
2,654167	0,1	129,109475
2,655833	0,1	127,615086
2,657500	0,1	126,089011
2,659167	0,1	124,482466
2,660833	0,1	122,924389
2,662500	0,1	121,322127
2,664167	0,1	119,727366
2,665833	0,1	118,088672
2,667500	0,1	116,407972
2,669167	0,1	114,727127
2,670833	0,1	113,045279
2,672500	0,1	111,380620
2,674167	0,1	109,697234
2,675833	0,1	107,986227
2,677500	0,1	106,330851
2,679167	0,1	104,573970
2,680833	0,1	102,903332
2,682500	0,1	101,214302
2,684167	0,1	99,525094
2,685833	0,1	97,854708
2,687500	0,1	96,185131
2,689167	0,1	94,482721
2,690833	0,1	92,832603
2,692500	0,1	91,212548
2,694167	0,1	89,551840
2,695833	0,1	87,933285
2,697500	0,1	86,319747
2,699167	0,1	84,734040
2,700833	0,1	83,164008
2,702500	0,1	81,609437
2,704167	0,1	80,051877
2,705833	0,1	78,540444
2,707500	0,1	77,081001
2,709167	0,1	75,577223
2,710833	0,1	74,137088
2,712500	0,1	72,669583
2,714167	0,1	71,277498
2,715833	0,1	69,921398
2,717500	0,1	68,575226
2,719167	0,1	67,201704
2,720833	0,1	65,902950
2,722500	0,1	64,620396
2,724167	0,1	63,326212
2,725833	0,1	62,165753
2,727500	0,1	60,919711
2,729167	0,1	59,711448
2,730833	0,1	58,593436
2,732500	0,1	57,410265
2,734167	0,1	56,289404
2,735833	0,1	55,251876
2,737500	0,1	54,150419
2,739167	0,1	53,129054
2,740833	0,1	52,107204
2,742500	0,1	51,078725
2,744167	0,1	50,134776
2,745833	0,1	49,161856
2,747500	0,1	48,239602
2,749167	0,1	47,327207
2,750833	0,1	46,444578
2,752500	0,1	45,553025
2,754167	0,1	44,769315
2,755833	0,1	43,902830
2,757500	0,1	43,107790
2,759167	0,1	42,301375
2,760833	0,1	41,521319
2,762500	0,1	40,737672
2,764167	0,1	40,020012
2,765833	0,1	39,312253
2,767500	0,1	38,571300
2,769167	0,1	37,858004
2,770833	0,1	37,232355
2,772500	0,1	36,545242
2,774167	0,1	35,938212
2,775833	0,1	35,252222
2,777500	0,1	34,650738
2,779167	0,1	34,039883
2,780833	0,1	33,386635
2,782500	0,1	32,829898
2,784167	0,1	32,242262
2,785833	0,1	31,733373
2,787500	0,1	31,167307
2,789167	0,1	30,621524
2,790833	0,1	30,103622
2,792500	0,1	29,555407
2,794167	0,1	29,090921
2,795833	0,1	28,582061
2,797500	0,1	28,112134
2,799167	0,1	27,613015
2,800833	0,1	27,098405
2,802500	0,1	26,664744
2,804167	0,1	26,176360
2,805833	0,1	25,748338
2,807500	0,1	25,346583
2,809167	0,1	24,881116
2,810833	0,1	24,490731
2,812500	0,1	24,076273
2,814167	0,1	23,662225
2,815833	0,1	23,259825
2,817500	0,1	22,876724
2,819167	0,1	22,488343
2,820833	0,1	22,117912
2,822500	0,1	21,764177
2,824167	0,1	21,380841
2,825833	0,1	21,036147
2,827500	0,1	20,716799
2,829167	0,1	20,352055
2,830833	0,1	20,015006
2,832500	0,1	19,651560
2,834167	0,1	19,333447
2,835833	0,1	19,031752
2,837500	0,1	18,710863
2,839167	0,1	18,454227
2,840833	0,1	18,132808
2,842500	0,1	17,840317
2,844167	0,1	17,506515
2,845833	0,1	17,281507
2,847500	0,1	16,969989
2,849167	0,1	16,720074
2,850833	0,1	16,459674
2,852500	0,1	16,196974
2,854167	0,1	15,973625
2,855833	0,1	15,738678
2,857500	0,1	15,457825
2,859167	0,1	15,204779
2,860833	0,1	14,993375
2,862500	0,1	14,794425
2,864167	0,1	14,525685
2,865833	0,1	14,344533
2,867500	0,1	14,120798
2,869167	0,1	13,914019
2,870833	0,1	13,708083
2,872500	0,1	13,488252
2,874167	0,1	13,316897
2,875833	0,1	13,104878
2,877500	0,1	12,972470
2,879167	0,1	12,773678
2,880833	0,1	12,576390
2,882500	0,1	12,444000
2,884167	0,1	12,240673
2,885833	0,1	12,071858
2,887500	0,1	11,964326
2,889167	0,1	11,765230
2,890833	0,1	11,680511
2,892500	0,1	11,473536
2,894167	0,1	11,338567
2,895833	0,1	11,209726
2,897500	0,1	11,015145
2,899167	0,1	10,911960
2,900833	0,1	10,775805
2,902500	0,1	10,637652
2,904167	0,1	10,536269
2,905833	0,1	10,421604
2,907500	0,1	10,285650
2,909167	0,1	10,179587
2,910833	0,1	10,061459
2,912500	0,1	9,952264
2,914167	0,1	9,818606
2,915833	0,1	9,745697
2,917500	0,1	9,593899
2,919167	0,1	9,491758
2,920833	0,1	9,390568
2,922500	0,1	9,320393
2,924167	0,1	9,185394
2,925833	0,1	9,082809
2,927500	0,1	9,018075
2,929167	0,1	8,876049
2,930833	0,1	8,854775
2,932500	0,1	8,759972
2,934167	0,1	8,684981
2,935833	0,1	8,550025
2,937500	0,1	8,464765
2,939167	0,1	8,400270
2,940833	0,1	8,296918
2,942500	0,1	8,239158
2,944167	0,1	8,150769
2,945833	0,1	8,107641
2,947500	0,1	8,023316
2,949167	0,1	7,922850
2,950833	0,1	7,888718
2,952500	0,1	7,780015
2,954167	0,1	7,728459
2,955833	0,1	7,646504
2,957500	0,1	7,539898
2,959167	0,1	7,511872
2,960833	0,1	7,467184
2,962500	0,1	7,350760
2,964167	0,1	7,331981
2,965833	0,1	7,249540
2,967500	0,1	7,219111
2,969167	0,1	7,147791
2,970833	0,1	7,049894
2,972500	0,1	6,973725
2,974167	0,1	6,932892
2,975833	0,1	6,868965
2,977500	0,1	6,838769
2,979167	0,1	6,807647
2,980833	0,1	6,719701
2,982500	0,1	6,680577
2,984167	0,1	6,613603
2,985833	0,1	6,569004
2,987500	0,1	6,497585
2,989167	0,1	6,483611
2,990833	0,1	6,410803
2,992500	0,1	6,350780
2,994167	0,1	6,322196
2,995833	0,1	6,258723
2,997500	0,1	6,230534
2,999167	0,1	6,166907
3,000833	0,1	6,100471
3,002500	0,1	6,047521
3,004167	0,1	6,000719
3,005833	0,1	5,999063
3,007500	0,1	5,933998
3,009167	0,1	5,883106
3,010833	0,1	5,804437
3,012500	0,1	5,784181
3,014167	0,1	5,766436
3,015833	0,1	5,753123
3,017500	0,1	5,675667
3,019167	0,1	5,580816
3,020833	0,1	5,590977
3,022500	0,1	5,550949
3,024167	0,1	5,469477
3,025833	0,1	5,459403
3,027500	0,1	5,382333
3,029167	0,1	5,390286
3,030833	0,1	5,322047
3,032500	0,1	5,304191
3,034167	0,1	5,305657
3,035833	0,1	5,187440
3,037500	0,1	5,180915
3,039167	0,1	5,157042
3,040833	0,1	5,095783
3,042500	0,1	5,061600
3,044167	0,1	5,014323
3,045833	0,1	5,009006
3,047500	0,1	4,991076
3,049167	0,1	4,949943
3,050833	0,1	4,894716
3,052500	0,1	4,874235
3,054167	0,1	4,832098
3,055833	0,1	4,784558
3,057500	0,1	4,774162
3,059167	0,1	4,731492
3,060833	0,1	4,702944
3,062500	0,1	4,675299
3,064167	0,1	4,615234
3,065833	0,1	4,582248
3,067500	0,1	4,586665
3,069167	0,1	4,555149
3,070833	0,1	4,515583
3,072500	0,1	4,476366
3,074167	0,1	4,463675
3,075833	0,1	4,414541
3,077500	0,1	4,406263
3,079167	0,1	4,400827
3,080833	0,1	4,300410
3,082500	0,1	4,347472
3,084167	0,1	4,308096
3,085833	0,1	4,268337
3,087500	0,1	4,268814
3,089167	0,1	4,257590
3,090833	0,1	4,183489
3,092500	0,1	4,222039
3,094167	0,1	4,124784
3,095833	0,1	4,165433
3,097500	0,1	4,176378
3,099167	0,1	4,132187
3,100833	0,1	4,047649
3,102500	0,1	4,056540
3,104167	0,1	4,085214
3,105833	0,1	4,035654
3,107500	0,1	4,047430
3,109167	0,1	4,043385
3,110833	0,1	4,054922
3,112500	0,1	4,059466
3,114167	0,1	4,049909
3,115833	0,1	3,971505
3,117500	0,1	3,951802
3,119167	0,1	3,959970
3,120833	0,1	3,978290
3,122500	0,1	3,934552
3,124167	0,1	3,972205
3,125833	0,1	3,940358
3,127500	0,1	3,955044
3,129167	0,1	3,977518
3,130833	0,1	3,936825
3,132500	0,1	3,936941
3,134167	0,1	3,950066
3,135833	0,1	3,927705
3,137500	0,1	3,976056
3,139167	0,1	3,977726
3,140833	0,1	3,970078
3,142500	0,1	3,939833
3,144167	0,1	3,962578
3,145833	0,1	3,930389
3,147500	0,1	3,966898
3,149167	0,1	3,943177
3,150833	0,1	3,993392
3,152500	0,1	3,958501
3,154167	0,1	3,977040
3,155833	0,1	3,997607
3,157500	0,1	3,995765
3,159167	0,1	3,982551
3,160833	0,1	4,011134
3,162500	0,1	3,964007
3,164167	0,1	3,974484
3,165833	0,1	3,957633
3,167500	0,1	3,980030
3,169167	0,1	3,973032
3,170833	0,1	3,936541
3,172500	0,1	3,958690
3,174167	0,1	3,975130
3,175833	0,1	3,948574
3,177500	0,1	3,948807
3,179167	0,1	3,955082
3,180833	0,1	3,952785
3,182500	0,1	3,959787
3,184167	0,1	3,948979
3,185833	0,1	3,979629
3,187500	0,1	3,908084
3,189167	0,1	3,897023
3,190833	0,1	3,891839
3,192500	0,1	3,933930
3,194167	0,1	3,922414
3,195833	0,1	3,940958
3,197500	0,1	3,865075
3,199167	0,1	3,876934
3,200833	0,1	3,865199
3,202500	0,1	3,834710
3,204167	0,1	3,833930
3,205833	0,1	3,806083
3,207500	0,1	3,796915
3,209167	0,1	3,799850
3,210833	0,1	3,733405
3,212500	0,1	3,767093
3,214167	0,1	3,735344
3,215833	0,1	3,713256
3,217500	0,1	3,742894
3,219167	0,1	3,703910
3,220833	0,1	3,695041
3,222500	0,1	3,677590
3,224167	0,1	3,612898
3,225833	0,1	3,600222
3,227500	0,1	3,627662
3,229167	0,1	3,596156
3,230833	0,1	3,579528
3,232500	0,1	3,558995
3,234167	0,1	3,535277
3,235833	0,1	3,491678
3,237500	0,1	3,479658
3,239167	0,1	3,472174
3,240833	0,1	3,448335
3,242500	0,1	3,429953
3,244167	0,1	3,411523
3,245833	0,1	3,377615
3,247500	0,1	3,396755
3,249167	0,1	3,324852
3,250833	0,1	3,299814
3,252500	0,1	3,318612
3,254167	0,1	3,317794
3,255833	0,1	3,272986
3,257500	0,1	3,247718
3,259167	0,1	3,251079
3,260833	0,1	3,160811
3,262500	0,1	3,196316
3,264167	0,1	3,121887
3,265833	0,1	3,111448
3,267500	0,1	3,144534
3,269167	0,1	3,094508
3,270833	0,1	3,052341
3,272500	0,1	3,049004
3,274167	0,1	3,010580
3,275833	0,1	2,976883
3,277500	0,1	2,975371
3,279167	0,1	2,938817
3,280833	0,1	2,916384
3,282500	0,1	2,885885
3,284167	0,1	2,859758
3,285833	0,1	2,845446
3,287500	0,1	2,815312
3,289167	0,1	2,810558
3,290833	0,1	2,752198
3,292500	0,1	2,752819
3,294167	0,1	2,735587
3,295833	0,1	2,724030
3,297500	0,1	2,721879
3,299167	0,1	2,707095
3,300833	0,1	2,671491
3,302500	0,1	2,643274
3,304167	0,1	2,629697
3,305833	0,1	2,578405
3,307500	0,1	2,590010
3,309167	0,1	2,569847
3,310833	0,1	2,528816
3,312500	0,1	2,548514
3,314167	0,1	2,521262
3,315833	0,1	2,507116
3,317500	0,1	2,512492
3,319167	0,1	2,450593
3,320833	0,1	2,458325
3,322500	0,1	2,414149
3,324167	0,1	2,406607
3,325833	0,1	2,407386
3,327500	0,1	2,396417
3,329167	0,1	2,402730
3,330833	0,1	2,403877
3,332500	0,1	2,331734
3,334167	0,1	2,327197
3,335833	0,1	2,336804
3,337500	0,1	2,335726
3,339167	0,1	2,291992
3,340833	0,1	2,307894
3,342500	0,1	2,300154
3,344167	0,1	2,273477
3,345833	0,1	2,271250
3,347500	0,1	2,263723
3,349167	0,1	2,236763
3,350833	0,1	2,240769
3,352500	0,1	2,242277
3,354167	0,1	2,212380
3,355833	0,1	2,245208
3,357500	0,1	2,238050
3,359167	0,1	2,170444
3,360833	0,1	2,196019
3,362500	0,1	2,194447
3,364167	0,1	2,175952
3,365833	0,1	2,193011
3,367500	0,1	2,220327
3,369167	0,1	2,184632
3,370833	0,1	2,156165
3,372500	0,1	2,111789
3,374167	0,1	2,168548
3,375833	0,1	2,125340
3,377500	0,1	2,123037
3,379167	0,1	2,193499
3,380833	0,1	2,121189
3,382500	0,1	2,155576
3,384167	0,1	2,129708
3,385833	0,1	2,101965
3,387500	0,1	2,105828
3,389167	0,1	2,106687
3,390833	0,1	2,139158
3,392500	0,1	2,165759
3,394167	0,1	2,110073
3,395833	0,1	2,105688
3,397500	0,1	2,064759
3,399167	0,1	2,093709
3,400833	0,1	2,105755
3,402500	0,1	2,094219
3,404167	0,1	2,121451
3,405833	0,1	2,124253
3,407500	0,1	2,118878
3,409167	0,1	2,067630
3,410833	0,1	2,068120
3,412500	0,1	2,115927
3,414167	0,1	2,108626
3,415833	0,1	2,080388
3,417500	0,1	2,063034
3,419167	0,1	2,049916
3,420833	0,1	2,068832
3,422500	0,1	2,066619
3,424167	0,1	2,045470
3,425833	0,1	2,039668
3,427500	0,1	2,062668
3,429167	0,1	2,065468
3,430833	0,1	2,026272
3,432500	0,1	2,061304
3,434167	0,1	2,061743
3,435833	0,1	2,032792
3,437500	0,1	2,037730
3,439167	0,1	2,014508
3,440833	0,1	2,010278
3,442500	0,1	2,051194
3,444167	0,1	2,029418
3,445833	0,1	2,036080
3,447500	0,1	2,018240
3,449167	0,1	2,027119
3,450833	0,1	2,015801
3,452500	0,1	2,023249
3,454167	0,1	2,006772
3,455833	0,1	2,016796
3,457500	0,1	2,081299
3,459167	0,1	2,064402
3,460833	0,1	1,983991
3,462500	0,1	2,009480
3,464167	0,1	2,053706
3,465833	0,1	2,039235
3,467500	0,1	2,021894
3,469167	0,1	2,068181
3,470833	0,1	2,017243
3,472500	0,1	2,039158
3,474167	0,1	2,054429
3,475833	0,1	2,031646
3,477500	0,1	2,023822
3,479167	0,1	2,064314
3,480833	0,1	2,031427
3,482500	0,1	2,050697
3,484167	0,1	2,038521
3,485833	0,1	2,056578
3,487500	0,1	2,043540
3,489167	0,1	2,047189
3,490833	0,1	2,041457
3,492500	0,1	2,020745
3,494167	0,1	2,083375
3,495833	0,1	2,043685
3,497500	0,1	2,060303
3,499167	0,1	2,065253
3,500833	0,1	2,111912
3,502500	0,1	2,096943
3,504167	0,1	2,068918
3,505833	0,1	2,097580
3,507500	0,1	2,071278
3,509167	0,1	2,116858
3,510833	0,1	2,077522
3,512500	0,1	2,118724
3,514167	0,1	2,127981
3,515833	0,1	2,132712
3,517500	0,1	2,111856
3,519167	0,1	2,148047
3,520833	0,1	2,129707
3,522500	0,1	2,117519
3,524167	0,1	2,082537
3,525833	0,1	2,103889
3,527500	0,1	2,085618
3,529167	0,1	2,121879
3,530833	0,1	2,124683
3,532500	0,1	2,140453
3,534167	0,1	2,112575
3,535833	0,1	2,144464
3,537500	0,1	2,113149
3,539167	0,1	2,112067
3,540833	0,1	2,141598
3,542500	0,1	2,090571
3,544167	0,1	2,161233
3,545833	0,1	2,149278
3,547500	0,1	2,165118
3,549167	0,1	2,084631
3,550833	0,1	2,116073
3,552500	0,1	2,113573
3,554167	0,1	2,171345
3,555833	0,1	2,130070
3,557500	0,1	2,142964
3,559167	0,1	2,119170
3,560833	0,1	2,180092
3,562500	0,1	2,105704
3,564167	0,1	2,105256
3,565833	0,1	2,103821
3,567500	0,1	2,079882
3,569167	0,1	2,100446
3,570833	0,1	2,105828
3,572500	0,1	2,080242
3,574167	0,1	2,099873
3,575833	0,1	2,121883
3,577500	0,1	2,108914
3,579167	0,1	2,110417
3,580833	0,1	2,095510
3,582500	0,1	2,086761
3,584167	0,1	2,118439
3,585833	0,1	2,068923
3,587500	0,1	2,091415
3,589167	0,1	2,075010
3,590833	0,1	2,062320
3,592500	0,1	2,056869
3,594167	0,1	2,077867
3,595833	0,1	2,058305
3,597500	0,1	2,076363
3,599167	0,1	2,031287
3,600833	0,1	2,090042
3,602500	0,1	2,039247
3,604167	0,1	2,007704
3,605833	0,1	1,998238
3,607500	0,1	2,029053
3,609167	0,1	2,019525
3,610833	0,1	1,986779
3,612500	0,1	1,986694
3,614167	0,1	2,013496
3,615833	0,1	1,957038
3,617500	0,1	1,983393
3,619167	0,1	1,962048
3,620833	0,1	1,995434
3,622500	0,1	1,975593
3,624167	0,1	1,952232
3,625833	0,1	1,951582
3,627500	0,1	1,969635
3,629167	0,1	1,948936
3,630833	0,1	1,887886
3,632500	0,1	1,955511
3,634167	0,1	1,910242
3,635833	0,1	1,888737
3,637500	0,1	1,890098
3,639167	0,1	1,888168
3,640833	0,1	1,949356
3,642500	0,1	1,896996
3,644167	0,1	1,899126
3,645833	0,1	1,916685
3,647500	0,1	1,836443
3,649167	0,1	1,840221
3,650833	0,1	1,841945
3,652500	0,1	1,866296
3,654167	0,1	1,854697
3,655833	0,1	1,795101
3,657500	0,1	1,795513
3,659167	0,1	1,846170
3,660833	0,1	1,811947
3,662500	0,1	1,834495
3,664167	0,1	1,797688
3,665833	0,1	1,772961
3,667500	0,1	1,772946
3,669167	0,1	1,805478
3,670833	0,1	1,803328
3,672500	0,1	1,738303
3,674167	0,1	1,774536
3,675833	0,1	1,757136
3,677500	0,1	1,722259
3,679167	0,1	1,725264
3,680833	0,1	1,722740
3,682500	0,1	1,708133
3,684167	0,1	1,756902
3,685833	0,1	1,721249
3,687500	0,1	1,689157
3,689167	0,1	1,673691
3,690833	0,1	1,690225
3,692500	0,1	1,709640
3,694167	0,1	1,686785
3,695833	0,1	1,710642
3,697500	0,1	1,690015
3,699167	0,1	1,676060
3,700833	0,1	1,662308
3,702500	0,1	1,669235
3,704167	0,1	1,699316
3,705833	0,1	1,649554
3,707500	0,1	1,669023
3,709167	0,1	1,626716
3,710833	0,1	1,655764
3,712500	0,1	1,682941
3,714167	0,1	1,627216
3,715833	0,1	1,638879
3,717500	0,1	1,617679
3,719167	0,1	1,648037
3,720833	0,1	1,654846
3,722500	0,1	1,619556
3,724167	0,1	1,654265
3,725833	0,1	1,606739
3,727500	0,1	1,615184
3,729167	0,1	1,607810
3,730833	0,1	1,608224
3,732500	0,1	1,650901
3,734167	0,1	1,615403
3,735833	0,1	1,621092
3,737500	0,1	1,623286
3,739167	0,1	1,614255
3,740833	0,1	1,619546
3,742500	0,1	1,589611
3,744167	0,1	1,572347
3,745833	0,1	1,625485
3,747500	0,1	1,580674
3,749167	0,1	1,618755
3,750833	0,1	1,623543
3,752500	0,1	1,622631
3,754167	0,1	1,594293
3,755833	0,1	1,588615
3,757500	0,1	1,588704
3,759167	0,1	1,585461
3,760833	0,1	1,593469
3,762500	0,1	1,598944
3,764167	0,1	1,594851
3,765833	0,1	1,588467
3,767500	0,1	1,584540
3,769167	0,1	1,551890
3,770833	0,1	1,579597
3,772500	0,1	1,580374
3,774167	0,1	1,576439
3,775833	0,1	1,543858
3,777500	0,1	1,556942
3,779167	0,1	1,571141
3,780833	0,1	1,543788
3,782500	0,1	1,585956
3,784167	0,1	1,560174
3,785833	0,1	1,563549
3,787500	0,1	1,539001
3,789167	0,1	1,595619
3,790833	0,1	1,545187
3,792500	0,1	1,569115
3,794167	0,1	1,567486
3,795833	0,1	1,550081
3,797500	0,1	1,574154
3,799167	0,1	1,536761
3,800833	0,1	1,540916
3,802500	0,1	1,575647
3,804167	0,1	1,544801
3,805833	0,1	1,523387
3,807500	0,1	1,540762
3,809167	0,1	1,527238
3,810833	0,1	1,535071
3,812500	0,1	1,518806
3,814167	0,1	1,533044
3,815833	0,1	1,542997
3,817500	0,1	1,529391
3,819167	0,1	1,538003
3,820833	0,1	1,502252
3,822500	0,1	1,527679
3,824167	0,1	1,483018
3,825833	0,1	1,481488
3,827500	0,1	1,511339
3,829167	0,1	1,466542
3,830833	0,1	1,476288
3,832500	0,1	1,511062
3,834167	0,1	1,496335
3,835833	0,1	1,498470
3,837500	0,1	1,446286
3,839167	0,1	1,491017
3,840833	0,1	1,449462
3,842500	0,1	1,482163
3,844167	0,1	1,420162
3,845833	0,1	1,423177
3,847500	0,1	1,471413
3,849167	0,1	1,448143
3,850833	0,1	1,448671
3,852500	0,1	1,436475
3,854167	0,1	1,425757
3,855833	0,1	1,390455
3,857500	0,1	1,447986
3,859167	0,1	1,430116
3,860833	0,1	1,396183
3,862500	0,1	1,440038
3,864167	0,1	1,381497
3,865833	0,1	1,411068
3,867500	0,1	1,399194
3,869167	0,1	1,398973
3,870833	0,1	1,395245
3,872500	0,1	1,372939
3,874167	0,1	1,389183
3,875833	0,1	1,352588
3,877500	0,1	1,390739
3,879167	0,1	1,364128
3,880833	0,1	1,314880
3,882500	0,1	1,345177
3,884167	0,1	1,323769
3,885833	0,1	1,323831
3,887500	0,1	1,307144
3,889167	0,1	1,317442
3,890833	0,1	1,331625
3,892500	0,1	1,313041
3,894167	0,1	1,273880
3,895833	0,1	1,275143
3,897500	0,1	1,329632
3,899167	0,1	1,265397
3,900833	0,1	1,290254
3,902500	0,1	1,307068
3,904167	0,1	1,283181
3,905833	0,1	1,279464
3,907500	0,1	1,263571
3,909167	0,1	1,266074
3,910833	0,1	1,255198
3,912500	0,1	1,274815
3,914167	0,1	1,258946
3,915833	0,1	1,281254
3,917500	0,1	1,233264
3,919167	0,1	1,258258
3,920833	0,1	1,256281
3,922500	0,1	1,214352
3,924167	0,1	1,233162
3,925833	0,1	1,213345
3,927500	0,1	1,204348
3,929167	0,1	1,215289
3,930833	0,1	1,206685
3,932500	0,1	1,203174
3,934167	0,1	1,148835
3,935833	0,1	1,216544
3,937500	0,1	1,182022
3,939167	0,1	1,197768
3,940833	0,1	1,208120
3,942500	0,1	1,164620
3,944167	0,1	1,204336
3,945833	0,1	1,155646
3,947500	0,1	1,191356
3,949167	0,1	1,162032
3,950833	0,1	1,170527
3,952500	0,1	1,162124
3,954167	0,1	1,147067
3,955833	0,1	1,131175
3,957500	0,1	1,171193
3,959167	0,1	1,110836
3,960833	0,1	1,107067
3,962500	0,1	1,172867
3,964167	0,1	1,143813
3,965833	0,1	1,128246
3,967500	0,1	1,136012
3,969167	0,1	1,139252
3,970833	0,1	1,155142
3,972500	0,1	1,116664
3,974167	0,1	1,102832
3,975833	0,1	1,141175
3,977500	0,1	1,079648
3,979167	0,1	1,163457
3,980833	0,1	1,134666
3,982500	0,1	1,130086
3,984167	0,1	1,105342
3,985833	0,1	1,082522
3,987500	0,1	1,086359
3,989167	0,1	1,145964
3,990833	0,1	1,089257
3,992500	0,1	1,133467
3,994167	0,1	1,081309
3,995833	0,1	1,120728
3,997500	0,1	1,104474
3,999167	0,1	1,091264
4,000833	0,1	1,076481
4,002500	0,1	1,091257
4,004167	0,1	1,112104
4,005833	0,1	1,082833
4,007500	0,1	1,064011
4,009167	0,1	1,080871
4,010833	0,1	1,107703
4,012500	0,1	1,083100
4,014167	0,1	1,080386
4,015833	0,1	1,124589
4,017500	0,1	1,075824
4,019167	0,1	1,092946
4,020833	0,1	1,124083
4,022500	0,1	1,084993
4,024167	0,1	1,103535
4,025833	0,1	1,138110
4,027500	0,1	1,091896
4,029167	0,1	1,109463
4,030833	0,1	1,106911
4,032500	0,1	1,151319
4,034167	0,1	1,123233
4,035833	0,1	1,138913
4,037500	0,1	1,122922
4,039167	0,1	1,131813
4,040833	0,1	1,168741
4,042500	0,1	1,158587
4,044167	0,1	1,151756
4,045833	0,1	1,184702
4,047500	0,1	1,204850
4,049167	0,1	1,162238
4,050833	0,1	1,181247
4,052500	0,1	1,194971
4,054167	0,1	1,179172
4,055833	0,1	1,203187
4,057500	0,1	1,170278
4,059167	0,1	1,197544
4,060833	0,1	1,223061
4,062500	0,1	1,230167
4,064167	0,1	1,228984
4,065833	0,1	1,269387
4,067500	0,1	1,265586
4,069167	0,1	1,267889
4,070833	0,1	1,299351
4,072500	0,1	1,297867
4,074167	0,1	1,287430
4,075833	0,1	1,295696
4,077500	0,1	1,300238
4,079167	0,1	1,361257
4,080833	0,1	1,350612
4,082500	0,1	1,348678
4,084167	0,1	1,381655
4,085833	0,1	1,408218
4,087500	0,1	1,399769
4,089167	0,1	1,396410
4,090833	0,1	1,438777
4,092500	0,1	1,472648
4,094167	0,1	1,479867
4,095833	0,1	1,448789
4,097500	0,1	1,455017
4,099167	0,1	1,478423
4,100833	0,1	1,542490
4,102500	0,1	1,515298
4,104167	0,1	1,532767
4,105833	0,1	1,561852
4,107500	0,1	1,602366
4,109167	0,1	1,614698
4,110833	0,1	1,610803
4,112500	0,1	1,607442
4,114167	0,1	1,602723
4,115833	0,1	1,662656
4,117500	0,1	1,678257
4,119167	0,1	1,653198
4,120833	0,1	1,682913
4,122500	0,1	1,746808
4,124167	0,1	1,763939
4,125833	0,1	1,765379
4,127500	0,1	1,743809
4,129167	0,1	1,783701
4,130833	0,1	1,786359
4,132500	0,1	1,820952
4,134167	0,1	1,822026
4,135833	0,1	1,880626
4,137500	0,1	1,881507
4,139167	0,1	1,905217
4,140833	0,1	1,937817
4,142500	0,1	1,930308
4,144167	0,1	1,921692
4,145833	0,1	1,993997
4,147500	0,1	1,945576
4,149167	0,1	1,980099
4,150833	0,1	1,976877
4,152500	0,1	2,006831
4,154167	0,1	2,067535
4,155833	0,1	2,070706
4,157500	0,1	2,041324
4,159167	0,1	2,104166
4,160833	0,1	2,072647
4,162500	0,1	2,113348
4,164167	0,1	2,070354
4,165833	0,1	2,162086
4,167500	0,1	2,169063
4,169167	0,1	2,173867
4,170833	0,1	2,190785
4,172500	0,1	2,190789
4,174167	0,1	2,201184
4,175833	0,1	2,225917
4,177500	0,1	2,218111
4,179167	0,1	2,221983
4,180833	0,1	2,237254
4,182500	0,1	2,265073
4,184167	0,1	2,219984
4,185833	0,1	2,245137
4,187500	0,1	2,222707
4,189167	0,1	2,262199
4,190833	0,1	2,246226
4,192500	0,1	2,270598
4,194167	0,1	2,294337
4,195833	0,1	2,290107
4,197500	0,1	2,323663
4,199167	0,1	2,286821
4,200833	0,1	2,310902
4,202500	0,1	2,308471
4,204167	0,1	2,314211
4,205833	0,1	2,335005
4,207500	0,1	2,322528
4,209167	0,1	2,303165
4,210833	0,1	2,351993
4,212500	0,1	2,316726
4,214167	0,1	2,332496
4,215833	0,1	2,314289
4,217500	0,1	2,309399
4,219167	0,1	2,340667
4,220833	0,1	2,336222
4,222500	0,1	2,327403
4,224167	0,1	2,326195
4,225833	0,1	2,282729
4,227500	0,1	2,311836
4,229167	0,1	2,313705
4,230833	0,1	2,275920
4,232500	0,1	2,301362
4,234167	0,1	2,315351
4,235833	0,1	2,279576
4,237500	0,1	2,292258
4,239167	0,1	2,297923
4,240833	0,1	2,275555
4,242500	0,1	2,274621
4,244167	0,1	2,242642
4,245833	0,1	2,252244
4,247500	0,1	2,255036
4,249167	0,1	2,243563
4,250833	0,1	2,265357
4,252500	0,1	2,273680
4,254167	0,1	2,239487
4,255833	0,1	2,219978
4,257500	0,1	2,180617
4,259167	0,1	2,239320
4,260833	0,1	2,155389
4,262500	0,1	2,160101
4,264167	0,1	2,146482
4,265833	0,1	2,179524
4,267500	0,1	2,161253
4,269167	0,1	2,137666
4,270833	0,1	2,165400
4,272500	0,1	2,113728
4,274167	0,1	2,079382
4,275833	0,1	2,112918
4,277500	0,1	2,123964
4,279167	0,1	2,051367
4,280833	0,1	2,051706
4,282500	0,1	2,069409
4,284167	0,1	2,022042
4,285833	0,1	2,056143
4,287500	0,1	2,038884
4,289167	0,1	2,008995
4,290833	0,1	2,002969
4,292500	0,1	1,977888
4,294167	0,1	2,003963
4,295833	0,1	1,928019
4,297500	0,1	1,940473
4,299167	0,1	1,956735
4,300833	0,1	1,951077
4,302500	0,1	1,922424
4,304167	0,1	1,942694
4,305833	0,1	1,930086
4,307500	0,1	1,933380
4,309167	0,1	1,878937
4,310833	0,1	1,907798
4,312500	0,1	1,885529
4,314167	0,1	1,847762
4,315833	0,1	1,836302
4,317500	0,1	1,816745
4,319167	0,1	1,845678
4,320833	0,1	1,803211
4,322500	0,1	1,794668
4,324167	0,1	1,801966
4,325833	0,1	1,793251
4,327500	0,1	1,810793
4,329167	0,1	1,758644
4,330833	0,1	1,705643
4,332500	0,1	1,729685
4,334167	0,1	1,712088
4,335833	0,1	1,721524
4,337500	0,1	1,716869
4,339167	0,1	1,683008
4,340833	0,1	1,664598
4,342500	0,1	1,643321
4,344167	0,1	1,651404
4,345833	0,1	1,686789
4,347500	0,1	1,650762
4,349167	0,1	1,643596
4,350833	0,1	1,625878
4,352500	0,1	1,645700
4,354167	0,1	1,619900
4,355833	0,1	1,603807
4,357500	0,1	1,584176
4,359167	0,1	1,560531
4,360833	0,1	1,564562
4,362500	0,1	1,570637
4,364167	0,1	1,540211
4,365833	0,1	1,533118
4,367500	0,1	1,538845
4,369167	0,1	1,529332
4,370833	0,1	1,540856
4,372500	0,1	1,500265
4,374167	0,1	1,513631
4,375833	0,1	1,509414
4,377500	0,1	1,454498
4,379167	0,1	1,481632
4,380833	0,1	1,459656
4,382500	0,1	1,497473
4,384167	0,1	1,477008
4,385833	0,1	1,473344
4,387500	0,1	1,437576
4,389167	0,1	1,462961
4,390833	0,1	1,456171
4,392500	0,1	1,428064
4,394167	0,1	1,434196
4,395833	0,1	1,460684
4,397500	0,1	1,389259
4,399167	0,1	1,408152
4,400833	0,1	1,357472
4,402500	0,1	1,383809
4,404167	0,1	1,348686
4,405833	0,1	1,405277
4,407500	0,1	1,342275
4,409167	0,1	1,387683
4,410833	0,1	1,342012
4,412500	0,1	1,360130
4,414167	0,1	1,320757
4,415833	0,1	1,336504
4,417500	0,1	1,350115
4,419167	0,1	1,301539
4,420833	0,1	1,315473
4,422500	0,1	1,309038
4,424167	0,1	1,276032
4,425833	0,1	1,269296
4,427500	0,1	1,273616
4,429167	0,1	1,281546
4,430833	0,1	1,255846
4,432500	0,1	1,268090
4,434167	0,1	1,270837
4,435833	0,1	1,227063
4,437500	0,1	1,275756
4,439167	0,1	1,237296
4,440833	0,1	1,257021
4,442500	0,1	1,209882
4,444167	0,1	1,227692
4,445833	0,1	1,201335
4,447500	0,1	1,217677
4,449167	0,1	1,195219
4,450833	0,1	1,195840
4,452500	0,1	1,224335
4,454167	0,1	1,161309
4,455833	0,1	1,178164
4,457500	0,1	1,143853
4,459167	0,1	1,136103
4,460833	0,1	1,140452
4,462500	0,1	1,178533
4,464167	0,1	1,120645
4,465833	0,1	1,136540
4,467500	0,1	1,145063
4,469167	0,1	1,129848
4,470833	0,1	1,109780
4,472500	0,1	1,122311
4,474167	0,1	1,093689
4,475833	0,1	1,071293
4,477500	0,1	1,079405
4,479167	0,1	1,047881
4,480833	0,1	1,099262
4,482500	0,1	1,090775
4,484167	0,1	1,043998
4,485833	0,1	1,007244
4,487500	0,1	1,061814
4,489167	0,1	1,023357
4,490833	0,1	1,017177
4,492500	0,1	1,031621
4,494167	0,1	1,078484
4,495833	0,1	1,031126
4,497500	0,1	1,014872
4,499167	0,1	1,026627
4,500833	0,1	1,007750
4,502500	0,1	1,020901
4,504167	0,1	0,966128
4,505833	0,1	0,979426
4,507500	0,1	0,972440
4,509167	0,1	0,933440
4,510833	0,1	0,964020
4,512500	0,1	0,989786
4,514167	0,1	0,952544
4,515833	0,1	0,931149
4,517500	0,1	0,963688
4,519167	0,1	0,930243
4,520833	0,1	0,939506
4,522500	0,1	0,916640
4,524167	0,1	0,937153
4,525833	0,1	0,906082
4,527500	0,1	0,892475
4,529167	0,1	0,932156
4,530833	0,1	0,901975
4,532500	0,1	0,900013
4,534167	0,1	0,937304
4,535833	0,1	0,916441
4,537500	0,1	0,896032
4,539167	0,1	0,913612
4,540833	0,1	0,886334
4,542500	0,1	0,839727
4,544167	0,1	0,877153
4,545833	0,1	0,855722
4,547500	0,1	0,810688
4,549167	0,1	0,841836
4,550833	0,1	0,841778
4,552500	0,1	0,850848
4,554167	0,1	0,821241
4,555833	0,1	0,822307
4,557500	0,1	0,846589
4,559167	0,1	0,838144
4,560833	0,1	0,850676
4,562500	0,1	0,822578
4,564167	0,1	0,821219
4,565833	0,1	0,803277
4,567500	0,1	0,771000
4,569167	0,1	0,764390
4,570833	0,1	0,801373
4,572500	0,1	0,795870
4,574167	0,1	0,783335
4,575833	0,1	0,779723
4,577500	0,1	0,786612
4,579167	0,1	0,792938
4,580833	0,1	0,766930
4,582500	0,1	0,792933
4,584167	0,1	0,752493
4,585833	0,1	0,738823
4,587500	0,1	0,764841
4,589167	0,1	0,729966
4,590833	0,1	0,742045
4,592500	0,1	0,749016
4,594167	0,1	0,721211
4,595833	0,1	0,753184
4,597500	0,1	0,730687
4,599167	0,1	0,754657
4,600833	0,1	0,716766
4,602500	0,1	0,718762
4,604167	0,1	0,712097
4,605833	0,1	0,698949
4,607500	0,1	0,686310
4,609167	0,1	0,652856
4,610833	0,1	0,675212
4,612500	0,1	0,686760
4,614167	0,1	0,659798
4,615833	0,1	0,711926
4,617500	0,1	0,667576
4,619167	0,1	0,681327
4,620833	0,1	0,663581
4,622500	0,1	0,690419
4,624167	0,1	0,660786
4,625833	0,1	0,681539
4,627500	0,1	0,682486
4,629167	0,1	0,652810
4,630833	0,1	0,656603
4,632500	0,1	0,650044
4,634167	0,1	0,677652
4,635833	0,1	0,653619
4,637500	0,1	0,645248
4,639167	0,1	0,670262
4,640833	0,1	0,629859
4,642500	0,1	0,640678
4,644167	0,1	0,628921
4,645833	0,1	0,625739
4,647500	0,1	0,608541
4,649167	0,1	0,639199
4,650833	0,1	0,617514
4,652500	0,1	0,609983
4,654167	0,1	0,630552
4,655833	0,1	0,596778
4,657500	0,1	0,615222
4,659167	0,1	0,615833
4,660833	0,1	0,588257
4,662500	0,1	0,591011
4,664167	0,1	0,581374
4,665833	0,1	0,603481
4,667500	0,1	0,605127
4,669167	0,1	0,549559
4,670833	0,1	0,597595
4,672500	0,1	0,604960
4,674167	0,1	0,591245
4,675833	0,1	0,588057
4,677500	0,1	0,607376
4,679167	0,1	0,635667
4,680833	0,1	0,515247
4,682500	0,1	0,580713
4,684167	0,1	0,558519
4,685833	0,1	0,632916
4,687500	0,1	0,559946
4,689167	0,1	0,570152
4,690833	0,1	0,515487
4,692500	0,1	0,556996
4,694167	0,1	0,547781
4,695833	0,1	0,528400
4,697500	0,1	0,486558
4,699167	0,1	0,520417
4,700833	0,1	0,550343
4,702500	0,1	0,569406
4,704167	0,1	0,541515
4,705833	0,1	0,543856
4,707500	0,1	0,528141
4,709167	0,1	0,490799
4,710833	0,1	0,547251
4,712500	0,1	0,512718
4,714167	0,1	0,525019
4,715833	0,1	0,506062
4,717500	0,1	0,526110
4,719167	0,1	0,531063
4,720833	0,1	0,499381
4,722500	0,1	0,507728
4,724167	0,1	0,534304
4,725833	0,1	0,509437
4,727500	0,1	0,536940
4,729167	0,1	0,568279
4,730833	0,1	0,525579
4,732500	0,1	0,520360
4,734167	0,1	0,490895
4,735833	0,1	0,491176
4,737500	0,1	0,529995
4,739167	0,1	0,506160
4,740833	0,1	0,478681
4,742500	0,1	0,476554
4,744167	0,1	0,453899
4,745833	0,1	0,517901
4,747500	0,1	0,495103
4,749167	0,1	0,432570
4,750833	0,1	0,493732
4,752500	0,1	0,496030
4,754167	0,1	0,534011
4,755833	0,1	0,482030
4,757500	0,1	0,440504
4,759167	0,1	0,477540
4,760833	0,1	0,438190
4,762500	0,1	0,519409
4,764167	0,1	0,472258
4,765833	0,1	0,433561
4,767500	0,1	0,491547
4,769167	0,1	0,501042
4,770833	0,1	0,477845
4,772500	0,1	0,483911
4,774167	0,1	0,473921
4,775833	0,1	0,487735
4,777500	0,1	0,459463
4,779167	0,1	0,464949
4,780833	0,1	0,463215
4,782500	0,1	0,428548
4,784167	0,1	0,454209
4,785833	0,1	0,460869
4,787500	0,1	0,435230
4,789167	0,1	0,407658
4,790833	0,1	0,472553
4,792500	0,1	0,415313
4,794167	0,1	0,430174
4,795833	0,1	0,454596
4,797500	0,1	0,422827
4,799167	0,1	0,440940
4,800833	0,1	0,432719
4,802500	0,1	0,439046
4,804167	0,1	0,439144
4,805833	0,1	0,433105
4,807500	0,1	0,439015
4,809167	0,1	0,451513
4,810833	0,1	0,473687
4,812500	0,1	0,446381
4,814167	0,1	0,442231
4,815833	0,1	0,414215
4,817500	0,1	0,450801
4,819167	0,1	0,487438
4,820833	0,1	0,446192
4,822500	0,1	0,407149
4,824167	0,1	0,423811
4,825833	0,1	0,442000
4,827500	0,1	0,473653
4,829167	0,1	0,421032
4,830833	0,1	0,423912
4,832500	0,1	0,417680
4,834167	0,1	0,384811
4,835833	0,1	0,410474
4,837500	0,1	0,384585
4,839167	0,1	0,391646
4,840833	0,1	0,473770
4,842500	0,1	0,473049
4,844167	0,1	0,416694
4,845833	0,1	0,440618
4,847500	0,1	0,437506
4,849167	0,1	0,386743
4,850833	0,1	0,438040
4,852500	0,1	0,384336
4,854167	0,1	0,418857
4,855833	0,1	0,439685
4,857500	0,1	0,404670
4,859167	0,1	0,437530
4,860833	0,1	0,433681
4,862500	0,1	0,409745
4,864167	0,1	0,390562
4,865833	0,1	0,384229
4,867500	0,1	0,416966
4,869167	0,1	0,401580
4,870833	0,1	0,427601
4,872500	0,1	0,420701
4,874167	0,1	0,404474
4,875833	0,1	0,426735
4,877500	0,1	0,370933
4,879167	0,1	0,400255
4,880833	0,1	0,406431
4,882500	0,1	0,416742
4,884167	0,1	0,401001
4,885833	0,1	0,388821
4,887500	0,1	0,416160
4,889167	0,1	0,379223
4,890833	0,1	0,413107
4,892500	0,1	0,420183
4,894167	0,1	0,421598
4,895833	0,1	0,409003
4,897500	0,1	0,423331
4,899167	0,1	0,413054
4,900833	0,1	0,412345
4,902500	0,1	0,390627
4,904167	0,1	0,400774
4,905833	0,1	0,413464
4,907500	0,1	0,448264
4,909167	0,1	0,417845
4,910833	0,1	0,404537
4,912500	0,1	0,390433
4,914167	0,1	0,368130
4,915833	0,1	0,420140
4,917500	0,1	0,400423
4,919167	0,1	0,393837
4,920833	0,1	0,401641
4,922500	0,1	0,435375
4,924167	0,1	0,397316
4,925833	0,1	0,379283
4,927500	0,1	0,416093
4,929167	0,1	0,399911
4,930833	0,1	0,413176
4,932500	0,1	0,409068
4,934167	0,1	0,389920
4,935833	0,1	0,444274
4,937500	0,1	0,416559
4,939167	0,1	0,380412
4,940833	0,1	0,447421
4,942500	0,1	0,389286
4,944167	0,1	0,407615
4,945833	0,1	0,411282
4,947500	0,1	0,445629
4,949167	0,1	0,430920
4,950833	0,1	0,397536
4,952500	0,1	0,393673
4,954167	0,1	0,420082
4,955833	0,1	0,437406
4,957500	0,1	0,410746
4,959167	0,1	0,426061
4,960833	0,1	0,428313
4,962500	0,1	0,402292
4,964167	0,1	0,390849
4,965833	0,1	0,451245
4,967500	0,1	0,411999
4,969167	0,1	0,425451
4,970833	0,1	0,404024
4,972500	0,1	0,378481
4,974167	0,1	0,411918
4,975833	0,1	0,423041
4,977500	0,1	0,453471
4,979167	0,1	0,437542
4,980833	0,1	0,439626
4,982500	0,1	0,434550
4,984167	0,1	0,448655
4,985833	0,1	0,403550
4,987500	0,1	0,427025
4,989167	0,1	0,463270
4,990833	0,1	0,414927
4,992500	0,1	0,445694
4,994167	0,1	0,441940
4,995833	0,1	0,461894
4,997500	0,1	0,466556
4,999167	0,1	0,469320
5,000833	0,1	0,511349
5,002500	0,1	0,438871
5,004167	0,1	0,479436
5,005833	0,1	0,466529
5,007500	0,1	0,476453
5,009167	0,1	0,461388
5,010833	0,1	0,467584
5,012500	0,1	0,474526
5,014167	0,1	0,463315
5,015833	0,1	0,500423
5,017500	0,1	0,472382
5,019167	0,1	0,487701
5,020833	0,1	0,492846
5,022500	0,1	0,481827
5,024167	0,1	0,506854
5,025833	0,1	0,492272
5,027500	0,1	0,493459
5,029167	0,1	0,516819
5,030833	0,1	0,521901
5,032500	0,1	0,527077
5,034167	0,1	0,529328
5,035833	0,1	0,517277
5,037500	0,1	0,508760
5,039167	0,1	0,566667
5,040833	0,1	0,589113
5,042500	0,1	0,539562
5,044167	0,1	0,533155
5,045833	0,1	0,532896
5,047500	0,1	0,566896
5,049167	0,1	0,596407
5,050833	0,1	0,561385
5,052500	0,1	0,547462
5,054167	0,1	0,558066
5,055833	0,1	0,573459
5,057500	0,1	0,583618
5,059167	0,1	0,555274
5,060833	0,1	0,589593
5,062500	0,1	0,602074
5,064167	0,1	0,604194
5,065833	0,1	0,643698
5,067500	0,1	0,549155
5,069167	0,1	0,616491
5,070833	0,1	0,643513
5,072500	0,1	0,627571
5,074167	0,1	0,607155
5,075833	0,1	0,640875
5,077500	0,1	0,617579
5,079167	0,1	0,638073
5,080833	0,1	0,654765
5,082500	0,1	0,603600
5,084167	0,1	0,638265
5,085833	0,1	0,659461
5,087500	0,1	0,632400
5,089167	0,1	0,655564
5,090833	0,1	0,664888
5,092500	0,1	0,632689
5,094167	0,1	0,679482
5,095833	0,1	0,671808
5,097500	0,1	0,653775
5,099167	0,1	0,662967
5,100833	0,1	0,684437
5,102500	0,1	0,666666
5,104167	0,1	0,676406
5,105833	0,1	0,694309
5,107500	0,1	0,693958
5,109167	0,1	0,691229
5,110833	0,1	0,724532
5,112500	0,1	0,716600
5,114167	0,1	0,708725
5,115833	0,1	0,702712
5,117500	0,1	0,697306
5,119167	0,1	0,704024
5,120833	0,1	0,700941
5,122500	0,1	0,699365
5,124167	0,1	0,711675
5,125833	0,1	0,705536
5,127500	0,1	0,678569
5,129167	0,1	0,710580
5,130833	0,1	0,743602
5,132500	0,1	0,691241
5,134167	0,1	0,697312
5,135833	0,1	0,736565
5,137500	0,1	0,681110
5,139167	0,1	0,716012
5,140833	0,1	0,682364
5,142500	0,1	0,714540
5,144167	0,1	0,701362
5,145833	0,1	0,683842
5,147500	0,1	0,673486
5,149167	0,1	0,697141
5,150833	0,1	0,683486
5,152500	0,1	0,727168
5,154167	0,1	0,695448
5,155833	0,1	0,697248
5,157500	0,1	0,694276
5,159167	0,1	0,716472
5,160833	0,1	0,688085
5,162500	0,1	0,660311
5,164167	0,1	0,703754
5,165833	0,1	0,730740
5,167500	0,1	0,708206
5,169167	0,1	0,714641
5,170833	0,1	0,722739
5,172500	0,1	0,678413
5,174167	0,1	0,691578
5,175833	0,1	0,681099
5,177500	0,1	0,703152
5,179167	0,1	0,680459
5,180833	0,1	0,657022
5,182500	0,1	0,671000
5,184167	0,1	0,657120
5,185833	0,1	0,643608
5,187500	0,1	0,662864
5,189167	0,1	0,620375
5,190833	0,1	0,625319
5,192500	0,1	0,631971
5,194167	0,1	0,623226
5,195833	0,1	0,640133
5,197500	0,1	0,633161
5,199167	0,1	0,642194
5,200833	0,1	0,626703
5,202500	0,1	0,652796
5,204167	0,1	0,651582
5,205833	0,1	0,601860
5,207500	0,1	0,561835
5,209167	0,1	0,633850
5,210833	0,1	0,603330
5,212500	0,1	0,633730
5,214167	0,1	0,565731
5,215833	0,1	0,594997
5,217500	0,1	0,607277
5,219167	0,1	0,605800
5,220833	0,1	0,580795
5,222500	0,1	0,558875
5,224167	0,1	0,561472
5,225833	0,1	0,560989
5,227500	0,1	0,567420
5,229167	0,1	0,555399
5,230833	0,1	0,580076
5,232500	0,1	0,535187
5,234167	0,1	0,520558
5,235833	0,1	0,592734
5,237500	0,1	0,556270
5,239167	0,1	0,545626
5,240833	0,1	0,525186
5,242500	0,1	0,554682
5,244167	0,1	0,531712
5,245833	0,1	0,567954
5,247500	0,1	0,495212
5,249167	0,1	0,518618
5,250833	0,1	0,510817
5,252500	0,1	0,506089
5,254167	0,1	0,502040
5,255833	0,1	0,472447
5,257500	0,1	0,483236
5,259167	0,1	0,485775
5,260833	0,1	0,459301
5,262500	0,1	0,484325
5,264167	0,1	0,409149
5,265833	0,1	0,452791
5,267500	0,1	0,454634
5,269167	0,1	0,457399
5,270833	0,1	0,446120
5,272500	0,1	0,454697
5,274167	0,1	0,437959
5,275833	0,1	0,454053
5,277500	0,1	0,453574
5,279167	0,1	0,437187
5,280833	0,1	0,422983
5,282500	0,1	0,420508
5,284167	0,1	0,414789
5,285833	0,1	0,426897
5,287500	0,1	0,444989
5,289167	0,1	0,409684
5,290833	0,1	0,440552
5,292500	0,1	0,449234
5,294167	0,1	0,409813
5,295833	0,1	0,394127
5,297500	0,1	0,392132
5,299167	0,1	0,401609
5,300833	0,1	0,383752
5,302500	0,1	0,386960
5,304167	0,1	0,386123
5,305833	0,1	0,403823
5,307500	0,1	0,362292
5,309167	0,1	0,382522
5,310833	0,1	0,373561
5,312500	0,1	0,356982
5,314167	0,1	0,333307
5,315833	0,1	0,348562
5,317500	0,1	0,355148
5,319167	0,1	0,348598
5,320833	0,1	0,370149
5,322500	0,1	0,305912
5,324167	0,1	0,310296
5,325833	0,1	0,353790
5,327500	0,1	0,313744
5,329167	0,1	0,345345
5,330833	0,1	0,326880
5,332500	0,1	0,384601
5,334167	0,1	0,310639
5,335833	0,1	0,335130
5,337500	0,1	0,309758
5,339167	0,1	0,285406
5,340833	0,1	0,315464
5,342500	0,1	0,276642
5,344167	0,1	0,289352
5,345833	0,1	0,314759
5,347500	0,1	0,316665
5,349167	0,1	0,295270
5,350833	0,1	0,259485
5,352500	0,1	0,315939
5,354167	0,1	0,279761
5,355833	0,1	0,311581
5,357500	0,1	0,257498
5,359167	0,1	0,291944
5,360833	0,1	0,280453
5,362500	0,1	0,309166
5,364167	0,1	0,271338
5,365833	0,1	0,274667
5,367500	0,1	0,285752
5,369167	0,1	0,294239
5,370833	0,1	0,246284
5,372500	0,1	0,257771
5,374167	0,1	0,251993
5,375833	0,1	0,264812
5,377500	0,1	0,292461
5,379167	0,1	0,221589
5,380833	0,1	0,232010
5,382500	0,1	0,255261
5,384167	0,1	0,272321
5,385833	0,1	0,241558
5,387500	0,1	0,220960
5,389167	0,1	0,279477
5,390833	0,1	0,236674
5,392500	0,1	0,224697
5,394167	0,1	0,221861
5,395833	0,1	0,234607
5,397500	0,1	0,214385
5,399167	0,1	0,231756
5,400833	0,1	0,204877
5,402500	0,1	0,235382
5,404167	0,1	0,259189
5,405833	0,1	0,201735
5,407500	0,1	0,191281
5,409167	0,1	0,236109
5,410833	0,1	0,215922
5,412500	0,1	0,228735
5,414167	0,1	0,232138
5,415833	0,1	0,184942
5,417500	0,1	0,194527
5,419167	0,1	0,164231
5,420833	0,1	0,187647
5,422500	0,1	0,179013
5,424167	0,1	0,196389
5,425833	0,1	0,223693
5,427500	0,1	0,195920
5,429167	0,1	0,170768
5,430833	0,1	0,226961
5,432500	0,1	0,177462
5,434167	0,1	0,147153
5,435833	0,1	0,211479
5,437500	0,1	0,156582
5,439167	0,1	0,188260
5,440833	0,1	0,179631
5,442500	0,1	0,158133
5,444167	0,1	0,175582
5,445833	0,1	0,159016
5,447500	0,1	0,181713
5,449167	0,1	0,177803
5,450833	0,1	0,169516
5,452500	0,1	0,183315
5,454167	0,1	0,199802
5,455833	0,1	0,183550
5,457500	0,1	0,145659
5,459167	0,1	0,131811
5,460833	0,1	0,171458
5,462500	0,1	0,170799
5,464167	0,1	0,181263
5,465833	0,1	0,169001
5,467500	0,1	0,147582
5,469167	0,1	0,171939
5,470833	0,1	0,174073
5,472500	0,1	0,190809
5,474167	0,1	0,157054
5,475833	0,1	0,140992
5,477500	0,1	0,128311
5,479167	0,1	0,132246
5,480833	0,1	0,206527
5,482500	0,1	0,127896
5,484167	0,1	0,166131
5,485833	0,1	0,114668
5,487500	0,1	0,163394
5,489167	0,1	0,122209
5,490833	0,1	0,125573
5,492500	0,1	0,091276
5,494167	0,1	0,126521
5,495833	0,1	0,131807
5,497500	0,1	0,151665
5,499167	0,1	0,151821
5,500833	0,1	0,112324
5,502500	0,1	0,126353
5,504167	0,1	0,149763
5,505833	0,1	0,155131
5,507500	0,1	0,143788
5,509167	0,1	0,129142
5,510833	0,1	0,161736
5,512500	0,1	0,111042
5,514167	0,1	0,115688
5,515833	0,1	0,118257
5,517500	0,1	0,129605
5,519167	0,1	0,125966
5,520833	0,1	0,126028
5,522500	0,1	0,100140
5,524167	0,1	0,105600
5,525833	0,1	0,099142
5,527500	0,1	0,086941
5,529167	0,1	0,113192
5,530833	0,1	0,089075
5,532500	0,1	0,135713
5,534167	0,1	0,112671
5,535833	0,1	0,044734
5,537500	0,1	0,127317
5,539167	0,1	0,124102
5,540833	0,1	0,097713
5,542500	0,1	0,099720
5,544167	0,1	0,102226
5,545833	0,1	0,111091
5,547500	0,1	0,094274
5,549167	0,1	0,118252
5,550833	0,1	0,145226
5,552500	0,1	0,109150
5,554167	0,1	0,097835
5,555833	0,1	0,122231
5,557500	0,1	0,126960
5,559167	0,1	0,096391
5,560833	0,1	0,121072
5,562500	0,1	0,120992
5,564167	0,1	0,119934
5,565833	0,1	0,106021
5,567500	0,1	0,092572
5,569167	0,1	0,121525
5,570833	0,1	0,109771
5,572500	0,1	0,093444
5,574167	0,1	0,096133
5,575833	0,1	0,084577
5,577500	0,1	0,103028
5,579167	0,1	0,071572
5,580833	0,1	0,108553
5,582500	0,1	0,118092
5,584167	0,1	0,069281
5,585833	0,1	0,075065
5,587500	0,1	0,065890
5,589167	0,1	0,092358
5,590833	0,1	0,140223
5,592500	0,1	0,110599
5,594167	0,1	0,090443
5,595833	0,1	0,129167
5,597500	0,1	0,041882
5,599167	0,1	0,119258
5,600833	0,1	0,040845
5,602500	0,1	0,106660
5,604167	0,1	0,107465
5,605833	0,1	0,078159
5,607500	0,1	0,072020
5,609167	0,1	0,080702
5,610833	0,1	0,091306
5,612500	0,1	0,110687
5,614167	0,1	0,087665
5,615833	0,1	0,135071
5,617500	0,1	0,090427
5,619167	0,1	0,096546
5,620833	0,1	0,079400
5,622500	0,1	0,086787
5,624167	0,1	0,107836
5,625833	0,1	0,070330
5,627500	0,1	0,097746
5,629167	0,1	0,108787
5,630833	0,1	0,089800
5,632500	0,1	0,121502
5,634167	0,1	0,075741
5,635833	0,1	0,063094
5,637500	0,1	0,066262
5,639167	0,1	0,081155
5,640833	0,1	0,093562
5,642500	0,1	0,074717
5,644167	0,1	0,063635
5,645833	0,1	0,098137
5,647500	0,1	0,068134
5,649167	0,1	0,092071
5,650833	0,1	0,085139
5,652500	0,1	0,110482
5,654167	0,1	0,104334
5,655833	0,1	0,107214
5,657500	0,1	0,045336
5,659167	0,1	0,114616
5,660833	0,1	0,136048
5,662500	0,1	0,093159
5,664167	0,1	0,087144
5,665833	0,1	0,092967
5,667500	0,1	0,060388
5,669167	0,1	0,092790
5,670833	0,1	0,149980
5,672500	0,1	0,096397
5,674167	0,1	0,077969
5,675833	0,1	0,080703
5,677500	0,1	0,084511
5,679167	0,1	0,121523
5,680833	0,1	0,089491
5,682500	0,1	0,103342
5,684167	0,1	0,112438
5,685833	0,1	0,098603
5,687500	0,1	0,092116
5,689167	0,1	0,102804
5,690833	0,1	0,131159
5,692500	0,1	0,112608
5,694167	0,1	0,116872
5,695833	0,1	0,072859
5,697500	0,1	0,110088
5,699167	0,1	0,096904
5,700833	0,1	0,136397
5,702500	0,1	0,116837
5,704167	0,1	0,092246
5,705833	0,1	0,102741
5,707500	0,1	0,125380
5,709167	0,1	0,105152
5,710833	0,1	0,138739
5,712500	0,1	0,132906
5,714167	0,1	0,133155
5,715833	0,1	0,119859
5,717500	0,1	0,160324
5,719167	0,1	0,094098
5,720833	0,1	0,111480
5,722500	0,1	0,124326
5,724167	0,1	0,109170
5,725833	0,1	0,130042
5,727500	0,1	0,127250
5,729167	0,1	0,120853
5,730833	0,1	0,122653
5,732500	0,1	0,101089
5,734167	0,1	0,101309
5,735833	0,1	0,120847
5,737500	0,1	0,097900
5,739167	0,1	0,096009
5,740833	0,1	0,127696
5,742500	0,1	0,093323
5,744167	0,1	0,149918
5,745833	0,1	0,116590
5,747500	0,1	0,175950
5,749167	0,1	0,121131
5,750833	0,1	0,149080
5,752500	0,1	0,107397
5,754167	0,1	0,126602
5,755833	0,1	0,128079
5,757500	0,1	0,162643
5,759167	0,1	0,106814
5,760833	0,1	0,126086
5,762500	0,1	0,138681
5,764167	0,1	0,134090
5,765833	0,1	0,134605
5,767500	0,1	0,122656
5,769167	0,1	0,138518
5,770833	0,1	0,110911
5,772500	0,1	0,136172
5,774167	0,1	0,116900
5,775833	0,1	0,117515
5,777500	0,1	0,125486
5,779167	0,1	0,122263
5,780833	0,1	0,142080
5,782500	0,1	0,122721
5,784167	0,1	0,094260
5,785833	0,1	0,152019
5,787500	0,1	0,165243
5,789167	0,1	0,133517
5,790833	0,1	0,140698
5,792500	0,1	0,134002
5,794167	0,1	0,147862
5,795833	0,1	0,118165
5,797500	0,1	0,113913
5,799167	0,1	0,133128
5,800833	0,1	0,118199
5,802500	0,1	0,111533
5,804167	0,1	0,107983
5,805833	0,1	0,128554
5,807500	0,1	0,169342
5,809167	0,1	0,144371
5,810833	0,1	0,148406
5,812500	0,1	0,121789
5,814167	0,1	0,129451
5,815833	0,1	0,117330
5,817500	0,1	0,144130
5,819167	0,1	0,141240
5,820833	0,1	0,153480
5,822500	0,1	0,146231
5,824167	0,1	0,073407
5,825833	0,1	0,182953
5,827500	0,1	0,128672
5,829167	0,1	0,154659
5,830833	0,1	0,120735
5,832500	0,1	0,115464
5,834167	0,1	0,151068
5,835833	0,1	0,146847
5,837500	0,1	0,141583
5,839167	0,1	0,105469
5,840833	0,1	0,152412
5,842500	0,1	0,095693
5,844167	0,1	0,103118
5,845833	0,1	0,145905
5,847500	0,1	0,105197
5,849167	0,1	0,131639
5,850833	0,1	0,113541
5,852500	0,1	0,114507
5,854167	0,1	0,108688
5,855833	0,1	0,108399
5,857500	0,1	0,136134
5,859167	0,1	0,160894
5,860833	0,1	0,115120
5,862500	0,1	0,111924
5,864167	0,1	0,113621
5,865833	0,1	0,132157
5,867500	0,1	0,075784
5,869167	0,1	0,127816
5,870833	0,1	0,117618
5,872500	0,1	0,103327
5,874167	0,1	0,089073
5,875833	0,1	0,136849
5,877500	0,1	0,112900
5,879167	0,1	0,076484
5,880833	0,1	0,103129
5,882500	0,1	0,140377
5,884167	0,1	0,078167
5,885833	0,1	0,097577
5,887500	0,1	0,096510
5,889167	0,1	0,093440
5,890833	0,1	0,123514
5,892500	0,1	0,084355
5,894167	0,1	0,118087
5,895833	0,1	0,089678
5,897500	0,1	0,132957
5,899167	0,1	0,115317
5,900833	0,1	0,076877
5,902500	0,1	0,098822
5,904167	0,1	0,111253
5,905833	0,1	0,097381
5,907500	0,1	0,050301
5,909167	0,1	0,120293
5,910833	0,1	0,066294
5,912500	0,1	0,096227
5,914167	0,1	0,054446
5,915833	0,1	0,071623
5,917500	0,1	0,101593
5,919167	0,1	0,087522
5,920833	0,1	0,102756
5,922500	0,1	0,080106
5,924167	0,1	0,090953
5,925833	0,1	0,075876
5,927500	0,1	0,092089
5,929167	0,1	0,095325
5,930833	0,1	0,052889
5,932500	0,1	0,069883
5,934167	0,1	0,083553
5,935833	0,1	0,101368
5,937500	0,1	0,062937
5,939167	0,1	0,071437
5,940833	0,1	0,062082
5,942500	0,1	0,065784
5,944167	0,1	0,074672
5,945833	0,1	0,085235
5,947500	0,1	0,088631
5,949167	0,1	0,077864
5,950833	0,1	0,058021
5,952500	0,1	0,068330
5,954167	0,1	0,062349
5,955833	0,1	0,094904
5,957500	0,1	0,069480
5,959167	0,1	0,104449
5,960833	0,1	0,039888
5,962500	0,1	0,077688
5,964167	0,1	0,071732
5,965833	0,1	0,053816
5,967500	0,1	0,029955
5,969167	0,1	0,080418
5,970833	0,1	0,073533
5,972500	0,1	0,051044
5,974167	0,1	0,087009
5,975833	0,1	0,088614
5,977500	0,1	0,070593
5,979167	0,1	0,099705
5,980833	0,1	0,076169
5,982500	0,1	0,059554
5,984167	0,1	0,055347
5,985833	0,1	0,072924
5,987500	0,1	0,054952
5,989167	0,1	0,099309
5,990833	0,1	0,050676
5,992500	0,1	0,068037
5,994167	0,1	0,032651
5,995833	0,1	0,044983
5,997500	0,1	0,039707
5,999167	0,1	0,052587
6,000833	0,1	0,082265
