File Path	chrom://chromeleon01/ikbm_chromeleon/2022/Rezex/Esteban/220612_chitin_4_7.seq/954.smp/UV_VIS_1.channel/UV_VIS_1.chm
Channel	UV_VIS_1

Injection Information:
Data Vault	ikbm_chromeleon
Injection	CelS2_04h-EGS_1
Injection Number	78
Position	GC6
Comment	
Processing Method	New ProcMethod
Instrument Method	Short_Rezex_6min_194nm
Type	Unknown
Status	Finished
Injection Date	13.06.2022
Injection Time	01:32:27
Injection Volume (µl)	8,000
Dilution Factor	1,0000
Weight	1,0000

Chromatogram Data Information:
Time Min. (min)	0,000833
Time Max. (min)	6,000833
Data Points	3601
Detector	UV
Generating Data System	Chromeleon 7.2.9.11323
Exporting Data System	Chromeleon 7.2.9.0
Operator	Instrument Controller
Signal Quantity	Absorbance
Signal Unit	mAU
Signal Min.	-0,108734
Signal Max.	284,942736
Channel	UV_VIS_1
Driver Name	VWD3000.dll
Channel Type	Evaluation
Min. Step (s)	0,1
Max. Step (s)	0,1
Average Step (s)	0,1

Signal Parameter Information:
Signal Info	WVL:194 nm

Chromatogram Data:
Time (min)	Step (s)	Value (mAU)
0,000833	n.a.	-0,048535
0,002500	0,1	-0,036001
0,004167	0,1	-0,024624
0,005833	0,1	0,001710
0,007500	0,1	-0,079347
0,009167	0,1	-0,028073
0,010833	0,1	-0,021039
0,012500	0,1	-0,049295
0,014167	0,1	-0,031215
0,015833	0,1	-0,063982
0,017500	0,1	-0,041223
0,019167	0,1	-0,017955
0,020833	0,1	-0,001851
0,022500	0,1	-0,019479
0,024167	0,1	-0,067688
0,025833	0,1	-0,030474
0,027500	0,1	-0,039726
0,029167	0,1	-0,069021
0,030833	0,1	-0,108734
0,032500	0,1	-0,056212
0,034167	0,1	-0,049241
0,035833	0,1	-0,107341
0,037500	0,1	-0,094160
0,039167	0,1	-0,107439
0,040833	0,1	-0,061455
0,042500	0,1	-0,074929
0,044167	0,1	-0,062873
0,045833	0,1	-0,086197
0,047500	0,1	-0,054922
0,049167	0,1	-0,075464
0,050833	0,1	-0,028320
0,052500	0,1	-0,035810
0,054167	0,1	-0,050397
0,055833	0,1	-0,072252
0,057500	0,1	-0,038222
0,059167	0,1	-0,042939
0,060833	0,1	-0,007575
0,062500	0,1	-0,034145
0,064167	0,1	-0,037137
0,065833	0,1	-0,069371
0,067500	0,1	-0,079303
0,069167	0,1	-0,061510
0,070833	0,1	-0,016862
0,072500	0,1	-0,033071
0,074167	0,1	-0,028062
0,075833	0,1	-0,042874
0,077500	0,1	-0,045860
0,079167	0,1	0,025799
0,080833	0,1	-0,018082
0,082500	0,1	-0,010470
0,084167	0,1	-0,022152
0,085833	0,1	-0,009208
0,087500	0,1	0,001320
0,089167	0,1	-0,016224
0,090833	0,1	0,008799
0,092500	0,1	0,023224
0,094167	0,1	-0,014624
0,095833	0,1	-0,008626
0,097500	0,1	-0,030687
0,099167	0,1	-0,012337
0,100833	0,1	-0,024846
0,102500	0,1	-0,036864
0,104167	0,1	-0,004923
0,105833	0,1	-0,034768
0,107500	0,1	-0,078151
0,109167	0,1	-0,032217
0,110833	0,1	-0,059219
0,112500	0,1	-0,035299
0,114167	0,1	-0,033324
0,115833	0,1	-0,056836
0,117500	0,1	-0,066041
0,119167	0,1	-0,050360
0,120833	0,1	-0,029744
0,122500	0,1	-0,069057
0,124167	0,1	0,010359
0,125833	0,1	-0,068947
0,127500	0,1	-0,014459
0,129167	0,1	-0,041649
0,130833	0,1	-0,016401
0,132500	0,1	-0,040259
0,134167	0,1	-0,009377
0,135833	0,1	-0,071768
0,137500	0,1	-0,034142
0,139167	0,1	-0,031149
0,140833	0,1	-0,044905
0,142500	0,1	-0,015034
0,144167	0,1	-0,012169
0,145833	0,1	-0,028575
0,147500	0,1	-0,017102
0,149167	0,1	-0,023668
0,150833	0,1	-0,029139
0,152500	0,1	-0,061893
0,154167	0,1	-0,005860
0,155833	0,1	-0,051860
0,157500	0,1	-0,036105
0,159167	0,1	-0,001111
0,160833	0,1	-0,019292
0,162500	0,1	0,008425
0,164167	0,1	-0,020159
0,165833	0,1	-0,005416
0,167500	0,1	-0,051692
0,169167	0,1	-0,038488
0,170833	0,1	-0,031171
0,172500	0,1	-0,022095
0,174167	0,1	-0,027190
0,175833	0,1	0,002332
0,177500	0,1	0,013981
0,179167	0,1	-0,028342
0,180833	0,1	-0,034030
0,182500	0,1	-0,015385
0,184167	0,1	-0,004751
0,185833	0,1	-0,019976
0,187500	0,1	-0,042643
0,189167	0,1	-0,051041
0,190833	0,1	0,003921
0,192500	0,1	-0,008373
0,194167	0,1	-0,059399
0,195833	0,1	0,018380
0,197500	0,1	-0,016719
0,199167	0,1	-0,023854
0,200833	0,1	-0,020064
0,202500	0,1	-0,001107
0,204167	0,1	-0,002800
0,205833	0,1	-0,040446
0,207500	0,1	-0,002086
0,209167	0,1	-0,018132
0,210833	0,1	-0,015732
0,212500	0,1	-0,031663
0,214167	0,1	-0,005459
0,215833	0,1	-0,008500
0,217500	0,1	0,009234
0,219167	0,1	-0,008785
0,220833	0,1	0,030782
0,222500	0,1	-0,009484
0,224167	0,1	-0,017554
0,225833	0,1	0,003182
0,227500	0,1	0,018644
0,229167	0,1	-0,022043
0,230833	0,1	-0,007861
0,232500	0,1	-0,030212
0,234167	0,1	0,014118
0,235833	0,1	0,003915
0,237500	0,1	-0,041933
0,239167	0,1	0,012417
0,240833	0,1	-0,025401
0,242500	0,1	-0,050869
0,244167	0,1	-0,020713
0,245833	0,1	-0,045256
0,247500	0,1	-0,043415
0,249167	0,1	0,021326
0,250833	0,1	-0,031840
0,252500	0,1	-0,020603
0,254167	0,1	-0,018156
0,255833	0,1	0,026035
0,257500	0,1	-0,004720
0,259167	0,1	-0,029091
0,260833	0,1	0,003989
0,262500	0,1	-0,015022
0,264167	0,1	0,005565
0,265833	0,1	0,047174
0,267500	0,1	0,011196
0,269167	0,1	0,027409
0,270833	0,1	-0,021895
0,272500	0,1	0,004279
0,274167	0,1	-0,004352
0,275833	0,1	-0,029029
0,277500	0,1	-0,001791
0,279167	0,1	-0,032841
0,280833	0,1	0,028227
0,282500	0,1	-0,007476
0,284167	0,1	0,013792
0,285833	0,1	0,013590
0,287500	0,1	0,004890
0,289167	0,1	0,065925
0,290833	0,1	-0,009705
0,292500	0,1	-0,023418
0,294167	0,1	0,011117
0,295833	0,1	-0,001264
0,297500	0,1	0,004678
0,299167	0,1	-0,016266
0,300833	0,1	0,017997
0,302500	0,1	-0,014792
0,304167	0,1	-0,008129
0,305833	0,1	0,012985
0,307500	0,1	0,015911
0,309167	0,1	-0,019887
0,310833	0,1	0,008818
0,312500	0,1	0,002484
0,314167	0,1	-0,013760
0,315833	0,1	0,028894
0,317500	0,1	0,016206
0,319167	0,1	-0,015205
0,320833	0,1	0,059911
0,322500	0,1	0,031566
0,324167	0,1	-0,001032
0,325833	0,1	0,020403
0,327500	0,1	-0,019039
0,329167	0,1	-0,028824
0,330833	0,1	-0,023835
0,332500	0,1	0,010246
0,334167	0,1	-0,016947
0,335833	0,1	0,030076
0,337500	0,1	0,021633
0,339167	0,1	0,022502
0,340833	0,1	0,028758
0,342500	0,1	0,008601
0,344167	0,1	-0,007169
0,345833	0,1	0,010872
0,347500	0,1	0,002050
0,349167	0,1	-0,003940
0,350833	0,1	-0,001828
0,352500	0,1	0,022559
0,354167	0,1	0,057829
0,355833	0,1	0,039086
0,357500	0,1	0,018902
0,359167	0,1	0,034414
0,360833	0,1	0,029590
0,362500	0,1	0,012601
0,364167	0,1	-0,042865
0,365833	0,1	0,034193
0,367500	0,1	0,063818
0,369167	0,1	0,010598
0,370833	0,1	0,027409
0,372500	0,1	0,026937
0,374167	0,1	0,013449
0,375833	0,1	0,001306
0,377500	0,1	0,041662
0,379167	0,1	0,045754
0,380833	0,1	0,023524
0,382500	0,1	0,007232
0,384167	0,1	-0,004001
0,385833	0,1	0,025790
0,387500	0,1	0,009782
0,389167	0,1	0,035696
0,390833	0,1	0,049646
0,392500	0,1	0,047165
0,394167	0,1	0,016354
0,395833	0,1	-0,009841
0,397500	0,1	0,021790
0,399167	0,1	0,077161
0,400833	0,1	0,035899
0,402500	0,1	0,056649
0,404167	0,1	0,086743
0,405833	0,1	0,046407
0,407500	0,1	0,039166
0,409167	0,1	0,040802
0,410833	0,1	0,054827
0,412500	0,1	0,055018
0,414167	0,1	0,059928
0,415833	0,1	0,051105
0,417500	0,1	0,049899
0,419167	0,1	0,033635
0,420833	0,1	0,011357
0,422500	0,1	0,050987
0,424167	0,1	0,049194
0,425833	0,1	0,043931
0,427500	0,1	0,003551
0,429167	0,1	0,048871
0,430833	0,1	0,045795
0,432500	0,1	0,047846
0,434167	0,1	0,065377
0,435833	0,1	0,013645
0,437500	0,1	0,023556
0,439167	0,1	0,034893
0,440833	0,1	0,038356
0,442500	0,1	0,068711
0,444167	0,1	0,061712
0,445833	0,1	0,023216
0,447500	0,1	0,036427
0,449167	0,1	0,055801
0,450833	0,1	0,042255
0,452500	0,1	-0,002584
0,454167	0,1	0,057636
0,455833	0,1	0,045735
0,457500	0,1	0,043891
0,459167	0,1	0,056362
0,460833	0,1	0,088771
0,462500	0,1	0,047942
0,464167	0,1	0,046687
0,465833	0,1	0,065564
0,467500	0,1	0,067287
0,469167	0,1	0,021104
0,470833	0,1	0,050245
0,472500	0,1	0,027959
0,474167	0,1	0,085968
0,475833	0,1	0,030058
0,477500	0,1	0,049582
0,479167	0,1	0,038131
0,480833	0,1	0,066534
0,482500	0,1	0,036352
0,484167	0,1	0,036636
0,485833	0,1	0,013183
0,487500	0,1	0,035572
0,489167	0,1	0,039288
0,490833	0,1	0,072378
0,492500	0,1	0,023012
0,494167	0,1	0,051177
0,495833	0,1	0,017722
0,497500	0,1	0,064540
0,499167	0,1	0,072714
0,500833	0,1	0,086205
0,502500	0,1	0,049743
0,504167	0,1	0,069415
0,505833	0,1	0,039338
0,507500	0,1	0,040303
0,509167	0,1	0,060527
0,510833	0,1	0,013228
0,512500	0,1	0,055757
0,514167	0,1	0,037946
0,515833	0,1	0,040883
0,517500	0,1	0,066121
0,519167	0,1	0,066315
0,520833	0,1	0,048061
0,522500	0,1	0,052530
0,524167	0,1	0,075985
0,525833	0,1	0,042800
0,527500	0,1	0,049255
0,529167	0,1	0,082658
0,530833	0,1	0,056621
0,532500	0,1	0,081479
0,534167	0,1	0,053056
0,535833	0,1	0,061360
0,537500	0,1	0,087449
0,539167	0,1	0,065347
0,540833	0,1	0,093065
0,542500	0,1	0,113481
0,544167	0,1	0,065621
0,545833	0,1	0,038819
0,547500	0,1	0,088666
0,549167	0,1	0,076886
0,550833	0,1	0,097276
0,552500	0,1	0,044709
0,554167	0,1	0,080174
0,555833	0,1	0,031984
0,557500	0,1	0,070967
0,559167	0,1	0,068719
0,560833	0,1	0,049802
0,562500	0,1	0,098492
0,564167	0,1	0,057556
0,565833	0,1	0,064986
0,567500	0,1	0,091968
0,569167	0,1	0,094664
0,570833	0,1	0,103492
0,572500	0,1	0,108908
0,574167	0,1	0,083565
0,575833	0,1	0,095680
0,577500	0,1	0,127136
0,579167	0,1	0,073809
0,580833	0,1	0,113875
0,582500	0,1	0,036488
0,584167	0,1	0,103377
0,585833	0,1	0,074407
0,587500	0,1	0,102039
0,589167	0,1	0,098316
0,590833	0,1	0,060169
0,592500	0,1	0,060758
0,594167	0,1	0,053779
0,595833	0,1	0,090163
0,597500	0,1	0,060396
0,599167	0,1	0,117390
0,600833	0,1	0,075195
0,602500	0,1	0,096279
0,604167	0,1	0,126064
0,605833	0,1	0,121057
0,607500	0,1	0,090384
0,609167	0,1	0,098540
0,610833	0,1	0,103743
0,612500	0,1	0,108492
0,614167	0,1	0,091148
0,615833	0,1	0,134038
0,617500	0,1	0,102617
0,619167	0,1	0,089470
0,620833	0,1	0,076143
0,622500	0,1	0,132584
0,624167	0,1	0,130796
0,625833	0,1	0,112557
0,627500	0,1	0,100701
0,629167	0,1	0,103063
0,630833	0,1	0,092574
0,632500	0,1	0,127245
0,634167	0,1	0,130960
0,635833	0,1	0,130607
0,637500	0,1	0,135089
0,639167	0,1	0,139956
0,640833	0,1	0,121123
0,642500	0,1	0,122504
0,644167	0,1	0,108333
0,645833	0,1	0,129583
0,647500	0,1	0,146944
0,649167	0,1	0,125597
0,650833	0,1	0,119998
0,652500	0,1	0,136574
0,654167	0,1	0,142486
0,655833	0,1	0,131920
0,657500	0,1	0,133679
0,659167	0,1	0,144390
0,660833	0,1	0,142779
0,662500	0,1	0,144038
0,664167	0,1	0,130510
0,665833	0,1	0,182911
0,667500	0,1	0,125214
0,669167	0,1	0,158257
0,670833	0,1	0,090417
0,672500	0,1	0,158122
0,674167	0,1	0,113669
0,675833	0,1	0,171531
0,677500	0,1	0,126975
0,679167	0,1	0,159996
0,680833	0,1	0,139593
0,682500	0,1	0,143443
0,684167	0,1	0,168352
0,685833	0,1	0,206366
0,687500	0,1	0,163870
0,689167	0,1	0,191524
0,690833	0,1	0,149566
0,692500	0,1	0,154156
0,694167	0,1	0,195277
0,695833	0,1	0,162456
0,697500	0,1	0,170231
0,699167	0,1	0,178145
0,700833	0,1	0,186891
0,702500	0,1	0,187737
0,704167	0,1	0,213943
0,705833	0,1	0,184495
0,707500	0,1	0,210000
0,709167	0,1	0,217362
0,710833	0,1	0,233719
0,712500	0,1	0,188354
0,714167	0,1	0,217711
0,715833	0,1	0,225997
0,717500	0,1	0,202323
0,719167	0,1	0,205053
0,720833	0,1	0,238492
0,722500	0,1	0,254765
0,724167	0,1	0,242271
0,725833	0,1	0,257944
0,727500	0,1	0,212927
0,729167	0,1	0,226043
0,730833	0,1	0,233331
0,732500	0,1	0,219713
0,734167	0,1	0,208168
0,735833	0,1	0,260570
0,737500	0,1	0,237989
0,739167	0,1	0,191453
0,740833	0,1	0,246238
0,742500	0,1	0,269928
0,744167	0,1	0,213675
0,745833	0,1	0,267713
0,747500	0,1	0,271763
0,749167	0,1	0,323702
0,750833	0,1	0,296333
0,752500	0,1	0,306157
0,754167	0,1	0,305424
0,755833	0,1	0,302266
0,757500	0,1	0,299478
0,759167	0,1	0,259180
0,760833	0,1	0,266366
0,762500	0,1	0,313064
0,764167	0,1	0,299317
0,765833	0,1	0,331964
0,767500	0,1	0,306745
0,769167	0,1	0,309860
0,770833	0,1	0,325928
0,772500	0,1	0,300216
0,774167	0,1	0,340802
0,775833	0,1	0,300283
0,777500	0,1	0,346620
0,779167	0,1	0,291295
0,780833	0,1	0,319851
0,782500	0,1	0,310506
0,784167	0,1	0,306295
0,785833	0,1	0,289124
0,787500	0,1	0,337237
0,789167	0,1	0,277056
0,790833	0,1	0,296576
0,792500	0,1	0,281101
0,794167	0,1	0,294458
0,795833	0,1	0,312420
0,797500	0,1	0,287105
0,799167	0,1	0,247999
0,800833	0,1	0,280701
0,802500	0,1	0,312263
0,804167	0,1	0,276399
0,805833	0,1	0,287359
0,807500	0,1	0,265366
0,809167	0,1	0,312159
0,810833	0,1	0,326085
0,812500	0,1	0,304173
0,814167	0,1	0,349065
0,815833	0,1	0,293253
0,817500	0,1	0,311814
0,819167	0,1	0,302918
0,820833	0,1	0,300401
0,822500	0,1	0,295748
0,824167	0,1	0,295874
0,825833	0,1	0,353210
0,827500	0,1	0,292130
0,829167	0,1	0,347904
0,830833	0,1	0,311536
0,832500	0,1	0,286010
0,834167	0,1	0,334723
0,835833	0,1	0,289330
0,837500	0,1	0,252007
0,839167	0,1	0,332053
0,840833	0,1	0,314331
0,842500	0,1	0,296810
0,844167	0,1	0,285076
0,845833	0,1	0,290214
0,847500	0,1	0,351599
0,849167	0,1	0,263175
0,850833	0,1	0,279220
0,852500	0,1	0,319332
0,854167	0,1	0,305555
0,855833	0,1	0,348168
0,857500	0,1	0,337054
0,859167	0,1	0,323809
0,860833	0,1	0,300895
0,862500	0,1	0,278422
0,864167	0,1	0,321260
0,865833	0,1	0,319470
0,867500	0,1	0,303301
0,869167	0,1	0,306477
0,870833	0,1	0,311111
0,872500	0,1	0,334863
0,874167	0,1	0,330978
0,875833	0,1	0,314203
0,877500	0,1	0,304805
0,879167	0,1	0,328816
0,880833	0,1	0,335637
0,882500	0,1	0,312467
0,884167	0,1	0,317984
0,885833	0,1	0,334928
0,887500	0,1	0,333677
0,889167	0,1	0,310438
0,890833	0,1	0,316415
0,892500	0,1	0,308606
0,894167	0,1	0,316796
0,895833	0,1	0,328848
0,897500	0,1	0,332487
0,899167	0,1	0,291863
0,900833	0,1	0,366001
0,902500	0,1	0,314204
0,904167	0,1	0,370666
0,905833	0,1	0,342105
0,907500	0,1	0,314785
0,909167	0,1	0,378699
0,910833	0,1	0,336583
0,912500	0,1	0,360800
0,914167	0,1	0,371542
0,915833	0,1	0,347119
0,917500	0,1	0,385361
0,919167	0,1	0,362608
0,920833	0,1	0,377136
0,922500	0,1	0,338347
0,924167	0,1	0,352254
0,925833	0,1	0,333715
0,927500	0,1	0,362501
0,929167	0,1	0,376586
0,930833	0,1	0,394652
0,932500	0,1	0,372221
0,934167	0,1	0,401115
0,935833	0,1	0,389227
0,937500	0,1	0,372735
0,939167	0,1	0,382310
0,940833	0,1	0,355569
0,942500	0,1	0,363601
0,944167	0,1	0,371092
0,945833	0,1	0,387775
0,947500	0,1	0,402660
0,949167	0,1	0,386753
0,950833	0,1	0,400827
0,952500	0,1	0,416486
0,954167	0,1	0,420669
0,955833	0,1	0,368950
0,957500	0,1	0,379705
0,959167	0,1	0,421688
0,960833	0,1	0,430634
0,962500	0,1	0,388595
0,964167	0,1	0,407128
0,965833	0,1	0,433877
0,967500	0,1	0,433595
0,969167	0,1	0,399844
0,970833	0,1	0,400252
0,972500	0,1	0,411663
0,974167	0,1	0,446511
0,975833	0,1	0,429706
0,977500	0,1	0,427966
0,979167	0,1	0,465996
0,980833	0,1	0,463368
0,982500	0,1	0,483523
0,984167	0,1	0,447844
0,985833	0,1	0,433305
0,987500	0,1	0,447608
0,989167	0,1	0,446069
0,990833	0,1	0,498564
0,992500	0,1	0,462957
0,994167	0,1	0,494067
0,995833	0,1	0,499123
0,997500	0,1	0,496005
0,999167	0,1	0,479480
1,000833	0,1	0,495326
1,002500	0,1	0,533460
1,004167	0,1	0,502991
1,005833	0,1	0,538027
1,007500	0,1	0,508136
1,009167	0,1	0,536355
1,010833	0,1	0,534788
1,012500	0,1	0,565590
1,014167	0,1	0,580712
1,015833	0,1	0,535826
1,017500	0,1	0,595269
1,019167	0,1	0,605703
1,020833	0,1	0,650663
1,022500	0,1	0,638936
1,024167	0,1	0,627965
1,025833	0,1	0,649317
1,027500	0,1	0,627163
1,029167	0,1	0,622498
1,030833	0,1	0,679965
1,032500	0,1	0,694644
1,034167	0,1	0,689996
1,035833	0,1	0,698796
1,037500	0,1	0,733471
1,039167	0,1	0,761365
1,040833	0,1	0,713775
1,042500	0,1	0,728746
1,044167	0,1	0,685818
1,045833	0,1	0,740581
1,047500	0,1	0,757322
1,049167	0,1	0,775053
1,050833	0,1	0,819793
1,052500	0,1	0,836509
1,054167	0,1	0,852469
1,055833	0,1	0,874286
1,057500	0,1	0,928657
1,059167	0,1	1,020852
1,060833	0,1	1,078840
1,062500	0,1	1,186322
1,064167	0,1	1,352297
1,065833	0,1	1,525403
1,067500	0,1	1,812852
1,069167	0,1	2,093271
1,070833	0,1	2,464498
1,072500	0,1	2,939464
1,074167	0,1	3,502533
1,075833	0,1	4,186419
1,077500	0,1	4,986348
1,079167	0,1	5,915612
1,080833	0,1	6,957930
1,082500	0,1	8,219286
1,084167	0,1	9,556943
1,085833	0,1	10,987853
1,087500	0,1	12,652171
1,089167	0,1	14,317842
1,090833	0,1	16,065743
1,092500	0,1	17,962769
1,094167	0,1	19,770537
1,095833	0,1	21,705284
1,097500	0,1	23,586639
1,099167	0,1	25,370169
1,100833	0,1	27,135274
1,102500	0,1	28,745363
1,104167	0,1	30,269558
1,105833	0,1	31,648889
1,107500	0,1	32,854092
1,109167	0,1	33,856478
1,110833	0,1	34,815785
1,112500	0,1	35,461738
1,114167	0,1	36,052601
1,115833	0,1	36,423429
1,117500	0,1	36,694127
1,119167	0,1	36,842384
1,120833	0,1	36,888557
1,122500	0,1	36,801181
1,124167	0,1	36,626433
1,125833	0,1	36,405406
1,127500	0,1	36,105167
1,129167	0,1	35,731370
1,130833	0,1	35,401373
1,132500	0,1	35,032331
1,134167	0,1	34,606784
1,135833	0,1	34,277207
1,137500	0,1	33,916794
1,139167	0,1	33,648764
1,140833	0,1	33,342137
1,142500	0,1	33,175419
1,144167	0,1	33,019245
1,145833	0,1	32,915468
1,147500	0,1	32,945204
1,149167	0,1	32,968793
1,150833	0,1	33,175569
1,152500	0,1	33,360461
1,154167	0,1	33,683396
1,155833	0,1	33,975918
1,157500	0,1	34,435115
1,159167	0,1	34,912132
1,160833	0,1	35,499866
1,162500	0,1	35,994906
1,164167	0,1	36,626012
1,165833	0,1	37,211410
1,167500	0,1	37,838249
1,169167	0,1	38,465238
1,170833	0,1	39,102844
1,172500	0,1	39,685977
1,174167	0,1	40,255083
1,175833	0,1	40,771241
1,177500	0,1	41,291733
1,179167	0,1	41,736659
1,180833	0,1	42,136381
1,182500	0,1	42,513227
1,184167	0,1	42,815307
1,185833	0,1	43,117944
1,187500	0,1	43,343915
1,189167	0,1	43,604634
1,190833	0,1	43,893087
1,192500	0,1	44,126275
1,194167	0,1	44,317533
1,195833	0,1	44,619277
1,197500	0,1	45,016987
1,199167	0,1	45,503594
1,200833	0,1	46,058875
1,202500	0,1	46,727896
1,204167	0,1	47,587185
1,205833	0,1	48,679817
1,207500	0,1	49,960310
1,209167	0,1	51,454385
1,210833	0,1	53,201265
1,212500	0,1	55,165144
1,214167	0,1	57,421761
1,215833	0,1	59,902896
1,217500	0,1	62,677552
1,219167	0,1	65,599130
1,220833	0,1	68,751296
1,222500	0,1	72,098499
1,224167	0,1	75,602444
1,225833	0,1	79,202093
1,227500	0,1	82,802636
1,229167	0,1	86,575741
1,230833	0,1	90,263395
1,232500	0,1	93,837289
1,234167	0,1	97,445989
1,235833	0,1	100,944694
1,237500	0,1	104,198945
1,239167	0,1	107,289439
1,240833	0,1	110,142366
1,242500	0,1	112,822763
1,244167	0,1	115,272217
1,245833	0,1	117,445214
1,247500	0,1	119,293103
1,249167	0,1	120,877611
1,250833	0,1	122,224153
1,252500	0,1	123,238007
1,254167	0,1	123,998353
1,255833	0,1	124,486862
1,257500	0,1	124,642870
1,259167	0,1	124,587910
1,260833	0,1	124,262718
1,262500	0,1	123,703938
1,264167	0,1	122,813759
1,265833	0,1	121,833966
1,267500	0,1	120,526803
1,269167	0,1	119,016766
1,270833	0,1	117,344308
1,272500	0,1	115,485866
1,274167	0,1	113,499078
1,275833	0,1	111,356395
1,277500	0,1	109,126798
1,279167	0,1	106,697828
1,280833	0,1	104,159164
1,282500	0,1	101,699329
1,284167	0,1	99,095383
1,285833	0,1	96,446620
1,287500	0,1	93,799307
1,289167	0,1	91,130126
1,290833	0,1	88,408866
1,292500	0,1	85,808866
1,294167	0,1	83,109287
1,295833	0,1	80,584436
1,297500	0,1	78,023589
1,299167	0,1	75,542216
1,300833	0,1	73,132648
1,302500	0,1	70,767884
1,304167	0,1	68,412127
1,305833	0,1	66,269200
1,307500	0,1	64,135630
1,309167	0,1	62,066713
1,310833	0,1	60,046522
1,312500	0,1	58,190834
1,314167	0,1	56,359808
1,315833	0,1	54,669609
1,317500	0,1	52,976753
1,319167	0,1	51,330064
1,320833	0,1	49,856185
1,322500	0,1	48,332137
1,324167	0,1	46,927037
1,325833	0,1	45,599140
1,327500	0,1	44,310902
1,329167	0,1	43,067884
1,330833	0,1	41,886807
1,332500	0,1	40,781484
1,334167	0,1	39,688703
1,335833	0,1	38,622686
1,337500	0,1	37,599000
1,339167	0,1	36,621260
1,340833	0,1	35,620187
1,342500	0,1	34,805827
1,344167	0,1	33,876686
1,345833	0,1	33,066082
1,347500	0,1	32,173991
1,349167	0,1	31,411774
1,350833	0,1	30,655660
1,352500	0,1	29,918463
1,354167	0,1	29,238914
1,355833	0,1	28,482468
1,357500	0,1	27,807076
1,359167	0,1	27,112988
1,360833	0,1	26,504534
1,362500	0,1	25,836919
1,364167	0,1	25,224211
1,365833	0,1	24,656274
1,367500	0,1	24,092152
1,369167	0,1	23,498478
1,370833	0,1	22,936266
1,372500	0,1	22,412074
1,374167	0,1	21,860306
1,375833	0,1	21,406603
1,377500	0,1	20,886360
1,379167	0,1	20,386298
1,380833	0,1	19,912234
1,382500	0,1	19,456956
1,384167	0,1	19,056372
1,385833	0,1	18,597409
1,387500	0,1	18,220204
1,389167	0,1	17,825560
1,390833	0,1	17,391745
1,392500	0,1	17,050449
1,394167	0,1	16,671656
1,395833	0,1	16,321363
1,397500	0,1	15,943344
1,399167	0,1	15,654322
1,400833	0,1	15,310031
1,402500	0,1	14,995629
1,404167	0,1	14,720160
1,405833	0,1	14,438994
1,407500	0,1	14,144182
1,409167	0,1	13,892521
1,410833	0,1	13,632966
1,412500	0,1	13,421079
1,414167	0,1	13,121644
1,415833	0,1	12,945077
1,417500	0,1	12,697403
1,419167	0,1	12,471172
1,420833	0,1	12,288268
1,422500	0,1	12,075458
1,424167	0,1	11,894820
1,425833	0,1	11,737563
1,427500	0,1	11,507084
1,429167	0,1	11,374223
1,430833	0,1	11,144086
1,432500	0,1	11,027343
1,434167	0,1	10,882253
1,435833	0,1	10,640061
1,437500	0,1	10,538987
1,439167	0,1	10,368513
1,440833	0,1	10,222855
1,442500	0,1	10,076490
1,444167	0,1	9,914508
1,445833	0,1	9,807211
1,447500	0,1	9,680418
1,449167	0,1	9,582742
1,450833	0,1	9,397714
1,452500	0,1	9,270751
1,454167	0,1	9,198899
1,455833	0,1	9,055496
1,457500	0,1	8,922351
1,459167	0,1	8,825351
1,460833	0,1	8,702561
1,462500	0,1	8,603070
1,464167	0,1	8,462121
1,465833	0,1	8,401898
1,467500	0,1	8,291161
1,469167	0,1	8,230277
1,470833	0,1	8,116908
1,472500	0,1	8,019720
1,474167	0,1	7,977602
1,475833	0,1	7,870299
1,477500	0,1	7,767493
1,479167	0,1	7,722804
1,480833	0,1	7,636224
1,482500	0,1	7,586318
1,484167	0,1	7,524145
1,485833	0,1	7,488280
1,487500	0,1	7,415939
1,489167	0,1	7,329688
1,490833	0,1	7,320796
1,492500	0,1	7,271253
1,494167	0,1	7,239058
1,495833	0,1	7,158832
1,497500	0,1	7,119644
1,499167	0,1	7,078221
1,500833	0,1	7,081107
1,502500	0,1	7,063572
1,504167	0,1	7,038204
1,505833	0,1	7,020947
1,507500	0,1	6,998286
1,509167	0,1	6,954366
1,510833	0,1	6,920795
1,512500	0,1	6,895710
1,514167	0,1	6,895240
1,515833	0,1	6,843598
1,517500	0,1	6,847877
1,519167	0,1	6,837344
1,520833	0,1	6,795402
1,522500	0,1	6,811146
1,524167	0,1	6,800430
1,525833	0,1	6,739478
1,527500	0,1	6,745059
1,529167	0,1	6,719991
1,530833	0,1	6,732751
1,532500	0,1	6,677122
1,534167	0,1	6,695282
1,535833	0,1	6,670132
1,537500	0,1	6,631465
1,539167	0,1	6,603970
1,540833	0,1	6,603124
1,542500	0,1	6,560546
1,544167	0,1	6,513696
1,545833	0,1	6,540976
1,547500	0,1	6,523940
1,549167	0,1	6,451378
1,550833	0,1	6,434040
1,552500	0,1	6,445687
1,554167	0,1	6,438247
1,555833	0,1	6,392512
1,557500	0,1	6,330577
1,559167	0,1	6,338393
1,560833	0,1	6,343978
1,562500	0,1	6,258166
1,564167	0,1	6,287838
1,565833	0,1	6,200697
1,567500	0,1	6,247337
1,569167	0,1	6,204336
1,570833	0,1	6,174080
1,572500	0,1	6,161133
1,574167	0,1	6,100846
1,575833	0,1	6,100907
1,577500	0,1	6,046020
1,579167	0,1	6,005543
1,580833	0,1	6,004704
1,582500	0,1	5,985423
1,584167	0,1	5,999135
1,585833	0,1	5,897980
1,587500	0,1	5,941594
1,589167	0,1	5,902909
1,590833	0,1	5,887028
1,592500	0,1	5,856797
1,594167	0,1	5,806091
1,595833	0,1	5,790316
1,597500	0,1	5,777824
1,599167	0,1	5,744559
1,600833	0,1	5,715968
1,602500	0,1	5,717863
1,604167	0,1	5,675442
1,605833	0,1	5,636199
1,607500	0,1	5,684570
1,609167	0,1	5,609458
1,610833	0,1	5,573856
1,612500	0,1	5,554963
1,614167	0,1	5,572520
1,615833	0,1	5,592103
1,617500	0,1	5,546943
1,619167	0,1	5,520696
1,620833	0,1	5,522794
1,622500	0,1	5,540377
1,624167	0,1	5,503913
1,625833	0,1	5,545469
1,627500	0,1	5,559984
1,629167	0,1	5,545483
1,630833	0,1	5,605307
1,632500	0,1	5,628415
1,634167	0,1	5,687941
1,635833	0,1	5,672989
1,637500	0,1	5,807487
1,639167	0,1	5,837499
1,640833	0,1	5,948725
1,642500	0,1	6,052175
1,644167	0,1	6,136888
1,645833	0,1	6,319095
1,647500	0,1	6,465018
1,649167	0,1	6,651727
1,650833	0,1	6,872622
1,652500	0,1	7,107067
1,654167	0,1	7,394657
1,655833	0,1	7,679643
1,657500	0,1	8,001430
1,659167	0,1	8,353714
1,660833	0,1	8,768198
1,662500	0,1	9,166429
1,664167	0,1	9,746895
1,665833	0,1	10,238547
1,667500	0,1	10,819403
1,669167	0,1	11,448743
1,670833	0,1	12,182791
1,672500	0,1	12,934445
1,674167	0,1	13,764724
1,675833	0,1	14,683883
1,677500	0,1	15,564414
1,679167	0,1	16,644890
1,680833	0,1	17,722179
1,682500	0,1	18,864048
1,684167	0,1	20,118060
1,685833	0,1	21,378402
1,687500	0,1	22,774825
1,689167	0,1	24,237907
1,690833	0,1	25,769399
1,692500	0,1	27,354744
1,694167	0,1	29,054772
1,695833	0,1	30,782655
1,697500	0,1	32,597385
1,699167	0,1	34,478667
1,700833	0,1	36,436326
1,702500	0,1	38,519208
1,704167	0,1	40,593406
1,705833	0,1	42,764520
1,707500	0,1	44,964836
1,709167	0,1	47,213087
1,710833	0,1	49,545747
1,712500	0,1	51,946569
1,714167	0,1	54,323051
1,715833	0,1	56,809111
1,717500	0,1	59,292370
1,719167	0,1	61,774082
1,720833	0,1	64,307452
1,722500	0,1	66,843313
1,724167	0,1	69,430365
1,725833	0,1	72,002719
1,727500	0,1	74,536153
1,729167	0,1	77,053782
1,730833	0,1	79,584721
1,732500	0,1	82,106668
1,734167	0,1	84,661222
1,735833	0,1	87,027102
1,737500	0,1	89,468306
1,739167	0,1	91,835400
1,740833	0,1	94,135161
1,742500	0,1	96,409980
1,744167	0,1	98,577660
1,745833	0,1	100,733943
1,747500	0,1	102,750956
1,749167	0,1	104,715997
1,750833	0,1	106,648103
1,752500	0,1	108,493627
1,754167	0,1	110,164899
1,755833	0,1	111,819785
1,757500	0,1	113,304060
1,759167	0,1	114,788188
1,760833	0,1	116,119823
1,762500	0,1	117,323011
1,764167	0,1	118,433695
1,765833	0,1	119,446912
1,767500	0,1	120,417579
1,769167	0,1	121,205973
1,770833	0,1	121,883500
1,772500	0,1	122,482207
1,774167	0,1	122,947516
1,775833	0,1	123,285447
1,777500	0,1	123,590124
1,779167	0,1	123,715705
1,780833	0,1	123,811855
1,782500	0,1	123,771423
1,784167	0,1	123,595363
1,785833	0,1	123,411283
1,787500	0,1	122,981544
1,789167	0,1	122,551123
1,790833	0,1	122,048731
1,792500	0,1	121,381707
1,794167	0,1	120,649116
1,795833	0,1	119,902516
1,797500	0,1	119,030729
1,799167	0,1	118,063461
1,800833	0,1	117,009087
1,802500	0,1	115,956297
1,804167	0,1	114,766279
1,805833	0,1	113,523730
1,807500	0,1	112,302471
1,809167	0,1	110,899667
1,810833	0,1	109,519787
1,812500	0,1	108,106902
1,814167	0,1	106,594283
1,815833	0,1	105,056147
1,817500	0,1	103,493520
1,819167	0,1	101,921754
1,820833	0,1	100,292328
1,822500	0,1	98,647858
1,824167	0,1	96,999252
1,825833	0,1	95,291240
1,827500	0,1	93,599776
1,829167	0,1	91,869441
1,830833	0,1	90,168855
1,832500	0,1	88,430350
1,834167	0,1	86,690995
1,835833	0,1	84,986711
1,837500	0,1	83,211131
1,839167	0,1	81,534396
1,840833	0,1	79,790560
1,842500	0,1	78,093173
1,844167	0,1	76,441285
1,845833	0,1	74,793662
1,847500	0,1	73,124243
1,849167	0,1	71,499555
1,850833	0,1	69,865706
1,852500	0,1	68,310854
1,854167	0,1	66,773424
1,855833	0,1	65,270438
1,857500	0,1	63,725567
1,859167	0,1	62,282871
1,860833	0,1	60,796785
1,862500	0,1	59,391250
1,864167	0,1	58,009970
1,865833	0,1	56,589697
1,867500	0,1	55,224218
1,869167	0,1	53,927978
1,870833	0,1	52,650710
1,872500	0,1	51,378155
1,874167	0,1	50,142489
1,875833	0,1	48,928556
1,877500	0,1	47,767901
1,879167	0,1	46,581803
1,880833	0,1	45,447961
1,882500	0,1	44,339709
1,884167	0,1	43,254248
1,885833	0,1	42,199215
1,887500	0,1	41,156803
1,889167	0,1	40,121163
1,890833	0,1	39,183352
1,892500	0,1	38,183137
1,894167	0,1	37,301824
1,895833	0,1	36,355524
1,897500	0,1	35,495334
1,899167	0,1	34,697486
1,900833	0,1	33,797789
1,902500	0,1	32,970598
1,904167	0,1	32,200644
1,905833	0,1	31,448999
1,907500	0,1	30,675416
1,909167	0,1	29,946902
1,910833	0,1	29,283917
1,912500	0,1	28,571552
1,914167	0,1	27,942691
1,915833	0,1	27,278800
1,917500	0,1	26,635767
1,919167	0,1	26,037603
1,920833	0,1	25,417501
1,922500	0,1	24,842538
1,924167	0,1	24,283835
1,925833	0,1	23,722388
1,927500	0,1	23,174200
1,929167	0,1	22,630397
1,930833	0,1	22,161259
1,932500	0,1	21,614302
1,934167	0,1	21,216482
1,935833	0,1	20,704248
1,937500	0,1	20,249627
1,939167	0,1	19,838631
1,940833	0,1	19,453208
1,942500	0,1	19,038667
1,944167	0,1	18,612970
1,945833	0,1	18,191317
1,947500	0,1	17,811314
1,949167	0,1	17,463681
1,950833	0,1	17,099758
1,952500	0,1	16,751271
1,954167	0,1	16,431158
1,955833	0,1	16,144622
1,957500	0,1	15,817396
1,959167	0,1	15,510502
1,960833	0,1	15,220195
1,962500	0,1	14,951094
1,964167	0,1	14,674983
1,965833	0,1	14,422949
1,967500	0,1	14,187325
1,969167	0,1	13,947449
1,970833	0,1	13,676430
1,972500	0,1	13,498987
1,974167	0,1	13,245695
1,975833	0,1	13,068551
1,977500	0,1	12,844470
1,979167	0,1	12,669571
1,980833	0,1	12,443454
1,982500	0,1	12,268714
1,984167	0,1	12,177236
1,985833	0,1	11,986488
1,987500	0,1	11,825998
1,989167	0,1	11,670206
1,990833	0,1	11,567449
1,992500	0,1	11,438849
1,994167	0,1	11,302004
1,995833	0,1	11,207269
1,997500	0,1	11,076528
1,999167	0,1	10,975785
2,000833	0,1	10,881324
2,002500	0,1	10,779569
2,004167	0,1	10,703335
2,005833	0,1	10,599708
2,007500	0,1	10,584986
2,009167	0,1	10,463086
2,010833	0,1	10,399358
2,012500	0,1	10,388377
2,014167	0,1	10,308465
2,015833	0,1	10,268763
2,017500	0,1	10,184038
2,019167	0,1	10,149292
2,020833	0,1	10,118601
2,022500	0,1	10,034277
2,024167	0,1	10,045489
2,025833	0,1	9,998278
2,027500	0,1	9,986239
2,029167	0,1	9,968492
2,030833	0,1	9,950089
2,032500	0,1	9,926518
2,034167	0,1	9,900655
2,035833	0,1	9,915488
2,037500	0,1	9,905671
2,039167	0,1	9,900775
2,040833	0,1	9,914803
2,042500	0,1	9,922674
2,044167	0,1	9,871808
2,045833	0,1	9,893220
2,047500	0,1	9,913852
2,049167	0,1	9,907898
2,050833	0,1	9,898974
2,052500	0,1	9,916560
2,054167	0,1	9,893763
2,055833	0,1	9,941148
2,057500	0,1	9,952143
2,059167	0,1	9,946048
2,060833	0,1	9,967979
2,062500	0,1	9,977612
2,064167	0,1	9,967267
2,065833	0,1	10,001224
2,067500	0,1	10,021760
2,069167	0,1	10,010699
2,070833	0,1	10,019913
2,072500	0,1	10,011279
2,074167	0,1	9,998974
2,075833	0,1	10,021989
2,077500	0,1	10,063783
2,079167	0,1	10,057054
2,080833	0,1	10,042699
2,082500	0,1	10,024828
2,084167	0,1	10,074242
2,085833	0,1	10,040469
2,087500	0,1	10,081168
2,089167	0,1	10,034375
2,090833	0,1	10,065329
2,092500	0,1	10,080168
2,094167	0,1	10,083579
2,095833	0,1	10,095089
2,097500	0,1	10,075176
2,099167	0,1	10,065723
2,100833	0,1	10,074909
2,102500	0,1	10,061429
2,104167	0,1	10,029829
2,105833	0,1	10,046744
2,107500	0,1	10,008916
2,109167	0,1	10,013599
2,110833	0,1	10,004628
2,112500	0,1	9,987815
2,114167	0,1	9,990883
2,115833	0,1	9,961142
2,117500	0,1	9,941527
2,119167	0,1	9,920576
2,120833	0,1	9,966765
2,122500	0,1	9,906259
2,124167	0,1	9,848658
2,125833	0,1	9,892621
2,127500	0,1	9,835454
2,129167	0,1	9,836477
2,130833	0,1	9,801067
2,132500	0,1	9,795930
2,134167	0,1	9,749928
2,135833	0,1	9,739536
2,137500	0,1	9,710318
2,139167	0,1	9,701985
2,140833	0,1	9,694970
2,142500	0,1	9,592820
2,144167	0,1	9,569301
2,145833	0,1	9,608574
2,147500	0,1	9,534392
2,149167	0,1	9,525288
2,150833	0,1	9,494022
2,152500	0,1	9,440666
2,154167	0,1	9,414474
2,155833	0,1	9,388867
2,157500	0,1	9,407237
2,159167	0,1	9,300452
2,160833	0,1	9,293658
2,162500	0,1	9,286438
2,164167	0,1	9,234606
2,165833	0,1	9,207143
2,167500	0,1	9,179172
2,169167	0,1	9,114711
2,170833	0,1	9,103263
2,172500	0,1	9,045415
2,174167	0,1	9,025933
2,175833	0,1	8,994002
2,177500	0,1	8,964326
2,179167	0,1	8,947008
2,180833	0,1	8,881026
2,182500	0,1	8,919761
2,184167	0,1	8,837611
2,185833	0,1	8,794861
2,187500	0,1	8,807506
2,189167	0,1	8,742123
2,190833	0,1	8,741477
2,192500	0,1	8,689485
2,194167	0,1	8,648422
2,195833	0,1	8,634553
2,197500	0,1	8,604139
2,199167	0,1	8,514315
2,200833	0,1	8,504247
2,202500	0,1	8,457792
2,204167	0,1	8,436170
2,205833	0,1	8,437275
2,207500	0,1	8,400050
2,209167	0,1	8,369937
2,210833	0,1	8,329499
2,212500	0,1	8,290331
2,214167	0,1	8,288197
2,215833	0,1	8,295062
2,217500	0,1	8,250987
2,219167	0,1	8,232528
2,220833	0,1	8,158726
2,222500	0,1	8,153115
2,224167	0,1	8,122617
2,225833	0,1	8,088307
2,227500	0,1	8,109400
2,229167	0,1	8,053608
2,230833	0,1	8,027835
2,232500	0,1	8,038737
2,234167	0,1	7,987712
2,235833	0,1	7,994242
2,237500	0,1	7,955109
2,239167	0,1	7,933595
2,240833	0,1	7,922848
2,242500	0,1	7,904155
2,244167	0,1	7,892572
2,245833	0,1	7,907405
2,247500	0,1	7,873315
2,249167	0,1	7,818486
2,250833	0,1	7,824403
2,252500	0,1	7,783804
2,254167	0,1	7,786423
2,255833	0,1	7,768199
2,257500	0,1	7,727198
2,259167	0,1	7,680109
2,260833	0,1	7,727080
2,262500	0,1	7,686559
2,264167	0,1	7,653575
2,265833	0,1	7,637967
2,267500	0,1	7,576187
2,269167	0,1	7,640475
2,270833	0,1	7,584954
2,272500	0,1	7,568575
2,274167	0,1	7,515655
2,275833	0,1	7,553151
2,277500	0,1	7,488469
2,279167	0,1	7,473354
2,280833	0,1	7,471168
2,282500	0,1	7,403242
2,284167	0,1	7,420397
2,285833	0,1	7,389607
2,287500	0,1	7,390247
2,289167	0,1	7,375318
2,290833	0,1	7,285738
2,292500	0,1	7,280309
2,294167	0,1	7,301292
2,295833	0,1	7,272560
2,297500	0,1	7,207355
2,299167	0,1	7,238674
2,300833	0,1	7,227669
2,302500	0,1	7,189046
2,304167	0,1	7,164514
2,305833	0,1	7,133445
2,307500	0,1	7,081495
2,309167	0,1	7,120556
2,310833	0,1	7,036166
2,312500	0,1	7,075874
2,314167	0,1	7,012286
2,315833	0,1	7,011522
2,317500	0,1	6,967703
2,319167	0,1	6,959673
2,320833	0,1	6,903922
2,322500	0,1	6,912391
2,324167	0,1	6,921904
2,325833	0,1	6,898880
2,327500	0,1	6,853756
2,329167	0,1	6,819537
2,330833	0,1	6,798291
2,332500	0,1	6,824657
2,334167	0,1	6,753362
2,335833	0,1	6,779628
2,337500	0,1	6,739848
2,339167	0,1	6,740210
2,340833	0,1	6,674794
2,342500	0,1	6,698166
2,344167	0,1	6,690250
2,345833	0,1	6,658382
2,347500	0,1	6,676648
2,349167	0,1	6,640682
2,350833	0,1	6,642810
2,352500	0,1	6,599221
2,354167	0,1	6,625298
2,355833	0,1	6,576017
2,357500	0,1	6,582244
2,359167	0,1	6,578802
2,360833	0,1	6,602008
2,362500	0,1	6,566322
2,364167	0,1	6,590073
2,365833	0,1	6,594724
2,367500	0,1	6,596228
2,369167	0,1	6,577215
2,370833	0,1	6,605726
2,372500	0,1	6,587566
2,374167	0,1	6,628179
2,375833	0,1	6,626412
2,377500	0,1	6,686230
2,379167	0,1	6,671434
2,380833	0,1	6,710939
2,382500	0,1	6,754270
2,384167	0,1	6,773300
2,385833	0,1	6,799394
2,387500	0,1	6,866321
2,389167	0,1	6,895978
2,390833	0,1	6,986413
2,392500	0,1	7,050772
2,394167	0,1	7,066923
2,395833	0,1	7,183892
2,397500	0,1	7,296602
2,399167	0,1	7,325199
2,400833	0,1	7,442406
2,402500	0,1	7,567356
2,404167	0,1	7,681291
2,405833	0,1	7,821403
2,407500	0,1	7,948705
2,409167	0,1	8,162683
2,410833	0,1	8,288206
2,412500	0,1	8,471993
2,414167	0,1	8,658778
2,415833	0,1	8,787081
2,417500	0,1	8,999446
2,419167	0,1	9,279565
2,420833	0,1	9,460514
2,422500	0,1	9,658152
2,424167	0,1	9,938736
2,425833	0,1	10,213762
2,427500	0,1	10,477197
2,429167	0,1	10,746380
2,430833	0,1	10,990429
2,432500	0,1	11,288695
2,434167	0,1	11,587374
2,435833	0,1	11,907591
2,437500	0,1	12,179212
2,439167	0,1	12,528656
2,440833	0,1	12,785047
2,442500	0,1	13,124952
2,444167	0,1	13,464454
2,445833	0,1	13,776327
2,447500	0,1	14,119692
2,449167	0,1	14,425865
2,450833	0,1	14,774913
2,452500	0,1	15,123830
2,454167	0,1	15,445639
2,455833	0,1	15,821887
2,457500	0,1	16,154471
2,459167	0,1	16,506523
2,460833	0,1	16,912938
2,462500	0,1	17,271482
2,464167	0,1	17,650775
2,465833	0,1	18,001091
2,467500	0,1	18,494314
2,469167	0,1	18,869587
2,470833	0,1	19,330974
2,472500	0,1	19,819131
2,474167	0,1	20,325411
2,475833	0,1	20,908496
2,477500	0,1	21,437631
2,479167	0,1	22,123219
2,480833	0,1	22,736836
2,482500	0,1	23,509169
2,484167	0,1	24,294809
2,485833	0,1	25,217911
2,487500	0,1	26,129717
2,489167	0,1	27,145402
2,490833	0,1	28,301644
2,492500	0,1	29,476283
2,494167	0,1	30,785352
2,495833	0,1	32,225981
2,497500	0,1	33,764890
2,499167	0,1	35,371627
2,500833	0,1	37,178696
2,502500	0,1	39,126389
2,504167	0,1	41,191369
2,505833	0,1	43,399213
2,507500	0,1	45,783905
2,509167	0,1	48,325978
2,510833	0,1	51,053248
2,512500	0,1	53,902178
2,514167	0,1	56,914949
2,515833	0,1	60,170466
2,517500	0,1	63,577272
2,519167	0,1	67,138789
2,520833	0,1	70,919036
2,522500	0,1	74,829806
2,524167	0,1	78,920187
2,525833	0,1	83,173421
2,527500	0,1	87,629263
2,529167	0,1	92,213189
2,530833	0,1	97,009283
2,532500	0,1	101,875467
2,534167	0,1	106,890020
2,535833	0,1	112,076758
2,537500	0,1	117,318278
2,539167	0,1	122,757772
2,540833	0,1	128,235014
2,542500	0,1	133,805889
2,544167	0,1	139,429755
2,545833	0,1	145,120726
2,547500	0,1	150,857072
2,549167	0,1	156,605687
2,550833	0,1	162,327837
2,552500	0,1	168,081988
2,554167	0,1	173,803168
2,555833	0,1	179,527709
2,557500	0,1	185,188357
2,559167	0,1	190,697235
2,560833	0,1	196,244619
2,562500	0,1	201,585221
2,564167	0,1	206,914130
2,565833	0,1	212,097152
2,567500	0,1	217,161303
2,569167	0,1	222,074050
2,570833	0,1	226,819116
2,572500	0,1	231,446035
2,574167	0,1	235,880689
2,575833	0,1	240,151181
2,577500	0,1	244,221061
2,579167	0,1	248,123760
2,580833	0,1	251,830211
2,582500	0,1	255,301998
2,584167	0,1	258,632711
2,585833	0,1	261,719401
2,587500	0,1	264,653981
2,589167	0,1	267,360567
2,590833	0,1	269,833191
2,592500	0,1	272,169791
2,594167	0,1	274,297405
2,595833	0,1	276,152210
2,597500	0,1	277,915800
2,599167	0,1	279,418563
2,600833	0,1	280,752388
2,602500	0,1	281,881882
2,604167	0,1	282,813618
2,605833	0,1	283,640725
2,607500	0,1	284,221142
2,609167	0,1	284,632361
2,610833	0,1	284,849231
2,612500	0,1	284,942736
2,614167	0,1	284,863241
2,615833	0,1	284,640521
2,617500	0,1	284,240995
2,619167	0,1	283,707777
2,620833	0,1	282,994750
2,622500	0,1	282,241379
2,624167	0,1	281,227625
2,625833	0,1	280,148746
2,627500	0,1	278,935917
2,629167	0,1	277,596072
2,630833	0,1	276,142920
2,632500	0,1	274,511099
2,634167	0,1	272,848865
2,635833	0,1	271,026044
2,637500	0,1	269,151202
2,639167	0,1	267,103277
2,640833	0,1	265,081119
2,642500	0,1	262,855592
2,644167	0,1	260,468638
2,645833	0,1	258,158872
2,647500	0,1	255,727423
2,649167	0,1	253,180683
2,650833	0,1	250,590878
2,652500	0,1	247,969647
2,654167	0,1	245,202080
2,655833	0,1	242,448979
2,657500	0,1	239,583526
2,659167	0,1	236,714650
2,660833	0,1	233,773784
2,662500	0,1	230,737201
2,664167	0,1	227,734592
2,665833	0,1	224,623573
2,667500	0,1	221,505928
2,669167	0,1	218,447730
2,670833	0,1	215,333645
2,672500	0,1	212,065068
2,674167	0,1	208,928884
2,675833	0,1	205,711499
2,677500	0,1	202,559240
2,679167	0,1	199,298983
2,680833	0,1	196,064753
2,682500	0,1	192,841871
2,684167	0,1	189,606044
2,685833	0,1	186,423350
2,687500	0,1	183,251932
2,689167	0,1	180,039064
2,690833	0,1	176,859574
2,692500	0,1	173,712380
2,694167	0,1	170,540171
2,695833	0,1	167,459145
2,697500	0,1	164,337143
2,699167	0,1	161,298673
2,700833	0,1	158,279457
2,702500	0,1	155,347455
2,704167	0,1	152,386306
2,705833	0,1	149,400439
2,707500	0,1	146,533908
2,709167	0,1	143,696186
2,710833	0,1	140,925526
2,712500	0,1	138,109484
2,714167	0,1	135,345324
2,715833	0,1	132,740403
2,717500	0,1	130,064778
2,719167	0,1	127,442393
2,720833	0,1	124,905748
2,722500	0,1	122,423613
2,724167	0,1	119,977061
2,725833	0,1	117,580696
2,727500	0,1	115,129296
2,729167	0,1	112,863805
2,730833	0,1	110,595001
2,732500	0,1	108,348456
2,734167	0,1	106,197321
2,735833	0,1	104,029384
2,737500	0,1	101,964744
2,739167	0,1	99,935498
2,740833	0,1	97,967731
2,742500	0,1	95,967757
2,744167	0,1	94,053165
2,745833	0,1	92,169737
2,747500	0,1	90,374612
2,749167	0,1	88,555344
2,750833	0,1	86,857426
2,752500	0,1	85,122096
2,754167	0,1	83,469348
2,755833	0,1	81,843371
2,757500	0,1	80,241742
2,759167	0,1	78,689948
2,760833	0,1	77,173403
2,762500	0,1	75,692751
2,764167	0,1	74,230524
2,765833	0,1	72,809440
2,767500	0,1	71,401970
2,769167	0,1	70,025102
2,770833	0,1	68,753240
2,772500	0,1	67,483617
2,774167	0,1	66,182728
2,775833	0,1	64,954508
2,777500	0,1	63,749258
2,779167	0,1	62,574064
2,780833	0,1	61,365416
2,782500	0,1	60,234623
2,784167	0,1	59,112368
2,785833	0,1	58,000459
2,787500	0,1	56,981642
2,789167	0,1	55,922575
2,790833	0,1	54,896270
2,792500	0,1	53,886299
2,794167	0,1	52,924536
2,795833	0,1	51,972164
2,797500	0,1	50,986503
2,799167	0,1	50,055482
2,800833	0,1	49,172044
2,802500	0,1	48,307841
2,804167	0,1	47,405072
2,805833	0,1	46,568226
2,807500	0,1	45,742233
2,809167	0,1	44,906046
2,810833	0,1	44,105507
2,812500	0,1	43,316169
2,814167	0,1	42,550011
2,815833	0,1	41,789984
2,817500	0,1	41,044636
2,819167	0,1	40,245239
2,820833	0,1	39,600374
2,822500	0,1	38,881586
2,824167	0,1	38,199681
2,825833	0,1	37,516766
2,827500	0,1	36,868444
2,829167	0,1	36,224847
2,830833	0,1	35,563365
2,832500	0,1	34,982245
2,834167	0,1	34,378506
2,835833	0,1	33,784681
2,837500	0,1	33,191135
2,839167	0,1	32,626997
2,840833	0,1	32,020275
2,842500	0,1	31,463075
2,844167	0,1	30,981947
2,845833	0,1	30,430812
2,847500	0,1	29,951438
2,849167	0,1	29,426020
2,850833	0,1	28,952512
2,852500	0,1	28,442577
2,854167	0,1	28,009732
2,855833	0,1	27,540881
2,857500	0,1	27,106027
2,859167	0,1	26,632480
2,860833	0,1	26,246114
2,862500	0,1	25,852889
2,864167	0,1	25,413319
2,865833	0,1	24,981489
2,867500	0,1	24,642308
2,869167	0,1	24,255792
2,870833	0,1	23,866887
2,872500	0,1	23,487573
2,874167	0,1	23,185742
2,875833	0,1	22,838438
2,877500	0,1	22,465255
2,879167	0,1	22,177321
2,880833	0,1	21,851176
2,882500	0,1	21,515620
2,884167	0,1	21,213005
2,885833	0,1	20,889491
2,887500	0,1	20,613347
2,889167	0,1	20,324205
2,890833	0,1	20,065826
2,892500	0,1	19,811742
2,894167	0,1	19,542794
2,895833	0,1	19,243475
2,897500	0,1	19,018289
2,899167	0,1	18,777647
2,900833	0,1	18,541854
2,902500	0,1	18,288657
2,904167	0,1	18,047796
2,905833	0,1	17,852572
2,907500	0,1	17,655354
2,909167	0,1	17,453491
2,910833	0,1	17,209140
2,912500	0,1	16,988846
2,914167	0,1	16,823595
2,915833	0,1	16,627832
2,917500	0,1	16,417797
2,919167	0,1	16,221561
2,920833	0,1	16,024215
2,922500	0,1	15,856939
2,924167	0,1	15,682801
2,925833	0,1	15,537759
2,927500	0,1	15,378246
2,929167	0,1	15,220937
2,930833	0,1	15,034429
2,932500	0,1	14,899056
2,934167	0,1	14,745651
2,935833	0,1	14,634693
2,937500	0,1	14,399928
2,939167	0,1	14,272039
2,940833	0,1	14,109773
2,942500	0,1	13,992493
2,944167	0,1	13,845760
2,945833	0,1	13,720839
2,947500	0,1	13,573159
2,949167	0,1	13,430361
2,950833	0,1	13,349715
2,952500	0,1	13,181600
2,954167	0,1	13,071039
2,955833	0,1	12,947411
2,957500	0,1	12,867173
2,959167	0,1	12,726383
2,960833	0,1	12,618174
2,962500	0,1	12,474234
2,964167	0,1	12,326628
2,965833	0,1	12,230913
2,967500	0,1	12,098400
2,969167	0,1	12,045930
2,970833	0,1	11,873335
2,972500	0,1	11,828611
2,974167	0,1	11,717581
2,975833	0,1	11,591029
2,977500	0,1	11,486856
2,979167	0,1	11,372959
2,980833	0,1	11,305443
2,982500	0,1	11,174993
2,984167	0,1	11,085994
2,985833	0,1	10,977133
2,987500	0,1	10,878637
2,989167	0,1	10,809192
2,990833	0,1	10,731653
2,992500	0,1	10,620829
2,994167	0,1	10,515020
2,995833	0,1	10,452927
2,997500	0,1	10,313779
2,999167	0,1	10,255279
3,000833	0,1	10,122546
3,002500	0,1	10,100176
3,004167	0,1	10,023542
3,005833	0,1	9,947350
3,007500	0,1	9,828260
3,009167	0,1	9,754089
3,010833	0,1	9,638416
3,012500	0,1	9,579963
3,014167	0,1	9,550615
3,015833	0,1	9,397405
3,017500	0,1	9,359404
3,019167	0,1	9,244290
3,020833	0,1	9,174966
3,022500	0,1	9,126625
3,024167	0,1	9,023780
3,025833	0,1	8,964273
3,027500	0,1	8,905634
3,029167	0,1	8,803702
3,030833	0,1	8,765720
3,032500	0,1	8,682234
3,034167	0,1	8,576005
3,035833	0,1	8,493521
3,037500	0,1	8,441218
3,039167	0,1	8,378742
3,040833	0,1	8,321388
3,042500	0,1	8,275807
3,044167	0,1	8,187174
3,045833	0,1	8,102242
3,047500	0,1	8,002168
3,049167	0,1	7,962974
3,050833	0,1	7,903136
3,052500	0,1	7,851093
3,054167	0,1	7,783641
3,055833	0,1	7,725520
3,057500	0,1	7,645011
3,059167	0,1	7,639722
3,060833	0,1	7,552922
3,062500	0,1	7,459926
3,064167	0,1	7,455037
3,065833	0,1	7,336430
3,067500	0,1	7,322779
3,069167	0,1	7,228720
3,070833	0,1	7,176189
3,072500	0,1	7,127013
3,074167	0,1	7,076080
3,075833	0,1	7,057693
3,077500	0,1	6,939651
3,079167	0,1	6,913707
3,080833	0,1	6,882194
3,082500	0,1	6,834368
3,084167	0,1	6,748330
3,085833	0,1	6,739465
3,087500	0,1	6,651968
3,089167	0,1	6,626326
3,090833	0,1	6,520492
3,092500	0,1	6,558478
3,094167	0,1	6,513127
3,095833	0,1	6,464489
3,097500	0,1	6,387187
3,099167	0,1	6,328884
3,100833	0,1	6,348918
3,102500	0,1	6,273202
3,104167	0,1	6,269577
3,105833	0,1	6,278978
3,107500	0,1	6,201356
3,109167	0,1	6,135339
3,110833	0,1	6,115885
3,112500	0,1	6,086582
3,114167	0,1	6,029251
3,115833	0,1	6,063013
3,117500	0,1	6,023547
3,119167	0,1	5,960194
3,120833	0,1	5,961037
3,122500	0,1	5,908639
3,124167	0,1	5,892559
3,125833	0,1	5,890570
3,127500	0,1	5,878424
3,129167	0,1	5,859913
3,130833	0,1	5,829594
3,132500	0,1	5,756125
3,134167	0,1	5,773205
3,135833	0,1	5,776746
3,137500	0,1	5,763922
3,139167	0,1	5,750340
3,140833	0,1	5,713942
3,142500	0,1	5,722343
3,144167	0,1	5,726075
3,145833	0,1	5,667016
3,147500	0,1	5,636721
3,149167	0,1	5,651465
3,150833	0,1	5,619063
3,152500	0,1	5,618753
3,154167	0,1	5,620851
3,155833	0,1	5,592185
3,157500	0,1	5,569128
3,159167	0,1	5,585515
3,160833	0,1	5,554618
3,162500	0,1	5,539455
3,164167	0,1	5,498492
3,165833	0,1	5,560040
3,167500	0,1	5,489260
3,169167	0,1	5,493971
3,170833	0,1	5,477450
3,172500	0,1	5,421796
3,174167	0,1	5,447905
3,175833	0,1	5,429161
3,177500	0,1	5,390247
3,179167	0,1	5,394962
3,180833	0,1	5,383322
3,182500	0,1	5,317534
3,184167	0,1	5,311349
3,185833	0,1	5,313863
3,187500	0,1	5,315728
3,189167	0,1	5,291340
3,190833	0,1	5,307049
3,192500	0,1	5,273468
3,194167	0,1	5,204219
3,195833	0,1	5,184958
3,197500	0,1	5,222057
3,199167	0,1	5,196854
3,200833	0,1	5,165820
3,202500	0,1	5,112835
3,204167	0,1	5,084990
3,205833	0,1	5,037521
3,207500	0,1	5,064489
3,209167	0,1	5,033984
3,210833	0,1	5,017652
3,212500	0,1	4,971884
3,214167	0,1	4,937579
3,215833	0,1	4,917012
3,217500	0,1	4,907212
3,219167	0,1	4,923028
3,220833	0,1	4,852486
3,222500	0,1	4,818414
3,224167	0,1	4,788283
3,225833	0,1	4,778619
3,227500	0,1	4,753775
3,229167	0,1	4,731511
3,230833	0,1	4,692015
3,232500	0,1	4,682833
3,234167	0,1	4,652189
3,235833	0,1	4,654577
3,237500	0,1	4,582608
3,239167	0,1	4,556347
3,240833	0,1	4,562700
3,242500	0,1	4,496717
3,244167	0,1	4,443246
3,245833	0,1	4,446395
3,247500	0,1	4,407509
3,249167	0,1	4,392535
3,250833	0,1	4,343472
3,252500	0,1	4,317228
3,254167	0,1	4,282479
3,255833	0,1	4,287050
3,257500	0,1	4,267473
3,259167	0,1	4,206666
3,260833	0,1	4,184563
3,262500	0,1	4,122627
3,264167	0,1	4,126261
3,265833	0,1	4,071392
3,267500	0,1	4,041972
3,269167	0,1	4,049541
3,270833	0,1	3,987028
3,272500	0,1	3,986525
3,274167	0,1	3,931842
3,275833	0,1	3,895776
3,277500	0,1	3,906911
3,279167	0,1	3,860745
3,280833	0,1	3,857949
3,282500	0,1	3,825269
3,284167	0,1	3,769890
3,285833	0,1	3,794337
3,287500	0,1	3,713916
3,289167	0,1	3,729808
3,290833	0,1	3,667804
3,292500	0,1	3,671283
3,294167	0,1	3,627222
3,295833	0,1	3,608222
3,297500	0,1	3,605392
3,299167	0,1	3,563741
3,300833	0,1	3,506361
3,302500	0,1	3,515929
3,304167	0,1	3,489956
3,305833	0,1	3,469363
3,307500	0,1	3,424352
3,309167	0,1	3,420120
3,310833	0,1	3,359634
3,312500	0,1	3,356931
3,314167	0,1	3,334894
3,315833	0,1	3,317830
3,317500	0,1	3,341696
3,319167	0,1	3,287524
3,320833	0,1	3,267528
3,322500	0,1	3,220670
3,324167	0,1	3,235442
3,325833	0,1	3,205933
3,327500	0,1	3,220425
3,329167	0,1	3,216317
3,330833	0,1	3,162407
3,332500	0,1	3,180835
3,334167	0,1	3,142990
3,335833	0,1	3,132004
3,337500	0,1	3,147223
3,339167	0,1	3,103255
3,340833	0,1	3,072918
3,342500	0,1	3,127971
3,344167	0,1	3,106448
3,345833	0,1	3,073834
3,347500	0,1	3,038044
3,349167	0,1	3,039707
3,350833	0,1	3,042907
3,352500	0,1	3,046486
3,354167	0,1	3,001820
3,355833	0,1	2,959714
3,357500	0,1	2,996489
3,359167	0,1	2,961670
3,360833	0,1	2,984472
3,362500	0,1	2,972040
3,364167	0,1	2,967705
3,365833	0,1	2,928291
3,367500	0,1	2,902706
3,369167	0,1	2,936472
3,370833	0,1	2,941353
3,372500	0,1	2,958030
3,374167	0,1	2,918740
3,375833	0,1	2,887471
3,377500	0,1	2,892018
3,379167	0,1	2,877285
3,380833	0,1	2,866093
3,382500	0,1	2,903713
3,384167	0,1	2,917209
3,385833	0,1	2,869832
3,387500	0,1	2,896330
3,389167	0,1	2,904713
3,390833	0,1	2,888611
3,392500	0,1	2,903568
3,394167	0,1	2,844663
3,395833	0,1	2,870706
3,397500	0,1	2,860530
3,399167	0,1	2,859869
3,400833	0,1	2,880495
3,402500	0,1	2,865992
3,404167	0,1	2,838896
3,405833	0,1	2,840694
3,407500	0,1	2,837884
3,409167	0,1	2,896924
3,410833	0,1	2,834692
3,412500	0,1	2,806357
3,414167	0,1	2,841644
3,415833	0,1	2,808657
3,417500	0,1	2,841767
3,419167	0,1	2,823177
3,420833	0,1	2,834163
3,422500	0,1	2,828422
3,424167	0,1	2,804850
3,425833	0,1	2,814739
3,427500	0,1	2,819504
3,429167	0,1	2,821008
3,430833	0,1	2,819928
3,432500	0,1	2,779787
3,434167	0,1	2,795429
3,435833	0,1	2,796229
3,437500	0,1	2,809591
3,439167	0,1	2,778269
3,440833	0,1	2,790034
3,442500	0,1	2,782738
3,444167	0,1	2,807488
3,445833	0,1	2,797997
3,447500	0,1	2,772025
3,449167	0,1	2,793065
3,450833	0,1	2,791479
3,452500	0,1	2,809490
3,454167	0,1	2,783080
3,455833	0,1	2,754919
3,457500	0,1	2,821042
3,459167	0,1	2,816050
3,460833	0,1	2,786822
3,462500	0,1	2,768865
3,464167	0,1	2,813015
3,465833	0,1	2,783789
3,467500	0,1	2,809289
3,469167	0,1	2,825942
3,470833	0,1	2,801617
3,472500	0,1	2,814379
3,474167	0,1	2,813101
3,475833	0,1	2,839481
3,477500	0,1	2,815557
3,479167	0,1	2,809584
3,480833	0,1	2,822238
3,482500	0,1	2,820426
3,484167	0,1	2,824439
3,485833	0,1	2,832137
3,487500	0,1	2,889511
3,489167	0,1	2,866688
3,490833	0,1	2,820014
3,492500	0,1	2,838627
3,494167	0,1	2,858224
3,495833	0,1	2,873595
3,497500	0,1	2,866424
3,499167	0,1	2,861026
3,500833	0,1	2,892554
3,502500	0,1	2,864205
3,504167	0,1	2,844516
3,505833	0,1	2,874625
3,507500	0,1	2,904120
3,509167	0,1	2,922532
3,510833	0,1	2,937094
3,512500	0,1	2,932961
3,514167	0,1	2,879113
3,515833	0,1	2,946269
3,517500	0,1	2,944332
3,519167	0,1	2,904241
3,520833	0,1	2,958096
3,522500	0,1	2,966245
3,524167	0,1	2,964488
3,525833	0,1	2,904083
3,527500	0,1	2,930683
3,529167	0,1	2,936688
3,530833	0,1	2,940812
3,532500	0,1	2,954074
3,534167	0,1	2,944395
3,535833	0,1	2,998529
3,537500	0,1	2,954961
3,539167	0,1	2,942455
3,540833	0,1	2,965505
3,542500	0,1	2,954668
3,544167	0,1	2,935927
3,545833	0,1	2,971231
3,547500	0,1	2,980159
3,549167	0,1	2,948415
3,550833	0,1	2,987627
3,552500	0,1	2,973679
3,554167	0,1	2,990640
3,555833	0,1	2,952523
3,557500	0,1	2,940935
3,559167	0,1	2,932903
3,560833	0,1	2,998390
3,562500	0,1	2,931411
3,564167	0,1	2,986976
3,565833	0,1	2,940852
3,567500	0,1	2,911189
3,569167	0,1	2,887122
3,570833	0,1	2,946227
3,572500	0,1	2,961400
3,574167	0,1	2,939433
3,575833	0,1	2,940991
3,577500	0,1	2,934255
3,579167	0,1	2,928629
3,580833	0,1	2,924824
3,582500	0,1	2,908312
3,584167	0,1	2,918007
3,585833	0,1	2,957076
3,587500	0,1	2,900923
3,589167	0,1	2,870507
3,590833	0,1	2,895368
3,592500	0,1	2,911675
3,594167	0,1	2,868373
3,595833	0,1	2,843014
3,597500	0,1	2,864253
3,599167	0,1	2,860005
3,600833	0,1	2,845632
3,602500	0,1	2,848316
3,604167	0,1	2,871503
3,605833	0,1	2,792305
3,607500	0,1	2,813457
3,609167	0,1	2,811957
3,610833	0,1	2,809644
3,612500	0,1	2,796804
3,614167	0,1	2,814662
3,615833	0,1	2,736196
3,617500	0,1	2,748531
3,619167	0,1	2,758876
3,620833	0,1	2,769928
3,622500	0,1	2,750232
3,624167	0,1	2,715010
3,625833	0,1	2,728988
3,627500	0,1	2,764675
3,629167	0,1	2,736394
3,630833	0,1	2,695905
3,632500	0,1	2,731197
3,634167	0,1	2,724106
3,635833	0,1	2,687130
3,637500	0,1	2,718903
3,639167	0,1	2,677996
3,640833	0,1	2,670169
3,642500	0,1	2,644891
3,644167	0,1	2,601527
3,645833	0,1	2,598426
3,647500	0,1	2,611643
3,649167	0,1	2,578195
3,650833	0,1	2,565102
3,652500	0,1	2,637323
3,654167	0,1	2,617450
3,655833	0,1	2,571064
3,657500	0,1	2,591034
3,659167	0,1	2,544432
3,660833	0,1	2,545639
3,662500	0,1	2,574792
3,664167	0,1	2,515372
3,665833	0,1	2,543260
3,667500	0,1	2,519952
3,669167	0,1	2,497478
3,670833	0,1	2,493097
3,672500	0,1	2,528332
3,674167	0,1	2,451838
3,675833	0,1	2,465949
3,677500	0,1	2,500627
3,679167	0,1	2,477595
3,680833	0,1	2,473061
3,682500	0,1	2,449454
3,684167	0,1	2,406890
3,685833	0,1	2,421953
3,687500	0,1	2,448576
3,689167	0,1	2,403519
3,690833	0,1	2,414848
3,692500	0,1	2,440970
3,694167	0,1	2,424757
3,695833	0,1	2,409326
3,697500	0,1	2,395041
3,699167	0,1	2,361890
3,700833	0,1	2,400187
3,702500	0,1	2,390591
3,704167	0,1	2,325585
3,705833	0,1	2,357063
3,707500	0,1	2,349825
3,709167	0,1	2,368401
3,710833	0,1	2,331681
3,712500	0,1	2,302037
3,714167	0,1	2,333813
3,715833	0,1	2,298313
3,717500	0,1	2,326635
3,719167	0,1	2,272981
3,720833	0,1	2,284232
3,722500	0,1	2,307191
3,724167	0,1	2,250456
3,725833	0,1	2,312499
3,727500	0,1	2,300166
3,729167	0,1	2,257047
3,730833	0,1	2,261559
3,732500	0,1	2,253597
3,734167	0,1	2,265500
3,735833	0,1	2,225911
3,737500	0,1	2,217437
3,739167	0,1	2,259686
3,740833	0,1	2,214578
3,742500	0,1	2,238666
3,744167	0,1	2,182298
3,745833	0,1	2,207962
3,747500	0,1	2,210046
3,749167	0,1	2,183866
3,750833	0,1	2,224528
3,752500	0,1	2,207898
3,754167	0,1	2,225179
3,755833	0,1	2,210982
3,757500	0,1	2,208970
3,759167	0,1	2,134453
3,760833	0,1	2,178756
3,762500	0,1	2,162631
3,764167	0,1	2,185218
3,765833	0,1	2,193041
3,767500	0,1	2,195050
3,769167	0,1	2,190534
3,770833	0,1	2,144417
3,772500	0,1	2,139816
3,774167	0,1	2,162048
3,775833	0,1	2,136306
3,777500	0,1	2,182629
3,779167	0,1	2,160266
3,780833	0,1	2,095574
3,782500	0,1	2,133853
3,784167	0,1	2,131927
3,785833	0,1	2,115145
3,787500	0,1	2,109045
3,789167	0,1	2,082152
3,790833	0,1	2,114488
3,792500	0,1	2,098431
3,794167	0,1	2,067813
3,795833	0,1	2,087451
3,797500	0,1	2,095559
3,799167	0,1	2,059919
3,800833	0,1	2,043203
3,802500	0,1	2,066937
3,804167	0,1	2,063790
3,805833	0,1	2,047658
3,807500	0,1	2,019472
3,809167	0,1	2,036103
3,810833	0,1	2,068229
3,812500	0,1	2,008583
3,814167	0,1	2,002331
3,815833	0,1	2,061262
3,817500	0,1	1,996608
3,819167	0,1	2,026419
3,820833	0,1	2,032016
3,822500	0,1	2,015956
3,824167	0,1	1,985338
3,825833	0,1	1,955508
3,827500	0,1	1,953497
3,829167	0,1	1,952353
3,830833	0,1	1,988478
3,832500	0,1	1,948415
3,834167	0,1	1,928182
3,835833	0,1	1,976005
3,837500	0,1	1,908768
3,839167	0,1	1,958581
3,840833	0,1	1,908632
3,842500	0,1	1,895134
3,844167	0,1	1,903523
3,845833	0,1	1,893490
3,847500	0,1	1,921014
3,849167	0,1	1,922166
3,850833	0,1	1,885612
3,852500	0,1	1,889541
3,854167	0,1	1,868900
3,855833	0,1	1,844396
3,857500	0,1	1,856627
3,859167	0,1	1,842029
3,860833	0,1	1,849831
3,862500	0,1	1,861009
3,864167	0,1	1,876003
3,865833	0,1	1,833855
3,867500	0,1	1,799663
3,869167	0,1	1,820152
3,870833	0,1	1,803732
3,872500	0,1	1,783959
3,874167	0,1	1,792052
3,875833	0,1	1,785737
3,877500	0,1	1,746266
3,879167	0,1	1,741952
3,880833	0,1	1,771405
3,882500	0,1	1,760300
3,884167	0,1	1,765472
3,885833	0,1	1,728718
3,887500	0,1	1,763600
3,889167	0,1	1,745616
3,890833	0,1	1,706208
3,892500	0,1	1,706616
3,894167	0,1	1,715738
3,895833	0,1	1,691726
3,897500	0,1	1,718585
3,899167	0,1	1,701538
3,900833	0,1	1,675483
3,902500	0,1	1,719383
3,904167	0,1	1,667524
3,905833	0,1	1,651166
3,907500	0,1	1,663342
3,909167	0,1	1,645590
3,910833	0,1	1,628457
3,912500	0,1	1,619061
3,914167	0,1	1,617700
3,915833	0,1	1,627667
3,917500	0,1	1,592573
3,919167	0,1	1,642836
3,920833	0,1	1,630610
3,922500	0,1	1,608183
3,924167	0,1	1,610826
3,925833	0,1	1,619860
3,927500	0,1	1,581405
3,929167	0,1	1,558040
3,930833	0,1	1,574806
3,932500	0,1	1,557763
3,934167	0,1	1,556677
3,935833	0,1	1,570869
3,937500	0,1	1,547357
3,939167	0,1	1,558897
3,940833	0,1	1,552879
3,942500	0,1	1,555455
3,944167	0,1	1,522298
3,945833	0,1	1,513887
3,947500	0,1	1,521919
3,949167	0,1	1,525637
3,950833	0,1	1,516146
3,952500	0,1	1,498443
3,954167	0,1	1,486506
3,955833	0,1	1,480322
3,957500	0,1	1,470147
3,959167	0,1	1,466702
3,960833	0,1	1,466895
3,962500	0,1	1,496509
3,964167	0,1	1,506610
3,965833	0,1	1,451122
3,967500	0,1	1,444307
3,969167	0,1	1,444773
3,970833	0,1	1,447500
3,972500	0,1	1,421794
3,974167	0,1	1,459452
3,975833	0,1	1,457898
3,977500	0,1	1,419234
3,979167	0,1	1,435086
3,980833	0,1	1,446663
3,982500	0,1	1,447596
3,984167	0,1	1,442208
3,985833	0,1	1,442070
3,987500	0,1	1,396223
3,989167	0,1	1,448366
3,990833	0,1	1,401272
3,992500	0,1	1,444173
3,994167	0,1	1,423810
3,995833	0,1	1,436061
3,997500	0,1	1,390286
3,999167	0,1	1,425222
4,000833	0,1	1,394712
4,002500	0,1	1,423798
4,004167	0,1	1,435348
4,005833	0,1	1,427344
4,007500	0,1	1,381293
4,009167	0,1	1,371246
4,010833	0,1	1,427123
4,012500	0,1	1,406831
4,014167	0,1	1,412215
4,015833	0,1	1,425514
4,017500	0,1	1,403980
4,019167	0,1	1,427392
4,020833	0,1	1,429823
4,022500	0,1	1,398153
4,024167	0,1	1,422401
4,025833	0,1	1,390504
4,027500	0,1	1,375592
4,029167	0,1	1,421216
4,030833	0,1	1,394246
4,032500	0,1	1,395528
4,034167	0,1	1,412502
4,035833	0,1	1,449521
4,037500	0,1	1,405603
4,039167	0,1	1,458487
4,040833	0,1	1,430422
4,042500	0,1	1,420146
4,044167	0,1	1,403745
4,045833	0,1	1,438415
4,047500	0,1	1,404107
4,049167	0,1	1,392075
4,050833	0,1	1,445143
4,052500	0,1	1,442276
4,054167	0,1	1,475717
4,055833	0,1	1,475232
4,057500	0,1	1,466210
4,059167	0,1	1,465686
4,060833	0,1	1,509618
4,062500	0,1	1,475584
4,064167	0,1	1,496499
4,065833	0,1	1,445579
4,067500	0,1	1,484385
4,069167	0,1	1,517412
4,070833	0,1	1,520356
4,072500	0,1	1,524661
4,074167	0,1	1,545918
4,075833	0,1	1,574722
4,077500	0,1	1,562333
4,079167	0,1	1,553514
4,080833	0,1	1,549079
4,082500	0,1	1,579939
4,084167	0,1	1,619208
4,085833	0,1	1,585389
4,087500	0,1	1,591214
4,089167	0,1	1,615424
4,090833	0,1	1,615985
4,092500	0,1	1,628184
4,094167	0,1	1,658626
4,095833	0,1	1,655974
4,097500	0,1	1,684769
4,099167	0,1	1,646807
4,100833	0,1	1,747468
4,102500	0,1	1,704490
4,104167	0,1	1,716880
4,105833	0,1	1,720550
4,107500	0,1	1,752629
4,109167	0,1	1,729064
4,110833	0,1	1,764308
4,112500	0,1	1,765901
4,114167	0,1	1,814269
4,115833	0,1	1,799650
4,117500	0,1	1,822592
4,119167	0,1	1,846677
4,120833	0,1	1,843879
4,122500	0,1	1,858217
4,124167	0,1	1,864318
4,125833	0,1	1,884164
4,127500	0,1	1,878155
4,129167	0,1	1,936776
4,130833	0,1	1,862102
4,132500	0,1	1,904805
4,134167	0,1	1,961581
4,135833	0,1	1,954794
4,137500	0,1	1,977082
4,139167	0,1	2,033151
4,140833	0,1	1,982908
4,142500	0,1	2,022754
4,144167	0,1	2,044849
4,145833	0,1	2,055326
4,147500	0,1	2,063068
4,149167	0,1	2,084511
4,150833	0,1	2,083366
4,152500	0,1	2,071895
4,154167	0,1	2,078200
4,155833	0,1	2,123522
4,157500	0,1	2,088181
4,159167	0,1	2,167773
4,160833	0,1	2,144053
4,162500	0,1	2,163626
4,164167	0,1	2,178548
4,165833	0,1	2,156105
4,167500	0,1	2,149287
4,169167	0,1	2,232338
4,170833	0,1	2,215788
4,172500	0,1	2,206389
4,174167	0,1	2,212124
4,175833	0,1	2,233071
4,177500	0,1	2,231356
4,179167	0,1	2,210196
4,180833	0,1	2,229984
4,182500	0,1	2,268366
4,184167	0,1	2,254894
4,185833	0,1	2,257830
4,187500	0,1	2,241045
4,189167	0,1	2,266789
4,190833	0,1	2,267590
4,192500	0,1	2,265865
4,194167	0,1	2,274686
4,195833	0,1	2,249655
4,197500	0,1	2,288457
4,199167	0,1	2,282516
4,200833	0,1	2,325847
4,202500	0,1	2,302826
4,204167	0,1	2,331156
4,205833	0,1	2,302681
4,207500	0,1	2,275489
4,209167	0,1	2,321400
4,210833	0,1	2,321264
4,212500	0,1	2,310794
4,214167	0,1	2,323344
4,215833	0,1	2,314663
4,217500	0,1	2,287042
4,219167	0,1	2,265730
4,220833	0,1	2,297429
4,222500	0,1	2,346797
4,224167	0,1	2,302829
4,225833	0,1	2,327710
4,227500	0,1	2,300314
4,229167	0,1	2,304111
4,230833	0,1	2,303392
4,232500	0,1	2,270898
4,234167	0,1	2,304603
4,235833	0,1	2,241558
4,237500	0,1	2,309757
4,239167	0,1	2,228720
4,240833	0,1	2,298281
4,242500	0,1	2,250093
4,244167	0,1	2,251661
4,245833	0,1	2,238747
4,247500	0,1	2,200800
4,249167	0,1	2,291463
4,250833	0,1	2,246792
4,252500	0,1	2,250153
4,254167	0,1	2,244556
4,255833	0,1	2,212637
4,257500	0,1	2,242758
4,259167	0,1	2,218948
4,260833	0,1	2,197424
4,262500	0,1	2,215782
4,264167	0,1	2,215357
4,265833	0,1	2,152527
4,267500	0,1	2,195472
4,269167	0,1	2,192614
4,270833	0,1	2,174110
4,272500	0,1	2,150150
4,274167	0,1	2,177255
4,275833	0,1	2,164782
4,277500	0,1	2,116226
4,279167	0,1	2,116863
4,280833	0,1	2,115358
4,282500	0,1	2,134932
4,284167	0,1	2,113135
4,285833	0,1	2,073838
4,287500	0,1	2,078631
4,289167	0,1	2,081000
4,290833	0,1	2,052247
4,292500	0,1	2,054321
4,294167	0,1	2,038689
4,295833	0,1	2,042845
4,297500	0,1	2,028504
4,299167	0,1	2,039110
4,300833	0,1	2,013590
4,302500	0,1	2,023838
4,304167	0,1	1,967925
4,305833	0,1	2,010926
4,307500	0,1	1,984117
4,309167	0,1	1,979956
4,310833	0,1	1,941096
4,312500	0,1	1,974356
4,314167	0,1	1,981173
4,315833	0,1	1,972787
4,317500	0,1	1,937444
4,319167	0,1	1,921740
4,320833	0,1	1,928476
4,322500	0,1	1,920015
4,324167	0,1	1,904036
4,325833	0,1	1,877582
4,327500	0,1	1,914912
4,329167	0,1	1,884528
4,330833	0,1	1,878074
4,332500	0,1	1,853703
4,334167	0,1	1,849611
4,335833	0,1	1,847609
4,337500	0,1	1,814351
4,339167	0,1	1,842511
4,340833	0,1	1,833777
4,342500	0,1	1,822956
4,344167	0,1	1,805829
4,345833	0,1	1,773060
4,347500	0,1	1,789904
4,349167	0,1	1,762465
4,350833	0,1	1,788262
4,352500	0,1	1,782105
4,354167	0,1	1,752075
4,355833	0,1	1,736801
4,357500	0,1	1,752213
4,359167	0,1	1,696903
4,360833	0,1	1,718437
4,362500	0,1	1,683276
4,364167	0,1	1,708057
4,365833	0,1	1,717247
4,367500	0,1	1,711080
4,369167	0,1	1,696971
4,370833	0,1	1,664921
4,372500	0,1	1,687141
4,374167	0,1	1,671028
4,375833	0,1	1,656969
4,377500	0,1	1,703336
4,379167	0,1	1,661065
4,380833	0,1	1,587780
4,382500	0,1	1,641924
4,384167	0,1	1,610626
4,385833	0,1	1,594503
4,387500	0,1	1,636331
4,389167	0,1	1,600380
4,390833	0,1	1,587259
4,392500	0,1	1,632343
4,394167	0,1	1,544494
4,395833	0,1	1,638837
4,397500	0,1	1,600332
4,399167	0,1	1,542069
4,400833	0,1	1,557238
4,402500	0,1	1,548573
4,404167	0,1	1,531158
4,405833	0,1	1,476151
4,407500	0,1	1,518905
4,409167	0,1	1,496290
4,410833	0,1	1,519913
4,412500	0,1	1,500432
4,414167	0,1	1,520996
4,415833	0,1	1,515707
4,417500	0,1	1,483632
4,419167	0,1	1,460138
4,420833	0,1	1,452880
4,422500	0,1	1,468795
4,424167	0,1	1,444642
4,425833	0,1	1,462829
4,427500	0,1	1,431024
4,429167	0,1	1,431704
4,430833	0,1	1,487191
4,432500	0,1	1,433402
4,434167	0,1	1,428757
4,435833	0,1	1,426082
4,437500	0,1	1,384501
4,439167	0,1	1,378979
4,440833	0,1	1,404629
4,442500	0,1	1,379999
4,444167	0,1	1,392426
4,445833	0,1	1,388509
4,447500	0,1	1,358226
4,449167	0,1	1,319565
4,450833	0,1	1,343392
4,452500	0,1	1,371305
4,454167	0,1	1,404406
4,455833	0,1	1,347195
4,457500	0,1	1,343143
4,459167	0,1	1,330717
4,460833	0,1	1,376503
4,462500	0,1	1,335811
4,464167	0,1	1,334734
4,465833	0,1	1,309033
4,467500	0,1	1,320773
4,469167	0,1	1,310995
4,470833	0,1	1,296652
4,472500	0,1	1,280628
4,474167	0,1	1,318919
4,475833	0,1	1,263784
4,477500	0,1	1,318422
4,479167	0,1	1,255648
4,480833	0,1	1,263124
4,482500	0,1	1,249091
4,484167	0,1	1,245750
4,485833	0,1	1,197071
4,487500	0,1	1,284894
4,489167	0,1	1,226437
4,490833	0,1	1,212571
4,492500	0,1	1,199178
4,494167	0,1	1,229060
4,495833	0,1	1,191271
4,497500	0,1	1,200191
4,499167	0,1	1,187552
4,500833	0,1	1,186887
4,502500	0,1	1,200547
4,504167	0,1	1,151000
4,505833	0,1	1,184896
4,507500	0,1	1,142692
4,509167	0,1	1,162135
4,510833	0,1	1,175546
4,512500	0,1	1,172687
4,514167	0,1	1,188411
4,515833	0,1	1,141182
4,517500	0,1	1,147497
4,519167	0,1	1,168796
4,520833	0,1	1,119574
4,522500	0,1	1,146366
4,524167	0,1	1,119300
4,525833	0,1	1,094093
4,527500	0,1	1,192715
4,529167	0,1	1,105902
4,530833	0,1	1,115164
4,532500	0,1	1,125115
4,534167	0,1	1,101091
4,535833	0,1	1,105767
4,537500	0,1	1,125931
4,539167	0,1	1,065411
4,540833	0,1	1,062532
4,542500	0,1	1,064663
4,544167	0,1	1,020574
4,545833	0,1	0,965359
4,547500	0,1	1,057580
4,549167	0,1	1,062510
4,550833	0,1	1,025791
4,552500	0,1	1,068317
4,554167	0,1	1,031786
4,555833	0,1	1,001231
4,557500	0,1	0,999849
4,559167	0,1	1,018717
4,560833	0,1	1,041321
4,562500	0,1	1,036863
4,564167	0,1	1,020368
4,565833	0,1	1,005137
4,567500	0,1	1,017452
4,569167	0,1	1,011951
4,570833	0,1	0,957214
4,572500	0,1	0,988562
4,574167	0,1	0,994339
4,575833	0,1	0,968305
4,577500	0,1	0,946547
4,579167	0,1	0,987671
4,580833	0,1	0,980156
4,582500	0,1	0,955673
4,584167	0,1	0,975355
4,585833	0,1	0,967234
4,587500	0,1	0,965056
4,589167	0,1	0,917093
4,590833	0,1	0,947357
4,592500	0,1	0,889216
4,594167	0,1	0,943688
4,595833	0,1	0,929450
4,597500	0,1	0,904635
4,599167	0,1	0,905339
4,600833	0,1	0,905031
4,602500	0,1	0,909399
4,604167	0,1	0,907672
4,605833	0,1	0,900147
4,607500	0,1	0,906228
4,609167	0,1	0,907179
4,610833	0,1	0,867144
4,612500	0,1	0,882095
4,614167	0,1	0,860927
4,615833	0,1	0,838282
4,617500	0,1	0,913028
4,619167	0,1	0,863443
4,620833	0,1	0,919511
4,622500	0,1	0,865200
4,624167	0,1	0,838334
4,625833	0,1	0,839300
4,627500	0,1	0,809240
4,629167	0,1	0,903787
4,630833	0,1	0,848597
4,632500	0,1	0,822976
4,634167	0,1	0,854594
4,635833	0,1	0,825683
4,637500	0,1	0,841542
4,639167	0,1	0,790881
4,640833	0,1	0,832590
4,642500	0,1	0,846114
4,644167	0,1	0,831670
4,645833	0,1	0,825298
4,647500	0,1	0,801069
4,649167	0,1	0,798804
4,650833	0,1	0,796177
4,652500	0,1	0,823122
4,654167	0,1	0,797719
4,655833	0,1	0,782887
4,657500	0,1	0,800308
4,659167	0,1	0,786776
4,660833	0,1	0,794494
4,662500	0,1	0,810070
4,664167	0,1	0,804216
4,665833	0,1	0,765806
4,667500	0,1	0,805137
4,669167	0,1	0,797781
4,670833	0,1	0,741553
4,672500	0,1	0,782611
4,674167	0,1	0,765223
4,675833	0,1	0,786386
4,677500	0,1	0,787638
4,679167	0,1	0,790264
4,680833	0,1	0,749325
4,682500	0,1	0,771228
4,684167	0,1	0,731409
4,685833	0,1	0,732333
4,687500	0,1	0,775821
4,689167	0,1	0,749060
4,690833	0,1	0,736383
4,692500	0,1	0,771094
4,694167	0,1	0,698143
4,695833	0,1	0,735095
4,697500	0,1	0,710974
4,699167	0,1	0,723740
4,700833	0,1	0,722877
4,702500	0,1	0,722129
4,704167	0,1	0,716852
4,705833	0,1	0,672090
4,707500	0,1	0,714240
4,709167	0,1	0,695621
4,710833	0,1	0,721218
4,712500	0,1	0,716051
4,714167	0,1	0,700703
4,715833	0,1	0,688933
4,717500	0,1	0,708928
4,719167	0,1	0,655646
4,720833	0,1	0,717770
4,722500	0,1	0,691380
4,724167	0,1	0,699410
4,725833	0,1	0,704372
4,727500	0,1	0,665220
4,729167	0,1	0,671621
4,730833	0,1	0,698184
4,732500	0,1	0,661945
4,734167	0,1	0,680748
4,735833	0,1	0,663971
4,737500	0,1	0,675994
4,739167	0,1	0,689766
4,740833	0,1	0,662166
4,742500	0,1	0,695674
4,744167	0,1	0,680477
4,745833	0,1	0,689180
4,747500	0,1	0,673652
4,749167	0,1	0,685862
4,750833	0,1	0,693275
4,752500	0,1	0,638210
4,754167	0,1	0,666078
4,755833	0,1	0,634344
4,757500	0,1	0,656206
4,759167	0,1	0,666848
4,760833	0,1	0,636982
4,762500	0,1	0,665668
4,764167	0,1	0,590997
4,765833	0,1	0,615578
4,767500	0,1	0,618859
4,769167	0,1	0,645072
4,770833	0,1	0,655760
4,772500	0,1	0,586364
4,774167	0,1	0,630979
4,775833	0,1	0,601339
4,777500	0,1	0,665073
4,779167	0,1	0,643897
4,780833	0,1	0,633566
4,782500	0,1	0,629834
4,784167	0,1	0,617483
4,785833	0,1	0,611821
4,787500	0,1	0,645844
4,789167	0,1	0,639455
4,790833	0,1	0,570763
4,792500	0,1	0,629494
4,794167	0,1	0,610921
4,795833	0,1	0,593747
4,797500	0,1	0,599979
4,799167	0,1	0,588409
4,800833	0,1	0,585414
4,802500	0,1	0,586023
4,804167	0,1	0,622587
4,805833	0,1	0,574844
4,807500	0,1	0,586887
4,809167	0,1	0,582841
4,810833	0,1	0,583358
4,812500	0,1	0,597119
4,814167	0,1	0,586734
4,815833	0,1	0,580976
4,817500	0,1	0,609333
4,819167	0,1	0,602265
4,820833	0,1	0,618444
4,822500	0,1	0,620535
4,824167	0,1	0,582302
4,825833	0,1	0,554704
4,827500	0,1	0,587974
4,829167	0,1	0,583868
4,830833	0,1	0,599562
4,832500	0,1	0,555739
4,834167	0,1	0,571159
4,835833	0,1	0,591808
4,837500	0,1	0,576666
4,839167	0,1	0,600134
4,840833	0,1	0,573423
4,842500	0,1	0,601974
4,844167	0,1	0,626125
4,845833	0,1	0,569090
4,847500	0,1	0,563446
4,849167	0,1	0,603157
4,850833	0,1	0,605321
4,852500	0,1	0,584802
4,854167	0,1	0,614479
4,855833	0,1	0,585132
4,857500	0,1	0,626087
4,859167	0,1	0,565647
4,860833	0,1	0,564731
4,862500	0,1	0,635888
4,864167	0,1	0,531373
4,865833	0,1	0,602376
4,867500	0,1	0,589660
4,869167	0,1	0,587181
4,870833	0,1	0,598017
4,872500	0,1	0,585448
4,874167	0,1	0,564287
4,875833	0,1	0,557111
4,877500	0,1	0,608591
4,879167	0,1	0,582873
4,880833	0,1	0,507761
4,882500	0,1	0,602531
4,884167	0,1	0,599756
4,885833	0,1	0,605002
4,887500	0,1	0,588346
4,889167	0,1	0,531875
4,890833	0,1	0,574689
4,892500	0,1	0,584156
4,894167	0,1	0,570811
4,895833	0,1	0,606081
4,897500	0,1	0,542394
4,899167	0,1	0,568070
4,900833	0,1	0,561261
4,902500	0,1	0,567396
4,904167	0,1	0,549715
4,905833	0,1	0,596304
4,907500	0,1	0,575416
4,909167	0,1	0,564119
4,910833	0,1	0,589488
4,912500	0,1	0,561874
4,914167	0,1	0,560034
4,915833	0,1	0,546855
4,917500	0,1	0,572796
4,919167	0,1	0,576467
4,920833	0,1	0,576439
4,922500	0,1	0,559844
4,924167	0,1	0,565341
4,925833	0,1	0,580036
4,927500	0,1	0,583866
4,929167	0,1	0,593774
4,930833	0,1	0,519241
4,932500	0,1	0,545909
4,934167	0,1	0,581994
4,935833	0,1	0,577018
4,937500	0,1	0,554861
4,939167	0,1	0,557881
4,940833	0,1	0,545824
4,942500	0,1	0,545208
4,944167	0,1	0,609260
4,945833	0,1	0,560114
4,947500	0,1	0,499620
4,949167	0,1	0,561564
4,950833	0,1	0,605405
4,952500	0,1	0,559628
4,954167	0,1	0,613122
4,955833	0,1	0,576028
4,957500	0,1	0,615055
4,959167	0,1	0,551432
4,960833	0,1	0,573217
4,962500	0,1	0,596339
4,964167	0,1	0,573742
4,965833	0,1	0,604056
4,967500	0,1	0,568757
4,969167	0,1	0,563445
4,970833	0,1	0,553763
4,972500	0,1	0,629744
4,974167	0,1	0,545034
4,975833	0,1	0,580388
4,977500	0,1	0,565633
4,979167	0,1	0,607047
4,980833	0,1	0,574003
4,982500	0,1	0,606730
4,984167	0,1	0,619407
4,985833	0,1	0,603684
4,987500	0,1	0,583131
4,989167	0,1	0,578754
4,990833	0,1	0,564767
4,992500	0,1	0,617402
4,994167	0,1	0,621982
4,995833	0,1	0,571240
4,997500	0,1	0,587529
4,999167	0,1	0,597245
5,000833	0,1	0,625676
5,002500	0,1	0,603620
5,004167	0,1	0,585672
5,005833	0,1	0,607145
5,007500	0,1	0,594034
5,009167	0,1	0,600817
5,010833	0,1	0,580882
5,012500	0,1	0,633390
5,014167	0,1	0,583142
5,015833	0,1	0,658021
5,017500	0,1	0,625792
5,019167	0,1	0,670057
5,020833	0,1	0,641383
5,022500	0,1	0,657682
5,024167	0,1	0,680617
5,025833	0,1	0,618652
5,027500	0,1	0,639253
5,029167	0,1	0,649868
5,030833	0,1	0,605657
5,032500	0,1	0,672120
5,034167	0,1	0,685123
5,035833	0,1	0,664190
5,037500	0,1	0,681365
5,039167	0,1	0,661363
5,040833	0,1	0,708252
5,042500	0,1	0,650890
5,044167	0,1	0,674834
5,045833	0,1	0,667086
5,047500	0,1	0,705390
5,049167	0,1	0,675838
5,050833	0,1	0,676892
5,052500	0,1	0,674805
5,054167	0,1	0,757687
5,055833	0,1	0,677976
5,057500	0,1	0,727490
5,059167	0,1	0,686200
5,060833	0,1	0,713888
5,062500	0,1	0,739944
5,064167	0,1	0,690612
5,065833	0,1	0,714888
5,067500	0,1	0,754585
5,069167	0,1	0,733521
5,070833	0,1	0,711486
5,072500	0,1	0,766362
5,074167	0,1	0,754700
5,075833	0,1	0,707445
5,077500	0,1	0,734927
5,079167	0,1	0,709752
5,080833	0,1	0,753519
5,082500	0,1	0,765216
5,084167	0,1	0,728929
5,085833	0,1	0,786009
5,087500	0,1	0,777277
5,089167	0,1	0,784550
5,090833	0,1	0,770043
5,092500	0,1	0,737359
5,094167	0,1	0,752555
5,095833	0,1	0,762537
5,097500	0,1	0,815985
5,099167	0,1	0,772465
5,100833	0,1	0,735204
5,102500	0,1	0,771225
5,104167	0,1	0,792560
5,105833	0,1	0,832747
5,107500	0,1	0,784591
5,109167	0,1	0,789989
5,110833	0,1	0,820942
5,112500	0,1	0,785691
5,114167	0,1	0,822581
5,115833	0,1	0,790798
5,117500	0,1	0,790122
5,119167	0,1	0,819523
5,120833	0,1	0,805243
5,122500	0,1	0,809034
5,124167	0,1	0,799422
5,125833	0,1	0,798160
5,127500	0,1	0,787931
5,129167	0,1	0,791302
5,130833	0,1	0,852210
5,132500	0,1	0,790846
5,134167	0,1	0,792945
5,135833	0,1	0,836173
5,137500	0,1	0,786048
5,139167	0,1	0,768638
5,140833	0,1	0,800858
5,142500	0,1	0,759950
5,144167	0,1	0,807934
5,145833	0,1	0,794564
5,147500	0,1	0,785422
5,149167	0,1	0,815174
5,150833	0,1	0,768710
5,152500	0,1	0,758458
5,154167	0,1	0,775550
5,155833	0,1	0,776291
5,157500	0,1	0,770685
5,159167	0,1	0,791404
5,160833	0,1	0,799642
5,162500	0,1	0,786263
5,164167	0,1	0,813994
5,165833	0,1	0,783628
5,167500	0,1	0,745632
5,169167	0,1	0,783899
5,170833	0,1	0,766498
5,172500	0,1	0,817521
5,174167	0,1	0,756643
5,175833	0,1	0,747453
5,177500	0,1	0,748000
5,179167	0,1	0,756364
5,180833	0,1	0,732209
5,182500	0,1	0,748694
5,184167	0,1	0,772068
5,185833	0,1	0,758132
5,187500	0,1	0,764600
5,189167	0,1	0,722848
5,190833	0,1	0,744937
5,192500	0,1	0,701362
5,194167	0,1	0,715309
5,195833	0,1	0,719920
5,197500	0,1	0,729271
5,199167	0,1	0,724231
5,200833	0,1	0,742520
5,202500	0,1	0,714518
5,204167	0,1	0,711704
5,205833	0,1	0,719171
5,207500	0,1	0,709523
5,209167	0,1	0,703313
5,210833	0,1	0,710453
5,212500	0,1	0,684406
5,214167	0,1	0,651750
5,215833	0,1	0,705033
5,217500	0,1	0,698548
5,219167	0,1	0,658541
5,220833	0,1	0,707830
5,222500	0,1	0,659758
5,224167	0,1	0,686863
5,225833	0,1	0,680624
5,227500	0,1	0,615506
5,229167	0,1	0,594969
5,230833	0,1	0,621658
5,232500	0,1	0,618801
5,234167	0,1	0,582496
5,235833	0,1	0,607150
5,237500	0,1	0,638053
5,239167	0,1	0,626041
5,240833	0,1	0,615197
5,242500	0,1	0,612687
5,244167	0,1	0,598472
5,245833	0,1	0,596734
5,247500	0,1	0,577439
5,249167	0,1	0,608466
5,250833	0,1	0,594936
5,252500	0,1	0,581298
5,254167	0,1	0,588206
5,255833	0,1	0,592001
5,257500	0,1	0,610752
5,259167	0,1	0,572010
5,260833	0,1	0,560199
5,262500	0,1	0,569235
5,264167	0,1	0,569008
5,265833	0,1	0,543927
5,267500	0,1	0,552636
5,269167	0,1	0,559134
5,270833	0,1	0,558748
5,272500	0,1	0,547654
5,274167	0,1	0,538586
5,275833	0,1	0,556717
5,277500	0,1	0,560835
5,279167	0,1	0,533058
5,280833	0,1	0,506687
5,282500	0,1	0,539796
5,284167	0,1	0,504181
5,285833	0,1	0,532369
5,287500	0,1	0,512795
5,289167	0,1	0,496201
5,290833	0,1	0,504332
5,292500	0,1	0,475593
5,294167	0,1	0,475265
5,295833	0,1	0,468449
5,297500	0,1	0,505805
5,299167	0,1	0,442032
5,300833	0,1	0,490045
5,302500	0,1	0,456911
5,304167	0,1	0,474519
5,305833	0,1	0,456071
5,307500	0,1	0,456679
5,309167	0,1	0,481206
5,310833	0,1	0,462215
5,312500	0,1	0,455811
5,314167	0,1	0,444816
5,315833	0,1	0,436133
5,317500	0,1	0,408841
5,319167	0,1	0,421465
5,320833	0,1	0,436449
5,322500	0,1	0,401479
5,324167	0,1	0,390929
5,325833	0,1	0,391856
5,327500	0,1	0,447791
5,329167	0,1	0,421253
5,330833	0,1	0,392957
5,332500	0,1	0,401663
5,334167	0,1	0,430949
5,335833	0,1	0,395695
5,337500	0,1	0,415519
5,339167	0,1	0,420539
5,340833	0,1	0,395405
5,342500	0,1	0,397871
5,344167	0,1	0,437407
5,345833	0,1	0,374739
5,347500	0,1	0,371893
5,349167	0,1	0,414643
5,350833	0,1	0,366765
5,352500	0,1	0,336862
5,354167	0,1	0,380564
5,355833	0,1	0,343902
5,357500	0,1	0,400945
5,359167	0,1	0,371999
5,360833	0,1	0,368071
5,362500	0,1	0,396127
5,364167	0,1	0,371903
5,365833	0,1	0,357883
5,367500	0,1	0,363185
5,369167	0,1	0,316293
5,370833	0,1	0,367287
5,372500	0,1	0,355438
5,374167	0,1	0,314075
5,375833	0,1	0,354401
5,377500	0,1	0,335991
5,379167	0,1	0,323936
5,380833	0,1	0,319243
5,382500	0,1	0,322328
5,384167	0,1	0,333835
5,385833	0,1	0,341389
5,387500	0,1	0,278495
5,389167	0,1	0,325753
5,390833	0,1	0,304356
5,392500	0,1	0,267336
5,394167	0,1	0,319132
5,395833	0,1	0,265057
5,397500	0,1	0,274558
5,399167	0,1	0,325561
5,400833	0,1	0,308571
5,402500	0,1	0,297290
5,404167	0,1	0,300852
5,405833	0,1	0,328560
5,407500	0,1	0,322973
5,409167	0,1	0,305936
5,410833	0,1	0,298582
5,412500	0,1	0,303008
5,414167	0,1	0,263832
5,415833	0,1	0,260998
5,417500	0,1	0,270729
5,419167	0,1	0,284136
5,420833	0,1	0,289733
5,422500	0,1	0,307920
5,424167	0,1	0,247767
5,425833	0,1	0,277162
5,427500	0,1	0,271385
5,429167	0,1	0,324761
5,430833	0,1	0,265929
5,432500	0,1	0,253515
5,434167	0,1	0,264915
5,435833	0,1	0,289665
5,437500	0,1	0,315535
5,439167	0,1	0,276408
5,440833	0,1	0,227423
5,442500	0,1	0,299841
5,444167	0,1	0,224051
5,445833	0,1	0,236242
5,447500	0,1	0,286029
5,449167	0,1	0,203611
5,450833	0,1	0,249697
5,452500	0,1	0,221444
5,454167	0,1	0,246787
5,455833	0,1	0,229506
5,457500	0,1	0,256555
5,459167	0,1	0,244551
5,460833	0,1	0,276870
5,462500	0,1	0,217883
5,464167	0,1	0,258733
5,465833	0,1	0,299304
5,467500	0,1	0,217499
5,469167	0,1	0,244921
5,470833	0,1	0,238628
5,472500	0,1	0,212055
5,474167	0,1	0,227355
5,475833	0,1	0,268866
5,477500	0,1	0,244101
5,479167	0,1	0,200175
5,480833	0,1	0,243189
5,482500	0,1	0,216842
5,484167	0,1	0,241936
5,485833	0,1	0,232240
5,487500	0,1	0,206432
5,489167	0,1	0,196145
5,490833	0,1	0,205466
5,492500	0,1	0,187365
5,494167	0,1	0,207166
5,495833	0,1	0,225036
5,497500	0,1	0,221765
5,499167	0,1	0,183791
5,500833	0,1	0,209381
5,502500	0,1	0,198037
5,504167	0,1	0,229947
5,505833	0,1	0,238989
5,507500	0,1	0,153207
5,509167	0,1	0,222579
5,510833	0,1	0,223854
5,512500	0,1	0,160850
5,514167	0,1	0,205484
5,515833	0,1	0,234612
5,517500	0,1	0,196053
5,519167	0,1	0,218443
5,520833	0,1	0,178511
5,522500	0,1	0,168864
5,524167	0,1	0,188237
5,525833	0,1	0,197237
5,527500	0,1	0,251644
5,529167	0,1	0,182248
5,530833	0,1	0,195308
5,532500	0,1	0,187703
5,534167	0,1	0,147929
5,535833	0,1	0,208994
5,537500	0,1	0,162092
5,539167	0,1	0,194207
5,540833	0,1	0,186153
5,542500	0,1	0,167971
5,544167	0,1	0,201252
5,545833	0,1	0,164786
5,547500	0,1	0,183020
5,549167	0,1	0,177645
5,550833	0,1	0,188818
5,552500	0,1	0,195889
5,554167	0,1	0,145447
5,555833	0,1	0,157642
5,557500	0,1	0,157268
5,559167	0,1	0,158678
5,560833	0,1	0,177539
5,562500	0,1	0,167767
5,564167	0,1	0,225985
5,565833	0,1	0,176043
5,567500	0,1	0,175099
5,569167	0,1	0,173940
5,570833	0,1	0,185883
5,572500	0,1	0,156658
5,574167	0,1	0,198553
5,575833	0,1	0,151747
5,577500	0,1	0,156398
5,579167	0,1	0,171277
5,580833	0,1	0,161152
5,582500	0,1	0,167032
5,584167	0,1	0,151842
5,585833	0,1	0,177247
5,587500	0,1	0,180555
5,589167	0,1	0,152236
5,590833	0,1	0,152215
5,592500	0,1	0,143900
5,594167	0,1	0,185448
5,595833	0,1	0,148557
5,597500	0,1	0,180498
5,599167	0,1	0,173627
5,600833	0,1	0,140405
5,602500	0,1	0,157806
5,604167	0,1	0,176582
5,605833	0,1	0,149714
5,607500	0,1	0,194444
5,609167	0,1	0,197202
5,610833	0,1	0,152603
5,612500	0,1	0,180711
5,614167	0,1	0,154024
5,615833	0,1	0,155114
5,617500	0,1	0,134375
5,619167	0,1	0,154315
5,620833	0,1	0,122474
5,622500	0,1	0,155546
5,624167	0,1	0,153147
5,625833	0,1	0,158969
5,627500	0,1	0,178093
5,629167	0,1	0,170288
5,630833	0,1	0,177933
5,632500	0,1	0,188152
5,634167	0,1	0,192010
5,635833	0,1	0,138567
5,637500	0,1	0,172723
5,639167	0,1	0,135187
5,640833	0,1	0,151480
5,642500	0,1	0,176604
5,644167	0,1	0,150496
5,645833	0,1	0,187338
5,647500	0,1	0,155827
5,649167	0,1	0,163215
5,650833	0,1	0,140151
5,652500	0,1	0,159834
5,654167	0,1	0,155404
5,655833	0,1	0,169501
5,657500	0,1	0,144447
5,659167	0,1	0,181037
5,660833	0,1	0,166911
5,662500	0,1	0,152421
5,664167	0,1	0,149683
5,665833	0,1	0,152769
5,667500	0,1	0,154848
5,669167	0,1	0,189306
5,670833	0,1	0,168261
5,672500	0,1	0,135326
5,674167	0,1	0,135090
5,675833	0,1	0,152665
5,677500	0,1	0,172650
5,679167	0,1	0,157751
5,680833	0,1	0,178911
5,682500	0,1	0,179472
5,684167	0,1	0,168410
5,685833	0,1	0,130914
5,687500	0,1	0,159026
5,689167	0,1	0,180891
5,690833	0,1	0,145483
5,692500	0,1	0,154860
5,694167	0,1	0,130121
5,695833	0,1	0,179043
5,697500	0,1	0,139638
5,699167	0,1	0,143546
5,700833	0,1	0,114245
5,702500	0,1	0,165510
5,704167	0,1	0,144923
5,705833	0,1	0,154986
5,707500	0,1	0,152316
5,709167	0,1	0,136733
5,710833	0,1	0,177697
5,712500	0,1	0,152864
5,714167	0,1	0,188398
5,715833	0,1	0,197918
5,717500	0,1	0,172081
5,719167	0,1	0,196326
5,720833	0,1	0,176098
5,722500	0,1	0,193580
5,724167	0,1	0,159935
5,725833	0,1	0,158351
5,727500	0,1	0,174251
5,729167	0,1	0,165876
5,730833	0,1	0,154600
5,732500	0,1	0,146345
5,734167	0,1	0,159169
5,735833	0,1	0,160215
5,737500	0,1	0,164008
5,739167	0,1	0,161767
5,740833	0,1	0,200281
5,742500	0,1	0,157883
5,744167	0,1	0,178824
5,745833	0,1	0,178187
5,747500	0,1	0,159352
5,749167	0,1	0,149270
5,750833	0,1	0,174285
5,752500	0,1	0,164402
5,754167	0,1	0,180853
5,755833	0,1	0,140695
5,757500	0,1	0,213643
5,759167	0,1	0,154132
5,760833	0,1	0,217187
5,762500	0,1	0,174026
5,764167	0,1	0,157360
5,765833	0,1	0,189419
5,767500	0,1	0,207683
5,769167	0,1	0,202193
5,770833	0,1	0,156056
5,772500	0,1	0,177437
5,774167	0,1	0,181297
5,775833	0,1	0,173312
5,777500	0,1	0,177504
5,779167	0,1	0,192674
5,780833	0,1	0,189137
5,782500	0,1	0,192034
5,784167	0,1	0,149529
5,785833	0,1	0,192150
5,787500	0,1	0,186606
5,789167	0,1	0,176864
5,790833	0,1	0,193468
5,792500	0,1	0,181138
5,794167	0,1	0,156203
5,795833	0,1	0,163616
5,797500	0,1	0,204137
5,799167	0,1	0,175623
5,800833	0,1	0,167350
5,802500	0,1	0,159777
5,804167	0,1	0,176318
5,805833	0,1	0,178147
5,807500	0,1	0,168963
5,809167	0,1	0,165874
5,810833	0,1	0,178058
5,812500	0,1	0,161505
5,814167	0,1	0,163782
5,815833	0,1	0,192634
5,817500	0,1	0,154732
5,819167	0,1	0,217665
5,820833	0,1	0,191437
5,822500	0,1	0,172659
5,824167	0,1	0,167389
5,825833	0,1	0,177906
5,827500	0,1	0,179244
5,829167	0,1	0,170099
5,830833	0,1	0,181560
5,832500	0,1	0,211927
5,834167	0,1	0,186634
5,835833	0,1	0,164719
5,837500	0,1	0,157749
5,839167	0,1	0,185084
5,840833	0,1	0,181299
5,842500	0,1	0,168096
5,844167	0,1	0,204501
5,845833	0,1	0,180448
5,847500	0,1	0,187825
5,849167	0,1	0,177130
5,850833	0,1	0,218099
5,852500	0,1	0,166380
5,854167	0,1	0,175349
5,855833	0,1	0,155433
5,857500	0,1	0,160403
5,859167	0,1	0,184419
5,860833	0,1	0,169054
5,862500	0,1	0,169101
5,864167	0,1	0,150055
5,865833	0,1	0,169725
5,867500	0,1	0,183123
5,869167	0,1	0,154704
5,870833	0,1	0,145075
5,872500	0,1	0,181517
5,874167	0,1	0,162476
5,875833	0,1	0,139634
5,877500	0,1	0,177244
5,879167	0,1	0,155182
5,880833	0,1	0,143878
5,882500	0,1	0,161864
5,884167	0,1	0,155795
5,885833	0,1	0,134367
5,887500	0,1	0,200022
5,889167	0,1	0,141719
5,890833	0,1	0,152892
5,892500	0,1	0,173518
5,894167	0,1	0,170085
5,895833	0,1	0,125941
5,897500	0,1	0,122756
5,899167	0,1	0,148970
5,900833	0,1	0,175547
5,902500	0,1	0,134786
5,904167	0,1	0,169055
5,905833	0,1	0,183487
5,907500	0,1	0,139968
5,909167	0,1	0,156558
5,910833	0,1	0,140024
5,912500	0,1	0,158486
5,914167	0,1	0,184557
5,915833	0,1	0,141818
5,917500	0,1	0,132662
5,919167	0,1	0,146380
5,920833	0,1	0,137577
5,922500	0,1	0,150196
5,924167	0,1	0,160064
5,925833	0,1	0,143425
5,927500	0,1	0,134866
5,929167	0,1	0,148205
5,930833	0,1	0,150855
5,932500	0,1	0,116770
5,934167	0,1	0,134709
5,935833	0,1	0,149907
5,937500	0,1	0,136958
5,939167	0,1	0,144930
5,940833	0,1	0,115985
5,942500	0,1	0,107814
5,944167	0,1	0,145355
5,945833	0,1	0,136909
5,947500	0,1	0,116021
5,949167	0,1	0,137444
5,950833	0,1	0,143081
5,952500	0,1	0,124703
5,954167	0,1	0,122671
5,955833	0,1	0,116864
5,957500	0,1	0,136222
5,959167	0,1	0,127584
5,960833	0,1	0,110465
5,962500	0,1	0,139824
5,964167	0,1	0,134009
5,965833	0,1	0,157856
5,967500	0,1	0,122553
5,969167	0,1	0,154047
5,970833	0,1	0,074874
5,972500	0,1	0,121186
5,974167	0,1	0,163370
5,975833	0,1	0,132379
5,977500	0,1	0,086470
5,979167	0,1	0,162039
5,980833	0,1	0,123093
5,982500	0,1	0,130542
5,984167	0,1	0,111852
5,985833	0,1	0,090281
5,987500	0,1	0,113465
5,989167	0,1	0,099580
5,990833	0,1	0,131784
5,992500	0,1	0,096396
5,994167	0,1	0,110559
5,995833	0,1	0,104639
5,997500	0,1	0,095355
5,999167	0,1	0,108656
6,000833	0,1	0,159035
