File Path	chrom://chromeleon01/ikbm_chromeleon/2022/Rezex/Esteban/220612_chitin_4_7.seq/415.smp/UV_VIS_1.channel/UV_VIS_1.chm
Channel	UV_VIS_1

Injection Information:
Data Vault	ikbm_chromeleon
Injection	Sc10D_24h-ChiBI_3
Injection Number	49
Position	GA4
Comment	
Processing Method	New ProcMethod
Instrument Method	Short_Rezex_6min_194nm
Type	Unknown
Status	Finished
Injection Date	12.06.2022
Injection Time	22:25:04
Injection Volume (µl)	8,000
Dilution Factor	1,0000
Weight	1,0000

Chromatogram Data Information:
Time Min. (min)	0,000833
Time Max. (min)	6,000833
Data Points	3601
Detector	UV
Generating Data System	Chromeleon 7.2.9.11323
Exporting Data System	Chromeleon 7.2.9.0
Operator	Instrument Controller
Signal Quantity	Absorbance
Signal Unit	mAU
Signal Min.	-0,185026
Signal Max.	443,564392
Channel	UV_VIS_1
Driver Name	VWD3000.dll
Channel Type	Evaluation
Min. Step (s)	0,1
Max. Step (s)	0,1
Average Step (s)	0,1

Signal Parameter Information:
Signal Info	WVL:194 nm

Chromatogram Data:
Time (min)	Step (s)	Value (mAU)
0,000833	n.a.	-0,082952
0,002500	0,1	-0,061136
0,004167	0,1	-0,052966
0,005833	0,1	-0,073187
0,007500	0,1	-0,056612
0,009167	0,1	-0,070836
0,010833	0,1	-0,104408
0,012500	0,1	-0,056869
0,014167	0,1	-0,101696
0,015833	0,1	-0,066111
0,017500	0,1	-0,067062
0,019167	0,1	-0,090811
0,020833	0,1	-0,060757
0,022500	0,1	-0,038173
0,024167	0,1	-0,072646
0,025833	0,1	-0,034349
0,027500	0,1	-0,114260
0,029167	0,1	-0,081553
0,030833	0,1	-0,110693
0,032500	0,1	-0,070571
0,034167	0,1	-0,185026
0,035833	0,1	-0,099635
0,037500	0,1	-0,089018
0,039167	0,1	-0,086701
0,040833	0,1	-0,079638
0,042500	0,1	-0,141776
0,044167	0,1	-0,132575
0,045833	0,1	-0,133702
0,047500	0,1	-0,109931
0,049167	0,1	-0,052977
0,050833	0,1	-0,092438
0,052500	0,1	-0,117139
0,054167	0,1	-0,054493
0,055833	0,1	-0,065615
0,057500	0,1	-0,101698
0,059167	0,1	-0,085600
0,060833	0,1	-0,104674
0,062500	0,1	-0,070085
0,064167	0,1	-0,084763
0,065833	0,1	-0,073170
0,067500	0,1	-0,102082
0,069167	0,1	-0,088571
0,070833	0,1	-0,094945
0,072500	0,1	-0,035196
0,074167	0,1	-0,093156
0,075833	0,1	-0,063664
0,077500	0,1	-0,141444
0,079167	0,1	-0,047120
0,080833	0,1	-0,070161
0,082500	0,1	-0,050996
0,084167	0,1	-0,071728
0,085833	0,1	-0,095967
0,087500	0,1	-0,025938
0,089167	0,1	-0,047054
0,090833	0,1	-0,062904
0,092500	0,1	-0,032836
0,094167	0,1	-0,055695
0,095833	0,1	-0,042509
0,097500	0,1	-0,035393
0,099167	0,1	-0,078694
0,100833	0,1	-0,053510
0,102500	0,1	-0,073450
0,104167	0,1	-0,053955
0,105833	0,1	-0,117289
0,107500	0,1	-0,047918
0,109167	0,1	-0,056738
0,110833	0,1	-0,089164
0,112500	0,1	-0,121741
0,114167	0,1	-0,102684
0,115833	0,1	-0,074159
0,117500	0,1	-0,074706
0,119167	0,1	-0,093009
0,120833	0,1	-0,104860
0,122500	0,1	-0,110149
0,124167	0,1	-0,095369
0,125833	0,1	-0,085636
0,127500	0,1	-0,088539
0,129167	0,1	-0,062796
0,130833	0,1	-0,080055
0,132500	0,1	-0,060228
0,134167	0,1	-0,094491
0,135833	0,1	-0,068555
0,137500	0,1	-0,055018
0,139167	0,1	-0,053726
0,140833	0,1	-0,068258
0,142500	0,1	-0,054637
0,144167	0,1	-0,044813
0,145833	0,1	-0,081142
0,147500	0,1	-0,081898
0,149167	0,1	-0,052288
0,150833	0,1	-0,047389
0,152500	0,1	-0,074502
0,154167	0,1	-0,032929
0,155833	0,1	-0,057653
0,157500	0,1	-0,048218
0,159167	0,1	-0,040193
0,160833	0,1	-0,065874
0,162500	0,1	-0,045550
0,164167	0,1	-0,042587
0,165833	0,1	-0,049344
0,167500	0,1	-0,063102
0,169167	0,1	-0,031085
0,170833	0,1	-0,050723
0,172500	0,1	0,003186
0,174167	0,1	-0,063509
0,175833	0,1	-0,052086
0,177500	0,1	-0,040655
0,179167	0,1	-0,001478
0,180833	0,1	-0,079223
0,182500	0,1	-0,024041
0,184167	0,1	-0,075100
0,185833	0,1	-0,040175
0,187500	0,1	-0,088832
0,189167	0,1	-0,076233
0,190833	0,1	-0,060715
0,192500	0,1	-0,046879
0,194167	0,1	-0,030015
0,195833	0,1	-0,067830
0,197500	0,1	-0,013242
0,199167	0,1	-0,043802
0,200833	0,1	-0,036590
0,202500	0,1	-0,060903
0,204167	0,1	-0,089653
0,205833	0,1	-0,040782
0,207500	0,1	-0,028856
0,209167	0,1	-0,050605
0,210833	0,1	-0,034014
0,212500	0,1	-0,015125
0,214167	0,1	-0,065446
0,215833	0,1	-0,072664
0,217500	0,1	-0,059727
0,219167	0,1	-0,088389
0,220833	0,1	0,005996
0,222500	0,1	-0,023426
0,224167	0,1	-0,039767
0,225833	0,1	-0,047199
0,227500	0,1	-0,028726
0,229167	0,1	-0,064674
0,230833	0,1	-0,005334
0,232500	0,1	-0,044759
0,234167	0,1	-0,045125
0,235833	0,1	0,001651
0,237500	0,1	-0,020562
0,239167	0,1	-0,026076
0,240833	0,1	-0,026986
0,242500	0,1	-0,043700
0,244167	0,1	0,005005
0,245833	0,1	0,006018
0,247500	0,1	-0,034737
0,249167	0,1	-0,045791
0,250833	0,1	-0,048701
0,252500	0,1	-0,028256
0,254167	0,1	-0,020279
0,255833	0,1	0,008011
0,257500	0,1	-0,051871
0,259167	0,1	-0,026623
0,260833	0,1	-0,005433
0,262500	0,1	-0,022563
0,264167	0,1	-0,019683
0,265833	0,1	-0,060386
0,267500	0,1	-0,038658
0,269167	0,1	-0,000304
0,270833	0,1	-0,005583
0,272500	0,1	-0,008452
0,274167	0,1	-0,044589
0,275833	0,1	-0,029331
0,277500	0,1	-0,037347
0,279167	0,1	-0,031394
0,280833	0,1	-0,047790
0,282500	0,1	-0,002438
0,284167	0,1	-0,043812
0,285833	0,1	-0,019284
0,287500	0,1	0,002278
0,289167	0,1	-0,010919
0,290833	0,1	-0,075124
0,292500	0,1	-0,020448
0,294167	0,1	-0,051785
0,295833	0,1	-0,030372
0,297500	0,1	-0,028078
0,299167	0,1	-0,014793
0,300833	0,1	0,009854
0,302500	0,1	0,003838
0,304167	0,1	-0,013066
0,305833	0,1	-0,038764
0,307500	0,1	-0,017416
0,309167	0,1	-0,030613
0,310833	0,1	0,007761
0,312500	0,1	-0,022113
0,314167	0,1	0,009968
0,315833	0,1	-0,073712
0,317500	0,1	-0,029535
0,319167	0,1	-0,017992
0,320833	0,1	-0,002721
0,322500	0,1	-0,019628
0,324167	0,1	-0,018055
0,325833	0,1	-0,019212
0,327500	0,1	-0,046761
0,329167	0,1	-0,025951
0,330833	0,1	0,007167
0,332500	0,1	-0,001294
0,334167	0,1	0,013353
0,335833	0,1	-0,046043
0,337500	0,1	-0,002662
0,339167	0,1	-0,010276
0,340833	0,1	-0,019276
0,342500	0,1	-0,019236
0,344167	0,1	-0,001853
0,345833	0,1	0,006793
0,347500	0,1	0,012975
0,349167	0,1	0,010191
0,350833	0,1	-0,013654
0,352500	0,1	0,046415
0,354167	0,1	-0,030613
0,355833	0,1	0,035496
0,357500	0,1	-0,009507
0,359167	0,1	-0,013962
0,360833	0,1	0,030304
0,362500	0,1	0,019244
0,364167	0,1	-0,011536
0,365833	0,1	0,037724
0,367500	0,1	-0,009847
0,369167	0,1	0,000321
0,370833	0,1	0,034678
0,372500	0,1	0,008603
0,374167	0,1	0,058040
0,375833	0,1	0,016250
0,377500	0,1	-0,000516
0,379167	0,1	0,054753
0,380833	0,1	0,016738
0,382500	0,1	-0,007446
0,384167	0,1	0,018167
0,385833	0,1	0,003576
0,387500	0,1	0,041197
0,389167	0,1	0,026583
0,390833	0,1	0,050333
0,392500	0,1	0,021205
0,394167	0,1	0,006508
0,395833	0,1	0,035151
0,397500	0,1	0,017467
0,399167	0,1	0,020331
0,400833	0,1	0,021687
0,402500	0,1	0,010550
0,404167	0,1	0,033929
0,405833	0,1	0,038067
0,407500	0,1	0,001845
0,409167	0,1	0,019194
0,410833	0,1	0,018041
0,412500	0,1	0,024733
0,414167	0,1	0,046333
0,415833	0,1	0,012786
0,417500	0,1	0,038663
0,419167	0,1	0,057782
0,420833	0,1	0,034295
0,422500	0,1	0,028978
0,424167	0,1	0,032800
0,425833	0,1	0,071025
0,427500	0,1	-0,000344
0,429167	0,1	0,010792
0,430833	0,1	0,047552
0,432500	0,1	0,028179
0,434167	0,1	0,061049
0,435833	0,1	0,014409
0,437500	0,1	0,068623
0,439167	0,1	0,031521
0,440833	0,1	0,078007
0,442500	0,1	0,014784
0,444167	0,1	0,014438
0,445833	0,1	0,037705
0,447500	0,1	0,051403
0,449167	0,1	0,041316
0,450833	0,1	0,016890
0,452500	0,1	0,046909
0,454167	0,1	0,030782
0,455833	0,1	0,064049
0,457500	0,1	0,001158
0,459167	0,1	0,019012
0,460833	0,1	0,030510
0,462500	0,1	0,095542
0,464167	0,1	0,077377
0,465833	0,1	0,052190
0,467500	0,1	0,084432
0,469167	0,1	0,091019
0,470833	0,1	0,076619
0,472500	0,1	0,073771
0,474167	0,1	0,076794
0,475833	0,1	0,061614
0,477500	0,1	0,076280
0,479167	0,1	0,048677
0,480833	0,1	0,088390
0,482500	0,1	0,084175
0,484167	0,1	0,051812
0,485833	0,1	0,052696
0,487500	0,1	0,071343
0,489167	0,1	0,032810
0,490833	0,1	0,072738
0,492500	0,1	0,075547
0,494167	0,1	0,135093
0,495833	0,1	0,063382
0,497500	0,1	0,060366
0,499167	0,1	0,073012
0,500833	0,1	0,105732
0,502500	0,1	0,123831
0,504167	0,1	0,104967
0,505833	0,1	0,105516
0,507500	0,1	0,052955
0,509167	0,1	0,074211
0,510833	0,1	0,122334
0,512500	0,1	0,107811
0,514167	0,1	0,071466
0,515833	0,1	0,121535
0,517500	0,1	0,078715
0,519167	0,1	0,100331
0,520833	0,1	0,092046
0,522500	0,1	0,086708
0,524167	0,1	0,117471
0,525833	0,1	0,097451
0,527500	0,1	0,105226
0,529167	0,1	0,044040
0,530833	0,1	0,121482
0,532500	0,1	0,105786
0,534167	0,1	0,106805
0,535833	0,1	0,105383
0,537500	0,1	0,118474
0,539167	0,1	0,054844
0,540833	0,1	0,078922
0,542500	0,1	0,095753
0,544167	0,1	0,127253
0,545833	0,1	0,120102
0,547500	0,1	0,099473
0,549167	0,1	0,135323
0,550833	0,1	0,095056
0,552500	0,1	0,104269
0,554167	0,1	0,131078
0,555833	0,1	0,106856
0,557500	0,1	0,093290
0,559167	0,1	0,148301
0,560833	0,1	0,091413
0,562500	0,1	0,122251
0,564167	0,1	0,107877
0,565833	0,1	0,112519
0,567500	0,1	0,109385
0,569167	0,1	0,155930
0,570833	0,1	0,099905
0,572500	0,1	0,159641
0,574167	0,1	0,159543
0,575833	0,1	0,151362
0,577500	0,1	0,128287
0,579167	0,1	0,132928
0,580833	0,1	0,160027
0,582500	0,1	0,165278
0,584167	0,1	0,166525
0,585833	0,1	0,168415
0,587500	0,1	0,111798
0,589167	0,1	0,120188
0,590833	0,1	0,137305
0,592500	0,1	0,150579
0,594167	0,1	0,156073
0,595833	0,1	0,168546
0,597500	0,1	0,133161
0,599167	0,1	0,162071
0,600833	0,1	0,153210
0,602500	0,1	0,136090
0,604167	0,1	0,183813
0,605833	0,1	0,173798
0,607500	0,1	0,178953
0,609167	0,1	0,215038
0,610833	0,1	0,209732
0,612500	0,1	0,166779
0,614167	0,1	0,211052
0,615833	0,1	0,156689
0,617500	0,1	0,161676
0,619167	0,1	0,179284
0,620833	0,1	0,228443
0,622500	0,1	0,216116
0,624167	0,1	0,183634
0,625833	0,1	0,167375
0,627500	0,1	0,202671
0,629167	0,1	0,164756
0,630833	0,1	0,150275
0,632500	0,1	0,209873
0,634167	0,1	0,180164
0,635833	0,1	0,186648
0,637500	0,1	0,180002
0,639167	0,1	0,201189
0,640833	0,1	0,222959
0,642500	0,1	0,224142
0,644167	0,1	0,173120
0,645833	0,1	0,204631
0,647500	0,1	0,218179
0,649167	0,1	0,199551
0,650833	0,1	0,191810
0,652500	0,1	0,220642
0,654167	0,1	0,224537
0,655833	0,1	0,195617
0,657500	0,1	0,230180
0,659167	0,1	0,235701
0,660833	0,1	0,226057
0,662500	0,1	0,216074
0,664167	0,1	0,256667
0,665833	0,1	0,268438
0,667500	0,1	0,229486
0,669167	0,1	0,261895
0,670833	0,1	0,218173
0,672500	0,1	0,248978
0,674167	0,1	0,265145
0,675833	0,1	0,258613
0,677500	0,1	0,254030
0,679167	0,1	0,257965
0,680833	0,1	0,281509
0,682500	0,1	0,269426
0,684167	0,1	0,259460
0,685833	0,1	0,294895
0,687500	0,1	0,255866
0,689167	0,1	0,306994
0,690833	0,1	0,230945
0,692500	0,1	0,273658
0,694167	0,1	0,289857
0,695833	0,1	0,313143
0,697500	0,1	0,272388
0,699167	0,1	0,296727
0,700833	0,1	0,313432
0,702500	0,1	0,308007
0,704167	0,1	0,273723
0,705833	0,1	0,297276
0,707500	0,1	0,297601
0,709167	0,1	0,320749
0,710833	0,1	0,308569
0,712500	0,1	0,357732
0,714167	0,1	0,336241
0,715833	0,1	0,325543
0,717500	0,1	0,333721
0,719167	0,1	0,345129
0,720833	0,1	0,343552
0,722500	0,1	0,322897
0,724167	0,1	0,318310
0,725833	0,1	0,367408
0,727500	0,1	0,330419
0,729167	0,1	0,393584
0,730833	0,1	0,386420
0,732500	0,1	0,373874
0,734167	0,1	0,358412
0,735833	0,1	0,392488
0,737500	0,1	0,423032
0,739167	0,1	0,374886
0,740833	0,1	0,373633
0,742500	0,1	0,396649
0,744167	0,1	0,394161
0,745833	0,1	0,375863
0,747500	0,1	0,404612
0,749167	0,1	0,379022
0,750833	0,1	0,410961
0,752500	0,1	0,416722
0,754167	0,1	0,435652
0,755833	0,1	0,415675
0,757500	0,1	0,475526
0,759167	0,1	0,452302
0,760833	0,1	0,452992
0,762500	0,1	0,446506
0,764167	0,1	0,422181
0,765833	0,1	0,412990
0,767500	0,1	0,435346
0,769167	0,1	0,450902
0,770833	0,1	0,441161
0,772500	0,1	0,457931
0,774167	0,1	0,437156
0,775833	0,1	0,453414
0,777500	0,1	0,415766
0,779167	0,1	0,461219
0,780833	0,1	0,454453
0,782500	0,1	0,469001
0,784167	0,1	0,486915
0,785833	0,1	0,498464
0,787500	0,1	0,506293
0,789167	0,1	0,491054
0,790833	0,1	0,467194
0,792500	0,1	0,489344
0,794167	0,1	0,475953
0,795833	0,1	0,474150
0,797500	0,1	0,455137
0,799167	0,1	0,485911
0,800833	0,1	0,492947
0,802500	0,1	0,485070
0,804167	0,1	0,469182
0,805833	0,1	0,476715
0,807500	0,1	0,481233
0,809167	0,1	0,479025
0,810833	0,1	0,477226
0,812500	0,1	0,505930
0,814167	0,1	0,494597
0,815833	0,1	0,485176
0,817500	0,1	0,498890
0,819167	0,1	0,489503
0,820833	0,1	0,505919
0,822500	0,1	0,512678
0,824167	0,1	0,517606
0,825833	0,1	0,505363
0,827500	0,1	0,515008
0,829167	0,1	0,507161
0,830833	0,1	0,514119
0,832500	0,1	0,515368
0,834167	0,1	0,514958
0,835833	0,1	0,520406
0,837500	0,1	0,569376
0,839167	0,1	0,547792
0,840833	0,1	0,557042
0,842500	0,1	0,516887
0,844167	0,1	0,542783
0,845833	0,1	0,548270
0,847500	0,1	0,524917
0,849167	0,1	0,556609
0,850833	0,1	0,532867
0,852500	0,1	0,569394
0,854167	0,1	0,538251
0,855833	0,1	0,565593
0,857500	0,1	0,548808
0,859167	0,1	0,562135
0,860833	0,1	0,552157
0,862500	0,1	0,605959
0,864167	0,1	0,601661
0,865833	0,1	0,589043
0,867500	0,1	0,597910
0,869167	0,1	0,590814
0,870833	0,1	0,612628
0,872500	0,1	0,600166
0,874167	0,1	0,636565
0,875833	0,1	0,604688
0,877500	0,1	0,604875
0,879167	0,1	0,608377
0,880833	0,1	0,631429
0,882500	0,1	0,623829
0,884167	0,1	0,644696
0,885833	0,1	0,621182
0,887500	0,1	0,630403
0,889167	0,1	0,619366
0,890833	0,1	0,705722
0,892500	0,1	0,636177
0,894167	0,1	0,659463
0,895833	0,1	0,633639
0,897500	0,1	0,657374
0,899167	0,1	0,665691
0,900833	0,1	0,677310
0,902500	0,1	0,656246
0,904167	0,1	0,686206
0,905833	0,1	0,659969
0,907500	0,1	0,648403
0,909167	0,1	0,706421
0,910833	0,1	0,716426
0,912500	0,1	0,699775
0,914167	0,1	0,685709
0,915833	0,1	0,689220
0,917500	0,1	0,684426
0,919167	0,1	0,764258
0,920833	0,1	0,707970
0,922500	0,1	0,741948
0,924167	0,1	0,758175
0,925833	0,1	0,769440
0,927500	0,1	0,751298
0,929167	0,1	0,765774
0,930833	0,1	0,733331
0,932500	0,1	0,787352
0,934167	0,1	0,728770
0,935833	0,1	0,806947
0,937500	0,1	0,840112
0,939167	0,1	0,791699
0,940833	0,1	0,797784
0,942500	0,1	0,813133
0,944167	0,1	0,790162
0,945833	0,1	0,830633
0,947500	0,1	0,804946
0,949167	0,1	0,790241
0,950833	0,1	0,831924
0,952500	0,1	0,853371
0,954167	0,1	0,855253
0,955833	0,1	0,842410
0,957500	0,1	0,847433
0,959167	0,1	0,872537
0,960833	0,1	0,915458
0,962500	0,1	0,859848
0,964167	0,1	0,905131
0,965833	0,1	0,875718
0,967500	0,1	0,928093
0,969167	0,1	0,878803
0,970833	0,1	0,962106
0,972500	0,1	0,956024
0,974167	0,1	0,898191
0,975833	0,1	0,941795
0,977500	0,1	0,935629
0,979167	0,1	0,984001
0,980833	0,1	0,977338
0,982500	0,1	0,967723
0,984167	0,1	0,978484
0,985833	0,1	0,993840
0,987500	0,1	1,037844
0,989167	0,1	0,986245
0,990833	0,1	1,017529
0,992500	0,1	1,031824
0,994167	0,1	1,022926
0,995833	0,1	1,062035
0,997500	0,1	1,064921
0,999167	0,1	1,081350
1,000833	0,1	1,062548
1,002500	0,1	1,093338
1,004167	0,1	1,135133
1,005833	0,1	1,100535
1,007500	0,1	1,161983
1,009167	0,1	1,080010
1,010833	0,1	1,107342
1,012500	0,1	1,150923
1,014167	0,1	1,150863
1,015833	0,1	1,192436
1,017500	0,1	1,188850
1,019167	0,1	1,199335
1,020833	0,1	1,251180
1,022500	0,1	1,256293
1,024167	0,1	1,247677
1,025833	0,1	1,256221
1,027500	0,1	1,285163
1,029167	0,1	1,353901
1,030833	0,1	1,297610
1,032500	0,1	1,345570
1,034167	0,1	1,320446
1,035833	0,1	1,374165
1,037500	0,1	1,337115
1,039167	0,1	1,393058
1,040833	0,1	1,434302
1,042500	0,1	1,395956
1,044167	0,1	1,443935
1,045833	0,1	1,468153
1,047500	0,1	1,436628
1,049167	0,1	1,479507
1,050833	0,1	1,498132
1,052500	0,1	1,545117
1,054167	0,1	1,591197
1,055833	0,1	1,645175
1,057500	0,1	1,683722
1,059167	0,1	1,743540
1,060833	0,1	1,872042
1,062500	0,1	2,026435
1,064167	0,1	2,184731
1,065833	0,1	2,425687
1,067500	0,1	2,693975
1,069167	0,1	3,072223
1,070833	0,1	3,545612
1,072500	0,1	4,086943
1,074167	0,1	4,791519
1,075833	0,1	5,554764
1,077500	0,1	6,529250
1,079167	0,1	7,620517
1,080833	0,1	8,895436
1,082500	0,1	10,316719
1,084167	0,1	11,857297
1,085833	0,1	13,594368
1,087500	0,1	15,450914
1,089167	0,1	17,413887
1,090833	0,1	19,471585
1,092500	0,1	21,687073
1,094167	0,1	23,812439
1,095833	0,1	26,029316
1,097500	0,1	28,216167
1,099167	0,1	30,321354
1,100833	0,1	32,385649
1,102500	0,1	34,260478
1,104167	0,1	36,017098
1,105833	0,1	37,574125
1,107500	0,1	38,993818
1,109167	0,1	40,164439
1,110833	0,1	41,154535
1,112500	0,1	41,975119
1,114167	0,1	42,492017
1,115833	0,1	42,886015
1,117500	0,1	43,023276
1,119167	0,1	43,007121
1,120833	0,1	42,832259
1,122500	0,1	42,458543
1,124167	0,1	42,003749
1,125833	0,1	41,382033
1,127500	0,1	40,678359
1,129167	0,1	39,785970
1,130833	0,1	38,890333
1,132500	0,1	37,948333
1,134167	0,1	36,942891
1,135833	0,1	35,861411
1,137500	0,1	34,805076
1,139167	0,1	33,669432
1,140833	0,1	32,622289
1,142500	0,1	31,510276
1,144167	0,1	30,511184
1,145833	0,1	29,466750
1,147500	0,1	28,484140
1,149167	0,1	27,566389
1,150833	0,1	26,651879
1,152500	0,1	25,815098
1,154167	0,1	24,992013
1,155833	0,1	24,229640
1,157500	0,1	23,580553
1,159167	0,1	22,970618
1,160833	0,1	22,356461
1,162500	0,1	21,820155
1,164167	0,1	21,339091
1,165833	0,1	20,805797
1,167500	0,1	20,392754
1,169167	0,1	20,027947
1,170833	0,1	19,669010
1,172500	0,1	19,340516
1,174167	0,1	19,014147
1,175833	0,1	18,729591
1,177500	0,1	18,434485
1,179167	0,1	18,263255
1,180833	0,1	17,962820
1,182500	0,1	17,809286
1,184167	0,1	17,596126
1,185833	0,1	17,503301
1,187500	0,1	17,370020
1,189167	0,1	17,328236
1,190833	0,1	17,364993
1,192500	0,1	17,446746
1,194167	0,1	17,659799
1,195833	0,1	17,940314
1,197500	0,1	18,409938
1,199167	0,1	18,999285
1,200833	0,1	19,759801
1,202500	0,1	20,776026
1,204167	0,1	21,977933
1,205833	0,1	23,473861
1,207500	0,1	25,193051
1,209167	0,1	27,186996
1,210833	0,1	29,540681
1,212500	0,1	32,198133
1,214167	0,1	35,154445
1,215833	0,1	38,436948
1,217500	0,1	41,993514
1,219167	0,1	45,846008
1,220833	0,1	49,918265
1,222500	0,1	54,251478
1,224167	0,1	58,675401
1,225833	0,1	63,408013
1,227500	0,1	68,089922
1,229167	0,1	72,974930
1,230833	0,1	77,720992
1,232500	0,1	82,466442
1,234167	0,1	87,182761
1,235833	0,1	91,716295
1,237500	0,1	96,113599
1,239167	0,1	100,324308
1,240833	0,1	104,288525
1,242500	0,1	107,970222
1,244167	0,1	111,300580
1,245833	0,1	114,427663
1,247500	0,1	117,175575
1,249167	0,1	119,628806
1,250833	0,1	121,721312
1,252500	0,1	123,495699
1,254167	0,1	124,926433
1,255833	0,1	125,972304
1,257500	0,1	126,768600
1,259167	0,1	127,217263
1,260833	0,1	127,324790
1,262500	0,1	127,257739
1,264167	0,1	126,747266
1,265833	0,1	126,006977
1,267500	0,1	124,998989
1,269167	0,1	123,755183
1,270833	0,1	122,301931
1,272500	0,1	120,583152
1,274167	0,1	118,767081
1,275833	0,1	116,681926
1,277500	0,1	114,469786
1,279167	0,1	112,132633
1,280833	0,1	109,694726
1,282500	0,1	107,092590
1,284167	0,1	104,553725
1,285833	0,1	101,892329
1,287500	0,1	99,141759
1,289167	0,1	96,397468
1,290833	0,1	93,653669
1,292500	0,1	90,904084
1,294167	0,1	88,207793
1,295833	0,1	85,593907
1,297500	0,1	82,952148
1,299167	0,1	80,397746
1,300833	0,1	77,867126
1,302500	0,1	75,447032
1,304167	0,1	73,050459
1,305833	0,1	70,774142
1,307500	0,1	68,544100
1,309167	0,1	66,414162
1,310833	0,1	64,343564
1,312500	0,1	62,397668
1,314167	0,1	60,539515
1,315833	0,1	58,753668
1,317500	0,1	56,985064
1,319167	0,1	55,330186
1,320833	0,1	53,797824
1,322500	0,1	52,238450
1,324167	0,1	50,848607
1,325833	0,1	49,400882
1,327500	0,1	48,072647
1,329167	0,1	46,857077
1,330833	0,1	45,608013
1,332500	0,1	44,442064
1,334167	0,1	43,321915
1,335833	0,1	42,228693
1,337500	0,1	41,183502
1,339167	0,1	40,210555
1,340833	0,1	39,241194
1,342500	0,1	38,357788
1,344167	0,1	37,410497
1,345833	0,1	36,486036
1,347500	0,1	35,652078
1,349167	0,1	34,839028
1,350833	0,1	34,051737
1,352500	0,1	33,342438
1,354167	0,1	32,525878
1,355833	0,1	31,822354
1,357500	0,1	31,131849
1,359167	0,1	30,441724
1,360833	0,1	29,780390
1,362500	0,1	29,196965
1,364167	0,1	28,532782
1,365833	0,1	27,884461
1,367500	0,1	27,303236
1,369167	0,1	26,711056
1,370833	0,1	26,184060
1,372500	0,1	25,599737
1,374167	0,1	25,071769
1,375833	0,1	24,546562
1,377500	0,1	23,997391
1,379167	0,1	23,535262
1,380833	0,1	23,043145
1,382500	0,1	22,602573
1,384167	0,1	22,169742
1,385833	0,1	21,763673
1,387500	0,1	21,309389
1,389167	0,1	20,897967
1,390833	0,1	20,485039
1,392500	0,1	20,133523
1,394167	0,1	19,735378
1,395833	0,1	19,382576
1,397500	0,1	19,093503
1,399167	0,1	18,762496
1,400833	0,1	18,495867
1,402500	0,1	18,199728
1,404167	0,1	17,873288
1,405833	0,1	17,617150
1,407500	0,1	17,338644
1,409167	0,1	17,114032
1,410833	0,1	16,815091
1,412500	0,1	16,648987
1,414167	0,1	16,406573
1,415833	0,1	16,167330
1,417500	0,1	15,997633
1,419167	0,1	15,780688
1,420833	0,1	15,593545
1,422500	0,1	15,390225
1,424167	0,1	15,258769
1,425833	0,1	15,051097
1,427500	0,1	14,881633
1,429167	0,1	14,750377
1,430833	0,1	14,548928
1,432500	0,1	14,406834
1,434167	0,1	14,194205
1,435833	0,1	14,086035
1,437500	0,1	13,904581
1,439167	0,1	13,785473
1,440833	0,1	13,649345
1,442500	0,1	13,484807
1,444167	0,1	13,302252
1,445833	0,1	13,202494
1,447500	0,1	13,052163
1,449167	0,1	12,898128
1,450833	0,1	12,799032
1,452500	0,1	12,649001
1,454167	0,1	12,519023
1,455833	0,1	12,391637
1,457500	0,1	12,253047
1,459167	0,1	12,120072
1,460833	0,1	12,020504
1,462500	0,1	11,792300
1,464167	0,1	11,735825
1,465833	0,1	11,617592
1,467500	0,1	11,467108
1,469167	0,1	11,341339
1,470833	0,1	11,213509
1,472500	0,1	11,130244
1,474167	0,1	11,018784
1,475833	0,1	10,921178
1,477500	0,1	10,805256
1,479167	0,1	10,697786
1,480833	0,1	10,641257
1,482500	0,1	10,528421
1,484167	0,1	10,391958
1,485833	0,1	10,335669
1,487500	0,1	10,261301
1,489167	0,1	10,127637
1,490833	0,1	10,049677
1,492500	0,1	9,962557
1,494167	0,1	9,897870
1,495833	0,1	9,817212
1,497500	0,1	9,758590
1,499167	0,1	9,665439
1,500833	0,1	9,627095
1,502500	0,1	9,545447
1,504167	0,1	9,484114
1,505833	0,1	9,428568
1,507500	0,1	9,382351
1,509167	0,1	9,343925
1,510833	0,1	9,240818
1,512500	0,1	9,222052
1,514167	0,1	9,174966
1,515833	0,1	9,170531
1,517500	0,1	9,119198
1,519167	0,1	9,093612
1,520833	0,1	9,023901
1,522500	0,1	9,007667
1,524167	0,1	8,955777
1,525833	0,1	8,929068
1,527500	0,1	8,918687
1,529167	0,1	8,884523
1,530833	0,1	8,840597
1,532500	0,1	8,817526
1,534167	0,1	8,876481
1,535833	0,1	8,798018
1,537500	0,1	8,765949
1,539167	0,1	8,775488
1,540833	0,1	8,709818
1,542500	0,1	8,766164
1,544167	0,1	8,737416
1,545833	0,1	8,741328
1,547500	0,1	8,667076
1,549167	0,1	8,714932
1,550833	0,1	8,689317
1,552500	0,1	8,712203
1,554167	0,1	8,710446
1,555833	0,1	8,717061
1,557500	0,1	8,719441
1,559167	0,1	8,729173
1,560833	0,1	8,668530
1,562500	0,1	8,668648
1,564167	0,1	8,674422
1,565833	0,1	8,674672
1,567500	0,1	8,672279
1,569167	0,1	8,681235
1,570833	0,1	8,657438
1,572500	0,1	8,657127
1,574167	0,1	8,655630
1,575833	0,1	8,641865
1,577500	0,1	8,676415
1,579167	0,1	8,654968
1,580833	0,1	8,658336
1,582500	0,1	8,629718
1,584167	0,1	8,664274
1,585833	0,1	8,593918
1,587500	0,1	8,605732
1,589167	0,1	8,584874
1,590833	0,1	8,600778
1,592500	0,1	8,626826
1,594167	0,1	8,579546
1,595833	0,1	8,611598
1,597500	0,1	8,557471
1,599167	0,1	8,547668
1,600833	0,1	8,529687
1,602500	0,1	8,506190
1,604167	0,1	8,503834
1,605833	0,1	8,500791
1,607500	0,1	8,513172
1,609167	0,1	8,488690
1,610833	0,1	8,519810
1,612500	0,1	8,482809
1,614167	0,1	8,520741
1,615833	0,1	8,547316
1,617500	0,1	8,584985
1,619167	0,1	8,591158
1,620833	0,1	8,657349
1,622500	0,1	8,723729
1,624167	0,1	8,764655
1,625833	0,1	8,900717
1,627500	0,1	8,986417
1,629167	0,1	9,105164
1,630833	0,1	9,244328
1,632500	0,1	9,435855
1,634167	0,1	9,608477
1,635833	0,1	9,886360
1,637500	0,1	10,208760
1,639167	0,1	10,513221
1,640833	0,1	10,898548
1,642500	0,1	11,337314
1,644167	0,1	11,812217
1,645833	0,1	12,431577
1,647500	0,1	13,004599
1,649167	0,1	13,756796
1,650833	0,1	14,588929
1,652500	0,1	15,490268
1,654167	0,1	16,542253
1,655833	0,1	17,673556
1,657500	0,1	18,928121
1,659167	0,1	20,287334
1,660833	0,1	21,850317
1,662500	0,1	23,543721
1,664167	0,1	25,374006
1,665833	0,1	27,421118
1,667500	0,1	29,624003
1,669167	0,1	32,012976
1,670833	0,1	34,651550
1,672500	0,1	37,453662
1,674167	0,1	40,482449
1,675833	0,1	43,806813
1,677500	0,1	47,312680
1,679167	0,1	51,078824
1,680833	0,1	55,094014
1,682500	0,1	59,426366
1,684167	0,1	63,941129
1,685833	0,1	68,740999
1,687500	0,1	73,815953
1,689167	0,1	79,212319
1,690833	0,1	84,876385
1,692500	0,1	90,788219
1,694167	0,1	96,992966
1,695833	0,1	103,440942
1,697500	0,1	110,166068
1,699167	0,1	117,179379
1,700833	0,1	124,376085
1,702500	0,1	131,901508
1,704167	0,1	139,661159
1,705833	0,1	147,625621
1,707500	0,1	155,789700
1,709167	0,1	164,162108
1,710833	0,1	172,700469
1,712500	0,1	181,404734
1,714167	0,1	190,262170
1,715833	0,1	199,290808
1,717500	0,1	208,386165
1,719167	0,1	217,587772
1,720833	0,1	226,875574
1,722500	0,1	236,213415
1,724167	0,1	245,517842
1,725833	0,1	254,883282
1,727500	0,1	264,208380
1,729167	0,1	273,521905
1,730833	0,1	282,786547
1,732500	0,1	291,860583
1,734167	0,1	300,957079
1,735833	0,1	309,758966
1,737500	0,1	318,577967
1,739167	0,1	327,201343
1,740833	0,1	335,532495
1,742500	0,1	343,680896
1,744167	0,1	351,636130
1,745833	0,1	359,363596
1,747500	0,1	366,744664
1,749167	0,1	373,879716
1,750833	0,1	380,682696
1,752500	0,1	387,297424
1,754167	0,1	393,617720
1,755833	0,1	399,405550
1,757500	0,1	404,920823
1,759167	0,1	410,229378
1,760833	0,1	414,940786
1,762500	0,1	419,447525
1,764167	0,1	423,530359
1,765833	0,1	427,226533
1,767500	0,1	430,547078
1,769167	0,1	433,550402
1,770833	0,1	436,060349
1,772500	0,1	438,269843
1,774167	0,1	440,055032
1,775833	0,1	441,494806
1,777500	0,1	442,599650
1,779167	0,1	443,285156
1,780833	0,1	443,564392
1,782500	0,1	443,546400
1,784167	0,1	443,145832
1,785833	0,1	442,439467
1,787500	0,1	441,311888
1,789167	0,1	439,743170
1,790833	0,1	438,025906
1,792500	0,1	435,987642
1,794167	0,1	433,594743
1,795833	0,1	430,924426
1,797500	0,1	428,015847
1,799167	0,1	424,692936
1,800833	0,1	421,221704
1,802500	0,1	417,505154
1,804167	0,1	413,508309
1,805833	0,1	409,275975
1,807500	0,1	404,816562
1,809167	0,1	400,229448
1,810833	0,1	395,390710
1,812500	0,1	390,402874
1,814167	0,1	385,265485
1,815833	0,1	380,016264
1,817500	0,1	374,513951
1,819167	0,1	368,954269
1,820833	0,1	363,255228
1,822500	0,1	357,423724
1,824167	0,1	351,556354
1,825833	0,1	345,564739
1,827500	0,1	339,528346
1,829167	0,1	333,429673
1,830833	0,1	327,300275
1,832500	0,1	321,120167
1,834167	0,1	314,969922
1,835833	0,1	308,774213
1,837500	0,1	302,555315
1,839167	0,1	296,397097
1,840833	0,1	290,192719
1,842500	0,1	284,040187
1,844167	0,1	277,857908
1,845833	0,1	271,810071
1,847500	0,1	265,746026
1,849167	0,1	259,783781
1,850833	0,1	253,811574
1,852500	0,1	247,931444
1,854167	0,1	242,111739
1,855833	0,1	236,321215
1,857500	0,1	230,723347
1,859167	0,1	225,059582
1,860833	0,1	219,585859
1,862500	0,1	214,156290
1,864167	0,1	208,808887
1,865833	0,1	203,563291
1,867500	0,1	198,444531
1,869167	0,1	193,319500
1,870833	0,1	188,395302
1,872500	0,1	183,450267
1,874167	0,1	178,748618
1,875833	0,1	174,010359
1,877500	0,1	169,467069
1,879167	0,1	164,995643
1,880833	0,1	160,603484
1,882500	0,1	156,311531
1,884167	0,1	152,185264
1,885833	0,1	148,083839
1,887500	0,1	144,083500
1,889167	0,1	140,246147
1,890833	0,1	136,421417
1,892500	0,1	132,756459
1,894167	0,1	129,121411
1,895833	0,1	125,648458
1,897500	0,1	122,254374
1,899167	0,1	118,885159
1,900833	0,1	115,673328
1,902500	0,1	112,506200
1,904167	0,1	109,524678
1,905833	0,1	106,551753
1,907500	0,1	103,586596
1,909167	0,1	100,808067
1,910833	0,1	98,044410
1,912500	0,1	95,385768
1,914167	0,1	92,882598
1,915833	0,1	90,356562
1,917500	0,1	87,938252
1,919167	0,1	85,503009
1,920833	0,1	83,301367
1,922500	0,1	81,037586
1,924167	0,1	78,883213
1,925833	0,1	76,801203
1,927500	0,1	74,797270
1,929167	0,1	72,805605
1,930833	0,1	70,909225
1,932500	0,1	69,084314
1,934167	0,1	67,267892
1,935833	0,1	65,535731
1,937500	0,1	63,832678
1,939167	0,1	62,217351
1,940833	0,1	60,608342
1,942500	0,1	59,062477
1,944167	0,1	57,575027
1,945833	0,1	56,157943
1,947500	0,1	54,771177
1,949167	0,1	53,440854
1,950833	0,1	52,112145
1,952500	0,1	50,846498
1,954167	0,1	49,613480
1,955833	0,1	48,434449
1,957500	0,1	47,266151
1,959167	0,1	46,203269
1,960833	0,1	45,114628
1,962500	0,1	44,108541
1,964167	0,1	43,084363
1,965833	0,1	42,140696
1,967500	0,1	41,134919
1,969167	0,1	40,267836
1,970833	0,1	39,395479
1,972500	0,1	38,579409
1,974167	0,1	37,713476
1,975833	0,1	37,014904
1,977500	0,1	36,180455
1,979167	0,1	35,475770
1,980833	0,1	34,779225
1,982500	0,1	34,110522
1,984167	0,1	33,446515
1,985833	0,1	32,828778
1,987500	0,1	32,220967
1,989167	0,1	31,631024
1,990833	0,1	31,062675
1,992500	0,1	30,474123
1,994167	0,1	29,991190
1,995833	0,1	29,517460
1,997500	0,1	29,010791
1,999167	0,1	28,548762
2,000833	0,1	28,064626
2,002500	0,1	27,647896
2,004167	0,1	27,253740
2,005833	0,1	26,828482
2,007500	0,1	26,443639
2,009167	0,1	26,073057
2,010833	0,1	25,761554
2,012500	0,1	25,365840
2,014167	0,1	25,044727
2,015833	0,1	24,696125
2,017500	0,1	24,404575
2,019167	0,1	24,141003
2,020833	0,1	23,832752
2,022500	0,1	23,565331
2,024167	0,1	23,291160
2,025833	0,1	23,065250
2,027500	0,1	22,810436
2,029167	0,1	22,586904
2,030833	0,1	22,380121
2,032500	0,1	22,133423
2,034167	0,1	21,900068
2,035833	0,1	21,722919
2,037500	0,1	21,554367
2,039167	0,1	21,387016
2,040833	0,1	21,182847
2,042500	0,1	20,987431
2,044167	0,1	20,839808
2,045833	0,1	20,665435
2,047500	0,1	20,516454
2,049167	0,1	20,353774
2,050833	0,1	20,202764
2,052500	0,1	20,071518
2,054167	0,1	19,935487
2,055833	0,1	19,834422
2,057500	0,1	19,717411
2,059167	0,1	19,531821
2,060833	0,1	19,447373
2,062500	0,1	19,344054
2,064167	0,1	19,237481
2,065833	0,1	19,111835
2,067500	0,1	18,981061
2,069167	0,1	18,887506
2,070833	0,1	18,787931
2,072500	0,1	18,696199
2,074167	0,1	18,605885
2,075833	0,1	18,510480
2,077500	0,1	18,371271
2,079167	0,1	18,299797
2,080833	0,1	18,252061
2,082500	0,1	18,170102
2,084167	0,1	18,100013
2,085833	0,1	17,964827
2,087500	0,1	17,916474
2,089167	0,1	17,836783
2,090833	0,1	17,741345
2,092500	0,1	17,647844
2,094167	0,1	17,562709
2,095833	0,1	17,489204
2,097500	0,1	17,439225
2,099167	0,1	17,325121
2,100833	0,1	17,296100
2,102500	0,1	17,236587
2,104167	0,1	17,135458
2,105833	0,1	17,069793
2,107500	0,1	16,966384
2,109167	0,1	16,897918
2,110833	0,1	16,784630
2,112500	0,1	16,744113
2,114167	0,1	16,645357
2,115833	0,1	16,578840
2,117500	0,1	16,594593
2,119167	0,1	16,450515
2,120833	0,1	16,375685
2,122500	0,1	16,304070
2,124167	0,1	16,244260
2,125833	0,1	16,146836
2,127500	0,1	16,057323
2,129167	0,1	15,982176
2,130833	0,1	15,944705
2,132500	0,1	15,870626
2,134167	0,1	15,771547
2,135833	0,1	15,734526
2,137500	0,1	15,609146
2,139167	0,1	15,530202
2,140833	0,1	15,496646
2,142500	0,1	15,405287
2,144167	0,1	15,326079
2,145833	0,1	15,236236
2,147500	0,1	15,140634
2,149167	0,1	15,083239
2,150833	0,1	15,045178
2,152500	0,1	14,924316
2,154167	0,1	14,849193
2,155833	0,1	14,791699
2,157500	0,1	14,685014
2,159167	0,1	14,653537
2,160833	0,1	14,562086
2,162500	0,1	14,498230
2,164167	0,1	14,405334
2,165833	0,1	14,321265
2,167500	0,1	14,263580
2,169167	0,1	14,153688
2,170833	0,1	14,131838
2,172500	0,1	13,987137
2,174167	0,1	13,930906
2,175833	0,1	13,865974
2,177500	0,1	13,768121
2,179167	0,1	13,710920
2,180833	0,1	13,627847
2,182500	0,1	13,535720
2,184167	0,1	13,493083
2,185833	0,1	13,393311
2,187500	0,1	13,314080
2,189167	0,1	13,263330
2,190833	0,1	13,214155
2,192500	0,1	13,087816
2,194167	0,1	13,045888
2,195833	0,1	12,973271
2,197500	0,1	12,861037
2,199167	0,1	12,859645
2,200833	0,1	12,736012
2,202500	0,1	12,695259
2,204167	0,1	12,609932
2,205833	0,1	12,520758
2,207500	0,1	12,450166
2,209167	0,1	12,406480
2,210833	0,1	12,346917
2,212500	0,1	12,263858
2,214167	0,1	12,171493
2,215833	0,1	12,136105
2,217500	0,1	12,077424
2,219167	0,1	12,050245
2,220833	0,1	11,982520
2,222500	0,1	11,894828
2,224167	0,1	11,866470
2,225833	0,1	11,717900
2,227500	0,1	11,701144
2,229167	0,1	11,623994
2,230833	0,1	11,556687
2,232500	0,1	11,534195
2,234167	0,1	11,419501
2,235833	0,1	11,383119
2,237500	0,1	11,330499
2,239167	0,1	11,241050
2,240833	0,1	11,205512
2,242500	0,1	11,135769
2,244167	0,1	11,063148
2,245833	0,1	11,051348
2,247500	0,1	10,956787
2,249167	0,1	10,902460
2,250833	0,1	10,843053
2,252500	0,1	10,805925
2,254167	0,1	10,770559
2,255833	0,1	10,650977
2,257500	0,1	10,654843
2,259167	0,1	10,595387
2,260833	0,1	10,549879
2,262500	0,1	10,508933
2,264167	0,1	10,427143
2,265833	0,1	10,414988
2,267500	0,1	10,367448
2,269167	0,1	10,306029
2,270833	0,1	10,249121
2,272500	0,1	10,190723
2,274167	0,1	10,143087
2,275833	0,1	10,123287
2,277500	0,1	10,079749
2,279167	0,1	10,039945
2,280833	0,1	9,989097
2,282500	0,1	9,965290
2,284167	0,1	9,925012
2,285833	0,1	9,839136
2,287500	0,1	9,791274
2,289167	0,1	9,764625
2,290833	0,1	9,729634
2,292500	0,1	9,686463
2,294167	0,1	9,612654
2,295833	0,1	9,585293
2,297500	0,1	9,548889
2,299167	0,1	9,516172
2,300833	0,1	9,484489
2,302500	0,1	9,449417
2,304167	0,1	9,429536
2,305833	0,1	9,340249
2,307500	0,1	9,296882
2,309167	0,1	9,299516
2,310833	0,1	9,205584
2,312500	0,1	9,218895
2,314167	0,1	9,182375
2,315833	0,1	9,156864
2,317500	0,1	9,103766
2,319167	0,1	9,123389
2,320833	0,1	9,059119
2,322500	0,1	9,039534
2,324167	0,1	8,974163
2,325833	0,1	8,948152
2,327500	0,1	8,956441
2,329167	0,1	8,895969
2,330833	0,1	8,881845
2,332500	0,1	8,847660
2,334167	0,1	8,858091
2,335833	0,1	8,824619
2,337500	0,1	8,788141
2,339167	0,1	8,757082
2,340833	0,1	8,691588
2,342500	0,1	8,694256
2,344167	0,1	8,708575
2,345833	0,1	8,655090
2,347500	0,1	8,649580
2,349167	0,1	8,613348
2,350833	0,1	8,628050
2,352500	0,1	8,605599
2,354167	0,1	8,568239
2,355833	0,1	8,592468
2,357500	0,1	8,585110
2,359167	0,1	8,546636
2,360833	0,1	8,548158
2,362500	0,1	8,562788
2,364167	0,1	8,590256
2,365833	0,1	8,544291
2,367500	0,1	8,591491
2,369167	0,1	8,590509
2,370833	0,1	8,582307
2,372500	0,1	8,613476
2,374167	0,1	8,618771
2,375833	0,1	8,627603
2,377500	0,1	8,660672
2,379167	0,1	8,717339
2,380833	0,1	8,692131
2,382500	0,1	8,725052
2,384167	0,1	8,787589
2,385833	0,1	8,867836
2,387500	0,1	8,875006
2,389167	0,1	8,930449
2,390833	0,1	8,982922
2,392500	0,1	9,029921
2,394167	0,1	9,084805
2,395833	0,1	9,140694
2,397500	0,1	9,259825
2,399167	0,1	9,299819
2,400833	0,1	9,373859
2,402500	0,1	9,421005
2,404167	0,1	9,546161
2,405833	0,1	9,601805
2,407500	0,1	9,714218
2,409167	0,1	9,812062
2,410833	0,1	9,878991
2,412500	0,1	9,988621
2,414167	0,1	10,084598
2,415833	0,1	10,196049
2,417500	0,1	10,259363
2,419167	0,1	10,385197
2,420833	0,1	10,484175
2,422500	0,1	10,623125
2,424167	0,1	10,702091
2,425833	0,1	10,782223
2,427500	0,1	10,951332
2,429167	0,1	11,028260
2,430833	0,1	11,148869
2,432500	0,1	11,235171
2,434167	0,1	11,352375
2,435833	0,1	11,450275
2,437500	0,1	11,555548
2,439167	0,1	11,637998
2,440833	0,1	11,803085
2,442500	0,1	11,832349
2,444167	0,1	11,978096
2,445833	0,1	12,019835
2,447500	0,1	12,089866
2,449167	0,1	12,189224
2,450833	0,1	12,275930
2,452500	0,1	12,358455
2,454167	0,1	12,408228
2,455833	0,1	12,477451
2,457500	0,1	12,569415
2,459167	0,1	12,594990
2,460833	0,1	12,653083
2,462500	0,1	12,709513
2,464167	0,1	12,700659
2,465833	0,1	12,775217
2,467500	0,1	12,751085
2,469167	0,1	12,791067
2,470833	0,1	12,821875
2,472500	0,1	12,868011
2,474167	0,1	12,853733
2,475833	0,1	12,838047
2,477500	0,1	12,852003
2,479167	0,1	12,815165
2,480833	0,1	12,817418
2,482500	0,1	12,808484
2,484167	0,1	12,782161
2,485833	0,1	12,731525
2,487500	0,1	12,738466
2,489167	0,1	12,659260
2,490833	0,1	12,619409
2,492500	0,1	12,616991
2,494167	0,1	12,596574
2,495833	0,1	12,511786
2,497500	0,1	12,500174
2,499167	0,1	12,423192
2,500833	0,1	12,377621
2,502500	0,1	12,320484
2,504167	0,1	12,259511
2,505833	0,1	12,172611
2,507500	0,1	12,118818
2,509167	0,1	12,042726
2,510833	0,1	11,997568
2,512500	0,1	11,938905
2,514167	0,1	11,864049
2,515833	0,1	11,742550
2,517500	0,1	11,747493
2,519167	0,1	11,631884
2,520833	0,1	11,563024
2,522500	0,1	11,475305
2,524167	0,1	11,431273
2,525833	0,1	11,314252
2,527500	0,1	11,265554
2,529167	0,1	11,160438
2,530833	0,1	11,073341
2,532500	0,1	11,016830
2,534167	0,1	10,851469
2,535833	0,1	10,846085
2,537500	0,1	10,731939
2,539167	0,1	10,625621
2,540833	0,1	10,523476
2,542500	0,1	10,481040
2,544167	0,1	10,367706
2,545833	0,1	10,270461
2,547500	0,1	10,160184
2,549167	0,1	10,075698
2,550833	0,1	10,019611
2,552500	0,1	9,932393
2,554167	0,1	9,880394
2,555833	0,1	9,793428
2,557500	0,1	9,679228
2,559167	0,1	9,614520
2,560833	0,1	9,564661
2,562500	0,1	9,431423
2,564167	0,1	9,302555
2,565833	0,1	9,303949
2,567500	0,1	9,220154
2,569167	0,1	9,088816
2,570833	0,1	9,023668
2,572500	0,1	8,922910
2,574167	0,1	8,829532
2,575833	0,1	8,738695
2,577500	0,1	8,690991
2,579167	0,1	8,634364
2,580833	0,1	8,510373
2,582500	0,1	8,449121
2,584167	0,1	8,365632
2,585833	0,1	8,317000
2,587500	0,1	8,239379
2,589167	0,1	8,177394
2,590833	0,1	8,079824
2,592500	0,1	8,003536
2,594167	0,1	7,965651
2,595833	0,1	7,882967
2,597500	0,1	7,806683
2,599167	0,1	7,754357
2,600833	0,1	7,689679
2,602500	0,1	7,623143
2,604167	0,1	7,558205
2,605833	0,1	7,475732
2,607500	0,1	7,388726
2,609167	0,1	7,341872
2,610833	0,1	7,290958
2,612500	0,1	7,242438
2,614167	0,1	7,165424
2,615833	0,1	7,098572
2,617500	0,1	7,048052
2,619167	0,1	6,974955
2,620833	0,1	6,926189
2,622500	0,1	6,859213
2,624167	0,1	6,796268
2,625833	0,1	6,777913
2,627500	0,1	6,726501
2,629167	0,1	6,667493
2,630833	0,1	6,610071
2,632500	0,1	6,565368
2,634167	0,1	6,504419
2,635833	0,1	6,396792
2,637500	0,1	6,371907
2,639167	0,1	6,322669
2,640833	0,1	6,280254
2,642500	0,1	6,265761
2,644167	0,1	6,182834
2,645833	0,1	6,157974
2,647500	0,1	6,087012
2,649167	0,1	6,054694
2,650833	0,1	6,028363
2,652500	0,1	5,956668
2,654167	0,1	5,925668
2,655833	0,1	5,895709
2,657500	0,1	5,823846
2,659167	0,1	5,817766
2,660833	0,1	5,800140
2,662500	0,1	5,704047
2,664167	0,1	5,653555
2,665833	0,1	5,620340
2,667500	0,1	5,639341
2,669167	0,1	5,591622
2,670833	0,1	5,530709
2,672500	0,1	5,488189
2,674167	0,1	5,434015
2,675833	0,1	5,359318
2,677500	0,1	5,389052
2,679167	0,1	5,362231
2,680833	0,1	5,289137
2,682500	0,1	5,301075
2,684167	0,1	5,214737
2,685833	0,1	5,225473
2,687500	0,1	5,180308
2,689167	0,1	5,121818
2,690833	0,1	5,147220
2,692500	0,1	5,089165
2,694167	0,1	5,062136
2,695833	0,1	5,033710
2,697500	0,1	5,051974
2,699167	0,1	4,997781
2,700833	0,1	4,939491
2,702500	0,1	4,957041
2,704167	0,1	4,907246
2,705833	0,1	4,880777
2,707500	0,1	4,852290
2,709167	0,1	4,837315
2,710833	0,1	4,800889
2,712500	0,1	4,815954
2,714167	0,1	4,763766
2,715833	0,1	4,761643
2,717500	0,1	4,722837
2,719167	0,1	4,739093
2,720833	0,1	4,710542
2,722500	0,1	4,695901
2,724167	0,1	4,649539
2,725833	0,1	4,653784
2,727500	0,1	4,607564
2,729167	0,1	4,595373
2,730833	0,1	4,591701
2,732500	0,1	4,556446
2,734167	0,1	4,500151
2,735833	0,1	4,552343
2,737500	0,1	4,548362
2,739167	0,1	4,486722
2,740833	0,1	4,523059
2,742500	0,1	4,495783
2,744167	0,1	4,441108
2,745833	0,1	4,454142
2,747500	0,1	4,444747
2,749167	0,1	4,435187
2,750833	0,1	4,448404
2,752500	0,1	4,423948
2,754167	0,1	4,401749
2,755833	0,1	4,377572
2,757500	0,1	4,430775
2,759167	0,1	4,363088
2,760833	0,1	4,412458
2,762500	0,1	4,416056
2,764167	0,1	4,400496
2,765833	0,1	4,385185
2,767500	0,1	4,373577
2,769167	0,1	4,344170
2,770833	0,1	4,330608
2,772500	0,1	4,319736
2,774167	0,1	4,312068
2,775833	0,1	4,313678
2,777500	0,1	4,313849
2,779167	0,1	4,320383
2,780833	0,1	4,278677
2,782500	0,1	4,276204
2,784167	0,1	4,304188
2,785833	0,1	4,307246
2,787500	0,1	4,268771
2,789167	0,1	4,277844
2,790833	0,1	4,255719
2,792500	0,1	4,227307
2,794167	0,1	4,263261
2,795833	0,1	4,241540
2,797500	0,1	4,230926
2,799167	0,1	4,250812
2,800833	0,1	4,245131
2,802500	0,1	4,246401
2,804167	0,1	4,172252
2,805833	0,1	4,173535
2,807500	0,1	4,170001
2,809167	0,1	4,174836
2,810833	0,1	4,186803
2,812500	0,1	4,168195
2,814167	0,1	4,134895
2,815833	0,1	4,135056
2,817500	0,1	4,109825
2,819167	0,1	4,101192
2,820833	0,1	4,119068
2,822500	0,1	4,114265
2,824167	0,1	4,108831
2,825833	0,1	4,067848
2,827500	0,1	4,076463
2,829167	0,1	4,076096
2,830833	0,1	4,056581
2,832500	0,1	4,025326
2,834167	0,1	4,072012
2,835833	0,1	4,011020
2,837500	0,1	4,028260
2,839167	0,1	3,992996
2,840833	0,1	3,983799
2,842500	0,1	3,997454
2,844167	0,1	3,972673
2,845833	0,1	3,967032
2,847500	0,1	3,966381
2,849167	0,1	3,965646
2,850833	0,1	3,964094
2,852500	0,1	3,926114
2,854167	0,1	3,912481
2,855833	0,1	3,886385
2,857500	0,1	3,864474
2,859167	0,1	3,847697
2,860833	0,1	3,851894
2,862500	0,1	3,817589
2,864167	0,1	3,841902
2,865833	0,1	3,799369
2,867500	0,1	3,786773
2,869167	0,1	3,793837
2,870833	0,1	3,782055
2,872500	0,1	3,765281
2,874167	0,1	3,779246
2,875833	0,1	3,719130
2,877500	0,1	3,752620
2,879167	0,1	3,676183
2,880833	0,1	3,715348
2,882500	0,1	3,684385
2,884167	0,1	3,640827
2,885833	0,1	3,658809
2,887500	0,1	3,602654
2,889167	0,1	3,659415
2,890833	0,1	3,579262
2,892500	0,1	3,606159
2,894167	0,1	3,577458
2,895833	0,1	3,576920
2,897500	0,1	3,551298
2,899167	0,1	3,550603
2,900833	0,1	3,540371
2,902500	0,1	3,520182
2,904167	0,1	3,461069
2,905833	0,1	3,477778
2,907500	0,1	3,476078
2,909167	0,1	3,437713
2,910833	0,1	3,464944
2,912500	0,1	3,431418
2,914167	0,1	3,434740
2,915833	0,1	3,362849
2,917500	0,1	3,413328
2,919167	0,1	3,355295
2,920833	0,1	3,379920
2,922500	0,1	3,305733
2,924167	0,1	3,286596
2,925833	0,1	3,276979
2,927500	0,1	3,298603
2,929167	0,1	3,268130
2,930833	0,1	3,253235
2,932500	0,1	3,259075
2,934167	0,1	3,257817
2,935833	0,1	3,219875
2,937500	0,1	3,212838
2,939167	0,1	3,194430
2,940833	0,1	3,165864
2,942500	0,1	3,160095
2,944167	0,1	3,155104
2,945833	0,1	3,121138
2,947500	0,1	3,150019
2,949167	0,1	3,131494
2,950833	0,1	3,104347
2,952500	0,1	3,107539
2,954167	0,1	3,065593
2,955833	0,1	3,039465
2,957500	0,1	3,058768
2,959167	0,1	3,056576
2,960833	0,1	3,038941
2,962500	0,1	3,012092
2,964167	0,1	3,008794
2,965833	0,1	3,012973
2,967500	0,1	3,030255
2,969167	0,1	3,025558
2,970833	0,1	2,955228
2,972500	0,1	2,947392
2,974167	0,1	2,925728
2,975833	0,1	2,933715
2,977500	0,1	2,899079
2,979167	0,1	2,884434
2,980833	0,1	2,888892
2,982500	0,1	2,931964
2,984167	0,1	2,850917
2,985833	0,1	2,872874
2,987500	0,1	2,896612
2,989167	0,1	2,853582
2,990833	0,1	2,830614
2,992500	0,1	2,858756
2,994167	0,1	2,842407
2,995833	0,1	2,825363
2,997500	0,1	2,779152
2,999167	0,1	2,802439
3,000833	0,1	2,827838
3,002500	0,1	2,802765
3,004167	0,1	2,765534
3,005833	0,1	2,714836
3,007500	0,1	2,750796
3,009167	0,1	2,708577
3,010833	0,1	2,753262
3,012500	0,1	2,763471
3,014167	0,1	2,706585
3,015833	0,1	2,709970
3,017500	0,1	2,712927
3,019167	0,1	2,681983
3,020833	0,1	2,683662
3,022500	0,1	2,688670
3,024167	0,1	2,651737
3,025833	0,1	2,653206
3,027500	0,1	2,639074
3,029167	0,1	2,632820
3,030833	0,1	2,627813
3,032500	0,1	2,616663
3,034167	0,1	2,617956
3,035833	0,1	2,647753
3,037500	0,1	2,589439
3,039167	0,1	2,592562
3,040833	0,1	2,583150
3,042500	0,1	2,602103
3,044167	0,1	2,581595
3,045833	0,1	2,590720
3,047500	0,1	2,580039
3,049167	0,1	2,577806
3,050833	0,1	2,583041
3,052500	0,1	2,552967
3,054167	0,1	2,539970
3,055833	0,1	2,559855
3,057500	0,1	2,527318
3,059167	0,1	2,551554
3,060833	0,1	2,528951
3,062500	0,1	2,515021
3,064167	0,1	2,533789
3,065833	0,1	2,508540
3,067500	0,1	2,529096
3,069167	0,1	2,483941
3,070833	0,1	2,496939
3,072500	0,1	2,493677
3,074167	0,1	2,506454
3,075833	0,1	2,478874
3,077500	0,1	2,467849
3,079167	0,1	2,505907
3,080833	0,1	2,523935
3,082500	0,1	2,521763
3,084167	0,1	2,504624
3,085833	0,1	2,525415
3,087500	0,1	2,531040
3,089167	0,1	2,516477
3,090833	0,1	2,527053
3,092500	0,1	2,528971
3,094167	0,1	2,558140
3,095833	0,1	2,528687
3,097500	0,1	2,530968
3,099167	0,1	2,551942
3,100833	0,1	2,578525
3,102500	0,1	2,532431
3,104167	0,1	2,543155
3,105833	0,1	2,577069
3,107500	0,1	2,602567
3,109167	0,1	2,612014
3,110833	0,1	2,626201
3,112500	0,1	2,652321
3,114167	0,1	2,634379
3,115833	0,1	2,673017
3,117500	0,1	2,671731
3,119167	0,1	2,710167
3,120833	0,1	2,723201
3,122500	0,1	2,719756
3,124167	0,1	2,731421
3,125833	0,1	2,799263
3,127500	0,1	2,760031
3,129167	0,1	2,789985
3,130833	0,1	2,801018
3,132500	0,1	2,819288
3,134167	0,1	2,850557
3,135833	0,1	2,833668
3,137500	0,1	2,876380
3,139167	0,1	2,923734
3,140833	0,1	2,937970
3,142500	0,1	2,917262
3,144167	0,1	2,974857
3,145833	0,1	2,959378
3,147500	0,1	3,056563
3,149167	0,1	3,041330
3,150833	0,1	3,051061
3,152500	0,1	3,083149
3,154167	0,1	3,119583
3,155833	0,1	3,137037
3,157500	0,1	3,145639
3,159167	0,1	3,144263
3,160833	0,1	3,194449
3,162500	0,1	3,215440
3,164167	0,1	3,239422
3,165833	0,1	3,209564
3,167500	0,1	3,238328
3,169167	0,1	3,259599
3,170833	0,1	3,267025
3,172500	0,1	3,296734
3,174167	0,1	3,299950
3,175833	0,1	3,361600
3,177500	0,1	3,363806
3,179167	0,1	3,354308
3,180833	0,1	3,345337
3,182500	0,1	3,346106
3,184167	0,1	3,379836
3,185833	0,1	3,403914
3,187500	0,1	3,376928
3,189167	0,1	3,396201
3,190833	0,1	3,398235
3,192500	0,1	3,398723
3,194167	0,1	3,395556
3,195833	0,1	3,404811
3,197500	0,1	3,375100
3,199167	0,1	3,398434
3,200833	0,1	3,404610
3,202500	0,1	3,408954
3,204167	0,1	3,390973
3,205833	0,1	3,392350
3,207500	0,1	3,387437
3,209167	0,1	3,404201
3,210833	0,1	3,385085
3,212500	0,1	3,393241
3,214167	0,1	3,378020
3,215833	0,1	3,393564
3,217500	0,1	3,368765
3,219167	0,1	3,357395
3,220833	0,1	3,360396
3,222500	0,1	3,349073
3,224167	0,1	3,345213
3,225833	0,1	3,322565
3,227500	0,1	3,311280
3,229167	0,1	3,295650
3,230833	0,1	3,287246
3,232500	0,1	3,287368
3,234167	0,1	3,268942
3,235833	0,1	3,217436
3,237500	0,1	3,269043
3,239167	0,1	3,227915
3,240833	0,1	3,204567
3,242500	0,1	3,185333
3,244167	0,1	3,194780
3,245833	0,1	3,156891
3,247500	0,1	3,148160
3,249167	0,1	3,131033
3,250833	0,1	3,105439
3,252500	0,1	3,121864
3,254167	0,1	3,060655
3,255833	0,1	3,037712
3,257500	0,1	3,032049
3,259167	0,1	3,029974
3,260833	0,1	3,004132
3,262500	0,1	2,976601
3,264167	0,1	2,996994
3,265833	0,1	2,933638
3,267500	0,1	2,940394
3,269167	0,1	2,951599
3,270833	0,1	2,894638
3,272500	0,1	2,923485
3,274167	0,1	2,902907
3,275833	0,1	2,856118
3,277500	0,1	2,840077
3,279167	0,1	2,856368
3,280833	0,1	2,792131
3,282500	0,1	2,786228
3,284167	0,1	2,761633
3,285833	0,1	2,748948
3,287500	0,1	2,730552
3,289167	0,1	2,695189
3,290833	0,1	2,699798
3,292500	0,1	2,695445
3,294167	0,1	2,685221
3,295833	0,1	2,680757
3,297500	0,1	2,641337
3,299167	0,1	2,614046
3,300833	0,1	2,595550
3,302500	0,1	2,546744
3,304167	0,1	2,554172
3,305833	0,1	2,532141
3,307500	0,1	2,491139
3,309167	0,1	2,505860
3,310833	0,1	2,508040
3,312500	0,1	2,467054
3,314167	0,1	2,433135
3,315833	0,1	2,452053
3,317500	0,1	2,433726
3,319167	0,1	2,409040
3,320833	0,1	2,410056
3,322500	0,1	2,416636
3,324167	0,1	2,364074
3,325833	0,1	2,373264
3,327500	0,1	2,351600
3,329167	0,1	2,330575
3,330833	0,1	2,303741
3,332500	0,1	2,342130
3,334167	0,1	2,292426
3,335833	0,1	2,265950
3,337500	0,1	2,286043
3,339167	0,1	2,286505
3,340833	0,1	2,277855
3,342500	0,1	2,260515
3,344167	0,1	2,244680
3,345833	0,1	2,209336
3,347500	0,1	2,258327
3,349167	0,1	2,218542
3,350833	0,1	2,172412
3,352500	0,1	2,205432
3,354167	0,1	2,195456
3,355833	0,1	2,185663
3,357500	0,1	2,158955
3,359167	0,1	2,162894
3,360833	0,1	2,130170
3,362500	0,1	2,154275
3,364167	0,1	2,132715
3,365833	0,1	2,147167
3,367500	0,1	2,125751
3,369167	0,1	2,152104
3,370833	0,1	2,112741
3,372500	0,1	2,138695
3,374167	0,1	2,131729
3,375833	0,1	2,070873
3,377500	0,1	2,113128
3,379167	0,1	2,092524
3,380833	0,1	2,067821
3,382500	0,1	2,036557
3,384167	0,1	2,054453
3,385833	0,1	2,065027
3,387500	0,1	2,068825
3,389167	0,1	2,055455
3,390833	0,1	2,079830
3,392500	0,1	2,052145
3,394167	0,1	2,031345
3,395833	0,1	2,048399
3,397500	0,1	2,053161
3,399167	0,1	2,050196
3,400833	0,1	2,033074
3,402500	0,1	1,995548
3,404167	0,1	2,000193
3,405833	0,1	2,067724
3,407500	0,1	2,000238
3,409167	0,1	2,016501
3,410833	0,1	2,019110
3,412500	0,1	1,969685
3,414167	0,1	2,027153
3,415833	0,1	1,985958
3,417500	0,1	2,014524
3,419167	0,1	1,988185
3,420833	0,1	1,979912
3,422500	0,1	1,965070
3,424167	0,1	1,980977
3,425833	0,1	1,997300
3,427500	0,1	1,969692
3,429167	0,1	1,968678
3,430833	0,1	1,958818
3,432500	0,1	1,952193
3,434167	0,1	1,917324
3,435833	0,1	1,951547
3,437500	0,1	1,938385
3,439167	0,1	1,921055
3,440833	0,1	1,923653
3,442500	0,1	1,959829
3,444167	0,1	1,963647
3,445833	0,1	1,908204
3,447500	0,1	1,926450
3,449167	0,1	1,915440
3,450833	0,1	1,908054
3,452500	0,1	1,871880
3,454167	0,1	1,913211
3,455833	0,1	1,928257
3,457500	0,1	1,879144
3,459167	0,1	1,925063
3,460833	0,1	1,880214
3,462500	0,1	1,916311
3,464167	0,1	1,910408
3,465833	0,1	1,892620
3,467500	0,1	1,903992
3,469167	0,1	1,868209
3,470833	0,1	1,897015
3,472500	0,1	1,850000
3,474167	0,1	1,849713
3,475833	0,1	1,838838
3,477500	0,1	1,838040
3,479167	0,1	1,822583
3,480833	0,1	1,826824
3,482500	0,1	1,823174
3,484167	0,1	1,843575
3,485833	0,1	1,790599
3,487500	0,1	1,827101
3,489167	0,1	1,825243
3,490833	0,1	1,805404
3,492500	0,1	1,839973
3,494167	0,1	1,828048
3,495833	0,1	1,789367
3,497500	0,1	1,821075
3,499167	0,1	1,786914
3,500833	0,1	1,796464
3,502500	0,1	1,778275
3,504167	0,1	1,747020
3,505833	0,1	1,786822
3,507500	0,1	1,810848
3,509167	0,1	1,804967
3,510833	0,1	1,782529
3,512500	0,1	1,790437
3,514167	0,1	1,774605
3,515833	0,1	1,749034
3,517500	0,1	1,738158
3,519167	0,1	1,745143
3,520833	0,1	1,741614
3,522500	0,1	1,750246
3,524167	0,1	1,777257
3,525833	0,1	1,727036
3,527500	0,1	1,683104
3,529167	0,1	1,705948
3,530833	0,1	1,751447
3,532500	0,1	1,768133
3,534167	0,1	1,684334
3,535833	0,1	1,746987
3,537500	0,1	1,745626
3,539167	0,1	1,710991
3,540833	0,1	1,719387
3,542500	0,1	1,684960
3,544167	0,1	1,663259
3,545833	0,1	1,719449
3,547500	0,1	1,727307
3,549167	0,1	1,679434
3,550833	0,1	1,661662
3,552500	0,1	1,687460
3,554167	0,1	1,675831
3,555833	0,1	1,647003
3,557500	0,1	1,667402
3,559167	0,1	1,665902
3,560833	0,1	1,657777
3,562500	0,1	1,664876
3,564167	0,1	1,658571
3,565833	0,1	1,652609
3,567500	0,1	1,645845
3,569167	0,1	1,628938
3,570833	0,1	1,679263
3,572500	0,1	1,607753
3,574167	0,1	1,628442
3,575833	0,1	1,606106
3,577500	0,1	1,635696
3,579167	0,1	1,626574
3,580833	0,1	1,563907
3,582500	0,1	1,578913
3,584167	0,1	1,619311
3,585833	0,1	1,576273
3,587500	0,1	1,591847
3,589167	0,1	1,590843
3,590833	0,1	1,581934
3,592500	0,1	1,570009
3,594167	0,1	1,600978
3,595833	0,1	1,624266
3,597500	0,1	1,599112
3,599167	0,1	1,558726
3,600833	0,1	1,518490
3,602500	0,1	1,573589
3,604167	0,1	1,607142
3,605833	0,1	1,566207
3,607500	0,1	1,549232
3,609167	0,1	1,523433
3,610833	0,1	1,538301
3,612500	0,1	1,563308
3,614167	0,1	1,526889
3,615833	0,1	1,574596
3,617500	0,1	1,541401
3,619167	0,1	1,529252
3,620833	0,1	1,529905
3,622500	0,1	1,543841
3,624167	0,1	1,524583
3,625833	0,1	1,545697
3,627500	0,1	1,490599
3,629167	0,1	1,489869
3,630833	0,1	1,475279
3,632500	0,1	1,478870
3,634167	0,1	1,491585
3,635833	0,1	1,466733
3,637500	0,1	1,462702
3,639167	0,1	1,503296
3,640833	0,1	1,532967
3,642500	0,1	1,472485
3,644167	0,1	1,458965
3,645833	0,1	1,450270
3,647500	0,1	1,461260
3,649167	0,1	1,440718
3,650833	0,1	1,457807
3,652500	0,1	1,459613
3,654167	0,1	1,480232
3,655833	0,1	1,419386
3,657500	0,1	1,445735
3,659167	0,1	1,423326
3,660833	0,1	1,457224
3,662500	0,1	1,444952
3,664167	0,1	1,425843
3,665833	0,1	1,428281
3,667500	0,1	1,467147
3,669167	0,1	1,421830
3,670833	0,1	1,447030
3,672500	0,1	1,430226
3,674167	0,1	1,460252
3,675833	0,1	1,443589
3,677500	0,1	1,393087
3,679167	0,1	1,418001
3,680833	0,1	1,408594
3,682500	0,1	1,411535
3,684167	0,1	1,422024
3,685833	0,1	1,391645
3,687500	0,1	1,416278
3,689167	0,1	1,401268
3,690833	0,1	1,391499
3,692500	0,1	1,362907
3,694167	0,1	1,402408
3,695833	0,1	1,377779
3,697500	0,1	1,371161
3,699167	0,1	1,440333
3,700833	0,1	1,343742
3,702500	0,1	1,353701
3,704167	0,1	1,333306
3,705833	0,1	1,415328
3,707500	0,1	1,378139
3,709167	0,1	1,400613
3,710833	0,1	1,375836
3,712500	0,1	1,338122
3,714167	0,1	1,348023
3,715833	0,1	1,363615
3,717500	0,1	1,365772
3,719167	0,1	1,378915
3,720833	0,1	1,375476
3,722500	0,1	1,429127
3,724167	0,1	1,356016
3,725833	0,1	1,371086
3,727500	0,1	1,320954
3,729167	0,1	1,389324
3,730833	0,1	1,338628
3,732500	0,1	1,389541
3,734167	0,1	1,374251
3,735833	0,1	1,394075
3,737500	0,1	1,374538
3,739167	0,1	1,406499
3,740833	0,1	1,349910
3,742500	0,1	1,386885
3,744167	0,1	1,391773
3,745833	0,1	1,367577
3,747500	0,1	1,389331
3,749167	0,1	1,385173
3,750833	0,1	1,390412
3,752500	0,1	1,399102
3,754167	0,1	1,377630
3,755833	0,1	1,395296
3,757500	0,1	1,400971
3,759167	0,1	1,380646
3,760833	0,1	1,401044
3,762500	0,1	1,393290
3,764167	0,1	1,338987
3,765833	0,1	1,362389
3,767500	0,1	1,349469
3,769167	0,1	1,378340
3,770833	0,1	1,386318
3,772500	0,1	1,373535
3,774167	0,1	1,395440
3,775833	0,1	1,374614
3,777500	0,1	1,394650
3,779167	0,1	1,350767
3,780833	0,1	1,390118
3,782500	0,1	1,391998
3,784167	0,1	1,358956
3,785833	0,1	1,396870
3,787500	0,1	1,389125
3,789167	0,1	1,402193
3,790833	0,1	1,378494
3,792500	0,1	1,389626
3,794167	0,1	1,405647
3,795833	0,1	1,388120
3,797500	0,1	1,405141
3,799167	0,1	1,383165
3,800833	0,1	1,419721
3,802500	0,1	1,386686
3,804167	0,1	1,431219
3,805833	0,1	1,392438
3,807500	0,1	1,404134
3,809167	0,1	1,416637
3,810833	0,1	1,366575
3,812500	0,1	1,356725
3,814167	0,1	1,429123
3,815833	0,1	1,370960
3,817500	0,1	1,411457
3,819167	0,1	1,408881
3,820833	0,1	1,397392
3,822500	0,1	1,408163
3,824167	0,1	1,425691
3,825833	0,1	1,371103
3,827500	0,1	1,379710
3,829167	0,1	1,375899
3,830833	0,1	1,379495
3,832500	0,1	1,376119
3,834167	0,1	1,388257
3,835833	0,1	1,391279
3,837500	0,1	1,364128
3,839167	0,1	1,393996
3,840833	0,1	1,348397
3,842500	0,1	1,441839
3,844167	0,1	1,412841
3,845833	0,1	1,384029
3,847500	0,1	1,384380
3,849167	0,1	1,399036
3,850833	0,1	1,366929
3,852500	0,1	1,333163
3,854167	0,1	1,379987
3,855833	0,1	1,374325
3,857500	0,1	1,327421
3,859167	0,1	1,353697
3,860833	0,1	1,363542
3,862500	0,1	1,389908
3,864167	0,1	1,337191
3,865833	0,1	1,380562
3,867500	0,1	1,387896
3,869167	0,1	1,365847
3,870833	0,1	1,357582
3,872500	0,1	1,346017
3,874167	0,1	1,284680
3,875833	0,1	1,310520
3,877500	0,1	1,294439
3,879167	0,1	1,343488
3,880833	0,1	1,341633
3,882500	0,1	1,332006
3,884167	0,1	1,305864
3,885833	0,1	1,304994
3,887500	0,1	1,326326
3,889167	0,1	1,287549
3,890833	0,1	1,297737
3,892500	0,1	1,310309
3,894167	0,1	1,297598
3,895833	0,1	1,316699
3,897500	0,1	1,298607
3,899167	0,1	1,297382
3,900833	0,1	1,303557
3,902500	0,1	1,306933
3,904167	0,1	1,254725
3,905833	0,1	1,274677
3,907500	0,1	1,281433
3,909167	0,1	1,245959
3,910833	0,1	1,264263
3,912500	0,1	1,265416
3,914167	0,1	1,256798
3,915833	0,1	1,266563
3,917500	0,1	1,249689
3,919167	0,1	1,259309
3,920833	0,1	1,218524
3,922500	0,1	1,285440
3,924167	0,1	1,235189
3,925833	0,1	1,268711
3,927500	0,1	1,249475
3,929167	0,1	1,261390
3,930833	0,1	1,209046
3,932500	0,1	1,216428
3,934167	0,1	1,215068
3,935833	0,1	1,233160
3,937500	0,1	1,205090
3,939167	0,1	1,223535
3,940833	0,1	1,205016
3,942500	0,1	1,196036
3,944167	0,1	1,215275
3,945833	0,1	1,216429
3,947500	0,1	1,232516
3,949167	0,1	1,175792
3,950833	0,1	1,234086
3,952500	0,1	1,165455
3,954167	0,1	1,229127
3,955833	0,1	1,166746
3,957500	0,1	1,155394
3,959167	0,1	1,196960
3,960833	0,1	1,166884
3,962500	0,1	1,194449
3,964167	0,1	1,162936
3,965833	0,1	1,210532
3,967500	0,1	1,173850
3,969167	0,1	1,187411
3,970833	0,1	1,187564
3,972500	0,1	1,184476
3,974167	0,1	1,193236
3,975833	0,1	1,180311
3,977500	0,1	1,184613
3,979167	0,1	1,146710
3,980833	0,1	1,149645
3,982500	0,1	1,164432
3,984167	0,1	1,115826
3,985833	0,1	1,179718
3,987500	0,1	1,122441
3,989167	0,1	1,166368
3,990833	0,1	1,126463
3,992500	0,1	1,178856
3,994167	0,1	1,166021
3,995833	0,1	1,121288
3,997500	0,1	1,132480
3,999167	0,1	1,148493
4,000833	0,1	1,127026
4,002500	0,1	1,142529
4,004167	0,1	1,144618
4,005833	0,1	1,116552
4,007500	0,1	1,170957
4,009167	0,1	1,140459
4,010833	0,1	1,133278
4,012500	0,1	1,131256
4,014167	0,1	1,152583
4,015833	0,1	1,113958
4,017500	0,1	1,182952
4,019167	0,1	1,162145
4,020833	0,1	1,171039
4,022500	0,1	1,159557
4,024167	0,1	1,131836
4,025833	0,1	1,153372
4,027500	0,1	1,149714
4,029167	0,1	1,152658
4,030833	0,1	1,119347
4,032500	0,1	1,174839
4,034167	0,1	1,188921
4,035833	0,1	1,190652
4,037500	0,1	1,150943
4,039167	0,1	1,142321
4,040833	0,1	1,172763
4,042500	0,1	1,187057
4,044167	0,1	1,175359
4,045833	0,1	1,196679
4,047500	0,1	1,182611
4,049167	0,1	1,172484
4,050833	0,1	1,193301
4,052500	0,1	1,163150
4,054167	0,1	1,198254
4,055833	0,1	1,203935
4,057500	0,1	1,210687
4,059167	0,1	1,217005
4,060833	0,1	1,177946
4,062500	0,1	1,230425
4,064167	0,1	1,210116
4,065833	0,1	1,212622
4,067500	0,1	1,242641
4,069167	0,1	1,270941
4,070833	0,1	1,233820
4,072500	0,1	1,243505
4,074167	0,1	1,241427
4,075833	0,1	1,274028
4,077500	0,1	1,265776
4,079167	0,1	1,266564
4,080833	0,1	1,263979
4,082500	0,1	1,283655
4,084167	0,1	1,260681
4,085833	0,1	1,288826
4,087500	0,1	1,299891
4,089167	0,1	1,337888
4,090833	0,1	1,284177
4,092500	0,1	1,307431
4,094167	0,1	1,344065
4,095833	0,1	1,354131
4,097500	0,1	1,347455
4,099167	0,1	1,363826
4,100833	0,1	1,385448
4,102500	0,1	1,390127
4,104167	0,1	1,361972
4,105833	0,1	1,404489
4,107500	0,1	1,396306
4,109167	0,1	1,434595
4,110833	0,1	1,414561
4,112500	0,1	1,365929
4,114167	0,1	1,435166
4,115833	0,1	1,471314
4,117500	0,1	1,486919
4,119167	0,1	1,462635
4,120833	0,1	1,456383
4,122500	0,1	1,495104
4,124167	0,1	1,473275
4,125833	0,1	1,508396
4,127500	0,1	1,483549
4,129167	0,1	1,539297
4,130833	0,1	1,530903
4,132500	0,1	1,556484
4,134167	0,1	1,572512
4,135833	0,1	1,605429
4,137500	0,1	1,565055
4,139167	0,1	1,565404
4,140833	0,1	1,586101
4,142500	0,1	1,595230
4,144167	0,1	1,592803
4,145833	0,1	1,582739
4,147500	0,1	1,641939
4,149167	0,1	1,616514
4,150833	0,1	1,634059
4,152500	0,1	1,620618
4,154167	0,1	1,664235
4,155833	0,1	1,707951
4,157500	0,1	1,682443
4,159167	0,1	1,685681
4,160833	0,1	1,674601
4,162500	0,1	1,697462
4,164167	0,1	1,710333
4,165833	0,1	1,702720
4,167500	0,1	1,724078
4,169167	0,1	1,735997
4,170833	0,1	1,740891
4,172500	0,1	1,717681
4,174167	0,1	1,770491
4,175833	0,1	1,740629
4,177500	0,1	1,798320
4,179167	0,1	1,746866
4,180833	0,1	1,807252
4,182500	0,1	1,761824
4,184167	0,1	1,803162
4,185833	0,1	1,762988
4,187500	0,1	1,805178
4,189167	0,1	1,781320
4,190833	0,1	1,843395
4,192500	0,1	1,812612
4,194167	0,1	1,822004
4,195833	0,1	1,812884
4,197500	0,1	1,829122
4,199167	0,1	1,832851
4,200833	0,1	1,837403
4,202500	0,1	1,844511
4,204167	0,1	1,835177
4,205833	0,1	1,785994
4,207500	0,1	1,861486
4,209167	0,1	1,811035
4,210833	0,1	1,829991
4,212500	0,1	1,811452
4,214167	0,1	1,840931
4,215833	0,1	1,815539
4,217500	0,1	1,804478
4,219167	0,1	1,881741
4,220833	0,1	1,854390
4,222500	0,1	1,842883
4,224167	0,1	1,806204
4,225833	0,1	1,821578
4,227500	0,1	1,860909
4,229167	0,1	1,814760
4,230833	0,1	1,816254
4,232500	0,1	1,785501
4,234167	0,1	1,825604
4,235833	0,1	1,819005
4,237500	0,1	1,791591
4,239167	0,1	1,803817
4,240833	0,1	1,778813
4,242500	0,1	1,772466
4,244167	0,1	1,809497
4,245833	0,1	1,801806
4,247500	0,1	1,761471
4,249167	0,1	1,748531
4,250833	0,1	1,773401
4,252500	0,1	1,768703
4,254167	0,1	1,738828
4,255833	0,1	1,718190
4,257500	0,1	1,751239
4,259167	0,1	1,725015
4,260833	0,1	1,740748
4,262500	0,1	1,699796
4,264167	0,1	1,690351
4,265833	0,1	1,692069
4,267500	0,1	1,688623
4,269167	0,1	1,653836
4,270833	0,1	1,638303
4,272500	0,1	1,681132
4,274167	0,1	1,683503
4,275833	0,1	1,670287
4,277500	0,1	1,634358
4,279167	0,1	1,601506
4,280833	0,1	1,633615
4,282500	0,1	1,613783
4,284167	0,1	1,610711
4,285833	0,1	1,604010
4,287500	0,1	1,606815
4,289167	0,1	1,586900
4,290833	0,1	1,594510
4,292500	0,1	1,550901
4,294167	0,1	1,534865
4,295833	0,1	1,564896
4,297500	0,1	1,556559
4,299167	0,1	1,533858
4,300833	0,1	1,531621
4,302500	0,1	1,491969
4,304167	0,1	1,508913
4,305833	0,1	1,510138
4,307500	0,1	1,484053
4,309167	0,1	1,462713
4,310833	0,1	1,439642
4,312500	0,1	1,471029
4,314167	0,1	1,485691
4,315833	0,1	1,432676
4,317500	0,1	1,431157
4,319167	0,1	1,454077
4,320833	0,1	1,423545
4,322500	0,1	1,406949
4,324167	0,1	1,443792
4,325833	0,1	1,406303
4,327500	0,1	1,382875
4,329167	0,1	1,399895
4,330833	0,1	1,348757
4,332500	0,1	1,346447
4,334167	0,1	1,355494
4,335833	0,1	1,358587
4,337500	0,1	1,336967
4,339167	0,1	1,319869
4,340833	0,1	1,287117
4,342500	0,1	1,299246
4,344167	0,1	1,294867
4,345833	0,1	1,288835
4,347500	0,1	1,301543
4,349167	0,1	1,259967
4,350833	0,1	1,268432
4,352500	0,1	1,273460
4,354167	0,1	1,288325
4,355833	0,1	1,283950
4,357500	0,1	1,209769
4,359167	0,1	1,220019
4,360833	0,1	1,232446
4,362500	0,1	1,200135
4,364167	0,1	1,207238
4,365833	0,1	1,199053
4,367500	0,1	1,190508
4,369167	0,1	1,156256
4,370833	0,1	1,171613
4,372500	0,1	1,176428
4,374167	0,1	1,115114
4,375833	0,1	1,107642
4,377500	0,1	1,115968
4,379167	0,1	1,115892
4,380833	0,1	1,142602
4,382500	0,1	1,137583
4,384167	0,1	1,136721
4,385833	0,1	1,160699
4,387500	0,1	1,093584
4,389167	0,1	1,092061
4,390833	0,1	1,134483
4,392500	0,1	1,082089
4,394167	0,1	1,064353
4,395833	0,1	1,070160
4,397500	0,1	1,055156
4,399167	0,1	1,049330
4,400833	0,1	1,051130
4,402500	0,1	1,041149
4,404167	0,1	1,022131
4,405833	0,1	1,046605
4,407500	0,1	1,051213
4,409167	0,1	1,034481
4,410833	0,1	1,035335
4,412500	0,1	1,027371
4,414167	0,1	1,034401
4,415833	0,1	0,987031
4,417500	0,1	0,995282
4,419167	0,1	0,989178
4,420833	0,1	0,980714
4,422500	0,1	1,017528
4,424167	0,1	0,972183
4,425833	0,1	0,999722
4,427500	0,1	0,949632
4,429167	0,1	0,959238
4,430833	0,1	0,923228
4,432500	0,1	0,983723
4,434167	0,1	0,951785
4,435833	0,1	0,917554
4,437500	0,1	0,956378
4,439167	0,1	0,905139
4,440833	0,1	0,936925
4,442500	0,1	0,903042
4,444167	0,1	0,924655
4,445833	0,1	0,927383
4,447500	0,1	0,922350
4,449167	0,1	0,864300
4,450833	0,1	0,864715
4,452500	0,1	0,934824
4,454167	0,1	0,940596
4,455833	0,1	0,941103
4,457500	0,1	0,834952
4,459167	0,1	0,839683
4,460833	0,1	0,847213
4,462500	0,1	0,870679
4,464167	0,1	0,863572
4,465833	0,1	0,902190
4,467500	0,1	0,879086
4,469167	0,1	0,841124
4,470833	0,1	0,834945
4,472500	0,1	0,847501
4,474167	0,1	0,830636
4,475833	0,1	0,826262
4,477500	0,1	0,876415
4,479167	0,1	0,800100
4,480833	0,1	0,835591
4,482500	0,1	0,876580
4,484167	0,1	0,860005
4,485833	0,1	0,843047
4,487500	0,1	0,789264
4,489167	0,1	0,828556
4,490833	0,1	0,806178
4,492500	0,1	0,804375
4,494167	0,1	0,832434
4,495833	0,1	0,778268
4,497500	0,1	0,819742
4,499167	0,1	0,799352
4,500833	0,1	0,770504
4,502500	0,1	0,799777
4,504167	0,1	0,807601
4,505833	0,1	0,730352
4,507500	0,1	0,749552
4,509167	0,1	0,742027
4,510833	0,1	0,756803
4,512500	0,1	0,777754
4,514167	0,1	0,737147
4,515833	0,1	0,757320
4,517500	0,1	0,791111
4,519167	0,1	0,675842
4,520833	0,1	0,760165
4,522500	0,1	0,731484
4,524167	0,1	0,728744
4,525833	0,1	0,738508
4,527500	0,1	0,748896
4,529167	0,1	0,688590
4,530833	0,1	0,735985
4,532500	0,1	0,736513
4,534167	0,1	0,697774
4,535833	0,1	0,692450
4,537500	0,1	0,751132
4,539167	0,1	0,688521
4,540833	0,1	0,699640
4,542500	0,1	0,699333
4,544167	0,1	0,694907
4,545833	0,1	0,709947
4,547500	0,1	0,716843
4,549167	0,1	0,707590
4,550833	0,1	0,711344
4,552500	0,1	0,720867
4,554167	0,1	0,718414
4,555833	0,1	0,674603
4,557500	0,1	0,709516
4,559167	0,1	0,704799
4,560833	0,1	0,663569
4,562500	0,1	0,681644
4,564167	0,1	0,652443
4,565833	0,1	0,662393
4,567500	0,1	0,663504
4,569167	0,1	0,675304
4,570833	0,1	0,683639
4,572500	0,1	0,655232
4,574167	0,1	0,655181
4,575833	0,1	0,661321
4,577500	0,1	0,637802
4,579167	0,1	0,630396
4,580833	0,1	0,611320
4,582500	0,1	0,661335
4,584167	0,1	0,680547
4,585833	0,1	0,611484
4,587500	0,1	0,631115
4,589167	0,1	0,610400
4,590833	0,1	0,608760
4,592500	0,1	0,616134
4,594167	0,1	0,622245
4,595833	0,1	0,624816
4,597500	0,1	0,643036
4,599167	0,1	0,622954
4,600833	0,1	0,579781
4,602500	0,1	0,637793
4,604167	0,1	0,622319
4,605833	0,1	0,648174
4,607500	0,1	0,625617
4,609167	0,1	0,611910
4,610833	0,1	0,589966
4,612500	0,1	0,576382
4,614167	0,1	0,626082
4,615833	0,1	0,589955
4,617500	0,1	0,633198
4,619167	0,1	0,597288
4,620833	0,1	0,618933
4,622500	0,1	0,583075
4,624167	0,1	0,578412
4,625833	0,1	0,588446
4,627500	0,1	0,582862
4,629167	0,1	0,582861
4,630833	0,1	0,583587
4,632500	0,1	0,562487
4,634167	0,1	0,567809
4,635833	0,1	0,539665
4,637500	0,1	0,565593
4,639167	0,1	0,567080
4,640833	0,1	0,597260
4,642500	0,1	0,580570
4,644167	0,1	0,598936
4,645833	0,1	0,533878
4,647500	0,1	0,544847
4,649167	0,1	0,554678
4,650833	0,1	0,586012
4,652500	0,1	0,596714
4,654167	0,1	0,571097
4,655833	0,1	0,595982
4,657500	0,1	0,542128
4,659167	0,1	0,545797
4,660833	0,1	0,565854
4,662500	0,1	0,560643
4,664167	0,1	0,553763
4,665833	0,1	0,576207
4,667500	0,1	0,533599
4,669167	0,1	0,580776
4,670833	0,1	0,564874
4,672500	0,1	0,534834
4,674167	0,1	0,516937
4,675833	0,1	0,512870
4,677500	0,1	0,571874
4,679167	0,1	0,546449
4,680833	0,1	0,520453
4,682500	0,1	0,546998
4,684167	0,1	0,540347
4,685833	0,1	0,543421
4,687500	0,1	0,514166
4,689167	0,1	0,516150
4,690833	0,1	0,555098
4,692500	0,1	0,524287
4,694167	0,1	0,514905
4,695833	0,1	0,536605
4,697500	0,1	0,518955
4,699167	0,1	0,510784
4,700833	0,1	0,514872
4,702500	0,1	0,524658
4,704167	0,1	0,532296
4,705833	0,1	0,508920
4,707500	0,1	0,476162
4,709167	0,1	0,512163
4,710833	0,1	0,557061
4,712500	0,1	0,538687
4,714167	0,1	0,502333
4,715833	0,1	0,513306
4,717500	0,1	0,506417
4,719167	0,1	0,495843
4,720833	0,1	0,480660
4,722500	0,1	0,484815
4,724167	0,1	0,499436
4,725833	0,1	0,517890
4,727500	0,1	0,514464
4,729167	0,1	0,516825
4,730833	0,1	0,506062
4,732500	0,1	0,483562
4,734167	0,1	0,474729
4,735833	0,1	0,504404
4,737500	0,1	0,513102
4,739167	0,1	0,510099
4,740833	0,1	0,499016
4,742500	0,1	0,487485
4,744167	0,1	0,478160
4,745833	0,1	0,509566
4,747500	0,1	0,503343
4,749167	0,1	0,485124
4,750833	0,1	0,464089
4,752500	0,1	0,482807
4,754167	0,1	0,445039
4,755833	0,1	0,468437
4,757500	0,1	0,466156
4,759167	0,1	0,465625
4,760833	0,1	0,457070
4,762500	0,1	0,451143
4,764167	0,1	0,448103
4,765833	0,1	0,439648
4,767500	0,1	0,456572
4,769167	0,1	0,434066
4,770833	0,1	0,452360
4,772500	0,1	0,472650
4,774167	0,1	0,457208
4,775833	0,1	0,458390
4,777500	0,1	0,474299
4,779167	0,1	0,477307
4,780833	0,1	0,456582
4,782500	0,1	0,480378
4,784167	0,1	0,453798
4,785833	0,1	0,409248
4,787500	0,1	0,466833
4,789167	0,1	0,455508
4,790833	0,1	0,471056
4,792500	0,1	0,472214
4,794167	0,1	0,455935
4,795833	0,1	0,426035
4,797500	0,1	0,417457
4,799167	0,1	0,470842
4,800833	0,1	0,450653
4,802500	0,1	0,462973
4,804167	0,1	0,431929
4,805833	0,1	0,453087
4,807500	0,1	0,452143
4,809167	0,1	0,481340
4,810833	0,1	0,455156
4,812500	0,1	0,481836
4,814167	0,1	0,445290
4,815833	0,1	0,466182
4,817500	0,1	0,445355
4,819167	0,1	0,451224
4,820833	0,1	0,392205
4,822500	0,1	0,497151
4,824167	0,1	0,427641
4,825833	0,1	0,415081
4,827500	0,1	0,447618
4,829167	0,1	0,419058
4,830833	0,1	0,406064
4,832500	0,1	0,443967
4,834167	0,1	0,460186
4,835833	0,1	0,398334
4,837500	0,1	0,434561
4,839167	0,1	0,428968
4,840833	0,1	0,429355
4,842500	0,1	0,429917
4,844167	0,1	0,453004
4,845833	0,1	0,479831
4,847500	0,1	0,386577
4,849167	0,1	0,416565
4,850833	0,1	0,465340
4,852500	0,1	0,412068
4,854167	0,1	0,429827
4,855833	0,1	0,410921
4,857500	0,1	0,429641
4,859167	0,1	0,452018
4,860833	0,1	0,399452
4,862500	0,1	0,419639
4,864167	0,1	0,419067
4,865833	0,1	0,399598
4,867500	0,1	0,432642
4,869167	0,1	0,475939
4,870833	0,1	0,453947
4,872500	0,1	0,389354
4,874167	0,1	0,406736
4,875833	0,1	0,398067
4,877500	0,1	0,401272
4,879167	0,1	0,391447
4,880833	0,1	0,386453
4,882500	0,1	0,423728
4,884167	0,1	0,421971
4,885833	0,1	0,426181
4,887500	0,1	0,433787
4,889167	0,1	0,396358
4,890833	0,1	0,415345
4,892500	0,1	0,417028
4,894167	0,1	0,416877
4,895833	0,1	0,414517
4,897500	0,1	0,410680
4,899167	0,1	0,448567
4,900833	0,1	0,414882
4,902500	0,1	0,394690
4,904167	0,1	0,411270
4,905833	0,1	0,393892
4,907500	0,1	0,398133
4,909167	0,1	0,429179
4,910833	0,1	0,476091
4,912500	0,1	0,407012
4,914167	0,1	0,410764
4,915833	0,1	0,376512
4,917500	0,1	0,416630
4,919167	0,1	0,447991
4,920833	0,1	0,429514
4,922500	0,1	0,437809
4,924167	0,1	0,443229
4,925833	0,1	0,395360
4,927500	0,1	0,438464
4,929167	0,1	0,434994
4,930833	0,1	0,403318
4,932500	0,1	0,458446
4,934167	0,1	0,437257
4,935833	0,1	0,397343
4,937500	0,1	0,408691
4,939167	0,1	0,426246
4,940833	0,1	0,415556
4,942500	0,1	0,435243
4,944167	0,1	0,414539
4,945833	0,1	0,430405
4,947500	0,1	0,421106
4,949167	0,1	0,431425
4,950833	0,1	0,468470
4,952500	0,1	0,401357
4,954167	0,1	0,439382
4,955833	0,1	0,418750
4,957500	0,1	0,422718
4,959167	0,1	0,426333
4,960833	0,1	0,409562
4,962500	0,1	0,443678
4,964167	0,1	0,420754
4,965833	0,1	0,453274
4,967500	0,1	0,444843
4,969167	0,1	0,424048
4,970833	0,1	0,438642
4,972500	0,1	0,400297
4,974167	0,1	0,400458
4,975833	0,1	0,452047
4,977500	0,1	0,487808
4,979167	0,1	0,413923
4,980833	0,1	0,428334
4,982500	0,1	0,412788
4,984167	0,1	0,451793
4,985833	0,1	0,428395
4,987500	0,1	0,389993
4,989167	0,1	0,431944
4,990833	0,1	0,472494
4,992500	0,1	0,434221
4,994167	0,1	0,478687
4,995833	0,1	0,428145
4,997500	0,1	0,399939
4,999167	0,1	0,435494
5,000833	0,1	0,439509
5,002500	0,1	0,391082
5,004167	0,1	0,417720
5,005833	0,1	0,423091
5,007500	0,1	0,417796
5,009167	0,1	0,441881
5,010833	0,1	0,409125
5,012500	0,1	0,421237
5,014167	0,1	0,441086
5,015833	0,1	0,455110
5,017500	0,1	0,427648
5,019167	0,1	0,419596
5,020833	0,1	0,416588
5,022500	0,1	0,446618
5,024167	0,1	0,454822
5,025833	0,1	0,392070
5,027500	0,1	0,446559
5,029167	0,1	0,445522
5,030833	0,1	0,431567
5,032500	0,1	0,428406
5,034167	0,1	0,419612
5,035833	0,1	0,402737
5,037500	0,1	0,402887
5,039167	0,1	0,426006
5,040833	0,1	0,426197
5,042500	0,1	0,412991
5,044167	0,1	0,408932
5,045833	0,1	0,411614
5,047500	0,1	0,427401
5,049167	0,1	0,407272
5,050833	0,1	0,392549
5,052500	0,1	0,402375
5,054167	0,1	0,402412
5,055833	0,1	0,393906
5,057500	0,1	0,406178
5,059167	0,1	0,445021
5,060833	0,1	0,392203
5,062500	0,1	0,425612
5,064167	0,1	0,407967
5,065833	0,1	0,417283
5,067500	0,1	0,433359
5,069167	0,1	0,388040
5,070833	0,1	0,428481
5,072500	0,1	0,383440
5,074167	0,1	0,392137
5,075833	0,1	0,402595
5,077500	0,1	0,413853
5,079167	0,1	0,407251
5,080833	0,1	0,398950
5,082500	0,1	0,426108
5,084167	0,1	0,387412
5,085833	0,1	0,388896
5,087500	0,1	0,385027
5,089167	0,1	0,371549
5,090833	0,1	0,384242
5,092500	0,1	0,416802
5,094167	0,1	0,425923
5,095833	0,1	0,388039
5,097500	0,1	0,380579
5,099167	0,1	0,393919
5,100833	0,1	0,377643
5,102500	0,1	0,436696
5,104167	0,1	0,382900
5,105833	0,1	0,410570
5,107500	0,1	0,403907
5,109167	0,1	0,378989
5,110833	0,1	0,402813
5,112500	0,1	0,412646
5,114167	0,1	0,382027
5,115833	0,1	0,392272
5,117500	0,1	0,386691
5,119167	0,1	0,370633
5,120833	0,1	0,389486
5,122500	0,1	0,375590
5,124167	0,1	0,368780
5,125833	0,1	0,387195
5,127500	0,1	0,378967
5,129167	0,1	0,353978
5,130833	0,1	0,374918
5,132500	0,1	0,313684
5,134167	0,1	0,386775
5,135833	0,1	0,380595
5,137500	0,1	0,389710
5,139167	0,1	0,354510
5,140833	0,1	0,367230
5,142500	0,1	0,389791
5,144167	0,1	0,389509
5,145833	0,1	0,360976
5,147500	0,1	0,384052
5,149167	0,1	0,373703
5,150833	0,1	0,386703
5,152500	0,1	0,303051
5,154167	0,1	0,366982
5,155833	0,1	0,384886
5,157500	0,1	0,405056
5,159167	0,1	0,365188
5,160833	0,1	0,341028
5,162500	0,1	0,330328
5,164167	0,1	0,314915
5,165833	0,1	0,375044
5,167500	0,1	0,362975
5,169167	0,1	0,354607
5,170833	0,1	0,344182
5,172500	0,1	0,358166
5,174167	0,1	0,340381
5,175833	0,1	0,378988
5,177500	0,1	0,376878
5,179167	0,1	0,328217
5,180833	0,1	0,332125
5,182500	0,1	0,320450
5,184167	0,1	0,343000
5,185833	0,1	0,320230
5,187500	0,1	0,344242
5,189167	0,1	0,279758
5,190833	0,1	0,348237
5,192500	0,1	0,379450
5,194167	0,1	0,360889
5,195833	0,1	0,354742
5,197500	0,1	0,320590
5,199167	0,1	0,322332
5,200833	0,1	0,314353
5,202500	0,1	0,323400
5,204167	0,1	0,343952
5,205833	0,1	0,376783
5,207500	0,1	0,308870
5,209167	0,1	0,312128
5,210833	0,1	0,296024
5,212500	0,1	0,353453
5,214167	0,1	0,319250
5,215833	0,1	0,325133
5,217500	0,1	0,315596
5,219167	0,1	0,320753
5,220833	0,1	0,295672
5,222500	0,1	0,308235
5,224167	0,1	0,323159
5,225833	0,1	0,302408
5,227500	0,1	0,309160
5,229167	0,1	0,330135
5,230833	0,1	0,275461
5,232500	0,1	0,321811
5,234167	0,1	0,297944
5,235833	0,1	0,348413
5,237500	0,1	0,311270
5,239167	0,1	0,266237
5,240833	0,1	0,305956
5,242500	0,1	0,326450
5,244167	0,1	0,297250
5,245833	0,1	0,318014
5,247500	0,1	0,335094
5,249167	0,1	0,307283
5,250833	0,1	0,318084
5,252500	0,1	0,295334
5,254167	0,1	0,297937
5,255833	0,1	0,341471
5,257500	0,1	0,303348
5,259167	0,1	0,301674
5,260833	0,1	0,317745
5,262500	0,1	0,308126
5,264167	0,1	0,298315
5,265833	0,1	0,275031
5,267500	0,1	0,284968
5,269167	0,1	0,270783
5,270833	0,1	0,330416
5,272500	0,1	0,276463
5,274167	0,1	0,293302
5,275833	0,1	0,273787
5,277500	0,1	0,285563
5,279167	0,1	0,279319
5,280833	0,1	0,270821
5,282500	0,1	0,296082
5,284167	0,1	0,270988
5,285833	0,1	0,279624
5,287500	0,1	0,282369
5,289167	0,1	0,342469
5,290833	0,1	0,280874
5,292500	0,1	0,284324
5,294167	0,1	0,284478
5,295833	0,1	0,282054
5,297500	0,1	0,302639
5,299167	0,1	0,269190
5,300833	0,1	0,271424
5,302500	0,1	0,300819
5,304167	0,1	0,272010
5,305833	0,1	0,294235
5,307500	0,1	0,273298
5,309167	0,1	0,310780
5,310833	0,1	0,305448
5,312500	0,1	0,248018
5,314167	0,1	0,296654
5,315833	0,1	0,258446
5,317500	0,1	0,278246
5,319167	0,1	0,286988
5,320833	0,1	0,293594
5,322500	0,1	0,310295
5,324167	0,1	0,300201
5,325833	0,1	0,266032
5,327500	0,1	0,254946
5,329167	0,1	0,297148
5,330833	0,1	0,266560
5,332500	0,1	0,269710
5,334167	0,1	0,258769
5,335833	0,1	0,237959
5,337500	0,1	0,257607
5,339167	0,1	0,311353
5,340833	0,1	0,263562
5,342500	0,1	0,199185
5,344167	0,1	0,265268
5,345833	0,1	0,264483
5,347500	0,1	0,264061
5,349167	0,1	0,246093
5,350833	0,1	0,255626
5,352500	0,1	0,238488
5,354167	0,1	0,280396
5,355833	0,1	0,242478
5,357500	0,1	0,236443
5,359167	0,1	0,270435
5,360833	0,1	0,248480
5,362500	0,1	0,280398
5,364167	0,1	0,232516
5,365833	0,1	0,284975
5,367500	0,1	0,229516
5,369167	0,1	0,219675
5,370833	0,1	0,265050
5,372500	0,1	0,227752
5,374167	0,1	0,248892
5,375833	0,1	0,258166
5,377500	0,1	0,264396
5,379167	0,1	0,258102
5,380833	0,1	0,283096
5,382500	0,1	0,222912
5,384167	0,1	0,254385
5,385833	0,1	0,254521
5,387500	0,1	0,275751
5,389167	0,1	0,256461
5,390833	0,1	0,245916
5,392500	0,1	0,195226
5,394167	0,1	0,235961
5,395833	0,1	0,212894
5,397500	0,1	0,213246
5,399167	0,1	0,247620
5,400833	0,1	0,251583
5,402500	0,1	0,262258
5,404167	0,1	0,259856
5,405833	0,1	0,159947
5,407500	0,1	0,236114
5,409167	0,1	0,273369
5,410833	0,1	0,263397
5,412500	0,1	0,203520
5,414167	0,1	0,235788
5,415833	0,1	0,215566
5,417500	0,1	0,239835
5,419167	0,1	0,223587
5,420833	0,1	0,225719
5,422500	0,1	0,216983
5,424167	0,1	0,225650
5,425833	0,1	0,264321
5,427500	0,1	0,199275
5,429167	0,1	0,208439
5,430833	0,1	0,201994
5,432500	0,1	0,214067
5,434167	0,1	0,204398
5,435833	0,1	0,266134
5,437500	0,1	0,225132
5,439167	0,1	0,213846
5,440833	0,1	0,241038
5,442500	0,1	0,197823
5,444167	0,1	0,210682
5,445833	0,1	0,194238
5,447500	0,1	0,263024
5,449167	0,1	0,177889
5,450833	0,1	0,206366
5,452500	0,1	0,201505
5,454167	0,1	0,201906
5,455833	0,1	0,195458
5,457500	0,1	0,242946
5,459167	0,1	0,223368
5,460833	0,1	0,216558
5,462500	0,1	0,178188
5,464167	0,1	0,184158
5,465833	0,1	0,218725
5,467500	0,1	0,158447
5,469167	0,1	0,181775
5,470833	0,1	0,237489
5,472500	0,1	0,207092
5,474167	0,1	0,191502
5,475833	0,1	0,190608
5,477500	0,1	0,212018
5,479167	0,1	0,168139
5,480833	0,1	0,217190
5,482500	0,1	0,187056
5,484167	0,1	0,240916
5,485833	0,1	0,181284
5,487500	0,1	0,215836
5,489167	0,1	0,208733
5,490833	0,1	0,204218
5,492500	0,1	0,184610
5,494167	0,1	0,181137
5,495833	0,1	0,195629
5,497500	0,1	0,187519
5,499167	0,1	0,172399
5,500833	0,1	0,213993
5,502500	0,1	0,189349
5,504167	0,1	0,203388
5,505833	0,1	0,220779
5,507500	0,1	0,168028
5,509167	0,1	0,174262
5,510833	0,1	0,197916
5,512500	0,1	0,198701
5,514167	0,1	0,184053
5,515833	0,1	0,173554
5,517500	0,1	0,149167
5,519167	0,1	0,194089
5,520833	0,1	0,196143
5,522500	0,1	0,167488
5,524167	0,1	0,175598
5,525833	0,1	0,195271
5,527500	0,1	0,188519
5,529167	0,1	0,177203
5,530833	0,1	0,158193
5,532500	0,1	0,206006
5,534167	0,1	0,193525
5,535833	0,1	0,204368
5,537500	0,1	0,182254
5,539167	0,1	0,192518
5,540833	0,1	0,199902
5,542500	0,1	0,172269
5,544167	0,1	0,172886
5,545833	0,1	0,159946
5,547500	0,1	0,152431
5,549167	0,1	0,177881
5,550833	0,1	0,168108
5,552500	0,1	0,205476
5,554167	0,1	0,184098
5,555833	0,1	0,160774
5,557500	0,1	0,172125
5,559167	0,1	0,155701
5,560833	0,1	0,161101
5,562500	0,1	0,187687
5,564167	0,1	0,167465
5,565833	0,1	0,182065
5,567500	0,1	0,137786
5,569167	0,1	0,161073
5,570833	0,1	0,156142
5,572500	0,1	0,152674
5,574167	0,1	0,176926
5,575833	0,1	0,130095
5,577500	0,1	0,191660
5,579167	0,1	0,172380
5,580833	0,1	0,175776
5,582500	0,1	0,160638
5,584167	0,1	0,167148
5,585833	0,1	0,145719
5,587500	0,1	0,143579
5,589167	0,1	0,132332
5,590833	0,1	0,159359
5,592500	0,1	0,154652
5,594167	0,1	0,223413
5,595833	0,1	0,190950
5,597500	0,1	0,151771
5,599167	0,1	0,132689
5,600833	0,1	0,118215
5,602500	0,1	0,179517
5,604167	0,1	0,205897
5,605833	0,1	0,153621
5,607500	0,1	0,156431
5,609167	0,1	0,167926
5,610833	0,1	0,150833
5,612500	0,1	0,156140
5,614167	0,1	0,126778
5,615833	0,1	0,155068
5,617500	0,1	0,155342
5,619167	0,1	0,167100
5,620833	0,1	0,130825
5,622500	0,1	0,169029
5,624167	0,1	0,122203
5,625833	0,1	0,176319
5,627500	0,1	0,155568
5,629167	0,1	0,177949
5,630833	0,1	0,150458
5,632500	0,1	0,124420
5,634167	0,1	0,153067
5,635833	0,1	0,186374
5,637500	0,1	0,167532
5,639167	0,1	0,139050
5,640833	0,1	0,150335
5,642500	0,1	0,133156
5,644167	0,1	0,134708
5,645833	0,1	0,142311
5,647500	0,1	0,156829
5,649167	0,1	0,172903
5,650833	0,1	0,169817
5,652500	0,1	0,152788
5,654167	0,1	0,140358
5,655833	0,1	0,137776
5,657500	0,1	0,187372
5,659167	0,1	0,118739
5,660833	0,1	0,174183
5,662500	0,1	0,169884
5,664167	0,1	0,180866
5,665833	0,1	0,119603
5,667500	0,1	0,177940
5,669167	0,1	0,186380
5,670833	0,1	0,200230
5,672500	0,1	0,132234
5,674167	0,1	0,159382
5,675833	0,1	0,162321
5,677500	0,1	0,151276
5,679167	0,1	0,156230
5,680833	0,1	0,153409
5,682500	0,1	0,157076
5,684167	0,1	0,140670
5,685833	0,1	0,120907
5,687500	0,1	0,179518
5,689167	0,1	0,148057
5,690833	0,1	0,152695
5,692500	0,1	0,193688
5,694167	0,1	0,171732
5,695833	0,1	0,144097
5,697500	0,1	0,163654
5,699167	0,1	0,122913
5,700833	0,1	0,171495
5,702500	0,1	0,179333
5,704167	0,1	0,196093
5,705833	0,1	0,138458
5,707500	0,1	0,186370
5,709167	0,1	0,161373
5,710833	0,1	0,186465
5,712500	0,1	0,164085
5,714167	0,1	0,134071
5,715833	0,1	0,168364
5,717500	0,1	0,168460
5,719167	0,1	0,158502
5,720833	0,1	0,132490
5,722500	0,1	0,193173
5,724167	0,1	0,162109
5,725833	0,1	0,148985
5,727500	0,1	0,145293
5,729167	0,1	0,165010
5,730833	0,1	0,151631
5,732500	0,1	0,180283
5,734167	0,1	0,174532
5,735833	0,1	0,196250
5,737500	0,1	0,126855
5,739167	0,1	0,163269
5,740833	0,1	0,189223
5,742500	0,1	0,162663
5,744167	0,1	0,173839
5,745833	0,1	0,182243
5,747500	0,1	0,150412
5,749167	0,1	0,131956
5,750833	0,1	0,203265
5,752500	0,1	0,134392
5,754167	0,1	0,175610
5,755833	0,1	0,187535
5,757500	0,1	0,180091
5,759167	0,1	0,196051
5,760833	0,1	0,170447
5,762500	0,1	0,205741
5,764167	0,1	0,185675
5,765833	0,1	0,162127
5,767500	0,1	0,151543
5,769167	0,1	0,154984
5,770833	0,1	0,172568
5,772500	0,1	0,148389
5,774167	0,1	0,195622
5,775833	0,1	0,173557
5,777500	0,1	0,169907
5,779167	0,1	0,164502
5,780833	0,1	0,202184
5,782500	0,1	0,178783
5,784167	0,1	0,186045
5,785833	0,1	0,170511
5,787500	0,1	0,192939
5,789167	0,1	0,187606
5,790833	0,1	0,195609
5,792500	0,1	0,163954
5,794167	0,1	0,179398
5,795833	0,1	0,124448
5,797500	0,1	0,145508
5,799167	0,1	0,175345
5,800833	0,1	0,119357
5,802500	0,1	0,133903
5,804167	0,1	0,137264
5,805833	0,1	0,178232
5,807500	0,1	0,133140
5,809167	0,1	0,169406
5,810833	0,1	0,137717
5,812500	0,1	0,133153
5,814167	0,1	0,178122
5,815833	0,1	0,171685
5,817500	0,1	0,146699
5,819167	0,1	0,149626
5,820833	0,1	0,185016
5,822500	0,1	0,169976
5,824167	0,1	0,190070
5,825833	0,1	0,147214
5,827500	0,1	0,193020
5,829167	0,1	0,121940
5,830833	0,1	0,137351
5,832500	0,1	0,187969
5,834167	0,1	0,161219
5,835833	0,1	0,128535
5,837500	0,1	0,152267
5,839167	0,1	0,167544
5,840833	0,1	0,161502
5,842500	0,1	0,136760
5,844167	0,1	0,161828
5,845833	0,1	0,163080
5,847500	0,1	0,136870
5,849167	0,1	0,136376
5,850833	0,1	0,149980
5,852500	0,1	0,151894
5,854167	0,1	0,154741
5,855833	0,1	0,159765
5,857500	0,1	0,169526
5,859167	0,1	0,172150
5,860833	0,1	0,143876
5,862500	0,1	0,139023
5,864167	0,1	0,165897
5,865833	0,1	0,159767
5,867500	0,1	0,140827
5,869167	0,1	0,166452
5,870833	0,1	0,130582
5,872500	0,1	0,180365
5,874167	0,1	0,113514
5,875833	0,1	0,164488
5,877500	0,1	0,128424
5,879167	0,1	0,161826
5,880833	0,1	0,172570
5,882500	0,1	0,124492
5,884167	0,1	0,147910
5,885833	0,1	0,139756
5,887500	0,1	0,114503
5,889167	0,1	0,157421
5,890833	0,1	0,137047
5,892500	0,1	0,177143
5,894167	0,1	0,135941
5,895833	0,1	0,111569
5,897500	0,1	0,137459
5,899167	0,1	0,147556
5,900833	0,1	0,112861
5,902500	0,1	0,150329
5,904167	0,1	0,153317
5,905833	0,1	0,147871
5,907500	0,1	0,145848
5,909167	0,1	0,170321
5,910833	0,1	0,119867
5,912500	0,1	0,114477
5,914167	0,1	0,133569
5,915833	0,1	0,121970
5,917500	0,1	0,146754
5,919167	0,1	0,159095
5,920833	0,1	0,153787
5,922500	0,1	0,127689
5,924167	0,1	0,151999
5,925833	0,1	0,107594
5,927500	0,1	0,104006
5,929167	0,1	0,119963
5,930833	0,1	0,148864
5,932500	0,1	0,149295
5,934167	0,1	0,136490
5,935833	0,1	0,121793
5,937500	0,1	0,104209
5,939167	0,1	0,143526
5,940833	0,1	0,147981
5,942500	0,1	0,153627
5,944167	0,1	0,125089
5,945833	0,1	0,143198
5,947500	0,1	0,120617
5,949167	0,1	0,118878
5,950833	0,1	0,110833
5,952500	0,1	0,122055
5,954167	0,1	0,111433
5,955833	0,1	0,138304
5,957500	0,1	0,140355
5,959167	0,1	0,110992
5,960833	0,1	0,137282
5,962500	0,1	0,167340
5,964167	0,1	0,077660
5,965833	0,1	0,146342
5,967500	0,1	0,103659
5,969167	0,1	0,140303
5,970833	0,1	0,108347
5,972500	0,1	0,113851
5,974167	0,1	0,137838
5,975833	0,1	0,097522
5,977500	0,1	0,108716
5,979167	0,1	0,133213
5,980833	0,1	0,155979
5,982500	0,1	0,119421
5,984167	0,1	0,133016
5,985833	0,1	0,134953
5,987500	0,1	0,126707
5,989167	0,1	0,119992
5,990833	0,1	0,112834
5,992500	0,1	0,143506
5,994167	0,1	0,130731
5,995833	0,1	0,115391
5,997500	0,1	0,110408
5,999167	0,1	0,099561
6,000833	0,1	0,132611
