File Path	chrom://chromeleon01/ikbm_chromeleon/2022/Rezex/Esteban/220612_chitin_4_7.seq/771.smp/UV_VIS_1.channel/UV_VIS_1.chm
Channel	UV_VIS_1

Injection Information:
Data Vault	ikbm_chromeleon
Injection	CelS2_01h-EGS_2
Injection Number	98
Position	BA1
Comment	
Processing Method	New ProcMethod
Instrument Method	Short_Rezex_6min_194nm
Type	Unknown
Status	Finished
Injection Date	13.06.2022
Injection Time	03:42:06
Injection Volume (µl)	8,000
Dilution Factor	1,0000
Weight	1,0000

Chromatogram Data Information:
Time Min. (min)	0,000833
Time Max. (min)	6,000833
Data Points	3601
Detector	UV
Generating Data System	Chromeleon 7.2.9.11323
Exporting Data System	Chromeleon 7.2.9.0
Operator	Instrument Controller
Signal Quantity	Absorbance
Signal Unit	mAU
Signal Min.	-0,169928
Signal Max.	114,832553
Channel	UV_VIS_1
Driver Name	VWD3000.dll
Channel Type	Evaluation
Min. Step (s)	0,1
Max. Step (s)	0,1
Average Step (s)	0,1

Signal Parameter Information:
Signal Info	WVL:194 nm

Chromatogram Data:
Time (min)	Step (s)	Value (mAU)
0,000833	n.a.	-0,081408
0,002500	0,1	-0,056326
0,004167	0,1	-0,068818
0,005833	0,1	-0,109905
0,007500	0,1	-0,070158
0,009167	0,1	-0,094175
0,010833	0,1	-0,075884
0,012500	0,1	-0,127000
0,014167	0,1	-0,113003
0,015833	0,1	-0,091557
0,017500	0,1	-0,038840
0,019167	0,1	-0,048826
0,020833	0,1	-0,055676
0,022500	0,1	-0,067350
0,024167	0,1	-0,094588
0,025833	0,1	-0,113779
0,027500	0,1	-0,074255
0,029167	0,1	-0,088094
0,030833	0,1	-0,082799
0,032500	0,1	-0,122677
0,034167	0,1	-0,091912
0,035833	0,1	-0,151484
0,037500	0,1	-0,114969
0,039167	0,1	-0,169742
0,040833	0,1	-0,126565
0,042500	0,1	-0,169928
0,044167	0,1	-0,117416
0,045833	0,1	-0,119785
0,047500	0,1	-0,112317
0,049167	0,1	-0,100953
0,050833	0,1	-0,116039
0,052500	0,1	-0,062461
0,054167	0,1	-0,117128
0,055833	0,1	-0,045156
0,057500	0,1	-0,062444
0,059167	0,1	-0,069419
0,060833	0,1	-0,074682
0,062500	0,1	-0,095582
0,064167	0,1	-0,096792
0,065833	0,1	-0,054634
0,067500	0,1	-0,074925
0,069167	0,1	-0,112395
0,070833	0,1	-0,070966
0,072500	0,1	-0,041796
0,074167	0,1	-0,112983
0,075833	0,1	-0,080800
0,077500	0,1	-0,070151
0,079167	0,1	-0,057811
0,080833	0,1	-0,067992
0,082500	0,1	-0,060895
0,084167	0,1	-0,023661
0,085833	0,1	-0,072289
0,087500	0,1	-0,072116
0,089167	0,1	-0,088508
0,090833	0,1	-0,084186
0,092500	0,1	-0,090471
0,094167	0,1	-0,077771
0,095833	0,1	-0,026275
0,097500	0,1	-0,072993
0,099167	0,1	-0,044775
0,100833	0,1	-0,067638
0,102500	0,1	-0,102909
0,104167	0,1	-0,119720
0,105833	0,1	-0,093221
0,107500	0,1	-0,109560
0,109167	0,1	-0,106541
0,110833	0,1	-0,074562
0,112500	0,1	-0,099123
0,114167	0,1	-0,117276
0,115833	0,1	-0,047249
0,117500	0,1	-0,087754
0,119167	0,1	-0,113865
0,120833	0,1	-0,124793
0,122500	0,1	-0,122794
0,124167	0,1	-0,092220
0,125833	0,1	-0,139499
0,127500	0,1	-0,106319
0,129167	0,1	-0,099879
0,130833	0,1	-0,082099
0,132500	0,1	-0,066821
0,134167	0,1	-0,092645
0,135833	0,1	-0,070048
0,137500	0,1	-0,086644
0,139167	0,1	-0,117853
0,140833	0,1	-0,055569
0,142500	0,1	-0,097916
0,144167	0,1	-0,077336
0,145833	0,1	-0,040076
0,147500	0,1	-0,099449
0,149167	0,1	-0,044654
0,150833	0,1	-0,092227
0,152500	0,1	-0,053491
0,154167	0,1	-0,059774
0,155833	0,1	-0,080658
0,157500	0,1	-0,077937
0,159167	0,1	-0,096269
0,160833	0,1	-0,080297
0,162500	0,1	-0,094741
0,164167	0,1	-0,090331
0,165833	0,1	-0,091675
0,167500	0,1	-0,070628
0,169167	0,1	-0,112076
0,170833	0,1	-0,104906
0,172500	0,1	-0,058009
0,174167	0,1	-0,032911
0,175833	0,1	-0,085229
0,177500	0,1	-0,068060
0,179167	0,1	-0,085711
0,180833	0,1	-0,036914
0,182500	0,1	-0,078030
0,184167	0,1	-0,061539
0,185833	0,1	-0,113736
0,187500	0,1	-0,065562
0,189167	0,1	-0,062158
0,190833	0,1	-0,085754
0,192500	0,1	-0,061459
0,194167	0,1	-0,095209
0,195833	0,1	-0,072475
0,197500	0,1	-0,003546
0,199167	0,1	-0,074456
0,200833	0,1	-0,061686
0,202500	0,1	-0,045249
0,204167	0,1	-0,090961
0,205833	0,1	-0,067543
0,207500	0,1	-0,069980
0,209167	0,1	-0,075323
0,210833	0,1	-0,101647
0,212500	0,1	-0,077522
0,214167	0,1	-0,093211
0,215833	0,1	-0,100534
0,217500	0,1	-0,076177
0,219167	0,1	-0,032544
0,220833	0,1	-0,073989
0,222500	0,1	-0,042603
0,224167	0,1	-0,034873
0,225833	0,1	-0,050893
0,227500	0,1	-0,059299
0,229167	0,1	-0,021279
0,230833	0,1	-0,067941
0,232500	0,1	-0,041733
0,234167	0,1	-0,050130
0,235833	0,1	-0,065653
0,237500	0,1	-0,052867
0,239167	0,1	-0,065609
0,240833	0,1	-0,067828
0,242500	0,1	-0,105310
0,244167	0,1	-0,065210
0,245833	0,1	-0,050653
0,247500	0,1	-0,066727
0,249167	0,1	-0,047587
0,250833	0,1	-0,001987
0,252500	0,1	-0,099063
0,254167	0,1	-0,108110
0,255833	0,1	-0,061633
0,257500	0,1	-0,086247
0,259167	0,1	-0,073131
0,260833	0,1	-0,090449
0,262500	0,1	-0,090375
0,264167	0,1	-0,077668
0,265833	0,1	-0,053408
0,267500	0,1	-0,065572
0,269167	0,1	-0,105951
0,270833	0,1	-0,075579
0,272500	0,1	-0,037615
0,274167	0,1	-0,092718
0,275833	0,1	-0,059618
0,277500	0,1	-0,062551
0,279167	0,1	-0,062614
0,280833	0,1	-0,066623
0,282500	0,1	-0,045539
0,284167	0,1	-0,052073
0,285833	0,1	-0,047151
0,287500	0,1	-0,039365
0,289167	0,1	-0,033032
0,290833	0,1	-0,077942
0,292500	0,1	-0,018243
0,294167	0,1	-0,063721
0,295833	0,1	-0,055223
0,297500	0,1	-0,062735
0,299167	0,1	-0,014514
0,300833	0,1	-0,039278
0,302500	0,1	-0,064162
0,304167	0,1	-0,054644
0,305833	0,1	-0,033575
0,307500	0,1	-0,045119
0,309167	0,1	-0,060561
0,310833	0,1	-0,032064
0,312500	0,1	-0,037357
0,314167	0,1	-0,029553
0,315833	0,1	-0,032427
0,317500	0,1	-0,050083
0,319167	0,1	-0,022210
0,320833	0,1	-0,069599
0,322500	0,1	-0,036292
0,324167	0,1	-0,050355
0,325833	0,1	-0,031316
0,327500	0,1	-0,050065
0,329167	0,1	-0,049384
0,330833	0,1	-0,072464
0,332500	0,1	-0,066238
0,334167	0,1	-0,066007
0,335833	0,1	-0,038772
0,337500	0,1	-0,040234
0,339167	0,1	-0,053917
0,340833	0,1	-0,034981
0,342500	0,1	-0,005998
0,344167	0,1	-0,033540
0,345833	0,1	-0,038702
0,347500	0,1	-0,046008
0,349167	0,1	-0,033426
0,350833	0,1	-0,052008
0,352500	0,1	-0,040379
0,354167	0,1	-0,026429
0,355833	0,1	-0,027832
0,357500	0,1	-0,003948
0,359167	0,1	-0,042816
0,360833	0,1	-0,030758
0,362500	0,1	-0,019763
0,364167	0,1	-0,033443
0,365833	0,1	-0,027339
0,367500	0,1	-0,015249
0,369167	0,1	-0,020503
0,370833	0,1	-0,024478
0,372500	0,1	-0,027731
0,374167	0,1	-0,040131
0,375833	0,1	-0,042966
0,377500	0,1	-0,028295
0,379167	0,1	-0,010178
0,380833	0,1	-0,072306
0,382500	0,1	-0,037429
0,384167	0,1	-0,077013
0,385833	0,1	-0,044073
0,387500	0,1	-0,033281
0,389167	0,1	-0,002480
0,390833	0,1	-0,065210
0,392500	0,1	-0,051209
0,394167	0,1	-0,020100
0,395833	0,1	-0,055196
0,397500	0,1	-0,010020
0,399167	0,1	-0,028825
0,400833	0,1	-0,062087
0,402500	0,1	-0,013581
0,404167	0,1	-0,022861
0,405833	0,1	-0,024832
0,407500	0,1	-0,018767
0,409167	0,1	-0,005870
0,410833	0,1	0,010918
0,412500	0,1	-0,029771
0,414167	0,1	-0,008834
0,415833	0,1	-0,026320
0,417500	0,1	-0,065689
0,419167	0,1	0,000740
0,420833	0,1	-0,000277
0,422500	0,1	-0,033933
0,424167	0,1	-0,021688
0,425833	0,1	-0,041846
0,427500	0,1	-0,015748
0,429167	0,1	-0,056433
0,430833	0,1	-0,061225
0,432500	0,1	-0,010248
0,434167	0,1	-0,008912
0,435833	0,1	-0,032219
0,437500	0,1	-0,030091
0,439167	0,1	0,001474
0,440833	0,1	-0,034283
0,442500	0,1	-0,017220
0,444167	0,1	-0,012410
0,445833	0,1	0,005018
0,447500	0,1	0,007548
0,449167	0,1	0,023590
0,450833	0,1	-0,025689
0,452500	0,1	-0,014028
0,454167	0,1	-0,015888
0,455833	0,1	-0,019738
0,457500	0,1	-0,008561
0,459167	0,1	-0,029423
0,460833	0,1	-0,032265
0,462500	0,1	0,028734
0,464167	0,1	-0,013084
0,465833	0,1	-0,019405
0,467500	0,1	-0,012207
0,469167	0,1	-0,051986
0,470833	0,1	-0,045950
0,472500	0,1	0,013909
0,474167	0,1	-0,005202
0,475833	0,1	-0,006158
0,477500	0,1	-0,010381
0,479167	0,1	0,009469
0,480833	0,1	0,013591
0,482500	0,1	-0,020125
0,484167	0,1	0,000896
0,485833	0,1	0,008768
0,487500	0,1	-0,020436
0,489167	0,1	0,004746
0,490833	0,1	-0,008970
0,492500	0,1	0,020813
0,494167	0,1	-0,016397
0,495833	0,1	0,014539
0,497500	0,1	0,000678
0,499167	0,1	-0,007273
0,500833	0,1	0,003487
0,502500	0,1	0,019594
0,504167	0,1	0,005171
0,505833	0,1	-0,026915
0,507500	0,1	-0,006186
0,509167	0,1	0,007812
0,510833	0,1	-0,028968
0,512500	0,1	-0,054536
0,514167	0,1	-0,011198
0,515833	0,1	-0,022719
0,517500	0,1	-0,016637
0,519167	0,1	0,009487
0,520833	0,1	-0,006425
0,522500	0,1	-0,030479
0,524167	0,1	0,010001
0,525833	0,1	-0,014289
0,527500	0,1	-0,002993
0,529167	0,1	0,031226
0,530833	0,1	0,009541
0,532500	0,1	0,011647
0,534167	0,1	-0,005389
0,535833	0,1	-0,001211
0,537500	0,1	0,016447
0,539167	0,1	-0,001432
0,540833	0,1	-0,011703
0,542500	0,1	0,035778
0,544167	0,1	-0,023287
0,545833	0,1	0,029048
0,547500	0,1	-0,038025
0,549167	0,1	0,032272
0,550833	0,1	0,036182
0,552500	0,1	0,016124
0,554167	0,1	0,028890
0,555833	0,1	-0,019501
0,557500	0,1	0,008348
0,559167	0,1	0,016718
0,560833	0,1	0,010323
0,562500	0,1	0,000469
0,564167	0,1	0,005042
0,565833	0,1	0,022555
0,567500	0,1	0,045638
0,569167	0,1	0,061357
0,570833	0,1	0,059124
0,572500	0,1	0,036208
0,574167	0,1	0,006601
0,575833	0,1	0,001194
0,577500	0,1	0,044723
0,579167	0,1	0,043617
0,580833	0,1	0,037363
0,582500	0,1	0,055909
0,584167	0,1	0,003565
0,585833	0,1	0,043358
0,587500	0,1	0,032500
0,589167	0,1	0,060878
0,590833	0,1	0,049249
0,592500	0,1	0,052808
0,594167	0,1	0,037676
0,595833	0,1	0,045187
0,597500	0,1	0,009771
0,599167	0,1	0,019367
0,600833	0,1	0,055617
0,602500	0,1	0,022753
0,604167	0,1	-0,001121
0,605833	0,1	0,053811
0,607500	0,1	0,058294
0,609167	0,1	0,052500
0,610833	0,1	0,035296
0,612500	0,1	0,074605
0,614167	0,1	0,028428
0,615833	0,1	0,072304
0,617500	0,1	0,040994
0,619167	0,1	0,009045
0,620833	0,1	0,045118
0,622500	0,1	0,061874
0,624167	0,1	0,054881
0,625833	0,1	0,051402
0,627500	0,1	0,070447
0,629167	0,1	0,065026
0,630833	0,1	0,072500
0,632500	0,1	0,100262
0,634167	0,1	0,056321
0,635833	0,1	0,086367
0,637500	0,1	0,104140
0,639167	0,1	0,030010
0,640833	0,1	0,094083
0,642500	0,1	0,076004
0,644167	0,1	0,098088
0,645833	0,1	0,069031
0,647500	0,1	0,063412
0,649167	0,1	0,083267
0,650833	0,1	0,122586
0,652500	0,1	0,080919
0,654167	0,1	0,092313
0,655833	0,1	0,100516
0,657500	0,1	0,121119
0,659167	0,1	0,085099
0,660833	0,1	0,076461
0,662500	0,1	0,099021
0,664167	0,1	0,090829
0,665833	0,1	0,112006
0,667500	0,1	0,098762
0,669167	0,1	0,110083
0,670833	0,1	0,093728
0,672500	0,1	0,112007
0,674167	0,1	0,108389
0,675833	0,1	0,128035
0,677500	0,1	0,137752
0,679167	0,1	0,075128
0,680833	0,1	0,101962
0,682500	0,1	0,129755
0,684167	0,1	0,116696
0,685833	0,1	0,127066
0,687500	0,1	0,138105
0,689167	0,1	0,138953
0,690833	0,1	0,090924
0,692500	0,1	0,116437
0,694167	0,1	0,119614
0,695833	0,1	0,134581
0,697500	0,1	0,113942
0,699167	0,1	0,163110
0,700833	0,1	0,148446
0,702500	0,1	0,170947
0,704167	0,1	0,172564
0,705833	0,1	0,173896
0,707500	0,1	0,173583
0,709167	0,1	0,171594
0,710833	0,1	0,214958
0,712500	0,1	0,186885
0,714167	0,1	0,191335
0,715833	0,1	0,174369
0,717500	0,1	0,195762
0,719167	0,1	0,227449
0,720833	0,1	0,197450
0,722500	0,1	0,195993
0,724167	0,1	0,216662
0,725833	0,1	0,208837
0,727500	0,1	0,211052
0,729167	0,1	0,188961
0,730833	0,1	0,247476
0,732500	0,1	0,219242
0,734167	0,1	0,196376
0,735833	0,1	0,190153
0,737500	0,1	0,221445
0,739167	0,1	0,205982
0,740833	0,1	0,225175
0,742500	0,1	0,235514
0,744167	0,1	0,231980
0,745833	0,1	0,268396
0,747500	0,1	0,291797
0,749167	0,1	0,235681
0,750833	0,1	0,247424
0,752500	0,1	0,218752
0,754167	0,1	0,248616
0,755833	0,1	0,258605
0,757500	0,1	0,253825
0,759167	0,1	0,234462
0,760833	0,1	0,245572
0,762500	0,1	0,236449
0,764167	0,1	0,190907
0,765833	0,1	0,230784
0,767500	0,1	0,207418
0,769167	0,1	0,185069
0,770833	0,1	0,249275
0,772500	0,1	0,207147
0,774167	0,1	0,236314
0,775833	0,1	0,229940
0,777500	0,1	0,276805
0,779167	0,1	0,225480
0,780833	0,1	0,253943
0,782500	0,1	0,212308
0,784167	0,1	0,240773
0,785833	0,1	0,238500
0,787500	0,1	0,234686
0,789167	0,1	0,180393
0,790833	0,1	0,238749
0,792500	0,1	0,179590
0,794167	0,1	0,210175
0,795833	0,1	0,238657
0,797500	0,1	0,217956
0,799167	0,1	0,196868
0,800833	0,1	0,255835
0,802500	0,1	0,238668
0,804167	0,1	0,189445
0,805833	0,1	0,228279
0,807500	0,1	0,192665
0,809167	0,1	0,259876
0,810833	0,1	0,215406
0,812500	0,1	0,199889
0,814167	0,1	0,235004
0,815833	0,1	0,208100
0,817500	0,1	0,240973
0,819167	0,1	0,211537
0,820833	0,1	0,212499
0,822500	0,1	0,211179
0,824167	0,1	0,237701
0,825833	0,1	0,223382
0,827500	0,1	0,215586
0,829167	0,1	0,193330
0,830833	0,1	0,220840
0,832500	0,1	0,207164
0,834167	0,1	0,230185
0,835833	0,1	0,171922
0,837500	0,1	0,277838
0,839167	0,1	0,246477
0,840833	0,1	0,230797
0,842500	0,1	0,235225
0,844167	0,1	0,228782
0,845833	0,1	0,207595
0,847500	0,1	0,198815
0,849167	0,1	0,199494
0,850833	0,1	0,227840
0,852500	0,1	0,210111
0,854167	0,1	0,242798
0,855833	0,1	0,204740
0,857500	0,1	0,248385
0,859167	0,1	0,196710
0,860833	0,1	0,219143
0,862500	0,1	0,246589
0,864167	0,1	0,222490
0,865833	0,1	0,236872
0,867500	0,1	0,240236
0,869167	0,1	0,213148
0,870833	0,1	0,259228
0,872500	0,1	0,233369
0,874167	0,1	0,203831
0,875833	0,1	0,248286
0,877500	0,1	0,234398
0,879167	0,1	0,217703
0,880833	0,1	0,256131
0,882500	0,1	0,239536
0,884167	0,1	0,246432
0,885833	0,1	0,232372
0,887500	0,1	0,246241
0,889167	0,1	0,279339
0,890833	0,1	0,212428
0,892500	0,1	0,238115
0,894167	0,1	0,245726
0,895833	0,1	0,264926
0,897500	0,1	0,219825
0,899167	0,1	0,259114
0,900833	0,1	0,237385
0,902500	0,1	0,267755
0,904167	0,1	0,243706
0,905833	0,1	0,264347
0,907500	0,1	0,234780
0,909167	0,1	0,261650
0,910833	0,1	0,265572
0,912500	0,1	0,253637
0,914167	0,1	0,248586
0,915833	0,1	0,271537
0,917500	0,1	0,284808
0,919167	0,1	0,246857
0,920833	0,1	0,263579
0,922500	0,1	0,253953
0,924167	0,1	0,231894
0,925833	0,1	0,219592
0,927500	0,1	0,246880
0,929167	0,1	0,272982
0,930833	0,1	0,260628
0,932500	0,1	0,254341
0,934167	0,1	0,276548
0,935833	0,1	0,266190
0,937500	0,1	0,227970
0,939167	0,1	0,248580
0,940833	0,1	0,254528
0,942500	0,1	0,235356
0,944167	0,1	0,244252
0,945833	0,1	0,227173
0,947500	0,1	0,290250
0,949167	0,1	0,236877
0,950833	0,1	0,287269
0,952500	0,1	0,258488
0,954167	0,1	0,288233
0,955833	0,1	0,261688
0,957500	0,1	0,271739
0,959167	0,1	0,255842
0,960833	0,1	0,280464
0,962500	0,1	0,306542
0,964167	0,1	0,280150
0,965833	0,1	0,262780
0,967500	0,1	0,274270
0,969167	0,1	0,294983
0,970833	0,1	0,285193
0,972500	0,1	0,262466
0,974167	0,1	0,261429
0,975833	0,1	0,282164
0,977500	0,1	0,296105
0,979167	0,1	0,300287
0,980833	0,1	0,313927
0,982500	0,1	0,296403
0,984167	0,1	0,315147
0,985833	0,1	0,304270
0,987500	0,1	0,342958
0,989167	0,1	0,309342
0,990833	0,1	0,325559
0,992500	0,1	0,297463
0,994167	0,1	0,313572
0,995833	0,1	0,326157
0,997500	0,1	0,298016
0,999167	0,1	0,313094
1,000833	0,1	0,353877
1,002500	0,1	0,381268
1,004167	0,1	0,378775
1,005833	0,1	0,354020
1,007500	0,1	0,295281
1,009167	0,1	0,377083
1,010833	0,1	0,382691
1,012500	0,1	0,363329
1,014167	0,1	0,379604
1,015833	0,1	0,373701
1,017500	0,1	0,431693
1,019167	0,1	0,425990
1,020833	0,1	0,430520
1,022500	0,1	0,432476
1,024167	0,1	0,411669
1,025833	0,1	0,440119
1,027500	0,1	0,437329
1,029167	0,1	0,467262
1,030833	0,1	0,507160
1,032500	0,1	0,475981
1,034167	0,1	0,471669
1,035833	0,1	0,468136
1,037500	0,1	0,462483
1,039167	0,1	0,517823
1,040833	0,1	0,447303
1,042500	0,1	0,516792
1,044167	0,1	0,539036
1,045833	0,1	0,515593
1,047500	0,1	0,574594
1,049167	0,1	0,570111
1,050833	0,1	0,555335
1,052500	0,1	0,588100
1,054167	0,1	0,644330
1,055833	0,1	0,684412
1,057500	0,1	0,736229
1,059167	0,1	0,805139
1,060833	0,1	0,878550
1,062500	0,1	0,984004
1,064167	0,1	1,192508
1,065833	0,1	1,310520
1,067500	0,1	1,578867
1,069167	0,1	1,881060
1,070833	0,1	2,277561
1,072500	0,1	2,783776
1,074167	0,1	3,318494
1,075833	0,1	4,039848
1,077500	0,1	4,823937
1,079167	0,1	5,782932
1,080833	0,1	6,848106
1,082500	0,1	8,095904
1,084167	0,1	9,382888
1,085833	0,1	10,852187
1,087500	0,1	12,457272
1,089167	0,1	14,168896
1,090833	0,1	16,005113
1,092500	0,1	17,793283
1,094167	0,1	19,713984
1,095833	0,1	21,642109
1,097500	0,1	23,560848
1,099167	0,1	25,387372
1,100833	0,1	27,142532
1,102500	0,1	28,825853
1,104167	0,1	30,400414
1,105833	0,1	31,813556
1,107500	0,1	33,035234
1,109167	0,1	34,202800
1,110833	0,1	35,166117
1,112500	0,1	35,896643
1,114167	0,1	36,577283
1,115833	0,1	36,988560
1,117500	0,1	37,399443
1,119167	0,1	37,587705
1,120833	0,1	37,671051
1,122500	0,1	37,659157
1,124167	0,1	37,674785
1,125833	0,1	37,510597
1,127500	0,1	37,310075
1,129167	0,1	37,129661
1,130833	0,1	36,946308
1,132500	0,1	36,622695
1,134167	0,1	36,462548
1,135833	0,1	36,245304
1,137500	0,1	36,145973
1,139167	0,1	36,004889
1,140833	0,1	35,954176
1,142500	0,1	35,951643
1,144167	0,1	35,990646
1,145833	0,1	36,198690
1,147500	0,1	36,435697
1,149167	0,1	36,703320
1,150833	0,1	37,120431
1,152500	0,1	37,576910
1,154167	0,1	38,087146
1,155833	0,1	38,774787
1,157500	0,1	39,467184
1,159167	0,1	40,194687
1,160833	0,1	40,957979
1,162500	0,1	41,775941
1,164167	0,1	42,616514
1,165833	0,1	43,494701
1,167500	0,1	44,265728
1,169167	0,1	45,105924
1,170833	0,1	45,916741
1,172500	0,1	46,676375
1,174167	0,1	47,369074
1,175833	0,1	48,007211
1,177500	0,1	48,651175
1,179167	0,1	49,199104
1,180833	0,1	49,737925
1,182500	0,1	50,091597
1,184167	0,1	50,512167
1,185833	0,1	50,820486
1,187500	0,1	51,064653
1,189167	0,1	51,290484
1,190833	0,1	51,452991
1,192500	0,1	51,696741
1,194167	0,1	51,858517
1,195833	0,1	52,087925
1,197500	0,1	52,252098
1,199167	0,1	52,645500
1,200833	0,1	52,992174
1,202500	0,1	53,498223
1,204167	0,1	54,177998
1,205833	0,1	54,991333
1,207500	0,1	55,880418
1,209167	0,1	57,075411
1,210833	0,1	58,511837
1,212500	0,1	60,030062
1,214167	0,1	61,822092
1,215833	0,1	63,794298
1,217500	0,1	65,946600
1,219167	0,1	68,327414
1,220833	0,1	70,897387
1,222500	0,1	73,654988
1,224167	0,1	76,515207
1,225833	0,1	79,371167
1,227500	0,1	82,397800
1,229167	0,1	85,384486
1,230833	0,1	88,368879
1,232500	0,1	91,358402
1,234167	0,1	94,191672
1,235833	0,1	96,982746
1,237500	0,1	99,620630
1,239167	0,1	102,052594
1,240833	0,1	104,359122
1,242500	0,1	106,446969
1,244167	0,1	108,323958
1,245833	0,1	109,947269
1,247500	0,1	111,371703
1,249167	0,1	112,525750
1,250833	0,1	113,458999
1,252500	0,1	114,196459
1,254167	0,1	114,650975
1,255833	0,1	114,832553
1,257500	0,1	114,787789
1,259167	0,1	114,569279
1,260833	0,1	114,062177
1,262500	0,1	113,323616
1,264167	0,1	112,450138
1,265833	0,1	111,406794
1,267500	0,1	110,035599
1,269167	0,1	108,638636
1,270833	0,1	107,022511
1,272500	0,1	105,233568
1,274167	0,1	103,346383
1,275833	0,1	101,355796
1,277500	0,1	99,219054
1,279167	0,1	96,993322
1,280833	0,1	94,732570
1,282500	0,1	92,371412
1,284167	0,1	90,034610
1,285833	0,1	87,565785
1,287500	0,1	85,187109
1,289167	0,1	82,715789
1,290833	0,1	80,294026
1,292500	0,1	77,903108
1,294167	0,1	75,529837
1,295833	0,1	73,217241
1,297500	0,1	70,874059
1,299167	0,1	68,683722
1,300833	0,1	66,516436
1,302500	0,1	64,352776
1,304167	0,1	62,284055
1,305833	0,1	60,277478
1,307500	0,1	58,367685
1,309167	0,1	56,521802
1,310833	0,1	54,782909
1,312500	0,1	53,028007
1,314167	0,1	51,392317
1,315833	0,1	49,834998
1,317500	0,1	48,302376
1,319167	0,1	46,857549
1,320833	0,1	45,512455
1,322500	0,1	44,188556
1,324167	0,1	42,918496
1,325833	0,1	41,714802
1,327500	0,1	40,513551
1,329167	0,1	39,410247
1,330833	0,1	38,325579
1,332500	0,1	37,256200
1,334167	0,1	36,320144
1,335833	0,1	35,343376
1,337500	0,1	34,381201
1,339167	0,1	33,569256
1,340833	0,1	32,688734
1,342500	0,1	31,881500
1,344167	0,1	31,051038
1,345833	0,1	30,302636
1,347500	0,1	29,571614
1,349167	0,1	28,889383
1,350833	0,1	28,158997
1,352500	0,1	27,452974
1,354167	0,1	26,813922
1,355833	0,1	26,171614
1,357500	0,1	25,551361
1,359167	0,1	24,915425
1,360833	0,1	24,337882
1,362500	0,1	23,759177
1,364167	0,1	23,242335
1,365833	0,1	22,697043
1,367500	0,1	22,122521
1,369167	0,1	21,631035
1,370833	0,1	21,118595
1,372500	0,1	20,630783
1,374167	0,1	20,130508
1,375833	0,1	19,710650
1,377500	0,1	19,209956
1,379167	0,1	18,789085
1,380833	0,1	18,369844
1,382500	0,1	17,971371
1,384167	0,1	17,558533
1,385833	0,1	17,139688
1,387500	0,1	16,799848
1,389167	0,1	16,359807
1,390833	0,1	16,043190
1,392500	0,1	15,673626
1,394167	0,1	15,360331
1,395833	0,1	15,009932
1,397500	0,1	14,674153
1,399167	0,1	14,334656
1,400833	0,1	14,109994
1,402500	0,1	13,769050
1,404167	0,1	13,515420
1,405833	0,1	13,250467
1,407500	0,1	12,945573
1,409167	0,1	12,719842
1,410833	0,1	12,469856
1,412500	0,1	12,272004
1,414167	0,1	12,017686
1,415833	0,1	11,807521
1,417500	0,1	11,595514
1,419167	0,1	11,461248
1,420833	0,1	11,203039
1,422500	0,1	11,029615
1,424167	0,1	10,805713
1,425833	0,1	10,691320
1,427500	0,1	10,486163
1,429167	0,1	10,336369
1,430833	0,1	10,187802
1,432500	0,1	9,987236
1,434167	0,1	9,832432
1,435833	0,1	9,682862
1,437500	0,1	9,526743
1,439167	0,1	9,425614
1,440833	0,1	9,254097
1,442500	0,1	9,135083
1,444167	0,1	9,020166
1,445833	0,1	8,875471
1,447500	0,1	8,719119
1,449167	0,1	8,612537
1,450833	0,1	8,479392
1,452500	0,1	8,365153
1,454167	0,1	8,282357
1,455833	0,1	8,181157
1,457500	0,1	8,130789
1,459167	0,1	7,979995
1,460833	0,1	7,905806
1,462500	0,1	7,812430
1,464167	0,1	7,684804
1,465833	0,1	7,593711
1,467500	0,1	7,549098
1,469167	0,1	7,468413
1,470833	0,1	7,402628
1,472500	0,1	7,318819
1,474167	0,1	7,234349
1,475833	0,1	7,158377
1,477500	0,1	7,106924
1,479167	0,1	6,998561
1,480833	0,1	6,921506
1,482500	0,1	6,908823
1,484167	0,1	6,818953
1,485833	0,1	6,791654
1,487500	0,1	6,727873
1,489167	0,1	6,698896
1,490833	0,1	6,649944
1,492500	0,1	6,595288
1,494167	0,1	6,593515
1,495833	0,1	6,537107
1,497500	0,1	6,466569
1,499167	0,1	6,464416
1,500833	0,1	6,410629
1,502500	0,1	6,404111
1,504167	0,1	6,419097
1,505833	0,1	6,371375
1,507500	0,1	6,349056
1,509167	0,1	6,306361
1,510833	0,1	6,287802
1,512500	0,1	6,276400
1,514167	0,1	6,270989
1,515833	0,1	6,281985
1,517500	0,1	6,265714
1,519167	0,1	6,221336
1,520833	0,1	6,210708
1,522500	0,1	6,172319
1,524167	0,1	6,137728
1,525833	0,1	6,154089
1,527500	0,1	6,126085
1,529167	0,1	6,103596
1,530833	0,1	6,074502
1,532500	0,1	6,067768
1,534167	0,1	6,044726
1,535833	0,1	5,992689
1,537500	0,1	5,961924
1,539167	0,1	5,960334
1,540833	0,1	5,974099
1,542500	0,1	5,918041
1,544167	0,1	5,889336
1,545833	0,1	5,899173
1,547500	0,1	5,863669
1,549167	0,1	5,844256
1,550833	0,1	5,770296
1,552500	0,1	5,817904
1,554167	0,1	5,799567
1,555833	0,1	5,717358
1,557500	0,1	5,727458
1,559167	0,1	5,672396
1,560833	0,1	5,642895
1,562500	0,1	5,641762
1,564167	0,1	5,589588
1,565833	0,1	5,619167
1,567500	0,1	5,540404
1,569167	0,1	5,556546
1,570833	0,1	5,513378
1,572500	0,1	5,473619
1,574167	0,1	5,450156
1,575833	0,1	5,451731
1,577500	0,1	5,409564
1,579167	0,1	5,394586
1,580833	0,1	5,308946
1,582500	0,1	5,283311
1,584167	0,1	5,278871
1,585833	0,1	5,230783
1,587500	0,1	5,219844
1,589167	0,1	5,216306
1,590833	0,1	5,145277
1,592500	0,1	5,123749
1,594167	0,1	5,107118
1,595833	0,1	5,060541
1,597500	0,1	5,018029
1,599167	0,1	5,001761
1,600833	0,1	4,958411
1,602500	0,1	4,946321
1,604167	0,1	4,902082
1,605833	0,1	4,875099
1,607500	0,1	4,861467
1,609167	0,1	4,805069
1,610833	0,1	4,835117
1,612500	0,1	4,806474
1,614167	0,1	4,749014
1,615833	0,1	4,698888
1,617500	0,1	4,683522
1,619167	0,1	4,648296
1,620833	0,1	4,658119
1,622500	0,1	4,631651
1,624167	0,1	4,633190
1,625833	0,1	4,620385
1,627500	0,1	4,563208
1,629167	0,1	4,519059
1,630833	0,1	4,520225
1,632500	0,1	4,489628
1,634167	0,1	4,480341
1,635833	0,1	4,482487
1,637500	0,1	4,482890
1,639167	0,1	4,484632
1,640833	0,1	4,475520
1,642500	0,1	4,469035
1,644167	0,1	4,492283
1,645833	0,1	4,493108
1,647500	0,1	4,505829
1,649167	0,1	4,538652
1,650833	0,1	4,529263
1,652500	0,1	4,549652
1,654167	0,1	4,620530
1,655833	0,1	4,681676
1,657500	0,1	4,670016
1,659167	0,1	4,755252
1,660833	0,1	4,848859
1,662500	0,1	4,908318
1,664167	0,1	5,016129
1,665833	0,1	5,064444
1,667500	0,1	5,209243
1,669167	0,1	5,302123
1,670833	0,1	5,446411
1,672500	0,1	5,594502
1,674167	0,1	5,726828
1,675833	0,1	5,931359
1,677500	0,1	6,108487
1,679167	0,1	6,293892
1,680833	0,1	6,511746
1,682500	0,1	6,719234
1,684167	0,1	6,972201
1,685833	0,1	7,236970
1,687500	0,1	7,485406
1,689167	0,1	7,797680
1,690833	0,1	8,063938
1,692500	0,1	8,405929
1,694167	0,1	8,763903
1,695833	0,1	9,074238
1,697500	0,1	9,459837
1,699167	0,1	9,824491
1,700833	0,1	10,214025
1,702500	0,1	10,593692
1,704167	0,1	11,063744
1,705833	0,1	11,481408
1,707500	0,1	11,943390
1,709167	0,1	12,347323
1,710833	0,1	12,812117
1,712500	0,1	13,257021
1,714167	0,1	13,804011
1,715833	0,1	14,241881
1,717500	0,1	14,725599
1,719167	0,1	15,191943
1,720833	0,1	15,674887
1,722500	0,1	16,184990
1,724167	0,1	16,688624
1,725833	0,1	17,179901
1,727500	0,1	17,649421
1,729167	0,1	18,161213
1,730833	0,1	18,613762
1,732500	0,1	19,121104
1,734167	0,1	19,582446
1,735833	0,1	19,987385
1,737500	0,1	20,481474
1,739167	0,1	20,916638
1,740833	0,1	21,321247
1,742500	0,1	21,693307
1,744167	0,1	22,138115
1,745833	0,1	22,515212
1,747500	0,1	22,889920
1,749167	0,1	23,223253
1,750833	0,1	23,559873
1,752500	0,1	23,891075
1,754167	0,1	24,188688
1,755833	0,1	24,465149
1,757500	0,1	24,690916
1,759167	0,1	24,962184
1,760833	0,1	25,158271
1,762500	0,1	25,341073
1,764167	0,1	25,550488
1,765833	0,1	25,742339
1,767500	0,1	25,814165
1,769167	0,1	25,922249
1,770833	0,1	26,061132
1,772500	0,1	26,115465
1,774167	0,1	26,163861
1,775833	0,1	26,209127
1,777500	0,1	26,176358
1,779167	0,1	26,134073
1,780833	0,1	26,119236
1,782500	0,1	26,078478
1,784167	0,1	26,039410
1,785833	0,1	25,930909
1,787500	0,1	25,808369
1,789167	0,1	25,666482
1,790833	0,1	25,503030
1,792500	0,1	25,343477
1,794167	0,1	25,190596
1,795833	0,1	24,995102
1,797500	0,1	24,781250
1,799167	0,1	24,542589
1,800833	0,1	24,313775
1,802500	0,1	24,051601
1,804167	0,1	23,780543
1,805833	0,1	23,567797
1,807500	0,1	23,267677
1,809167	0,1	22,927469
1,810833	0,1	22,704676
1,812500	0,1	22,319929
1,814167	0,1	22,060464
1,815833	0,1	21,701707
1,817500	0,1	21,424066
1,819167	0,1	21,035482
1,820833	0,1	20,744333
1,822500	0,1	20,364485
1,824167	0,1	20,037127
1,825833	0,1	19,700667
1,827500	0,1	19,346901
1,829167	0,1	18,990849
1,830833	0,1	18,649368
1,832500	0,1	18,330845
1,834167	0,1	17,939457
1,835833	0,1	17,646240
1,837500	0,1	17,288208
1,839167	0,1	16,995736
1,840833	0,1	16,654971
1,842500	0,1	16,337112
1,844167	0,1	16,067418
1,845833	0,1	15,764379
1,847500	0,1	15,475247
1,849167	0,1	15,241606
1,850833	0,1	14,909895
1,852500	0,1	14,692095
1,854167	0,1	14,368007
1,855833	0,1	14,142497
1,857500	0,1	13,949717
1,859167	0,1	13,693972
1,860833	0,1	13,478140
1,862500	0,1	13,230005
1,864167	0,1	13,011347
1,865833	0,1	12,845804
1,867500	0,1	12,632833
1,869167	0,1	12,418320
1,870833	0,1	12,207005
1,872500	0,1	12,015465
1,874167	0,1	11,813278
1,875833	0,1	11,642432
1,877500	0,1	11,419304
1,879167	0,1	11,278465
1,880833	0,1	11,137145
1,882500	0,1	10,952990
1,884167	0,1	10,753939
1,885833	0,1	10,625986
1,887500	0,1	10,423427
1,889167	0,1	10,272235
1,890833	0,1	10,117366
1,892500	0,1	9,964959
1,894167	0,1	9,858318
1,895833	0,1	9,714151
1,897500	0,1	9,541482
1,899167	0,1	9,414844
1,900833	0,1	9,288490
1,902500	0,1	9,191253
1,904167	0,1	9,024561
1,905833	0,1	8,880496
1,907500	0,1	8,773401
1,909167	0,1	8,660280
1,910833	0,1	8,586772
1,912500	0,1	8,454168
1,914167	0,1	8,321500
1,915833	0,1	8,236351
1,917500	0,1	8,087525
1,919167	0,1	7,983613
1,920833	0,1	7,962863
1,922500	0,1	7,830276
1,924167	0,1	7,689615
1,925833	0,1	7,655429
1,927500	0,1	7,499566
1,929167	0,1	7,421493
1,930833	0,1	7,333720
1,932500	0,1	7,252054
1,934167	0,1	7,159025
1,935833	0,1	7,102446
1,937500	0,1	7,023710
1,939167	0,1	6,962868
1,940833	0,1	6,836006
1,942500	0,1	6,789053
1,944167	0,1	6,692137
1,945833	0,1	6,594178
1,947500	0,1	6,521215
1,949167	0,1	6,501001
1,950833	0,1	6,384880
1,952500	0,1	6,337449
1,954167	0,1	6,305829
1,955833	0,1	6,238281
1,957500	0,1	6,140551
1,959167	0,1	6,103971
1,960833	0,1	6,081009
1,962500	0,1	5,955706
1,964167	0,1	5,938512
1,965833	0,1	5,933867
1,967500	0,1	5,852777
1,969167	0,1	5,800508
1,970833	0,1	5,771216
1,972500	0,1	5,738874
1,974167	0,1	5,670341
1,975833	0,1	5,630043
1,977500	0,1	5,621236
1,979167	0,1	5,562697
1,980833	0,1	5,535365
1,982500	0,1	5,561853
1,984167	0,1	5,548795
1,985833	0,1	5,505382
1,987500	0,1	5,515423
1,989167	0,1	5,457445
1,990833	0,1	5,473565
1,992500	0,1	5,418884
1,994167	0,1	5,406613
1,995833	0,1	5,397820
1,997500	0,1	5,418019
1,999167	0,1	5,393400
2,000833	0,1	5,409533
2,002500	0,1	5,377093
2,004167	0,1	5,384537
2,005833	0,1	5,405219
2,007500	0,1	5,313434
2,009167	0,1	5,389697
2,010833	0,1	5,398660
2,012500	0,1	5,407649
2,014167	0,1	5,373023
2,015833	0,1	5,420550
2,017500	0,1	5,404687
2,019167	0,1	5,425386
2,020833	0,1	5,393144
2,022500	0,1	5,469782
2,024167	0,1	5,472897
2,025833	0,1	5,455853
2,027500	0,1	5,485737
2,029167	0,1	5,482364
2,030833	0,1	5,545420
2,032500	0,1	5,535014
2,034167	0,1	5,534059
2,035833	0,1	5,614604
2,037500	0,1	5,550931
2,039167	0,1	5,593507
2,040833	0,1	5,629353
2,042500	0,1	5,638764
2,044167	0,1	5,631249
2,045833	0,1	5,692457
2,047500	0,1	5,690027
2,049167	0,1	5,725413
2,050833	0,1	5,731381
2,052500	0,1	5,748267
2,054167	0,1	5,814051
2,055833	0,1	5,843716
2,057500	0,1	5,871037
2,059167	0,1	5,901947
2,060833	0,1	5,894182
2,062500	0,1	5,941205
2,064167	0,1	5,964544
2,065833	0,1	5,944546
2,067500	0,1	5,988200
2,069167	0,1	6,041203
2,070833	0,1	6,018178
2,072500	0,1	6,096070
2,074167	0,1	6,077665
2,075833	0,1	6,124319
2,077500	0,1	6,115576
2,079167	0,1	6,167179
2,080833	0,1	6,177718
2,082500	0,1	6,173816
2,084167	0,1	6,204952
2,085833	0,1	6,226439
2,087500	0,1	6,272582
2,089167	0,1	6,288765
2,090833	0,1	6,288130
2,092500	0,1	6,306817
2,094167	0,1	6,331541
2,095833	0,1	6,365323
2,097500	0,1	6,392606
2,099167	0,1	6,395008
2,100833	0,1	6,405988
2,102500	0,1	6,402084
2,104167	0,1	6,419006
2,105833	0,1	6,429147
2,107500	0,1	6,445637
2,109167	0,1	6,438287
2,110833	0,1	6,442458
2,112500	0,1	6,475309
2,114167	0,1	6,493362
2,115833	0,1	6,490573
2,117500	0,1	6,466376
2,119167	0,1	6,521571
2,120833	0,1	6,556006
2,122500	0,1	6,542792
2,124167	0,1	6,550983
2,125833	0,1	6,518321
2,127500	0,1	6,502849
2,129167	0,1	6,536643
2,130833	0,1	6,540182
2,132500	0,1	6,531814
2,134167	0,1	6,543164
2,135833	0,1	6,543153
2,137500	0,1	6,499331
2,139167	0,1	6,514784
2,140833	0,1	6,501278
2,142500	0,1	6,544089
2,144167	0,1	6,533670
2,145833	0,1	6,486863
2,147500	0,1	6,501462
2,149167	0,1	6,534038
2,150833	0,1	6,484152
2,152500	0,1	6,470297
2,154167	0,1	6,469742
2,155833	0,1	6,454006
2,157500	0,1	6,464322
2,159167	0,1	6,442390
2,160833	0,1	6,430291
2,162500	0,1	6,395306
2,164167	0,1	6,419095
2,165833	0,1	6,424780
2,167500	0,1	6,388595
2,169167	0,1	6,377057
2,170833	0,1	6,351661
2,172500	0,1	6,331002
2,174167	0,1	6,365613
2,175833	0,1	6,330754
2,177500	0,1	6,317795
2,179167	0,1	6,314087
2,180833	0,1	6,271862
2,182500	0,1	6,273994
2,184167	0,1	6,284209
2,185833	0,1	6,276040
2,187500	0,1	6,205372
2,189167	0,1	6,181250
2,190833	0,1	6,181637
2,192500	0,1	6,168635
2,194167	0,1	6,142218
2,195833	0,1	6,115491
2,197500	0,1	6,120832
2,199167	0,1	6,094972
2,200833	0,1	6,072103
2,202500	0,1	6,093008
2,204167	0,1	6,033138
2,205833	0,1	6,016977
2,207500	0,1	6,023479
2,209167	0,1	6,009641
2,210833	0,1	5,977186
2,212500	0,1	5,959319
2,214167	0,1	5,963350
2,215833	0,1	5,932646
2,217500	0,1	5,940281
2,219167	0,1	5,902841
2,220833	0,1	5,922874
2,222500	0,1	5,878457
2,224167	0,1	5,885071
2,225833	0,1	5,925695
2,227500	0,1	5,859983
2,229167	0,1	5,873691
2,230833	0,1	5,803150
2,232500	0,1	5,809230
2,234167	0,1	5,786192
2,235833	0,1	5,808663
2,237500	0,1	5,798284
2,239167	0,1	5,764750
2,240833	0,1	5,752671
2,242500	0,1	5,797831
2,244167	0,1	5,757493
2,245833	0,1	5,734919
2,247500	0,1	5,723532
2,249167	0,1	5,754261
2,250833	0,1	5,690430
2,252500	0,1	5,735924
2,254167	0,1	5,711373
2,255833	0,1	5,726844
2,257500	0,1	5,680149
2,259167	0,1	5,654551
2,260833	0,1	5,668061
2,262500	0,1	5,616412
2,264167	0,1	5,615644
2,265833	0,1	5,652171
2,267500	0,1	5,658571
2,269167	0,1	5,621395
2,270833	0,1	5,603750
2,272500	0,1	5,580370
2,274167	0,1	5,580471
2,275833	0,1	5,570767
2,277500	0,1	5,571673
2,279167	0,1	5,543882
2,280833	0,1	5,568007
2,282500	0,1	5,565954
2,284167	0,1	5,519273
2,285833	0,1	5,529203
2,287500	0,1	5,527885
2,289167	0,1	5,491322
2,290833	0,1	5,484688
2,292500	0,1	5,470668
2,294167	0,1	5,470170
2,295833	0,1	5,414185
2,297500	0,1	5,379387
2,299167	0,1	5,407817
2,300833	0,1	5,407024
2,302500	0,1	5,350742
2,304167	0,1	5,389078
2,305833	0,1	5,334693
2,307500	0,1	5,318270
2,309167	0,1	5,353368
2,310833	0,1	5,306560
2,312500	0,1	5,300127
2,314167	0,1	5,283924
2,315833	0,1	5,230556
2,317500	0,1	5,269704
2,319167	0,1	5,276636
2,320833	0,1	5,233517
2,322500	0,1	5,225937
2,324167	0,1	5,212529
2,325833	0,1	5,168365
2,327500	0,1	5,194951
2,329167	0,1	5,171638
2,330833	0,1	5,177899
2,332500	0,1	5,115683
2,334167	0,1	5,139379
2,335833	0,1	5,112994
2,337500	0,1	5,136980
2,339167	0,1	5,078670
2,340833	0,1	5,084357
2,342500	0,1	5,116057
2,344167	0,1	5,111998
2,345833	0,1	5,017392
2,347500	0,1	5,017850
2,349167	0,1	5,005715
2,350833	0,1	5,028910
2,352500	0,1	5,016049
2,354167	0,1	4,947503
2,355833	0,1	4,994580
2,357500	0,1	4,961071
2,359167	0,1	4,972403
2,360833	0,1	4,960136
2,362500	0,1	4,944413
2,364167	0,1	4,947767
2,365833	0,1	4,907304
2,367500	0,1	4,913983
2,369167	0,1	4,925528
2,370833	0,1	4,902672
2,372500	0,1	4,901537
2,374167	0,1	4,919341
2,375833	0,1	4,920162
2,377500	0,1	4,925383
2,379167	0,1	4,965453
2,380833	0,1	4,988094
2,382500	0,1	4,965300
2,384167	0,1	4,997295
2,385833	0,1	4,990104
2,387500	0,1	5,043865
2,389167	0,1	5,090643
2,390833	0,1	5,087832
2,392500	0,1	5,159359
2,394167	0,1	5,229390
2,395833	0,1	5,272490
2,397500	0,1	5,305401
2,399167	0,1	5,425449
2,400833	0,1	5,455410
2,402500	0,1	5,510343
2,404167	0,1	5,636545
2,405833	0,1	5,699308
2,407500	0,1	5,861369
2,409167	0,1	5,926268
2,410833	0,1	6,059611
2,412500	0,1	6,159062
2,414167	0,1	6,334301
2,415833	0,1	6,524327
2,417500	0,1	6,654650
2,419167	0,1	6,843855
2,420833	0,1	7,020109
2,422500	0,1	7,195778
2,424167	0,1	7,394268
2,425833	0,1	7,600212
2,427500	0,1	7,802364
2,429167	0,1	8,042500
2,430833	0,1	8,259727
2,432500	0,1	8,508329
2,434167	0,1	8,743804
2,435833	0,1	8,974201
2,437500	0,1	9,217185
2,439167	0,1	9,474051
2,440833	0,1	9,749768
2,442500	0,1	9,998601
2,444167	0,1	10,192068
2,445833	0,1	10,496073
2,447500	0,1	10,725274
2,449167	0,1	10,962598
2,450833	0,1	11,243199
2,452500	0,1	11,485521
2,454167	0,1	11,715828
2,455833	0,1	11,977565
2,457500	0,1	12,196261
2,459167	0,1	12,460415
2,460833	0,1	12,657352
2,462500	0,1	12,843736
2,464167	0,1	13,080768
2,465833	0,1	13,313102
2,467500	0,1	13,493417
2,469167	0,1	13,750216
2,470833	0,1	13,883495
2,472500	0,1	14,111102
2,474167	0,1	14,292412
2,475833	0,1	14,514138
2,477500	0,1	14,681637
2,479167	0,1	14,893234
2,480833	0,1	15,106054
2,482500	0,1	15,308907
2,484167	0,1	15,506396
2,485833	0,1	15,762780
2,487500	0,1	15,974999
2,489167	0,1	16,194503
2,490833	0,1	16,416536
2,492500	0,1	16,742945
2,494167	0,1	16,996234
2,495833	0,1	17,264834
2,497500	0,1	17,639824
2,499167	0,1	17,908196
2,500833	0,1	18,275879
2,502500	0,1	18,634745
2,504167	0,1	19,077050
2,505833	0,1	19,469794
2,507500	0,1	19,923467
2,509167	0,1	20,388547
2,510833	0,1	20,910648
2,512500	0,1	21,401569
2,514167	0,1	22,003855
2,515833	0,1	22,613741
2,517500	0,1	23,228614
2,519167	0,1	23,885904
2,520833	0,1	24,589966
2,522500	0,1	25,315564
2,524167	0,1	26,108982
2,525833	0,1	26,902310
2,527500	0,1	27,707985
2,529167	0,1	28,515310
2,530833	0,1	29,399545
2,532500	0,1	30,304071
2,534167	0,1	31,264190
2,535833	0,1	32,232496
2,537500	0,1	33,194971
2,539167	0,1	34,158647
2,540833	0,1	35,221424
2,542500	0,1	36,194591
2,544167	0,1	37,224216
2,545833	0,1	38,257679
2,547500	0,1	39,289428
2,549167	0,1	40,357740
2,550833	0,1	41,435244
2,552500	0,1	42,541348
2,554167	0,1	43,546513
2,555833	0,1	44,560256
2,557500	0,1	45,578658
2,559167	0,1	46,596559
2,560833	0,1	47,612278
2,562500	0,1	48,541905
2,564167	0,1	49,534758
2,565833	0,1	50,459981
2,567500	0,1	51,359194
2,569167	0,1	52,243381
2,570833	0,1	53,110030
2,572500	0,1	53,910703
2,574167	0,1	54,678908
2,575833	0,1	55,436439
2,577500	0,1	56,182467
2,579167	0,1	56,804114
2,580833	0,1	57,432732
2,582500	0,1	58,135748
2,584167	0,1	58,609857
2,585833	0,1	59,171018
2,587500	0,1	59,644573
2,589167	0,1	60,038914
2,590833	0,1	60,439314
2,592500	0,1	60,813908
2,594167	0,1	61,147726
2,595833	0,1	61,409741
2,597500	0,1	61,667383
2,599167	0,1	61,848761
2,600833	0,1	62,005786
2,602500	0,1	62,179852
2,604167	0,1	62,192954
2,605833	0,1	62,281480
2,607500	0,1	62,279855
2,609167	0,1	62,282600
2,610833	0,1	62,251905
2,612500	0,1	62,177497
2,614167	0,1	62,076011
2,615833	0,1	61,850531
2,617500	0,1	61,762913
2,619167	0,1	61,522344
2,620833	0,1	61,342422
2,622500	0,1	61,060229
2,624167	0,1	60,823337
2,625833	0,1	60,481267
2,627500	0,1	60,164654
2,629167	0,1	59,766788
2,630833	0,1	59,418123
2,632500	0,1	59,039577
2,634167	0,1	58,586941
2,635833	0,1	58,157160
2,637500	0,1	57,673807
2,639167	0,1	57,282178
2,640833	0,1	56,737275
2,642500	0,1	56,236164
2,644167	0,1	55,694014
2,645833	0,1	55,164913
2,647500	0,1	54,580225
2,649167	0,1	54,006354
2,650833	0,1	53,437499
2,652500	0,1	52,832493
2,654167	0,1	52,240235
2,655833	0,1	51,668489
2,657500	0,1	51,005484
2,659167	0,1	50,369490
2,660833	0,1	49,732793
2,662500	0,1	49,085661
2,664167	0,1	48,454285
2,665833	0,1	47,780954
2,667500	0,1	47,115210
2,669167	0,1	46,402094
2,670833	0,1	45,719946
2,672500	0,1	45,031556
2,674167	0,1	44,384259
2,675833	0,1	43,689766
2,677500	0,1	43,018169
2,679167	0,1	42,341808
2,680833	0,1	41,663856
2,682500	0,1	40,969786
2,684167	0,1	40,289480
2,685833	0,1	39,606568
2,687500	0,1	38,934960
2,689167	0,1	38,298510
2,690833	0,1	37,630352
2,692500	0,1	36,923141
2,694167	0,1	36,346836
2,695833	0,1	35,632668
2,697500	0,1	35,065670
2,699167	0,1	34,394410
2,700833	0,1	33,759099
2,702500	0,1	33,150655
2,704167	0,1	32,552596
2,705833	0,1	31,939368
2,707500	0,1	31,314423
2,709167	0,1	30,759774
2,710833	0,1	30,133254
2,712500	0,1	29,582500
2,714167	0,1	28,986203
2,715833	0,1	28,492623
2,717500	0,1	27,932665
2,719167	0,1	27,393324
2,720833	0,1	26,912852
2,722500	0,1	26,423700
2,724167	0,1	25,841134
2,725833	0,1	25,402428
2,727500	0,1	24,913306
2,729167	0,1	24,430754
2,730833	0,1	23,926190
2,732500	0,1	23,491891
2,734167	0,1	23,104556
2,735833	0,1	22,657667
2,737500	0,1	22,194252
2,739167	0,1	21,797816
2,740833	0,1	21,443553
2,742500	0,1	21,016618
2,744167	0,1	20,650011
2,745833	0,1	20,200730
2,747500	0,1	19,845514
2,749167	0,1	19,525339
2,750833	0,1	19,156488
2,752500	0,1	18,799255
2,754167	0,1	18,482663
2,755833	0,1	18,155605
2,757500	0,1	17,799203
2,759167	0,1	17,501291
2,760833	0,1	17,136278
2,762500	0,1	16,885131
2,764167	0,1	16,613018
2,765833	0,1	16,296311
2,767500	0,1	16,055937
2,769167	0,1	15,747211
2,770833	0,1	15,493599
2,772500	0,1	15,244003
2,774167	0,1	14,998542
2,775833	0,1	14,720432
2,777500	0,1	14,487081
2,779167	0,1	14,245632
2,780833	0,1	14,033704
2,782500	0,1	13,751656
2,784167	0,1	13,495262
2,785833	0,1	13,300710
2,787500	0,1	13,116941
2,789167	0,1	12,897891
2,790833	0,1	12,678883
2,792500	0,1	12,477543
2,794167	0,1	12,301084
2,795833	0,1	12,031631
2,797500	0,1	11,889307
2,799167	0,1	11,678726
2,800833	0,1	11,540352
2,802500	0,1	11,307404
2,804167	0,1	11,175335
2,805833	0,1	11,024486
2,807500	0,1	10,797257
2,809167	0,1	10,653446
2,810833	0,1	10,471309
2,812500	0,1	10,316135
2,814167	0,1	10,166862
2,815833	0,1	10,009099
2,817500	0,1	9,860888
2,819167	0,1	9,685712
2,820833	0,1	9,549924
2,822500	0,1	9,417770
2,824167	0,1	9,281245
2,825833	0,1	9,129929
2,827500	0,1	9,015170
2,829167	0,1	8,871558
2,830833	0,1	8,736439
2,832500	0,1	8,616999
2,834167	0,1	8,480656
2,835833	0,1	8,362752
2,837500	0,1	8,229151
2,839167	0,1	8,122906
2,840833	0,1	8,007102
2,842500	0,1	7,898196
2,844167	0,1	7,817715
2,845833	0,1	7,664678
2,847500	0,1	7,562792
2,849167	0,1	7,497022
2,850833	0,1	7,348284
2,852500	0,1	7,248607
2,854167	0,1	7,171145
2,855833	0,1	7,099371
2,857500	0,1	7,013928
2,859167	0,1	6,899440
2,860833	0,1	6,799315
2,862500	0,1	6,711784
2,864167	0,1	6,574096
2,865833	0,1	6,528963
2,867500	0,1	6,486332
2,869167	0,1	6,388620
2,870833	0,1	6,288376
2,872500	0,1	6,246771
2,874167	0,1	6,141880
2,875833	0,1	6,067498
2,877500	0,1	5,987165
2,879167	0,1	5,950068
2,880833	0,1	5,827068
2,882500	0,1	5,762088
2,884167	0,1	5,731357
2,885833	0,1	5,631010
2,887500	0,1	5,646974
2,889167	0,1	5,520570
2,890833	0,1	5,458377
2,892500	0,1	5,399524
2,894167	0,1	5,374394
2,895833	0,1	5,266348
2,897500	0,1	5,185685
2,899167	0,1	5,133243
2,900833	0,1	5,102237
2,902500	0,1	5,086705
2,904167	0,1	5,001104
2,905833	0,1	4,956814
2,907500	0,1	4,946756
2,909167	0,1	4,854778
2,910833	0,1	4,807175
2,912500	0,1	4,786040
2,914167	0,1	4,734141
2,915833	0,1	4,680674
2,917500	0,1	4,646725
2,919167	0,1	4,614987
2,920833	0,1	4,584540
2,922500	0,1	4,494940
2,924167	0,1	4,470277
2,925833	0,1	4,412632
2,927500	0,1	4,402080
2,929167	0,1	4,333988
2,930833	0,1	4,311089
2,932500	0,1	4,303753
2,934167	0,1	4,237379
2,935833	0,1	4,192497
2,937500	0,1	4,176938
2,939167	0,1	4,163978
2,940833	0,1	4,122967
2,942500	0,1	4,053287
2,944167	0,1	4,033522
2,945833	0,1	4,003036
2,947500	0,1	3,930179
2,949167	0,1	3,918679
2,950833	0,1	3,976914
2,952500	0,1	3,873531
2,954167	0,1	3,858428
2,955833	0,1	3,844090
2,957500	0,1	3,798382
2,959167	0,1	3,785758
2,960833	0,1	3,718687
2,962500	0,1	3,686991
2,964167	0,1	3,694700
2,965833	0,1	3,641792
2,967500	0,1	3,637875
2,969167	0,1	3,642247
2,970833	0,1	3,524974
2,972500	0,1	3,546551
2,974167	0,1	3,494473
2,975833	0,1	3,498913
2,977500	0,1	3,505379
2,979167	0,1	3,449011
2,980833	0,1	3,408385
2,982500	0,1	3,400932
2,984167	0,1	3,384088
2,985833	0,1	3,385922
2,987500	0,1	3,368982
2,989167	0,1	3,263089
2,990833	0,1	3,283785
2,992500	0,1	3,288425
2,994167	0,1	3,275443
2,995833	0,1	3,208065
2,997500	0,1	3,206049
2,999167	0,1	3,201030
3,000833	0,1	3,163885
3,002500	0,1	3,156120
3,004167	0,1	3,149009
3,005833	0,1	3,088339
3,007500	0,1	3,099672
3,009167	0,1	3,069967
3,010833	0,1	3,069011
3,012500	0,1	3,045599
3,014167	0,1	3,014237
3,015833	0,1	2,960324
3,017500	0,1	3,002152
3,019167	0,1	2,984012
3,020833	0,1	2,939375
3,022500	0,1	2,942803
3,024167	0,1	2,923533
3,025833	0,1	2,904947
3,027500	0,1	2,897354
3,029167	0,1	2,856352
3,030833	0,1	2,861472
3,032500	0,1	2,826091
3,034167	0,1	2,839159
3,035833	0,1	2,771819
3,037500	0,1	2,773688
3,039167	0,1	2,761917
3,040833	0,1	2,747784
3,042500	0,1	2,769498
3,044167	0,1	2,757419
3,045833	0,1	2,714283
3,047500	0,1	2,711965
3,049167	0,1	2,710176
3,050833	0,1	2,685134
3,052500	0,1	2,664278
3,054167	0,1	2,665904
3,055833	0,1	2,617859
3,057500	0,1	2,633950
3,059167	0,1	2,601347
3,060833	0,1	2,604141
3,062500	0,1	2,594738
3,064167	0,1	2,544468
3,065833	0,1	2,580393
3,067500	0,1	2,573140
3,069167	0,1	2,491200
3,070833	0,1	2,509030
3,072500	0,1	2,509107
3,074167	0,1	2,500723
3,075833	0,1	2,499925
3,077500	0,1	2,448369
3,079167	0,1	2,428146
3,080833	0,1	2,442826
3,082500	0,1	2,452233
3,084167	0,1	2,425212
3,085833	0,1	2,419677
3,087500	0,1	2,440894
3,089167	0,1	2,395667
3,090833	0,1	2,415938
3,092500	0,1	2,404409
3,094167	0,1	2,404827
3,095833	0,1	2,383764
3,097500	0,1	2,393146
3,099167	0,1	2,383758
3,100833	0,1	2,366120
3,102500	0,1	2,395001
3,104167	0,1	2,370066
3,105833	0,1	2,346983
3,107500	0,1	2,372355
3,109167	0,1	2,396151
3,110833	0,1	2,360317
3,112500	0,1	2,359528
3,114167	0,1	2,376939
3,115833	0,1	2,381384
3,117500	0,1	2,390064
3,119167	0,1	2,363261
3,120833	0,1	2,362107
3,122500	0,1	2,422809
3,124167	0,1	2,381978
3,125833	0,1	2,424474
3,127500	0,1	2,390290
3,129167	0,1	2,395010
3,130833	0,1	2,395229
3,132500	0,1	2,421109
3,134167	0,1	2,417744
3,135833	0,1	2,432870
3,137500	0,1	2,423054
3,139167	0,1	2,436243
3,140833	0,1	2,462122
3,142500	0,1	2,500914
3,144167	0,1	2,498634
3,145833	0,1	2,501353
3,147500	0,1	2,512478
3,149167	0,1	2,469745
3,150833	0,1	2,478622
3,152500	0,1	2,528599
3,154167	0,1	2,480796
3,155833	0,1	2,556564
3,157500	0,1	2,536150
3,159167	0,1	2,546178
3,160833	0,1	2,577723
3,162500	0,1	2,562402
3,164167	0,1	2,581761
3,165833	0,1	2,569004
3,167500	0,1	2,583552
3,169167	0,1	2,595893
3,170833	0,1	2,598772
3,172500	0,1	2,602776
3,174167	0,1	2,589011
3,175833	0,1	2,597677
3,177500	0,1	2,600334
3,179167	0,1	2,624863
3,180833	0,1	2,603217
3,182500	0,1	2,638002
3,184167	0,1	2,621016
3,185833	0,1	2,584431
3,187500	0,1	2,625006
3,189167	0,1	2,641659
3,190833	0,1	2,595606
3,192500	0,1	2,624805
3,194167	0,1	2,624932
3,195833	0,1	2,586508
3,197500	0,1	2,610160
3,199167	0,1	2,609160
3,200833	0,1	2,592876
3,202500	0,1	2,625995
3,204167	0,1	2,543046
3,205833	0,1	2,559102
3,207500	0,1	2,549197
3,209167	0,1	2,524106
3,210833	0,1	2,557352
3,212500	0,1	2,542384
3,214167	0,1	2,528834
3,215833	0,1	2,559295
3,217500	0,1	2,533702
3,219167	0,1	2,524455
3,220833	0,1	2,488814
3,222500	0,1	2,490887
3,224167	0,1	2,458337
3,225833	0,1	2,458544
3,227500	0,1	2,437109
3,229167	0,1	2,468778
3,230833	0,1	2,456527
3,232500	0,1	2,412736
3,234167	0,1	2,406343
3,235833	0,1	2,382681
3,237500	0,1	2,381750
3,239167	0,1	2,396226
3,240833	0,1	2,382746
3,242500	0,1	2,318390
3,244167	0,1	2,311346
3,245833	0,1	2,310773
3,247500	0,1	2,274219
3,249167	0,1	2,291413
3,250833	0,1	2,218250
3,252500	0,1	2,248042
3,254167	0,1	2,274417
3,255833	0,1	2,230785
3,257500	0,1	2,194304
3,259167	0,1	2,192719
3,260833	0,1	2,184193
3,262500	0,1	2,159471
3,264167	0,1	2,115909
3,265833	0,1	2,147706
3,267500	0,1	2,076721
3,269167	0,1	2,087305
3,270833	0,1	2,077135
3,272500	0,1	2,096975
3,274167	0,1	2,020692
3,275833	0,1	2,031206
3,277500	0,1	2,020964
3,279167	0,1	2,002200
3,280833	0,1	1,959576
3,282500	0,1	1,945896
3,284167	0,1	1,985931
3,285833	0,1	1,906302
3,287500	0,1	1,917456
3,289167	0,1	1,903778
3,290833	0,1	1,911578
3,292500	0,1	1,938083
3,294167	0,1	1,928006
3,295833	0,1	1,821581
3,297500	0,1	1,789565
3,299167	0,1	1,816113
3,300833	0,1	1,785698
3,302500	0,1	1,776246
3,304167	0,1	1,790338
3,305833	0,1	1,761855
3,307500	0,1	1,756486
3,309167	0,1	1,745822
3,310833	0,1	1,708458
3,312500	0,1	1,704705
3,314167	0,1	1,708013
3,315833	0,1	1,676660
3,317500	0,1	1,654970
3,319167	0,1	1,655323
3,320833	0,1	1,626191
3,322500	0,1	1,657832
3,324167	0,1	1,604317
3,325833	0,1	1,617244
3,327500	0,1	1,605655
3,329167	0,1	1,599143
3,330833	0,1	1,591989
3,332500	0,1	1,567242
3,334167	0,1	1,551975
3,335833	0,1	1,562932
3,337500	0,1	1,516137
3,339167	0,1	1,480852
3,340833	0,1	1,527088
3,342500	0,1	1,507057
3,344167	0,1	1,507997
3,345833	0,1	1,504466
3,347500	0,1	1,545708
3,349167	0,1	1,456765
3,350833	0,1	1,493508
3,352500	0,1	1,473339
3,354167	0,1	1,480404
3,355833	0,1	1,438270
3,357500	0,1	1,436852
3,359167	0,1	1,469313
3,360833	0,1	1,449432
3,362500	0,1	1,398028
3,364167	0,1	1,430321
3,365833	0,1	1,434561
3,367500	0,1	1,414223
3,369167	0,1	1,408386
3,370833	0,1	1,380472
3,372500	0,1	1,430908
3,374167	0,1	1,417675
3,375833	0,1	1,384776
3,377500	0,1	1,387932
3,379167	0,1	1,337480
3,380833	0,1	1,352507
3,382500	0,1	1,377966
3,384167	0,1	1,330634
3,385833	0,1	1,345508
3,387500	0,1	1,348833
3,389167	0,1	1,348766
3,390833	0,1	1,322379
3,392500	0,1	1,322254
3,394167	0,1	1,377567
3,395833	0,1	1,324910
3,397500	0,1	1,331740
3,399167	0,1	1,323187
3,400833	0,1	1,306452
3,402500	0,1	1,312394
3,404167	0,1	1,312885
3,405833	0,1	1,319049
3,407500	0,1	1,282268
3,409167	0,1	1,306122
3,410833	0,1	1,292377
3,412500	0,1	1,295132
3,414167	0,1	1,313407
3,415833	0,1	1,304960
3,417500	0,1	1,306855
3,419167	0,1	1,284823
3,420833	0,1	1,279704
3,422500	0,1	1,313825
3,424167	0,1	1,293157
3,425833	0,1	1,261078
3,427500	0,1	1,280275
3,429167	0,1	1,259890
3,430833	0,1	1,260394
3,432500	0,1	1,259683
3,434167	0,1	1,246710
3,435833	0,1	1,274326
3,437500	0,1	1,259465
3,439167	0,1	1,240733
3,440833	0,1	1,241777
3,442500	0,1	1,281016
3,444167	0,1	1,244766
3,445833	0,1	1,273903
3,447500	0,1	1,241940
3,449167	0,1	1,244081
3,450833	0,1	1,221986
3,452500	0,1	1,234425
3,454167	0,1	1,224709
3,455833	0,1	1,243501
3,457500	0,1	1,196182
3,459167	0,1	1,216962
3,460833	0,1	1,247006
3,462500	0,1	1,209792
3,464167	0,1	1,235641
3,465833	0,1	1,242015
3,467500	0,1	1,242219
3,469167	0,1	1,246318
3,470833	0,1	1,238581
3,472500	0,1	1,247874
3,474167	0,1	1,273683
3,475833	0,1	1,189563
3,477500	0,1	1,262288
3,479167	0,1	1,237040
3,480833	0,1	1,240354
3,482500	0,1	1,251448
3,484167	0,1	1,247149
3,485833	0,1	1,248809
3,487500	0,1	1,260170
3,489167	0,1	1,249423
3,490833	0,1	1,275275
3,492500	0,1	1,212562
3,494167	0,1	1,269289
3,495833	0,1	1,252301
3,497500	0,1	1,244795
3,499167	0,1	1,236650
3,500833	0,1	1,263892
3,502500	0,1	1,280919
3,504167	0,1	1,248376
3,505833	0,1	1,253802
3,507500	0,1	1,271516
3,509167	0,1	1,265561
3,510833	0,1	1,274755
3,512500	0,1	1,255317
3,514167	0,1	1,273752
3,515833	0,1	1,270217
3,517500	0,1	1,302732
3,519167	0,1	1,257879
3,520833	0,1	1,244779
3,522500	0,1	1,282912
3,524167	0,1	1,268984
3,525833	0,1	1,270605
3,527500	0,1	1,268743
3,529167	0,1	1,305170
3,530833	0,1	1,275408
3,532500	0,1	1,246695
3,534167	0,1	1,251922
3,535833	0,1	1,262947
3,537500	0,1	1,291399
3,539167	0,1	1,293642
3,540833	0,1	1,264601
3,542500	0,1	1,285134
3,544167	0,1	1,305614
3,545833	0,1	1,283062
3,547500	0,1	1,263887
3,549167	0,1	1,274043
3,550833	0,1	1,287914
3,552500	0,1	1,289561
3,554167	0,1	1,261601
3,555833	0,1	1,277682
3,557500	0,1	1,276010
3,559167	0,1	1,293638
3,560833	0,1	1,292288
3,562500	0,1	1,313320
3,564167	0,1	1,307093
3,565833	0,1	1,287703
3,567500	0,1	1,261449
3,569167	0,1	1,259004
3,570833	0,1	1,297581
3,572500	0,1	1,262469
3,574167	0,1	1,282341
3,575833	0,1	1,234049
3,577500	0,1	1,242658
3,579167	0,1	1,222744
3,580833	0,1	1,275642
3,582500	0,1	1,242429
3,584167	0,1	1,230906
3,585833	0,1	1,267533
3,587500	0,1	1,298498
3,589167	0,1	1,244893
3,590833	0,1	1,246417
3,592500	0,1	1,247300
3,594167	0,1	1,218615
3,595833	0,1	1,289289
3,597500	0,1	1,229870
3,599167	0,1	1,211264
3,600833	0,1	1,257232
3,602500	0,1	1,226358
3,604167	0,1	1,233870
3,605833	0,1	1,224018
3,607500	0,1	1,246448
3,609167	0,1	1,202108
3,610833	0,1	1,187741
3,612500	0,1	1,186960
3,614167	0,1	1,222346
3,615833	0,1	1,205741
3,617500	0,1	1,228802
3,619167	0,1	1,219715
3,620833	0,1	1,168137
3,622500	0,1	1,171034
3,624167	0,1	1,178928
3,625833	0,1	1,180946
3,627500	0,1	1,180034
3,629167	0,1	1,164134
3,630833	0,1	1,163437
3,632500	0,1	1,175526
3,634167	0,1	1,153705
3,635833	0,1	1,140075
3,637500	0,1	1,168914
3,639167	0,1	1,118657
3,640833	0,1	1,148014
3,642500	0,1	1,135973
3,644167	0,1	1,162345
3,645833	0,1	1,114748
3,647500	0,1	1,137608
3,649167	0,1	1,179783
3,650833	0,1	1,090886
3,652500	0,1	1,086386
3,654167	0,1	1,115086
3,655833	0,1	1,078629
3,657500	0,1	1,086693
3,659167	0,1	1,123159
3,660833	0,1	1,078008
3,662500	0,1	1,074828
3,664167	0,1	1,095786
3,665833	0,1	1,084567
3,667500	0,1	1,094945
3,669167	0,1	1,098141
3,670833	0,1	1,077559
3,672500	0,1	1,088489
3,674167	0,1	1,047903
3,675833	0,1	1,031727
3,677500	0,1	1,072197
3,679167	0,1	1,032597
3,680833	0,1	1,037422
3,682500	0,1	1,076567
3,684167	0,1	1,028629
3,685833	0,1	1,063768
3,687500	0,1	1,040713
3,689167	0,1	1,024917
3,690833	0,1	1,067073
3,692500	0,1	1,022839
3,694167	0,1	1,032452
3,695833	0,1	1,014646
3,697500	0,1	1,002447
3,699167	0,1	1,048682
3,700833	0,1	1,040686
3,702500	0,1	1,060778
3,704167	0,1	1,016316
3,705833	0,1	1,004331
3,707500	0,1	1,017036
3,709167	0,1	1,019144
3,710833	0,1	1,032495
3,712500	0,1	0,971559
3,714167	0,1	1,037408
3,715833	0,1	1,004025
3,717500	0,1	1,020294
3,719167	0,1	1,011140
3,720833	0,1	1,022360
3,722500	0,1	1,024203
3,724167	0,1	0,992069
3,725833	0,1	1,022111
3,727500	0,1	1,027240
3,729167	0,1	0,973487
3,730833	0,1	0,970217
3,732500	0,1	0,961233
3,734167	0,1	0,972276
3,735833	0,1	1,006539
3,737500	0,1	1,040055
3,739167	0,1	1,010680
3,740833	0,1	0,997944
3,742500	0,1	0,997696
3,744167	0,1	1,009583
3,745833	0,1	0,997343
3,747500	0,1	0,983926
3,749167	0,1	0,987935
3,750833	0,1	1,000288
3,752500	0,1	0,982795
3,754167	0,1	0,992325
3,755833	0,1	0,982283
3,757500	0,1	0,979330
3,759167	0,1	0,999709
3,760833	0,1	0,995257
3,762500	0,1	0,999978
3,764167	0,1	1,000423
3,765833	0,1	1,005502
3,767500	0,1	0,981398
3,769167	0,1	0,990660
3,770833	0,1	1,010644
3,772500	0,1	1,047021
3,774167	0,1	0,989925
3,775833	0,1	0,991263
3,777500	0,1	1,008606
3,779167	0,1	1,012801
3,780833	0,1	1,020852
3,782500	0,1	1,002158
3,784167	0,1	0,998585
3,785833	0,1	1,059348
3,787500	0,1	0,981455
3,789167	0,1	0,999444
3,790833	0,1	0,973500
3,792500	0,1	0,998621
3,794167	0,1	1,000224
3,795833	0,1	1,000756
3,797500	0,1	1,014373
3,799167	0,1	1,012003
3,800833	0,1	1,031319
3,802500	0,1	0,990075
3,804167	0,1	0,965251
3,805833	0,1	1,047387
3,807500	0,1	0,994625
3,809167	0,1	0,996210
3,810833	0,1	1,050121
3,812500	0,1	1,009040
3,814167	0,1	1,009495
3,815833	0,1	1,007832
3,817500	0,1	0,982066
3,819167	0,1	1,012595
3,820833	0,1	0,978363
3,822500	0,1	0,990949
3,824167	0,1	1,014283
3,825833	0,1	0,999609
3,827500	0,1	1,010936
3,829167	0,1	0,981730
3,830833	0,1	0,996295
3,832500	0,1	1,015857
3,834167	0,1	0,962086
3,835833	0,1	0,995336
3,837500	0,1	0,982151
3,839167	0,1	0,997648
3,840833	0,1	0,998473
3,842500	0,1	0,948247
3,844167	0,1	0,994581
3,845833	0,1	1,004857
3,847500	0,1	1,010406
3,849167	0,1	0,971554
3,850833	0,1	0,964405
3,852500	0,1	0,954205
3,854167	0,1	0,957617
3,855833	0,1	0,917215
3,857500	0,1	0,962288
3,859167	0,1	0,950082
3,860833	0,1	0,957218
3,862500	0,1	0,960322
3,864167	0,1	0,970479
3,865833	0,1	0,950636
3,867500	0,1	0,939700
3,869167	0,1	0,908588
3,870833	0,1	0,917740
3,872500	0,1	0,924855
3,874167	0,1	0,957146
3,875833	0,1	0,913959
3,877500	0,1	0,904767
3,879167	0,1	0,897121
3,880833	0,1	0,941660
3,882500	0,1	0,931448
3,884167	0,1	0,886240
3,885833	0,1	0,895544
3,887500	0,1	0,898761
3,889167	0,1	0,889579
3,890833	0,1	0,888621
3,892500	0,1	0,883263
3,894167	0,1	0,865234
3,895833	0,1	0,898348
3,897500	0,1	0,884839
3,899167	0,1	0,875339
3,900833	0,1	0,842863
3,902500	0,1	0,888385
3,904167	0,1	0,895898
3,905833	0,1	0,883974
3,907500	0,1	0,849781
3,909167	0,1	0,865226
3,910833	0,1	0,854211
3,912500	0,1	0,881498
3,914167	0,1	0,847012
3,915833	0,1	0,870895
3,917500	0,1	0,873639
3,919167	0,1	0,848215
3,920833	0,1	0,840585
3,922500	0,1	0,796244
3,924167	0,1	0,815741
3,925833	0,1	0,819721
3,927500	0,1	0,814343
3,929167	0,1	0,848371
3,930833	0,1	0,865698
3,932500	0,1	0,810588
3,934167	0,1	0,814825
3,935833	0,1	0,818998
3,937500	0,1	0,804083
3,939167	0,1	0,802282
3,940833	0,1	0,827929
3,942500	0,1	0,812573
3,944167	0,1	0,809867
3,945833	0,1	0,776470
3,947500	0,1	0,823160
3,949167	0,1	0,802445
3,950833	0,1	0,794846
3,952500	0,1	0,795499
3,954167	0,1	0,779586
3,955833	0,1	0,812130
3,957500	0,1	0,792932
3,959167	0,1	0,809600
3,960833	0,1	0,770500
3,962500	0,1	0,808505
3,964167	0,1	0,766643
3,965833	0,1	0,779357
3,967500	0,1	0,765191
3,969167	0,1	0,785364
3,970833	0,1	0,797622
3,972500	0,1	0,745140
3,974167	0,1	0,760320
3,975833	0,1	0,770198
3,977500	0,1	0,771383
3,979167	0,1	0,708240
3,980833	0,1	0,769190
3,982500	0,1	0,760483
3,984167	0,1	0,770972
3,985833	0,1	0,769808
3,987500	0,1	0,768849
3,989167	0,1	0,754095
3,990833	0,1	0,726520
3,992500	0,1	0,729858
3,994167	0,1	0,747946
3,995833	0,1	0,781150
3,997500	0,1	0,776696
3,999167	0,1	0,760049
4,000833	0,1	0,724212
4,002500	0,1	0,751197
4,004167	0,1	0,714635
4,005833	0,1	0,729183
4,007500	0,1	0,799431
4,009167	0,1	0,749156
4,010833	0,1	0,751425
4,012500	0,1	0,722830
4,014167	0,1	0,738594
4,015833	0,1	0,764698
4,017500	0,1	0,725208
4,019167	0,1	0,741230
4,020833	0,1	0,793518
4,022500	0,1	0,753011
4,024167	0,1	0,740082
4,025833	0,1	0,752392
4,027500	0,1	0,785807
4,029167	0,1	0,725530
4,030833	0,1	0,748271
4,032500	0,1	0,778158
4,034167	0,1	0,751983
4,035833	0,1	0,750402
4,037500	0,1	0,749079
4,039167	0,1	0,733494
4,040833	0,1	0,788374
4,042500	0,1	0,729909
4,044167	0,1	0,744520
4,045833	0,1	0,764921
4,047500	0,1	0,762606
4,049167	0,1	0,798861
4,050833	0,1	0,765802
4,052500	0,1	0,763064
4,054167	0,1	0,808307
4,055833	0,1	0,766102
4,057500	0,1	0,774633
4,059167	0,1	0,768182
4,060833	0,1	0,830834
4,062500	0,1	0,852274
4,064167	0,1	0,804250
4,065833	0,1	0,862027
4,067500	0,1	0,849053
4,069167	0,1	0,793740
4,070833	0,1	0,800863
4,072500	0,1	0,834422
4,074167	0,1	0,852063
4,075833	0,1	0,843238
4,077500	0,1	0,845520
4,079167	0,1	0,883985
4,080833	0,1	0,879494
4,082500	0,1	0,885675
4,084167	0,1	0,830520
4,085833	0,1	0,833302
4,087500	0,1	0,881716
4,089167	0,1	0,900396
4,090833	0,1	0,865552
4,092500	0,1	0,902545
4,094167	0,1	0,905950
4,095833	0,1	0,935519
4,097500	0,1	0,904672
4,099167	0,1	0,914788
4,100833	0,1	0,905565
4,102500	0,1	0,899314
4,104167	0,1	0,926317
4,105833	0,1	0,944996
4,107500	0,1	0,956971
4,109167	0,1	0,965999
4,110833	0,1	0,959880
4,112500	0,1	0,976931
4,114167	0,1	0,968841
4,115833	0,1	0,958995
4,117500	0,1	0,998729
4,119167	0,1	1,038457
4,120833	0,1	1,010789
4,122500	0,1	1,024798
4,124167	0,1	0,984419
4,125833	0,1	1,008161
4,127500	0,1	1,016726
4,129167	0,1	1,050659
4,130833	0,1	1,015450
4,132500	0,1	1,092575
4,134167	0,1	1,068642
4,135833	0,1	1,055396
4,137500	0,1	1,056923
4,139167	0,1	1,107513
4,140833	0,1	1,070085
4,142500	0,1	1,076842
4,144167	0,1	1,115969
4,145833	0,1	1,099655
4,147500	0,1	1,130547
4,149167	0,1	1,111056
4,150833	0,1	1,117818
4,152500	0,1	1,126673
4,154167	0,1	1,155998
4,155833	0,1	1,112597
4,157500	0,1	1,160297
4,159167	0,1	1,155229
4,160833	0,1	1,120651
4,162500	0,1	1,172501
4,164167	0,1	1,140570
4,165833	0,1	1,152389
4,167500	0,1	1,179298
4,169167	0,1	1,167792
4,170833	0,1	1,201089
4,172500	0,1	1,169621
4,174167	0,1	1,191257
4,175833	0,1	1,221145
4,177500	0,1	1,154982
4,179167	0,1	1,207368
4,180833	0,1	1,165897
4,182500	0,1	1,207351
4,184167	0,1	1,175940
4,185833	0,1	1,214535
4,187500	0,1	1,169557
4,189167	0,1	1,215706
4,190833	0,1	1,210924
4,192500	0,1	1,159839
4,194167	0,1	1,158674
4,195833	0,1	1,244387
4,197500	0,1	1,233450
4,199167	0,1	1,162149
4,200833	0,1	1,216193
4,202500	0,1	1,186458
4,204167	0,1	1,219311
4,205833	0,1	1,212009
4,207500	0,1	1,182798
4,209167	0,1	1,222662
4,210833	0,1	1,188322
4,212500	0,1	1,166401
4,214167	0,1	1,211488
4,215833	0,1	1,185793
4,217500	0,1	1,168638
4,219167	0,1	1,179811
4,220833	0,1	1,198471
4,222500	0,1	1,220860
4,224167	0,1	1,202830
4,225833	0,1	1,152022
4,227500	0,1	1,154361
4,229167	0,1	1,168140
4,230833	0,1	1,172820
4,232500	0,1	1,151439
4,234167	0,1	1,158556
4,235833	0,1	1,176437
4,237500	0,1	1,123489
4,239167	0,1	1,126674
4,240833	0,1	1,133971
4,242500	0,1	1,151055
4,244167	0,1	1,108822
4,245833	0,1	1,138183
4,247500	0,1	1,114943
4,249167	0,1	1,137694
4,250833	0,1	1,106004
4,252500	0,1	1,138911
4,254167	0,1	1,084268
4,255833	0,1	1,116566
4,257500	0,1	1,058114
4,259167	0,1	1,066481
4,260833	0,1	1,065353
4,262500	0,1	1,088486
4,264167	0,1	1,107301
4,265833	0,1	1,050393
4,267500	0,1	1,092188
4,269167	0,1	1,077889
4,270833	0,1	1,088644
4,272500	0,1	1,071924
4,274167	0,1	1,078085
4,275833	0,1	1,017362
4,277500	0,1	1,029168
4,279167	0,1	0,988323
4,280833	0,1	0,999225
4,282500	0,1	1,007899
4,284167	0,1	1,030586
4,285833	0,1	0,969563
4,287500	0,1	1,021596
4,289167	0,1	0,993089
4,290833	0,1	0,970732
4,292500	0,1	0,974740
4,294167	0,1	0,996426
4,295833	0,1	0,933546
4,297500	0,1	0,952912
4,299167	0,1	0,949257
4,300833	0,1	0,985932
4,302500	0,1	0,959774
4,304167	0,1	0,930479
4,305833	0,1	0,899320
4,307500	0,1	0,943769
4,309167	0,1	0,918721
4,310833	0,1	0,935636
4,312500	0,1	0,926656
4,314167	0,1	0,900961
4,315833	0,1	0,887543
4,317500	0,1	0,876389
4,319167	0,1	0,885518
4,320833	0,1	0,892682
4,322500	0,1	0,858455
4,324167	0,1	0,866003
4,325833	0,1	0,873836
4,327500	0,1	0,886853
4,329167	0,1	0,842447
4,330833	0,1	0,859151
4,332500	0,1	0,834751
4,334167	0,1	0,841595
4,335833	0,1	0,851685
4,337500	0,1	0,842083
4,339167	0,1	0,835942
4,340833	0,1	0,823530
4,342500	0,1	0,795375
4,344167	0,1	0,803921
4,345833	0,1	0,839016
4,347500	0,1	0,859530
4,349167	0,1	0,818812
4,350833	0,1	0,800869
4,352500	0,1	0,790003
4,354167	0,1	0,762939
4,355833	0,1	0,762569
4,357500	0,1	0,763091
4,359167	0,1	0,766277
4,360833	0,1	0,804164
4,362500	0,1	0,739974
4,364167	0,1	0,785227
4,365833	0,1	0,765312
4,367500	0,1	0,733815
4,369167	0,1	0,795063
4,370833	0,1	0,762141
4,372500	0,1	0,727974
4,374167	0,1	0,726802
4,375833	0,1	0,768606
4,377500	0,1	0,747351
4,379167	0,1	0,755281
4,380833	0,1	0,737669
4,382500	0,1	0,721757
4,384167	0,1	0,752994
4,385833	0,1	0,754509
4,387500	0,1	0,731176
4,389167	0,1	0,727510
4,390833	0,1	0,703926
4,392500	0,1	0,750921
4,394167	0,1	0,696277
4,395833	0,1	0,710150
4,397500	0,1	0,713692
4,399167	0,1	0,734158
4,400833	0,1	0,686419
4,402500	0,1	0,676320
4,404167	0,1	0,712363
4,405833	0,1	0,689712
4,407500	0,1	0,685793
4,409167	0,1	0,673100
4,410833	0,1	0,710947
4,412500	0,1	0,713079
4,414167	0,1	0,681170
4,415833	0,1	0,681778
4,417500	0,1	0,708956
4,419167	0,1	0,686795
4,420833	0,1	0,646405
4,422500	0,1	0,689993
4,424167	0,1	0,681332
4,425833	0,1	0,694818
4,427500	0,1	0,655657
4,429167	0,1	0,680031
4,430833	0,1	0,659191
4,432500	0,1	0,680162
4,434167	0,1	0,655366
4,435833	0,1	0,634378
4,437500	0,1	0,643724
4,439167	0,1	0,632802
4,440833	0,1	0,661391
4,442500	0,1	0,628563
4,444167	0,1	0,624091
4,445833	0,1	0,622647
4,447500	0,1	0,642788
4,449167	0,1	0,624384
4,450833	0,1	0,648732
4,452500	0,1	0,632384
4,454167	0,1	0,616640
4,455833	0,1	0,634016
4,457500	0,1	0,599293
4,459167	0,1	0,653771
4,460833	0,1	0,615998
4,462500	0,1	0,620362
4,464167	0,1	0,633084
4,465833	0,1	0,603467
4,467500	0,1	0,599346
4,469167	0,1	0,621674
4,470833	0,1	0,596303
4,472500	0,1	0,604614
4,474167	0,1	0,590161
4,475833	0,1	0,617143
4,477500	0,1	0,565590
4,479167	0,1	0,624140
4,480833	0,1	0,578956
4,482500	0,1	0,578397
4,484167	0,1	0,576760
4,485833	0,1	0,572614
4,487500	0,1	0,558480
4,489167	0,1	0,547718
4,490833	0,1	0,597728
4,492500	0,1	0,594463
4,494167	0,1	0,556686
4,495833	0,1	0,515499
4,497500	0,1	0,570094
4,499167	0,1	0,589349
4,500833	0,1	0,557296
4,502500	0,1	0,584913
4,504167	0,1	0,569598
4,505833	0,1	0,584367
4,507500	0,1	0,523728
4,509167	0,1	0,500429
4,510833	0,1	0,547189
4,512500	0,1	0,523496
4,514167	0,1	0,528180
4,515833	0,1	0,551594
4,517500	0,1	0,557607
4,519167	0,1	0,549869
4,520833	0,1	0,506890
4,522500	0,1	0,545006
4,524167	0,1	0,512670
4,525833	0,1	0,503574
4,527500	0,1	0,467408
4,529167	0,1	0,519172
4,530833	0,1	0,485012
4,532500	0,1	0,515516
4,534167	0,1	0,506175
4,535833	0,1	0,513239
4,537500	0,1	0,462208
4,539167	0,1	0,496496
4,540833	0,1	0,485072
4,542500	0,1	0,489980
4,544167	0,1	0,519049
4,545833	0,1	0,475507
4,547500	0,1	0,502024
4,549167	0,1	0,467247
4,550833	0,1	0,481435
4,552500	0,1	0,487668
4,554167	0,1	0,473732
4,555833	0,1	0,500898
4,557500	0,1	0,497500
4,559167	0,1	0,475018
4,560833	0,1	0,459597
4,562500	0,1	0,461232
4,564167	0,1	0,469070
4,565833	0,1	0,483811
4,567500	0,1	0,482885
4,569167	0,1	0,425913
4,570833	0,1	0,443883
4,572500	0,1	0,461228
4,574167	0,1	0,487311
4,575833	0,1	0,467435
4,577500	0,1	0,457346
4,579167	0,1	0,458793
4,580833	0,1	0,419680
4,582500	0,1	0,427505
4,584167	0,1	0,442471
4,585833	0,1	0,422852
4,587500	0,1	0,414339
4,589167	0,1	0,418801
4,590833	0,1	0,437040
4,592500	0,1	0,424008
4,594167	0,1	0,416940
4,595833	0,1	0,397800
4,597500	0,1	0,390252
4,599167	0,1	0,429071
4,600833	0,1	0,389264
4,602500	0,1	0,396927
4,604167	0,1	0,421848
4,605833	0,1	0,409425
4,607500	0,1	0,399338
4,609167	0,1	0,414174
4,610833	0,1	0,394780
4,612500	0,1	0,425027
4,614167	0,1	0,392117
4,615833	0,1	0,419182
4,617500	0,1	0,419444
4,619167	0,1	0,373174
4,620833	0,1	0,397853
4,622500	0,1	0,388581
4,624167	0,1	0,379779
4,625833	0,1	0,387771
4,627500	0,1	0,383765
4,629167	0,1	0,375155
4,630833	0,1	0,389511
4,632500	0,1	0,407785
4,634167	0,1	0,389322
4,635833	0,1	0,405854
4,637500	0,1	0,388228
4,639167	0,1	0,374005
4,640833	0,1	0,393394
4,642500	0,1	0,373810
4,644167	0,1	0,362570
4,645833	0,1	0,356401
4,647500	0,1	0,358516
4,649167	0,1	0,325542
4,650833	0,1	0,371549
4,652500	0,1	0,379166
4,654167	0,1	0,399753
4,655833	0,1	0,379596
4,657500	0,1	0,354027
4,659167	0,1	0,349272
4,660833	0,1	0,354505
4,662500	0,1	0,375987
4,664167	0,1	0,353672
4,665833	0,1	0,326029
4,667500	0,1	0,378034
4,669167	0,1	0,360836
4,670833	0,1	0,305865
4,672500	0,1	0,337766
4,674167	0,1	0,328277
4,675833	0,1	0,319185
4,677500	0,1	0,324150
4,679167	0,1	0,335165
4,680833	0,1	0,373159
4,682500	0,1	0,330394
4,684167	0,1	0,350711
4,685833	0,1	0,341883
4,687500	0,1	0,360607
4,689167	0,1	0,313768
4,690833	0,1	0,316000
4,692500	0,1	0,330190
4,694167	0,1	0,351678
4,695833	0,1	0,315727
4,697500	0,1	0,316280
4,699167	0,1	0,322802
4,700833	0,1	0,297898
4,702500	0,1	0,302513
4,704167	0,1	0,312053
4,705833	0,1	0,336065
4,707500	0,1	0,348047
4,709167	0,1	0,300688
4,710833	0,1	0,298108
4,712500	0,1	0,337473
4,714167	0,1	0,309585
4,715833	0,1	0,310445
4,717500	0,1	0,277954
4,719167	0,1	0,329285
4,720833	0,1	0,271475
4,722500	0,1	0,283435
4,724167	0,1	0,270334
4,725833	0,1	0,333741
4,727500	0,1	0,287464
4,729167	0,1	0,285969
4,730833	0,1	0,318976
4,732500	0,1	0,303802
4,734167	0,1	0,287557
4,735833	0,1	0,302510
4,737500	0,1	0,274264
4,739167	0,1	0,287639
4,740833	0,1	0,262063
4,742500	0,1	0,271270
4,744167	0,1	0,307804
4,745833	0,1	0,253532
4,747500	0,1	0,246030
4,749167	0,1	0,260278
4,750833	0,1	0,288442
4,752500	0,1	0,259646
4,754167	0,1	0,289988
4,755833	0,1	0,287617
4,757500	0,1	0,273176
4,759167	0,1	0,246751
4,760833	0,1	0,243133
4,762500	0,1	0,271518
4,764167	0,1	0,234379
4,765833	0,1	0,246478
4,767500	0,1	0,261952
4,769167	0,1	0,269887
4,770833	0,1	0,277793
4,772500	0,1	0,271852
4,774167	0,1	0,221966
4,775833	0,1	0,263103
4,777500	0,1	0,281896
4,779167	0,1	0,227848
4,780833	0,1	0,264806
4,782500	0,1	0,244145
4,784167	0,1	0,266256
4,785833	0,1	0,284139
4,787500	0,1	0,243760
4,789167	0,1	0,258099
4,790833	0,1	0,247353
4,792500	0,1	0,220677
4,794167	0,1	0,263846
4,795833	0,1	0,266965
4,797500	0,1	0,283760
4,799167	0,1	0,270370
4,800833	0,1	0,259554
4,802500	0,1	0,225464
4,804167	0,1	0,277165
4,805833	0,1	0,239099
4,807500	0,1	0,260224
4,809167	0,1	0,233683
4,810833	0,1	0,259581
4,812500	0,1	0,236212
4,814167	0,1	0,251979
4,815833	0,1	0,245489
4,817500	0,1	0,245224
4,819167	0,1	0,240225
4,820833	0,1	0,211688
4,822500	0,1	0,240379
4,824167	0,1	0,229851
4,825833	0,1	0,243720
4,827500	0,1	0,266420
4,829167	0,1	0,236541
4,830833	0,1	0,193072
4,832500	0,1	0,207309
4,834167	0,1	0,238227
4,835833	0,1	0,211009
4,837500	0,1	0,213732
4,839167	0,1	0,226737
4,840833	0,1	0,216883
4,842500	0,1	0,264045
4,844167	0,1	0,199851
4,845833	0,1	0,218865
4,847500	0,1	0,214389
4,849167	0,1	0,248662
4,850833	0,1	0,201545
4,852500	0,1	0,214864
4,854167	0,1	0,225327
4,855833	0,1	0,223365
4,857500	0,1	0,241339
4,859167	0,1	0,206741
4,860833	0,1	0,253508
4,862500	0,1	0,232461
4,864167	0,1	0,237427
4,865833	0,1	0,199970
4,867500	0,1	0,228785
4,869167	0,1	0,223657
4,870833	0,1	0,236909
4,872500	0,1	0,231209
4,874167	0,1	0,230629
4,875833	0,1	0,245031
4,877500	0,1	0,211401
4,879167	0,1	0,225224
4,880833	0,1	0,215284
4,882500	0,1	0,250742
4,884167	0,1	0,222666
4,885833	0,1	0,170916
4,887500	0,1	0,238002
4,889167	0,1	0,232268
4,890833	0,1	0,200522
4,892500	0,1	0,230711
4,894167	0,1	0,234732
4,895833	0,1	0,222989
4,897500	0,1	0,236557
4,899167	0,1	0,197214
4,900833	0,1	0,204553
4,902500	0,1	0,206091
4,904167	0,1	0,219257
4,905833	0,1	0,221414
4,907500	0,1	0,202660
4,909167	0,1	0,194701
4,910833	0,1	0,181821
4,912500	0,1	0,233500
4,914167	0,1	0,215022
4,915833	0,1	0,265382
4,917500	0,1	0,252238
4,919167	0,1	0,235895
4,920833	0,1	0,250708
4,922500	0,1	0,230306
4,924167	0,1	0,213638
4,925833	0,1	0,195471
4,927500	0,1	0,272148
4,929167	0,1	0,198857
4,930833	0,1	0,211350
4,932500	0,1	0,240379
4,934167	0,1	0,190882
4,935833	0,1	0,293144
4,937500	0,1	0,282707
4,939167	0,1	0,268770
4,940833	0,1	0,253169
4,942500	0,1	0,261476
4,944167	0,1	0,239386
4,945833	0,1	0,226479
4,947500	0,1	0,206096
4,949167	0,1	0,224128
4,950833	0,1	0,222144
4,952500	0,1	0,261216
4,954167	0,1	0,242432
4,955833	0,1	0,208832
4,957500	0,1	0,223400
4,959167	0,1	0,252769
4,960833	0,1	0,249920
4,962500	0,1	0,236147
4,964167	0,1	0,237943
4,965833	0,1	0,236144
4,967500	0,1	0,273743
4,969167	0,1	0,289122
4,970833	0,1	0,289831
4,972500	0,1	0,262905
4,974167	0,1	0,205754
4,975833	0,1	0,277262
4,977500	0,1	0,256318
4,979167	0,1	0,257271
4,980833	0,1	0,233254
4,982500	0,1	0,262527
4,984167	0,1	0,253132
4,985833	0,1	0,256502
4,987500	0,1	0,250310
4,989167	0,1	0,250687
4,990833	0,1	0,267769
4,992500	0,1	0,245556
4,994167	0,1	0,288638
4,995833	0,1	0,230190
4,997500	0,1	0,290876
4,999167	0,1	0,282997
5,000833	0,1	0,296984
5,002500	0,1	0,269804
5,004167	0,1	0,313321
5,005833	0,1	0,296865
5,007500	0,1	0,228292
5,009167	0,1	0,288823
5,010833	0,1	0,319881
5,012500	0,1	0,295130
5,014167	0,1	0,265148
5,015833	0,1	0,281153
5,017500	0,1	0,271653
5,019167	0,1	0,304171
5,020833	0,1	0,266975
5,022500	0,1	0,288921
5,024167	0,1	0,325562
5,025833	0,1	0,293629
5,027500	0,1	0,358471
5,029167	0,1	0,285445
5,030833	0,1	0,279134
5,032500	0,1	0,312980
5,034167	0,1	0,313883
5,035833	0,1	0,304316
5,037500	0,1	0,281994
5,039167	0,1	0,339559
5,040833	0,1	0,347242
5,042500	0,1	0,302968
5,044167	0,1	0,335839
5,045833	0,1	0,326820
5,047500	0,1	0,339055
5,049167	0,1	0,327019
5,050833	0,1	0,328102
5,052500	0,1	0,321330
5,054167	0,1	0,369331
5,055833	0,1	0,367734
5,057500	0,1	0,312385
5,059167	0,1	0,341620
5,060833	0,1	0,370529
5,062500	0,1	0,377015
5,064167	0,1	0,332426
5,065833	0,1	0,364896
5,067500	0,1	0,345034
5,069167	0,1	0,363460
5,070833	0,1	0,341244
5,072500	0,1	0,361560
5,074167	0,1	0,383983
5,075833	0,1	0,406141
5,077500	0,1	0,356248
5,079167	0,1	0,436063
5,080833	0,1	0,380305
5,082500	0,1	0,357689
5,084167	0,1	0,406968
5,085833	0,1	0,372783
5,087500	0,1	0,397662
5,089167	0,1	0,416004
5,090833	0,1	0,392051
5,092500	0,1	0,415584
5,094167	0,1	0,421146
5,095833	0,1	0,387042
5,097500	0,1	0,376377
5,099167	0,1	0,412465
5,100833	0,1	0,395676
5,102500	0,1	0,386139
5,104167	0,1	0,426468
5,105833	0,1	0,418512
5,107500	0,1	0,426540
5,109167	0,1	0,437297
5,110833	0,1	0,404194
5,112500	0,1	0,446127
5,114167	0,1	0,449892
5,115833	0,1	0,458533
5,117500	0,1	0,411008
5,119167	0,1	0,471529
5,120833	0,1	0,444632
5,122500	0,1	0,438749
5,124167	0,1	0,420538
5,125833	0,1	0,430423
5,127500	0,1	0,404192
5,129167	0,1	0,443427
5,130833	0,1	0,419510
5,132500	0,1	0,418288
5,134167	0,1	0,453675
5,135833	0,1	0,407218
5,137500	0,1	0,424224
5,139167	0,1	0,429590
5,140833	0,1	0,419124
5,142500	0,1	0,468448
5,144167	0,1	0,447392
5,145833	0,1	0,464665
5,147500	0,1	0,406033
5,149167	0,1	0,427821
5,150833	0,1	0,483128
5,152500	0,1	0,459599
5,154167	0,1	0,449767
5,155833	0,1	0,447998
5,157500	0,1	0,440290
5,159167	0,1	0,396037
5,160833	0,1	0,455628
5,162500	0,1	0,390294
5,164167	0,1	0,452098
5,165833	0,1	0,442026
5,167500	0,1	0,444465
5,169167	0,1	0,413347
5,170833	0,1	0,410419
5,172500	0,1	0,435303
5,174167	0,1	0,415272
5,175833	0,1	0,398987
5,177500	0,1	0,395997
5,179167	0,1	0,450586
5,180833	0,1	0,409878
5,182500	0,1	0,418413
5,184167	0,1	0,447383
5,185833	0,1	0,417747
5,187500	0,1	0,384378
5,189167	0,1	0,386806
5,190833	0,1	0,408103
5,192500	0,1	0,410642
5,194167	0,1	0,395648
5,195833	0,1	0,393432
5,197500	0,1	0,402677
5,199167	0,1	0,388449
5,200833	0,1	0,378013
5,202500	0,1	0,412661
5,204167	0,1	0,355256
5,205833	0,1	0,395894
5,207500	0,1	0,363887
5,209167	0,1	0,371558
5,210833	0,1	0,354921
5,212500	0,1	0,399556
5,214167	0,1	0,368095
5,215833	0,1	0,365801
5,217500	0,1	0,377847
5,219167	0,1	0,380806
5,220833	0,1	0,364619
5,222500	0,1	0,387803
5,224167	0,1	0,340317
5,225833	0,1	0,326280
5,227500	0,1	0,356553
5,229167	0,1	0,385457
5,230833	0,1	0,374907
5,232500	0,1	0,352678
5,234167	0,1	0,341466
5,235833	0,1	0,314144
5,237500	0,1	0,340363
5,239167	0,1	0,309007
5,240833	0,1	0,297117
5,242500	0,1	0,335998
5,244167	0,1	0,354890
5,245833	0,1	0,292317
5,247500	0,1	0,316827
5,249167	0,1	0,299569
5,250833	0,1	0,340396
5,252500	0,1	0,296327
5,254167	0,1	0,293685
5,255833	0,1	0,294870
5,257500	0,1	0,332372
5,259167	0,1	0,288270
5,260833	0,1	0,280633
5,262500	0,1	0,257430
5,264167	0,1	0,266638
5,265833	0,1	0,243138
5,267500	0,1	0,293672
5,269167	0,1	0,283475
5,270833	0,1	0,259456
5,272500	0,1	0,272869
5,274167	0,1	0,241957
5,275833	0,1	0,281176
5,277500	0,1	0,270218
5,279167	0,1	0,278751
5,280833	0,1	0,293943
5,282500	0,1	0,252561
5,284167	0,1	0,274351
5,285833	0,1	0,237275
5,287500	0,1	0,225773
5,289167	0,1	0,244361
5,290833	0,1	0,230179
5,292500	0,1	0,247119
5,294167	0,1	0,238099
5,295833	0,1	0,248152
5,297500	0,1	0,257532
5,299167	0,1	0,239586
5,300833	0,1	0,208706
5,302500	0,1	0,239800
5,304167	0,1	0,200322
5,305833	0,1	0,212698
5,307500	0,1	0,202658
5,309167	0,1	0,214750
5,310833	0,1	0,209216
5,312500	0,1	0,176527
5,314167	0,1	0,243896
5,315833	0,1	0,200551
5,317500	0,1	0,221118
5,319167	0,1	0,190235
5,320833	0,1	0,189600
5,322500	0,1	0,186188
5,324167	0,1	0,204614
5,325833	0,1	0,170686
5,327500	0,1	0,193509
5,329167	0,1	0,148256
5,330833	0,1	0,198665
5,332500	0,1	0,198588
5,334167	0,1	0,193932
5,335833	0,1	0,165509
5,337500	0,1	0,165996
5,339167	0,1	0,155764
5,340833	0,1	0,139136
5,342500	0,1	0,160313
5,344167	0,1	0,143138
5,345833	0,1	0,199180
5,347500	0,1	0,197116
5,349167	0,1	0,164594
5,350833	0,1	0,170488
5,352500	0,1	0,163820
5,354167	0,1	0,156555
5,355833	0,1	0,164913
5,357500	0,1	0,164749
5,359167	0,1	0,163631
5,360833	0,1	0,188538
5,362500	0,1	0,141298
5,364167	0,1	0,156878
5,365833	0,1	0,215582
5,367500	0,1	0,158859
5,369167	0,1	0,193960
5,370833	0,1	0,150911
5,372500	0,1	0,154642
5,374167	0,1	0,154352
5,375833	0,1	0,139881
5,377500	0,1	0,126547
5,379167	0,1	0,129252
5,380833	0,1	0,141143
5,382500	0,1	0,127338
5,384167	0,1	0,132257
5,385833	0,1	0,117725
5,387500	0,1	0,137327
5,389167	0,1	0,073302
5,390833	0,1	0,114690
5,392500	0,1	0,157717
5,394167	0,1	0,100754
5,395833	0,1	0,109538
5,397500	0,1	0,125710
5,399167	0,1	0,143622
5,400833	0,1	0,112116
5,402500	0,1	0,100955
5,404167	0,1	0,120285
5,405833	0,1	0,085759
5,407500	0,1	0,135002
5,409167	0,1	0,097189
5,410833	0,1	0,136555
5,412500	0,1	0,101495
5,414167	0,1	0,154668
5,415833	0,1	0,124045
5,417500	0,1	0,077168
5,419167	0,1	0,094234
5,420833	0,1	0,073292
5,422500	0,1	0,116695
5,424167	0,1	0,091947
5,425833	0,1	0,094033
5,427500	0,1	0,078465
5,429167	0,1	0,136817
5,430833	0,1	0,135610
5,432500	0,1	0,092305
5,434167	0,1	0,107032
5,435833	0,1	0,114136
5,437500	0,1	0,085404
5,439167	0,1	0,089931
5,440833	0,1	0,115665
5,442500	0,1	0,089110
5,444167	0,1	0,105497
5,445833	0,1	0,107967
5,447500	0,1	0,062199
5,449167	0,1	0,074688
5,450833	0,1	0,080591
5,452500	0,1	0,117463
5,454167	0,1	0,108362
5,455833	0,1	0,069484
5,457500	0,1	0,082827
5,459167	0,1	0,056873
5,460833	0,1	0,088786
5,462500	0,1	0,101647
5,464167	0,1	0,069649
5,465833	0,1	0,043001
5,467500	0,1	0,084208
5,469167	0,1	0,070700
5,470833	0,1	0,065667
5,472500	0,1	0,107254
5,474167	0,1	0,087369
5,475833	0,1	0,039155
5,477500	0,1	0,080003
5,479167	0,1	0,060680
5,480833	0,1	0,083633
5,482500	0,1	0,069645
5,484167	0,1	0,075064
5,485833	0,1	0,117483
5,487500	0,1	0,101098
5,489167	0,1	0,066316
5,490833	0,1	0,042627
5,492500	0,1	0,066983
5,494167	0,1	0,071605
5,495833	0,1	0,053350
5,497500	0,1	0,053179
5,499167	0,1	0,078661
5,500833	0,1	0,079745
5,502500	0,1	0,080054
5,504167	0,1	0,082684
5,505833	0,1	0,074573
5,507500	0,1	0,063308
5,509167	0,1	0,072394
5,510833	0,1	0,061755
5,512500	0,1	0,042770
5,514167	0,1	0,044835
5,515833	0,1	0,036038
5,517500	0,1	0,042620
5,519167	0,1	0,076364
5,520833	0,1	0,027354
5,522500	0,1	0,071097
5,524167	0,1	0,058442
5,525833	0,1	0,037842
5,527500	0,1	0,056073
5,529167	0,1	0,029314
5,530833	0,1	0,062033
5,532500	0,1	0,053846
5,534167	0,1	0,073239
5,535833	0,1	0,074485
5,537500	0,1	0,058835
5,539167	0,1	0,088413
5,540833	0,1	0,065796
5,542500	0,1	0,052894
5,544167	0,1	0,015963
5,545833	0,1	0,082525
5,547500	0,1	0,022864
5,549167	0,1	0,042325
5,550833	0,1	0,058186
5,552500	0,1	0,042603
5,554167	0,1	0,074519
5,555833	0,1	0,068938
5,557500	0,1	0,024019
5,559167	0,1	0,047646
5,560833	0,1	0,048562
5,562500	0,1	0,043700
5,564167	0,1	0,049595
5,565833	0,1	0,042663
5,567500	0,1	0,034237
5,569167	0,1	0,048768
5,570833	0,1	0,058727
5,572500	0,1	0,039374
5,574167	0,1	0,063381
5,575833	0,1	0,031697
5,577500	0,1	0,059198
5,579167	0,1	0,054526
5,580833	0,1	0,056492
5,582500	0,1	0,043659
5,584167	0,1	0,004659
5,585833	0,1	-0,015923
5,587500	0,1	0,033169
5,589167	0,1	0,024631
5,590833	0,1	0,041147
5,592500	0,1	0,037674
5,594167	0,1	0,034380
5,595833	0,1	0,013289
5,597500	0,1	-0,000211
5,599167	0,1	0,023175
5,600833	0,1	0,011774
5,602500	0,1	0,019741
5,604167	0,1	0,030238
5,605833	0,1	0,023679
5,607500	0,1	-0,009356
5,609167	0,1	0,088251
5,610833	0,1	0,037084
5,612500	0,1	0,038004
5,614167	0,1	0,010060
5,615833	0,1	0,009992
5,617500	0,1	0,025908
5,619167	0,1	0,056093
5,620833	0,1	0,026397
5,622500	0,1	0,054623
5,624167	0,1	0,074977
5,625833	0,1	0,052356
5,627500	0,1	0,039186
5,629167	0,1	0,025957
5,630833	0,1	0,029555
5,632500	0,1	0,041728
5,634167	0,1	0,040365
5,635833	0,1	0,027965
5,637500	0,1	0,053071
5,639167	0,1	-0,001712
5,640833	0,1	0,047620
5,642500	0,1	0,013417
5,644167	0,1	0,012807
5,645833	0,1	0,049548
5,647500	0,1	0,062536
5,649167	0,1	0,039706
5,650833	0,1	0,080874
5,652500	0,1	0,039029
5,654167	0,1	0,066631
5,655833	0,1	0,042709
5,657500	0,1	0,050486
5,659167	0,1	0,053427
5,660833	0,1	0,048936
5,662500	0,1	0,057899
5,664167	0,1	0,070031
5,665833	0,1	0,056558
5,667500	0,1	0,024057
5,669167	0,1	0,024319
5,670833	0,1	0,006291
5,672500	0,1	0,051265
5,674167	0,1	0,087748
5,675833	0,1	0,057391
5,677500	0,1	0,075538
5,679167	0,1	0,082329
5,680833	0,1	0,048593
5,682500	0,1	0,041297
5,684167	0,1	0,068806
5,685833	0,1	0,037721
5,687500	0,1	0,030655
5,689167	0,1	0,043777
5,690833	0,1	0,067523
5,692500	0,1	0,034243
5,694167	0,1	0,059241
5,695833	0,1	0,018553
5,697500	0,1	0,024151
5,699167	0,1	0,046591
5,700833	0,1	0,085593
5,702500	0,1	0,067016
5,704167	0,1	0,062166
5,705833	0,1	0,066057
5,707500	0,1	0,077380
5,709167	0,1	0,072914
5,710833	0,1	0,005807
5,712500	0,1	0,048532
5,714167	0,1	0,043968
5,715833	0,1	0,088245
5,717500	0,1	0,099846
5,719167	0,1	0,020239
5,720833	0,1	0,009560
5,722500	0,1	0,024129
5,724167	0,1	0,083998
5,725833	0,1	0,054885
5,727500	0,1	0,073714
5,729167	0,1	0,068274
5,730833	0,1	0,049106
5,732500	0,1	0,069119
5,734167	0,1	0,084939
5,735833	0,1	0,093452
5,737500	0,1	0,027336
5,739167	0,1	0,047316
5,740833	0,1	0,075388
5,742500	0,1	0,058318
5,744167	0,1	0,073819
5,745833	0,1	0,059873
5,747500	0,1	0,035525
5,749167	0,1	0,083751
5,750833	0,1	0,073495
5,752500	0,1	0,110010
5,754167	0,1	0,099358
5,755833	0,1	0,059568
5,757500	0,1	0,073528
5,759167	0,1	0,022694
5,760833	0,1	0,092920
5,762500	0,1	0,087740
5,764167	0,1	0,059378
5,765833	0,1	0,060138
5,767500	0,1	0,063822
5,769167	0,1	0,068583
5,770833	0,1	0,116073
5,772500	0,1	0,042432
5,774167	0,1	0,079965
5,775833	0,1	0,062543
5,777500	0,1	0,047842
5,779167	0,1	0,053656
5,780833	0,1	0,094062
5,782500	0,1	0,113224
5,784167	0,1	0,064020
5,785833	0,1	0,044096
5,787500	0,1	0,080191
5,789167	0,1	0,069768
5,790833	0,1	0,068646
5,792500	0,1	0,099512
5,794167	0,1	0,107199
5,795833	0,1	0,085216
5,797500	0,1	0,103782
5,799167	0,1	0,127079
5,800833	0,1	0,084558
5,802500	0,1	0,053105
5,804167	0,1	0,061129
5,805833	0,1	0,100318
5,807500	0,1	0,061680
5,809167	0,1	0,065085
5,810833	0,1	0,082662
5,812500	0,1	0,064573
5,814167	0,1	0,061092
5,815833	0,1	0,093529
5,817500	0,1	0,072276
5,819167	0,1	0,069476
5,820833	0,1	0,061257
5,822500	0,1	0,088891
5,824167	0,1	0,038389
5,825833	0,1	0,095075
5,827500	0,1	0,082066
5,829167	0,1	0,051965
5,830833	0,1	0,076218
5,832500	0,1	0,098771
5,834167	0,1	0,087037
5,835833	0,1	0,091981
5,837500	0,1	0,103118
5,839167	0,1	0,063521
5,840833	0,1	0,073366
5,842500	0,1	0,104335
5,844167	0,1	0,058387
5,845833	0,1	0,063304
5,847500	0,1	0,104270
5,849167	0,1	0,066958
5,850833	0,1	0,053700
5,852500	0,1	0,089095
5,854167	0,1	0,067659
5,855833	0,1	0,079243
5,857500	0,1	0,029568
5,859167	0,1	0,076649
5,860833	0,1	0,080199
5,862500	0,1	0,074692
5,864167	0,1	0,062417
5,865833	0,1	0,099801
5,867500	0,1	0,108646
5,869167	0,1	0,088840
5,870833	0,1	0,072046
5,872500	0,1	0,031016
5,874167	0,1	0,085135
5,875833	0,1	0,113017
5,877500	0,1	0,057666
5,879167	0,1	0,043577
5,880833	0,1	0,073485
5,882500	0,1	0,081131
5,884167	0,1	0,031909
5,885833	0,1	0,083522
5,887500	0,1	0,079476
5,889167	0,1	0,069251
5,890833	0,1	0,062933
5,892500	0,1	0,056413
5,894167	0,1	0,039001
5,895833	0,1	0,037156
5,897500	0,1	0,048850
5,899167	0,1	0,065888
5,900833	0,1	0,068004
5,902500	0,1	0,037432
5,904167	0,1	0,059406
5,905833	0,1	0,064669
5,907500	0,1	0,055005
5,909167	0,1	0,043679
5,910833	0,1	0,029166
5,912500	0,1	0,051622
5,914167	0,1	0,054979
5,915833	0,1	0,008388
5,917500	0,1	0,013634
5,919167	0,1	0,065715
5,920833	0,1	0,053699
5,922500	0,1	0,059515
5,924167	0,1	0,039790
5,925833	0,1	0,034796
5,927500	0,1	0,025252
5,929167	0,1	0,064100
5,930833	0,1	0,031780
5,932500	0,1	0,041086
5,934167	0,1	0,036142
5,935833	0,1	0,054998
5,937500	0,1	0,038483
5,939167	0,1	0,022314
5,940833	0,1	0,075860
5,942500	0,1	0,046044
5,944167	0,1	0,014368
5,945833	0,1	0,026366
5,947500	0,1	0,003682
5,949167	0,1	0,032283
5,950833	0,1	0,074270
5,952500	0,1	0,032382
5,954167	0,1	0,046571
5,955833	0,1	0,063860
5,957500	0,1	0,022133
5,959167	0,1	0,067642
5,960833	0,1	0,033746
5,962500	0,1	0,019042
5,964167	0,1	0,052343
5,965833	0,1	0,029273
5,967500	0,1	0,029100
5,969167	0,1	0,033675
5,970833	0,1	-0,012853
5,972500	0,1	0,047493
5,974167	0,1	0,050631
5,975833	0,1	0,008616
5,977500	0,1	0,004527
5,979167	0,1	-0,003152
5,980833	0,1	-0,007233
5,982500	0,1	0,005744
5,984167	0,1	0,020588
5,985833	0,1	0,046921
5,987500	0,1	0,019687
5,989167	0,1	0,029513
5,990833	0,1	0,023015
5,992500	0,1	-0,024528
5,994167	0,1	0,012156
5,995833	0,1	0,033464
5,997500	0,1	-0,000371
5,999167	0,1	-0,019650
6,000833	0,1	0,006900
