File Path	chrom://chromeleon01/ikbm_chromeleon/2022/Rezex/Esteban/220612_chitin_4_7.seq/320.smp/UV_VIS_1.channel/UV_VIS_1.chm
Channel	UV_VIS_1

Injection Information:
Data Vault	ikbm_chromeleon
Injection	Sc10D_24h-NT_NA
Injection Number	36
Position	RD8
Comment	
Processing Method	New ProcMethod
Instrument Method	Short_Rezex_6min_194nm
Type	Unknown
Status	Finished
Injection Date	12.06.2022
Injection Time	21:01:00
Injection Volume (µl)	8,000
Dilution Factor	1,0000
Weight	1,0000

Chromatogram Data Information:
Time Min. (min)	0,000833
Time Max. (min)	6,000833
Data Points	3601
Detector	UV
Generating Data System	Chromeleon 7.2.9.11323
Exporting Data System	Chromeleon 7.2.9.0
Operator	Instrument Controller
Signal Quantity	Absorbance
Signal Unit	mAU
Signal Min.	-0,362180
Signal Max.	121,783669
Channel	UV_VIS_1
Driver Name	VWD3000.dll
Channel Type	Evaluation
Min. Step (s)	0,1
Max. Step (s)	0,1
Average Step (s)	0,1

Signal Parameter Information:
Signal Info	WVL:194 nm

Chromatogram Data:
Time (min)	Step (s)	Value (mAU)
0,000833	n.a.	-0,136170
0,002500	0,1	-0,150218
0,004167	0,1	-0,152929
0,005833	0,1	-0,141137
0,007500	0,1	-0,123214
0,009167	0,1	-0,150251
0,010833	0,1	-0,134851
0,012500	0,1	-0,120729
0,014167	0,1	-0,162466
0,015833	0,1	-0,132049
0,017500	0,1	-0,144256
0,019167	0,1	-0,110901
0,020833	0,1	-0,097645
0,022500	0,1	-0,136156
0,024167	0,1	-0,170525
0,025833	0,1	-0,151616
0,027500	0,1	-0,141461
0,029167	0,1	-0,191189
0,030833	0,1	-0,196063
0,032500	0,1	-0,145695
0,034167	0,1	-0,176009
0,035833	0,1	-0,178335
0,037500	0,1	-0,186200
0,039167	0,1	-0,195194
0,040833	0,1	-0,196968
0,042500	0,1	-0,186590
0,044167	0,1	-0,168060
0,045833	0,1	-0,202697
0,047500	0,1	-0,142827
0,049167	0,1	-0,139590
0,050833	0,1	-0,144876
0,052500	0,1	-0,132175
0,054167	0,1	-0,195534
0,055833	0,1	-0,165094
0,057500	0,1	-0,165922
0,059167	0,1	-0,176204
0,060833	0,1	-0,149684
0,062500	0,1	-0,140462
0,064167	0,1	-0,161632
0,065833	0,1	-0,151968
0,067500	0,1	-0,157868
0,069167	0,1	-0,147875
0,070833	0,1	-0,178234
0,072500	0,1	-0,180979
0,074167	0,1	-0,158159
0,075833	0,1	-0,152546
0,077500	0,1	-0,150676
0,079167	0,1	-0,132337
0,080833	0,1	-0,124981
0,082500	0,1	-0,102906
0,084167	0,1	-0,167200
0,085833	0,1	-0,129087
0,087500	0,1	-0,144354
0,089167	0,1	-0,148387
0,090833	0,1	-0,130112
0,092500	0,1	-0,085884
0,094167	0,1	-0,138123
0,095833	0,1	-0,144286
0,097500	0,1	-0,146996
0,099167	0,1	-0,119768
0,100833	0,1	-0,134459
0,102500	0,1	-0,149707
0,104167	0,1	-0,120702
0,105833	0,1	-0,143188
0,107500	0,1	-0,151833
0,109167	0,1	-0,181163
0,110833	0,1	-0,148749
0,112500	0,1	-0,127889
0,114167	0,1	-0,147452
0,115833	0,1	-0,141780
0,117500	0,1	-0,172626
0,119167	0,1	-0,185522
0,120833	0,1	-0,195674
0,122500	0,1	-0,180953
0,124167	0,1	-0,199124
0,125833	0,1	-0,140469
0,127500	0,1	-0,157829
0,129167	0,1	-0,166374
0,130833	0,1	-0,160799
0,132500	0,1	-0,142043
0,134167	0,1	-0,156446
0,135833	0,1	-0,163151
0,137500	0,1	-0,147682
0,139167	0,1	-0,149195
0,140833	0,1	-0,216326
0,142500	0,1	-0,132322
0,144167	0,1	-0,151347
0,145833	0,1	-0,142875
0,147500	0,1	-0,168240
0,149167	0,1	-0,122547
0,150833	0,1	-0,159145
0,152500	0,1	-0,122698
0,154167	0,1	-0,143578
0,155833	0,1	-0,160149
0,157500	0,1	-0,114679
0,159167	0,1	-0,117886
0,160833	0,1	-0,132909
0,162500	0,1	-0,134425
0,164167	0,1	-0,158472
0,165833	0,1	-0,138429
0,167500	0,1	-0,158793
0,169167	0,1	-0,149485
0,170833	0,1	-0,143166
0,172500	0,1	-0,129146
0,174167	0,1	-0,149802
0,175833	0,1	-0,134271
0,177500	0,1	-0,149029
0,179167	0,1	-0,114060
0,180833	0,1	-0,139290
0,182500	0,1	-0,178038
0,184167	0,1	-0,105172
0,185833	0,1	-0,144603
0,187500	0,1	-0,100846
0,189167	0,1	-0,145603
0,190833	0,1	-0,143069
0,192500	0,1	-0,155511
0,194167	0,1	-0,114647
0,195833	0,1	-0,107062
0,197500	0,1	-0,150795
0,199167	0,1	-0,155349
0,200833	0,1	-0,162345
0,202500	0,1	-0,153966
0,204167	0,1	-0,130302
0,205833	0,1	-0,130042
0,207500	0,1	-0,135909
0,209167	0,1	-0,141327
0,210833	0,1	-0,132530
0,212500	0,1	-0,142642
0,214167	0,1	-0,137841
0,215833	0,1	-0,118666
0,217500	0,1	-0,119595
0,219167	0,1	-0,118472
0,220833	0,1	-0,150509
0,222500	0,1	-0,133980
0,224167	0,1	-0,117026
0,225833	0,1	-0,152537
0,227500	0,1	-0,124571
0,229167	0,1	-0,116344
0,230833	0,1	-0,138001
0,232500	0,1	-0,151543
0,234167	0,1	-0,120733
0,235833	0,1	-0,127456
0,237500	0,1	-0,156888
0,239167	0,1	-0,122443
0,240833	0,1	-0,128332
0,242500	0,1	-0,135199
0,244167	0,1	-0,159761
0,245833	0,1	-0,178622
0,247500	0,1	-0,126997
0,249167	0,1	-0,144515
0,250833	0,1	-0,143198
0,252500	0,1	-0,121571
0,254167	0,1	-0,154342
0,255833	0,1	-0,099683
0,257500	0,1	-0,104480
0,259167	0,1	-0,139961
0,260833	0,1	-0,202820
0,262500	0,1	-0,135022
0,264167	0,1	-0,127275
0,265833	0,1	-0,115440
0,267500	0,1	-0,134783
0,269167	0,1	-0,122409
0,270833	0,1	-0,109092
0,272500	0,1	-0,177321
0,274167	0,1	-0,092343
0,275833	0,1	-0,128845
0,277500	0,1	-0,143161
0,279167	0,1	-0,153284
0,280833	0,1	-0,143941
0,282500	0,1	-0,131756
0,284167	0,1	-0,095295
0,285833	0,1	-0,102734
0,287500	0,1	-0,121816
0,289167	0,1	-0,178289
0,290833	0,1	-0,129440
0,292500	0,1	-0,165014
0,294167	0,1	-0,146361
0,295833	0,1	-0,168339
0,297500	0,1	-0,133501
0,299167	0,1	-0,152317
0,300833	0,1	-0,124028
0,302500	0,1	-0,137293
0,304167	0,1	-0,121830
0,305833	0,1	-0,141964
0,307500	0,1	-0,135818
0,309167	0,1	-0,130948
0,310833	0,1	-0,135236
0,312500	0,1	-0,146544
0,314167	0,1	-0,146968
0,315833	0,1	-0,116443
0,317500	0,1	-0,142932
0,319167	0,1	-0,143939
0,320833	0,1	-0,121280
0,322500	0,1	-0,144968
0,324167	0,1	-0,134530
0,325833	0,1	-0,099650
0,327500	0,1	-0,150793
0,329167	0,1	-0,090526
0,330833	0,1	-0,114793
0,332500	0,1	-0,144995
0,334167	0,1	-0,130436
0,335833	0,1	-0,165338
0,337500	0,1	-0,157900
0,339167	0,1	-0,169242
0,340833	0,1	-0,162283
0,342500	0,1	-0,106842
0,344167	0,1	-0,133455
0,345833	0,1	-0,123212
0,347500	0,1	-0,131041
0,349167	0,1	-0,117539
0,350833	0,1	-0,115537
0,352500	0,1	-0,136711
0,354167	0,1	-0,152703
0,355833	0,1	-0,103269
0,357500	0,1	-0,153887
0,359167	0,1	-0,119380
0,360833	0,1	-0,085947
0,362500	0,1	-0,164099
0,364167	0,1	-0,125959
0,365833	0,1	-0,112288
0,367500	0,1	-0,133233
0,369167	0,1	-0,132528
0,370833	0,1	-0,179355
0,372500	0,1	-0,118645
0,374167	0,1	-0,100877
0,375833	0,1	-0,129037
0,377500	0,1	-0,063740
0,379167	0,1	-0,132989
0,380833	0,1	-0,124826
0,382500	0,1	-0,102930
0,384167	0,1	-0,127137
0,385833	0,1	-0,158924
0,387500	0,1	-0,134887
0,389167	0,1	-0,090820
0,390833	0,1	-0,098285
0,392500	0,1	-0,138191
0,394167	0,1	-0,104967
0,395833	0,1	-0,125523
0,397500	0,1	-0,119922
0,399167	0,1	-0,114090
0,400833	0,1	-0,167264
0,402500	0,1	-0,126633
0,404167	0,1	-0,143026
0,405833	0,1	-0,146453
0,407500	0,1	-0,109996
0,409167	0,1	-0,140157
0,410833	0,1	-0,101071
0,412500	0,1	-0,120396
0,414167	0,1	-0,108548
0,415833	0,1	-0,084171
0,417500	0,1	-0,126525
0,419167	0,1	-0,132620
0,420833	0,1	-0,137584
0,422500	0,1	-0,089915
0,424167	0,1	-0,095706
0,425833	0,1	-0,144702
0,427500	0,1	-0,132175
0,429167	0,1	-0,112928
0,430833	0,1	-0,127945
0,432500	0,1	-0,134299
0,434167	0,1	-0,149962
0,435833	0,1	-0,081572
0,437500	0,1	-0,130582
0,439167	0,1	-0,158762
0,440833	0,1	-0,109296
0,442500	0,1	-0,078722
0,444167	0,1	-0,118528
0,445833	0,1	-0,088034
0,447500	0,1	-0,092061
0,449167	0,1	-0,144896
0,450833	0,1	-0,113640
0,452500	0,1	-0,103997
0,454167	0,1	-0,111340
0,455833	0,1	-0,128304
0,457500	0,1	-0,106415
0,459167	0,1	-0,149152
0,460833	0,1	-0,114097
0,462500	0,1	-0,128429
0,464167	0,1	-0,113091
0,465833	0,1	-0,105801
0,467500	0,1	-0,088937
0,469167	0,1	-0,119463
0,470833	0,1	-0,086331
0,472500	0,1	-0,106730
0,474167	0,1	-0,096962
0,475833	0,1	-0,077272
0,477500	0,1	-0,126037
0,479167	0,1	-0,106935
0,480833	0,1	-0,109190
0,482500	0,1	-0,099418
0,484167	0,1	-0,088102
0,485833	0,1	-0,093162
0,487500	0,1	-0,124621
0,489167	0,1	-0,090780
0,490833	0,1	-0,147150
0,492500	0,1	-0,105130
0,494167	0,1	-0,114310
0,495833	0,1	-0,113342
0,497500	0,1	-0,125265
0,499167	0,1	-0,072635
0,500833	0,1	-0,107371
0,502500	0,1	-0,066640
0,504167	0,1	-0,093091
0,505833	0,1	-0,109013
0,507500	0,1	-0,134165
0,509167	0,1	-0,086821
0,510833	0,1	-0,103470
0,512500	0,1	-0,107987
0,514167	0,1	-0,123011
0,515833	0,1	-0,100450
0,517500	0,1	-0,129681
0,519167	0,1	-0,104001
0,520833	0,1	-0,087719
0,522500	0,1	-0,097959
0,524167	0,1	-0,092426
0,525833	0,1	-0,117945
0,527500	0,1	-0,061251
0,529167	0,1	-0,082609
0,530833	0,1	-0,106894
0,532500	0,1	-0,077528
0,534167	0,1	-0,076108
0,535833	0,1	-0,088292
0,537500	0,1	-0,084941
0,539167	0,1	-0,052339
0,540833	0,1	-0,086648
0,542500	0,1	-0,116980
0,544167	0,1	-0,080819
0,545833	0,1	-0,069371
0,547500	0,1	-0,042253
0,549167	0,1	-0,100142
0,550833	0,1	-0,060379
0,552500	0,1	-0,095185
0,554167	0,1	-0,094541
0,555833	0,1	-0,016991
0,557500	0,1	-0,058068
0,559167	0,1	-0,076683
0,560833	0,1	-0,079969
0,562500	0,1	-0,074819
0,564167	0,1	-0,052541
0,565833	0,1	-0,090090
0,567500	0,1	-0,068206
0,569167	0,1	-0,069621
0,570833	0,1	-0,104820
0,572500	0,1	-0,069246
0,574167	0,1	-0,079546
0,575833	0,1	-0,063756
0,577500	0,1	-0,075161
0,579167	0,1	-0,097411
0,580833	0,1	-0,086905
0,582500	0,1	-0,092249
0,584167	0,1	-0,078683
0,585833	0,1	-0,045348
0,587500	0,1	-0,099852
0,589167	0,1	-0,041681
0,590833	0,1	-0,071557
0,592500	0,1	-0,044215
0,594167	0,1	-0,051244
0,595833	0,1	-0,033745
0,597500	0,1	-0,064904
0,599167	0,1	-0,075461
0,600833	0,1	-0,049897
0,602500	0,1	-0,076636
0,604167	0,1	-0,061886
0,605833	0,1	-0,073714
0,607500	0,1	-0,061371
0,609167	0,1	-0,105847
0,610833	0,1	-0,016758
0,612500	0,1	-0,061553
0,614167	0,1	-0,029905
0,615833	0,1	-0,048335
0,617500	0,1	-0,035836
0,619167	0,1	-0,061914
0,620833	0,1	-0,003377
0,622500	0,1	-0,038208
0,624167	0,1	-0,037022
0,625833	0,1	-0,061876
0,627500	0,1	-0,061072
0,629167	0,1	-0,013552
0,630833	0,1	-0,037595
0,632500	0,1	-0,036125
0,634167	0,1	-0,018293
0,635833	0,1	-0,054780
0,637500	0,1	-0,050789
0,639167	0,1	-0,044370
0,640833	0,1	-0,081286
0,642500	0,1	-0,046312
0,644167	0,1	-0,035639
0,645833	0,1	-0,048235
0,647500	0,1	-0,024007
0,649167	0,1	-0,062575
0,650833	0,1	-0,070360
0,652500	0,1	-0,004220
0,654167	0,1	-0,027499
0,655833	0,1	-0,034888
0,657500	0,1	-0,029123
0,659167	0,1	-0,026477
0,660833	0,1	0,005502
0,662500	0,1	0,048650
0,664167	0,1	-0,020721
0,665833	0,1	-0,038595
0,667500	0,1	-0,009229
0,669167	0,1	0,016152
0,670833	0,1	-0,012965
0,672500	0,1	-0,006065
0,674167	0,1	-0,031921
0,675833	0,1	0,033518
0,677500	0,1	0,008068
0,679167	0,1	-0,014573
0,680833	0,1	-0,003365
0,682500	0,1	0,016733
0,684167	0,1	0,000129
0,685833	0,1	0,005192
0,687500	0,1	0,018629
0,689167	0,1	0,032466
0,690833	0,1	-0,021239
0,692500	0,1	-0,001487
0,694167	0,1	-0,002350
0,695833	0,1	0,037106
0,697500	0,1	0,026441
0,699167	0,1	0,058131
0,700833	0,1	0,020708
0,702500	0,1	0,026149
0,704167	0,1	0,014066
0,705833	0,1	0,000616
0,707500	0,1	0,030592
0,709167	0,1	0,028888
0,710833	0,1	0,010843
0,712500	0,1	-0,012638
0,714167	0,1	0,060608
0,715833	0,1	0,035356
0,717500	0,1	0,034733
0,719167	0,1	0,031809
0,720833	0,1	0,062106
0,722500	0,1	0,073920
0,724167	0,1	0,065539
0,725833	0,1	0,035028
0,727500	0,1	0,089906
0,729167	0,1	0,075823
0,730833	0,1	0,055709
0,732500	0,1	0,083842
0,734167	0,1	0,049931
0,735833	0,1	0,042961
0,737500	0,1	0,095557
0,739167	0,1	0,092725
0,740833	0,1	0,128107
0,742500	0,1	0,122469
0,744167	0,1	0,120665
0,745833	0,1	0,108475
0,747500	0,1	0,073484
0,749167	0,1	0,129905
0,750833	0,1	0,101647
0,752500	0,1	0,145592
0,754167	0,1	0,117577
0,755833	0,1	0,109209
0,757500	0,1	0,133784
0,759167	0,1	0,135371
0,760833	0,1	0,145335
0,762500	0,1	0,125225
0,764167	0,1	0,170847
0,765833	0,1	0,154374
0,767500	0,1	0,183134
0,769167	0,1	0,172952
0,770833	0,1	0,148437
0,772500	0,1	0,115825
0,774167	0,1	0,125467
0,775833	0,1	0,137503
0,777500	0,1	0,131079
0,779167	0,1	0,146227
0,780833	0,1	0,153922
0,782500	0,1	0,133679
0,784167	0,1	0,150852
0,785833	0,1	0,172565
0,787500	0,1	0,139870
0,789167	0,1	0,141376
0,790833	0,1	0,125052
0,792500	0,1	0,153050
0,794167	0,1	0,163511
0,795833	0,1	0,143781
0,797500	0,1	0,140600
0,799167	0,1	0,159372
0,800833	0,1	0,140693
0,802500	0,1	0,121867
0,804167	0,1	0,162527
0,805833	0,1	0,176239
0,807500	0,1	0,121191
0,809167	0,1	0,161731
0,810833	0,1	0,186453
0,812500	0,1	0,163567
0,814167	0,1	0,156780
0,815833	0,1	0,209875
0,817500	0,1	0,148264
0,819167	0,1	0,194077
0,820833	0,1	0,178719
0,822500	0,1	0,165210
0,824167	0,1	0,197487
0,825833	0,1	0,193178
0,827500	0,1	0,193443
0,829167	0,1	0,131936
0,830833	0,1	0,198323
0,832500	0,1	0,213689
0,834167	0,1	0,168734
0,835833	0,1	0,187406
0,837500	0,1	0,202049
0,839167	0,1	0,214914
0,840833	0,1	0,183680
0,842500	0,1	0,233352
0,844167	0,1	0,182419
0,845833	0,1	0,185740
0,847500	0,1	0,208345
0,849167	0,1	0,218695
0,850833	0,1	0,212091
0,852500	0,1	0,206704
0,854167	0,1	0,180054
0,855833	0,1	0,255242
0,857500	0,1	0,227094
0,859167	0,1	0,224285
0,860833	0,1	0,252072
0,862500	0,1	0,193523
0,864167	0,1	0,215198
0,865833	0,1	0,247530
0,867500	0,1	0,226358
0,869167	0,1	0,220702
0,870833	0,1	0,214249
0,872500	0,1	0,245594
0,874167	0,1	0,256994
0,875833	0,1	0,233812
0,877500	0,1	0,233452
0,879167	0,1	0,240904
0,880833	0,1	0,265691
0,882500	0,1	0,266831
0,884167	0,1	0,266944
0,885833	0,1	0,271615
0,887500	0,1	0,238689
0,889167	0,1	0,303961
0,890833	0,1	0,250377
0,892500	0,1	0,292393
0,894167	0,1	0,284305
0,895833	0,1	0,265791
0,897500	0,1	0,298983
0,899167	0,1	0,272892
0,900833	0,1	0,352676
0,902500	0,1	0,315427
0,904167	0,1	0,278346
0,905833	0,1	0,303479
0,907500	0,1	0,325095
0,909167	0,1	0,309255
0,910833	0,1	0,313212
0,912500	0,1	0,369887
0,914167	0,1	0,299365
0,915833	0,1	0,318283
0,917500	0,1	0,359522
0,919167	0,1	0,338324
0,920833	0,1	0,392328
0,922500	0,1	0,345652
0,924167	0,1	0,358703
0,925833	0,1	0,391869
0,927500	0,1	0,344543
0,929167	0,1	0,394486
0,930833	0,1	0,389161
0,932500	0,1	0,405267
0,934167	0,1	0,379195
0,935833	0,1	0,458788
0,937500	0,1	0,436399
0,939167	0,1	0,417350
0,940833	0,1	0,462614
0,942500	0,1	0,442327
0,944167	0,1	0,435762
0,945833	0,1	0,427407
0,947500	0,1	0,474797
0,949167	0,1	0,451009
0,950833	0,1	0,443392
0,952500	0,1	0,437716
0,954167	0,1	0,489069
0,955833	0,1	0,488268
0,957500	0,1	0,483068
0,959167	0,1	0,518267
0,960833	0,1	0,518242
0,962500	0,1	0,529981
0,964167	0,1	0,509511
0,965833	0,1	0,521230
0,967500	0,1	0,560889
0,969167	0,1	0,578773
0,970833	0,1	0,587118
0,972500	0,1	0,544729
0,974167	0,1	0,587978
0,975833	0,1	0,582891
0,977500	0,1	0,560919
0,979167	0,1	0,639131
0,980833	0,1	0,604399
0,982500	0,1	0,602775
0,984167	0,1	0,628641
0,985833	0,1	0,599026
0,987500	0,1	0,622030
0,989167	0,1	0,601812
0,990833	0,1	0,630442
0,992500	0,1	0,704937
0,994167	0,1	0,694568
0,995833	0,1	0,659235
0,997500	0,1	0,726423
0,999167	0,1	0,679622
1,000833	0,1	0,699742
1,002500	0,1	0,733870
1,004167	0,1	0,747661
1,005833	0,1	0,704239
1,007500	0,1	0,742762
1,009167	0,1	0,777748
1,010833	0,1	0,779846
1,012500	0,1	0,789153
1,014167	0,1	0,791370
1,015833	0,1	0,852551
1,017500	0,1	0,839562
1,019167	0,1	0,833375
1,020833	0,1	0,899369
1,022500	0,1	0,877914
1,024167	0,1	0,897294
1,025833	0,1	0,892129
1,027500	0,1	0,935431
1,029167	0,1	0,924944
1,030833	0,1	0,966021
1,032500	0,1	0,954042
1,034167	0,1	0,987942
1,035833	0,1	0,971479
1,037500	0,1	1,031887
1,039167	0,1	0,991322
1,040833	0,1	1,012221
1,042500	0,1	1,046490
1,044167	0,1	1,064870
1,045833	0,1	1,083045
1,047500	0,1	1,045768
1,049167	0,1	1,082543
1,050833	0,1	1,119898
1,052500	0,1	1,087302
1,054167	0,1	1,126724
1,055833	0,1	1,165307
1,057500	0,1	1,233792
1,059167	0,1	1,211888
1,060833	0,1	1,320103
1,062500	0,1	1,398182
1,064167	0,1	1,464695
1,065833	0,1	1,600449
1,067500	0,1	1,692200
1,069167	0,1	1,866742
1,070833	0,1	2,088337
1,072500	0,1	2,372610
1,074167	0,1	2,640453
1,075833	0,1	2,972029
1,077500	0,1	3,425927
1,079167	0,1	3,813456
1,080833	0,1	4,423921
1,082500	0,1	4,998033
1,084167	0,1	5,683215
1,085833	0,1	6,380203
1,087500	0,1	7,243850
1,089167	0,1	8,010471
1,090833	0,1	8,905175
1,092500	0,1	9,796667
1,094167	0,1	10,638389
1,095833	0,1	11,559854
1,097500	0,1	12,437195
1,099167	0,1	13,305545
1,100833	0,1	14,070203
1,102500	0,1	14,795970
1,104167	0,1	15,363897
1,105833	0,1	15,944572
1,107500	0,1	16,440414
1,109167	0,1	16,850250
1,110833	0,1	17,100664
1,112500	0,1	17,241313
1,114167	0,1	17,305763
1,115833	0,1	17,299019
1,117500	0,1	17,163876
1,119167	0,1	16,943287
1,120833	0,1	16,652196
1,122500	0,1	16,300496
1,124167	0,1	15,865335
1,125833	0,1	15,403031
1,127500	0,1	14,886240
1,129167	0,1	14,275819
1,130833	0,1	13,690321
1,132500	0,1	13,045911
1,134167	0,1	12,475771
1,135833	0,1	11,791844
1,137500	0,1	11,103748
1,139167	0,1	10,473386
1,140833	0,1	9,846788
1,142500	0,1	9,299499
1,144167	0,1	8,684703
1,145833	0,1	8,128010
1,147500	0,1	7,600262
1,149167	0,1	7,087120
1,150833	0,1	6,661823
1,152500	0,1	6,213041
1,154167	0,1	5,773219
1,155833	0,1	5,411332
1,157500	0,1	5,079779
1,159167	0,1	4,785513
1,160833	0,1	4,483406
1,162500	0,1	4,254290
1,164167	0,1	3,968394
1,165833	0,1	3,806065
1,167500	0,1	3,670406
1,169167	0,1	3,477727
1,170833	0,1	3,367680
1,172500	0,1	3,288592
1,174167	0,1	3,133420
1,175833	0,1	3,058537
1,177500	0,1	3,021347
1,179167	0,1	2,972533
1,180833	0,1	2,940867
1,182500	0,1	2,883555
1,184167	0,1	2,890446
1,185833	0,1	2,878271
1,187500	0,1	2,855158
1,189167	0,1	2,864994
1,190833	0,1	2,846537
1,192500	0,1	2,902976
1,194167	0,1	2,858592
1,195833	0,1	2,848326
1,197500	0,1	2,904097
1,199167	0,1	2,908105
1,200833	0,1	2,923371
1,202500	0,1	2,994251
1,204167	0,1	2,981616
1,205833	0,1	3,017353
1,207500	0,1	3,029336
1,209167	0,1	3,032046
1,210833	0,1	3,092554
1,212500	0,1	3,121854
1,214167	0,1	3,140585
1,215833	0,1	3,158489
1,217500	0,1	3,195996
1,219167	0,1	3,246233
1,220833	0,1	3,216441
1,222500	0,1	3,263450
1,224167	0,1	3,267065
1,225833	0,1	3,302079
1,227500	0,1	3,350903
1,229167	0,1	3,338648
1,230833	0,1	3,364925
1,232500	0,1	3,376548
1,234167	0,1	3,453282
1,235833	0,1	3,467562
1,237500	0,1	3,469067
1,239167	0,1	3,508393
1,240833	0,1	3,514740
1,242500	0,1	3,525348
1,244167	0,1	3,574148
1,245833	0,1	3,578836
1,247500	0,1	3,572700
1,249167	0,1	3,595697
1,250833	0,1	3,557507
1,252500	0,1	3,623451
1,254167	0,1	3,642083
1,255833	0,1	3,661995
1,257500	0,1	3,659163
1,259167	0,1	3,673223
1,260833	0,1	3,715693
1,262500	0,1	3,738713
1,264167	0,1	3,707508
1,265833	0,1	3,741477
1,267500	0,1	3,726123
1,269167	0,1	3,737708
1,270833	0,1	3,739616
1,272500	0,1	3,788069
1,274167	0,1	3,782109
1,275833	0,1	3,782923
1,277500	0,1	3,806541
1,279167	0,1	3,787032
1,280833	0,1	3,796702
1,282500	0,1	3,801350
1,284167	0,1	3,840410
1,285833	0,1	3,824946
1,287500	0,1	3,814643
1,289167	0,1	3,870824
1,290833	0,1	3,854822
1,292500	0,1	3,883776
1,294167	0,1	3,848531
1,295833	0,1	3,869979
1,297500	0,1	3,869181
1,299167	0,1	3,906455
1,300833	0,1	3,869521
1,302500	0,1	3,940572
1,304167	0,1	3,930145
1,305833	0,1	3,920798
1,307500	0,1	3,892532
1,309167	0,1	3,918552
1,310833	0,1	3,941065
1,312500	0,1	3,952150
1,314167	0,1	3,944412
1,315833	0,1	3,968570
1,317500	0,1	3,903973
1,319167	0,1	3,966790
1,320833	0,1	3,959897
1,322500	0,1	3,979720
1,324167	0,1	3,943183
1,325833	0,1	3,906852
1,327500	0,1	3,954026
1,329167	0,1	3,928612
1,330833	0,1	3,931574
1,332500	0,1	3,941653
1,334167	0,1	3,913311
1,335833	0,1	3,969514
1,337500	0,1	3,986264
1,339167	0,1	3,975622
1,340833	0,1	3,937926
1,342500	0,1	3,918646
1,344167	0,1	3,960238
1,345833	0,1	3,968640
1,347500	0,1	3,934070
1,349167	0,1	4,009798
1,350833	0,1	3,937016
1,352500	0,1	3,931294
1,354167	0,1	3,949878
1,355833	0,1	3,950818
1,357500	0,1	3,933933
1,359167	0,1	3,890633
1,360833	0,1	3,927378
1,362500	0,1	3,920678
1,364167	0,1	3,935595
1,365833	0,1	3,989225
1,367500	0,1	3,958018
1,369167	0,1	3,937405
1,370833	0,1	3,952331
1,372500	0,1	3,959195
1,374167	0,1	3,956460
1,375833	0,1	3,968589
1,377500	0,1	3,952525
1,379167	0,1	3,930466
1,380833	0,1	3,981716
1,382500	0,1	3,945454
1,384167	0,1	3,960361
1,385833	0,1	3,942127
1,387500	0,1	3,976712
1,389167	0,1	4,005388
1,390833	0,1	3,934929
1,392500	0,1	4,024317
1,394167	0,1	4,012691
1,395833	0,1	4,008449
1,397500	0,1	3,965280
1,399167	0,1	4,000078
1,400833	0,1	3,993328
1,402500	0,1	4,041921
1,404167	0,1	3,938123
1,405833	0,1	4,044028
1,407500	0,1	4,022409
1,409167	0,1	3,974179
1,410833	0,1	4,048075
1,412500	0,1	4,002684
1,414167	0,1	4,036283
1,415833	0,1	4,000614
1,417500	0,1	3,998252
1,419167	0,1	4,012253
1,420833	0,1	4,033765
1,422500	0,1	4,023441
1,424167	0,1	4,052875
1,425833	0,1	4,037231
1,427500	0,1	4,047272
1,429167	0,1	4,055336
1,430833	0,1	4,049210
1,432500	0,1	4,021892
1,434167	0,1	4,027743
1,435833	0,1	4,062608
1,437500	0,1	4,044141
1,439167	0,1	4,040031
1,440833	0,1	4,072523
1,442500	0,1	4,042609
1,444167	0,1	4,073141
1,445833	0,1	4,054273
1,447500	0,1	4,069942
1,449167	0,1	4,012503
1,450833	0,1	4,078676
1,452500	0,1	4,012589
1,454167	0,1	4,078877
1,455833	0,1	4,040039
1,457500	0,1	4,044353
1,459167	0,1	4,085394
1,460833	0,1	4,029794
1,462500	0,1	4,045903
1,464167	0,1	4,034424
1,465833	0,1	4,029183
1,467500	0,1	4,059553
1,469167	0,1	4,066354
1,470833	0,1	4,055607
1,472500	0,1	4,026049
1,474167	0,1	4,065109
1,475833	0,1	4,071395
1,477500	0,1	4,049118
1,479167	0,1	4,103420
1,480833	0,1	4,061207
1,482500	0,1	4,088988
1,484167	0,1	4,100041
1,485833	0,1	4,073554
1,487500	0,1	4,098933
1,489167	0,1	4,147279
1,490833	0,1	4,100390
1,492500	0,1	4,067433
1,494167	0,1	4,090554
1,495833	0,1	4,138331
1,497500	0,1	4,090792
1,499167	0,1	4,101846
1,500833	0,1	4,111697
1,502500	0,1	4,131943
1,504167	0,1	4,128546
1,505833	0,1	4,151529
1,507500	0,1	4,150180
1,509167	0,1	4,154737
1,510833	0,1	4,106218
1,512500	0,1	4,152236
1,514167	0,1	4,158896
1,515833	0,1	4,159380
1,517500	0,1	4,152303
1,519167	0,1	4,167558
1,520833	0,1	4,139337
1,522500	0,1	4,197841
1,524167	0,1	4,173091
1,525833	0,1	4,175651
1,527500	0,1	4,144181
1,529167	0,1	4,226888
1,530833	0,1	4,203408
1,532500	0,1	4,230105
1,534167	0,1	4,233248
1,535833	0,1	4,207999
1,537500	0,1	4,217197
1,539167	0,1	4,213915
1,540833	0,1	4,199361
1,542500	0,1	4,218722
1,544167	0,1	4,214253
1,545833	0,1	4,220901
1,547500	0,1	4,253576
1,549167	0,1	4,243478
1,550833	0,1	4,250384
1,552500	0,1	4,226516
1,554167	0,1	4,283532
1,555833	0,1	4,250194
1,557500	0,1	4,269070
1,559167	0,1	4,279891
1,560833	0,1	4,258853
1,562500	0,1	4,294415
1,564167	0,1	4,278594
1,565833	0,1	4,247927
1,567500	0,1	4,251375
1,569167	0,1	4,272750
1,570833	0,1	4,276862
1,572500	0,1	4,312029
1,574167	0,1	4,274748
1,575833	0,1	4,246226
1,577500	0,1	4,250413
1,579167	0,1	4,252281
1,580833	0,1	4,270542
1,582500	0,1	4,300760
1,584167	0,1	4,278850
1,585833	0,1	4,281395
1,587500	0,1	4,294362
1,589167	0,1	4,318037
1,590833	0,1	4,246803
1,592500	0,1	4,335071
1,594167	0,1	4,265976
1,595833	0,1	4,321541
1,597500	0,1	4,266847
1,599167	0,1	4,314547
1,600833	0,1	4,286328
1,602500	0,1	4,298752
1,604167	0,1	4,318093
1,605833	0,1	4,316174
1,607500	0,1	4,323762
1,609167	0,1	4,339055
1,610833	0,1	4,330025
1,612500	0,1	4,332599
1,614167	0,1	4,377541
1,615833	0,1	4,374265
1,617500	0,1	4,376362
1,619167	0,1	4,380157
1,620833	0,1	4,354925
1,622500	0,1	4,385814
1,624167	0,1	4,398312
1,625833	0,1	4,388628
1,627500	0,1	4,443204
1,629167	0,1	4,410703
1,630833	0,1	4,427717
1,632500	0,1	4,402657
1,634167	0,1	4,469489
1,635833	0,1	4,459120
1,637500	0,1	4,491798
1,639167	0,1	4,503224
1,640833	0,1	4,509228
1,642500	0,1	4,563767
1,644167	0,1	4,577659
1,645833	0,1	4,580355
1,647500	0,1	4,622102
1,649167	0,1	4,673037
1,650833	0,1	4,697299
1,652500	0,1	4,729072
1,654167	0,1	4,781691
1,655833	0,1	4,788026
1,657500	0,1	4,845492
1,659167	0,1	4,953869
1,660833	0,1	4,985679
1,662500	0,1	5,077930
1,664167	0,1	5,105723
1,665833	0,1	5,219762
1,667500	0,1	5,312069
1,669167	0,1	5,381099
1,670833	0,1	5,492780
1,672500	0,1	5,596941
1,674167	0,1	5,761970
1,675833	0,1	5,885620
1,677500	0,1	6,007235
1,679167	0,1	6,155794
1,680833	0,1	6,338618
1,682500	0,1	6,489547
1,684167	0,1	6,675785
1,685833	0,1	6,861300
1,687500	0,1	7,079063
1,689167	0,1	7,293654
1,690833	0,1	7,532737
1,692500	0,1	7,769606
1,694167	0,1	7,998800
1,695833	0,1	8,284573
1,697500	0,1	8,532762
1,699167	0,1	8,845672
1,700833	0,1	9,095143
1,702500	0,1	9,451092
1,704167	0,1	9,751957
1,705833	0,1	10,065542
1,707500	0,1	10,416736
1,709167	0,1	10,778449
1,710833	0,1	11,119820
1,712500	0,1	11,468281
1,714167	0,1	11,838987
1,715833	0,1	12,215721
1,717500	0,1	12,584024
1,719167	0,1	12,988735
1,720833	0,1	13,377923
1,722500	0,1	13,739435
1,724167	0,1	14,162663
1,725833	0,1	14,572297
1,727500	0,1	14,956914
1,729167	0,1	15,312482
1,730833	0,1	15,750830
1,732500	0,1	16,165528
1,734167	0,1	16,527067
1,735833	0,1	16,897136
1,737500	0,1	17,256622
1,739167	0,1	17,624836
1,740833	0,1	18,032960
1,742500	0,1	18,361304
1,744167	0,1	18,677381
1,745833	0,1	19,040020
1,747500	0,1	19,361924
1,749167	0,1	19,644756
1,750833	0,1	19,942241
1,752500	0,1	20,292160
1,754167	0,1	20,513040
1,755833	0,1	20,750017
1,757500	0,1	21,025897
1,759167	0,1	21,232310
1,760833	0,1	21,473393
1,762500	0,1	21,650871
1,764167	0,1	21,812819
1,765833	0,1	21,982988
1,767500	0,1	22,132856
1,769167	0,1	22,306921
1,770833	0,1	22,403704
1,772500	0,1	22,466013
1,774167	0,1	22,505762
1,775833	0,1	22,583272
1,777500	0,1	22,621586
1,779167	0,1	22,662098
1,780833	0,1	22,668225
1,782500	0,1	22,646322
1,784167	0,1	22,654638
1,785833	0,1	22,515809
1,787500	0,1	22,552461
1,789167	0,1	22,458154
1,790833	0,1	22,336098
1,792500	0,1	22,270651
1,794167	0,1	22,100868
1,795833	0,1	21,945452
1,797500	0,1	21,806385
1,799167	0,1	21,668040
1,800833	0,1	21,531859
1,802500	0,1	21,296465
1,804167	0,1	21,132715
1,805833	0,1	20,936789
1,807500	0,1	20,680004
1,809167	0,1	20,429634
1,810833	0,1	20,228781
1,812500	0,1	19,966423
1,814167	0,1	19,756806
1,815833	0,1	19,454639
1,817500	0,1	19,231593
1,819167	0,1	18,920613
1,820833	0,1	18,641618
1,822500	0,1	18,368361
1,824167	0,1	18,077717
1,825833	0,1	17,804978
1,827500	0,1	17,528108
1,829167	0,1	17,247190
1,830833	0,1	16,969350
1,832500	0,1	16,660999
1,834167	0,1	16,363000
1,835833	0,1	16,063591
1,837500	0,1	15,788325
1,839167	0,1	15,489981
1,840833	0,1	15,156203
1,842500	0,1	14,902467
1,844167	0,1	14,647436
1,845833	0,1	14,389484
1,847500	0,1	14,123590
1,849167	0,1	13,857797
1,850833	0,1	13,625590
1,852500	0,1	13,366787
1,854167	0,1	13,065686
1,855833	0,1	12,856758
1,857500	0,1	12,646237
1,859167	0,1	12,417822
1,860833	0,1	12,189120
1,862500	0,1	12,010225
1,864167	0,1	11,843840
1,865833	0,1	11,627649
1,867500	0,1	11,420035
1,869167	0,1	11,234702
1,870833	0,1	11,030862
1,872500	0,1	10,879539
1,874167	0,1	10,691111
1,875833	0,1	10,498646
1,877500	0,1	10,374720
1,879167	0,1	10,179212
1,880833	0,1	9,997465
1,882500	0,1	9,852501
1,884167	0,1	9,742325
1,885833	0,1	9,565336
1,887500	0,1	9,394642
1,889167	0,1	9,282721
1,890833	0,1	9,165116
1,892500	0,1	8,994168
1,894167	0,1	8,893483
1,895833	0,1	8,726531
1,897500	0,1	8,594200
1,899167	0,1	8,496081
1,900833	0,1	8,365396
1,902500	0,1	8,288112
1,904167	0,1	8,134778
1,905833	0,1	8,072228
1,907500	0,1	7,934737
1,909167	0,1	7,882020
1,910833	0,1	7,773249
1,912500	0,1	7,678249
1,914167	0,1	7,564858
1,915833	0,1	7,479502
1,917500	0,1	7,409012
1,919167	0,1	7,311931
1,920833	0,1	7,198542
1,922500	0,1	7,126254
1,924167	0,1	7,053652
1,925833	0,1	6,982837
1,927500	0,1	6,922647
1,929167	0,1	6,776187
1,930833	0,1	6,717491
1,932500	0,1	6,683785
1,934167	0,1	6,616433
1,935833	0,1	6,541703
1,937500	0,1	6,474266
1,939167	0,1	6,433295
1,940833	0,1	6,305223
1,942500	0,1	6,270894
1,944167	0,1	6,227525
1,945833	0,1	6,150615
1,947500	0,1	6,119301
1,949167	0,1	6,044092
1,950833	0,1	5,987562
1,952500	0,1	5,928627
1,954167	0,1	5,888744
1,955833	0,1	5,798626
1,957500	0,1	5,830645
1,959167	0,1	5,761470
1,960833	0,1	5,698061
1,962500	0,1	5,646526
1,964167	0,1	5,612745
1,965833	0,1	5,545845
1,967500	0,1	5,541167
1,969167	0,1	5,527652
1,970833	0,1	5,473270
1,972500	0,1	5,446116
1,974167	0,1	5,376113
1,975833	0,1	5,391994
1,977500	0,1	5,287574
1,979167	0,1	5,271527
1,980833	0,1	5,293922
1,982500	0,1	5,284968
1,984167	0,1	5,243121
1,985833	0,1	5,172867
1,987500	0,1	5,198434
1,989167	0,1	5,149678
1,990833	0,1	5,142417
1,992500	0,1	5,156753
1,994167	0,1	5,117873
1,995833	0,1	5,106492
1,997500	0,1	5,069125
1,999167	0,1	5,031436
2,000833	0,1	5,061190
2,002500	0,1	5,066045
2,004167	0,1	5,022586
2,005833	0,1	5,008489
2,007500	0,1	4,998366
2,009167	0,1	4,987522
2,010833	0,1	4,970879
2,012500	0,1	5,010487
2,014167	0,1	4,966176
2,015833	0,1	4,964811
2,017500	0,1	4,952769
2,019167	0,1	4,942047
2,020833	0,1	4,939260
2,022500	0,1	4,968065
2,024167	0,1	4,953071
2,025833	0,1	4,916962
2,027500	0,1	4,979662
2,029167	0,1	4,958610
2,030833	0,1	4,957476
2,032500	0,1	4,961439
2,034167	0,1	4,959027
2,035833	0,1	4,946021
2,037500	0,1	4,940390
2,039167	0,1	4,985449
2,040833	0,1	4,987204
2,042500	0,1	4,972748
2,044167	0,1	4,942725
2,045833	0,1	4,940284
2,047500	0,1	4,979472
2,049167	0,1	4,973468
2,050833	0,1	4,974258
2,052500	0,1	5,004053
2,054167	0,1	4,990575
2,055833	0,1	4,987699
2,057500	0,1	4,989601
2,059167	0,1	5,017366
2,060833	0,1	5,006215
2,062500	0,1	4,985057
2,064167	0,1	4,991118
2,065833	0,1	5,007477
2,067500	0,1	4,941779
2,069167	0,1	4,962263
2,070833	0,1	4,995026
2,072500	0,1	5,019977
2,074167	0,1	4,989521
2,075833	0,1	5,010086
2,077500	0,1	4,999708
2,079167	0,1	4,995386
2,080833	0,1	4,947509
2,082500	0,1	4,971592
2,084167	0,1	4,958746
2,085833	0,1	4,975914
2,087500	0,1	4,955787
2,089167	0,1	4,982983
2,090833	0,1	4,985139
2,092500	0,1	4,992034
2,094167	0,1	5,013789
2,095833	0,1	4,947581
2,097500	0,1	4,964718
2,099167	0,1	4,955855
2,100833	0,1	4,955025
2,102500	0,1	4,901809
2,104167	0,1	4,941372
2,105833	0,1	4,928475
2,107500	0,1	4,997275
2,109167	0,1	4,935770
2,110833	0,1	4,893822
2,112500	0,1	4,937702
2,114167	0,1	4,878347
2,115833	0,1	4,870792
2,117500	0,1	4,857877
2,119167	0,1	4,810583
2,120833	0,1	4,837021
2,122500	0,1	4,838179
2,124167	0,1	4,831678
2,125833	0,1	4,795058
2,127500	0,1	4,812347
2,129167	0,1	4,792075
2,130833	0,1	4,794157
2,132500	0,1	4,778380
2,134167	0,1	4,751887
2,135833	0,1	4,720524
2,137500	0,1	4,759283
2,139167	0,1	4,712468
2,140833	0,1	4,684164
2,142500	0,1	4,637557
2,144167	0,1	4,675348
2,145833	0,1	4,604711
2,147500	0,1	4,620421
2,149167	0,1	4,654966
2,150833	0,1	4,586940
2,152500	0,1	4,610114
2,154167	0,1	4,585527
2,155833	0,1	4,599540
2,157500	0,1	4,602307
2,159167	0,1	4,504015
2,160833	0,1	4,530644
2,162500	0,1	4,497507
2,164167	0,1	4,494920
2,165833	0,1	4,430115
2,167500	0,1	4,455815
2,169167	0,1	4,442312
2,170833	0,1	4,398636
2,172500	0,1	4,398626
2,174167	0,1	4,382967
2,175833	0,1	4,345524
2,177500	0,1	4,335746
2,179167	0,1	4,351573
2,180833	0,1	4,354209
2,182500	0,1	4,333540
2,184167	0,1	4,270990
2,185833	0,1	4,284476
2,187500	0,1	4,263784
2,189167	0,1	4,244842
2,190833	0,1	4,218593
2,192500	0,1	4,231555
2,194167	0,1	4,219832
2,195833	0,1	4,188439
2,197500	0,1	4,186278
2,199167	0,1	4,145914
2,200833	0,1	4,152644
2,202500	0,1	4,112307
2,204167	0,1	4,097956
2,205833	0,1	4,079244
2,207500	0,1	4,115157
2,209167	0,1	4,094819
2,210833	0,1	4,067580
2,212500	0,1	4,061663
2,214167	0,1	4,060561
2,215833	0,1	4,040069
2,217500	0,1	4,017567
2,219167	0,1	4,003195
2,220833	0,1	3,944674
2,222500	0,1	3,974811
2,224167	0,1	3,962839
2,225833	0,1	3,919324
2,227500	0,1	3,952614
2,229167	0,1	3,901885
2,230833	0,1	3,896169
2,232500	0,1	3,881855
2,234167	0,1	3,885436
2,235833	0,1	3,831275
2,237500	0,1	3,823410
2,239167	0,1	3,799220
2,240833	0,1	3,828393
2,242500	0,1	3,803977
2,244167	0,1	3,802138
2,245833	0,1	3,778036
2,247500	0,1	3,734049
2,249167	0,1	3,786748
2,250833	0,1	3,715720
2,252500	0,1	3,728868
2,254167	0,1	3,715910
2,255833	0,1	3,668148
2,257500	0,1	3,734216
2,259167	0,1	3,649821
2,260833	0,1	3,689920
2,262500	0,1	3,670050
2,264167	0,1	3,648019
2,265833	0,1	3,649433
2,267500	0,1	3,608964
2,269167	0,1	3,616263
2,270833	0,1	3,601191
2,272500	0,1	3,591922
2,274167	0,1	3,586879
2,275833	0,1	3,588140
2,277500	0,1	3,595371
2,279167	0,1	3,559941
2,280833	0,1	3,553106
2,282500	0,1	3,554366
2,284167	0,1	3,542827
2,285833	0,1	3,526612
2,287500	0,1	3,542941
2,289167	0,1	3,489927
2,290833	0,1	3,468951
2,292500	0,1	3,489747
2,294167	0,1	3,484552
2,295833	0,1	3,486134
2,297500	0,1	3,425973
2,299167	0,1	3,446675
2,300833	0,1	3,417555
2,302500	0,1	3,462150
2,304167	0,1	3,444774
2,305833	0,1	3,369218
2,307500	0,1	3,390608
2,309167	0,1	3,402799
2,310833	0,1	3,435621
2,312500	0,1	3,395984
2,314167	0,1	3,354910
2,315833	0,1	3,369363
2,317500	0,1	3,352390
2,319167	0,1	3,398770
2,320833	0,1	3,365635
2,322500	0,1	3,356816
2,324167	0,1	3,384878
2,325833	0,1	3,282990
2,327500	0,1	3,368090
2,329167	0,1	3,325830
2,330833	0,1	3,354979
2,332500	0,1	3,328995
2,334167	0,1	3,339713
2,335833	0,1	3,292484
2,337500	0,1	3,308635
2,339167	0,1	3,312901
2,340833	0,1	3,286007
2,342500	0,1	3,315816
2,344167	0,1	3,289994
2,345833	0,1	3,318416
2,347500	0,1	3,290369
2,349167	0,1	3,329996
2,350833	0,1	3,293093
2,352500	0,1	3,310088
2,354167	0,1	3,294468
2,355833	0,1	3,333493
2,357500	0,1	3,265799
2,359167	0,1	3,312607
2,360833	0,1	3,315012
2,362500	0,1	3,311561
2,364167	0,1	3,329110
2,365833	0,1	3,272624
2,367500	0,1	3,343642
2,369167	0,1	3,342354
2,370833	0,1	3,348238
2,372500	0,1	3,337565
2,374167	0,1	3,350347
2,375833	0,1	3,351372
2,377500	0,1	3,361317
2,379167	0,1	3,337035
2,380833	0,1	3,386378
2,382500	0,1	3,354177
2,384167	0,1	3,394588
2,385833	0,1	3,365759
2,387500	0,1	3,367455
2,389167	0,1	3,388981
2,390833	0,1	3,376927
2,392500	0,1	3,413598
2,394167	0,1	3,435745
2,395833	0,1	3,403009
2,397500	0,1	3,458654
2,399167	0,1	3,506157
2,400833	0,1	3,506289
2,402500	0,1	3,535177
2,404167	0,1	3,510157
2,405833	0,1	3,542287
2,407500	0,1	3,521047
2,409167	0,1	3,567725
2,410833	0,1	3,535436
2,412500	0,1	3,603527
2,414167	0,1	3,582091
2,415833	0,1	3,595777
2,417500	0,1	3,625652
2,419167	0,1	3,645199
2,420833	0,1	3,680204
2,422500	0,1	3,709716
2,424167	0,1	3,692126
2,425833	0,1	3,727479
2,427500	0,1	3,752366
2,429167	0,1	3,739403
2,430833	0,1	3,767779
2,432500	0,1	3,742749
2,434167	0,1	3,812933
2,435833	0,1	3,833246
2,437500	0,1	3,825314
2,439167	0,1	3,859718
2,440833	0,1	3,880392
2,442500	0,1	3,915068
2,444167	0,1	3,947491
2,445833	0,1	3,947382
2,447500	0,1	3,957342
2,449167	0,1	4,015327
2,450833	0,1	4,062586
2,452500	0,1	4,049379
2,454167	0,1	4,126363
2,455833	0,1	4,147632
2,457500	0,1	4,195499
2,459167	0,1	4,226056
2,460833	0,1	4,257374
2,462500	0,1	4,383270
2,464167	0,1	4,436656
2,465833	0,1	4,519465
2,467500	0,1	4,611018
2,469167	0,1	4,755649
2,470833	0,1	4,835505
2,472500	0,1	4,981491
2,474167	0,1	5,121974
2,475833	0,1	5,290237
2,477500	0,1	5,509117
2,479167	0,1	5,690846
2,480833	0,1	5,907458
2,482500	0,1	6,169506
2,484167	0,1	6,457436
2,485833	0,1	6,744527
2,487500	0,1	7,131264
2,489167	0,1	7,531464
2,490833	0,1	7,958955
2,492500	0,1	8,431217
2,494167	0,1	8,902562
2,495833	0,1	9,515050
2,497500	0,1	10,118993
2,499167	0,1	10,738081
2,500833	0,1	11,519406
2,502500	0,1	12,316880
2,504167	0,1	13,129668
2,505833	0,1	14,073212
2,507500	0,1	15,043300
2,509167	0,1	16,111797
2,510833	0,1	17,215246
2,512500	0,1	18,430770
2,514167	0,1	19,683725
2,515833	0,1	21,070466
2,517500	0,1	22,507122
2,519167	0,1	23,997136
2,520833	0,1	25,577647
2,522500	0,1	27,257738
2,524167	0,1	28,955630
2,525833	0,1	30,804703
2,527500	0,1	32,690005
2,529167	0,1	34,619710
2,530833	0,1	36,706593
2,532500	0,1	38,786690
2,534167	0,1	40,942818
2,535833	0,1	43,193357
2,537500	0,1	45,484164
2,539167	0,1	47,778789
2,540833	0,1	50,200722
2,542500	0,1	52,611503
2,544167	0,1	55,088406
2,545833	0,1	57,540887
2,547500	0,1	60,056548
2,549167	0,1	62,556103
2,550833	0,1	65,107743
2,552500	0,1	67,677182
2,554167	0,1	70,181127
2,555833	0,1	72,710749
2,557500	0,1	75,242342
2,559167	0,1	77,727266
2,560833	0,1	80,158131
2,562500	0,1	82,562467
2,564167	0,1	84,934974
2,565833	0,1	87,332911
2,567500	0,1	89,605784
2,569167	0,1	91,800434
2,570833	0,1	93,995897
2,572500	0,1	96,071405
2,574167	0,1	98,101269
2,575833	0,1	100,089694
2,577500	0,1	101,946740
2,579167	0,1	103,729089
2,580833	0,1	105,447078
2,582500	0,1	107,102117
2,584167	0,1	108,570318
2,585833	0,1	110,070300
2,587500	0,1	111,414910
2,589167	0,1	112,719184
2,590833	0,1	113,937848
2,592500	0,1	115,078136
2,594167	0,1	116,101204
2,595833	0,1	116,991348
2,597500	0,1	117,780471
2,599167	0,1	118,601282
2,600833	0,1	119,282931
2,602500	0,1	119,863505
2,604167	0,1	120,382985
2,605833	0,1	120,786897
2,607500	0,1	121,182627
2,609167	0,1	121,380458
2,610833	0,1	121,589029
2,612500	0,1	121,716624
2,614167	0,1	121,783669
2,615833	0,1	121,732926
2,617500	0,1	121,749494
2,619167	0,1	121,498695
2,620833	0,1	121,305715
2,622500	0,1	121,020840
2,624167	0,1	120,619326
2,625833	0,1	120,244674
2,627500	0,1	119,792194
2,629167	0,1	119,272530
2,630833	0,1	118,706682
2,632500	0,1	118,072123
2,634167	0,1	117,395723
2,635833	0,1	116,678815
2,637500	0,1	115,928828
2,639167	0,1	115,093547
2,640833	0,1	114,274102
2,642500	0,1	113,342260
2,644167	0,1	112,388511
2,645833	0,1	111,483683
2,647500	0,1	110,420491
2,649167	0,1	109,385360
2,650833	0,1	108,289947
2,652500	0,1	107,152259
2,654167	0,1	106,054777
2,655833	0,1	104,859170
2,657500	0,1	103,727565
2,659167	0,1	102,497747
2,660833	0,1	101,271284
2,662500	0,1	100,000321
2,664167	0,1	98,723815
2,665833	0,1	97,394689
2,667500	0,1	96,137994
2,669167	0,1	94,752300
2,670833	0,1	93,452666
2,672500	0,1	92,115020
2,674167	0,1	90,751855
2,675833	0,1	89,398009
2,677500	0,1	87,984720
2,679167	0,1	86,656513
2,680833	0,1	85,284827
2,682500	0,1	83,871949
2,684167	0,1	82,497568
2,685833	0,1	81,124486
2,687500	0,1	79,744721
2,689167	0,1	78,398371
2,690833	0,1	76,979413
2,692500	0,1	75,654353
2,694167	0,1	74,306216
2,695833	0,1	72,989337
2,697500	0,1	71,646974
2,699167	0,1	70,338051
2,700833	0,1	69,021100
2,702500	0,1	67,716613
2,704167	0,1	66,424354
2,705833	0,1	65,220665
2,707500	0,1	63,909993
2,709167	0,1	62,687931
2,710833	0,1	61,529933
2,712500	0,1	60,265725
2,714167	0,1	59,100519
2,715833	0,1	57,924586
2,717500	0,1	56,720409
2,719167	0,1	55,598111
2,720833	0,1	54,519308
2,722500	0,1	53,432742
2,724167	0,1	52,350019
2,725833	0,1	51,292987
2,727500	0,1	50,262014
2,729167	0,1	49,259587
2,730833	0,1	48,232445
2,732500	0,1	47,296814
2,734167	0,1	46,305531
2,735833	0,1	45,445181
2,737500	0,1	44,495591
2,739167	0,1	43,565300
2,740833	0,1	42,605063
2,742500	0,1	41,809724
2,744167	0,1	40,977299
2,745833	0,1	40,155154
2,747500	0,1	39,317804
2,749167	0,1	38,586410
2,750833	0,1	37,829330
2,752500	0,1	37,055291
2,754167	0,1	36,332885
2,755833	0,1	35,551944
2,757500	0,1	34,916850
2,759167	0,1	34,245454
2,760833	0,1	33,564369
2,762500	0,1	32,888304
2,764167	0,1	32,244660
2,765833	0,1	31,623180
2,767500	0,1	31,019695
2,769167	0,1	30,444691
2,770833	0,1	29,839782
2,772500	0,1	29,274394
2,774167	0,1	28,718168
2,775833	0,1	28,163349
2,777500	0,1	27,631874
2,779167	0,1	27,108336
2,780833	0,1	26,660067
2,782500	0,1	26,112069
2,784167	0,1	25,643198
2,785833	0,1	25,174860
2,787500	0,1	24,699062
2,789167	0,1	24,234586
2,790833	0,1	23,791892
2,792500	0,1	23,368444
2,794167	0,1	22,918725
2,795833	0,1	22,472334
2,797500	0,1	22,117072
2,799167	0,1	21,711481
2,800833	0,1	21,351906
2,802500	0,1	20,905912
2,804167	0,1	20,520704
2,805833	0,1	20,134272
2,807500	0,1	19,813587
2,809167	0,1	19,473497
2,810833	0,1	19,085962
2,812500	0,1	18,748493
2,814167	0,1	18,413683
2,815833	0,1	18,115012
2,817500	0,1	17,774671
2,819167	0,1	17,506917
2,820833	0,1	17,151350
2,822500	0,1	16,859442
2,824167	0,1	16,528840
2,825833	0,1	16,233176
2,827500	0,1	15,974705
2,829167	0,1	15,740798
2,830833	0,1	15,476731
2,832500	0,1	15,149785
2,834167	0,1	14,957056
2,835833	0,1	14,663998
2,837500	0,1	14,379909
2,839167	0,1	14,111728
2,840833	0,1	13,908286
2,842500	0,1	13,652516
2,844167	0,1	13,449290
2,845833	0,1	13,208301
2,847500	0,1	13,004311
2,849167	0,1	12,843283
2,850833	0,1	12,574200
2,852500	0,1	12,367493
2,854167	0,1	12,191853
2,855833	0,1	12,006346
2,857500	0,1	11,767951
2,859167	0,1	11,627349
2,860833	0,1	11,412051
2,862500	0,1	11,201000
2,864167	0,1	11,089974
2,865833	0,1	10,898426
2,867500	0,1	10,716799
2,869167	0,1	10,580859
2,870833	0,1	10,407726
2,872500	0,1	10,296508
2,874167	0,1	10,154548
2,875833	0,1	9,975789
2,877500	0,1	9,803031
2,879167	0,1	9,702367
2,880833	0,1	9,540122
2,882500	0,1	9,433645
2,884167	0,1	9,311622
2,885833	0,1	9,172677
2,887500	0,1	9,048727
2,889167	0,1	8,924349
2,890833	0,1	8,850568
2,892500	0,1	8,705184
2,894167	0,1	8,631508
2,895833	0,1	8,472245
2,897500	0,1	8,366221
2,899167	0,1	8,257931
2,900833	0,1	8,155049
2,902500	0,1	8,035947
2,904167	0,1	7,943870
2,905833	0,1	7,845710
2,907500	0,1	7,749340
2,909167	0,1	7,697511
2,910833	0,1	7,592343
2,912500	0,1	7,491197
2,914167	0,1	7,441442
2,915833	0,1	7,370058
2,917500	0,1	7,284136
2,919167	0,1	7,159454
2,920833	0,1	7,112426
2,922500	0,1	7,026377
2,924167	0,1	6,972989
2,925833	0,1	6,884164
2,927500	0,1	6,842200
2,929167	0,1	6,725916
2,930833	0,1	6,664976
2,932500	0,1	6,594546
2,934167	0,1	6,558703
2,935833	0,1	6,471176
2,937500	0,1	6,454503
2,939167	0,1	6,362518
2,940833	0,1	6,312867
2,942500	0,1	6,246690
2,944167	0,1	6,192290
2,945833	0,1	6,128184
2,947500	0,1	6,018408
2,949167	0,1	5,989716
2,950833	0,1	5,951409
2,952500	0,1	5,888378
2,954167	0,1	5,879775
2,955833	0,1	5,778388
2,957500	0,1	5,784720
2,959167	0,1	5,659821
2,960833	0,1	5,630123
2,962500	0,1	5,609867
2,964167	0,1	5,559299
2,965833	0,1	5,457236
2,967500	0,1	5,426422
2,969167	0,1	5,408980
2,970833	0,1	5,325507
2,972500	0,1	5,311407
2,974167	0,1	5,250870
2,975833	0,1	5,230001
2,977500	0,1	5,176278
2,979167	0,1	5,134045
2,980833	0,1	5,060049
2,982500	0,1	5,060472
2,984167	0,1	5,038029
2,985833	0,1	4,998110
2,987500	0,1	4,952833
2,989167	0,1	4,878216
2,990833	0,1	4,864311
2,992500	0,1	4,815623
2,994167	0,1	4,820066
2,995833	0,1	4,793185
2,997500	0,1	4,735225
2,999167	0,1	4,691147
3,000833	0,1	4,690179
3,002500	0,1	4,601026
3,004167	0,1	4,596050
3,005833	0,1	4,548507
3,007500	0,1	4,480006
3,009167	0,1	4,472790
3,010833	0,1	4,471118
3,012500	0,1	4,415324
3,014167	0,1	4,408114
3,015833	0,1	4,338395
3,017500	0,1	4,313941
3,019167	0,1	4,289191
3,020833	0,1	4,270583
3,022500	0,1	4,212968
3,024167	0,1	4,205539
3,025833	0,1	4,208595
3,027500	0,1	4,137519
3,029167	0,1	4,168674
3,030833	0,1	4,107146
3,032500	0,1	4,044732
3,034167	0,1	4,049158
3,035833	0,1	4,011027
3,037500	0,1	3,983136
3,039167	0,1	3,979343
3,040833	0,1	3,923334
3,042500	0,1	3,869902
3,044167	0,1	3,856111
3,045833	0,1	3,872206
3,047500	0,1	3,883340
3,049167	0,1	3,799462
3,050833	0,1	3,798967
3,052500	0,1	3,751442
3,054167	0,1	3,719728
3,055833	0,1	3,690095
3,057500	0,1	3,699471
3,059167	0,1	3,681594
3,060833	0,1	3,655129
3,062500	0,1	3,634761
3,064167	0,1	3,577420
3,065833	0,1	3,578671
3,067500	0,1	3,572206
3,069167	0,1	3,546405
3,070833	0,1	3,498297
3,072500	0,1	3,512992
3,074167	0,1	3,461604
3,075833	0,1	3,466022
3,077500	0,1	3,418094
3,079167	0,1	3,410119
3,080833	0,1	3,347852
3,082500	0,1	3,372493
3,084167	0,1	3,337899
3,085833	0,1	3,312265
3,087500	0,1	3,279724
3,089167	0,1	3,253291
3,090833	0,1	3,244679
3,092500	0,1	3,266845
3,094167	0,1	3,238953
3,095833	0,1	3,218122
3,097500	0,1	3,211828
3,099167	0,1	3,159578
3,100833	0,1	3,202594
3,102500	0,1	3,196838
3,104167	0,1	3,146859
3,105833	0,1	3,159028
3,107500	0,1	3,141698
3,109167	0,1	3,133662
3,110833	0,1	3,118895
3,112500	0,1	3,110231
3,114167	0,1	3,110323
3,115833	0,1	3,113888
3,117500	0,1	3,084586
3,119167	0,1	3,101920
3,120833	0,1	3,088936
3,122500	0,1	3,078721
3,124167	0,1	3,067328
3,125833	0,1	3,067896
3,127500	0,1	3,072521
3,129167	0,1	3,072269
3,130833	0,1	3,083436
3,132500	0,1	3,062753
3,134167	0,1	3,058188
3,135833	0,1	3,102200
3,137500	0,1	3,087181
3,139167	0,1	3,091153
3,140833	0,1	3,062469
3,142500	0,1	3,087409
3,144167	0,1	3,083471
3,145833	0,1	3,010823
3,147500	0,1	3,096091
3,149167	0,1	3,077707
3,150833	0,1	3,085385
3,152500	0,1	3,097646
3,154167	0,1	3,070089
3,155833	0,1	3,084972
3,157500	0,1	3,131509
3,159167	0,1	3,105827
3,160833	0,1	3,097444
3,162500	0,1	3,134918
3,164167	0,1	3,118996
3,165833	0,1	3,099489
3,167500	0,1	3,097933
3,169167	0,1	3,095290
3,170833	0,1	3,107628
3,172500	0,1	3,086691
3,174167	0,1	3,118963
3,175833	0,1	3,098780
3,177500	0,1	3,076171
3,179167	0,1	3,087095
3,180833	0,1	3,094227
3,182500	0,1	3,048534
3,184167	0,1	3,048207
3,185833	0,1	3,080467
3,187500	0,1	3,072762
3,189167	0,1	3,095125
3,190833	0,1	3,058845
3,192500	0,1	3,074500
3,194167	0,1	3,076101
3,195833	0,1	3,040468
3,197500	0,1	3,023198
3,199167	0,1	3,013217
3,200833	0,1	3,036303
3,202500	0,1	3,006316
3,204167	0,1	2,979676
3,205833	0,1	2,990404
3,207500	0,1	2,994636
3,209167	0,1	2,946577
3,210833	0,1	2,924777
3,212500	0,1	2,948634
3,214167	0,1	2,873449
3,215833	0,1	2,905159
3,217500	0,1	2,880679
3,219167	0,1	2,876365
3,220833	0,1	2,868418
3,222500	0,1	2,817066
3,224167	0,1	2,842570
3,225833	0,1	2,812931
3,227500	0,1	2,803786
3,229167	0,1	2,783823
3,230833	0,1	2,786310
3,232500	0,1	2,765780
3,234167	0,1	2,711426
3,235833	0,1	2,680787
3,237500	0,1	2,683065
3,239167	0,1	2,671697
3,240833	0,1	2,651167
3,242500	0,1	2,636296
3,244167	0,1	2,573886
3,245833	0,1	2,592528
3,247500	0,1	2,566015
3,249167	0,1	2,528160
3,250833	0,1	2,521171
3,252500	0,1	2,459638
3,254167	0,1	2,494050
3,255833	0,1	2,468480
3,257500	0,1	2,455639
3,259167	0,1	2,422203
3,260833	0,1	2,441020
3,262500	0,1	2,381983
3,264167	0,1	2,388394
3,265833	0,1	2,341317
3,267500	0,1	2,300751
3,269167	0,1	2,322554
3,270833	0,1	2,276645
3,272500	0,1	2,298681
3,274167	0,1	2,222313
3,275833	0,1	2,230359
3,277500	0,1	2,186652
3,279167	0,1	2,193891
3,280833	0,1	2,147612
3,282500	0,1	2,111936
3,284167	0,1	2,106921
3,285833	0,1	2,100803
3,287500	0,1	2,080143
3,289167	0,1	2,071627
3,290833	0,1	2,011973
3,292500	0,1	2,020133
3,294167	0,1	2,016174
3,295833	0,1	1,998259
3,297500	0,1	1,975299
3,299167	0,1	1,901533
3,300833	0,1	1,930012
3,302500	0,1	1,897933
3,304167	0,1	1,900442
3,305833	0,1	1,881799
3,307500	0,1	1,852581
3,309167	0,1	1,826820
3,310833	0,1	1,855157
3,312500	0,1	1,829690
3,314167	0,1	1,782427
3,315833	0,1	1,755505
3,317500	0,1	1,790450
3,319167	0,1	1,732641
3,320833	0,1	1,715002
3,322500	0,1	1,681192
3,324167	0,1	1,679252
3,325833	0,1	1,687378
3,327500	0,1	1,662126
3,329167	0,1	1,611205
3,330833	0,1	1,622918
3,332500	0,1	1,604792
3,334167	0,1	1,611987
3,335833	0,1	1,572008
3,337500	0,1	1,607514
3,339167	0,1	1,551156
3,340833	0,1	1,548190
3,342500	0,1	1,541936
3,344167	0,1	1,535464
3,345833	0,1	1,518639
3,347500	0,1	1,474783
3,349167	0,1	1,510141
3,350833	0,1	1,485780
3,352500	0,1	1,482756
3,354167	0,1	1,464423
3,355833	0,1	1,408424
3,357500	0,1	1,437161
3,359167	0,1	1,448453
3,360833	0,1	1,424376
3,362500	0,1	1,448450
3,364167	0,1	1,389301
3,365833	0,1	1,410491
3,367500	0,1	1,393964
3,369167	0,1	1,366576
3,370833	0,1	1,330063
3,372500	0,1	1,338605
3,374167	0,1	1,329913
3,375833	0,1	1,348739
3,377500	0,1	1,342780
3,379167	0,1	1,312238
3,380833	0,1	1,330911
3,382500	0,1	1,284927
3,384167	0,1	1,344561
3,385833	0,1	1,266750
3,387500	0,1	1,265297
3,389167	0,1	1,272191
3,390833	0,1	1,267523
3,392500	0,1	1,271687
3,394167	0,1	1,277300
3,395833	0,1	1,277373
3,397500	0,1	1,228726
3,399167	0,1	1,254509
3,400833	0,1	1,229083
3,402500	0,1	1,201413
3,404167	0,1	1,188407
3,405833	0,1	1,242070
3,407500	0,1	1,233891
3,409167	0,1	1,212125
3,410833	0,1	1,215208
3,412500	0,1	1,198106
3,414167	0,1	1,243228
3,415833	0,1	1,190428
3,417500	0,1	1,208595
3,419167	0,1	1,187612
3,420833	0,1	1,193865
3,422500	0,1	1,179929
3,424167	0,1	1,181281
3,425833	0,1	1,184741
3,427500	0,1	1,205290
3,429167	0,1	1,184526
3,430833	0,1	1,171088
3,432500	0,1	1,173813
3,434167	0,1	1,193147
3,435833	0,1	1,211970
3,437500	0,1	1,171242
3,439167	0,1	1,190558
3,440833	0,1	1,167349
3,442500	0,1	1,186530
3,444167	0,1	1,192212
3,445833	0,1	1,239490
3,447500	0,1	1,192216
3,449167	0,1	1,190775
3,450833	0,1	1,180495
3,452500	0,1	1,225830
3,454167	0,1	1,216497
3,455833	0,1	1,239204
3,457500	0,1	1,243880
3,459167	0,1	1,234756
3,460833	0,1	1,249917
3,462500	0,1	1,200624
3,464167	0,1	1,256944
3,465833	0,1	1,270395
3,467500	0,1	1,257099
3,469167	0,1	1,289079
3,470833	0,1	1,297564
3,472500	0,1	1,285203
3,474167	0,1	1,303027
3,475833	0,1	1,312657
3,477500	0,1	1,342339
3,479167	0,1	1,341195
3,480833	0,1	1,373824
3,482500	0,1	1,400352
3,484167	0,1	1,407330
3,485833	0,1	1,396336
3,487500	0,1	1,428891
3,489167	0,1	1,426816
3,490833	0,1	1,446437
3,492500	0,1	1,475485
3,494167	0,1	1,450403
3,495833	0,1	1,528610
3,497500	0,1	1,520438
3,499167	0,1	1,547967
3,500833	0,1	1,558617
3,502500	0,1	1,545319
3,504167	0,1	1,592121
3,505833	0,1	1,597811
3,507500	0,1	1,630323
3,509167	0,1	1,581503
3,510833	0,1	1,635272
3,512500	0,1	1,654270
3,514167	0,1	1,647231
3,515833	0,1	1,690732
3,517500	0,1	1,717069
3,519167	0,1	1,693495
3,520833	0,1	1,687444
3,522500	0,1	1,697733
3,524167	0,1	1,777561
3,525833	0,1	1,769458
3,527500	0,1	1,729978
3,529167	0,1	1,732986
3,530833	0,1	1,786289
3,532500	0,1	1,798241
3,534167	0,1	1,779969
3,535833	0,1	1,843705
3,537500	0,1	1,768261
3,539167	0,1	1,815350
3,540833	0,1	1,826731
3,542500	0,1	1,796391
3,544167	0,1	1,821979
3,545833	0,1	1,840551
3,547500	0,1	1,853637
3,549167	0,1	1,863001
3,550833	0,1	1,866396
3,552500	0,1	1,864880
3,554167	0,1	1,853150
3,555833	0,1	1,800847
3,557500	0,1	1,866012
3,559167	0,1	1,869201
3,560833	0,1	1,850849
3,562500	0,1	1,890272
3,564167	0,1	1,826829
3,565833	0,1	1,833003
3,567500	0,1	1,848331
3,569167	0,1	1,853287
3,570833	0,1	1,845025
3,572500	0,1	1,835024
3,574167	0,1	1,827825
3,575833	0,1	1,817595
3,577500	0,1	1,818247
3,579167	0,1	1,800707
3,580833	0,1	1,855225
3,582500	0,1	1,865592
3,584167	0,1	1,796753
3,585833	0,1	1,770412
3,587500	0,1	1,790182
3,589167	0,1	1,785160
3,590833	0,1	1,811184
3,592500	0,1	1,767170
3,594167	0,1	1,784781
3,595833	0,1	1,774712
3,597500	0,1	1,814198
3,599167	0,1	1,751421
3,600833	0,1	1,740393
3,602500	0,1	1,732482
3,604167	0,1	1,726654
3,605833	0,1	1,745073
3,607500	0,1	1,729173
3,609167	0,1	1,728376
3,610833	0,1	1,687880
3,612500	0,1	1,681905
3,614167	0,1	1,662267
3,615833	0,1	1,674199
3,617500	0,1	1,638391
3,619167	0,1	1,689943
3,620833	0,1	1,639406
3,622500	0,1	1,626158
3,624167	0,1	1,599766
3,625833	0,1	1,595877
3,627500	0,1	1,578759
3,629167	0,1	1,580842
3,630833	0,1	1,549134
3,632500	0,1	1,546973
3,634167	0,1	1,567964
3,635833	0,1	1,574001
3,637500	0,1	1,496295
3,639167	0,1	1,506192
3,640833	0,1	1,523665
3,642500	0,1	1,480535
3,644167	0,1	1,492026
3,645833	0,1	1,494475
3,647500	0,1	1,477077
3,649167	0,1	1,483831
3,650833	0,1	1,406201
3,652500	0,1	1,410423
3,654167	0,1	1,408986
3,655833	0,1	1,404314
3,657500	0,1	1,398778
3,659167	0,1	1,377864
3,660833	0,1	1,387416
3,662500	0,1	1,369379
3,664167	0,1	1,305126
3,665833	0,1	1,320133
3,667500	0,1	1,312590
3,669167	0,1	1,300014
3,670833	0,1	1,325377
3,672500	0,1	1,276014
3,674167	0,1	1,263500
3,675833	0,1	1,269390
3,677500	0,1	1,252867
3,679167	0,1	1,251139
3,680833	0,1	1,288212
3,682500	0,1	1,266309
3,684167	0,1	1,228941
3,685833	0,1	1,186834
3,687500	0,1	1,213478
3,689167	0,1	1,222749
3,690833	0,1	1,159739
3,692500	0,1	1,181858
3,694167	0,1	1,194292
3,695833	0,1	1,127846
3,697500	0,1	1,161737
3,699167	0,1	1,132728
3,700833	0,1	1,110742
3,702500	0,1	1,126388
3,704167	0,1	1,107574
3,705833	0,1	1,133721
3,707500	0,1	1,096810
3,709167	0,1	1,126823
3,710833	0,1	1,087892
3,712500	0,1	1,091980
3,714167	0,1	1,115041
3,715833	0,1	1,084951
3,717500	0,1	1,064255
3,719167	0,1	1,062597
3,720833	0,1	1,039694
3,722500	0,1	1,073082
3,724167	0,1	1,056074
3,725833	0,1	1,048384
3,727500	0,1	1,005866
3,729167	0,1	1,023227
3,730833	0,1	1,030355
3,732500	0,1	0,992717
3,734167	0,1	1,043619
3,735833	0,1	0,976791
3,737500	0,1	0,990758
3,739167	0,1	0,993214
3,740833	0,1	0,975120
3,742500	0,1	0,999160
3,744167	0,1	1,023950
3,745833	0,1	1,001843
3,747500	0,1	0,977560
3,749167	0,1	0,969083
3,750833	0,1	0,934483
3,752500	0,1	0,959030
3,754167	0,1	0,959881
3,755833	0,1	1,000044
3,757500	0,1	0,947404
3,759167	0,1	0,953287
3,760833	0,1	0,959531
3,762500	0,1	0,961481
3,764167	0,1	0,948687
3,765833	0,1	0,932757
3,767500	0,1	0,956654
3,769167	0,1	0,895632
3,770833	0,1	0,959028
3,772500	0,1	0,932017
3,774167	0,1	0,952637
3,775833	0,1	0,990909
3,777500	0,1	0,898355
3,779167	0,1	0,930649
3,780833	0,1	0,917605
3,782500	0,1	0,916240
3,784167	0,1	0,919947
3,785833	0,1	0,918953
3,787500	0,1	0,907392
3,789167	0,1	0,890929
3,790833	0,1	0,906600
3,792500	0,1	0,953058
3,794167	0,1	0,908344
3,795833	0,1	0,912779
3,797500	0,1	0,937988
3,799167	0,1	0,925411
3,800833	0,1	0,904611
3,802500	0,1	0,904398
3,804167	0,1	0,938154
3,805833	0,1	0,961895
3,807500	0,1	0,905107
3,809167	0,1	0,892826
3,810833	0,1	0,897555
3,812500	0,1	0,902307
3,814167	0,1	0,923054
3,815833	0,1	0,917235
3,817500	0,1	0,908545
3,819167	0,1	0,901574
3,820833	0,1	0,913083
3,822500	0,1	0,890313
3,824167	0,1	0,896331
3,825833	0,1	0,910846
3,827500	0,1	0,932461
3,829167	0,1	0,907983
3,830833	0,1	0,900580
3,832500	0,1	0,889157
3,834167	0,1	0,901581
3,835833	0,1	0,897418
3,837500	0,1	0,907468
3,839167	0,1	0,879548
3,840833	0,1	0,915933
3,842500	0,1	0,890097
3,844167	0,1	0,925217
3,845833	0,1	0,883487
3,847500	0,1	0,890526
3,849167	0,1	0,956949
3,850833	0,1	0,904967
3,852500	0,1	0,877806
3,854167	0,1	0,914431
3,855833	0,1	0,908764
3,857500	0,1	0,894409
3,859167	0,1	0,876025
3,860833	0,1	0,888804
3,862500	0,1	0,880975
3,864167	0,1	0,892603
3,865833	0,1	0,905397
3,867500	0,1	0,873583
3,869167	0,1	0,869768
3,870833	0,1	0,876031
3,872500	0,1	0,881627
3,874167	0,1	0,890526
3,875833	0,1	0,844428
3,877500	0,1	0,887585
3,879167	0,1	0,862964
3,880833	0,1	0,838676
3,882500	0,1	0,872793
3,884167	0,1	0,852705
3,885833	0,1	0,835097
3,887500	0,1	0,877662
3,889167	0,1	0,824593
3,890833	0,1	0,858586
3,892500	0,1	0,848536
3,894167	0,1	0,869623
3,895833	0,1	0,769405
3,897500	0,1	0,851098
3,899167	0,1	0,818587
3,900833	0,1	0,838180
3,902500	0,1	0,858997
3,904167	0,1	0,832584
3,905833	0,1	0,822113
3,907500	0,1	0,836760
3,909167	0,1	0,808469
3,910833	0,1	0,830552
3,912500	0,1	0,814153
3,914167	0,1	0,765229
3,915833	0,1	0,800192
3,917500	0,1	0,779517
3,919167	0,1	0,795259
3,920833	0,1	0,728764
3,922500	0,1	0,759432
3,924167	0,1	0,783269
3,925833	0,1	0,774000
3,927500	0,1	0,754991
3,929167	0,1	0,769116
3,930833	0,1	0,738610
3,932500	0,1	0,755410
3,934167	0,1	0,732217
3,935833	0,1	0,725684
3,937500	0,1	0,711736
3,939167	0,1	0,755842
3,940833	0,1	0,721375
3,942500	0,1	0,729789
3,944167	0,1	0,688309
3,945833	0,1	0,737011
3,947500	0,1	0,727542
3,949167	0,1	0,700797
3,950833	0,1	0,729689
3,952500	0,1	0,705649
3,954167	0,1	0,686269
3,955833	0,1	0,739388
3,957500	0,1	0,704731
3,959167	0,1	0,711896
3,960833	0,1	0,696176
3,962500	0,1	0,690169
3,964167	0,1	0,683186
3,965833	0,1	0,706930
3,967500	0,1	0,696767
3,969167	0,1	0,663047
3,970833	0,1	0,649364
3,972500	0,1	0,670495
3,974167	0,1	0,658368
3,975833	0,1	0,666678
3,977500	0,1	0,647555
3,979167	0,1	0,654488
3,980833	0,1	0,642357
3,982500	0,1	0,619382
3,984167	0,1	0,650743
3,985833	0,1	0,608779
3,987500	0,1	0,636192
3,989167	0,1	0,640265
3,990833	0,1	0,655627
3,992500	0,1	0,628493
3,994167	0,1	0,611342
3,995833	0,1	0,624844
3,997500	0,1	0,663082
3,999167	0,1	0,571302
4,000833	0,1	0,607978
4,002500	0,1	0,636042
4,004167	0,1	0,610220
4,005833	0,1	0,578560
4,007500	0,1	0,622748
4,009167	0,1	0,630234
4,010833	0,1	0,601094
4,012500	0,1	0,617807
4,014167	0,1	0,615754
4,015833	0,1	0,615942
4,017500	0,1	0,620516
4,019167	0,1	0,600532
4,020833	0,1	0,604080
4,022500	0,1	0,589961
4,024167	0,1	0,587458
4,025833	0,1	0,558199
4,027500	0,1	0,591036
4,029167	0,1	0,620746
4,030833	0,1	0,599309
4,032500	0,1	0,639777
4,034167	0,1	0,618325
4,035833	0,1	0,616656
4,037500	0,1	0,605119
4,039167	0,1	0,634763
4,040833	0,1	0,597511
4,042500	0,1	0,623344
4,044167	0,1	0,650017
4,045833	0,1	0,586963
4,047500	0,1	0,638247
4,049167	0,1	0,665972
4,050833	0,1	0,643622
4,052500	0,1	0,637531
4,054167	0,1	0,640553
4,055833	0,1	0,650445
4,057500	0,1	0,644622
4,059167	0,1	0,656189
4,060833	0,1	0,708311
4,062500	0,1	0,706180
4,064167	0,1	0,673793
4,065833	0,1	0,707380
4,067500	0,1	0,690281
4,069167	0,1	0,697478
4,070833	0,1	0,694881
4,072500	0,1	0,722789
4,074167	0,1	0,714331
4,075833	0,1	0,744329
4,077500	0,1	0,716564
4,079167	0,1	0,736935
4,080833	0,1	0,780600
4,082500	0,1	0,797391
4,084167	0,1	0,798041
4,085833	0,1	0,812820
4,087500	0,1	0,818522
4,089167	0,1	0,815039
4,090833	0,1	0,844501
4,092500	0,1	0,861154
4,094167	0,1	0,844569
4,095833	0,1	0,883190
4,097500	0,1	0,847010
4,099167	0,1	0,906163
4,100833	0,1	0,880252
4,102500	0,1	0,924472
4,104167	0,1	0,940567
4,105833	0,1	0,947966
4,107500	0,1	0,977694
4,109167	0,1	0,957154
4,110833	0,1	0,941710
4,112500	0,1	1,005341
4,114167	0,1	1,010020
4,115833	0,1	1,067980
4,117500	0,1	1,070349
4,119167	0,1	1,078618
4,120833	0,1	1,085871
4,122500	0,1	1,083287
4,124167	0,1	1,127032
4,125833	0,1	1,156211
4,127500	0,1	1,179563
4,129167	0,1	1,172956
4,130833	0,1	1,152912
4,132500	0,1	1,207429
4,134167	0,1	1,245813
4,135833	0,1	1,207239
4,137500	0,1	1,275705
4,139167	0,1	1,222260
4,140833	0,1	1,250841
4,142500	0,1	1,292814
4,144167	0,1	1,294547
4,145833	0,1	1,277375
4,147500	0,1	1,339817
4,149167	0,1	1,330632
4,150833	0,1	1,376122
4,152500	0,1	1,373042
4,154167	0,1	1,379007
4,155833	0,1	1,381595
4,157500	0,1	1,425366
4,159167	0,1	1,397347
4,160833	0,1	1,427239
4,162500	0,1	1,437668
4,164167	0,1	1,463477
4,165833	0,1	1,469736
4,167500	0,1	1,490727
4,169167	0,1	1,481963
4,170833	0,1	1,472473
4,172500	0,1	1,488573
4,174167	0,1	1,538398
4,175833	0,1	1,495347
4,177500	0,1	1,538902
4,179167	0,1	1,523242
4,180833	0,1	1,544017
4,182500	0,1	1,579462
4,184167	0,1	1,567031
4,185833	0,1	1,575160
4,187500	0,1	1,585371
4,189167	0,1	1,635055
4,190833	0,1	1,582145
4,192500	0,1	1,659220
4,194167	0,1	1,614363
4,195833	0,1	1,672680
4,197500	0,1	1,607899
4,199167	0,1	1,609966
4,200833	0,1	1,621332
4,202500	0,1	1,667421
4,204167	0,1	1,618981
4,205833	0,1	1,665628
4,207500	0,1	1,653059
4,209167	0,1	1,637596
4,210833	0,1	1,630189
4,212500	0,1	1,644637
4,214167	0,1	1,595308
4,215833	0,1	1,641173
4,217500	0,1	1,662251
4,219167	0,1	1,647014
4,220833	0,1	1,670530
4,222500	0,1	1,656151
4,224167	0,1	1,627457
4,225833	0,1	1,666001
4,227500	0,1	1,676716
4,229167	0,1	1,662260
4,230833	0,1	1,641697
4,232500	0,1	1,723963
4,234167	0,1	1,625386
4,235833	0,1	1,658656
4,237500	0,1	1,659609
4,239167	0,1	1,613295
4,240833	0,1	1,665417
4,242500	0,1	1,632709
4,244167	0,1	1,663121
4,245833	0,1	1,628114
4,247500	0,1	1,603359
4,249167	0,1	1,630893
4,250833	0,1	1,618174
4,252500	0,1	1,651024
4,254167	0,1	1,617027
4,255833	0,1	1,549868
4,257500	0,1	1,537914
4,259167	0,1	1,550636
4,260833	0,1	1,583133
4,262500	0,1	1,588536
4,264167	0,1	1,533321
4,265833	0,1	1,579253
4,267500	0,1	1,562433
4,269167	0,1	1,528211
4,270833	0,1	1,540064
4,272500	0,1	1,581625
4,274167	0,1	1,537632
4,275833	0,1	1,521373
4,277500	0,1	1,542216
4,279167	0,1	1,522523
4,280833	0,1	1,494985
4,282500	0,1	1,469816
4,284167	0,1	1,508340
4,285833	0,1	1,466368
4,287500	0,1	1,475557
4,289167	0,1	1,449686
4,290833	0,1	1,453703
4,292500	0,1	1,439616
4,294167	0,1	1,423008
4,295833	0,1	1,390661
4,297500	0,1	1,410778
4,299167	0,1	1,393532
4,300833	0,1	1,367584
4,302500	0,1	1,413145
4,304167	0,1	1,368020
4,305833	0,1	1,365422
4,307500	0,1	1,384177
4,309167	0,1	1,336892
4,310833	0,1	1,326751
4,312500	0,1	1,332426
4,314167	0,1	1,321286
4,315833	0,1	1,339968
4,317500	0,1	1,329553
4,319167	0,1	1,301312
4,320833	0,1	1,297425
4,322500	0,1	1,293686
4,324167	0,1	1,278236
4,325833	0,1	1,286711
4,327500	0,1	1,288729
4,329167	0,1	1,263296
4,330833	0,1	1,270254
4,332500	0,1	1,233471
4,334167	0,1	1,235471
4,335833	0,1	1,243877
4,337500	0,1	1,244386
4,339167	0,1	1,172032
4,340833	0,1	1,184447
4,342500	0,1	1,183443
4,344167	0,1	1,183227
4,345833	0,1	1,199899
4,347500	0,1	1,128419
4,349167	0,1	1,159222
4,350833	0,1	1,137100
4,352500	0,1	1,169935
4,354167	0,1	1,182941
4,355833	0,1	1,121308
4,357500	0,1	1,091553
4,359167	0,1	1,085305
4,360833	0,1	1,095999
4,362500	0,1	1,075673
4,364167	0,1	1,094062
4,365833	0,1	1,098156
4,367500	0,1	1,070727
4,369167	0,1	1,033078
4,370833	0,1	1,047949
4,372500	0,1	1,031569
4,374167	0,1	1,030202
4,375833	0,1	1,014044
4,377500	0,1	1,024024
4,379167	0,1	0,983808
4,380833	0,1	0,995806
4,382500	0,1	0,974544
4,384167	0,1	1,023158
4,385833	0,1	1,000830
4,387500	0,1	0,973262
4,389167	0,1	0,981936
4,390833	0,1	0,948056
4,392500	0,1	0,932669
4,394167	0,1	0,900717
4,395833	0,1	0,915490
4,397500	0,1	0,939640
4,399167	0,1	0,909973
4,400833	0,1	0,939778
4,402500	0,1	0,893909
4,404167	0,1	0,860637
4,405833	0,1	0,899338
4,407500	0,1	0,871830
4,409167	0,1	0,846232
4,410833	0,1	0,858491
4,412500	0,1	0,848665
4,414167	0,1	0,859334
4,415833	0,1	0,877448
4,417500	0,1	0,847885
4,419167	0,1	0,863184
4,420833	0,1	0,840394
4,422500	0,1	0,746860
4,424167	0,1	0,818262
4,425833	0,1	0,836898
4,427500	0,1	0,828564
4,429167	0,1	0,783551
4,430833	0,1	0,811050
4,432500	0,1	0,770407
4,434167	0,1	0,806238
4,435833	0,1	0,755963
4,437500	0,1	0,740449
4,439167	0,1	0,732626
4,440833	0,1	0,728405
4,442500	0,1	0,758968
4,444167	0,1	0,738527
4,445833	0,1	0,712397
4,447500	0,1	0,751746
4,449167	0,1	0,718515
4,450833	0,1	0,734711
4,452500	0,1	0,676202
4,454167	0,1	0,722001
4,455833	0,1	0,677285
4,457500	0,1	0,642538
4,459167	0,1	0,662686
4,460833	0,1	0,681298
4,462500	0,1	0,624116
4,464167	0,1	0,635575
4,465833	0,1	0,658512
4,467500	0,1	0,632574
4,469167	0,1	0,650032
4,470833	0,1	0,628068
4,472500	0,1	0,659003
4,474167	0,1	0,650547
4,475833	0,1	0,612943
4,477500	0,1	0,593055
4,479167	0,1	0,601375
4,480833	0,1	0,605912
4,482500	0,1	0,603094
4,484167	0,1	0,545258
4,485833	0,1	0,575674
4,487500	0,1	0,543163
4,489167	0,1	0,547486
4,490833	0,1	0,553330
4,492500	0,1	0,567487
4,494167	0,1	0,526969
4,495833	0,1	0,541434
4,497500	0,1	0,514799
4,499167	0,1	0,552508
4,500833	0,1	0,499258
4,502500	0,1	0,488713
4,504167	0,1	0,510879
4,505833	0,1	0,461554
4,507500	0,1	0,501311
4,509167	0,1	0,465814
4,510833	0,1	0,486326
4,512500	0,1	0,481916
4,514167	0,1	0,492582
4,515833	0,1	0,491329
4,517500	0,1	0,496235
4,519167	0,1	0,504086
4,520833	0,1	0,461640
4,522500	0,1	0,454000
4,524167	0,1	0,468880
4,525833	0,1	0,493567
4,527500	0,1	0,448844
4,529167	0,1	0,440973
4,530833	0,1	0,407034
4,532500	0,1	0,422832
4,534167	0,1	0,418136
4,535833	0,1	0,406720
4,537500	0,1	0,404934
4,539167	0,1	0,386710
4,540833	0,1	0,404795
4,542500	0,1	0,394628
4,544167	0,1	0,374868
4,545833	0,1	0,396845
4,547500	0,1	0,382123
4,549167	0,1	0,392599
4,550833	0,1	0,396831
4,552500	0,1	0,390620
4,554167	0,1	0,391377
4,555833	0,1	0,365074
4,557500	0,1	0,353471
4,559167	0,1	0,324948
4,560833	0,1	0,380788
4,562500	0,1	0,343419
4,564167	0,1	0,340359
4,565833	0,1	0,315796
4,567500	0,1	0,291716
4,569167	0,1	0,283968
4,570833	0,1	0,316026
4,572500	0,1	0,291050
4,574167	0,1	0,339615
4,575833	0,1	0,321316
4,577500	0,1	0,327272
4,579167	0,1	0,280797
4,580833	0,1	0,267036
4,582500	0,1	0,342969
4,584167	0,1	0,279754
4,585833	0,1	0,328905
4,587500	0,1	0,261953
4,589167	0,1	0,271190
4,590833	0,1	0,266276
4,592500	0,1	0,245475
4,594167	0,1	0,266159
4,595833	0,1	0,244185
4,597500	0,1	0,258550
4,599167	0,1	0,267763
4,600833	0,1	0,261426
4,602500	0,1	0,226986
4,604167	0,1	0,230292
4,605833	0,1	0,238770
4,607500	0,1	0,208963
4,609167	0,1	0,234337
4,610833	0,1	0,230896
4,612500	0,1	0,192455
4,614167	0,1	0,236268
4,615833	0,1	0,227514
4,617500	0,1	0,210896
4,619167	0,1	0,168251
4,620833	0,1	0,208946
4,622500	0,1	0,235494
4,624167	0,1	0,225599
4,625833	0,1	0,186092
4,627500	0,1	0,198363
4,629167	0,1	0,213046
4,630833	0,1	0,182996
4,632500	0,1	0,163505
4,634167	0,1	0,180496
4,635833	0,1	0,197028
4,637500	0,1	0,181082
4,639167	0,1	0,204722
4,640833	0,1	0,172319
4,642500	0,1	0,173402
4,644167	0,1	0,186724
4,645833	0,1	0,158239
4,647500	0,1	0,167882
4,649167	0,1	0,155919
4,650833	0,1	0,124153
4,652500	0,1	0,160159
4,654167	0,1	0,190971
4,655833	0,1	0,143560
4,657500	0,1	0,155755
4,659167	0,1	0,164283
4,660833	0,1	0,151625
4,662500	0,1	0,165904
4,664167	0,1	0,108560
4,665833	0,1	0,158278
4,667500	0,1	0,158033
4,669167	0,1	0,121574
4,670833	0,1	0,113313
4,672500	0,1	0,136596
4,674167	0,1	0,082623
4,675833	0,1	0,128651
4,677500	0,1	0,152618
4,679167	0,1	0,119109
4,680833	0,1	0,123013
4,682500	0,1	0,165606
4,684167	0,1	0,100871
4,685833	0,1	0,075482
4,687500	0,1	0,116577
4,689167	0,1	0,079130
4,690833	0,1	0,135638
4,692500	0,1	0,118304
4,694167	0,1	0,070813
4,695833	0,1	0,101023
4,697500	0,1	0,083824
4,699167	0,1	0,127321
4,700833	0,1	0,101666
4,702500	0,1	0,091827
4,704167	0,1	0,051751
4,705833	0,1	0,079496
4,707500	0,1	0,083240
4,709167	0,1	0,091718
4,710833	0,1	0,089626
4,712500	0,1	0,091047
4,714167	0,1	0,090181
4,715833	0,1	0,069162
4,717500	0,1	0,103455
4,719167	0,1	0,070705
4,720833	0,1	0,078501
4,722500	0,1	0,107723
4,724167	0,1	0,060519
4,725833	0,1	0,102070
4,727500	0,1	0,054451
4,729167	0,1	0,075588
4,730833	0,1	0,056840
4,732500	0,1	0,060323
4,734167	0,1	0,087579
4,735833	0,1	0,004098
4,737500	0,1	0,055467
4,739167	0,1	0,089104
4,740833	0,1	0,038615
4,742500	0,1	0,014876
4,744167	0,1	0,077604
4,745833	0,1	0,031848
4,747500	0,1	0,023166
4,749167	0,1	0,042218
4,750833	0,1	0,071716
4,752500	0,1	0,024950
4,754167	0,1	0,039968
4,755833	0,1	0,022680
4,757500	0,1	0,038389
4,759167	0,1	0,006534
4,760833	0,1	0,040558
4,762500	0,1	0,089392
4,764167	0,1	0,025719
4,765833	0,1	0,029087
4,767500	0,1	0,001887
4,769167	0,1	-0,007081
4,770833	0,1	0,022130
4,772500	0,1	0,005939
4,774167	0,1	-0,007950
4,775833	0,1	-0,010609
4,777500	0,1	0,006522
4,779167	0,1	-0,009790
4,780833	0,1	0,013418
4,782500	0,1	0,016739
4,784167	0,1	0,012226
4,785833	0,1	-0,001920
4,787500	0,1	0,031763
4,789167	0,1	0,004033
4,790833	0,1	0,006460
4,792500	0,1	-0,000792
4,794167	0,1	0,013905
4,795833	0,1	-0,018105
4,797500	0,1	0,030010
4,799167	0,1	0,001953
4,800833	0,1	0,000591
4,802500	0,1	0,009840
4,804167	0,1	0,010607
4,805833	0,1	0,012713
4,807500	0,1	-0,008921
4,809167	0,1	-0,001572
4,810833	0,1	0,010419
4,812500	0,1	0,013292
4,814167	0,1	-0,011854
4,815833	0,1	-0,056768
4,817500	0,1	-0,036400
4,819167	0,1	-0,022247
4,820833	0,1	-0,038326
4,822500	0,1	-0,008868
4,824167	0,1	-0,034556
4,825833	0,1	-0,024155
4,827500	0,1	-0,040130
4,829167	0,1	-0,009634
4,830833	0,1	-0,037286
4,832500	0,1	0,007083
4,834167	0,1	0,003011
4,835833	0,1	0,012579
4,837500	0,1	0,000014
4,839167	0,1	-0,037741
4,840833	0,1	-0,037721
4,842500	0,1	-0,059633
4,844167	0,1	-0,047070
4,845833	0,1	-0,024250
4,847500	0,1	-0,007509
4,849167	0,1	-0,052189
4,850833	0,1	-0,018674
4,852500	0,1	-0,036885
4,854167	0,1	-0,026499
4,855833	0,1	-0,039804
4,857500	0,1	-0,015604
4,859167	0,1	-0,012189
4,860833	0,1	-0,051676
4,862500	0,1	-0,028737
4,864167	0,1	-0,043391
4,865833	0,1	-0,019382
4,867500	0,1	-0,039101
4,869167	0,1	-0,025537
4,870833	0,1	-0,002520
4,872500	0,1	-0,029976
4,874167	0,1	-0,044523
4,875833	0,1	-0,022092
4,877500	0,1	-0,054453
4,879167	0,1	-0,005881
4,880833	0,1	-0,051413
4,882500	0,1	-0,052778
4,884167	0,1	-0,067541
4,885833	0,1	-0,039279
4,887500	0,1	-0,069051
4,889167	0,1	-0,053454
4,890833	0,1	-0,049068
4,892500	0,1	-0,047843
4,894167	0,1	-0,023923
4,895833	0,1	-0,011601
4,897500	0,1	-0,049834
4,899167	0,1	-0,051619
4,900833	0,1	-0,032858
4,902500	0,1	-0,042111
4,904167	0,1	-0,037948
4,905833	0,1	-0,035208
4,907500	0,1	-0,016353
4,909167	0,1	-0,016993
4,910833	0,1	-0,034493
4,912500	0,1	-0,070535
4,914167	0,1	-0,028667
4,915833	0,1	-0,059865
4,917500	0,1	-0,050425
4,919167	0,1	-0,053197
4,920833	0,1	-0,057096
4,922500	0,1	-0,020806
4,924167	0,1	-0,016768
4,925833	0,1	-0,046285
4,927500	0,1	-0,009803
4,929167	0,1	-0,044836
4,930833	0,1	-0,040554
4,932500	0,1	-0,048421
4,934167	0,1	-0,012870
4,935833	0,1	-0,026653
4,937500	0,1	-0,025403
4,939167	0,1	-0,059929
4,940833	0,1	-0,028056
4,942500	0,1	-0,071664
4,944167	0,1	-0,033665
4,945833	0,1	-0,029509
4,947500	0,1	-0,009678
4,949167	0,1	-0,052834
4,950833	0,1	-0,015581
4,952500	0,1	-0,001162
4,954167	0,1	0,015577
4,955833	0,1	-0,007154
4,957500	0,1	-0,007728
4,959167	0,1	-0,038873
4,960833	0,1	0,006858
4,962500	0,1	-0,025686
4,964167	0,1	-0,025956
4,965833	0,1	0,008150
4,967500	0,1	0,001171
4,969167	0,1	0,001301
4,970833	0,1	0,002682
4,972500	0,1	-0,013725
4,974167	0,1	-0,026467
4,975833	0,1	0,003386
4,977500	0,1	0,026765
4,979167	0,1	0,006083
4,980833	0,1	0,015356
4,982500	0,1	0,005330
4,984167	0,1	0,028541
4,985833	0,1	0,035192
4,987500	0,1	-0,000046
4,989167	0,1	0,079115
4,990833	0,1	0,026204
4,992500	0,1	0,003755
4,994167	0,1	0,084695
4,995833	0,1	0,037850
4,997500	0,1	0,058527
4,999167	0,1	0,051545
5,000833	0,1	0,058991
5,002500	0,1	0,047545
5,004167	0,1	0,081471
5,005833	0,1	0,068093
5,007500	0,1	0,101966
5,009167	0,1	0,086578
5,010833	0,1	0,104275
5,012500	0,1	0,058491
5,014167	0,1	0,103558
5,015833	0,1	0,079772
5,017500	0,1	0,089872
5,019167	0,1	0,111223
5,020833	0,1	0,150100
5,022500	0,1	0,148754
5,024167	0,1	0,118257
5,025833	0,1	0,085160
5,027500	0,1	0,117042
5,029167	0,1	0,103688
5,030833	0,1	0,164131
5,032500	0,1	0,185878
5,034167	0,1	0,164062
5,035833	0,1	0,143306
5,037500	0,1	0,189497
5,039167	0,1	0,194583
5,040833	0,1	0,203881
5,042500	0,1	0,215140
5,044167	0,1	0,217856
5,045833	0,1	0,220413
5,047500	0,1	0,202508
5,049167	0,1	0,201322
5,050833	0,1	0,224370
5,052500	0,1	0,235921
5,054167	0,1	0,270295
5,055833	0,1	0,251904
5,057500	0,1	0,269165
5,059167	0,1	0,274863
5,060833	0,1	0,272975
5,062500	0,1	0,263184
5,064167	0,1	0,270124
5,065833	0,1	0,293507
5,067500	0,1	0,257849
5,069167	0,1	0,289188
5,070833	0,1	0,302411
5,072500	0,1	0,279210
5,074167	0,1	0,322033
5,075833	0,1	0,286201
5,077500	0,1	0,308996
5,079167	0,1	0,280659
5,080833	0,1	0,347288
5,082500	0,1	0,352378
5,084167	0,1	0,305098
5,085833	0,1	0,356974
5,087500	0,1	0,371452
5,089167	0,1	0,334140
5,090833	0,1	0,365235
5,092500	0,1	0,345600
5,094167	0,1	0,354272
5,095833	0,1	0,355296
5,097500	0,1	0,329929
5,099167	0,1	0,373583
5,100833	0,1	0,380356
5,102500	0,1	0,414292
5,104167	0,1	0,390893
5,105833	0,1	0,365343
5,107500	0,1	0,376684
5,109167	0,1	0,384382
5,110833	0,1	0,397272
5,112500	0,1	0,385148
5,114167	0,1	0,402858
5,115833	0,1	0,419132
5,117500	0,1	0,420089
5,119167	0,1	0,410139
5,120833	0,1	0,432215
5,122500	0,1	0,417734
5,124167	0,1	0,352778
5,125833	0,1	0,427328
5,127500	0,1	0,426806
5,129167	0,1	0,426988
5,130833	0,1	0,394634
5,132500	0,1	0,446276
5,134167	0,1	0,427128
5,135833	0,1	0,422992
5,137500	0,1	0,413771
5,139167	0,1	0,406400
5,140833	0,1	0,392586
5,142500	0,1	0,436644
5,144167	0,1	0,402803
5,145833	0,1	0,418795
5,147500	0,1	0,409898
5,149167	0,1	0,392633
5,150833	0,1	0,391310
5,152500	0,1	0,394827
5,154167	0,1	0,403438
5,155833	0,1	0,421494
5,157500	0,1	0,409080
5,159167	0,1	0,419019
5,160833	0,1	0,392366
5,162500	0,1	0,388132
5,164167	0,1	0,384057
5,165833	0,1	0,396067
5,167500	0,1	0,399970
5,169167	0,1	0,408315
5,170833	0,1	0,424807
5,172500	0,1	0,382439
5,174167	0,1	0,380000
5,175833	0,1	0,406257
5,177500	0,1	0,391537
5,179167	0,1	0,355461
5,180833	0,1	0,373272
5,182500	0,1	0,397047
5,184167	0,1	0,387613
5,185833	0,1	0,365361
5,187500	0,1	0,367891
5,189167	0,1	0,318674
5,190833	0,1	0,332878
5,192500	0,1	0,326965
5,194167	0,1	0,313503
5,195833	0,1	0,313142
5,197500	0,1	0,373377
5,199167	0,1	0,367428
5,200833	0,1	0,333049
5,202500	0,1	0,324985
5,204167	0,1	0,358672
5,205833	0,1	0,305633
5,207500	0,1	0,343247
5,209167	0,1	0,294972
5,210833	0,1	0,285951
5,212500	0,1	0,334496
5,214167	0,1	0,254724
5,215833	0,1	0,281959
5,217500	0,1	0,324548
5,219167	0,1	0,299307
5,220833	0,1	0,249754
5,222500	0,1	0,254147
5,224167	0,1	0,284360
5,225833	0,1	0,217915
5,227500	0,1	0,263216
5,229167	0,1	0,259911
5,230833	0,1	0,231726
5,232500	0,1	0,225377
5,234167	0,1	0,262861
5,235833	0,1	0,253771
5,237500	0,1	0,251788
5,239167	0,1	0,234859
5,240833	0,1	0,239704
5,242500	0,1	0,210987
5,244167	0,1	0,225239
5,245833	0,1	0,186936
5,247500	0,1	0,203500
5,249167	0,1	0,205951
5,250833	0,1	0,174055
5,252500	0,1	0,172334
5,254167	0,1	0,180962
5,255833	0,1	0,224699
5,257500	0,1	0,204757
5,259167	0,1	0,120362
5,260833	0,1	0,141427
5,262500	0,1	0,142368
5,264167	0,1	0,132601
5,265833	0,1	0,174351
5,267500	0,1	0,180540
5,269167	0,1	0,125515
5,270833	0,1	0,141296
5,272500	0,1	0,122754
5,274167	0,1	0,120881
5,275833	0,1	0,112866
5,277500	0,1	0,102545
5,279167	0,1	0,110359
5,280833	0,1	0,132329
5,282500	0,1	0,130184
5,284167	0,1	0,134758
5,285833	0,1	0,107157
5,287500	0,1	0,102306
5,289167	0,1	0,084262
5,290833	0,1	0,113288
5,292500	0,1	0,079826
5,294167	0,1	0,051998
5,295833	0,1	0,067954
5,297500	0,1	0,089794
5,299167	0,1	0,101879
5,300833	0,1	0,126059
5,302500	0,1	0,061010
5,304167	0,1	0,062048
5,305833	0,1	0,044703
5,307500	0,1	0,055620
5,309167	0,1	0,061599
5,310833	0,1	0,066378
5,312500	0,1	0,034847
5,314167	0,1	0,040931
5,315833	0,1	0,065135
5,317500	0,1	0,030358
5,319167	0,1	0,033483
5,320833	0,1	0,007057
5,322500	0,1	0,032385
5,324167	0,1	0,016690
5,325833	0,1	0,032375
5,327500	0,1	0,038470
5,329167	0,1	-0,031573
5,330833	0,1	0,024178
5,332500	0,1	-0,003629
5,334167	0,1	0,021289
5,335833	0,1	-0,002406
5,337500	0,1	-0,014400
5,339167	0,1	-0,025757
5,340833	0,1	-0,036364
5,342500	0,1	-0,029369
5,344167	0,1	-0,008247
5,345833	0,1	-0,055823
5,347500	0,1	-0,078110
5,349167	0,1	-0,011297
5,350833	0,1	-0,060309
5,352500	0,1	-0,025673
5,354167	0,1	-0,051932
5,355833	0,1	-0,053712
5,357500	0,1	-0,048070
5,359167	0,1	-0,036247
5,360833	0,1	-0,013381
5,362500	0,1	-0,066792
5,364167	0,1	-0,053614
5,365833	0,1	-0,100289
5,367500	0,1	-0,112418
5,369167	0,1	-0,096696
5,370833	0,1	-0,081378
5,372500	0,1	-0,094978
5,374167	0,1	-0,120251
5,375833	0,1	-0,038294
5,377500	0,1	-0,087522
5,379167	0,1	-0,076545
5,380833	0,1	-0,056775
5,382500	0,1	-0,089910
5,384167	0,1	-0,106583
5,385833	0,1	-0,046868
5,387500	0,1	-0,084750
5,389167	0,1	-0,093305
5,390833	0,1	-0,088208
5,392500	0,1	-0,106874
5,394167	0,1	-0,091660
5,395833	0,1	-0,099043
5,397500	0,1	-0,117348
5,399167	0,1	-0,133728
5,400833	0,1	-0,099410
5,402500	0,1	-0,063236
5,404167	0,1	-0,147376
5,405833	0,1	-0,087062
5,407500	0,1	-0,119056
5,409167	0,1	-0,099080
5,410833	0,1	-0,125830
5,412500	0,1	-0,161798
5,414167	0,1	-0,127033
5,415833	0,1	-0,112269
5,417500	0,1	-0,121154
5,419167	0,1	-0,089027
5,420833	0,1	-0,132593
5,422500	0,1	-0,145848
5,424167	0,1	-0,180948
5,425833	0,1	-0,123495
5,427500	0,1	-0,113328
5,429167	0,1	-0,153124
5,430833	0,1	-0,155428
5,432500	0,1	-0,147723
5,434167	0,1	-0,146338
5,435833	0,1	-0,141729
5,437500	0,1	-0,159646
5,439167	0,1	-0,144825
5,440833	0,1	-0,155681
5,442500	0,1	-0,177274
5,444167	0,1	-0,131135
5,445833	0,1	-0,175047
5,447500	0,1	-0,160589
5,449167	0,1	-0,145307
5,450833	0,1	-0,173923
5,452500	0,1	-0,157492
5,454167	0,1	-0,177213
5,455833	0,1	-0,221556
5,457500	0,1	-0,217860
5,459167	0,1	-0,199335
5,460833	0,1	-0,197397
5,462500	0,1	-0,227684
5,464167	0,1	-0,169046
5,465833	0,1	-0,187978
5,467500	0,1	-0,172712
5,469167	0,1	-0,161652
5,470833	0,1	-0,189586
5,472500	0,1	-0,200711
5,474167	0,1	-0,202230
5,475833	0,1	-0,184537
5,477500	0,1	-0,212311
5,479167	0,1	-0,184960
5,480833	0,1	-0,179412
5,482500	0,1	-0,190332
5,484167	0,1	-0,189467
5,485833	0,1	-0,170516
5,487500	0,1	-0,211180
5,489167	0,1	-0,188471
5,490833	0,1	-0,208736
5,492500	0,1	-0,197399
5,494167	0,1	-0,213249
5,495833	0,1	-0,194628
5,497500	0,1	-0,199458
5,499167	0,1	-0,218018
5,500833	0,1	-0,213864
5,502500	0,1	-0,210740
5,504167	0,1	-0,242253
5,505833	0,1	-0,233754
5,507500	0,1	-0,201787
5,509167	0,1	-0,181379
5,510833	0,1	-0,188399
5,512500	0,1	-0,203160
5,514167	0,1	-0,226622
5,515833	0,1	-0,198657
5,517500	0,1	-0,209448
5,519167	0,1	-0,237514
5,520833	0,1	-0,220284
5,522500	0,1	-0,252661
5,524167	0,1	-0,263786
5,525833	0,1	-0,195509
5,527500	0,1	-0,236771
5,529167	0,1	-0,253536
5,530833	0,1	-0,225538
5,532500	0,1	-0,209133
5,534167	0,1	-0,224368
5,535833	0,1	-0,236745
5,537500	0,1	-0,258400
5,539167	0,1	-0,246226
5,540833	0,1	-0,207847
5,542500	0,1	-0,238514
5,544167	0,1	-0,190541
5,545833	0,1	-0,240603
5,547500	0,1	-0,207589
5,549167	0,1	-0,246407
5,550833	0,1	-0,238683
5,552500	0,1	-0,223634
5,554167	0,1	-0,222825
5,555833	0,1	-0,225209
5,557500	0,1	-0,260557
5,559167	0,1	-0,244679
5,560833	0,1	-0,249123
5,562500	0,1	-0,239684
5,564167	0,1	-0,245868
5,565833	0,1	-0,257598
5,567500	0,1	-0,220611
5,569167	0,1	-0,237066
5,570833	0,1	-0,256338
5,572500	0,1	-0,222609
5,574167	0,1	-0,263358
5,575833	0,1	-0,224188
5,577500	0,1	-0,253564
5,579167	0,1	-0,246967
5,580833	0,1	-0,270453
5,582500	0,1	-0,248935
5,584167	0,1	-0,254892
5,585833	0,1	-0,264624
5,587500	0,1	-0,242781
5,589167	0,1	-0,253215
5,590833	0,1	-0,244485
5,592500	0,1	-0,252765
5,594167	0,1	-0,222574
5,595833	0,1	-0,242900
5,597500	0,1	-0,239038
5,599167	0,1	-0,253086
5,600833	0,1	-0,264173
5,602500	0,1	-0,241106
5,604167	0,1	-0,273480
5,605833	0,1	-0,239884
5,607500	0,1	-0,243644
5,609167	0,1	-0,257662
5,610833	0,1	-0,202469
5,612500	0,1	-0,230424
5,614167	0,1	-0,269418
5,615833	0,1	-0,231634
5,617500	0,1	-0,224343
5,619167	0,1	-0,247442
5,620833	0,1	-0,295068
5,622500	0,1	-0,251101
5,624167	0,1	-0,271647
5,625833	0,1	-0,254769
5,627500	0,1	-0,258147
5,629167	0,1	-0,255925
5,630833	0,1	-0,223382
5,632500	0,1	-0,207292
5,634167	0,1	-0,243670
5,635833	0,1	-0,270775
5,637500	0,1	-0,253093
5,639167	0,1	-0,249833
5,640833	0,1	-0,240424
5,642500	0,1	-0,232431
5,644167	0,1	-0,224923
5,645833	0,1	-0,240869
5,647500	0,1	-0,240327
5,649167	0,1	-0,265747
5,650833	0,1	-0,248676
5,652500	0,1	-0,218997
5,654167	0,1	-0,237388
5,655833	0,1	-0,232528
5,657500	0,1	-0,253437
5,659167	0,1	-0,221835
5,660833	0,1	-0,259977
5,662500	0,1	-0,264368
5,664167	0,1	-0,250901
5,665833	0,1	-0,248093
5,667500	0,1	-0,241777
5,669167	0,1	-0,273931
5,670833	0,1	-0,201376
5,672500	0,1	-0,245053
5,674167	0,1	-0,239778
5,675833	0,1	-0,242839
5,677500	0,1	-0,265459
5,679167	0,1	-0,204982
5,680833	0,1	-0,242733
5,682500	0,1	-0,263912
5,684167	0,1	-0,209657
5,685833	0,1	-0,233713
5,687500	0,1	-0,264070
5,689167	0,1	-0,254540
5,690833	0,1	-0,243454
5,692500	0,1	-0,230434
5,694167	0,1	-0,208296
5,695833	0,1	-0,228977
5,697500	0,1	-0,235555
5,699167	0,1	-0,263782
5,700833	0,1	-0,254509
5,702500	0,1	-0,226475
5,704167	0,1	-0,202848
5,705833	0,1	-0,230264
5,707500	0,1	-0,259558
5,709167	0,1	-0,241233
5,710833	0,1	-0,226278
5,712500	0,1	-0,221054
5,714167	0,1	-0,236873
5,715833	0,1	-0,227532
5,717500	0,1	-0,220798
5,719167	0,1	-0,202234
5,720833	0,1	-0,215572
5,722500	0,1	-0,225980
5,724167	0,1	-0,250569
5,725833	0,1	-0,236686
5,727500	0,1	-0,215546
5,729167	0,1	-0,239127
5,730833	0,1	-0,212680
5,732500	0,1	-0,227332
5,734167	0,1	-0,208840
5,735833	0,1	-0,223595
5,737500	0,1	-0,219152
5,739167	0,1	-0,228558
5,740833	0,1	-0,202172
5,742500	0,1	-0,228362
5,744167	0,1	-0,217704
5,745833	0,1	-0,257011
5,747500	0,1	-0,217710
5,749167	0,1	-0,257171
5,750833	0,1	-0,244228
5,752500	0,1	-0,229437
5,754167	0,1	-0,213031
5,755833	0,1	-0,213253
5,757500	0,1	-0,207418
5,759167	0,1	-0,205871
5,760833	0,1	-0,217827
5,762500	0,1	-0,190471
5,764167	0,1	-0,222494
5,765833	0,1	-0,237165
5,767500	0,1	-0,239068
5,769167	0,1	-0,255436
5,770833	0,1	-0,206271
5,772500	0,1	-0,215538
5,774167	0,1	-0,224757
5,775833	0,1	-0,243480
5,777500	0,1	-0,201531
5,779167	0,1	-0,212671
5,780833	0,1	-0,208806
5,782500	0,1	-0,218181
5,784167	0,1	-0,218539
5,785833	0,1	-0,228043
5,787500	0,1	-0,195856
5,789167	0,1	-0,247147
5,790833	0,1	-0,244999
5,792500	0,1	-0,243678
5,794167	0,1	-0,264299
5,795833	0,1	-0,212974
5,797500	0,1	-0,209160
5,799167	0,1	-0,170748
5,800833	0,1	-0,224746
5,802500	0,1	-0,186606
5,804167	0,1	-0,202452
5,805833	0,1	-0,210832
5,807500	0,1	-0,194563
5,809167	0,1	-0,231776
5,810833	0,1	-0,239195
5,812500	0,1	-0,173975
5,814167	0,1	-0,248301
5,815833	0,1	-0,226151
5,817500	0,1	-0,240934
5,819167	0,1	-0,200179
5,820833	0,1	-0,220500
5,822500	0,1	-0,262585
5,824167	0,1	-0,201762
5,825833	0,1	-0,237062
5,827500	0,1	-0,229273
5,829167	0,1	-0,220893
5,830833	0,1	-0,210321
5,832500	0,1	-0,225756
5,834167	0,1	-0,214705
5,835833	0,1	-0,217571
5,837500	0,1	-0,237808
5,839167	0,1	-0,239874
5,840833	0,1	-0,228242
5,842500	0,1	-0,240517
5,844167	0,1	-0,228662
5,845833	0,1	-0,229915
5,847500	0,1	-0,212807
5,849167	0,1	-0,238224
5,850833	0,1	-0,218223
5,852500	0,1	-0,216541
5,854167	0,1	-0,238933
5,855833	0,1	-0,249637
5,857500	0,1	-0,228631
5,859167	0,1	-0,236424
5,860833	0,1	-0,236717
5,862500	0,1	-0,217802
5,864167	0,1	-0,280789
5,865833	0,1	-0,215074
5,867500	0,1	-0,245764
5,869167	0,1	-0,265331
5,870833	0,1	-0,267075
5,872500	0,1	-0,221386
5,874167	0,1	-0,220409
5,875833	0,1	-0,275442
5,877500	0,1	-0,222515
5,879167	0,1	-0,254241
5,880833	0,1	-0,198634
5,882500	0,1	-0,208512
5,884167	0,1	-0,270894
5,885833	0,1	-0,223352
5,887500	0,1	-0,211387
5,889167	0,1	-0,243701
5,890833	0,1	-0,228758
5,892500	0,1	-0,238326
5,894167	0,1	-0,250766
5,895833	0,1	-0,239363
5,897500	0,1	-0,246964
5,899167	0,1	-0,243486
5,900833	0,1	-0,248640
5,902500	0,1	-0,229662
5,904167	0,1	-0,260816
5,905833	0,1	-0,249900
5,907500	0,1	-0,218355
5,909167	0,1	-0,290713
5,910833	0,1	-0,261088
5,912500	0,1	-0,230955
5,914167	0,1	-0,222797
5,915833	0,1	-0,258977
5,917500	0,1	-0,274128
5,919167	0,1	-0,258185
5,920833	0,1	-0,257859
5,922500	0,1	-0,274613
5,924167	0,1	-0,256896
5,925833	0,1	-0,270583
5,927500	0,1	-0,251482
5,929167	0,1	-0,252702
5,930833	0,1	-0,254860
5,932500	0,1	-0,263817
5,934167	0,1	-0,251158
5,935833	0,1	-0,286081
5,937500	0,1	-0,252870
5,939167	0,1	-0,265461
5,940833	0,1	-0,312633
5,942500	0,1	-0,300498
5,944167	0,1	-0,256065
5,945833	0,1	-0,284729
5,947500	0,1	-0,317728
5,949167	0,1	-0,232256
5,950833	0,1	-0,261943
5,952500	0,1	-0,281573
5,954167	0,1	-0,259055
5,955833	0,1	-0,231147
5,957500	0,1	-0,279277
5,959167	0,1	-0,252258
5,960833	0,1	-0,231145
5,962500	0,1	-0,278954
5,964167	0,1	-0,266692
5,965833	0,1	-0,275904
5,967500	0,1	-0,280867
5,969167	0,1	-0,286024
5,970833	0,1	-0,299588
5,972500	0,1	-0,248847
5,974167	0,1	-0,299192
5,975833	0,1	-0,266985
5,977500	0,1	-0,362180
5,979167	0,1	-0,254468
5,980833	0,1	-0,296744
5,982500	0,1	-0,269627
5,984167	0,1	-0,269878
5,985833	0,1	-0,259439
5,987500	0,1	-0,304961
5,989167	0,1	-0,280746
5,990833	0,1	-0,269880
5,992500	0,1	-0,289371
5,994167	0,1	-0,323913
5,995833	0,1	-0,272567
5,997500	0,1	-0,292174
5,999167	0,1	-0,313476
6,000833	0,1	-0,258096
