File Path	chrom://chromeleon01/ikbm_chromeleon/2022/Rezex/Esteban/220612_chitin_4_7.seq/694.smp/UV_VIS_1.channel/UV_VIS_1.chm
Channel	UV_VIS_1

Injection Information:
Data Vault	ikbm_chromeleon
Injection	Sc10D_24h-ChiBS_1
Injection Number	19
Position	RB8
Comment	
Processing Method	New ProcMethod
Instrument Method	Short_Rezex_6min_194nm
Type	Unknown
Status	Finished
Injection Date	12.06.2022
Injection Time	19:10:44
Injection Volume (µl)	8,000
Dilution Factor	1,0000
Weight	1,0000

Chromatogram Data Information:
Time Min. (min)	0,000833
Time Max. (min)	6,000833
Data Points	3601
Detector	UV
Generating Data System	Chromeleon 7.2.9.11323
Exporting Data System	Chromeleon 7.2.9.0
Operator	Instrument Controller
Signal Quantity	Absorbance
Signal Unit	mAU
Signal Min.	-0,064764
Signal Max.	871,383236
Channel	UV_VIS_1
Driver Name	VWD3000.dll
Channel Type	Evaluation
Min. Step (s)	0,1
Max. Step (s)	0,1
Average Step (s)	0,1

Signal Parameter Information:
Signal Info	WVL:194 nm

Chromatogram Data:
Time (min)	Step (s)	Value (mAU)
0,000833	n.a.	-0,002414
0,002500	0,1	-0,004287
0,004167	0,1	-0,027590
0,005833	0,1	-0,011435
0,007500	0,1	0,002968
0,009167	0,1	0,002564
0,010833	0,1	0,005548
0,012500	0,1	-0,015232
0,014167	0,1	-0,031044
0,015833	0,1	-0,041237
0,017500	0,1	0,003664
0,019167	0,1	-0,062536
0,020833	0,1	-0,017123
0,022500	0,1	0,001561
0,024167	0,1	-0,026708
0,025833	0,1	0,035167
0,027500	0,1	-0,039930
0,029167	0,1	-0,030056
0,030833	0,1	-0,018344
0,032500	0,1	-0,064764
0,034167	0,1	-0,057459
0,035833	0,1	-0,017769
0,037500	0,1	-0,056689
0,039167	0,1	-0,023267
0,040833	0,1	-0,037721
0,042500	0,1	-0,023965
0,044167	0,1	-0,028532
0,045833	0,1	-0,051828
0,047500	0,1	-0,030585
0,049167	0,1	-0,007808
0,050833	0,1	0,021881
0,052500	0,1	-0,028753
0,054167	0,1	-0,010090
0,055833	0,1	0,012279
0,057500	0,1	-0,008437
0,059167	0,1	-0,038358
0,060833	0,1	0,045470
0,062500	0,1	0,012879
0,064167	0,1	-0,002641
0,065833	0,1	0,005724
0,067500	0,1	0,003331
0,069167	0,1	0,023581
0,070833	0,1	0,019253
0,072500	0,1	0,009125
0,074167	0,1	-0,001943
0,075833	0,1	-0,021497
0,077500	0,1	0,023166
0,079167	0,1	0,000755
0,080833	0,1	0,012991
0,082500	0,1	-0,058614
0,084167	0,1	-0,032224
0,085833	0,1	-0,014833
0,087500	0,1	0,007712
0,089167	0,1	0,008769
0,090833	0,1	0,001571
0,092500	0,1	0,034187
0,094167	0,1	-0,019268
0,095833	0,1	0,011343
0,097500	0,1	-0,006565
0,099167	0,1	-0,000069
0,100833	0,1	0,032714
0,102500	0,1	-0,002754
0,104167	0,1	0,031190
0,105833	0,1	0,006380
0,107500	0,1	-0,004638
0,109167	0,1	-0,034614
0,110833	0,1	-0,004880
0,112500	0,1	0,004849
0,114167	0,1	-0,036077
0,115833	0,1	-0,034387
0,117500	0,1	-0,017873
0,119167	0,1	-0,007864
0,120833	0,1	-0,032039
0,122500	0,1	-0,007513
0,124167	0,1	-0,019449
0,125833	0,1	0,019357
0,127500	0,1	-0,020617
0,129167	0,1	-0,007098
0,130833	0,1	-0,010555
0,132500	0,1	-0,014592
0,134167	0,1	-0,018226
0,135833	0,1	-0,033914
0,137500	0,1	-0,026245
0,139167	0,1	0,035639
0,140833	0,1	0,049765
0,142500	0,1	0,000943
0,144167	0,1	-0,011193
0,145833	0,1	-0,007390
0,147500	0,1	-0,021263
0,149167	0,1	-0,013189
0,150833	0,1	-0,008968
0,152500	0,1	0,044248
0,154167	0,1	0,000173
0,155833	0,1	-0,011251
0,157500	0,1	0,022526
0,159167	0,1	0,022532
0,160833	0,1	0,031320
0,162500	0,1	-0,000704
0,164167	0,1	0,006839
0,165833	0,1	0,022649
0,167500	0,1	0,019485
0,169167	0,1	0,013517
0,170833	0,1	-0,031504
0,172500	0,1	0,019367
0,174167	0,1	0,008364
0,175833	0,1	-0,015173
0,177500	0,1	0,011458
0,179167	0,1	0,014507
0,180833	0,1	-0,005920
0,182500	0,1	0,039686
0,184167	0,1	-0,017098
0,185833	0,1	0,008242
0,187500	0,1	0,034300
0,189167	0,1	0,063523
0,190833	0,1	0,007731
0,192500	0,1	-0,011953
0,194167	0,1	0,021297
0,195833	0,1	0,002923
0,197500	0,1	0,023285
0,199167	0,1	0,034543
0,200833	0,1	0,042156
0,202500	0,1	0,025468
0,204167	0,1	0,031728
0,205833	0,1	0,065573
0,207500	0,1	0,038876
0,209167	0,1	0,012994
0,210833	0,1	0,008481
0,212500	0,1	0,005490
0,214167	0,1	0,013163
0,215833	0,1	-0,013062
0,217500	0,1	0,003031
0,219167	0,1	0,046359
0,220833	0,1	0,020141
0,222500	0,1	0,024346
0,224167	0,1	0,052918
0,225833	0,1	0,024711
0,227500	0,1	0,007023
0,229167	0,1	0,007603
0,230833	0,1	0,000986
0,232500	0,1	0,032427
0,234167	0,1	0,004567
0,235833	0,1	-0,011074
0,237500	0,1	0,048290
0,239167	0,1	0,018795
0,240833	0,1	0,010296
0,242500	0,1	0,016385
0,244167	0,1	0,045836
0,245833	0,1	0,019313
0,247500	0,1	0,020897
0,249167	0,1	0,021535
0,250833	0,1	0,050281
0,252500	0,1	0,050237
0,254167	0,1	0,031906
0,255833	0,1	0,038054
0,257500	0,1	0,050291
0,259167	0,1	0,068270
0,260833	0,1	0,009373
0,262500	0,1	0,078457
0,264167	0,1	0,050125
0,265833	0,1	0,049763
0,267500	0,1	0,029860
0,269167	0,1	0,059722
0,270833	0,1	0,038058
0,272500	0,1	0,001460
0,274167	0,1	0,014805
0,275833	0,1	0,026160
0,277500	0,1	0,051105
0,279167	0,1	0,036948
0,280833	0,1	0,044089
0,282500	0,1	0,055736
0,284167	0,1	0,007674
0,285833	0,1	0,011586
0,287500	0,1	0,056788
0,289167	0,1	0,040871
0,290833	0,1	0,027455
0,292500	0,1	0,041101
0,294167	0,1	0,086363
0,295833	0,1	0,058967
0,297500	0,1	0,035543
0,299167	0,1	0,048595
0,300833	0,1	0,010192
0,302500	0,1	0,027447
0,304167	0,1	0,040629
0,305833	0,1	0,047243
0,307500	0,1	0,043388
0,309167	0,1	0,062355
0,310833	0,1	0,048483
0,312500	0,1	0,055153
0,314167	0,1	0,112365
0,315833	0,1	0,043927
0,317500	0,1	0,049473
0,319167	0,1	0,041047
0,320833	0,1	0,065804
0,322500	0,1	0,064810
0,324167	0,1	0,056970
0,325833	0,1	0,060129
0,327500	0,1	0,088538
0,329167	0,1	0,020737
0,330833	0,1	0,046832
0,332500	0,1	0,100189
0,334167	0,1	0,063891
0,335833	0,1	0,034491
0,337500	0,1	0,078691
0,339167	0,1	0,065293
0,340833	0,1	0,054747
0,342500	0,1	0,088292
0,344167	0,1	0,063838
0,345833	0,1	0,047723
0,347500	0,1	0,066574
0,349167	0,1	0,074599
0,350833	0,1	0,106572
0,352500	0,1	0,072326
0,354167	0,1	0,064473
0,355833	0,1	0,063001
0,357500	0,1	0,081278
0,359167	0,1	0,052522
0,360833	0,1	0,007669
0,362500	0,1	0,073234
0,364167	0,1	0,066287
0,365833	0,1	0,026469
0,367500	0,1	0,086531
0,369167	0,1	0,088772
0,370833	0,1	0,083266
0,372500	0,1	0,076655
0,374167	0,1	0,121389
0,375833	0,1	0,089722
0,377500	0,1	0,058968
0,379167	0,1	0,102877
0,380833	0,1	0,066587
0,382500	0,1	0,063417
0,384167	0,1	0,095152
0,385833	0,1	0,122037
0,387500	0,1	0,096980
0,389167	0,1	0,084973
0,390833	0,1	0,076011
0,392500	0,1	0,083041
0,394167	0,1	0,091698
0,395833	0,1	0,071038
0,397500	0,1	0,099659
0,399167	0,1	0,076952
0,400833	0,1	0,100662
0,402500	0,1	0,085148
0,404167	0,1	0,065244
0,405833	0,1	0,091879
0,407500	0,1	0,099545
0,409167	0,1	0,087431
0,410833	0,1	0,109032
0,412500	0,1	0,103013
0,414167	0,1	0,085208
0,415833	0,1	0,076126
0,417500	0,1	0,098376
0,419167	0,1	0,102421
0,420833	0,1	0,080534
0,422500	0,1	0,109209
0,424167	0,1	0,111972
0,425833	0,1	0,098682
0,427500	0,1	0,088250
0,429167	0,1	0,114420
0,430833	0,1	0,079239
0,432500	0,1	0,137144
0,434167	0,1	0,078134
0,435833	0,1	0,086600
0,437500	0,1	0,095693
0,439167	0,1	0,061842
0,440833	0,1	0,123969
0,442500	0,1	0,092828
0,444167	0,1	0,084268
0,445833	0,1	0,151378
0,447500	0,1	0,093713
0,449167	0,1	0,072386
0,450833	0,1	0,082281
0,452500	0,1	0,109623
0,454167	0,1	0,134873
0,455833	0,1	0,151203
0,457500	0,1	0,060805
0,459167	0,1	0,097620
0,460833	0,1	0,139671
0,462500	0,1	0,122227
0,464167	0,1	0,102844
0,465833	0,1	0,102135
0,467500	0,1	0,107348
0,469167	0,1	0,125734
0,470833	0,1	0,093539
0,472500	0,1	0,089775
0,474167	0,1	0,130991
0,475833	0,1	0,094475
0,477500	0,1	0,073205
0,479167	0,1	0,105993
0,480833	0,1	0,103186
0,482500	0,1	0,101659
0,484167	0,1	0,143836
0,485833	0,1	0,123392
0,487500	0,1	0,137147
0,489167	0,1	0,138804
0,490833	0,1	0,118249
0,492500	0,1	0,111266
0,494167	0,1	0,138684
0,495833	0,1	0,126915
0,497500	0,1	0,132539
0,499167	0,1	0,122583
0,500833	0,1	0,118942
0,502500	0,1	0,112446
0,504167	0,1	0,116489
0,505833	0,1	0,152329
0,507500	0,1	0,105487
0,509167	0,1	0,136451
0,510833	0,1	0,103961
0,512500	0,1	0,147982
0,514167	0,1	0,104548
0,515833	0,1	0,130295
0,517500	0,1	0,121409
0,519167	0,1	0,140440
0,520833	0,1	0,160297
0,522500	0,1	0,139387
0,524167	0,1	0,148461
0,525833	0,1	0,103960
0,527500	0,1	0,155368
0,529167	0,1	0,118313
0,530833	0,1	0,113214
0,532500	0,1	0,111448
0,534167	0,1	0,188280
0,535833	0,1	0,109474
0,537500	0,1	0,131000
0,539167	0,1	0,170432
0,540833	0,1	0,108121
0,542500	0,1	0,132706
0,544167	0,1	0,125752
0,545833	0,1	0,180965
0,547500	0,1	0,140044
0,549167	0,1	0,132947
0,550833	0,1	0,142788
0,552500	0,1	0,139216
0,554167	0,1	0,166807
0,555833	0,1	0,136533
0,557500	0,1	0,152573
0,559167	0,1	0,185427
0,560833	0,1	0,150059
0,562500	0,1	0,123350
0,564167	0,1	0,137167
0,565833	0,1	0,152386
0,567500	0,1	0,146838
0,569167	0,1	0,176759
0,570833	0,1	0,160485
0,572500	0,1	0,173666
0,574167	0,1	0,150350
0,575833	0,1	0,156779
0,577500	0,1	0,178580
0,579167	0,1	0,183614
0,580833	0,1	0,147251
0,582500	0,1	0,170436
0,584167	0,1	0,138280
0,585833	0,1	0,127094
0,587500	0,1	0,164804
0,589167	0,1	0,192407
0,590833	0,1	0,157787
0,592500	0,1	0,191236
0,594167	0,1	0,165877
0,595833	0,1	0,191634
0,597500	0,1	0,190531
0,599167	0,1	0,168519
0,600833	0,1	0,154859
0,602500	0,1	0,186186
0,604167	0,1	0,174371
0,605833	0,1	0,197450
0,607500	0,1	0,205766
0,609167	0,1	0,172389
0,610833	0,1	0,179753
0,612500	0,1	0,153053
0,614167	0,1	0,196150
0,615833	0,1	0,188203
0,617500	0,1	0,202293
0,619167	0,1	0,201961
0,620833	0,1	0,211566
0,622500	0,1	0,190425
0,624167	0,1	0,171216
0,625833	0,1	0,221575
0,627500	0,1	0,176783
0,629167	0,1	0,209153
0,630833	0,1	0,173028
0,632500	0,1	0,152236
0,634167	0,1	0,244761
0,635833	0,1	0,200988
0,637500	0,1	0,160205
0,639167	0,1	0,158437
0,640833	0,1	0,195567
0,642500	0,1	0,208229
0,644167	0,1	0,176435
0,645833	0,1	0,216361
0,647500	0,1	0,224928
0,649167	0,1	0,197162
0,650833	0,1	0,220532
0,652500	0,1	0,205022
0,654167	0,1	0,201257
0,655833	0,1	0,174021
0,657500	0,1	0,181746
0,659167	0,1	0,238030
0,660833	0,1	0,215792
0,662500	0,1	0,215779
0,664167	0,1	0,226750
0,665833	0,1	0,190474
0,667500	0,1	0,233719
0,669167	0,1	0,243559
0,670833	0,1	0,237822
0,672500	0,1	0,214279
0,674167	0,1	0,228510
0,675833	0,1	0,244443
0,677500	0,1	0,248890
0,679167	0,1	0,250824
0,680833	0,1	0,224285
0,682500	0,1	0,264762
0,684167	0,1	0,201631
0,685833	0,1	0,258082
0,687500	0,1	0,261024
0,689167	0,1	0,248954
0,690833	0,1	0,279884
0,692500	0,1	0,241757
0,694167	0,1	0,268573
0,695833	0,1	0,276304
0,697500	0,1	0,230458
0,699167	0,1	0,263535
0,700833	0,1	0,261843
0,702500	0,1	0,292785
0,704167	0,1	0,257399
0,705833	0,1	0,220720
0,707500	0,1	0,299090
0,709167	0,1	0,288403
0,710833	0,1	0,265362
0,712500	0,1	0,290893
0,714167	0,1	0,268655
0,715833	0,1	0,244392
0,717500	0,1	0,274263
0,719167	0,1	0,264766
0,720833	0,1	0,281305
0,722500	0,1	0,258753
0,724167	0,1	0,281054
0,725833	0,1	0,314923
0,727500	0,1	0,314126
0,729167	0,1	0,281369
0,730833	0,1	0,289035
0,732500	0,1	0,278733
0,734167	0,1	0,306424
0,735833	0,1	0,306844
0,737500	0,1	0,298889
0,739167	0,1	0,308252
0,740833	0,1	0,358940
0,742500	0,1	0,323796
0,744167	0,1	0,357364
0,745833	0,1	0,330008
0,747500	0,1	0,314242
0,749167	0,1	0,351037
0,750833	0,1	0,385318
0,752500	0,1	0,312028
0,754167	0,1	0,344652
0,755833	0,1	0,372546
0,757500	0,1	0,381054
0,759167	0,1	0,361245
0,760833	0,1	0,353637
0,762500	0,1	0,391886
0,764167	0,1	0,354097
0,765833	0,1	0,357442
0,767500	0,1	0,393018
0,769167	0,1	0,392992
0,770833	0,1	0,397916
0,772500	0,1	0,371988
0,774167	0,1	0,340215
0,775833	0,1	0,385268
0,777500	0,1	0,414506
0,779167	0,1	0,391793
0,780833	0,1	0,336595
0,782500	0,1	0,368251
0,784167	0,1	0,386199
0,785833	0,1	0,360430
0,787500	0,1	0,416968
0,789167	0,1	0,385857
0,790833	0,1	0,394473
0,792500	0,1	0,371694
0,794167	0,1	0,378769
0,795833	0,1	0,397572
0,797500	0,1	0,391545
0,799167	0,1	0,384976
0,800833	0,1	0,391603
0,802500	0,1	0,392017
0,804167	0,1	0,392297
0,805833	0,1	0,384052
0,807500	0,1	0,394826
0,809167	0,1	0,398306
0,810833	0,1	0,371573
0,812500	0,1	0,436055
0,814167	0,1	0,399752
0,815833	0,1	0,404317
0,817500	0,1	0,402323
0,819167	0,1	0,379664
0,820833	0,1	0,380120
0,822500	0,1	0,419479
0,824167	0,1	0,413053
0,825833	0,1	0,410767
0,827500	0,1	0,419913
0,829167	0,1	0,393667
0,830833	0,1	0,408062
0,832500	0,1	0,430674
0,834167	0,1	0,382600
0,835833	0,1	0,430038
0,837500	0,1	0,389498
0,839167	0,1	0,406199
0,840833	0,1	0,396705
0,842500	0,1	0,377546
0,844167	0,1	0,401794
0,845833	0,1	0,396302
0,847500	0,1	0,397054
0,849167	0,1	0,397651
0,850833	0,1	0,405434
0,852500	0,1	0,402030
0,854167	0,1	0,417405
0,855833	0,1	0,413930
0,857500	0,1	0,437503
0,859167	0,1	0,427534
0,860833	0,1	0,436034
0,862500	0,1	0,396540
0,864167	0,1	0,429408
0,865833	0,1	0,459060
0,867500	0,1	0,452388
0,869167	0,1	0,403710
0,870833	0,1	0,435762
0,872500	0,1	0,476931
0,874167	0,1	0,441276
0,875833	0,1	0,447703
0,877500	0,1	0,461934
0,879167	0,1	0,428306
0,880833	0,1	0,429065
0,882500	0,1	0,458706
0,884167	0,1	0,434825
0,885833	0,1	0,452932
0,887500	0,1	0,456732
0,889167	0,1	0,440371
0,890833	0,1	0,476239
0,892500	0,1	0,449367
0,894167	0,1	0,496367
0,895833	0,1	0,457448
0,897500	0,1	0,510815
0,899167	0,1	0,478728
0,900833	0,1	0,489343
0,902500	0,1	0,493720
0,904167	0,1	0,497667
0,905833	0,1	0,481243
0,907500	0,1	0,476481
0,909167	0,1	0,487530
0,910833	0,1	0,513186
0,912500	0,1	0,502095
0,914167	0,1	0,507618
0,915833	0,1	0,506959
0,917500	0,1	0,538509
0,919167	0,1	0,492275
0,920833	0,1	0,533115
0,922500	0,1	0,528734
0,924167	0,1	0,517403
0,925833	0,1	0,514776
0,927500	0,1	0,524693
0,929167	0,1	0,531127
0,930833	0,1	0,494253
0,932500	0,1	0,504989
0,934167	0,1	0,571274
0,935833	0,1	0,536652
0,937500	0,1	0,535169
0,939167	0,1	0,547251
0,940833	0,1	0,544797
0,942500	0,1	0,576548
0,944167	0,1	0,580779
0,945833	0,1	0,554587
0,947500	0,1	0,555656
0,949167	0,1	0,553599
0,950833	0,1	0,544110
0,952500	0,1	0,614280
0,954167	0,1	0,556544
0,955833	0,1	0,624583
0,957500	0,1	0,598617
0,959167	0,1	0,575702
0,960833	0,1	0,611982
0,962500	0,1	0,603915
0,964167	0,1	0,593258
0,965833	0,1	0,602250
0,967500	0,1	0,643715
0,969167	0,1	0,625771
0,970833	0,1	0,647236
0,972500	0,1	0,609330
0,974167	0,1	0,641137
0,975833	0,1	0,660698
0,977500	0,1	0,653864
0,979167	0,1	0,673585
0,980833	0,1	0,663708
0,982500	0,1	0,637111
0,984167	0,1	0,645014
0,985833	0,1	0,692642
0,987500	0,1	0,703205
0,989167	0,1	0,757689
0,990833	0,1	0,703053
0,992500	0,1	0,702104
0,994167	0,1	0,736233
0,995833	0,1	0,789644
0,997500	0,1	0,725203
0,999167	0,1	0,753991
1,000833	0,1	0,768357
1,002500	0,1	0,730839
1,004167	0,1	0,827792
1,005833	0,1	0,807400
1,007500	0,1	0,807019
1,009167	0,1	0,849527
1,010833	0,1	0,805676
1,012500	0,1	0,879583
1,014167	0,1	0,861909
1,015833	0,1	0,878038
1,017500	0,1	0,908389
1,019167	0,1	0,910837
1,020833	0,1	0,906965
1,022500	0,1	0,924264
1,024167	0,1	0,896439
1,025833	0,1	0,938650
1,027500	0,1	0,943152
1,029167	0,1	0,965062
1,030833	0,1	0,967585
1,032500	0,1	0,975142
1,034167	0,1	1,016965
1,035833	0,1	1,005418
1,037500	0,1	1,020108
1,039167	0,1	1,000773
1,040833	0,1	1,006286
1,042500	0,1	1,026528
1,044167	0,1	1,032343
1,045833	0,1	1,030179
1,047500	0,1	1,045546
1,049167	0,1	1,068438
1,050833	0,1	1,102435
1,052500	0,1	1,141511
1,054167	0,1	1,122500
1,055833	0,1	1,203349
1,057500	0,1	1,225004
1,059167	0,1	1,305297
1,060833	0,1	1,411361
1,062500	0,1	1,513789
1,064167	0,1	1,699075
1,065833	0,1	1,913253
1,067500	0,1	2,142924
1,069167	0,1	2,493136
1,070833	0,1	2,875420
1,072500	0,1	3,368310
1,074167	0,1	3,974185
1,075833	0,1	4,662644
1,077500	0,1	5,502632
1,079167	0,1	6,413392
1,080833	0,1	7,544067
1,082500	0,1	8,732653
1,084167	0,1	10,054918
1,085833	0,1	11,489044
1,087500	0,1	13,078647
1,089167	0,1	14,710519
1,090833	0,1	16,439830
1,092500	0,1	18,148939
1,094167	0,1	19,999913
1,095833	0,1	21,794318
1,097500	0,1	23,537619
1,099167	0,1	25,222773
1,100833	0,1	26,810738
1,102500	0,1	28,327166
1,104167	0,1	29,642003
1,105833	0,1	30,889211
1,107500	0,1	31,946575
1,109167	0,1	32,841005
1,110833	0,1	33,561882
1,112500	0,1	34,070951
1,114167	0,1	34,476192
1,115833	0,1	34,695365
1,117500	0,1	34,785418
1,119167	0,1	34,720494
1,120833	0,1	34,535762
1,122500	0,1	34,178067
1,124167	0,1	33,792696
1,125833	0,1	33,314351
1,127500	0,1	32,697715
1,129167	0,1	32,141804
1,130833	0,1	31,492905
1,132500	0,1	30,746961
1,134167	0,1	30,026089
1,135833	0,1	29,299545
1,137500	0,1	28,583022
1,139167	0,1	27,879806
1,140833	0,1	27,166399
1,142500	0,1	26,511939
1,144167	0,1	25,843326
1,145833	0,1	25,267679
1,147500	0,1	24,716699
1,149167	0,1	24,218487
1,150833	0,1	23,755900
1,152500	0,1	23,313987
1,154167	0,1	22,986284
1,155833	0,1	22,684673
1,157500	0,1	22,420036
1,159167	0,1	22,184714
1,160833	0,1	22,030308
1,162500	0,1	21,859186
1,164167	0,1	21,738967
1,165833	0,1	21,628531
1,167500	0,1	21,550777
1,169167	0,1	21,490321
1,170833	0,1	21,452988
1,172500	0,1	21,366947
1,174167	0,1	21,380871
1,175833	0,1	21,337215
1,177500	0,1	21,260146
1,179167	0,1	21,239837
1,180833	0,1	21,235255
1,182500	0,1	21,236918
1,184167	0,1	21,193008
1,185833	0,1	21,251631
1,187500	0,1	21,266369
1,189167	0,1	21,340933
1,190833	0,1	21,436399
1,192500	0,1	21,650908
1,194167	0,1	21,904115
1,195833	0,1	22,281526
1,197500	0,1	22,764420
1,199167	0,1	23,435441
1,200833	0,1	24,282711
1,202500	0,1	25,247303
1,204167	0,1	26,516264
1,205833	0,1	27,973839
1,207500	0,1	29,767040
1,209167	0,1	31,780793
1,210833	0,1	34,032955
1,212500	0,1	36,644057
1,214167	0,1	39,535954
1,215833	0,1	42,732247
1,217500	0,1	46,234139
1,219167	0,1	49,897855
1,220833	0,1	53,869344
1,222500	0,1	57,990896
1,224167	0,1	62,324428
1,225833	0,1	66,700537
1,227500	0,1	71,231598
1,229167	0,1	75,732361
1,230833	0,1	80,268930
1,232500	0,1	84,716113
1,234167	0,1	89,044053
1,235833	0,1	93,227008
1,237500	0,1	97,318852
1,239167	0,1	101,131265
1,240833	0,1	104,638527
1,242500	0,1	107,980753
1,244167	0,1	111,004708
1,245833	0,1	113,727247
1,247500	0,1	116,142246
1,249167	0,1	118,217806
1,250833	0,1	119,987639
1,252500	0,1	121,544706
1,254167	0,1	122,650124
1,255833	0,1	123,483228
1,257500	0,1	124,012699
1,259167	0,1	124,210813
1,260833	0,1	124,120057
1,262500	0,1	123,775207
1,264167	0,1	123,126259
1,265833	0,1	122,283833
1,267500	0,1	121,127283
1,269167	0,1	119,775022
1,270833	0,1	118,232735
1,272500	0,1	116,456009
1,274167	0,1	114,518061
1,275833	0,1	112,442843
1,277500	0,1	110,187258
1,279167	0,1	107,882728
1,280833	0,1	105,432984
1,282500	0,1	102,874208
1,284167	0,1	100,284052
1,285833	0,1	97,672808
1,287500	0,1	94,964745
1,289167	0,1	92,342380
1,290833	0,1	89,687152
1,292500	0,1	87,020279
1,294167	0,1	84,337788
1,295833	0,1	81,755955
1,297500	0,1	79,220640
1,299167	0,1	76,693364
1,300833	0,1	74,280828
1,302500	0,1	71,885040
1,304167	0,1	69,624462
1,305833	0,1	67,395053
1,307500	0,1	65,246000
1,309167	0,1	63,226907
1,310833	0,1	61,269998
1,312500	0,1	59,371285
1,314167	0,1	57,578019
1,315833	0,1	55,798298
1,317500	0,1	54,195863
1,319167	0,1	52,556261
1,320833	0,1	51,065965
1,322500	0,1	49,640966
1,324167	0,1	48,208461
1,325833	0,1	46,885364
1,327500	0,1	45,625321
1,329167	0,1	44,359000
1,330833	0,1	43,195638
1,332500	0,1	42,110600
1,334167	0,1	40,999782
1,335833	0,1	39,968724
1,337500	0,1	38,966276
1,339167	0,1	38,035397
1,340833	0,1	37,055383
1,342500	0,1	36,198188
1,344167	0,1	35,361356
1,345833	0,1	34,478459
1,347500	0,1	33,658382
1,349167	0,1	32,882791
1,350833	0,1	32,130790
1,352500	0,1	31,406476
1,354167	0,1	30,692908
1,355833	0,1	29,958397
1,357500	0,1	29,275470
1,359167	0,1	28,661174
1,360833	0,1	27,998209
1,362500	0,1	27,330000
1,364167	0,1	26,747831
1,365833	0,1	26,165249
1,367500	0,1	25,581460
1,369167	0,1	25,018470
1,370833	0,1	24,417113
1,372500	0,1	23,948829
1,374167	0,1	23,393676
1,375833	0,1	22,852901
1,377500	0,1	22,417463
1,379167	0,1	21,909241
1,380833	0,1	21,459329
1,382500	0,1	21,022106
1,384167	0,1	20,557140
1,385833	0,1	20,138353
1,387500	0,1	19,790187
1,389167	0,1	19,351175
1,390833	0,1	18,992453
1,392500	0,1	18,561752
1,394167	0,1	18,282162
1,395833	0,1	17,923987
1,397500	0,1	17,543805
1,399167	0,1	17,267258
1,400833	0,1	16,986870
1,402500	0,1	16,676824
1,404167	0,1	16,390812
1,405833	0,1	16,135198
1,407500	0,1	15,916218
1,409167	0,1	15,653960
1,410833	0,1	15,385293
1,412500	0,1	15,200220
1,414167	0,1	14,959817
1,415833	0,1	14,730487
1,417500	0,1	14,542877
1,419167	0,1	14,366949
1,420833	0,1	14,153591
1,422500	0,1	13,959197
1,424167	0,1	13,826941
1,425833	0,1	13,603111
1,427500	0,1	13,432966
1,429167	0,1	13,306797
1,430833	0,1	13,100205
1,432500	0,1	12,965160
1,434167	0,1	12,759983
1,435833	0,1	12,631947
1,437500	0,1	12,508302
1,439167	0,1	12,342963
1,440833	0,1	12,219855
1,442500	0,1	12,058157
1,444167	0,1	11,898081
1,445833	0,1	11,714327
1,447500	0,1	11,620354
1,449167	0,1	11,464956
1,450833	0,1	11,338355
1,452500	0,1	11,177157
1,454167	0,1	11,046574
1,455833	0,1	10,920164
1,457500	0,1	10,758294
1,459167	0,1	10,656535
1,460833	0,1	10,462374
1,462500	0,1	10,364267
1,464167	0,1	10,252056
1,465833	0,1	10,153852
1,467500	0,1	10,002217
1,469167	0,1	9,909127
1,470833	0,1	9,737916
1,472500	0,1	9,640620
1,474167	0,1	9,531855
1,475833	0,1	9,440481
1,477500	0,1	9,266880
1,479167	0,1	9,190880
1,480833	0,1	9,094153
1,482500	0,1	8,988695
1,484167	0,1	8,914438
1,485833	0,1	8,789596
1,487500	0,1	8,709101
1,489167	0,1	8,637214
1,490833	0,1	8,556759
1,492500	0,1	8,450731
1,494167	0,1	8,402220
1,495833	0,1	8,306436
1,497500	0,1	8,256138
1,499167	0,1	8,216551
1,500833	0,1	8,116515
1,502500	0,1	8,084441
1,504167	0,1	8,003543
1,505833	0,1	7,947482
1,507500	0,1	7,906983
1,509167	0,1	7,853573
1,510833	0,1	7,823394
1,512500	0,1	7,772523
1,514167	0,1	7,744127
1,515833	0,1	7,675752
1,517500	0,1	7,644555
1,519167	0,1	7,586120
1,520833	0,1	7,603143
1,522500	0,1	7,551660
1,524167	0,1	7,551089
1,525833	0,1	7,514667
1,527500	0,1	7,456704
1,529167	0,1	7,447523
1,530833	0,1	7,385755
1,532500	0,1	7,447987
1,534167	0,1	7,380429
1,535833	0,1	7,360761
1,537500	0,1	7,369262
1,539167	0,1	7,320711
1,540833	0,1	7,305064
1,542500	0,1	7,287948
1,544167	0,1	7,249846
1,545833	0,1	7,270055
1,547500	0,1	7,227584
1,549167	0,1	7,229905
1,550833	0,1	7,231784
1,552500	0,1	7,218505
1,554167	0,1	7,202040
1,555833	0,1	7,203056
1,557500	0,1	7,179112
1,559167	0,1	7,166574
1,560833	0,1	7,107992
1,562500	0,1	7,139356
1,564167	0,1	7,132610
1,565833	0,1	7,124850
1,567500	0,1	7,099308
1,569167	0,1	7,100611
1,570833	0,1	7,077608
1,572500	0,1	7,080029
1,574167	0,1	7,065548
1,575833	0,1	7,076681
1,577500	0,1	7,031962
1,579167	0,1	7,056463
1,580833	0,1	7,051422
1,582500	0,1	7,032237
1,584167	0,1	7,002778
1,585833	0,1	6,972867
1,587500	0,1	6,950982
1,589167	0,1	6,905042
1,590833	0,1	6,906173
1,592500	0,1	6,932349
1,594167	0,1	6,881289
1,595833	0,1	6,847278
1,597500	0,1	6,880190
1,599167	0,1	6,857911
1,600833	0,1	6,822781
1,602500	0,1	6,826623
1,604167	0,1	6,854679
1,605833	0,1	6,802128
1,607500	0,1	6,837842
1,609167	0,1	6,799507
1,610833	0,1	6,779190
1,612500	0,1	6,836322
1,614167	0,1	6,839236
1,615833	0,1	6,873530
1,617500	0,1	6,889087
1,619167	0,1	6,959289
1,620833	0,1	6,946736
1,622500	0,1	7,029231
1,624167	0,1	7,123326
1,625833	0,1	7,208285
1,627500	0,1	7,335174
1,629167	0,1	7,469866
1,630833	0,1	7,660613
1,632500	0,1	7,809110
1,634167	0,1	8,009657
1,635833	0,1	8,287217
1,637500	0,1	8,599568
1,639167	0,1	8,948431
1,640833	0,1	9,357720
1,642500	0,1	9,780710
1,644167	0,1	10,351939
1,645833	0,1	10,910570
1,647500	0,1	11,557481
1,649167	0,1	12,285458
1,650833	0,1	13,124173
1,652500	0,1	14,013951
1,654167	0,1	15,112909
1,655833	0,1	16,246521
1,657500	0,1	17,510704
1,659167	0,1	18,933979
1,660833	0,1	20,463550
1,662500	0,1	22,171687
1,664167	0,1	23,962832
1,665833	0,1	25,968021
1,667500	0,1	28,206005
1,669167	0,1	30,598052
1,670833	0,1	33,218570
1,672500	0,1	35,971659
1,674167	0,1	38,978691
1,675833	0,1	42,204349
1,677500	0,1	45,645865
1,679167	0,1	49,369787
1,680833	0,1	53,299762
1,682500	0,1	57,447357
1,684167	0,1	61,835593
1,685833	0,1	66,504078
1,687500	0,1	71,432333
1,689167	0,1	76,626210
1,690833	0,1	82,074216
1,692500	0,1	87,757047
1,694167	0,1	93,698805
1,695833	0,1	99,925645
1,697500	0,1	106,351085
1,699167	0,1	113,019250
1,700833	0,1	119,941481
1,702500	0,1	127,041177
1,704167	0,1	134,384815
1,705833	0,1	141,893361
1,707500	0,1	149,620835
1,709167	0,1	157,547933
1,710833	0,1	165,549494
1,712500	0,1	173,703745
1,714167	0,1	182,057812
1,715833	0,1	190,451694
1,717500	0,1	198,939550
1,719167	0,1	207,501258
1,720833	0,1	216,154652
1,722500	0,1	224,806737
1,724167	0,1	233,441203
1,725833	0,1	242,065897
1,727500	0,1	250,639536
1,729167	0,1	259,178304
1,730833	0,1	267,683218
1,732500	0,1	276,063151
1,734167	0,1	284,347561
1,735833	0,1	292,434798
1,737500	0,1	300,424912
1,739167	0,1	308,211519
1,740833	0,1	315,784040
1,742500	0,1	323,207662
1,744167	0,1	330,325545
1,745833	0,1	337,288902
1,747500	0,1	343,890807
1,749167	0,1	350,318812
1,750833	0,1	356,393732
1,752500	0,1	362,149335
1,754167	0,1	367,751908
1,755833	0,1	372,847179
1,757500	0,1	377,655447
1,759167	0,1	382,242291
1,760833	0,1	386,483995
1,762500	0,1	390,245914
1,764167	0,1	393,749972
1,765833	0,1	396,777717
1,767500	0,1	399,506614
1,769167	0,1	402,096717
1,770833	0,1	404,099699
1,772500	0,1	405,800343
1,774167	0,1	407,174017
1,775833	0,1	408,136390
1,777500	0,1	408,831201
1,779167	0,1	409,150733
1,780833	0,1	409,183144
1,782500	0,1	408,809243
1,784167	0,1	408,106225
1,785833	0,1	407,109503
1,787500	0,1	405,843436
1,789167	0,1	404,172259
1,790833	0,1	402,290322
1,792500	0,1	400,053698
1,794167	0,1	397,605822
1,795833	0,1	394,877700
1,797500	0,1	391,949184
1,799167	0,1	388,688987
1,800833	0,1	385,232186
1,802500	0,1	381,467355
1,804167	0,1	377,528457
1,805833	0,1	373,515321
1,807500	0,1	369,223614
1,809167	0,1	364,734177
1,810833	0,1	360,078117
1,812500	0,1	355,319078
1,814167	0,1	350,386706
1,815833	0,1	345,317598
1,817500	0,1	340,199766
1,819167	0,1	334,948572
1,820833	0,1	329,536990
1,822500	0,1	324,092652
1,824167	0,1	318,454473
1,825833	0,1	312,898403
1,827500	0,1	307,242773
1,829167	0,1	301,541761
1,830833	0,1	295,801381
1,832500	0,1	290,072543
1,834167	0,1	284,298566
1,835833	0,1	278,513676
1,837500	0,1	272,790969
1,839167	0,1	267,035084
1,840833	0,1	261,307977
1,842500	0,1	255,574516
1,844167	0,1	249,944196
1,845833	0,1	244,406984
1,847500	0,1	238,831442
1,849167	0,1	233,340243
1,850833	0,1	227,838160
1,852500	0,1	222,452128
1,854167	0,1	217,200325
1,855833	0,1	211,925571
1,857500	0,1	206,758193
1,859167	0,1	201,672385
1,860833	0,1	196,611040
1,862500	0,1	191,690800
1,864167	0,1	186,855983
1,865833	0,1	182,048196
1,867500	0,1	177,367581
1,869167	0,1	172,803091
1,870833	0,1	168,274505
1,872500	0,1	163,910805
1,874167	0,1	159,578569
1,875833	0,1	155,299008
1,877500	0,1	151,176913
1,879167	0,1	147,179894
1,880833	0,1	143,190013
1,882500	0,1	139,361111
1,884167	0,1	135,584160
1,885833	0,1	131,961257
1,887500	0,1	128,363935
1,889167	0,1	124,880110
1,890833	0,1	121,463754
1,892500	0,1	118,162324
1,894167	0,1	114,936226
1,895833	0,1	111,783468
1,897500	0,1	108,701172
1,899167	0,1	105,708229
1,900833	0,1	102,864963
1,902500	0,1	100,015229
1,904167	0,1	97,284130
1,905833	0,1	94,599186
1,907500	0,1	92,047272
1,909167	0,1	89,572775
1,910833	0,1	87,109969
1,912500	0,1	84,716986
1,914167	0,1	82,419594
1,915833	0,1	80,178383
1,917500	0,1	77,974742
1,919167	0,1	75,880036
1,920833	0,1	73,823165
1,922500	0,1	71,863777
1,924167	0,1	69,912818
1,925833	0,1	68,050828
1,927500	0,1	66,244224
1,929167	0,1	64,449172
1,930833	0,1	62,755422
1,932500	0,1	61,157759
1,934167	0,1	59,476573
1,935833	0,1	58,003619
1,937500	0,1	56,427041
1,939167	0,1	54,967521
1,940833	0,1	53,550410
1,942500	0,1	52,161585
1,944167	0,1	50,791869
1,945833	0,1	49,564586
1,947500	0,1	48,321463
1,949167	0,1	47,103982
1,950833	0,1	45,912058
1,952500	0,1	44,778115
1,954167	0,1	43,694419
1,955833	0,1	42,632606
1,957500	0,1	41,599611
1,959167	0,1	40,597048
1,960833	0,1	39,657776
1,962500	0,1	38,733760
1,964167	0,1	37,844195
1,965833	0,1	36,958345
1,967500	0,1	36,148251
1,969167	0,1	35,333844
1,970833	0,1	34,527596
1,972500	0,1	33,769733
1,974167	0,1	33,066622
1,975833	0,1	32,366649
1,977500	0,1	31,719186
1,979167	0,1	31,069254
1,980833	0,1	30,419731
1,982500	0,1	29,823552
1,984167	0,1	29,273703
1,985833	0,1	28,731274
1,987500	0,1	28,168368
1,989167	0,1	27,661313
1,990833	0,1	27,201566
1,992500	0,1	26,679118
1,994167	0,1	26,273438
1,995833	0,1	25,827726
1,997500	0,1	25,436311
1,999167	0,1	25,025869
2,000833	0,1	24,664481
2,002500	0,1	24,302756
2,004167	0,1	23,967527
2,005833	0,1	23,641999
2,007500	0,1	23,295316
2,009167	0,1	22,993188
2,010833	0,1	22,713979
2,012500	0,1	22,475720
2,014167	0,1	22,205259
2,015833	0,1	21,934530
2,017500	0,1	21,724303
2,019167	0,1	21,466316
2,020833	0,1	21,252943
2,022500	0,1	21,077342
2,024167	0,1	20,858927
2,025833	0,1	20,702917
2,027500	0,1	20,489433
2,029167	0,1	20,367637
2,030833	0,1	20,187666
2,032500	0,1	20,052895
2,034167	0,1	19,921588
2,035833	0,1	19,788746
2,037500	0,1	19,636435
2,039167	0,1	19,511627
2,040833	0,1	19,382052
2,042500	0,1	19,289859
2,044167	0,1	19,157254
2,045833	0,1	19,096505
2,047500	0,1	19,010148
2,049167	0,1	18,909477
2,050833	0,1	18,865652
2,052500	0,1	18,760947
2,054167	0,1	18,649163
2,055833	0,1	18,569186
2,057500	0,1	18,498671
2,059167	0,1	18,454586
2,060833	0,1	18,330194
2,062500	0,1	18,279192
2,064167	0,1	18,188612
2,065833	0,1	18,181542
2,067500	0,1	18,105181
2,069167	0,1	18,052297
2,070833	0,1	17,975583
2,072500	0,1	17,922838
2,074167	0,1	17,851420
2,075833	0,1	17,776000
2,077500	0,1	17,768197
2,079167	0,1	17,681335
2,080833	0,1	17,616569
2,082500	0,1	17,579099
2,084167	0,1	17,478529
2,085833	0,1	17,451007
2,087500	0,1	17,355854
2,089167	0,1	17,338762
2,090833	0,1	17,261822
2,092500	0,1	17,185940
2,094167	0,1	17,119882
2,095833	0,1	17,138201
2,097500	0,1	17,010019
2,099167	0,1	16,943934
2,100833	0,1	16,910585
2,102500	0,1	16,821390
2,104167	0,1	16,781860
2,105833	0,1	16,729778
2,107500	0,1	16,631660
2,109167	0,1	16,552681
2,110833	0,1	16,526838
2,112500	0,1	16,415923
2,114167	0,1	16,360125
2,115833	0,1	16,236923
2,117500	0,1	16,215506
2,119167	0,1	16,129811
2,120833	0,1	16,100390
2,122500	0,1	15,973154
2,124167	0,1	15,927262
2,125833	0,1	15,863676
2,127500	0,1	15,782029
2,129167	0,1	15,688135
2,130833	0,1	15,597962
2,132500	0,1	15,546272
2,134167	0,1	15,467910
2,135833	0,1	15,415452
2,137500	0,1	15,289993
2,139167	0,1	15,245370
2,140833	0,1	15,135737
2,142500	0,1	15,055694
2,144167	0,1	14,981368
2,145833	0,1	14,925136
2,147500	0,1	14,846063
2,149167	0,1	14,729455
2,150833	0,1	14,671987
2,152500	0,1	14,590626
2,154167	0,1	14,535789
2,155833	0,1	14,463631
2,157500	0,1	14,336898
2,159167	0,1	14,267428
2,160833	0,1	14,207098
2,162500	0,1	14,147837
2,164167	0,1	14,067179
2,165833	0,1	13,965338
2,167500	0,1	13,916999
2,169167	0,1	13,792839
2,170833	0,1	13,708658
2,172500	0,1	13,666856
2,174167	0,1	13,565961
2,175833	0,1	13,496960
2,177500	0,1	13,426854
2,179167	0,1	13,364112
2,180833	0,1	13,228343
2,182500	0,1	13,196239
2,184167	0,1	13,083710
2,185833	0,1	13,018400
2,187500	0,1	12,944299
2,189167	0,1	12,848041
2,190833	0,1	12,842750
2,192500	0,1	12,750904
2,194167	0,1	12,680704
2,195833	0,1	12,597734
2,197500	0,1	12,542763
2,199167	0,1	12,507777
2,200833	0,1	12,400587
2,202500	0,1	12,329022
2,204167	0,1	12,261288
2,205833	0,1	12,213348
2,207500	0,1	12,158910
2,209167	0,1	12,068464
2,210833	0,1	12,013371
2,212500	0,1	11,944358
2,214167	0,1	11,893229
2,215833	0,1	11,826944
2,217500	0,1	11,764639
2,219167	0,1	11,755371
2,220833	0,1	11,686393
2,222500	0,1	11,690114
2,224167	0,1	11,574526
2,225833	0,1	11,558074
2,227500	0,1	11,476229
2,229167	0,1	11,453835
2,230833	0,1	11,388652
2,232500	0,1	11,353818
2,234167	0,1	11,293876
2,235833	0,1	11,227490
2,237500	0,1	11,216239
2,239167	0,1	11,141344
2,240833	0,1	11,085833
2,242500	0,1	11,064514
2,244167	0,1	11,028007
2,245833	0,1	10,967653
2,247500	0,1	10,944769
2,249167	0,1	10,934836
2,250833	0,1	10,829249
2,252500	0,1	10,860304
2,254167	0,1	10,756207
2,255833	0,1	10,738405
2,257500	0,1	10,717309
2,259167	0,1	10,635316
2,260833	0,1	10,638187
2,262500	0,1	10,576581
2,264167	0,1	10,560537
2,265833	0,1	10,515813
2,267500	0,1	10,463318
2,269167	0,1	10,470522
2,270833	0,1	10,414238
2,272500	0,1	10,339070
2,274167	0,1	10,366398
2,275833	0,1	10,277239
2,277500	0,1	10,240501
2,279167	0,1	10,190283
2,280833	0,1	10,158440
2,282500	0,1	10,093625
2,284167	0,1	10,108631
2,285833	0,1	10,041925
2,287500	0,1	10,010586
2,289167	0,1	9,948113
2,290833	0,1	9,959648
2,292500	0,1	9,906207
2,294167	0,1	9,866625
2,295833	0,1	9,843700
2,297500	0,1	9,794741
2,299167	0,1	9,760437
2,300833	0,1	9,748893
2,302500	0,1	9,703199
2,304167	0,1	9,619994
2,305833	0,1	9,619917
2,307500	0,1	9,554429
2,309167	0,1	9,514813
2,310833	0,1	9,524197
2,312500	0,1	9,499945
2,314167	0,1	9,460600
2,315833	0,1	9,403988
2,317500	0,1	9,366436
2,319167	0,1	9,363846
2,320833	0,1	9,306068
2,322500	0,1	9,271283
2,324167	0,1	9,250524
2,325833	0,1	9,258745
2,327500	0,1	9,199029
2,329167	0,1	9,152268
2,330833	0,1	9,140841
2,332500	0,1	9,101334
2,334167	0,1	9,125636
2,335833	0,1	9,052648
2,337500	0,1	9,056436
2,339167	0,1	9,055420
2,340833	0,1	9,046831
2,342500	0,1	9,056930
2,344167	0,1	9,011722
2,345833	0,1	8,976007
2,347500	0,1	9,000265
2,349167	0,1	8,967258
2,350833	0,1	8,954461
2,352500	0,1	8,980017
2,354167	0,1	8,969226
2,355833	0,1	8,971275
2,357500	0,1	8,999368
2,359167	0,1	9,011328
2,360833	0,1	9,032254
2,362500	0,1	9,082514
2,364167	0,1	9,097951
2,365833	0,1	9,120516
2,367500	0,1	9,184680
2,369167	0,1	9,188898
2,370833	0,1	9,279125
2,372500	0,1	9,314321
2,374167	0,1	9,342979
2,375833	0,1	9,444307
2,377500	0,1	9,599349
2,379167	0,1	9,643486
2,380833	0,1	9,686915
2,382500	0,1	9,823450
2,384167	0,1	9,922889
2,385833	0,1	10,034075
2,387500	0,1	10,167563
2,389167	0,1	10,322180
2,390833	0,1	10,511435
2,392500	0,1	10,645353
2,394167	0,1	10,776346
2,395833	0,1	10,979600
2,397500	0,1	11,208306
2,399167	0,1	11,339506
2,400833	0,1	11,574387
2,402500	0,1	11,791006
2,404167	0,1	12,059682
2,405833	0,1	12,250122
2,407500	0,1	12,554611
2,409167	0,1	12,825082
2,410833	0,1	13,064941
2,412500	0,1	13,411114
2,414167	0,1	13,678687
2,415833	0,1	14,000575
2,417500	0,1	14,300327
2,419167	0,1	14,628461
2,420833	0,1	15,021887
2,422500	0,1	15,361733
2,424167	0,1	15,654624
2,425833	0,1	16,123949
2,427500	0,1	16,440575
2,429167	0,1	16,865441
2,430833	0,1	17,254846
2,432500	0,1	17,611978
2,434167	0,1	18,071707
2,435833	0,1	18,516896
2,437500	0,1	18,910165
2,439167	0,1	19,369609
2,440833	0,1	19,832999
2,442500	0,1	20,295517
2,444167	0,1	20,787469
2,445833	0,1	21,261160
2,447500	0,1	21,785934
2,449167	0,1	22,324475
2,450833	0,1	22,871451
2,452500	0,1	23,443353
2,454167	0,1	24,042041
2,455833	0,1	24,706503
2,457500	0,1	25,404123
2,459167	0,1	26,113294
2,460833	0,1	26,945292
2,462500	0,1	27,823545
2,464167	0,1	28,722403
2,465833	0,1	29,698418
2,467500	0,1	30,851608
2,469167	0,1	31,998573
2,470833	0,1	33,305449
2,472500	0,1	34,807102
2,474167	0,1	36,407588
2,475833	0,1	38,173520
2,477500	0,1	40,135964
2,479167	0,1	42,203312
2,480833	0,1	44,597201
2,482500	0,1	47,166643
2,484167	0,1	50,045937
2,485833	0,1	53,200209
2,487500	0,1	56,624001
2,489167	0,1	60,346120
2,490833	0,1	64,498080
2,492500	0,1	68,966939
2,494167	0,1	73,815495
2,495833	0,1	79,151683
2,497500	0,1	84,901648
2,499167	0,1	91,155999
2,500833	0,1	97,854027
2,502500	0,1	105,049314
2,504167	0,1	112,777173
2,505833	0,1	121,095391
2,507500	0,1	129,943793
2,509167	0,1	139,302106
2,510833	0,1	149,357587
2,512500	0,1	159,923202
2,514167	0,1	171,076235
2,515833	0,1	182,849397
2,517500	0,1	195,238833
2,519167	0,1	208,176930
2,520833	0,1	221,782492
2,522500	0,1	235,854823
2,524167	0,1	250,525322
2,525833	0,1	265,678584
2,527500	0,1	281,412520
2,529167	0,1	297,521548
2,530833	0,1	314,112289
2,532500	0,1	331,068049
2,534167	0,1	348,519578
2,535833	0,1	366,137034
2,537500	0,1	384,147109
2,539167	0,1	402,347509
2,540833	0,1	420,684941
2,542500	0,1	439,168657
2,544167	0,1	457,794110
2,545833	0,1	476,359615
2,547500	0,1	494,978528
2,549167	0,1	513,366337
2,550833	0,1	531,713242
2,552500	0,1	549,816202
2,554167	0,1	567,719471
2,555833	0,1	585,423108
2,557500	0,1	602,785413
2,559167	0,1	619,669036
2,560833	0,1	636,187274
2,562500	0,1	652,187154
2,564167	0,1	667,739817
2,565833	0,1	682,853551
2,567500	0,1	697,434210
2,569167	0,1	711,365760
2,570833	0,1	724,761736
2,572500	0,1	737,657264
2,574167	0,1	749,830907
2,575833	0,1	761,338690
2,577500	0,1	772,489254
2,579167	0,1	782,910320
2,580833	0,1	792,668420
2,582500	0,1	801,741565
2,584167	0,1	810,280288
2,585833	0,1	818,197434
2,587500	0,1	825,373546
2,589167	0,1	832,112391
2,590833	0,1	838,384695
2,592500	0,1	843,889245
2,594167	0,1	848,999648
2,595833	0,1	853,371434
2,597500	0,1	857,410576
2,599167	0,1	860,744749
2,600833	0,1	863,818336
2,602500	0,1	866,234658
2,604167	0,1	868,128742
2,605833	0,1	869,569854
2,607500	0,1	870,551813
2,609167	0,1	871,272920
2,610833	0,1	871,383236
2,612500	0,1	871,068033
2,614167	0,1	870,397461
2,615833	0,1	869,430349
2,617500	0,1	867,839494
2,619167	0,1	865,952697
2,620833	0,1	863,923172
2,622500	0,1	861,299837
2,624167	0,1	858,464517
2,625833	0,1	855,139652
2,627500	0,1	851,640694
2,629167	0,1	847,865464
2,630833	0,1	843,565128
2,632500	0,1	839,090589
2,634167	0,1	834,198189
2,635833	0,1	829,327022
2,637500	0,1	823,710487
2,639167	0,1	818,201615
2,640833	0,1	812,278167
2,642500	0,1	805,935291
2,644167	0,1	799,523573
2,645833	0,1	793,045363
2,647500	0,1	785,976362
2,649167	0,1	778,872410
2,650833	0,1	771,428725
2,652500	0,1	763,952848
2,654167	0,1	756,156687
2,655833	0,1	748,252785
2,657500	0,1	740,094780
2,659167	0,1	731,826024
2,660833	0,1	723,398572
2,662500	0,1	714,730878
2,664167	0,1	706,063837
2,665833	0,1	697,190519
2,667500	0,1	688,197186
2,669167	0,1	678,991745
2,670833	0,1	669,797772
2,672500	0,1	660,423949
2,674167	0,1	651,231560
2,675833	0,1	641,724244
2,677500	0,1	632,207412
2,679167	0,1	622,707322
2,680833	0,1	613,131106
2,682500	0,1	603,404510
2,684167	0,1	593,948370
2,685833	0,1	584,244651
2,687500	0,1	574,624610
2,689167	0,1	565,095166
2,690833	0,1	555,459504
2,692500	0,1	545,882258
2,694167	0,1	536,344651
2,695833	0,1	526,866749
2,697500	0,1	517,445751
2,699167	0,1	508,251544
2,700833	0,1	499,005922
2,702500	0,1	489,777853
2,704167	0,1	480,661319
2,705833	0,1	471,624669
2,707500	0,1	462,712906
2,709167	0,1	453,923857
2,710833	0,1	445,176223
2,712500	0,1	436,632929
2,714167	0,1	428,128905
2,715833	0,1	419,727180
2,717500	0,1	411,540262
2,719167	0,1	403,403394
2,720833	0,1	395,508741
2,722500	0,1	387,625449
2,724167	0,1	379,883171
2,725833	0,1	372,352380
2,727500	0,1	364,903829
2,729167	0,1	357,648577
2,730833	0,1	350,471262
2,732500	0,1	343,425396
2,734167	0,1	336,542373
2,735833	0,1	329,761435
2,737500	0,1	323,131770
2,739167	0,1	316,722783
2,740833	0,1	310,367624
2,742500	0,1	304,103042
2,744167	0,1	298,088158
2,745833	0,1	292,124564
2,747500	0,1	286,252828
2,749167	0,1	280,592471
2,750833	0,1	274,982947
2,752500	0,1	269,596417
2,754167	0,1	264,270349
2,755833	0,1	259,105147
2,757500	0,1	253,983298
2,759167	0,1	249,027204
2,760833	0,1	244,144943
2,762500	0,1	239,353463
2,764167	0,1	234,696994
2,765833	0,1	230,129200
2,767500	0,1	225,748281
2,769167	0,1	221,367034
2,770833	0,1	217,083284
2,772500	0,1	212,953700
2,774167	0,1	208,841826
2,775833	0,1	204,916070
2,777500	0,1	200,935763
2,779167	0,1	197,186101
2,780833	0,1	193,406569
2,782500	0,1	189,781761
2,784167	0,1	186,194832
2,785833	0,1	182,620181
2,787500	0,1	179,168235
2,789167	0,1	175,826814
2,790833	0,1	172,533656
2,792500	0,1	169,333086
2,794167	0,1	166,139979
2,795833	0,1	163,063816
2,797500	0,1	159,949748
2,799167	0,1	157,002252
2,800833	0,1	154,067838
2,802500	0,1	151,191510
2,804167	0,1	148,385370
2,805833	0,1	145,633543
2,807500	0,1	142,921109
2,809167	0,1	140,303218
2,810833	0,1	137,630479
2,812500	0,1	135,126538
2,814167	0,1	132,656883
2,815833	0,1	130,256587
2,817500	0,1	127,787422
2,819167	0,1	125,466300
2,820833	0,1	123,143011
2,822500	0,1	120,889849
2,824167	0,1	118,703555
2,825833	0,1	116,511674
2,827500	0,1	114,418673
2,829167	0,1	112,323462
2,830833	0,1	110,285222
2,832500	0,1	108,325649
2,834167	0,1	106,355085
2,835833	0,1	104,471490
2,837500	0,1	102,628384
2,839167	0,1	100,762007
2,840833	0,1	99,019888
2,842500	0,1	97,246940
2,844167	0,1	95,514955
2,845833	0,1	93,881675
2,847500	0,1	92,238710
2,849167	0,1	90,684408
2,850833	0,1	89,107900
2,852500	0,1	87,556083
2,854167	0,1	86,092582
2,855833	0,1	84,626297
2,857500	0,1	83,198469
2,859167	0,1	81,815380
2,860833	0,1	80,504638
2,862500	0,1	79,189611
2,864167	0,1	77,910040
2,865833	0,1	76,626957
2,867500	0,1	75,382647
2,869167	0,1	74,277113
2,870833	0,1	73,080263
2,872500	0,1	71,940107
2,874167	0,1	70,814643
2,875833	0,1	69,746900
2,877500	0,1	68,689105
2,879167	0,1	67,705390
2,880833	0,1	66,639044
2,882500	0,1	65,694750
2,884167	0,1	64,739264
2,885833	0,1	63,810515
2,887500	0,1	62,918209
2,889167	0,1	62,010327
2,890833	0,1	61,138271
2,892500	0,1	60,336985
2,894167	0,1	59,456669
2,895833	0,1	58,723565
2,897500	0,1	57,906695
2,899167	0,1	57,169352
2,900833	0,1	56,382379
2,902500	0,1	55,695743
2,904167	0,1	54,991954
2,905833	0,1	54,303395
2,907500	0,1	53,631327
2,909167	0,1	52,977558
2,910833	0,1	52,300311
2,912500	0,1	51,684224
2,914167	0,1	51,083188
2,915833	0,1	50,441215
2,917500	0,1	49,869549
2,919167	0,1	49,275595
2,920833	0,1	48,735921
2,922500	0,1	48,169386
2,924167	0,1	47,620963
2,925833	0,1	47,117626
2,927500	0,1	46,632257
2,929167	0,1	46,086431
2,930833	0,1	45,576213
2,932500	0,1	45,087964
2,934167	0,1	44,603646
2,935833	0,1	44,169991
2,937500	0,1	43,710517
2,939167	0,1	43,257930
2,940833	0,1	42,766312
2,942500	0,1	42,334271
2,944167	0,1	41,935507
2,945833	0,1	41,567479
2,947500	0,1	41,085230
2,949167	0,1	40,696660
2,950833	0,1	40,250488
2,952500	0,1	39,909296
2,954167	0,1	39,485838
2,955833	0,1	39,085722
2,957500	0,1	38,749698
2,959167	0,1	38,330886
2,960833	0,1	37,979238
2,962500	0,1	37,626240
2,964167	0,1	37,221368
2,965833	0,1	36,849815
2,967500	0,1	36,563336
2,969167	0,1	36,222499
2,970833	0,1	35,850208
2,972500	0,1	35,528260
2,974167	0,1	35,163494
2,975833	0,1	34,831716
2,977500	0,1	34,489278
2,979167	0,1	34,171099
2,980833	0,1	33,876993
2,982500	0,1	33,549287
2,984167	0,1	33,223257
2,985833	0,1	32,934801
2,987500	0,1	32,590639
2,989167	0,1	32,348111
2,990833	0,1	31,986542
2,992500	0,1	31,730011
2,994167	0,1	31,386952
2,995833	0,1	31,141483
2,997500	0,1	30,811566
2,999167	0,1	30,549598
3,000833	0,1	30,262314
3,002500	0,1	30,018776
3,004167	0,1	29,708002
3,005833	0,1	29,423084
3,007500	0,1	29,196960
3,009167	0,1	28,900679
3,010833	0,1	28,611655
3,012500	0,1	28,420437
3,014167	0,1	28,116242
3,015833	0,1	27,885819
3,017500	0,1	27,546921
3,019167	0,1	27,340843
3,020833	0,1	27,075726
3,022500	0,1	26,842636
3,024167	0,1	26,593131
3,025833	0,1	26,330790
3,027500	0,1	26,079366
3,029167	0,1	25,832970
3,030833	0,1	25,589294
3,032500	0,1	25,384462
3,034167	0,1	25,138040
3,035833	0,1	24,909344
3,037500	0,1	24,659316
3,039167	0,1	24,460534
3,040833	0,1	24,240909
3,042500	0,1	24,011868
3,044167	0,1	23,821805
3,045833	0,1	23,563072
3,047500	0,1	23,343448
3,049167	0,1	23,169447
3,050833	0,1	22,937132
3,052500	0,1	22,708648
3,054167	0,1	22,541250
3,055833	0,1	22,311201
3,057500	0,1	22,141836
3,059167	0,1	21,897268
3,060833	0,1	21,719531
3,062500	0,1	21,523969
3,064167	0,1	21,324032
3,065833	0,1	21,101089
3,067500	0,1	20,929294
3,069167	0,1	20,782278
3,070833	0,1	20,642137
3,072500	0,1	20,372163
3,074167	0,1	20,246761
3,075833	0,1	20,044212
3,077500	0,1	19,883345
3,079167	0,1	19,687020
3,080833	0,1	19,497416
3,082500	0,1	19,395741
3,084167	0,1	19,184263
3,085833	0,1	19,037566
3,087500	0,1	18,872451
3,089167	0,1	18,703432
3,090833	0,1	18,594184
3,092500	0,1	18,411848
3,094167	0,1	18,266885
3,095833	0,1	18,118156
3,097500	0,1	17,992175
3,099167	0,1	17,843438
3,100833	0,1	17,691869
3,102500	0,1	17,579718
3,104167	0,1	17,424943
3,105833	0,1	17,294114
3,107500	0,1	17,190320
3,109167	0,1	17,061815
3,110833	0,1	16,920884
3,112500	0,1	16,818018
3,114167	0,1	16,657769
3,115833	0,1	16,588407
3,117500	0,1	16,452595
3,119167	0,1	16,315872
3,120833	0,1	16,232666
3,122500	0,1	16,112189
3,124167	0,1	16,005655
3,125833	0,1	15,936672
3,127500	0,1	15,796822
3,129167	0,1	15,714354
3,130833	0,1	15,608978
3,132500	0,1	15,524481
3,134167	0,1	15,414083
3,135833	0,1	15,329198
3,137500	0,1	15,204958
3,139167	0,1	15,110873
3,140833	0,1	15,035526
3,142500	0,1	14,977273
3,144167	0,1	14,877952
3,145833	0,1	14,769782
3,147500	0,1	14,703800
3,149167	0,1	14,634359
3,150833	0,1	14,548599
3,152500	0,1	14,420367
3,154167	0,1	14,410292
3,155833	0,1	14,338727
3,157500	0,1	14,203442
3,159167	0,1	14,076459
3,160833	0,1	14,040562
3,162500	0,1	13,997770
3,164167	0,1	13,914495
3,165833	0,1	13,800173
3,167500	0,1	13,719385
3,169167	0,1	13,678851
3,170833	0,1	13,597617
3,172500	0,1	13,539525
3,174167	0,1	13,432681
3,175833	0,1	13,366872
3,177500	0,1	13,309047
3,179167	0,1	13,231181
3,180833	0,1	13,135703
3,182500	0,1	13,084764
3,184167	0,1	13,018778
3,185833	0,1	12,945615
3,187500	0,1	12,884879
3,189167	0,1	12,782053
3,190833	0,1	12,737007
3,192500	0,1	12,638555
3,194167	0,1	12,557263
3,195833	0,1	12,469091
3,197500	0,1	12,402009
3,199167	0,1	12,356591
3,200833	0,1	12,277030
3,202500	0,1	12,220365
3,204167	0,1	12,176913
3,205833	0,1	12,066313
3,207500	0,1	11,990149
3,209167	0,1	11,916265
3,210833	0,1	11,853821
3,212500	0,1	11,769428
3,214167	0,1	11,717902
3,215833	0,1	11,626824
3,217500	0,1	11,574054
3,219167	0,1	11,488457
3,220833	0,1	11,407061
3,222500	0,1	11,365391
3,224167	0,1	11,287879
3,225833	0,1	11,177609
3,227500	0,1	11,137606
3,229167	0,1	11,040257
3,230833	0,1	11,005234
3,232500	0,1	10,957841
3,234167	0,1	10,836665
3,235833	0,1	10,787705
3,237500	0,1	10,736603
3,239167	0,1	10,657662
3,240833	0,1	10,566110
3,242500	0,1	10,517837
3,244167	0,1	10,444877
3,245833	0,1	10,371514
3,247500	0,1	10,324882
3,249167	0,1	10,220235
3,250833	0,1	10,148935
3,252500	0,1	10,091121
3,254167	0,1	10,067621
3,255833	0,1	10,011251
3,257500	0,1	9,928073
3,259167	0,1	9,859740
3,260833	0,1	9,786645
3,262500	0,1	9,734596
3,264167	0,1	9,687343
3,265833	0,1	9,604443
3,267500	0,1	9,520316
3,269167	0,1	9,442652
3,270833	0,1	9,401982
3,272500	0,1	9,381218
3,274167	0,1	9,271563
3,275833	0,1	9,235076
3,277500	0,1	9,154643
3,279167	0,1	9,092447
3,280833	0,1	9,046401
3,282500	0,1	8,977532
3,284167	0,1	8,975686
3,285833	0,1	8,882279
3,287500	0,1	8,796932
3,289167	0,1	8,810022
3,290833	0,1	8,719558
3,292500	0,1	8,671951
3,294167	0,1	8,622544
3,295833	0,1	8,589021
3,297500	0,1	8,517158
3,299167	0,1	8,451376
3,300833	0,1	8,389393
3,302500	0,1	8,321102
3,304167	0,1	8,284027
3,305833	0,1	8,281770
3,307500	0,1	8,198793
3,309167	0,1	8,190509
3,310833	0,1	8,099039
3,312500	0,1	8,071264
3,314167	0,1	8,016425
3,315833	0,1	7,926280
3,317500	0,1	7,943223
3,319167	0,1	7,932625
3,320833	0,1	7,872677
3,322500	0,1	7,814674
3,324167	0,1	7,747319
3,325833	0,1	7,782985
3,327500	0,1	7,697024
3,329167	0,1	7,649809
3,330833	0,1	7,622271
3,332500	0,1	7,569088
3,334167	0,1	7,513187
3,335833	0,1	7,510372
3,337500	0,1	7,491941
3,339167	0,1	7,461606
3,340833	0,1	7,412369
3,342500	0,1	7,358553
3,344167	0,1	7,349940
3,345833	0,1	7,300715
3,347500	0,1	7,293500
3,349167	0,1	7,254037
3,350833	0,1	7,236249
3,352500	0,1	7,188448
3,354167	0,1	7,157096
3,355833	0,1	7,095826
3,357500	0,1	7,117893
3,359167	0,1	7,082551
3,360833	0,1	7,006600
3,362500	0,1	7,003421
3,364167	0,1	6,978350
3,365833	0,1	7,009045
3,367500	0,1	6,958529
3,369167	0,1	6,941987
3,370833	0,1	6,918891
3,372500	0,1	6,869365
3,374167	0,1	6,834385
3,375833	0,1	6,845214
3,377500	0,1	6,777262
3,379167	0,1	6,792586
3,380833	0,1	6,765992
3,382500	0,1	6,766537
3,384167	0,1	6,709621
3,385833	0,1	6,725290
3,387500	0,1	6,692624
3,389167	0,1	6,659742
3,390833	0,1	6,681313
3,392500	0,1	6,626761
3,394167	0,1	6,630833
3,395833	0,1	6,581955
3,397500	0,1	6,583181
3,399167	0,1	6,565917
3,400833	0,1	6,568809
3,402500	0,1	6,531723
3,404167	0,1	6,493888
3,405833	0,1	6,511335
3,407500	0,1	6,464841
3,409167	0,1	6,496222
3,410833	0,1	6,468495
3,412500	0,1	6,441884
3,414167	0,1	6,409287
3,415833	0,1	6,407757
3,417500	0,1	6,408450
3,419167	0,1	6,362227
3,420833	0,1	6,331113
3,422500	0,1	6,338011
3,424167	0,1	6,316295
3,425833	0,1	6,270056
3,427500	0,1	6,261464
3,429167	0,1	6,284372
3,430833	0,1	6,248770
3,432500	0,1	6,254728
3,434167	0,1	6,232910
3,435833	0,1	6,201549
3,437500	0,1	6,221792
3,439167	0,1	6,155776
3,440833	0,1	6,139171
3,442500	0,1	6,144417
3,444167	0,1	6,152429
3,445833	0,1	6,106885
3,447500	0,1	6,107070
3,449167	0,1	6,105751
3,450833	0,1	6,077681
3,452500	0,1	6,079660
3,454167	0,1	6,059045
3,455833	0,1	6,027415
3,457500	0,1	6,037879
3,459167	0,1	6,009213
3,460833	0,1	5,994815
3,462500	0,1	5,969829
3,464167	0,1	5,995915
3,465833	0,1	5,969177
3,467500	0,1	5,965314
3,469167	0,1	5,967349
3,470833	0,1	5,924091
3,472500	0,1	5,879583
3,474167	0,1	5,955090
3,475833	0,1	5,919776
3,477500	0,1	5,950306
3,479167	0,1	5,889436
3,480833	0,1	5,877983
3,482500	0,1	5,864643
3,484167	0,1	5,879850
3,485833	0,1	5,897221
3,487500	0,1	5,855622
3,489167	0,1	5,823122
3,490833	0,1	5,854498
3,492500	0,1	5,816650
3,494167	0,1	5,820019
3,495833	0,1	5,840421
3,497500	0,1	5,833305
3,499167	0,1	5,807735
3,500833	0,1	5,778562
3,502500	0,1	5,846938
3,504167	0,1	5,822467
3,505833	0,1	5,776379
3,507500	0,1	5,806049
3,509167	0,1	5,798224
3,510833	0,1	5,820157
3,512500	0,1	5,778110
3,514167	0,1	5,753020
3,515833	0,1	5,792736
3,517500	0,1	5,785961
3,519167	0,1	5,777051
3,520833	0,1	5,764537
3,522500	0,1	5,784112
3,524167	0,1	5,743572
3,525833	0,1	5,766769
3,527500	0,1	5,767145
3,529167	0,1	5,774154
3,530833	0,1	5,761810
3,532500	0,1	5,796283
3,534167	0,1	5,747634
3,535833	0,1	5,769381
3,537500	0,1	5,778665
3,539167	0,1	5,769414
3,540833	0,1	5,806615
3,542500	0,1	5,790023
3,544167	0,1	5,748678
3,545833	0,1	5,821450
3,547500	0,1	5,772150
3,549167	0,1	5,843079
3,550833	0,1	5,781038
3,552500	0,1	5,790527
3,554167	0,1	5,790474
3,555833	0,1	5,814081
3,557500	0,1	5,854297
3,559167	0,1	5,816339
3,560833	0,1	5,849531
3,562500	0,1	5,806464
3,564167	0,1	5,830089
3,565833	0,1	5,836736
3,567500	0,1	5,839546
3,569167	0,1	5,876383
3,570833	0,1	5,874690
3,572500	0,1	5,828007
3,574167	0,1	5,830974
3,575833	0,1	5,864602
3,577500	0,1	5,854991
3,579167	0,1	5,887991
3,580833	0,1	5,877018
3,582500	0,1	5,846423
3,584167	0,1	5,870369
3,585833	0,1	5,924892
3,587500	0,1	5,917046
3,589167	0,1	5,891671
3,590833	0,1	5,921548
3,592500	0,1	5,862555
3,594167	0,1	5,935534
3,595833	0,1	5,931917
3,597500	0,1	5,942169
3,599167	0,1	5,900218
3,600833	0,1	5,940284
3,602500	0,1	5,946537
3,604167	0,1	5,967405
3,605833	0,1	5,942231
3,607500	0,1	5,966724
3,609167	0,1	5,940247
3,610833	0,1	5,955652
3,612500	0,1	5,913504
3,614167	0,1	5,980988
3,615833	0,1	5,937236
3,617500	0,1	5,981963
3,619167	0,1	5,965909
3,620833	0,1	5,950917
3,622500	0,1	5,925682
3,624167	0,1	5,960844
3,625833	0,1	5,947538
3,627500	0,1	5,927607
3,629167	0,1	5,940573
3,630833	0,1	5,978984
3,632500	0,1	5,936872
3,634167	0,1	5,924486
3,635833	0,1	5,974606
3,637500	0,1	5,927785
3,639167	0,1	5,946791
3,640833	0,1	5,963203
3,642500	0,1	5,935274
3,644167	0,1	5,962918
3,645833	0,1	5,918586
3,647500	0,1	5,922577
3,649167	0,1	5,911624
3,650833	0,1	5,945311
3,652500	0,1	5,910634
3,654167	0,1	5,908129
3,655833	0,1	5,901204
3,657500	0,1	5,899899
3,659167	0,1	5,909463
3,660833	0,1	5,902932
3,662500	0,1	5,884402
3,664167	0,1	5,876082
3,665833	0,1	5,852098
3,667500	0,1	5,850248
3,669167	0,1	5,836656
3,670833	0,1	5,845081
3,672500	0,1	5,855809
3,674167	0,1	5,868751
3,675833	0,1	5,788137
3,677500	0,1	5,812010
3,679167	0,1	5,806907
3,680833	0,1	5,763865
3,682500	0,1	5,785390
3,684167	0,1	5,748906
3,685833	0,1	5,738911
3,687500	0,1	5,730285
3,689167	0,1	5,715928
3,690833	0,1	5,702162
3,692500	0,1	5,692855
3,694167	0,1	5,662850
3,695833	0,1	5,672366
3,697500	0,1	5,654124
3,699167	0,1	5,642838
3,700833	0,1	5,655146
3,702500	0,1	5,622783
3,704167	0,1	5,636276
3,705833	0,1	5,569373
3,707500	0,1	5,567686
3,709167	0,1	5,565076
3,710833	0,1	5,592670
3,712500	0,1	5,558159
3,714167	0,1	5,498381
3,715833	0,1	5,495691
3,717500	0,1	5,502446
3,719167	0,1	5,440211
3,720833	0,1	5,460092
3,722500	0,1	5,439465
3,724167	0,1	5,441383
3,725833	0,1	5,377281
3,727500	0,1	5,431420
3,729167	0,1	5,396626
3,730833	0,1	5,382487
3,732500	0,1	5,360553
3,734167	0,1	5,330570
3,735833	0,1	5,314171
3,737500	0,1	5,328912
3,739167	0,1	5,275142
3,740833	0,1	5,298751
3,742500	0,1	5,241205
3,744167	0,1	5,226888
3,745833	0,1	5,219633
3,747500	0,1	5,212620
3,749167	0,1	5,213524
3,750833	0,1	5,164641
3,752500	0,1	5,188254
3,754167	0,1	5,152216
3,755833	0,1	5,163241
3,757500	0,1	5,140764
3,759167	0,1	5,106596
3,760833	0,1	5,098765
3,762500	0,1	5,065167
3,764167	0,1	5,045045
3,765833	0,1	5,009089
3,767500	0,1	5,073207
3,769167	0,1	5,045578
3,770833	0,1	5,001718
3,772500	0,1	4,973660
3,774167	0,1	4,974505
3,775833	0,1	4,966283
3,777500	0,1	4,939983
3,779167	0,1	4,945268
3,780833	0,1	4,969982
3,782500	0,1	4,920079
3,784167	0,1	4,901423
3,785833	0,1	4,856359
3,787500	0,1	4,869458
3,789167	0,1	4,848946
3,790833	0,1	4,813494
3,792500	0,1	4,808071
3,794167	0,1	4,802458
3,795833	0,1	4,844533
3,797500	0,1	4,795101
3,799167	0,1	4,780604
3,800833	0,1	4,753658
3,802500	0,1	4,708080
3,804167	0,1	4,723086
3,805833	0,1	4,699483
3,807500	0,1	4,733296
3,809167	0,1	4,654778
3,810833	0,1	4,648215
3,812500	0,1	4,676649
3,814167	0,1	4,601027
3,815833	0,1	4,635516
3,817500	0,1	4,589794
3,819167	0,1	4,608591
3,820833	0,1	4,597040
3,822500	0,1	4,560946
3,824167	0,1	4,537494
3,825833	0,1	4,496224
3,827500	0,1	4,558080
3,829167	0,1	4,513592
3,830833	0,1	4,482507
3,832500	0,1	4,440573
3,834167	0,1	4,472145
3,835833	0,1	4,463676
3,837500	0,1	4,485371
3,839167	0,1	4,450332
3,840833	0,1	4,401038
3,842500	0,1	4,411092
3,844167	0,1	4,382393
3,845833	0,1	4,358555
3,847500	0,1	4,354953
3,849167	0,1	4,377255
3,850833	0,1	4,340963
3,852500	0,1	4,313222
3,854167	0,1	4,303851
3,855833	0,1	4,300155
3,857500	0,1	4,304366
3,859167	0,1	4,274739
3,860833	0,1	4,298950
3,862500	0,1	4,246305
3,864167	0,1	4,281956
3,865833	0,1	4,267787
3,867500	0,1	4,217114
3,869167	0,1	4,190937
3,870833	0,1	4,205991
3,872500	0,1	4,196969
3,874167	0,1	4,192960
3,875833	0,1	4,147137
3,877500	0,1	4,146996
3,879167	0,1	4,148999
3,880833	0,1	4,109266
3,882500	0,1	4,115967
3,884167	0,1	4,093372
3,885833	0,1	4,072488
3,887500	0,1	4,056465
3,889167	0,1	4,051932
3,890833	0,1	4,063719
3,892500	0,1	4,016835
3,894167	0,1	4,010723
3,895833	0,1	3,972055
3,897500	0,1	4,001921
3,899167	0,1	3,976637
3,900833	0,1	3,994850
3,902500	0,1	3,951963
3,904167	0,1	3,943294
3,905833	0,1	3,940980
3,907500	0,1	3,876346
3,909167	0,1	3,908015
3,910833	0,1	3,934663
3,912500	0,1	3,880375
3,914167	0,1	3,861540
3,915833	0,1	3,843554
3,917500	0,1	3,828053
3,919167	0,1	3,858870
3,920833	0,1	3,801326
3,922500	0,1	3,779496
3,924167	0,1	3,821541
3,925833	0,1	3,768780
3,927500	0,1	3,757801
3,929167	0,1	3,778171
3,930833	0,1	3,725959
3,932500	0,1	3,706554
3,934167	0,1	3,698165
3,935833	0,1	3,716063
3,937500	0,1	3,689453
3,939167	0,1	3,705154
3,940833	0,1	3,661872
3,942500	0,1	3,673190
3,944167	0,1	3,680034
3,945833	0,1	3,647444
3,947500	0,1	3,654987
3,949167	0,1	3,632214
3,950833	0,1	3,637902
3,952500	0,1	3,632407
3,954167	0,1	3,615974
3,955833	0,1	3,614569
3,957500	0,1	3,603906
3,959167	0,1	3,645298
3,960833	0,1	3,626129
3,962500	0,1	3,580823
3,964167	0,1	3,528883
3,965833	0,1	3,529135
3,967500	0,1	3,561532
3,969167	0,1	3,525023
3,970833	0,1	3,505936
3,972500	0,1	3,524534
3,974167	0,1	3,540456
3,975833	0,1	3,497552
3,977500	0,1	3,469204
3,979167	0,1	3,476263
3,980833	0,1	3,455770
3,982500	0,1	3,463713
3,984167	0,1	3,443390
3,985833	0,1	3,446312
3,987500	0,1	3,435096
3,989167	0,1	3,446173
3,990833	0,1	3,427436
3,992500	0,1	3,432263
3,994167	0,1	3,403993
3,995833	0,1	3,405358
3,997500	0,1	3,399220
3,999167	0,1	3,400676
4,000833	0,1	3,363748
4,002500	0,1	3,378813
4,004167	0,1	3,360081
4,005833	0,1	3,375634
4,007500	0,1	3,358550
4,009167	0,1	3,344696
4,010833	0,1	3,351044
4,012500	0,1	3,341237
4,014167	0,1	3,370594
4,015833	0,1	3,308517
4,017500	0,1	3,356802
4,019167	0,1	3,333385
4,020833	0,1	3,337989
4,022500	0,1	3,326226
4,024167	0,1	3,330200
4,025833	0,1	3,326102
4,027500	0,1	3,291347
4,029167	0,1	3,310150
4,030833	0,1	3,321102
4,032500	0,1	3,272362
4,034167	0,1	3,286211
4,035833	0,1	3,338748
4,037500	0,1	3,288607
4,039167	0,1	3,314387
4,040833	0,1	3,289111
4,042500	0,1	3,295364
4,044167	0,1	3,283126
4,045833	0,1	3,318574
4,047500	0,1	3,319084
4,049167	0,1	3,315913
4,050833	0,1	3,276568
4,052500	0,1	3,311945
4,054167	0,1	3,299271
4,055833	0,1	3,325503
4,057500	0,1	3,335021
4,059167	0,1	3,329110
4,060833	0,1	3,333715
4,062500	0,1	3,343762
4,064167	0,1	3,329613
4,065833	0,1	3,314569
4,067500	0,1	3,334007
4,069167	0,1	3,342736
4,070833	0,1	3,347140
4,072500	0,1	3,362726
4,074167	0,1	3,359132
4,075833	0,1	3,380659
4,077500	0,1	3,355208
4,079167	0,1	3,387018
4,080833	0,1	3,380896
4,082500	0,1	3,391993
4,084167	0,1	3,385302
4,085833	0,1	3,381110
4,087500	0,1	3,399855
4,089167	0,1	3,424808
4,090833	0,1	3,397704
4,092500	0,1	3,432319
4,094167	0,1	3,447554
4,095833	0,1	3,413872
4,097500	0,1	3,443709
4,099167	0,1	3,482875
4,100833	0,1	3,422744
4,102500	0,1	3,496226
4,104167	0,1	3,498541
4,105833	0,1	3,556605
4,107500	0,1	3,485531
4,109167	0,1	3,460465
4,110833	0,1	3,519680
4,112500	0,1	3,533763
4,114167	0,1	3,544578
4,115833	0,1	3,549264
4,117500	0,1	3,579705
4,119167	0,1	3,562557
4,120833	0,1	3,583630
4,122500	0,1	3,618806
4,124167	0,1	3,622560
4,125833	0,1	3,644804
4,127500	0,1	3,638692
4,129167	0,1	3,639265
4,130833	0,1	3,629026
4,132500	0,1	3,681684
4,134167	0,1	3,676577
4,135833	0,1	3,685864
4,137500	0,1	3,705788
4,139167	0,1	3,705175
4,140833	0,1	3,738191
4,142500	0,1	3,711646
4,144167	0,1	3,757271
4,145833	0,1	3,750848
4,147500	0,1	3,738867
4,149167	0,1	3,795990
4,150833	0,1	3,782971
4,152500	0,1	3,828881
4,154167	0,1	3,828206
4,155833	0,1	3,786378
4,157500	0,1	3,828365
4,159167	0,1	3,812305
4,160833	0,1	3,848816
4,162500	0,1	3,855380
4,164167	0,1	3,843267
4,165833	0,1	3,867206
4,167500	0,1	3,906539
4,169167	0,1	3,908881
4,170833	0,1	3,875821
4,172500	0,1	3,881681
4,174167	0,1	3,926799
4,175833	0,1	3,952479
4,177500	0,1	3,909943
4,179167	0,1	3,947562
4,180833	0,1	3,924181
4,182500	0,1	3,947412
4,184167	0,1	3,946906
4,185833	0,1	3,961790
4,187500	0,1	3,934195
4,189167	0,1	3,980213
4,190833	0,1	3,970345
4,192500	0,1	3,969712
4,194167	0,1	3,974737
4,195833	0,1	4,004325
4,197500	0,1	3,956109
4,199167	0,1	4,004705
4,200833	0,1	4,000299
4,202500	0,1	3,991949
4,204167	0,1	3,993036
4,205833	0,1	3,994601
4,207500	0,1	3,986860
4,209167	0,1	3,999987
4,210833	0,1	3,971690
4,212500	0,1	3,946547
4,214167	0,1	4,001607
4,215833	0,1	4,014562
4,217500	0,1	3,988834
4,219167	0,1	3,999534
4,220833	0,1	4,000186
4,222500	0,1	4,053934
4,224167	0,1	3,976000
4,225833	0,1	3,986533
4,227500	0,1	4,018053
4,229167	0,1	3,996864
4,230833	0,1	3,977539
4,232500	0,1	3,986799
4,234167	0,1	3,957061
4,235833	0,1	3,993139
4,237500	0,1	3,984722
4,239167	0,1	3,999436
4,240833	0,1	3,966735
4,242500	0,1	3,987846
4,244167	0,1	3,988751
4,245833	0,1	3,970975
4,247500	0,1	3,930835
4,249167	0,1	3,935778
4,250833	0,1	3,945199
4,252500	0,1	3,924141
4,254167	0,1	3,920160
4,255833	0,1	3,919166
4,257500	0,1	3,940018
4,259167	0,1	3,932510
4,260833	0,1	3,935604
4,262500	0,1	3,909711
4,264167	0,1	3,899059
4,265833	0,1	3,967284
4,267500	0,1	3,897047
4,269167	0,1	3,921549
4,270833	0,1	3,893119
4,272500	0,1	3,893915
4,274167	0,1	3,904940
4,275833	0,1	3,889981
4,277500	0,1	3,883557
4,279167	0,1	3,876312
4,280833	0,1	3,845201
4,282500	0,1	3,867512
4,284167	0,1	3,860486
4,285833	0,1	3,837385
4,287500	0,1	3,849243
4,289167	0,1	3,798152
4,290833	0,1	3,843177
4,292500	0,1	3,849840
4,294167	0,1	3,811607
4,295833	0,1	3,824112
4,297500	0,1	3,805561
4,299167	0,1	3,782687
4,300833	0,1	3,746036
4,302500	0,1	3,776083
4,304167	0,1	3,786408
4,305833	0,1	3,760825
4,307500	0,1	3,760000
4,309167	0,1	3,771346
4,310833	0,1	3,716730
4,312500	0,1	3,703078
4,314167	0,1	3,742012
4,315833	0,1	3,733307
4,317500	0,1	3,710738
4,319167	0,1	3,672477
4,320833	0,1	3,712565
4,322500	0,1	3,646078
4,324167	0,1	3,642799
4,325833	0,1	3,693755
4,327500	0,1	3,645697
4,329167	0,1	3,616524
4,330833	0,1	3,607490
4,332500	0,1	3,637868
4,334167	0,1	3,621055
4,335833	0,1	3,624112
4,337500	0,1	3,595516
4,339167	0,1	3,646156
4,340833	0,1	3,587955
4,342500	0,1	3,557951
4,344167	0,1	3,548993
4,345833	0,1	3,603590
4,347500	0,1	3,548354
4,349167	0,1	3,532535
4,350833	0,1	3,533392
4,352500	0,1	3,530221
4,354167	0,1	3,473958
4,355833	0,1	3,483989
4,357500	0,1	3,518462
4,359167	0,1	3,492140
4,360833	0,1	3,473001
4,362500	0,1	3,475189
4,364167	0,1	3,449065
4,365833	0,1	3,446036
4,367500	0,1	3,441632
4,369167	0,1	3,445662
4,370833	0,1	3,417488
4,372500	0,1	3,426920
4,374167	0,1	3,416174
4,375833	0,1	3,420687
4,377500	0,1	3,351062
4,379167	0,1	3,384569
4,380833	0,1	3,410601
4,382500	0,1	3,393455
4,384167	0,1	3,400230
4,385833	0,1	3,342537
4,387500	0,1	3,338139
4,389167	0,1	3,336699
4,390833	0,1	3,385641
4,392500	0,1	3,321975
4,394167	0,1	3,301934
4,395833	0,1	3,322333
4,397500	0,1	3,321179
4,399167	0,1	3,293853
4,400833	0,1	3,292631
4,402500	0,1	3,280509
4,404167	0,1	3,307321
4,405833	0,1	3,261417
4,407500	0,1	3,244382
4,409167	0,1	3,284538
4,410833	0,1	3,193867
4,412500	0,1	3,214377
4,414167	0,1	3,184403
4,415833	0,1	3,245454
4,417500	0,1	3,204806
4,419167	0,1	3,188879
4,420833	0,1	3,193471
4,422500	0,1	3,197653
4,424167	0,1	3,123071
4,425833	0,1	3,136674
4,427500	0,1	3,160304
4,429167	0,1	3,127246
4,430833	0,1	3,110012
4,432500	0,1	3,171404
4,434167	0,1	3,094957
4,435833	0,1	3,116490
4,437500	0,1	3,121457
4,439167	0,1	3,059780
4,440833	0,1	3,071074
4,442500	0,1	3,045071
4,444167	0,1	3,018261
4,445833	0,1	3,044265
4,447500	0,1	3,024310
4,449167	0,1	3,052765
4,450833	0,1	2,993409
4,452500	0,1	3,022139
4,454167	0,1	3,009246
4,455833	0,1	3,000383
4,457500	0,1	2,928130
4,459167	0,1	2,985885
4,460833	0,1	2,976533
4,462500	0,1	2,925097
4,464167	0,1	2,951450
4,465833	0,1	2,933520
4,467500	0,1	2,952602
4,469167	0,1	2,916303
4,470833	0,1	2,914349
4,472500	0,1	2,871206
4,474167	0,1	2,942431
4,475833	0,1	2,877047
4,477500	0,1	2,845772
4,479167	0,1	2,896327
4,480833	0,1	2,824892
4,482500	0,1	2,840431
4,484167	0,1	2,793769
4,485833	0,1	2,824867
4,487500	0,1	2,790525
4,489167	0,1	2,808881
4,490833	0,1	2,823503
4,492500	0,1	2,772593
4,494167	0,1	2,777983
4,495833	0,1	2,766105
4,497500	0,1	2,772222
4,499167	0,1	2,767253
4,500833	0,1	2,774675
4,502500	0,1	2,755016
4,504167	0,1	2,701081
4,505833	0,1	2,750536
4,507500	0,1	2,698701
4,509167	0,1	2,690564
4,510833	0,1	2,657084
4,512500	0,1	2,639937
4,514167	0,1	2,658935
4,515833	0,1	2,704590
4,517500	0,1	2,654419
4,519167	0,1	2,611507
4,520833	0,1	2,671171
4,522500	0,1	2,670608
4,524167	0,1	2,620799
4,525833	0,1	2,630063
4,527500	0,1	2,603581
4,529167	0,1	2,612432
4,530833	0,1	2,593653
4,532500	0,1	2,556426
4,534167	0,1	2,578940
4,535833	0,1	2,556422
4,537500	0,1	2,557642
4,539167	0,1	2,523671
4,540833	0,1	2,542891
4,542500	0,1	2,515678
4,544167	0,1	2,535474
4,545833	0,1	2,537994
4,547500	0,1	2,497845
4,549167	0,1	2,484946
4,550833	0,1	2,501290
4,552500	0,1	2,506530
4,554167	0,1	2,497620
4,555833	0,1	2,502369
4,557500	0,1	2,492001
4,559167	0,1	2,450096
4,560833	0,1	2,422328
4,562500	0,1	2,509264
4,564167	0,1	2,409392
4,565833	0,1	2,417864
4,567500	0,1	2,408521
4,569167	0,1	2,408580
4,570833	0,1	2,387582
4,572500	0,1	2,376349
4,574167	0,1	2,423684
4,575833	0,1	2,358728
4,577500	0,1	2,408996
4,579167	0,1	2,357499
4,580833	0,1	2,332029
4,582500	0,1	2,370369
4,584167	0,1	2,362539
4,585833	0,1	2,334051
4,587500	0,1	2,346705
4,589167	0,1	2,317136
4,590833	0,1	2,329407
4,592500	0,1	2,299514
4,594167	0,1	2,309436
4,595833	0,1	2,295418
4,597500	0,1	2,332671
4,599167	0,1	2,275412
4,600833	0,1	2,274059
4,602500	0,1	2,262823
4,604167	0,1	2,248430
4,605833	0,1	2,219067
4,607500	0,1	2,244398
4,609167	0,1	2,219285
4,610833	0,1	2,225766
4,612500	0,1	2,231578
4,614167	0,1	2,166404
4,615833	0,1	2,190294
4,617500	0,1	2,217330
4,619167	0,1	2,173767
4,620833	0,1	2,209023
4,622500	0,1	2,181187
4,624167	0,1	2,190957
4,625833	0,1	2,160089
4,627500	0,1	2,190374
4,629167	0,1	2,176722
4,630833	0,1	2,155996
4,632500	0,1	2,148324
4,634167	0,1	2,139027
4,635833	0,1	2,127720
4,637500	0,1	2,115063
4,639167	0,1	2,136294
4,640833	0,1	2,113596
4,642500	0,1	2,111109
4,644167	0,1	2,113696
4,645833	0,1	2,119842
4,647500	0,1	2,097590
4,649167	0,1	2,097875
4,650833	0,1	2,077680
4,652500	0,1	2,053089
4,654167	0,1	2,056693
4,655833	0,1	2,025689
4,657500	0,1	2,030585
4,659167	0,1	2,044036
4,660833	0,1	2,057269
4,662500	0,1	2,023476
4,664167	0,1	2,017475
4,665833	0,1	2,022173
4,667500	0,1	2,014054
4,669167	0,1	2,015653
4,670833	0,1	2,021900
4,672500	0,1	2,004878
4,674167	0,1	1,969958
4,675833	0,1	1,994567
4,677500	0,1	1,988699
4,679167	0,1	2,006726
4,680833	0,1	1,966452
4,682500	0,1	1,990530
4,684167	0,1	1,968542
4,685833	0,1	1,952077
4,687500	0,1	1,977896
4,689167	0,1	1,944335
4,690833	0,1	1,943121
4,692500	0,1	1,939510
4,694167	0,1	1,910163
4,695833	0,1	1,915416
4,697500	0,1	1,940083
4,699167	0,1	1,924904
4,700833	0,1	1,916086
4,702500	0,1	1,909240
4,704167	0,1	1,877818
4,705833	0,1	1,883312
4,707500	0,1	1,884144
4,709167	0,1	1,889230
4,710833	0,1	1,826523
4,712500	0,1	1,883416
4,714167	0,1	1,869935
4,715833	0,1	1,879188
4,717500	0,1	1,899192
4,719167	0,1	1,845096
4,720833	0,1	1,824438
4,722500	0,1	1,898174
4,724167	0,1	1,845656
4,725833	0,1	1,833802
4,727500	0,1	1,796808
4,729167	0,1	1,817179
4,730833	0,1	1,843562
4,732500	0,1	1,857350
4,734167	0,1	1,789280
4,735833	0,1	1,781883
4,737500	0,1	1,828571
4,739167	0,1	1,792459
4,740833	0,1	1,779452
4,742500	0,1	1,796417
4,744167	0,1	1,790200
4,745833	0,1	1,797000
4,747500	0,1	1,781215
4,749167	0,1	1,794209
4,750833	0,1	1,753636
4,752500	0,1	1,750706
4,754167	0,1	1,765864
4,755833	0,1	1,749148
4,757500	0,1	1,761116
4,759167	0,1	1,764664
4,760833	0,1	1,709866
4,762500	0,1	1,731946
4,764167	0,1	1,729921
4,765833	0,1	1,713692
4,767500	0,1	1,754084
4,769167	0,1	1,697627
4,770833	0,1	1,724965
4,772500	0,1	1,728293
4,774167	0,1	1,669999
4,775833	0,1	1,708239
4,777500	0,1	1,703790
4,779167	0,1	1,676838
4,780833	0,1	1,714172
4,782500	0,1	1,691689
4,784167	0,1	1,651784
4,785833	0,1	1,682044
4,787500	0,1	1,692638
4,789167	0,1	1,684636
4,790833	0,1	1,684302
4,792500	0,1	1,641192
4,794167	0,1	1,664385
4,795833	0,1	1,674689
4,797500	0,1	1,671504
4,799167	0,1	1,614754
4,800833	0,1	1,630790
4,802500	0,1	1,641534
4,804167	0,1	1,606816
4,805833	0,1	1,619021
4,807500	0,1	1,635359
4,809167	0,1	1,655781
4,810833	0,1	1,596073
4,812500	0,1	1,593539
4,814167	0,1	1,618348
4,815833	0,1	1,588002
4,817500	0,1	1,632342
4,819167	0,1	1,610867
4,820833	0,1	1,661169
4,822500	0,1	1,612100
4,824167	0,1	1,577344
4,825833	0,1	1,562527
4,827500	0,1	1,582875
4,829167	0,1	1,554138
4,830833	0,1	1,582278
4,832500	0,1	1,636807
4,834167	0,1	1,594959
4,835833	0,1	1,559022
4,837500	0,1	1,568864
4,839167	0,1	1,571767
4,840833	0,1	1,549149
4,842500	0,1	1,572582
4,844167	0,1	1,546751
4,845833	0,1	1,566342
4,847500	0,1	1,567639
4,849167	0,1	1,551153
4,850833	0,1	1,548803
4,852500	0,1	1,523085
4,854167	0,1	1,538165
4,855833	0,1	1,579265
4,857500	0,1	1,523896
4,859167	0,1	1,542321
4,860833	0,1	1,527118
4,862500	0,1	1,514087
4,864167	0,1	1,556799
4,865833	0,1	1,516296
4,867500	0,1	1,509138
4,869167	0,1	1,500196
4,870833	0,1	1,535562
4,872500	0,1	1,526696
4,874167	0,1	1,528501
4,875833	0,1	1,537890
4,877500	0,1	1,459693
4,879167	0,1	1,527547
4,880833	0,1	1,526468
4,882500	0,1	1,544483
4,884167	0,1	1,524916
4,885833	0,1	1,503945
4,887500	0,1	1,520094
4,889167	0,1	1,483015
4,890833	0,1	1,496601
4,892500	0,1	1,499770
4,894167	0,1	1,488917
4,895833	0,1	1,489327
4,897500	0,1	1,469691
4,899167	0,1	1,465865
4,900833	0,1	1,491008
4,902500	0,1	1,451535
4,904167	0,1	1,453782
4,905833	0,1	1,442031
4,907500	0,1	1,420577
4,909167	0,1	1,424222
4,910833	0,1	1,448193
4,912500	0,1	1,457265
4,914167	0,1	1,446620
4,915833	0,1	1,441738
4,917500	0,1	1,441091
4,919167	0,1	1,440379
4,920833	0,1	1,461503
4,922500	0,1	1,436349
4,924167	0,1	1,442251
4,925833	0,1	1,448451
4,927500	0,1	1,448845
4,929167	0,1	1,445579
4,930833	0,1	1,428301
4,932500	0,1	1,425770
4,934167	0,1	1,419151
4,935833	0,1	1,441854
4,937500	0,1	1,419931
4,939167	0,1	1,417239
4,940833	0,1	1,418988
4,942500	0,1	1,454486
4,944167	0,1	1,450523
4,945833	0,1	1,435981
4,947500	0,1	1,418253
4,949167	0,1	1,409008
4,950833	0,1	1,397863
4,952500	0,1	1,385325
4,954167	0,1	1,418980
4,955833	0,1	1,410517
4,957500	0,1	1,384682
4,959167	0,1	1,404767
4,960833	0,1	1,398051
4,962500	0,1	1,385871
4,964167	0,1	1,402925
4,965833	0,1	1,370469
4,967500	0,1	1,395974
4,969167	0,1	1,424631
4,970833	0,1	1,376809
4,972500	0,1	1,388361
4,974167	0,1	1,398796
4,975833	0,1	1,378446
4,977500	0,1	1,372851
4,979167	0,1	1,356477
4,980833	0,1	1,378796
4,982500	0,1	1,386025
4,984167	0,1	1,381477
4,985833	0,1	1,400275
4,987500	0,1	1,425502
4,989167	0,1	1,374185
4,990833	0,1	1,376530
4,992500	0,1	1,379245
4,994167	0,1	1,352733
4,995833	0,1	1,367031
4,997500	0,1	1,397361
4,999167	0,1	1,386937
5,000833	0,1	1,377601
5,002500	0,1	1,382991
5,004167	0,1	1,422044
5,005833	0,1	1,363878
5,007500	0,1	1,369779
5,009167	0,1	1,394393
5,010833	0,1	1,363166
5,012500	0,1	1,357024
5,014167	0,1	1,345367
5,015833	0,1	1,367480
5,017500	0,1	1,393681
5,019167	0,1	1,366075
5,020833	0,1	1,349761
5,022500	0,1	1,378528
5,024167	0,1	1,346143
5,025833	0,1	1,330988
5,027500	0,1	1,394607
5,029167	0,1	1,356222
5,030833	0,1	1,399266
5,032500	0,1	1,408547
5,034167	0,1	1,303459
5,035833	0,1	1,360792
5,037500	0,1	1,387415
5,039167	0,1	1,374692
5,040833	0,1	1,385189
5,042500	0,1	1,403310
5,044167	0,1	1,371310
5,045833	0,1	1,347337
5,047500	0,1	1,369999
5,049167	0,1	1,391228
5,050833	0,1	1,335617
5,052500	0,1	1,382111
5,054167	0,1	1,419525
5,055833	0,1	1,349477
5,057500	0,1	1,378179
5,059167	0,1	1,358937
5,060833	0,1	1,371489
5,062500	0,1	1,359350
5,064167	0,1	1,357055
5,065833	0,1	1,371364
5,067500	0,1	1,391452
5,069167	0,1	1,328155
5,070833	0,1	1,366932
5,072500	0,1	1,331610
5,074167	0,1	1,357433
5,075833	0,1	1,342162
5,077500	0,1	1,366094
5,079167	0,1	1,377988
5,080833	0,1	1,395295
5,082500	0,1	1,381414
5,084167	0,1	1,403794
5,085833	0,1	1,374345
5,087500	0,1	1,364388
5,089167	0,1	1,345263
5,090833	0,1	1,347492
5,092500	0,1	1,360602
5,094167	0,1	1,407572
5,095833	0,1	1,343567
5,097500	0,1	1,384790
5,099167	0,1	1,347721
5,100833	0,1	1,364897
5,102500	0,1	1,358798
5,104167	0,1	1,361284
5,105833	0,1	1,342134
5,107500	0,1	1,358116
5,109167	0,1	1,344136
5,110833	0,1	1,377591
5,112500	0,1	1,328542
5,114167	0,1	1,326559
5,115833	0,1	1,341123
5,117500	0,1	1,323752
5,119167	0,1	1,321456
5,120833	0,1	1,339635
5,122500	0,1	1,342613
5,124167	0,1	1,352464
5,125833	0,1	1,356826
5,127500	0,1	1,365511
5,129167	0,1	1,303865
5,130833	0,1	1,333240
5,132500	0,1	1,336253
5,134167	0,1	1,319940
5,135833	0,1	1,289162
5,137500	0,1	1,301426
5,139167	0,1	1,285507
5,140833	0,1	1,329392
5,142500	0,1	1,329822
5,144167	0,1	1,297914
5,145833	0,1	1,302528
5,147500	0,1	1,305820
5,149167	0,1	1,327780
5,150833	0,1	1,326689
5,152500	0,1	1,318097
5,154167	0,1	1,298622
5,155833	0,1	1,294710
5,157500	0,1	1,263194
5,159167	0,1	1,348309
5,160833	0,1	1,268244
5,162500	0,1	1,286177
5,164167	0,1	1,293510
5,165833	0,1	1,279533
5,167500	0,1	1,274136
5,169167	0,1	1,273586
5,170833	0,1	1,282012
5,172500	0,1	1,285148
5,174167	0,1	1,286376
5,175833	0,1	1,252374
5,177500	0,1	1,245714
5,179167	0,1	1,241257
5,180833	0,1	1,228727
5,182500	0,1	1,255072
5,184167	0,1	1,209812
5,185833	0,1	1,269985
5,187500	0,1	1,228187
5,189167	0,1	1,255622
5,190833	0,1	1,213783
5,192500	0,1	1,227753
5,194167	0,1	1,201863
5,195833	0,1	1,231818
5,197500	0,1	1,189270
5,199167	0,1	1,185450
5,200833	0,1	1,214349
5,202500	0,1	1,203313
5,204167	0,1	1,178517
5,205833	0,1	1,173150
5,207500	0,1	1,185256
5,209167	0,1	1,180707
5,210833	0,1	1,206147
5,212500	0,1	1,119761
5,214167	0,1	1,156352
5,215833	0,1	1,134923
5,217500	0,1	1,142762
5,219167	0,1	1,160325
5,220833	0,1	1,152710
5,222500	0,1	1,125335
5,224167	0,1	1,160256
5,225833	0,1	1,135085
5,227500	0,1	1,149190
5,229167	0,1	1,118072
5,230833	0,1	1,161546
5,232500	0,1	1,109165
5,234167	0,1	1,101433
5,235833	0,1	1,114156
5,237500	0,1	1,094433
5,239167	0,1	1,108280
5,240833	0,1	1,098631
5,242500	0,1	1,089682
5,244167	0,1	1,066414
5,245833	0,1	1,079638
5,247500	0,1	1,077775
5,249167	0,1	1,049110
5,250833	0,1	1,115045
5,252500	0,1	1,089239
5,254167	0,1	1,077451
5,255833	0,1	1,067837
5,257500	0,1	1,066379
5,259167	0,1	1,028869
5,260833	0,1	1,078664
5,262500	0,1	1,022391
5,264167	0,1	1,011723
5,265833	0,1	1,061494
5,267500	0,1	1,020550
5,269167	0,1	1,030905
5,270833	0,1	1,051197
5,272500	0,1	1,010058
5,274167	0,1	1,010201
5,275833	0,1	1,030511
5,277500	0,1	1,018024
5,279167	0,1	1,036357
5,280833	0,1	1,040199
5,282500	0,1	1,000184
5,284167	0,1	0,997554
5,285833	0,1	1,010208
5,287500	0,1	1,021157
5,289167	0,1	0,989271
5,290833	0,1	0,975319
5,292500	0,1	1,023339
5,294167	0,1	0,947957
5,295833	0,1	0,962957
5,297500	0,1	0,976857
5,299167	0,1	0,996677
5,300833	0,1	0,989491
5,302500	0,1	1,003360
5,304167	0,1	0,912649
5,305833	0,1	0,938224
5,307500	0,1	0,953630
5,309167	0,1	0,968311
5,310833	0,1	0,924686
5,312500	0,1	0,951905
5,314167	0,1	0,901807
5,315833	0,1	0,918446
5,317500	0,1	0,932520
5,319167	0,1	0,961207
5,320833	0,1	0,945310
5,322500	0,1	0,918646
5,324167	0,1	0,924068
5,325833	0,1	0,890728
5,327500	0,1	0,928994
5,329167	0,1	0,891782
5,330833	0,1	0,896857
5,332500	0,1	0,926555
5,334167	0,1	0,868107
5,335833	0,1	0,918754
5,337500	0,1	0,860630
5,339167	0,1	0,875472
5,340833	0,1	0,912316
5,342500	0,1	0,892928
5,344167	0,1	0,903829
5,345833	0,1	0,861766
5,347500	0,1	0,881553
5,349167	0,1	0,879827
5,350833	0,1	0,889505
5,352500	0,1	0,885739
5,354167	0,1	0,913168
5,355833	0,1	0,886412
5,357500	0,1	0,840454
5,359167	0,1	0,871721
5,360833	0,1	0,858872
5,362500	0,1	0,859970
5,364167	0,1	0,810457
5,365833	0,1	0,848840
5,367500	0,1	0,852059
5,369167	0,1	0,851699
5,370833	0,1	0,869899
5,372500	0,1	0,834267
5,374167	0,1	0,807037
5,375833	0,1	0,854608
5,377500	0,1	0,843878
5,379167	0,1	0,836095
5,380833	0,1	0,817610
5,382500	0,1	0,817316
5,384167	0,1	0,807077
5,385833	0,1	0,801060
5,387500	0,1	0,811838
5,389167	0,1	0,824137
5,390833	0,1	0,784937
5,392500	0,1	0,815618
5,394167	0,1	0,790385
5,395833	0,1	0,828483
5,397500	0,1	0,781877
5,399167	0,1	0,777455
5,400833	0,1	0,814932
5,402500	0,1	0,777628
5,404167	0,1	0,792976
5,405833	0,1	0,783202
5,407500	0,1	0,788610
5,409167	0,1	0,778290
5,410833	0,1	0,765761
5,412500	0,1	0,764175
5,414167	0,1	0,789603
5,415833	0,1	0,803386
5,417500	0,1	0,771425
5,419167	0,1	0,823025
5,420833	0,1	0,757573
5,422500	0,1	0,785856
5,424167	0,1	0,764450
5,425833	0,1	0,778221
5,427500	0,1	0,771814
5,429167	0,1	0,767445
5,430833	0,1	0,774039
5,432500	0,1	0,778474
5,434167	0,1	0,751985
5,435833	0,1	0,749004
5,437500	0,1	0,767604
5,439167	0,1	0,746114
5,440833	0,1	0,757595
5,442500	0,1	0,751440
5,444167	0,1	0,754435
5,445833	0,1	0,764318
5,447500	0,1	0,743034
5,449167	0,1	0,723159
5,450833	0,1	0,734078
5,452500	0,1	0,724156
5,454167	0,1	0,726881
5,455833	0,1	0,731125
5,457500	0,1	0,740406
5,459167	0,1	0,765772
5,460833	0,1	0,693037
5,462500	0,1	0,732594
5,464167	0,1	0,708094
5,465833	0,1	0,748994
5,467500	0,1	0,723618
5,469167	0,1	0,730666
5,470833	0,1	0,709446
5,472500	0,1	0,770757
5,474167	0,1	0,708393
5,475833	0,1	0,723982
5,477500	0,1	0,711358
5,479167	0,1	0,693024
5,480833	0,1	0,704194
5,482500	0,1	0,675423
5,484167	0,1	0,704625
5,485833	0,1	0,714933
5,487500	0,1	0,677132
5,489167	0,1	0,694057
5,490833	0,1	0,693585
5,492500	0,1	0,724708
5,494167	0,1	0,723612
5,495833	0,1	0,698689
5,497500	0,1	0,692482
5,499167	0,1	0,674527
5,500833	0,1	0,722248
5,502500	0,1	0,700810
5,504167	0,1	0,697933
5,505833	0,1	0,703198
5,507500	0,1	0,683162
5,509167	0,1	0,688609
5,510833	0,1	0,658775
5,512500	0,1	0,680385
5,514167	0,1	0,687857
5,515833	0,1	0,701426
5,517500	0,1	0,652560
5,519167	0,1	0,671003
5,520833	0,1	0,686547
5,522500	0,1	0,661709
5,524167	0,1	0,669422
5,525833	0,1	0,679867
5,527500	0,1	0,655197
5,529167	0,1	0,641401
5,530833	0,1	0,666776
5,532500	0,1	0,687022
5,534167	0,1	0,638891
5,535833	0,1	0,664902
5,537500	0,1	0,704498
5,539167	0,1	0,678692
5,540833	0,1	0,668657
5,542500	0,1	0,673107
5,544167	0,1	0,650450
5,545833	0,1	0,614289
5,547500	0,1	0,678149
5,549167	0,1	0,688004
5,550833	0,1	0,637123
5,552500	0,1	0,672537
5,554167	0,1	0,646378
5,555833	0,1	0,637572
5,557500	0,1	0,688722
5,559167	0,1	0,659130
5,560833	0,1	0,649058
5,562500	0,1	0,642979
5,564167	0,1	0,643622
5,565833	0,1	0,682088
5,567500	0,1	0,662209
5,569167	0,1	0,662911
5,570833	0,1	0,653779
5,572500	0,1	0,638564
5,574167	0,1	0,674620
5,575833	0,1	0,659045
5,577500	0,1	0,637259
5,579167	0,1	0,657580
5,580833	0,1	0,649616
5,582500	0,1	0,670357
5,584167	0,1	0,633914
5,585833	0,1	0,622031
5,587500	0,1	0,640686
5,589167	0,1	0,650195
5,590833	0,1	0,679366
5,592500	0,1	0,622830
5,594167	0,1	0,626959
5,595833	0,1	0,614036
5,597500	0,1	0,607018
5,599167	0,1	0,598371
5,600833	0,1	0,650978
5,602500	0,1	0,621885
5,604167	0,1	0,623689
5,605833	0,1	0,625836
5,607500	0,1	0,642038
5,609167	0,1	0,658454
5,610833	0,1	0,648078
5,612500	0,1	0,629209
5,614167	0,1	0,614558
5,615833	0,1	0,638935
5,617500	0,1	0,629268
5,619167	0,1	0,642684
5,620833	0,1	0,641750
5,622500	0,1	0,623987
5,624167	0,1	0,638814
5,625833	0,1	0,630389
5,627500	0,1	0,630220
5,629167	0,1	0,663425
5,630833	0,1	0,641110
5,632500	0,1	0,665176
5,634167	0,1	0,627031
5,635833	0,1	0,626270
5,637500	0,1	0,637586
5,639167	0,1	0,625504
5,640833	0,1	0,616156
5,642500	0,1	0,632425
5,644167	0,1	0,627437
5,645833	0,1	0,626562
5,647500	0,1	0,647823
5,649167	0,1	0,626505
5,650833	0,1	0,655457
5,652500	0,1	0,627461
5,654167	0,1	0,630660
5,655833	0,1	0,633842
5,657500	0,1	0,623525
5,659167	0,1	0,610148
5,660833	0,1	0,597788
5,662500	0,1	0,624664
5,664167	0,1	0,595919
5,665833	0,1	0,642321
5,667500	0,1	0,617689
5,669167	0,1	0,599123
5,670833	0,1	0,638118
5,672500	0,1	0,665026
5,674167	0,1	0,645836
5,675833	0,1	0,625108
5,677500	0,1	0,630969
5,679167	0,1	0,629185
5,680833	0,1	0,648364
5,682500	0,1	0,632228
5,684167	0,1	0,620344
5,685833	0,1	0,594841
5,687500	0,1	0,634355
5,689167	0,1	0,622324
5,690833	0,1	0,647965
5,692500	0,1	0,611752
5,694167	0,1	0,627246
5,695833	0,1	0,668665
5,697500	0,1	0,659708
5,699167	0,1	0,626694
5,700833	0,1	0,673973
5,702500	0,1	0,632810
5,704167	0,1	0,608984
5,705833	0,1	0,641742
5,707500	0,1	0,657209
5,709167	0,1	0,633292
5,710833	0,1	0,618366
5,712500	0,1	0,651152
5,714167	0,1	0,609556
5,715833	0,1	0,598893
5,717500	0,1	0,614779
5,719167	0,1	0,656203
5,720833	0,1	0,598796
5,722500	0,1	0,663189
5,724167	0,1	0,636120
5,725833	0,1	0,641351
5,727500	0,1	0,640026
5,729167	0,1	0,618827
5,730833	0,1	0,660527
5,732500	0,1	0,613840
5,734167	0,1	0,619404
5,735833	0,1	0,663839
5,737500	0,1	0,645810
5,739167	0,1	0,651759
5,740833	0,1	0,648536
5,742500	0,1	0,673251
5,744167	0,1	0,625760
5,745833	0,1	0,628663
5,747500	0,1	0,640854
5,749167	0,1	0,638235
5,750833	0,1	0,597255
5,752500	0,1	0,677190
5,754167	0,1	0,659921
5,755833	0,1	0,613257
5,757500	0,1	0,628953
5,759167	0,1	0,658141
5,760833	0,1	0,637822
5,762500	0,1	0,652922
5,764167	0,1	0,634059
5,765833	0,1	0,624460
5,767500	0,1	0,690261
5,769167	0,1	0,612373
5,770833	0,1	0,638104
5,772500	0,1	0,613746
5,774167	0,1	0,636939
5,775833	0,1	0,607344
5,777500	0,1	0,637458
5,779167	0,1	0,647783
5,780833	0,1	0,615772
5,782500	0,1	0,683165
5,784167	0,1	0,646583
5,785833	0,1	0,653544
5,787500	0,1	0,646849
5,789167	0,1	0,634348
5,790833	0,1	0,642269
5,792500	0,1	0,625628
5,794167	0,1	0,654581
5,795833	0,1	0,662805
5,797500	0,1	0,649265
5,799167	0,1	0,663660
5,800833	0,1	0,641315
5,802500	0,1	0,643101
5,804167	0,1	0,634242
5,805833	0,1	0,641103
5,807500	0,1	0,625964
5,809167	0,1	0,621755
5,810833	0,1	0,632928
5,812500	0,1	0,652482
5,814167	0,1	0,628044
5,815833	0,1	0,610133
5,817500	0,1	0,672072
5,819167	0,1	0,671694
5,820833	0,1	0,628172
5,822500	0,1	0,621694
5,824167	0,1	0,613522
5,825833	0,1	0,630904
5,827500	0,1	0,608277
5,829167	0,1	0,628369
5,830833	0,1	0,584375
5,832500	0,1	0,620166
5,834167	0,1	0,606818
5,835833	0,1	0,588760
5,837500	0,1	0,655051
5,839167	0,1	0,601650
5,840833	0,1	0,633005
5,842500	0,1	0,618243
5,844167	0,1	0,636920
5,845833	0,1	0,579201
5,847500	0,1	0,616110
5,849167	0,1	0,635340
5,850833	0,1	0,621298
5,852500	0,1	0,619820
5,854167	0,1	0,584895
5,855833	0,1	0,664976
5,857500	0,1	0,599011
5,859167	0,1	0,589555
5,860833	0,1	0,584456
5,862500	0,1	0,619626
5,864167	0,1	0,606571
5,865833	0,1	0,622503
5,867500	0,1	0,616580
5,869167	0,1	0,582174
5,870833	0,1	0,620536
5,872500	0,1	0,633866
5,874167	0,1	0,600003
5,875833	0,1	0,613490
5,877500	0,1	0,626390
5,879167	0,1	0,620342
5,880833	0,1	0,635420
5,882500	0,1	0,591698
5,884167	0,1	0,575843
5,885833	0,1	0,603256
5,887500	0,1	0,584857
5,889167	0,1	0,626109
5,890833	0,1	0,607233
5,892500	0,1	0,631635
5,894167	0,1	0,619328
5,895833	0,1	0,590097
5,897500	0,1	0,641428
5,899167	0,1	0,610797
5,900833	0,1	0,579549
5,902500	0,1	0,575858
5,904167	0,1	0,605040
5,905833	0,1	0,601930
5,907500	0,1	0,606567
5,909167	0,1	0,615302
5,910833	0,1	0,579550
5,912500	0,1	0,587616
5,914167	0,1	0,572159
5,915833	0,1	0,604872
5,917500	0,1	0,598167
5,919167	0,1	0,632571
5,920833	0,1	0,588890
5,922500	0,1	0,583996
5,924167	0,1	0,597270
5,925833	0,1	0,580543
5,927500	0,1	0,572388
5,929167	0,1	0,617274
5,930833	0,1	0,613046
5,932500	0,1	0,568651
5,934167	0,1	0,571096
5,935833	0,1	0,563896
5,937500	0,1	0,589731
5,939167	0,1	0,621395
5,940833	0,1	0,590513
5,942500	0,1	0,555689
5,944167	0,1	0,565384
5,945833	0,1	0,574855
5,947500	0,1	0,577853
5,949167	0,1	0,567397
5,950833	0,1	0,602566
5,952500	0,1	0,609066
5,954167	0,1	0,530195
5,955833	0,1	0,566679
5,957500	0,1	0,575637
5,959167	0,1	0,613944
5,960833	0,1	0,572979
5,962500	0,1	0,615842
5,964167	0,1	0,537581
5,965833	0,1	0,560479
5,967500	0,1	0,574194
5,969167	0,1	0,561441
5,970833	0,1	0,586720
5,972500	0,1	0,582398
5,974167	0,1	0,594496
5,975833	0,1	0,549164
5,977500	0,1	0,569034
5,979167	0,1	0,563066
5,980833	0,1	0,539977
5,982500	0,1	0,560878
5,984167	0,1	0,614631
5,985833	0,1	0,556506
5,987500	0,1	0,542094
5,989167	0,1	0,565410
5,990833	0,1	0,568270
5,992500	0,1	0,564463
5,994167	0,1	0,561160
5,995833	0,1	0,598051
5,997500	0,1	0,539157
5,999167	0,1	0,561631
6,000833	0,1	0,563401
