File Path	chrom://chromeleon01/ikbm_chromeleon/2022/Rezex/Esteban/220612_chitin_4_7.seq/966.smp/UV_VIS_1.channel/UV_VIS_1.chm
Channel	UV_VIS_1

Injection Information:
Data Vault	ikbm_chromeleon
Injection	CelS2_00h-EGS_NA
Injection Number	121
Position	BC7
Comment	
Processing Method	New ProcMethod
Instrument Method	Short_Rezex_6min_194nm
Type	Unknown
Status	Finished
Injection Date	13.06.2022
Injection Time	06:11:19
Injection Volume (µl)	8,000
Dilution Factor	1,0000
Weight	1,0000

Chromatogram Data Information:
Time Min. (min)	0,000833
Time Max. (min)	6,000833
Data Points	3601
Detector	UV
Generating Data System	Chromeleon 7.2.9.11323
Exporting Data System	Chromeleon 7.2.9.0
Operator	Instrument Controller
Signal Quantity	Absorbance
Signal Unit	mAU
Signal Min.	-0,098078
Signal Max.	35,778482
Channel	UV_VIS_1
Driver Name	VWD3000.dll
Channel Type	Evaluation
Min. Step (s)	0,1
Max. Step (s)	0,1
Average Step (s)	0,1

Signal Parameter Information:
Signal Info	WVL:194 nm

Chromatogram Data:
Time (min)	Step (s)	Value (mAU)
0,000833	n.a.	-0,004369
0,002500	0,1	-0,025644
0,004167	0,1	-0,024489
0,005833	0,1	0,002452
0,007500	0,1	-0,021336
0,009167	0,1	-0,009840
0,010833	0,1	-0,006294
0,012500	0,1	-0,009609
0,014167	0,1	-0,018009
0,015833	0,1	-0,029252
0,017500	0,1	-0,021038
0,019167	0,1	-0,008618
0,020833	0,1	-0,039298
0,022500	0,1	-0,009509
0,024167	0,1	-0,018651
0,025833	0,1	-0,028580
0,027500	0,1	-0,033300
0,029167	0,1	-0,082382
0,030833	0,1	-0,057153
0,032500	0,1	-0,034162
0,034167	0,1	-0,058822
0,035833	0,1	-0,082802
0,037500	0,1	-0,067110
0,039167	0,1	-0,074344
0,040833	0,1	-0,074894
0,042500	0,1	-0,081584
0,044167	0,1	-0,098078
0,045833	0,1	-0,042556
0,047500	0,1	-0,027364
0,049167	0,1	-0,089053
0,050833	0,1	-0,030107
0,052500	0,1	-0,046817
0,054167	0,1	-0,019132
0,055833	0,1	-0,040981
0,057500	0,1	-0,058884
0,059167	0,1	0,000916
0,060833	0,1	-0,006461
0,062500	0,1	-0,053530
0,064167	0,1	-0,034880
0,065833	0,1	-0,025254
0,067500	0,1	-0,015447
0,069167	0,1	-0,030151
0,070833	0,1	-0,047198
0,072500	0,1	-0,049692
0,074167	0,1	-0,037153
0,075833	0,1	-0,038769
0,077500	0,1	-0,023437
0,079167	0,1	-0,006344
0,080833	0,1	-0,031479
0,082500	0,1	-0,025895
0,084167	0,1	-0,036431
0,085833	0,1	-0,014747
0,087500	0,1	0,036104
0,089167	0,1	-0,026337
0,090833	0,1	0,009263
0,092500	0,1	-0,007191
0,094167	0,1	-0,031815
0,095833	0,1	0,012073
0,097500	0,1	-0,009543
0,099167	0,1	0,005313
0,100833	0,1	0,053887
0,102500	0,1	0,009116
0,104167	0,1	0,020378
0,105833	0,1	0,029467
0,107500	0,1	-0,025345
0,109167	0,1	-0,016194
0,110833	0,1	-0,018636
0,112500	0,1	-0,046814
0,114167	0,1	-0,022172
0,115833	0,1	-0,052052
0,117500	0,1	-0,075730
0,119167	0,1	-0,009273
0,120833	0,1	0,011772
0,122500	0,1	-0,041660
0,124167	0,1	-0,008243
0,125833	0,1	-0,010020
0,127500	0,1	-0,020392
0,129167	0,1	-0,036383
0,130833	0,1	-0,063418
0,132500	0,1	-0,027841
0,134167	0,1	-0,061033
0,135833	0,1	-0,046991
0,137500	0,1	0,002922
0,139167	0,1	-0,029033
0,140833	0,1	-0,005780
0,142500	0,1	-0,014221
0,144167	0,1	-0,022209
0,145833	0,1	-0,043958
0,147500	0,1	-0,009862
0,149167	0,1	-0,029661
0,150833	0,1	0,014379
0,152500	0,1	-0,018598
0,154167	0,1	-0,024365
0,155833	0,1	0,003674
0,157500	0,1	0,009991
0,159167	0,1	-0,017072
0,160833	0,1	0,001830
0,162500	0,1	-0,003451
0,164167	0,1	0,033126
0,165833	0,1	-0,031758
0,167500	0,1	-0,010026
0,169167	0,1	-0,000093
0,170833	0,1	0,019594
0,172500	0,1	0,021174
0,174167	0,1	0,017675
0,175833	0,1	0,024536
0,177500	0,1	0,005505
0,179167	0,1	0,022363
0,180833	0,1	0,005688
0,182500	0,1	0,052831
0,184167	0,1	0,033493
0,185833	0,1	0,007659
0,187500	0,1	0,038657
0,189167	0,1	-0,018745
0,190833	0,1	-0,015246
0,192500	0,1	-0,003776
0,194167	0,1	0,020603
0,195833	0,1	0,021769
0,197500	0,1	0,037534
0,199167	0,1	-0,023588
0,200833	0,1	-0,001793
0,202500	0,1	-0,000872
0,204167	0,1	-0,030867
0,205833	0,1	0,004483
0,207500	0,1	0,005912
0,209167	0,1	0,021063
0,210833	0,1	0,051279
0,212500	0,1	0,000747
0,214167	0,1	0,005331
0,215833	0,1	-0,004060
0,217500	0,1	-0,016114
0,219167	0,1	0,001752
0,220833	0,1	-0,019670
0,222500	0,1	-0,018683
0,224167	0,1	0,016170
0,225833	0,1	0,026013
0,227500	0,1	0,014119
0,229167	0,1	-0,003067
0,230833	0,1	0,022177
0,232500	0,1	0,007490
0,234167	0,1	-0,013865
0,235833	0,1	-0,011596
0,237500	0,1	0,038379
0,239167	0,1	0,014032
0,240833	0,1	-0,041736
0,242500	0,1	0,037715
0,244167	0,1	0,004012
0,245833	0,1	0,021019
0,247500	0,1	0,035637
0,249167	0,1	0,020825
0,250833	0,1	0,050349
0,252500	0,1	0,034379
0,254167	0,1	-0,000846
0,255833	0,1	0,006491
0,257500	0,1	-0,000412
0,259167	0,1	0,016923
0,260833	0,1	0,015248
0,262500	0,1	0,039257
0,264167	0,1	-0,018928
0,265833	0,1	0,036348
0,267500	0,1	-0,004802
0,269167	0,1	-0,008369
0,270833	0,1	0,021243
0,272500	0,1	0,034019
0,274167	0,1	0,015296
0,275833	0,1	0,022059
0,277500	0,1	0,015585
0,279167	0,1	0,011338
0,280833	0,1	0,033437
0,282500	0,1	0,019559
0,284167	0,1	-0,017239
0,285833	0,1	0,032896
0,287500	0,1	0,054139
0,289167	0,1	0,012522
0,290833	0,1	0,063178
0,292500	0,1	0,031982
0,294167	0,1	0,009601
0,295833	0,1	0,004507
0,297500	0,1	-0,028666
0,299167	0,1	0,000299
0,300833	0,1	0,005147
0,302500	0,1	0,015519
0,304167	0,1	0,031513
0,305833	0,1	0,047398
0,307500	0,1	0,042365
0,309167	0,1	0,020599
0,310833	0,1	0,031867
0,312500	0,1	0,003078
0,314167	0,1	0,017029
0,315833	0,1	0,058838
0,317500	0,1	0,029249
0,319167	0,1	-0,001719
0,320833	0,1	0,052038
0,322500	0,1	0,026926
0,324167	0,1	0,017878
0,325833	0,1	0,024457
0,327500	0,1	0,029161
0,329167	0,1	0,019328
0,330833	0,1	0,017613
0,332500	0,1	0,051033
0,334167	0,1	0,034106
0,335833	0,1	-0,007719
0,337500	0,1	0,070107
0,339167	0,1	0,038215
0,340833	0,1	0,024952
0,342500	0,1	0,060139
0,344167	0,1	0,082207
0,345833	0,1	0,021495
0,347500	0,1	0,022349
0,349167	0,1	0,075247
0,350833	0,1	-0,011085
0,352500	0,1	0,071678
0,354167	0,1	0,087115
0,355833	0,1	0,013921
0,357500	0,1	0,058519
0,359167	0,1	0,012234
0,360833	0,1	0,033130
0,362500	0,1	0,034145
0,364167	0,1	0,034725
0,365833	0,1	0,023592
0,367500	0,1	0,031745
0,369167	0,1	0,038206
0,370833	0,1	0,053684
0,372500	0,1	0,011636
0,374167	0,1	0,033483
0,375833	0,1	0,074546
0,377500	0,1	0,045457
0,379167	0,1	0,050828
0,380833	0,1	0,029554
0,382500	0,1	0,022765
0,384167	0,1	0,075370
0,385833	0,1	0,079398
0,387500	0,1	0,023112
0,389167	0,1	0,067257
0,390833	0,1	0,025312
0,392500	0,1	0,038879
0,394167	0,1	0,040500
0,395833	0,1	0,041433
0,397500	0,1	0,039675
0,399167	0,1	0,067445
0,400833	0,1	0,063710
0,402500	0,1	0,017473
0,404167	0,1	0,041628
0,405833	0,1	0,014551
0,407500	0,1	0,029650
0,409167	0,1	0,030737
0,410833	0,1	0,026234
0,412500	0,1	0,046228
0,414167	0,1	0,002807
0,415833	0,1	0,043180
0,417500	0,1	0,031185
0,419167	0,1	0,073755
0,420833	0,1	0,026489
0,422500	0,1	0,044838
0,424167	0,1	0,074996
0,425833	0,1	0,045368
0,427500	0,1	0,050828
0,429167	0,1	0,059399
0,430833	0,1	0,049855
0,432500	0,1	0,066226
0,434167	0,1	0,048512
0,435833	0,1	0,041251
0,437500	0,1	0,026448
0,439167	0,1	0,069017
0,440833	0,1	0,044357
0,442500	0,1	0,087485
0,444167	0,1	0,090353
0,445833	0,1	0,070999
0,447500	0,1	0,036904
0,449167	0,1	0,053895
0,450833	0,1	0,074445
0,452500	0,1	0,080428
0,454167	0,1	0,094237
0,455833	0,1	0,037597
0,457500	0,1	0,055501
0,459167	0,1	0,081548
0,460833	0,1	0,061804
0,462500	0,1	0,047624
0,464167	0,1	0,065814
0,465833	0,1	0,092272
0,467500	0,1	0,087269
0,469167	0,1	0,074287
0,470833	0,1	0,041212
0,472500	0,1	0,045817
0,474167	0,1	0,051242
0,475833	0,1	0,037007
0,477500	0,1	0,053349
0,479167	0,1	0,047579
0,480833	0,1	0,075684
0,482500	0,1	0,059194
0,484167	0,1	0,033527
0,485833	0,1	0,072288
0,487500	0,1	0,071533
0,489167	0,1	0,074783
0,490833	0,1	0,048699
0,492500	0,1	0,040030
0,494167	0,1	0,059765
0,495833	0,1	0,035726
0,497500	0,1	0,073448
0,499167	0,1	0,068218
0,500833	0,1	0,073061
0,502500	0,1	0,078195
0,504167	0,1	0,116612
0,505833	0,1	0,050661
0,507500	0,1	0,064532
0,509167	0,1	0,047440
0,510833	0,1	0,089640
0,512500	0,1	0,086187
0,514167	0,1	0,057544
0,515833	0,1	0,099513
0,517500	0,1	0,066591
0,519167	0,1	0,081356
0,520833	0,1	0,132963
0,522500	0,1	0,068585
0,524167	0,1	0,070372
0,525833	0,1	0,073184
0,527500	0,1	0,077719
0,529167	0,1	0,085772
0,530833	0,1	0,074867
0,532500	0,1	0,097917
0,534167	0,1	0,080064
0,535833	0,1	0,050363
0,537500	0,1	0,071773
0,539167	0,1	0,117148
0,540833	0,1	0,070840
0,542500	0,1	0,057329
0,544167	0,1	0,086548
0,545833	0,1	0,098273
0,547500	0,1	0,091366
0,549167	0,1	0,071748
0,550833	0,1	0,037758
0,552500	0,1	0,077500
0,554167	0,1	0,115513
0,555833	0,1	0,094595
0,557500	0,1	0,077205
0,559167	0,1	0,030263
0,560833	0,1	0,062495
0,562500	0,1	0,082930
0,564167	0,1	0,103780
0,565833	0,1	0,104155
0,567500	0,1	0,129347
0,569167	0,1	0,113909
0,570833	0,1	0,080813
0,572500	0,1	0,077678
0,574167	0,1	0,085526
0,575833	0,1	0,079973
0,577500	0,1	0,103861
0,579167	0,1	0,140774
0,580833	0,1	0,077385
0,582500	0,1	0,097338
0,584167	0,1	0,080203
0,585833	0,1	0,142299
0,587500	0,1	0,102926
0,589167	0,1	0,102670
0,590833	0,1	0,087431
0,592500	0,1	0,110050
0,594167	0,1	0,082403
0,595833	0,1	0,127541
0,597500	0,1	0,092550
0,599167	0,1	0,132471
0,600833	0,1	0,069016
0,602500	0,1	0,125802
0,604167	0,1	0,084394
0,605833	0,1	0,133193
0,607500	0,1	0,109357
0,609167	0,1	0,128707
0,610833	0,1	0,073795
0,612500	0,1	0,113176
0,614167	0,1	0,107304
0,615833	0,1	0,075925
0,617500	0,1	0,144555
0,619167	0,1	0,102988
0,620833	0,1	0,129180
0,622500	0,1	0,139909
0,624167	0,1	0,143514
0,625833	0,1	0,130658
0,627500	0,1	0,157774
0,629167	0,1	0,115533
0,630833	0,1	0,167707
0,632500	0,1	0,144307
0,634167	0,1	0,131300
0,635833	0,1	0,140342
0,637500	0,1	0,121262
0,639167	0,1	0,138250
0,640833	0,1	0,093486
0,642500	0,1	0,179562
0,644167	0,1	0,085813
0,645833	0,1	0,158922
0,647500	0,1	0,109408
0,649167	0,1	0,094885
0,650833	0,1	0,115291
0,652500	0,1	0,134151
0,654167	0,1	0,116127
0,655833	0,1	0,125209
0,657500	0,1	0,125458
0,659167	0,1	0,146572
0,660833	0,1	0,166390
0,662500	0,1	0,129153
0,664167	0,1	0,124176
0,665833	0,1	0,112440
0,667500	0,1	0,173998
0,669167	0,1	0,149689
0,670833	0,1	0,151278
0,672500	0,1	0,122338
0,674167	0,1	0,147917
0,675833	0,1	0,135731
0,677500	0,1	0,169738
0,679167	0,1	0,195977
0,680833	0,1	0,162219
0,682500	0,1	0,174652
0,684167	0,1	0,153271
0,685833	0,1	0,192495
0,687500	0,1	0,176191
0,689167	0,1	0,137515
0,690833	0,1	0,141380
0,692500	0,1	0,194563
0,694167	0,1	0,192443
0,695833	0,1	0,155510
0,697500	0,1	0,149850
0,699167	0,1	0,147467
0,700833	0,1	0,182101
0,702500	0,1	0,204820
0,704167	0,1	0,174994
0,705833	0,1	0,126712
0,707500	0,1	0,186753
0,709167	0,1	0,153128
0,710833	0,1	0,174836
0,712500	0,1	0,187261
0,714167	0,1	0,181262
0,715833	0,1	0,210780
0,717500	0,1	0,203997
0,719167	0,1	0,197828
0,720833	0,1	0,228941
0,722500	0,1	0,193961
0,724167	0,1	0,243662
0,725833	0,1	0,225805
0,727500	0,1	0,236548
0,729167	0,1	0,221704
0,730833	0,1	0,200046
0,732500	0,1	0,222255
0,734167	0,1	0,245719
0,735833	0,1	0,209017
0,737500	0,1	0,228158
0,739167	0,1	0,221227
0,740833	0,1	0,267269
0,742500	0,1	0,224736
0,744167	0,1	0,238823
0,745833	0,1	0,257794
0,747500	0,1	0,256309
0,749167	0,1	0,266784
0,750833	0,1	0,253970
0,752500	0,1	0,242000
0,754167	0,1	0,228624
0,755833	0,1	0,259984
0,757500	0,1	0,247136
0,759167	0,1	0,229928
0,760833	0,1	0,248992
0,762500	0,1	0,255042
0,764167	0,1	0,265476
0,765833	0,1	0,245854
0,767500	0,1	0,215972
0,769167	0,1	0,231453
0,770833	0,1	0,246839
0,772500	0,1	0,233841
0,774167	0,1	0,206156
0,775833	0,1	0,242483
0,777500	0,1	0,247028
0,779167	0,1	0,223861
0,780833	0,1	0,225885
0,782500	0,1	0,256546
0,784167	0,1	0,267363
0,785833	0,1	0,255521
0,787500	0,1	0,247548
0,789167	0,1	0,236635
0,790833	0,1	0,260836
0,792500	0,1	0,207220
0,794167	0,1	0,250559
0,795833	0,1	0,239721
0,797500	0,1	0,253465
0,799167	0,1	0,213574
0,800833	0,1	0,203213
0,802500	0,1	0,243147
0,804167	0,1	0,239699
0,805833	0,1	0,249882
0,807500	0,1	0,199826
0,809167	0,1	0,245733
0,810833	0,1	0,233363
0,812500	0,1	0,219054
0,814167	0,1	0,227083
0,815833	0,1	0,210296
0,817500	0,1	0,256895
0,819167	0,1	0,235354
0,820833	0,1	0,227647
0,822500	0,1	0,201622
0,824167	0,1	0,233457
0,825833	0,1	0,184751
0,827500	0,1	0,256268
0,829167	0,1	0,204465
0,830833	0,1	0,240557
0,832500	0,1	0,275538
0,834167	0,1	0,229748
0,835833	0,1	0,187026
0,837500	0,1	0,232190
0,839167	0,1	0,236320
0,840833	0,1	0,253362
0,842500	0,1	0,233054
0,844167	0,1	0,269159
0,845833	0,1	0,219229
0,847500	0,1	0,255180
0,849167	0,1	0,243988
0,850833	0,1	0,249968
0,852500	0,1	0,233633
0,854167	0,1	0,241704
0,855833	0,1	0,230297
0,857500	0,1	0,259281
0,859167	0,1	0,271795
0,860833	0,1	0,228195
0,862500	0,1	0,246215
0,864167	0,1	0,219224
0,865833	0,1	0,261391
0,867500	0,1	0,252311
0,869167	0,1	0,237671
0,870833	0,1	0,236633
0,872500	0,1	0,245886
0,874167	0,1	0,238210
0,875833	0,1	0,234645
0,877500	0,1	0,218164
0,879167	0,1	0,268347
0,880833	0,1	0,243327
0,882500	0,1	0,221914
0,884167	0,1	0,240067
0,885833	0,1	0,219304
0,887500	0,1	0,257540
0,889167	0,1	0,231545
0,890833	0,1	0,272804
0,892500	0,1	0,283414
0,894167	0,1	0,270000
0,895833	0,1	0,261611
0,897500	0,1	0,230282
0,899167	0,1	0,261393
0,900833	0,1	0,238874
0,902500	0,1	0,278975
0,904167	0,1	0,235506
0,905833	0,1	0,233236
0,907500	0,1	0,272680
0,909167	0,1	0,242522
0,910833	0,1	0,274545
0,912500	0,1	0,256643
0,914167	0,1	0,309625
0,915833	0,1	0,265864
0,917500	0,1	0,238483
0,919167	0,1	0,285269
0,920833	0,1	0,255071
0,922500	0,1	0,265669
0,924167	0,1	0,289769
0,925833	0,1	0,292325
0,927500	0,1	0,255590
0,929167	0,1	0,316539
0,930833	0,1	0,267978
0,932500	0,1	0,304142
0,934167	0,1	0,302138
0,935833	0,1	0,280955
0,937500	0,1	0,300231
0,939167	0,1	0,294042
0,940833	0,1	0,283520
0,942500	0,1	0,286210
0,944167	0,1	0,344401
0,945833	0,1	0,312026
0,947500	0,1	0,316246
0,949167	0,1	0,334613
0,950833	0,1	0,328943
0,952500	0,1	0,307758
0,954167	0,1	0,299908
0,955833	0,1	0,332520
0,957500	0,1	0,318881
0,959167	0,1	0,349733
0,960833	0,1	0,336876
0,962500	0,1	0,346879
0,964167	0,1	0,383125
0,965833	0,1	0,322285
0,967500	0,1	0,333559
0,969167	0,1	0,366555
0,970833	0,1	0,369144
0,972500	0,1	0,356228
0,974167	0,1	0,384587
0,975833	0,1	0,349937
0,977500	0,1	0,369190
0,979167	0,1	0,415045
0,980833	0,1	0,363764
0,982500	0,1	0,395580
0,984167	0,1	0,407988
0,985833	0,1	0,422027
0,987500	0,1	0,366185
0,989167	0,1	0,417700
0,990833	0,1	0,414955
0,992500	0,1	0,360154
0,994167	0,1	0,429973
0,995833	0,1	0,407127
0,997500	0,1	0,429885
0,999167	0,1	0,458144
1,000833	0,1	0,468777
1,002500	0,1	0,470390
1,004167	0,1	0,523883
1,005833	0,1	0,504248
1,007500	0,1	0,430035
1,009167	0,1	0,549276
1,010833	0,1	0,468094
1,012500	0,1	0,508596
1,014167	0,1	0,521062
1,015833	0,1	0,492418
1,017500	0,1	0,533622
1,019167	0,1	0,566515
1,020833	0,1	0,507435
1,022500	0,1	0,565092
1,024167	0,1	0,600754
1,025833	0,1	0,584608
1,027500	0,1	0,562638
1,029167	0,1	0,597319
1,030833	0,1	0,593605
1,032500	0,1	0,612455
1,034167	0,1	0,601440
1,035833	0,1	0,668734
1,037500	0,1	0,612247
1,039167	0,1	0,654311
1,040833	0,1	0,642564
1,042500	0,1	0,651782
1,044167	0,1	0,667525
1,045833	0,1	0,686932
1,047500	0,1	0,705633
1,049167	0,1	0,707211
1,050833	0,1	0,757108
1,052500	0,1	0,754452
1,054167	0,1	0,789857
1,055833	0,1	0,801534
1,057500	0,1	0,831453
1,059167	0,1	0,866719
1,060833	0,1	0,995170
1,062500	0,1	1,101237
1,064167	0,1	1,250201
1,065833	0,1	1,397300
1,067500	0,1	1,589883
1,069167	0,1	1,871149
1,070833	0,1	2,181007
1,072500	0,1	2,610968
1,074167	0,1	3,167991
1,075833	0,1	3,818424
1,077500	0,1	4,551063
1,079167	0,1	5,370619
1,080833	0,1	6,387297
1,082500	0,1	7,520067
1,084167	0,1	8,780127
1,085833	0,1	10,189898
1,087500	0,1	11,770996
1,089167	0,1	13,453625
1,090833	0,1	15,150082
1,092500	0,1	16,972500
1,094167	0,1	18,836838
1,095833	0,1	20,776203
1,097500	0,1	22,607200
1,099167	0,1	24,417865
1,100833	0,1	26,236417
1,102500	0,1	27,906327
1,104167	0,1	29,442916
1,105833	0,1	30,856065
1,107500	0,1	32,121701
1,109167	0,1	33,209739
1,110833	0,1	34,093090
1,112500	0,1	34,787568
1,114167	0,1	35,284449
1,115833	0,1	35,611504
1,117500	0,1	35,778482
1,119167	0,1	35,685173
1,120833	0,1	35,514161
1,122500	0,1	35,161040
1,124167	0,1	34,590649
1,125833	0,1	33,946126
1,127500	0,1	33,201868
1,129167	0,1	32,337124
1,130833	0,1	31,433992
1,132500	0,1	30,359370
1,134167	0,1	29,265446
1,135833	0,1	28,180064
1,137500	0,1	26,959218
1,139167	0,1	25,792931
1,140833	0,1	24,647895
1,142500	0,1	23,452526
1,144167	0,1	22,264134
1,145833	0,1	21,116515
1,147500	0,1	20,015129
1,149167	0,1	18,918605
1,150833	0,1	17,866045
1,152500	0,1	16,893781
1,154167	0,1	15,924254
1,155833	0,1	14,998303
1,157500	0,1	14,133560
1,159167	0,1	13,312510
1,160833	0,1	12,567015
1,162500	0,1	11,830118
1,164167	0,1	11,145962
1,165833	0,1	10,522188
1,167500	0,1	10,011977
1,169167	0,1	9,447829
1,170833	0,1	8,997567
1,172500	0,1	8,501413
1,174167	0,1	8,091764
1,175833	0,1	7,703173
1,177500	0,1	7,351362
1,179167	0,1	7,029478
1,180833	0,1	6,697496
1,182500	0,1	6,392149
1,184167	0,1	6,141152
1,185833	0,1	5,864399
1,187500	0,1	5,656098
1,189167	0,1	5,475656
1,190833	0,1	5,300450
1,192500	0,1	5,087922
1,194167	0,1	4,930318
1,195833	0,1	4,823355
1,197500	0,1	4,685794
1,199167	0,1	4,582268
1,200833	0,1	4,424535
1,202500	0,1	4,314668
1,204167	0,1	4,237581
1,205833	0,1	4,123087
1,207500	0,1	4,033461
1,209167	0,1	3,980271
1,210833	0,1	3,927684
1,212500	0,1	3,843178
1,214167	0,1	3,745882
1,215833	0,1	3,755281
1,217500	0,1	3,705046
1,219167	0,1	3,601996
1,220833	0,1	3,576492
1,222500	0,1	3,565590
1,224167	0,1	3,498276
1,225833	0,1	3,511246
1,227500	0,1	3,469623
1,229167	0,1	3,418015
1,230833	0,1	3,372879
1,232500	0,1	3,364901
1,234167	0,1	3,344630
1,235833	0,1	3,267077
1,237500	0,1	3,294262
1,239167	0,1	3,281912
1,240833	0,1	3,260883
1,242500	0,1	3,259323
1,244167	0,1	3,233925
1,245833	0,1	3,156089
1,247500	0,1	3,173079
1,249167	0,1	3,133127
1,250833	0,1	3,146957
1,252500	0,1	3,115962
1,254167	0,1	3,072292
1,255833	0,1	3,071049
1,257500	0,1	3,069111
1,259167	0,1	3,014351
1,260833	0,1	3,005581
1,262500	0,1	2,985630
1,264167	0,1	2,949753
1,265833	0,1	2,961654
1,267500	0,1	2,916522
1,269167	0,1	2,897773
1,270833	0,1	2,965084
1,272500	0,1	2,908032
1,274167	0,1	2,907891
1,275833	0,1	2,882208
1,277500	0,1	2,865318
1,279167	0,1	2,871709
1,280833	0,1	2,858011
1,282500	0,1	2,831976
1,284167	0,1	2,811512
1,285833	0,1	2,755494
1,287500	0,1	2,776859
1,289167	0,1	2,832299
1,290833	0,1	2,762937
1,292500	0,1	2,728574
1,294167	0,1	2,700031
1,295833	0,1	2,777262
1,297500	0,1	2,699815
1,299167	0,1	2,711483
1,300833	0,1	2,685387
1,302500	0,1	2,657619
1,304167	0,1	2,714985
1,305833	0,1	2,649462
1,307500	0,1	2,662720
1,309167	0,1	2,626916
1,310833	0,1	2,668439
1,312500	0,1	2,612730
1,314167	0,1	2,621893
1,315833	0,1	2,613291
1,317500	0,1	2,587693
1,319167	0,1	2,568172
1,320833	0,1	2,559367
1,322500	0,1	2,531968
1,324167	0,1	2,532822
1,325833	0,1	2,476475
1,327500	0,1	2,500116
1,329167	0,1	2,523059
1,330833	0,1	2,537122
1,332500	0,1	2,472321
1,334167	0,1	2,514024
1,335833	0,1	2,470304
1,337500	0,1	2,479397
1,339167	0,1	2,478681
1,340833	0,1	2,451161
1,342500	0,1	2,417537
1,344167	0,1	2,422615
1,345833	0,1	2,460677
1,347500	0,1	2,389014
1,349167	0,1	2,374949
1,350833	0,1	2,383402
1,352500	0,1	2,404547
1,354167	0,1	2,401469
1,355833	0,1	2,355459
1,357500	0,1	2,367487
1,359167	0,1	2,327718
1,360833	0,1	2,332294
1,362500	0,1	2,348705
1,364167	0,1	2,327498
1,365833	0,1	2,331147
1,367500	0,1	2,343904
1,369167	0,1	2,300624
1,370833	0,1	2,282129
1,372500	0,1	2,291078
1,374167	0,1	2,312723
1,375833	0,1	2,246878
1,377500	0,1	2,270291
1,379167	0,1	2,263060
1,380833	0,1	2,296737
1,382500	0,1	2,277328
1,384167	0,1	2,288788
1,385833	0,1	2,242074
1,387500	0,1	2,249872
1,389167	0,1	2,261338
1,390833	0,1	2,234543
1,392500	0,1	2,219636
1,394167	0,1	2,220927
1,395833	0,1	2,219993
1,397500	0,1	2,250872
1,399167	0,1	2,219924
1,400833	0,1	2,204305
1,402500	0,1	2,267345
1,404167	0,1	2,184680
1,405833	0,1	2,195625
1,407500	0,1	2,183088
1,409167	0,1	2,180798
1,410833	0,1	2,227289
1,412500	0,1	2,189332
1,414167	0,1	2,220777
1,415833	0,1	2,177865
1,417500	0,1	2,179293
1,419167	0,1	2,166826
1,420833	0,1	2,201359
1,422500	0,1	2,141474
1,424167	0,1	2,193683
1,425833	0,1	2,158022
1,427500	0,1	2,147552
1,429167	0,1	2,153930
1,430833	0,1	2,137307
1,432500	0,1	2,146616
1,434167	0,1	2,154135
1,435833	0,1	2,151849
1,437500	0,1	2,104497
1,439167	0,1	2,128985
1,440833	0,1	2,144610
1,442500	0,1	2,092107
1,444167	0,1	2,098252
1,445833	0,1	2,158651
1,447500	0,1	2,129436
1,449167	0,1	2,105146
1,450833	0,1	2,118748
1,452500	0,1	2,094044
1,454167	0,1	2,126339
1,455833	0,1	2,102275
1,457500	0,1	2,120893
1,459167	0,1	2,118107
1,460833	0,1	2,096915
1,462500	0,1	2,050554
1,464167	0,1	2,090724
1,465833	0,1	2,077202
1,467500	0,1	2,026422
1,469167	0,1	2,059713
1,470833	0,1	2,063296
1,472500	0,1	2,073324
1,474167	0,1	2,042393
1,475833	0,1	2,033713
1,477500	0,1	2,044246
1,479167	0,1	2,058928
1,480833	0,1	2,066589
1,482500	0,1	2,053496
1,484167	0,1	2,017310
1,485833	0,1	2,066238
1,487500	0,1	2,041390
1,489167	0,1	2,037377
1,490833	0,1	2,050266
1,492500	0,1	2,064378
1,494167	0,1	2,038729
1,495833	0,1	2,041008
1,497500	0,1	2,065155
1,499167	0,1	2,062805
1,500833	0,1	2,070901
1,502500	0,1	2,059654
1,504167	0,1	2,063092
1,505833	0,1	2,082563
1,507500	0,1	2,043039
1,509167	0,1	2,082213
1,510833	0,1	2,040457
1,512500	0,1	2,055200
1,514167	0,1	2,074030
1,515833	0,1	2,073397
1,517500	0,1	2,070248
1,519167	0,1	2,092018
1,520833	0,1	2,089163
1,522500	0,1	2,093749
1,524167	0,1	2,109932
1,525833	0,1	2,076551
1,527500	0,1	2,071397
1,529167	0,1	2,114942
1,530833	0,1	2,100842
1,532500	0,1	2,100556
1,534167	0,1	2,121681
1,535833	0,1	2,120468
1,537500	0,1	2,117536
1,539167	0,1	2,101779
1,540833	0,1	2,118026
1,542500	0,1	2,109373
1,544167	0,1	2,095110
1,545833	0,1	2,154990
1,547500	0,1	2,118622
1,549167	0,1	2,139382
1,550833	0,1	2,153349
1,552500	0,1	2,114885
1,554167	0,1	2,118317
1,555833	0,1	2,111086
1,557500	0,1	2,110510
1,559167	0,1	2,124833
1,560833	0,1	2,147473
1,562500	0,1	2,091889
1,564167	0,1	2,145248
1,565833	0,1	2,189104
1,567500	0,1	2,105080
1,569167	0,1	2,148834
1,570833	0,1	2,141029
1,572500	0,1	2,164888
1,574167	0,1	2,163607
1,575833	0,1	2,119763
1,577500	0,1	2,115881
1,579167	0,1	2,157070
1,580833	0,1	2,113100
1,582500	0,1	2,139731
1,584167	0,1	2,132505
1,585833	0,1	2,134370
1,587500	0,1	2,107145
1,589167	0,1	2,118610
1,590833	0,1	2,163593
1,592500	0,1	2,143756
1,594167	0,1	2,110085
1,595833	0,1	2,100844
1,597500	0,1	2,097263
1,599167	0,1	2,074562
1,600833	0,1	2,095528
1,602500	0,1	2,078136
1,604167	0,1	2,065808
1,605833	0,1	2,095180
1,607500	0,1	2,084867
1,609167	0,1	2,072332
1,610833	0,1	2,061787
1,612500	0,1	2,088294
1,614167	0,1	2,095400
1,615833	0,1	2,096688
1,617500	0,1	2,071039
1,619167	0,1	2,053860
1,620833	0,1	2,023123
1,622500	0,1	2,087576
1,624167	0,1	2,084509
1,625833	0,1	2,031356
1,627500	0,1	2,039015
1,629167	0,1	2,067458
1,630833	0,1	2,029215
1,632500	0,1	2,045101
1,634167	0,1	2,065952
1,635833	0,1	2,044816
1,637500	0,1	2,069256
1,639167	0,1	2,062098
1,640833	0,1	2,096035
1,642500	0,1	2,024563
1,644167	0,1	2,054768
1,645833	0,1	2,043525
1,647500	0,1	2,005070
1,649167	0,1	2,029416
1,650833	0,1	2,070401
1,652500	0,1	2,016108
1,654167	0,1	2,028348
1,655833	0,1	2,008359
1,657500	0,1	2,050252
1,659167	0,1	2,023052
1,660833	0,1	2,024036
1,662500	0,1	2,024546
1,664167	0,1	2,005724
1,665833	0,1	2,034216
1,667500	0,1	2,028550
1,669167	0,1	2,034222
1,670833	0,1	2,036934
1,672500	0,1	1,991036
1,674167	0,1	2,029771
1,675833	0,1	2,014370
1,677500	0,1	2,036380
1,679167	0,1	2,038587
1,680833	0,1	1,972497
1,682500	0,1	2,022179
1,684167	0,1	2,044537
1,685833	0,1	2,023901
1,687500	0,1	2,028917
1,689167	0,1	1,998838
1,690833	0,1	2,039363
1,692500	0,1	2,063161
1,694167	0,1	2,048988
1,695833	0,1	2,022982
1,697500	0,1	2,025268
1,699167	0,1	2,064881
1,700833	0,1	2,050202
1,702500	0,1	2,038884
1,704167	0,1	2,015394
1,705833	0,1	2,040944
1,707500	0,1	2,075045
1,709167	0,1	2,041533
1,710833	0,1	2,019758
1,712500	0,1	1,997415
1,714167	0,1	1,990741
1,715833	0,1	1,991524
1,717500	0,1	2,004777
1,719167	0,1	2,003777
1,720833	0,1	1,990958
1,722500	0,1	1,970264
1,724167	0,1	1,984212
1,725833	0,1	1,979642
1,727500	0,1	1,953297
1,729167	0,1	1,942625
1,730833	0,1	1,934230
1,732500	0,1	1,910962
1,734167	0,1	1,970253
1,735833	0,1	1,890213
1,737500	0,1	1,968175
1,739167	0,1	1,912119
1,740833	0,1	1,901438
1,742500	0,1	1,883318
1,744167	0,1	1,869645
1,745833	0,1	1,847745
1,747500	0,1	1,821536
1,749167	0,1	1,850758
1,750833	0,1	1,825194
1,752500	0,1	1,802711
1,754167	0,1	1,797046
1,755833	0,1	1,761470
1,757500	0,1	1,799267
1,759167	0,1	1,770130
1,760833	0,1	1,753837
1,762500	0,1	1,735258
1,764167	0,1	1,749815
1,765833	0,1	1,719112
1,767500	0,1	1,716308
1,769167	0,1	1,695344
1,770833	0,1	1,678527
1,772500	0,1	1,646680
1,774167	0,1	1,591149
1,775833	0,1	1,588492
1,777500	0,1	1,584067
1,779167	0,1	1,519201
1,780833	0,1	1,526993
1,782500	0,1	1,537313
1,784167	0,1	1,483987
1,785833	0,1	1,468424
1,787500	0,1	1,451972
1,789167	0,1	1,396924
1,790833	0,1	1,401146
1,792500	0,1	1,386905
1,794167	0,1	1,338935
1,795833	0,1	1,336898
1,797500	0,1	1,339798
1,799167	0,1	1,271824
1,800833	0,1	1,306063
1,802500	0,1	1,263808
1,804167	0,1	1,219518
1,805833	0,1	1,169599
1,807500	0,1	1,176530
1,809167	0,1	1,122923
1,810833	0,1	1,110470
1,812500	0,1	1,137659
1,814167	0,1	1,084105
1,815833	0,1	1,047817
1,817500	0,1	1,015762
1,819167	0,1	1,017842
1,820833	0,1	1,029088
1,822500	0,1	1,003502
1,824167	0,1	0,906558
1,825833	0,1	0,948152
1,827500	0,1	0,919970
1,829167	0,1	0,892256
1,830833	0,1	0,838257
1,832500	0,1	0,832494
1,834167	0,1	0,769958
1,835833	0,1	0,809658
1,837500	0,1	0,805234
1,839167	0,1	0,745244
1,840833	0,1	0,770935
1,842500	0,1	0,726440
1,844167	0,1	0,733497
1,845833	0,1	0,709274
1,847500	0,1	0,746636
1,849167	0,1	0,744650
1,850833	0,1	0,737615
1,852500	0,1	0,741147
1,854167	0,1	0,771382
1,855833	0,1	0,805484
1,857500	0,1	0,872945
1,859167	0,1	0,866438
1,860833	0,1	0,934671
1,862500	0,1	0,925361
1,864167	0,1	0,963168
1,865833	0,1	1,035281
1,867500	0,1	1,061217
1,869167	0,1	1,102694
1,870833	0,1	1,147034
1,872500	0,1	1,204161
1,874167	0,1	1,240156
1,875833	0,1	1,258398
1,877500	0,1	1,303996
1,879167	0,1	1,332010
1,880833	0,1	1,430361
1,882500	0,1	1,465092
1,884167	0,1	1,471078
1,885833	0,1	1,522221
1,887500	0,1	1,540105
1,889167	0,1	1,625398
1,890833	0,1	1,657683
1,892500	0,1	1,683243
1,894167	0,1	1,751321
1,895833	0,1	1,737352
1,897500	0,1	1,787667
1,899167	0,1	1,899555
1,900833	0,1	1,908533
1,902500	0,1	1,973901
1,904167	0,1	2,002985
1,905833	0,1	2,001774
1,907500	0,1	2,073958
1,909167	0,1	2,078050
1,910833	0,1	2,116727
1,912500	0,1	2,186075
1,914167	0,1	2,240543
1,915833	0,1	2,296658
1,917500	0,1	2,308353
1,919167	0,1	2,343397
1,920833	0,1	2,379740
1,922500	0,1	2,438592
1,924167	0,1	2,470289
1,925833	0,1	2,502416
1,927500	0,1	2,515541
1,929167	0,1	2,592469
1,930833	0,1	2,617947
1,932500	0,1	2,670093
1,934167	0,1	2,721877
1,935833	0,1	2,713937
1,937500	0,1	2,753599
1,939167	0,1	2,790334
1,940833	0,1	2,839819
1,942500	0,1	2,868844
1,944167	0,1	2,879743
1,945833	0,1	2,954236
1,947500	0,1	2,904632
1,949167	0,1	2,985617
1,950833	0,1	3,026406
1,952500	0,1	3,066666
1,954167	0,1	3,064466
1,955833	0,1	3,137535
1,957500	0,1	3,215918
1,959167	0,1	3,198766
1,960833	0,1	3,223033
1,962500	0,1	3,280889
1,964167	0,1	3,333564
1,965833	0,1	3,366660
1,967500	0,1	3,419777
1,969167	0,1	3,423727
1,970833	0,1	3,506625
1,972500	0,1	3,532065
1,974167	0,1	3,563694
1,975833	0,1	3,596272
1,977500	0,1	3,665986
1,979167	0,1	3,706319
1,980833	0,1	3,734927
1,982500	0,1	3,754967
1,984167	0,1	3,845852
1,985833	0,1	3,882893
1,987500	0,1	3,906360
1,989167	0,1	3,962351
1,990833	0,1	3,994892
1,992500	0,1	4,018001
1,994167	0,1	4,072648
1,995833	0,1	4,152145
1,997500	0,1	4,209162
1,999167	0,1	4,237270
2,000833	0,1	4,321632
2,002500	0,1	4,341529
2,004167	0,1	4,401309
2,005833	0,1	4,442436
2,007500	0,1	4,508027
2,009167	0,1	4,504603
2,010833	0,1	4,545518
2,012500	0,1	4,659626
2,014167	0,1	4,700228
2,015833	0,1	4,747569
2,017500	0,1	4,782118
2,019167	0,1	4,853926
2,020833	0,1	4,879643
2,022500	0,1	4,932812
2,024167	0,1	4,975815
2,025833	0,1	5,028471
2,027500	0,1	5,104755
2,029167	0,1	5,140054
2,030833	0,1	5,197611
2,032500	0,1	5,229833
2,034167	0,1	5,273993
2,035833	0,1	5,364154
2,037500	0,1	5,370165
2,039167	0,1	5,418202
2,040833	0,1	5,456761
2,042500	0,1	5,504535
2,044167	0,1	5,577035
2,045833	0,1	5,635537
2,047500	0,1	5,635918
2,049167	0,1	5,716446
2,050833	0,1	5,718935
2,052500	0,1	5,793148
2,054167	0,1	5,826297
2,055833	0,1	5,884830
2,057500	0,1	5,881912
2,059167	0,1	5,941419
2,060833	0,1	5,974566
2,062500	0,1	5,998534
2,064167	0,1	6,012516
2,065833	0,1	6,105606
2,067500	0,1	6,157587
2,069167	0,1	6,127239
2,070833	0,1	6,174272
2,072500	0,1	6,190018
2,074167	0,1	6,242169
2,075833	0,1	6,257250
2,077500	0,1	6,254255
2,079167	0,1	6,328284
2,080833	0,1	6,315055
2,082500	0,1	6,408074
2,084167	0,1	6,396491
2,085833	0,1	6,453668
2,087500	0,1	6,442805
2,089167	0,1	6,465600
2,090833	0,1	6,484938
2,092500	0,1	6,522240
2,094167	0,1	6,536785
2,095833	0,1	6,511562
2,097500	0,1	6,552846
2,099167	0,1	6,564777
2,100833	0,1	6,598771
2,102500	0,1	6,601549
2,104167	0,1	6,556855
2,105833	0,1	6,624047
2,107500	0,1	6,627433
2,109167	0,1	6,578744
2,110833	0,1	6,622477
2,112500	0,1	6,604234
2,114167	0,1	6,630109
2,115833	0,1	6,662420
2,117500	0,1	6,638879
2,119167	0,1	6,623983
2,120833	0,1	6,682521
2,122500	0,1	6,629113
2,124167	0,1	6,645757
2,125833	0,1	6,662984
2,127500	0,1	6,633950
2,129167	0,1	6,634306
2,130833	0,1	6,646219
2,132500	0,1	6,640822
2,134167	0,1	6,594395
2,135833	0,1	6,597261
2,137500	0,1	6,571778
2,139167	0,1	6,595211
2,140833	0,1	6,566098
2,142500	0,1	6,567765
2,144167	0,1	6,527951
2,145833	0,1	6,505130
2,147500	0,1	6,475462
2,149167	0,1	6,496661
2,150833	0,1	6,482442
2,152500	0,1	6,471358
2,154167	0,1	6,472879
2,155833	0,1	6,452375
2,157500	0,1	6,444107
2,159167	0,1	6,367092
2,160833	0,1	6,416652
2,162500	0,1	6,373596
2,164167	0,1	6,359009
2,165833	0,1	6,293954
2,167500	0,1	6,305706
2,169167	0,1	6,274353
2,170833	0,1	6,248414
2,172500	0,1	6,236031
2,174167	0,1	6,223692
2,175833	0,1	6,162685
2,177500	0,1	6,163440
2,179167	0,1	6,112396
2,180833	0,1	6,157085
2,182500	0,1	6,097135
2,184167	0,1	6,078078
2,185833	0,1	6,016858
2,187500	0,1	6,015436
2,189167	0,1	6,007332
2,190833	0,1	5,968254
2,192500	0,1	5,966628
2,194167	0,1	5,915202
2,195833	0,1	5,918333
2,197500	0,1	5,875728
2,199167	0,1	5,830418
2,200833	0,1	5,782278
2,202500	0,1	5,834463
2,204167	0,1	5,796878
2,205833	0,1	5,733991
2,207500	0,1	5,727973
2,209167	0,1	5,679397
2,210833	0,1	5,674964
2,212500	0,1	5,667599
2,214167	0,1	5,623883
2,215833	0,1	5,541585
2,217500	0,1	5,595347
2,219167	0,1	5,531819
2,220833	0,1	5,498742
2,222500	0,1	5,487569
2,224167	0,1	5,487250
2,225833	0,1	5,401204
2,227500	0,1	5,415724
2,229167	0,1	5,386269
2,230833	0,1	5,356813
2,232500	0,1	5,357679
2,234167	0,1	5,338681
2,235833	0,1	5,300672
2,237500	0,1	5,275789
2,239167	0,1	5,272820
2,240833	0,1	5,177913
2,242500	0,1	5,205382
2,244167	0,1	5,193762
2,245833	0,1	5,203556
2,247500	0,1	5,179648
2,249167	0,1	5,113626
2,250833	0,1	5,116468
2,252500	0,1	5,140004
2,254167	0,1	5,113365
2,255833	0,1	5,076541
2,257500	0,1	5,085273
2,259167	0,1	5,058384
2,260833	0,1	5,007410
2,262500	0,1	5,004552
2,264167	0,1	4,987148
2,265833	0,1	5,012019
2,267500	0,1	4,989062
2,269167	0,1	4,979555
2,270833	0,1	4,953733
2,272500	0,1	4,936973
2,274167	0,1	4,919617
2,275833	0,1	4,932556
2,277500	0,1	4,907206
2,279167	0,1	4,909845
2,280833	0,1	4,905155
2,282500	0,1	4,877756
2,284167	0,1	4,880643
2,285833	0,1	4,903237
2,287500	0,1	4,882946
2,289167	0,1	4,839904
2,290833	0,1	4,900964
2,292500	0,1	4,868309
2,294167	0,1	4,856058
2,295833	0,1	4,867483
2,297500	0,1	4,815522
2,299167	0,1	4,827467
2,300833	0,1	4,840894
2,302500	0,1	4,843690
2,304167	0,1	4,811625
2,305833	0,1	4,855995
2,307500	0,1	4,833163
2,309167	0,1	4,835941
2,310833	0,1	4,838053
2,312500	0,1	4,824196
2,314167	0,1	4,865645
2,315833	0,1	4,842882
2,317500	0,1	4,844127
2,319167	0,1	4,836426
2,320833	0,1	4,850461
2,322500	0,1	4,860112
2,324167	0,1	4,840984
2,325833	0,1	4,830234
2,327500	0,1	4,842225
2,329167	0,1	4,902096
2,330833	0,1	4,809656
2,332500	0,1	4,878983
2,334167	0,1	4,837097
2,335833	0,1	4,856995
2,337500	0,1	4,897524
2,339167	0,1	4,853719
2,340833	0,1	4,867746
2,342500	0,1	4,860516
2,344167	0,1	4,873006
2,345833	0,1	4,890406
2,347500	0,1	4,903635
2,349167	0,1	4,880282
2,350833	0,1	4,875307
2,352500	0,1	4,892602
2,354167	0,1	4,906349
2,355833	0,1	4,915285
2,357500	0,1	4,917100
2,359167	0,1	4,907569
2,360833	0,1	5,011764
2,362500	0,1	4,975303
2,364167	0,1	4,954447
2,365833	0,1	4,925994
2,367500	0,1	4,957930
2,369167	0,1	4,950966
2,370833	0,1	4,977349
2,372500	0,1	4,978622
2,374167	0,1	4,958574
2,375833	0,1	4,994491
2,377500	0,1	5,024351
2,379167	0,1	4,998768
2,380833	0,1	5,039479
2,382500	0,1	5,049056
2,384167	0,1	5,056981
2,385833	0,1	5,065202
2,387500	0,1	5,083177
2,389167	0,1	5,100508
2,390833	0,1	5,063998
2,392500	0,1	5,084872
2,394167	0,1	5,072964
2,395833	0,1	5,152435
2,397500	0,1	5,147489
2,399167	0,1	5,185789
2,400833	0,1	5,168864
2,402500	0,1	5,168494
2,404167	0,1	5,109959
2,405833	0,1	5,211664
2,407500	0,1	5,214006
2,409167	0,1	5,202372
2,410833	0,1	5,207310
2,412500	0,1	5,201047
2,414167	0,1	5,222327
2,415833	0,1	5,224338
2,417500	0,1	5,244604
2,419167	0,1	5,256043
2,420833	0,1	5,267875
2,422500	0,1	5,283857
2,424167	0,1	5,269491
2,425833	0,1	5,273184
2,427500	0,1	5,252830
2,429167	0,1	5,261239
2,430833	0,1	5,314884
2,432500	0,1	5,309164
2,434167	0,1	5,272149
2,435833	0,1	5,301305
2,437500	0,1	5,268365
2,439167	0,1	5,352238
2,440833	0,1	5,325606
2,442500	0,1	5,266648
2,444167	0,1	5,316945
2,445833	0,1	5,330538
2,447500	0,1	5,377525
2,449167	0,1	5,317425
2,450833	0,1	5,327856
2,452500	0,1	5,354425
2,454167	0,1	5,300026
2,455833	0,1	5,291600
2,457500	0,1	5,324064
2,459167	0,1	5,313431
2,460833	0,1	5,277260
2,462500	0,1	5,328665
2,464167	0,1	5,325601
2,465833	0,1	5,332489
2,467500	0,1	5,260721
2,469167	0,1	5,259151
2,470833	0,1	5,292381
2,472500	0,1	5,299023
2,474167	0,1	5,282282
2,475833	0,1	5,284030
2,477500	0,1	5,250661
2,479167	0,1	5,261887
2,480833	0,1	5,250909
2,482500	0,1	5,314314
2,484167	0,1	5,232969
2,485833	0,1	5,247007
2,487500	0,1	5,222760
2,489167	0,1	5,241046
2,490833	0,1	5,231342
2,492500	0,1	5,196027
2,494167	0,1	5,229015
2,495833	0,1	5,240709
2,497500	0,1	5,229847
2,499167	0,1	5,223379
2,500833	0,1	5,190464
2,502500	0,1	5,178009
2,504167	0,1	5,166345
2,505833	0,1	5,183478
2,507500	0,1	5,221647
2,509167	0,1	5,193150
2,510833	0,1	5,193306
2,512500	0,1	5,166974
2,514167	0,1	5,152823
2,515833	0,1	5,190141
2,517500	0,1	5,200927
2,519167	0,1	5,185549
2,520833	0,1	5,159038
2,522500	0,1	5,178482
2,524167	0,1	5,169115
2,525833	0,1	5,132135
2,527500	0,1	5,163797
2,529167	0,1	5,143795
2,530833	0,1	5,182655
2,532500	0,1	5,244370
2,534167	0,1	5,250229
2,535833	0,1	5,266293
2,537500	0,1	5,236119
2,539167	0,1	5,235348
2,540833	0,1	5,245171
2,542500	0,1	5,245427
2,544167	0,1	5,272502
2,545833	0,1	5,319514
2,547500	0,1	5,300243
2,549167	0,1	5,294508
2,550833	0,1	5,311475
2,552500	0,1	5,362189
2,554167	0,1	5,336450
2,555833	0,1	5,372022
2,557500	0,1	5,380531
2,559167	0,1	5,347974
2,560833	0,1	5,378321
2,562500	0,1	5,383609
2,564167	0,1	5,407807
2,565833	0,1	5,416964
2,567500	0,1	5,432470
2,569167	0,1	5,438627
2,570833	0,1	5,391051
2,572500	0,1	5,399285
2,574167	0,1	5,382513
2,575833	0,1	5,441104
2,577500	0,1	5,390204
2,579167	0,1	5,442207
2,580833	0,1	5,432793
2,582500	0,1	5,376393
2,584167	0,1	5,382029
2,585833	0,1	5,389849
2,587500	0,1	5,406961
2,589167	0,1	5,381866
2,590833	0,1	5,391713
2,592500	0,1	5,384400
2,594167	0,1	5,358568
2,595833	0,1	5,374710
2,597500	0,1	5,355911
2,599167	0,1	5,295115
2,600833	0,1	5,312631
2,602500	0,1	5,284008
2,604167	0,1	5,333692
2,605833	0,1	5,277491
2,607500	0,1	5,209815
2,609167	0,1	5,232379
2,610833	0,1	5,194673
2,612500	0,1	5,140924
2,614167	0,1	5,121041
2,615833	0,1	5,119486
2,617500	0,1	5,087765
2,619167	0,1	5,057966
2,620833	0,1	5,098081
2,622500	0,1	5,037168
2,624167	0,1	4,995007
2,625833	0,1	4,977110
2,627500	0,1	4,961353
2,629167	0,1	4,899344
2,630833	0,1	4,872683
2,632500	0,1	4,845230
2,634167	0,1	4,815857
2,635833	0,1	4,805484
2,637500	0,1	4,771755
2,639167	0,1	4,725492
2,640833	0,1	4,701861
2,642500	0,1	4,641113
2,644167	0,1	4,623944
2,645833	0,1	4,575971
2,647500	0,1	4,540350
2,649167	0,1	4,516073
2,650833	0,1	4,516837
2,652500	0,1	4,414798
2,654167	0,1	4,445962
2,655833	0,1	4,430863
2,657500	0,1	4,339772
2,659167	0,1	4,300876
2,660833	0,1	4,248357
2,662500	0,1	4,237172
2,664167	0,1	4,219955
2,665833	0,1	4,182800
2,667500	0,1	4,156592
2,669167	0,1	4,126191
2,670833	0,1	4,083114
2,672500	0,1	3,996374
2,674167	0,1	3,995830
2,675833	0,1	3,937125
2,677500	0,1	3,974074
2,679167	0,1	3,910785
2,680833	0,1	3,884800
2,682500	0,1	3,837313
2,684167	0,1	3,775542
2,685833	0,1	3,753654
2,687500	0,1	3,717780
2,689167	0,1	3,668860
2,690833	0,1	3,652443
2,692500	0,1	3,600715
2,694167	0,1	3,577447
2,695833	0,1	3,551879
2,697500	0,1	3,527297
2,699167	0,1	3,511463
2,700833	0,1	3,469404
2,702500	0,1	3,422445
2,704167	0,1	3,376455
2,705833	0,1	3,351688
2,707500	0,1	3,323277
2,709167	0,1	3,252415
2,710833	0,1	3,293955
2,712500	0,1	3,247086
2,714167	0,1	3,209198
2,715833	0,1	3,186874
2,717500	0,1	3,138857
2,719167	0,1	3,142873
2,720833	0,1	3,078881
2,722500	0,1	3,062368
2,724167	0,1	3,068253
2,725833	0,1	2,974739
2,727500	0,1	3,016056
2,729167	0,1	2,959722
2,730833	0,1	2,950454
2,732500	0,1	2,870244
2,734167	0,1	2,927521
2,735833	0,1	2,843774
2,737500	0,1	2,831245
2,739167	0,1	2,795584
2,740833	0,1	2,827128
2,742500	0,1	2,785832
2,744167	0,1	2,756764
2,745833	0,1	2,734095
2,747500	0,1	2,705760
2,749167	0,1	2,697069
2,750833	0,1	2,707395
2,752500	0,1	2,640210
2,754167	0,1	2,651581
2,755833	0,1	2,655317
2,757500	0,1	2,590427
2,759167	0,1	2,588757
2,760833	0,1	2,585597
2,762500	0,1	2,560366
2,764167	0,1	2,525804
2,765833	0,1	2,517836
2,767500	0,1	2,499129
2,769167	0,1	2,501700
2,770833	0,1	2,485282
2,772500	0,1	2,468361
2,774167	0,1	2,418616
2,775833	0,1	2,456019
2,777500	0,1	2,432730
2,779167	0,1	2,380765
2,780833	0,1	2,376954
2,782500	0,1	2,419236
2,784167	0,1	2,327945
2,785833	0,1	2,332580
2,787500	0,1	2,331293
2,789167	0,1	2,353363
2,790833	0,1	2,328431
2,792500	0,1	2,276691
2,794167	0,1	2,292729
2,795833	0,1	2,272668
2,797500	0,1	2,243935
2,799167	0,1	2,218492
2,800833	0,1	2,226726
2,802500	0,1	2,223436
2,804167	0,1	2,227016
2,805833	0,1	2,174572
2,807500	0,1	2,212885
2,809167	0,1	2,135887
2,810833	0,1	2,157292
2,812500	0,1	2,135591
2,814167	0,1	2,167317
2,815833	0,1	2,162245
2,817500	0,1	2,080860
2,819167	0,1	2,138010
2,820833	0,1	2,078217
2,822500	0,1	2,077769
2,824167	0,1	2,079924
2,825833	0,1	2,059585
2,827500	0,1	2,087507
2,829167	0,1	2,069900
2,830833	0,1	2,045040
2,832500	0,1	2,065319
2,834167	0,1	2,021621
2,835833	0,1	2,043095
2,837500	0,1	2,014750
2,839167	0,1	2,040949
2,840833	0,1	2,010174
2,842500	0,1	2,015457
2,844167	0,1	1,941196
2,845833	0,1	2,020672
2,847500	0,1	1,965629
2,849167	0,1	1,972990
2,850833	0,1	1,944268
2,852500	0,1	1,936240
2,854167	0,1	1,911335
2,855833	0,1	1,956573
2,857500	0,1	1,919350
2,859167	0,1	1,938960
2,860833	0,1	1,906243
2,862500	0,1	1,943684
2,864167	0,1	1,884844
2,865833	0,1	1,883819
2,867500	0,1	1,916260
2,869167	0,1	1,906611
2,870833	0,1	1,875684
2,872500	0,1	1,833288
2,874167	0,1	1,857689
2,875833	0,1	1,843452
2,877500	0,1	1,873936
2,879167	0,1	1,806885
2,880833	0,1	1,863767
2,882500	0,1	1,846158
2,884167	0,1	1,797999
2,885833	0,1	1,815795
2,887500	0,1	1,828842
2,889167	0,1	1,824625
2,890833	0,1	1,836852
2,892500	0,1	1,781111
2,894167	0,1	1,757808
2,895833	0,1	1,805720
2,897500	0,1	1,716824
2,899167	0,1	1,769696
2,900833	0,1	1,781108
2,902500	0,1	1,748952
2,904167	0,1	1,744929
2,905833	0,1	1,729908
2,907500	0,1	1,742210
2,909167	0,1	1,746942
2,910833	0,1	1,750105
2,912500	0,1	1,736432
2,914167	0,1	1,706228
2,915833	0,1	1,683681
2,917500	0,1	1,692540
2,919167	0,1	1,665426
2,920833	0,1	1,718021
2,922500	0,1	1,686904
2,924167	0,1	1,679962
2,925833	0,1	1,692115
2,927500	0,1	1,659014
2,929167	0,1	1,658541
2,930833	0,1	1,599506
2,932500	0,1	1,610687
2,934167	0,1	1,630280
2,935833	0,1	1,643533
2,937500	0,1	1,641315
2,939167	0,1	1,623121
2,940833	0,1	1,588061
2,942500	0,1	1,628343
2,944167	0,1	1,608461
2,945833	0,1	1,596866
2,947500	0,1	1,594438
2,949167	0,1	1,593371
2,950833	0,1	1,587751
2,952500	0,1	1,558147
2,954167	0,1	1,578251
2,955833	0,1	1,541982
2,957500	0,1	1,576905
2,959167	0,1	1,549268
2,960833	0,1	1,568303
2,962500	0,1	1,566444
2,964167	0,1	1,588568
2,965833	0,1	1,534345
2,967500	0,1	1,551628
2,969167	0,1	1,552225
2,970833	0,1	1,522155
2,972500	0,1	1,534533
2,974167	0,1	1,514172
2,975833	0,1	1,561396
2,977500	0,1	1,516668
2,979167	0,1	1,506290
2,980833	0,1	1,503426
2,982500	0,1	1,521685
2,984167	0,1	1,528907
2,985833	0,1	1,488405
2,987500	0,1	1,485432
2,989167	0,1	1,551565
2,990833	0,1	1,507213
2,992500	0,1	1,482354
2,994167	0,1	1,513802
2,995833	0,1	1,501275
2,997500	0,1	1,452134
2,999167	0,1	1,468873
3,000833	0,1	1,413374
3,002500	0,1	1,432209
3,004167	0,1	1,503780
3,005833	0,1	1,479048
3,007500	0,1	1,456582
3,009167	0,1	1,509189
3,010833	0,1	1,486638
3,012500	0,1	1,483550
3,014167	0,1	1,494187
3,015833	0,1	1,460635
3,017500	0,1	1,509140
3,019167	0,1	1,465381
3,020833	0,1	1,474145
3,022500	0,1	1,459459
3,024167	0,1	1,460999
3,025833	0,1	1,441334
3,027500	0,1	1,497277
3,029167	0,1	1,476065
3,030833	0,1	1,450280
3,032500	0,1	1,493196
3,034167	0,1	1,459804
3,035833	0,1	1,436982
3,037500	0,1	1,430792
3,039167	0,1	1,488347
3,040833	0,1	1,421186
3,042500	0,1	1,433179
3,044167	0,1	1,457655
3,045833	0,1	1,447702
3,047500	0,1	1,418467
3,049167	0,1	1,461633
3,050833	0,1	1,428462
3,052500	0,1	1,428013
3,054167	0,1	1,470154
3,055833	0,1	1,468809
3,057500	0,1	1,447637
3,059167	0,1	1,438450
3,060833	0,1	1,456421
3,062500	0,1	1,431511
3,064167	0,1	1,476016
3,065833	0,1	1,420472
3,067500	0,1	1,432738
3,069167	0,1	1,409993
3,070833	0,1	1,420813
3,072500	0,1	1,415715
3,074167	0,1	1,467290
3,075833	0,1	1,401059
3,077500	0,1	1,405480
3,079167	0,1	1,465289
3,080833	0,1	1,420417
3,082500	0,1	1,460260
3,084167	0,1	1,445060
3,085833	0,1	1,459573
3,087500	0,1	1,458000
3,089167	0,1	1,415724
3,090833	0,1	1,496982
3,092500	0,1	1,491784
3,094167	0,1	1,456145
3,095833	0,1	1,507444
3,097500	0,1	1,460740
3,099167	0,1	1,437964
3,100833	0,1	1,459842
3,102500	0,1	1,488948
3,104167	0,1	1,505521
3,105833	0,1	1,485417
3,107500	0,1	1,499694
3,109167	0,1	1,487704
3,110833	0,1	1,558328
3,112500	0,1	1,519886
3,114167	0,1	1,559943
3,115833	0,1	1,559074
3,117500	0,1	1,587922
3,119167	0,1	1,566124
3,120833	0,1	1,610748
3,122500	0,1	1,643171
3,124167	0,1	1,649892
3,125833	0,1	1,644798
3,127500	0,1	1,633657
3,129167	0,1	1,681237
3,130833	0,1	1,663945
3,132500	0,1	1,704991
3,134167	0,1	1,741435
3,135833	0,1	1,745515
3,137500	0,1	1,752243
3,139167	0,1	1,787592
3,140833	0,1	1,796341
3,142500	0,1	1,759813
3,144167	0,1	1,808345
3,145833	0,1	1,808573
3,147500	0,1	1,851241
3,149167	0,1	1,867434
3,150833	0,1	1,867064
3,152500	0,1	1,895420
3,154167	0,1	1,912753
3,155833	0,1	1,927211
3,157500	0,1	1,958160
3,159167	0,1	1,965389
3,160833	0,1	1,959366
3,162500	0,1	1,987585
3,164167	0,1	1,978789
3,165833	0,1	2,033711
3,167500	0,1	2,028199
3,169167	0,1	2,030207
3,170833	0,1	2,057558
3,172500	0,1	2,016604
3,174167	0,1	2,089015
3,175833	0,1	2,084298
3,177500	0,1	2,071681
3,179167	0,1	2,082717
3,180833	0,1	2,143666
3,182500	0,1	2,101846
3,184167	0,1	2,133930
3,185833	0,1	2,171688
3,187500	0,1	2,129293
3,189167	0,1	2,125556
3,190833	0,1	2,116883
3,192500	0,1	2,159151
3,194167	0,1	2,114092
3,195833	0,1	2,164669
3,197500	0,1	2,154367
3,199167	0,1	2,133227
3,200833	0,1	2,122330
3,202500	0,1	2,178564
3,204167	0,1	2,143759
3,205833	0,1	2,138953
3,207500	0,1	2,146258
3,209167	0,1	2,161519
3,210833	0,1	2,125349
3,212500	0,1	2,117608
3,214167	0,1	2,139453
3,215833	0,1	2,126288
3,217500	0,1	2,146978
3,219167	0,1	2,104002
3,220833	0,1	2,094041
3,222500	0,1	2,103056
3,224167	0,1	2,073907
3,225833	0,1	2,099835
3,227500	0,1	2,085724
3,229167	0,1	2,037247
3,230833	0,1	2,062079
3,232500	0,1	2,037317
3,234167	0,1	2,031633
3,235833	0,1	2,053129
3,237500	0,1	2,015524
3,239167	0,1	2,013530
3,240833	0,1	1,983810
3,242500	0,1	1,980797
3,244167	0,1	1,952079
3,245833	0,1	1,952646
3,247500	0,1	1,953160
3,249167	0,1	1,915135
3,250833	0,1	1,896511
3,252500	0,1	1,905875
3,254167	0,1	1,866012
3,255833	0,1	1,907236
3,257500	0,1	1,847249
3,259167	0,1	1,838215
3,260833	0,1	1,843725
3,262500	0,1	1,800139
3,264167	0,1	1,796838
3,265833	0,1	1,830999
3,267500	0,1	1,791623
3,269167	0,1	1,754889
3,270833	0,1	1,760044
3,272500	0,1	1,738032
3,274167	0,1	1,731056
3,275833	0,1	1,713748
3,277500	0,1	1,732721
3,279167	0,1	1,699049
3,280833	0,1	1,668785
3,282500	0,1	1,623758
3,284167	0,1	1,632927
3,285833	0,1	1,620435
3,287500	0,1	1,614020
3,289167	0,1	1,611319
3,290833	0,1	1,595085
3,292500	0,1	1,549879
3,294167	0,1	1,563289
3,295833	0,1	1,574624
3,297500	0,1	1,525397
3,299167	0,1	1,531941
3,300833	0,1	1,516034
3,302500	0,1	1,483625
3,304167	0,1	1,476385
3,305833	0,1	1,429955
3,307500	0,1	1,438262
3,309167	0,1	1,458014
3,310833	0,1	1,407003
3,312500	0,1	1,391159
3,314167	0,1	1,408274
3,315833	0,1	1,413511
3,317500	0,1	1,357391
3,319167	0,1	1,387538
3,320833	0,1	1,369409
3,322500	0,1	1,350323
3,324167	0,1	1,319970
3,325833	0,1	1,315257
3,327500	0,1	1,308889
3,329167	0,1	1,281489
3,330833	0,1	1,229082
3,332500	0,1	1,279982
3,334167	0,1	1,252041
3,335833	0,1	1,287950
3,337500	0,1	1,242282
3,339167	0,1	1,225879
3,340833	0,1	1,216559
3,342500	0,1	1,211676
3,344167	0,1	1,193065
3,345833	0,1	1,213599
3,347500	0,1	1,198145
3,349167	0,1	1,183190
3,350833	0,1	1,156726
3,352500	0,1	1,118483
3,354167	0,1	1,113041
3,355833	0,1	1,143448
3,357500	0,1	1,147800
3,359167	0,1	1,135473
3,360833	0,1	1,103398
3,362500	0,1	1,094344
3,364167	0,1	1,109555
3,365833	0,1	1,103661
3,367500	0,1	1,135040
3,369167	0,1	1,116151
3,370833	0,1	1,101108
3,372500	0,1	1,076601
3,374167	0,1	1,087461
3,375833	0,1	1,095890
3,377500	0,1	1,064694
3,379167	0,1	1,069568
3,380833	0,1	1,037433
3,382500	0,1	1,088962
3,384167	0,1	1,030612
3,385833	0,1	1,031570
3,387500	0,1	1,044036
3,389167	0,1	1,038410
3,390833	0,1	1,035876
3,392500	0,1	1,033997
3,394167	0,1	1,025234
3,395833	0,1	1,019707
3,397500	0,1	0,974436
3,399167	0,1	1,004288
3,400833	0,1	0,970351
3,402500	0,1	1,016348
3,404167	0,1	0,963936
3,405833	0,1	0,966392
3,407500	0,1	0,980878
3,409167	0,1	1,000301
3,410833	0,1	0,971151
3,412500	0,1	0,940286
3,414167	0,1	0,966859
3,415833	0,1	0,984027
3,417500	0,1	0,922550
3,419167	0,1	0,954389
3,420833	0,1	0,946514
3,422500	0,1	0,948216
3,424167	0,1	0,923380
3,425833	0,1	0,911186
3,427500	0,1	0,889141
3,429167	0,1	0,917068
3,430833	0,1	0,905073
3,432500	0,1	0,936674
3,434167	0,1	0,925648
3,435833	0,1	0,899234
3,437500	0,1	0,915132
3,439167	0,1	0,903983
3,440833	0,1	0,917153
3,442500	0,1	0,912023
3,444167	0,1	0,906488
3,445833	0,1	0,937986
3,447500	0,1	0,880791
3,449167	0,1	0,898871
3,450833	0,1	0,892408
3,452500	0,1	0,851082
3,454167	0,1	0,861226
3,455833	0,1	0,873406
3,457500	0,1	0,897414
3,459167	0,1	0,863195
3,460833	0,1	0,867044
3,462500	0,1	0,883206
3,464167	0,1	0,886202
3,465833	0,1	0,860752
3,467500	0,1	0,881276
3,469167	0,1	0,896868
3,470833	0,1	0,890770
3,472500	0,1	0,877595
3,474167	0,1	0,860965
3,475833	0,1	0,826362
3,477500	0,1	0,837244
3,479167	0,1	0,857619
3,480833	0,1	0,870647
3,482500	0,1	0,874729
3,484167	0,1	0,850753
3,485833	0,1	0,867133
3,487500	0,1	0,869391
3,489167	0,1	0,858399
3,490833	0,1	0,848626
3,492500	0,1	0,860005
3,494167	0,1	0,881146
3,495833	0,1	0,837003
3,497500	0,1	0,827865
3,499167	0,1	0,832615
3,500833	0,1	0,828413
3,502500	0,1	0,873268
3,504167	0,1	0,801458
3,505833	0,1	0,907655
3,507500	0,1	0,881456
3,509167	0,1	0,825978
3,510833	0,1	0,849168
3,512500	0,1	0,856596
3,514167	0,1	0,877644
3,515833	0,1	0,852004
3,517500	0,1	0,858330
3,519167	0,1	0,813183
3,520833	0,1	0,840201
3,522500	0,1	0,840874
3,524167	0,1	0,834324
3,525833	0,1	0,841939
3,527500	0,1	0,819223
3,529167	0,1	0,818927
3,530833	0,1	0,837631
3,532500	0,1	0,870894
3,534167	0,1	0,825172
3,535833	0,1	0,849615
3,537500	0,1	0,845252
3,539167	0,1	0,849070
3,540833	0,1	0,836319
3,542500	0,1	0,842483
3,544167	0,1	0,850905
3,545833	0,1	0,867431
3,547500	0,1	0,868778
3,549167	0,1	0,828805
3,550833	0,1	0,865395
3,552500	0,1	0,814629
3,554167	0,1	0,839777
3,555833	0,1	0,834583
3,557500	0,1	0,836155
3,559167	0,1	0,860637
3,560833	0,1	0,811290
3,562500	0,1	0,802210
3,564167	0,1	0,807031
3,565833	0,1	0,809603
3,567500	0,1	0,806486
3,569167	0,1	0,817670
3,570833	0,1	0,840325
3,572500	0,1	0,837818
3,574167	0,1	0,816711
3,575833	0,1	0,830684
3,577500	0,1	0,804985
3,579167	0,1	0,819722
3,580833	0,1	0,827023
3,582500	0,1	0,822526
3,584167	0,1	0,812885
3,585833	0,1	0,864453
3,587500	0,1	0,820477
3,589167	0,1	0,807807
3,590833	0,1	0,818637
3,592500	0,1	0,830202
3,594167	0,1	0,771950
3,595833	0,1	0,814189
3,597500	0,1	0,804976
3,599167	0,1	0,776568
3,600833	0,1	0,795298
3,602500	0,1	0,785373
3,604167	0,1	0,811331
3,605833	0,1	0,801410
3,607500	0,1	0,811270
3,609167	0,1	0,753887
3,610833	0,1	0,789991
3,612500	0,1	0,770881
3,614167	0,1	0,814347
3,615833	0,1	0,790708
3,617500	0,1	0,747970
3,619167	0,1	0,745387
3,620833	0,1	0,738611
3,622500	0,1	0,771253
3,624167	0,1	0,790087
3,625833	0,1	0,755587
3,627500	0,1	0,768751
3,629167	0,1	0,770937
3,630833	0,1	0,800688
3,632500	0,1	0,720855
3,634167	0,1	0,741721
3,635833	0,1	0,761934
3,637500	0,1	0,766440
3,639167	0,1	0,780899
3,640833	0,1	0,765124
3,642500	0,1	0,753008
3,644167	0,1	0,781793
3,645833	0,1	0,739647
3,647500	0,1	0,751106
3,649167	0,1	0,751752
3,650833	0,1	0,751977
3,652500	0,1	0,711656
3,654167	0,1	0,748916
3,655833	0,1	0,783784
3,657500	0,1	0,750442
3,659167	0,1	0,788990
3,660833	0,1	0,766318
3,662500	0,1	0,729521
3,664167	0,1	0,758782
3,665833	0,1	0,766469
3,667500	0,1	0,734760
3,669167	0,1	0,693501
3,670833	0,1	0,773841
3,672500	0,1	0,728528
3,674167	0,1	0,734846
3,675833	0,1	0,710207
3,677500	0,1	0,743678
3,679167	0,1	0,731030
3,680833	0,1	0,721707
3,682500	0,1	0,712453
3,684167	0,1	0,714377
3,685833	0,1	0,738087
3,687500	0,1	0,725723
3,689167	0,1	0,721642
3,690833	0,1	0,720805
3,692500	0,1	0,689771
3,694167	0,1	0,709520
3,695833	0,1	0,698731
3,697500	0,1	0,731980
3,699167	0,1	0,689903
3,700833	0,1	0,716879
3,702500	0,1	0,713896
3,704167	0,1	0,722440
3,705833	0,1	0,719778
3,707500	0,1	0,684438
3,709167	0,1	0,744057
3,710833	0,1	0,722961
3,712500	0,1	0,702622
3,714167	0,1	0,703163
3,715833	0,1	0,706953
3,717500	0,1	0,713443
3,719167	0,1	0,704676
3,720833	0,1	0,708915
3,722500	0,1	0,695389
3,724167	0,1	0,733617
3,725833	0,1	0,722316
3,727500	0,1	0,711682
3,729167	0,1	0,674092
3,730833	0,1	0,739814
3,732500	0,1	0,722448
3,734167	0,1	0,697546
3,735833	0,1	0,732139
3,737500	0,1	0,725561
3,739167	0,1	0,707699
3,740833	0,1	0,734196
3,742500	0,1	0,734815
3,744167	0,1	0,713419
3,745833	0,1	0,706506
3,747500	0,1	0,763017
3,749167	0,1	0,737908
3,750833	0,1	0,746898
3,752500	0,1	0,694854
3,754167	0,1	0,734324
3,755833	0,1	0,752070
3,757500	0,1	0,702951
3,759167	0,1	0,749589
3,760833	0,1	0,743817
3,762500	0,1	0,760329
3,764167	0,1	0,761489
3,765833	0,1	0,746135
3,767500	0,1	0,759846
3,769167	0,1	0,773987
3,770833	0,1	0,764321
3,772500	0,1	0,814604
3,774167	0,1	0,798096
3,775833	0,1	0,822096
3,777500	0,1	0,772048
3,779167	0,1	0,824046
3,780833	0,1	0,798523
3,782500	0,1	0,769889
3,784167	0,1	0,776918
3,785833	0,1	0,803648
3,787500	0,1	0,828913
3,789167	0,1	0,829596
3,790833	0,1	0,807037
3,792500	0,1	0,827823
3,794167	0,1	0,837822
3,795833	0,1	0,849458
3,797500	0,1	0,827256
3,799167	0,1	0,866297
3,800833	0,1	0,887575
3,802500	0,1	0,840790
3,804167	0,1	0,863182
3,805833	0,1	0,885554
3,807500	0,1	0,871549
3,809167	0,1	0,897479
3,810833	0,1	0,888581
3,812500	0,1	0,836263
3,814167	0,1	0,895255
3,815833	0,1	0,913239
3,817500	0,1	0,875382
3,819167	0,1	0,863868
3,820833	0,1	0,890054
3,822500	0,1	0,903725
3,824167	0,1	0,884761
3,825833	0,1	0,920914
3,827500	0,1	0,898460
3,829167	0,1	0,898418
3,830833	0,1	0,957757
3,832500	0,1	0,903481
3,834167	0,1	0,914526
3,835833	0,1	0,951593
3,837500	0,1	0,923538
3,839167	0,1	0,945090
3,840833	0,1	0,926136
3,842500	0,1	0,933240
3,844167	0,1	0,989846
3,845833	0,1	0,935500
3,847500	0,1	0,992668
3,849167	0,1	0,969377
3,850833	0,1	0,927177
3,852500	0,1	0,951269
3,854167	0,1	0,969498
3,855833	0,1	0,914963
3,857500	0,1	0,957499
3,859167	0,1	0,949570
3,860833	0,1	0,968633
3,862500	0,1	0,960530
3,864167	0,1	0,944243
3,865833	0,1	0,976753
3,867500	0,1	0,965266
3,869167	0,1	0,930903
3,870833	0,1	0,949825
3,872500	0,1	0,963424
3,874167	0,1	0,962364
3,875833	0,1	0,968346
3,877500	0,1	0,959899
3,879167	0,1	1,003735
3,880833	0,1	0,941198
3,882500	0,1	0,978104
3,884167	0,1	0,931650
3,885833	0,1	0,944068
3,887500	0,1	0,910773
3,889167	0,1	0,930247
3,890833	0,1	0,933502
3,892500	0,1	0,950600
3,894167	0,1	0,921070
3,895833	0,1	0,961776
3,897500	0,1	0,960697
3,899167	0,1	0,927517
3,900833	0,1	0,955454
3,902500	0,1	0,950855
3,904167	0,1	0,943270
3,905833	0,1	0,944594
3,907500	0,1	0,949698
3,909167	0,1	0,936870
3,910833	0,1	0,952845
3,912500	0,1	0,917361
3,914167	0,1	0,914203
3,915833	0,1	0,888911
3,917500	0,1	0,877790
3,919167	0,1	0,914585
3,920833	0,1	0,926678
3,922500	0,1	0,916591
3,924167	0,1	0,909442
3,925833	0,1	0,902669
3,927500	0,1	0,895988
3,929167	0,1	0,923067
3,930833	0,1	0,923243
3,932500	0,1	0,921407
3,934167	0,1	0,868696
3,935833	0,1	0,900917
3,937500	0,1	0,860495
3,939167	0,1	0,871803
3,940833	0,1	0,865753
3,942500	0,1	0,888161
3,944167	0,1	0,898135
3,945833	0,1	0,897198
3,947500	0,1	0,862040
3,949167	0,1	0,908434
3,950833	0,1	0,843851
3,952500	0,1	0,851323
3,954167	0,1	0,845923
3,955833	0,1	0,872274
3,957500	0,1	0,844000
3,959167	0,1	0,851035
3,960833	0,1	0,797083
3,962500	0,1	0,827083
3,964167	0,1	0,813883
3,965833	0,1	0,799676
3,967500	0,1	0,754049
3,969167	0,1	0,831602
3,970833	0,1	0,812568
3,972500	0,1	0,815036
3,974167	0,1	0,831487
3,975833	0,1	0,828537
3,977500	0,1	0,815262
3,979167	0,1	0,812719
3,980833	0,1	0,796686
3,982500	0,1	0,801022
3,984167	0,1	0,807963
3,985833	0,1	0,748361
3,987500	0,1	0,788990
3,989167	0,1	0,785755
3,990833	0,1	0,772901
3,992500	0,1	0,769850
3,994167	0,1	0,778717
3,995833	0,1	0,750796
3,997500	0,1	0,775912
3,999167	0,1	0,772899
4,000833	0,1	0,760821
4,002500	0,1	0,790408
4,004167	0,1	0,736245
4,005833	0,1	0,778640
4,007500	0,1	0,760499
4,009167	0,1	0,740058
4,010833	0,1	0,715735
4,012500	0,1	0,783328
4,014167	0,1	0,770395
4,015833	0,1	0,783119
4,017500	0,1	0,790446
4,019167	0,1	0,756324
4,020833	0,1	0,750564
4,022500	0,1	0,808335
4,024167	0,1	0,788779
4,025833	0,1	0,785144
4,027500	0,1	0,764353
4,029167	0,1	0,796964
4,030833	0,1	0,778594
4,032500	0,1	0,804514
4,034167	0,1	0,806712
4,035833	0,1	0,800600
4,037500	0,1	0,793182
4,039167	0,1	0,816381
4,040833	0,1	0,789682
4,042500	0,1	0,820425
4,044167	0,1	0,809702
4,045833	0,1	0,826285
4,047500	0,1	0,823842
4,049167	0,1	0,829277
4,050833	0,1	0,768065
4,052500	0,1	0,833793
4,054167	0,1	0,833296
4,055833	0,1	0,852931
4,057500	0,1	0,851195
4,059167	0,1	0,843837
4,060833	0,1	0,890561
4,062500	0,1	0,872900
4,064167	0,1	0,893400
4,065833	0,1	0,867664
4,067500	0,1	0,903432
4,069167	0,1	0,902603
4,070833	0,1	0,905135
4,072500	0,1	0,937502
4,074167	0,1	0,911702
4,075833	0,1	0,943196
4,077500	0,1	0,964288
4,079167	0,1	0,946815
4,080833	0,1	1,013532
4,082500	0,1	0,967269
4,084167	0,1	1,007567
4,085833	0,1	1,038046
4,087500	0,1	0,985789
4,089167	0,1	1,034801
4,090833	0,1	1,038513
4,092500	0,1	1,012060
4,094167	0,1	1,036133
4,095833	0,1	1,090288
4,097500	0,1	1,093896
4,099167	0,1	1,137900
4,100833	0,1	1,106861
4,102500	0,1	1,176693
4,104167	0,1	1,165685
4,105833	0,1	1,124695
4,107500	0,1	1,170374
4,109167	0,1	1,159450
4,110833	0,1	1,197842
4,112500	0,1	1,198917
4,114167	0,1	1,195944
4,115833	0,1	1,233077
4,117500	0,1	1,257399
4,119167	0,1	1,270982
4,120833	0,1	1,327489
4,122500	0,1	1,322779
4,124167	0,1	1,321738
4,125833	0,1	1,306960
4,127500	0,1	1,305072
4,129167	0,1	1,331742
4,130833	0,1	1,369800
4,132500	0,1	1,365439
4,134167	0,1	1,413214
4,135833	0,1	1,410803
4,137500	0,1	1,439120
4,139167	0,1	1,442548
4,140833	0,1	1,405184
4,142500	0,1	1,467439
4,144167	0,1	1,465590
4,145833	0,1	1,473738
4,147500	0,1	1,509719
4,149167	0,1	1,530191
4,150833	0,1	1,505634
4,152500	0,1	1,536764
4,154167	0,1	1,583986
4,155833	0,1	1,569820
4,157500	0,1	1,578557
4,159167	0,1	1,617149
4,160833	0,1	1,610841
4,162500	0,1	1,583551
4,164167	0,1	1,629630
4,165833	0,1	1,617254
4,167500	0,1	1,676507
4,169167	0,1	1,682987
4,170833	0,1	1,652122
4,172500	0,1	1,671281
4,174167	0,1	1,700496
4,175833	0,1	1,644605
4,177500	0,1	1,693395
4,179167	0,1	1,712658
4,180833	0,1	1,678230
4,182500	0,1	1,724901
4,184167	0,1	1,700553
4,185833	0,1	1,713152
4,187500	0,1	1,709305
4,189167	0,1	1,728473
4,190833	0,1	1,720601
4,192500	0,1	1,725245
4,194167	0,1	1,715159
4,195833	0,1	1,737343
4,197500	0,1	1,749665
4,199167	0,1	1,711634
4,200833	0,1	1,732972
4,202500	0,1	1,775220
4,204167	0,1	1,775369
4,205833	0,1	1,773703
4,207500	0,1	1,798349
4,209167	0,1	1,749449
4,210833	0,1	1,742008
4,212500	0,1	1,756534
4,214167	0,1	1,762426
4,215833	0,1	1,796543
4,217500	0,1	1,769175
4,219167	0,1	1,780510
4,220833	0,1	1,744306
4,222500	0,1	1,754119
4,224167	0,1	1,782678
4,225833	0,1	1,715875
4,227500	0,1	1,772134
4,229167	0,1	1,744153
4,230833	0,1	1,728044
4,232500	0,1	1,725547
4,234167	0,1	1,761337
4,235833	0,1	1,717400
4,237500	0,1	1,716896
4,239167	0,1	1,735136
4,240833	0,1	1,703569
4,242500	0,1	1,695410
4,244167	0,1	1,720249
4,245833	0,1	1,683822
4,247500	0,1	1,684320
4,249167	0,1	1,672660
4,250833	0,1	1,640227
4,252500	0,1	1,660963
4,254167	0,1	1,647389
4,255833	0,1	1,637988
4,257500	0,1	1,618681
4,259167	0,1	1,650407
4,260833	0,1	1,629795
4,262500	0,1	1,632353
4,264167	0,1	1,591364
4,265833	0,1	1,600725
4,267500	0,1	1,599303
4,269167	0,1	1,540785
4,270833	0,1	1,567452
4,272500	0,1	1,538202
4,274167	0,1	1,548138
4,275833	0,1	1,557290
4,277500	0,1	1,531050
4,279167	0,1	1,491149
4,280833	0,1	1,512145
4,282500	0,1	1,494702
4,284167	0,1	1,500863
4,285833	0,1	1,463652
4,287500	0,1	1,440115
4,289167	0,1	1,462806
4,290833	0,1	1,431528
4,292500	0,1	1,448696
4,294167	0,1	1,434032
4,295833	0,1	1,411944
4,297500	0,1	1,406059
4,299167	0,1	1,444998
4,300833	0,1	1,386626
4,302500	0,1	1,388273
4,304167	0,1	1,364647
4,305833	0,1	1,386030
4,307500	0,1	1,350508
4,309167	0,1	1,334193
4,310833	0,1	1,342774
4,312500	0,1	1,326201
4,314167	0,1	1,325975
4,315833	0,1	1,268116
4,317500	0,1	1,314668
4,319167	0,1	1,290673
4,320833	0,1	1,238357
4,322500	0,1	1,225522
4,324167	0,1	1,263455
4,325833	0,1	1,256473
4,327500	0,1	1,236219
4,329167	0,1	1,232421
4,330833	0,1	1,235036
4,332500	0,1	1,171533
4,334167	0,1	1,185756
4,335833	0,1	1,160164
4,337500	0,1	1,209931
4,339167	0,1	1,150433
4,340833	0,1	1,166919
4,342500	0,1	1,155303
4,344167	0,1	1,155143
4,345833	0,1	1,158629
4,347500	0,1	1,129814
4,349167	0,1	1,124066
4,350833	0,1	1,127126
4,352500	0,1	1,121181
4,354167	0,1	1,075675
4,355833	0,1	1,110392
4,357500	0,1	1,104437
4,359167	0,1	1,092877
4,360833	0,1	1,088223
4,362500	0,1	1,071809
4,364167	0,1	1,024441
4,365833	0,1	1,066138
4,367500	0,1	1,062181
4,369167	0,1	1,081802
4,370833	0,1	1,056176
4,372500	0,1	1,068214
4,374167	0,1	1,046082
4,375833	0,1	1,034107
4,377500	0,1	1,039132
4,379167	0,1	1,022819
4,380833	0,1	0,999394
4,382500	0,1	0,934321
4,384167	0,1	0,981198
4,385833	0,1	1,021650
4,387500	0,1	0,981350
4,389167	0,1	0,975108
4,390833	0,1	0,972104
4,392500	0,1	0,962955
4,394167	0,1	0,966614
4,395833	0,1	0,908916
4,397500	0,1	0,937830
4,399167	0,1	0,928351
4,400833	0,1	0,922312
4,402500	0,1	0,907460
4,404167	0,1	0,908229
4,405833	0,1	0,933301
4,407500	0,1	0,914050
4,409167	0,1	0,892711
4,410833	0,1	0,907100
4,412500	0,1	0,924199
4,414167	0,1	0,902477
4,415833	0,1	0,894888
4,417500	0,1	0,863042
4,419167	0,1	0,891822
4,420833	0,1	0,863324
4,422500	0,1	0,862384
4,424167	0,1	0,850657
4,425833	0,1	0,845352
4,427500	0,1	0,807171
4,429167	0,1	0,873233
4,430833	0,1	0,824978
4,432500	0,1	0,860577
4,434167	0,1	0,831337
4,435833	0,1	0,823201
4,437500	0,1	0,819760
4,439167	0,1	0,794731
4,440833	0,1	0,827502
4,442500	0,1	0,773073
4,444167	0,1	0,784725
4,445833	0,1	0,781514
4,447500	0,1	0,785818
4,449167	0,1	0,803106
4,450833	0,1	0,771781
4,452500	0,1	0,770389
4,454167	0,1	0,747742
4,455833	0,1	0,744040
4,457500	0,1	0,779479
4,459167	0,1	0,774056
4,460833	0,1	0,744656
4,462500	0,1	0,694691
4,464167	0,1	0,746500
4,465833	0,1	0,724827
4,467500	0,1	0,692278
4,469167	0,1	0,707400
4,470833	0,1	0,739949
4,472500	0,1	0,751587
4,474167	0,1	0,733985
4,475833	0,1	0,682900
4,477500	0,1	0,688765
4,479167	0,1	0,677202
4,480833	0,1	0,686291
4,482500	0,1	0,664158
4,484167	0,1	0,719217
4,485833	0,1	0,632752
4,487500	0,1	0,687597
4,489167	0,1	0,652916
4,490833	0,1	0,687635
4,492500	0,1	0,683403
4,494167	0,1	0,688863
4,495833	0,1	0,658412
4,497500	0,1	0,665823
4,499167	0,1	0,655160
4,500833	0,1	0,645489
4,502500	0,1	0,628429
4,504167	0,1	0,624314
4,505833	0,1	0,607902
4,507500	0,1	0,634010
4,509167	0,1	0,624606
4,510833	0,1	0,619174
4,512500	0,1	0,639730
4,514167	0,1	0,580376
4,515833	0,1	0,597677
4,517500	0,1	0,602913
4,519167	0,1	0,598996
4,520833	0,1	0,628836
4,522500	0,1	0,576775
4,524167	0,1	0,608661
4,525833	0,1	0,622223
4,527500	0,1	0,569070
4,529167	0,1	0,616269
4,530833	0,1	0,560813
4,532500	0,1	0,568831
4,534167	0,1	0,569088
4,535833	0,1	0,559841
4,537500	0,1	0,525346
4,539167	0,1	0,524722
4,540833	0,1	0,564522
4,542500	0,1	0,542404
4,544167	0,1	0,512235
4,545833	0,1	0,554398
4,547500	0,1	0,535527
4,549167	0,1	0,531438
4,550833	0,1	0,525500
4,552500	0,1	0,569789
4,554167	0,1	0,543690
4,555833	0,1	0,515163
4,557500	0,1	0,542873
4,559167	0,1	0,532313
4,560833	0,1	0,518950
4,562500	0,1	0,515348
4,564167	0,1	0,524014
4,565833	0,1	0,525598
4,567500	0,1	0,526177
4,569167	0,1	0,525308
4,570833	0,1	0,483175
4,572500	0,1	0,499925
4,574167	0,1	0,513453
4,575833	0,1	0,496180
4,577500	0,1	0,484100
4,579167	0,1	0,513484
4,580833	0,1	0,523442
4,582500	0,1	0,480191
4,584167	0,1	0,453613
4,585833	0,1	0,459776
4,587500	0,1	0,433561
4,589167	0,1	0,427249
4,590833	0,1	0,501876
4,592500	0,1	0,470977
4,594167	0,1	0,475130
4,595833	0,1	0,431501
4,597500	0,1	0,470507
4,599167	0,1	0,458506
4,600833	0,1	0,437203
4,602500	0,1	0,392927
4,604167	0,1	0,466898
4,605833	0,1	0,443599
4,607500	0,1	0,466306
4,609167	0,1	0,433524
4,610833	0,1	0,431755
4,612500	0,1	0,441548
4,614167	0,1	0,415377
4,615833	0,1	0,434119
4,617500	0,1	0,405327
4,619167	0,1	0,419120
4,620833	0,1	0,388014
4,622500	0,1	0,417315
4,624167	0,1	0,415498
4,625833	0,1	0,429786
4,627500	0,1	0,376334
4,629167	0,1	0,405403
4,630833	0,1	0,425162
4,632500	0,1	0,427409
4,634167	0,1	0,377654
4,635833	0,1	0,402193
4,637500	0,1	0,385064
4,639167	0,1	0,379961
4,640833	0,1	0,390447
4,642500	0,1	0,403844
4,644167	0,1	0,400210
4,645833	0,1	0,369364
4,647500	0,1	0,386818
4,649167	0,1	0,394778
4,650833	0,1	0,391318
4,652500	0,1	0,391545
4,654167	0,1	0,403202
4,655833	0,1	0,338158
4,657500	0,1	0,377570
4,659167	0,1	0,350138
4,660833	0,1	0,331412
4,662500	0,1	0,362953
4,664167	0,1	0,360569
4,665833	0,1	0,373975
4,667500	0,1	0,369649
4,669167	0,1	0,339662
4,670833	0,1	0,332843
4,672500	0,1	0,355098
4,674167	0,1	0,335164
4,675833	0,1	0,351107
4,677500	0,1	0,336813
4,679167	0,1	0,320207
4,680833	0,1	0,320907
4,682500	0,1	0,297156
4,684167	0,1	0,318005
4,685833	0,1	0,336038
4,687500	0,1	0,337046
4,689167	0,1	0,364127
4,690833	0,1	0,310834
4,692500	0,1	0,320097
4,694167	0,1	0,314510
4,695833	0,1	0,337384
4,697500	0,1	0,340584
4,699167	0,1	0,305568
4,700833	0,1	0,319533
4,702500	0,1	0,336603
4,704167	0,1	0,304267
4,705833	0,1	0,318993
4,707500	0,1	0,283821
4,709167	0,1	0,294163
4,710833	0,1	0,311334
4,712500	0,1	0,307112
4,714167	0,1	0,317090
4,715833	0,1	0,307959
4,717500	0,1	0,302805
4,719167	0,1	0,269633
4,720833	0,1	0,306481
4,722500	0,1	0,349690
4,724167	0,1	0,314329
4,725833	0,1	0,322957
4,727500	0,1	0,328940
4,729167	0,1	0,299184
4,730833	0,1	0,236359
4,732500	0,1	0,318028
4,734167	0,1	0,300365
4,735833	0,1	0,294708
4,737500	0,1	0,298597
4,739167	0,1	0,316346
4,740833	0,1	0,283095
4,742500	0,1	0,308035
4,744167	0,1	0,246568
4,745833	0,1	0,265623
4,747500	0,1	0,309089
4,749167	0,1	0,281723
4,750833	0,1	0,247410
4,752500	0,1	0,276761
4,754167	0,1	0,270310
4,755833	0,1	0,266870
4,757500	0,1	0,307289
4,759167	0,1	0,307399
4,760833	0,1	0,247499
4,762500	0,1	0,273325
4,764167	0,1	0,220534
4,765833	0,1	0,283111
4,767500	0,1	0,291369
4,769167	0,1	0,276545
4,770833	0,1	0,248071
4,772500	0,1	0,251853
4,774167	0,1	0,275995
4,775833	0,1	0,226641
4,777500	0,1	0,283504
4,779167	0,1	0,276918
4,780833	0,1	0,269707
4,782500	0,1	0,247594
4,784167	0,1	0,272309
4,785833	0,1	0,251882
4,787500	0,1	0,293617
4,789167	0,1	0,310050
4,790833	0,1	0,271890
4,792500	0,1	0,254449
4,794167	0,1	0,240324
4,795833	0,1	0,273056
4,797500	0,1	0,271014
4,799167	0,1	0,218050
4,800833	0,1	0,265200
4,802500	0,1	0,255295
4,804167	0,1	0,258047
4,805833	0,1	0,266306
4,807500	0,1	0,262457
4,809167	0,1	0,208916
4,810833	0,1	0,264392
4,812500	0,1	0,245729
4,814167	0,1	0,265973
4,815833	0,1	0,222873
4,817500	0,1	0,218472
4,819167	0,1	0,240583
4,820833	0,1	0,229491
4,822500	0,1	0,246713
4,824167	0,1	0,221997
4,825833	0,1	0,240522
4,827500	0,1	0,253363
4,829167	0,1	0,253325
4,830833	0,1	0,216534
4,832500	0,1	0,219796
4,834167	0,1	0,226814
4,835833	0,1	0,224995
4,837500	0,1	0,211019
4,839167	0,1	0,238241
4,840833	0,1	0,209512
4,842500	0,1	0,237310
4,844167	0,1	0,265267
4,845833	0,1	0,245979
4,847500	0,1	0,214626
4,849167	0,1	0,207932
4,850833	0,1	0,184661
4,852500	0,1	0,240264
4,854167	0,1	0,246116
4,855833	0,1	0,211935
4,857500	0,1	0,261389
4,859167	0,1	0,236867
4,860833	0,1	0,236695
4,862500	0,1	0,195433
4,864167	0,1	0,239770
4,865833	0,1	0,266905
4,867500	0,1	0,250160
4,869167	0,1	0,222846
4,870833	0,1	0,225345
4,872500	0,1	0,221039
4,874167	0,1	0,228161
4,875833	0,1	0,222199
4,877500	0,1	0,195553
4,879167	0,1	0,230722
4,880833	0,1	0,240544
4,882500	0,1	0,228270
4,884167	0,1	0,242757
4,885833	0,1	0,188790
4,887500	0,1	0,240140
4,889167	0,1	0,220339
4,890833	0,1	0,203834
4,892500	0,1	0,240538
4,894167	0,1	0,206468
4,895833	0,1	0,213687
4,897500	0,1	0,224412
4,899167	0,1	0,268678
4,900833	0,1	0,212087
4,902500	0,1	0,220954
4,904167	0,1	0,184686
4,905833	0,1	0,227654
4,907500	0,1	0,236444
4,909167	0,1	0,259781
4,910833	0,1	0,229869
4,912500	0,1	0,246589
4,914167	0,1	0,222266
4,915833	0,1	0,213815
4,917500	0,1	0,246585
4,919167	0,1	0,249285
4,920833	0,1	0,267879
4,922500	0,1	0,232209
4,924167	0,1	0,208847
4,925833	0,1	0,223023
4,927500	0,1	0,223668
4,929167	0,1	0,195243
4,930833	0,1	0,238093
4,932500	0,1	0,221727
4,934167	0,1	0,172989
4,935833	0,1	0,170845
4,937500	0,1	0,189352
4,939167	0,1	0,182772
4,940833	0,1	0,219084
4,942500	0,1	0,201496
4,944167	0,1	0,246146
4,945833	0,1	0,228022
4,947500	0,1	0,199448
4,949167	0,1	0,200372
4,950833	0,1	0,197185
4,952500	0,1	0,201428
4,954167	0,1	0,226066
4,955833	0,1	0,209280
4,957500	0,1	0,202839
4,959167	0,1	0,195012
4,960833	0,1	0,215007
4,962500	0,1	0,214910
4,964167	0,1	0,199631
4,965833	0,1	0,234885
4,967500	0,1	0,187318
4,969167	0,1	0,214095
4,970833	0,1	0,219173
4,972500	0,1	0,208866
4,974167	0,1	0,223065
4,975833	0,1	0,203835
4,977500	0,1	0,188201
4,979167	0,1	0,193475
4,980833	0,1	0,153895
4,982500	0,1	0,241953
4,984167	0,1	0,241912
4,985833	0,1	0,229884
4,987500	0,1	0,209571
4,989167	0,1	0,221762
4,990833	0,1	0,264309
4,992500	0,1	0,214735
4,994167	0,1	0,165327
4,995833	0,1	0,183616
4,997500	0,1	0,219291
4,999167	0,1	0,213978
5,000833	0,1	0,222134
5,002500	0,1	0,192986
5,004167	0,1	0,198550
5,005833	0,1	0,205921
5,007500	0,1	0,206689
5,009167	0,1	0,221284
5,010833	0,1	0,243812
5,012500	0,1	0,187507
5,014167	0,1	0,231342
5,015833	0,1	0,197958
5,017500	0,1	0,200393
5,019167	0,1	0,186377
5,020833	0,1	0,209065
5,022500	0,1	0,203479
5,024167	0,1	0,193189
5,025833	0,1	0,191302
5,027500	0,1	0,243639
5,029167	0,1	0,251478
5,030833	0,1	0,195768
5,032500	0,1	0,216189
5,034167	0,1	0,208636
5,035833	0,1	0,215799
5,037500	0,1	0,165969
5,039167	0,1	0,212538
5,040833	0,1	0,210665
5,042500	0,1	0,194143
5,044167	0,1	0,196396
5,045833	0,1	0,245837
5,047500	0,1	0,241334
5,049167	0,1	0,146229
5,050833	0,1	0,187173
5,052500	0,1	0,202667
5,054167	0,1	0,212959
5,055833	0,1	0,192820
5,057500	0,1	0,180103
5,059167	0,1	0,226287
5,060833	0,1	0,185391
5,062500	0,1	0,203577
5,064167	0,1	0,218054
5,065833	0,1	0,172387
5,067500	0,1	0,204962
5,069167	0,1	0,167250
5,070833	0,1	0,205272
5,072500	0,1	0,169320
5,074167	0,1	0,191712
5,075833	0,1	0,204324
5,077500	0,1	0,220972
5,079167	0,1	0,173029
5,080833	0,1	0,219206
5,082500	0,1	0,185036
5,084167	0,1	0,193144
5,085833	0,1	0,202606
5,087500	0,1	0,212297
5,089167	0,1	0,167149
5,090833	0,1	0,171857
5,092500	0,1	0,162067
5,094167	0,1	0,178047
5,095833	0,1	0,182853
5,097500	0,1	0,185545
5,099167	0,1	0,211858
5,100833	0,1	0,220499
5,102500	0,1	0,186838
5,104167	0,1	0,171325
5,105833	0,1	0,232124
5,107500	0,1	0,202140
5,109167	0,1	0,193852
5,110833	0,1	0,174907
5,112500	0,1	0,182046
5,114167	0,1	0,181177
5,115833	0,1	0,185793
5,117500	0,1	0,171471
5,119167	0,1	0,148880
5,120833	0,1	0,221499
5,122500	0,1	0,189405
5,124167	0,1	0,150044
5,125833	0,1	0,145957
5,127500	0,1	0,194769
5,129167	0,1	0,194182
5,130833	0,1	0,187163
5,132500	0,1	0,173995
5,134167	0,1	0,162728
5,135833	0,1	0,171567
5,137500	0,1	0,176765
5,139167	0,1	0,190222
5,140833	0,1	0,213081
5,142500	0,1	0,164149
5,144167	0,1	0,160181
5,145833	0,1	0,200424
5,147500	0,1	0,178595
5,149167	0,1	0,225874
5,150833	0,1	0,172389
5,152500	0,1	0,170265
5,154167	0,1	0,175358
5,155833	0,1	0,209620
5,157500	0,1	0,214307
5,159167	0,1	0,152887
5,160833	0,1	0,179762
5,162500	0,1	0,187160
5,164167	0,1	0,157973
5,165833	0,1	0,188044
5,167500	0,1	0,188922
5,169167	0,1	0,162112
5,170833	0,1	0,186141
5,172500	0,1	0,194593
5,174167	0,1	0,169610
5,175833	0,1	0,169623
5,177500	0,1	0,175627
5,179167	0,1	0,153540
5,180833	0,1	0,199139
5,182500	0,1	0,188510
5,184167	0,1	0,161864
5,185833	0,1	0,184402
5,187500	0,1	0,157372
5,189167	0,1	0,184959
5,190833	0,1	0,171427
5,192500	0,1	0,182045
5,194167	0,1	0,166624
5,195833	0,1	0,155277
5,197500	0,1	0,153349
5,199167	0,1	0,166887
5,200833	0,1	0,177242
5,202500	0,1	0,181114
5,204167	0,1	0,173352
5,205833	0,1	0,143210
5,207500	0,1	0,143306
5,209167	0,1	0,149785
5,210833	0,1	0,193654
5,212500	0,1	0,167393
5,214167	0,1	0,168816
5,215833	0,1	0,176725
5,217500	0,1	0,158135
5,219167	0,1	0,153492
5,220833	0,1	0,166183
5,222500	0,1	0,108867
5,224167	0,1	0,146403
5,225833	0,1	0,134862
5,227500	0,1	0,166861
5,229167	0,1	0,154283
5,230833	0,1	0,126522
5,232500	0,1	0,169200
5,234167	0,1	0,176331
5,235833	0,1	0,123027
5,237500	0,1	0,157378
5,239167	0,1	0,160264
5,240833	0,1	0,162149
5,242500	0,1	0,160699
5,244167	0,1	0,165110
5,245833	0,1	0,158733
5,247500	0,1	0,087399
5,249167	0,1	0,174489
5,250833	0,1	0,150663
5,252500	0,1	0,137948
5,254167	0,1	0,161068
5,255833	0,1	0,137888
5,257500	0,1	0,139313
5,259167	0,1	0,128567
5,260833	0,1	0,123078
5,262500	0,1	0,145930
5,264167	0,1	0,137779
5,265833	0,1	0,146243
5,267500	0,1	0,117455
5,269167	0,1	0,129863
5,270833	0,1	0,123967
5,272500	0,1	0,154231
5,274167	0,1	0,144180
5,275833	0,1	0,167196
5,277500	0,1	0,108057
5,279167	0,1	0,151250
5,280833	0,1	0,111331
5,282500	0,1	0,125352
5,284167	0,1	0,145827
5,285833	0,1	0,149538
5,287500	0,1	0,148029
5,289167	0,1	0,148485
5,290833	0,1	0,158275
5,292500	0,1	0,153868
5,294167	0,1	0,135567
5,295833	0,1	0,132563
5,297500	0,1	0,145808
5,299167	0,1	0,146412
5,300833	0,1	0,131406
5,302500	0,1	0,146741
5,304167	0,1	0,128277
5,305833	0,1	0,125459
5,307500	0,1	0,127095
5,309167	0,1	0,131772
5,310833	0,1	0,163364
5,312500	0,1	0,131699
5,314167	0,1	0,146223
5,315833	0,1	0,146144
5,317500	0,1	0,158937
5,319167	0,1	0,120913
5,320833	0,1	0,157191
5,322500	0,1	0,136522
5,324167	0,1	0,139640
5,325833	0,1	0,127510
5,327500	0,1	0,148103
5,329167	0,1	0,131777
5,330833	0,1	0,107555
5,332500	0,1	0,117009
5,334167	0,1	0,092917
5,335833	0,1	0,085257
5,337500	0,1	0,113775
5,339167	0,1	0,139696
5,340833	0,1	0,123766
5,342500	0,1	0,136552
5,344167	0,1	0,118650
5,345833	0,1	0,094739
5,347500	0,1	0,101273
5,349167	0,1	0,120031
5,350833	0,1	0,093974
5,352500	0,1	0,093968
5,354167	0,1	0,108188
5,355833	0,1	0,144810
5,357500	0,1	0,135521
5,359167	0,1	0,100789
5,360833	0,1	0,151287
5,362500	0,1	0,111516
5,364167	0,1	0,101196
5,365833	0,1	0,122701
5,367500	0,1	0,138230
5,369167	0,1	0,098865
5,370833	0,1	0,109806
5,372500	0,1	0,128787
5,374167	0,1	0,086874
5,375833	0,1	0,074822
5,377500	0,1	0,121263
5,379167	0,1	0,118732
5,380833	0,1	0,111113
5,382500	0,1	0,108315
5,384167	0,1	0,087186
5,385833	0,1	0,116651
5,387500	0,1	0,085859
5,389167	0,1	0,150789
5,390833	0,1	0,099905
5,392500	0,1	0,108209
5,394167	0,1	0,074477
5,395833	0,1	0,077738
5,397500	0,1	0,101812
5,399167	0,1	0,101115
5,400833	0,1	0,107716
5,402500	0,1	0,093022
5,404167	0,1	0,107361
5,405833	0,1	0,105607
5,407500	0,1	0,137707
5,409167	0,1	0,097335
5,410833	0,1	0,069069
5,412500	0,1	0,135959
5,414167	0,1	0,074853
5,415833	0,1	0,095869
5,417500	0,1	0,101895
5,419167	0,1	0,070457
5,420833	0,1	0,096493
5,422500	0,1	0,097449
5,424167	0,1	0,063030
5,425833	0,1	0,102820
5,427500	0,1	0,121191
5,429167	0,1	0,087892
5,430833	0,1	0,120299
5,432500	0,1	0,124613
5,434167	0,1	0,074892
5,435833	0,1	0,087405
5,437500	0,1	0,079297
5,439167	0,1	0,087714
5,440833	0,1	0,056919
5,442500	0,1	0,105094
5,444167	0,1	0,092026
5,445833	0,1	0,069920
5,447500	0,1	0,096596
5,449167	0,1	0,092024
5,450833	0,1	0,077266
5,452500	0,1	0,089145
5,454167	0,1	0,059424
5,455833	0,1	0,042034
5,457500	0,1	0,083547
5,459167	0,1	0,097821
5,460833	0,1	0,085320
5,462500	0,1	0,076334
5,464167	0,1	0,101109
5,465833	0,1	0,120364
5,467500	0,1	0,073530
5,469167	0,1	0,069793
5,470833	0,1	0,055509
5,472500	0,1	0,072951
5,474167	0,1	0,081630
5,475833	0,1	0,117607
5,477500	0,1	0,032486
5,479167	0,1	0,082965
5,480833	0,1	0,096784
5,482500	0,1	0,052660
5,484167	0,1	0,091540
5,485833	0,1	0,077328
5,487500	0,1	0,075215
5,489167	0,1	0,049340
5,490833	0,1	0,084832
5,492500	0,1	0,078179
5,494167	0,1	0,095166
5,495833	0,1	0,063855
5,497500	0,1	0,063743
5,499167	0,1	0,077366
5,500833	0,1	0,062402
5,502500	0,1	0,075088
5,504167	0,1	0,029593
5,505833	0,1	0,095278
5,507500	0,1	0,102167
5,509167	0,1	0,080645
5,510833	0,1	0,070936
5,512500	0,1	0,106549
5,514167	0,1	0,083177
5,515833	0,1	0,082828
5,517500	0,1	0,078794
5,519167	0,1	0,059010
5,520833	0,1	0,051307
5,522500	0,1	0,082451
5,524167	0,1	0,056322
5,525833	0,1	0,099986
5,527500	0,1	0,067583
5,529167	0,1	0,067717
5,530833	0,1	0,073184
5,532500	0,1	0,082913
5,534167	0,1	0,072546
5,535833	0,1	0,049367
5,537500	0,1	0,048140
5,539167	0,1	0,082450
5,540833	0,1	0,085271
5,542500	0,1	0,057376
5,544167	0,1	0,040523
5,545833	0,1	0,083670
5,547500	0,1	0,072193
5,549167	0,1	0,064537
5,550833	0,1	0,081585
5,552500	0,1	0,045538
5,554167	0,1	0,061523
5,555833	0,1	0,078710
5,557500	0,1	0,045571
5,559167	0,1	0,064362
5,560833	0,1	0,067179
5,562500	0,1	0,043978
5,564167	0,1	0,039175
5,565833	0,1	0,085014
5,567500	0,1	0,045969
5,569167	0,1	0,112816
5,570833	0,1	0,054862
5,572500	0,1	0,078874
5,574167	0,1	0,071366
5,575833	0,1	0,067472
5,577500	0,1	0,040982
5,579167	0,1	0,058956
5,580833	0,1	0,092368
5,582500	0,1	0,036102
5,584167	0,1	0,108983
5,585833	0,1	0,067919
5,587500	0,1	0,103048
5,589167	0,1	0,079194
5,590833	0,1	0,085254
5,592500	0,1	0,059899
5,594167	0,1	0,030565
5,595833	0,1	0,073236
5,597500	0,1	0,076578
5,599167	0,1	0,096906
5,600833	0,1	0,072242
5,602500	0,1	0,054806
5,604167	0,1	0,091434
5,605833	0,1	0,047922
5,607500	0,1	0,087628
5,609167	0,1	0,097550
5,610833	0,1	0,060832
5,612500	0,1	0,085398
5,614167	0,1	0,088006
5,615833	0,1	0,105188
5,617500	0,1	0,061414
5,619167	0,1	0,020071
5,620833	0,1	0,045266
5,622500	0,1	0,071358
5,624167	0,1	0,061072
5,625833	0,1	0,048572
5,627500	0,1	0,085350
5,629167	0,1	0,067518
5,630833	0,1	0,068051
5,632500	0,1	0,090303
5,634167	0,1	0,116055
5,635833	0,1	0,009621
5,637500	0,1	0,065391
5,639167	0,1	0,066890
5,640833	0,1	0,063426
5,642500	0,1	0,073138
5,644167	0,1	0,106056
5,645833	0,1	0,132347
5,647500	0,1	0,082613
5,649167	0,1	0,056322
5,650833	0,1	0,042825
5,652500	0,1	0,081334
5,654167	0,1	0,102973
5,655833	0,1	0,094803
5,657500	0,1	0,082050
5,659167	0,1	0,104853
5,660833	0,1	0,085092
5,662500	0,1	0,085000
5,664167	0,1	0,066419
5,665833	0,1	0,084609
5,667500	0,1	0,069319
5,669167	0,1	0,093136
5,670833	0,1	0,096349
5,672500	0,1	0,085751
5,674167	0,1	0,095933
5,675833	0,1	0,122761
5,677500	0,1	0,062290
5,679167	0,1	0,120354
5,680833	0,1	0,098553
5,682500	0,1	0,079484
5,684167	0,1	0,073686
5,685833	0,1	0,115656
5,687500	0,1	0,081948
5,689167	0,1	0,089869
5,690833	0,1	0,108996
5,692500	0,1	0,099648
5,694167	0,1	0,095505
5,695833	0,1	0,093949
5,697500	0,1	0,083991
5,699167	0,1	0,127583
5,700833	0,1	0,083921
5,702500	0,1	0,107544
5,704167	0,1	0,069360
5,705833	0,1	0,095868
5,707500	0,1	0,073268
5,709167	0,1	0,126791
5,710833	0,1	0,076782
5,712500	0,1	0,079311
5,714167	0,1	0,087837
5,715833	0,1	0,138283
5,717500	0,1	0,095699
5,719167	0,1	0,102562
5,720833	0,1	0,118333
5,722500	0,1	0,099483
5,724167	0,1	0,066072
5,725833	0,1	0,099366
5,727500	0,1	0,130939
5,729167	0,1	0,125233
5,730833	0,1	0,123183
5,732500	0,1	0,112168
5,734167	0,1	0,093373
5,735833	0,1	0,099101
5,737500	0,1	0,115124
5,739167	0,1	0,126369
5,740833	0,1	0,126762
5,742500	0,1	0,115940
5,744167	0,1	0,157107
5,745833	0,1	0,123541
5,747500	0,1	0,126223
5,749167	0,1	0,109541
5,750833	0,1	0,098110
5,752500	0,1	0,134208
5,754167	0,1	0,165042
5,755833	0,1	0,103898
5,757500	0,1	0,135099
5,759167	0,1	0,137591
5,760833	0,1	0,099857
5,762500	0,1	0,142840
5,764167	0,1	0,131134
5,765833	0,1	0,141422
5,767500	0,1	0,101141
5,769167	0,1	0,137356
5,770833	0,1	0,115980
5,772500	0,1	0,132267
5,774167	0,1	0,121548
5,775833	0,1	0,166464
5,777500	0,1	0,118331
5,779167	0,1	0,138267
5,780833	0,1	0,098804
5,782500	0,1	0,107197
5,784167	0,1	0,114299
5,785833	0,1	0,169653
5,787500	0,1	0,152402
5,789167	0,1	0,144574
5,790833	0,1	0,146536
5,792500	0,1	0,129605
5,794167	0,1	0,127799
5,795833	0,1	0,125294
5,797500	0,1	0,152657
5,799167	0,1	0,124034
5,800833	0,1	0,120658
5,802500	0,1	0,138476
5,804167	0,1	0,118214
5,805833	0,1	0,126678
5,807500	0,1	0,120819
5,809167	0,1	0,151666
5,810833	0,1	0,103859
5,812500	0,1	0,124935
5,814167	0,1	0,151355
5,815833	0,1	0,138589
5,817500	0,1	0,146596
5,819167	0,1	0,135730
5,820833	0,1	0,144485
5,822500	0,1	0,150241
5,824167	0,1	0,110356
5,825833	0,1	0,135783
5,827500	0,1	0,138439
5,829167	0,1	0,106915
5,830833	0,1	0,143815
5,832500	0,1	0,098348
5,834167	0,1	0,106679
5,835833	0,1	0,091466
5,837500	0,1	0,134021
5,839167	0,1	0,121013
5,840833	0,1	0,159675
5,842500	0,1	0,096901
5,844167	0,1	0,105272
5,845833	0,1	0,114195
5,847500	0,1	0,119742
5,849167	0,1	0,132183
5,850833	0,1	0,130717
5,852500	0,1	0,124135
5,854167	0,1	0,125396
5,855833	0,1	0,143302
5,857500	0,1	0,127117
5,859167	0,1	0,107142
5,860833	0,1	0,164040
5,862500	0,1	0,162003
5,864167	0,1	0,137845
5,865833	0,1	0,125461
5,867500	0,1	0,104371
5,869167	0,1	0,142676
5,870833	0,1	0,139685
5,872500	0,1	0,125215
5,874167	0,1	0,102009
5,875833	0,1	0,133900
5,877500	0,1	0,113745
5,879167	0,1	0,122933
5,880833	0,1	0,125440
5,882500	0,1	0,087812
5,884167	0,1	0,123877
5,885833	0,1	0,107862
5,887500	0,1	0,084593
5,889167	0,1	0,113672
5,890833	0,1	0,102462
5,892500	0,1	0,115519
5,894167	0,1	0,140591
5,895833	0,1	0,112234
5,897500	0,1	0,144397
5,899167	0,1	0,092406
5,900833	0,1	0,115949
5,902500	0,1	0,108316
5,904167	0,1	0,108006
5,905833	0,1	0,112209
5,907500	0,1	0,127380
5,909167	0,1	0,085282
5,910833	0,1	0,107404
5,912500	0,1	0,132062
5,914167	0,1	0,113584
5,915833	0,1	0,107386
5,917500	0,1	0,153856
5,919167	0,1	0,125404
5,920833	0,1	0,109935
5,922500	0,1	0,106496
5,924167	0,1	0,136963
5,925833	0,1	0,103213
5,927500	0,1	0,104940
5,929167	0,1	0,151621
5,930833	0,1	0,106013
5,932500	0,1	0,117860
5,934167	0,1	0,127714
5,935833	0,1	0,098325
5,937500	0,1	0,078217
5,939167	0,1	0,105970
5,940833	0,1	0,075134
5,942500	0,1	0,129049
5,944167	0,1	0,114349
5,945833	0,1	0,116788
5,947500	0,1	0,091264
5,949167	0,1	0,131393
5,950833	0,1	0,077030
5,952500	0,1	0,085043
5,954167	0,1	0,067475
5,955833	0,1	0,082393
5,957500	0,1	0,104977
5,959167	0,1	0,072797
5,960833	0,1	0,084339
5,962500	0,1	0,083716
5,964167	0,1	0,088920
5,965833	0,1	0,122636
5,967500	0,1	0,105549
5,969167	0,1	0,087843
5,970833	0,1	0,110630
5,972500	0,1	0,092115
5,974167	0,1	0,076459
5,975833	0,1	0,057435
5,977500	0,1	0,060515
5,979167	0,1	0,102820
5,980833	0,1	0,078782
5,982500	0,1	0,076210
5,984167	0,1	0,064784
5,985833	0,1	0,089635
5,987500	0,1	0,091838
5,989167	0,1	0,074473
5,990833	0,1	0,095765
5,992500	0,1	0,059856
5,994167	0,1	0,085249
5,995833	0,1	0,084588
5,997500	0,1	0,064337
5,999167	0,1	0,099242
6,000833	0,1	0,072715
