File Path	chrom://chromeleon01/ikbm_chromeleon/2022/Rezex/Esteban/220612_chitin_4_7.seq/638.smp/UV_VIS_1.channel/UV_VIS_1.chm
Channel	UV_VIS_1

Injection Information:
Data Vault	ikbm_chromeleon
Injection	CelS2_01h-EGS_3
Injection Number	99
Position	BA2
Comment	
Processing Method	New ProcMethod
Instrument Method	Short_Rezex_6min_194nm
Type	Unknown
Status	Finished
Injection Date	13.06.2022
Injection Time	03:48:37
Injection Volume (µl)	8,000
Dilution Factor	1,0000
Weight	1,0000

Chromatogram Data Information:
Time Min. (min)	0,000833
Time Max. (min)	6,000833
Data Points	3601
Detector	UV
Generating Data System	Chromeleon 7.2.9.11323
Exporting Data System	Chromeleon 7.2.9.0
Operator	Instrument Controller
Signal Quantity	Absorbance
Signal Unit	mAU
Signal Min.	-0,172983
Signal Max.	122,418042
Channel	UV_VIS_1
Driver Name	VWD3000.dll
Channel Type	Evaluation
Min. Step (s)	0,1
Max. Step (s)	0,1
Average Step (s)	0,1

Signal Parameter Information:
Signal Info	WVL:194 nm

Chromatogram Data:
Time (min)	Step (s)	Value (mAU)
0,000833	n.a.	-0,106081
0,002500	0,1	-0,102831
0,004167	0,1	-0,080315
0,005833	0,1	-0,060669
0,007500	0,1	-0,084525
0,009167	0,1	-0,097218
0,010833	0,1	-0,053098
0,012500	0,1	-0,060353
0,014167	0,1	-0,061700
0,015833	0,1	-0,088268
0,017500	0,1	-0,065100
0,019167	0,1	-0,091810
0,020833	0,1	-0,087658
0,022500	0,1	-0,068743
0,024167	0,1	-0,061060
0,025833	0,1	-0,074302
0,027500	0,1	-0,085150
0,029167	0,1	-0,120085
0,030833	0,1	-0,098258
0,032500	0,1	-0,107777
0,034167	0,1	-0,116427
0,035833	0,1	-0,128581
0,037500	0,1	-0,172983
0,039167	0,1	-0,121432
0,040833	0,1	-0,146394
0,042500	0,1	-0,121276
0,044167	0,1	-0,124873
0,045833	0,1	-0,106455
0,047500	0,1	-0,126110
0,049167	0,1	-0,111859
0,050833	0,1	-0,115724
0,052500	0,1	-0,100495
0,054167	0,1	-0,074602
0,055833	0,1	-0,075609
0,057500	0,1	-0,088629
0,059167	0,1	-0,086333
0,060833	0,1	-0,075302
0,062500	0,1	-0,092972
0,064167	0,1	-0,108417
0,065833	0,1	-0,053039
0,067500	0,1	-0,119498
0,069167	0,1	-0,090996
0,070833	0,1	-0,112097
0,072500	0,1	-0,069226
0,074167	0,1	-0,048082
0,075833	0,1	-0,084213
0,077500	0,1	-0,059675
0,079167	0,1	-0,098453
0,080833	0,1	-0,088819
0,082500	0,1	-0,075012
0,084167	0,1	-0,071430
0,085833	0,1	-0,072218
0,087500	0,1	-0,058204
0,089167	0,1	-0,050377
0,090833	0,1	-0,105944
0,092500	0,1	0,004357
0,094167	0,1	-0,073874
0,095833	0,1	-0,061517
0,097500	0,1	-0,041064
0,099167	0,1	-0,076907
0,100833	0,1	-0,093034
0,102500	0,1	-0,074292
0,104167	0,1	-0,089973
0,105833	0,1	-0,062243
0,107500	0,1	-0,051082
0,109167	0,1	-0,116912
0,110833	0,1	-0,127043
0,112500	0,1	-0,054140
0,114167	0,1	-0,122767
0,115833	0,1	-0,121957
0,117500	0,1	-0,104037
0,119167	0,1	-0,089647
0,120833	0,1	-0,079712
0,122500	0,1	-0,129978
0,124167	0,1	-0,101016
0,125833	0,1	-0,117750
0,127500	0,1	-0,101716
0,129167	0,1	-0,107116
0,130833	0,1	-0,128640
0,132500	0,1	-0,092881
0,134167	0,1	-0,103408
0,135833	0,1	-0,102128
0,137500	0,1	-0,089297
0,139167	0,1	-0,081427
0,140833	0,1	-0,109697
0,142500	0,1	-0,080379
0,144167	0,1	-0,073727
0,145833	0,1	-0,057354
0,147500	0,1	-0,072544
0,149167	0,1	-0,082916
0,150833	0,1	-0,092253
0,152500	0,1	-0,066278
0,154167	0,1	-0,057542
0,155833	0,1	-0,071052
0,157500	0,1	-0,113647
0,159167	0,1	-0,090168
0,160833	0,1	-0,074803
0,162500	0,1	-0,070376
0,164167	0,1	-0,066649
0,165833	0,1	-0,049012
0,167500	0,1	-0,091209
0,169167	0,1	-0,052310
0,170833	0,1	-0,089487
0,172500	0,1	-0,076672
0,174167	0,1	-0,065800
0,175833	0,1	-0,083223
0,177500	0,1	-0,062718
0,179167	0,1	-0,064452
0,180833	0,1	-0,075586
0,182500	0,1	-0,062098
0,184167	0,1	-0,077448
0,185833	0,1	-0,028359
0,187500	0,1	-0,092775
0,189167	0,1	-0,041341
0,190833	0,1	-0,093131
0,192500	0,1	-0,079733
0,194167	0,1	-0,082814
0,195833	0,1	-0,118555
0,197500	0,1	-0,116059
0,199167	0,1	-0,064483
0,200833	0,1	-0,077678
0,202500	0,1	-0,091072
0,204167	0,1	-0,037242
0,205833	0,1	-0,074691
0,207500	0,1	-0,065097
0,209167	0,1	-0,031732
0,210833	0,1	-0,058008
0,212500	0,1	-0,063333
0,214167	0,1	-0,068116
0,215833	0,1	-0,069671
0,217500	0,1	-0,053299
0,219167	0,1	-0,082393
0,220833	0,1	-0,078033
0,222500	0,1	-0,031630
0,224167	0,1	-0,056849
0,225833	0,1	-0,048141
0,227500	0,1	-0,072830
0,229167	0,1	-0,054831
0,230833	0,1	-0,086243
0,232500	0,1	-0,084802
0,234167	0,1	-0,045170
0,235833	0,1	-0,061178
0,237500	0,1	-0,059775
0,239167	0,1	-0,094604
0,240833	0,1	-0,077641
0,242500	0,1	-0,070209
0,244167	0,1	-0,044959
0,245833	0,1	-0,078789
0,247500	0,1	-0,099765
0,249167	0,1	-0,040639
0,250833	0,1	-0,040293
0,252500	0,1	-0,083902
0,254167	0,1	-0,065905
0,255833	0,1	-0,060977
0,257500	0,1	-0,069669
0,259167	0,1	-0,039597
0,260833	0,1	-0,023093
0,262500	0,1	-0,124710
0,264167	0,1	-0,017444
0,265833	0,1	-0,054279
0,267500	0,1	-0,042698
0,269167	0,1	-0,064076
0,270833	0,1	-0,053772
0,272500	0,1	-0,043504
0,274167	0,1	-0,065192
0,275833	0,1	-0,092125
0,277500	0,1	-0,054897
0,279167	0,1	-0,040381
0,280833	0,1	-0,081583
0,282500	0,1	-0,080475
0,284167	0,1	-0,083789
0,285833	0,1	-0,065037
0,287500	0,1	-0,052533
0,289167	0,1	-0,080118
0,290833	0,1	-0,015279
0,292500	0,1	-0,063822
0,294167	0,1	-0,054290
0,295833	0,1	-0,065942
0,297500	0,1	-0,090736
0,299167	0,1	-0,089126
0,300833	0,1	-0,049163
0,302500	0,1	-0,057889
0,304167	0,1	-0,019146
0,305833	0,1	-0,066884
0,307500	0,1	-0,031214
0,309167	0,1	-0,044764
0,310833	0,1	-0,049258
0,312500	0,1	-0,071073
0,314167	0,1	-0,028690
0,315833	0,1	-0,045941
0,317500	0,1	-0,040400
0,319167	0,1	-0,069126
0,320833	0,1	-0,034445
0,322500	0,1	-0,039384
0,324167	0,1	-0,031496
0,325833	0,1	-0,041574
0,327500	0,1	-0,015518
0,329167	0,1	-0,003445
0,330833	0,1	-0,010769
0,332500	0,1	-0,041569
0,334167	0,1	-0,054285
0,335833	0,1	-0,031999
0,337500	0,1	-0,050557
0,339167	0,1	-0,010554
0,340833	0,1	-0,078639
0,342500	0,1	-0,032376
0,344167	0,1	-0,049977
0,345833	0,1	-0,053047
0,347500	0,1	-0,047212
0,349167	0,1	-0,022931
0,350833	0,1	-0,011521
0,352500	0,1	-0,018781
0,354167	0,1	-0,003799
0,355833	0,1	-0,030598
0,357500	0,1	0,002637
0,359167	0,1	-0,064207
0,360833	0,1	-0,000021
0,362500	0,1	-0,029438
0,364167	0,1	-0,063888
0,365833	0,1	-0,018071
0,367500	0,1	-0,021101
0,369167	0,1	0,001480
0,370833	0,1	0,010116
0,372500	0,1	-0,040510
0,374167	0,1	-0,060391
0,375833	0,1	-0,019995
0,377500	0,1	-0,038221
0,379167	0,1	-0,017175
0,380833	0,1	-0,027808
0,382500	0,1	-0,027541
0,384167	0,1	-0,060161
0,385833	0,1	-0,037360
0,387500	0,1	-0,040128
0,389167	0,1	-0,035780
0,390833	0,1	-0,034561
0,392500	0,1	-0,014400
0,394167	0,1	-0,009240
0,395833	0,1	-0,028448
0,397500	0,1	-0,023918
0,399167	0,1	-0,036151
0,400833	0,1	-0,049460
0,402500	0,1	0,006358
0,404167	0,1	-0,046388
0,405833	0,1	0,001638
0,407500	0,1	-0,035668
0,409167	0,1	-0,066929
0,410833	0,1	-0,003955
0,412500	0,1	-0,044196
0,414167	0,1	-0,054205
0,415833	0,1	-0,025539
0,417500	0,1	0,001479
0,419167	0,1	-0,020560
0,420833	0,1	-0,050080
0,422500	0,1	-0,028126
0,424167	0,1	-0,007651
0,425833	0,1	-0,035670
0,427500	0,1	-0,008997
0,429167	0,1	-0,005142
0,430833	0,1	-0,026005
0,432500	0,1	-0,020836
0,434167	0,1	0,004440
0,435833	0,1	-0,082280
0,437500	0,1	-0,016916
0,439167	0,1	-0,043145
0,440833	0,1	-0,000804
0,442500	0,1	-0,056200
0,444167	0,1	-0,061969
0,445833	0,1	-0,019249
0,447500	0,1	-0,038509
0,449167	0,1	-0,026220
0,450833	0,1	-0,012244
0,452500	0,1	-0,033582
0,454167	0,1	-0,050578
0,455833	0,1	-0,008276
0,457500	0,1	-0,017416
0,459167	0,1	-0,018058
0,460833	0,1	-0,038074
0,462500	0,1	-0,021769
0,464167	0,1	-0,003198
0,465833	0,1	0,011296
0,467500	0,1	-0,009194
0,469167	0,1	-0,020975
0,470833	0,1	-0,027766
0,472500	0,1	-0,023775
0,474167	0,1	-0,031431
0,475833	0,1	-0,042362
0,477500	0,1	-0,039757
0,479167	0,1	0,002759
0,480833	0,1	-0,037698
0,482500	0,1	-0,023548
0,484167	0,1	0,008578
0,485833	0,1	-0,007580
0,487500	0,1	-0,034427
0,489167	0,1	-0,003368
0,490833	0,1	-0,021968
0,492500	0,1	-0,005870
0,494167	0,1	-0,015386
0,495833	0,1	-0,004045
0,497500	0,1	-0,018057
0,499167	0,1	-0,037783
0,500833	0,1	0,000730
0,502500	0,1	0,020009
0,504167	0,1	0,016599
0,505833	0,1	0,024050
0,507500	0,1	-0,002815
0,509167	0,1	-0,007230
0,510833	0,1	-0,014931
0,512500	0,1	-0,026110
0,514167	0,1	-0,011686
0,515833	0,1	-0,023793
0,517500	0,1	-0,017894
0,519167	0,1	0,020937
0,520833	0,1	0,042847
0,522500	0,1	0,006504
0,524167	0,1	-0,011160
0,525833	0,1	-0,011165
0,527500	0,1	0,011625
0,529167	0,1	-0,020266
0,530833	0,1	0,003942
0,532500	0,1	0,050357
0,534167	0,1	0,006568
0,535833	0,1	0,026575
0,537500	0,1	-0,000538
0,539167	0,1	-0,005554
0,540833	0,1	-0,033456
0,542500	0,1	-0,013923
0,544167	0,1	0,061304
0,545833	0,1	0,030002
0,547500	0,1	0,009172
0,549167	0,1	0,050070
0,550833	0,1	0,039315
0,552500	0,1	0,002176
0,554167	0,1	0,034791
0,555833	0,1	0,057964
0,557500	0,1	0,019404
0,559167	0,1	0,017054
0,560833	0,1	0,023182
0,562500	0,1	0,084937
0,564167	0,1	0,012227
0,565833	0,1	0,030819
0,567500	0,1	0,010371
0,569167	0,1	0,019723
0,570833	0,1	0,016681
0,572500	0,1	0,000163
0,574167	0,1	0,013490
0,575833	0,1	0,024485
0,577500	0,1	0,037756
0,579167	0,1	0,041653
0,580833	0,1	0,017226
0,582500	0,1	0,028977
0,584167	0,1	0,049142
0,585833	0,1	0,039128
0,587500	0,1	0,032397
0,589167	0,1	0,038233
0,590833	0,1	0,035792
0,592500	0,1	0,006647
0,594167	0,1	0,018936
0,595833	0,1	0,053819
0,597500	0,1	0,065607
0,599167	0,1	0,019281
0,600833	0,1	0,072079
0,602500	0,1	0,048261
0,604167	0,1	0,054117
0,605833	0,1	0,064674
0,607500	0,1	0,066540
0,609167	0,1	0,086556
0,610833	0,1	0,050275
0,612500	0,1	0,052566
0,614167	0,1	0,070224
0,615833	0,1	0,052734
0,617500	0,1	0,060619
0,619167	0,1	0,068402
0,620833	0,1	0,064428
0,622500	0,1	0,074282
0,624167	0,1	0,084036
0,625833	0,1	0,072282
0,627500	0,1	0,065175
0,629167	0,1	0,020938
0,630833	0,1	0,059636
0,632500	0,1	0,060599
0,634167	0,1	0,077615
0,635833	0,1	0,059920
0,637500	0,1	0,083953
0,639167	0,1	0,097617
0,640833	0,1	0,053775
0,642500	0,1	0,065254
0,644167	0,1	0,122089
0,645833	0,1	0,086511
0,647500	0,1	0,071100
0,649167	0,1	0,067474
0,650833	0,1	0,082297
0,652500	0,1	0,086151
0,654167	0,1	0,093875
0,655833	0,1	0,079031
0,657500	0,1	0,074598
0,659167	0,1	0,088113
0,660833	0,1	0,117726
0,662500	0,1	0,094712
0,664167	0,1	0,098239
0,665833	0,1	0,118659
0,667500	0,1	0,096741
0,669167	0,1	0,085888
0,670833	0,1	0,088140
0,672500	0,1	0,091512
0,674167	0,1	0,118244
0,675833	0,1	0,129490
0,677500	0,1	0,146986
0,679167	0,1	0,141552
0,680833	0,1	0,103328
0,682500	0,1	0,110545
0,684167	0,1	0,118787
0,685833	0,1	0,124175
0,687500	0,1	0,113947
0,689167	0,1	0,135993
0,690833	0,1	0,146345
0,692500	0,1	0,149808
0,694167	0,1	0,166789
0,695833	0,1	0,139318
0,697500	0,1	0,179271
0,699167	0,1	0,150332
0,700833	0,1	0,148776
0,702500	0,1	0,168424
0,704167	0,1	0,179883
0,705833	0,1	0,140111
0,707500	0,1	0,185048
0,709167	0,1	0,172184
0,710833	0,1	0,177707
0,712500	0,1	0,188168
0,714167	0,1	0,163612
0,715833	0,1	0,181871
0,717500	0,1	0,214915
0,719167	0,1	0,206593
0,720833	0,1	0,218083
0,722500	0,1	0,173853
0,724167	0,1	0,231179
0,725833	0,1	0,217395
0,727500	0,1	0,222328
0,729167	0,1	0,203573
0,730833	0,1	0,203479
0,732500	0,1	0,209836
0,734167	0,1	0,245565
0,735833	0,1	0,223429
0,737500	0,1	0,230700
0,739167	0,1	0,208810
0,740833	0,1	0,221014
0,742500	0,1	0,225991
0,744167	0,1	0,243516
0,745833	0,1	0,248404
0,747500	0,1	0,228085
0,749167	0,1	0,211578
0,750833	0,1	0,249933
0,752500	0,1	0,240347
0,754167	0,1	0,204835
0,755833	0,1	0,197161
0,757500	0,1	0,197184
0,759167	0,1	0,242361
0,760833	0,1	0,226817
0,762500	0,1	0,227038
0,764167	0,1	0,192823
0,765833	0,1	0,170611
0,767500	0,1	0,204302
0,769167	0,1	0,226629
0,770833	0,1	0,231922
0,772500	0,1	0,218956
0,774167	0,1	0,186414
0,775833	0,1	0,226523
0,777500	0,1	0,221235
0,779167	0,1	0,195906
0,780833	0,1	0,184093
0,782500	0,1	0,202769
0,784167	0,1	0,215613
0,785833	0,1	0,195817
0,787500	0,1	0,214808
0,789167	0,1	0,215100
0,790833	0,1	0,203809
0,792500	0,1	0,203518
0,794167	0,1	0,231060
0,795833	0,1	0,174535
0,797500	0,1	0,204693
0,799167	0,1	0,194303
0,800833	0,1	0,204308
0,802500	0,1	0,179085
0,804167	0,1	0,197896
0,805833	0,1	0,198669
0,807500	0,1	0,183427
0,809167	0,1	0,194109
0,810833	0,1	0,212212
0,812500	0,1	0,198798
0,814167	0,1	0,207305
0,815833	0,1	0,156784
0,817500	0,1	0,194681
0,819167	0,1	0,202205
0,820833	0,1	0,171735
0,822500	0,1	0,176863
0,824167	0,1	0,180464
0,825833	0,1	0,172246
0,827500	0,1	0,204467
0,829167	0,1	0,197602
0,830833	0,1	0,211519
0,832500	0,1	0,168402
0,834167	0,1	0,211564
0,835833	0,1	0,182260
0,837500	0,1	0,216388
0,839167	0,1	0,185004
0,840833	0,1	0,200076
0,842500	0,1	0,159991
0,844167	0,1	0,235831
0,845833	0,1	0,181723
0,847500	0,1	0,162843
0,849167	0,1	0,222098
0,850833	0,1	0,201218
0,852500	0,1	0,162559
0,854167	0,1	0,219494
0,855833	0,1	0,197453
0,857500	0,1	0,201842
0,859167	0,1	0,236964
0,860833	0,1	0,196515
0,862500	0,1	0,222901
0,864167	0,1	0,194634
0,865833	0,1	0,218734
0,867500	0,1	0,210745
0,869167	0,1	0,230419
0,870833	0,1	0,230902
0,872500	0,1	0,202781
0,874167	0,1	0,197638
0,875833	0,1	0,188574
0,877500	0,1	0,211344
0,879167	0,1	0,245828
0,880833	0,1	0,215536
0,882500	0,1	0,265741
0,884167	0,1	0,183758
0,885833	0,1	0,243443
0,887500	0,1	0,224649
0,889167	0,1	0,212321
0,890833	0,1	0,213528
0,892500	0,1	0,174531
0,894167	0,1	0,205047
0,895833	0,1	0,220497
0,897500	0,1	0,223297
0,899167	0,1	0,231833
0,900833	0,1	0,236518
0,902500	0,1	0,215007
0,904167	0,1	0,197050
0,905833	0,1	0,217286
0,907500	0,1	0,224190
0,909167	0,1	0,211215
0,910833	0,1	0,207171
0,912500	0,1	0,198155
0,914167	0,1	0,214103
0,915833	0,1	0,241938
0,917500	0,1	0,234567
0,919167	0,1	0,246149
0,920833	0,1	0,233375
0,922500	0,1	0,215206
0,924167	0,1	0,203671
0,925833	0,1	0,225471
0,927500	0,1	0,252792
0,929167	0,1	0,267051
0,930833	0,1	0,227728
0,932500	0,1	0,248751
0,934167	0,1	0,257798
0,935833	0,1	0,233866
0,937500	0,1	0,236291
0,939167	0,1	0,226346
0,940833	0,1	0,237447
0,942500	0,1	0,233310
0,944167	0,1	0,245633
0,945833	0,1	0,234406
0,947500	0,1	0,278125
0,949167	0,1	0,240382
0,950833	0,1	0,240888
0,952500	0,1	0,271804
0,954167	0,1	0,253319
0,955833	0,1	0,270650
0,957500	0,1	0,256592
0,959167	0,1	0,292962
0,960833	0,1	0,285617
0,962500	0,1	0,281411
0,964167	0,1	0,258711
0,965833	0,1	0,252386
0,967500	0,1	0,273155
0,969167	0,1	0,277329
0,970833	0,1	0,284041
0,972500	0,1	0,305013
0,974167	0,1	0,277670
0,975833	0,1	0,307770
0,977500	0,1	0,287964
0,979167	0,1	0,292552
0,980833	0,1	0,286613
0,982500	0,1	0,320263
0,984167	0,1	0,319241
0,985833	0,1	0,310893
0,987500	0,1	0,334523
0,989167	0,1	0,308870
0,990833	0,1	0,300643
0,992500	0,1	0,325079
0,994167	0,1	0,364673
0,995833	0,1	0,369634
0,997500	0,1	0,316684
0,999167	0,1	0,326494
1,000833	0,1	0,369523
1,002500	0,1	0,344394
1,004167	0,1	0,379963
1,005833	0,1	0,350721
1,007500	0,1	0,384492
1,009167	0,1	0,342883
1,010833	0,1	0,388954
1,012500	0,1	0,393624
1,014167	0,1	0,406019
1,015833	0,1	0,453810
1,017500	0,1	0,489696
1,019167	0,1	0,445929
1,020833	0,1	0,443379
1,022500	0,1	0,468559
1,024167	0,1	0,496478
1,025833	0,1	0,477822
1,027500	0,1	0,499595
1,029167	0,1	0,515566
1,030833	0,1	0,507312
1,032500	0,1	0,544285
1,034167	0,1	0,563598
1,035833	0,1	0,573818
1,037500	0,1	0,554326
1,039167	0,1	0,551170
1,040833	0,1	0,564630
1,042500	0,1	0,579637
1,044167	0,1	0,591395
1,045833	0,1	0,568624
1,047500	0,1	0,638942
1,049167	0,1	0,622221
1,050833	0,1	0,665555
1,052500	0,1	0,659277
1,054167	0,1	0,677492
1,055833	0,1	0,705301
1,057500	0,1	0,755981
1,059167	0,1	0,834644
1,060833	0,1	0,910399
1,062500	0,1	1,052812
1,064167	0,1	1,181596
1,065833	0,1	1,378486
1,067500	0,1	1,567651
1,069167	0,1	1,892408
1,070833	0,1	2,252465
1,072500	0,1	2,728257
1,074167	0,1	3,330784
1,075833	0,1	3,986668
1,077500	0,1	4,782337
1,079167	0,1	5,712735
1,080833	0,1	6,792549
1,082500	0,1	8,060422
1,084167	0,1	9,380943
1,085833	0,1	10,874149
1,087500	0,1	12,512843
1,089167	0,1	14,324386
1,090833	0,1	16,128543
1,092500	0,1	17,987582
1,094167	0,1	19,927214
1,095833	0,1	21,896363
1,097500	0,1	23,848499
1,099167	0,1	25,724578
1,100833	0,1	27,564540
1,102500	0,1	29,254133
1,104167	0,1	30,873504
1,105833	0,1	32,320189
1,107500	0,1	33,616488
1,109167	0,1	34,721744
1,110833	0,1	35,676203
1,112500	0,1	36,497061
1,114167	0,1	37,124465
1,115833	0,1	37,614367
1,117500	0,1	37,924561
1,119167	0,1	38,159309
1,120833	0,1	38,292228
1,122500	0,1	38,269613
1,124167	0,1	38,225229
1,125833	0,1	38,097032
1,127500	0,1	37,936606
1,129167	0,1	37,725605
1,130833	0,1	37,535216
1,132500	0,1	37,379657
1,134167	0,1	37,169410
1,135833	0,1	37,007683
1,137500	0,1	36,842074
1,139167	0,1	36,762415
1,140833	0,1	36,703274
1,142500	0,1	36,802657
1,144167	0,1	36,880905
1,145833	0,1	37,101256
1,147500	0,1	37,361845
1,149167	0,1	37,742031
1,150833	0,1	38,242357
1,152500	0,1	38,776808
1,154167	0,1	39,390843
1,155833	0,1	40,076658
1,157500	0,1	40,854561
1,159167	0,1	41,662257
1,160833	0,1	42,525577
1,162500	0,1	43,412838
1,164167	0,1	44,334511
1,165833	0,1	45,280188
1,167500	0,1	46,197523
1,169167	0,1	47,116968
1,170833	0,1	47,985073
1,172500	0,1	48,792620
1,174167	0,1	49,592680
1,175833	0,1	50,362253
1,177500	0,1	51,024717
1,179167	0,1	51,605882
1,180833	0,1	52,201483
1,182500	0,1	52,650078
1,184167	0,1	53,031892
1,185833	0,1	53,375676
1,187500	0,1	53,666406
1,189167	0,1	53,897412
1,190833	0,1	54,164590
1,192500	0,1	54,309150
1,194167	0,1	54,544131
1,195833	0,1	54,697313
1,197500	0,1	54,998839
1,199167	0,1	55,267437
1,200833	0,1	55,649542
1,202500	0,1	56,143090
1,204167	0,1	56,794306
1,205833	0,1	57,628303
1,207500	0,1	58,644173
1,209167	0,1	59,823387
1,210833	0,1	61,232115
1,212500	0,1	62,858518
1,214167	0,1	64,753349
1,215833	0,1	66,875248
1,217500	0,1	69,232850
1,219167	0,1	71,764926
1,220833	0,1	74,517608
1,222500	0,1	77,443770
1,224167	0,1	80,431626
1,225833	0,1	83,635574
1,227500	0,1	86,825323
1,229167	0,1	90,103600
1,230833	0,1	93,365558
1,232500	0,1	96,544443
1,234167	0,1	99,733031
1,235833	0,1	102,704324
1,237500	0,1	105,588116
1,239167	0,1	108,293668
1,240833	0,1	110,809718
1,242500	0,1	113,064214
1,244167	0,1	115,155934
1,245833	0,1	116,953307
1,247500	0,1	118,543156
1,249167	0,1	119,831865
1,250833	0,1	120,885981
1,252500	0,1	121,639918
1,254167	0,1	122,127969
1,255833	0,1	122,418042
1,257500	0,1	122,359136
1,259167	0,1	122,075329
1,260833	0,1	121,603136
1,262500	0,1	120,838852
1,264167	0,1	119,800858
1,265833	0,1	118,728144
1,267500	0,1	117,323813
1,269167	0,1	115,717381
1,270833	0,1	113,994433
1,272500	0,1	112,099745
1,274167	0,1	110,071120
1,275833	0,1	107,889830
1,277500	0,1	105,593728
1,279167	0,1	103,189752
1,280833	0,1	100,745374
1,282500	0,1	98,196173
1,284167	0,1	95,631058
1,285833	0,1	93,032228
1,287500	0,1	90,441271
1,289167	0,1	87,720395
1,290833	0,1	85,207514
1,292500	0,1	82,572260
1,294167	0,1	79,974208
1,295833	0,1	77,466335
1,297500	0,1	74,996538
1,299167	0,1	72,587239
1,300833	0,1	70,254943
1,302500	0,1	67,951095
1,304167	0,1	65,770773
1,305833	0,1	63,653968
1,307500	0,1	61,557989
1,309167	0,1	59,590425
1,310833	0,1	57,636428
1,312500	0,1	55,818480
1,314167	0,1	54,061915
1,315833	0,1	52,375359
1,317500	0,1	50,744806
1,319167	0,1	49,232353
1,320833	0,1	47,725878
1,322500	0,1	46,351521
1,324167	0,1	45,004939
1,325833	0,1	43,708619
1,327500	0,1	42,457197
1,329167	0,1	41,278243
1,330833	0,1	40,112005
1,332500	0,1	38,974988
1,334167	0,1	37,959895
1,335833	0,1	37,010899
1,337500	0,1	36,013568
1,339167	0,1	35,053230
1,340833	0,1	34,143423
1,342500	0,1	33,290050
1,344167	0,1	32,418667
1,345833	0,1	31,626045
1,347500	0,1	30,811988
1,349167	0,1	30,086208
1,350833	0,1	29,325100
1,352500	0,1	28,593107
1,354167	0,1	27,886515
1,355833	0,1	27,236506
1,357500	0,1	26,554350
1,359167	0,1	25,908438
1,360833	0,1	25,302205
1,362500	0,1	24,710401
1,364167	0,1	24,118610
1,365833	0,1	23,522157
1,367500	0,1	22,926231
1,369167	0,1	22,445868
1,370833	0,1	21,879290
1,372500	0,1	21,383637
1,374167	0,1	20,916477
1,375833	0,1	20,397446
1,377500	0,1	19,898619
1,379167	0,1	19,420545
1,380833	0,1	18,971646
1,382500	0,1	18,534520
1,384167	0,1	18,087704
1,385833	0,1	17,686148
1,387500	0,1	17,267209
1,389167	0,1	16,894800
1,390833	0,1	16,512255
1,392500	0,1	16,146797
1,394167	0,1	15,771393
1,395833	0,1	15,457089
1,397500	0,1	15,074326
1,399167	0,1	14,787707
1,400833	0,1	14,489505
1,402500	0,1	14,164404
1,404167	0,1	13,921138
1,405833	0,1	13,630132
1,407500	0,1	13,349416
1,409167	0,1	13,069423
1,410833	0,1	12,824784
1,412500	0,1	12,549604
1,414167	0,1	12,354725
1,415833	0,1	12,101015
1,417500	0,1	11,898638
1,419167	0,1	11,680424
1,420833	0,1	11,462948
1,422500	0,1	11,277079
1,424167	0,1	11,065261
1,425833	0,1	10,831344
1,427500	0,1	10,754254
1,429167	0,1	10,598597
1,430833	0,1	10,427916
1,432500	0,1	10,276017
1,434167	0,1	10,043060
1,435833	0,1	9,965597
1,437500	0,1	9,802658
1,439167	0,1	9,615633
1,440833	0,1	9,513511
1,442500	0,1	9,393746
1,444167	0,1	9,260602
1,445833	0,1	9,104006
1,447500	0,1	8,980094
1,449167	0,1	8,887311
1,450833	0,1	8,719284
1,452500	0,1	8,633994
1,454167	0,1	8,517479
1,455833	0,1	8,396862
1,457500	0,1	8,289637
1,459167	0,1	8,168000
1,460833	0,1	8,046387
1,462500	0,1	7,953087
1,464167	0,1	7,874258
1,465833	0,1	7,798050
1,467500	0,1	7,709678
1,469167	0,1	7,583451
1,470833	0,1	7,520714
1,472500	0,1	7,467731
1,474167	0,1	7,390867
1,475833	0,1	7,293445
1,477500	0,1	7,260601
1,479167	0,1	7,189667
1,480833	0,1	7,093015
1,482500	0,1	7,067837
1,484167	0,1	6,975601
1,485833	0,1	6,921182
1,487500	0,1	6,902077
1,489167	0,1	6,848151
1,490833	0,1	6,806977
1,492500	0,1	6,747380
1,494167	0,1	6,727069
1,495833	0,1	6,712259
1,497500	0,1	6,633879
1,499167	0,1	6,649776
1,500833	0,1	6,616089
1,502500	0,1	6,522912
1,504167	0,1	6,553701
1,505833	0,1	6,497689
1,507500	0,1	6,481862
1,509167	0,1	6,464091
1,510833	0,1	6,462209
1,512500	0,1	6,422973
1,514167	0,1	6,414391
1,515833	0,1	6,417389
1,517500	0,1	6,341814
1,519167	0,1	6,360787
1,520833	0,1	6,375125
1,522500	0,1	6,296707
1,524167	0,1	6,310191
1,525833	0,1	6,264042
1,527500	0,1	6,250729
1,529167	0,1	6,272590
1,530833	0,1	6,223906
1,532500	0,1	6,174306
1,534167	0,1	6,163230
1,535833	0,1	6,153172
1,537500	0,1	6,141455
1,539167	0,1	6,126777
1,540833	0,1	6,069776
1,542500	0,1	6,095166
1,544167	0,1	6,083382
1,545833	0,1	6,035013
1,547500	0,1	5,930599
1,549167	0,1	5,982958
1,550833	0,1	5,932081
1,552500	0,1	5,899280
1,554167	0,1	5,893256
1,555833	0,1	5,849238
1,557500	0,1	5,851130
1,559167	0,1	5,798646
1,560833	0,1	5,771709
1,562500	0,1	5,760755
1,564167	0,1	5,734270
1,565833	0,1	5,692934
1,567500	0,1	5,657888
1,569167	0,1	5,615130
1,570833	0,1	5,595486
1,572500	0,1	5,589718
1,574167	0,1	5,572818
1,575833	0,1	5,539561
1,577500	0,1	5,526816
1,579167	0,1	5,477945
1,580833	0,1	5,442649
1,582500	0,1	5,416347
1,584167	0,1	5,398299
1,585833	0,1	5,338231
1,587500	0,1	5,307552
1,589167	0,1	5,343037
1,590833	0,1	5,246585
1,592500	0,1	5,256892
1,594167	0,1	5,143028
1,595833	0,1	5,165866
1,597500	0,1	5,165083
1,599167	0,1	5,107974
1,600833	0,1	5,069542
1,602500	0,1	5,060953
1,604167	0,1	5,033487
1,605833	0,1	5,011214
1,607500	0,1	4,957902
1,609167	0,1	4,908902
1,610833	0,1	4,916341
1,612500	0,1	4,875544
1,614167	0,1	4,826920
1,615833	0,1	4,833962
1,617500	0,1	4,773060
1,619167	0,1	4,807798
1,620833	0,1	4,744193
1,622500	0,1	4,762924
1,624167	0,1	4,685800
1,625833	0,1	4,675306
1,627500	0,1	4,660220
1,629167	0,1	4,682319
1,630833	0,1	4,627311
1,632500	0,1	4,600308
1,634167	0,1	4,638601
1,635833	0,1	4,553752
1,637500	0,1	4,565074
1,639167	0,1	4,603159
1,640833	0,1	4,609265
1,642500	0,1	4,636608
1,644167	0,1	4,592895
1,645833	0,1	4,606868
1,647500	0,1	4,654816
1,649167	0,1	4,677161
1,650833	0,1	4,703878
1,652500	0,1	4,680816
1,654167	0,1	4,775136
1,655833	0,1	4,794057
1,657500	0,1	4,870659
1,659167	0,1	4,923097
1,660833	0,1	5,005484
1,662500	0,1	5,117334
1,664167	0,1	5,191638
1,665833	0,1	5,288081
1,667500	0,1	5,461685
1,669167	0,1	5,567957
1,670833	0,1	5,727790
1,672500	0,1	5,885484
1,674167	0,1	6,057444
1,675833	0,1	6,284552
1,677500	0,1	6,461248
1,679167	0,1	6,679892
1,680833	0,1	6,955016
1,682500	0,1	7,216625
1,684167	0,1	7,452549
1,685833	0,1	7,801880
1,687500	0,1	8,084867
1,689167	0,1	8,403101
1,690833	0,1	8,810497
1,692500	0,1	9,191987
1,694167	0,1	9,504501
1,695833	0,1	9,929802
1,697500	0,1	10,342857
1,699167	0,1	10,807255
1,700833	0,1	11,214156
1,702500	0,1	11,695780
1,704167	0,1	12,182791
1,705833	0,1	12,668182
1,707500	0,1	13,148049
1,709167	0,1	13,706401
1,710833	0,1	14,244563
1,712500	0,1	14,798437
1,714167	0,1	15,282134
1,715833	0,1	15,827345
1,717500	0,1	16,389380
1,719167	0,1	16,940144
1,720833	0,1	17,529652
1,722500	0,1	18,120648
1,724167	0,1	18,662936
1,725833	0,1	19,273131
1,727500	0,1	19,818770
1,729167	0,1	20,385959
1,730833	0,1	20,940444
1,732500	0,1	21,443822
1,734167	0,1	22,011239
1,735833	0,1	22,544035
1,737500	0,1	23,056591
1,739167	0,1	23,574824
1,740833	0,1	24,095131
1,742500	0,1	24,558244
1,744167	0,1	25,055685
1,745833	0,1	25,470208
1,747500	0,1	25,888076
1,749167	0,1	26,291473
1,750833	0,1	26,693023
1,752500	0,1	27,054035
1,754167	0,1	27,424722
1,755833	0,1	27,695307
1,757500	0,1	28,027862
1,759167	0,1	28,267687
1,760833	0,1	28,555216
1,762500	0,1	28,745776
1,764167	0,1	28,977122
1,765833	0,1	29,190010
1,767500	0,1	29,313901
1,769167	0,1	29,442521
1,770833	0,1	29,563172
1,772500	0,1	29,659268
1,774167	0,1	29,710378
1,775833	0,1	29,756274
1,777500	0,1	29,785209
1,779167	0,1	29,766356
1,780833	0,1	29,694614
1,782500	0,1	29,700477
1,784167	0,1	29,555979
1,785833	0,1	29,514870
1,787500	0,1	29,393130
1,789167	0,1	29,197068
1,790833	0,1	29,056944
1,792500	0,1	28,878569
1,794167	0,1	28,649341
1,795833	0,1	28,433156
1,797500	0,1	28,202761
1,799167	0,1	27,989734
1,800833	0,1	27,766824
1,802500	0,1	27,411852
1,804167	0,1	27,136721
1,805833	0,1	26,777706
1,807500	0,1	26,544917
1,809167	0,1	26,152313
1,810833	0,1	25,831996
1,812500	0,1	25,519388
1,814167	0,1	25,122439
1,815833	0,1	24,756064
1,817500	0,1	24,397021
1,819167	0,1	24,038864
1,820833	0,1	23,628076
1,822500	0,1	23,250156
1,824167	0,1	22,841986
1,825833	0,1	22,490591
1,827500	0,1	22,094176
1,829167	0,1	21,677036
1,830833	0,1	21,302369
1,832500	0,1	20,838000
1,834167	0,1	20,479581
1,835833	0,1	20,061200
1,837500	0,1	19,690893
1,839167	0,1	19,272524
1,840833	0,1	18,932212
1,842500	0,1	18,563830
1,844167	0,1	18,245323
1,845833	0,1	17,874222
1,847500	0,1	17,502767
1,849167	0,1	17,182673
1,850833	0,1	16,852122
1,852500	0,1	16,525986
1,854167	0,1	16,256152
1,855833	0,1	15,957634
1,857500	0,1	15,687516
1,859167	0,1	15,420367
1,860833	0,1	15,187147
1,862500	0,1	14,848181
1,864167	0,1	14,618856
1,865833	0,1	14,386699
1,867500	0,1	14,139817
1,869167	0,1	13,918714
1,870833	0,1	13,662576
1,872500	0,1	13,462219
1,874167	0,1	13,189222
1,875833	0,1	12,977208
1,877500	0,1	12,786972
1,879167	0,1	12,607888
1,880833	0,1	12,383481
1,882500	0,1	12,149733
1,884167	0,1	11,977986
1,885833	0,1	11,773094
1,887500	0,1	11,631275
1,889167	0,1	11,396719
1,890833	0,1	11,195765
1,892500	0,1	11,049544
1,894167	0,1	10,858523
1,895833	0,1	10,680877
1,897500	0,1	10,575843
1,899167	0,1	10,386882
1,900833	0,1	10,234517
1,902500	0,1	10,070047
1,904167	0,1	9,921450
1,905833	0,1	9,783341
1,907500	0,1	9,649574
1,909167	0,1	9,490866
1,910833	0,1	9,352716
1,912500	0,1	9,287913
1,914167	0,1	9,171719
1,915833	0,1	8,981881
1,917500	0,1	8,870358
1,919167	0,1	8,730988
1,920833	0,1	8,580025
1,922500	0,1	8,497202
1,924167	0,1	8,412857
1,925833	0,1	8,294696
1,927500	0,1	8,184964
1,929167	0,1	8,068601
1,930833	0,1	7,941006
1,932500	0,1	7,856419
1,934167	0,1	7,744601
1,935833	0,1	7,625137
1,937500	0,1	7,556286
1,939167	0,1	7,456380
1,940833	0,1	7,374674
1,942500	0,1	7,259419
1,944167	0,1	7,188454
1,945833	0,1	7,104477
1,947500	0,1	7,043244
1,949167	0,1	6,971870
1,950833	0,1	6,847235
1,952500	0,1	6,824953
1,954167	0,1	6,673560
1,955833	0,1	6,590504
1,957500	0,1	6,523758
1,959167	0,1	6,477497
1,960833	0,1	6,428543
1,962500	0,1	6,375604
1,964167	0,1	6,305723
1,965833	0,1	6,283391
1,967500	0,1	6,200522
1,969167	0,1	6,119250
1,970833	0,1	6,072478
1,972500	0,1	6,057935
1,974167	0,1	5,973615
1,975833	0,1	5,945665
1,977500	0,1	5,916475
1,979167	0,1	5,841406
1,980833	0,1	5,798452
1,982500	0,1	5,812906
1,984167	0,1	5,759692
1,985833	0,1	5,735726
1,987500	0,1	5,727725
1,989167	0,1	5,676749
1,990833	0,1	5,648958
1,992500	0,1	5,650766
1,994167	0,1	5,644420
1,995833	0,1	5,592398
1,997500	0,1	5,601659
1,999167	0,1	5,551981
2,000833	0,1	5,561934
2,002500	0,1	5,526928
2,004167	0,1	5,531275
2,005833	0,1	5,516826
2,007500	0,1	5,516519
2,009167	0,1	5,497003
2,010833	0,1	5,561380
2,012500	0,1	5,535766
2,014167	0,1	5,509138
2,015833	0,1	5,521999
2,017500	0,1	5,526725
2,019167	0,1	5,530278
2,020833	0,1	5,541803
2,022500	0,1	5,535178
2,024167	0,1	5,548542
2,025833	0,1	5,538776
2,027500	0,1	5,588190
2,029167	0,1	5,567901
2,030833	0,1	5,602605
2,032500	0,1	5,558307
2,034167	0,1	5,638412
2,035833	0,1	5,626411
2,037500	0,1	5,642424
2,039167	0,1	5,690244
2,040833	0,1	5,676370
2,042500	0,1	5,705010
2,044167	0,1	5,738050
2,045833	0,1	5,726443
2,047500	0,1	5,749899
2,049167	0,1	5,792401
2,050833	0,1	5,809495
2,052500	0,1	5,805157
2,054167	0,1	5,857006
2,055833	0,1	5,878834
2,057500	0,1	5,887277
2,059167	0,1	5,906778
2,060833	0,1	5,902438
2,062500	0,1	5,959118
2,064167	0,1	5,953645
2,065833	0,1	5,983407
2,067500	0,1	6,023263
2,069167	0,1	6,063792
2,070833	0,1	6,053940
2,072500	0,1	6,089752
2,074167	0,1	6,087604
2,075833	0,1	6,095960
2,077500	0,1	6,119135
2,079167	0,1	6,180968
2,080833	0,1	6,169010
2,082500	0,1	6,201886
2,084167	0,1	6,226651
2,085833	0,1	6,231944
2,087500	0,1	6,258296
2,089167	0,1	6,256158
2,090833	0,1	6,255296
2,092500	0,1	6,260513
2,094167	0,1	6,325778
2,095833	0,1	6,331853
2,097500	0,1	6,353351
2,099167	0,1	6,376063
2,100833	0,1	6,364431
2,102500	0,1	6,394670
2,104167	0,1	6,394660
2,105833	0,1	6,397718
2,107500	0,1	6,417732
2,109167	0,1	6,401366
2,110833	0,1	6,467803
2,112500	0,1	6,453289
2,114167	0,1	6,440811
2,115833	0,1	6,452737
2,117500	0,1	6,465756
2,119167	0,1	6,486601
2,120833	0,1	6,518517
2,122500	0,1	6,461955
2,124167	0,1	6,492266
2,125833	0,1	6,491153
2,127500	0,1	6,490965
2,129167	0,1	6,493589
2,130833	0,1	6,534438
2,132500	0,1	6,462604
2,134167	0,1	6,510525
2,135833	0,1	6,505222
2,137500	0,1	6,506711
2,139167	0,1	6,522448
2,140833	0,1	6,473401
2,142500	0,1	6,474419
2,144167	0,1	6,406475
2,145833	0,1	6,462944
2,147500	0,1	6,470312
2,149167	0,1	6,423429
2,150833	0,1	6,425925
2,152500	0,1	6,442213
2,154167	0,1	6,441090
2,155833	0,1	6,424339
2,157500	0,1	6,447893
2,159167	0,1	6,424463
2,160833	0,1	6,425841
2,162500	0,1	6,377358
2,164167	0,1	6,381814
2,165833	0,1	6,375989
2,167500	0,1	6,343603
2,169167	0,1	6,329253
2,170833	0,1	6,336874
2,172500	0,1	6,314077
2,174167	0,1	6,290473
2,175833	0,1	6,245438
2,177500	0,1	6,309246
2,179167	0,1	6,246666
2,180833	0,1	6,235393
2,182500	0,1	6,211037
2,184167	0,1	6,152891
2,185833	0,1	6,185174
2,187500	0,1	6,165208
2,189167	0,1	6,119306
2,190833	0,1	6,141458
2,192500	0,1	6,113468
2,194167	0,1	6,102577
2,195833	0,1	6,073764
2,197500	0,1	6,062770
2,199167	0,1	6,029981
2,200833	0,1	5,994292
2,202500	0,1	5,990529
2,204167	0,1	5,991325
2,205833	0,1	5,983312
2,207500	0,1	5,983503
2,209167	0,1	5,938825
2,210833	0,1	5,871314
2,212500	0,1	5,903137
2,214167	0,1	5,911720
2,215833	0,1	5,877249
2,217500	0,1	5,885414
2,219167	0,1	5,865447
2,220833	0,1	5,852909
2,222500	0,1	5,819000
2,224167	0,1	5,812014
2,225833	0,1	5,822874
2,227500	0,1	5,796320
2,229167	0,1	5,764627
2,230833	0,1	5,777465
2,232500	0,1	5,777767
2,234167	0,1	5,769103
2,235833	0,1	5,720036
2,237500	0,1	5,719761
2,239167	0,1	5,727334
2,240833	0,1	5,761606
2,242500	0,1	5,706188
2,244167	0,1	5,679869
2,245833	0,1	5,669217
2,247500	0,1	5,687455
2,249167	0,1	5,685628
2,250833	0,1	5,671518
2,252500	0,1	5,597884
2,254167	0,1	5,661979
2,255833	0,1	5,609865
2,257500	0,1	5,590741
2,259167	0,1	5,595613
2,260833	0,1	5,582160
2,262500	0,1	5,581246
2,264167	0,1	5,591907
2,265833	0,1	5,597840
2,267500	0,1	5,585365
2,269167	0,1	5,566426
2,270833	0,1	5,555049
2,272500	0,1	5,547745
2,274167	0,1	5,545035
2,275833	0,1	5,543367
2,277500	0,1	5,504655
2,279167	0,1	5,481901
2,280833	0,1	5,508865
2,282500	0,1	5,498517
2,284167	0,1	5,460847
2,285833	0,1	5,497206
2,287500	0,1	5,445166
2,289167	0,1	5,425640
2,290833	0,1	5,413463
2,292500	0,1	5,434705
2,294167	0,1	5,430577
2,295833	0,1	5,391070
2,297500	0,1	5,374410
2,299167	0,1	5,313038
2,300833	0,1	5,345712
2,302500	0,1	5,331133
2,304167	0,1	5,297929
2,305833	0,1	5,305396
2,307500	0,1	5,325584
2,309167	0,1	5,280183
2,310833	0,1	5,287881
2,312500	0,1	5,229942
2,314167	0,1	5,199430
2,315833	0,1	5,216701
2,317500	0,1	5,153918
2,319167	0,1	5,195857
2,320833	0,1	5,177967
2,322500	0,1	5,131437
2,324167	0,1	5,157507
2,325833	0,1	5,136795
2,327500	0,1	5,133853
2,329167	0,1	5,114485
2,330833	0,1	5,101244
2,332500	0,1	5,020007
2,334167	0,1	5,071921
2,335833	0,1	5,044553
2,337500	0,1	5,046186
2,339167	0,1	5,006247
2,340833	0,1	5,018575
2,342500	0,1	4,998456
2,344167	0,1	4,968252
2,345833	0,1	4,959074
2,347500	0,1	4,951230
2,349167	0,1	4,944876
2,350833	0,1	4,907517
2,352500	0,1	4,934878
2,354167	0,1	4,914401
2,355833	0,1	4,865978
2,357500	0,1	4,862354
2,359167	0,1	4,908824
2,360833	0,1	4,864960
2,362500	0,1	4,841423
2,364167	0,1	4,861783
2,365833	0,1	4,848162
2,367500	0,1	4,846693
2,369167	0,1	4,818606
2,370833	0,1	4,839235
2,372500	0,1	4,837293
2,374167	0,1	4,813453
2,375833	0,1	4,835571
2,377500	0,1	4,855263
2,379167	0,1	4,856093
2,380833	0,1	4,863766
2,382500	0,1	4,918620
2,384167	0,1	4,912082
2,385833	0,1	4,941484
2,387500	0,1	4,990728
2,389167	0,1	4,996582
2,390833	0,1	5,046060
2,392500	0,1	5,105518
2,394167	0,1	5,127777
2,395833	0,1	5,180659
2,397500	0,1	5,259081
2,399167	0,1	5,336223
2,400833	0,1	5,424269
2,402500	0,1	5,500120
2,404167	0,1	5,616112
2,405833	0,1	5,702357
2,407500	0,1	5,809263
2,409167	0,1	5,954437
2,410833	0,1	6,142147
2,412500	0,1	6,260296
2,414167	0,1	6,403366
2,415833	0,1	6,587175
2,417500	0,1	6,751235
2,419167	0,1	6,933050
2,420833	0,1	7,153339
2,422500	0,1	7,376724
2,424167	0,1	7,579888
2,425833	0,1	7,834188
2,427500	0,1	8,025015
2,429167	0,1	8,286813
2,430833	0,1	8,556887
2,432500	0,1	8,805482
2,434167	0,1	9,077335
2,435833	0,1	9,314695
2,437500	0,1	9,565609
2,439167	0,1	9,888335
2,440833	0,1	10,147129
2,442500	0,1	10,421775
2,444167	0,1	10,716173
2,445833	0,1	10,996516
2,447500	0,1	11,284729
2,449167	0,1	11,544466
2,450833	0,1	11,904792
2,452500	0,1	12,092678
2,454167	0,1	12,368445
2,455833	0,1	12,641701
2,457500	0,1	12,908116
2,459167	0,1	13,206274
2,460833	0,1	13,420412
2,462500	0,1	13,659516
2,464167	0,1	13,901746
2,465833	0,1	14,186484
2,467500	0,1	14,366304
2,469167	0,1	14,604234
2,470833	0,1	14,809524
2,472500	0,1	15,078012
2,474167	0,1	15,279009
2,475833	0,1	15,480379
2,477500	0,1	15,710019
2,479167	0,1	15,943126
2,480833	0,1	16,203816
2,482500	0,1	16,398794
2,484167	0,1	16,648933
2,485833	0,1	16,889400
2,487500	0,1	17,167853
2,489167	0,1	17,465416
2,490833	0,1	17,700440
2,492500	0,1	18,028115
2,494167	0,1	18,381698
2,495833	0,1	18,682948
2,497500	0,1	19,029522
2,499167	0,1	19,445085
2,500833	0,1	19,870009
2,502500	0,1	20,325697
2,504167	0,1	20,837139
2,505833	0,1	21,309026
2,507500	0,1	21,837283
2,509167	0,1	22,401084
2,510833	0,1	22,988477
2,512500	0,1	23,616052
2,514167	0,1	24,306548
2,515833	0,1	24,979597
2,517500	0,1	25,774982
2,519167	0,1	26,521221
2,520833	0,1	27,372905
2,522500	0,1	28,244467
2,524167	0,1	29,145371
2,525833	0,1	30,064714
2,527500	0,1	31,041336
2,529167	0,1	32,051663
2,530833	0,1	33,050317
2,532500	0,1	34,123267
2,534167	0,1	35,259229
2,535833	0,1	36,355568
2,537500	0,1	37,514606
2,539167	0,1	38,670945
2,540833	0,1	39,871895
2,542500	0,1	41,055901
2,544167	0,1	42,285999
2,545833	0,1	43,484893
2,547500	0,1	44,786081
2,549167	0,1	46,001958
2,550833	0,1	47,245175
2,552500	0,1	48,486893
2,554167	0,1	49,703556
2,555833	0,1	50,876736
2,557500	0,1	52,132163
2,559167	0,1	53,347234
2,560833	0,1	54,500865
2,562500	0,1	55,649876
2,564167	0,1	56,729576
2,565833	0,1	57,880797
2,567500	0,1	58,926151
2,569167	0,1	59,930505
2,570833	0,1	60,966774
2,572500	0,1	61,932733
2,574167	0,1	62,846385
2,575833	0,1	63,677087
2,577500	0,1	64,557707
2,579167	0,1	65,302867
2,580833	0,1	66,105096
2,582500	0,1	66,755721
2,584167	0,1	67,430184
2,585833	0,1	68,075922
2,587500	0,1	68,588870
2,589167	0,1	69,104702
2,590833	0,1	69,582785
2,592500	0,1	70,015210
2,594167	0,1	70,389496
2,595833	0,1	70,747986
2,597500	0,1	70,968368
2,599167	0,1	71,208864
2,600833	0,1	71,430670
2,602500	0,1	71,596512
2,604167	0,1	71,690911
2,605833	0,1	71,786711
2,607500	0,1	71,740794
2,609167	0,1	71,771410
2,610833	0,1	71,760471
2,612500	0,1	71,647404
2,614167	0,1	71,516020
2,615833	0,1	71,357843
2,617500	0,1	71,187805
2,619167	0,1	70,952556
2,620833	0,1	70,712531
2,622500	0,1	70,409693
2,624167	0,1	70,061842
2,625833	0,1	69,739483
2,627500	0,1	69,353753
2,629167	0,1	68,934105
2,630833	0,1	68,522925
2,632500	0,1	68,075177
2,634167	0,1	67,543770
2,635833	0,1	67,108193
2,637500	0,1	66,547168
2,639167	0,1	66,011121
2,640833	0,1	65,489313
2,642500	0,1	64,869068
2,644167	0,1	64,236107
2,645833	0,1	63,628716
2,647500	0,1	62,964534
2,649167	0,1	62,360490
2,650833	0,1	61,651900
2,652500	0,1	60,995265
2,654167	0,1	60,309155
2,655833	0,1	59,603867
2,657500	0,1	58,858474
2,659167	0,1	58,157869
2,660833	0,1	57,372785
2,662500	0,1	56,593519
2,664167	0,1	55,901733
2,665833	0,1	55,110065
2,667500	0,1	54,369983
2,669167	0,1	53,568646
2,670833	0,1	52,747381
2,672500	0,1	51,998545
2,674167	0,1	51,196272
2,675833	0,1	50,447288
2,677500	0,1	49,609054
2,679167	0,1	48,847059
2,680833	0,1	48,056296
2,682500	0,1	47,245719
2,684167	0,1	46,545484
2,685833	0,1	45,677649
2,687500	0,1	44,937766
2,689167	0,1	44,183727
2,690833	0,1	43,385539
2,692500	0,1	42,645414
2,694167	0,1	41,860678
2,695833	0,1	41,162052
2,697500	0,1	40,385635
2,699167	0,1	39,643154
2,700833	0,1	38,943610
2,702500	0,1	38,190351
2,704167	0,1	37,456523
2,705833	0,1	36,771875
2,707500	0,1	36,119961
2,709167	0,1	35,401669
2,710833	0,1	34,776529
2,712500	0,1	34,080211
2,714167	0,1	33,473614
2,715833	0,1	32,802530
2,717500	0,1	32,158119
2,719167	0,1	31,525334
2,720833	0,1	30,929821
2,722500	0,1	30,354825
2,724167	0,1	29,793262
2,725833	0,1	29,277908
2,727500	0,1	28,669366
2,729167	0,1	28,085937
2,730833	0,1	27,586311
2,732500	0,1	27,071507
2,734167	0,1	26,521650
2,735833	0,1	26,015236
2,737500	0,1	25,522834
2,739167	0,1	25,039352
2,740833	0,1	24,566619
2,742500	0,1	24,102650
2,744167	0,1	23,639441
2,745833	0,1	23,224185
2,747500	0,1	22,788859
2,749167	0,1	22,361014
2,750833	0,1	21,921986
2,752500	0,1	21,563693
2,754167	0,1	21,151687
2,755833	0,1	20,769719
2,757500	0,1	20,380802
2,759167	0,1	20,017300
2,760833	0,1	19,648367
2,762500	0,1	19,282165
2,764167	0,1	19,016377
2,765833	0,1	18,600336
2,767500	0,1	18,280356
2,769167	0,1	18,003100
2,770833	0,1	17,655934
2,772500	0,1	17,357876
2,774167	0,1	17,040564
2,775833	0,1	16,775913
2,777500	0,1	16,489178
2,779167	0,1	16,185960
2,780833	0,1	15,926202
2,782500	0,1	15,624440
2,784167	0,1	15,405852
2,785833	0,1	15,114812
2,787500	0,1	14,833943
2,789167	0,1	14,595592
2,790833	0,1	14,359233
2,792500	0,1	14,155629
2,794167	0,1	13,889256
2,795833	0,1	13,708981
2,797500	0,1	13,482625
2,799167	0,1	13,295690
2,800833	0,1	13,047710
2,802500	0,1	12,831962
2,804167	0,1	12,626751
2,805833	0,1	12,387059
2,807500	0,1	12,191152
2,809167	0,1	12,065193
2,810833	0,1	11,834704
2,812500	0,1	11,629156
2,814167	0,1	11,485153
2,815833	0,1	11,304198
2,817500	0,1	11,115743
2,819167	0,1	10,954040
2,820833	0,1	10,771495
2,822500	0,1	10,629233
2,824167	0,1	10,453282
2,825833	0,1	10,274385
2,827500	0,1	10,143937
2,829167	0,1	10,001840
2,830833	0,1	9,803282
2,832500	0,1	9,680690
2,834167	0,1	9,479877
2,835833	0,1	9,363166
2,837500	0,1	9,258077
2,839167	0,1	9,136110
2,840833	0,1	8,980501
2,842500	0,1	8,873805
2,844167	0,1	8,710924
2,845833	0,1	8,606022
2,847500	0,1	8,470135
2,849167	0,1	8,367371
2,850833	0,1	8,244130
2,852500	0,1	8,109880
2,854167	0,1	7,985962
2,855833	0,1	7,864744
2,857500	0,1	7,820525
2,859167	0,1	7,660604
2,860833	0,1	7,576699
2,862500	0,1	7,501223
2,864167	0,1	7,373449
2,865833	0,1	7,308239
2,867500	0,1	7,180826
2,869167	0,1	7,067390
2,870833	0,1	6,969455
2,872500	0,1	6,944002
2,874167	0,1	6,848069
2,875833	0,1	6,768994
2,877500	0,1	6,656247
2,879167	0,1	6,571230
2,880833	0,1	6,518732
2,882500	0,1	6,423632
2,884167	0,1	6,326107
2,885833	0,1	6,261001
2,887500	0,1	6,192975
2,889167	0,1	6,131817
2,890833	0,1	6,007582
2,892500	0,1	5,985740
2,894167	0,1	5,948951
2,895833	0,1	5,832926
2,897500	0,1	5,758800
2,899167	0,1	5,697628
2,900833	0,1	5,688357
2,902500	0,1	5,587684
2,904167	0,1	5,560642
2,905833	0,1	5,467425
2,907500	0,1	5,490080
2,909167	0,1	5,381275
2,910833	0,1	5,298921
2,912500	0,1	5,219578
2,914167	0,1	5,191971
2,915833	0,1	5,142873
2,917500	0,1	5,109013
2,919167	0,1	5,103895
2,920833	0,1	5,045551
2,922500	0,1	4,989118
2,924167	0,1	4,945137
2,925833	0,1	4,888675
2,927500	0,1	4,856490
2,929167	0,1	4,801926
2,930833	0,1	4,778307
2,932500	0,1	4,725273
2,934167	0,1	4,699314
2,935833	0,1	4,663836
2,937500	0,1	4,576158
2,939167	0,1	4,561789
2,940833	0,1	4,534305
2,942500	0,1	4,478139
2,944167	0,1	4,506124
2,945833	0,1	4,412092
2,947500	0,1	4,382248
2,949167	0,1	4,376978
2,950833	0,1	4,320553
2,952500	0,1	4,317459
2,954167	0,1	4,238361
2,955833	0,1	4,241704
2,957500	0,1	4,139904
2,959167	0,1	4,121537
2,960833	0,1	4,078780
2,962500	0,1	4,084082
2,964167	0,1	4,079222
2,965833	0,1	4,034851
2,967500	0,1	3,967932
2,969167	0,1	3,986741
2,970833	0,1	3,949061
2,972500	0,1	3,937158
2,974167	0,1	3,899840
2,975833	0,1	3,813490
2,977500	0,1	3,821647
2,979167	0,1	3,848666
2,980833	0,1	3,784270
2,982500	0,1	3,732240
2,984167	0,1	3,756410
2,985833	0,1	3,688650
2,987500	0,1	3,643826
2,989167	0,1	3,672288
2,990833	0,1	3,655439
2,992500	0,1	3,614180
2,994167	0,1	3,555217
2,995833	0,1	3,570417
2,997500	0,1	3,524620
2,999167	0,1	3,506548
3,000833	0,1	3,501240
3,002500	0,1	3,487397
3,004167	0,1	3,436968
3,005833	0,1	3,439957
3,007500	0,1	3,415330
3,009167	0,1	3,382809
3,010833	0,1	3,349924
3,012500	0,1	3,354726
3,014167	0,1	3,309126
3,015833	0,1	3,249043
3,017500	0,1	3,334219
3,019167	0,1	3,299938
3,020833	0,1	3,258738
3,022500	0,1	3,262661
3,024167	0,1	3,241079
3,025833	0,1	3,173965
3,027500	0,1	3,152125
3,029167	0,1	3,129288
3,030833	0,1	3,144679
3,032500	0,1	3,094119
3,034167	0,1	3,155582
3,035833	0,1	3,115432
3,037500	0,1	3,065206
3,039167	0,1	3,058027
3,040833	0,1	3,037120
3,042500	0,1	2,979208
3,044167	0,1	2,968613
3,045833	0,1	2,940697
3,047500	0,1	2,964577
3,049167	0,1	2,918024
3,050833	0,1	2,922822
3,052500	0,1	2,923723
3,054167	0,1	2,860300
3,055833	0,1	2,867180
3,057500	0,1	2,859254
3,059167	0,1	2,850249
3,060833	0,1	2,849077
3,062500	0,1	2,813256
3,064167	0,1	2,808305
3,065833	0,1	2,774797
3,067500	0,1	2,793889
3,069167	0,1	2,774783
3,070833	0,1	2,724434
3,072500	0,1	2,728222
3,074167	0,1	2,726635
3,075833	0,1	2,729514
3,077500	0,1	2,711361
3,079167	0,1	2,719018
3,080833	0,1	2,682514
3,082500	0,1	2,627880
3,084167	0,1	2,693468
3,085833	0,1	2,641771
3,087500	0,1	2,663985
3,089167	0,1	2,613700
3,090833	0,1	2,600787
3,092500	0,1	2,614256
3,094167	0,1	2,605149
3,095833	0,1	2,557251
3,097500	0,1	2,609443
3,099167	0,1	2,570235
3,100833	0,1	2,568215
3,102500	0,1	2,533859
3,104167	0,1	2,579180
3,105833	0,1	2,559468
3,107500	0,1	2,536733
3,109167	0,1	2,554074
3,110833	0,1	2,507403
3,112500	0,1	2,588424
3,114167	0,1	2,570507
3,115833	0,1	2,568714
3,117500	0,1	2,597964
3,119167	0,1	2,545346
3,120833	0,1	2,574018
3,122500	0,1	2,558109
3,124167	0,1	2,609166
3,125833	0,1	2,604733
3,127500	0,1	2,577113
3,129167	0,1	2,600926
3,130833	0,1	2,605809
3,132500	0,1	2,614847
3,134167	0,1	2,595042
3,135833	0,1	2,599787
3,137500	0,1	2,632194
3,139167	0,1	2,628558
3,140833	0,1	2,625827
3,142500	0,1	2,644411
3,144167	0,1	2,650374
3,145833	0,1	2,617672
3,147500	0,1	2,685368
3,149167	0,1	2,684019
3,150833	0,1	2,657761
3,152500	0,1	2,694269
3,154167	0,1	2,704102
3,155833	0,1	2,720605
3,157500	0,1	2,754757
3,159167	0,1	2,739914
3,160833	0,1	2,720054
3,162500	0,1	2,740615
3,164167	0,1	2,762660
3,165833	0,1	2,778089
3,167500	0,1	2,740652
3,169167	0,1	2,747797
3,170833	0,1	2,811369
3,172500	0,1	2,779119
3,174167	0,1	2,779906
3,175833	0,1	2,784775
3,177500	0,1	2,786206
3,179167	0,1	2,779833
3,180833	0,1	2,815662
3,182500	0,1	2,793019
3,184167	0,1	2,787212
3,185833	0,1	2,755855
3,187500	0,1	2,780596
3,189167	0,1	2,768482
3,190833	0,1	2,767772
3,192500	0,1	2,799104
3,194167	0,1	2,800566
3,195833	0,1	2,797149
3,197500	0,1	2,774024
3,199167	0,1	2,806298
3,200833	0,1	2,762591
3,202500	0,1	2,724483
3,204167	0,1	2,743209
3,205833	0,1	2,752900
3,207500	0,1	2,734315
3,209167	0,1	2,714167
3,210833	0,1	2,709059
3,212500	0,1	2,720099
3,214167	0,1	2,721032
3,215833	0,1	2,696073
3,217500	0,1	2,684806
3,219167	0,1	2,668154
3,220833	0,1	2,656973
3,222500	0,1	2,655383
3,224167	0,1	2,626830
3,225833	0,1	2,658234
3,227500	0,1	2,573269
3,229167	0,1	2,670055
3,230833	0,1	2,574122
3,232500	0,1	2,559336
3,234167	0,1	2,554284
3,235833	0,1	2,545767
3,237500	0,1	2,534567
3,239167	0,1	2,549277
3,240833	0,1	2,509192
3,242500	0,1	2,447072
3,244167	0,1	2,487643
3,245833	0,1	2,470090
3,247500	0,1	2,445923
3,249167	0,1	2,415881
3,250833	0,1	2,362618
3,252500	0,1	2,384028
3,254167	0,1	2,378804
3,255833	0,1	2,357370
3,257500	0,1	2,330334
3,259167	0,1	2,322809
3,260833	0,1	2,276217
3,262500	0,1	2,303726
3,264167	0,1	2,231923
3,265833	0,1	2,261143
3,267500	0,1	2,272757
3,269167	0,1	2,226897
3,270833	0,1	2,209973
3,272500	0,1	2,173498
3,274167	0,1	2,184308
3,275833	0,1	2,161525
3,277500	0,1	2,153279
3,279167	0,1	2,155785
3,280833	0,1	2,093384
3,282500	0,1	2,072164
3,284167	0,1	2,086201
3,285833	0,1	2,081046
3,287500	0,1	2,023735
3,289167	0,1	2,027735
3,290833	0,1	1,998297
3,292500	0,1	1,987614
3,294167	0,1	2,011321
3,295833	0,1	1,984041
3,297500	0,1	1,937050
3,299167	0,1	1,902944
3,300833	0,1	1,895711
3,302500	0,1	1,900230
3,304167	0,1	1,888041
3,305833	0,1	1,878962
3,307500	0,1	1,858977
3,309167	0,1	1,843788
3,310833	0,1	1,800690
3,312500	0,1	1,792514
3,314167	0,1	1,766011
3,315833	0,1	1,790284
3,317500	0,1	1,783421
3,319167	0,1	1,757228
3,320833	0,1	1,770239
3,322500	0,1	1,690055
3,324167	0,1	1,703999
3,325833	0,1	1,715389
3,327500	0,1	1,722564
3,329167	0,1	1,708672
3,330833	0,1	1,676391
3,332500	0,1	1,669287
3,334167	0,1	1,673238
3,335833	0,1	1,681397
3,337500	0,1	1,630870
3,339167	0,1	1,627262
3,340833	0,1	1,645165
3,342500	0,1	1,603513
3,344167	0,1	1,631565
3,345833	0,1	1,615816
3,347500	0,1	1,583909
3,349167	0,1	1,572586
3,350833	0,1	1,579827
3,352500	0,1	1,559879
3,354167	0,1	1,545385
3,355833	0,1	1,513622
3,357500	0,1	1,540164
3,359167	0,1	1,499293
3,360833	0,1	1,535160
3,362500	0,1	1,571286
3,364167	0,1	1,496450
3,365833	0,1	1,514196
3,367500	0,1	1,506749
3,369167	0,1	1,478185
3,370833	0,1	1,482494
3,372500	0,1	1,487645
3,374167	0,1	1,459810
3,375833	0,1	1,473201
3,377500	0,1	1,479328
3,379167	0,1	1,415442
3,380833	0,1	1,484928
3,382500	0,1	1,459291
3,384167	0,1	1,458035
3,385833	0,1	1,421984
3,387500	0,1	1,430167
3,389167	0,1	1,416307
3,390833	0,1	1,451068
3,392500	0,1	1,440639
3,394167	0,1	1,402313
3,395833	0,1	1,420026
3,397500	0,1	1,417988
3,399167	0,1	1,411606
3,400833	0,1	1,382087
3,402500	0,1	1,418227
3,404167	0,1	1,420494
3,405833	0,1	1,401226
3,407500	0,1	1,412370
3,409167	0,1	1,389871
3,410833	0,1	1,387987
3,412500	0,1	1,422023
3,414167	0,1	1,381830
3,415833	0,1	1,410160
3,417500	0,1	1,348850
3,419167	0,1	1,379898
3,420833	0,1	1,375891
3,422500	0,1	1,374670
3,424167	0,1	1,332157
3,425833	0,1	1,349103
3,427500	0,1	1,352258
3,429167	0,1	1,338197
3,430833	0,1	1,370581
3,432500	0,1	1,353717
3,434167	0,1	1,345632
3,435833	0,1	1,321444
3,437500	0,1	1,331994
3,439167	0,1	1,324659
3,440833	0,1	1,351251
3,442500	0,1	1,322378
3,444167	0,1	1,321931
3,445833	0,1	1,363374
3,447500	0,1	1,345855
3,449167	0,1	1,323647
3,450833	0,1	1,319153
3,452500	0,1	1,317661
3,454167	0,1	1,331381
3,455833	0,1	1,300574
3,457500	0,1	1,337932
3,459167	0,1	1,358978
3,460833	0,1	1,306508
3,462500	0,1	1,345757
3,464167	0,1	1,355642
3,465833	0,1	1,324528
3,467500	0,1	1,328808
3,469167	0,1	1,321221
3,470833	0,1	1,357840
3,472500	0,1	1,313065
3,474167	0,1	1,326398
3,475833	0,1	1,343272
3,477500	0,1	1,382881
3,479167	0,1	1,338627
3,480833	0,1	1,335180
3,482500	0,1	1,331249
3,484167	0,1	1,337109
3,485833	0,1	1,331658
3,487500	0,1	1,368700
3,489167	0,1	1,396941
3,490833	0,1	1,390700
3,492500	0,1	1,366936
3,494167	0,1	1,355140
3,495833	0,1	1,350972
3,497500	0,1	1,314419
3,499167	0,1	1,343184
3,500833	0,1	1,319666
3,502500	0,1	1,392599
3,504167	0,1	1,384232
3,505833	0,1	1,358188
3,507500	0,1	1,348449
3,509167	0,1	1,383594
3,510833	0,1	1,371167
3,512500	0,1	1,397283
3,514167	0,1	1,376031
3,515833	0,1	1,420157
3,517500	0,1	1,386761
3,519167	0,1	1,382043
3,520833	0,1	1,371794
3,522500	0,1	1,409212
3,524167	0,1	1,407797
3,525833	0,1	1,425685
3,527500	0,1	1,401608
3,529167	0,1	1,393042
3,530833	0,1	1,389398
3,532500	0,1	1,431885
3,534167	0,1	1,427115
3,535833	0,1	1,424744
3,537500	0,1	1,448275
3,539167	0,1	1,450459
3,540833	0,1	1,414462
3,542500	0,1	1,414948
3,544167	0,1	1,397196
3,545833	0,1	1,431750
3,547500	0,1	1,420609
3,549167	0,1	1,444357
3,550833	0,1	1,401859
3,552500	0,1	1,435408
3,554167	0,1	1,409719
3,555833	0,1	1,411137
3,557500	0,1	1,351258
3,559167	0,1	1,427861
3,560833	0,1	1,404430
3,562500	0,1	1,433135
3,564167	0,1	1,382093
3,565833	0,1	1,392627
3,567500	0,1	1,450213
3,569167	0,1	1,433843
3,570833	0,1	1,380835
3,572500	0,1	1,407501
3,574167	0,1	1,406220
3,575833	0,1	1,405576
3,577500	0,1	1,409643
3,579167	0,1	1,391840
3,580833	0,1	1,394177
3,582500	0,1	1,437571
3,584167	0,1	1,384630
3,585833	0,1	1,338749
3,587500	0,1	1,403205
3,589167	0,1	1,375064
3,590833	0,1	1,419320
3,592500	0,1	1,374242
3,594167	0,1	1,385258
3,595833	0,1	1,358278
3,597500	0,1	1,355509
3,599167	0,1	1,402087
3,600833	0,1	1,321761
3,602500	0,1	1,313919
3,604167	0,1	1,342949
3,605833	0,1	1,341957
3,607500	0,1	1,376512
3,609167	0,1	1,364524
3,610833	0,1	1,354359
3,612500	0,1	1,360504
3,614167	0,1	1,377394
3,615833	0,1	1,338611
3,617500	0,1	1,320427
3,619167	0,1	1,311716
3,620833	0,1	1,327940
3,622500	0,1	1,385397
3,624167	0,1	1,316508
3,625833	0,1	1,317389
3,627500	0,1	1,319388
3,629167	0,1	1,300792
3,630833	0,1	1,263495
3,632500	0,1	1,287077
3,634167	0,1	1,285964
3,635833	0,1	1,317500
3,637500	0,1	1,300942
3,639167	0,1	1,274165
3,640833	0,1	1,248060
3,642500	0,1	1,219029
3,644167	0,1	1,262272
3,645833	0,1	1,281810
3,647500	0,1	1,241476
3,649167	0,1	1,224906
3,650833	0,1	1,229760
3,652500	0,1	1,227342
3,654167	0,1	1,267373
3,655833	0,1	1,247569
3,657500	0,1	1,232475
3,659167	0,1	1,226882
3,660833	0,1	1,221733
3,662500	0,1	1,228253
3,664167	0,1	1,142795
3,665833	0,1	1,230352
3,667500	0,1	1,221551
3,669167	0,1	1,214875
3,670833	0,1	1,180263
3,672500	0,1	1,206886
3,674167	0,1	1,192638
3,675833	0,1	1,180632
3,677500	0,1	1,128141
3,679167	0,1	1,176112
3,680833	0,1	1,174787
3,682500	0,1	1,178445
3,684167	0,1	1,171840
3,685833	0,1	1,153268
3,687500	0,1	1,174630
3,689167	0,1	1,177919
3,690833	0,1	1,120881
3,692500	0,1	1,172402
3,694167	0,1	1,130088
3,695833	0,1	1,138681
3,697500	0,1	1,149093
3,699167	0,1	1,153666
3,700833	0,1	1,105350
3,702500	0,1	1,120001
3,704167	0,1	1,111735
3,705833	0,1	1,145244
3,707500	0,1	1,128133
3,709167	0,1	1,080878
3,710833	0,1	1,115538
3,712500	0,1	1,103787
3,714167	0,1	1,103583
3,715833	0,1	1,087795
3,717500	0,1	1,137607
3,719167	0,1	1,129744
3,720833	0,1	1,109290
3,722500	0,1	1,091924
3,724167	0,1	1,120439
3,725833	0,1	1,102126
3,727500	0,1	1,109244
3,729167	0,1	1,100971
3,730833	0,1	1,108640
3,732500	0,1	1,088105
3,734167	0,1	1,101762
3,735833	0,1	1,071888
3,737500	0,1	1,118819
3,739167	0,1	1,057276
3,740833	0,1	1,082657
3,742500	0,1	1,100053
3,744167	0,1	1,097530
3,745833	0,1	1,096290
3,747500	0,1	1,081688
3,749167	0,1	1,094089
3,750833	0,1	1,074927
3,752500	0,1	1,091024
3,754167	0,1	1,073573
3,755833	0,1	1,072436
3,757500	0,1	1,072457
3,759167	0,1	1,110938
3,760833	0,1	1,091783
3,762500	0,1	1,120284
3,764167	0,1	1,120117
3,765833	0,1	1,115233
3,767500	0,1	1,081607
3,769167	0,1	1,099034
3,770833	0,1	1,105825
3,772500	0,1	1,094006
3,774167	0,1	1,105738
3,775833	0,1	1,071198
3,777500	0,1	1,103468
3,779167	0,1	1,101966
3,780833	0,1	1,093692
3,782500	0,1	1,079538
3,784167	0,1	1,087942
3,785833	0,1	1,076346
3,787500	0,1	1,076410
3,789167	0,1	1,085101
3,790833	0,1	1,095685
3,792500	0,1	1,082465
3,794167	0,1	1,069778
3,795833	0,1	1,079886
3,797500	0,1	1,071131
3,799167	0,1	1,065248
3,800833	0,1	1,080770
3,802500	0,1	1,108126
3,804167	0,1	1,097130
3,805833	0,1	1,082399
3,807500	0,1	1,099678
3,809167	0,1	1,073107
3,810833	0,1	1,083613
3,812500	0,1	1,102224
3,814167	0,1	1,050196
3,815833	0,1	1,083031
3,817500	0,1	1,095993
3,819167	0,1	1,124962
3,820833	0,1	1,076657
3,822500	0,1	1,094905
3,824167	0,1	1,064212
3,825833	0,1	1,059682
3,827500	0,1	1,022927
3,829167	0,1	1,043367
3,830833	0,1	1,038004
3,832500	0,1	1,060938
3,834167	0,1	1,090064
3,835833	0,1	1,008629
3,837500	0,1	1,029170
3,839167	0,1	1,048024
3,840833	0,1	1,054374
3,842500	0,1	1,021130
3,844167	0,1	1,063949
3,845833	0,1	1,015187
3,847500	0,1	1,062862
3,849167	0,1	1,005163
3,850833	0,1	1,022825
3,852500	0,1	1,012982
3,854167	0,1	0,979781
3,855833	0,1	0,999378
3,857500	0,1	1,050303
3,859167	0,1	0,964334
3,860833	0,1	1,028026
3,862500	0,1	0,987856
3,864167	0,1	1,009404
3,865833	0,1	1,015331
3,867500	0,1	1,004419
3,869167	0,1	1,001357
3,870833	0,1	0,959311
3,872500	0,1	0,986178
3,874167	0,1	0,959950
3,875833	0,1	0,977350
3,877500	0,1	0,980660
3,879167	0,1	0,974030
3,880833	0,1	0,967441
3,882500	0,1	0,940654
3,884167	0,1	0,978432
3,885833	0,1	0,968197
3,887500	0,1	0,957108
3,889167	0,1	0,976841
3,890833	0,1	0,972121
3,892500	0,1	0,950256
3,894167	0,1	0,949321
3,895833	0,1	0,976529
3,897500	0,1	0,935978
3,899167	0,1	0,943439
3,900833	0,1	0,950227
3,902500	0,1	0,884708
3,904167	0,1	0,908259
3,905833	0,1	0,921282
3,907500	0,1	0,892747
3,909167	0,1	0,880300
3,910833	0,1	0,937705
3,912500	0,1	0,867385
3,914167	0,1	0,899319
3,915833	0,1	0,882345
3,917500	0,1	0,916996
3,919167	0,1	0,907936
3,920833	0,1	0,901816
3,922500	0,1	0,889906
3,924167	0,1	0,871923
3,925833	0,1	0,860257
3,927500	0,1	0,865332
3,929167	0,1	0,856975
3,930833	0,1	0,872007
3,932500	0,1	0,882255
3,934167	0,1	0,834567
3,935833	0,1	0,903775
3,937500	0,1	0,866651
3,939167	0,1	0,856003
3,940833	0,1	0,822453
3,942500	0,1	0,875122
3,944167	0,1	0,849995
3,945833	0,1	0,841410
3,947500	0,1	0,889205
3,949167	0,1	0,865058
3,950833	0,1	0,872807
3,952500	0,1	0,857554
3,954167	0,1	0,818504
3,955833	0,1	0,844353
3,957500	0,1	0,837261
3,959167	0,1	0,813539
3,960833	0,1	0,830537
3,962500	0,1	0,868612
3,964167	0,1	0,791927
3,965833	0,1	0,841709
3,967500	0,1	0,812150
3,969167	0,1	0,817103
3,970833	0,1	0,817654
3,972500	0,1	0,799326
3,974167	0,1	0,814815
3,975833	0,1	0,769599
3,977500	0,1	0,755735
3,979167	0,1	0,811656
3,980833	0,1	0,801764
3,982500	0,1	0,780287
3,984167	0,1	0,815481
3,985833	0,1	0,803956
3,987500	0,1	0,798721
3,989167	0,1	0,801118
3,990833	0,1	0,801540
3,992500	0,1	0,818030
3,994167	0,1	0,794892
3,995833	0,1	0,823330
3,997500	0,1	0,794592
3,999167	0,1	0,813307
4,000833	0,1	0,813913
4,002500	0,1	0,778402
4,004167	0,1	0,792220
4,005833	0,1	0,804974
4,007500	0,1	0,804334
4,009167	0,1	0,816195
4,010833	0,1	0,799077
4,012500	0,1	0,787266
4,014167	0,1	0,784181
4,015833	0,1	0,805013
4,017500	0,1	0,810434
4,019167	0,1	0,798235
4,020833	0,1	0,808832
4,022500	0,1	0,786218
4,024167	0,1	0,830845
4,025833	0,1	0,779442
4,027500	0,1	0,836563
4,029167	0,1	0,829033
4,030833	0,1	0,856083
4,032500	0,1	0,810356
4,034167	0,1	0,832779
4,035833	0,1	0,824888
4,037500	0,1	0,808970
4,039167	0,1	0,856408
4,040833	0,1	0,838286
4,042500	0,1	0,851403
4,044167	0,1	0,839679
4,045833	0,1	0,863042
4,047500	0,1	0,879434
4,049167	0,1	0,883428
4,050833	0,1	0,888417
4,052500	0,1	0,866624
4,054167	0,1	0,873295
4,055833	0,1	0,908906
4,057500	0,1	0,921216
4,059167	0,1	0,935810
4,060833	0,1	0,936834
4,062500	0,1	0,910538
4,064167	0,1	0,932700
4,065833	0,1	0,935103
4,067500	0,1	0,917743
4,069167	0,1	0,978628
4,070833	0,1	0,952231
4,072500	0,1	0,956905
4,074167	0,1	0,977352
4,075833	0,1	0,983743
4,077500	0,1	0,990773
4,079167	0,1	1,026370
4,080833	0,1	1,017041
4,082500	0,1	1,048135
4,084167	0,1	1,024631
4,085833	0,1	1,076480
4,087500	0,1	1,028497
4,089167	0,1	1,051421
4,090833	0,1	1,066329
4,092500	0,1	1,050096
4,094167	0,1	1,124865
4,095833	0,1	1,124643
4,097500	0,1	1,128368
4,099167	0,1	1,126458
4,100833	0,1	1,146909
4,102500	0,1	1,183922
4,104167	0,1	1,169575
4,105833	0,1	1,146969
4,107500	0,1	1,187476
4,109167	0,1	1,218610
4,110833	0,1	1,224138
4,112500	0,1	1,263884
4,114167	0,1	1,264518
4,115833	0,1	1,269972
4,117500	0,1	1,313159
4,119167	0,1	1,277791
4,120833	0,1	1,308724
4,122500	0,1	1,300789
4,124167	0,1	1,357017
4,125833	0,1	1,348292
4,127500	0,1	1,399222
4,129167	0,1	1,387482
4,130833	0,1	1,440925
4,132500	0,1	1,394725
4,134167	0,1	1,416025
4,135833	0,1	1,428837
4,137500	0,1	1,466973
4,139167	0,1	1,434205
4,140833	0,1	1,474783
4,142500	0,1	1,488368
4,144167	0,1	1,453166
4,145833	0,1	1,495115
4,147500	0,1	1,532238
4,149167	0,1	1,591214
4,150833	0,1	1,537170
4,152500	0,1	1,570596
4,154167	0,1	1,564004
4,155833	0,1	1,607310
4,157500	0,1	1,632229
4,159167	0,1	1,538329
4,160833	0,1	1,622682
4,162500	0,1	1,655053
4,164167	0,1	1,635591
4,165833	0,1	1,595656
4,167500	0,1	1,662212
4,169167	0,1	1,664804
4,170833	0,1	1,693710
4,172500	0,1	1,662217
4,174167	0,1	1,664925
4,175833	0,1	1,684901
4,177500	0,1	1,733670
4,179167	0,1	1,701171
4,180833	0,1	1,727635
4,182500	0,1	1,745695
4,184167	0,1	1,720446
4,185833	0,1	1,706311
4,187500	0,1	1,744192
4,189167	0,1	1,723152
4,190833	0,1	1,732810
4,192500	0,1	1,722210
4,194167	0,1	1,723070
4,195833	0,1	1,748420
4,197500	0,1	1,749994
4,199167	0,1	1,764742
4,200833	0,1	1,789233
4,202500	0,1	1,791171
4,204167	0,1	1,779849
4,205833	0,1	1,765749
4,207500	0,1	1,776698
4,209167	0,1	1,730665
4,210833	0,1	1,753995
4,212500	0,1	1,773754
4,214167	0,1	1,764817
4,215833	0,1	1,770599
4,217500	0,1	1,775830
4,219167	0,1	1,746919
4,220833	0,1	1,757281
4,222500	0,1	1,722355
4,224167	0,1	1,763152
4,225833	0,1	1,759731
4,227500	0,1	1,739270
4,229167	0,1	1,720488
4,230833	0,1	1,730730
4,232500	0,1	1,748127
4,234167	0,1	1,755163
4,235833	0,1	1,706389
4,237500	0,1	1,745544
4,239167	0,1	1,734253
4,240833	0,1	1,742250
4,242500	0,1	1,709268
4,244167	0,1	1,679403
4,245833	0,1	1,693139
4,247500	0,1	1,680914
4,249167	0,1	1,688840
4,250833	0,1	1,628940
4,252500	0,1	1,663655
4,254167	0,1	1,654924
4,255833	0,1	1,676814
4,257500	0,1	1,604968
4,259167	0,1	1,620547
4,260833	0,1	1,620114
4,262500	0,1	1,600010
4,264167	0,1	1,640731
4,265833	0,1	1,602326
4,267500	0,1	1,606320
4,269167	0,1	1,593994
4,270833	0,1	1,590654
4,272500	0,1	1,554224
4,274167	0,1	1,571602
4,275833	0,1	1,542340
4,277500	0,1	1,560077
4,279167	0,1	1,540405
4,280833	0,1	1,534306
4,282500	0,1	1,540136
4,284167	0,1	1,535204
4,285833	0,1	1,497534
4,287500	0,1	1,514947
4,289167	0,1	1,531255
4,290833	0,1	1,469667
4,292500	0,1	1,512272
4,294167	0,1	1,476513
4,295833	0,1	1,455122
4,297500	0,1	1,455981
4,299167	0,1	1,450610
4,300833	0,1	1,437858
4,302500	0,1	1,393271
4,304167	0,1	1,373924
4,305833	0,1	1,385053
4,307500	0,1	1,398929
4,309167	0,1	1,424423
4,310833	0,1	1,375781
4,312500	0,1	1,377768
4,314167	0,1	1,361827
4,315833	0,1	1,341227
4,317500	0,1	1,345152
4,319167	0,1	1,301034
4,320833	0,1	1,333475
4,322500	0,1	1,297829
4,324167	0,1	1,301870
4,325833	0,1	1,283867
4,327500	0,1	1,269182
4,329167	0,1	1,296478
4,330833	0,1	1,238075
4,332500	0,1	1,295232
4,334167	0,1	1,238975
4,335833	0,1	1,234287
4,337500	0,1	1,244141
4,339167	0,1	1,253592
4,340833	0,1	1,217509
4,342500	0,1	1,250452
4,344167	0,1	1,180970
4,345833	0,1	1,172013
4,347500	0,1	1,177023
4,349167	0,1	1,160039
4,350833	0,1	1,154859
4,352500	0,1	1,123757
4,354167	0,1	1,170329
4,355833	0,1	1,138913
4,357500	0,1	1,141391
4,359167	0,1	1,132848
4,360833	0,1	1,114766
4,362500	0,1	1,121711
4,364167	0,1	1,104204
4,365833	0,1	1,100144
4,367500	0,1	1,118664
4,369167	0,1	1,097374
4,370833	0,1	1,084150
4,372500	0,1	1,077915
4,374167	0,1	1,059527
4,375833	0,1	1,054110
4,377500	0,1	1,062136
4,379167	0,1	1,058257
4,380833	0,1	1,096402
4,382500	0,1	1,023046
4,384167	0,1	1,049465
4,385833	0,1	1,009173
4,387500	0,1	1,042674
4,389167	0,1	1,023853
4,390833	0,1	1,031123
4,392500	0,1	0,976437
4,394167	0,1	1,016009
4,395833	0,1	0,998365
4,397500	0,1	0,957270
4,399167	0,1	0,988372
4,400833	0,1	0,976960
4,402500	0,1	0,946021
4,404167	0,1	0,933975
4,405833	0,1	0,933175
4,407500	0,1	0,942555
4,409167	0,1	0,980253
4,410833	0,1	0,938107
4,412500	0,1	0,940337
4,414167	0,1	0,920092
4,415833	0,1	0,921241
4,417500	0,1	0,972331
4,419167	0,1	0,929215
4,420833	0,1	0,899671
4,422500	0,1	0,899819
4,424167	0,1	0,920240
4,425833	0,1	0,903304
4,427500	0,1	0,893103
4,429167	0,1	0,866741
4,430833	0,1	0,903405
4,432500	0,1	0,856365
4,434167	0,1	0,867705
4,435833	0,1	0,861773
4,437500	0,1	0,841882
4,439167	0,1	0,827710
4,440833	0,1	0,862291
4,442500	0,1	0,834810
4,444167	0,1	0,823274
4,445833	0,1	0,850206
4,447500	0,1	0,850905
4,449167	0,1	0,847483
4,450833	0,1	0,819931
4,452500	0,1	0,795037
4,454167	0,1	0,811101
4,455833	0,1	0,804034
4,457500	0,1	0,772286
4,459167	0,1	0,780635
4,460833	0,1	0,775626
4,462500	0,1	0,794895
4,464167	0,1	0,748212
4,465833	0,1	0,737536
4,467500	0,1	0,781466
4,469167	0,1	0,733651
4,470833	0,1	0,752856
4,472500	0,1	0,744858
4,474167	0,1	0,735923
4,475833	0,1	0,713361
4,477500	0,1	0,715349
4,479167	0,1	0,757834
4,480833	0,1	0,711122
4,482500	0,1	0,716187
4,484167	0,1	0,727365
4,485833	0,1	0,717646
4,487500	0,1	0,705253
4,489167	0,1	0,738131
4,490833	0,1	0,700155
4,492500	0,1	0,728897
4,494167	0,1	0,691769
4,495833	0,1	0,635239
4,497500	0,1	0,694438
4,499167	0,1	0,689862
4,500833	0,1	0,697508
4,502500	0,1	0,681210
4,504167	0,1	0,670867
4,505833	0,1	0,652879
4,507500	0,1	0,658586
4,509167	0,1	0,677391
4,510833	0,1	0,667401
4,512500	0,1	0,623797
4,514167	0,1	0,642904
4,515833	0,1	0,657401
4,517500	0,1	0,631441
4,519167	0,1	0,643189
4,520833	0,1	0,615855
4,522500	0,1	0,592814
4,524167	0,1	0,620313
4,525833	0,1	0,553850
4,527500	0,1	0,608862
4,529167	0,1	0,607077
4,530833	0,1	0,628982
4,532500	0,1	0,576788
4,534167	0,1	0,601929
4,535833	0,1	0,593551
4,537500	0,1	0,596632
4,539167	0,1	0,577329
4,540833	0,1	0,600320
4,542500	0,1	0,572444
4,544167	0,1	0,638359
4,545833	0,1	0,572805
4,547500	0,1	0,558526
4,549167	0,1	0,534561
4,550833	0,1	0,570820
4,552500	0,1	0,518503
4,554167	0,1	0,556040
4,555833	0,1	0,553063
4,557500	0,1	0,554602
4,559167	0,1	0,548471
4,560833	0,1	0,537193
4,562500	0,1	0,529156
4,564167	0,1	0,518878
4,565833	0,1	0,518747
4,567500	0,1	0,529316
4,569167	0,1	0,515217
4,570833	0,1	0,519132
4,572500	0,1	0,499637
4,574167	0,1	0,534450
4,575833	0,1	0,537864
4,577500	0,1	0,512071
4,579167	0,1	0,507923
4,580833	0,1	0,532041
4,582500	0,1	0,526137
4,584167	0,1	0,488654
4,585833	0,1	0,465007
4,587500	0,1	0,512695
4,589167	0,1	0,472464
4,590833	0,1	0,500589
4,592500	0,1	0,496357
4,594167	0,1	0,488292
4,595833	0,1	0,448465
4,597500	0,1	0,508773
4,599167	0,1	0,503198
4,600833	0,1	0,505251
4,602500	0,1	0,496966
4,604167	0,1	0,478691
4,605833	0,1	0,497860
4,607500	0,1	0,476859
4,609167	0,1	0,463720
4,610833	0,1	0,466766
4,612500	0,1	0,444672
4,614167	0,1	0,447878
4,615833	0,1	0,442612
4,617500	0,1	0,441167
4,619167	0,1	0,464674
4,620833	0,1	0,397464
4,622500	0,1	0,442792
4,624167	0,1	0,440940
4,625833	0,1	0,459600
4,627500	0,1	0,407770
4,629167	0,1	0,424681
4,630833	0,1	0,441933
4,632500	0,1	0,442965
4,634167	0,1	0,473120
4,635833	0,1	0,376823
4,637500	0,1	0,421435
4,639167	0,1	0,406704
4,640833	0,1	0,421184
4,642500	0,1	0,400316
4,644167	0,1	0,463252
4,645833	0,1	0,401671
4,647500	0,1	0,395522
4,649167	0,1	0,431809
4,650833	0,1	0,407799
4,652500	0,1	0,388268
4,654167	0,1	0,416716
4,655833	0,1	0,389139
4,657500	0,1	0,423778
4,659167	0,1	0,363002
4,660833	0,1	0,370630
4,662500	0,1	0,366009
4,664167	0,1	0,363503
4,665833	0,1	0,392752
4,667500	0,1	0,369577
4,669167	0,1	0,392658
4,670833	0,1	0,369995
4,672500	0,1	0,362507
4,674167	0,1	0,330907
4,675833	0,1	0,352096
4,677500	0,1	0,377755
4,679167	0,1	0,323438
4,680833	0,1	0,381315
4,682500	0,1	0,392792
4,684167	0,1	0,360841
4,685833	0,1	0,341059
4,687500	0,1	0,330747
4,689167	0,1	0,331414
4,690833	0,1	0,360931
4,692500	0,1	0,324909
4,694167	0,1	0,342335
4,695833	0,1	0,307920
4,697500	0,1	0,382371
4,699167	0,1	0,366330
4,700833	0,1	0,338810
4,702500	0,1	0,335108
4,704167	0,1	0,305992
4,705833	0,1	0,341140
4,707500	0,1	0,359226
4,709167	0,1	0,354001
4,710833	0,1	0,352907
4,712500	0,1	0,323623
4,714167	0,1	0,304253
4,715833	0,1	0,327752
4,717500	0,1	0,334243
4,719167	0,1	0,331833
4,720833	0,1	0,312094
4,722500	0,1	0,325152
4,724167	0,1	0,329938
4,725833	0,1	0,323518
4,727500	0,1	0,291250
4,729167	0,1	0,331538
4,730833	0,1	0,313852
4,732500	0,1	0,322872
4,734167	0,1	0,292669
4,735833	0,1	0,313298
4,737500	0,1	0,318992
4,739167	0,1	0,326896
4,740833	0,1	0,289071
4,742500	0,1	0,280361
4,744167	0,1	0,293166
4,745833	0,1	0,297735
4,747500	0,1	0,322550
4,749167	0,1	0,306694
4,750833	0,1	0,251566
4,752500	0,1	0,295022
4,754167	0,1	0,294462
4,755833	0,1	0,319021
4,757500	0,1	0,302941
4,759167	0,1	0,330447
4,760833	0,1	0,279314
4,762500	0,1	0,297534
4,764167	0,1	0,285762
4,765833	0,1	0,315648
4,767500	0,1	0,280532
4,769167	0,1	0,334555
4,770833	0,1	0,251636
4,772500	0,1	0,277594
4,774167	0,1	0,304730
4,775833	0,1	0,279343
4,777500	0,1	0,263865
4,779167	0,1	0,307161
4,780833	0,1	0,256999
4,782500	0,1	0,273320
4,784167	0,1	0,265781
4,785833	0,1	0,294193
4,787500	0,1	0,265080
4,789167	0,1	0,302384
4,790833	0,1	0,271730
4,792500	0,1	0,305342
4,794167	0,1	0,320662
4,795833	0,1	0,247752
4,797500	0,1	0,310338
4,799167	0,1	0,268104
4,800833	0,1	0,257180
4,802500	0,1	0,273708
4,804167	0,1	0,239370
4,805833	0,1	0,261215
4,807500	0,1	0,245397
4,809167	0,1	0,265233
4,810833	0,1	0,246002
4,812500	0,1	0,276211
4,814167	0,1	0,252653
4,815833	0,1	0,233938
4,817500	0,1	0,259098
4,819167	0,1	0,219100
4,820833	0,1	0,239066
4,822500	0,1	0,237299
4,824167	0,1	0,256758
4,825833	0,1	0,282542
4,827500	0,1	0,275097
4,829167	0,1	0,225173
4,830833	0,1	0,223723
4,832500	0,1	0,245777
4,834167	0,1	0,256886
4,835833	0,1	0,229347
4,837500	0,1	0,255561
4,839167	0,1	0,208098
4,840833	0,1	0,271644
4,842500	0,1	0,243509
4,844167	0,1	0,241089
4,845833	0,1	0,283568
4,847500	0,1	0,227010
4,849167	0,1	0,253156
4,850833	0,1	0,224525
4,852500	0,1	0,212974
4,854167	0,1	0,258577
4,855833	0,1	0,229221
4,857500	0,1	0,244621
4,859167	0,1	0,254192
4,860833	0,1	0,272657
4,862500	0,1	0,230887
4,864167	0,1	0,229919
4,865833	0,1	0,191579
4,867500	0,1	0,262370
4,869167	0,1	0,234772
4,870833	0,1	0,242244
4,872500	0,1	0,219008
4,874167	0,1	0,262693
4,875833	0,1	0,237350
4,877500	0,1	0,237498
4,879167	0,1	0,229241
4,880833	0,1	0,233290
4,882500	0,1	0,250815
4,884167	0,1	0,261888
4,885833	0,1	0,206336
4,887500	0,1	0,240220
4,889167	0,1	0,219398
4,890833	0,1	0,226202
4,892500	0,1	0,233191
4,894167	0,1	0,216438
4,895833	0,1	0,262658
4,897500	0,1	0,252811
4,899167	0,1	0,244627
4,900833	0,1	0,218982
4,902500	0,1	0,236852
4,904167	0,1	0,249759
4,905833	0,1	0,232302
4,907500	0,1	0,258455
4,909167	0,1	0,195096
4,910833	0,1	0,227441
4,912500	0,1	0,242594
4,914167	0,1	0,249770
4,915833	0,1	0,235863
4,917500	0,1	0,244532
4,919167	0,1	0,192411
4,920833	0,1	0,250843
4,922500	0,1	0,262024
4,924167	0,1	0,192958
4,925833	0,1	0,254369
4,927500	0,1	0,255251
4,929167	0,1	0,278427
4,930833	0,1	0,218249
4,932500	0,1	0,232810
4,934167	0,1	0,210244
4,935833	0,1	0,254282
4,937500	0,1	0,232012
4,939167	0,1	0,226710
4,940833	0,1	0,222692
4,942500	0,1	0,269468
4,944167	0,1	0,232079
4,945833	0,1	0,239964
4,947500	0,1	0,236756
4,949167	0,1	0,260158
4,950833	0,1	0,237466
4,952500	0,1	0,213935
4,954167	0,1	0,265513
4,955833	0,1	0,234004
4,957500	0,1	0,218565
4,959167	0,1	0,240024
4,960833	0,1	0,245339
4,962500	0,1	0,225492
4,964167	0,1	0,232096
4,965833	0,1	0,256368
4,967500	0,1	0,241390
4,969167	0,1	0,260927
4,970833	0,1	0,247260
4,972500	0,1	0,270404
4,974167	0,1	0,238815
4,975833	0,1	0,222758
4,977500	0,1	0,254955
4,979167	0,1	0,265080
4,980833	0,1	0,241935
4,982500	0,1	0,270339
4,984167	0,1	0,281226
4,985833	0,1	0,271570
4,987500	0,1	0,290250
4,989167	0,1	0,262359
4,990833	0,1	0,284886
4,992500	0,1	0,260359
4,994167	0,1	0,251049
4,995833	0,1	0,259870
4,997500	0,1	0,255831
4,999167	0,1	0,271465
5,000833	0,1	0,262633
5,002500	0,1	0,274847
5,004167	0,1	0,259686
5,005833	0,1	0,268320
5,007500	0,1	0,270464
5,009167	0,1	0,272111
5,010833	0,1	0,310796
5,012500	0,1	0,298217
5,014167	0,1	0,309772
5,015833	0,1	0,314079
5,017500	0,1	0,297676
5,019167	0,1	0,297057
5,020833	0,1	0,293305
5,022500	0,1	0,259817
5,024167	0,1	0,300676
5,025833	0,1	0,314719
5,027500	0,1	0,303067
5,029167	0,1	0,316809
5,030833	0,1	0,297091
5,032500	0,1	0,332372
5,034167	0,1	0,314853
5,035833	0,1	0,330035
5,037500	0,1	0,296198
5,039167	0,1	0,347883
5,040833	0,1	0,355729
5,042500	0,1	0,315564
5,044167	0,1	0,360731
5,045833	0,1	0,377825
5,047500	0,1	0,333034
5,049167	0,1	0,341631
5,050833	0,1	0,378331
5,052500	0,1	0,322409
5,054167	0,1	0,368698
5,055833	0,1	0,377249
5,057500	0,1	0,384666
5,059167	0,1	0,386786
5,060833	0,1	0,374134
5,062500	0,1	0,375838
5,064167	0,1	0,400689
5,065833	0,1	0,370152
5,067500	0,1	0,391505
5,069167	0,1	0,387881
5,070833	0,1	0,393982
5,072500	0,1	0,394108
5,074167	0,1	0,369289
5,075833	0,1	0,409260
5,077500	0,1	0,421440
5,079167	0,1	0,413608
5,080833	0,1	0,402657
5,082500	0,1	0,374752
5,084167	0,1	0,447445
5,085833	0,1	0,407221
5,087500	0,1	0,425037
5,089167	0,1	0,409947
5,090833	0,1	0,436407
5,092500	0,1	0,400285
5,094167	0,1	0,418128
5,095833	0,1	0,437499
5,097500	0,1	0,425396
5,099167	0,1	0,433745
5,100833	0,1	0,443670
5,102500	0,1	0,385771
5,104167	0,1	0,454578
5,105833	0,1	0,455622
5,107500	0,1	0,425915
5,109167	0,1	0,412261
5,110833	0,1	0,444338
5,112500	0,1	0,444602
5,114167	0,1	0,456806
5,115833	0,1	0,427616
5,117500	0,1	0,424400
5,119167	0,1	0,472764
5,120833	0,1	0,457231
5,122500	0,1	0,447401
5,124167	0,1	0,447428
5,125833	0,1	0,452567
5,127500	0,1	0,467953
5,129167	0,1	0,439404
5,130833	0,1	0,463099
5,132500	0,1	0,470011
5,134167	0,1	0,437384
5,135833	0,1	0,488183
5,137500	0,1	0,423160
5,139167	0,1	0,450667
5,140833	0,1	0,487060
5,142500	0,1	0,481224
5,144167	0,1	0,399234
5,145833	0,1	0,435149
5,147500	0,1	0,446461
5,149167	0,1	0,443446
5,150833	0,1	0,435002
5,152500	0,1	0,480025
5,154167	0,1	0,485816
5,155833	0,1	0,455146
5,157500	0,1	0,442036
5,159167	0,1	0,458124
5,160833	0,1	0,458865
5,162500	0,1	0,453534
5,164167	0,1	0,456294
5,165833	0,1	0,441236
5,167500	0,1	0,457288
5,169167	0,1	0,400159
5,170833	0,1	0,416910
5,172500	0,1	0,423334
5,174167	0,1	0,451696
5,175833	0,1	0,455942
5,177500	0,1	0,435711
5,179167	0,1	0,438533
5,180833	0,1	0,411494
5,182500	0,1	0,402752
5,184167	0,1	0,431395
5,185833	0,1	0,428092
5,187500	0,1	0,410015
5,189167	0,1	0,422307
5,190833	0,1	0,424172
5,192500	0,1	0,415088
5,194167	0,1	0,410492
5,195833	0,1	0,398097
5,197500	0,1	0,408787
5,199167	0,1	0,398834
5,200833	0,1	0,415625
5,202500	0,1	0,381141
5,204167	0,1	0,388747
5,205833	0,1	0,380429
5,207500	0,1	0,380849
5,209167	0,1	0,383350
5,210833	0,1	0,406691
5,212500	0,1	0,379180
5,214167	0,1	0,378021
5,215833	0,1	0,347543
5,217500	0,1	0,398851
5,219167	0,1	0,360236
5,220833	0,1	0,369795
5,222500	0,1	0,406499
5,224167	0,1	0,350766
5,225833	0,1	0,314279
5,227500	0,1	0,376494
5,229167	0,1	0,341896
5,230833	0,1	0,346579
5,232500	0,1	0,364237
5,234167	0,1	0,342987
5,235833	0,1	0,355118
5,237500	0,1	0,349082
5,239167	0,1	0,324391
5,240833	0,1	0,319637
5,242500	0,1	0,344169
5,244167	0,1	0,321695
5,245833	0,1	0,359799
5,247500	0,1	0,330340
5,249167	0,1	0,307465
5,250833	0,1	0,306818
5,252500	0,1	0,292340
5,254167	0,1	0,315683
5,255833	0,1	0,303519
5,257500	0,1	0,284001
5,259167	0,1	0,293907
5,260833	0,1	0,272505
5,262500	0,1	0,280167
5,264167	0,1	0,298826
5,265833	0,1	0,297509
5,267500	0,1	0,302484
5,269167	0,1	0,275075
5,270833	0,1	0,305689
5,272500	0,1	0,258021
5,274167	0,1	0,287036
5,275833	0,1	0,269927
5,277500	0,1	0,290278
5,279167	0,1	0,231080
5,280833	0,1	0,251747
5,282500	0,1	0,251878
5,284167	0,1	0,222056
5,285833	0,1	0,256138
5,287500	0,1	0,268319
5,289167	0,1	0,263989
5,290833	0,1	0,245170
5,292500	0,1	0,246677
5,294167	0,1	0,247102
5,295833	0,1	0,247608
5,297500	0,1	0,278180
5,299167	0,1	0,244342
5,300833	0,1	0,207163
5,302500	0,1	0,233864
5,304167	0,1	0,200717
5,305833	0,1	0,234658
5,307500	0,1	0,219295
5,309167	0,1	0,203242
5,310833	0,1	0,178872
5,312500	0,1	0,201307
5,314167	0,1	0,200596
5,315833	0,1	0,163314
5,317500	0,1	0,251576
5,319167	0,1	0,186209
5,320833	0,1	0,185551
5,322500	0,1	0,200604
5,324167	0,1	0,234732
5,325833	0,1	0,172183
5,327500	0,1	0,199745
5,329167	0,1	0,184622
5,330833	0,1	0,196173
5,332500	0,1	0,187744
5,334167	0,1	0,170825
5,335833	0,1	0,161319
5,337500	0,1	0,154986
5,339167	0,1	0,169698
5,340833	0,1	0,185938
5,342500	0,1	0,167830
5,344167	0,1	0,146002
5,345833	0,1	0,170034
5,347500	0,1	0,155416
5,349167	0,1	0,164954
5,350833	0,1	0,129125
5,352500	0,1	0,166569
5,354167	0,1	0,152888
5,355833	0,1	0,149535
5,357500	0,1	0,185579
5,359167	0,1	0,133106
5,360833	0,1	0,151103
5,362500	0,1	0,155828
5,364167	0,1	0,156394
5,365833	0,1	0,134498
5,367500	0,1	0,138166
5,369167	0,1	0,149820
5,370833	0,1	0,165807
5,372500	0,1	0,184551
5,374167	0,1	0,147327
5,375833	0,1	0,139365
5,377500	0,1	0,122285
5,379167	0,1	0,133169
5,380833	0,1	0,134743
5,382500	0,1	0,120759
5,384167	0,1	0,155858
5,385833	0,1	0,097713
5,387500	0,1	0,121194
5,389167	0,1	0,120292
5,390833	0,1	0,115549
5,392500	0,1	0,100545
5,394167	0,1	0,098279
5,395833	0,1	0,134118
5,397500	0,1	0,125861
5,399167	0,1	0,116317
5,400833	0,1	0,123437
5,402500	0,1	0,094621
5,404167	0,1	0,117139
5,405833	0,1	0,100874
5,407500	0,1	0,116211
5,409167	0,1	0,098965
5,410833	0,1	0,087847
5,412500	0,1	0,052757
5,414167	0,1	0,108082
5,415833	0,1	0,093522
5,417500	0,1	0,082070
5,419167	0,1	0,111275
5,420833	0,1	0,075241
5,422500	0,1	0,107774
5,424167	0,1	0,079898
5,425833	0,1	0,075462
5,427500	0,1	0,087096
5,429167	0,1	0,102292
5,430833	0,1	0,043278
5,432500	0,1	0,097702
5,434167	0,1	0,120452
5,435833	0,1	0,089299
5,437500	0,1	0,076855
5,439167	0,1	0,091026
5,440833	0,1	0,057104
5,442500	0,1	0,047221
5,444167	0,1	0,045564
5,445833	0,1	0,088577
5,447500	0,1	0,102126
5,449167	0,1	0,082173
5,450833	0,1	0,030813
5,452500	0,1	0,095695
5,454167	0,1	0,057019
5,455833	0,1	0,081686
5,457500	0,1	0,075501
5,459167	0,1	0,095314
5,460833	0,1	0,066315
5,462500	0,1	0,004812
5,464167	0,1	0,109144
5,465833	0,1	0,033054
5,467500	0,1	0,066113
5,469167	0,1	0,029630
5,470833	0,1	0,043801
5,472500	0,1	0,038172
5,474167	0,1	0,021900
5,475833	0,1	0,042266
5,477500	0,1	0,047444
5,479167	0,1	0,056782
5,480833	0,1	0,022713
5,482500	0,1	0,061619
5,484167	0,1	0,054985
5,485833	0,1	0,013419
5,487500	0,1	0,053672
5,489167	0,1	0,049787
5,490833	0,1	0,055538
5,492500	0,1	0,023188
5,494167	0,1	0,059985
5,495833	0,1	0,051753
5,497500	0,1	0,045272
5,499167	0,1	0,040510
5,500833	0,1	0,039413
5,502500	0,1	0,057047
5,504167	0,1	0,029379
5,505833	0,1	0,051291
5,507500	0,1	0,008016
5,509167	0,1	0,010530
5,510833	0,1	0,061844
5,512500	0,1	0,059516
5,514167	0,1	0,030663
5,515833	0,1	0,029042
5,517500	0,1	0,003189
5,519167	0,1	0,019741
5,520833	0,1	0,037421
5,522500	0,1	-0,012146
5,524167	0,1	0,008767
5,525833	0,1	0,046898
5,527500	0,1	-0,004363
5,529167	0,1	0,015310
5,530833	0,1	0,024730
5,532500	0,1	-0,010577
5,534167	0,1	0,014791
5,535833	0,1	0,025103
5,537500	0,1	0,025292
5,539167	0,1	0,013827
5,540833	0,1	0,022454
5,542500	0,1	0,049426
5,544167	0,1	0,018158
5,545833	0,1	-0,001616
5,547500	0,1	0,030959
5,549167	0,1	0,017594
5,550833	0,1	0,051475
5,552500	0,1	-0,009204
5,554167	0,1	0,028659
5,555833	0,1	-0,008795
5,557500	0,1	0,031557
5,559167	0,1	0,022894
5,560833	0,1	0,006975
5,562500	0,1	-0,019626
5,564167	0,1	0,044636
5,565833	0,1	0,017266
5,567500	0,1	0,002151
5,569167	0,1	0,023839
5,570833	0,1	0,005610
5,572500	0,1	0,010821
5,574167	0,1	0,042035
5,575833	0,1	0,012506
5,577500	0,1	0,029698
5,579167	0,1	-0,004553
5,580833	0,1	0,003181
5,582500	0,1	0,020775
5,584167	0,1	0,003206
5,585833	0,1	0,062443
5,587500	0,1	0,095664
5,589167	0,1	0,014506
5,590833	0,1	-0,026908
5,592500	0,1	-0,022737
5,594167	0,1	-0,023130
5,595833	0,1	0,000092
5,597500	0,1	-0,006236
5,599167	0,1	0,001897
5,600833	0,1	0,003886
5,602500	0,1	0,004217
5,604167	0,1	-0,002821
5,605833	0,1	0,008894
5,607500	0,1	0,026323
5,609167	0,1	0,008112
5,610833	0,1	0,018561
5,612500	0,1	0,033134
5,614167	0,1	0,023143
5,615833	0,1	0,034317
5,617500	0,1	0,008716
5,619167	0,1	0,030484
5,620833	0,1	0,036015
5,622500	0,1	-0,010906
5,624167	0,1	-0,012201
5,625833	0,1	-0,026750
5,627500	0,1	0,002760
5,629167	0,1	0,016844
5,630833	0,1	0,024485
5,632500	0,1	0,014737
5,634167	0,1	0,009271
5,635833	0,1	0,034272
5,637500	0,1	0,017532
5,639167	0,1	0,033736
5,640833	0,1	0,034857
5,642500	0,1	0,026329
5,644167	0,1	0,032495
5,645833	0,1	-0,000703
5,647500	0,1	-0,003008
5,649167	0,1	0,013902
5,650833	0,1	0,021895
5,652500	0,1	0,051393
5,654167	0,1	-0,028183
5,655833	0,1	0,026956
5,657500	0,1	0,023865
5,659167	0,1	0,006560
5,660833	0,1	0,005148
5,662500	0,1	0,018209
5,664167	0,1	-0,000477
5,665833	0,1	0,032779
5,667500	0,1	0,040549
5,669167	0,1	-0,008482
5,670833	0,1	0,034081
5,672500	0,1	-0,006766
5,674167	0,1	0,031930
5,675833	0,1	0,001265
5,677500	0,1	0,036650
5,679167	0,1	0,032933
5,680833	0,1	0,007390
5,682500	0,1	-0,005551
5,684167	0,1	0,024561
5,685833	0,1	0,010577
5,687500	0,1	-0,005903
5,689167	0,1	0,053953
5,690833	0,1	0,015281
5,692500	0,1	0,023656
5,694167	0,1	0,019808
5,695833	0,1	0,020282
5,697500	0,1	0,036137
5,699167	0,1	0,012524
5,700833	0,1	-0,000913
5,702500	0,1	0,006328
5,704167	0,1	0,040088
5,705833	0,1	0,005405
5,707500	0,1	0,044000
5,709167	0,1	0,017888
5,710833	0,1	0,038290
5,712500	0,1	0,056613
5,714167	0,1	0,048543
5,715833	0,1	0,046473
5,717500	0,1	0,029438
5,719167	0,1	0,005464
5,720833	0,1	0,064306
5,722500	0,1	0,003548
5,724167	0,1	0,020858
5,725833	0,1	0,060397
5,727500	0,1	0,030247
5,729167	0,1	0,041479
5,730833	0,1	-0,000989
5,732500	0,1	0,046007
5,734167	0,1	0,060466
5,735833	0,1	0,022155
5,737500	0,1	0,015791
5,739167	0,1	0,042491
5,740833	0,1	0,065952
5,742500	0,1	0,057137
5,744167	0,1	0,063531
5,745833	0,1	0,038694
5,747500	0,1	0,044938
5,749167	0,1	0,041692
5,750833	0,1	0,066076
5,752500	0,1	0,137246
5,754167	0,1	0,045440
5,755833	0,1	0,034696
5,757500	0,1	0,040508
5,759167	0,1	0,056762
5,760833	0,1	0,044426
5,762500	0,1	0,051027
5,764167	0,1	0,072558
5,765833	0,1	0,062397
5,767500	0,1	0,090343
5,769167	0,1	0,053646
5,770833	0,1	0,034823
5,772500	0,1	0,054937
5,774167	0,1	0,073365
5,775833	0,1	0,048178
5,777500	0,1	0,066491
5,779167	0,1	0,057841
5,780833	0,1	0,062560
5,782500	0,1	0,066245
5,784167	0,1	0,086885
5,785833	0,1	0,077451
5,787500	0,1	0,057532
5,789167	0,1	0,097893
5,790833	0,1	0,053318
5,792500	0,1	0,066323
5,794167	0,1	0,068438
5,795833	0,1	0,072313
5,797500	0,1	0,083678
5,799167	0,1	0,077364
5,800833	0,1	0,045550
5,802500	0,1	0,065100
5,804167	0,1	0,049811
5,805833	0,1	0,059370
5,807500	0,1	0,060014
5,809167	0,1	0,014746
5,810833	0,1	0,091240
5,812500	0,1	0,056359
5,814167	0,1	0,047759
5,815833	0,1	0,074334
5,817500	0,1	0,053188
5,819167	0,1	0,058997
5,820833	0,1	0,039646
5,822500	0,1	0,063322
5,824167	0,1	0,060386
5,825833	0,1	0,067819
5,827500	0,1	0,066207
5,829167	0,1	0,081359
5,830833	0,1	0,042382
5,832500	0,1	0,039767
5,834167	0,1	0,047466
5,835833	0,1	0,007933
5,837500	0,1	0,034749
5,839167	0,1	0,071788
5,840833	0,1	0,056497
5,842500	0,1	0,067981
5,844167	0,1	0,057865
5,845833	0,1	0,045608
5,847500	0,1	0,063448
5,849167	0,1	0,032484
5,850833	0,1	0,053757
5,852500	0,1	0,046805
5,854167	0,1	0,042891
5,855833	0,1	0,041960
5,857500	0,1	0,054401
5,859167	0,1	0,032462
5,860833	0,1	0,058828
5,862500	0,1	0,068312
5,864167	0,1	0,005680
5,865833	0,1	0,026594
5,867500	0,1	0,008901
5,869167	0,1	0,045056
5,870833	0,1	0,095386
5,872500	0,1	0,035805
5,874167	0,1	0,095487
5,875833	0,1	0,033051
5,877500	0,1	0,006355
5,879167	0,1	0,029344
5,880833	0,1	0,075238
5,882500	0,1	0,075398
5,884167	0,1	0,024725
5,885833	0,1	0,013805
5,887500	0,1	0,028209
5,889167	0,1	0,014552
5,890833	0,1	0,043548
5,892500	0,1	0,032044
5,894167	0,1	0,024983
5,895833	0,1	0,018856
5,897500	0,1	0,013679
5,899167	0,1	0,069216
5,900833	0,1	0,037331
5,902500	0,1	0,037549
5,904167	0,1	0,036347
5,905833	0,1	-0,000743
5,907500	0,1	0,043851
5,909167	0,1	0,040510
5,910833	0,1	0,044214
5,912500	0,1	0,050920
5,914167	0,1	0,041546
5,915833	0,1	0,007910
5,917500	0,1	-0,009484
5,919167	0,1	0,025366
5,920833	0,1	-0,031707
5,922500	0,1	-0,004567
5,924167	0,1	0,016881
5,925833	0,1	0,020052
5,927500	0,1	0,045742
5,929167	0,1	0,013024
5,930833	0,1	0,016388
5,932500	0,1	0,061453
5,934167	0,1	0,012013
5,935833	0,1	0,008751
5,937500	0,1	0,030962
5,939167	0,1	0,016602
5,940833	0,1	0,023385
5,942500	0,1	0,015687
5,944167	0,1	0,035700
5,945833	0,1	0,016996
5,947500	0,1	0,024668
5,949167	0,1	0,027839
5,950833	0,1	0,039906
5,952500	0,1	-0,004592
5,954167	0,1	-0,012758
5,955833	0,1	0,043043
5,957500	0,1	-0,010158
5,959167	0,1	-0,011309
5,960833	0,1	-0,004480
5,962500	0,1	-0,035957
5,964167	0,1	0,017165
5,965833	0,1	0,013305
5,967500	0,1	-0,029227
5,969167	0,1	-0,017688
5,970833	0,1	-0,005992
5,972500	0,1	0,002932
5,974167	0,1	0,016159
5,975833	0,1	-0,008965
5,977500	0,1	0,010899
5,979167	0,1	0,002645
5,980833	0,1	-0,007168
5,982500	0,1	0,002932
5,984167	0,1	-0,004765
5,985833	0,1	-0,014744
5,987500	0,1	-0,004668
5,989167	0,1	-0,012321
5,990833	0,1	0,017171
5,992500	0,1	-0,017532
5,994167	0,1	-0,004253
5,995833	0,1	-0,001311
5,997500	0,1	-0,029128
5,999167	0,1	-0,052479
6,000833	0,1	0,029951
