File Path	chrom://chromeleon01/ikbm_chromeleon/2022/Rezex/Esteban/220612_chitin_4_7.seq/528.smp/UV_VIS_1.channel/UV_VIS_1.chm
Channel	UV_VIS_1

Injection Information:
Data Vault	ikbm_chromeleon
Injection	CelS2_02h-EGS_2
Injection Number	88
Position	GD8
Comment	
Processing Method	New ProcMethod
Instrument Method	Short_Rezex_6min_194nm
Type	Unknown
Status	Finished
Injection Date	13.06.2022
Injection Time	02:37:25
Injection Volume (µl)	8,000
Dilution Factor	1,0000
Weight	1,0000

Chromatogram Data Information:
Time Min. (min)	0,000833
Time Max. (min)	6,000833
Data Points	3601
Detector	UV
Generating Data System	Chromeleon 7.2.9.11323
Exporting Data System	Chromeleon 7.2.9.0
Operator	Instrument Controller
Signal Quantity	Absorbance
Signal Unit	mAU
Signal Min.	-0,115757
Signal Max.	130,036317
Channel	UV_VIS_1
Driver Name	VWD3000.dll
Channel Type	Evaluation
Min. Step (s)	0,1
Max. Step (s)	0,1
Average Step (s)	0,1

Signal Parameter Information:
Signal Info	WVL:194 nm

Chromatogram Data:
Time (min)	Step (s)	Value (mAU)
0,000833	n.a.	-0,059108
0,002500	0,1	-0,061199
0,004167	0,1	-0,070951
0,005833	0,1	-0,052277
0,007500	0,1	-0,046911
0,009167	0,1	-0,062253
0,010833	0,1	-0,032273
0,012500	0,1	-0,064941
0,014167	0,1	-0,039459
0,015833	0,1	-0,057591
0,017500	0,1	-0,046103
0,019167	0,1	-0,026015
0,020833	0,1	-0,039139
0,022500	0,1	-0,048895
0,024167	0,1	-0,051921
0,025833	0,1	-0,032063
0,027500	0,1	-0,038747
0,029167	0,1	-0,030258
0,030833	0,1	-0,050528
0,032500	0,1	-0,038336
0,034167	0,1	-0,104885
0,035833	0,1	-0,112311
0,037500	0,1	-0,078439
0,039167	0,1	-0,061928
0,040833	0,1	-0,115757
0,042500	0,1	-0,098523
0,044167	0,1	-0,085287
0,045833	0,1	-0,063214
0,047500	0,1	-0,055609
0,049167	0,1	-0,081055
0,050833	0,1	-0,059155
0,052500	0,1	-0,054324
0,054167	0,1	-0,058816
0,055833	0,1	-0,048361
0,057500	0,1	-0,039682
0,059167	0,1	-0,028187
0,060833	0,1	-0,073346
0,062500	0,1	-0,038736
0,064167	0,1	-0,030404
0,065833	0,1	-0,024147
0,067500	0,1	-0,069556
0,069167	0,1	-0,061078
0,070833	0,1	-0,020489
0,072500	0,1	-0,050755
0,074167	0,1	-0,076623
0,075833	0,1	-0,031303
0,077500	0,1	-0,032722
0,079167	0,1	-0,029326
0,080833	0,1	-0,062643
0,082500	0,1	-0,051571
0,084167	0,1	-0,034714
0,085833	0,1	-0,035662
0,087500	0,1	-0,048355
0,089167	0,1	-0,029867
0,090833	0,1	-0,076659
0,092500	0,1	-0,006806
0,094167	0,1	-0,046714
0,095833	0,1	-0,023758
0,097500	0,1	-0,018057
0,099167	0,1	-0,038620
0,100833	0,1	-0,031750
0,102500	0,1	-0,033364
0,104167	0,1	-0,031935
0,105833	0,1	-0,040425
0,107500	0,1	-0,079915
0,109167	0,1	-0,102204
0,110833	0,1	-0,044250
0,112500	0,1	-0,104886
0,114167	0,1	-0,053342
0,115833	0,1	-0,061776
0,117500	0,1	-0,029581
0,119167	0,1	-0,053904
0,120833	0,1	-0,080018
0,122500	0,1	-0,089964
0,124167	0,1	-0,057314
0,125833	0,1	-0,068631
0,127500	0,1	-0,087044
0,129167	0,1	-0,031761
0,130833	0,1	-0,073388
0,132500	0,1	-0,094123
0,134167	0,1	-0,066675
0,135833	0,1	-0,017696
0,137500	0,1	-0,085662
0,139167	0,1	-0,083485
0,140833	0,1	-0,073050
0,142500	0,1	-0,074991
0,144167	0,1	-0,023330
0,145833	0,1	-0,023028
0,147500	0,1	-0,012177
0,149167	0,1	-0,049779
0,150833	0,1	-0,046185
0,152500	0,1	-0,019782
0,154167	0,1	-0,056160
0,155833	0,1	-0,041714
0,157500	0,1	-0,045333
0,159167	0,1	-0,013735
0,160833	0,1	-0,047026
0,162500	0,1	-0,050265
0,164167	0,1	-0,045915
0,165833	0,1	-0,009655
0,167500	0,1	-0,033482
0,169167	0,1	-0,035786
0,170833	0,1	-0,021125
0,172500	0,1	-0,017850
0,174167	0,1	-0,079058
0,175833	0,1	-0,035465
0,177500	0,1	-0,065624
0,179167	0,1	-0,066998
0,180833	0,1	-0,046728
0,182500	0,1	-0,057407
0,184167	0,1	-0,010155
0,185833	0,1	-0,076512
0,187500	0,1	-0,031654
0,189167	0,1	-0,034542
0,190833	0,1	-0,020650
0,192500	0,1	-0,019549
0,194167	0,1	-0,014515
0,195833	0,1	-0,054521
0,197500	0,1	-0,005290
0,199167	0,1	-0,033689
0,200833	0,1	-0,017666
0,202500	0,1	-0,067174
0,204167	0,1	-0,055901
0,205833	0,1	-0,001105
0,207500	0,1	0,001227
0,209167	0,1	-0,056712
0,210833	0,1	-0,034610
0,212500	0,1	-0,019428
0,214167	0,1	-0,016835
0,215833	0,1	-0,063715
0,217500	0,1	-0,008169
0,219167	0,1	-0,046671
0,220833	0,1	-0,031752
0,222500	0,1	-0,001866
0,224167	0,1	-0,041432
0,225833	0,1	-0,075254
0,227500	0,1	-0,032463
0,229167	0,1	-0,041833
0,230833	0,1	-0,038046
0,232500	0,1	-0,028416
0,234167	0,1	-0,028826
0,235833	0,1	-0,006008
0,237500	0,1	-0,030852
0,239167	0,1	0,005236
0,240833	0,1	-0,018879
0,242500	0,1	-0,051167
0,244167	0,1	-0,038628
0,245833	0,1	-0,018889
0,247500	0,1	-0,037584
0,249167	0,1	-0,033986
0,250833	0,1	-0,032825
0,252500	0,1	-0,001826
0,254167	0,1	-0,008278
0,255833	0,1	-0,023044
0,257500	0,1	-0,066720
0,259167	0,1	-0,039376
0,260833	0,1	-0,005801
0,262500	0,1	-0,024039
0,264167	0,1	0,016380
0,265833	0,1	-0,045527
0,267500	0,1	-0,017505
0,269167	0,1	-0,004266
0,270833	0,1	-0,016460
0,272500	0,1	0,002030
0,274167	0,1	-0,062654
0,275833	0,1	-0,021485
0,277500	0,1	-0,012053
0,279167	0,1	-0,021473
0,280833	0,1	0,016338
0,282500	0,1	-0,051264
0,284167	0,1	-0,056291
0,285833	0,1	0,030454
0,287500	0,1	0,000137
0,289167	0,1	0,002387
0,290833	0,1	-0,046792
0,292500	0,1	-0,000978
0,294167	0,1	-0,063858
0,295833	0,1	-0,049956
0,297500	0,1	0,002106
0,299167	0,1	-0,027785
0,300833	0,1	-0,021042
0,302500	0,1	-0,042596
0,304167	0,1	-0,049476
0,305833	0,1	-0,031960
0,307500	0,1	-0,039554
0,309167	0,1	0,012194
0,310833	0,1	-0,022273
0,312500	0,1	-0,040444
0,314167	0,1	0,000471
0,315833	0,1	0,015764
0,317500	0,1	-0,038425
0,319167	0,1	-0,001392
0,320833	0,1	-0,013745
0,322500	0,1	-0,007763
0,324167	0,1	-0,013002
0,325833	0,1	-0,006128
0,327500	0,1	0,007230
0,329167	0,1	-0,013680
0,330833	0,1	-0,011533
0,332500	0,1	-0,004449
0,334167	0,1	-0,019647
0,335833	0,1	-0,019818
0,337500	0,1	-0,026464
0,339167	0,1	-0,003666
0,340833	0,1	-0,016499
0,342500	0,1	-0,023833
0,344167	0,1	-0,008883
0,345833	0,1	-0,012069
0,347500	0,1	-0,010537
0,349167	0,1	-0,000534
0,350833	0,1	0,013281
0,352500	0,1	-0,018464
0,354167	0,1	0,036015
0,355833	0,1	0,019336
0,357500	0,1	0,014734
0,359167	0,1	-0,026685
0,360833	0,1	-0,006649
0,362500	0,1	-0,016543
0,364167	0,1	-0,020003
0,365833	0,1	0,002051
0,367500	0,1	-0,004717
0,369167	0,1	-0,005462
0,370833	0,1	0,058239
0,372500	0,1	0,003312
0,374167	0,1	-0,011198
0,375833	0,1	0,029492
0,377500	0,1	0,003367
0,379167	0,1	0,017072
0,380833	0,1	0,025751
0,382500	0,1	0,013991
0,384167	0,1	-0,001337
0,385833	0,1	0,005410
0,387500	0,1	-0,007159
0,389167	0,1	0,014852
0,390833	0,1	0,027697
0,392500	0,1	0,018754
0,394167	0,1	0,053647
0,395833	0,1	-0,026095
0,397500	0,1	0,026570
0,399167	0,1	-0,018523
0,400833	0,1	-0,001780
0,402500	0,1	0,040552
0,404167	0,1	-0,034215
0,405833	0,1	0,010040
0,407500	0,1	0,006988
0,409167	0,1	0,052485
0,410833	0,1	-0,012655
0,412500	0,1	0,035767
0,414167	0,1	0,022670
0,415833	0,1	0,005540
0,417500	0,1	0,036702
0,419167	0,1	0,024368
0,420833	0,1	0,004401
0,422500	0,1	0,040515
0,424167	0,1	0,011591
0,425833	0,1	0,028731
0,427500	0,1	0,024883
0,429167	0,1	-0,036643
0,430833	0,1	0,033835
0,432500	0,1	-0,010091
0,434167	0,1	0,012345
0,435833	0,1	0,011129
0,437500	0,1	-0,014777
0,439167	0,1	0,012986
0,440833	0,1	0,033392
0,442500	0,1	0,025321
0,444167	0,1	0,023081
0,445833	0,1	0,003303
0,447500	0,1	0,000731
0,449167	0,1	0,021708
0,450833	0,1	0,001419
0,452500	0,1	0,019722
0,454167	0,1	0,038779
0,455833	0,1	0,035283
0,457500	0,1	-0,006137
0,459167	0,1	0,023074
0,460833	0,1	0,012831
0,462500	0,1	0,010425
0,464167	0,1	0,032645
0,465833	0,1	0,051974
0,467500	0,1	0,030418
0,469167	0,1	0,043276
0,470833	0,1	-0,006384
0,472500	0,1	0,048175
0,474167	0,1	0,048479
0,475833	0,1	0,027724
0,477500	0,1	0,009662
0,479167	0,1	0,013738
0,480833	0,1	0,060066
0,482500	0,1	0,069458
0,484167	0,1	0,046784
0,485833	0,1	0,007534
0,487500	0,1	0,010279
0,489167	0,1	0,015953
0,490833	0,1	0,028755
0,492500	0,1	0,036294
0,494167	0,1	0,014200
0,495833	0,1	-0,004651
0,497500	0,1	0,031589
0,499167	0,1	0,043690
0,500833	0,1	-0,013216
0,502500	0,1	0,000438
0,504167	0,1	0,057950
0,505833	0,1	0,047135
0,507500	0,1	0,054671
0,509167	0,1	0,020107
0,510833	0,1	0,026313
0,512500	0,1	0,043730
0,514167	0,1	0,025841
0,515833	0,1	0,064626
0,517500	0,1	0,074887
0,519167	0,1	0,042315
0,520833	0,1	0,070079
0,522500	0,1	0,030858
0,524167	0,1	0,039008
0,525833	0,1	0,049862
0,527500	0,1	0,070473
0,529167	0,1	0,010626
0,530833	0,1	0,064334
0,532500	0,1	0,037194
0,534167	0,1	0,035761
0,535833	0,1	0,055060
0,537500	0,1	0,069356
0,539167	0,1	0,038212
0,540833	0,1	0,063408
0,542500	0,1	0,064635
0,544167	0,1	0,065694
0,545833	0,1	0,039329
0,547500	0,1	0,062307
0,549167	0,1	0,029801
0,550833	0,1	0,053032
0,552500	0,1	0,054235
0,554167	0,1	0,045600
0,555833	0,1	0,057922
0,557500	0,1	0,045952
0,559167	0,1	0,031162
0,560833	0,1	0,069310
0,562500	0,1	0,046683
0,564167	0,1	0,114050
0,565833	0,1	0,069104
0,567500	0,1	0,080212
0,569167	0,1	0,061242
0,570833	0,1	0,031665
0,572500	0,1	0,042492
0,574167	0,1	0,004074
0,575833	0,1	0,045383
0,577500	0,1	0,078961
0,579167	0,1	0,085273
0,580833	0,1	0,093434
0,582500	0,1	0,078229
0,584167	0,1	0,076697
0,585833	0,1	0,078225
0,587500	0,1	0,070583
0,589167	0,1	0,057182
0,590833	0,1	0,128431
0,592500	0,1	0,106841
0,594167	0,1	0,057090
0,595833	0,1	0,068715
0,597500	0,1	0,079679
0,599167	0,1	0,081583
0,600833	0,1	0,049418
0,602500	0,1	0,074225
0,604167	0,1	0,066439
0,605833	0,1	0,105793
0,607500	0,1	0,094989
0,609167	0,1	0,087516
0,610833	0,1	0,088736
0,612500	0,1	0,078916
0,614167	0,1	0,081483
0,615833	0,1	0,042709
0,617500	0,1	0,103760
0,619167	0,1	0,079475
0,620833	0,1	0,090613
0,622500	0,1	0,085730
0,624167	0,1	0,095758
0,625833	0,1	0,088917
0,627500	0,1	0,098117
0,629167	0,1	0,107210
0,630833	0,1	0,067197
0,632500	0,1	0,103162
0,634167	0,1	0,110562
0,635833	0,1	0,151271
0,637500	0,1	0,073028
0,639167	0,1	0,098151
0,640833	0,1	0,130995
0,642500	0,1	0,105745
0,644167	0,1	0,124136
0,645833	0,1	0,147861
0,647500	0,1	0,131749
0,649167	0,1	0,129279
0,650833	0,1	0,141063
0,652500	0,1	0,134582
0,654167	0,1	0,144527
0,655833	0,1	0,097260
0,657500	0,1	0,160636
0,659167	0,1	0,109693
0,660833	0,1	0,120760
0,662500	0,1	0,126026
0,664167	0,1	0,115125
0,665833	0,1	0,127020
0,667500	0,1	0,153290
0,669167	0,1	0,142982
0,670833	0,1	0,142705
0,672500	0,1	0,146720
0,674167	0,1	0,163217
0,675833	0,1	0,146070
0,677500	0,1	0,150537
0,679167	0,1	0,154845
0,680833	0,1	0,132581
0,682500	0,1	0,157082
0,684167	0,1	0,163006
0,685833	0,1	0,144659
0,687500	0,1	0,198251
0,689167	0,1	0,146657
0,690833	0,1	0,145916
0,692500	0,1	0,189107
0,694167	0,1	0,207416
0,695833	0,1	0,188644
0,697500	0,1	0,209216
0,699167	0,1	0,174540
0,700833	0,1	0,204755
0,702500	0,1	0,180093
0,704167	0,1	0,201609
0,705833	0,1	0,202119
0,707500	0,1	0,167537
0,709167	0,1	0,218846
0,710833	0,1	0,218254
0,712500	0,1	0,185751
0,714167	0,1	0,221194
0,715833	0,1	0,227461
0,717500	0,1	0,190336
0,719167	0,1	0,232276
0,720833	0,1	0,196445
0,722500	0,1	0,237761
0,724167	0,1	0,258877
0,725833	0,1	0,232394
0,727500	0,1	0,268773
0,729167	0,1	0,247322
0,730833	0,1	0,247544
0,732500	0,1	0,268967
0,734167	0,1	0,242157
0,735833	0,1	0,259358
0,737500	0,1	0,260293
0,739167	0,1	0,264700
0,740833	0,1	0,277676
0,742500	0,1	0,315615
0,744167	0,1	0,277588
0,745833	0,1	0,320014
0,747500	0,1	0,321407
0,749167	0,1	0,278974
0,750833	0,1	0,319181
0,752500	0,1	0,310352
0,754167	0,1	0,286617
0,755833	0,1	0,303758
0,757500	0,1	0,298821
0,759167	0,1	0,258151
0,760833	0,1	0,295046
0,762500	0,1	0,308552
0,764167	0,1	0,321116
0,765833	0,1	0,315916
0,767500	0,1	0,307336
0,769167	0,1	0,349898
0,770833	0,1	0,314313
0,772500	0,1	0,283731
0,774167	0,1	0,336238
0,775833	0,1	0,286396
0,777500	0,1	0,325289
0,779167	0,1	0,317074
0,780833	0,1	0,308206
0,782500	0,1	0,277459
0,784167	0,1	0,311118
0,785833	0,1	0,298532
0,787500	0,1	0,306528
0,789167	0,1	0,252985
0,790833	0,1	0,302118
0,792500	0,1	0,311957
0,794167	0,1	0,301329
0,795833	0,1	0,301778
0,797500	0,1	0,316517
0,799167	0,1	0,318709
0,800833	0,1	0,310803
0,802500	0,1	0,296026
0,804167	0,1	0,324134
0,805833	0,1	0,260536
0,807500	0,1	0,276969
0,809167	0,1	0,294769
0,810833	0,1	0,284593
0,812500	0,1	0,320080
0,814167	0,1	0,294645
0,815833	0,1	0,286740
0,817500	0,1	0,285905
0,819167	0,1	0,275754
0,820833	0,1	0,263446
0,822500	0,1	0,307133
0,824167	0,1	0,273062
0,825833	0,1	0,304595
0,827500	0,1	0,318933
0,829167	0,1	0,290092
0,830833	0,1	0,334088
0,832500	0,1	0,307885
0,834167	0,1	0,285619
0,835833	0,1	0,264001
0,837500	0,1	0,300193
0,839167	0,1	0,314689
0,840833	0,1	0,280617
0,842500	0,1	0,292354
0,844167	0,1	0,275401
0,845833	0,1	0,280084
0,847500	0,1	0,299330
0,849167	0,1	0,291182
0,850833	0,1	0,301585
0,852500	0,1	0,299369
0,854167	0,1	0,292142
0,855833	0,1	0,277645
0,857500	0,1	0,287539
0,859167	0,1	0,289342
0,860833	0,1	0,311763
0,862500	0,1	0,309362
0,864167	0,1	0,282344
0,865833	0,1	0,272866
0,867500	0,1	0,330877
0,869167	0,1	0,249716
0,870833	0,1	0,294382
0,872500	0,1	0,290142
0,874167	0,1	0,275564
0,875833	0,1	0,271516
0,877500	0,1	0,308315
0,879167	0,1	0,256831
0,880833	0,1	0,280595
0,882500	0,1	0,314748
0,884167	0,1	0,294969
0,885833	0,1	0,314016
0,887500	0,1	0,258443
0,889167	0,1	0,305170
0,890833	0,1	0,309585
0,892500	0,1	0,279323
0,894167	0,1	0,304985
0,895833	0,1	0,299752
0,897500	0,1	0,306783
0,899167	0,1	0,287681
0,900833	0,1	0,302220
0,902500	0,1	0,277140
0,904167	0,1	0,274430
0,905833	0,1	0,280924
0,907500	0,1	0,301773
0,909167	0,1	0,325420
0,910833	0,1	0,330438
0,912500	0,1	0,286494
0,914167	0,1	0,311120
0,915833	0,1	0,298016
0,917500	0,1	0,316065
0,919167	0,1	0,327957
0,920833	0,1	0,321409
0,922500	0,1	0,305637
0,924167	0,1	0,316236
0,925833	0,1	0,340582
0,927500	0,1	0,333585
0,929167	0,1	0,332813
0,930833	0,1	0,305928
0,932500	0,1	0,324582
0,934167	0,1	0,338366
0,935833	0,1	0,335644
0,937500	0,1	0,358997
0,939167	0,1	0,324722
0,940833	0,1	0,329859
0,942500	0,1	0,349325
0,944167	0,1	0,326293
0,945833	0,1	0,327254
0,947500	0,1	0,323145
0,949167	0,1	0,312125
0,950833	0,1	0,315201
0,952500	0,1	0,338660
0,954167	0,1	0,354084
0,955833	0,1	0,374421
0,957500	0,1	0,348148
0,959167	0,1	0,339147
0,960833	0,1	0,333138
0,962500	0,1	0,321213
0,964167	0,1	0,339941
0,965833	0,1	0,349328
0,967500	0,1	0,381455
0,969167	0,1	0,344453
0,970833	0,1	0,346851
0,972500	0,1	0,352090
0,974167	0,1	0,338309
0,975833	0,1	0,374065
0,977500	0,1	0,364014
0,979167	0,1	0,336963
0,980833	0,1	0,364487
0,982500	0,1	0,376382
0,984167	0,1	0,368096
0,985833	0,1	0,351257
0,987500	0,1	0,407765
0,989167	0,1	0,397625
0,990833	0,1	0,380082
0,992500	0,1	0,362055
0,994167	0,1	0,391866
0,995833	0,1	0,353096
0,997500	0,1	0,426885
0,999167	0,1	0,389791
1,000833	0,1	0,398298
1,002500	0,1	0,406910
1,004167	0,1	0,433162
1,005833	0,1	0,364187
1,007500	0,1	0,416185
1,009167	0,1	0,410863
1,010833	0,1	0,413690
1,012500	0,1	0,401032
1,014167	0,1	0,423103
1,015833	0,1	0,408809
1,017500	0,1	0,468827
1,019167	0,1	0,492363
1,020833	0,1	0,432314
1,022500	0,1	0,487697
1,024167	0,1	0,512388
1,025833	0,1	0,525795
1,027500	0,1	0,521874
1,029167	0,1	0,516831
1,030833	0,1	0,501534
1,032500	0,1	0,504711
1,034167	0,1	0,551697
1,035833	0,1	0,497045
1,037500	0,1	0,542857
1,039167	0,1	0,573561
1,040833	0,1	0,559653
1,042500	0,1	0,556723
1,044167	0,1	0,559454
1,045833	0,1	0,590084
1,047500	0,1	0,573956
1,049167	0,1	0,609438
1,050833	0,1	0,642104
1,052500	0,1	0,651690
1,054167	0,1	0,663490
1,055833	0,1	0,694420
1,057500	0,1	0,715683
1,059167	0,1	0,805433
1,060833	0,1	0,912122
1,062500	0,1	0,926718
1,064167	0,1	1,112773
1,065833	0,1	1,273576
1,067500	0,1	1,465032
1,069167	0,1	1,742070
1,070833	0,1	2,063088
1,072500	0,1	2,451367
1,074167	0,1	2,940572
1,075833	0,1	3,566619
1,077500	0,1	4,273530
1,079167	0,1	5,177139
1,080833	0,1	6,090208
1,082500	0,1	7,188600
1,084167	0,1	8,444060
1,085833	0,1	9,836580
1,087500	0,1	11,340172
1,089167	0,1	12,939114
1,090833	0,1	14,692172
1,092500	0,1	16,480998
1,094167	0,1	18,344795
1,095833	0,1	20,248641
1,097500	0,1	22,094528
1,099167	0,1	23,988408
1,100833	0,1	25,758201
1,102500	0,1	27,470855
1,104167	0,1	29,127400
1,105833	0,1	30,572067
1,107500	0,1	31,898163
1,109167	0,1	33,107633
1,110833	0,1	34,172994
1,112500	0,1	34,946647
1,114167	0,1	35,707531
1,115833	0,1	36,186081
1,117500	0,1	36,595960
1,119167	0,1	36,796531
1,120833	0,1	36,945679
1,122500	0,1	36,975539
1,124167	0,1	36,897495
1,125833	0,1	36,701830
1,127500	0,1	36,415222
1,129167	0,1	36,180417
1,130833	0,1	35,842356
1,132500	0,1	35,506372
1,134167	0,1	35,122063
1,135833	0,1	34,800763
1,137500	0,1	34,482548
1,139167	0,1	34,203848
1,140833	0,1	34,003630
1,142500	0,1	33,743896
1,144167	0,1	33,605131
1,145833	0,1	33,524020
1,147500	0,1	33,503803
1,149167	0,1	33,606223
1,150833	0,1	33,714878
1,152500	0,1	33,970648
1,154167	0,1	34,265087
1,155833	0,1	34,604743
1,157500	0,1	35,058758
1,159167	0,1	35,559566
1,160833	0,1	36,047904
1,162500	0,1	36,664139
1,164167	0,1	37,307397
1,165833	0,1	37,909319
1,167500	0,1	38,554431
1,169167	0,1	39,225331
1,170833	0,1	39,867536
1,172500	0,1	40,477723
1,174167	0,1	41,108816
1,175833	0,1	41,691128
1,177500	0,1	42,197194
1,179167	0,1	42,684289
1,180833	0,1	43,118645
1,182500	0,1	43,502613
1,184167	0,1	43,803990
1,185833	0,1	44,179724
1,187500	0,1	44,409624
1,189167	0,1	44,653162
1,190833	0,1	44,892191
1,192500	0,1	45,088829
1,194167	0,1	45,261254
1,195833	0,1	45,514959
1,197500	0,1	45,851031
1,199167	0,1	46,178785
1,200833	0,1	46,613048
1,202500	0,1	47,086672
1,204167	0,1	47,810319
1,205833	0,1	48,602490
1,207500	0,1	49,670831
1,209167	0,1	50,869828
1,210833	0,1	52,287583
1,212500	0,1	53,909253
1,214167	0,1	55,824111
1,215833	0,1	57,881689
1,217500	0,1	60,239357
1,219167	0,1	62,763341
1,220833	0,1	65,454943
1,222500	0,1	68,346771
1,224167	0,1	71,430734
1,225833	0,1	74,605304
1,227500	0,1	77,819406
1,229167	0,1	81,192504
1,230833	0,1	84,456108
1,232500	0,1	87,747479
1,234167	0,1	91,010876
1,235833	0,1	94,168628
1,237500	0,1	97,184106
1,239167	0,1	100,027051
1,240833	0,1	102,742737
1,242500	0,1	105,206012
1,244167	0,1	107,520511
1,245833	0,1	109,547043
1,247500	0,1	111,330212
1,249167	0,1	112,888763
1,250833	0,1	114,233720
1,252500	0,1	115,256096
1,254167	0,1	115,994791
1,255833	0,1	116,522521
1,257500	0,1	116,857660
1,259167	0,1	116,855669
1,260833	0,1	116,624972
1,262500	0,1	116,105437
1,264167	0,1	115,424592
1,265833	0,1	114,578763
1,267500	0,1	113,411532
1,269167	0,1	112,092765
1,270833	0,1	110,577326
1,272500	0,1	108,934329
1,274167	0,1	107,084662
1,275833	0,1	105,120979
1,277500	0,1	103,077560
1,279167	0,1	100,851538
1,280833	0,1	98,550323
1,282500	0,1	96,242267
1,284167	0,1	93,772199
1,285833	0,1	91,363729
1,287500	0,1	88,866440
1,289167	0,1	86,362180
1,290833	0,1	83,832044
1,292500	0,1	81,380823
1,294167	0,1	78,908382
1,295833	0,1	76,478857
1,297500	0,1	74,068510
1,299167	0,1	71,715039
1,300833	0,1	69,480484
1,302500	0,1	67,234906
1,304167	0,1	65,055750
1,305833	0,1	62,958510
1,307500	0,1	60,971769
1,309167	0,1	59,015289
1,310833	0,1	57,120831
1,312500	0,1	55,307980
1,314167	0,1	53,575426
1,315833	0,1	51,944635
1,317500	0,1	50,368941
1,319167	0,1	48,826670
1,320833	0,1	47,408939
1,322500	0,1	45,974654
1,324167	0,1	44,698382
1,325833	0,1	43,377941
1,327500	0,1	42,163900
1,329167	0,1	40,997629
1,330833	0,1	39,834606
1,332500	0,1	38,775963
1,334167	0,1	37,735766
1,335833	0,1	36,784011
1,337500	0,1	35,778796
1,339167	0,1	34,867486
1,340833	0,1	34,006310
1,342500	0,1	33,138097
1,344167	0,1	32,307437
1,345833	0,1	31,486137
1,347500	0,1	30,739550
1,349167	0,1	29,952641
1,350833	0,1	29,222594
1,352500	0,1	28,539685
1,354167	0,1	27,872966
1,355833	0,1	27,189813
1,357500	0,1	26,534722
1,359167	0,1	25,909463
1,360833	0,1	25,270379
1,362500	0,1	24,727232
1,364167	0,1	24,138219
1,365833	0,1	23,612616
1,367500	0,1	23,017087
1,369167	0,1	22,452706
1,370833	0,1	21,931230
1,372500	0,1	21,424441
1,374167	0,1	20,957376
1,375833	0,1	20,444990
1,377500	0,1	19,978078
1,379167	0,1	19,498008
1,380833	0,1	19,084890
1,382500	0,1	18,639824
1,384167	0,1	18,199382
1,385833	0,1	17,783800
1,387500	0,1	17,399426
1,389167	0,1	17,004031
1,390833	0,1	16,624775
1,392500	0,1	16,284782
1,394167	0,1	15,878611
1,395833	0,1	15,526140
1,397500	0,1	15,231525
1,399167	0,1	14,885859
1,400833	0,1	14,611110
1,402500	0,1	14,327020
1,404167	0,1	14,019783
1,405833	0,1	13,702994
1,407500	0,1	13,510227
1,409167	0,1	13,200019
1,410833	0,1	12,930544
1,412500	0,1	12,736950
1,414167	0,1	12,486666
1,415833	0,1	12,245093
1,417500	0,1	12,027684
1,419167	0,1	11,817296
1,420833	0,1	11,586032
1,422500	0,1	11,422379
1,424167	0,1	11,257678
1,425833	0,1	11,033341
1,427500	0,1	10,857337
1,429167	0,1	10,685700
1,430833	0,1	10,491602
1,432500	0,1	10,381367
1,434167	0,1	10,184114
1,435833	0,1	10,031417
1,437500	0,1	9,928416
1,439167	0,1	9,746705
1,440833	0,1	9,585183
1,442500	0,1	9,467341
1,444167	0,1	9,327581
1,445833	0,1	9,211604
1,447500	0,1	9,066030
1,449167	0,1	8,970886
1,450833	0,1	8,843085
1,452500	0,1	8,697481
1,454167	0,1	8,554031
1,455833	0,1	8,430797
1,457500	0,1	8,384974
1,459167	0,1	8,229814
1,460833	0,1	8,138116
1,462500	0,1	8,049160
1,464167	0,1	7,930801
1,465833	0,1	7,845409
1,467500	0,1	7,750131
1,469167	0,1	7,659580
1,470833	0,1	7,582260
1,472500	0,1	7,477714
1,474167	0,1	7,407827
1,475833	0,1	7,295893
1,477500	0,1	7,210994
1,479167	0,1	7,189624
1,480833	0,1	7,102816
1,482500	0,1	7,016760
1,484167	0,1	7,005464
1,485833	0,1	6,956533
1,487500	0,1	6,908251
1,489167	0,1	6,823544
1,490833	0,1	6,784119
1,492500	0,1	6,825103
1,494167	0,1	6,735595
1,495833	0,1	6,663947
1,497500	0,1	6,618489
1,499167	0,1	6,597522
1,500833	0,1	6,570989
1,502500	0,1	6,560829
1,504167	0,1	6,517913
1,505833	0,1	6,506355
1,507500	0,1	6,445844
1,509167	0,1	6,468088
1,510833	0,1	6,402075
1,512500	0,1	6,414460
1,514167	0,1	6,409533
1,515833	0,1	6,363647
1,517500	0,1	6,400854
1,519167	0,1	6,351460
1,520833	0,1	6,366612
1,522500	0,1	6,285763
1,524167	0,1	6,259302
1,525833	0,1	6,290107
1,527500	0,1	6,253782
1,529167	0,1	6,200168
1,530833	0,1	6,186354
1,532500	0,1	6,156040
1,534167	0,1	6,172839
1,535833	0,1	6,144180
1,537500	0,1	6,124778
1,539167	0,1	6,107427
1,540833	0,1	6,122715
1,542500	0,1	6,072947
1,544167	0,1	6,018802
1,545833	0,1	6,018994
1,547500	0,1	6,015015
1,549167	0,1	5,982160
1,550833	0,1	5,919394
1,552500	0,1	5,910933
1,554167	0,1	5,904586
1,555833	0,1	5,846654
1,557500	0,1	5,895137
1,559167	0,1	5,861072
1,560833	0,1	5,807991
1,562500	0,1	5,766429
1,564167	0,1	5,748854
1,565833	0,1	5,755286
1,567500	0,1	5,712862
1,569167	0,1	5,707880
1,570833	0,1	5,644838
1,572500	0,1	5,637551
1,574167	0,1	5,601462
1,575833	0,1	5,590090
1,577500	0,1	5,562064
1,579167	0,1	5,521680
1,580833	0,1	5,460708
1,582500	0,1	5,452352
1,584167	0,1	5,440971
1,585833	0,1	5,462316
1,587500	0,1	5,363904
1,589167	0,1	5,367960
1,590833	0,1	5,338728
1,592500	0,1	5,293585
1,594167	0,1	5,293244
1,595833	0,1	5,213834
1,597500	0,1	5,228040
1,599167	0,1	5,174153
1,600833	0,1	5,177637
1,602500	0,1	5,070632
1,604167	0,1	5,097519
1,605833	0,1	5,052116
1,607500	0,1	5,067890
1,609167	0,1	5,017575
1,610833	0,1	5,020442
1,612500	0,1	4,981678
1,614167	0,1	4,954762
1,615833	0,1	4,918899
1,617500	0,1	4,908618
1,619167	0,1	4,897126
1,620833	0,1	4,885269
1,622500	0,1	4,867424
1,624167	0,1	4,824742
1,625833	0,1	4,847033
1,627500	0,1	4,841803
1,629167	0,1	4,808373
1,630833	0,1	4,825222
1,632500	0,1	4,781692
1,634167	0,1	4,825664
1,635833	0,1	4,826407
1,637500	0,1	4,855673
1,639167	0,1	4,839083
1,640833	0,1	4,864535
1,642500	0,1	4,901889
1,644167	0,1	4,912257
1,645833	0,1	4,986563
1,647500	0,1	5,018797
1,649167	0,1	5,082508
1,650833	0,1	5,132173
1,652500	0,1	5,210144
1,654167	0,1	5,311334
1,655833	0,1	5,426400
1,657500	0,1	5,587861
1,659167	0,1	5,691919
1,660833	0,1	5,875948
1,662500	0,1	6,067755
1,664167	0,1	6,247245
1,665833	0,1	6,424189
1,667500	0,1	6,671892
1,669167	0,1	6,957478
1,670833	0,1	7,207469
1,672500	0,1	7,548001
1,674167	0,1	7,866320
1,675833	0,1	8,172438
1,677500	0,1	8,636334
1,679167	0,1	9,020594
1,680833	0,1	9,473311
1,682500	0,1	9,981091
1,684167	0,1	10,507656
1,685833	0,1	11,063776
1,687500	0,1	11,609630
1,689167	0,1	12,240100
1,690833	0,1	12,898657
1,692500	0,1	13,574175
1,694167	0,1	14,278168
1,695833	0,1	15,071063
1,697500	0,1	15,813595
1,699167	0,1	16,609167
1,700833	0,1	17,452285
1,702500	0,1	18,340984
1,704167	0,1	19,256819
1,705833	0,1	20,195681
1,707500	0,1	21,182090
1,709167	0,1	22,142505
1,710833	0,1	23,135296
1,712500	0,1	24,160831
1,714167	0,1	25,166442
1,715833	0,1	26,260581
1,717500	0,1	27,291581
1,719167	0,1	28,450566
1,720833	0,1	29,553966
1,722500	0,1	30,616212
1,724167	0,1	31,720234
1,725833	0,1	32,881705
1,727500	0,1	33,925308
1,729167	0,1	35,046068
1,730833	0,1	36,192906
1,732500	0,1	37,244801
1,734167	0,1	38,340793
1,735833	0,1	39,441849
1,737500	0,1	40,459504
1,739167	0,1	41,520512
1,740833	0,1	42,531285
1,742500	0,1	43,481714
1,744167	0,1	44,472478
1,745833	0,1	45,357299
1,747500	0,1	46,320359
1,749167	0,1	47,141215
1,750833	0,1	47,921000
1,752500	0,1	48,763299
1,754167	0,1	49,479722
1,755833	0,1	50,248861
1,757500	0,1	50,850356
1,759167	0,1	51,537753
1,760833	0,1	52,127980
1,762500	0,1	52,655376
1,764167	0,1	53,130445
1,765833	0,1	53,519092
1,767500	0,1	53,963412
1,769167	0,1	54,326986
1,770833	0,1	54,645807
1,772500	0,1	54,846314
1,774167	0,1	55,097980
1,775833	0,1	55,276511
1,777500	0,1	55,365470
1,779167	0,1	55,408720
1,780833	0,1	55,400871
1,782500	0,1	55,419667
1,784167	0,1	55,328675
1,785833	0,1	55,211277
1,787500	0,1	55,062596
1,789167	0,1	54,864796
1,790833	0,1	54,610089
1,792500	0,1	54,365359
1,794167	0,1	53,998267
1,795833	0,1	53,699796
1,797500	0,1	53,273637
1,799167	0,1	52,849294
1,800833	0,1	52,365966
1,802500	0,1	51,892792
1,804167	0,1	51,384293
1,805833	0,1	50,884248
1,807500	0,1	50,248364
1,809167	0,1	49,697645
1,810833	0,1	49,061257
1,812500	0,1	48,453542
1,814167	0,1	47,736334
1,815833	0,1	47,117162
1,817500	0,1	46,368759
1,819167	0,1	45,697807
1,820833	0,1	44,968359
1,822500	0,1	44,239218
1,824167	0,1	43,484128
1,825833	0,1	42,748719
1,827500	0,1	42,030225
1,829167	0,1	41,254052
1,830833	0,1	40,480534
1,832500	0,1	39,740150
1,834167	0,1	38,939047
1,835833	0,1	38,218312
1,837500	0,1	37,406418
1,839167	0,1	36,685422
1,840833	0,1	35,972633
1,842500	0,1	35,248007
1,844167	0,1	34,516176
1,845833	0,1	33,807523
1,847500	0,1	33,100354
1,849167	0,1	32,457967
1,850833	0,1	31,768571
1,852500	0,1	31,069665
1,854167	0,1	30,435974
1,855833	0,1	29,756903
1,857500	0,1	29,172719
1,859167	0,1	28,546002
1,860833	0,1	27,976686
1,862500	0,1	27,332640
1,864167	0,1	26,849484
1,865833	0,1	26,206523
1,867500	0,1	25,667356
1,869167	0,1	25,093746
1,870833	0,1	24,604204
1,872500	0,1	24,101037
1,874167	0,1	23,585155
1,875833	0,1	23,089013
1,877500	0,1	22,532830
1,879167	0,1	22,095732
1,880833	0,1	21,641609
1,882500	0,1	21,156585
1,884167	0,1	20,741370
1,885833	0,1	20,288813
1,887500	0,1	19,849111
1,889167	0,1	19,433033
1,890833	0,1	19,059831
1,892500	0,1	18,651344
1,894167	0,1	18,246392
1,895833	0,1	17,894085
1,897500	0,1	17,536118
1,899167	0,1	17,154794
1,900833	0,1	16,812933
1,902500	0,1	16,484415
1,904167	0,1	16,144021
1,905833	0,1	15,842752
1,907500	0,1	15,529722
1,909167	0,1	15,167451
1,910833	0,1	14,928253
1,912500	0,1	14,675677
1,914167	0,1	14,392822
1,915833	0,1	14,073740
1,917500	0,1	13,810313
1,919167	0,1	13,563719
1,920833	0,1	13,323310
1,922500	0,1	13,053360
1,924167	0,1	12,820944
1,925833	0,1	12,606185
1,927500	0,1	12,353775
1,929167	0,1	12,136389
1,930833	0,1	11,921619
1,932500	0,1	11,667520
1,934167	0,1	11,525634
1,935833	0,1	11,264214
1,937500	0,1	11,097754
1,939167	0,1	10,898983
1,940833	0,1	10,750628
1,942500	0,1	10,522368
1,944167	0,1	10,358684
1,945833	0,1	10,195850
1,947500	0,1	10,033498
1,949167	0,1	9,852723
1,950833	0,1	9,693365
1,952500	0,1	9,532250
1,954167	0,1	9,403719
1,955833	0,1	9,284759
1,957500	0,1	9,157346
1,959167	0,1	9,014480
1,960833	0,1	8,875418
1,962500	0,1	8,782106
1,964167	0,1	8,613007
1,965833	0,1	8,543085
1,967500	0,1	8,448322
1,969167	0,1	8,324014
1,970833	0,1	8,243242
1,972500	0,1	8,135976
1,974167	0,1	8,055128
1,975833	0,1	7,959803
1,977500	0,1	7,869547
1,979167	0,1	7,779995
1,980833	0,1	7,714246
1,982500	0,1	7,616332
1,984167	0,1	7,596132
1,985833	0,1	7,501048
1,987500	0,1	7,427961
1,989167	0,1	7,391934
1,990833	0,1	7,335692
1,992500	0,1	7,296417
1,994167	0,1	7,187867
1,995833	0,1	7,225967
1,997500	0,1	7,130413
1,999167	0,1	7,084991
2,000833	0,1	7,069883
2,002500	0,1	7,021595
2,004167	0,1	6,999870
2,005833	0,1	6,999212
2,007500	0,1	6,935563
2,009167	0,1	6,922224
2,010833	0,1	6,940949
2,012500	0,1	6,906013
2,014167	0,1	6,880382
2,015833	0,1	6,876368
2,017500	0,1	6,882794
2,019167	0,1	6,859133
2,020833	0,1	6,880466
2,022500	0,1	6,843015
2,024167	0,1	6,813564
2,025833	0,1	6,836941
2,027500	0,1	6,833686
2,029167	0,1	6,822691
2,030833	0,1	6,862939
2,032500	0,1	6,843573
2,034167	0,1	6,868440
2,035833	0,1	6,867608
2,037500	0,1	6,888291
2,039167	0,1	6,872645
2,040833	0,1	6,933577
2,042500	0,1	6,922595
2,044167	0,1	6,914486
2,045833	0,1	6,950733
2,047500	0,1	6,958756
2,049167	0,1	6,975534
2,050833	0,1	7,027912
2,052500	0,1	7,032863
2,054167	0,1	7,012362
2,055833	0,1	7,050759
2,057500	0,1	7,085722
2,059167	0,1	7,110343
2,060833	0,1	7,090496
2,062500	0,1	7,101858
2,064167	0,1	7,164594
2,065833	0,1	7,185220
2,067500	0,1	7,200053
2,069167	0,1	7,224106
2,070833	0,1	7,255440
2,072500	0,1	7,217229
2,074167	0,1	7,259269
2,075833	0,1	7,312898
2,077500	0,1	7,300040
2,079167	0,1	7,343873
2,080833	0,1	7,346227
2,082500	0,1	7,378583
2,084167	0,1	7,385678
2,085833	0,1	7,358460
2,087500	0,1	7,387162
2,089167	0,1	7,403316
2,090833	0,1	7,426923
2,092500	0,1	7,385581
2,094167	0,1	7,420655
2,095833	0,1	7,465649
2,097500	0,1	7,454726
2,099167	0,1	7,476473
2,100833	0,1	7,494009
2,102500	0,1	7,491497
2,104167	0,1	7,479556
2,105833	0,1	7,518655
2,107500	0,1	7,487983
2,109167	0,1	7,516027
2,110833	0,1	7,479578
2,112500	0,1	7,516511
2,114167	0,1	7,510816
2,115833	0,1	7,534434
2,117500	0,1	7,526602
2,119167	0,1	7,498679
2,120833	0,1	7,527332
2,122500	0,1	7,524918
2,124167	0,1	7,513718
2,125833	0,1	7,559430
2,127500	0,1	7,505532
2,129167	0,1	7,488808
2,130833	0,1	7,540673
2,132500	0,1	7,525748
2,134167	0,1	7,493088
2,135833	0,1	7,458858
2,137500	0,1	7,443558
2,139167	0,1	7,457706
2,140833	0,1	7,429167
2,142500	0,1	7,432154
2,144167	0,1	7,447446
2,145833	0,1	7,411533
2,147500	0,1	7,387005
2,149167	0,1	7,381102
2,150833	0,1	7,376067
2,152500	0,1	7,356668
2,154167	0,1	7,319639
2,155833	0,1	7,318894
2,157500	0,1	7,338084
2,159167	0,1	7,287930
2,160833	0,1	7,251179
2,162500	0,1	7,249675
2,164167	0,1	7,239884
2,165833	0,1	7,228312
2,167500	0,1	7,248907
2,169167	0,1	7,214522
2,170833	0,1	7,165094
2,172500	0,1	7,164797
2,174167	0,1	7,149606
2,175833	0,1	7,120612
2,177500	0,1	7,102883
2,179167	0,1	7,109127
2,180833	0,1	7,044723
2,182500	0,1	7,074812
2,184167	0,1	7,041546
2,185833	0,1	7,012177
2,187500	0,1	6,977128
2,189167	0,1	6,975910
2,190833	0,1	6,918041
2,192500	0,1	6,983162
2,194167	0,1	6,910588
2,195833	0,1	6,857926
2,197500	0,1	6,862293
2,199167	0,1	6,834162
2,200833	0,1	6,818408
2,202500	0,1	6,758968
2,204167	0,1	6,775635
2,205833	0,1	6,791936
2,207500	0,1	6,766422
2,209167	0,1	6,717426
2,210833	0,1	6,763893
2,212500	0,1	6,679707
2,214167	0,1	6,612260
2,215833	0,1	6,702020
2,217500	0,1	6,629304
2,219167	0,1	6,595763
2,220833	0,1	6,606750
2,222500	0,1	6,573975
2,224167	0,1	6,552924
2,225833	0,1	6,590343
2,227500	0,1	6,534784
2,229167	0,1	6,531414
2,230833	0,1	6,499195
2,232500	0,1	6,539877
2,234167	0,1	6,436548
2,235833	0,1	6,459046
2,237500	0,1	6,493230
2,239167	0,1	6,467252
2,240833	0,1	6,438779
2,242500	0,1	6,456267
2,244167	0,1	6,416807
2,245833	0,1	6,405343
2,247500	0,1	6,390191
2,249167	0,1	6,376581
2,250833	0,1	6,365684
2,252500	0,1	6,376568
2,254167	0,1	6,361316
2,255833	0,1	6,338792
2,257500	0,1	6,330879
2,259167	0,1	6,316329
2,260833	0,1	6,307616
2,262500	0,1	6,319889
2,264167	0,1	6,297177
2,265833	0,1	6,267801
2,267500	0,1	6,262112
2,269167	0,1	6,239017
2,270833	0,1	6,236977
2,272500	0,1	6,233822
2,274167	0,1	6,219315
2,275833	0,1	6,187302
2,277500	0,1	6,218641
2,279167	0,1	6,157709
2,280833	0,1	6,163567
2,282500	0,1	6,101882
2,284167	0,1	6,169514
2,285833	0,1	6,146551
2,287500	0,1	6,135554
2,289167	0,1	6,114462
2,290833	0,1	6,115784
2,292500	0,1	6,042912
2,294167	0,1	6,020302
2,295833	0,1	6,035372
2,297500	0,1	6,026097
2,299167	0,1	6,004664
2,300833	0,1	6,003741
2,302500	0,1	5,978090
2,304167	0,1	5,956488
2,305833	0,1	5,946734
2,307500	0,1	5,927491
2,309167	0,1	5,940590
2,310833	0,1	5,894004
2,312500	0,1	5,856108
2,314167	0,1	5,858492
2,315833	0,1	5,856644
2,317500	0,1	5,841348
2,319167	0,1	5,818308
2,320833	0,1	5,801596
2,322500	0,1	5,823819
2,324167	0,1	5,799910
2,325833	0,1	5,740792
2,327500	0,1	5,738108
2,329167	0,1	5,699817
2,330833	0,1	5,731629
2,332500	0,1	5,662918
2,334167	0,1	5,689147
2,335833	0,1	5,686902
2,337500	0,1	5,645365
2,339167	0,1	5,625504
2,340833	0,1	5,645564
2,342500	0,1	5,626408
2,344167	0,1	5,602625
2,345833	0,1	5,616469
2,347500	0,1	5,608475
2,349167	0,1	5,554609
2,350833	0,1	5,544802
2,352500	0,1	5,521762
2,354167	0,1	5,542148
2,355833	0,1	5,524231
2,357500	0,1	5,541263
2,359167	0,1	5,524382
2,360833	0,1	5,503747
2,362500	0,1	5,512236
2,364167	0,1	5,502876
2,365833	0,1	5,479493
2,367500	0,1	5,497754
2,369167	0,1	5,451580
2,370833	0,1	5,495950
2,372500	0,1	5,482112
2,374167	0,1	5,482586
2,375833	0,1	5,502566
2,377500	0,1	5,526149
2,379167	0,1	5,472261
2,380833	0,1	5,500136
2,382500	0,1	5,528315
2,384167	0,1	5,573253
2,385833	0,1	5,578425
2,387500	0,1	5,619024
2,389167	0,1	5,679626
2,390833	0,1	5,674242
2,392500	0,1	5,726575
2,394167	0,1	5,782233
2,395833	0,1	5,856152
2,397500	0,1	5,881797
2,399167	0,1	5,985664
2,400833	0,1	6,030334
2,402500	0,1	6,119160
2,404167	0,1	6,242641
2,405833	0,1	6,352080
2,407500	0,1	6,407473
2,409167	0,1	6,588557
2,410833	0,1	6,666619
2,412500	0,1	6,802621
2,414167	0,1	6,960958
2,415833	0,1	7,164574
2,417500	0,1	7,278371
2,419167	0,1	7,516193
2,420833	0,1	7,686086
2,422500	0,1	7,843724
2,424167	0,1	8,062350
2,425833	0,1	8,236736
2,427500	0,1	8,548031
2,429167	0,1	8,700657
2,430833	0,1	8,977434
2,432500	0,1	9,205586
2,434167	0,1	9,420423
2,435833	0,1	9,707597
2,437500	0,1	9,951924
2,439167	0,1	10,235511
2,440833	0,1	10,495609
2,442500	0,1	10,746142
2,444167	0,1	10,986621
2,445833	0,1	11,282786
2,447500	0,1	11,539022
2,449167	0,1	11,866205
2,450833	0,1	12,087424
2,452500	0,1	12,412047
2,454167	0,1	12,695398
2,455833	0,1	12,939141
2,457500	0,1	13,212362
2,459167	0,1	13,513196
2,460833	0,1	13,716399
2,462500	0,1	14,045478
2,464167	0,1	14,263038
2,465833	0,1	14,560377
2,467500	0,1	14,833801
2,469167	0,1	15,097239
2,470833	0,1	15,393840
2,472500	0,1	15,671488
2,474167	0,1	15,936254
2,475833	0,1	16,203189
2,477500	0,1	16,595462
2,479167	0,1	16,873653
2,480833	0,1	17,211370
2,482500	0,1	17,569698
2,484167	0,1	17,942520
2,485833	0,1	18,328669
2,487500	0,1	18,755605
2,489167	0,1	19,179190
2,490833	0,1	19,706602
2,492500	0,1	20,214935
2,494167	0,1	20,779691
2,495833	0,1	21,377386
2,497500	0,1	22,066086
2,499167	0,1	22,699458
2,500833	0,1	23,467578
2,502500	0,1	24,274172
2,504167	0,1	25,174400
2,505833	0,1	26,108462
2,507500	0,1	27,104343
2,509167	0,1	28,131919
2,510833	0,1	29,263799
2,512500	0,1	30,454820
2,514167	0,1	31,719121
2,515833	0,1	33,055566
2,517500	0,1	34,484452
2,519167	0,1	35,952565
2,520833	0,1	37,529749
2,522500	0,1	39,176820
2,524167	0,1	40,903541
2,525833	0,1	42,655762
2,527500	0,1	44,576492
2,529167	0,1	46,515536
2,530833	0,1	48,523196
2,532500	0,1	50,623268
2,534167	0,1	52,777716
2,535833	0,1	54,941721
2,537500	0,1	57,212118
2,539167	0,1	59,473368
2,540833	0,1	61,802538
2,542500	0,1	64,194026
2,544167	0,1	66,646942
2,545833	0,1	69,064386
2,547500	0,1	71,581000
2,549167	0,1	73,988689
2,550833	0,1	76,442028
2,552500	0,1	78,944028
2,554167	0,1	81,448575
2,555833	0,1	83,884143
2,557500	0,1	86,354045
2,559167	0,1	88,795650
2,560833	0,1	91,206066
2,562500	0,1	93,568856
2,564167	0,1	95,815167
2,565833	0,1	98,090265
2,567500	0,1	100,369410
2,569167	0,1	102,524811
2,570833	0,1	104,610486
2,572500	0,1	106,668898
2,574167	0,1	108,587294
2,575833	0,1	110,435631
2,577500	0,1	112,286660
2,579167	0,1	113,935039
2,580833	0,1	115,646555
2,582500	0,1	117,145877
2,584167	0,1	118,637108
2,585833	0,1	120,071579
2,587500	0,1	121,308885
2,589167	0,1	122,467663
2,590833	0,1	123,569130
2,592500	0,1	124,615198
2,594167	0,1	125,501172
2,595833	0,1	126,332664
2,597500	0,1	127,086864
2,599167	0,1	127,746098
2,600833	0,1	128,335854
2,602500	0,1	128,788757
2,604167	0,1	129,195997
2,605833	0,1	129,494865
2,607500	0,1	129,743260
2,609167	0,1	129,918308
2,610833	0,1	130,036317
2,612500	0,1	130,020360
2,614167	0,1	129,998302
2,615833	0,1	129,820876
2,617500	0,1	129,587646
2,619167	0,1	129,349073
2,620833	0,1	129,017017
2,622500	0,1	128,600532
2,624167	0,1	128,117347
2,625833	0,1	127,658692
2,627500	0,1	127,053289
2,629167	0,1	126,389348
2,630833	0,1	125,687556
2,632500	0,1	124,960132
2,634167	0,1	124,132091
2,635833	0,1	123,349442
2,637500	0,1	122,468882
2,639167	0,1	121,522312
2,640833	0,1	120,590991
2,642500	0,1	119,537856
2,644167	0,1	118,462341
2,645833	0,1	117,420234
2,647500	0,1	116,262779
2,649167	0,1	115,121935
2,650833	0,1	113,949062
2,652500	0,1	112,732240
2,654167	0,1	111,480005
2,655833	0,1	110,163398
2,657500	0,1	108,872436
2,659167	0,1	107,539159
2,660833	0,1	106,232185
2,662500	0,1	104,859518
2,664167	0,1	103,477995
2,665833	0,1	102,042191
2,667500	0,1	100,683944
2,669167	0,1	99,220052
2,670833	0,1	97,822215
2,672500	0,1	96,417987
2,674167	0,1	95,001250
2,675833	0,1	93,534714
2,677500	0,1	92,061160
2,679167	0,1	90,573477
2,680833	0,1	89,109146
2,682500	0,1	87,657758
2,684167	0,1	86,244912
2,685833	0,1	84,779107
2,687500	0,1	83,331438
2,689167	0,1	81,865661
2,690833	0,1	80,479392
2,692500	0,1	79,029661
2,694167	0,1	77,590754
2,695833	0,1	76,196115
2,697500	0,1	74,842228
2,699167	0,1	73,474530
2,700833	0,1	72,085571
2,702500	0,1	70,741950
2,704167	0,1	69,439354
2,705833	0,1	68,089515
2,707500	0,1	66,798746
2,709167	0,1	65,560414
2,710833	0,1	64,292833
2,712500	0,1	62,999682
2,714167	0,1	61,793985
2,715833	0,1	60,568983
2,717500	0,1	59,445802
2,719167	0,1	58,270810
2,720833	0,1	57,114731
2,722500	0,1	56,004122
2,724167	0,1	54,879998
2,725833	0,1	53,824764
2,727500	0,1	52,732611
2,729167	0,1	51,719405
2,730833	0,1	50,685506
2,732500	0,1	49,672687
2,734167	0,1	48,729869
2,735833	0,1	47,707023
2,737500	0,1	46,810651
2,739167	0,1	45,922170
2,740833	0,1	45,056758
2,742500	0,1	44,182018
2,744167	0,1	43,268198
2,745833	0,1	42,436090
2,747500	0,1	41,678379
2,749167	0,1	40,825224
2,750833	0,1	40,075418
2,752500	0,1	39,334024
2,754167	0,1	38,589569
2,755833	0,1	37,828151
2,757500	0,1	37,172907
2,759167	0,1	36,437241
2,760833	0,1	35,796170
2,762500	0,1	35,131757
2,764167	0,1	34,448196
2,765833	0,1	33,819481
2,767500	0,1	33,271865
2,769167	0,1	32,594122
2,770833	0,1	31,995721
2,772500	0,1	31,456768
2,774167	0,1	30,863462
2,775833	0,1	30,298150
2,777500	0,1	29,763392
2,779167	0,1	29,243003
2,780833	0,1	28,707705
2,782500	0,1	28,212256
2,784167	0,1	27,684920
2,785833	0,1	27,254511
2,787500	0,1	26,727535
2,789167	0,1	26,296033
2,790833	0,1	25,836989
2,792500	0,1	25,382909
2,794167	0,1	24,960970
2,795833	0,1	24,527393
2,797500	0,1	24,084887
2,799167	0,1	23,685814
2,800833	0,1	23,261875
2,802500	0,1	22,841900
2,804167	0,1	22,486667
2,805833	0,1	22,145615
2,807500	0,1	21,733655
2,809167	0,1	21,398338
2,810833	0,1	21,005977
2,812500	0,1	20,621548
2,814167	0,1	20,310049
2,815833	0,1	19,935685
2,817500	0,1	19,595616
2,819167	0,1	19,271021
2,820833	0,1	18,987693
2,822500	0,1	18,668343
2,824167	0,1	18,337492
2,825833	0,1	18,052915
2,827500	0,1	17,769466
2,829167	0,1	17,408355
2,830833	0,1	17,191649
2,832500	0,1	16,880055
2,834167	0,1	16,626068
2,835833	0,1	16,338091
2,837500	0,1	16,078268
2,839167	0,1	15,824089
2,840833	0,1	15,624343
2,842500	0,1	15,326155
2,844167	0,1	15,068642
2,845833	0,1	14,849854
2,847500	0,1	14,573004
2,849167	0,1	14,386714
2,850833	0,1	14,161114
2,852500	0,1	13,991988
2,854167	0,1	13,685353
2,855833	0,1	13,496212
2,857500	0,1	13,291672
2,859167	0,1	13,133946
2,860833	0,1	12,914174
2,862500	0,1	12,734557
2,864167	0,1	12,493342
2,865833	0,1	12,336565
2,867500	0,1	12,132931
2,869167	0,1	11,983674
2,870833	0,1	11,809695
2,872500	0,1	11,665961
2,874167	0,1	11,482627
2,875833	0,1	11,351891
2,877500	0,1	11,179817
2,879167	0,1	11,034728
2,880833	0,1	10,885958
2,882500	0,1	10,771346
2,884167	0,1	10,611389
2,885833	0,1	10,440845
2,887500	0,1	10,299329
2,889167	0,1	10,217375
2,890833	0,1	10,028992
2,892500	0,1	9,934573
2,894167	0,1	9,818652
2,895833	0,1	9,694966
2,897500	0,1	9,519573
2,899167	0,1	9,416666
2,900833	0,1	9,304197
2,902500	0,1	9,193206
2,904167	0,1	9,098321
2,905833	0,1	9,047443
2,907500	0,1	8,877713
2,909167	0,1	8,788704
2,910833	0,1	8,692272
2,912500	0,1	8,568285
2,914167	0,1	8,513234
2,915833	0,1	8,427093
2,917500	0,1	8,344269
2,919167	0,1	8,230877
2,920833	0,1	8,133080
2,922500	0,1	8,074876
2,924167	0,1	7,972183
2,925833	0,1	7,893083
2,927500	0,1	7,793725
2,929167	0,1	7,772231
2,930833	0,1	7,655052
2,932500	0,1	7,572902
2,934167	0,1	7,527524
2,935833	0,1	7,442706
2,937500	0,1	7,340179
2,939167	0,1	7,292033
2,940833	0,1	7,239613
2,942500	0,1	7,166491
2,944167	0,1	7,069245
2,945833	0,1	6,994289
2,947500	0,1	6,957742
2,949167	0,1	6,896419
2,950833	0,1	6,852429
2,952500	0,1	6,800991
2,954167	0,1	6,732705
2,955833	0,1	6,687244
2,957500	0,1	6,565419
2,959167	0,1	6,526112
2,960833	0,1	6,484306
2,962500	0,1	6,415420
2,964167	0,1	6,370932
2,965833	0,1	6,337220
2,967500	0,1	6,270226
2,969167	0,1	6,203763
2,970833	0,1	6,176331
2,972500	0,1	6,114344
2,974167	0,1	6,086080
2,975833	0,1	6,036039
2,977500	0,1	5,972713
2,979167	0,1	5,913637
2,980833	0,1	5,867719
2,982500	0,1	5,815426
2,984167	0,1	5,722390
2,985833	0,1	5,743958
2,987500	0,1	5,693527
2,989167	0,1	5,672595
2,990833	0,1	5,649390
2,992500	0,1	5,547402
2,994167	0,1	5,502624
2,995833	0,1	5,469308
2,997500	0,1	5,426311
2,999167	0,1	5,425778
3,000833	0,1	5,355196
3,002500	0,1	5,306219
3,004167	0,1	5,246084
3,005833	0,1	5,267033
3,007500	0,1	5,152437
3,009167	0,1	5,158341
3,010833	0,1	5,135661
3,012500	0,1	5,028124
3,014167	0,1	5,060174
3,015833	0,1	4,997865
3,017500	0,1	4,986785
3,019167	0,1	4,940004
3,020833	0,1	4,904962
3,022500	0,1	4,861283
3,024167	0,1	4,818178
3,025833	0,1	4,783599
3,027500	0,1	4,774554
3,029167	0,1	4,697888
3,030833	0,1	4,667173
3,032500	0,1	4,639711
3,034167	0,1	4,624486
3,035833	0,1	4,541361
3,037500	0,1	4,561368
3,039167	0,1	4,505597
3,040833	0,1	4,479712
3,042500	0,1	4,471236
3,044167	0,1	4,458009
3,045833	0,1	4,393289
3,047500	0,1	4,383099
3,049167	0,1	4,299128
3,050833	0,1	4,306039
3,052500	0,1	4,253324
3,054167	0,1	4,231596
3,055833	0,1	4,220571
3,057500	0,1	4,169039
3,059167	0,1	4,149381
3,060833	0,1	4,132325
3,062500	0,1	4,088047
3,064167	0,1	4,040128
3,065833	0,1	4,026955
3,067500	0,1	4,009988
3,069167	0,1	3,959124
3,070833	0,1	3,962884
3,072500	0,1	3,942269
3,074167	0,1	3,855344
3,075833	0,1	3,851516
3,077500	0,1	3,869901
3,079167	0,1	3,830874
3,080833	0,1	3,811970
3,082500	0,1	3,793076
3,084167	0,1	3,796024
3,085833	0,1	3,815624
3,087500	0,1	3,761269
3,089167	0,1	3,711794
3,090833	0,1	3,721112
3,092500	0,1	3,680944
3,094167	0,1	3,649672
3,095833	0,1	3,638640
3,097500	0,1	3,635813
3,099167	0,1	3,607538
3,100833	0,1	3,579156
3,102500	0,1	3,593853
3,104167	0,1	3,553985
3,105833	0,1	3,521748
3,107500	0,1	3,556091
3,109167	0,1	3,498529
3,110833	0,1	3,506564
3,112500	0,1	3,496625
3,114167	0,1	3,485494
3,115833	0,1	3,467450
3,117500	0,1	3,439648
3,119167	0,1	3,457731
3,120833	0,1	3,491825
3,122500	0,1	3,455598
3,124167	0,1	3,491075
3,125833	0,1	3,467555
3,127500	0,1	3,497574
3,129167	0,1	3,432201
3,130833	0,1	3,447715
3,132500	0,1	3,425641
3,134167	0,1	3,426283
3,135833	0,1	3,441112
3,137500	0,1	3,468915
3,139167	0,1	3,460665
3,140833	0,1	3,445080
3,142500	0,1	3,417384
3,144167	0,1	3,441291
3,145833	0,1	3,420023
3,147500	0,1	3,445201
3,149167	0,1	3,470390
3,150833	0,1	3,432478
3,152500	0,1	3,460734
3,154167	0,1	3,463898
3,155833	0,1	3,472803
3,157500	0,1	3,483495
3,159167	0,1	3,477284
3,160833	0,1	3,476533
3,162500	0,1	3,455878
3,164167	0,1	3,443501
3,165833	0,1	3,451624
3,167500	0,1	3,477329
3,169167	0,1	3,469985
3,170833	0,1	3,452978
3,172500	0,1	3,440187
3,174167	0,1	3,468267
3,175833	0,1	3,466125
3,177500	0,1	3,478574
3,179167	0,1	3,449563
3,180833	0,1	3,494490
3,182500	0,1	3,476071
3,184167	0,1	3,440193
3,185833	0,1	3,456334
3,187500	0,1	3,444795
3,189167	0,1	3,461357
3,190833	0,1	3,368681
3,192500	0,1	3,425235
3,194167	0,1	3,412023
3,195833	0,1	3,402031
3,197500	0,1	3,387275
3,199167	0,1	3,366650
3,200833	0,1	3,387656
3,202500	0,1	3,350340
3,204167	0,1	3,371401
3,205833	0,1	3,305392
3,207500	0,1	3,328565
3,209167	0,1	3,302826
3,210833	0,1	3,314694
3,212500	0,1	3,319872
3,214167	0,1	3,258315
3,215833	0,1	3,243612
3,217500	0,1	3,235070
3,219167	0,1	3,239342
3,220833	0,1	3,227308
3,222500	0,1	3,198563
3,224167	0,1	3,212270
3,225833	0,1	3,198712
3,227500	0,1	3,175083
3,229167	0,1	3,133620
3,230833	0,1	3,119803
3,232500	0,1	3,085096
3,234167	0,1	3,084992
3,235833	0,1	3,067748
3,237500	0,1	3,053043
3,239167	0,1	3,056994
3,240833	0,1	2,990454
3,242500	0,1	3,032949
3,244167	0,1	2,951248
3,245833	0,1	2,969688
3,247500	0,1	2,974938
3,249167	0,1	2,919986
3,250833	0,1	2,875549
3,252500	0,1	2,891228
3,254167	0,1	2,894929
3,255833	0,1	2,831091
3,257500	0,1	2,843278
3,259167	0,1	2,815063
3,260833	0,1	2,838030
3,262500	0,1	2,721112
3,264167	0,1	2,772840
3,265833	0,1	2,741555
3,267500	0,1	2,711251
3,269167	0,1	2,668707
3,270833	0,1	2,653746
3,272500	0,1	2,653117
3,274167	0,1	2,618940
3,275833	0,1	2,612031
3,277500	0,1	2,604712
3,279167	0,1	2,606574
3,280833	0,1	2,595957
3,282500	0,1	2,535776
3,284167	0,1	2,555763
3,285833	0,1	2,520622
3,287500	0,1	2,497868
3,289167	0,1	2,453956
3,290833	0,1	2,435436
3,292500	0,1	2,455597
3,294167	0,1	2,451855
3,295833	0,1	2,418371
3,297500	0,1	2,411404
3,299167	0,1	2,349650
3,300833	0,1	2,327059
3,302500	0,1	2,345045
3,304167	0,1	2,285314
3,305833	0,1	2,244862
3,307500	0,1	2,291454
3,309167	0,1	2,275555
3,310833	0,1	2,246867
3,312500	0,1	2,250588
3,314167	0,1	2,226646
3,315833	0,1	2,181688
3,317500	0,1	2,204616
3,319167	0,1	2,144623
3,320833	0,1	2,117298
3,322500	0,1	2,127113
3,324167	0,1	2,118943
3,325833	0,1	2,124245
3,327500	0,1	2,102673
3,329167	0,1	2,100015
3,330833	0,1	2,085395
3,332500	0,1	2,053427
3,334167	0,1	2,009701
3,335833	0,1	2,034487
3,337500	0,1	2,042667
3,339167	0,1	1,968712
3,340833	0,1	2,004450
3,342500	0,1	1,982322
3,344167	0,1	1,977083
3,345833	0,1	1,962609
3,347500	0,1	1,981023
3,349167	0,1	1,969054
3,350833	0,1	1,948137
3,352500	0,1	1,923267
3,354167	0,1	1,977359
3,355833	0,1	1,962824
3,357500	0,1	1,932591
3,359167	0,1	1,887795
3,360833	0,1	1,881911
3,362500	0,1	1,888645
3,364167	0,1	1,894091
3,365833	0,1	1,891734
3,367500	0,1	1,859353
3,369167	0,1	1,877250
3,370833	0,1	1,900038
3,372500	0,1	1,881779
3,374167	0,1	1,841011
3,375833	0,1	1,867873
3,377500	0,1	1,874901
3,379167	0,1	1,856693
3,380833	0,1	1,858915
3,382500	0,1	1,844369
3,384167	0,1	1,882927
3,385833	0,1	1,866235
3,387500	0,1	1,848039
3,389167	0,1	1,837282
3,390833	0,1	1,809552
3,392500	0,1	1,841356
3,394167	0,1	1,788000
3,395833	0,1	1,829813
3,397500	0,1	1,801318
3,399167	0,1	1,804329
3,400833	0,1	1,840570
3,402500	0,1	1,824598
3,404167	0,1	1,801317
3,405833	0,1	1,807469
3,407500	0,1	1,787202
3,409167	0,1	1,793783
3,410833	0,1	1,807550
3,412500	0,1	1,793521
3,414167	0,1	1,775456
3,415833	0,1	1,781336
3,417500	0,1	1,763571
3,419167	0,1	1,801531
3,420833	0,1	1,757900
3,422500	0,1	1,753328
3,424167	0,1	1,751892
3,425833	0,1	1,764914
3,427500	0,1	1,745450
3,429167	0,1	1,760121
3,430833	0,1	1,775677
3,432500	0,1	1,739357
3,434167	0,1	1,779526
3,435833	0,1	1,713003
3,437500	0,1	1,752588
3,439167	0,1	1,730328
3,440833	0,1	1,737847
3,442500	0,1	1,762775
3,444167	0,1	1,745735
3,445833	0,1	1,784986
3,447500	0,1	1,738985
3,449167	0,1	1,712635
3,450833	0,1	1,765634
3,452500	0,1	1,727604
3,454167	0,1	1,777528
3,455833	0,1	1,736560
3,457500	0,1	1,775882
3,459167	0,1	1,710710
3,460833	0,1	1,741205
3,462500	0,1	1,727963
3,464167	0,1	1,739631
3,465833	0,1	1,720439
3,467500	0,1	1,745579
3,469167	0,1	1,745156
3,470833	0,1	1,717281
3,472500	0,1	1,761117
3,474167	0,1	1,755551
3,475833	0,1	1,711629
3,477500	0,1	1,756674
3,479167	0,1	1,741867
3,480833	0,1	1,744301
3,482500	0,1	1,725875
3,484167	0,1	1,758028
3,485833	0,1	1,767292
3,487500	0,1	1,781537
3,489167	0,1	1,794076
3,490833	0,1	1,746591
3,492500	0,1	1,788981
3,494167	0,1	1,789978
3,495833	0,1	1,751676
3,497500	0,1	1,794718
3,499167	0,1	1,772948
3,500833	0,1	1,783046
3,502500	0,1	1,780680
3,504167	0,1	1,769441
3,505833	0,1	1,785553
3,507500	0,1	1,776174
3,509167	0,1	1,774589
3,510833	0,1	1,801165
3,512500	0,1	1,803250
3,514167	0,1	1,813623
3,515833	0,1	1,781920
3,517500	0,1	1,818646
3,519167	0,1	1,813212
3,520833	0,1	1,801530
3,522500	0,1	1,820006
3,524167	0,1	1,786280
3,525833	0,1	1,766646
3,527500	0,1	1,837837
3,529167	0,1	1,839288
3,530833	0,1	1,781190
3,532500	0,1	1,820505
3,534167	0,1	1,818222
3,535833	0,1	1,825242
3,537500	0,1	1,830483
3,539167	0,1	1,841216
3,540833	0,1	1,887718
3,542500	0,1	1,816663
3,544167	0,1	1,816646
3,545833	0,1	1,846311
3,547500	0,1	1,819372
3,549167	0,1	1,852892
3,550833	0,1	1,821172
3,552500	0,1	1,806754
3,554167	0,1	1,842293
3,555833	0,1	1,816070
3,557500	0,1	1,837778
3,559167	0,1	1,808135
3,560833	0,1	1,819937
3,562500	0,1	1,822312
3,564167	0,1	1,838922
3,565833	0,1	1,805188
3,567500	0,1	1,836702
3,569167	0,1	1,812788
3,570833	0,1	1,815426
3,572500	0,1	1,796374
3,574167	0,1	1,773299
3,575833	0,1	1,769221
3,577500	0,1	1,807391
3,579167	0,1	1,814862
3,580833	0,1	1,783630
3,582500	0,1	1,804816
3,584167	0,1	1,767443
3,585833	0,1	1,808113
3,587500	0,1	1,769370
3,589167	0,1	1,771639
3,590833	0,1	1,767295
3,592500	0,1	1,749023
3,594167	0,1	1,753180
3,595833	0,1	1,785255
3,597500	0,1	1,765777
3,599167	0,1	1,811617
3,600833	0,1	1,756704
3,602500	0,1	1,763696
3,604167	0,1	1,733769
3,605833	0,1	1,713643
3,607500	0,1	1,754802
3,609167	0,1	1,725738
3,610833	0,1	1,710333
3,612500	0,1	1,715860
3,614167	0,1	1,723525
3,615833	0,1	1,716079
3,617500	0,1	1,688140
3,619167	0,1	1,711676
3,620833	0,1	1,697247
3,622500	0,1	1,712555
3,624167	0,1	1,664218
3,625833	0,1	1,674176
3,627500	0,1	1,670078
3,629167	0,1	1,652180
3,630833	0,1	1,677831
3,632500	0,1	1,669086
3,634167	0,1	1,648255
3,635833	0,1	1,656199
3,637500	0,1	1,619819
3,639167	0,1	1,645526
3,640833	0,1	1,631554
3,642500	0,1	1,629131
3,644167	0,1	1,581867
3,645833	0,1	1,590451
3,647500	0,1	1,576854
3,649167	0,1	1,617015
3,650833	0,1	1,608648
3,652500	0,1	1,612573
3,654167	0,1	1,569851
3,655833	0,1	1,583440
3,657500	0,1	1,564127
3,659167	0,1	1,555091
3,660833	0,1	1,566537
3,662500	0,1	1,525792
3,664167	0,1	1,569692
3,665833	0,1	1,534477
3,667500	0,1	1,502962
3,669167	0,1	1,528732
3,670833	0,1	1,524643
3,672500	0,1	1,523067
3,674167	0,1	1,553585
3,675833	0,1	1,510765
3,677500	0,1	1,486233
3,679167	0,1	1,524439
3,680833	0,1	1,503972
3,682500	0,1	1,493465
3,684167	0,1	1,478141
3,685833	0,1	1,473835
3,687500	0,1	1,474409
3,689167	0,1	1,490915
3,690833	0,1	1,480499
3,692500	0,1	1,449840
3,694167	0,1	1,433883
3,695833	0,1	1,462932
3,697500	0,1	1,425156
3,699167	0,1	1,423572
3,700833	0,1	1,414486
3,702500	0,1	1,437834
3,704167	0,1	1,435401
3,705833	0,1	1,461149
3,707500	0,1	1,436187
3,709167	0,1	1,458804
3,710833	0,1	1,383417
3,712500	0,1	1,439526
3,714167	0,1	1,416655
3,715833	0,1	1,425433
3,717500	0,1	1,372997
3,719167	0,1	1,373394
3,720833	0,1	1,407169
3,722500	0,1	1,384350
3,724167	0,1	1,375261
3,725833	0,1	1,396153
3,727500	0,1	1,391582
3,729167	0,1	1,385361
3,730833	0,1	1,377837
3,732500	0,1	1,371834
3,734167	0,1	1,390714
3,735833	0,1	1,396377
3,737500	0,1	1,336610
3,739167	0,1	1,381757
3,740833	0,1	1,365532
3,742500	0,1	1,332262
3,744167	0,1	1,361422
3,745833	0,1	1,390724
3,747500	0,1	1,378056
3,749167	0,1	1,399402
3,750833	0,1	1,331203
3,752500	0,1	1,370633
3,754167	0,1	1,358749
3,755833	0,1	1,346934
3,757500	0,1	1,348342
3,759167	0,1	1,332735
3,760833	0,1	1,368809
3,762500	0,1	1,362020
3,764167	0,1	1,368897
3,765833	0,1	1,371559
3,767500	0,1	1,360021
3,769167	0,1	1,340481
3,770833	0,1	1,363454
3,772500	0,1	1,339331
3,774167	0,1	1,349590
3,775833	0,1	1,317281
3,777500	0,1	1,335879
3,779167	0,1	1,309583
3,780833	0,1	1,316423
3,782500	0,1	1,340318
3,784167	0,1	1,333915
3,785833	0,1	1,310211
3,787500	0,1	1,332538
3,789167	0,1	1,334475
3,790833	0,1	1,299098
3,792500	0,1	1,346958
3,794167	0,1	1,320857
3,795833	0,1	1,334251
3,797500	0,1	1,319376
3,799167	0,1	1,323236
3,800833	0,1	1,320426
3,802500	0,1	1,321441
3,804167	0,1	1,340268
3,805833	0,1	1,377855
3,807500	0,1	1,290277
3,809167	0,1	1,364222
3,810833	0,1	1,291378
3,812500	0,1	1,289733
3,814167	0,1	1,287276
3,815833	0,1	1,315487
3,817500	0,1	1,324932
3,819167	0,1	1,320798
3,820833	0,1	1,330183
3,822500	0,1	1,314292
3,824167	0,1	1,301564
3,825833	0,1	1,316013
3,827500	0,1	1,319880
3,829167	0,1	1,286317
3,830833	0,1	1,307828
3,832500	0,1	1,299191
3,834167	0,1	1,295666
3,835833	0,1	1,299292
3,837500	0,1	1,277416
3,839167	0,1	1,241172
3,840833	0,1	1,283350
3,842500	0,1	1,258267
3,844167	0,1	1,241574
3,845833	0,1	1,265255
3,847500	0,1	1,281289
3,849167	0,1	1,258962
3,850833	0,1	1,234474
3,852500	0,1	1,270759
3,854167	0,1	1,227836
3,855833	0,1	1,231485
3,857500	0,1	1,230420
3,859167	0,1	1,224491
3,860833	0,1	1,228198
3,862500	0,1	1,238145
3,864167	0,1	1,211125
3,865833	0,1	1,230940
3,867500	0,1	1,205552
3,869167	0,1	1,191618
3,870833	0,1	1,187721
3,872500	0,1	1,215349
3,874167	0,1	1,202735
3,875833	0,1	1,178962
3,877500	0,1	1,178993
3,879167	0,1	1,205166
3,880833	0,1	1,162803
3,882500	0,1	1,191625
3,884167	0,1	1,165988
3,885833	0,1	1,163794
3,887500	0,1	1,124771
3,889167	0,1	1,154992
3,890833	0,1	1,167806
3,892500	0,1	1,147010
3,894167	0,1	1,148821
3,895833	0,1	1,147160
3,897500	0,1	1,110502
3,899167	0,1	1,136256
3,900833	0,1	1,125830
3,902500	0,1	1,118432
3,904167	0,1	1,162024
3,905833	0,1	1,112051
3,907500	0,1	1,112616
3,909167	0,1	1,122050
3,910833	0,1	1,129641
3,912500	0,1	1,120633
3,914167	0,1	1,098795
3,915833	0,1	1,100607
3,917500	0,1	1,105265
3,919167	0,1	1,094911
3,920833	0,1	1,105975
3,922500	0,1	1,059911
3,924167	0,1	1,065691
3,925833	0,1	1,103595
3,927500	0,1	1,074692
3,929167	0,1	1,073082
3,930833	0,1	1,067960
3,932500	0,1	1,067820
3,934167	0,1	1,051160
3,935833	0,1	1,062605
3,937500	0,1	1,067623
3,939167	0,1	1,057550
3,940833	0,1	0,997306
3,942500	0,1	1,004393
3,944167	0,1	1,007878
3,945833	0,1	0,984093
3,947500	0,1	1,031147
3,949167	0,1	1,011523
3,950833	0,1	1,055559
3,952500	0,1	1,002343
3,954167	0,1	0,971490
3,955833	0,1	0,978650
3,957500	0,1	1,008913
3,959167	0,1	1,008256
3,960833	0,1	1,007679
3,962500	0,1	1,013157
3,964167	0,1	0,994655
3,965833	0,1	1,009117
3,967500	0,1	1,026206
3,969167	0,1	0,983877
3,970833	0,1	1,024980
3,972500	0,1	1,025566
3,974167	0,1	0,982101
3,975833	0,1	0,962191
3,977500	0,1	0,968088
3,979167	0,1	0,989920
3,980833	0,1	0,954161
3,982500	0,1	0,967863
3,984167	0,1	0,968576
3,985833	0,1	0,976030
3,987500	0,1	0,973636
3,989167	0,1	0,943374
3,990833	0,1	0,975493
3,992500	0,1	0,949542
3,994167	0,1	0,959655
3,995833	0,1	0,924694
3,997500	0,1	0,938129
3,999167	0,1	0,946606
4,000833	0,1	0,958676
4,002500	0,1	0,966821
4,004167	0,1	0,935743
4,005833	0,1	0,926572
4,007500	0,1	0,941722
4,009167	0,1	0,947783
4,010833	0,1	0,955704
4,012500	0,1	0,941639
4,014167	0,1	0,944188
4,015833	0,1	0,944965
4,017500	0,1	0,945699
4,019167	0,1	0,949315
4,020833	0,1	0,961760
4,022500	0,1	0,927756
4,024167	0,1	0,930454
4,025833	0,1	0,969255
4,027500	0,1	0,927513
4,029167	0,1	0,915790
4,030833	0,1	0,948619
4,032500	0,1	0,909915
4,034167	0,1	0,957848
4,035833	0,1	0,964780
4,037500	0,1	0,929464
4,039167	0,1	0,905274
4,040833	0,1	0,939610
4,042500	0,1	0,968792
4,044167	0,1	0,962698
4,045833	0,1	0,956351
4,047500	0,1	0,975430
4,049167	0,1	0,937164
4,050833	0,1	0,917458
4,052500	0,1	0,966966
4,054167	0,1	0,992825
4,055833	0,1	0,991723
4,057500	0,1	0,966830
4,059167	0,1	0,997972
4,060833	0,1	0,973353
4,062500	0,1	0,967556
4,064167	0,1	1,004806
4,065833	0,1	0,964392
4,067500	0,1	0,997884
4,069167	0,1	1,051319
4,070833	0,1	0,958501
4,072500	0,1	1,047496
4,074167	0,1	0,996063
4,075833	0,1	1,030351
4,077500	0,1	1,002427
4,079167	0,1	1,039052
4,080833	0,1	1,045604
4,082500	0,1	1,040747
4,084167	0,1	1,022553
4,085833	0,1	1,037416
4,087500	0,1	1,044874
4,089167	0,1	1,048227
4,090833	0,1	1,096337
4,092500	0,1	1,080810
4,094167	0,1	1,072641
4,095833	0,1	1,084271
4,097500	0,1	1,087599
4,099167	0,1	1,093525
4,100833	0,1	1,105666
4,102500	0,1	1,116235
4,104167	0,1	1,094664
4,105833	0,1	1,108308
4,107500	0,1	1,097218
4,109167	0,1	1,121403
4,110833	0,1	1,132043
4,112500	0,1	1,159827
4,114167	0,1	1,155463
4,115833	0,1	1,162829
4,117500	0,1	1,160919
4,119167	0,1	1,225185
4,120833	0,1	1,174738
4,122500	0,1	1,187054
4,124167	0,1	1,206726
4,125833	0,1	1,233141
4,127500	0,1	1,250242
4,129167	0,1	1,217701
4,130833	0,1	1,214983
4,132500	0,1	1,210035
4,134167	0,1	1,195363
4,135833	0,1	1,242692
4,137500	0,1	1,200743
4,139167	0,1	1,264771
4,140833	0,1	1,257399
4,142500	0,1	1,283641
4,144167	0,1	1,304827
4,145833	0,1	1,269777
4,147500	0,1	1,265466
4,149167	0,1	1,313550
4,150833	0,1	1,317896
4,152500	0,1	1,339146
4,154167	0,1	1,286540
4,155833	0,1	1,297473
4,157500	0,1	1,332450
4,159167	0,1	1,319733
4,160833	0,1	1,312766
4,162500	0,1	1,340947
4,164167	0,1	1,348286
4,165833	0,1	1,333614
4,167500	0,1	1,344914
4,169167	0,1	1,322448
4,170833	0,1	1,363450
4,172500	0,1	1,343208
4,174167	0,1	1,330090
4,175833	0,1	1,336474
4,177500	0,1	1,347627
4,179167	0,1	1,346257
4,180833	0,1	1,364743
4,182500	0,1	1,413169
4,184167	0,1	1,349258
4,185833	0,1	1,348356
4,187500	0,1	1,363865
4,189167	0,1	1,380271
4,190833	0,1	1,382373
4,192500	0,1	1,384865
4,194167	0,1	1,395116
4,195833	0,1	1,384416
4,197500	0,1	1,399375
4,199167	0,1	1,362521
4,200833	0,1	1,392930
4,202500	0,1	1,366602
4,204167	0,1	1,371363
4,205833	0,1	1,378422
4,207500	0,1	1,437605
4,209167	0,1	1,369546
4,210833	0,1	1,354293
4,212500	0,1	1,397013
4,214167	0,1	1,382279
4,215833	0,1	1,381768
4,217500	0,1	1,364970
4,219167	0,1	1,396440
4,220833	0,1	1,382445
4,222500	0,1	1,359584
4,224167	0,1	1,355578
4,225833	0,1	1,319518
4,227500	0,1	1,380137
4,229167	0,1	1,357395
4,230833	0,1	1,310572
4,232500	0,1	1,372749
4,234167	0,1	1,356938
4,235833	0,1	1,324723
4,237500	0,1	1,323322
4,239167	0,1	1,297839
4,240833	0,1	1,311490
4,242500	0,1	1,312850
4,244167	0,1	1,347772
4,245833	0,1	1,296336
4,247500	0,1	1,298831
4,249167	0,1	1,317164
4,250833	0,1	1,309002
4,252500	0,1	1,288042
4,254167	0,1	1,275854
4,255833	0,1	1,286171
4,257500	0,1	1,270635
4,259167	0,1	1,246795
4,260833	0,1	1,270983
4,262500	0,1	1,231089
4,264167	0,1	1,218408
4,265833	0,1	1,221218
4,267500	0,1	1,251256
4,269167	0,1	1,202252
4,270833	0,1	1,229804
4,272500	0,1	1,208108
4,274167	0,1	1,194854
4,275833	0,1	1,220263
4,277500	0,1	1,199872
4,279167	0,1	1,191383
4,280833	0,1	1,163750
4,282500	0,1	1,171909
4,284167	0,1	1,166984
4,285833	0,1	1,197776
4,287500	0,1	1,167988
4,289167	0,1	1,119623
4,290833	0,1	1,130706
4,292500	0,1	1,150201
4,294167	0,1	1,141368
4,295833	0,1	1,110961
4,297500	0,1	1,105469
4,299167	0,1	1,151366
4,300833	0,1	1,129514
4,302500	0,1	1,127423
4,304167	0,1	1,077451
4,305833	0,1	1,129160
4,307500	0,1	1,092938
4,309167	0,1	1,070493
4,310833	0,1	1,094546
4,312500	0,1	1,111547
4,314167	0,1	1,077756
4,315833	0,1	1,062835
4,317500	0,1	1,071175
4,319167	0,1	1,075347
4,320833	0,1	1,102176
4,322500	0,1	1,023499
4,324167	0,1	1,028227
4,325833	0,1	1,036835
4,327500	0,1	1,010260
4,329167	0,1	1,031441
4,330833	0,1	1,022195
4,332500	0,1	1,006906
4,334167	0,1	0,990860
4,335833	0,1	1,008495
4,337500	0,1	0,993657
4,339167	0,1	0,996538
4,340833	0,1	0,996272
4,342500	0,1	0,981496
4,344167	0,1	0,997465
4,345833	0,1	0,944313
4,347500	0,1	0,945765
4,349167	0,1	0,963136
4,350833	0,1	0,963983
4,352500	0,1	0,925869
4,354167	0,1	0,983363
4,355833	0,1	0,987150
4,357500	0,1	0,984399
4,359167	0,1	0,956579
4,360833	0,1	0,956506
4,362500	0,1	0,906659
4,364167	0,1	0,882779
4,365833	0,1	0,928423
4,367500	0,1	0,939573
4,369167	0,1	0,920164
4,370833	0,1	0,892719
4,372500	0,1	0,887033
4,374167	0,1	0,907062
4,375833	0,1	0,920912
4,377500	0,1	0,890436
4,379167	0,1	0,895821
4,380833	0,1	0,881358
4,382500	0,1	0,871459
4,384167	0,1	0,906440
4,385833	0,1	0,892428
4,387500	0,1	0,914608
4,389167	0,1	0,867278
4,390833	0,1	0,868840
4,392500	0,1	0,886737
4,394167	0,1	0,854381
4,395833	0,1	0,881613
4,397500	0,1	0,858133
4,399167	0,1	0,869458
4,400833	0,1	0,851919
4,402500	0,1	0,850447
4,404167	0,1	0,825874
4,405833	0,1	0,885333
4,407500	0,1	0,812929
4,409167	0,1	0,834004
4,410833	0,1	0,806733
4,412500	0,1	0,827308
4,414167	0,1	0,822942
4,415833	0,1	0,852462
4,417500	0,1	0,832751
4,419167	0,1	0,824873
4,420833	0,1	0,814225
4,422500	0,1	0,838177
4,424167	0,1	0,813941
4,425833	0,1	0,774324
4,427500	0,1	0,781140
4,429167	0,1	0,796431
4,430833	0,1	0,812223
4,432500	0,1	0,824752
4,434167	0,1	0,795812
4,435833	0,1	0,815109
4,437500	0,1	0,783930
4,439167	0,1	0,790682
4,440833	0,1	0,821252
4,442500	0,1	0,778499
4,444167	0,1	0,803149
4,445833	0,1	0,781289
4,447500	0,1	0,758198
4,449167	0,1	0,796294
4,450833	0,1	0,777784
4,452500	0,1	0,745480
4,454167	0,1	0,782602
4,455833	0,1	0,809004
4,457500	0,1	0,775634
4,459167	0,1	0,711884
4,460833	0,1	0,797174
4,462500	0,1	0,740012
4,464167	0,1	0,745970
4,465833	0,1	0,745406
4,467500	0,1	0,767286
4,469167	0,1	0,760034
4,470833	0,1	0,700938
4,472500	0,1	0,747890
4,474167	0,1	0,740447
4,475833	0,1	0,702246
4,477500	0,1	0,747472
4,479167	0,1	0,744752
4,480833	0,1	0,726012
4,482500	0,1	0,691191
4,484167	0,1	0,698572
4,485833	0,1	0,729270
4,487500	0,1	0,703045
4,489167	0,1	0,714007
4,490833	0,1	0,726963
4,492500	0,1	0,682637
4,494167	0,1	0,688348
4,495833	0,1	0,673561
4,497500	0,1	0,723346
4,499167	0,1	0,699764
4,500833	0,1	0,656560
4,502500	0,1	0,690103
4,504167	0,1	0,700017
4,505833	0,1	0,690962
4,507500	0,1	0,665651
4,509167	0,1	0,690338
4,510833	0,1	0,685712
4,512500	0,1	0,645076
4,514167	0,1	0,651113
4,515833	0,1	0,679022
4,517500	0,1	0,651729
4,519167	0,1	0,616463
4,520833	0,1	0,651944
4,522500	0,1	0,669816
4,524167	0,1	0,646909
4,525833	0,1	0,624272
4,527500	0,1	0,637832
4,529167	0,1	0,633753
4,530833	0,1	0,632466
4,532500	0,1	0,629541
4,534167	0,1	0,638951
4,535833	0,1	0,622146
4,537500	0,1	0,634905
4,539167	0,1	0,557420
4,540833	0,1	0,586517
4,542500	0,1	0,623744
4,544167	0,1	0,574672
4,545833	0,1	0,604230
4,547500	0,1	0,622043
4,549167	0,1	0,610253
4,550833	0,1	0,643772
4,552500	0,1	0,585610
4,554167	0,1	0,603426
4,555833	0,1	0,596458
4,557500	0,1	0,609864
4,559167	0,1	0,567982
4,560833	0,1	0,607668
4,562500	0,1	0,580453
4,564167	0,1	0,574338
4,565833	0,1	0,552069
4,567500	0,1	0,590945
4,569167	0,1	0,563449
4,570833	0,1	0,551582
4,572500	0,1	0,565591
4,574167	0,1	0,576457
4,575833	0,1	0,584816
4,577500	0,1	0,570259
4,579167	0,1	0,520796
4,580833	0,1	0,581944
4,582500	0,1	0,538731
4,584167	0,1	0,587474
4,585833	0,1	0,542301
4,587500	0,1	0,509992
4,589167	0,1	0,515610
4,590833	0,1	0,534568
4,592500	0,1	0,531361
4,594167	0,1	0,569891
4,595833	0,1	0,508937
4,597500	0,1	0,524059
4,599167	0,1	0,546236
4,600833	0,1	0,528729
4,602500	0,1	0,534315
4,604167	0,1	0,539036
4,605833	0,1	0,564686
4,607500	0,1	0,513179
4,609167	0,1	0,548611
4,610833	0,1	0,497460
4,612500	0,1	0,449795
4,614167	0,1	0,469737
4,615833	0,1	0,524402
4,617500	0,1	0,507801
4,619167	0,1	0,487552
4,620833	0,1	0,508532
4,622500	0,1	0,467566
4,624167	0,1	0,460070
4,625833	0,1	0,539376
4,627500	0,1	0,494792
4,629167	0,1	0,498730
4,630833	0,1	0,485365
4,632500	0,1	0,471064
4,634167	0,1	0,484009
4,635833	0,1	0,492978
4,637500	0,1	0,453295
4,639167	0,1	0,535069
4,640833	0,1	0,489841
4,642500	0,1	0,461006
4,644167	0,1	0,472310
4,645833	0,1	0,463958
4,647500	0,1	0,449016
4,649167	0,1	0,529988
4,650833	0,1	0,470077
4,652500	0,1	0,477582
4,654167	0,1	0,486452
4,655833	0,1	0,455929
4,657500	0,1	0,470350
4,659167	0,1	0,439572
4,660833	0,1	0,431948
4,662500	0,1	0,436766
4,664167	0,1	0,418613
4,665833	0,1	0,461151
4,667500	0,1	0,445834
4,669167	0,1	0,482943
4,670833	0,1	0,428586
4,672500	0,1	0,414115
4,674167	0,1	0,403250
4,675833	0,1	0,430784
4,677500	0,1	0,427996
4,679167	0,1	0,427189
4,680833	0,1	0,439818
4,682500	0,1	0,449332
4,684167	0,1	0,453799
4,685833	0,1	0,432015
4,687500	0,1	0,443739
4,689167	0,1	0,415178
4,690833	0,1	0,422367
4,692500	0,1	0,406787
4,694167	0,1	0,384199
4,695833	0,1	0,390391
4,697500	0,1	0,385029
4,699167	0,1	0,422040
4,700833	0,1	0,421438
4,702500	0,1	0,394739
4,704167	0,1	0,392453
4,705833	0,1	0,432965
4,707500	0,1	0,368462
4,709167	0,1	0,395016
4,710833	0,1	0,391523
4,712500	0,1	0,441738
4,714167	0,1	0,410327
4,715833	0,1	0,399684
4,717500	0,1	0,374109
4,719167	0,1	0,389107
4,720833	0,1	0,414684
4,722500	0,1	0,376139
4,724167	0,1	0,422648
4,725833	0,1	0,348318
4,727500	0,1	0,361825
4,729167	0,1	0,374934
4,730833	0,1	0,351386
4,732500	0,1	0,407543
4,734167	0,1	0,386481
4,735833	0,1	0,382362
4,737500	0,1	0,324728
4,739167	0,1	0,370559
4,740833	0,1	0,391357
4,742500	0,1	0,371955
4,744167	0,1	0,407258
4,745833	0,1	0,369967
4,747500	0,1	0,371499
4,749167	0,1	0,387147
4,750833	0,1	0,375391
4,752500	0,1	0,348242
4,754167	0,1	0,349426
4,755833	0,1	0,369443
4,757500	0,1	0,356721
4,759167	0,1	0,408733
4,760833	0,1	0,392875
4,762500	0,1	0,360905
4,764167	0,1	0,362407
4,765833	0,1	0,346085
4,767500	0,1	0,312385
4,769167	0,1	0,330399
4,770833	0,1	0,331625
4,772500	0,1	0,313510
4,774167	0,1	0,309065
4,775833	0,1	0,343826
4,777500	0,1	0,372555
4,779167	0,1	0,315158
4,780833	0,1	0,323299
4,782500	0,1	0,337950
4,784167	0,1	0,352152
4,785833	0,1	0,340815
4,787500	0,1	0,357552
4,789167	0,1	0,339695
4,790833	0,1	0,388166
4,792500	0,1	0,336651
4,794167	0,1	0,321086
4,795833	0,1	0,339362
4,797500	0,1	0,315081
4,799167	0,1	0,325036
4,800833	0,1	0,343894
4,802500	0,1	0,300149
4,804167	0,1	0,298566
4,805833	0,1	0,297950
4,807500	0,1	0,368273
4,809167	0,1	0,278893
4,810833	0,1	0,348247
4,812500	0,1	0,339379
4,814167	0,1	0,315051
4,815833	0,1	0,329115
4,817500	0,1	0,316757
4,819167	0,1	0,307690
4,820833	0,1	0,291464
4,822500	0,1	0,332518
4,824167	0,1	0,342837
4,825833	0,1	0,306991
4,827500	0,1	0,286523
4,829167	0,1	0,321977
4,830833	0,1	0,317559
4,832500	0,1	0,319382
4,834167	0,1	0,302170
4,835833	0,1	0,311478
4,837500	0,1	0,289702
4,839167	0,1	0,316423
4,840833	0,1	0,306503
4,842500	0,1	0,307016
4,844167	0,1	0,317134
4,845833	0,1	0,336473
4,847500	0,1	0,301977
4,849167	0,1	0,287257
4,850833	0,1	0,320565
4,852500	0,1	0,312831
4,854167	0,1	0,316365
4,855833	0,1	0,280355
4,857500	0,1	0,314297
4,859167	0,1	0,324202
4,860833	0,1	0,316304
4,862500	0,1	0,330882
4,864167	0,1	0,291788
4,865833	0,1	0,290762
4,867500	0,1	0,322778
4,869167	0,1	0,312768
4,870833	0,1	0,288769
4,872500	0,1	0,301421
4,874167	0,1	0,311421
4,875833	0,1	0,311480
4,877500	0,1	0,356744
4,879167	0,1	0,314188
4,880833	0,1	0,336732
4,882500	0,1	0,300211
4,884167	0,1	0,324290
4,885833	0,1	0,314468
4,887500	0,1	0,282671
4,889167	0,1	0,315970
4,890833	0,1	0,300941
4,892500	0,1	0,289988
4,894167	0,1	0,289062
4,895833	0,1	0,323645
4,897500	0,1	0,288843
4,899167	0,1	0,333606
4,900833	0,1	0,326198
4,902500	0,1	0,333396
4,904167	0,1	0,313801
4,905833	0,1	0,344730
4,907500	0,1	0,314319
4,909167	0,1	0,325005
4,910833	0,1	0,311193
4,912500	0,1	0,288705
4,914167	0,1	0,315363
4,915833	0,1	0,283469
4,917500	0,1	0,337268
4,919167	0,1	0,321314
4,920833	0,1	0,287677
4,922500	0,1	0,282078
4,924167	0,1	0,310222
4,925833	0,1	0,281702
4,927500	0,1	0,292679
4,929167	0,1	0,337461
4,930833	0,1	0,325944
4,932500	0,1	0,274677
4,934167	0,1	0,289148
4,935833	0,1	0,301675
4,937500	0,1	0,308617
4,939167	0,1	0,273993
4,940833	0,1	0,318729
4,942500	0,1	0,326449
4,944167	0,1	0,267574
4,945833	0,1	0,292740
4,947500	0,1	0,336982
4,949167	0,1	0,297966
4,950833	0,1	0,307268
4,952500	0,1	0,280255
4,954167	0,1	0,339067
4,955833	0,1	0,305669
4,957500	0,1	0,284588
4,959167	0,1	0,304668
4,960833	0,1	0,313433
4,962500	0,1	0,300687
4,964167	0,1	0,347228
4,965833	0,1	0,343871
4,967500	0,1	0,252064
4,969167	0,1	0,335496
4,970833	0,1	0,317077
4,972500	0,1	0,329209
4,974167	0,1	0,341134
4,975833	0,1	0,315827
4,977500	0,1	0,331530
4,979167	0,1	0,311582
4,980833	0,1	0,314438
4,982500	0,1	0,311705
4,984167	0,1	0,340586
4,985833	0,1	0,315984
4,987500	0,1	0,334706
4,989167	0,1	0,322534
4,990833	0,1	0,325841
4,992500	0,1	0,327126
4,994167	0,1	0,305990
4,995833	0,1	0,343473
4,997500	0,1	0,351161
4,999167	0,1	0,319453
5,000833	0,1	0,336473
5,002500	0,1	0,364874
5,004167	0,1	0,353476
5,005833	0,1	0,344994
5,007500	0,1	0,368377
5,009167	0,1	0,366554
5,010833	0,1	0,381459
5,012500	0,1	0,379116
5,014167	0,1	0,394856
5,015833	0,1	0,378861
5,017500	0,1	0,383645
5,019167	0,1	0,391712
5,020833	0,1	0,383069
5,022500	0,1	0,373909
5,024167	0,1	0,403691
5,025833	0,1	0,408326
5,027500	0,1	0,369613
5,029167	0,1	0,391516
5,030833	0,1	0,407262
5,032500	0,1	0,402960
5,034167	0,1	0,442478
5,035833	0,1	0,408269
5,037500	0,1	0,424422
5,039167	0,1	0,401037
5,040833	0,1	0,441354
5,042500	0,1	0,419867
5,044167	0,1	0,439237
5,045833	0,1	0,442135
5,047500	0,1	0,418132
5,049167	0,1	0,463945
5,050833	0,1	0,432017
5,052500	0,1	0,456849
5,054167	0,1	0,463602
5,055833	0,1	0,471411
5,057500	0,1	0,493875
5,059167	0,1	0,459884
5,060833	0,1	0,488054
5,062500	0,1	0,477105
5,064167	0,1	0,480026
5,065833	0,1	0,509431
5,067500	0,1	0,495008
5,069167	0,1	0,519331
5,070833	0,1	0,501822
5,072500	0,1	0,509533
5,074167	0,1	0,497227
5,075833	0,1	0,486137
5,077500	0,1	0,515217
5,079167	0,1	0,479007
5,080833	0,1	0,515052
5,082500	0,1	0,489483
5,084167	0,1	0,500596
5,085833	0,1	0,549060
5,087500	0,1	0,542224
5,089167	0,1	0,503887
5,090833	0,1	0,560149
5,092500	0,1	0,529343
5,094167	0,1	0,472391
5,095833	0,1	0,538611
5,097500	0,1	0,541133
5,099167	0,1	0,524454
5,100833	0,1	0,557712
5,102500	0,1	0,523590
5,104167	0,1	0,564524
5,105833	0,1	0,565306
5,107500	0,1	0,506012
5,109167	0,1	0,557931
5,110833	0,1	0,547116
5,112500	0,1	0,568096
5,114167	0,1	0,557145
5,115833	0,1	0,577745
5,117500	0,1	0,542941
5,119167	0,1	0,592364
5,120833	0,1	0,533850
5,122500	0,1	0,571861
5,124167	0,1	0,578457
5,125833	0,1	0,587582
5,127500	0,1	0,578168
5,129167	0,1	0,575335
5,130833	0,1	0,590666
5,132500	0,1	0,584661
5,134167	0,1	0,602465
5,135833	0,1	0,620822
5,137500	0,1	0,579591
5,139167	0,1	0,547894
5,140833	0,1	0,596157
5,142500	0,1	0,569782
5,144167	0,1	0,568073
5,145833	0,1	0,586390
5,147500	0,1	0,585627
5,149167	0,1	0,570458
5,150833	0,1	0,568970
5,152500	0,1	0,580605
5,154167	0,1	0,594913
5,155833	0,1	0,583182
5,157500	0,1	0,578874
5,159167	0,1	0,581667
5,160833	0,1	0,573153
5,162500	0,1	0,572667
5,164167	0,1	0,531820
5,165833	0,1	0,584357
5,167500	0,1	0,526390
5,169167	0,1	0,544373
5,170833	0,1	0,563951
5,172500	0,1	0,557977
5,174167	0,1	0,546568
5,175833	0,1	0,535476
5,177500	0,1	0,553086
5,179167	0,1	0,569059
5,180833	0,1	0,525585
5,182500	0,1	0,572492
5,184167	0,1	0,545123
5,185833	0,1	0,540747
5,187500	0,1	0,536021
5,189167	0,1	0,528145
5,190833	0,1	0,516770
5,192500	0,1	0,503879
5,194167	0,1	0,524284
5,195833	0,1	0,541259
5,197500	0,1	0,512143
5,199167	0,1	0,485369
5,200833	0,1	0,500692
5,202500	0,1	0,500309
5,204167	0,1	0,510850
5,205833	0,1	0,517151
5,207500	0,1	0,499350
5,209167	0,1	0,493271
5,210833	0,1	0,483758
5,212500	0,1	0,472349
5,214167	0,1	0,495225
5,215833	0,1	0,473539
5,217500	0,1	0,466272
5,219167	0,1	0,517654
5,220833	0,1	0,467216
5,222500	0,1	0,483430
5,224167	0,1	0,502811
5,225833	0,1	0,444494
5,227500	0,1	0,414890
5,229167	0,1	0,421885
5,230833	0,1	0,466615
5,232500	0,1	0,423407
5,234167	0,1	0,414080
5,235833	0,1	0,424872
5,237500	0,1	0,423367
5,239167	0,1	0,414050
5,240833	0,1	0,459029
5,242500	0,1	0,421992
5,244167	0,1	0,410322
5,245833	0,1	0,404601
5,247500	0,1	0,419860
5,249167	0,1	0,396956
5,250833	0,1	0,419793
5,252500	0,1	0,378998
5,254167	0,1	0,371725
5,255833	0,1	0,407063
5,257500	0,1	0,379957
5,259167	0,1	0,373365
5,260833	0,1	0,384545
5,262500	0,1	0,389237
5,264167	0,1	0,412112
5,265833	0,1	0,352876
5,267500	0,1	0,350840
5,269167	0,1	0,326554
5,270833	0,1	0,370335
5,272500	0,1	0,354954
5,274167	0,1	0,351419
5,275833	0,1	0,350001
5,277500	0,1	0,384955
5,279167	0,1	0,336489
5,280833	0,1	0,364907
5,282500	0,1	0,337224
5,284167	0,1	0,324977
5,285833	0,1	0,331623
5,287500	0,1	0,340267
5,289167	0,1	0,339946
5,290833	0,1	0,296457
5,292500	0,1	0,302390
5,294167	0,1	0,282533
5,295833	0,1	0,295547
5,297500	0,1	0,311764
5,299167	0,1	0,318835
5,300833	0,1	0,300531
5,302500	0,1	0,325032
5,304167	0,1	0,279786
5,305833	0,1	0,306494
5,307500	0,1	0,297346
5,309167	0,1	0,302129
5,310833	0,1	0,296475
5,312500	0,1	0,270943
5,314167	0,1	0,285555
5,315833	0,1	0,286420
5,317500	0,1	0,251958
5,319167	0,1	0,296400
5,320833	0,1	0,249644
5,322500	0,1	0,256031
5,324167	0,1	0,280180
5,325833	0,1	0,243445
5,327500	0,1	0,206877
5,329167	0,1	0,288109
5,330833	0,1	0,219608
5,332500	0,1	0,260845
5,334167	0,1	0,244624
5,335833	0,1	0,248774
5,337500	0,1	0,289504
5,339167	0,1	0,219229
5,340833	0,1	0,252685
5,342500	0,1	0,238562
5,344167	0,1	0,232841
5,345833	0,1	0,248319
5,347500	0,1	0,230917
5,349167	0,1	0,218899
5,350833	0,1	0,203608
5,352500	0,1	0,213881
5,354167	0,1	0,199501
5,355833	0,1	0,201097
5,357500	0,1	0,187067
5,359167	0,1	0,187442
5,360833	0,1	0,237778
5,362500	0,1	0,190540
5,364167	0,1	0,197442
5,365833	0,1	0,191073
5,367500	0,1	0,192419
5,369167	0,1	0,233988
5,370833	0,1	0,191961
5,372500	0,1	0,183149
5,374167	0,1	0,187417
5,375833	0,1	0,197820
5,377500	0,1	0,164904
5,379167	0,1	0,172201
5,380833	0,1	0,206103
5,382500	0,1	0,193593
5,384167	0,1	0,175694
5,385833	0,1	0,153302
5,387500	0,1	0,193201
5,389167	0,1	0,155120
5,390833	0,1	0,173759
5,392500	0,1	0,180449
5,394167	0,1	0,151906
5,395833	0,1	0,189336
5,397500	0,1	0,144163
5,399167	0,1	0,159024
5,400833	0,1	0,168270
5,402500	0,1	0,150933
5,404167	0,1	0,158573
5,405833	0,1	0,155754
5,407500	0,1	0,174527
5,409167	0,1	0,178523
5,410833	0,1	0,165517
5,412500	0,1	0,126984
5,414167	0,1	0,159636
5,415833	0,1	0,154986
5,417500	0,1	0,131539
5,419167	0,1	0,147148
5,420833	0,1	0,124599
5,422500	0,1	0,142346
5,424167	0,1	0,150864
5,425833	0,1	0,135077
5,427500	0,1	0,133524
5,429167	0,1	0,143570
5,430833	0,1	0,085906
5,432500	0,1	0,123991
5,434167	0,1	0,131658
5,435833	0,1	0,078677
5,437500	0,1	0,119609
5,439167	0,1	0,118688
5,440833	0,1	0,114670
5,442500	0,1	0,139789
5,444167	0,1	0,086155
5,445833	0,1	0,106480
5,447500	0,1	0,106068
5,449167	0,1	0,095779
5,450833	0,1	0,075599
5,452500	0,1	0,104573
5,454167	0,1	0,119781
5,455833	0,1	0,101539
5,457500	0,1	0,098966
5,459167	0,1	0,085544
5,460833	0,1	0,065345
5,462500	0,1	0,119834
5,464167	0,1	0,089831
5,465833	0,1	0,116817
5,467500	0,1	0,076042
5,469167	0,1	0,106186
5,470833	0,1	0,088982
5,472500	0,1	0,091938
5,474167	0,1	0,089041
5,475833	0,1	0,110105
5,477500	0,1	0,070550
5,479167	0,1	0,035228
5,480833	0,1	0,128009
5,482500	0,1	0,078464
5,484167	0,1	0,081107
5,485833	0,1	0,116790
5,487500	0,1	0,091969
5,489167	0,1	0,094594
5,490833	0,1	0,104390
5,492500	0,1	0,102443
5,494167	0,1	0,087259
5,495833	0,1	0,036103
5,497500	0,1	0,061772
5,499167	0,1	0,077642
5,500833	0,1	0,086548
5,502500	0,1	0,029971
5,504167	0,1	0,100976
5,505833	0,1	0,111141
5,507500	0,1	0,075148
5,509167	0,1	0,051446
5,510833	0,1	0,075281
5,512500	0,1	0,067019
5,514167	0,1	0,074888
5,515833	0,1	0,069299
5,517500	0,1	0,060080
5,519167	0,1	0,100381
5,520833	0,1	0,055655
5,522500	0,1	0,063224
5,524167	0,1	0,084439
5,525833	0,1	0,041631
5,527500	0,1	0,109968
5,529167	0,1	0,076721
5,530833	0,1	0,055855
5,532500	0,1	0,028846
5,534167	0,1	0,085628
5,535833	0,1	0,074022
5,537500	0,1	0,068031
5,539167	0,1	0,039659
5,540833	0,1	0,054999
5,542500	0,1	0,054776
5,544167	0,1	0,035349
5,545833	0,1	0,062657
5,547500	0,1	0,090938
5,549167	0,1	0,040928
5,550833	0,1	0,049182
5,552500	0,1	0,028429
5,554167	0,1	0,018817
5,555833	0,1	0,025047
5,557500	0,1	0,087929
5,559167	0,1	0,010629
5,560833	0,1	0,017011
5,562500	0,1	0,077381
5,564167	0,1	0,077583
5,565833	0,1	0,060786
5,567500	0,1	0,059953
5,569167	0,1	0,015801
5,570833	0,1	0,088296
5,572500	0,1	0,010381
5,574167	0,1	0,047367
5,575833	0,1	0,027206
5,577500	0,1	0,060212
5,579167	0,1	0,057801
5,580833	0,1	0,017910
5,582500	0,1	0,036853
5,584167	0,1	0,034682
5,585833	0,1	0,058163
5,587500	0,1	0,033341
5,589167	0,1	0,033316
5,590833	0,1	0,027226
5,592500	0,1	0,054832
5,594167	0,1	0,061753
5,595833	0,1	0,018097
5,597500	0,1	0,007154
5,599167	0,1	0,038215
5,600833	0,1	0,041744
5,602500	0,1	0,073206
5,604167	0,1	0,055565
5,605833	0,1	0,050095
5,607500	0,1	0,049184
5,609167	0,1	0,055456
5,610833	0,1	0,003393
5,612500	0,1	0,045713
5,614167	0,1	-0,020962
5,615833	0,1	0,041252
5,617500	0,1	0,043505
5,619167	0,1	0,040274
5,620833	0,1	0,043505
5,622500	0,1	0,013848
5,624167	0,1	0,049544
5,625833	0,1	0,071132
5,627500	0,1	0,053205
5,629167	0,1	0,024310
5,630833	0,1	0,049154
5,632500	0,1	0,090309
5,634167	0,1	0,032210
5,635833	0,1	0,029191
5,637500	0,1	0,027225
5,639167	0,1	0,034617
5,640833	0,1	0,043215
5,642500	0,1	0,071530
5,644167	0,1	0,030776
5,645833	0,1	0,052946
5,647500	0,1	0,033589
5,649167	0,1	0,015398
5,650833	0,1	0,018398
5,652500	0,1	0,058433
5,654167	0,1	0,062913
5,655833	0,1	0,048625
5,657500	0,1	0,017600
5,659167	0,1	0,038984
5,660833	0,1	0,052597
5,662500	0,1	0,004470
5,664167	0,1	0,035337
5,665833	0,1	0,042511
5,667500	0,1	0,081302
5,669167	0,1	0,008433
5,670833	0,1	0,040492
5,672500	0,1	0,051375
5,674167	0,1	0,011636
5,675833	0,1	0,066278
5,677500	0,1	0,034627
5,679167	0,1	0,059055
5,680833	0,1	0,062396
5,682500	0,1	0,031062
5,684167	0,1	0,044890
5,685833	0,1	0,043176
5,687500	0,1	0,068233
5,689167	0,1	0,059955
5,690833	0,1	0,045685
5,692500	0,1	0,037956
5,694167	0,1	0,044539
5,695833	0,1	0,042614
5,697500	0,1	0,044251
5,699167	0,1	0,088178
5,700833	0,1	0,061097
5,702500	0,1	0,036447
5,704167	0,1	0,059947
5,705833	0,1	0,077538
5,707500	0,1	0,058940
5,709167	0,1	0,032699
5,710833	0,1	0,060550
5,712500	0,1	0,056641
5,714167	0,1	0,061441
5,715833	0,1	0,065856
5,717500	0,1	0,049806
5,719167	0,1	0,062042
5,720833	0,1	0,070642
5,722500	0,1	0,059580
5,724167	0,1	0,108312
5,725833	0,1	0,058618
5,727500	0,1	0,056061
5,729167	0,1	0,059663
5,730833	0,1	0,085222
5,732500	0,1	0,081101
5,734167	0,1	0,059958
5,735833	0,1	0,059748
5,737500	0,1	0,098352
5,739167	0,1	0,076492
5,740833	0,1	0,068508
5,742500	0,1	0,057199
5,744167	0,1	0,094953
5,745833	0,1	0,060190
5,747500	0,1	0,052414
5,749167	0,1	0,039780
5,750833	0,1	0,050380
5,752500	0,1	0,076293
5,754167	0,1	0,044384
5,755833	0,1	0,080745
5,757500	0,1	0,023903
5,759167	0,1	0,061933
5,760833	0,1	0,103201
5,762500	0,1	0,059696
5,764167	0,1	0,049350
5,765833	0,1	0,074617
5,767500	0,1	0,075161
5,769167	0,1	0,051963
5,770833	0,1	0,040485
5,772500	0,1	0,068711
5,774167	0,1	0,062627
5,775833	0,1	0,099599
5,777500	0,1	0,084878
5,779167	0,1	0,106103
5,780833	0,1	0,073363
5,782500	0,1	0,074723
5,784167	0,1	0,093297
5,785833	0,1	0,044222
5,787500	0,1	0,060944
5,789167	0,1	0,079443
5,790833	0,1	0,047720
5,792500	0,1	0,083809
5,794167	0,1	0,080629
5,795833	0,1	0,085374
5,797500	0,1	0,069676
5,799167	0,1	0,114861
5,800833	0,1	0,068212
5,802500	0,1	0,074746
5,804167	0,1	0,085576
5,805833	0,1	0,072903
5,807500	0,1	0,092288
5,809167	0,1	0,079513
5,810833	0,1	0,055401
5,812500	0,1	0,081869
5,814167	0,1	0,097427
5,815833	0,1	0,067190
5,817500	0,1	0,065961
5,819167	0,1	0,074204
5,820833	0,1	0,076941
5,822500	0,1	0,034195
5,824167	0,1	0,073329
5,825833	0,1	0,078701
5,827500	0,1	0,052315
5,829167	0,1	0,054672
5,830833	0,1	0,086755
5,832500	0,1	0,055527
5,834167	0,1	0,081390
5,835833	0,1	0,060953
5,837500	0,1	0,063267
5,839167	0,1	0,052398
5,840833	0,1	0,090356
5,842500	0,1	0,074727
5,844167	0,1	0,099664
5,845833	0,1	0,114439
5,847500	0,1	0,066740
5,849167	0,1	0,074722
5,850833	0,1	0,080440
5,852500	0,1	0,091685
5,854167	0,1	0,048591
5,855833	0,1	0,067842
5,857500	0,1	0,084377
5,859167	0,1	0,085540
5,860833	0,1	0,087138
5,862500	0,1	0,088210
5,864167	0,1	0,053108
5,865833	0,1	0,069481
5,867500	0,1	0,046597
5,869167	0,1	0,082321
5,870833	0,1	0,056026
5,872500	0,1	0,089503
5,874167	0,1	0,044096
5,875833	0,1	0,112703
5,877500	0,1	0,067795
5,879167	0,1	0,066587
5,880833	0,1	0,067620
5,882500	0,1	0,100468
5,884167	0,1	0,112034
5,885833	0,1	0,086894
5,887500	0,1	0,065574
5,889167	0,1	0,028476
5,890833	0,1	0,033167
5,892500	0,1	0,052492
5,894167	0,1	0,042411
5,895833	0,1	0,053489
5,897500	0,1	0,083356
5,899167	0,1	0,003111
5,900833	0,1	0,019617
5,902500	0,1	0,048823
5,904167	0,1	0,033627
5,905833	0,1	0,034265
5,907500	0,1	0,061998
5,909167	0,1	0,013689
5,910833	0,1	0,102898
5,912500	0,1	0,060667
5,914167	0,1	0,040341
5,915833	0,1	-0,008683
5,917500	0,1	0,064972
5,919167	0,1	0,014764
5,920833	0,1	0,006387
5,922500	0,1	0,037201
5,924167	0,1	0,041328
5,925833	0,1	0,030974
5,927500	0,1	0,071440
5,929167	0,1	0,018372
5,930833	0,1	0,038095
5,932500	0,1	0,022629
5,934167	0,1	0,069161
5,935833	0,1	0,020503
5,937500	0,1	0,069903
5,939167	0,1	0,048422
5,940833	0,1	0,021553
5,942500	0,1	0,043955
5,944167	0,1	-0,003092
5,945833	0,1	0,028769
5,947500	0,1	0,053962
5,949167	0,1	0,024931
5,950833	0,1	0,059740
5,952500	0,1	0,013977
5,954167	0,1	0,043374
5,955833	0,1	0,034187
5,957500	0,1	0,039051
5,959167	0,1	0,025052
5,960833	0,1	0,043917
5,962500	0,1	0,009128
5,964167	0,1	0,031174
5,965833	0,1	0,021840
5,967500	0,1	-0,013077
5,969167	0,1	0,048482
5,970833	0,1	-0,010359
5,972500	0,1	-0,008156
5,974167	0,1	0,026138
5,975833	0,1	0,052115
5,977500	0,1	0,031889
5,979167	0,1	0,027182
5,980833	0,1	0,022315
5,982500	0,1	0,026145
5,984167	0,1	0,031240
5,985833	0,1	0,077510
5,987500	0,1	0,023486
5,989167	0,1	0,041036
5,990833	0,1	0,014097
5,992500	0,1	0,007484
5,994167	0,1	0,023532
5,995833	0,1	0,032628
5,997500	0,1	0,029503
5,999167	0,1	0,016536
6,000833	0,1	0,048136
