File Path	chrom://chromeleon01/ikbm_chromeleon/2022/Rezex/Esteban/220612_chitin_4_7.seq/403.smp/UV_VIS_1.channel/UV_VIS_1.chm
Channel	UV_VIS_1

Injection Information:
Data Vault	ikbm_chromeleon
Injection	CelS2_00h-EGS_1
Injection Number	118
Position	BC4
Comment	
Processing Method	New ProcMethod
Instrument Method	Short_Rezex_6min_194nm
Type	Unknown
Status	Finished
Injection Date	13.06.2022
Injection Time	05:51:48
Injection Volume (µl)	8,000
Dilution Factor	1,0000
Weight	1,0000

Chromatogram Data Information:
Time Min. (min)	0,000833
Time Max. (min)	6,000833
Data Points	3601
Detector	UV
Generating Data System	Chromeleon 7.2.9.11323
Exporting Data System	Chromeleon 7.2.9.0
Operator	Instrument Controller
Signal Quantity	Absorbance
Signal Unit	mAU
Signal Min.	-0,060796
Signal Max.	107,139149
Channel	UV_VIS_1
Driver Name	VWD3000.dll
Channel Type	Evaluation
Min. Step (s)	0,1
Max. Step (s)	0,1
Average Step (s)	0,1

Signal Parameter Information:
Signal Info	WVL:194 nm

Chromatogram Data:
Time (min)	Step (s)	Value (mAU)
0,000833	n.a.	0,051508
0,002500	0,1	0,015252
0,004167	0,1	0,008249
0,005833	0,1	0,031339
0,007500	0,1	0,000908
0,009167	0,1	0,029932
0,010833	0,1	0,008727
0,012500	0,1	-0,001069
0,014167	0,1	0,015653
0,015833	0,1	0,015366
0,017500	0,1	0,009059
0,019167	0,1	0,072483
0,020833	0,1	0,029509
0,022500	0,1	0,017538
0,024167	0,1	0,016850
0,025833	0,1	0,015077
0,027500	0,1	-0,014490
0,029167	0,1	-0,030471
0,030833	0,1	-0,037164
0,032500	0,1	0,005107
0,034167	0,1	-0,037002
0,035833	0,1	-0,058865
0,037500	0,1	-0,032069
0,039167	0,1	-0,023542
0,040833	0,1	-0,033422
0,042500	0,1	-0,017817
0,044167	0,1	-0,011230
0,045833	0,1	-0,060796
0,047500	0,1	0,002335
0,049167	0,1	0,024159
0,050833	0,1	0,006221
0,052500	0,1	0,008019
0,054167	0,1	0,015364
0,055833	0,1	-0,010872
0,057500	0,1	0,010458
0,059167	0,1	0,052554
0,060833	0,1	0,027396
0,062500	0,1	-0,010852
0,064167	0,1	0,031976
0,065833	0,1	0,000617
0,067500	0,1	0,024371
0,069167	0,1	0,028153
0,070833	0,1	0,005747
0,072500	0,1	0,019291
0,074167	0,1	-0,006181
0,075833	0,1	0,011818
0,077500	0,1	0,016251
0,079167	0,1	0,053520
0,080833	0,1	-0,002446
0,082500	0,1	0,030651
0,084167	0,1	0,025114
0,085833	0,1	0,022074
0,087500	0,1	0,051124
0,089167	0,1	0,005875
0,090833	0,1	0,035936
0,092500	0,1	0,004880
0,094167	0,1	0,064880
0,095833	0,1	-0,013714
0,097500	0,1	0,032054
0,099167	0,1	0,036310
0,100833	0,1	0,001031
0,102500	0,1	0,033658
0,104167	0,1	0,002588
0,105833	0,1	-0,029414
0,107500	0,1	-0,006057
0,109167	0,1	-0,005746
0,110833	0,1	0,025609
0,112500	0,1	-0,051552
0,114167	0,1	0,014052
0,115833	0,1	-0,053754
0,117500	0,1	0,004016
0,119167	0,1	-0,006385
0,120833	0,1	-0,004752
0,122500	0,1	0,034421
0,124167	0,1	0,015125
0,125833	0,1	0,008645
0,127500	0,1	0,002596
0,129167	0,1	0,008201
0,130833	0,1	0,016647
0,132500	0,1	0,022987
0,134167	0,1	0,007443
0,135833	0,1	0,017518
0,137500	0,1	0,037572
0,139167	0,1	0,008729
0,140833	0,1	0,018204
0,142500	0,1	0,051227
0,144167	0,1	0,022430
0,145833	0,1	0,019706
0,147500	0,1	0,032397
0,149167	0,1	-0,001138
0,150833	0,1	0,048095
0,152500	0,1	0,048607
0,154167	0,1	0,001842
0,155833	0,1	0,034238
0,157500	0,1	0,025406
0,159167	0,1	0,029112
0,160833	0,1	0,060898
0,162500	0,1	0,023654
0,164167	0,1	0,008145
0,165833	0,1	0,024178
0,167500	0,1	0,010297
0,169167	0,1	0,022405
0,170833	0,1	0,027036
0,172500	0,1	0,031300
0,174167	0,1	0,019632
0,175833	0,1	0,018408
0,177500	0,1	0,028530
0,179167	0,1	0,020212
0,180833	0,1	0,031342
0,182500	0,1	0,024656
0,184167	0,1	0,074219
0,185833	0,1	0,045329
0,187500	0,1	0,039460
0,189167	0,1	0,016380
0,190833	0,1	0,061352
0,192500	0,1	0,051317
0,194167	0,1	0,020171
0,195833	0,1	0,029313
0,197500	0,1	-0,004423
0,199167	0,1	0,039095
0,200833	0,1	0,008729
0,202500	0,1	0,050936
0,204167	0,1	0,021270
0,205833	0,1	0,065429
0,207500	0,1	0,063841
0,209167	0,1	0,011759
0,210833	0,1	0,037834
0,212500	0,1	0,052365
0,214167	0,1	0,007158
0,215833	0,1	0,031216
0,217500	0,1	0,067225
0,219167	0,1	0,068517
0,220833	0,1	0,008308
0,222500	0,1	0,046980
0,224167	0,1	0,034205
0,225833	0,1	0,019280
0,227500	0,1	0,001561
0,229167	0,1	0,038700
0,230833	0,1	0,021663
0,232500	0,1	0,009092
0,234167	0,1	0,022297
0,235833	0,1	0,059218
0,237500	0,1	0,012399
0,239167	0,1	0,049900
0,240833	0,1	0,022264
0,242500	0,1	0,079289
0,244167	0,1	0,038412
0,245833	0,1	0,009018
0,247500	0,1	0,041084
0,249167	0,1	0,018579
0,250833	0,1	0,051246
0,252500	0,1	0,020232
0,254167	0,1	0,037695
0,255833	0,1	0,067499
0,257500	0,1	0,028164
0,259167	0,1	-0,004974
0,260833	0,1	0,053499
0,262500	0,1	0,021745
0,264167	0,1	0,025937
0,265833	0,1	0,040324
0,267500	0,1	0,061954
0,269167	0,1	0,033583
0,270833	0,1	0,024061
0,272500	0,1	0,084817
0,274167	0,1	0,006067
0,275833	0,1	0,066743
0,277500	0,1	0,076549
0,279167	0,1	0,053289
0,280833	0,1	0,014917
0,282500	0,1	0,044873
0,284167	0,1	0,028861
0,285833	0,1	0,051230
0,287500	0,1	0,054522
0,289167	0,1	0,038317
0,290833	0,1	0,021100
0,292500	0,1	0,041210
0,294167	0,1	0,071806
0,295833	0,1	0,035632
0,297500	0,1	0,049264
0,299167	0,1	0,060111
0,300833	0,1	0,014662
0,302500	0,1	0,093402
0,304167	0,1	0,029759
0,305833	0,1	0,042574
0,307500	0,1	0,065442
0,309167	0,1	0,060008
0,310833	0,1	0,062450
0,312500	0,1	0,057487
0,314167	0,1	0,078945
0,315833	0,1	0,075726
0,317500	0,1	0,068888
0,319167	0,1	0,018128
0,320833	0,1	0,077944
0,322500	0,1	0,074355
0,324167	0,1	0,022987
0,325833	0,1	0,083243
0,327500	0,1	0,093188
0,329167	0,1	0,066553
0,330833	0,1	0,065951
0,332500	0,1	0,088430
0,334167	0,1	0,096689
0,335833	0,1	0,073841
0,337500	0,1	0,080539
0,339167	0,1	0,075989
0,340833	0,1	0,069802
0,342500	0,1	0,079116
0,344167	0,1	0,035836
0,345833	0,1	0,070249
0,347500	0,1	0,041881
0,349167	0,1	0,077139
0,350833	0,1	0,058193
0,352500	0,1	0,041737
0,354167	0,1	0,099429
0,355833	0,1	0,092761
0,357500	0,1	0,092199
0,359167	0,1	0,077609
0,360833	0,1	0,062243
0,362500	0,1	0,052309
0,364167	0,1	0,089296
0,365833	0,1	0,052896
0,367500	0,1	0,077890
0,369167	0,1	0,101466
0,370833	0,1	0,050517
0,372500	0,1	0,052764
0,374167	0,1	0,061622
0,375833	0,1	0,051317
0,377500	0,1	0,079208
0,379167	0,1	0,071393
0,380833	0,1	0,095920
0,382500	0,1	0,128627
0,384167	0,1	0,127704
0,385833	0,1	0,084693
0,387500	0,1	0,081660
0,389167	0,1	0,063492
0,390833	0,1	0,112167
0,392500	0,1	0,105780
0,394167	0,1	0,132808
0,395833	0,1	0,056359
0,397500	0,1	0,083743
0,399167	0,1	0,078863
0,400833	0,1	0,068274
0,402500	0,1	0,083931
0,404167	0,1	0,107656
0,405833	0,1	0,109587
0,407500	0,1	0,049527
0,409167	0,1	0,041127
0,410833	0,1	0,081876
0,412500	0,1	0,084928
0,414167	0,1	0,067422
0,415833	0,1	0,070027
0,417500	0,1	0,082324
0,419167	0,1	0,087686
0,420833	0,1	0,067089
0,422500	0,1	0,102581
0,424167	0,1	0,095594
0,425833	0,1	0,087848
0,427500	0,1	0,123159
0,429167	0,1	0,074638
0,430833	0,1	0,128124
0,432500	0,1	0,093322
0,434167	0,1	0,109230
0,435833	0,1	0,104163
0,437500	0,1	0,063701
0,439167	0,1	0,121668
0,440833	0,1	0,091124
0,442500	0,1	0,089218
0,444167	0,1	0,100600
0,445833	0,1	0,090522
0,447500	0,1	0,159462
0,449167	0,1	0,086396
0,450833	0,1	0,085798
0,452500	0,1	0,116725
0,454167	0,1	0,086781
0,455833	0,1	0,117631
0,457500	0,1	0,100976
0,459167	0,1	0,114735
0,460833	0,1	0,079865
0,462500	0,1	0,109499
0,464167	0,1	0,102011
0,465833	0,1	0,086320
0,467500	0,1	0,150045
0,469167	0,1	0,093759
0,470833	0,1	0,116554
0,472500	0,1	0,114907
0,474167	0,1	0,103856
0,475833	0,1	0,097289
0,477500	0,1	0,107306
0,479167	0,1	0,078104
0,480833	0,1	0,131769
0,482500	0,1	0,133579
0,484167	0,1	0,095663
0,485833	0,1	0,128314
0,487500	0,1	0,116958
0,489167	0,1	0,113850
0,490833	0,1	0,098082
0,492500	0,1	0,113705
0,494167	0,1	0,085516
0,495833	0,1	0,111795
0,497500	0,1	0,098882
0,499167	0,1	0,113064
0,500833	0,1	0,109025
0,502500	0,1	0,145518
0,504167	0,1	0,090964
0,505833	0,1	0,121502
0,507500	0,1	0,117886
0,509167	0,1	0,104764
0,510833	0,1	0,099004
0,512500	0,1	0,125810
0,514167	0,1	0,112174
0,515833	0,1	0,128774
0,517500	0,1	0,123416
0,519167	0,1	0,096739
0,520833	0,1	0,154954
0,522500	0,1	0,090516
0,524167	0,1	0,107843
0,525833	0,1	0,157191
0,527500	0,1	0,105046
0,529167	0,1	0,147730
0,530833	0,1	0,157471
0,532500	0,1	0,155628
0,534167	0,1	0,145220
0,535833	0,1	0,135919
0,537500	0,1	0,108495
0,539167	0,1	0,114033
0,540833	0,1	0,150299
0,542500	0,1	0,162499
0,544167	0,1	0,141142
0,545833	0,1	0,107916
0,547500	0,1	0,142580
0,549167	0,1	0,119318
0,550833	0,1	0,129311
0,552500	0,1	0,129296
0,554167	0,1	0,103254
0,555833	0,1	0,118733
0,557500	0,1	0,112506
0,559167	0,1	0,151435
0,560833	0,1	0,108622
0,562500	0,1	0,158245
0,564167	0,1	0,129444
0,565833	0,1	0,130683
0,567500	0,1	0,132875
0,569167	0,1	0,128278
0,570833	0,1	0,139933
0,572500	0,1	0,127683
0,574167	0,1	0,144133
0,575833	0,1	0,147698
0,577500	0,1	0,146395
0,579167	0,1	0,125098
0,580833	0,1	0,147014
0,582500	0,1	0,114746
0,584167	0,1	0,122729
0,585833	0,1	0,137530
0,587500	0,1	0,166076
0,589167	0,1	0,146629
0,590833	0,1	0,128800
0,592500	0,1	0,137470
0,594167	0,1	0,105330
0,595833	0,1	0,108031
0,597500	0,1	0,131648
0,599167	0,1	0,121220
0,600833	0,1	0,157359
0,602500	0,1	0,145715
0,604167	0,1	0,156994
0,605833	0,1	0,146294
0,607500	0,1	0,125777
0,609167	0,1	0,147508
0,610833	0,1	0,135631
0,612500	0,1	0,155685
0,614167	0,1	0,126668
0,615833	0,1	0,148934
0,617500	0,1	0,165357
0,619167	0,1	0,156068
0,620833	0,1	0,162895
0,622500	0,1	0,147721
0,624167	0,1	0,171340
0,625833	0,1	0,108294
0,627500	0,1	0,194679
0,629167	0,1	0,147502
0,630833	0,1	0,144509
0,632500	0,1	0,163470
0,634167	0,1	0,172583
0,635833	0,1	0,125869
0,637500	0,1	0,133602
0,639167	0,1	0,193876
0,640833	0,1	0,135334
0,642500	0,1	0,171585
0,644167	0,1	0,182812
0,645833	0,1	0,145306
0,647500	0,1	0,162604
0,649167	0,1	0,161590
0,650833	0,1	0,135614
0,652500	0,1	0,186653
0,654167	0,1	0,180993
0,655833	0,1	0,196247
0,657500	0,1	0,192381
0,659167	0,1	0,185508
0,660833	0,1	0,167641
0,662500	0,1	0,209099
0,664167	0,1	0,215673
0,665833	0,1	0,172844
0,667500	0,1	0,154619
0,669167	0,1	0,183905
0,670833	0,1	0,181944
0,672500	0,1	0,213988
0,674167	0,1	0,188681
0,675833	0,1	0,148660
0,677500	0,1	0,192017
0,679167	0,1	0,213578
0,680833	0,1	0,218219
0,682500	0,1	0,231262
0,684167	0,1	0,212987
0,685833	0,1	0,239439
0,687500	0,1	0,213134
0,689167	0,1	0,192302
0,690833	0,1	0,201219
0,692500	0,1	0,221592
0,694167	0,1	0,211763
0,695833	0,1	0,211140
0,697500	0,1	0,207951
0,699167	0,1	0,208840
0,700833	0,1	0,223250
0,702500	0,1	0,246750
0,704167	0,1	0,230711
0,705833	0,1	0,210191
0,707500	0,1	0,246354
0,709167	0,1	0,208104
0,710833	0,1	0,242212
0,712500	0,1	0,270273
0,714167	0,1	0,178467
0,715833	0,1	0,208358
0,717500	0,1	0,219957
0,719167	0,1	0,238593
0,720833	0,1	0,254744
0,722500	0,1	0,247999
0,724167	0,1	0,236963
0,725833	0,1	0,262819
0,727500	0,1	0,294543
0,729167	0,1	0,228507
0,730833	0,1	0,297206
0,732500	0,1	0,248425
0,734167	0,1	0,247169
0,735833	0,1	0,239366
0,737500	0,1	0,249757
0,739167	0,1	0,243113
0,740833	0,1	0,293171
0,742500	0,1	0,301322
0,744167	0,1	0,263518
0,745833	0,1	0,282865
0,747500	0,1	0,238441
0,749167	0,1	0,272489
0,750833	0,1	0,277153
0,752500	0,1	0,283409
0,754167	0,1	0,299644
0,755833	0,1	0,257492
0,757500	0,1	0,281705
0,759167	0,1	0,283761
0,760833	0,1	0,282644
0,762500	0,1	0,263576
0,764167	0,1	0,287296
0,765833	0,1	0,270863
0,767500	0,1	0,242312
0,769167	0,1	0,295533
0,770833	0,1	0,294676
0,772500	0,1	0,300306
0,774167	0,1	0,250702
0,775833	0,1	0,257376
0,777500	0,1	0,272202
0,779167	0,1	0,283117
0,780833	0,1	0,247593
0,782500	0,1	0,265202
0,784167	0,1	0,250881
0,785833	0,1	0,285203
0,787500	0,1	0,289767
0,789167	0,1	0,251508
0,790833	0,1	0,273502
0,792500	0,1	0,271689
0,794167	0,1	0,237280
0,795833	0,1	0,271516
0,797500	0,1	0,263220
0,799167	0,1	0,301582
0,800833	0,1	0,217807
0,802500	0,1	0,252525
0,804167	0,1	0,253133
0,805833	0,1	0,270504
0,807500	0,1	0,278210
0,809167	0,1	0,280138
0,810833	0,1	0,248814
0,812500	0,1	0,268430
0,814167	0,1	0,264752
0,815833	0,1	0,272471
0,817500	0,1	0,254009
0,819167	0,1	0,242099
0,820833	0,1	0,286860
0,822500	0,1	0,274880
0,824167	0,1	0,255355
0,825833	0,1	0,242472
0,827500	0,1	0,244705
0,829167	0,1	0,249572
0,830833	0,1	0,228227
0,832500	0,1	0,247744
0,834167	0,1	0,239117
0,835833	0,1	0,261100
0,837500	0,1	0,218086
0,839167	0,1	0,232339
0,840833	0,1	0,271118
0,842500	0,1	0,261812
0,844167	0,1	0,247752
0,845833	0,1	0,231373
0,847500	0,1	0,238449
0,849167	0,1	0,271181
0,850833	0,1	0,226183
0,852500	0,1	0,259917
0,854167	0,1	0,261086
0,855833	0,1	0,258083
0,857500	0,1	0,255040
0,859167	0,1	0,248745
0,860833	0,1	0,276835
0,862500	0,1	0,255787
0,864167	0,1	0,277957
0,865833	0,1	0,251794
0,867500	0,1	0,233280
0,869167	0,1	0,256049
0,870833	0,1	0,267834
0,872500	0,1	0,226928
0,874167	0,1	0,276355
0,875833	0,1	0,260529
0,877500	0,1	0,218563
0,879167	0,1	0,249958
0,880833	0,1	0,277439
0,882500	0,1	0,276450
0,884167	0,1	0,256701
0,885833	0,1	0,276695
0,887500	0,1	0,241485
0,889167	0,1	0,253461
0,890833	0,1	0,257315
0,892500	0,1	0,281274
0,894167	0,1	0,280138
0,895833	0,1	0,240821
0,897500	0,1	0,276878
0,899167	0,1	0,312785
0,900833	0,1	0,304224
0,902500	0,1	0,289026
0,904167	0,1	0,267137
0,905833	0,1	0,304525
0,907500	0,1	0,270062
0,909167	0,1	0,276927
0,910833	0,1	0,292912
0,912500	0,1	0,268775
0,914167	0,1	0,304939
0,915833	0,1	0,282171
0,917500	0,1	0,288420
0,919167	0,1	0,296891
0,920833	0,1	0,284923
0,922500	0,1	0,247139
0,924167	0,1	0,268247
0,925833	0,1	0,277152
0,927500	0,1	0,299806
0,929167	0,1	0,293167
0,930833	0,1	0,351845
0,932500	0,1	0,307568
0,934167	0,1	0,304393
0,935833	0,1	0,260785
0,937500	0,1	0,304750
0,939167	0,1	0,317348
0,940833	0,1	0,335615
0,942500	0,1	0,316901
0,944167	0,1	0,359779
0,945833	0,1	0,322395
0,947500	0,1	0,311020
0,949167	0,1	0,314202
0,950833	0,1	0,335676
0,952500	0,1	0,340009
0,954167	0,1	0,322140
0,955833	0,1	0,323921
0,957500	0,1	0,367031
0,959167	0,1	0,343252
0,960833	0,1	0,337897
0,962500	0,1	0,303384
0,964167	0,1	0,328738
0,965833	0,1	0,328807
0,967500	0,1	0,319946
0,969167	0,1	0,326009
0,970833	0,1	0,363570
0,972500	0,1	0,339399
0,974167	0,1	0,365360
0,975833	0,1	0,369697
0,977500	0,1	0,337475
0,979167	0,1	0,378590
0,980833	0,1	0,370819
0,982500	0,1	0,408709
0,984167	0,1	0,380698
0,985833	0,1	0,351224
0,987500	0,1	0,383957
0,989167	0,1	0,356697
0,990833	0,1	0,413037
0,992500	0,1	0,390289
0,994167	0,1	0,366202
0,995833	0,1	0,397178
0,997500	0,1	0,423860
0,999167	0,1	0,408433
1,000833	0,1	0,443577
1,002500	0,1	0,424903
1,004167	0,1	0,472577
1,005833	0,1	0,419611
1,007500	0,1	0,458411
1,009167	0,1	0,445228
1,010833	0,1	0,453771
1,012500	0,1	0,457100
1,014167	0,1	0,484304
1,015833	0,1	0,484627
1,017500	0,1	0,513490
1,019167	0,1	0,486399
1,020833	0,1	0,504273
1,022500	0,1	0,539542
1,024167	0,1	0,482236
1,025833	0,1	0,500393
1,027500	0,1	0,514488
1,029167	0,1	0,560641
1,030833	0,1	0,558083
1,032500	0,1	0,609528
1,034167	0,1	0,603760
1,035833	0,1	0,608833
1,037500	0,1	0,571286
1,039167	0,1	0,561388
1,040833	0,1	0,611584
1,042500	0,1	0,626658
1,044167	0,1	0,628847
1,045833	0,1	0,635335
1,047500	0,1	0,608163
1,049167	0,1	0,633048
1,050833	0,1	0,674490
1,052500	0,1	0,681887
1,054167	0,1	0,705146
1,055833	0,1	0,740875
1,057500	0,1	0,741300
1,059167	0,1	0,840969
1,060833	0,1	0,862592
1,062500	0,1	0,979250
1,064167	0,1	1,108842
1,065833	0,1	1,273485
1,067500	0,1	1,473685
1,069167	0,1	1,681889
1,070833	0,1	2,021979
1,072500	0,1	2,458196
1,074167	0,1	2,894667
1,075833	0,1	3,465527
1,077500	0,1	4,197630
1,079167	0,1	4,974518
1,080833	0,1	5,895505
1,082500	0,1	7,016350
1,084167	0,1	8,153210
1,085833	0,1	9,453590
1,087500	0,1	10,888883
1,089167	0,1	12,415609
1,090833	0,1	13,987709
1,092500	0,1	15,696267
1,094167	0,1	17,397534
1,095833	0,1	19,101356
1,097500	0,1	20,874159
1,099167	0,1	22,535561
1,100833	0,1	24,130850
1,102500	0,1	25,631756
1,104167	0,1	27,080035
1,105833	0,1	28,346449
1,107500	0,1	29,487615
1,109167	0,1	30,499810
1,110833	0,1	31,364420
1,112500	0,1	31,998251
1,114167	0,1	32,529185
1,115833	0,1	32,973417
1,117500	0,1	33,170184
1,119167	0,1	33,310060
1,120833	0,1	33,367991
1,122500	0,1	33,330059
1,124167	0,1	33,191333
1,125833	0,1	33,009694
1,127500	0,1	32,802454
1,129167	0,1	32,511496
1,130833	0,1	32,278015
1,132500	0,1	31,982209
1,134167	0,1	31,699568
1,135833	0,1	31,472179
1,137500	0,1	31,210969
1,139167	0,1	31,032923
1,140833	0,1	30,906339
1,142500	0,1	30,824360
1,144167	0,1	30,853708
1,145833	0,1	30,921369
1,147500	0,1	31,087534
1,149167	0,1	31,344808
1,150833	0,1	31,609172
1,152500	0,1	32,007702
1,154167	0,1	32,514396
1,155833	0,1	33,009826
1,157500	0,1	33,640453
1,159167	0,1	34,294521
1,160833	0,1	35,001294
1,162500	0,1	35,731180
1,164167	0,1	36,487650
1,165833	0,1	37,261727
1,167500	0,1	38,015502
1,169167	0,1	38,784104
1,170833	0,1	39,513668
1,172500	0,1	40,283448
1,174167	0,1	40,965652
1,175833	0,1	41,585945
1,177500	0,1	42,149180
1,179167	0,1	42,709087
1,180833	0,1	43,186249
1,182500	0,1	43,583620
1,184167	0,1	43,948400
1,185833	0,1	44,228256
1,187500	0,1	44,479628
1,189167	0,1	44,719891
1,190833	0,1	44,842527
1,192500	0,1	45,022797
1,194167	0,1	45,134572
1,195833	0,1	45,283625
1,197500	0,1	45,490335
1,199167	0,1	45,776255
1,200833	0,1	46,076378
1,202500	0,1	46,503289
1,204167	0,1	47,000319
1,205833	0,1	47,741534
1,207500	0,1	48,607308
1,209167	0,1	49,660372
1,210833	0,1	50,854673
1,212500	0,1	52,307775
1,214167	0,1	53,966182
1,215833	0,1	55,789456
1,217500	0,1	57,861398
1,219167	0,1	60,142905
1,220833	0,1	62,572382
1,222500	0,1	65,172147
1,224167	0,1	67,966817
1,225833	0,1	70,798469
1,227500	0,1	73,713674
1,229167	0,1	76,698577
1,230833	0,1	79,633639
1,232500	0,1	82,590654
1,234167	0,1	85,437839
1,235833	0,1	88,210126
1,237500	0,1	90,898419
1,239167	0,1	93,364813
1,240833	0,1	95,721841
1,242500	0,1	97,880666
1,244167	0,1	99,842571
1,245833	0,1	101,587826
1,247500	0,1	103,125249
1,249167	0,1	104,353433
1,250833	0,1	105,402246
1,252500	0,1	106,137375
1,254167	0,1	106,681710
1,255833	0,1	107,056868
1,257500	0,1	107,139149
1,259167	0,1	106,982813
1,260833	0,1	106,629954
1,262500	0,1	106,019498
1,264167	0,1	105,274694
1,265833	0,1	104,283344
1,267500	0,1	103,128033
1,269167	0,1	101,743077
1,270833	0,1	100,242572
1,272500	0,1	98,592698
1,274167	0,1	96,807648
1,275833	0,1	94,901059
1,277500	0,1	92,886040
1,279167	0,1	90,782925
1,280833	0,1	88,624822
1,282500	0,1	86,395950
1,284167	0,1	84,128237
1,285833	0,1	81,797310
1,287500	0,1	79,463274
1,289167	0,1	77,129784
1,290833	0,1	74,762013
1,292500	0,1	72,469550
1,294167	0,1	70,135211
1,295833	0,1	67,936665
1,297500	0,1	65,730519
1,299167	0,1	63,542312
1,300833	0,1	61,438188
1,302500	0,1	59,344142
1,304167	0,1	57,418914
1,305833	0,1	55,455527
1,307500	0,1	53,594515
1,309167	0,1	51,770350
1,310833	0,1	50,100308
1,312500	0,1	48,413940
1,314167	0,1	46,798121
1,315833	0,1	45,251340
1,317500	0,1	43,852557
1,319167	0,1	42,393893
1,320833	0,1	41,091871
1,322500	0,1	39,761533
1,324167	0,1	38,547618
1,325833	0,1	37,344001
1,327500	0,1	36,256029
1,329167	0,1	35,134816
1,330833	0,1	34,093700
1,332500	0,1	33,066428
1,334167	0,1	32,137176
1,335833	0,1	31,192163
1,337500	0,1	30,317074
1,339167	0,1	29,436654
1,340833	0,1	28,611933
1,342500	0,1	27,794877
1,344167	0,1	27,065351
1,345833	0,1	26,340515
1,347500	0,1	25,611373
1,349167	0,1	24,928706
1,350833	0,1	24,202807
1,352500	0,1	23,586508
1,354167	0,1	22,966052
1,355833	0,1	22,384972
1,357500	0,1	21,807862
1,359167	0,1	21,229124
1,360833	0,1	20,687569
1,362500	0,1	20,164789
1,364167	0,1	19,634510
1,365833	0,1	19,111189
1,367500	0,1	18,647755
1,369167	0,1	18,142506
1,370833	0,1	17,672136
1,372500	0,1	17,253713
1,374167	0,1	16,776804
1,375833	0,1	16,384056
1,377500	0,1	16,012039
1,379167	0,1	15,608564
1,380833	0,1	15,236011
1,382500	0,1	14,862353
1,384167	0,1	14,498270
1,385833	0,1	14,141631
1,387500	0,1	13,834370
1,389167	0,1	13,458139
1,390833	0,1	13,174243
1,392500	0,1	12,870467
1,394167	0,1	12,552185
1,395833	0,1	12,299475
1,397500	0,1	12,019914
1,399167	0,1	11,752129
1,400833	0,1	11,527829
1,402500	0,1	11,267776
1,404167	0,1	11,080473
1,405833	0,1	10,797534
1,407500	0,1	10,562727
1,409167	0,1	10,350694
1,410833	0,1	10,162839
1,412500	0,1	10,015508
1,414167	0,1	9,776758
1,415833	0,1	9,632388
1,417500	0,1	9,447907
1,419167	0,1	9,271417
1,420833	0,1	9,121658
1,422500	0,1	8,963409
1,424167	0,1	8,802797
1,425833	0,1	8,693693
1,427500	0,1	8,565071
1,429167	0,1	8,390541
1,430833	0,1	8,230979
1,432500	0,1	8,141152
1,434167	0,1	8,005806
1,435833	0,1	7,927427
1,437500	0,1	7,779901
1,439167	0,1	7,668613
1,440833	0,1	7,584192
1,442500	0,1	7,453729
1,444167	0,1	7,353498
1,445833	0,1	7,263829
1,447500	0,1	7,180328
1,449167	0,1	7,079615
1,450833	0,1	6,947356
1,452500	0,1	6,865020
1,454167	0,1	6,765024
1,455833	0,1	6,696501
1,457500	0,1	6,606327
1,459167	0,1	6,529373
1,460833	0,1	6,440987
1,462500	0,1	6,360729
1,464167	0,1	6,264273
1,465833	0,1	6,234510
1,467500	0,1	6,155685
1,469167	0,1	6,079834
1,470833	0,1	6,030505
1,472500	0,1	5,992386
1,474167	0,1	5,907104
1,475833	0,1	5,829890
1,477500	0,1	5,784129
1,479167	0,1	5,758227
1,480833	0,1	5,711360
1,482500	0,1	5,688710
1,484167	0,1	5,672848
1,485833	0,1	5,628438
1,487500	0,1	5,618383
1,489167	0,1	5,518821
1,490833	0,1	5,526078
1,492500	0,1	5,503772
1,494167	0,1	5,470526
1,495833	0,1	5,459818
1,497500	0,1	5,453176
1,499167	0,1	5,404350
1,500833	0,1	5,429046
1,502500	0,1	5,406182
1,504167	0,1	5,365602
1,505833	0,1	5,376686
1,507500	0,1	5,367767
1,509167	0,1	5,364093
1,510833	0,1	5,366210
1,512500	0,1	5,370555
1,514167	0,1	5,322365
1,515833	0,1	5,350924
1,517500	0,1	5,316092
1,519167	0,1	5,325993
1,520833	0,1	5,320520
1,522500	0,1	5,335395
1,524167	0,1	5,295225
1,525833	0,1	5,321218
1,527500	0,1	5,302987
1,529167	0,1	5,250587
1,530833	0,1	5,268896
1,532500	0,1	5,252019
1,534167	0,1	5,243772
1,535833	0,1	5,253819
1,537500	0,1	5,264182
1,539167	0,1	5,239795
1,540833	0,1	5,169341
1,542500	0,1	5,190970
1,544167	0,1	5,180311
1,545833	0,1	5,160155
1,547500	0,1	5,097192
1,549167	0,1	5,094552
1,550833	0,1	5,098904
1,552500	0,1	5,070569
1,554167	0,1	5,078664
1,555833	0,1	5,042108
1,557500	0,1	5,069291
1,559167	0,1	4,979967
1,560833	0,1	4,990611
1,562500	0,1	4,965458
1,564167	0,1	4,937421
1,565833	0,1	4,903862
1,567500	0,1	4,902474
1,569167	0,1	4,875063
1,570833	0,1	4,835254
1,572500	0,1	4,836059
1,574167	0,1	4,850269
1,575833	0,1	4,748709
1,577500	0,1	4,737047
1,579167	0,1	4,725207
1,580833	0,1	4,696712
1,582500	0,1	4,673692
1,584167	0,1	4,655330
1,585833	0,1	4,653298
1,587500	0,1	4,588028
1,589167	0,1	4,568277
1,590833	0,1	4,570946
1,592500	0,1	4,539148
1,594167	0,1	4,508998
1,595833	0,1	4,457834
1,597500	0,1	4,439637
1,599167	0,1	4,442387
1,600833	0,1	4,377466
1,602500	0,1	4,380975
1,604167	0,1	4,346923
1,605833	0,1	4,308205
1,607500	0,1	4,321276
1,609167	0,1	4,303382
1,610833	0,1	4,255122
1,612500	0,1	4,215228
1,614167	0,1	4,213161
1,615833	0,1	4,168019
1,617500	0,1	4,161532
1,619167	0,1	4,134537
1,620833	0,1	4,110254
1,622500	0,1	4,075725
1,624167	0,1	4,064300
1,625833	0,1	4,009062
1,627500	0,1	4,006159
1,629167	0,1	3,963577
1,630833	0,1	3,987849
1,632500	0,1	3,930650
1,634167	0,1	3,925495
1,635833	0,1	3,880267
1,637500	0,1	3,862598
1,639167	0,1	3,881263
1,640833	0,1	3,849792
1,642500	0,1	3,819340
1,644167	0,1	3,809577
1,645833	0,1	3,764929
1,647500	0,1	3,782879
1,649167	0,1	3,738084
1,650833	0,1	3,762451
1,652500	0,1	3,750889
1,654167	0,1	3,709689
1,655833	0,1	3,714544
1,657500	0,1	3,699690
1,659167	0,1	3,693218
1,660833	0,1	3,653164
1,662500	0,1	3,685160
1,664167	0,1	3,692749
1,665833	0,1	3,721086
1,667500	0,1	3,695733
1,669167	0,1	3,660303
1,670833	0,1	3,697531
1,672500	0,1	3,678055
1,674167	0,1	3,711740
1,675833	0,1	3,764180
1,677500	0,1	3,755029
1,679167	0,1	3,749465
1,680833	0,1	3,739501
1,682500	0,1	3,807851
1,684167	0,1	3,846743
1,685833	0,1	3,897989
1,687500	0,1	3,935274
1,689167	0,1	3,967680
1,690833	0,1	3,980175
1,692500	0,1	4,051772
1,694167	0,1	4,084775
1,695833	0,1	4,118648
1,697500	0,1	4,210261
1,699167	0,1	4,217000
1,700833	0,1	4,284651
1,702500	0,1	4,328151
1,704167	0,1	4,362214
1,705833	0,1	4,440868
1,707500	0,1	4,461787
1,709167	0,1	4,519191
1,710833	0,1	4,578473
1,712500	0,1	4,600567
1,714167	0,1	4,668838
1,715833	0,1	4,723245
1,717500	0,1	4,721724
1,719167	0,1	4,769310
1,720833	0,1	4,857953
1,722500	0,1	4,858388
1,724167	0,1	4,896260
1,725833	0,1	4,964638
1,727500	0,1	4,995131
1,729167	0,1	4,992311
1,730833	0,1	5,051778
1,732500	0,1	5,082637
1,734167	0,1	5,121387
1,735833	0,1	5,098346
1,737500	0,1	5,086899
1,739167	0,1	5,148197
1,740833	0,1	5,162102
1,742500	0,1	5,134640
1,744167	0,1	5,142955
1,745833	0,1	5,149624
1,747500	0,1	5,128711
1,749167	0,1	5,113946
1,750833	0,1	5,075902
1,752500	0,1	5,098083
1,754167	0,1	5,040751
1,755833	0,1	5,052134
1,757500	0,1	5,045731
1,759167	0,1	5,014351
1,760833	0,1	4,987042
1,762500	0,1	4,925132
1,764167	0,1	4,952599
1,765833	0,1	4,894751
1,767500	0,1	4,858361
1,769167	0,1	4,822467
1,770833	0,1	4,728508
1,772500	0,1	4,725170
1,774167	0,1	4,688967
1,775833	0,1	4,648568
1,777500	0,1	4,592234
1,779167	0,1	4,581972
1,780833	0,1	4,532704
1,782500	0,1	4,444192
1,784167	0,1	4,438702
1,785833	0,1	4,316361
1,787500	0,1	4,300831
1,789167	0,1	4,227022
1,790833	0,1	4,152197
1,792500	0,1	4,127662
1,794167	0,1	4,069902
1,795833	0,1	4,013121
1,797500	0,1	4,001613
1,799167	0,1	3,898152
1,800833	0,1	3,843737
1,802500	0,1	3,790015
1,804167	0,1	3,726388
1,805833	0,1	3,682590
1,807500	0,1	3,584834
1,809167	0,1	3,547039
1,810833	0,1	3,472839
1,812500	0,1	3,433833
1,814167	0,1	3,427415
1,815833	0,1	3,332407
1,817500	0,1	3,305751
1,819167	0,1	3,240376
1,820833	0,1	3,167166
1,822500	0,1	3,129373
1,824167	0,1	3,098188
1,825833	0,1	3,046640
1,827500	0,1	3,012296
1,829167	0,1	2,950313
1,830833	0,1	2,971261
1,832500	0,1	2,904825
1,834167	0,1	2,853726
1,835833	0,1	2,830774
1,837500	0,1	2,853727
1,839167	0,1	2,838717
1,840833	0,1	2,809956
1,842500	0,1	2,805714
1,844167	0,1	2,801073
1,845833	0,1	2,814971
1,847500	0,1	2,816340
1,849167	0,1	2,825452
1,850833	0,1	2,900830
1,852500	0,1	2,932353
1,854167	0,1	2,882171
1,855833	0,1	2,921380
1,857500	0,1	2,996527
1,859167	0,1	2,997752
1,860833	0,1	3,049361
1,862500	0,1	3,099564
1,864167	0,1	3,114407
1,865833	0,1	3,142507
1,867500	0,1	3,210041
1,869167	0,1	3,268823
1,870833	0,1	3,274370
1,872500	0,1	3,304844
1,874167	0,1	3,365743
1,875833	0,1	3,379198
1,877500	0,1	3,418122
1,879167	0,1	3,456964
1,880833	0,1	3,462069
1,882500	0,1	3,509535
1,884167	0,1	3,540037
1,885833	0,1	3,531945
1,887500	0,1	3,599596
1,889167	0,1	3,605481
1,890833	0,1	3,664914
1,892500	0,1	3,670646
1,894167	0,1	3,664748
1,895833	0,1	3,704570
1,897500	0,1	3,750747
1,899167	0,1	3,748350
1,900833	0,1	3,803786
1,902500	0,1	3,817986
1,904167	0,1	3,845481
1,905833	0,1	3,857961
1,907500	0,1	3,866670
1,909167	0,1	3,879479
1,910833	0,1	3,900476
1,912500	0,1	3,961735
1,914167	0,1	3,967986
1,915833	0,1	3,958389
1,917500	0,1	4,006572
1,919167	0,1	3,986785
1,920833	0,1	4,016007
1,922500	0,1	4,044862
1,924167	0,1	4,035158
1,925833	0,1	4,042958
1,927500	0,1	4,037543
1,929167	0,1	4,071143
1,930833	0,1	4,053750
1,932500	0,1	4,055072
1,934167	0,1	4,056718
1,935833	0,1	4,056243
1,937500	0,1	4,090413
1,939167	0,1	4,121125
1,940833	0,1	4,071626
1,942500	0,1	4,122542
1,944167	0,1	4,125892
1,945833	0,1	4,173633
1,947500	0,1	4,096494
1,949167	0,1	4,141041
1,950833	0,1	4,135531
1,952500	0,1	4,170387
1,954167	0,1	4,197880
1,955833	0,1	4,151144
1,957500	0,1	4,187024
1,959167	0,1	4,213596
1,960833	0,1	4,178746
1,962500	0,1	4,198370
1,964167	0,1	4,226305
1,965833	0,1	4,229187
1,967500	0,1	4,246764
1,969167	0,1	4,227764
1,970833	0,1	4,283031
1,972500	0,1	4,284061
1,974167	0,1	4,360786
1,975833	0,1	4,306265
1,977500	0,1	4,362941
1,979167	0,1	4,366271
1,980833	0,1	4,416407
1,982500	0,1	4,405647
1,984167	0,1	4,443552
1,985833	0,1	4,489859
1,987500	0,1	4,437335
1,989167	0,1	4,505936
1,990833	0,1	4,482259
1,992500	0,1	4,556584
1,994167	0,1	4,546879
1,995833	0,1	4,611499
1,997500	0,1	4,567231
1,999167	0,1	4,656840
2,000833	0,1	4,676557
2,002500	0,1	4,728062
2,004167	0,1	4,706565
2,005833	0,1	4,780028
2,007500	0,1	4,750473
2,009167	0,1	4,861722
2,010833	0,1	4,830145
2,012500	0,1	4,865233
2,014167	0,1	4,908786
2,015833	0,1	4,949334
2,017500	0,1	4,969276
2,019167	0,1	5,002968
2,020833	0,1	5,015073
2,022500	0,1	5,100916
2,024167	0,1	5,124637
2,025833	0,1	5,147076
2,027500	0,1	5,156308
2,029167	0,1	5,153622
2,030833	0,1	5,260293
2,032500	0,1	5,308194
2,034167	0,1	5,311086
2,035833	0,1	5,344853
2,037500	0,1	5,416947
2,039167	0,1	5,432552
2,040833	0,1	5,444930
2,042500	0,1	5,507172
2,044167	0,1	5,542377
2,045833	0,1	5,614808
2,047500	0,1	5,594700
2,049167	0,1	5,656925
2,050833	0,1	5,706634
2,052500	0,1	5,755674
2,054167	0,1	5,811807
2,055833	0,1	5,816110
2,057500	0,1	5,845928
2,059167	0,1	5,935679
2,060833	0,1	5,924909
2,062500	0,1	6,022873
2,064167	0,1	6,028892
2,065833	0,1	6,039442
2,067500	0,1	6,109778
2,069167	0,1	6,135430
2,070833	0,1	6,166722
2,072500	0,1	6,172141
2,074167	0,1	6,284060
2,075833	0,1	6,268174
2,077500	0,1	6,302852
2,079167	0,1	6,300231
2,080833	0,1	6,365723
2,082500	0,1	6,396803
2,084167	0,1	6,452134
2,085833	0,1	6,463575
2,087500	0,1	6,492684
2,089167	0,1	6,500315
2,090833	0,1	6,576692
2,092500	0,1	6,532692
2,094167	0,1	6,621744
2,095833	0,1	6,649771
2,097500	0,1	6,624189
2,099167	0,1	6,667176
2,100833	0,1	6,684388
2,102500	0,1	6,704318
2,104167	0,1	6,750934
2,105833	0,1	6,735505
2,107500	0,1	6,803159
2,109167	0,1	6,777765
2,110833	0,1	6,825425
2,112500	0,1	6,785207
2,114167	0,1	6,826807
2,115833	0,1	6,888557
2,117500	0,1	6,887068
2,119167	0,1	6,864819
2,120833	0,1	6,906424
2,122500	0,1	6,922824
2,124167	0,1	6,934477
2,125833	0,1	6,931575
2,127500	0,1	6,947039
2,129167	0,1	6,965482
2,130833	0,1	6,936152
2,132500	0,1	6,934938
2,134167	0,1	6,942008
2,135833	0,1	6,986893
2,137500	0,1	6,979646
2,139167	0,1	6,960922
2,140833	0,1	6,978054
2,142500	0,1	6,962877
2,144167	0,1	6,976469
2,145833	0,1	6,954496
2,147500	0,1	6,944988
2,149167	0,1	6,983726
2,150833	0,1	6,947326
2,152500	0,1	6,988475
2,154167	0,1	6,966789
2,155833	0,1	6,936244
2,157500	0,1	6,969747
2,159167	0,1	6,914359
2,160833	0,1	6,945361
2,162500	0,1	6,886705
2,164167	0,1	6,885480
2,165833	0,1	6,886591
2,167500	0,1	6,882508
2,169167	0,1	6,903545
2,170833	0,1	6,855975
2,172500	0,1	6,867877
2,174167	0,1	6,870774
2,175833	0,1	6,871435
2,177500	0,1	6,848626
2,179167	0,1	6,783715
2,180833	0,1	6,792090
2,182500	0,1	6,753097
2,184167	0,1	6,755324
2,185833	0,1	6,709240
2,187500	0,1	6,738185
2,189167	0,1	6,701993
2,190833	0,1	6,664462
2,192500	0,1	6,723107
2,194167	0,1	6,664588
2,195833	0,1	6,636664
2,197500	0,1	6,586396
2,199167	0,1	6,625006
2,200833	0,1	6,590697
2,202500	0,1	6,534378
2,204167	0,1	6,596446
2,205833	0,1	6,541652
2,207500	0,1	6,522744
2,209167	0,1	6,537826
2,210833	0,1	6,473652
2,212500	0,1	6,437998
2,214167	0,1	6,441907
2,215833	0,1	6,433613
2,217500	0,1	6,424105
2,219167	0,1	6,404695
2,220833	0,1	6,405185
2,222500	0,1	6,425333
2,224167	0,1	6,396615
2,225833	0,1	6,344615
2,227500	0,1	6,344231
2,229167	0,1	6,345646
2,230833	0,1	6,356890
2,232500	0,1	6,334699
2,234167	0,1	6,300533
2,235833	0,1	6,306842
2,237500	0,1	6,273844
2,239167	0,1	6,293359
2,240833	0,1	6,275157
2,242500	0,1	6,242039
2,244167	0,1	6,260650
2,245833	0,1	6,239076
2,247500	0,1	6,227908
2,249167	0,1	6,227768
2,250833	0,1	6,216932
2,252500	0,1	6,237663
2,254167	0,1	6,192666
2,255833	0,1	6,199533
2,257500	0,1	6,193721
2,259167	0,1	6,203746
2,260833	0,1	6,201457
2,262500	0,1	6,154448
2,264167	0,1	6,117178
2,265833	0,1	6,124904
2,267500	0,1	6,093575
2,269167	0,1	6,072840
2,270833	0,1	6,097186
2,272500	0,1	6,140083
2,274167	0,1	6,071848
2,275833	0,1	6,057628
2,277500	0,1	6,089688
2,279167	0,1	6,050213
2,280833	0,1	6,022219
2,282500	0,1	6,004900
2,284167	0,1	6,031122
2,285833	0,1	5,990822
2,287500	0,1	5,979984
2,289167	0,1	5,927995
2,290833	0,1	5,904170
2,292500	0,1	5,947292
2,294167	0,1	5,925474
2,295833	0,1	5,880091
2,297500	0,1	5,909978
2,299167	0,1	5,857217
2,300833	0,1	5,870905
2,302500	0,1	5,852617
2,304167	0,1	5,789467
2,305833	0,1	5,795756
2,307500	0,1	5,763820
2,309167	0,1	5,786952
2,310833	0,1	5,734591
2,312500	0,1	5,719000
2,314167	0,1	5,695643
2,315833	0,1	5,692325
2,317500	0,1	5,689724
2,319167	0,1	5,689724
2,320833	0,1	5,655130
2,322500	0,1	5,612057
2,324167	0,1	5,620016
2,325833	0,1	5,630486
2,327500	0,1	5,604411
2,329167	0,1	5,599293
2,330833	0,1	5,559133
2,332500	0,1	5,566293
2,334167	0,1	5,545493
2,335833	0,1	5,509426
2,337500	0,1	5,528171
2,339167	0,1	5,451757
2,340833	0,1	5,472267
2,342500	0,1	5,448684
2,344167	0,1	5,463395
2,345833	0,1	5,482714
2,347500	0,1	5,406423
2,349167	0,1	5,387708
2,350833	0,1	5,420400
2,352500	0,1	5,390220
2,354167	0,1	5,362606
2,355833	0,1	5,319906
2,357500	0,1	5,354201
2,359167	0,1	5,364484
2,360833	0,1	5,331878
2,362500	0,1	5,300758
2,364167	0,1	5,301289
2,365833	0,1	5,302924
2,367500	0,1	5,278449
2,369167	0,1	5,296566
2,370833	0,1	5,306792
2,372500	0,1	5,297816
2,374167	0,1	5,242795
2,375833	0,1	5,266155
2,377500	0,1	5,252303
2,379167	0,1	5,237368
2,380833	0,1	5,273099
2,382500	0,1	5,257299
2,384167	0,1	5,276688
2,385833	0,1	5,270539
2,387500	0,1	5,259697
2,389167	0,1	5,317454
2,390833	0,1	5,359141
2,392500	0,1	5,367735
2,394167	0,1	5,401902
2,395833	0,1	5,421086
2,397500	0,1	5,460336
2,399167	0,1	5,518220
2,400833	0,1	5,574755
2,402500	0,1	5,603270
2,404167	0,1	5,703371
2,405833	0,1	5,749324
2,407500	0,1	5,810698
2,409167	0,1	5,919222
2,410833	0,1	6,052774
2,412500	0,1	6,071618
2,414167	0,1	6,205669
2,415833	0,1	6,244996
2,417500	0,1	6,397133
2,419167	0,1	6,567561
2,420833	0,1	6,676002
2,422500	0,1	6,833582
2,424167	0,1	6,972809
2,425833	0,1	7,125297
2,427500	0,1	7,254643
2,429167	0,1	7,423166
2,430833	0,1	7,601935
2,432500	0,1	7,781608
2,434167	0,1	7,919228
2,435833	0,1	8,155176
2,437500	0,1	8,325868
2,439167	0,1	8,491006
2,440833	0,1	8,681860
2,442500	0,1	8,864792
2,444167	0,1	9,082056
2,445833	0,1	9,258088
2,447500	0,1	9,435466
2,449167	0,1	9,645326
2,450833	0,1	9,774701
2,452500	0,1	9,997630
2,454167	0,1	10,150751
2,455833	0,1	10,316677
2,457500	0,1	10,509971
2,459167	0,1	10,651876
2,460833	0,1	10,850259
2,462500	0,1	10,955655
2,464167	0,1	11,118636
2,465833	0,1	11,213439
2,467500	0,1	11,371734
2,469167	0,1	11,464189
2,470833	0,1	11,571620
2,472500	0,1	11,664289
2,474167	0,1	11,801499
2,475833	0,1	11,897472
2,477500	0,1	11,958623
2,479167	0,1	12,032290
2,480833	0,1	12,081759
2,482500	0,1	12,110330
2,484167	0,1	12,206066
2,485833	0,1	12,255765
2,487500	0,1	12,291367
2,489167	0,1	12,286524
2,490833	0,1	12,311597
2,492500	0,1	12,352558
2,494167	0,1	12,335799
2,495833	0,1	12,368712
2,497500	0,1	12,355445
2,499167	0,1	12,354742
2,500833	0,1	12,291041
2,502500	0,1	12,346767
2,504167	0,1	12,311263
2,505833	0,1	12,284511
2,507500	0,1	12,265797
2,509167	0,1	12,250190
2,510833	0,1	12,226128
2,512500	0,1	12,150758
2,514167	0,1	12,121337
2,515833	0,1	12,025377
2,517500	0,1	12,039413
2,519167	0,1	11,935222
2,520833	0,1	11,883802
2,522500	0,1	11,829614
2,524167	0,1	11,719315
2,525833	0,1	11,694134
2,527500	0,1	11,640372
2,529167	0,1	11,559052
2,530833	0,1	11,454531
2,532500	0,1	11,437575
2,534167	0,1	11,345016
2,535833	0,1	11,226274
2,537500	0,1	11,171787
2,539167	0,1	11,084080
2,540833	0,1	10,994424
2,542500	0,1	10,896768
2,544167	0,1	10,807902
2,545833	0,1	10,736646
2,547500	0,1	10,682610
2,549167	0,1	10,568716
2,550833	0,1	10,459926
2,552500	0,1	10,422124
2,554167	0,1	10,267838
2,555833	0,1	10,182928
2,557500	0,1	10,122180
2,559167	0,1	9,985284
2,560833	0,1	9,913802
2,562500	0,1	9,830832
2,564167	0,1	9,703622
2,565833	0,1	9,589856
2,567500	0,1	9,509245
2,569167	0,1	9,409203
2,570833	0,1	9,315314
2,572500	0,1	9,207099
2,574167	0,1	9,108994
2,575833	0,1	9,010074
2,577500	0,1	8,966277
2,579167	0,1	8,824525
2,580833	0,1	8,743002
2,582500	0,1	8,632535
2,584167	0,1	8,552092
2,585833	0,1	8,464501
2,587500	0,1	8,372466
2,589167	0,1	8,274107
2,590833	0,1	8,142873
2,592500	0,1	8,098555
2,594167	0,1	8,032936
2,595833	0,1	7,943777
2,597500	0,1	7,815564
2,599167	0,1	7,735690
2,600833	0,1	7,641830
2,602500	0,1	7,573920
2,604167	0,1	7,496890
2,605833	0,1	7,390794
2,607500	0,1	7,283593
2,609167	0,1	7,209027
2,610833	0,1	7,139700
2,612500	0,1	7,023351
2,614167	0,1	6,935887
2,615833	0,1	6,901508
2,617500	0,1	6,842015
2,619167	0,1	6,724062
2,620833	0,1	6,654621
2,622500	0,1	6,571248
2,624167	0,1	6,509269
2,625833	0,1	6,436906
2,627500	0,1	6,351337
2,629167	0,1	6,334841
2,630833	0,1	6,241224
2,632500	0,1	6,148810
2,634167	0,1	6,018834
2,635833	0,1	6,024867
2,637500	0,1	5,919936
2,639167	0,1	5,865981
2,640833	0,1	5,815230
2,642500	0,1	5,776477
2,644167	0,1	5,671071
2,645833	0,1	5,631859
2,647500	0,1	5,527135
2,649167	0,1	5,485215
2,650833	0,1	5,431242
2,652500	0,1	5,367440
2,654167	0,1	5,312343
2,655833	0,1	5,228800
2,657500	0,1	5,199907
2,659167	0,1	5,146416
2,660833	0,1	5,089036
2,662500	0,1	5,045342
2,664167	0,1	4,972009
2,665833	0,1	4,905950
2,667500	0,1	4,845640
2,669167	0,1	4,781651
2,670833	0,1	4,749268
2,672500	0,1	4,670424
2,674167	0,1	4,636691
2,675833	0,1	4,570844
2,677500	0,1	4,510505
2,679167	0,1	4,492629
2,680833	0,1	4,432842
2,682500	0,1	4,369893
2,684167	0,1	4,322904
2,685833	0,1	4,291716
2,687500	0,1	4,224989
2,689167	0,1	4,209950
2,690833	0,1	4,153043
2,692500	0,1	4,116834
2,694167	0,1	4,067832
2,695833	0,1	3,964758
2,697500	0,1	3,947982
2,699167	0,1	3,930852
2,700833	0,1	3,865472
2,702500	0,1	3,850541
2,704167	0,1	3,804564
2,705833	0,1	3,761591
2,707500	0,1	3,760232
2,709167	0,1	3,680631
2,710833	0,1	3,680639
2,712500	0,1	3,666330
2,714167	0,1	3,593752
2,715833	0,1	3,564687
2,717500	0,1	3,524708
2,719167	0,1	3,507138
2,720833	0,1	3,465850
2,722500	0,1	3,440701
2,724167	0,1	3,390663
2,725833	0,1	3,373008
2,727500	0,1	3,352546
2,729167	0,1	3,335430
2,730833	0,1	3,280318
2,732500	0,1	3,282528
2,734167	0,1	3,229536
2,735833	0,1	3,220989
2,737500	0,1	3,182382
2,739167	0,1	3,175459
2,740833	0,1	3,191041
2,742500	0,1	3,115015
2,744167	0,1	3,118587
2,745833	0,1	3,091229
2,747500	0,1	3,066825
2,749167	0,1	3,060374
2,750833	0,1	3,031279
2,752500	0,1	2,971291
2,754167	0,1	2,972307
2,755833	0,1	2,974124
2,757500	0,1	2,948663
2,759167	0,1	2,943714
2,760833	0,1	2,919235
2,762500	0,1	2,891125
2,764167	0,1	2,884374
2,765833	0,1	2,853518
2,767500	0,1	2,843188
2,769167	0,1	2,839810
2,770833	0,1	2,779196
2,772500	0,1	2,794953
2,774167	0,1	2,782617
2,775833	0,1	2,813086
2,777500	0,1	2,793024
2,779167	0,1	2,758365
2,780833	0,1	2,757221
2,782500	0,1	2,714619
2,784167	0,1	2,668150
2,785833	0,1	2,733821
2,787500	0,1	2,685143
2,789167	0,1	2,708866
2,790833	0,1	2,682908
2,792500	0,1	2,682110
2,794167	0,1	2,647905
2,795833	0,1	2,598284
2,797500	0,1	2,610466
2,799167	0,1	2,577341
2,800833	0,1	2,638912
2,802500	0,1	2,589248
2,804167	0,1	2,559342
2,805833	0,1	2,560125
2,807500	0,1	2,528794
2,809167	0,1	2,511222
2,810833	0,1	2,591290
2,812500	0,1	2,547078
2,814167	0,1	2,510726
2,815833	0,1	2,509286
2,817500	0,1	2,516879
2,819167	0,1	2,518887
2,820833	0,1	2,482400
2,822500	0,1	2,453009
2,824167	0,1	2,454433
2,825833	0,1	2,468910
2,827500	0,1	2,450134
2,829167	0,1	2,435510
2,830833	0,1	2,422177
2,832500	0,1	2,403039
2,834167	0,1	2,386121
2,835833	0,1	2,361966
2,837500	0,1	2,359165
2,839167	0,1	2,377296
2,840833	0,1	2,355729
2,842500	0,1	2,363392
2,844167	0,1	2,361172
2,845833	0,1	2,349491
2,847500	0,1	2,348917
2,849167	0,1	2,292526
2,850833	0,1	2,297883
2,852500	0,1	2,296526
2,854167	0,1	2,250812
2,855833	0,1	2,299953
2,857500	0,1	2,250315
2,859167	0,1	2,245003
2,860833	0,1	2,216917
2,862500	0,1	2,229876
2,864167	0,1	2,241199
2,865833	0,1	2,214052
2,867500	0,1	2,205309
2,869167	0,1	2,202438
2,870833	0,1	2,217339
2,872500	0,1	2,160255
2,874167	0,1	2,177497
2,875833	0,1	2,167260
2,877500	0,1	2,151289
2,879167	0,1	2,140327
2,880833	0,1	2,097917
2,882500	0,1	2,113171
2,884167	0,1	2,069773
2,885833	0,1	2,095825
2,887500	0,1	2,102066
2,889167	0,1	2,066618
2,890833	0,1	2,038968
2,892500	0,1	2,035235
2,894167	0,1	2,028153
2,895833	0,1	2,008306
2,897500	0,1	2,019831
2,899167	0,1	2,064250
2,900833	0,1	2,013120
2,902500	0,1	2,010678
2,904167	0,1	1,968349
2,905833	0,1	2,013679
2,907500	0,1	1,973864
2,909167	0,1	1,964918
2,910833	0,1	1,991551
2,912500	0,1	1,927901
2,914167	0,1	1,915930
2,915833	0,1	1,946854
2,917500	0,1	1,920298
2,919167	0,1	1,899118
2,920833	0,1	1,906357
2,922500	0,1	1,888719
2,924167	0,1	1,906326
2,925833	0,1	1,869540
2,927500	0,1	1,857013
2,929167	0,1	1,872899
2,930833	0,1	1,873049
2,932500	0,1	1,857650
2,934167	0,1	1,835695
2,935833	0,1	1,831218
2,937500	0,1	1,819297
2,939167	0,1	1,803607
2,940833	0,1	1,796242
2,942500	0,1	1,771802
2,944167	0,1	1,801330
2,945833	0,1	1,778565
2,947500	0,1	1,766379
2,949167	0,1	1,732818
2,950833	0,1	1,753845
2,952500	0,1	1,740612
2,954167	0,1	1,790005
2,955833	0,1	1,730247
2,957500	0,1	1,725012
2,959167	0,1	1,732601
2,960833	0,1	1,691664
2,962500	0,1	1,721841
2,964167	0,1	1,691650
2,965833	0,1	1,722072
2,967500	0,1	1,700102
2,969167	0,1	1,696316
2,970833	0,1	1,641788
2,972500	0,1	1,669626
2,974167	0,1	1,673112
2,975833	0,1	1,672907
2,977500	0,1	1,659961
2,979167	0,1	1,655683
2,980833	0,1	1,639353
2,982500	0,1	1,658379
2,984167	0,1	1,675494
2,985833	0,1	1,626988
2,987500	0,1	1,684227
2,989167	0,1	1,653170
2,990833	0,1	1,603928
2,992500	0,1	1,684001
2,994167	0,1	1,614139
2,995833	0,1	1,619741
2,997500	0,1	1,637549
2,999167	0,1	1,617308
3,000833	0,1	1,625097
3,002500	0,1	1,590483
3,004167	0,1	1,592324
3,005833	0,1	1,618380
3,007500	0,1	1,632632
3,009167	0,1	1,609649
3,010833	0,1	1,619096
3,012500	0,1	1,611167
3,014167	0,1	1,600835
3,015833	0,1	1,577162
3,017500	0,1	1,628964
3,019167	0,1	1,601897
3,020833	0,1	1,633999
3,022500	0,1	1,608951
3,024167	0,1	1,604272
3,025833	0,1	1,586836
3,027500	0,1	1,572751
3,029167	0,1	1,618086
3,030833	0,1	1,598799
3,032500	0,1	1,591781
3,034167	0,1	1,592423
3,035833	0,1	1,570777
3,037500	0,1	1,583609
3,039167	0,1	1,500352
3,040833	0,1	1,578426
3,042500	0,1	1,608309
3,044167	0,1	1,571673
3,045833	0,1	1,573650
3,047500	0,1	1,537379
3,049167	0,1	1,563560
3,050833	0,1	1,550048
3,052500	0,1	1,569221
3,054167	0,1	1,569733
3,055833	0,1	1,571194
3,057500	0,1	1,533109
3,059167	0,1	1,473664
3,060833	0,1	1,550806
3,062500	0,1	1,557279
3,064167	0,1	1,561075
3,065833	0,1	1,537258
3,067500	0,1	1,557783
3,069167	0,1	1,522739
3,070833	0,1	1,547684
3,072500	0,1	1,547114
3,074167	0,1	1,527242
3,075833	0,1	1,497816
3,077500	0,1	1,544663
3,079167	0,1	1,497481
3,080833	0,1	1,537818
3,082500	0,1	1,561251
3,084167	0,1	1,519302
3,085833	0,1	1,546056
3,087500	0,1	1,507239
3,089167	0,1	1,587099
3,090833	0,1	1,486260
3,092500	0,1	1,524177
3,094167	0,1	1,539520
3,095833	0,1	1,569657
3,097500	0,1	1,551186
3,099167	0,1	1,559088
3,100833	0,1	1,544525
3,102500	0,1	1,547757
3,104167	0,1	1,569251
3,105833	0,1	1,580155
3,107500	0,1	1,595434
3,109167	0,1	1,579753
3,110833	0,1	1,591048
3,112500	0,1	1,619325
3,114167	0,1	1,593346
3,115833	0,1	1,622408
3,117500	0,1	1,633565
3,119167	0,1	1,639991
3,120833	0,1	1,617048
3,122500	0,1	1,617384
3,124167	0,1	1,647001
3,125833	0,1	1,661600
3,127500	0,1	1,647245
3,129167	0,1	1,711045
3,130833	0,1	1,713774
3,132500	0,1	1,711004
3,134167	0,1	1,710485
3,135833	0,1	1,732229
3,137500	0,1	1,697065
3,139167	0,1	1,761575
3,140833	0,1	1,764639
3,142500	0,1	1,758877
3,144167	0,1	1,792495
3,145833	0,1	1,801876
3,147500	0,1	1,785776
3,149167	0,1	1,836669
3,150833	0,1	1,814007
3,152500	0,1	1,824298
3,154167	0,1	1,880848
3,155833	0,1	1,880921
3,157500	0,1	1,868750
3,159167	0,1	1,870899
3,160833	0,1	1,899114
3,162500	0,1	1,862166
3,164167	0,1	1,950218
3,165833	0,1	1,945015
3,167500	0,1	1,927322
3,169167	0,1	1,920858
3,170833	0,1	1,944713
3,172500	0,1	1,985026
3,174167	0,1	1,989847
3,175833	0,1	1,968065
3,177500	0,1	2,012250
3,179167	0,1	1,981316
3,180833	0,1	2,020973
3,182500	0,1	2,001160
3,184167	0,1	2,011031
3,185833	0,1	1,962629
3,187500	0,1	2,009663
3,189167	0,1	2,009968
3,190833	0,1	1,978015
3,192500	0,1	1,980235
3,194167	0,1	2,004730
3,195833	0,1	1,989627
3,197500	0,1	2,029002
3,199167	0,1	2,013475
3,200833	0,1	2,024860
3,202500	0,1	1,996650
3,204167	0,1	2,031301
3,205833	0,1	2,011257
3,207500	0,1	1,963855
3,209167	0,1	2,012591
3,210833	0,1	2,004374
3,212500	0,1	1,960555
3,214167	0,1	1,952298
3,215833	0,1	1,935979
3,217500	0,1	1,965839
3,219167	0,1	1,970506
3,220833	0,1	1,968853
3,222500	0,1	1,957690
3,224167	0,1	1,936850
3,225833	0,1	1,953807
3,227500	0,1	1,931705
3,229167	0,1	1,927956
3,230833	0,1	1,904699
3,232500	0,1	1,906313
3,234167	0,1	1,883844
3,235833	0,1	1,877136
3,237500	0,1	1,874905
3,239167	0,1	1,859433
3,240833	0,1	1,791784
3,242500	0,1	1,876895
3,244167	0,1	1,858592
3,245833	0,1	1,773611
3,247500	0,1	1,852700
3,249167	0,1	1,796611
3,250833	0,1	1,796507
3,252500	0,1	1,806109
3,254167	0,1	1,781544
3,255833	0,1	1,769807
3,257500	0,1	1,780339
3,259167	0,1	1,716804
3,260833	0,1	1,709911
3,262500	0,1	1,695428
3,264167	0,1	1,682354
3,265833	0,1	1,675089
3,267500	0,1	1,651784
3,269167	0,1	1,693960
3,270833	0,1	1,661817
3,272500	0,1	1,653725
3,274167	0,1	1,579750
3,275833	0,1	1,637910
3,277500	0,1	1,627622
3,279167	0,1	1,588637
3,280833	0,1	1,587831
3,282500	0,1	1,584203
3,284167	0,1	1,547427
3,285833	0,1	1,563426
3,287500	0,1	1,561499
3,289167	0,1	1,529601
3,290833	0,1	1,475068
3,292500	0,1	1,496396
3,294167	0,1	1,470724
3,295833	0,1	1,468839
3,297500	0,1	1,429273
3,299167	0,1	1,459699
3,300833	0,1	1,434320
3,302500	0,1	1,450555
3,304167	0,1	1,444326
3,305833	0,1	1,451355
3,307500	0,1	1,381193
3,309167	0,1	1,399501
3,310833	0,1	1,413729
3,312500	0,1	1,339851
3,314167	0,1	1,361307
3,315833	0,1	1,349557
3,317500	0,1	1,335063
3,319167	0,1	1,308525
3,320833	0,1	1,322494
3,322500	0,1	1,327095
3,324167	0,1	1,287006
3,325833	0,1	1,310975
3,327500	0,1	1,285916
3,329167	0,1	1,282894
3,330833	0,1	1,264412
3,332500	0,1	1,268997
3,334167	0,1	1,238521
3,335833	0,1	1,248030
3,337500	0,1	1,241889
3,339167	0,1	1,252999
3,340833	0,1	1,215960
3,342500	0,1	1,220986
3,344167	0,1	1,211116
3,345833	0,1	1,242343
3,347500	0,1	1,200010
3,349167	0,1	1,141646
3,350833	0,1	1,190803
3,352500	0,1	1,190972
3,354167	0,1	1,187222
3,355833	0,1	1,192345
3,357500	0,1	1,153533
3,359167	0,1	1,140528
3,360833	0,1	1,157578
3,362500	0,1	1,169250
3,364167	0,1	1,096802
3,365833	0,1	1,112376
3,367500	0,1	1,114573
3,369167	0,1	1,153050
3,370833	0,1	1,082051
3,372500	0,1	1,126693
3,374167	0,1	1,110586
3,375833	0,1	1,097985
3,377500	0,1	1,120622
3,379167	0,1	1,056388
3,380833	0,1	1,077352
3,382500	0,1	1,055850
3,384167	0,1	1,079099
3,385833	0,1	1,056757
3,387500	0,1	1,096000
3,389167	0,1	1,101929
3,390833	0,1	1,076878
3,392500	0,1	1,074587
3,394167	0,1	1,042428
3,395833	0,1	1,054622
3,397500	0,1	1,034561
3,399167	0,1	1,012092
3,400833	0,1	1,065585
3,402500	0,1	1,037019
3,404167	0,1	1,013956
3,405833	0,1	1,030314
3,407500	0,1	1,033177
3,409167	0,1	1,012893
3,410833	0,1	0,982028
3,412500	0,1	1,009376
3,414167	0,1	1,025169
3,415833	0,1	0,992474
3,417500	0,1	1,029938
3,419167	0,1	1,010411
3,420833	0,1	1,011654
3,422500	0,1	0,991566
3,424167	0,1	1,004328
3,425833	0,1	0,975701
3,427500	0,1	0,982531
3,429167	0,1	0,948237
3,430833	0,1	0,995894
3,432500	0,1	0,953002
3,434167	0,1	1,019946
3,435833	0,1	0,967008
3,437500	0,1	0,975523
3,439167	0,1	0,957536
3,440833	0,1	0,956784
3,442500	0,1	0,938050
3,444167	0,1	0,942702
3,445833	0,1	0,964785
3,447500	0,1	0,927216
3,449167	0,1	0,977152
3,450833	0,1	0,966460
3,452500	0,1	0,950332
3,454167	0,1	0,977775
3,455833	0,1	0,941230
3,457500	0,1	0,936852
3,459167	0,1	0,927685
3,460833	0,1	0,951111
3,462500	0,1	0,928237
3,464167	0,1	0,922316
3,465833	0,1	0,939001
3,467500	0,1	0,959929
3,469167	0,1	0,887139
3,470833	0,1	0,905054
3,472500	0,1	0,928095
3,474167	0,1	0,910494
3,475833	0,1	0,928096
3,477500	0,1	0,910233
3,479167	0,1	0,930668
3,480833	0,1	0,881673
3,482500	0,1	0,921244
3,484167	0,1	0,885845
3,485833	0,1	0,856045
3,487500	0,1	0,923910
3,489167	0,1	0,927075
3,490833	0,1	0,892851
3,492500	0,1	0,924627
3,494167	0,1	0,917760
3,495833	0,1	0,905610
3,497500	0,1	0,884330
3,499167	0,1	0,868222
3,500833	0,1	0,889008
3,502500	0,1	0,905147
3,504167	0,1	0,890815
3,505833	0,1	0,884934
3,507500	0,1	0,860062
3,509167	0,1	0,857642
3,510833	0,1	0,897334
3,512500	0,1	0,918964
3,514167	0,1	0,882592
3,515833	0,1	0,884102
3,517500	0,1	0,919669
3,519167	0,1	0,881763
3,520833	0,1	0,879313
3,522500	0,1	0,898139
3,524167	0,1	0,847115
3,525833	0,1	0,875635
3,527500	0,1	0,889625
3,529167	0,1	0,878767
3,530833	0,1	0,908228
3,532500	0,1	0,871859
3,534167	0,1	0,860671
3,535833	0,1	0,883511
3,537500	0,1	0,865846
3,539167	0,1	0,877698
3,540833	0,1	0,835702
3,542500	0,1	0,889065
3,544167	0,1	0,866937
3,545833	0,1	0,850639
3,547500	0,1	0,874258
3,549167	0,1	0,888692
3,550833	0,1	0,866172
3,552500	0,1	0,901696
3,554167	0,1	0,863149
3,555833	0,1	0,875604
3,557500	0,1	0,879146
3,559167	0,1	0,884484
3,560833	0,1	0,858068
3,562500	0,1	0,866092
3,564167	0,1	0,868477
3,565833	0,1	0,857552
3,567500	0,1	0,892062
3,569167	0,1	0,859838
3,570833	0,1	0,867666
3,572500	0,1	0,869018
3,574167	0,1	0,863972
3,575833	0,1	0,855551
3,577500	0,1	0,888362
3,579167	0,1	0,874815
3,580833	0,1	0,869115
3,582500	0,1	0,842322
3,584167	0,1	0,845239
3,585833	0,1	0,872646
3,587500	0,1	0,844374
3,589167	0,1	0,844302
3,590833	0,1	0,836785
3,592500	0,1	0,880067
3,594167	0,1	0,839080
3,595833	0,1	0,847867
3,597500	0,1	0,824575
3,599167	0,1	0,864539
3,600833	0,1	0,812180
3,602500	0,1	0,861965
3,604167	0,1	0,867854
3,605833	0,1	0,842958
3,607500	0,1	0,822421
3,609167	0,1	0,856183
3,610833	0,1	0,834087
3,612500	0,1	0,832701
3,614167	0,1	0,838479
3,615833	0,1	0,815830
3,617500	0,1	0,836423
3,619167	0,1	0,865472
3,620833	0,1	0,801861
3,622500	0,1	0,835678
3,624167	0,1	0,803430
3,625833	0,1	0,805285
3,627500	0,1	0,841302
3,629167	0,1	0,832891
3,630833	0,1	0,825792
3,632500	0,1	0,791445
3,634167	0,1	0,807239
3,635833	0,1	0,858815
3,637500	0,1	0,780879
3,639167	0,1	0,840366
3,640833	0,1	0,793727
3,642500	0,1	0,745297
3,644167	0,1	0,816678
3,645833	0,1	0,814249
3,647500	0,1	0,826783
3,649167	0,1	0,802850
3,650833	0,1	0,797190
3,652500	0,1	0,810619
3,654167	0,1	0,785270
3,655833	0,1	0,793200
3,657500	0,1	0,801331
3,659167	0,1	0,774056
3,660833	0,1	0,781308
3,662500	0,1	0,762100
3,664167	0,1	0,800163
3,665833	0,1	0,797667
3,667500	0,1	0,804512
3,669167	0,1	0,777524
3,670833	0,1	0,782562
3,672500	0,1	0,761971
3,674167	0,1	0,747666
3,675833	0,1	0,790556
3,677500	0,1	0,809138
3,679167	0,1	0,724740
3,680833	0,1	0,800991
3,682500	0,1	0,780481
3,684167	0,1	0,727144
3,685833	0,1	0,741780
3,687500	0,1	0,764402
3,689167	0,1	0,780279
3,690833	0,1	0,784103
3,692500	0,1	0,773535
3,694167	0,1	0,779474
3,695833	0,1	0,748826
3,697500	0,1	0,770475
3,699167	0,1	0,807843
3,700833	0,1	0,784658
3,702500	0,1	0,749438
3,704167	0,1	0,749819
3,705833	0,1	0,769830
3,707500	0,1	0,753744
3,709167	0,1	0,761448
3,710833	0,1	0,782141
3,712500	0,1	0,795770
3,714167	0,1	0,742504
3,715833	0,1	0,756592
3,717500	0,1	0,778923
3,719167	0,1	0,777034
3,720833	0,1	0,750145
3,722500	0,1	0,769704
3,724167	0,1	0,791394
3,725833	0,1	0,777554
3,727500	0,1	0,760714
3,729167	0,1	0,767555
3,730833	0,1	0,770092
3,732500	0,1	0,770706
3,734167	0,1	0,766718
3,735833	0,1	0,722159
3,737500	0,1	0,815224
3,739167	0,1	0,762425
3,740833	0,1	0,777802
3,742500	0,1	0,778225
3,744167	0,1	0,774916
3,745833	0,1	0,774531
3,747500	0,1	0,794224
3,749167	0,1	0,821890
3,750833	0,1	0,788356
3,752500	0,1	0,812993
3,754167	0,1	0,807244
3,755833	0,1	0,802744
3,757500	0,1	0,823372
3,759167	0,1	0,799863
3,760833	0,1	0,819806
3,762500	0,1	0,821643
3,764167	0,1	0,788388
3,765833	0,1	0,760687
3,767500	0,1	0,811507
3,769167	0,1	0,792593
3,770833	0,1	0,802875
3,772500	0,1	0,798569
3,774167	0,1	0,772640
3,775833	0,1	0,835742
3,777500	0,1	0,821711
3,779167	0,1	0,851431
3,780833	0,1	0,847039
3,782500	0,1	0,868278
3,784167	0,1	0,843217
3,785833	0,1	0,846005
3,787500	0,1	0,810441
3,789167	0,1	0,860071
3,790833	0,1	0,818281
3,792500	0,1	0,836395
3,794167	0,1	0,861205
3,795833	0,1	0,883799
3,797500	0,1	0,828056
3,799167	0,1	0,843013
3,800833	0,1	0,836401
3,802500	0,1	0,819366
3,804167	0,1	0,835333
3,805833	0,1	0,903718
3,807500	0,1	0,824913
3,809167	0,1	0,846455
3,810833	0,1	0,849386
3,812500	0,1	0,839039
3,814167	0,1	0,862556
3,815833	0,1	0,845243
3,817500	0,1	0,856066
3,819167	0,1	0,861050
3,820833	0,1	0,853564
3,822500	0,1	0,870177
3,824167	0,1	0,900382
3,825833	0,1	0,880047
3,827500	0,1	0,869961
3,829167	0,1	0,866650
3,830833	0,1	0,883092
3,832500	0,1	0,867521
3,834167	0,1	0,872847
3,835833	0,1	0,869214
3,837500	0,1	0,864007
3,839167	0,1	0,872651
3,840833	0,1	0,891702
3,842500	0,1	0,866418
3,844167	0,1	0,856170
3,845833	0,1	0,873999
3,847500	0,1	0,847363
3,849167	0,1	0,885119
3,850833	0,1	0,846110
3,852500	0,1	0,868660
3,854167	0,1	0,841867
3,855833	0,1	0,866571
3,857500	0,1	0,865199
3,859167	0,1	0,891225
3,860833	0,1	0,878702
3,862500	0,1	0,831717
3,864167	0,1	0,878975
3,865833	0,1	0,827926
3,867500	0,1	0,851337
3,869167	0,1	0,859698
3,870833	0,1	0,866995
3,872500	0,1	0,858707
3,874167	0,1	0,860055
3,875833	0,1	0,863557
3,877500	0,1	0,858959
3,879167	0,1	0,835018
3,880833	0,1	0,840738
3,882500	0,1	0,844784
3,884167	0,1	0,829332
3,885833	0,1	0,820554
3,887500	0,1	0,845777
3,889167	0,1	0,830229
3,890833	0,1	0,811811
3,892500	0,1	0,825144
3,894167	0,1	0,842246
3,895833	0,1	0,812040
3,897500	0,1	0,825852
3,899167	0,1	0,802943
3,900833	0,1	0,788318
3,902500	0,1	0,841530
3,904167	0,1	0,784315
3,905833	0,1	0,808170
3,907500	0,1	0,820774
3,909167	0,1	0,804263
3,910833	0,1	0,845578
3,912500	0,1	0,815606
3,914167	0,1	0,782413
3,915833	0,1	0,826806
3,917500	0,1	0,799637
3,919167	0,1	0,775757
3,920833	0,1	0,802288
3,922500	0,1	0,788416
3,924167	0,1	0,768363
3,925833	0,1	0,789883
3,927500	0,1	0,810646
3,929167	0,1	0,791279
3,930833	0,1	0,800206
3,932500	0,1	0,794808
3,934167	0,1	0,774790
3,935833	0,1	0,749567
3,937500	0,1	0,755215
3,939167	0,1	0,772178
3,940833	0,1	0,765886
3,942500	0,1	0,780408
3,944167	0,1	0,751335
3,945833	0,1	0,753833
3,947500	0,1	0,714896
3,949167	0,1	0,763495
3,950833	0,1	0,759490
3,952500	0,1	0,775102
3,954167	0,1	0,767394
3,955833	0,1	0,747315
3,957500	0,1	0,745155
3,959167	0,1	0,743906
3,960833	0,1	0,761574
3,962500	0,1	0,755411
3,964167	0,1	0,788501
3,965833	0,1	0,746742
3,967500	0,1	0,730573
3,969167	0,1	0,754662
3,970833	0,1	0,726559
3,972500	0,1	0,704579
3,974167	0,1	0,738530
3,975833	0,1	0,707023
3,977500	0,1	0,718868
3,979167	0,1	0,730148
3,980833	0,1	0,713798
3,982500	0,1	0,728989
3,984167	0,1	0,725748
3,985833	0,1	0,709428
3,987500	0,1	0,734451
3,989167	0,1	0,724883
3,990833	0,1	0,700433
3,992500	0,1	0,696028
3,994167	0,1	0,738912
3,995833	0,1	0,735036
3,997500	0,1	0,694396
3,999167	0,1	0,730207
4,000833	0,1	0,679909
4,002500	0,1	0,707297
4,004167	0,1	0,731525
4,005833	0,1	0,736770
4,007500	0,1	0,740207
4,009167	0,1	0,725172
4,010833	0,1	0,716786
4,012500	0,1	0,697990
4,014167	0,1	0,704988
4,015833	0,1	0,757933
4,017500	0,1	0,737064
4,019167	0,1	0,732852
4,020833	0,1	0,718232
4,022500	0,1	0,714665
4,024167	0,1	0,750193
4,025833	0,1	0,765816
4,027500	0,1	0,696010
4,029167	0,1	0,728246
4,030833	0,1	0,775578
4,032500	0,1	0,716413
4,034167	0,1	0,769311
4,035833	0,1	0,754351
4,037500	0,1	0,743938
4,039167	0,1	0,765653
4,040833	0,1	0,777160
4,042500	0,1	0,781406
4,044167	0,1	0,805309
4,045833	0,1	0,748031
4,047500	0,1	0,754187
4,049167	0,1	0,769801
4,050833	0,1	0,796956
4,052500	0,1	0,790952
4,054167	0,1	0,798537
4,055833	0,1	0,762004
4,057500	0,1	0,814106
4,059167	0,1	0,821224
4,060833	0,1	0,857691
4,062500	0,1	0,839198
4,064167	0,1	0,827885
4,065833	0,1	0,827175
4,067500	0,1	0,859983
4,069167	0,1	0,902373
4,070833	0,1	0,889276
4,072500	0,1	0,875293
4,074167	0,1	0,928927
4,075833	0,1	0,895935
4,077500	0,1	0,900714
4,079167	0,1	0,908047
4,080833	0,1	0,927743
4,082500	0,1	0,952894
4,084167	0,1	0,917189
4,085833	0,1	0,977924
4,087500	0,1	0,917671
4,089167	0,1	0,944338
4,090833	0,1	0,990304
4,092500	0,1	0,997871
4,094167	0,1	1,007164
4,095833	0,1	1,011574
4,097500	0,1	1,012311
4,099167	0,1	1,031796
4,100833	0,1	1,009823
4,102500	0,1	1,060269
4,104167	0,1	1,045639
4,105833	0,1	1,048704
4,107500	0,1	1,085884
4,109167	0,1	1,088020
4,110833	0,1	1,095160
4,112500	0,1	1,131577
4,114167	0,1	1,127793
4,115833	0,1	1,145866
4,117500	0,1	1,134048
4,119167	0,1	1,156069
4,120833	0,1	1,175902
4,122500	0,1	1,157653
4,124167	0,1	1,207796
4,125833	0,1	1,227040
4,127500	0,1	1,207148
4,129167	0,1	1,224334
4,130833	0,1	1,229305
4,132500	0,1	1,289441
4,134167	0,1	1,232339
4,135833	0,1	1,293528
4,137500	0,1	1,279169
4,139167	0,1	1,302301
4,140833	0,1	1,324937
4,142500	0,1	1,273696
4,144167	0,1	1,270266
4,145833	0,1	1,351907
4,147500	0,1	1,327590
4,149167	0,1	1,348972
4,150833	0,1	1,391330
4,152500	0,1	1,368023
4,154167	0,1	1,372703
4,155833	0,1	1,392807
4,157500	0,1	1,407458
4,159167	0,1	1,386734
4,160833	0,1	1,438316
4,162500	0,1	1,440445
4,164167	0,1	1,458060
4,165833	0,1	1,417110
4,167500	0,1	1,458766
4,169167	0,1	1,464787
4,170833	0,1	1,484639
4,172500	0,1	1,479005
4,174167	0,1	1,479391
4,175833	0,1	1,509967
4,177500	0,1	1,486073
4,179167	0,1	1,522349
4,180833	0,1	1,523442
4,182500	0,1	1,488804
4,184167	0,1	1,477734
4,185833	0,1	1,488504
4,187500	0,1	1,544221
4,189167	0,1	1,526937
4,190833	0,1	1,515128
4,192500	0,1	1,566586
4,194167	0,1	1,526012
4,195833	0,1	1,516837
4,197500	0,1	1,513702
4,199167	0,1	1,556572
4,200833	0,1	1,546269
4,202500	0,1	1,577217
4,204167	0,1	1,513005
4,205833	0,1	1,535434
4,207500	0,1	1,516824
4,209167	0,1	1,543531
4,210833	0,1	1,551180
4,212500	0,1	1,552841
4,214167	0,1	1,538579
4,215833	0,1	1,540607
4,217500	0,1	1,590713
4,219167	0,1	1,551546
4,220833	0,1	1,543488
4,222500	0,1	1,546401
4,224167	0,1	1,521230
4,225833	0,1	1,525493
4,227500	0,1	1,521139
4,229167	0,1	1,554121
4,230833	0,1	1,518403
4,232500	0,1	1,523848
4,234167	0,1	1,522715
4,235833	0,1	1,516550
4,237500	0,1	1,532080
4,239167	0,1	1,522921
4,240833	0,1	1,498628
4,242500	0,1	1,504958
4,244167	0,1	1,483802
4,245833	0,1	1,492910
4,247500	0,1	1,492370
4,249167	0,1	1,482835
4,250833	0,1	1,505766
4,252500	0,1	1,478298
4,254167	0,1	1,467569
4,255833	0,1	1,433016
4,257500	0,1	1,456447
4,259167	0,1	1,450660
4,260833	0,1	1,439415
4,262500	0,1	1,458820
4,264167	0,1	1,414859
4,265833	0,1	1,461204
4,267500	0,1	1,435116
4,269167	0,1	1,433806
4,270833	0,1	1,465255
4,272500	0,1	1,411913
4,274167	0,1	1,345044
4,275833	0,1	1,342723
4,277500	0,1	1,362708
4,279167	0,1	1,342324
4,280833	0,1	1,351635
4,282500	0,1	1,360578
4,284167	0,1	1,327747
4,285833	0,1	1,296281
4,287500	0,1	1,277259
4,289167	0,1	1,317701
4,290833	0,1	1,309875
4,292500	0,1	1,297207
4,294167	0,1	1,301219
4,295833	0,1	1,264394
4,297500	0,1	1,319821
4,299167	0,1	1,258589
4,300833	0,1	1,287343
4,302500	0,1	1,212684
4,304167	0,1	1,241770
4,305833	0,1	1,231439
4,307500	0,1	1,226223
4,309167	0,1	1,241440
4,310833	0,1	1,169909
4,312500	0,1	1,216406
4,314167	0,1	1,172655
4,315833	0,1	1,176283
4,317500	0,1	1,196579
4,319167	0,1	1,163201
4,320833	0,1	1,158894
4,322500	0,1	1,171578
4,324167	0,1	1,152418
4,325833	0,1	1,153945
4,327500	0,1	1,139951
4,329167	0,1	1,128728
4,330833	0,1	1,112689
4,332500	0,1	1,122596
4,334167	0,1	1,117214
4,335833	0,1	1,068604
4,337500	0,1	1,137094
4,339167	0,1	1,057783
4,340833	0,1	1,113363
4,342500	0,1	1,085346
4,344167	0,1	1,006449
4,345833	0,1	1,070309
4,347500	0,1	1,028990
4,349167	0,1	1,091601
4,350833	0,1	1,075474
4,352500	0,1	1,000832
4,354167	0,1	1,025323
4,355833	0,1	1,017208
4,357500	0,1	0,981649
4,359167	0,1	0,983897
4,360833	0,1	0,969426
4,362500	0,1	0,962192
4,364167	0,1	0,991279
4,365833	0,1	0,960072
4,367500	0,1	0,962571
4,369167	0,1	0,961456
4,370833	0,1	0,913204
4,372500	0,1	0,973659
4,374167	0,1	0,923818
4,375833	0,1	0,937230
4,377500	0,1	0,922040
4,379167	0,1	0,936476
4,380833	0,1	0,918705
4,382500	0,1	0,933094
4,384167	0,1	0,945432
4,385833	0,1	0,919823
4,387500	0,1	0,924160
4,389167	0,1	0,897611
4,390833	0,1	0,895451
4,392500	0,1	0,881339
4,394167	0,1	0,831757
4,395833	0,1	0,883773
4,397500	0,1	0,853156
4,399167	0,1	0,876382
4,400833	0,1	0,873909
4,402500	0,1	0,848880
4,404167	0,1	0,847038
4,405833	0,1	0,859827
4,407500	0,1	0,784610
4,409167	0,1	0,843905
4,410833	0,1	0,842025
4,412500	0,1	0,827178
4,414167	0,1	0,834859
4,415833	0,1	0,849346
4,417500	0,1	0,838136
4,419167	0,1	0,808032
4,420833	0,1	0,825019
4,422500	0,1	0,809304
4,424167	0,1	0,800404
4,425833	0,1	0,807860
4,427500	0,1	0,759794
4,429167	0,1	0,822978
4,430833	0,1	0,786816
4,432500	0,1	0,779613
4,434167	0,1	0,800426
4,435833	0,1	0,814445
4,437500	0,1	0,793207
4,439167	0,1	0,754841
4,440833	0,1	0,762801
4,442500	0,1	0,764182
4,444167	0,1	0,759012
4,445833	0,1	0,747635
4,447500	0,1	0,744807
4,449167	0,1	0,750329
4,450833	0,1	0,705965
4,452500	0,1	0,700043
4,454167	0,1	0,744858
4,455833	0,1	0,753415
4,457500	0,1	0,750269
4,459167	0,1	0,705580
4,460833	0,1	0,734194
4,462500	0,1	0,730216
4,464167	0,1	0,726199
4,465833	0,1	0,703389
4,467500	0,1	0,666411
4,469167	0,1	0,684005
4,470833	0,1	0,697211
4,472500	0,1	0,685714
4,474167	0,1	0,675271
4,475833	0,1	0,720500
4,477500	0,1	0,680356
4,479167	0,1	0,672475
4,480833	0,1	0,657986
4,482500	0,1	0,693350
4,484167	0,1	0,688638
4,485833	0,1	0,661813
4,487500	0,1	0,638616
4,489167	0,1	0,642111
4,490833	0,1	0,636554
4,492500	0,1	0,651906
4,494167	0,1	0,626955
4,495833	0,1	0,662889
4,497500	0,1	0,627472
4,499167	0,1	0,645128
4,500833	0,1	0,615806
4,502500	0,1	0,639954
4,504167	0,1	0,614648
4,505833	0,1	0,591749
4,507500	0,1	0,569737
4,509167	0,1	0,604580
4,510833	0,1	0,618401
4,512500	0,1	0,581213
4,514167	0,1	0,600375
4,515833	0,1	0,604169
4,517500	0,1	0,574144
4,519167	0,1	0,583188
4,520833	0,1	0,596812
4,522500	0,1	0,547103
4,524167	0,1	0,575507
4,525833	0,1	0,596009
4,527500	0,1	0,608249
4,529167	0,1	0,549415
4,530833	0,1	0,581676
4,532500	0,1	0,547742
4,534167	0,1	0,548828
4,535833	0,1	0,542978
4,537500	0,1	0,533921
4,539167	0,1	0,551872
4,540833	0,1	0,561638
4,542500	0,1	0,559298
4,544167	0,1	0,530811
4,545833	0,1	0,541441
4,547500	0,1	0,523518
4,549167	0,1	0,560382
4,550833	0,1	0,506825
4,552500	0,1	0,526367
4,554167	0,1	0,572905
4,555833	0,1	0,511839
4,557500	0,1	0,519176
4,559167	0,1	0,524443
4,560833	0,1	0,530351
4,562500	0,1	0,501263
4,564167	0,1	0,492075
4,565833	0,1	0,528741
4,567500	0,1	0,497510
4,569167	0,1	0,507198
4,570833	0,1	0,489989
4,572500	0,1	0,516060
4,574167	0,1	0,450845
4,575833	0,1	0,505768
4,577500	0,1	0,451548
4,579167	0,1	0,500023
4,580833	0,1	0,493460
4,582500	0,1	0,483889
4,584167	0,1	0,425985
4,585833	0,1	0,475389
4,587500	0,1	0,442941
4,589167	0,1	0,483776
4,590833	0,1	0,451444
4,592500	0,1	0,459342
4,594167	0,1	0,420175
4,595833	0,1	0,431018
4,597500	0,1	0,474169
4,599167	0,1	0,455204
4,600833	0,1	0,472863
4,602500	0,1	0,448656
4,604167	0,1	0,413272
4,605833	0,1	0,429694
4,607500	0,1	0,445663
4,609167	0,1	0,414544
4,610833	0,1	0,415859
4,612500	0,1	0,436280
4,614167	0,1	0,407782
4,615833	0,1	0,430373
4,617500	0,1	0,451540
4,619167	0,1	0,447756
4,620833	0,1	0,447267
4,622500	0,1	0,427650
4,624167	0,1	0,439304
4,625833	0,1	0,374295
4,627500	0,1	0,420608
4,629167	0,1	0,418567
4,630833	0,1	0,445018
4,632500	0,1	0,408777
4,634167	0,1	0,423953
4,635833	0,1	0,398010
4,637500	0,1	0,446245
4,639167	0,1	0,386408
4,640833	0,1	0,429762
4,642500	0,1	0,388165
4,644167	0,1	0,414644
4,645833	0,1	0,379590
4,647500	0,1	0,387826
4,649167	0,1	0,346702
4,650833	0,1	0,424391
4,652500	0,1	0,372391
4,654167	0,1	0,387635
4,655833	0,1	0,355705
4,657500	0,1	0,403847
4,659167	0,1	0,373028
4,660833	0,1	0,394674
4,662500	0,1	0,387164
4,664167	0,1	0,348400
4,665833	0,1	0,381084
4,667500	0,1	0,392585
4,669167	0,1	0,365045
4,670833	0,1	0,376077
4,672500	0,1	0,356695
4,674167	0,1	0,356627
4,675833	0,1	0,354436
4,677500	0,1	0,376780
4,679167	0,1	0,367406
4,680833	0,1	0,345225
4,682500	0,1	0,324239
4,684167	0,1	0,382653
4,685833	0,1	0,351852
4,687500	0,1	0,390010
4,689167	0,1	0,369829
4,690833	0,1	0,364437
4,692500	0,1	0,370816
4,694167	0,1	0,342320
4,695833	0,1	0,321693
4,697500	0,1	0,342433
4,699167	0,1	0,362693
4,700833	0,1	0,372804
4,702500	0,1	0,332716
4,704167	0,1	0,327985
4,705833	0,1	0,298893
4,707500	0,1	0,319860
4,709167	0,1	0,339286
4,710833	0,1	0,375078
4,712500	0,1	0,353134
4,714167	0,1	0,296928
4,715833	0,1	0,324415
4,717500	0,1	0,324710
4,719167	0,1	0,341629
4,720833	0,1	0,315461
4,722500	0,1	0,352226
4,724167	0,1	0,362179
4,725833	0,1	0,325981
4,727500	0,1	0,347367
4,729167	0,1	0,335503
4,730833	0,1	0,279536
4,732500	0,1	0,326437
4,734167	0,1	0,315248
4,735833	0,1	0,318180
4,737500	0,1	0,309240
4,739167	0,1	0,263728
4,740833	0,1	0,310677
4,742500	0,1	0,298701
4,744167	0,1	0,288053
4,745833	0,1	0,307307
4,747500	0,1	0,315532
4,749167	0,1	0,298226
4,750833	0,1	0,296210
4,752500	0,1	0,289836
4,754167	0,1	0,315114
4,755833	0,1	0,336617
4,757500	0,1	0,274357
4,759167	0,1	0,252995
4,760833	0,1	0,293343
4,762500	0,1	0,309109
4,764167	0,1	0,260043
4,765833	0,1	0,323599
4,767500	0,1	0,280170
4,769167	0,1	0,307017
4,770833	0,1	0,312839
4,772500	0,1	0,285676
4,774167	0,1	0,284012
4,775833	0,1	0,309169
4,777500	0,1	0,247663
4,779167	0,1	0,286945
4,780833	0,1	0,275567
4,782500	0,1	0,244795
4,784167	0,1	0,259965
4,785833	0,1	0,272639
4,787500	0,1	0,272728
4,789167	0,1	0,287179
4,790833	0,1	0,277433
4,792500	0,1	0,316433
4,794167	0,1	0,275283
4,795833	0,1	0,319729
4,797500	0,1	0,289155
4,799167	0,1	0,274242
4,800833	0,1	0,260676
4,802500	0,1	0,301024
4,804167	0,1	0,270661
4,805833	0,1	0,242849
4,807500	0,1	0,270671
4,809167	0,1	0,210078
4,810833	0,1	0,276541
4,812500	0,1	0,273348
4,814167	0,1	0,266349
4,815833	0,1	0,276224
4,817500	0,1	0,289373
4,819167	0,1	0,268590
4,820833	0,1	0,232456
4,822500	0,1	0,259547
4,824167	0,1	0,287755
4,825833	0,1	0,225567
4,827500	0,1	0,245841
4,829167	0,1	0,245266
4,830833	0,1	0,247169
4,832500	0,1	0,277272
4,834167	0,1	0,287635
4,835833	0,1	0,252107
4,837500	0,1	0,232350
4,839167	0,1	0,231700
4,840833	0,1	0,259484
4,842500	0,1	0,237712
4,844167	0,1	0,281269
4,845833	0,1	0,254156
4,847500	0,1	0,250838
4,849167	0,1	0,264088
4,850833	0,1	0,264008
4,852500	0,1	0,255602
4,854167	0,1	0,273218
4,855833	0,1	0,273409
4,857500	0,1	0,242954
4,859167	0,1	0,227377
4,860833	0,1	0,248657
4,862500	0,1	0,218560
4,864167	0,1	0,259606
4,865833	0,1	0,253384
4,867500	0,1	0,244211
4,869167	0,1	0,216696
4,870833	0,1	0,219712
4,872500	0,1	0,254409
4,874167	0,1	0,233300
4,875833	0,1	0,270003
4,877500	0,1	0,269308
4,879167	0,1	0,278668
4,880833	0,1	0,211465
4,882500	0,1	0,245858
4,884167	0,1	0,243901
4,885833	0,1	0,282037
4,887500	0,1	0,250409
4,889167	0,1	0,255661
4,890833	0,1	0,280341
4,892500	0,1	0,260387
4,894167	0,1	0,261296
4,895833	0,1	0,216740
4,897500	0,1	0,281014
4,899167	0,1	0,272873
4,900833	0,1	0,255519
4,902500	0,1	0,253076
4,904167	0,1	0,271042
4,905833	0,1	0,261585
4,907500	0,1	0,260281
4,909167	0,1	0,289470
4,910833	0,1	0,280286
4,912500	0,1	0,244819
4,914167	0,1	0,263257
4,915833	0,1	0,279929
4,917500	0,1	0,252914
4,919167	0,1	0,238768
4,920833	0,1	0,248245
4,922500	0,1	0,227958
4,924167	0,1	0,245243
4,925833	0,1	0,286177
4,927500	0,1	0,245007
4,929167	0,1	0,235826
4,930833	0,1	0,257377
4,932500	0,1	0,281916
4,934167	0,1	0,270555
4,935833	0,1	0,253285
4,937500	0,1	0,233467
4,939167	0,1	0,265926
4,940833	0,1	0,239204
4,942500	0,1	0,262718
4,944167	0,1	0,229287
4,945833	0,1	0,249071
4,947500	0,1	0,244478
4,949167	0,1	0,280566
4,950833	0,1	0,239043
4,952500	0,1	0,243215
4,954167	0,1	0,276299
4,955833	0,1	0,231920
4,957500	0,1	0,250168
4,959167	0,1	0,244147
4,960833	0,1	0,219096
4,962500	0,1	0,262009
4,964167	0,1	0,218976
4,965833	0,1	0,253642
4,967500	0,1	0,238497
4,969167	0,1	0,301264
4,970833	0,1	0,269583
4,972500	0,1	0,234155
4,974167	0,1	0,261286
4,975833	0,1	0,250217
4,977500	0,1	0,225496
4,979167	0,1	0,240147
4,980833	0,1	0,248866
4,982500	0,1	0,261993
4,984167	0,1	0,270756
4,985833	0,1	0,231732
4,987500	0,1	0,237270
4,989167	0,1	0,259940
4,990833	0,1	0,238459
4,992500	0,1	0,300355
4,994167	0,1	0,248901
4,995833	0,1	0,211522
4,997500	0,1	0,246562
4,999167	0,1	0,252677
5,000833	0,1	0,246902
5,002500	0,1	0,233610
5,004167	0,1	0,241246
5,005833	0,1	0,239715
5,007500	0,1	0,241765
5,009167	0,1	0,256114
5,010833	0,1	0,268125
5,012500	0,1	0,225664
5,014167	0,1	0,219155
5,015833	0,1	0,242775
5,017500	0,1	0,255368
5,019167	0,1	0,217734
5,020833	0,1	0,295777
5,022500	0,1	0,223519
5,024167	0,1	0,253729
5,025833	0,1	0,216738
5,027500	0,1	0,245940
5,029167	0,1	0,236798
5,030833	0,1	0,220607
5,032500	0,1	0,271614
5,034167	0,1	0,235004
5,035833	0,1	0,244848
5,037500	0,1	0,264042
5,039167	0,1	0,215604
5,040833	0,1	0,248301
5,042500	0,1	0,263445
5,044167	0,1	0,262888
5,045833	0,1	0,256056
5,047500	0,1	0,246490
5,049167	0,1	0,259511
5,050833	0,1	0,281438
5,052500	0,1	0,238732
5,054167	0,1	0,240130
5,055833	0,1	0,286734
5,057500	0,1	0,256226
5,059167	0,1	0,287130
5,060833	0,1	0,219500
5,062500	0,1	0,244720
5,064167	0,1	0,234126
5,065833	0,1	0,203672
5,067500	0,1	0,249893
5,069167	0,1	0,222120
5,070833	0,1	0,288843
5,072500	0,1	0,258817
5,074167	0,1	0,285535
5,075833	0,1	0,252294
5,077500	0,1	0,242576
5,079167	0,1	0,253547
5,080833	0,1	0,246034
5,082500	0,1	0,229408
5,084167	0,1	0,270207
5,085833	0,1	0,235003
5,087500	0,1	0,247995
5,089167	0,1	0,273569
5,090833	0,1	0,216972
5,092500	0,1	0,233478
5,094167	0,1	0,238947
5,095833	0,1	0,232242
5,097500	0,1	0,214271
5,099167	0,1	0,268964
5,100833	0,1	0,264589
5,102500	0,1	0,274153
5,104167	0,1	0,245646
5,105833	0,1	0,251661
5,107500	0,1	0,255082
5,109167	0,1	0,246261
5,110833	0,1	0,272428
5,112500	0,1	0,256825
5,114167	0,1	0,261914
5,115833	0,1	0,263116
5,117500	0,1	0,258169
5,119167	0,1	0,265932
5,120833	0,1	0,251709
5,122500	0,1	0,268662
5,124167	0,1	0,272285
5,125833	0,1	0,267900
5,127500	0,1	0,249702
5,129167	0,1	0,275495
5,130833	0,1	0,251940
5,132500	0,1	0,267066
5,134167	0,1	0,239764
5,135833	0,1	0,265780
5,137500	0,1	0,265518
5,139167	0,1	0,209081
5,140833	0,1	0,275441
5,142500	0,1	0,214861
5,144167	0,1	0,230910
5,145833	0,1	0,258325
5,147500	0,1	0,233137
5,149167	0,1	0,231972
5,150833	0,1	0,230708
5,152500	0,1	0,251039
5,154167	0,1	0,256778
5,155833	0,1	0,242659
5,157500	0,1	0,225825
5,159167	0,1	0,236669
5,160833	0,1	0,260854
5,162500	0,1	0,260133
5,164167	0,1	0,239906
5,165833	0,1	0,244911
5,167500	0,1	0,221913
5,169167	0,1	0,237497
5,170833	0,1	0,253192
5,172500	0,1	0,235618
5,174167	0,1	0,252861
5,175833	0,1	0,232370
5,177500	0,1	0,257559
5,179167	0,1	0,250341
5,180833	0,1	0,209638
5,182500	0,1	0,238548
5,184167	0,1	0,245491
5,185833	0,1	0,245721
5,187500	0,1	0,180343
5,189167	0,1	0,230345
5,190833	0,1	0,224145
5,192500	0,1	0,234246
5,194167	0,1	0,231786
5,195833	0,1	0,245924
5,197500	0,1	0,204772
5,199167	0,1	0,219585
5,200833	0,1	0,269439
5,202500	0,1	0,175445
5,204167	0,1	0,187159
5,205833	0,1	0,185069
5,207500	0,1	0,251420
5,209167	0,1	0,218456
5,210833	0,1	0,203917
5,212500	0,1	0,219978
5,214167	0,1	0,228924
5,215833	0,1	0,175829
5,217500	0,1	0,228045
5,219167	0,1	0,233936
5,220833	0,1	0,221308
5,222500	0,1	0,219422
5,224167	0,1	0,198017
5,225833	0,1	0,231486
5,227500	0,1	0,252902
5,229167	0,1	0,195126
5,230833	0,1	0,223784
5,232500	0,1	0,200916
5,234167	0,1	0,251195
5,235833	0,1	0,251457
5,237500	0,1	0,193635
5,239167	0,1	0,239559
5,240833	0,1	0,163224
5,242500	0,1	0,250918
5,244167	0,1	0,199162
5,245833	0,1	0,175118
5,247500	0,1	0,191505
5,249167	0,1	0,228193
5,250833	0,1	0,186322
5,252500	0,1	0,185091
5,254167	0,1	0,174411
5,255833	0,1	0,223013
5,257500	0,1	0,225945
5,259167	0,1	0,226856
5,260833	0,1	0,180506
5,262500	0,1	0,148720
5,264167	0,1	0,189989
5,265833	0,1	0,193394
5,267500	0,1	0,198113
5,269167	0,1	0,198219
5,270833	0,1	0,167892
5,272500	0,1	0,184631
5,274167	0,1	0,168592
5,275833	0,1	0,189104
5,277500	0,1	0,162114
5,279167	0,1	0,187072
5,280833	0,1	0,207034
5,282500	0,1	0,178328
5,284167	0,1	0,196826
5,285833	0,1	0,190745
5,287500	0,1	0,182835
5,289167	0,1	0,191529
5,290833	0,1	0,213970
5,292500	0,1	0,156987
5,294167	0,1	0,185416
5,295833	0,1	0,195194
5,297500	0,1	0,132576
5,299167	0,1	0,179365
5,300833	0,1	0,158615
5,302500	0,1	0,189700
5,304167	0,1	0,216372
5,305833	0,1	0,151566
5,307500	0,1	0,186347
5,309167	0,1	0,158555
5,310833	0,1	0,167697
5,312500	0,1	0,142447
5,314167	0,1	0,170945
5,315833	0,1	0,143564
5,317500	0,1	0,126833
5,319167	0,1	0,156492
5,320833	0,1	0,140019
5,322500	0,1	0,149478
5,324167	0,1	0,156312
5,325833	0,1	0,157429
5,327500	0,1	0,140643
5,329167	0,1	0,185598
5,330833	0,1	0,176045
5,332500	0,1	0,156171
5,334167	0,1	0,131369
5,335833	0,1	0,135319
5,337500	0,1	0,176427
5,339167	0,1	0,134749
5,340833	0,1	0,165911
5,342500	0,1	0,132407
5,344167	0,1	0,140846
5,345833	0,1	0,179162
5,347500	0,1	0,128931
5,349167	0,1	0,136663
5,350833	0,1	0,108100
5,352500	0,1	0,119746
5,354167	0,1	0,141547
5,355833	0,1	0,123789
5,357500	0,1	0,121699
5,359167	0,1	0,130492
5,360833	0,1	0,126562
5,362500	0,1	0,136618
5,364167	0,1	0,115965
5,365833	0,1	0,149740
5,367500	0,1	0,146643
5,369167	0,1	0,144552
5,370833	0,1	0,145279
5,372500	0,1	0,140788
5,374167	0,1	0,165602
5,375833	0,1	0,140398
5,377500	0,1	0,118762
5,379167	0,1	0,147610
5,380833	0,1	0,117707
5,382500	0,1	0,189628
5,384167	0,1	0,121649
5,385833	0,1	0,159181
5,387500	0,1	0,103595
5,389167	0,1	0,103811
5,390833	0,1	0,091823
5,392500	0,1	0,148142
5,394167	0,1	0,112575
5,395833	0,1	0,111678
5,397500	0,1	0,153383
5,399167	0,1	0,145299
5,400833	0,1	0,111187
5,402500	0,1	0,125916
5,404167	0,1	0,115304
5,405833	0,1	0,109939
5,407500	0,1	0,112504
5,409167	0,1	0,146240
5,410833	0,1	0,139234
5,412500	0,1	0,095768
5,414167	0,1	0,123243
5,415833	0,1	0,107147
5,417500	0,1	0,112794
5,419167	0,1	0,091825
5,420833	0,1	0,090809
5,422500	0,1	0,132533
5,424167	0,1	0,138692
5,425833	0,1	0,133042
5,427500	0,1	0,086020
5,429167	0,1	0,136423
5,430833	0,1	0,147387
5,432500	0,1	0,099947
5,434167	0,1	0,125168
5,435833	0,1	0,106487
5,437500	0,1	0,095031
5,439167	0,1	0,095485
5,440833	0,1	0,085327
5,442500	0,1	0,122993
5,444167	0,1	0,124285
5,445833	0,1	0,123476
5,447500	0,1	0,114247
5,449167	0,1	0,072474
5,450833	0,1	0,146772
5,452500	0,1	0,109719
5,454167	0,1	0,065415
5,455833	0,1	0,103925
5,457500	0,1	0,056275
5,459167	0,1	0,090071
5,460833	0,1	0,117220
5,462500	0,1	0,099032
5,464167	0,1	0,089608
5,465833	0,1	0,129119
5,467500	0,1	0,133270
5,469167	0,1	0,106858
5,470833	0,1	0,125829
5,472500	0,1	0,069953
5,474167	0,1	0,075179
5,475833	0,1	0,126216
5,477500	0,1	0,101743
5,479167	0,1	0,105217
5,480833	0,1	0,130653
5,482500	0,1	0,075835
5,484167	0,1	0,072384
5,485833	0,1	0,090577
5,487500	0,1	0,082714
5,489167	0,1	0,097715
5,490833	0,1	0,086689
5,492500	0,1	0,074937
5,494167	0,1	0,113050
5,495833	0,1	0,064545
5,497500	0,1	0,100636
5,499167	0,1	0,120036
5,500833	0,1	0,073451
5,502500	0,1	0,058666
5,504167	0,1	0,096883
5,505833	0,1	0,078286
5,507500	0,1	0,143232
5,509167	0,1	0,090118
5,510833	0,1	0,086748
5,512500	0,1	0,096520
5,514167	0,1	0,098694
5,515833	0,1	0,058917
5,517500	0,1	0,090389
5,519167	0,1	0,111093
5,520833	0,1	0,080444
5,522500	0,1	0,081202
5,524167	0,1	0,112954
5,525833	0,1	0,123350
5,527500	0,1	0,060190
5,529167	0,1	0,088235
5,530833	0,1	0,086459
5,532500	0,1	0,090396
5,534167	0,1	0,131995
5,535833	0,1	0,074614
5,537500	0,1	0,062226
5,539167	0,1	0,079272
5,540833	0,1	0,044280
5,542500	0,1	0,085525
5,544167	0,1	0,100168
5,545833	0,1	0,097683
5,547500	0,1	0,106586
5,549167	0,1	0,088291
5,550833	0,1	0,076755
5,552500	0,1	0,058132
5,554167	0,1	0,061949
5,555833	0,1	0,062988
5,557500	0,1	0,092480
5,559167	0,1	0,065834
5,560833	0,1	0,100945
5,562500	0,1	0,099566
5,564167	0,1	0,097930
5,565833	0,1	0,085739
5,567500	0,1	0,111753
5,569167	0,1	0,100852
5,570833	0,1	0,081663
5,572500	0,1	0,100080
5,574167	0,1	0,064553
5,575833	0,1	0,083376
5,577500	0,1	0,097741
5,579167	0,1	0,071855
5,580833	0,1	0,087658
5,582500	0,1	0,089253
5,584167	0,1	0,076590
5,585833	0,1	0,073456
5,587500	0,1	0,083624
5,589167	0,1	0,088655
5,590833	0,1	0,064047
5,592500	0,1	0,086311
5,594167	0,1	0,039993
5,595833	0,1	0,080408
5,597500	0,1	0,108499
5,599167	0,1	0,058094
5,600833	0,1	0,057459
5,602500	0,1	0,092268
5,604167	0,1	0,034416
5,605833	0,1	0,071383
5,607500	0,1	0,108645
5,609167	0,1	0,066787
5,610833	0,1	0,045026
5,612500	0,1	0,098127
5,614167	0,1	0,082039
5,615833	0,1	0,023295
5,617500	0,1	0,080589
5,619167	0,1	0,083784
5,620833	0,1	0,119020
5,622500	0,1	0,057139
5,624167	0,1	0,077162
5,625833	0,1	0,126384
5,627500	0,1	0,102780
5,629167	0,1	0,101948
5,630833	0,1	0,055606
5,632500	0,1	0,090819
5,634167	0,1	0,088534
5,635833	0,1	0,086528
5,637500	0,1	0,039976
5,639167	0,1	0,084442
5,640833	0,1	0,121727
5,642500	0,1	0,117351
5,644167	0,1	0,084234
5,645833	0,1	0,068125
5,647500	0,1	0,100631
5,649167	0,1	0,096339
5,650833	0,1	0,083833
5,652500	0,1	0,132388
5,654167	0,1	0,046525
5,655833	0,1	0,124291
5,657500	0,1	0,096072
5,659167	0,1	0,106191
5,660833	0,1	0,076364
5,662500	0,1	0,100412
5,664167	0,1	0,062706
5,665833	0,1	0,089872
5,667500	0,1	0,056472
5,669167	0,1	0,087427
5,670833	0,1	0,080711
5,672500	0,1	0,141123
5,674167	0,1	0,089310
5,675833	0,1	0,096750
5,677500	0,1	0,091328
5,679167	0,1	0,054275
5,680833	0,1	0,096224
5,682500	0,1	0,071079
5,684167	0,1	0,102809
5,685833	0,1	0,132059
5,687500	0,1	0,089202
5,689167	0,1	0,095546
5,690833	0,1	0,112809
5,692500	0,1	0,117744
5,694167	0,1	0,108718
5,695833	0,1	0,094497
5,697500	0,1	0,117011
5,699167	0,1	0,072378
5,700833	0,1	0,157700
5,702500	0,1	0,109450
5,704167	0,1	0,143549
5,705833	0,1	0,102599
5,707500	0,1	0,083404
5,709167	0,1	0,097864
5,710833	0,1	0,095055
5,712500	0,1	0,107264
5,714167	0,1	0,081312
5,715833	0,1	0,111522
5,717500	0,1	0,126578
5,719167	0,1	0,113687
5,720833	0,1	0,098908
5,722500	0,1	0,077049
5,724167	0,1	0,137625
5,725833	0,1	0,105120
5,727500	0,1	0,117364
5,729167	0,1	0,061154
5,730833	0,1	0,104644
5,732500	0,1	0,101948
5,734167	0,1	0,119666
5,735833	0,1	0,112588
5,737500	0,1	0,124177
5,739167	0,1	0,148956
5,740833	0,1	0,119238
5,742500	0,1	0,102154
5,744167	0,1	0,117092
5,745833	0,1	0,124740
5,747500	0,1	0,122090
5,749167	0,1	0,083013
5,750833	0,1	0,142489
5,752500	0,1	0,092992
5,754167	0,1	0,147913
5,755833	0,1	0,127912
5,757500	0,1	0,105820
5,759167	0,1	0,099382
5,760833	0,1	0,099731
5,762500	0,1	0,127858
5,764167	0,1	0,076888
5,765833	0,1	0,124168
5,767500	0,1	0,140117
5,769167	0,1	0,143371
5,770833	0,1	0,133809
5,772500	0,1	0,108433
5,774167	0,1	0,173212
5,775833	0,1	0,102730
5,777500	0,1	0,138853
5,779167	0,1	0,135029
5,780833	0,1	0,088104
5,782500	0,1	0,105794
5,784167	0,1	0,131006
5,785833	0,1	0,153573
5,787500	0,1	0,086255
5,789167	0,1	0,119926
5,790833	0,1	0,121015
5,792500	0,1	0,144175
5,794167	0,1	0,093388
5,795833	0,1	0,121482
5,797500	0,1	0,130966
5,799167	0,1	0,132214
5,800833	0,1	0,148005
5,802500	0,1	0,113693
5,804167	0,1	0,094252
5,805833	0,1	0,125167
5,807500	0,1	0,085703
5,809167	0,1	0,101468
5,810833	0,1	0,130072
5,812500	0,1	0,164958
5,814167	0,1	0,137170
5,815833	0,1	0,093720
5,817500	0,1	0,112413
5,819167	0,1	0,141398
5,820833	0,1	0,113523
5,822500	0,1	0,099216
5,824167	0,1	0,149427
5,825833	0,1	0,131572
5,827500	0,1	0,133164
5,829167	0,1	0,137780
5,830833	0,1	0,127312
5,832500	0,1	0,165516
5,834167	0,1	0,130046
5,835833	0,1	0,119320
5,837500	0,1	0,137364
5,839167	0,1	0,091215
5,840833	0,1	0,139386
5,842500	0,1	0,099469
5,844167	0,1	0,120201
5,845833	0,1	0,129521
5,847500	0,1	0,092163
5,849167	0,1	0,161679
5,850833	0,1	0,121499
5,852500	0,1	0,145020
5,854167	0,1	0,097941
5,855833	0,1	0,096542
5,857500	0,1	0,101470
5,859167	0,1	0,096252
5,860833	0,1	0,090687
5,862500	0,1	0,145513
5,864167	0,1	0,141738
5,865833	0,1	0,145690
5,867500	0,1	0,115678
5,869167	0,1	0,131094
5,870833	0,1	0,131943
5,872500	0,1	0,122713
5,874167	0,1	0,105654
5,875833	0,1	0,111220
5,877500	0,1	0,106959
5,879167	0,1	0,089776
5,880833	0,1	0,078057
5,882500	0,1	0,120092
5,884167	0,1	0,094085
5,885833	0,1	0,092630
5,887500	0,1	0,087066
5,889167	0,1	0,112288
5,890833	0,1	0,118089
5,892500	0,1	0,092863
5,894167	0,1	0,098236
5,895833	0,1	0,099213
5,897500	0,1	0,109585
5,899167	0,1	0,115255
5,900833	0,1	0,115400
5,902500	0,1	0,096177
5,904167	0,1	0,140361
5,905833	0,1	0,119650
5,907500	0,1	0,113851
5,909167	0,1	0,092097
5,910833	0,1	0,111315
5,912500	0,1	0,102967
5,914167	0,1	0,087438
5,915833	0,1	0,094184
5,917500	0,1	0,081098
5,919167	0,1	0,103304
5,920833	0,1	0,111527
5,922500	0,1	0,104595
5,924167	0,1	0,099998
5,925833	0,1	0,111860
5,927500	0,1	0,101782
5,929167	0,1	0,110103
5,930833	0,1	0,092158
5,932500	0,1	0,087909
5,934167	0,1	0,070508
5,935833	0,1	0,127955
5,937500	0,1	0,115489
5,939167	0,1	0,101161
5,940833	0,1	0,097949
5,942500	0,1	0,114463
5,944167	0,1	0,106459
5,945833	0,1	0,090708
5,947500	0,1	0,074954
5,949167	0,1	0,099725
5,950833	0,1	0,118505
5,952500	0,1	0,116664
5,954167	0,1	0,090834
5,955833	0,1	0,096460
5,957500	0,1	0,119558
5,959167	0,1	0,107146
5,960833	0,1	0,095550
5,962500	0,1	0,077706
5,964167	0,1	0,064855
5,965833	0,1	0,114006
5,967500	0,1	0,109297
5,969167	0,1	0,057532
5,970833	0,1	0,081899
5,972500	0,1	0,061022
5,974167	0,1	0,061993
5,975833	0,1	0,099310
5,977500	0,1	0,075264
5,979167	0,1	0,092211
5,980833	0,1	0,108897
5,982500	0,1	0,061820
5,984167	0,1	0,070352
5,985833	0,1	0,063981
5,987500	0,1	0,107010
5,989167	0,1	0,066433
5,990833	0,1	0,071329
5,992500	0,1	0,054086
5,994167	0,1	0,076536
5,995833	0,1	0,125125
5,997500	0,1	0,059565
5,999167	0,1	0,083121
6,000833	0,1	0,095791
