File Path	chrom://chromeleon01/ikbm_chromeleon/2022/Rezex/Esteban/220612_chitin_4_7.seq/246.smp/UV_VIS_1.channel/UV_VIS_1.chm
Channel	UV_VIS_1

Injection Information:
Data Vault	ikbm_chromeleon
Injection	CelS2_02h-EGS_1
Injection Number	87
Position	GD7
Comment	
Processing Method	New ProcMethod
Instrument Method	Short_Rezex_6min_194nm
Type	Unknown
Status	Finished
Injection Date	13.06.2022
Injection Time	02:30:54
Injection Volume (µl)	8,000
Dilution Factor	1,0000
Weight	1,0000

Chromatogram Data Information:
Time Min. (min)	0,000833
Time Max. (min)	6,000833
Data Points	3601
Detector	UV
Generating Data System	Chromeleon 7.2.9.11323
Exporting Data System	Chromeleon 7.2.9.0
Operator	Instrument Controller
Signal Quantity	Absorbance
Signal Unit	mAU
Signal Min.	-0,101415
Signal Max.	143,479721
Channel	UV_VIS_1
Driver Name	VWD3000.dll
Channel Type	Evaluation
Min. Step (s)	0,1
Max. Step (s)	0,1
Average Step (s)	0,1

Signal Parameter Information:
Signal Info	WVL:194 nm

Chromatogram Data:
Time (min)	Step (s)	Value (mAU)
0,000833	n.a.	-0,020352
0,002500	0,1	-0,005423
0,004167	0,1	-0,022127
0,005833	0,1	0,035287
0,007500	0,1	-0,025721
0,009167	0,1	0,015098
0,010833	0,1	0,013781
0,012500	0,1	-0,003756
0,014167	0,1	-0,031693
0,015833	0,1	0,000642
0,017500	0,1	-0,033988
0,019167	0,1	0,022260
0,020833	0,1	-0,068649
0,022500	0,1	-0,011934
0,024167	0,1	0,007687
0,025833	0,1	-0,019100
0,027500	0,1	-0,041554
0,029167	0,1	-0,031537
0,030833	0,1	-0,073751
0,032500	0,1	-0,058316
0,034167	0,1	-0,060465
0,035833	0,1	-0,085038
0,037500	0,1	-0,039644
0,039167	0,1	-0,094783
0,040833	0,1	-0,055754
0,042500	0,1	-0,101415
0,044167	0,1	-0,024594
0,045833	0,1	-0,057889
0,047500	0,1	-0,023609
0,049167	0,1	-0,021201
0,050833	0,1	-0,037473
0,052500	0,1	-0,022488
0,054167	0,1	-0,028217
0,055833	0,1	-0,028984
0,057500	0,1	-0,023022
0,059167	0,1	-0,012874
0,060833	0,1	-0,028671
0,062500	0,1	-0,012257
0,064167	0,1	-0,031362
0,065833	0,1	-0,056319
0,067500	0,1	-0,030651
0,069167	0,1	-0,028325
0,070833	0,1	-0,044185
0,072500	0,1	0,012482
0,074167	0,1	0,047762
0,075833	0,1	-0,012548
0,077500	0,1	-0,016352
0,079167	0,1	-0,014675
0,080833	0,1	-0,015772
0,082500	0,1	-0,014780
0,084167	0,1	0,000563
0,085833	0,1	0,001872
0,087500	0,1	0,037717
0,089167	0,1	-0,002386
0,090833	0,1	0,027009
0,092500	0,1	0,001135
0,094167	0,1	0,003054
0,095833	0,1	0,009266
0,097500	0,1	0,004774
0,099167	0,1	0,000921
0,100833	0,1	-0,042085
0,102500	0,1	0,000786
0,104167	0,1	-0,031297
0,105833	0,1	-0,003705
0,107500	0,1	0,004293
0,109167	0,1	-0,032082
0,110833	0,1	-0,017870
0,112500	0,1	-0,022483
0,114167	0,1	-0,041887
0,115833	0,1	-0,016359
0,117500	0,1	0,006321
0,119167	0,1	-0,068916
0,120833	0,1	-0,056389
0,122500	0,1	-0,027356
0,124167	0,1	-0,056211
0,125833	0,1	-0,022036
0,127500	0,1	-0,035321
0,129167	0,1	-0,039193
0,130833	0,1	-0,033541
0,132500	0,1	-0,046211
0,134167	0,1	-0,029489
0,135833	0,1	-0,010618
0,137500	0,1	-0,015130
0,139167	0,1	-0,012027
0,140833	0,1	-0,031135
0,142500	0,1	-0,053460
0,144167	0,1	-0,017955
0,145833	0,1	-0,012005
0,147500	0,1	-0,023203
0,149167	0,1	-0,028612
0,150833	0,1	-0,001446
0,152500	0,1	0,014109
0,154167	0,1	-0,006903
0,155833	0,1	-0,037470
0,157500	0,1	-0,011390
0,159167	0,1	0,010174
0,160833	0,1	-0,005767
0,162500	0,1	0,004978
0,164167	0,1	-0,053162
0,165833	0,1	0,011324
0,167500	0,1	-0,042312
0,169167	0,1	-0,051495
0,170833	0,1	-0,005303
0,172500	0,1	-0,013038
0,174167	0,1	0,010130
0,175833	0,1	-0,028394
0,177500	0,1	0,020769
0,179167	0,1	-0,037710
0,180833	0,1	0,018119
0,182500	0,1	-0,000774
0,184167	0,1	0,003820
0,185833	0,1	0,033928
0,187500	0,1	-0,008079
0,189167	0,1	-0,009125
0,190833	0,1	-0,036520
0,192500	0,1	0,005157
0,194167	0,1	-0,010238
0,195833	0,1	0,002884
0,197500	0,1	-0,001854
0,199167	0,1	-0,014300
0,200833	0,1	-0,009065
0,202500	0,1	0,007213
0,204167	0,1	-0,010300
0,205833	0,1	0,001848
0,207500	0,1	-0,002062
0,209167	0,1	0,004647
0,210833	0,1	-0,003801
0,212500	0,1	-0,002437
0,214167	0,1	0,029557
0,215833	0,1	0,018467
0,217500	0,1	-0,010279
0,219167	0,1	0,040406
0,220833	0,1	0,009027
0,222500	0,1	-0,008935
0,224167	0,1	0,020197
0,225833	0,1	-0,007317
0,227500	0,1	0,026409
0,229167	0,1	-0,014190
0,230833	0,1	0,028975
0,232500	0,1	-0,026550
0,234167	0,1	-0,033150
0,235833	0,1	-0,014289
0,237500	0,1	-0,008609
0,239167	0,1	0,008268
0,240833	0,1	0,003469
0,242500	0,1	0,034527
0,244167	0,1	0,043047
0,245833	0,1	-0,026337
0,247500	0,1	0,002695
0,249167	0,1	0,030325
0,250833	0,1	0,006643
0,252500	0,1	-0,003345
0,254167	0,1	0,009016
0,255833	0,1	-0,002372
0,257500	0,1	-0,011980
0,259167	0,1	0,016736
0,260833	0,1	0,014342
0,262500	0,1	0,000428
0,264167	0,1	0,033472
0,265833	0,1	0,012668
0,267500	0,1	-0,000984
0,269167	0,1	0,001106
0,270833	0,1	-0,014714
0,272500	0,1	0,019386
0,274167	0,1	-0,004873
0,275833	0,1	0,026720
0,277500	0,1	0,038074
0,279167	0,1	0,008031
0,280833	0,1	0,012476
0,282500	0,1	0,010800
0,284167	0,1	-0,001418
0,285833	0,1	-0,017447
0,287500	0,1	0,014685
0,289167	0,1	0,030368
0,290833	0,1	0,016581
0,292500	0,1	0,011257
0,294167	0,1	0,010344
0,295833	0,1	-0,005891
0,297500	0,1	-0,014757
0,299167	0,1	0,016902
0,300833	0,1	0,022045
0,302500	0,1	0,022772
0,304167	0,1	-0,000588
0,305833	0,1	0,011066
0,307500	0,1	-0,029269
0,309167	0,1	0,043549
0,310833	0,1	0,011781
0,312500	0,1	0,018565
0,314167	0,1	0,014259
0,315833	0,1	-0,008395
0,317500	0,1	0,014563
0,319167	0,1	0,019995
0,320833	0,1	0,012665
0,322500	0,1	0,025130
0,324167	0,1	-0,015268
0,325833	0,1	0,004330
0,327500	0,1	-0,012891
0,329167	0,1	0,021747
0,330833	0,1	0,046480
0,332500	0,1	0,009440
0,334167	0,1	0,054429
0,335833	0,1	0,025366
0,337500	0,1	0,029233
0,339167	0,1	0,038428
0,340833	0,1	0,013600
0,342500	0,1	0,025419
0,344167	0,1	0,003906
0,345833	0,1	0,017195
0,347500	0,1	0,035567
0,349167	0,1	-0,004516
0,350833	0,1	-0,029187
0,352500	0,1	0,048478
0,354167	0,1	0,026503
0,355833	0,1	0,040415
0,357500	0,1	0,019896
0,359167	0,1	0,067147
0,360833	0,1	0,014478
0,362500	0,1	0,003058
0,364167	0,1	0,023264
0,365833	0,1	0,044720
0,367500	0,1	0,050959
0,369167	0,1	0,044499
0,370833	0,1	0,027910
0,372500	0,1	0,013412
0,374167	0,1	0,043765
0,375833	0,1	0,040792
0,377500	0,1	0,037312
0,379167	0,1	0,007990
0,380833	0,1	0,010879
0,382500	0,1	0,022063
0,384167	0,1	0,072637
0,385833	0,1	-0,006043
0,387500	0,1	0,048546
0,389167	0,1	0,044314
0,390833	0,1	0,043112
0,392500	0,1	0,034971
0,394167	0,1	0,045594
0,395833	0,1	0,056488
0,397500	0,1	0,011719
0,399167	0,1	0,002929
0,400833	0,1	0,062132
0,402500	0,1	0,064838
0,404167	0,1	0,055562
0,405833	0,1	0,080369
0,407500	0,1	0,037840
0,409167	0,1	0,025756
0,410833	0,1	0,059922
0,412500	0,1	0,029055
0,414167	0,1	0,050769
0,415833	0,1	0,034954
0,417500	0,1	0,044186
0,419167	0,1	0,047231
0,420833	0,1	0,038805
0,422500	0,1	0,055039
0,424167	0,1	0,051066
0,425833	0,1	0,044479
0,427500	0,1	0,035263
0,429167	0,1	-0,003587
0,430833	0,1	0,001105
0,432500	0,1	0,060641
0,434167	0,1	0,045663
0,435833	0,1	0,071090
0,437500	0,1	0,044257
0,439167	0,1	0,070821
0,440833	0,1	0,017937
0,442500	0,1	0,069488
0,444167	0,1	0,105516
0,445833	0,1	0,054970
0,447500	0,1	0,029404
0,449167	0,1	0,002415
0,450833	0,1	0,067081
0,452500	0,1	0,031188
0,454167	0,1	0,060297
0,455833	0,1	0,035847
0,457500	0,1	0,064252
0,459167	0,1	0,056349
0,460833	0,1	0,082875
0,462500	0,1	0,040697
0,464167	0,1	0,051600
0,465833	0,1	0,046922
0,467500	0,1	0,039860
0,469167	0,1	0,105628
0,470833	0,1	0,081707
0,472500	0,1	0,052419
0,474167	0,1	0,054275
0,475833	0,1	0,075150
0,477500	0,1	0,066852
0,479167	0,1	0,053346
0,480833	0,1	0,070388
0,482500	0,1	0,092010
0,484167	0,1	0,123062
0,485833	0,1	0,070113
0,487500	0,1	0,037257
0,489167	0,1	0,029130
0,490833	0,1	0,109439
0,492500	0,1	0,078394
0,494167	0,1	0,051921
0,495833	0,1	0,081052
0,497500	0,1	0,090068
0,499167	0,1	0,024817
0,500833	0,1	0,070938
0,502500	0,1	0,087932
0,504167	0,1	0,062607
0,505833	0,1	0,079833
0,507500	0,1	0,068943
0,509167	0,1	0,036491
0,510833	0,1	0,004551
0,512500	0,1	0,068905
0,514167	0,1	0,056618
0,515833	0,1	0,077264
0,517500	0,1	0,042208
0,519167	0,1	0,108366
0,520833	0,1	0,042216
0,522500	0,1	0,068852
0,524167	0,1	0,090127
0,525833	0,1	0,090629
0,527500	0,1	0,047472
0,529167	0,1	0,081651
0,530833	0,1	0,093650
0,532500	0,1	0,079965
0,534167	0,1	0,086421
0,535833	0,1	0,054821
0,537500	0,1	0,024517
0,539167	0,1	0,080902
0,540833	0,1	0,083710
0,542500	0,1	0,093838
0,544167	0,1	0,078452
0,545833	0,1	0,077331
0,547500	0,1	0,059955
0,549167	0,1	0,079459
0,550833	0,1	0,077289
0,552500	0,1	0,097171
0,554167	0,1	0,039707
0,555833	0,1	0,016912
0,557500	0,1	0,134004
0,559167	0,1	0,077987
0,560833	0,1	0,107444
0,562500	0,1	0,052632
0,564167	0,1	0,098096
0,565833	0,1	0,099846
0,567500	0,1	0,130932
0,569167	0,1	0,104951
0,570833	0,1	0,086326
0,572500	0,1	0,080046
0,574167	0,1	0,051839
0,575833	0,1	0,097932
0,577500	0,1	0,092185
0,579167	0,1	0,072572
0,580833	0,1	0,123182
0,582500	0,1	0,098734
0,584167	0,1	0,100488
0,585833	0,1	0,092290
0,587500	0,1	0,134790
0,589167	0,1	0,092649
0,590833	0,1	0,134227
0,592500	0,1	0,077303
0,594167	0,1	0,121899
0,595833	0,1	0,116340
0,597500	0,1	0,142476
0,599167	0,1	0,109737
0,600833	0,1	0,133260
0,602500	0,1	0,128003
0,604167	0,1	0,108410
0,605833	0,1	0,099581
0,607500	0,1	0,124824
0,609167	0,1	0,084841
0,610833	0,1	0,157012
0,612500	0,1	0,087024
0,614167	0,1	0,117140
0,615833	0,1	0,136448
0,617500	0,1	0,133408
0,619167	0,1	0,144157
0,620833	0,1	0,121585
0,622500	0,1	0,156566
0,624167	0,1	0,120468
0,625833	0,1	0,120254
0,627500	0,1	0,142581
0,629167	0,1	0,139773
0,630833	0,1	0,118208
0,632500	0,1	0,092003
0,634167	0,1	0,137687
0,635833	0,1	0,149357
0,637500	0,1	0,116905
0,639167	0,1	0,136597
0,640833	0,1	0,175370
0,642500	0,1	0,148686
0,644167	0,1	0,157043
0,645833	0,1	0,131032
0,647500	0,1	0,123508
0,649167	0,1	0,145564
0,650833	0,1	0,161496
0,652500	0,1	0,193570
0,654167	0,1	0,143945
0,655833	0,1	0,187473
0,657500	0,1	0,179574
0,659167	0,1	0,150134
0,660833	0,1	0,152054
0,662500	0,1	0,158601
0,664167	0,1	0,164281
0,665833	0,1	0,162043
0,667500	0,1	0,164836
0,669167	0,1	0,160696
0,670833	0,1	0,166349
0,672500	0,1	0,120494
0,674167	0,1	0,159072
0,675833	0,1	0,198088
0,677500	0,1	0,175536
0,679167	0,1	0,174143
0,680833	0,1	0,191872
0,682500	0,1	0,151321
0,684167	0,1	0,130518
0,685833	0,1	0,195943
0,687500	0,1	0,198376
0,689167	0,1	0,188756
0,690833	0,1	0,169363
0,692500	0,1	0,200220
0,694167	0,1	0,212882
0,695833	0,1	0,194476
0,697500	0,1	0,206296
0,699167	0,1	0,225274
0,700833	0,1	0,205182
0,702500	0,1	0,223450
0,704167	0,1	0,202487
0,705833	0,1	0,212178
0,707500	0,1	0,216185
0,709167	0,1	0,214938
0,710833	0,1	0,213554
0,712500	0,1	0,216662
0,714167	0,1	0,221298
0,715833	0,1	0,190185
0,717500	0,1	0,255432
0,719167	0,1	0,213475
0,720833	0,1	0,271557
0,722500	0,1	0,262477
0,724167	0,1	0,191731
0,725833	0,1	0,217501
0,727500	0,1	0,244544
0,729167	0,1	0,267156
0,730833	0,1	0,260928
0,732500	0,1	0,252868
0,734167	0,1	0,279046
0,735833	0,1	0,277153
0,737500	0,1	0,271534
0,739167	0,1	0,247732
0,740833	0,1	0,270206
0,742500	0,1	0,278562
0,744167	0,1	0,313838
0,745833	0,1	0,303469
0,747500	0,1	0,298419
0,749167	0,1	0,286375
0,750833	0,1	0,301019
0,752500	0,1	0,328969
0,754167	0,1	0,291296
0,755833	0,1	0,339924
0,757500	0,1	0,293299
0,759167	0,1	0,275254
0,760833	0,1	0,316271
0,762500	0,1	0,322224
0,764167	0,1	0,310147
0,765833	0,1	0,319111
0,767500	0,1	0,297679
0,769167	0,1	0,336939
0,770833	0,1	0,324573
0,772500	0,1	0,286409
0,774167	0,1	0,298488
0,775833	0,1	0,290745
0,777500	0,1	0,315316
0,779167	0,1	0,315085
0,780833	0,1	0,300827
0,782500	0,1	0,297295
0,784167	0,1	0,312331
0,785833	0,1	0,276519
0,787500	0,1	0,316986
0,789167	0,1	0,323120
0,790833	0,1	0,284619
0,792500	0,1	0,302367
0,794167	0,1	0,312205
0,795833	0,1	0,328520
0,797500	0,1	0,290853
0,799167	0,1	0,327267
0,800833	0,1	0,270514
0,802500	0,1	0,318811
0,804167	0,1	0,311304
0,805833	0,1	0,272184
0,807500	0,1	0,288144
0,809167	0,1	0,271690
0,810833	0,1	0,280110
0,812500	0,1	0,335642
0,814167	0,1	0,358627
0,815833	0,1	0,295319
0,817500	0,1	0,320012
0,819167	0,1	0,314516
0,820833	0,1	0,290106
0,822500	0,1	0,292543
0,824167	0,1	0,293224
0,825833	0,1	0,311687
0,827500	0,1	0,288343
0,829167	0,1	0,291774
0,830833	0,1	0,299736
0,832500	0,1	0,285898
0,834167	0,1	0,274621
0,835833	0,1	0,276672
0,837500	0,1	0,310389
0,839167	0,1	0,294313
0,840833	0,1	0,285244
0,842500	0,1	0,310113
0,844167	0,1	0,284363
0,845833	0,1	0,311071
0,847500	0,1	0,295950
0,849167	0,1	0,313298
0,850833	0,1	0,307287
0,852500	0,1	0,325750
0,854167	0,1	0,302215
0,855833	0,1	0,268971
0,857500	0,1	0,282868
0,859167	0,1	0,288652
0,860833	0,1	0,290806
0,862500	0,1	0,311272
0,864167	0,1	0,318207
0,865833	0,1	0,273534
0,867500	0,1	0,335775
0,869167	0,1	0,334986
0,870833	0,1	0,300426
0,872500	0,1	0,313002
0,874167	0,1	0,324187
0,875833	0,1	0,276999
0,877500	0,1	0,270024
0,879167	0,1	0,294567
0,880833	0,1	0,312811
0,882500	0,1	0,281784
0,884167	0,1	0,336964
0,885833	0,1	0,273892
0,887500	0,1	0,352054
0,889167	0,1	0,318568
0,890833	0,1	0,316797
0,892500	0,1	0,298033
0,894167	0,1	0,291162
0,895833	0,1	0,332948
0,897500	0,1	0,298724
0,899167	0,1	0,372618
0,900833	0,1	0,342894
0,902500	0,1	0,313491
0,904167	0,1	0,302275
0,905833	0,1	0,295397
0,907500	0,1	0,337863
0,909167	0,1	0,319887
0,910833	0,1	0,339767
0,912500	0,1	0,344967
0,914167	0,1	0,335171
0,915833	0,1	0,318403
0,917500	0,1	0,329996
0,919167	0,1	0,304115
0,920833	0,1	0,363434
0,922500	0,1	0,331165
0,924167	0,1	0,342657
0,925833	0,1	0,298264
0,927500	0,1	0,341647
0,929167	0,1	0,343365
0,930833	0,1	0,335784
0,932500	0,1	0,352738
0,934167	0,1	0,337235
0,935833	0,1	0,354412
0,937500	0,1	0,369771
0,939167	0,1	0,377259
0,940833	0,1	0,351273
0,942500	0,1	0,364858
0,944167	0,1	0,359819
0,945833	0,1	0,383715
0,947500	0,1	0,400488
0,949167	0,1	0,335861
0,950833	0,1	0,324156
0,952500	0,1	0,368190
0,954167	0,1	0,377837
0,955833	0,1	0,341476
0,957500	0,1	0,407030
0,959167	0,1	0,381701
0,960833	0,1	0,371959
0,962500	0,1	0,369132
0,964167	0,1	0,375261
0,965833	0,1	0,374718
0,967500	0,1	0,343727
0,969167	0,1	0,371789
0,970833	0,1	0,388181
0,972500	0,1	0,405756
0,974167	0,1	0,424365
0,975833	0,1	0,438150
0,977500	0,1	0,362018
0,979167	0,1	0,445880
0,980833	0,1	0,390057
0,982500	0,1	0,429338
0,984167	0,1	0,418356
0,985833	0,1	0,450967
0,987500	0,1	0,426655
0,989167	0,1	0,440142
0,990833	0,1	0,439151
0,992500	0,1	0,383185
0,994167	0,1	0,406301
0,995833	0,1	0,428858
0,997500	0,1	0,453220
0,999167	0,1	0,455374
1,000833	0,1	0,477867
1,002500	0,1	0,481632
1,004167	0,1	0,488830
1,005833	0,1	0,510840
1,007500	0,1	0,523153
1,009167	0,1	0,511396
1,010833	0,1	0,499792
1,012500	0,1	0,532084
1,014167	0,1	0,528266
1,015833	0,1	0,561268
1,017500	0,1	0,566998
1,019167	0,1	0,564813
1,020833	0,1	0,561151
1,022500	0,1	0,588464
1,024167	0,1	0,585996
1,025833	0,1	0,606690
1,027500	0,1	0,635043
1,029167	0,1	0,634731
1,030833	0,1	0,654495
1,032500	0,1	0,652642
1,034167	0,1	0,670701
1,035833	0,1	0,664051
1,037500	0,1	0,691889
1,039167	0,1	0,697524
1,040833	0,1	0,667402
1,042500	0,1	0,688928
1,044167	0,1	0,678588
1,045833	0,1	0,719343
1,047500	0,1	0,779282
1,049167	0,1	0,714232
1,050833	0,1	0,804044
1,052500	0,1	0,804512
1,054167	0,1	0,812716
1,055833	0,1	0,844231
1,057500	0,1	0,934998
1,059167	0,1	0,976593
1,060833	0,1	1,089132
1,062500	0,1	1,175242
1,064167	0,1	1,342992
1,065833	0,1	1,540583
1,067500	0,1	1,818162
1,069167	0,1	2,092259
1,070833	0,1	2,503513
1,072500	0,1	3,009972
1,074167	0,1	3,608625
1,075833	0,1	4,319508
1,077500	0,1	5,210997
1,079167	0,1	6,218954
1,080833	0,1	7,332856
1,082500	0,1	8,681502
1,084167	0,1	10,114901
1,085833	0,1	11,693194
1,087500	0,1	13,520514
1,089167	0,1	15,332507
1,090833	0,1	17,302856
1,092500	0,1	19,329998
1,094167	0,1	21,409654
1,095833	0,1	23,527260
1,097500	0,1	25,607364
1,099167	0,1	27,616133
1,100833	0,1	29,583501
1,102500	0,1	31,442402
1,104167	0,1	33,115523
1,105833	0,1	34,692951
1,107500	0,1	36,161021
1,109167	0,1	37,333983
1,110833	0,1	38,372700
1,112500	0,1	39,269550
1,114167	0,1	39,935522
1,115833	0,1	40,469596
1,117500	0,1	40,888227
1,119167	0,1	41,059106
1,120833	0,1	41,186587
1,122500	0,1	41,151918
1,124167	0,1	41,071086
1,125833	0,1	40,852254
1,127500	0,1	40,590675
1,129167	0,1	40,344490
1,130833	0,1	39,992177
1,132500	0,1	39,663800
1,134167	0,1	39,318729
1,135833	0,1	38,958765
1,137500	0,1	38,695921
1,139167	0,1	38,411755
1,140833	0,1	38,172885
1,142500	0,1	37,988333
1,144167	0,1	37,947407
1,145833	0,1	37,903703
1,147500	0,1	37,975152
1,149167	0,1	38,090078
1,150833	0,1	38,336779
1,152500	0,1	38,603630
1,154167	0,1	39,006799
1,155833	0,1	39,432016
1,157500	0,1	39,935390
1,159167	0,1	40,443931
1,160833	0,1	41,133766
1,162500	0,1	41,753314
1,164167	0,1	42,430080
1,165833	0,1	43,091690
1,167500	0,1	43,787866
1,169167	0,1	44,530040
1,170833	0,1	45,192702
1,172500	0,1	45,843538
1,174167	0,1	46,453670
1,175833	0,1	47,028496
1,177500	0,1	47,567144
1,179167	0,1	48,063577
1,180833	0,1	48,447397
1,182500	0,1	48,847037
1,184167	0,1	49,130424
1,185833	0,1	49,426294
1,187500	0,1	49,644291
1,189167	0,1	49,879273
1,190833	0,1	50,076484
1,192500	0,1	50,291111
1,194167	0,1	50,479685
1,195833	0,1	50,744028
1,197500	0,1	51,047050
1,199167	0,1	51,512213
1,200833	0,1	52,031153
1,202500	0,1	52,678415
1,204167	0,1	53,496122
1,205833	0,1	54,515408
1,207500	0,1	55,747421
1,209167	0,1	57,143310
1,210833	0,1	58,858370
1,212500	0,1	60,758703
1,214167	0,1	62,928606
1,215833	0,1	65,392769
1,217500	0,1	67,993659
1,219167	0,1	70,946058
1,220833	0,1	74,029454
1,222500	0,1	77,313026
1,224167	0,1	80,746401
1,225833	0,1	84,268772
1,227500	0,1	87,885909
1,229167	0,1	91,541257
1,230833	0,1	95,145772
1,232500	0,1	98,787023
1,234167	0,1	102,234802
1,235833	0,1	105,648023
1,237500	0,1	108,836836
1,239167	0,1	111,885476
1,240833	0,1	114,727433
1,242500	0,1	117,281156
1,244167	0,1	119,634463
1,245833	0,1	121,684481
1,247500	0,1	123,484297
1,249167	0,1	124,965015
1,250833	0,1	126,229373
1,252500	0,1	127,169854
1,254167	0,1	127,843322
1,255833	0,1	128,177349
1,257500	0,1	128,272569
1,259167	0,1	128,142148
1,260833	0,1	127,687067
1,262500	0,1	127,034024
1,264167	0,1	126,086509
1,265833	0,1	124,928075
1,267500	0,1	123,597012
1,269167	0,1	122,002692
1,270833	0,1	120,217303
1,272500	0,1	118,317119
1,274167	0,1	116,234330
1,275833	0,1	114,021113
1,277500	0,1	111,650719
1,279167	0,1	109,171195
1,280833	0,1	106,665384
1,282500	0,1	104,035826
1,284167	0,1	101,381249
1,285833	0,1	98,645911
1,287500	0,1	95,930247
1,289167	0,1	93,235608
1,290833	0,1	90,509165
1,292500	0,1	87,749228
1,294167	0,1	85,090158
1,295833	0,1	82,449250
1,297500	0,1	79,906841
1,299167	0,1	77,355099
1,300833	0,1	74,929434
1,302500	0,1	72,437340
1,304167	0,1	70,185205
1,305833	0,1	67,941176
1,307500	0,1	65,790184
1,309167	0,1	63,692676
1,310833	0,1	61,676610
1,312500	0,1	59,776444
1,314167	0,1	57,947326
1,315833	0,1	56,164399
1,317500	0,1	54,493019
1,319167	0,1	52,865595
1,320833	0,1	51,318723
1,322500	0,1	49,865102
1,324167	0,1	48,435120
1,325833	0,1	47,119088
1,327500	0,1	45,792380
1,329167	0,1	44,554700
1,330833	0,1	43,354227
1,332500	0,1	42,242865
1,334167	0,1	41,102524
1,335833	0,1	40,004990
1,337500	0,1	39,017288
1,339167	0,1	38,037984
1,340833	0,1	37,074998
1,342500	0,1	36,186440
1,344167	0,1	35,292708
1,345833	0,1	34,426319
1,347500	0,1	33,654948
1,349167	0,1	32,820937
1,350833	0,1	32,043334
1,352500	0,1	31,254752
1,354167	0,1	30,522326
1,355833	0,1	29,818438
1,357500	0,1	29,099570
1,359167	0,1	28,441244
1,360833	0,1	27,748592
1,362500	0,1	27,132313
1,364167	0,1	26,502327
1,365833	0,1	25,854737
1,367500	0,1	25,278374
1,369167	0,1	24,696778
1,370833	0,1	24,123487
1,372500	0,1	23,571702
1,374167	0,1	23,039829
1,375833	0,1	22,538094
1,377500	0,1	22,030655
1,379167	0,1	21,481969
1,380833	0,1	20,972873
1,382500	0,1	20,506782
1,384167	0,1	20,086682
1,385833	0,1	19,610618
1,387500	0,1	19,207611
1,389167	0,1	18,739100
1,390833	0,1	18,358075
1,392500	0,1	17,991682
1,394167	0,1	17,550366
1,395833	0,1	17,204540
1,397500	0,1	16,865072
1,399167	0,1	16,497207
1,400833	0,1	16,121906
1,402500	0,1	15,828801
1,404167	0,1	15,533644
1,405833	0,1	15,219304
1,407500	0,1	14,839791
1,409167	0,1	14,618055
1,410833	0,1	14,375648
1,412500	0,1	14,086624
1,414167	0,1	13,826175
1,415833	0,1	13,566768
1,417500	0,1	13,358002
1,419167	0,1	13,082468
1,420833	0,1	12,904039
1,422500	0,1	12,679503
1,424167	0,1	12,414956
1,425833	0,1	12,264233
1,427500	0,1	12,069576
1,429167	0,1	11,904609
1,430833	0,1	11,678325
1,432500	0,1	11,523568
1,434167	0,1	11,335606
1,435833	0,1	11,162880
1,437500	0,1	10,991371
1,439167	0,1	10,818046
1,440833	0,1	10,651876
1,442500	0,1	10,549338
1,444167	0,1	10,385267
1,445833	0,1	10,249324
1,447500	0,1	10,096989
1,449167	0,1	9,975318
1,450833	0,1	9,804318
1,452500	0,1	9,712585
1,454167	0,1	9,531610
1,455833	0,1	9,439929
1,457500	0,1	9,323677
1,459167	0,1	9,179947
1,460833	0,1	9,077169
1,462500	0,1	8,940720
1,464167	0,1	8,864775
1,465833	0,1	8,734233
1,467500	0,1	8,640307
1,469167	0,1	8,570407
1,470833	0,1	8,456292
1,472500	0,1	8,345490
1,474167	0,1	8,284356
1,475833	0,1	8,187506
1,477500	0,1	8,101133
1,479167	0,1	7,995184
1,480833	0,1	7,944571
1,482500	0,1	7,854546
1,484167	0,1	7,842817
1,485833	0,1	7,765446
1,487500	0,1	7,666015
1,489167	0,1	7,619992
1,490833	0,1	7,598484
1,492500	0,1	7,568067
1,494167	0,1	7,477954
1,495833	0,1	7,470272
1,497500	0,1	7,439955
1,499167	0,1	7,427248
1,500833	0,1	7,372211
1,502500	0,1	7,313824
1,504167	0,1	7,302246
1,505833	0,1	7,232695
1,507500	0,1	7,204414
1,509167	0,1	7,220540
1,510833	0,1	7,196674
1,512500	0,1	7,156217
1,514167	0,1	7,153218
1,515833	0,1	7,131313
1,517500	0,1	7,137930
1,519167	0,1	7,077061
1,520833	0,1	7,079843
1,522500	0,1	7,044708
1,524167	0,1	7,008166
1,525833	0,1	7,026238
1,527500	0,1	6,991576
1,529167	0,1	7,007967
1,530833	0,1	6,963149
1,532500	0,1	6,970874
1,534167	0,1	6,900432
1,535833	0,1	6,908803
1,537500	0,1	6,830274
1,539167	0,1	6,834347
1,540833	0,1	6,789269
1,542500	0,1	6,822133
1,544167	0,1	6,769985
1,545833	0,1	6,721267
1,547500	0,1	6,732708
1,549167	0,1	6,697046
1,550833	0,1	6,666864
1,552500	0,1	6,669470
1,554167	0,1	6,639295
1,555833	0,1	6,572882
1,557500	0,1	6,572691
1,559167	0,1	6,568591
1,560833	0,1	6,529427
1,562500	0,1	6,468636
1,564167	0,1	6,464051
1,565833	0,1	6,452605
1,567500	0,1	6,374710
1,569167	0,1	6,397960
1,570833	0,1	6,349937
1,572500	0,1	6,288412
1,574167	0,1	6,320421
1,575833	0,1	6,262266
1,577500	0,1	6,247756
1,579167	0,1	6,169886
1,580833	0,1	6,164583
1,582500	0,1	6,151840
1,584167	0,1	6,110708
1,585833	0,1	6,064953
1,587500	0,1	6,041688
1,589167	0,1	6,029700
1,590833	0,1	5,967454
1,592500	0,1	5,973698
1,594167	0,1	5,878045
1,595833	0,1	5,897839
1,597500	0,1	5,840096
1,599167	0,1	5,768769
1,600833	0,1	5,794458
1,602500	0,1	5,736203
1,604167	0,1	5,703407
1,605833	0,1	5,736919
1,607500	0,1	5,650429
1,609167	0,1	5,690798
1,610833	0,1	5,609519
1,612500	0,1	5,595410
1,614167	0,1	5,558217
1,615833	0,1	5,562779
1,617500	0,1	5,522126
1,619167	0,1	5,497627
1,620833	0,1	5,496563
1,622500	0,1	5,452336
1,624167	0,1	5,445176
1,625833	0,1	5,437485
1,627500	0,1	5,401625
1,629167	0,1	5,382425
1,630833	0,1	5,382678
1,632500	0,1	5,371092
1,634167	0,1	5,389506
1,635833	0,1	5,412796
1,637500	0,1	5,418823
1,639167	0,1	5,429748
1,640833	0,1	5,430268
1,642500	0,1	5,456870
1,644167	0,1	5,536835
1,645833	0,1	5,554235
1,647500	0,1	5,640130
1,649167	0,1	5,683096
1,650833	0,1	5,810313
1,652500	0,1	5,880359
1,654167	0,1	6,007815
1,655833	0,1	6,139969
1,657500	0,1	6,286619
1,659167	0,1	6,410877
1,660833	0,1	6,635058
1,662500	0,1	6,803659
1,664167	0,1	6,993479
1,665833	0,1	7,296203
1,667500	0,1	7,545237
1,669167	0,1	7,798327
1,670833	0,1	8,117146
1,672500	0,1	8,498927
1,674167	0,1	8,898108
1,675833	0,1	9,275847
1,677500	0,1	9,779859
1,679167	0,1	10,237948
1,680833	0,1	10,754528
1,682500	0,1	11,298028
1,684167	0,1	11,862549
1,685833	0,1	12,501084
1,687500	0,1	13,157405
1,689167	0,1	13,806239
1,690833	0,1	14,541917
1,692500	0,1	15,286067
1,694167	0,1	16,092840
1,695833	0,1	16,939286
1,697500	0,1	17,838474
1,699167	0,1	18,727671
1,700833	0,1	19,620735
1,702500	0,1	20,647690
1,704167	0,1	21,619829
1,705833	0,1	22,653467
1,707500	0,1	23,772839
1,709167	0,1	24,831567
1,710833	0,1	25,962270
1,712500	0,1	27,069775
1,714167	0,1	28,226542
1,715833	0,1	29,434120
1,717500	0,1	30,588849
1,719167	0,1	31,800839
1,720833	0,1	33,026756
1,722500	0,1	34,227367
1,724167	0,1	35,429213
1,725833	0,1	36,673984
1,727500	0,1	37,862079
1,729167	0,1	39,117787
1,730833	0,1	40,330688
1,732500	0,1	41,493853
1,734167	0,1	42,686421
1,735833	0,1	43,856909
1,737500	0,1	45,019049
1,739167	0,1	46,099019
1,740833	0,1	47,227087
1,742500	0,1	48,317807
1,744167	0,1	49,348377
1,745833	0,1	50,353353
1,747500	0,1	51,290835
1,749167	0,1	52,248429
1,750833	0,1	53,136901
1,752500	0,1	54,017300
1,754167	0,1	54,805385
1,755833	0,1	55,587174
1,757500	0,1	56,281280
1,759167	0,1	56,954598
1,760833	0,1	57,559866
1,762500	0,1	58,148353
1,764167	0,1	58,663618
1,765833	0,1	59,116949
1,767500	0,1	59,531091
1,769167	0,1	59,921479
1,770833	0,1	60,237358
1,772500	0,1	60,545728
1,774167	0,1	60,677013
1,775833	0,1	60,810242
1,777500	0,1	61,017712
1,779167	0,1	61,012012
1,780833	0,1	61,013680
1,782500	0,1	60,982305
1,784167	0,1	60,867716
1,785833	0,1	60,754055
1,787500	0,1	60,564610
1,789167	0,1	60,331713
1,790833	0,1	60,015477
1,792500	0,1	59,727177
1,794167	0,1	59,373869
1,795833	0,1	58,954771
1,797500	0,1	58,531561
1,799167	0,1	58,046061
1,800833	0,1	57,579104
1,802500	0,1	57,014785
1,804167	0,1	56,438326
1,805833	0,1	55,821735
1,807500	0,1	55,184827
1,809167	0,1	54,507171
1,810833	0,1	53,844271
1,812500	0,1	53,106809
1,814167	0,1	52,411762
1,815833	0,1	51,680756
1,817500	0,1	50,919301
1,819167	0,1	50,143349
1,820833	0,1	49,376516
1,822500	0,1	48,554065
1,824167	0,1	47,762359
1,825833	0,1	46,939320
1,827500	0,1	46,119507
1,829167	0,1	45,281751
1,830833	0,1	44,427262
1,832500	0,1	43,629983
1,834167	0,1	42,751979
1,835833	0,1	41,937702
1,837500	0,1	41,108295
1,839167	0,1	40,272732
1,840833	0,1	39,472996
1,842500	0,1	38,680379
1,844167	0,1	37,884510
1,845833	0,1	37,052127
1,847500	0,1	36,306224
1,849167	0,1	35,550696
1,850833	0,1	34,797839
1,852500	0,1	34,058267
1,854167	0,1	33,364059
1,855833	0,1	32,682621
1,857500	0,1	31,989997
1,859167	0,1	31,350627
1,860833	0,1	30,661106
1,862500	0,1	30,050830
1,864167	0,1	29,386279
1,865833	0,1	28,842915
1,867500	0,1	28,200456
1,869167	0,1	27,606923
1,870833	0,1	27,051289
1,872500	0,1	26,498964
1,874167	0,1	25,944193
1,875833	0,1	25,410389
1,877500	0,1	24,876272
1,879167	0,1	24,356588
1,880833	0,1	23,857325
1,882500	0,1	23,349084
1,884167	0,1	22,898412
1,885833	0,1	22,436496
1,887500	0,1	22,019895
1,889167	0,1	21,572201
1,890833	0,1	21,125782
1,892500	0,1	20,708169
1,894167	0,1	20,296666
1,895833	0,1	19,886069
1,897500	0,1	19,482802
1,899167	0,1	19,159205
1,900833	0,1	18,760795
1,902500	0,1	18,387991
1,904167	0,1	18,023352
1,905833	0,1	17,722765
1,907500	0,1	17,369705
1,909167	0,1	17,059828
1,910833	0,1	16,746678
1,912500	0,1	16,469686
1,914167	0,1	16,124032
1,915833	0,1	15,857561
1,917500	0,1	15,576778
1,919167	0,1	15,301619
1,920833	0,1	15,033000
1,922500	0,1	14,796982
1,924167	0,1	14,551998
1,925833	0,1	14,326253
1,927500	0,1	14,058946
1,929167	0,1	13,847291
1,930833	0,1	13,636461
1,932500	0,1	13,427011
1,934167	0,1	13,184456
1,935833	0,1	12,950353
1,937500	0,1	12,736150
1,939167	0,1	12,534257
1,940833	0,1	12,391857
1,942500	0,1	12,191136
1,944167	0,1	12,034078
1,945833	0,1	11,849072
1,947500	0,1	11,643068
1,949167	0,1	11,512922
1,950833	0,1	11,349119
1,952500	0,1	11,220666
1,954167	0,1	11,072359
1,955833	0,1	10,900220
1,957500	0,1	10,800257
1,959167	0,1	10,646500
1,960833	0,1	10,545775
1,962500	0,1	10,396652
1,964167	0,1	10,320369
1,965833	0,1	10,160488
1,967500	0,1	10,071482
1,969167	0,1	9,961856
1,970833	0,1	9,875862
1,972500	0,1	9,811559
1,974167	0,1	9,722643
1,975833	0,1	9,637049
1,977500	0,1	9,579346
1,979167	0,1	9,489246
1,980833	0,1	9,473614
1,982500	0,1	9,345810
1,984167	0,1	9,310987
1,985833	0,1	9,250547
1,987500	0,1	9,205086
1,989167	0,1	9,147621
1,990833	0,1	9,093477
1,992500	0,1	9,074291
1,994167	0,1	9,017052
1,995833	0,1	9,036260
1,997500	0,1	9,020332
1,999167	0,1	8,925578
2,000833	0,1	8,929456
2,002500	0,1	8,883319
2,004167	0,1	8,898682
2,005833	0,1	8,885729
2,007500	0,1	8,826341
2,009167	0,1	8,870248
2,010833	0,1	8,872021
2,012500	0,1	8,890686
2,014167	0,1	8,886206
2,015833	0,1	8,910520
2,017500	0,1	8,890052
2,019167	0,1	8,875023
2,020833	0,1	8,891297
2,022500	0,1	8,918004
2,024167	0,1	8,915331
2,025833	0,1	8,969497
2,027500	0,1	8,985613
2,029167	0,1	8,998141
2,030833	0,1	8,992043
2,032500	0,1	9,011658
2,034167	0,1	9,075920
2,035833	0,1	9,084386
2,037500	0,1	9,109438
2,039167	0,1	9,144186
2,040833	0,1	9,192397
2,042500	0,1	9,218216
2,044167	0,1	9,220329
2,045833	0,1	9,280068
2,047500	0,1	9,305932
2,049167	0,1	9,342594
2,050833	0,1	9,382129
2,052500	0,1	9,412794
2,054167	0,1	9,486925
2,055833	0,1	9,489975
2,057500	0,1	9,500691
2,059167	0,1	9,521613
2,060833	0,1	9,605644
2,062500	0,1	9,587053
2,064167	0,1	9,667756
2,065833	0,1	9,671268
2,067500	0,1	9,694831
2,069167	0,1	9,738264
2,070833	0,1	9,770885
2,072500	0,1	9,817761
2,074167	0,1	9,847000
2,075833	0,1	9,862109
2,077500	0,1	9,877827
2,079167	0,1	9,887600
2,080833	0,1	9,925876
2,082500	0,1	9,965105
2,084167	0,1	9,989327
2,085833	0,1	9,986305
2,087500	0,1	10,041374
2,089167	0,1	10,031260
2,090833	0,1	10,061261
2,092500	0,1	10,103863
2,094167	0,1	10,098482
2,095833	0,1	10,133389
2,097500	0,1	10,130219
2,099167	0,1	10,147135
2,100833	0,1	10,169587
2,102500	0,1	10,218768
2,104167	0,1	10,234061
2,105833	0,1	10,173431
2,107500	0,1	10,233453
2,109167	0,1	10,215929
2,110833	0,1	10,225948
2,112500	0,1	10,265932
2,114167	0,1	10,250060
2,115833	0,1	10,267969
2,117500	0,1	10,200666
2,119167	0,1	10,252016
2,120833	0,1	10,230126
2,122500	0,1	10,246169
2,124167	0,1	10,245731
2,125833	0,1	10,192560
2,127500	0,1	10,245432
2,129167	0,1	10,241296
2,130833	0,1	10,244631
2,132500	0,1	10,271743
2,134167	0,1	10,193450
2,135833	0,1	10,215284
2,137500	0,1	10,154872
2,139167	0,1	10,139758
2,140833	0,1	10,104906
2,142500	0,1	10,137381
2,144167	0,1	10,060445
2,145833	0,1	10,101449
2,147500	0,1	10,080160
2,149167	0,1	10,024104
2,150833	0,1	10,056934
2,152500	0,1	9,989792
2,154167	0,1	9,950076
2,155833	0,1	9,977898
2,157500	0,1	9,914628
2,159167	0,1	9,912430
2,160833	0,1	9,866212
2,162500	0,1	9,874439
2,164167	0,1	9,785743
2,165833	0,1	9,781655
2,167500	0,1	9,772168
2,169167	0,1	9,778221
2,170833	0,1	9,692782
2,172500	0,1	9,697356
2,174167	0,1	9,619572
2,175833	0,1	9,649257
2,177500	0,1	9,573416
2,179167	0,1	9,527334
2,180833	0,1	9,503429
2,182500	0,1	9,524798
2,184167	0,1	9,478498
2,185833	0,1	9,443227
2,187500	0,1	9,432484
2,189167	0,1	9,373380
2,190833	0,1	9,395386
2,192500	0,1	9,281419
2,194167	0,1	9,306242
2,195833	0,1	9,263625
2,197500	0,1	9,224274
2,199167	0,1	9,195380
2,200833	0,1	9,181096
2,202500	0,1	9,122049
2,204167	0,1	9,128534
2,205833	0,1	9,100855
2,207500	0,1	9,039238
2,209167	0,1	9,003588
2,210833	0,1	8,962789
2,212500	0,1	8,961571
2,214167	0,1	8,933936
2,215833	0,1	8,917433
2,217500	0,1	8,875730
2,219167	0,1	8,870276
2,220833	0,1	8,809382
2,222500	0,1	8,766335
2,224167	0,1	8,785372
2,225833	0,1	8,770284
2,227500	0,1	8,695800
2,229167	0,1	8,712882
2,230833	0,1	8,675662
2,232500	0,1	8,632889
2,234167	0,1	8,648117
2,235833	0,1	8,597002
2,237500	0,1	8,593940
2,239167	0,1	8,527865
2,240833	0,1	8,555576
2,242500	0,1	8,527334
2,244167	0,1	8,487099
2,245833	0,1	8,446555
2,247500	0,1	8,430160
2,249167	0,1	8,420838
2,250833	0,1	8,412805
2,252500	0,1	8,393783
2,254167	0,1	8,338634
2,255833	0,1	8,372091
2,257500	0,1	8,309425
2,259167	0,1	8,287403
2,260833	0,1	8,265450
2,262500	0,1	8,244787
2,264167	0,1	8,286019
2,265833	0,1	8,207587
2,267500	0,1	8,195104
2,269167	0,1	8,170479
2,270833	0,1	8,154874
2,272500	0,1	8,147380
2,274167	0,1	8,143928
2,275833	0,1	8,109348
2,277500	0,1	8,102422
2,279167	0,1	8,077799
2,280833	0,1	8,033559
2,282500	0,1	8,039366
2,284167	0,1	7,993127
2,285833	0,1	7,968451
2,287500	0,1	7,959962
2,289167	0,1	7,920013
2,290833	0,1	7,925442
2,292500	0,1	7,895164
2,294167	0,1	7,890205
2,295833	0,1	7,883057
2,297500	0,1	7,823522
2,299167	0,1	7,827609
2,300833	0,1	7,818812
2,302500	0,1	7,798272
2,304167	0,1	7,749740
2,305833	0,1	7,746912
2,307500	0,1	7,744285
2,309167	0,1	7,722563
2,310833	0,1	7,709264
2,312500	0,1	7,679701
2,314167	0,1	7,661947
2,315833	0,1	7,687894
2,317500	0,1	7,647012
2,319167	0,1	7,610891
2,320833	0,1	7,569383
2,322500	0,1	7,559107
2,324167	0,1	7,577096
2,325833	0,1	7,519355
2,327500	0,1	7,558155
2,329167	0,1	7,494344
2,330833	0,1	7,507207
2,332500	0,1	7,502719
2,334167	0,1	7,500855
2,335833	0,1	7,436879
2,337500	0,1	7,408217
2,339167	0,1	7,413801
2,340833	0,1	7,405049
2,342500	0,1	7,402792
2,344167	0,1	7,346193
2,345833	0,1	7,351392
2,347500	0,1	7,318101
2,349167	0,1	7,298699
2,350833	0,1	7,307373
2,352500	0,1	7,307182
2,354167	0,1	7,267280
2,355833	0,1	7,271645
2,357500	0,1	7,303807
2,359167	0,1	7,247604
2,360833	0,1	7,244880
2,362500	0,1	7,255322
2,364167	0,1	7,236209
2,365833	0,1	7,230149
2,367500	0,1	7,241432
2,369167	0,1	7,259982
2,370833	0,1	7,236029
2,372500	0,1	7,255886
2,374167	0,1	7,267637
2,375833	0,1	7,305492
2,377500	0,1	7,299730
2,379167	0,1	7,328252
2,380833	0,1	7,357737
2,382500	0,1	7,351300
2,384167	0,1	7,368002
2,385833	0,1	7,411568
2,387500	0,1	7,473316
2,389167	0,1	7,485276
2,390833	0,1	7,555821
2,392500	0,1	7,602395
2,394167	0,1	7,624827
2,395833	0,1	7,698938
2,397500	0,1	7,776981
2,399167	0,1	7,888886
2,400833	0,1	7,946491
2,402500	0,1	8,057360
2,404167	0,1	8,172049
2,405833	0,1	8,246907
2,407500	0,1	8,382638
2,409167	0,1	8,542517
2,410833	0,1	8,650915
2,412500	0,1	8,835679
2,414167	0,1	8,998236
2,415833	0,1	9,182110
2,417500	0,1	9,403904
2,419167	0,1	9,557990
2,420833	0,1	9,829484
2,422500	0,1	10,047646
2,424167	0,1	10,226349
2,425833	0,1	10,497770
2,427500	0,1	10,751579
2,429167	0,1	10,975072
2,430833	0,1	11,252902
2,432500	0,1	11,527487
2,434167	0,1	11,818808
2,435833	0,1	12,062366
2,437500	0,1	12,416924
2,439167	0,1	12,698129
2,440833	0,1	12,977651
2,442500	0,1	13,273979
2,444167	0,1	13,606027
2,445833	0,1	13,875430
2,447500	0,1	14,160933
2,449167	0,1	14,483841
2,450833	0,1	14,760873
2,452500	0,1	15,071840
2,454167	0,1	15,370787
2,455833	0,1	15,689906
2,457500	0,1	16,001277
2,459167	0,1	16,223587
2,460833	0,1	16,603299
2,462500	0,1	16,854908
2,464167	0,1	17,170565
2,465833	0,1	17,404682
2,467500	0,1	17,749603
2,469167	0,1	18,008718
2,470833	0,1	18,298207
2,472500	0,1	18,636379
2,474167	0,1	18,929744
2,475833	0,1	19,329868
2,477500	0,1	19,588332
2,479167	0,1	19,985770
2,480833	0,1	20,375354
2,482500	0,1	20,714827
2,484167	0,1	21,131627
2,485833	0,1	21,586828
2,487500	0,1	22,069339
2,489167	0,1	22,594927
2,490833	0,1	23,102204
2,492500	0,1	23,734891
2,494167	0,1	24,299725
2,495833	0,1	24,950321
2,497500	0,1	25,718524
2,499167	0,1	26,510826
2,500833	0,1	27,371343
2,502500	0,1	28,285924
2,504167	0,1	29,236995
2,505833	0,1	30,292192
2,507500	0,1	31,333867
2,509167	0,1	32,548732
2,510833	0,1	33,785285
2,512500	0,1	35,144414
2,514167	0,1	36,538433
2,515833	0,1	38,062337
2,517500	0,1	39,641417
2,519167	0,1	41,315892
2,520833	0,1	43,045641
2,522500	0,1	44,886068
2,524167	0,1	46,836210
2,525833	0,1	48,815805
2,527500	0,1	50,865265
2,529167	0,1	53,034499
2,530833	0,1	55,307633
2,532500	0,1	57,595643
2,534167	0,1	59,950488
2,535833	0,1	62,326325
2,537500	0,1	64,872101
2,539167	0,1	67,361043
2,540833	0,1	69,972576
2,542500	0,1	72,560633
2,544167	0,1	75,238912
2,545833	0,1	77,947719
2,547500	0,1	80,606722
2,549167	0,1	83,321971
2,550833	0,1	86,087438
2,552500	0,1	88,811125
2,554167	0,1	91,474027
2,555833	0,1	94,234977
2,557500	0,1	96,856260
2,559167	0,1	99,514795
2,560833	0,1	102,081490
2,562500	0,1	104,683150
2,564167	0,1	107,194134
2,565833	0,1	109,659343
2,567500	0,1	112,009861
2,569167	0,1	114,373655
2,570833	0,1	116,633690
2,572500	0,1	118,835512
2,574167	0,1	120,923861
2,575833	0,1	122,892884
2,577500	0,1	124,920842
2,579167	0,1	126,682428
2,580833	0,1	128,464756
2,582500	0,1	130,098626
2,584167	0,1	131,690927
2,585833	0,1	133,102949
2,587500	0,1	134,470282
2,589167	0,1	135,764338
2,590833	0,1	136,884849
2,592500	0,1	137,944516
2,594167	0,1	138,928163
2,595833	0,1	139,863751
2,597500	0,1	140,578107
2,599167	0,1	141,310892
2,600833	0,1	141,815514
2,602500	0,1	142,294491
2,604167	0,1	142,767267
2,605833	0,1	143,048958
2,607500	0,1	143,233287
2,609167	0,1	143,412373
2,610833	0,1	143,456284
2,612500	0,1	143,479721
2,614167	0,1	143,356612
2,615833	0,1	143,191549
2,617500	0,1	142,921808
2,619167	0,1	142,635143
2,620833	0,1	142,217119
2,622500	0,1	141,714776
2,624167	0,1	141,202535
2,625833	0,1	140,612371
2,627500	0,1	139,967146
2,629167	0,1	139,248418
2,630833	0,1	138,475537
2,632500	0,1	137,651089
2,634167	0,1	136,727711
2,635833	0,1	135,806011
2,637500	0,1	134,800821
2,639167	0,1	133,742644
2,640833	0,1	132,748512
2,642500	0,1	131,536615
2,644167	0,1	130,411260
2,645833	0,1	129,194015
2,647500	0,1	127,962003
2,649167	0,1	126,689945
2,650833	0,1	125,390205
2,652500	0,1	124,042886
2,654167	0,1	122,661958
2,655833	0,1	121,244405
2,657500	0,1	119,830342
2,659167	0,1	118,375317
2,660833	0,1	116,901086
2,662500	0,1	115,454102
2,664167	0,1	113,891976
2,665833	0,1	112,373638
2,667500	0,1	110,850680
2,669167	0,1	109,283746
2,670833	0,1	107,704542
2,672500	0,1	106,144538
2,674167	0,1	104,551599
2,675833	0,1	102,963044
2,677500	0,1	101,382569
2,679167	0,1	99,773884
2,680833	0,1	98,164824
2,682500	0,1	96,607756
2,684167	0,1	95,003043
2,685833	0,1	93,404583
2,687500	0,1	91,835325
2,689167	0,1	90,279961
2,690833	0,1	88,666532
2,692500	0,1	87,160327
2,694167	0,1	85,593267
2,695833	0,1	84,082748
2,697500	0,1	82,582056
2,699167	0,1	81,076791
2,700833	0,1	79,550562
2,702500	0,1	78,089382
2,704167	0,1	76,637406
2,705833	0,1	75,230151
2,707500	0,1	73,796029
2,709167	0,1	72,387868
2,710833	0,1	71,068202
2,712500	0,1	69,701278
2,714167	0,1	68,368530
2,715833	0,1	67,053724
2,717500	0,1	65,717525
2,719167	0,1	64,446248
2,720833	0,1	63,259967
2,722500	0,1	62,069386
2,724167	0,1	60,809487
2,725833	0,1	59,626027
2,727500	0,1	58,501745
2,729167	0,1	57,365475
2,730833	0,1	56,232351
2,732500	0,1	55,187280
2,734167	0,1	54,120185
2,735833	0,1	53,101073
2,737500	0,1	52,079412
2,739167	0,1	51,061891
2,740833	0,1	50,114092
2,742500	0,1	49,125698
2,744167	0,1	48,206870
2,745833	0,1	47,288425
2,747500	0,1	46,409147
2,749167	0,1	45,539405
2,750833	0,1	44,701523
2,752500	0,1	43,865825
2,754167	0,1	43,057594
2,755833	0,1	42,221158
2,757500	0,1	41,481845
2,759167	0,1	40,740850
2,760833	0,1	39,983162
2,762500	0,1	39,283125
2,764167	0,1	38,589264
2,765833	0,1	37,872818
2,767500	0,1	37,169111
2,769167	0,1	36,502383
2,770833	0,1	35,849708
2,772500	0,1	35,247409
2,774167	0,1	34,626044
2,775833	0,1	34,040823
2,777500	0,1	33,417090
2,779167	0,1	32,847293
2,780833	0,1	32,271587
2,782500	0,1	31,684535
2,784167	0,1	31,167559
2,785833	0,1	30,625528
2,787500	0,1	30,100238
2,789167	0,1	29,623500
2,790833	0,1	29,125026
2,792500	0,1	28,622566
2,794167	0,1	28,136495
2,795833	0,1	27,625376
2,797500	0,1	27,140613
2,799167	0,1	26,695092
2,800833	0,1	26,263738
2,802500	0,1	25,806344
2,804167	0,1	25,392864
2,805833	0,1	24,950232
2,807500	0,1	24,541703
2,809167	0,1	24,128274
2,810833	0,1	23,711923
2,812500	0,1	23,308743
2,814167	0,1	22,930918
2,815833	0,1	22,558788
2,817500	0,1	22,210857
2,819167	0,1	21,803422
2,820833	0,1	21,461522
2,822500	0,1	21,100652
2,824167	0,1	20,746596
2,825833	0,1	20,440742
2,827500	0,1	20,109157
2,829167	0,1	19,798548
2,830833	0,1	19,458163
2,832500	0,1	19,120371
2,834167	0,1	18,846222
2,835833	0,1	18,533606
2,837500	0,1	18,216192
2,839167	0,1	17,920095
2,840833	0,1	17,663420
2,842500	0,1	17,372048
2,844167	0,1	17,099480
2,845833	0,1	16,814993
2,847500	0,1	16,573733
2,849167	0,1	16,279028
2,850833	0,1	16,044848
2,852500	0,1	15,815470
2,854167	0,1	15,579698
2,855833	0,1	15,346704
2,857500	0,1	15,081637
2,859167	0,1	14,905697
2,860833	0,1	14,652465
2,862500	0,1	14,431379
2,864167	0,1	14,206197
2,865833	0,1	13,996350
2,867500	0,1	13,822366
2,869167	0,1	13,638633
2,870833	0,1	13,450038
2,872500	0,1	13,213697
2,874167	0,1	13,079661
2,875833	0,1	12,940978
2,877500	0,1	12,680445
2,879167	0,1	12,567335
2,880833	0,1	12,333295
2,882500	0,1	12,173919
2,884167	0,1	12,030697
2,885833	0,1	11,827733
2,887500	0,1	11,743851
2,889167	0,1	11,543154
2,890833	0,1	11,405041
2,892500	0,1	11,287435
2,894167	0,1	11,135544
2,895833	0,1	11,008414
2,897500	0,1	10,848705
2,899167	0,1	10,747823
2,900833	0,1	10,600279
2,902500	0,1	10,485156
2,904167	0,1	10,361751
2,905833	0,1	10,241432
2,907500	0,1	10,107620
2,909167	0,1	10,014731
2,910833	0,1	9,867422
2,912500	0,1	9,764968
2,914167	0,1	9,627358
2,915833	0,1	9,552176
2,917500	0,1	9,458442
2,919167	0,1	9,362513
2,920833	0,1	9,291593
2,922500	0,1	9,162551
2,924167	0,1	9,089588
2,925833	0,1	9,021889
2,927500	0,1	8,896516
2,929167	0,1	8,855204
2,930833	0,1	8,680028
2,932500	0,1	8,627781
2,934167	0,1	8,581787
2,935833	0,1	8,454265
2,937500	0,1	8,418661
2,939167	0,1	8,309196
2,940833	0,1	8,250351
2,942500	0,1	8,142349
2,944167	0,1	8,052666
2,945833	0,1	7,963056
2,947500	0,1	7,936119
2,949167	0,1	7,836581
2,950833	0,1	7,764018
2,952500	0,1	7,747652
2,954167	0,1	7,624843
2,955833	0,1	7,575528
2,957500	0,1	7,488575
2,959167	0,1	7,498612
2,960833	0,1	7,389958
2,962500	0,1	7,314755
2,964167	0,1	7,265787
2,965833	0,1	7,164896
2,967500	0,1	7,159745
2,969167	0,1	7,059079
2,970833	0,1	7,017767
2,972500	0,1	6,964552
2,974167	0,1	6,880124
2,975833	0,1	6,876758
2,977500	0,1	6,773355
2,979167	0,1	6,711021
2,980833	0,1	6,679157
2,982500	0,1	6,602811
2,984167	0,1	6,594503
2,985833	0,1	6,529055
2,987500	0,1	6,479348
2,989167	0,1	6,447874
2,990833	0,1	6,357973
2,992500	0,1	6,294486
2,994167	0,1	6,275417
2,995833	0,1	6,206952
2,997500	0,1	6,178543
2,999167	0,1	6,121911
3,000833	0,1	6,078002
3,002500	0,1	6,050552
3,004167	0,1	5,991793
3,005833	0,1	5,960157
3,007500	0,1	5,864130
3,009167	0,1	5,839560
3,010833	0,1	5,785860
3,012500	0,1	5,787519
3,014167	0,1	5,696916
3,015833	0,1	5,690586
3,017500	0,1	5,664892
3,019167	0,1	5,648066
3,020833	0,1	5,580830
3,022500	0,1	5,513419
3,024167	0,1	5,440687
3,025833	0,1	5,429990
3,027500	0,1	5,400568
3,029167	0,1	5,373352
3,030833	0,1	5,357122
3,032500	0,1	5,263809
3,034167	0,1	5,244048
3,035833	0,1	5,219349
3,037500	0,1	5,177065
3,039167	0,1	5,098831
3,040833	0,1	5,111293
3,042500	0,1	5,080969
3,044167	0,1	5,013283
3,045833	0,1	4,978969
3,047500	0,1	4,952371
3,049167	0,1	4,911884
3,050833	0,1	4,892014
3,052500	0,1	4,854278
3,054167	0,1	4,849461
3,055833	0,1	4,825509
3,057500	0,1	4,750507
3,059167	0,1	4,710038
3,060833	0,1	4,684107
3,062500	0,1	4,718428
3,064167	0,1	4,639944
3,065833	0,1	4,634120
3,067500	0,1	4,574119
3,069167	0,1	4,563362
3,070833	0,1	4,519335
3,072500	0,1	4,450704
3,074167	0,1	4,444809
3,075833	0,1	4,451129
3,077500	0,1	4,393946
3,079167	0,1	4,400086
3,080833	0,1	4,338216
3,082500	0,1	4,313524
3,084167	0,1	4,299824
3,085833	0,1	4,274377
3,087500	0,1	4,258937
3,089167	0,1	4,283200
3,090833	0,1	4,207980
3,092500	0,1	4,174094
3,094167	0,1	4,172387
3,095833	0,1	4,158777
3,097500	0,1	4,127544
3,099167	0,1	4,105338
3,100833	0,1	4,101496
3,102500	0,1	4,084851
3,104167	0,1	4,036735
3,105833	0,1	4,037497
3,107500	0,1	4,082084
3,109167	0,1	4,041686
3,110833	0,1	4,046728
3,112500	0,1	4,010173
3,114167	0,1	4,012623
3,115833	0,1	3,983516
3,117500	0,1	3,967770
3,119167	0,1	3,973096
3,120833	0,1	3,955652
3,122500	0,1	3,992548
3,124167	0,1	3,962146
3,125833	0,1	3,957763
3,127500	0,1	3,927876
3,129167	0,1	3,959460
3,130833	0,1	3,984400
3,132500	0,1	3,957200
3,134167	0,1	3,902788
3,135833	0,1	3,938682
3,137500	0,1	3,929325
3,139167	0,1	3,912610
3,140833	0,1	3,931719
3,142500	0,1	3,913258
3,144167	0,1	3,957263
3,145833	0,1	3,950955
3,147500	0,1	3,924353
3,149167	0,1	3,923130
3,150833	0,1	3,961358
3,152500	0,1	3,943640
3,154167	0,1	3,954794
3,155833	0,1	3,949739
3,157500	0,1	3,966749
3,159167	0,1	3,943594
3,160833	0,1	3,993874
3,162500	0,1	3,908361
3,164167	0,1	3,952966
3,165833	0,1	3,932694
3,167500	0,1	3,943415
3,169167	0,1	3,970873
3,170833	0,1	3,901940
3,172500	0,1	3,926522
3,174167	0,1	3,942925
3,175833	0,1	3,910371
3,177500	0,1	3,941513
3,179167	0,1	3,899215
3,180833	0,1	3,903204
3,182500	0,1	3,931399
3,184167	0,1	3,909940
3,185833	0,1	3,934512
3,187500	0,1	3,883149
3,189167	0,1	3,903862
3,190833	0,1	3,876586
3,192500	0,1	3,879281
3,194167	0,1	3,882158
3,195833	0,1	3,883374
3,197500	0,1	3,836574
3,199167	0,1	3,853129
3,200833	0,1	3,825525
3,202500	0,1	3,883705
3,204167	0,1	3,792840
3,205833	0,1	3,808122
3,207500	0,1	3,775419
3,209167	0,1	3,751552
3,210833	0,1	3,752933
3,212500	0,1	3,753049
3,214167	0,1	3,724564
3,215833	0,1	3,699133
3,217500	0,1	3,723520
3,219167	0,1	3,686520
3,220833	0,1	3,642317
3,222500	0,1	3,670161
3,224167	0,1	3,634702
3,225833	0,1	3,618405
3,227500	0,1	3,588372
3,229167	0,1	3,612546
3,230833	0,1	3,557929
3,232500	0,1	3,544040
3,234167	0,1	3,499310
3,235833	0,1	3,507944
3,237500	0,1	3,500727
3,239167	0,1	3,467905
3,240833	0,1	3,450299
3,242500	0,1	3,369603
3,244167	0,1	3,353314
3,245833	0,1	3,396319
3,247500	0,1	3,356608
3,249167	0,1	3,325287
3,250833	0,1	3,297524
3,252500	0,1	3,293087
3,254167	0,1	3,269630
3,255833	0,1	3,223139
3,257500	0,1	3,252417
3,259167	0,1	3,204020
3,260833	0,1	3,186114
3,262500	0,1	3,201665
3,264167	0,1	3,140149
3,265833	0,1	3,100546
3,267500	0,1	3,103636
3,269167	0,1	3,072739
3,270833	0,1	3,059746
3,272500	0,1	3,014797
3,274167	0,1	3,015401
3,275833	0,1	2,991081
3,277500	0,1	2,975489
3,279167	0,1	2,948403
3,280833	0,1	2,916310
3,282500	0,1	2,915219
3,284167	0,1	2,895908
3,285833	0,1	2,873848
3,287500	0,1	2,826056
3,289167	0,1	2,825374
3,290833	0,1	2,809720
3,292500	0,1	2,788482
3,294167	0,1	2,761135
3,295833	0,1	2,709812
3,297500	0,1	2,740996
3,299167	0,1	2,744518
3,300833	0,1	2,689288
3,302500	0,1	2,671818
3,304167	0,1	2,642966
3,305833	0,1	2,640615
3,307500	0,1	2,586296
3,309167	0,1	2,598463
3,310833	0,1	2,594166
3,312500	0,1	2,564683
3,314167	0,1	2,550331
3,315833	0,1	2,518045
3,317500	0,1	2,504548
3,319167	0,1	2,483891
3,320833	0,1	2,477784
3,322500	0,1	2,447307
3,324167	0,1	2,483013
3,325833	0,1	2,442495
3,327500	0,1	2,465869
3,329167	0,1	2,389349
3,330833	0,1	2,381012
3,332500	0,1	2,354337
3,334167	0,1	2,357414
3,335833	0,1	2,345947
3,337500	0,1	2,418216
3,339167	0,1	2,338423
3,340833	0,1	2,310223
3,342500	0,1	2,335239
3,344167	0,1	2,285634
3,345833	0,1	2,290142
3,347500	0,1	2,267628
3,349167	0,1	2,281677
3,350833	0,1	2,267767
3,352500	0,1	2,255219
3,354167	0,1	2,265969
3,355833	0,1	2,233998
3,357500	0,1	2,242523
3,359167	0,1	2,210912
3,360833	0,1	2,198358
3,362500	0,1	2,223300
3,364167	0,1	2,177215
3,365833	0,1	2,167815
3,367500	0,1	2,206949
3,369167	0,1	2,215059
3,370833	0,1	2,158363
3,372500	0,1	2,181000
3,374167	0,1	2,170110
3,375833	0,1	2,161721
3,377500	0,1	2,157631
3,379167	0,1	2,142724
3,380833	0,1	2,146592
3,382500	0,1	2,138277
3,384167	0,1	2,147521
3,385833	0,1	2,113410
3,387500	0,1	2,123936
3,389167	0,1	2,136696
3,390833	0,1	2,155477
3,392500	0,1	2,090616
3,394167	0,1	2,143712
3,395833	0,1	2,112475
3,397500	0,1	2,140563
3,399167	0,1	2,093552
3,400833	0,1	2,111533
3,402500	0,1	2,138987
3,404167	0,1	2,090972
3,405833	0,1	2,102717
3,407500	0,1	2,127304
3,409167	0,1	2,099215
3,410833	0,1	2,072547
3,412500	0,1	2,057565
3,414167	0,1	2,085080
3,415833	0,1	2,062296
3,417500	0,1	2,090098
3,419167	0,1	2,089242
3,420833	0,1	2,048047
3,422500	0,1	2,083215
3,424167	0,1	2,067459
3,425833	0,1	2,068603
3,427500	0,1	2,026175
3,429167	0,1	2,044869
3,430833	0,1	2,037920
3,432500	0,1	2,019431
3,434167	0,1	2,055769
3,435833	0,1	2,035355
3,437500	0,1	2,033269
3,439167	0,1	2,033409
3,440833	0,1	2,029320
3,442500	0,1	2,035125
3,444167	0,1	2,022949
3,445833	0,1	2,063864
3,447500	0,1	2,033416
3,449167	0,1	2,048095
3,450833	0,1	2,023023
3,452500	0,1	2,002956
3,454167	0,1	2,021293
3,455833	0,1	2,041785
3,457500	0,1	2,063437
3,459167	0,1	2,027754
3,460833	0,1	1,960977
3,462500	0,1	2,023855
3,464167	0,1	1,980670
3,465833	0,1	1,948052
3,467500	0,1	2,023212
3,469167	0,1	2,031620
3,470833	0,1	2,017636
3,472500	0,1	2,043439
3,474167	0,1	2,037643
3,475833	0,1	2,052255
3,477500	0,1	2,034131
3,479167	0,1	2,025098
3,480833	0,1	2,035337
3,482500	0,1	2,007326
3,484167	0,1	2,022510
3,485833	0,1	2,005386
3,487500	0,1	2,009613
3,489167	0,1	2,024228
3,490833	0,1	2,074539
3,492500	0,1	2,037355
3,494167	0,1	2,079773
3,495833	0,1	2,054270
3,497500	0,1	2,011701
3,499167	0,1	2,035121
3,500833	0,1	2,078914
3,502500	0,1	2,050686
3,504167	0,1	2,045234
3,505833	0,1	2,082711
3,507500	0,1	2,050543
3,509167	0,1	2,077553
3,510833	0,1	2,068028
3,512500	0,1	2,094828
3,514167	0,1	2,098420
3,515833	0,1	2,056495
3,517500	0,1	2,078990
3,519167	0,1	2,087661
3,520833	0,1	2,129737
3,522500	0,1	2,073274
3,524167	0,1	2,064730
3,525833	0,1	2,099058
3,527500	0,1	2,070760
3,529167	0,1	2,090097
3,530833	0,1	2,127372
3,532500	0,1	2,067034
3,534167	0,1	2,105935
3,535833	0,1	2,054779
3,537500	0,1	2,123562
3,539167	0,1	2,098209
3,540833	0,1	2,146223
3,542500	0,1	2,132757
3,544167	0,1	2,114123
3,545833	0,1	2,100715
3,547500	0,1	2,112825
3,549167	0,1	2,101503
3,550833	0,1	2,123719
3,552500	0,1	2,081583
3,554167	0,1	2,116259
3,555833	0,1	2,112829
3,557500	0,1	2,100929
3,559167	0,1	2,166578
3,560833	0,1	2,068978
3,562500	0,1	2,133458
3,564167	0,1	2,083089
3,565833	0,1	2,075914
3,567500	0,1	2,103717
3,569167	0,1	2,066094
3,570833	0,1	2,083000
3,572500	0,1	2,099418
3,574167	0,1	2,100997
3,575833	0,1	2,086309
3,577500	0,1	2,067815
3,579167	0,1	2,109880
3,580833	0,1	2,045173
3,582500	0,1	2,083499
3,584167	0,1	2,078276
3,585833	0,1	2,049183
3,587500	0,1	2,029395
3,589167	0,1	2,096398
3,590833	0,1	2,072124
3,592500	0,1	2,043594
3,594167	0,1	2,044660
3,595833	0,1	2,024093
3,597500	0,1	1,984248
3,599167	0,1	2,069874
3,600833	0,1	2,017575
3,602500	0,1	2,013627
3,604167	0,1	2,004458
3,605833	0,1	2,005958
3,607500	0,1	2,035552
3,609167	0,1	2,021518
3,610833	0,1	1,987912
3,612500	0,1	1,999503
3,614167	0,1	1,984754
3,615833	0,1	1,969841
3,617500	0,1	1,969407
3,619167	0,1	1,974362
3,620833	0,1	1,967333
3,622500	0,1	1,925129
3,624167	0,1	1,940741
3,625833	0,1	1,931218
3,627500	0,1	1,908728
3,629167	0,1	1,922829
3,630833	0,1	1,928127
3,632500	0,1	1,920120
3,634167	0,1	1,884368
3,635833	0,1	1,865938
3,637500	0,1	1,919087
3,639167	0,1	1,894401
3,640833	0,1	1,885065
3,642500	0,1	1,865946
3,644167	0,1	1,889653
3,645833	0,1	1,867088
3,647500	0,1	1,839722
3,649167	0,1	1,890519
3,650833	0,1	1,823977
3,652500	0,1	1,833980
3,654167	0,1	1,860851
3,655833	0,1	1,849977
3,657500	0,1	1,830279
3,659167	0,1	1,788861
3,660833	0,1	1,789721
3,662500	0,1	1,754483
3,664167	0,1	1,800950
3,665833	0,1	1,793303
3,667500	0,1	1,788014
3,669167	0,1	1,731202
3,670833	0,1	1,742659
3,672500	0,1	1,754611
3,674167	0,1	1,745738
3,675833	0,1	1,747383
3,677500	0,1	1,736497
3,679167	0,1	1,753338
3,680833	0,1	1,720596
3,682500	0,1	1,714580
3,684167	0,1	1,725046
3,685833	0,1	1,741951
3,687500	0,1	1,705918
3,689167	0,1	1,726194
3,690833	0,1	1,728349
3,692500	0,1	1,647783
3,694167	0,1	1,693999
3,695833	0,1	1,704479
3,697500	0,1	1,717300
3,699167	0,1	1,674487
3,700833	0,1	1,672405
3,702500	0,1	1,673772
3,704167	0,1	1,642052
3,705833	0,1	1,689032
3,707500	0,1	1,682441
3,709167	0,1	1,661165
3,710833	0,1	1,690514
3,712500	0,1	1,621716
3,714167	0,1	1,648700
3,715833	0,1	1,622441
3,717500	0,1	1,590199
3,719167	0,1	1,613970
3,720833	0,1	1,640313
3,722500	0,1	1,657875
3,724167	0,1	1,621362
3,725833	0,1	1,633733
3,727500	0,1	1,627878
3,729167	0,1	1,580754
3,730833	0,1	1,585197
3,732500	0,1	1,593514
3,734167	0,1	1,585624
3,735833	0,1	1,590638
3,737500	0,1	1,615180
3,739167	0,1	1,628876
3,740833	0,1	1,624668
3,742500	0,1	1,608101
3,744167	0,1	1,598502
3,745833	0,1	1,588984
3,747500	0,1	1,651062
3,749167	0,1	1,572099
3,750833	0,1	1,581306
3,752500	0,1	1,606020
3,754167	0,1	1,587987
3,755833	0,1	1,552345
3,757500	0,1	1,587478
3,759167	0,1	1,578250
3,760833	0,1	1,613980
3,762500	0,1	1,589333
3,764167	0,1	1,600729
3,765833	0,1	1,605518
3,767500	0,1	1,593634
3,769167	0,1	1,564365
3,770833	0,1	1,567982
3,772500	0,1	1,547354
3,774167	0,1	1,560847
3,775833	0,1	1,539567
3,777500	0,1	1,593861
3,779167	0,1	1,588582
3,780833	0,1	1,608240
3,782500	0,1	1,556421
3,784167	0,1	1,550173
3,785833	0,1	1,562918
3,787500	0,1	1,599997
3,789167	0,1	1,552334
3,790833	0,1	1,556325
3,792500	0,1	1,556833
3,794167	0,1	1,573571
3,795833	0,1	1,537088
3,797500	0,1	1,565985
3,799167	0,1	1,553834
3,800833	0,1	1,548171
3,802500	0,1	1,557475
3,804167	0,1	1,552269
3,805833	0,1	1,557465
3,807500	0,1	1,535426
3,809167	0,1	1,548203
3,810833	0,1	1,569508
3,812500	0,1	1,589197
3,814167	0,1	1,513038
3,815833	0,1	1,537798
3,817500	0,1	1,535628
3,819167	0,1	1,521250
3,820833	0,1	1,536912
3,822500	0,1	1,507079
3,824167	0,1	1,549022
3,825833	0,1	1,545674
3,827500	0,1	1,537682
3,829167	0,1	1,507217
3,830833	0,1	1,525626
3,832500	0,1	1,515588
3,834167	0,1	1,568856
3,835833	0,1	1,547842
3,837500	0,1	1,531422
3,839167	0,1	1,528183
3,840833	0,1	1,516038
3,842500	0,1	1,505154
3,844167	0,1	1,505303
3,845833	0,1	1,534163
3,847500	0,1	1,484946
3,849167	0,1	1,520894
3,850833	0,1	1,468498
3,852500	0,1	1,505211
3,854167	0,1	1,482170
3,855833	0,1	1,470792
3,857500	0,1	1,490522
3,859167	0,1	1,501009
3,860833	0,1	1,463506
3,862500	0,1	1,534347
3,864167	0,1	1,453838
3,865833	0,1	1,496491
3,867500	0,1	1,485690
3,869167	0,1	1,441167
3,870833	0,1	1,418971
3,872500	0,1	1,496456
3,874167	0,1	1,435494
3,875833	0,1	1,465560
3,877500	0,1	1,432146
3,879167	0,1	1,415241
3,880833	0,1	1,447409
3,882500	0,1	1,432428
3,884167	0,1	1,419340
3,885833	0,1	1,410496
3,887500	0,1	1,429215
3,889167	0,1	1,423765
3,890833	0,1	1,431053
3,892500	0,1	1,385483
3,894167	0,1	1,384964
3,895833	0,1	1,417465
3,897500	0,1	1,411595
3,899167	0,1	1,392933
3,900833	0,1	1,432060
3,902500	0,1	1,390362
3,904167	0,1	1,383626
3,905833	0,1	1,376624
3,907500	0,1	1,357935
3,909167	0,1	1,370368
3,910833	0,1	1,354953
3,912500	0,1	1,356116
3,914167	0,1	1,368283
3,915833	0,1	1,379114
3,917500	0,1	1,360987
3,919167	0,1	1,355202
3,920833	0,1	1,374163
3,922500	0,1	1,341548
3,924167	0,1	1,341676
3,925833	0,1	1,343049
3,927500	0,1	1,301031
3,929167	0,1	1,316421
3,930833	0,1	1,313138
3,932500	0,1	1,322338
3,934167	0,1	1,270362
3,935833	0,1	1,310992
3,937500	0,1	1,283303
3,939167	0,1	1,286515
3,940833	0,1	1,263762
3,942500	0,1	1,270416
3,944167	0,1	1,306790
3,945833	0,1	1,253959
3,947500	0,1	1,270719
3,949167	0,1	1,266015
3,950833	0,1	1,253814
3,952500	0,1	1,260285
3,954167	0,1	1,277648
3,955833	0,1	1,245735
3,957500	0,1	1,257180
3,959167	0,1	1,228350
3,960833	0,1	1,236627
3,962500	0,1	1,222025
3,964167	0,1	1,233491
3,965833	0,1	1,214607
3,967500	0,1	1,201662
3,969167	0,1	1,203897
3,970833	0,1	1,190448
3,972500	0,1	1,184565
3,974167	0,1	1,249968
3,975833	0,1	1,193947
3,977500	0,1	1,222696
3,979167	0,1	1,171566
3,980833	0,1	1,210815
3,982500	0,1	1,224851
3,984167	0,1	1,202864
3,985833	0,1	1,195308
3,987500	0,1	1,190984
3,989167	0,1	1,224913
3,990833	0,1	1,202750
3,992500	0,1	1,202455
3,994167	0,1	1,222294
3,995833	0,1	1,189675
3,997500	0,1	1,183076
3,999167	0,1	1,166871
4,000833	0,1	1,180294
4,002500	0,1	1,163497
4,004167	0,1	1,173281
4,005833	0,1	1,172774
4,007500	0,1	1,189970
4,009167	0,1	1,162681
4,010833	0,1	1,185116
4,012500	0,1	1,154978
4,014167	0,1	1,187084
4,015833	0,1	1,168561
4,017500	0,1	1,154090
4,019167	0,1	1,199802
4,020833	0,1	1,195509
4,022500	0,1	1,183922
4,024167	0,1	1,181278
4,025833	0,1	1,172669
4,027500	0,1	1,191085
4,029167	0,1	1,207075
4,030833	0,1	1,184126
4,032500	0,1	1,197301
4,034167	0,1	1,209534
4,035833	0,1	1,208539
4,037500	0,1	1,171764
4,039167	0,1	1,197895
4,040833	0,1	1,192580
4,042500	0,1	1,198678
4,044167	0,1	1,227116
4,045833	0,1	1,201616
4,047500	0,1	1,219392
4,049167	0,1	1,228782
4,050833	0,1	1,255871
4,052500	0,1	1,236431
4,054167	0,1	1,291213
4,055833	0,1	1,294107
4,057500	0,1	1,272322
4,059167	0,1	1,272146
4,060833	0,1	1,259744
4,062500	0,1	1,266736
4,064167	0,1	1,280427
4,065833	0,1	1,239551
4,067500	0,1	1,287486
4,069167	0,1	1,295951
4,070833	0,1	1,323283
4,072500	0,1	1,349838
4,074167	0,1	1,359503
4,075833	0,1	1,326092
4,077500	0,1	1,363954
4,079167	0,1	1,379552
4,080833	0,1	1,391501
4,082500	0,1	1,374186
4,084167	0,1	1,399653
4,085833	0,1	1,423567
4,087500	0,1	1,465995
4,089167	0,1	1,457646
4,090833	0,1	1,455205
4,092500	0,1	1,466482
4,094167	0,1	1,502360
4,095833	0,1	1,479306
4,097500	0,1	1,473573
4,099167	0,1	1,502418
4,100833	0,1	1,528602
4,102500	0,1	1,529840
4,104167	0,1	1,560199
4,105833	0,1	1,602297
4,107500	0,1	1,602307
4,109167	0,1	1,592633
4,110833	0,1	1,597417
4,112500	0,1	1,611822
4,114167	0,1	1,648192
4,115833	0,1	1,667530
4,117500	0,1	1,682277
4,119167	0,1	1,674051
4,120833	0,1	1,709124
4,122500	0,1	1,717502
4,124167	0,1	1,743430
4,125833	0,1	1,749960
4,127500	0,1	1,749760
4,129167	0,1	1,750258
4,130833	0,1	1,772659
4,132500	0,1	1,819092
4,134167	0,1	1,822460
4,135833	0,1	1,848960
4,137500	0,1	1,825192
4,139167	0,1	1,826966
4,140833	0,1	1,879755
4,142500	0,1	1,888161
4,144167	0,1	1,922316
4,145833	0,1	1,958293
4,147500	0,1	1,954580
4,149167	0,1	1,980300
4,150833	0,1	1,986534
4,152500	0,1	2,017779
4,154167	0,1	1,989555
4,155833	0,1	2,003729
4,157500	0,1	2,058624
4,159167	0,1	2,047390
4,160833	0,1	2,028971
4,162500	0,1	2,055548
4,164167	0,1	2,089523
4,165833	0,1	2,059286
4,167500	0,1	2,078556
4,169167	0,1	2,099848
4,170833	0,1	2,125082
4,172500	0,1	2,095344
4,174167	0,1	2,133892
4,175833	0,1	2,134904
4,177500	0,1	2,156479
4,179167	0,1	2,166377
4,180833	0,1	2,187093
4,182500	0,1	2,194409
4,184167	0,1	2,185882
4,185833	0,1	2,192977
4,187500	0,1	2,177924
4,189167	0,1	2,211969
4,190833	0,1	2,198789
4,192500	0,1	2,246886
4,194167	0,1	2,205536
4,195833	0,1	2,224162
4,197500	0,1	2,194850
4,199167	0,1	2,245953
4,200833	0,1	2,235714
4,202500	0,1	2,258006
4,204167	0,1	2,231558
4,205833	0,1	2,236715
4,207500	0,1	2,252057
4,209167	0,1	2,200304
4,210833	0,1	2,255632
4,212500	0,1	2,239875
4,214167	0,1	2,270980
4,215833	0,1	2,290777
4,217500	0,1	2,215366
4,219167	0,1	2,275638
4,220833	0,1	2,228769
4,222500	0,1	2,229905
4,224167	0,1	2,204385
4,225833	0,1	2,218284
4,227500	0,1	2,233199
4,229167	0,1	2,238937
4,230833	0,1	2,204601
4,232500	0,1	2,196709
4,234167	0,1	2,201006
4,235833	0,1	2,205237
4,237500	0,1	2,199145
4,239167	0,1	2,198356
4,240833	0,1	2,217208
4,242500	0,1	2,195135
4,244167	0,1	2,180148
4,245833	0,1	2,210393
4,247500	0,1	2,154207
4,249167	0,1	2,162936
4,250833	0,1	2,148459
4,252500	0,1	2,180710
4,254167	0,1	2,135777
4,255833	0,1	2,174184
4,257500	0,1	2,150899
4,259167	0,1	2,102015
4,260833	0,1	2,080714
4,262500	0,1	2,110528
4,264167	0,1	2,095124
4,265833	0,1	2,061872
4,267500	0,1	2,058350
4,269167	0,1	2,067666
4,270833	0,1	2,079207
4,272500	0,1	2,015647
4,274167	0,1	2,034406
4,275833	0,1	2,020726
4,277500	0,1	2,036129
4,279167	0,1	2,016858
4,280833	0,1	2,004742
4,282500	0,1	1,995790
4,284167	0,1	1,969199
4,285833	0,1	1,965830
4,287500	0,1	1,912089
4,289167	0,1	1,971051
4,290833	0,1	1,940896
4,292500	0,1	1,921251
4,294167	0,1	1,900204
4,295833	0,1	1,914159
4,297500	0,1	1,932930
4,299167	0,1	1,869251
4,300833	0,1	1,857057
4,302500	0,1	1,909999
4,304167	0,1	1,858291
4,305833	0,1	1,767466
4,307500	0,1	1,820086
4,309167	0,1	1,843163
4,310833	0,1	1,820112
4,312500	0,1	1,784433
4,314167	0,1	1,769235
4,315833	0,1	1,801114
4,317500	0,1	1,783574
4,319167	0,1	1,782287
4,320833	0,1	1,734294
4,322500	0,1	1,789280
4,324167	0,1	1,719960
4,325833	0,1	1,750624
4,327500	0,1	1,708092
4,329167	0,1	1,704405
4,330833	0,1	1,701201
4,332500	0,1	1,703272
4,334167	0,1	1,655807
4,335833	0,1	1,677634
4,337500	0,1	1,665388
4,339167	0,1	1,633376
4,340833	0,1	1,632516
4,342500	0,1	1,591582
4,344167	0,1	1,631080
4,345833	0,1	1,634103
4,347500	0,1	1,583678
4,349167	0,1	1,577730
4,350833	0,1	1,565432
4,352500	0,1	1,568961
4,354167	0,1	1,542733
4,355833	0,1	1,576248
4,357500	0,1	1,525411
4,359167	0,1	1,539270
4,360833	0,1	1,532296
4,362500	0,1	1,505611
4,364167	0,1	1,468181
4,365833	0,1	1,493879
4,367500	0,1	1,501353
4,369167	0,1	1,493762
4,370833	0,1	1,504519
4,372500	0,1	1,465794
4,374167	0,1	1,452465
4,375833	0,1	1,434937
4,377500	0,1	1,453665
4,379167	0,1	1,425512
4,380833	0,1	1,410377
4,382500	0,1	1,457428
4,384167	0,1	1,396777
4,385833	0,1	1,428006
4,387500	0,1	1,427629
4,389167	0,1	1,391513
4,390833	0,1	1,390710
4,392500	0,1	1,419960
4,394167	0,1	1,375753
4,395833	0,1	1,409683
4,397500	0,1	1,369380
4,399167	0,1	1,383332
4,400833	0,1	1,359800
4,402500	0,1	1,345848
4,404167	0,1	1,338138
4,405833	0,1	1,341031
4,407500	0,1	1,314499
4,409167	0,1	1,341466
4,410833	0,1	1,284089
4,412500	0,1	1,325855
4,414167	0,1	1,319224
4,415833	0,1	1,363648
4,417500	0,1	1,302069
4,419167	0,1	1,286487
4,420833	0,1	1,264492
4,422500	0,1	1,259166
4,424167	0,1	1,251440
4,425833	0,1	1,285490
4,427500	0,1	1,215752
4,429167	0,1	1,237776
4,430833	0,1	1,232190
4,432500	0,1	1,251585
4,434167	0,1	1,218050
4,435833	0,1	1,244875
4,437500	0,1	1,231431
4,439167	0,1	1,212406
4,440833	0,1	1,194379
4,442500	0,1	1,183077
4,444167	0,1	1,198896
4,445833	0,1	1,176931
4,447500	0,1	1,179836
4,449167	0,1	1,182853
4,450833	0,1	1,170912
4,452500	0,1	1,159660
4,454167	0,1	1,130651
4,455833	0,1	1,171699
4,457500	0,1	1,146279
4,459167	0,1	1,164757
4,460833	0,1	1,156816
4,462500	0,1	1,137198
4,464167	0,1	1,106768
4,465833	0,1	1,117124
4,467500	0,1	1,112600
4,469167	0,1	1,080512
4,470833	0,1	1,078085
4,472500	0,1	1,102913
4,474167	0,1	1,061560
4,475833	0,1	1,045576
4,477500	0,1	1,055245
4,479167	0,1	1,043599
4,480833	0,1	1,073705
4,482500	0,1	1,059290
4,484167	0,1	1,086467
4,485833	0,1	1,049754
4,487500	0,1	1,022921
4,489167	0,1	1,058900
4,490833	0,1	0,997612
4,492500	0,1	1,003695
4,494167	0,1	1,015098
4,495833	0,1	1,027304
4,497500	0,1	1,000551
4,499167	0,1	0,963960
4,500833	0,1	1,006015
4,502500	0,1	0,996797
4,504167	0,1	1,033867
4,505833	0,1	0,983759
4,507500	0,1	0,966378
4,509167	0,1	0,944303
4,510833	0,1	0,942297
4,512500	0,1	0,971779
4,514167	0,1	0,996059
4,515833	0,1	0,917178
4,517500	0,1	0,973595
4,519167	0,1	0,920323
4,520833	0,1	0,935039
4,522500	0,1	0,927283
4,524167	0,1	0,934622
4,525833	0,1	0,927059
4,527500	0,1	0,921665
4,529167	0,1	0,934999
4,530833	0,1	0,920851
4,532500	0,1	0,925505
4,534167	0,1	0,894830
4,535833	0,1	0,895334
4,537500	0,1	0,918490
4,539167	0,1	0,916410
4,540833	0,1	0,890391
4,542500	0,1	0,886460
4,544167	0,1	0,847935
4,545833	0,1	0,870017
4,547500	0,1	0,888675
4,549167	0,1	0,822252
4,550833	0,1	0,836855
4,552500	0,1	0,839182
4,554167	0,1	0,844826
4,555833	0,1	0,818763
4,557500	0,1	0,852199
4,559167	0,1	0,800312
4,560833	0,1	0,833766
4,562500	0,1	0,821162
4,564167	0,1	0,822420
4,565833	0,1	0,803913
4,567500	0,1	0,798437
4,569167	0,1	0,831902
4,570833	0,1	0,824901
4,572500	0,1	0,783361
4,574167	0,1	0,786660
4,575833	0,1	0,796910
4,577500	0,1	0,763541
4,579167	0,1	0,791499
4,580833	0,1	0,816887
4,582500	0,1	0,768569
4,584167	0,1	0,786879
4,585833	0,1	0,786360
4,587500	0,1	0,780584
4,589167	0,1	0,777396
4,590833	0,1	0,753248
4,592500	0,1	0,716705
4,594167	0,1	0,769533
4,595833	0,1	0,739809
4,597500	0,1	0,751571
4,599167	0,1	0,719781
4,600833	0,1	0,747356
4,602500	0,1	0,728296
4,604167	0,1	0,720670
4,605833	0,1	0,712158
4,607500	0,1	0,725715
4,609167	0,1	0,743369
4,610833	0,1	0,753491
4,612500	0,1	0,747521
4,614167	0,1	0,659699
4,615833	0,1	0,722610
4,617500	0,1	0,684441
4,619167	0,1	0,710791
4,620833	0,1	0,687529
4,622500	0,1	0,700470
4,624167	0,1	0,699995
4,625833	0,1	0,681706
4,627500	0,1	0,725095
4,629167	0,1	0,653201
4,630833	0,1	0,688931
4,632500	0,1	0,712050
4,634167	0,1	0,686172
4,635833	0,1	0,684079
4,637500	0,1	0,702888
4,639167	0,1	0,668429
4,640833	0,1	0,679062
4,642500	0,1	0,684338
4,644167	0,1	0,655438
4,645833	0,1	0,677424
4,647500	0,1	0,661583
4,649167	0,1	0,650609
4,650833	0,1	0,633324
4,652500	0,1	0,625731
4,654167	0,1	0,636494
4,655833	0,1	0,643282
4,657500	0,1	0,616770
4,659167	0,1	0,672680
4,660833	0,1	0,641972
4,662500	0,1	0,614966
4,664167	0,1	0,617402
4,665833	0,1	0,637682
4,667500	0,1	0,620302
4,669167	0,1	0,624668
4,670833	0,1	0,627977
4,672500	0,1	0,587840
4,674167	0,1	0,585773
4,675833	0,1	0,582365
4,677500	0,1	0,627065
4,679167	0,1	0,595647
4,680833	0,1	0,599303
4,682500	0,1	0,610004
4,684167	0,1	0,606925
4,685833	0,1	0,577551
4,687500	0,1	0,580690
4,689167	0,1	0,618389
4,690833	0,1	0,640030
4,692500	0,1	0,590250
4,694167	0,1	0,579989
4,695833	0,1	0,581301
4,697500	0,1	0,568481
4,699167	0,1	0,562950
4,700833	0,1	0,557002
4,702500	0,1	0,593059
4,704167	0,1	0,567422
4,705833	0,1	0,623782
4,707500	0,1	0,579255
4,709167	0,1	0,567739
4,710833	0,1	0,590009
4,712500	0,1	0,580693
4,714167	0,1	0,547816
4,715833	0,1	0,551376
4,717500	0,1	0,562110
4,719167	0,1	0,559799
4,720833	0,1	0,540291
4,722500	0,1	0,534278
4,724167	0,1	0,548190
4,725833	0,1	0,549447
4,727500	0,1	0,511787
4,729167	0,1	0,574471
4,730833	0,1	0,558803
4,732500	0,1	0,503017
4,734167	0,1	0,553003
4,735833	0,1	0,534891
4,737500	0,1	0,536622
4,739167	0,1	0,535594
4,740833	0,1	0,532414
4,742500	0,1	0,544817
4,744167	0,1	0,488747
4,745833	0,1	0,540950
4,747500	0,1	0,539998
4,749167	0,1	0,498677
4,750833	0,1	0,544775
4,752500	0,1	0,529074
4,754167	0,1	0,547322
4,755833	0,1	0,545750
4,757500	0,1	0,535982
4,759167	0,1	0,525987
4,760833	0,1	0,506320
4,762500	0,1	0,497092
4,764167	0,1	0,521608
4,765833	0,1	0,553041
4,767500	0,1	0,497359
4,769167	0,1	0,489733
4,770833	0,1	0,540403
4,772500	0,1	0,505904
4,774167	0,1	0,480930
4,775833	0,1	0,526616
4,777500	0,1	0,482413
4,779167	0,1	0,497857
4,780833	0,1	0,509848
4,782500	0,1	0,501334
4,784167	0,1	0,447288
4,785833	0,1	0,472594
4,787500	0,1	0,505309
4,789167	0,1	0,489766
4,790833	0,1	0,479481
4,792500	0,1	0,476780
4,794167	0,1	0,446061
4,795833	0,1	0,495183
4,797500	0,1	0,493074
4,799167	0,1	0,500722
4,800833	0,1	0,471613
4,802500	0,1	0,522854
4,804167	0,1	0,471874
4,805833	0,1	0,484329
4,807500	0,1	0,475432
4,809167	0,1	0,464312
4,810833	0,1	0,478640
4,812500	0,1	0,449824
4,814167	0,1	0,453769
4,815833	0,1	0,480115
4,817500	0,1	0,445713
4,819167	0,1	0,462185
4,820833	0,1	0,476552
4,822500	0,1	0,444168
4,824167	0,1	0,472306
4,825833	0,1	0,472571
4,827500	0,1	0,475043
4,829167	0,1	0,479093
4,830833	0,1	0,459300
4,832500	0,1	0,468776
4,834167	0,1	0,458239
4,835833	0,1	0,470024
4,837500	0,1	0,420648
4,839167	0,1	0,462661
4,840833	0,1	0,451202
4,842500	0,1	0,479666
4,844167	0,1	0,458852
4,845833	0,1	0,483684
4,847500	0,1	0,459946
4,849167	0,1	0,399188
4,850833	0,1	0,466256
4,852500	0,1	0,447893
4,854167	0,1	0,413315
4,855833	0,1	0,497425
4,857500	0,1	0,434152
4,859167	0,1	0,451933
4,860833	0,1	0,423410
4,862500	0,1	0,448043
4,864167	0,1	0,462345
4,865833	0,1	0,441534
4,867500	0,1	0,439180
4,869167	0,1	0,441941
4,870833	0,1	0,441466
4,872500	0,1	0,470409
4,874167	0,1	0,478127
4,875833	0,1	0,463062
4,877500	0,1	0,442624
4,879167	0,1	0,432499
4,880833	0,1	0,446920
4,882500	0,1	0,447474
4,884167	0,1	0,471149
4,885833	0,1	0,445744
4,887500	0,1	0,446249
4,889167	0,1	0,416501
4,890833	0,1	0,446983
4,892500	0,1	0,437927
4,894167	0,1	0,444997
4,895833	0,1	0,447406
4,897500	0,1	0,444293
4,899167	0,1	0,444228
4,900833	0,1	0,433589
4,902500	0,1	0,468416
4,904167	0,1	0,452906
4,905833	0,1	0,382546
4,907500	0,1	0,471070
4,909167	0,1	0,462450
4,910833	0,1	0,433884
4,912500	0,1	0,446473
4,914167	0,1	0,423026
4,915833	0,1	0,426620
4,917500	0,1	0,398214
4,919167	0,1	0,439655
4,920833	0,1	0,411360
4,922500	0,1	0,455399
4,924167	0,1	0,453578
4,925833	0,1	0,439570
4,927500	0,1	0,433496
4,929167	0,1	0,401334
4,930833	0,1	0,440004
4,932500	0,1	0,402332
4,934167	0,1	0,434385
4,935833	0,1	0,453477
4,937500	0,1	0,399608
4,939167	0,1	0,410644
4,940833	0,1	0,433620
4,942500	0,1	0,491484
4,944167	0,1	0,461201
4,945833	0,1	0,434044
4,947500	0,1	0,416690
4,949167	0,1	0,482098
4,950833	0,1	0,439445
4,952500	0,1	0,440113
4,954167	0,1	0,437124
4,955833	0,1	0,464046
4,957500	0,1	0,484520
4,959167	0,1	0,449570
4,960833	0,1	0,455216
4,962500	0,1	0,444937
4,964167	0,1	0,474556
4,965833	0,1	0,494771
4,967500	0,1	0,498344
4,969167	0,1	0,489284
4,970833	0,1	0,464219
4,972500	0,1	0,478960
4,974167	0,1	0,461198
4,975833	0,1	0,456789
4,977500	0,1	0,474495
4,979167	0,1	0,443465
4,980833	0,1	0,492194
4,982500	0,1	0,456512
4,984167	0,1	0,478671
4,985833	0,1	0,423157
4,987500	0,1	0,498871
4,989167	0,1	0,484528
4,990833	0,1	0,462002
4,992500	0,1	0,510191
4,994167	0,1	0,484947
4,995833	0,1	0,437617
4,997500	0,1	0,463532
4,999167	0,1	0,493612
5,000833	0,1	0,472798
5,002500	0,1	0,492778
5,004167	0,1	0,481121
5,005833	0,1	0,478420
5,007500	0,1	0,516140
5,009167	0,1	0,506798
5,010833	0,1	0,484144
5,012500	0,1	0,503161
5,014167	0,1	0,521126
5,015833	0,1	0,529806
5,017500	0,1	0,471361
5,019167	0,1	0,519995
5,020833	0,1	0,540346
5,022500	0,1	0,513842
5,024167	0,1	0,517306
5,025833	0,1	0,536232
5,027500	0,1	0,532959
5,029167	0,1	0,521454
5,030833	0,1	0,513131
5,032500	0,1	0,544876
5,034167	0,1	0,532673
5,035833	0,1	0,572290
5,037500	0,1	0,543862
5,039167	0,1	0,580007
5,040833	0,1	0,555625
5,042500	0,1	0,565805
5,044167	0,1	0,573327
5,045833	0,1	0,549357
5,047500	0,1	0,520656
5,049167	0,1	0,585434
5,050833	0,1	0,574104
5,052500	0,1	0,607589
5,054167	0,1	0,608465
5,055833	0,1	0,562798
5,057500	0,1	0,609805
5,059167	0,1	0,602616
5,060833	0,1	0,626782
5,062500	0,1	0,618112
5,064167	0,1	0,614124
5,065833	0,1	0,583337
5,067500	0,1	0,645997
5,069167	0,1	0,618630
5,070833	0,1	0,630517
5,072500	0,1	0,642120
5,074167	0,1	0,676426
5,075833	0,1	0,653702
5,077500	0,1	0,603819
5,079167	0,1	0,635333
5,080833	0,1	0,670567
5,082500	0,1	0,639076
5,084167	0,1	0,632002
5,085833	0,1	0,664780
5,087500	0,1	0,657556
5,089167	0,1	0,657461
5,090833	0,1	0,700823
5,092500	0,1	0,696493
5,094167	0,1	0,660880
5,095833	0,1	0,666042
5,097500	0,1	0,689122
5,099167	0,1	0,677498
5,100833	0,1	0,672252
5,102500	0,1	0,723386
5,104167	0,1	0,700486
5,105833	0,1	0,695850
5,107500	0,1	0,692634
5,109167	0,1	0,707838
5,110833	0,1	0,717394
5,112500	0,1	0,728644
5,114167	0,1	0,734330
5,115833	0,1	0,727780
5,117500	0,1	0,679689
5,119167	0,1	0,737571
5,120833	0,1	0,690620
5,122500	0,1	0,679139
5,124167	0,1	0,751044
5,125833	0,1	0,705541
5,127500	0,1	0,714301
5,129167	0,1	0,716175
5,130833	0,1	0,690680
5,132500	0,1	0,701669
5,134167	0,1	0,730764
5,135833	0,1	0,707047
5,137500	0,1	0,765422
5,139167	0,1	0,703841
5,140833	0,1	0,693149
5,142500	0,1	0,725106
5,144167	0,1	0,734432
5,145833	0,1	0,707588
5,147500	0,1	0,721504
5,149167	0,1	0,716521
5,150833	0,1	0,736516
5,152500	0,1	0,711772
5,154167	0,1	0,713985
5,155833	0,1	0,702513
5,157500	0,1	0,690649
5,159167	0,1	0,706395
5,160833	0,1	0,703854
5,162500	0,1	0,691163
5,164167	0,1	0,704176
5,165833	0,1	0,716460
5,167500	0,1	0,698330
5,169167	0,1	0,684182
5,170833	0,1	0,717575
5,172500	0,1	0,681037
5,174167	0,1	0,708321
5,175833	0,1	0,669051
5,177500	0,1	0,671224
5,179167	0,1	0,665019
5,180833	0,1	0,711681
5,182500	0,1	0,670555
5,184167	0,1	0,660036
5,185833	0,1	0,727987
5,187500	0,1	0,671492
5,189167	0,1	0,686169
5,190833	0,1	0,684404
5,192500	0,1	0,651812
5,194167	0,1	0,663181
5,195833	0,1	0,623680
5,197500	0,1	0,657806
5,199167	0,1	0,651676
5,200833	0,1	0,621430
5,202500	0,1	0,630264
5,204167	0,1	0,653338
5,205833	0,1	0,637177
5,207500	0,1	0,632256
5,209167	0,1	0,655332
5,210833	0,1	0,603687
5,212500	0,1	0,618749
5,214167	0,1	0,618175
5,215833	0,1	0,642700
5,217500	0,1	0,619434
5,219167	0,1	0,591243
5,220833	0,1	0,588151
5,222500	0,1	0,576998
5,224167	0,1	0,575258
5,225833	0,1	0,602159
5,227500	0,1	0,586223
5,229167	0,1	0,584775
5,230833	0,1	0,566103
5,232500	0,1	0,549419
5,234167	0,1	0,565194
5,235833	0,1	0,581462
5,237500	0,1	0,584421
5,239167	0,1	0,524680
5,240833	0,1	0,542854
5,242500	0,1	0,568664
5,244167	0,1	0,541805
5,245833	0,1	0,600995
5,247500	0,1	0,549813
5,249167	0,1	0,517859
5,250833	0,1	0,569043
5,252500	0,1	0,512723
5,254167	0,1	0,533758
5,255833	0,1	0,542405
5,257500	0,1	0,526084
5,259167	0,1	0,536941
5,260833	0,1	0,522003
5,262500	0,1	0,541794
5,264167	0,1	0,490289
5,265833	0,1	0,546315
5,267500	0,1	0,543179
5,269167	0,1	0,479204
5,270833	0,1	0,471960
5,272500	0,1	0,470001
5,274167	0,1	0,486415
5,275833	0,1	0,502583
5,277500	0,1	0,453813
5,279167	0,1	0,438895
5,280833	0,1	0,447049
5,282500	0,1	0,475615
5,284167	0,1	0,439252
5,285833	0,1	0,470345
5,287500	0,1	0,455506
5,289167	0,1	0,389417
5,290833	0,1	0,471520
5,292500	0,1	0,457629
5,294167	0,1	0,430347
5,295833	0,1	0,453377
5,297500	0,1	0,420193
5,299167	0,1	0,455657
5,300833	0,1	0,437738
5,302500	0,1	0,426971
5,304167	0,1	0,397668
5,305833	0,1	0,406847
5,307500	0,1	0,411092
5,309167	0,1	0,424007
5,310833	0,1	0,457330
5,312500	0,1	0,407892
5,314167	0,1	0,385202
5,315833	0,1	0,395540
5,317500	0,1	0,411444
5,319167	0,1	0,372835
5,320833	0,1	0,397337
5,322500	0,1	0,358310
5,324167	0,1	0,343559
5,325833	0,1	0,409086
5,327500	0,1	0,374535
5,329167	0,1	0,425578
5,330833	0,1	0,363752
5,332500	0,1	0,337554
5,334167	0,1	0,353933
5,335833	0,1	0,340021
5,337500	0,1	0,372400
5,339167	0,1	0,383006
5,340833	0,1	0,361616
5,342500	0,1	0,346032
5,344167	0,1	0,352098
5,345833	0,1	0,328431
5,347500	0,1	0,367188
5,349167	0,1	0,306595
5,350833	0,1	0,349746
5,352500	0,1	0,338870
5,354167	0,1	0,349373
5,355833	0,1	0,299234
5,357500	0,1	0,312939
5,359167	0,1	0,342491
5,360833	0,1	0,317246
5,362500	0,1	0,313041
5,364167	0,1	0,279214
5,365833	0,1	0,296223
5,367500	0,1	0,345472
5,369167	0,1	0,306716
5,370833	0,1	0,324566
5,372500	0,1	0,311913
5,374167	0,1	0,308281
5,375833	0,1	0,286026
5,377500	0,1	0,278766
5,379167	0,1	0,262405
5,380833	0,1	0,280586
5,382500	0,1	0,262342
5,384167	0,1	0,287651
5,385833	0,1	0,293087
5,387500	0,1	0,263377
5,389167	0,1	0,281365
5,390833	0,1	0,279144
5,392500	0,1	0,278726
5,394167	0,1	0,248313
5,395833	0,1	0,288869
5,397500	0,1	0,248505
5,399167	0,1	0,271239
5,400833	0,1	0,250400
5,402500	0,1	0,263304
5,404167	0,1	0,252010
5,405833	0,1	0,278431
5,407500	0,1	0,255856
5,409167	0,1	0,235612
5,410833	0,1	0,258075
5,412500	0,1	0,226220
5,414167	0,1	0,276018
5,415833	0,1	0,277830
5,417500	0,1	0,247959
5,419167	0,1	0,242147
5,420833	0,1	0,263971
5,422500	0,1	0,247415
5,424167	0,1	0,200201
5,425833	0,1	0,253306
5,427500	0,1	0,238283
5,429167	0,1	0,238733
5,430833	0,1	0,218079
5,432500	0,1	0,225655
5,434167	0,1	0,212686
5,435833	0,1	0,240312
5,437500	0,1	0,240243
5,439167	0,1	0,224187
5,440833	0,1	0,219360
5,442500	0,1	0,230832
5,444167	0,1	0,209288
5,445833	0,1	0,229734
5,447500	0,1	0,205246
5,449167	0,1	0,241657
5,450833	0,1	0,248467
5,452500	0,1	0,227250
5,454167	0,1	0,207575
5,455833	0,1	0,205618
5,457500	0,1	0,216763
5,459167	0,1	0,215581
5,460833	0,1	0,231662
5,462500	0,1	0,245517
5,464167	0,1	0,186438
5,465833	0,1	0,208800
5,467500	0,1	0,222391
5,469167	0,1	0,225606
5,470833	0,1	0,187969
5,472500	0,1	0,179346
5,474167	0,1	0,227069
5,475833	0,1	0,223038
5,477500	0,1	0,188345
5,479167	0,1	0,176364
5,480833	0,1	0,173376
5,482500	0,1	0,211366
5,484167	0,1	0,180285
5,485833	0,1	0,188312
5,487500	0,1	0,201320
5,489167	0,1	0,198075
5,490833	0,1	0,199498
5,492500	0,1	0,170797
5,494167	0,1	0,142598
5,495833	0,1	0,204999
5,497500	0,1	0,195773
5,499167	0,1	0,180798
5,500833	0,1	0,137543
5,502500	0,1	0,162184
5,504167	0,1	0,192035
5,505833	0,1	0,182221
5,507500	0,1	0,185603
5,509167	0,1	0,211204
5,510833	0,1	0,190308
5,512500	0,1	0,195338
5,514167	0,1	0,177085
5,515833	0,1	0,170682
5,517500	0,1	0,162749
5,519167	0,1	0,156097
5,520833	0,1	0,177286
5,522500	0,1	0,140760
5,524167	0,1	0,165561
5,525833	0,1	0,199288
5,527500	0,1	0,196688
5,529167	0,1	0,157994
5,530833	0,1	0,143937
5,532500	0,1	0,158974
5,534167	0,1	0,190256
5,535833	0,1	0,132307
5,537500	0,1	0,158925
5,539167	0,1	0,154107
5,540833	0,1	0,161749
5,542500	0,1	0,126480
5,544167	0,1	0,178338
5,545833	0,1	0,096410
5,547500	0,1	0,145478
5,549167	0,1	0,145819
5,550833	0,1	0,177612
5,552500	0,1	0,142140
5,554167	0,1	0,195152
5,555833	0,1	0,152168
5,557500	0,1	0,192423
5,559167	0,1	0,148236
5,560833	0,1	0,151561
5,562500	0,1	0,147747
5,564167	0,1	0,177653
5,565833	0,1	0,129565
5,567500	0,1	0,129037
5,569167	0,1	0,166755
5,570833	0,1	0,154338
5,572500	0,1	0,108934
5,574167	0,1	0,148708
5,575833	0,1	0,161936
5,577500	0,1	0,135112
5,579167	0,1	0,143248
5,580833	0,1	0,164293
5,582500	0,1	0,178322
5,584167	0,1	0,144709
5,585833	0,1	0,135875
5,587500	0,1	0,138566
5,589167	0,1	0,135231
5,590833	0,1	0,165221
5,592500	0,1	0,124697
5,594167	0,1	0,136574
5,595833	0,1	0,155653
5,597500	0,1	0,142611
5,599167	0,1	0,114499
5,600833	0,1	0,156518
5,602500	0,1	0,123911
5,604167	0,1	0,142002
5,605833	0,1	0,163650
5,607500	0,1	0,137539
5,609167	0,1	0,167753
5,610833	0,1	0,104131
5,612500	0,1	0,140093
5,614167	0,1	0,157830
5,615833	0,1	0,156137
5,617500	0,1	0,179644
5,619167	0,1	0,127394
5,620833	0,1	0,159794
5,622500	0,1	0,133021
5,624167	0,1	0,154555
5,625833	0,1	0,143419
5,627500	0,1	0,159594
5,629167	0,1	0,126851
5,630833	0,1	0,151055
5,632500	0,1	0,144019
5,634167	0,1	0,130675
5,635833	0,1	0,116258
5,637500	0,1	0,163792
5,639167	0,1	0,171486
5,640833	0,1	0,137995
5,642500	0,1	0,130674
5,644167	0,1	0,113586
5,645833	0,1	0,153887
5,647500	0,1	0,138962
5,649167	0,1	0,110628
5,650833	0,1	0,147095
5,652500	0,1	0,128812
5,654167	0,1	0,183302
5,655833	0,1	0,156556
5,657500	0,1	0,128298
5,659167	0,1	0,171854
5,660833	0,1	0,138803
5,662500	0,1	0,174791
5,664167	0,1	0,130291
5,665833	0,1	0,140265
5,667500	0,1	0,129806
5,669167	0,1	0,118434
5,670833	0,1	0,154076
5,672500	0,1	0,173536
5,674167	0,1	0,140605
5,675833	0,1	0,132538
5,677500	0,1	0,153374
5,679167	0,1	0,137474
5,680833	0,1	0,160313
5,682500	0,1	0,137516
5,684167	0,1	0,160210
5,685833	0,1	0,131776
5,687500	0,1	0,123610
5,689167	0,1	0,131500
5,690833	0,1	0,154470
5,692500	0,1	0,189173
5,694167	0,1	0,171139
5,695833	0,1	0,111090
5,697500	0,1	0,155170
5,699167	0,1	0,123678
5,700833	0,1	0,183840
5,702500	0,1	0,132407
5,704167	0,1	0,133695
5,705833	0,1	0,156256
5,707500	0,1	0,122127
5,709167	0,1	0,154490
5,710833	0,1	0,167278
5,712500	0,1	0,143835
5,714167	0,1	0,155137
5,715833	0,1	0,164029
5,717500	0,1	0,147353
5,719167	0,1	0,183127
5,720833	0,1	0,174060
5,722500	0,1	0,217536
5,724167	0,1	0,171584
5,725833	0,1	0,158088
5,727500	0,1	0,172315
5,729167	0,1	0,126438
5,730833	0,1	0,145047
5,732500	0,1	0,170408
5,734167	0,1	0,141951
5,735833	0,1	0,117424
5,737500	0,1	0,192478
5,739167	0,1	0,164718
5,740833	0,1	0,192161
5,742500	0,1	0,162588
5,744167	0,1	0,192777
5,745833	0,1	0,161382
5,747500	0,1	0,179834
5,749167	0,1	0,175469
5,750833	0,1	0,141269
5,752500	0,1	0,139585
5,754167	0,1	0,157933
5,755833	0,1	0,158501
5,757500	0,1	0,181759
5,759167	0,1	0,131827
5,760833	0,1	0,195629
5,762500	0,1	0,181603
5,764167	0,1	0,163682
5,765833	0,1	0,166434
5,767500	0,1	0,177658
5,769167	0,1	0,180103
5,770833	0,1	0,162046
5,772500	0,1	0,166083
5,774167	0,1	0,179215
5,775833	0,1	0,161567
5,777500	0,1	0,138055
5,779167	0,1	0,176680
5,780833	0,1	0,165460
5,782500	0,1	0,149842
5,784167	0,1	0,168914
5,785833	0,1	0,176562
5,787500	0,1	0,169751
5,789167	0,1	0,161026
5,790833	0,1	0,187993
5,792500	0,1	0,137131
5,794167	0,1	0,135231
5,795833	0,1	0,148363
5,797500	0,1	0,174089
5,799167	0,1	0,142452
5,800833	0,1	0,154849
5,802500	0,1	0,194539
5,804167	0,1	0,181517
5,805833	0,1	0,189987
5,807500	0,1	0,178579
5,809167	0,1	0,144567
5,810833	0,1	0,164794
5,812500	0,1	0,227872
5,814167	0,1	0,190475
5,815833	0,1	0,177952
5,817500	0,1	0,135577
5,819167	0,1	0,175495
5,820833	0,1	0,183462
5,822500	0,1	0,161944
5,824167	0,1	0,119538
5,825833	0,1	0,182769
5,827500	0,1	0,182947
5,829167	0,1	0,155664
5,830833	0,1	0,182173
5,832500	0,1	0,157903
5,834167	0,1	0,187764
5,835833	0,1	0,201006
5,837500	0,1	0,190860
5,839167	0,1	0,177475
5,840833	0,1	0,128452
5,842500	0,1	0,171917
5,844167	0,1	0,107529
5,845833	0,1	0,137025
5,847500	0,1	0,155489
5,849167	0,1	0,142135
5,850833	0,1	0,154432
5,852500	0,1	0,196440
5,854167	0,1	0,147344
5,855833	0,1	0,150480
5,857500	0,1	0,193896
5,859167	0,1	0,145809
5,860833	0,1	0,110567
5,862500	0,1	0,149767
5,864167	0,1	0,170550
5,865833	0,1	0,171034
5,867500	0,1	0,183147
5,869167	0,1	0,193010
5,870833	0,1	0,194069
5,872500	0,1	0,148315
5,874167	0,1	0,140786
5,875833	0,1	0,144096
5,877500	0,1	0,164503
5,879167	0,1	0,149693
5,880833	0,1	0,129205
5,882500	0,1	0,176349
5,884167	0,1	0,154794
5,885833	0,1	0,187036
5,887500	0,1	0,175242
5,889167	0,1	0,148144
5,890833	0,1	0,143518
5,892500	0,1	0,104707
5,894167	0,1	0,171675
5,895833	0,1	0,138991
5,897500	0,1	0,150125
5,899167	0,1	0,198140
5,900833	0,1	0,140837
5,902500	0,1	0,097891
5,904167	0,1	0,105686
5,905833	0,1	0,150900
5,907500	0,1	0,113820
5,909167	0,1	0,168113
5,910833	0,1	0,114858
5,912500	0,1	0,126299
5,914167	0,1	0,165094
5,915833	0,1	0,126061
5,917500	0,1	0,138705
5,919167	0,1	0,157454
5,920833	0,1	0,183309
5,922500	0,1	0,124805
5,924167	0,1	0,169714
5,925833	0,1	0,098995
5,927500	0,1	0,128863
5,929167	0,1	0,136184
5,930833	0,1	0,149835
5,932500	0,1	0,109489
5,934167	0,1	0,129282
5,935833	0,1	0,124689
5,937500	0,1	0,106335
5,939167	0,1	0,152272
5,940833	0,1	0,172266
5,942500	0,1	0,124553
5,944167	0,1	0,152276
5,945833	0,1	0,137139
5,947500	0,1	0,126470
5,949167	0,1	0,129161
5,950833	0,1	0,090121
5,952500	0,1	0,141953
5,954167	0,1	0,124483
5,955833	0,1	0,074464
5,957500	0,1	0,113840
5,959167	0,1	0,140629
5,960833	0,1	0,118992
5,962500	0,1	0,117623
5,964167	0,1	0,121475
5,965833	0,1	0,131249
5,967500	0,1	0,105694
5,969167	0,1	0,123440
5,970833	0,1	0,133114
5,972500	0,1	0,111536
5,974167	0,1	0,129383
5,975833	0,1	0,113836
5,977500	0,1	0,134749
5,979167	0,1	0,119345
5,980833	0,1	0,097368
5,982500	0,1	0,097839
5,984167	0,1	0,157757
5,985833	0,1	0,149653
5,987500	0,1	0,116200
5,989167	0,1	0,119340
5,990833	0,1	0,147717
5,992500	0,1	0,088756
5,994167	0,1	0,090606
5,995833	0,1	0,123600
5,997500	0,1	0,125183
5,999167	0,1	0,126960
6,000833	0,1	0,132597
