File Path	chrom://chromeleon01/ikbm_chromeleon/2022/Rezex/Esteban/220612_chitin_4_7.seq/933.smp/UV_VIS_1.channel/UV_VIS_1.chm
Channel	UV_VIS_1

Injection Information:
Data Vault	ikbm_chromeleon
Injection	Sc10D_24h-NT_2
Injection Number	34
Position	RD6
Comment	
Processing Method	New ProcMethod
Instrument Method	Short_Rezex_6min_194nm
Type	Unknown
Status	Finished
Injection Date	12.06.2022
Injection Time	20:48:02
Injection Volume (µl)	8,000
Dilution Factor	1,0000
Weight	1,0000

Chromatogram Data Information:
Time Min. (min)	0,000833
Time Max. (min)	6,000833
Data Points	3601
Detector	UV
Generating Data System	Chromeleon 7.2.9.11323
Exporting Data System	Chromeleon 7.2.9.0
Operator	Instrument Controller
Signal Quantity	Absorbance
Signal Unit	mAU
Signal Min.	-0,218584
Signal Max.	926,032444
Channel	UV_VIS_1
Driver Name	VWD3000.dll
Channel Type	Evaluation
Min. Step (s)	0,1
Max. Step (s)	0,1
Average Step (s)	0,1

Signal Parameter Information:
Signal Info	WVL:194 nm

Chromatogram Data:
Time (min)	Step (s)	Value (mAU)
0,000833	n.a.	-0,150372
0,002500	0,1	-0,193876
0,004167	0,1	-0,142315
0,005833	0,1	-0,140218
0,007500	0,1	-0,159188
0,009167	0,1	-0,132745
0,010833	0,1	-0,154804
0,012500	0,1	-0,136556
0,014167	0,1	-0,134708
0,015833	0,1	-0,146303
0,017500	0,1	-0,171330
0,019167	0,1	-0,148825
0,020833	0,1	-0,147859
0,022500	0,1	-0,125237
0,024167	0,1	-0,146275
0,025833	0,1	-0,167159
0,027500	0,1	-0,136232
0,029167	0,1	-0,186597
0,030833	0,1	-0,195639
0,032500	0,1	-0,172275
0,034167	0,1	-0,166890
0,035833	0,1	-0,199271
0,037500	0,1	-0,195239
0,039167	0,1	-0,177365
0,040833	0,1	-0,218584
0,042500	0,1	-0,200523
0,044167	0,1	-0,203649
0,045833	0,1	-0,200240
0,047500	0,1	-0,209004
0,049167	0,1	-0,169867
0,050833	0,1	-0,213469
0,052500	0,1	-0,191805
0,054167	0,1	-0,169862
0,055833	0,1	-0,183168
0,057500	0,1	-0,209418
0,059167	0,1	-0,149933
0,060833	0,1	-0,157550
0,062500	0,1	-0,182066
0,064167	0,1	-0,184814
0,065833	0,1	-0,140165
0,067500	0,1	-0,201121
0,069167	0,1	-0,167387
0,070833	0,1	-0,161317
0,072500	0,1	-0,188674
0,074167	0,1	-0,136818
0,075833	0,1	-0,127459
0,077500	0,1	-0,165184
0,079167	0,1	-0,172216
0,080833	0,1	-0,148273
0,082500	0,1	-0,131971
0,084167	0,1	-0,145014
0,085833	0,1	-0,183087
0,087500	0,1	-0,150408
0,089167	0,1	-0,167857
0,090833	0,1	-0,137647
0,092500	0,1	-0,175773
0,094167	0,1	-0,173925
0,095833	0,1	-0,145643
0,097500	0,1	-0,171531
0,099167	0,1	-0,159287
0,100833	0,1	-0,186488
0,102500	0,1	-0,149057
0,104167	0,1	-0,146887
0,105833	0,1	-0,141660
0,107500	0,1	-0,186915
0,109167	0,1	-0,204037
0,110833	0,1	-0,180701
0,112500	0,1	-0,170303
0,114167	0,1	-0,185708
0,115833	0,1	-0,169886
0,117500	0,1	-0,151820
0,119167	0,1	-0,177366
0,120833	0,1	-0,167599
0,122500	0,1	-0,156871
0,124167	0,1	-0,203449
0,125833	0,1	-0,146484
0,127500	0,1	-0,211657
0,129167	0,1	-0,172796
0,130833	0,1	-0,198363
0,132500	0,1	-0,190312
0,134167	0,1	-0,190057
0,135833	0,1	-0,163621
0,137500	0,1	-0,155582
0,139167	0,1	-0,157513
0,140833	0,1	-0,174944
0,142500	0,1	-0,126142
0,144167	0,1	-0,131484
0,145833	0,1	-0,172524
0,147500	0,1	-0,190736
0,149167	0,1	-0,167602
0,150833	0,1	-0,177105
0,152500	0,1	-0,173887
0,154167	0,1	-0,183133
0,155833	0,1	-0,151950
0,157500	0,1	-0,153594
0,159167	0,1	-0,123116
0,160833	0,1	-0,153893
0,162500	0,1	-0,132843
0,164167	0,1	-0,149460
0,165833	0,1	-0,157448
0,167500	0,1	-0,189405
0,169167	0,1	-0,177212
0,170833	0,1	-0,154614
0,172500	0,1	-0,193850
0,174167	0,1	-0,155009
0,175833	0,1	-0,151753
0,177500	0,1	-0,118923
0,179167	0,1	-0,158514
0,180833	0,1	-0,161480
0,182500	0,1	-0,135612
0,184167	0,1	-0,209304
0,185833	0,1	-0,161707
0,187500	0,1	-0,167342
0,189167	0,1	-0,140323
0,190833	0,1	-0,169949
0,192500	0,1	-0,139834
0,194167	0,1	-0,140534
0,195833	0,1	-0,184930
0,197500	0,1	-0,123441
0,199167	0,1	-0,184307
0,200833	0,1	-0,186519
0,202500	0,1	-0,182136
0,204167	0,1	-0,187126
0,205833	0,1	-0,166096
0,207500	0,1	-0,121341
0,209167	0,1	-0,187590
0,210833	0,1	-0,155816
0,212500	0,1	-0,156995
0,214167	0,1	-0,165824
0,215833	0,1	-0,153133
0,217500	0,1	-0,184124
0,219167	0,1	-0,129492
0,220833	0,1	-0,154676
0,222500	0,1	-0,181030
0,224167	0,1	-0,132814
0,225833	0,1	-0,131070
0,227500	0,1	-0,159376
0,229167	0,1	-0,125078
0,230833	0,1	-0,187982
0,232500	0,1	-0,171276
0,234167	0,1	-0,161547
0,235833	0,1	-0,150530
0,237500	0,1	-0,159898
0,239167	0,1	-0,157123
0,240833	0,1	-0,171470
0,242500	0,1	-0,169012
0,244167	0,1	-0,160938
0,245833	0,1	-0,159320
0,247500	0,1	-0,125523
0,249167	0,1	-0,163077
0,250833	0,1	-0,157261
0,252500	0,1	-0,175145
0,254167	0,1	-0,154198
0,255833	0,1	-0,152486
0,257500	0,1	-0,150236
0,259167	0,1	-0,159356
0,260833	0,1	-0,125532
0,262500	0,1	-0,157643
0,264167	0,1	-0,204764
0,265833	0,1	-0,169422
0,267500	0,1	-0,168150
0,269167	0,1	-0,138999
0,270833	0,1	-0,192558
0,272500	0,1	-0,177048
0,274167	0,1	-0,134390
0,275833	0,1	-0,155740
0,277500	0,1	-0,145474
0,279167	0,1	-0,137667
0,280833	0,1	-0,153037
0,282500	0,1	-0,144565
0,284167	0,1	-0,150488
0,285833	0,1	-0,133387
0,287500	0,1	-0,159858
0,289167	0,1	-0,148270
0,290833	0,1	-0,155163
0,292500	0,1	-0,137644
0,294167	0,1	-0,151120
0,295833	0,1	-0,185021
0,297500	0,1	-0,157621
0,299167	0,1	-0,160808
0,300833	0,1	-0,155039
0,302500	0,1	-0,149402
0,304167	0,1	-0,136408
0,305833	0,1	-0,182429
0,307500	0,1	-0,121117
0,309167	0,1	-0,173545
0,310833	0,1	-0,171917
0,312500	0,1	-0,117414
0,314167	0,1	-0,119360
0,315833	0,1	-0,152023
0,317500	0,1	-0,115286
0,319167	0,1	-0,131735
0,320833	0,1	-0,156510
0,322500	0,1	-0,111575
0,324167	0,1	-0,138985
0,325833	0,1	-0,163144
0,327500	0,1	-0,133781
0,329167	0,1	-0,157989
0,330833	0,1	-0,146245
0,332500	0,1	-0,096792
0,334167	0,1	-0,131667
0,335833	0,1	-0,137020
0,337500	0,1	-0,149578
0,339167	0,1	-0,144475
0,340833	0,1	-0,140282
0,342500	0,1	-0,124982
0,344167	0,1	-0,141074
0,345833	0,1	-0,162283
0,347500	0,1	-0,149077
0,349167	0,1	-0,135745
0,350833	0,1	-0,092306
0,352500	0,1	-0,147264
0,354167	0,1	-0,162312
0,355833	0,1	-0,152498
0,357500	0,1	-0,131871
0,359167	0,1	-0,158996
0,360833	0,1	-0,131139
0,362500	0,1	-0,169204
0,364167	0,1	-0,163894
0,365833	0,1	-0,162833
0,367500	0,1	-0,155402
0,369167	0,1	-0,136683
0,370833	0,1	-0,154516
0,372500	0,1	-0,170107
0,374167	0,1	-0,138673
0,375833	0,1	-0,169596
0,377500	0,1	-0,136248
0,379167	0,1	-0,134092
0,380833	0,1	-0,141368
0,382500	0,1	-0,138031
0,384167	0,1	-0,155931
0,385833	0,1	-0,148177
0,387500	0,1	-0,139385
0,389167	0,1	-0,167147
0,390833	0,1	-0,132319
0,392500	0,1	-0,185889
0,394167	0,1	-0,132879
0,395833	0,1	-0,141857
0,397500	0,1	-0,115020
0,399167	0,1	-0,127743
0,400833	0,1	-0,141855
0,402500	0,1	-0,126134
0,404167	0,1	-0,128717
0,405833	0,1	-0,148625
0,407500	0,1	-0,100756
0,409167	0,1	-0,110510
0,410833	0,1	-0,127424
0,412500	0,1	-0,115280
0,414167	0,1	-0,080479
0,415833	0,1	-0,129442
0,417500	0,1	-0,141602
0,419167	0,1	-0,135708
0,420833	0,1	-0,166881
0,422500	0,1	-0,171233
0,424167	0,1	-0,116868
0,425833	0,1	-0,113925
0,427500	0,1	-0,111637
0,429167	0,1	-0,097492
0,430833	0,1	-0,131315
0,432500	0,1	-0,124916
0,434167	0,1	-0,108256
0,435833	0,1	-0,129928
0,437500	0,1	-0,111441
0,439167	0,1	-0,159093
0,440833	0,1	-0,146245
0,442500	0,1	-0,114866
0,444167	0,1	-0,145981
0,445833	0,1	-0,107325
0,447500	0,1	-0,120400
0,449167	0,1	-0,153551
0,450833	0,1	-0,132589
0,452500	0,1	-0,124717
0,454167	0,1	-0,138027
0,455833	0,1	-0,157899
0,457500	0,1	-0,126592
0,459167	0,1	-0,107222
0,460833	0,1	-0,145779
0,462500	0,1	-0,106328
0,464167	0,1	-0,162429
0,465833	0,1	-0,125050
0,467500	0,1	-0,118408
0,469167	0,1	-0,126937
0,470833	0,1	-0,139897
0,472500	0,1	-0,144435
0,474167	0,1	-0,118378
0,475833	0,1	-0,127518
0,477500	0,1	-0,127647
0,479167	0,1	-0,107358
0,480833	0,1	-0,147521
0,482500	0,1	-0,136506
0,484167	0,1	-0,107034
0,485833	0,1	-0,166277
0,487500	0,1	-0,140576
0,489167	0,1	-0,111808
0,490833	0,1	-0,144393
0,492500	0,1	-0,104849
0,494167	0,1	-0,131761
0,495833	0,1	-0,169785
0,497500	0,1	-0,111650
0,499167	0,1	-0,126517
0,500833	0,1	-0,112411
0,502500	0,1	-0,131417
0,504167	0,1	-0,095145
0,505833	0,1	-0,120816
0,507500	0,1	-0,126357
0,509167	0,1	-0,077912
0,510833	0,1	-0,145102
0,512500	0,1	-0,074306
0,514167	0,1	-0,120230
0,515833	0,1	-0,125176
0,517500	0,1	-0,078265
0,519167	0,1	-0,127508
0,520833	0,1	-0,111068
0,522500	0,1	-0,110602
0,524167	0,1	-0,130573
0,525833	0,1	-0,110644
0,527500	0,1	-0,077673
0,529167	0,1	-0,152277
0,530833	0,1	-0,144311
0,532500	0,1	-0,105201
0,534167	0,1	-0,135699
0,535833	0,1	-0,098659
0,537500	0,1	-0,093241
0,539167	0,1	-0,084864
0,540833	0,1	-0,101902
0,542500	0,1	-0,127740
0,544167	0,1	-0,101006
0,545833	0,1	-0,134382
0,547500	0,1	-0,087995
0,549167	0,1	-0,100034
0,550833	0,1	-0,096823
0,552500	0,1	-0,108639
0,554167	0,1	-0,078452
0,555833	0,1	-0,099260
0,557500	0,1	-0,132312
0,559167	0,1	-0,105199
0,560833	0,1	-0,089793
0,562500	0,1	-0,111822
0,564167	0,1	-0,112254
0,565833	0,1	-0,141109
0,567500	0,1	-0,092252
0,569167	0,1	-0,099809
0,570833	0,1	-0,154317
0,572500	0,1	-0,115966
0,574167	0,1	-0,096883
0,575833	0,1	-0,081479
0,577500	0,1	-0,115494
0,579167	0,1	-0,067856
0,580833	0,1	-0,085184
0,582500	0,1	-0,099198
0,584167	0,1	-0,099201
0,585833	0,1	-0,137050
0,587500	0,1	-0,102461
0,589167	0,1	-0,078896
0,590833	0,1	-0,119143
0,592500	0,1	-0,071827
0,594167	0,1	-0,102289
0,595833	0,1	-0,056644
0,597500	0,1	-0,107821
0,599167	0,1	-0,076200
0,600833	0,1	-0,084279
0,602500	0,1	-0,091459
0,604167	0,1	-0,102357
0,605833	0,1	-0,113821
0,607500	0,1	-0,065540
0,609167	0,1	-0,076156
0,610833	0,1	-0,052899
0,612500	0,1	-0,063981
0,614167	0,1	-0,064911
0,615833	0,1	-0,080119
0,617500	0,1	-0,038822
0,619167	0,1	-0,064552
0,620833	0,1	-0,085820
0,622500	0,1	-0,043973
0,624167	0,1	-0,045676
0,625833	0,1	-0,085568
0,627500	0,1	-0,092013
0,629167	0,1	-0,110606
0,630833	0,1	-0,104549
0,632500	0,1	-0,092497
0,634167	0,1	-0,061739
0,635833	0,1	-0,078186
0,637500	0,1	-0,071293
0,639167	0,1	-0,039628
0,640833	0,1	-0,066166
0,642500	0,1	-0,041269
0,644167	0,1	-0,093100
0,645833	0,1	-0,080912
0,647500	0,1	-0,029060
0,649167	0,1	-0,048122
0,650833	0,1	-0,060178
0,652500	0,1	-0,040489
0,654167	0,1	-0,065365
0,655833	0,1	-0,067686
0,657500	0,1	-0,032892
0,659167	0,1	-0,081628
0,660833	0,1	-0,055293
0,662500	0,1	-0,063429
0,664167	0,1	-0,049419
0,665833	0,1	-0,041620
0,667500	0,1	-0,066838
0,669167	0,1	-0,065562
0,670833	0,1	-0,030958
0,672500	0,1	-0,045190
0,674167	0,1	-0,052445
0,675833	0,1	-0,036302
0,677500	0,1	-0,035045
0,679167	0,1	-0,059296
0,680833	0,1	0,012350
0,682500	0,1	-0,019568
0,684167	0,1	-0,000080
0,685833	0,1	-0,034356
0,687500	0,1	-0,031335
0,689167	0,1	-0,047159
0,690833	0,1	-0,009233
0,692500	0,1	-0,013999
0,694167	0,1	-0,054404
0,695833	0,1	-0,034277
0,697500	0,1	-0,030046
0,699167	0,1	-0,030597
0,700833	0,1	-0,004113
0,702500	0,1	0,000857
0,704167	0,1	-0,010998
0,705833	0,1	0,007398
0,707500	0,1	-0,006066
0,709167	0,1	0,046935
0,710833	0,1	-0,012052
0,712500	0,1	-0,005397
0,714167	0,1	0,006076
0,715833	0,1	0,008076
0,717500	0,1	0,022869
0,719167	0,1	0,012559
0,720833	0,1	0,012012
0,722500	0,1	0,017680
0,724167	0,1	0,023321
0,725833	0,1	0,016364
0,727500	0,1	0,019226
0,729167	0,1	0,019679
0,730833	0,1	0,021580
0,732500	0,1	0,015233
0,734167	0,1	0,032795
0,735833	0,1	0,028060
0,737500	0,1	0,069565
0,739167	0,1	0,052915
0,740833	0,1	0,035670
0,742500	0,1	0,060707
0,744167	0,1	0,023042
0,745833	0,1	0,066310
0,747500	0,1	0,086430
0,749167	0,1	0,028782
0,750833	0,1	0,059092
0,752500	0,1	0,082721
0,754167	0,1	0,088978
0,755833	0,1	0,106705
0,757500	0,1	0,065363
0,759167	0,1	0,091101
0,760833	0,1	0,100294
0,762500	0,1	0,117635
0,764167	0,1	0,047802
0,765833	0,1	0,097769
0,767500	0,1	0,096364
0,769167	0,1	0,086244
0,770833	0,1	0,121950
0,772500	0,1	0,075550
0,774167	0,1	0,100192
0,775833	0,1	0,121855
0,777500	0,1	0,106843
0,779167	0,1	0,088695
0,780833	0,1	0,081245
0,782500	0,1	0,091750
0,784167	0,1	0,090012
0,785833	0,1	0,078508
0,787500	0,1	0,099259
0,789167	0,1	0,101778
0,790833	0,1	0,074643
0,792500	0,1	0,121238
0,794167	0,1	0,123344
0,795833	0,1	0,130017
0,797500	0,1	0,069137
0,799167	0,1	0,105154
0,800833	0,1	0,118410
0,802500	0,1	0,051831
0,804167	0,1	0,086071
0,805833	0,1	0,094458
0,807500	0,1	0,123659
0,809167	0,1	0,082350
0,810833	0,1	0,063841
0,812500	0,1	0,120494
0,814167	0,1	0,059437
0,815833	0,1	0,105507
0,817500	0,1	0,096847
0,819167	0,1	0,054275
0,820833	0,1	0,114754
0,822500	0,1	0,079416
0,824167	0,1	0,069739
0,825833	0,1	0,101158
0,827500	0,1	0,113446
0,829167	0,1	0,077288
0,830833	0,1	0,095551
0,832500	0,1	0,124948
0,834167	0,1	0,065076
0,835833	0,1	0,100641
0,837500	0,1	0,103421
0,839167	0,1	0,110706
0,840833	0,1	0,066812
0,842500	0,1	0,115595
0,844167	0,1	0,100493
0,845833	0,1	0,110769
0,847500	0,1	0,134267
0,849167	0,1	0,134918
0,850833	0,1	0,151548
0,852500	0,1	0,142174
0,854167	0,1	0,107749
0,855833	0,1	0,120504
0,857500	0,1	0,097238
0,859167	0,1	0,110351
0,860833	0,1	0,142647
0,862500	0,1	0,100822
0,864167	0,1	0,121052
0,865833	0,1	0,119411
0,867500	0,1	0,126631
0,869167	0,1	0,104329
0,870833	0,1	0,130141
0,872500	0,1	0,171275
0,874167	0,1	0,117718
0,875833	0,1	0,136880
0,877500	0,1	0,125057
0,879167	0,1	0,134077
0,880833	0,1	0,146747
0,882500	0,1	0,139047
0,884167	0,1	0,160027
0,885833	0,1	0,154521
0,887500	0,1	0,127383
0,889167	0,1	0,128149
0,890833	0,1	0,128407
0,892500	0,1	0,119898
0,894167	0,1	0,149549
0,895833	0,1	0,134471
0,897500	0,1	0,128859
0,899167	0,1	0,142330
0,900833	0,1	0,145651
0,902500	0,1	0,147297
0,904167	0,1	0,191649
0,905833	0,1	0,153240
0,907500	0,1	0,183140
0,909167	0,1	0,151012
0,910833	0,1	0,197741
0,912500	0,1	0,194079
0,914167	0,1	0,223577
0,915833	0,1	0,178872
0,917500	0,1	0,188082
0,919167	0,1	0,195532
0,920833	0,1	0,215294
0,922500	0,1	0,209556
0,924167	0,1	0,177648
0,925833	0,1	0,232085
0,927500	0,1	0,230353
0,929167	0,1	0,254113
0,930833	0,1	0,247026
0,932500	0,1	0,192067
0,934167	0,1	0,239469
0,935833	0,1	0,219813
0,937500	0,1	0,259848
0,939167	0,1	0,221822
0,940833	0,1	0,210657
0,942500	0,1	0,252109
0,944167	0,1	0,229493
0,945833	0,1	0,232705
0,947500	0,1	0,201119
0,949167	0,1	0,274993
0,950833	0,1	0,257159
0,952500	0,1	0,249513
0,954167	0,1	0,259341
0,955833	0,1	0,254446
0,957500	0,1	0,283239
0,959167	0,1	0,253807
0,960833	0,1	0,280267
0,962500	0,1	0,282535
0,964167	0,1	0,280217
0,965833	0,1	0,292787
0,967500	0,1	0,307043
0,969167	0,1	0,323195
0,970833	0,1	0,316357
0,972500	0,1	0,332320
0,974167	0,1	0,327453
0,975833	0,1	0,324172
0,977500	0,1	0,344481
0,979167	0,1	0,331823
0,980833	0,1	0,324913
0,982500	0,1	0,329976
0,984167	0,1	0,336969
0,985833	0,1	0,370113
0,987500	0,1	0,392247
0,989167	0,1	0,401254
0,990833	0,1	0,353922
0,992500	0,1	0,396771
0,994167	0,1	0,413039
0,995833	0,1	0,383293
0,997500	0,1	0,407387
0,999167	0,1	0,432313
1,000833	0,1	0,396815
1,002500	0,1	0,476199
1,004167	0,1	0,416599
1,005833	0,1	0,453972
1,007500	0,1	0,486551
1,009167	0,1	0,497394
1,010833	0,1	0,509367
1,012500	0,1	0,540494
1,014167	0,1	0,509245
1,015833	0,1	0,547013
1,017500	0,1	0,508420
1,019167	0,1	0,568330
1,020833	0,1	0,585654
1,022500	0,1	0,591042
1,024167	0,1	0,578004
1,025833	0,1	0,633855
1,027500	0,1	0,640744
1,029167	0,1	0,608391
1,030833	0,1	0,620220
1,032500	0,1	0,608186
1,034167	0,1	0,645389
1,035833	0,1	0,699393
1,037500	0,1	0,647080
1,039167	0,1	0,665716
1,040833	0,1	0,651078
1,042500	0,1	0,699925
1,044167	0,1	0,683404
1,045833	0,1	0,709103
1,047500	0,1	0,730257
1,049167	0,1	0,706178
1,050833	0,1	0,739361
1,052500	0,1	0,791795
1,054167	0,1	0,833435
1,055833	0,1	0,865167
1,057500	0,1	0,878243
1,059167	0,1	0,960159
1,060833	0,1	0,988747
1,062500	0,1	1,062035
1,064167	0,1	1,195942
1,065833	0,1	1,295123
1,067500	0,1	1,486439
1,069167	0,1	1,679586
1,070833	0,1	1,918550
1,072500	0,1	2,225166
1,074167	0,1	2,573632
1,075833	0,1	2,967973
1,077500	0,1	3,461388
1,079167	0,1	4,019276
1,080833	0,1	4,593404
1,082500	0,1	5,308914
1,084167	0,1	6,070215
1,085833	0,1	6,885592
1,087500	0,1	7,744952
1,089167	0,1	8,616059
1,090833	0,1	9,535018
1,092500	0,1	10,478183
1,094167	0,1	11,439003
1,095833	0,1	12,394095
1,097500	0,1	13,319085
1,099167	0,1	14,168172
1,100833	0,1	14,987383
1,102500	0,1	15,711113
1,104167	0,1	16,415947
1,105833	0,1	17,021679
1,107500	0,1	17,532894
1,109167	0,1	17,932176
1,110833	0,1	18,262242
1,112500	0,1	18,559574
1,114167	0,1	18,711854
1,115833	0,1	18,905475
1,117500	0,1	19,019510
1,119167	0,1	18,990786
1,120833	0,1	18,986733
1,122500	0,1	18,923865
1,124167	0,1	18,874752
1,125833	0,1	18,783777
1,127500	0,1	18,730115
1,129167	0,1	18,642085
1,130833	0,1	18,556939
1,132500	0,1	18,498652
1,134167	0,1	18,516521
1,135833	0,1	18,485020
1,137500	0,1	18,584068
1,139167	0,1	18,725393
1,140833	0,1	18,846402
1,142500	0,1	19,072727
1,144167	0,1	19,380282
1,145833	0,1	19,756377
1,147500	0,1	20,107398
1,149167	0,1	20,571109
1,150833	0,1	21,073143
1,152500	0,1	21,698120
1,154167	0,1	22,347571
1,155833	0,1	22,932341
1,157500	0,1	23,607700
1,159167	0,1	24,355625
1,160833	0,1	25,094105
1,162500	0,1	25,830129
1,164167	0,1	26,587191
1,165833	0,1	27,344215
1,167500	0,1	28,091032
1,169167	0,1	28,793890
1,170833	0,1	29,519517
1,172500	0,1	30,178699
1,174167	0,1	30,774525
1,175833	0,1	31,395359
1,177500	0,1	31,978428
1,179167	0,1	32,461606
1,180833	0,1	32,955060
1,182500	0,1	33,424757
1,184167	0,1	33,829643
1,185833	0,1	34,301378
1,187500	0,1	34,700783
1,189167	0,1	35,099456
1,190833	0,1	35,567223
1,192500	0,1	36,073050
1,194167	0,1	36,550307
1,195833	0,1	37,217844
1,197500	0,1	37,928844
1,199167	0,1	38,791869
1,200833	0,1	39,844713
1,202500	0,1	40,964514
1,204167	0,1	42,358069
1,205833	0,1	43,984440
1,207500	0,1	45,801913
1,209167	0,1	47,873009
1,210833	0,1	50,221128
1,212500	0,1	52,817702
1,214167	0,1	55,682967
1,215833	0,1	58,802074
1,217500	0,1	62,100168
1,219167	0,1	65,602700
1,220833	0,1	69,290622
1,222500	0,1	73,218859
1,224167	0,1	77,192049
1,225833	0,1	81,278425
1,227500	0,1	85,395396
1,229167	0,1	89,463520
1,230833	0,1	93,503617
1,232500	0,1	97,524361
1,234167	0,1	101,419829
1,235833	0,1	105,109722
1,237500	0,1	108,642908
1,239167	0,1	112,012080
1,240833	0,1	115,094051
1,242500	0,1	117,949812
1,244167	0,1	120,537269
1,245833	0,1	122,874646
1,247500	0,1	124,820027
1,249167	0,1	126,616626
1,250833	0,1	128,000284
1,252500	0,1	129,159277
1,254167	0,1	129,981096
1,255833	0,1	130,559284
1,257500	0,1	130,816621
1,259167	0,1	130,767310
1,260833	0,1	130,521399
1,262500	0,1	130,015983
1,264167	0,1	129,160564
1,265833	0,1	128,125101
1,267500	0,1	126,870368
1,269167	0,1	125,343117
1,270833	0,1	123,721258
1,272500	0,1	121,885100
1,274167	0,1	119,871123
1,275833	0,1	117,750440
1,277500	0,1	115,406903
1,279167	0,1	113,063302
1,280833	0,1	110,603209
1,282500	0,1	108,041040
1,284167	0,1	105,449275
1,285833	0,1	102,814805
1,287500	0,1	100,183172
1,289167	0,1	97,478943
1,290833	0,1	94,852479
1,292500	0,1	92,186663
1,294167	0,1	89,600581
1,295833	0,1	87,061483
1,297500	0,1	84,497508
1,299167	0,1	82,055094
1,300833	0,1	79,667743
1,302500	0,1	77,333887
1,304167	0,1	75,106669
1,305833	0,1	72,894197
1,307500	0,1	70,817489
1,309167	0,1	68,774570
1,310833	0,1	66,847642
1,312500	0,1	64,955235
1,314167	0,1	63,191646
1,315833	0,1	61,496842
1,317500	0,1	59,889379
1,319167	0,1	58,254946
1,320833	0,1	56,806532
1,322500	0,1	55,336396
1,324167	0,1	54,052699
1,325833	0,1	52,712384
1,327500	0,1	51,452873
1,329167	0,1	50,295783
1,330833	0,1	49,096260
1,332500	0,1	48,030189
1,334167	0,1	46,931141
1,335833	0,1	45,950321
1,337500	0,1	44,953699
1,339167	0,1	43,992878
1,340833	0,1	43,040919
1,342500	0,1	42,226298
1,344167	0,1	41,299188
1,345833	0,1	40,449689
1,347500	0,1	39,678990
1,349167	0,1	38,890433
1,350833	0,1	38,099905
1,352500	0,1	37,358864
1,354167	0,1	36,638247
1,355833	0,1	35,910905
1,357500	0,1	35,246956
1,359167	0,1	34,554986
1,360833	0,1	33,895198
1,362500	0,1	33,255042
1,364167	0,1	32,599966
1,365833	0,1	31,964726
1,367500	0,1	31,378252
1,369167	0,1	30,766063
1,370833	0,1	30,218171
1,372500	0,1	29,623912
1,374167	0,1	29,081742
1,375833	0,1	28,543164
1,377500	0,1	27,935539
1,379167	0,1	27,432440
1,380833	0,1	26,985558
1,382500	0,1	26,484281
1,384167	0,1	25,992447
1,385833	0,1	25,529779
1,387500	0,1	25,142586
1,389167	0,1	24,644408
1,390833	0,1	24,246016
1,392500	0,1	23,848616
1,394167	0,1	23,480020
1,395833	0,1	23,074199
1,397500	0,1	22,735969
1,399167	0,1	22,375804
1,400833	0,1	22,050090
1,402500	0,1	21,756292
1,404167	0,1	21,422980
1,405833	0,1	21,147284
1,407500	0,1	20,891844
1,409167	0,1	20,592773
1,410833	0,1	20,401666
1,412500	0,1	20,144002
1,414167	0,1	19,913139
1,415833	0,1	19,704426
1,417500	0,1	19,524983
1,419167	0,1	19,317359
1,420833	0,1	19,134050
1,422500	0,1	18,945403
1,424167	0,1	18,749628
1,425833	0,1	18,608082
1,427500	0,1	18,453191
1,429167	0,1	18,251614
1,430833	0,1	18,101917
1,432500	0,1	17,971066
1,434167	0,1	17,760146
1,435833	0,1	17,703893
1,437500	0,1	17,562868
1,439167	0,1	17,445592
1,440833	0,1	17,307514
1,442500	0,1	17,200075
1,444167	0,1	17,072012
1,445833	0,1	16,911290
1,447500	0,1	16,850923
1,449167	0,1	16,651379
1,450833	0,1	16,581027
1,452500	0,1	16,460453
1,454167	0,1	16,357006
1,455833	0,1	16,243888
1,457500	0,1	16,129231
1,459167	0,1	16,033036
1,460833	0,1	15,949971
1,462500	0,1	15,838189
1,464167	0,1	15,727626
1,465833	0,1	15,614286
1,467500	0,1	15,541987
1,469167	0,1	15,471582
1,470833	0,1	15,349245
1,472500	0,1	15,268840
1,474167	0,1	15,165511
1,475833	0,1	15,064596
1,477500	0,1	14,984247
1,479167	0,1	14,932069
1,480833	0,1	14,853493
1,482500	0,1	14,792171
1,484167	0,1	14,662804
1,485833	0,1	14,617572
1,487500	0,1	14,565613
1,489167	0,1	14,473354
1,490833	0,1	14,428279
1,492500	0,1	14,331165
1,494167	0,1	14,322355
1,495833	0,1	14,247752
1,497500	0,1	14,135198
1,499167	0,1	14,103382
1,500833	0,1	14,038087
1,502500	0,1	13,982845
1,504167	0,1	13,869170
1,505833	0,1	13,809248
1,507500	0,1	13,737805
1,509167	0,1	13,710210
1,510833	0,1	13,651896
1,512500	0,1	13,576744
1,514167	0,1	13,524600
1,515833	0,1	13,472112
1,517500	0,1	13,404614
1,519167	0,1	13,345574
1,520833	0,1	13,275236
1,522500	0,1	13,242809
1,524167	0,1	13,139646
1,525833	0,1	13,039952
1,527500	0,1	12,974976
1,529167	0,1	12,923942
1,530833	0,1	12,821379
1,532500	0,1	12,759484
1,534167	0,1	12,662104
1,535833	0,1	12,592663
1,537500	0,1	12,471955
1,539167	0,1	12,459543
1,540833	0,1	12,343072
1,542500	0,1	12,233847
1,544167	0,1	12,175734
1,545833	0,1	12,133695
1,547500	0,1	12,002767
1,549167	0,1	11,917746
1,550833	0,1	11,825441
1,552500	0,1	11,759707
1,554167	0,1	11,654389
1,555833	0,1	11,568517
1,557500	0,1	11,470329
1,559167	0,1	11,311252
1,560833	0,1	11,233172
1,562500	0,1	11,123912
1,564167	0,1	11,049390
1,565833	0,1	10,941050
1,567500	0,1	10,870175
1,569167	0,1	10,775777
1,570833	0,1	10,676676
1,572500	0,1	10,593607
1,574167	0,1	10,523100
1,575833	0,1	10,368958
1,577500	0,1	10,295831
1,579167	0,1	10,240168
1,580833	0,1	10,063309
1,582500	0,1	10,004795
1,584167	0,1	9,892033
1,585833	0,1	9,792205
1,587500	0,1	9,686605
1,589167	0,1	9,648098
1,590833	0,1	9,487224
1,592500	0,1	9,438022
1,594167	0,1	9,328872
1,595833	0,1	9,254875
1,597500	0,1	9,197652
1,599167	0,1	9,108171
1,600833	0,1	9,017343
1,602500	0,1	8,964860
1,604167	0,1	8,885391
1,605833	0,1	8,833830
1,607500	0,1	8,707706
1,609167	0,1	8,711796
1,610833	0,1	8,619751
1,612500	0,1	8,607835
1,614167	0,1	8,581685
1,615833	0,1	8,509446
1,617500	0,1	8,503851
1,619167	0,1	8,502958
1,620833	0,1	8,528311
1,622500	0,1	8,551084
1,624167	0,1	8,581033
1,625833	0,1	8,684287
1,627500	0,1	8,738985
1,629167	0,1	8,809358
1,630833	0,1	8,989601
1,632500	0,1	9,152795
1,634167	0,1	9,364018
1,635833	0,1	9,560488
1,637500	0,1	9,887753
1,639167	0,1	10,224565
1,640833	0,1	10,636108
1,642500	0,1	11,107311
1,644167	0,1	11,587459
1,645833	0,1	12,180981
1,647500	0,1	12,839936
1,649167	0,1	13,552248
1,650833	0,1	14,471500
1,652500	0,1	15,450088
1,654167	0,1	16,523391
1,655833	0,1	17,740819
1,657500	0,1	19,054955
1,659167	0,1	20,506154
1,660833	0,1	22,141104
1,662500	0,1	23,937278
1,664167	0,1	25,860765
1,665833	0,1	28,006565
1,667500	0,1	30,330092
1,669167	0,1	32,841239
1,670833	0,1	35,594404
1,672500	0,1	38,554300
1,674167	0,1	41,701369
1,675833	0,1	45,145472
1,677500	0,1	48,794482
1,679167	0,1	52,691688
1,680833	0,1	56,958864
1,682500	0,1	61,435568
1,684167	0,1	66,147567
1,685833	0,1	71,112574
1,687500	0,1	76,410133
1,689167	0,1	81,941702
1,690833	0,1	87,802244
1,692500	0,1	93,901305
1,694167	0,1	100,278460
1,695833	0,1	106,987327
1,697500	0,1	113,908182
1,699167	0,1	121,043690
1,700833	0,1	128,512759
1,702500	0,1	136,180973
1,704167	0,1	144,105998
1,705833	0,1	152,222960
1,707500	0,1	160,581369
1,709167	0,1	169,099279
1,710833	0,1	177,836135
1,712500	0,1	186,710495
1,714167	0,1	195,786060
1,715833	0,1	204,918409
1,717500	0,1	214,167646
1,719167	0,1	223,460129
1,720833	0,1	232,889442
1,722500	0,1	242,292159
1,724167	0,1	251,769783
1,725833	0,1	261,155234
1,727500	0,1	270,612278
1,729167	0,1	280,019650
1,730833	0,1	289,302839
1,732500	0,1	298,440339
1,734167	0,1	307,577407
1,735833	0,1	316,484457
1,737500	0,1	325,274919
1,739167	0,1	333,868205
1,740833	0,1	342,299077
1,742500	0,1	350,406072
1,744167	0,1	358,377612
1,745833	0,1	366,091001
1,747500	0,1	373,493270
1,749167	0,1	380,660472
1,750833	0,1	387,365006
1,752500	0,1	393,914362
1,754167	0,1	400,085625
1,755833	0,1	405,863704
1,757500	0,1	411,353716
1,759167	0,1	416,348366
1,760833	0,1	421,224325
1,762500	0,1	425,558641
1,764167	0,1	429,580886
1,765833	0,1	433,221834
1,767500	0,1	436,484288
1,769167	0,1	439,188464
1,770833	0,1	441,797669
1,772500	0,1	443,794311
1,774167	0,1	445,568476
1,775833	0,1	446,867616
1,777500	0,1	447,798575
1,779167	0,1	448,345160
1,780833	0,1	448,539945
1,782500	0,1	448,299237
1,784167	0,1	447,803667
1,785833	0,1	446,943331
1,787500	0,1	445,641780
1,789167	0,1	444,164759
1,790833	0,1	442,305225
1,792500	0,1	440,097591
1,794167	0,1	437,548908
1,795833	0,1	434,822445
1,797500	0,1	431,661827
1,799167	0,1	428,349641
1,800833	0,1	424,725812
1,802500	0,1	420,840418
1,804167	0,1	416,670125
1,805833	0,1	412,420329
1,807500	0,1	407,804213
1,809167	0,1	403,046978
1,810833	0,1	398,192174
1,812500	0,1	393,047621
1,814167	0,1	387,757051
1,815833	0,1	382,299393
1,817500	0,1	376,741669
1,819167	0,1	371,075249
1,820833	0,1	365,337192
1,822500	0,1	359,328078
1,824167	0,1	353,291103
1,825833	0,1	347,193457
1,827500	0,1	341,081704
1,829167	0,1	334,863734
1,830833	0,1	328,602707
1,832500	0,1	322,320030
1,834167	0,1	316,021070
1,835833	0,1	309,717382
1,837500	0,1	303,345351
1,839167	0,1	297,054891
1,840833	0,1	290,776629
1,842500	0,1	284,521652
1,844167	0,1	278,266877
1,845833	0,1	272,125801
1,847500	0,1	265,934761
1,849167	0,1	259,844966
1,850833	0,1	253,857405
1,852500	0,1	247,841815
1,854167	0,1	241,993584
1,855833	0,1	236,143579
1,857500	0,1	230,428199
1,859167	0,1	224,804097
1,860833	0,1	219,244314
1,862500	0,1	213,773677
1,864167	0,1	208,388025
1,865833	0,1	203,022650
1,867500	0,1	197,819964
1,869167	0,1	192,782439
1,870833	0,1	187,758878
1,872500	0,1	182,845124
1,874167	0,1	178,025358
1,875833	0,1	173,314673
1,877500	0,1	168,645254
1,879167	0,1	164,136737
1,880833	0,1	159,756701
1,882500	0,1	155,468317
1,884167	0,1	151,199180
1,885833	0,1	147,113648
1,887500	0,1	143,111665
1,889167	0,1	139,216660
1,890833	0,1	135,376769
1,892500	0,1	131,669864
1,894167	0,1	128,042825
1,895833	0,1	124,536809
1,897500	0,1	121,093849
1,899167	0,1	117,737338
1,900833	0,1	114,454083
1,902500	0,1	111,314623
1,904167	0,1	108,196285
1,905833	0,1	105,182088
1,907500	0,1	102,220174
1,909167	0,1	99,447076
1,910833	0,1	96,702941
1,912500	0,1	94,025167
1,914167	0,1	91,406342
1,915833	0,1	88,914546
1,917500	0,1	86,432780
1,919167	0,1	84,130369
1,920833	0,1	81,732999
1,922500	0,1	79,486458
1,924167	0,1	77,285060
1,925833	0,1	75,172144
1,927500	0,1	73,148283
1,929167	0,1	71,117349
1,930833	0,1	69,205921
1,932500	0,1	67,317810
1,934167	0,1	65,482950
1,935833	0,1	63,727988
1,937500	0,1	62,024543
1,939167	0,1	60,354649
1,940833	0,1	58,745250
1,942500	0,1	57,156213
1,944167	0,1	55,645230
1,945833	0,1	54,180516
1,947500	0,1	52,793183
1,949167	0,1	51,405013
1,950833	0,1	50,090567
1,952500	0,1	48,793883
1,954167	0,1	47,503479
1,955833	0,1	46,334994
1,957500	0,1	45,111334
1,959167	0,1	43,995992
1,960833	0,1	42,907977
1,962500	0,1	41,863566
1,964167	0,1	40,829813
1,965833	0,1	39,827464
1,967500	0,1	38,862033
1,969167	0,1	37,960434
1,970833	0,1	37,073092
1,972500	0,1	36,188283
1,974167	0,1	35,327866
1,975833	0,1	34,548975
1,977500	0,1	33,756405
1,979167	0,1	33,019359
1,980833	0,1	32,259125
1,982500	0,1	31,568128
1,984167	0,1	30,895311
1,985833	0,1	30,221902
1,987500	0,1	29,606399
1,989167	0,1	28,983074
1,990833	0,1	28,405264
1,992500	0,1	27,808386
1,994167	0,1	27,274273
1,995833	0,1	26,782838
1,997500	0,1	26,237407
1,999167	0,1	25,765299
2,000833	0,1	25,271890
2,002500	0,1	24,833006
2,004167	0,1	24,425757
2,005833	0,1	23,972582
2,007500	0,1	23,581414
2,009167	0,1	23,209737
2,010833	0,1	22,806798
2,012500	0,1	22,455736
2,014167	0,1	22,113806
2,015833	0,1	21,771164
2,017500	0,1	21,487648
2,019167	0,1	21,153159
2,020833	0,1	20,841514
2,022500	0,1	20,582772
2,024167	0,1	20,337710
2,025833	0,1	20,001267
2,027500	0,1	19,787433
2,029167	0,1	19,552209
2,030833	0,1	19,337578
2,032500	0,1	19,067770
2,034167	0,1	18,875985
2,035833	0,1	18,683155
2,037500	0,1	18,467214
2,039167	0,1	18,289055
2,040833	0,1	18,104790
2,042500	0,1	17,944436
2,044167	0,1	17,739370
2,045833	0,1	17,581739
2,047500	0,1	17,427431
2,049167	0,1	17,256223
2,050833	0,1	17,102367
2,052500	0,1	16,980878
2,054167	0,1	16,821058
2,055833	0,1	16,716285
2,057500	0,1	16,571669
2,059167	0,1	16,432249
2,060833	0,1	16,334800
2,062500	0,1	16,198540
2,064167	0,1	16,131742
2,065833	0,1	15,973667
2,067500	0,1	15,904623
2,069167	0,1	15,791134
2,070833	0,1	15,669352
2,072500	0,1	15,571397
2,074167	0,1	15,466512
2,075833	0,1	15,403724
2,077500	0,1	15,294354
2,079167	0,1	15,170723
2,080833	0,1	15,113700
2,082500	0,1	15,017090
2,084167	0,1	14,938226
2,085833	0,1	14,796422
2,087500	0,1	14,759333
2,089167	0,1	14,678771
2,090833	0,1	14,613041
2,092500	0,1	14,462309
2,094167	0,1	14,427630
2,095833	0,1	14,310635
2,097500	0,1	14,244700
2,099167	0,1	14,189418
2,100833	0,1	14,082067
2,102500	0,1	14,019190
2,104167	0,1	13,896586
2,105833	0,1	13,865411
2,107500	0,1	13,745784
2,109167	0,1	13,727469
2,110833	0,1	13,622211
2,112500	0,1	13,576469
2,114167	0,1	13,457420
2,115833	0,1	13,430055
2,117500	0,1	13,289909
2,119167	0,1	13,271191
2,120833	0,1	13,175498
2,122500	0,1	13,111415
2,124167	0,1	12,982839
2,125833	0,1	12,948848
2,127500	0,1	12,860493
2,129167	0,1	12,772494
2,130833	0,1	12,742422
2,132500	0,1	12,638243
2,134167	0,1	12,556081
2,135833	0,1	12,490276
2,137500	0,1	12,431721
2,139167	0,1	12,326316
2,140833	0,1	12,244024
2,142500	0,1	12,198695
2,144167	0,1	12,121110
2,145833	0,1	12,003390
2,147500	0,1	11,954849
2,149167	0,1	11,909787
2,150833	0,1	11,845189
2,152500	0,1	11,725479
2,154167	0,1	11,700254
2,155833	0,1	11,633933
2,157500	0,1	11,536468
2,159167	0,1	11,507757
2,160833	0,1	11,419749
2,162500	0,1	11,359169
2,164167	0,1	11,323520
2,165833	0,1	11,226650
2,167500	0,1	11,165270
2,169167	0,1	11,093122
2,170833	0,1	10,977222
2,172500	0,1	10,953333
2,174167	0,1	10,903170
2,175833	0,1	10,813619
2,177500	0,1	10,726834
2,179167	0,1	10,664127
2,180833	0,1	10,594761
2,182500	0,1	10,543192
2,184167	0,1	10,478709
2,185833	0,1	10,426810
2,187500	0,1	10,359422
2,189167	0,1	10,308756
2,190833	0,1	10,242592
2,192500	0,1	10,218714
2,194167	0,1	10,126019
2,195833	0,1	10,126491
2,197500	0,1	10,029537
2,199167	0,1	9,986709
2,200833	0,1	9,910323
2,202500	0,1	9,852291
2,204167	0,1	9,798813
2,205833	0,1	9,728062
2,207500	0,1	9,704395
2,209167	0,1	9,669666
2,210833	0,1	9,606586
2,212500	0,1	9,538532
2,214167	0,1	9,476785
2,215833	0,1	9,452934
2,217500	0,1	9,388880
2,219167	0,1	9,340646
2,220833	0,1	9,297223
2,222500	0,1	9,254037
2,224167	0,1	9,196272
2,225833	0,1	9,155844
2,227500	0,1	9,121113
2,229167	0,1	9,073246
2,230833	0,1	9,056126
2,232500	0,1	8,981974
2,234167	0,1	8,973995
2,235833	0,1	8,943590
2,237500	0,1	8,877530
2,239167	0,1	8,846012
2,240833	0,1	8,816792
2,242500	0,1	8,767569
2,244167	0,1	8,750803
2,245833	0,1	8,702078
2,247500	0,1	8,645110
2,249167	0,1	8,623198
2,250833	0,1	8,588445
2,252500	0,1	8,514590
2,254167	0,1	8,504435
2,255833	0,1	8,481827
2,257500	0,1	8,432932
2,259167	0,1	8,393238
2,260833	0,1	8,381272
2,262500	0,1	8,288244
2,264167	0,1	8,271067
2,265833	0,1	8,273540
2,267500	0,1	8,206499
2,269167	0,1	8,180415
2,270833	0,1	8,149598
2,272500	0,1	8,103428
2,274167	0,1	8,061210
2,275833	0,1	8,090230
2,277500	0,1	8,023497
2,279167	0,1	8,004488
2,280833	0,1	7,960087
2,282500	0,1	7,950945
2,284167	0,1	7,918867
2,285833	0,1	7,844683
2,287500	0,1	7,859679
2,289167	0,1	7,830950
2,290833	0,1	7,783085
2,292500	0,1	7,727832
2,294167	0,1	7,657029
2,295833	0,1	7,668686
2,297500	0,1	7,662047
2,299167	0,1	7,686739
2,300833	0,1	7,639784
2,302500	0,1	7,618935
2,304167	0,1	7,554843
2,305833	0,1	7,547351
2,307500	0,1	7,540234
2,309167	0,1	7,510351
2,310833	0,1	7,505029
2,312500	0,1	7,502279
2,314167	0,1	7,492806
2,315833	0,1	7,446815
2,317500	0,1	7,425781
2,319167	0,1	7,405331
2,320833	0,1	7,438369
2,322500	0,1	7,428750
2,324167	0,1	7,414581
2,325833	0,1	7,406251
2,327500	0,1	7,412343
2,329167	0,1	7,402328
2,330833	0,1	7,399523
2,332500	0,1	7,364114
2,334167	0,1	7,395762
2,335833	0,1	7,389884
2,337500	0,1	7,405503
2,339167	0,1	7,419831
2,340833	0,1	7,410099
2,342500	0,1	7,446990
2,344167	0,1	7,430779
2,345833	0,1	7,479677
2,347500	0,1	7,457313
2,349167	0,1	7,463196
2,350833	0,1	7,511893
2,352500	0,1	7,531799
2,354167	0,1	7,541098
2,355833	0,1	7,595843
2,357500	0,1	7,611416
2,359167	0,1	7,626732
2,360833	0,1	7,712528
2,362500	0,1	7,724455
2,364167	0,1	7,738692
2,365833	0,1	7,796823
2,367500	0,1	7,839563
2,369167	0,1	7,875426
2,370833	0,1	7,939729
2,372500	0,1	8,000586
2,374167	0,1	8,122788
2,375833	0,1	8,153652
2,377500	0,1	8,254741
2,379167	0,1	8,305442
2,380833	0,1	8,398684
2,382500	0,1	8,489132
2,384167	0,1	8,598182
2,385833	0,1	8,711834
2,387500	0,1	8,812225
2,389167	0,1	8,926936
2,390833	0,1	9,045763
2,392500	0,1	9,184780
2,394167	0,1	9,368910
2,395833	0,1	9,512251
2,397500	0,1	9,695150
2,399167	0,1	9,896573
2,400833	0,1	10,047289
2,402500	0,1	10,264685
2,404167	0,1	10,435399
2,405833	0,1	10,678327
2,407500	0,1	10,969310
2,409167	0,1	11,199753
2,410833	0,1	11,469886
2,412500	0,1	11,720286
2,414167	0,1	12,030101
2,415833	0,1	12,305569
2,417500	0,1	12,623247
2,419167	0,1	12,979620
2,420833	0,1	13,278402
2,422500	0,1	13,689644
2,424167	0,1	14,038413
2,425833	0,1	14,375170
2,427500	0,1	14,786686
2,429167	0,1	15,194891
2,430833	0,1	15,628063
2,432500	0,1	16,067116
2,434167	0,1	16,493303
2,435833	0,1	16,905155
2,437500	0,1	17,393089
2,439167	0,1	17,837112
2,440833	0,1	18,356030
2,442500	0,1	18,849303
2,444167	0,1	19,327935
2,445833	0,1	19,896962
2,447500	0,1	20,477880
2,449167	0,1	21,042420
2,450833	0,1	21,608620
2,452500	0,1	22,217050
2,454167	0,1	22,894773
2,455833	0,1	23,582446
2,457500	0,1	24,335522
2,459167	0,1	25,146423
2,460833	0,1	25,975591
2,462500	0,1	26,834683
2,464167	0,1	27,837137
2,465833	0,1	28,915436
2,467500	0,1	30,032535
2,469167	0,1	31,345618
2,470833	0,1	32,668663
2,472500	0,1	34,163988
2,474167	0,1	35,893025
2,475833	0,1	37,667689
2,477500	0,1	39,652029
2,479167	0,1	41,882374
2,480833	0,1	44,351969
2,482500	0,1	46,993565
2,484167	0,1	49,968185
2,485833	0,1	53,206038
2,487500	0,1	56,745495
2,489167	0,1	60,617192
2,490833	0,1	64,873307
2,492500	0,1	69,494546
2,494167	0,1	74,529930
2,495833	0,1	80,012577
2,497500	0,1	85,980711
2,499167	0,1	92,382749
2,500833	0,1	99,287608
2,502500	0,1	106,790981
2,504167	0,1	114,735374
2,505833	0,1	123,339391
2,507500	0,1	132,521005
2,509167	0,1	142,291409
2,510833	0,1	152,633162
2,512500	0,1	163,664790
2,514167	0,1	175,328813
2,515833	0,1	187,574953
2,517500	0,1	200,449608
2,519167	0,1	214,023405
2,520833	0,1	228,154590
2,522500	0,1	242,873789
2,524167	0,1	258,201553
2,525833	0,1	274,162838
2,527500	0,1	290,577867
2,529167	0,1	307,571592
2,530833	0,1	325,015029
2,532500	0,1	342,842042
2,534167	0,1	361,136600
2,535833	0,1	379,820561
2,537500	0,1	398,758859
2,539167	0,1	417,994944
2,540833	0,1	437,366645
2,542500	0,1	457,039472
2,544167	0,1	476,690791
2,545833	0,1	496,490649
2,547500	0,1	516,200073
2,549167	0,1	535,814232
2,550833	0,1	555,344351
2,552500	0,1	574,664287
2,554167	0,1	593,808003
2,555833	0,1	612,632995
2,557500	0,1	631,081917
2,559167	0,1	649,308973
2,560833	0,1	666,923595
2,562500	0,1	684,103828
2,564167	0,1	700,904470
2,565833	0,1	717,116525
2,567500	0,1	732,696374
2,569167	0,1	747,764586
2,570833	0,1	762,284436
2,572500	0,1	776,202662
2,574167	0,1	789,301586
2,575833	0,1	802,042733
2,577500	0,1	813,957383
2,579167	0,1	825,207282
2,580833	0,1	835,856894
2,582500	0,1	845,862984
2,584167	0,1	855,198080
2,585833	0,1	863,791106
2,587500	0,1	871,906550
2,589167	0,1	879,513516
2,590833	0,1	886,271699
2,592500	0,1	892,554472
2,594167	0,1	898,224078
2,595833	0,1	903,426743
2,597500	0,1	908,015349
2,599167	0,1	911,897641
2,600833	0,1	915,297748
2,602500	0,1	918,258251
2,604167	0,1	920,812603
2,605833	0,1	922,565202
2,607500	0,1	924,334709
2,609167	0,1	925,264669
2,610833	0,1	926,032444
2,612500	0,1	925,880475
2,614167	0,1	925,747475
2,615833	0,1	925,010800
2,617500	0,1	924,019892
2,619167	0,1	922,345646
2,620833	0,1	920,751404
2,622500	0,1	918,321436
2,624167	0,1	915,721195
2,625833	0,1	912,744625
2,627500	0,1	909,337376
2,629167	0,1	905,669193
2,630833	0,1	901,767972
2,632500	0,1	897,504872
2,634167	0,1	892,681724
2,635833	0,1	887,777105
2,637500	0,1	882,606097
2,639167	0,1	876,926619
2,640833	0,1	871,239187
2,642500	0,1	865,028687
2,644167	0,1	858,824399
2,645833	0,1	852,215609
2,647500	0,1	845,220588
2,649167	0,1	837,993218
2,650833	0,1	830,575099
2,652500	0,1	823,003961
2,654167	0,1	815,179068
2,655833	0,1	807,014661
2,657500	0,1	798,734640
2,659167	0,1	790,385613
2,660833	0,1	781,564048
2,662500	0,1	772,761675
2,664167	0,1	763,869308
2,665833	0,1	754,579986
2,667500	0,1	745,305673
2,669167	0,1	735,785514
2,670833	0,1	726,340452
2,672500	0,1	716,638046
2,674167	0,1	706,919293
2,675833	0,1	697,024097
2,677500	0,1	687,072002
2,679167	0,1	677,053627
2,680833	0,1	666,960194
2,682500	0,1	656,914519
2,684167	0,1	646,783868
2,685833	0,1	636,522212
2,687500	0,1	626,370774
2,689167	0,1	616,263270
2,690833	0,1	606,052590
2,692500	0,1	595,827265
2,694167	0,1	585,756424
2,695833	0,1	575,569537
2,697500	0,1	565,619586
2,699167	0,1	555,715087
2,700833	0,1	545,700534
2,702500	0,1	535,781560
2,704167	0,1	526,106689
2,705833	0,1	516,364717
2,707500	0,1	506,825067
2,709167	0,1	497,216111
2,710833	0,1	487,826911
2,712500	0,1	478,545768
2,714167	0,1	469,299463
2,715833	0,1	460,280280
2,717500	0,1	451,363559
2,719167	0,1	442,525276
2,720833	0,1	433,821153
2,722500	0,1	425,322323
2,724167	0,1	416,891261
2,725833	0,1	408,735611
2,727500	0,1	400,551052
2,729167	0,1	392,621936
2,730833	0,1	384,783367
2,732500	0,1	377,071410
2,734167	0,1	369,525738
2,735833	0,1	362,191987
2,737500	0,1	354,914180
2,739167	0,1	347,822377
2,740833	0,1	340,793524
2,742500	0,1	334,022624
2,744167	0,1	327,292322
2,745833	0,1	320,795948
2,747500	0,1	314,348030
2,749167	0,1	308,115580
2,750833	0,1	301,987669
2,752500	0,1	295,976926
2,754167	0,1	290,127265
2,755833	0,1	284,381653
2,757500	0,1	278,768944
2,759167	0,1	273,306909
2,760833	0,1	267,923596
2,762500	0,1	262,659983
2,764167	0,1	257,511088
2,765833	0,1	252,486288
2,767500	0,1	247,554107
2,769167	0,1	242,778583
2,770833	0,1	238,105867
2,772500	0,1	233,521353
2,774167	0,1	229,002467
2,775833	0,1	224,573622
2,777500	0,1	220,318685
2,779167	0,1	216,016942
2,780833	0,1	211,954847
2,782500	0,1	207,922819
2,784167	0,1	204,004982
2,785833	0,1	200,104197
2,787500	0,1	196,330508
2,789167	0,1	192,625541
2,790833	0,1	188,980686
2,792500	0,1	185,367875
2,794167	0,1	181,908888
2,795833	0,1	178,516141
2,797500	0,1	175,103141
2,799167	0,1	171,861290
2,800833	0,1	168,629445
2,802500	0,1	165,479863
2,804167	0,1	162,409079
2,805833	0,1	159,352460
2,807500	0,1	156,389491
2,809167	0,1	153,491205
2,810833	0,1	150,593378
2,812500	0,1	147,791456
2,814167	0,1	145,110273
2,815833	0,1	142,337279
2,817500	0,1	139,794348
2,819167	0,1	137,171388
2,820833	0,1	134,585203
2,822500	0,1	132,141289
2,824167	0,1	129,738763
2,825833	0,1	127,320286
2,827500	0,1	124,977185
2,829167	0,1	122,751095
2,830833	0,1	120,517411
2,832500	0,1	118,324730
2,834167	0,1	116,157103
2,835833	0,1	114,076438
2,837500	0,1	112,003808
2,839167	0,1	110,017573
2,840833	0,1	108,048093
2,842500	0,1	106,125490
2,844167	0,1	104,283510
2,845833	0,1	102,406932
2,847500	0,1	100,594473
2,849167	0,1	98,908892
2,850833	0,1	97,139731
2,852500	0,1	95,441011
2,854167	0,1	93,807813
2,855833	0,1	92,220092
2,857500	0,1	90,659332
2,859167	0,1	89,146718
2,860833	0,1	87,665780
2,862500	0,1	86,184937
2,864167	0,1	84,799697
2,865833	0,1	83,380884
2,867500	0,1	82,028511
2,869167	0,1	80,746232
2,870833	0,1	79,460781
2,872500	0,1	78,218347
2,874167	0,1	77,002225
2,875833	0,1	75,796127
2,877500	0,1	74,651325
2,879167	0,1	73,550387
2,880833	0,1	72,409798
2,882500	0,1	71,360962
2,884167	0,1	70,281722
2,885833	0,1	69,282733
2,887500	0,1	68,281167
2,889167	0,1	67,342942
2,890833	0,1	66,330449
2,892500	0,1	65,459050
2,894167	0,1	64,558073
2,895833	0,1	63,663985
2,897500	0,1	62,819381
2,899167	0,1	61,941247
2,900833	0,1	61,142900
2,902500	0,1	60,350918
2,904167	0,1	59,539800
2,905833	0,1	58,847867
2,907500	0,1	58,056106
2,909167	0,1	57,330885
2,910833	0,1	56,662979
2,912500	0,1	55,957423
2,914167	0,1	55,308816
2,915833	0,1	54,606992
2,917500	0,1	53,944324
2,919167	0,1	53,392352
2,920833	0,1	52,726252
2,922500	0,1	52,112234
2,924167	0,1	51,473139
2,925833	0,1	50,931987
2,927500	0,1	50,406674
2,929167	0,1	49,820643
2,930833	0,1	49,250455
2,932500	0,1	48,691251
2,934167	0,1	48,217691
2,935833	0,1	47,687210
2,937500	0,1	47,190032
2,939167	0,1	46,712452
2,940833	0,1	46,204579
2,942500	0,1	45,719109
2,944167	0,1	45,244620
2,945833	0,1	44,757966
2,947500	0,1	44,314021
2,949167	0,1	43,866032
2,950833	0,1	43,430247
2,952500	0,1	43,001189
2,954167	0,1	42,545447
2,955833	0,1	42,098880
2,957500	0,1	41,697056
2,959167	0,1	41,331510
2,960833	0,1	40,867042
2,962500	0,1	40,514639
2,964167	0,1	40,110512
2,965833	0,1	39,697226
2,967500	0,1	39,324458
2,969167	0,1	38,952099
2,970833	0,1	38,570180
2,972500	0,1	38,197605
2,974167	0,1	37,857818
2,975833	0,1	37,480779
2,977500	0,1	37,104772
2,979167	0,1	36,766981
2,980833	0,1	36,406790
2,982500	0,1	36,053667
2,984167	0,1	35,725084
2,985833	0,1	35,380216
2,987500	0,1	35,031628
2,989167	0,1	34,740832
2,990833	0,1	34,392339
2,992500	0,1	34,061856
2,994167	0,1	33,750220
2,995833	0,1	33,422701
2,997500	0,1	33,113159
2,999167	0,1	32,782762
3,000833	0,1	32,487838
3,002500	0,1	32,193016
3,004167	0,1	31,860985
3,005833	0,1	31,577333
3,007500	0,1	31,229745
3,009167	0,1	30,984219
3,010833	0,1	30,684277
3,012500	0,1	30,371588
3,014167	0,1	30,087526
3,015833	0,1	29,814336
3,017500	0,1	29,542278
3,019167	0,1	29,252939
3,020833	0,1	29,016058
3,022500	0,1	28,713265
3,024167	0,1	28,420634
3,025833	0,1	28,198198
3,027500	0,1	27,925560
3,029167	0,1	27,647344
3,030833	0,1	27,409573
3,032500	0,1	27,114732
3,034167	0,1	26,854961
3,035833	0,1	26,703617
3,037500	0,1	26,340724
3,039167	0,1	26,139352
3,040833	0,1	25,880810
3,042500	0,1	25,621774
3,044167	0,1	25,374358
3,045833	0,1	25,145919
3,047500	0,1	24,918546
3,049167	0,1	24,687248
3,050833	0,1	24,473871
3,052500	0,1	24,198062
3,054167	0,1	24,012535
3,055833	0,1	23,795460
3,057500	0,1	23,518532
3,059167	0,1	23,362270
3,060833	0,1	23,102461
3,062500	0,1	22,918598
3,064167	0,1	22,686107
3,065833	0,1	22,485721
3,067500	0,1	22,280673
3,069167	0,1	22,105297
3,070833	0,1	21,857172
3,072500	0,1	21,643019
3,074167	0,1	21,505776
3,075833	0,1	21,282769
3,077500	0,1	21,154113
3,079167	0,1	20,898529
3,080833	0,1	20,720230
3,082500	0,1	20,563924
3,084167	0,1	20,344977
3,085833	0,1	20,164499
3,087500	0,1	19,996355
3,089167	0,1	19,844253
3,090833	0,1	19,703462
3,092500	0,1	19,473110
3,094167	0,1	19,377271
3,095833	0,1	19,209152
3,097500	0,1	19,059829
3,099167	0,1	18,850519
3,100833	0,1	18,682471
3,102500	0,1	18,570103
3,104167	0,1	18,440999
3,105833	0,1	18,218092
3,107500	0,1	18,133019
3,109167	0,1	17,966315
3,110833	0,1	17,907502
3,112500	0,1	17,739860
3,114167	0,1	17,618119
3,115833	0,1	17,450420
3,117500	0,1	17,337431
3,119167	0,1	17,198844
3,120833	0,1	17,051110
3,122500	0,1	16,962704
3,124167	0,1	16,905978
3,125833	0,1	16,738546
3,127500	0,1	16,598568
3,129167	0,1	16,491700
3,130833	0,1	16,401827
3,132500	0,1	16,283646
3,134167	0,1	16,198227
3,135833	0,1	16,087186
3,137500	0,1	15,989020
3,139167	0,1	15,884982
3,140833	0,1	15,775352
3,142500	0,1	15,682040
3,144167	0,1	15,580477
3,145833	0,1	15,514328
3,147500	0,1	15,416018
3,149167	0,1	15,295159
3,150833	0,1	15,205827
3,152500	0,1	15,098769
3,154167	0,1	15,059129
3,155833	0,1	14,954112
3,157500	0,1	14,921002
3,159167	0,1	14,734414
3,160833	0,1	14,678498
3,162500	0,1	14,621720
3,164167	0,1	14,519748
3,165833	0,1	14,406476
3,167500	0,1	14,338486
3,169167	0,1	14,284781
3,170833	0,1	14,196752
3,172500	0,1	14,113243
3,174167	0,1	14,002065
3,175833	0,1	13,958968
3,177500	0,1	13,858566
3,179167	0,1	13,802804
3,180833	0,1	13,691569
3,182500	0,1	13,619905
3,184167	0,1	13,537636
3,185833	0,1	13,443533
3,187500	0,1	13,366001
3,189167	0,1	13,298371
3,190833	0,1	13,214079
3,192500	0,1	13,146652
3,194167	0,1	13,078938
3,195833	0,1	12,971741
3,197500	0,1	12,886241
3,199167	0,1	12,861180
3,200833	0,1	12,751546
3,202500	0,1	12,685810
3,204167	0,1	12,589714
3,205833	0,1	12,524774
3,207500	0,1	12,438904
3,209167	0,1	12,380714
3,210833	0,1	12,258413
3,212500	0,1	12,204100
3,214167	0,1	12,142505
3,215833	0,1	12,044153
3,217500	0,1	11,958424
3,219167	0,1	11,927355
3,220833	0,1	11,828050
3,222500	0,1	11,750866
3,224167	0,1	11,674129
3,225833	0,1	11,598149
3,227500	0,1	11,526116
3,229167	0,1	11,428406
3,230833	0,1	11,357830
3,232500	0,1	11,325287
3,234167	0,1	11,202458
3,235833	0,1	11,154204
3,237500	0,1	11,077845
3,239167	0,1	11,014142
3,240833	0,1	10,898655
3,242500	0,1	10,844040
3,244167	0,1	10,745660
3,245833	0,1	10,715399
3,247500	0,1	10,618821
3,249167	0,1	10,530987
3,250833	0,1	10,464391
3,252500	0,1	10,409033
3,254167	0,1	10,344397
3,255833	0,1	10,256949
3,257500	0,1	10,204972
3,259167	0,1	10,100843
3,260833	0,1	10,031127
3,262500	0,1	9,977036
3,264167	0,1	9,910269
3,265833	0,1	9,859716
3,267500	0,1	9,800755
3,269167	0,1	9,711840
3,270833	0,1	9,668808
3,272500	0,1	9,589182
3,274167	0,1	9,531591
3,275833	0,1	9,437418
3,277500	0,1	9,402170
3,279167	0,1	9,351078
3,280833	0,1	9,266542
3,282500	0,1	9,191731
3,284167	0,1	9,118174
3,285833	0,1	9,092109
3,287500	0,1	9,016643
3,289167	0,1	8,945053
3,290833	0,1	8,919627
3,292500	0,1	8,823905
3,294167	0,1	8,814746
3,295833	0,1	8,731371
3,297500	0,1	8,661489
3,299167	0,1	8,576603
3,300833	0,1	8,555039
3,302500	0,1	8,499027
3,304167	0,1	8,406568
3,305833	0,1	8,412784
3,307500	0,1	8,332841
3,309167	0,1	8,271456
3,310833	0,1	8,261488
3,312500	0,1	8,154368
3,314167	0,1	8,169673
3,315833	0,1	8,071773
3,317500	0,1	8,080083
3,319167	0,1	8,002069
3,320833	0,1	7,921762
3,322500	0,1	7,881193
3,324167	0,1	7,871797
3,325833	0,1	7,792065
3,327500	0,1	7,731572
3,329167	0,1	7,738999
3,330833	0,1	7,669657
3,332500	0,1	7,629173
3,334167	0,1	7,594735
3,335833	0,1	7,563281
3,337500	0,1	7,540111
3,339167	0,1	7,451318
3,340833	0,1	7,434485
3,342500	0,1	7,396215
3,344167	0,1	7,330967
3,345833	0,1	7,318316
3,347500	0,1	7,334600
3,349167	0,1	7,262314
3,350833	0,1	7,185760
3,352500	0,1	7,166801
3,354167	0,1	7,163357
3,355833	0,1	7,104110
3,357500	0,1	7,050936
3,359167	0,1	7,038010
3,360833	0,1	7,039044
3,362500	0,1	6,990396
3,364167	0,1	6,986819
3,365833	0,1	6,913401
3,367500	0,1	6,920486
3,369167	0,1	6,874382
3,370833	0,1	6,829940
3,372500	0,1	6,830024
3,374167	0,1	6,850128
3,375833	0,1	6,716521
3,377500	0,1	6,742380
3,379167	0,1	6,715275
3,380833	0,1	6,679087
3,382500	0,1	6,683280
3,384167	0,1	6,650005
3,385833	0,1	6,622142
3,387500	0,1	6,622041
3,389167	0,1	6,552408
3,390833	0,1	6,511833
3,392500	0,1	6,515468
3,394167	0,1	6,555000
3,395833	0,1	6,477728
3,397500	0,1	6,455471
3,399167	0,1	6,415942
3,400833	0,1	6,438730
3,402500	0,1	6,392951
3,404167	0,1	6,363511
3,405833	0,1	6,368366
3,407500	0,1	6,311846
3,409167	0,1	6,297917
3,410833	0,1	6,268596
3,412500	0,1	6,287449
3,414167	0,1	6,278490
3,415833	0,1	6,220481
3,417500	0,1	6,219074
3,419167	0,1	6,186206
3,420833	0,1	6,180866
3,422500	0,1	6,141573
3,424167	0,1	6,161263
3,425833	0,1	6,116349
3,427500	0,1	6,082523
3,429167	0,1	6,098045
3,430833	0,1	6,078809
3,432500	0,1	6,070112
3,434167	0,1	6,037346
3,435833	0,1	6,019331
3,437500	0,1	6,027061
3,439167	0,1	5,998792
3,440833	0,1	5,997670
3,442500	0,1	5,964230
3,444167	0,1	5,937266
3,445833	0,1	5,931207
3,447500	0,1	5,920253
3,449167	0,1	5,896171
3,450833	0,1	5,881803
3,452500	0,1	5,846708
3,454167	0,1	5,830100
3,455833	0,1	5,852315
3,457500	0,1	5,821160
3,459167	0,1	5,795403
3,460833	0,1	5,837194
3,462500	0,1	5,811631
3,464167	0,1	5,839540
3,465833	0,1	5,735688
3,467500	0,1	5,763563
3,469167	0,1	5,741073
3,470833	0,1	5,726957
3,472500	0,1	5,742330
3,474167	0,1	5,708240
3,475833	0,1	5,739855
3,477500	0,1	5,701147
3,479167	0,1	5,680128
3,480833	0,1	5,714281
3,482500	0,1	5,669059
3,484167	0,1	5,673424
3,485833	0,1	5,677921
3,487500	0,1	5,671763
3,489167	0,1	5,644905
3,490833	0,1	5,657558
3,492500	0,1	5,658790
3,494167	0,1	5,653182
3,495833	0,1	5,666370
3,497500	0,1	5,641818
3,499167	0,1	5,650493
3,500833	0,1	5,591713
3,502500	0,1	5,614114
3,504167	0,1	5,635381
3,505833	0,1	5,613013
3,507500	0,1	5,613912
3,509167	0,1	5,597029
3,510833	0,1	5,606743
3,512500	0,1	5,644470
3,514167	0,1	5,631189
3,515833	0,1	5,611512
3,517500	0,1	5,614876
3,519167	0,1	5,589314
3,520833	0,1	5,615893
3,522500	0,1	5,618778
3,524167	0,1	5,632503
3,525833	0,1	5,613458
3,527500	0,1	5,620573
3,529167	0,1	5,619878
3,530833	0,1	5,609360
3,532500	0,1	5,599639
3,534167	0,1	5,645540
3,535833	0,1	5,643044
3,537500	0,1	5,607688
3,539167	0,1	5,639386
3,540833	0,1	5,608992
3,542500	0,1	5,653287
3,544167	0,1	5,629946
3,545833	0,1	5,606350
3,547500	0,1	5,672565
3,549167	0,1	5,701053
3,550833	0,1	5,675212
3,552500	0,1	5,652891
3,554167	0,1	5,710024
3,555833	0,1	5,715042
3,557500	0,1	5,707222
3,559167	0,1	5,699180
3,560833	0,1	5,752847
3,562500	0,1	5,731287
3,564167	0,1	5,771588
3,565833	0,1	5,714508
3,567500	0,1	5,717924
3,569167	0,1	5,742110
3,570833	0,1	5,760939
3,572500	0,1	5,738382
3,574167	0,1	5,756968
3,575833	0,1	5,741545
3,577500	0,1	5,752463
3,579167	0,1	5,780749
3,580833	0,1	5,768581
3,582500	0,1	5,785581
3,584167	0,1	5,773550
3,585833	0,1	5,805647
3,587500	0,1	5,783044
3,589167	0,1	5,810964
3,590833	0,1	5,839158
3,592500	0,1	5,832431
3,594167	0,1	5,835434
3,595833	0,1	5,859962
3,597500	0,1	5,844202
3,599167	0,1	5,848951
3,600833	0,1	5,866307
3,602500	0,1	5,884589
3,604167	0,1	5,854456
3,605833	0,1	5,868659
3,607500	0,1	5,903463
3,609167	0,1	5,923985
3,610833	0,1	5,922341
3,612500	0,1	5,911979
3,614167	0,1	5,894238
3,615833	0,1	5,909721
3,617500	0,1	5,932136
3,619167	0,1	5,902616
3,620833	0,1	5,903573
3,622500	0,1	5,927150
3,624167	0,1	5,924491
3,625833	0,1	5,897015
3,627500	0,1	5,909601
3,629167	0,1	5,917462
3,630833	0,1	5,923706
3,632500	0,1	5,918481
3,634167	0,1	5,917555
3,635833	0,1	5,919636
3,637500	0,1	5,927445
3,639167	0,1	5,925034
3,640833	0,1	5,903267
3,642500	0,1	5,918125
3,644167	0,1	5,905316
3,645833	0,1	5,929302
3,647500	0,1	5,922965
3,649167	0,1	5,890100
3,650833	0,1	5,897872
3,652500	0,1	5,894144
3,654167	0,1	5,873874
3,655833	0,1	5,853732
3,657500	0,1	5,849979
3,659167	0,1	5,882194
3,660833	0,1	5,877901
3,662500	0,1	5,830559
3,664167	0,1	5,882169
3,665833	0,1	5,845109
3,667500	0,1	5,817208
3,669167	0,1	5,843168
3,670833	0,1	5,821441
3,672500	0,1	5,821806
3,674167	0,1	5,788579
3,675833	0,1	5,756009
3,677500	0,1	5,787944
3,679167	0,1	5,774011
3,680833	0,1	5,786079
3,682500	0,1	5,743881
3,684167	0,1	5,738008
3,685833	0,1	5,699751
3,687500	0,1	5,754627
3,689167	0,1	5,729342
3,690833	0,1	5,680277
3,692500	0,1	5,676527
3,694167	0,1	5,650754
3,695833	0,1	5,644860
3,697500	0,1	5,629615
3,699167	0,1	5,607981
3,700833	0,1	5,603199
3,702500	0,1	5,648168
3,704167	0,1	5,544818
3,705833	0,1	5,572504
3,707500	0,1	5,547635
3,709167	0,1	5,512975
3,710833	0,1	5,526541
3,712500	0,1	5,489926
3,714167	0,1	5,491648
3,715833	0,1	5,438878
3,717500	0,1	5,444546
3,719167	0,1	5,452765
3,720833	0,1	5,394357
3,722500	0,1	5,419367
3,724167	0,1	5,422954
3,725833	0,1	5,361412
3,727500	0,1	5,396734
3,729167	0,1	5,384046
3,730833	0,1	5,300343
3,732500	0,1	5,359866
3,734167	0,1	5,307250
3,735833	0,1	5,282028
3,737500	0,1	5,280875
3,739167	0,1	5,266368
3,740833	0,1	5,224563
3,742500	0,1	5,274202
3,744167	0,1	5,213827
3,745833	0,1	5,213092
3,747500	0,1	5,168812
3,749167	0,1	5,180058
3,750833	0,1	5,199107
3,752500	0,1	5,093579
3,754167	0,1	5,132197
3,755833	0,1	5,087847
3,757500	0,1	5,120807
3,759167	0,1	5,085084
3,760833	0,1	5,050631
3,762500	0,1	5,044929
3,764167	0,1	5,011986
3,765833	0,1	5,025362
3,767500	0,1	4,976842
3,769167	0,1	4,960033
3,770833	0,1	4,993641
3,772500	0,1	4,940789
3,774167	0,1	4,942609
3,775833	0,1	4,921764
3,777500	0,1	4,902318
3,779167	0,1	4,866529
3,780833	0,1	4,839743
3,782500	0,1	4,830871
3,784167	0,1	4,854328
3,785833	0,1	4,823646
3,787500	0,1	4,807238
3,789167	0,1	4,771167
3,790833	0,1	4,746432
3,792500	0,1	4,787896
3,794167	0,1	4,722076
3,795833	0,1	4,727583
3,797500	0,1	4,729853
3,799167	0,1	4,725348
3,800833	0,1	4,745659
3,802500	0,1	4,689580
3,804167	0,1	4,680504
3,805833	0,1	4,706726
3,807500	0,1	4,639444
3,809167	0,1	4,622151
3,810833	0,1	4,648512
3,812500	0,1	4,613150
3,814167	0,1	4,569306
3,815833	0,1	4,563441
3,817500	0,1	4,569156
3,819167	0,1	4,566810
3,820833	0,1	4,528277
3,822500	0,1	4,533384
3,824167	0,1	4,544601
3,825833	0,1	4,540528
3,827500	0,1	4,498341
3,829167	0,1	4,477075
3,830833	0,1	4,437608
3,832500	0,1	4,484665
3,834167	0,1	4,427341
3,835833	0,1	4,435347
3,837500	0,1	4,431685
3,839167	0,1	4,445641
3,840833	0,1	4,412094
3,842500	0,1	4,375864
3,844167	0,1	4,398189
3,845833	0,1	4,334687
3,847500	0,1	4,339296
3,849167	0,1	4,313445
3,850833	0,1	4,322467
3,852500	0,1	4,293349
3,854167	0,1	4,288504
3,855833	0,1	4,312282
3,857500	0,1	4,264845
3,859167	0,1	4,252787
3,860833	0,1	4,211304
3,862500	0,1	4,208691
3,864167	0,1	4,188922
3,865833	0,1	4,193991
3,867500	0,1	4,162855
3,869167	0,1	4,171141
3,870833	0,1	4,195833
3,872500	0,1	4,171706
3,874167	0,1	4,134426
3,875833	0,1	4,116036
3,877500	0,1	4,115629
3,879167	0,1	4,106630
3,880833	0,1	4,077125
3,882500	0,1	4,060855
3,884167	0,1	4,084097
3,885833	0,1	4,017119
3,887500	0,1	4,030795
3,889167	0,1	4,021446
3,890833	0,1	4,006036
3,892500	0,1	4,004044
3,894167	0,1	3,974815
3,895833	0,1	3,948878
3,897500	0,1	3,927415
3,899167	0,1	3,933221
3,900833	0,1	3,944397
3,902500	0,1	3,909207
3,904167	0,1	3,875022
3,905833	0,1	3,924062
3,907500	0,1	3,892295
3,909167	0,1	3,887981
3,910833	0,1	3,867741
3,912500	0,1	3,840023
3,914167	0,1	3,877605
3,915833	0,1	3,842506
3,917500	0,1	3,834208
3,919167	0,1	3,788212
3,920833	0,1	3,809411
3,922500	0,1	3,753304
3,924167	0,1	3,781366
3,925833	0,1	3,781535
3,927500	0,1	3,756021
3,929167	0,1	3,727012
3,930833	0,1	3,730986
3,932500	0,1	3,681547
3,934167	0,1	3,699899
3,935833	0,1	3,692627
3,937500	0,1	3,671425
3,939167	0,1	3,641526
3,940833	0,1	3,679415
3,942500	0,1	3,662156
3,944167	0,1	3,620532
3,945833	0,1	3,649159
3,947500	0,1	3,573283
3,949167	0,1	3,555562
3,950833	0,1	3,621274
3,952500	0,1	3,578528
3,954167	0,1	3,555127
3,955833	0,1	3,563568
3,957500	0,1	3,571653
3,959167	0,1	3,541232
3,960833	0,1	3,526328
3,962500	0,1	3,499769
3,964167	0,1	3,544553
3,965833	0,1	3,487921
3,967500	0,1	3,508979
3,969167	0,1	3,466428
3,970833	0,1	3,482432
3,972500	0,1	3,450089
3,974167	0,1	3,442666
3,975833	0,1	3,469342
3,977500	0,1	3,456198
3,979167	0,1	3,431909
3,980833	0,1	3,438572
3,982500	0,1	3,413862
3,984167	0,1	3,382983
3,985833	0,1	3,399608
3,987500	0,1	3,402210
3,989167	0,1	3,415421
3,990833	0,1	3,377184
3,992500	0,1	3,363791
3,994167	0,1	3,343355
3,995833	0,1	3,312987
3,997500	0,1	3,330197
3,999167	0,1	3,291918
4,000833	0,1	3,316556
4,002500	0,1	3,314456
4,004167	0,1	3,309989
4,005833	0,1	3,296459
4,007500	0,1	3,258433
4,009167	0,1	3,285742
4,010833	0,1	3,312214
4,012500	0,1	3,293055
4,014167	0,1	3,270139
4,015833	0,1	3,270213
4,017500	0,1	3,288137
4,019167	0,1	3,226068
4,020833	0,1	3,263473
4,022500	0,1	3,238062
4,024167	0,1	3,246753
4,025833	0,1	3,227514
4,027500	0,1	3,257296
4,029167	0,1	3,217778
4,030833	0,1	3,232857
4,032500	0,1	3,199181
4,034167	0,1	3,238174
4,035833	0,1	3,192504
4,037500	0,1	3,210856
4,039167	0,1	3,220778
4,040833	0,1	3,202864
4,042500	0,1	3,222388
4,044167	0,1	3,206032
4,045833	0,1	3,223273
4,047500	0,1	3,242775
4,049167	0,1	3,249871
4,050833	0,1	3,215385
4,052500	0,1	3,273780
4,054167	0,1	3,255752
4,055833	0,1	3,234500
4,057500	0,1	3,240936
4,059167	0,1	3,251818
4,060833	0,1	3,236631
4,062500	0,1	3,270410
4,064167	0,1	3,244535
4,065833	0,1	3,245976
4,067500	0,1	3,285503
4,069167	0,1	3,281145
4,070833	0,1	3,284705
4,072500	0,1	3,310315
4,074167	0,1	3,283256
4,075833	0,1	3,281695
4,077500	0,1	3,322713
4,079167	0,1	3,334538
4,080833	0,1	3,305448
4,082500	0,1	3,353225
4,084167	0,1	3,355676
4,085833	0,1	3,299461
4,087500	0,1	3,313566
4,089167	0,1	3,391685
4,090833	0,1	3,342110
4,092500	0,1	3,389823
4,094167	0,1	3,421485
4,095833	0,1	3,377805
4,097500	0,1	3,442694
4,099167	0,1	3,393793
4,100833	0,1	3,461901
4,102500	0,1	3,445233
4,104167	0,1	3,460978
4,105833	0,1	3,506991
4,107500	0,1	3,524622
4,109167	0,1	3,516910
4,110833	0,1	3,507368
4,112500	0,1	3,520063
4,114167	0,1	3,520669
4,115833	0,1	3,553974
4,117500	0,1	3,557187
4,119167	0,1	3,579528
4,120833	0,1	3,614461
4,122500	0,1	3,579212
4,124167	0,1	3,577698
4,125833	0,1	3,642643
4,127500	0,1	3,621570
4,129167	0,1	3,658855
4,130833	0,1	3,651753
4,132500	0,1	3,662440
4,134167	0,1	3,728084
4,135833	0,1	3,693450
4,137500	0,1	3,777942
4,139167	0,1	3,714302
4,140833	0,1	3,774290
4,142500	0,1	3,786900
4,144167	0,1	3,777879
4,145833	0,1	3,770974
4,147500	0,1	3,810990
4,149167	0,1	3,845740
4,150833	0,1	3,853184
4,152500	0,1	3,874803
4,154167	0,1	3,878628
4,155833	0,1	3,892975
4,157500	0,1	3,903503
4,159167	0,1	3,898061
4,160833	0,1	3,929392
4,162500	0,1	3,945012
4,164167	0,1	3,928388
4,165833	0,1	3,943746
4,167500	0,1	3,957001
4,169167	0,1	3,988215
4,170833	0,1	3,994525
4,172500	0,1	4,004610
4,174167	0,1	3,957706
4,175833	0,1	3,977242
4,177500	0,1	4,011115
4,179167	0,1	3,997415
4,180833	0,1	4,031806
4,182500	0,1	4,060351
4,184167	0,1	4,055237
4,185833	0,1	4,054174
4,187500	0,1	4,013362
4,189167	0,1	4,048684
4,190833	0,1	4,062106
4,192500	0,1	4,078453
4,194167	0,1	4,102068
4,195833	0,1	4,033663
4,197500	0,1	4,084952
4,199167	0,1	4,090854
4,200833	0,1	4,073704
4,202500	0,1	4,102643
4,204167	0,1	4,102247
4,205833	0,1	4,105217
4,207500	0,1	4,100664
4,209167	0,1	4,127573
4,210833	0,1	4,106433
4,212500	0,1	4,131028
4,214167	0,1	4,096437
4,215833	0,1	4,092361
4,217500	0,1	4,109639
4,219167	0,1	4,125659
4,220833	0,1	4,090911
4,222500	0,1	4,119479
4,224167	0,1	4,108262
4,225833	0,1	4,099893
4,227500	0,1	4,106673
4,229167	0,1	4,106472
4,230833	0,1	4,104806
4,232500	0,1	4,099654
4,234167	0,1	4,085736
4,235833	0,1	4,031094
4,237500	0,1	4,073196
4,239167	0,1	4,092850
4,240833	0,1	4,088704
4,242500	0,1	4,076344
4,244167	0,1	4,063735
4,245833	0,1	4,076330
4,247500	0,1	4,024020
4,249167	0,1	4,075303
4,250833	0,1	4,061012
4,252500	0,1	4,024788
4,254167	0,1	4,012382
4,255833	0,1	3,987014
4,257500	0,1	4,019445
4,259167	0,1	4,027416
4,260833	0,1	4,009012
4,262500	0,1	4,033066
4,264167	0,1	3,999088
4,265833	0,1	3,983394
4,267500	0,1	4,015454
4,269167	0,1	3,928405
4,270833	0,1	3,959152
4,272500	0,1	3,985818
4,274167	0,1	3,978430
4,275833	0,1	3,919252
4,277500	0,1	3,946059
4,279167	0,1	3,926886
4,280833	0,1	3,887175
4,282500	0,1	3,885701
4,284167	0,1	3,903664
4,285833	0,1	3,857749
4,287500	0,1	3,884800
4,289167	0,1	3,870016
4,290833	0,1	3,887567
4,292500	0,1	3,842385
4,294167	0,1	3,871104
4,295833	0,1	3,829258
4,297500	0,1	3,849198
4,299167	0,1	3,821697
4,300833	0,1	3,810676
4,302500	0,1	3,790157
4,304167	0,1	3,751353
4,305833	0,1	3,760160
4,307500	0,1	3,779623
4,309167	0,1	3,756954
4,310833	0,1	3,760118
4,312500	0,1	3,744316
4,314167	0,1	3,701048
4,315833	0,1	3,722857
4,317500	0,1	3,741344
4,319167	0,1	3,702433
4,320833	0,1	3,690033
4,322500	0,1	3,712052
4,324167	0,1	3,674766
4,325833	0,1	3,661190
4,327500	0,1	3,652132
4,329167	0,1	3,595715
4,330833	0,1	3,633191
4,332500	0,1	3,634251
4,334167	0,1	3,575372
4,335833	0,1	3,595376
4,337500	0,1	3,566746
4,339167	0,1	3,588307
4,340833	0,1	3,560204
4,342500	0,1	3,523825
4,344167	0,1	3,575915
4,345833	0,1	3,531944
4,347500	0,1	3,507371
4,349167	0,1	3,518158
4,350833	0,1	3,514103
4,352500	0,1	3,472368
4,354167	0,1	3,504806
4,355833	0,1	3,490793
4,357500	0,1	3,443101
4,359167	0,1	3,470734
4,360833	0,1	3,446455
4,362500	0,1	3,396233
4,364167	0,1	3,390614
4,365833	0,1	3,407435
4,367500	0,1	3,426478
4,369167	0,1	3,377045
4,370833	0,1	3,324652
4,372500	0,1	3,398436
4,374167	0,1	3,384468
4,375833	0,1	3,339274
4,377500	0,1	3,342700
4,379167	0,1	3,337079
4,380833	0,1	3,299337
4,382500	0,1	3,305311
4,384167	0,1	3,333539
4,385833	0,1	3,295677
4,387500	0,1	3,264532
4,389167	0,1	3,307143
4,390833	0,1	3,258740
4,392500	0,1	3,245381
4,394167	0,1	3,197363
4,395833	0,1	3,251288
4,397500	0,1	3,215336
4,399167	0,1	3,204762
4,400833	0,1	3,196884
4,402500	0,1	3,202183
4,404167	0,1	3,153342
4,405833	0,1	3,179060
4,407500	0,1	3,178702
4,409167	0,1	3,144249
4,410833	0,1	3,149147
4,412500	0,1	3,136141
4,414167	0,1	3,110616
4,415833	0,1	3,143740
4,417500	0,1	3,117133
4,419167	0,1	3,129565
4,420833	0,1	3,074219
4,422500	0,1	3,080462
4,424167	0,1	3,024548
4,425833	0,1	3,046417
4,427500	0,1	3,059195
4,429167	0,1	3,045337
4,430833	0,1	3,044374
4,432500	0,1	3,044995
4,434167	0,1	2,994665
4,435833	0,1	2,995795
4,437500	0,1	3,041635
4,439167	0,1	2,994247
4,440833	0,1	2,932235
4,442500	0,1	2,948132
4,444167	0,1	2,958331
4,445833	0,1	2,905782
4,447500	0,1	2,955679
4,449167	0,1	2,881052
4,450833	0,1	2,943809
4,452500	0,1	2,931505
4,454167	0,1	2,910787
4,455833	0,1	2,913763
4,457500	0,1	2,891893
4,459167	0,1	2,877924
4,460833	0,1	2,846765
4,462500	0,1	2,807175
4,464167	0,1	2,811323
4,465833	0,1	2,841998
4,467500	0,1	2,816214
4,469167	0,1	2,821189
4,470833	0,1	2,804228
4,472500	0,1	2,811533
4,474167	0,1	2,724763
4,475833	0,1	2,794002
4,477500	0,1	2,737101
4,479167	0,1	2,796599
4,480833	0,1	2,718771
4,482500	0,1	2,742555
4,484167	0,1	2,728981
4,485833	0,1	2,724820
4,487500	0,1	2,705881
4,489167	0,1	2,670137
4,490833	0,1	2,696350
4,492500	0,1	2,661327
4,494167	0,1	2,658000
4,495833	0,1	2,683286
4,497500	0,1	2,649998
4,499167	0,1	2,640853
4,500833	0,1	2,636919
4,502500	0,1	2,670465
4,504167	0,1	2,615213
4,505833	0,1	2,623628
4,507500	0,1	2,576396
4,509167	0,1	2,541034
4,510833	0,1	2,582693
4,512500	0,1	2,556082
4,514167	0,1	2,541150
4,515833	0,1	2,575714
4,517500	0,1	2,565711
4,519167	0,1	2,515739
4,520833	0,1	2,519570
4,522500	0,1	2,511100
4,524167	0,1	2,547124
4,525833	0,1	2,466628
4,527500	0,1	2,502677
4,529167	0,1	2,546082
4,530833	0,1	2,469915
4,532500	0,1	2,485436
4,534167	0,1	2,495674
4,535833	0,1	2,472358
4,537500	0,1	2,453285
4,539167	0,1	2,468459
4,540833	0,1	2,455202
4,542500	0,1	2,460956
4,544167	0,1	2,421891
4,545833	0,1	2,420920
4,547500	0,1	2,420197
4,549167	0,1	2,385380
4,550833	0,1	2,392339
4,552500	0,1	2,365351
4,554167	0,1	2,344388
4,555833	0,1	2,335834
4,557500	0,1	2,346250
4,559167	0,1	2,361439
4,560833	0,1	2,309040
4,562500	0,1	2,338903
4,564167	0,1	2,285935
4,565833	0,1	2,315066
4,567500	0,1	2,325724
4,569167	0,1	2,289522
4,570833	0,1	2,279679
4,572500	0,1	2,278861
4,574167	0,1	2,252458
4,575833	0,1	2,252803
4,577500	0,1	2,253654
4,579167	0,1	2,245752
4,580833	0,1	2,277417
4,582500	0,1	2,250932
4,584167	0,1	2,216030
4,585833	0,1	2,223794
4,587500	0,1	2,178746
4,589167	0,1	2,216431
4,590833	0,1	2,186073
4,592500	0,1	2,193117
4,594167	0,1	2,213344
4,595833	0,1	2,113341
4,597500	0,1	2,176260
4,599167	0,1	2,156206
4,600833	0,1	2,141821
4,602500	0,1	2,147567
4,604167	0,1	2,131098
4,605833	0,1	2,125045
4,607500	0,1	2,158195
4,609167	0,1	2,120372
4,610833	0,1	2,096564
4,612500	0,1	2,128120
4,614167	0,1	2,086913
4,615833	0,1	2,100501
4,617500	0,1	2,106017
4,619167	0,1	2,029641
4,620833	0,1	2,096308
4,622500	0,1	2,047474
4,624167	0,1	2,059613
4,625833	0,1	2,067256
4,627500	0,1	2,050705
4,629167	0,1	2,041131
4,630833	0,1	2,002357
4,632500	0,1	2,013719
4,634167	0,1	2,005733
4,635833	0,1	2,019546
4,637500	0,1	2,016734
4,639167	0,1	1,956676
4,640833	0,1	1,989757
4,642500	0,1	1,962786
4,644167	0,1	1,977018
4,645833	0,1	1,962133
4,647500	0,1	1,971114
4,649167	0,1	1,962925
4,650833	0,1	1,952350
4,652500	0,1	2,001035
4,654167	0,1	1,945374
4,655833	0,1	1,919261
4,657500	0,1	1,958818
4,659167	0,1	1,918399
4,660833	0,1	1,933997
4,662500	0,1	1,938602
4,664167	0,1	1,900417
4,665833	0,1	1,855468
4,667500	0,1	1,872642
4,669167	0,1	1,896015
4,670833	0,1	1,876170
4,672500	0,1	1,842371
4,674167	0,1	1,882774
4,675833	0,1	1,879329
4,677500	0,1	1,843019
4,679167	0,1	1,843152
4,680833	0,1	1,876370
4,682500	0,1	1,843232
4,684167	0,1	1,856167
4,685833	0,1	1,812385
4,687500	0,1	1,811867
4,689167	0,1	1,844800
4,690833	0,1	1,820434
4,692500	0,1	1,820067
4,694167	0,1	1,791595
4,695833	0,1	1,787347
4,697500	0,1	1,792018
4,699167	0,1	1,795471
4,700833	0,1	1,775700
4,702500	0,1	1,762683
4,704167	0,1	1,776267
4,705833	0,1	1,763474
4,707500	0,1	1,767353
4,709167	0,1	1,745141
4,710833	0,1	1,723712
4,712500	0,1	1,734346
4,714167	0,1	1,755628
4,715833	0,1	1,721487
4,717500	0,1	1,731254
4,719167	0,1	1,684606
4,720833	0,1	1,764673
4,722500	0,1	1,746074
4,724167	0,1	1,690286
4,725833	0,1	1,681862
4,727500	0,1	1,730238
4,729167	0,1	1,683526
4,730833	0,1	1,701342
4,732500	0,1	1,688984
4,734167	0,1	1,664613
4,735833	0,1	1,669425
4,737500	0,1	1,654334
4,739167	0,1	1,703708
4,740833	0,1	1,671089
4,742500	0,1	1,633632
4,744167	0,1	1,685948
4,745833	0,1	1,671517
4,747500	0,1	1,615379
4,749167	0,1	1,650655
4,750833	0,1	1,664893
4,752500	0,1	1,603733
4,754167	0,1	1,644897
4,755833	0,1	1,604163
4,757500	0,1	1,594088
4,759167	0,1	1,634193
4,760833	0,1	1,622413
4,762500	0,1	1,581953
4,764167	0,1	1,604004
4,765833	0,1	1,591359
4,767500	0,1	1,610761
4,769167	0,1	1,615583
4,770833	0,1	1,587118
4,772500	0,1	1,581298
4,774167	0,1	1,607671
4,775833	0,1	1,551477
4,777500	0,1	1,558869
4,779167	0,1	1,533789
4,780833	0,1	1,569430
4,782500	0,1	1,530780
4,784167	0,1	1,558499
4,785833	0,1	1,526094
4,787500	0,1	1,529830
4,789167	0,1	1,555415
4,790833	0,1	1,523152
4,792500	0,1	1,553544
4,794167	0,1	1,558291
4,795833	0,1	1,530559
4,797500	0,1	1,527386
4,799167	0,1	1,540177
4,800833	0,1	1,527321
4,802500	0,1	1,519478
4,804167	0,1	1,503679
4,805833	0,1	1,447423
4,807500	0,1	1,487709
4,809167	0,1	1,523859
4,810833	0,1	1,500158
4,812500	0,1	1,518400
4,814167	0,1	1,476374
4,815833	0,1	1,492529
4,817500	0,1	1,465594
4,819167	0,1	1,471407
4,820833	0,1	1,489870
4,822500	0,1	1,492962
4,824167	0,1	1,464007
4,825833	0,1	1,437421
4,827500	0,1	1,473273
4,829167	0,1	1,465523
4,830833	0,1	1,440729
4,832500	0,1	1,464070
4,834167	0,1	1,425726
4,835833	0,1	1,443376
4,837500	0,1	1,427436
4,839167	0,1	1,445457
4,840833	0,1	1,403873
4,842500	0,1	1,433814
4,844167	0,1	1,429590
4,845833	0,1	1,438859
4,847500	0,1	1,357968
4,849167	0,1	1,456228
4,850833	0,1	1,378058
4,852500	0,1	1,410963
4,854167	0,1	1,413435
4,855833	0,1	1,413923
4,857500	0,1	1,376785
4,859167	0,1	1,390857
4,860833	0,1	1,402792
4,862500	0,1	1,357825
4,864167	0,1	1,392997
4,865833	0,1	1,382676
4,867500	0,1	1,382385
4,869167	0,1	1,355945
4,870833	0,1	1,374115
4,872500	0,1	1,368442
4,874167	0,1	1,397671
4,875833	0,1	1,346532
4,877500	0,1	1,328498
4,879167	0,1	1,382737
4,880833	0,1	1,351356
4,882500	0,1	1,370235
4,884167	0,1	1,372118
4,885833	0,1	1,356946
4,887500	0,1	1,362909
4,889167	0,1	1,327655
4,890833	0,1	1,302282
4,892500	0,1	1,331082
4,894167	0,1	1,337263
4,895833	0,1	1,320539
4,897500	0,1	1,321958
4,899167	0,1	1,310334
4,900833	0,1	1,312540
4,902500	0,1	1,349394
4,904167	0,1	1,353498
4,905833	0,1	1,326141
4,907500	0,1	1,343525
4,909167	0,1	1,315709
4,910833	0,1	1,313991
4,912500	0,1	1,305500
4,914167	0,1	1,278660
4,915833	0,1	1,293718
4,917500	0,1	1,295311
4,919167	0,1	1,299906
4,920833	0,1	1,306957
4,922500	0,1	1,286633
4,924167	0,1	1,333524
4,925833	0,1	1,297837
4,927500	0,1	1,276859
4,929167	0,1	1,268372
4,930833	0,1	1,309028
4,932500	0,1	1,282528
4,934167	0,1	1,268086
4,935833	0,1	1,255742
4,937500	0,1	1,290936
4,939167	0,1	1,294944
4,940833	0,1	1,272125
4,942500	0,1	1,266362
4,944167	0,1	1,275269
4,945833	0,1	1,308523
4,947500	0,1	1,260465
4,949167	0,1	1,296754
4,950833	0,1	1,299777
4,952500	0,1	1,302922
4,954167	0,1	1,284833
4,955833	0,1	1,266306
4,957500	0,1	1,260346
4,959167	0,1	1,272892
4,960833	0,1	1,284748
4,962500	0,1	1,300201
4,964167	0,1	1,281671
4,965833	0,1	1,301642
4,967500	0,1	1,307524
4,969167	0,1	1,258328
4,970833	0,1	1,287121
4,972500	0,1	1,285336
4,974167	0,1	1,271895
4,975833	0,1	1,290058
4,977500	0,1	1,274969
4,979167	0,1	1,292225
4,980833	0,1	1,273495
4,982500	0,1	1,268789
4,984167	0,1	1,279794
4,985833	0,1	1,298819
4,987500	0,1	1,305594
4,989167	0,1	1,348621
4,990833	0,1	1,275568
4,992500	0,1	1,298479
4,994167	0,1	1,323052
4,995833	0,1	1,299486
4,997500	0,1	1,302922
4,999167	0,1	1,274771
5,000833	0,1	1,342781
5,002500	0,1	1,295701
5,004167	0,1	1,307295
5,005833	0,1	1,335039
5,007500	0,1	1,304031
5,009167	0,1	1,345886
5,010833	0,1	1,331940
5,012500	0,1	1,316223
5,014167	0,1	1,339348
5,015833	0,1	1,378215
5,017500	0,1	1,396114
5,019167	0,1	1,343892
5,020833	0,1	1,373676
5,022500	0,1	1,364727
5,024167	0,1	1,392240
5,025833	0,1	1,394523
5,027500	0,1	1,368455
5,029167	0,1	1,380591
5,030833	0,1	1,366013
5,032500	0,1	1,394382
5,034167	0,1	1,357030
5,035833	0,1	1,379450
5,037500	0,1	1,350126
5,039167	0,1	1,364417
5,040833	0,1	1,413784
5,042500	0,1	1,409116
5,044167	0,1	1,388630
5,045833	0,1	1,395900
5,047500	0,1	1,417657
5,049167	0,1	1,446979
5,050833	0,1	1,391169
5,052500	0,1	1,440789
5,054167	0,1	1,430527
5,055833	0,1	1,471480
5,057500	0,1	1,425509
5,059167	0,1	1,444669
5,060833	0,1	1,435987
5,062500	0,1	1,469036
5,064167	0,1	1,426079
5,065833	0,1	1,453728
5,067500	0,1	1,435843
5,069167	0,1	1,449985
5,070833	0,1	1,471262
5,072500	0,1	1,499721
5,074167	0,1	1,506618
5,075833	0,1	1,466390
5,077500	0,1	1,509348
5,079167	0,1	1,512370
5,080833	0,1	1,496282
5,082500	0,1	1,496918
5,084167	0,1	1,497854
5,085833	0,1	1,535797
5,087500	0,1	1,528046
5,089167	0,1	1,507925
5,090833	0,1	1,524147
5,092500	0,1	1,516330
5,094167	0,1	1,518262
5,095833	0,1	1,519919
5,097500	0,1	1,506478
5,099167	0,1	1,510429
5,100833	0,1	1,539963
5,102500	0,1	1,541474
5,104167	0,1	1,519709
5,105833	0,1	1,536954
5,107500	0,1	1,521651
5,109167	0,1	1,511079
5,110833	0,1	1,487435
5,112500	0,1	1,544916
5,114167	0,1	1,517259
5,115833	0,1	1,505188
5,117500	0,1	1,552467
5,119167	0,1	1,524879
5,120833	0,1	1,512016
5,122500	0,1	1,510932
5,124167	0,1	1,500003
5,125833	0,1	1,520851
5,127500	0,1	1,511716
5,129167	0,1	1,525300
5,130833	0,1	1,507277
5,132500	0,1	1,509930
5,134167	0,1	1,533709
5,135833	0,1	1,522869
5,137500	0,1	1,563110
5,139167	0,1	1,500663
5,140833	0,1	1,499785
5,142500	0,1	1,486276
5,144167	0,1	1,507403
5,145833	0,1	1,490444
5,147500	0,1	1,473134
5,149167	0,1	1,486203
5,150833	0,1	1,487934
5,152500	0,1	1,482404
5,154167	0,1	1,498427
5,155833	0,1	1,446410
5,157500	0,1	1,488790
5,159167	0,1	1,460061
5,160833	0,1	1,484903
5,162500	0,1	1,457403
5,164167	0,1	1,471480
5,165833	0,1	1,432114
5,167500	0,1	1,456462
5,169167	0,1	1,459406
5,170833	0,1	1,452377
5,172500	0,1	1,441667
5,174167	0,1	1,439795
5,175833	0,1	1,435053
5,177500	0,1	1,437560
5,179167	0,1	1,433540
5,180833	0,1	1,362708
5,182500	0,1	1,444944
5,184167	0,1	1,367540
5,185833	0,1	1,419524
5,187500	0,1	1,394249
5,189167	0,1	1,372831
5,190833	0,1	1,358754
5,192500	0,1	1,385962
5,194167	0,1	1,330526
5,195833	0,1	1,350185
5,197500	0,1	1,359815
5,199167	0,1	1,352201
5,200833	0,1	1,353935
5,202500	0,1	1,353158
5,204167	0,1	1,373617
5,205833	0,1	1,285349
5,207500	0,1	1,319670
5,209167	0,1	1,295607
5,210833	0,1	1,312196
5,212500	0,1	1,287560
5,214167	0,1	1,270742
5,215833	0,1	1,299324
5,217500	0,1	1,299289
5,219167	0,1	1,298911
5,220833	0,1	1,255969
5,222500	0,1	1,270177
5,224167	0,1	1,254322
5,225833	0,1	1,249207
5,227500	0,1	1,201862
5,229167	0,1	1,234351
5,230833	0,1	1,219327
5,232500	0,1	1,246265
5,234167	0,1	1,226598
5,235833	0,1	1,228810
5,237500	0,1	1,202812
5,239167	0,1	1,225872
5,240833	0,1	1,171150
5,242500	0,1	1,202303
5,244167	0,1	1,158373
5,245833	0,1	1,173072
5,247500	0,1	1,210484
5,249167	0,1	1,169728
5,250833	0,1	1,138706
5,252500	0,1	1,162452
5,254167	0,1	1,123486
5,255833	0,1	1,118954
5,257500	0,1	1,081955
5,259167	0,1	1,136608
5,260833	0,1	1,129432
5,262500	0,1	1,097738
5,264167	0,1	1,074718
5,265833	0,1	1,125185
5,267500	0,1	1,059496
5,269167	0,1	1,068703
5,270833	0,1	1,052913
5,272500	0,1	1,056180
5,274167	0,1	1,064964
5,275833	0,1	1,064332
5,277500	0,1	1,028573
5,279167	0,1	1,041910
5,280833	0,1	1,051327
5,282500	0,1	1,025493
5,284167	0,1	1,035394
5,285833	0,1	1,041705
5,287500	0,1	1,025709
5,289167	0,1	1,012210
5,290833	0,1	1,021964
5,292500	0,1	1,007675
5,294167	0,1	0,975294
5,295833	0,1	0,960449
5,297500	0,1	0,956417
5,299167	0,1	0,970898
5,300833	0,1	0,982762
5,302500	0,1	0,991699
5,304167	0,1	0,929251
5,305833	0,1	0,957178
5,307500	0,1	0,968263
5,309167	0,1	0,936826
5,310833	0,1	0,963204
5,312500	0,1	0,949945
5,314167	0,1	0,943075
5,315833	0,1	0,954202
5,317500	0,1	0,933235
5,319167	0,1	0,912498
5,320833	0,1	0,911847
5,322500	0,1	0,881498
5,324167	0,1	0,882137
5,325833	0,1	0,913472
5,327500	0,1	0,877556
5,329167	0,1	0,848715
5,330833	0,1	0,907907
5,332500	0,1	0,870895
5,334167	0,1	0,877259
5,335833	0,1	0,881150
5,337500	0,1	0,831181
5,339167	0,1	0,893339
5,340833	0,1	0,846560
5,342500	0,1	0,844476
5,344167	0,1	0,830850
5,345833	0,1	0,841312
5,347500	0,1	0,812313
5,349167	0,1	0,872385
5,350833	0,1	0,821494
5,352500	0,1	0,850435
5,354167	0,1	0,803246
5,355833	0,1	0,815906
5,357500	0,1	0,800771
5,359167	0,1	0,799882
5,360833	0,1	0,782201
5,362500	0,1	0,847724
5,364167	0,1	0,801153
5,365833	0,1	0,789302
5,367500	0,1	0,783287
5,369167	0,1	0,795838
5,370833	0,1	0,755000
5,372500	0,1	0,778469
5,374167	0,1	0,786289
5,375833	0,1	0,761385
5,377500	0,1	0,767295
5,379167	0,1	0,754368
5,380833	0,1	0,731174
5,382500	0,1	0,720997
5,384167	0,1	0,730184
5,385833	0,1	0,761237
5,387500	0,1	0,776159
5,389167	0,1	0,766180
5,390833	0,1	0,737497
5,392500	0,1	0,763436
5,394167	0,1	0,705022
5,395833	0,1	0,705855
5,397500	0,1	0,738284
5,399167	0,1	0,723446
5,400833	0,1	0,705504
5,402500	0,1	0,712887
5,404167	0,1	0,713798
5,405833	0,1	0,687766
5,407500	0,1	0,674005
5,409167	0,1	0,666343
5,410833	0,1	0,718754
5,412500	0,1	0,692924
5,414167	0,1	0,734273
5,415833	0,1	0,671032
5,417500	0,1	0,713121
5,419167	0,1	0,694194
5,420833	0,1	0,695372
5,422500	0,1	0,661764
5,424167	0,1	0,650789
5,425833	0,1	0,674124
5,427500	0,1	0,692692
5,429167	0,1	0,638511
5,430833	0,1	0,633245
5,432500	0,1	0,685609
5,434167	0,1	0,655576
5,435833	0,1	0,621656
5,437500	0,1	0,629436
5,439167	0,1	0,638673
5,440833	0,1	0,650579
5,442500	0,1	0,627085
5,444167	0,1	0,649776
5,445833	0,1	0,651695
5,447500	0,1	0,663846
5,449167	0,1	0,617630
5,450833	0,1	0,615549
5,452500	0,1	0,657337
5,454167	0,1	0,582428
5,455833	0,1	0,641621
5,457500	0,1	0,615200
5,459167	0,1	0,603400
5,460833	0,1	0,626161
5,462500	0,1	0,595169
5,464167	0,1	0,583213
5,465833	0,1	0,578069
5,467500	0,1	0,611691
5,469167	0,1	0,585777
5,470833	0,1	0,612827
5,472500	0,1	0,627899
5,474167	0,1	0,612415
5,475833	0,1	0,607782
5,477500	0,1	0,581325
5,479167	0,1	0,589174
5,480833	0,1	0,617767
5,482500	0,1	0,618154
5,484167	0,1	0,571983
5,485833	0,1	0,557489
5,487500	0,1	0,586097
5,489167	0,1	0,535935
5,490833	0,1	0,537322
5,492500	0,1	0,570984
5,494167	0,1	0,580005
5,495833	0,1	0,602679
5,497500	0,1	0,555760
5,499167	0,1	0,555882
5,500833	0,1	0,605076
5,502500	0,1	0,555761
5,504167	0,1	0,562381
5,505833	0,1	0,552680
5,507500	0,1	0,523157
5,509167	0,1	0,552961
5,510833	0,1	0,544647
5,512500	0,1	0,537703
5,514167	0,1	0,551787
5,515833	0,1	0,568074
5,517500	0,1	0,591352
5,519167	0,1	0,579586
5,520833	0,1	0,531370
5,522500	0,1	0,554229
5,524167	0,1	0,543670
5,525833	0,1	0,554635
5,527500	0,1	0,545406
5,529167	0,1	0,486110
5,530833	0,1	0,564009
5,532500	0,1	0,527651
5,534167	0,1	0,542728
5,535833	0,1	0,534834
5,537500	0,1	0,564799
5,539167	0,1	0,537154
5,540833	0,1	0,522284
5,542500	0,1	0,520478
5,544167	0,1	0,549510
5,545833	0,1	0,544400
5,547500	0,1	0,528762
5,549167	0,1	0,555856
5,550833	0,1	0,558086
5,552500	0,1	0,494592
5,554167	0,1	0,521672
5,555833	0,1	0,518254
5,557500	0,1	0,512646
5,559167	0,1	0,503347
5,560833	0,1	0,525682
5,562500	0,1	0,555476
5,564167	0,1	0,525960
5,565833	0,1	0,520456
5,567500	0,1	0,498767
5,569167	0,1	0,515823
5,570833	0,1	0,455585
5,572500	0,1	0,471168
5,574167	0,1	0,460513
5,575833	0,1	0,514103
5,577500	0,1	0,501055
5,579167	0,1	0,480766
5,580833	0,1	0,508921
5,582500	0,1	0,508729
5,584167	0,1	0,473539
5,585833	0,1	0,489145
5,587500	0,1	0,503987
5,589167	0,1	0,478037
5,590833	0,1	0,518266
5,592500	0,1	0,477452
5,594167	0,1	0,496464
5,595833	0,1	0,458872
5,597500	0,1	0,505915
5,599167	0,1	0,499052
5,600833	0,1	0,480011
5,602500	0,1	0,473913
5,604167	0,1	0,480005
5,605833	0,1	0,516091
5,607500	0,1	0,480743
5,609167	0,1	0,509592
5,610833	0,1	0,492247
5,612500	0,1	0,472626
5,614167	0,1	0,449597
5,615833	0,1	0,501198
5,617500	0,1	0,446220
5,619167	0,1	0,499236
5,620833	0,1	0,462412
5,622500	0,1	0,507321
5,624167	0,1	0,471363
5,625833	0,1	0,494908
5,627500	0,1	0,475603
5,629167	0,1	0,457801
5,630833	0,1	0,470209
5,632500	0,1	0,472081
5,634167	0,1	0,452928
5,635833	0,1	0,442314
5,637500	0,1	0,465915
5,639167	0,1	0,524427
5,640833	0,1	0,425783
5,642500	0,1	0,449559
5,644167	0,1	0,434612
5,645833	0,1	0,459420
5,647500	0,1	0,447831
5,649167	0,1	0,466270
5,650833	0,1	0,449056
5,652500	0,1	0,494150
5,654167	0,1	0,465901
5,655833	0,1	0,470079
5,657500	0,1	0,475373
5,659167	0,1	0,479535
5,660833	0,1	0,451219
5,662500	0,1	0,454594
5,664167	0,1	0,441538
5,665833	0,1	0,463688
5,667500	0,1	0,461090
5,669167	0,1	0,423899
5,670833	0,1	0,458500
5,672500	0,1	0,443249
5,674167	0,1	0,471919
5,675833	0,1	0,475466
5,677500	0,1	0,467170
5,679167	0,1	0,441988
5,680833	0,1	0,451184
5,682500	0,1	0,451908
5,684167	0,1	0,471035
5,685833	0,1	0,488615
5,687500	0,1	0,455314
5,689167	0,1	0,490521
5,690833	0,1	0,454669
5,692500	0,1	0,478396
5,694167	0,1	0,449440
5,695833	0,1	0,444762
5,697500	0,1	0,479197
5,699167	0,1	0,485498
5,700833	0,1	0,459342
5,702500	0,1	0,469921
5,704167	0,1	0,469279
5,705833	0,1	0,473884
5,707500	0,1	0,450705
5,709167	0,1	0,458414
5,710833	0,1	0,487742
5,712500	0,1	0,461344
5,714167	0,1	0,469615
5,715833	0,1	0,485340
5,717500	0,1	0,468952
5,719167	0,1	0,455981
5,720833	0,1	0,477529
5,722500	0,1	0,463052
5,724167	0,1	0,481021
5,725833	0,1	0,482431
5,727500	0,1	0,474466
5,729167	0,1	0,495620
5,730833	0,1	0,469136
5,732500	0,1	0,472015
5,734167	0,1	0,471678
5,735833	0,1	0,516329
5,737500	0,1	0,466577
5,739167	0,1	0,475663
5,740833	0,1	0,472397
5,742500	0,1	0,457470
5,744167	0,1	0,442828
5,745833	0,1	0,452104
5,747500	0,1	0,462980
5,749167	0,1	0,469922
5,750833	0,1	0,469263
5,752500	0,1	0,433444
5,754167	0,1	0,451589
5,755833	0,1	0,459532
5,757500	0,1	0,464877
5,759167	0,1	0,479689
5,760833	0,1	0,478022
5,762500	0,1	0,522940
5,764167	0,1	0,470341
5,765833	0,1	0,509324
5,767500	0,1	0,449093
5,769167	0,1	0,469588
5,770833	0,1	0,490417
5,772500	0,1	0,477141
5,774167	0,1	0,468130
5,775833	0,1	0,476911
5,777500	0,1	0,432618
5,779167	0,1	0,459528
5,780833	0,1	0,483624
5,782500	0,1	0,458366
5,784167	0,1	0,454215
5,785833	0,1	0,443671
5,787500	0,1	0,418668
5,789167	0,1	0,482589
5,790833	0,1	0,450128
5,792500	0,1	0,470630
5,794167	0,1	0,452069
5,795833	0,1	0,497616
5,797500	0,1	0,459924
5,799167	0,1	0,468880
5,800833	0,1	0,450976
5,802500	0,1	0,465544
5,804167	0,1	0,442606
5,805833	0,1	0,441784
5,807500	0,1	0,452617
5,809167	0,1	0,429413
5,810833	0,1	0,455218
5,812500	0,1	0,456689
5,814167	0,1	0,459401
5,815833	0,1	0,452330
5,817500	0,1	0,462427
5,819167	0,1	0,460362
5,820833	0,1	0,442433
5,822500	0,1	0,465071
5,824167	0,1	0,464564
5,825833	0,1	0,443565
5,827500	0,1	0,472548
5,829167	0,1	0,449928
5,830833	0,1	0,432977
5,832500	0,1	0,456789
5,834167	0,1	0,443986
5,835833	0,1	0,433372
5,837500	0,1	0,479261
5,839167	0,1	0,474068
5,840833	0,1	0,410884
5,842500	0,1	0,403024
5,844167	0,1	0,457321
5,845833	0,1	0,455150
5,847500	0,1	0,440734
5,849167	0,1	0,424236
5,850833	0,1	0,499346
5,852500	0,1	0,425843
5,854167	0,1	0,435593
5,855833	0,1	0,464977
5,857500	0,1	0,430956
5,859167	0,1	0,437041
5,860833	0,1	0,453591
5,862500	0,1	0,397333
5,864167	0,1	0,429622
5,865833	0,1	0,447214
5,867500	0,1	0,437177
5,869167	0,1	0,436241
5,870833	0,1	0,388709
5,872500	0,1	0,399819
5,874167	0,1	0,430427
5,875833	0,1	0,406701
5,877500	0,1	0,480792
5,879167	0,1	0,423351
5,880833	0,1	0,434393
5,882500	0,1	0,417022
5,884167	0,1	0,472697
5,885833	0,1	0,431024
5,887500	0,1	0,430840
5,889167	0,1	0,419178
5,890833	0,1	0,422914
5,892500	0,1	0,453506
5,894167	0,1	0,426306
5,895833	0,1	0,410726
5,897500	0,1	0,406669
5,899167	0,1	0,425518
5,900833	0,1	0,391443
5,902500	0,1	0,401927
5,904167	0,1	0,384725
5,905833	0,1	0,389407
5,907500	0,1	0,413877
5,909167	0,1	0,426230
5,910833	0,1	0,413847
5,912500	0,1	0,405144
5,914167	0,1	0,405141
5,915833	0,1	0,416817
5,917500	0,1	0,400945
5,919167	0,1	0,388212
5,920833	0,1	0,443177
5,922500	0,1	0,389328
5,924167	0,1	0,397661
5,925833	0,1	0,368324
5,927500	0,1	0,388745
5,929167	0,1	0,419418
5,930833	0,1	0,404209
5,932500	0,1	0,385345
5,934167	0,1	0,407031
5,935833	0,1	0,377738
5,937500	0,1	0,397684
5,939167	0,1	0,388055
5,940833	0,1	0,385695
5,942500	0,1	0,390948
5,944167	0,1	0,375824
5,945833	0,1	0,384073
5,947500	0,1	0,340458
5,949167	0,1	0,361915
5,950833	0,1	0,373369
5,952500	0,1	0,435068
5,954167	0,1	0,380759
5,955833	0,1	0,370728
5,957500	0,1	0,336323
5,959167	0,1	0,386224
5,960833	0,1	0,370310
5,962500	0,1	0,367475
5,964167	0,1	0,401222
5,965833	0,1	0,357415
5,967500	0,1	0,380910
5,969167	0,1	0,369795
5,970833	0,1	0,346772
5,972500	0,1	0,348767
5,974167	0,1	0,387648
5,975833	0,1	0,371494
5,977500	0,1	0,367818
5,979167	0,1	0,364461
5,980833	0,1	0,334675
5,982500	0,1	0,373390
5,984167	0,1	0,423284
5,985833	0,1	0,373832
5,987500	0,1	0,390128
5,989167	0,1	0,343196
5,990833	0,1	0,340699
5,992500	0,1	0,370903
5,994167	0,1	0,353630
5,995833	0,1	0,366076
5,997500	0,1	0,363659
5,999167	0,1	0,350076
6,000833	0,1	0,390426
