File Path	chrom://chromeleon01/ikbm_chromeleon/2022/Rezex/Esteban/220612_chitin_4_7.seq/157.smp/UV_VIS_1.channel/UV_VIS_1.chm
Channel	UV_VIS_1

Injection Information:
Data Vault	ikbm_chromeleon
Injection	CelS2_00.5h-EGS_2
Injection Number	107
Position	BB2
Comment	
Processing Method	New ProcMethod
Instrument Method	Short_Rezex_6min_194nm
Type	Unknown
Status	Finished
Injection Date	13.06.2022
Injection Time	04:40:37
Injection Volume (µl)	8,000
Dilution Factor	1,0000
Weight	1,0000

Chromatogram Data Information:
Time Min. (min)	0,000833
Time Max. (min)	6,000833
Data Points	3601
Detector	UV
Generating Data System	Chromeleon 7.2.9.11323
Exporting Data System	Chromeleon 7.2.9.0
Operator	Instrument Controller
Signal Quantity	Absorbance
Signal Unit	mAU
Signal Min.	-0,175720
Signal Max.	122,297480
Channel	UV_VIS_1
Driver Name	VWD3000.dll
Channel Type	Evaluation
Min. Step (s)	0,1
Max. Step (s)	0,1
Average Step (s)	0,1

Signal Parameter Information:
Signal Info	WVL:194 nm

Chromatogram Data:
Time (min)	Step (s)	Value (mAU)
0,000833	n.a.	-0,084779
0,002500	0,1	-0,094048
0,004167	0,1	-0,048590
0,005833	0,1	-0,083179
0,007500	0,1	-0,094338
0,009167	0,1	-0,049108
0,010833	0,1	-0,097209
0,012500	0,1	-0,050020
0,014167	0,1	-0,066334
0,015833	0,1	-0,057564
0,017500	0,1	-0,096589
0,019167	0,1	-0,071188
0,020833	0,1	-0,077264
0,022500	0,1	-0,071431
0,024167	0,1	-0,084073
0,025833	0,1	-0,081613
0,027500	0,1	-0,109880
0,029167	0,1	-0,116133
0,030833	0,1	-0,119879
0,032500	0,1	-0,114995
0,034167	0,1	-0,121556
0,035833	0,1	-0,175720
0,037500	0,1	-0,123372
0,039167	0,1	-0,117998
0,040833	0,1	-0,105601
0,042500	0,1	-0,128091
0,044167	0,1	-0,130432
0,045833	0,1	-0,115681
0,047500	0,1	-0,167304
0,049167	0,1	-0,115049
0,050833	0,1	-0,068769
0,052500	0,1	-0,103438
0,054167	0,1	-0,086996
0,055833	0,1	-0,102843
0,057500	0,1	-0,055091
0,059167	0,1	-0,100849
0,060833	0,1	-0,057510
0,062500	0,1	-0,073059
0,064167	0,1	-0,096013
0,065833	0,1	-0,119443
0,067500	0,1	-0,065297
0,069167	0,1	-0,100896
0,070833	0,1	-0,095976
0,072500	0,1	-0,100694
0,074167	0,1	-0,084368
0,075833	0,1	-0,057215
0,077500	0,1	-0,075793
0,079167	0,1	-0,055706
0,080833	0,1	-0,110638
0,082500	0,1	-0,080172
0,084167	0,1	-0,087965
0,085833	0,1	-0,074411
0,087500	0,1	-0,072466
0,089167	0,1	-0,063318
0,090833	0,1	-0,071283
0,092500	0,1	-0,066445
0,094167	0,1	-0,059427
0,095833	0,1	-0,017314
0,097500	0,1	-0,083542
0,099167	0,1	-0,052995
0,100833	0,1	-0,036826
0,102500	0,1	-0,039556
0,104167	0,1	-0,076865
0,105833	0,1	-0,073002
0,107500	0,1	-0,084011
0,109167	0,1	-0,100918
0,110833	0,1	-0,089729
0,112500	0,1	-0,110128
0,114167	0,1	-0,089213
0,115833	0,1	-0,075862
0,117500	0,1	-0,076789
0,119167	0,1	-0,080805
0,120833	0,1	-0,073503
0,122500	0,1	-0,093238
0,124167	0,1	-0,094814
0,125833	0,1	-0,090078
0,127500	0,1	-0,129765
0,129167	0,1	-0,153152
0,130833	0,1	-0,098948
0,132500	0,1	-0,123143
0,134167	0,1	-0,092983
0,135833	0,1	-0,123456
0,137500	0,1	-0,065896
0,139167	0,1	-0,072278
0,140833	0,1	-0,104351
0,142500	0,1	-0,049319
0,144167	0,1	-0,093960
0,145833	0,1	-0,118571
0,147500	0,1	-0,081892
0,149167	0,1	-0,051774
0,150833	0,1	-0,070722
0,152500	0,1	-0,076770
0,154167	0,1	-0,084345
0,155833	0,1	-0,054569
0,157500	0,1	-0,087214
0,159167	0,1	-0,084200
0,160833	0,1	-0,064895
0,162500	0,1	-0,081320
0,164167	0,1	-0,066342
0,165833	0,1	-0,051628
0,167500	0,1	-0,071943
0,169167	0,1	-0,071430
0,170833	0,1	-0,070294
0,172500	0,1	-0,059203
0,174167	0,1	-0,052348
0,175833	0,1	-0,038481
0,177500	0,1	-0,081849
0,179167	0,1	-0,063652
0,180833	0,1	-0,062200
0,182500	0,1	-0,065696
0,184167	0,1	-0,092558
0,185833	0,1	-0,058438
0,187500	0,1	-0,055205
0,189167	0,1	-0,060521
0,190833	0,1	-0,074343
0,192500	0,1	-0,072878
0,194167	0,1	-0,069361
0,195833	0,1	-0,032526
0,197500	0,1	-0,078291
0,199167	0,1	-0,059409
0,200833	0,1	-0,067702
0,202500	0,1	-0,057667
0,204167	0,1	-0,061390
0,205833	0,1	-0,048791
0,207500	0,1	-0,066210
0,209167	0,1	-0,069004
0,210833	0,1	-0,038941
0,212500	0,1	-0,051351
0,214167	0,1	-0,058286
0,215833	0,1	-0,077179
0,217500	0,1	-0,086208
0,219167	0,1	-0,041285
0,220833	0,1	-0,068774
0,222500	0,1	-0,033499
0,224167	0,1	-0,030305
0,225833	0,1	-0,028999
0,227500	0,1	-0,084333
0,229167	0,1	-0,054486
0,230833	0,1	-0,057664
0,232500	0,1	-0,045809
0,234167	0,1	-0,050111
0,235833	0,1	-0,055823
0,237500	0,1	-0,054748
0,239167	0,1	-0,056589
0,240833	0,1	-0,044755
0,242500	0,1	-0,061657
0,244167	0,1	-0,032710
0,245833	0,1	-0,028897
0,247500	0,1	-0,064613
0,249167	0,1	-0,045916
0,250833	0,1	-0,071547
0,252500	0,1	-0,046392
0,254167	0,1	-0,075025
0,255833	0,1	-0,091171
0,257500	0,1	-0,080270
0,259167	0,1	-0,068783
0,260833	0,1	-0,063255
0,262500	0,1	-0,051792
0,264167	0,1	-0,053093
0,265833	0,1	-0,049595
0,267500	0,1	-0,012863
0,269167	0,1	-0,057242
0,270833	0,1	-0,060563
0,272500	0,1	-0,063668
0,274167	0,1	-0,043659
0,275833	0,1	-0,079020
0,277500	0,1	-0,035717
0,279167	0,1	-0,056606
0,280833	0,1	-0,051046
0,282500	0,1	-0,051748
0,284167	0,1	-0,034220
0,285833	0,1	-0,038623
0,287500	0,1	-0,083671
0,289167	0,1	-0,056017
0,290833	0,1	-0,068136
0,292500	0,1	-0,039418
0,294167	0,1	-0,090503
0,295833	0,1	-0,048360
0,297500	0,1	-0,051747
0,299167	0,1	-0,045705
0,300833	0,1	-0,067266
0,302500	0,1	-0,036189
0,304167	0,1	-0,033968
0,305833	0,1	-0,019812
0,307500	0,1	-0,066968
0,309167	0,1	-0,090010
0,310833	0,1	-0,038865
0,312500	0,1	-0,051972
0,314167	0,1	-0,042042
0,315833	0,1	-0,051622
0,317500	0,1	-0,093381
0,319167	0,1	-0,069699
0,320833	0,1	-0,046144
0,322500	0,1	-0,023065
0,324167	0,1	-0,017472
0,325833	0,1	-0,035309
0,327500	0,1	-0,048369
0,329167	0,1	-0,038793
0,330833	0,1	-0,049946
0,332500	0,1	-0,035459
0,334167	0,1	-0,076761
0,335833	0,1	-0,020919
0,337500	0,1	-0,038951
0,339167	0,1	-0,024365
0,340833	0,1	-0,031917
0,342500	0,1	-0,020329
0,344167	0,1	-0,061424
0,345833	0,1	0,001663
0,347500	0,1	-0,050161
0,349167	0,1	-0,013960
0,350833	0,1	-0,055173
0,352500	0,1	-0,074718
0,354167	0,1	-0,053302
0,355833	0,1	-0,038813
0,357500	0,1	-0,058201
0,359167	0,1	-0,064558
0,360833	0,1	-0,055538
0,362500	0,1	-0,034884
0,364167	0,1	-0,014660
0,365833	0,1	-0,044577
0,367500	0,1	-0,047151
0,369167	0,1	-0,023251
0,370833	0,1	-0,043650
0,372500	0,1	-0,046924
0,374167	0,1	-0,059467
0,375833	0,1	-0,003056
0,377500	0,1	-0,015831
0,379167	0,1	-0,054408
0,380833	0,1	0,008244
0,382500	0,1	-0,068515
0,384167	0,1	-0,038569
0,385833	0,1	-0,045268
0,387500	0,1	-0,032728
0,389167	0,1	-0,049509
0,390833	0,1	-0,024244
0,392500	0,1	-0,040235
0,394167	0,1	-0,022753
0,395833	0,1	-0,037442
0,397500	0,1	-0,050688
0,399167	0,1	-0,053031
0,400833	0,1	-0,045187
0,402500	0,1	-0,029024
0,404167	0,1	-0,007147
0,405833	0,1	-0,011734
0,407500	0,1	-0,016288
0,409167	0,1	-0,010454
0,410833	0,1	-0,041019
0,412500	0,1	-0,035231
0,414167	0,1	-0,036928
0,415833	0,1	-0,052427
0,417500	0,1	-0,024452
0,419167	0,1	-0,002344
0,420833	0,1	-0,038680
0,422500	0,1	-0,002698
0,424167	0,1	-0,056288
0,425833	0,1	0,031920
0,427500	0,1	-0,018639
0,429167	0,1	-0,004556
0,430833	0,1	-0,038575
0,432500	0,1	-0,045163
0,434167	0,1	-0,037364
0,435833	0,1	-0,027761
0,437500	0,1	0,000326
0,439167	0,1	-0,010512
0,440833	0,1	-0,057344
0,442500	0,1	-0,034324
0,444167	0,1	0,004648
0,445833	0,1	-0,057031
0,447500	0,1	0,003360
0,449167	0,1	-0,005277
0,450833	0,1	-0,008464
0,452500	0,1	-0,014861
0,454167	0,1	-0,004246
0,455833	0,1	-0,049853
0,457500	0,1	0,016131
0,459167	0,1	0,012566
0,460833	0,1	-0,072301
0,462500	0,1	-0,040246
0,464167	0,1	-0,005141
0,465833	0,1	-0,008526
0,467500	0,1	-0,034541
0,469167	0,1	0,004484
0,470833	0,1	-0,016120
0,472500	0,1	-0,014303
0,474167	0,1	-0,025769
0,475833	0,1	0,037120
0,477500	0,1	-0,005972
0,479167	0,1	-0,012748
0,480833	0,1	0,010117
0,482500	0,1	-0,043022
0,484167	0,1	0,025177
0,485833	0,1	-0,046430
0,487500	0,1	-0,011413
0,489167	0,1	0,009662
0,490833	0,1	-0,018022
0,492500	0,1	-0,034751
0,494167	0,1	0,013444
0,495833	0,1	-0,036336
0,497500	0,1	0,021433
0,499167	0,1	-0,032898
0,500833	0,1	-0,027490
0,502500	0,1	-0,018963
0,504167	0,1	-0,030964
0,505833	0,1	-0,004807
0,507500	0,1	-0,005940
0,509167	0,1	-0,003332
0,510833	0,1	-0,015874
0,512500	0,1	0,033792
0,514167	0,1	0,012570
0,515833	0,1	0,012338
0,517500	0,1	0,016021
0,519167	0,1	-0,034659
0,520833	0,1	-0,008471
0,522500	0,1	-0,001656
0,524167	0,1	0,006375
0,525833	0,1	-0,010677
0,527500	0,1	0,008153
0,529167	0,1	-0,004405
0,530833	0,1	-0,005194
0,532500	0,1	0,005297
0,534167	0,1	0,009542
0,535833	0,1	0,008426
0,537500	0,1	0,031255
0,539167	0,1	-0,012844
0,540833	0,1	-0,014033
0,542500	0,1	-0,003831
0,544167	0,1	0,000394
0,545833	0,1	0,011321
0,547500	0,1	-0,014544
0,549167	0,1	-0,005860
0,550833	0,1	0,003621
0,552500	0,1	-0,000184
0,554167	0,1	-0,008940
0,555833	0,1	-0,000292
0,557500	0,1	0,009085
0,559167	0,1	0,038414
0,560833	0,1	0,032171
0,562500	0,1	-0,010318
0,564167	0,1	0,072870
0,565833	0,1	0,051324
0,567500	0,1	0,035839
0,569167	0,1	0,020767
0,570833	0,1	0,014203
0,572500	0,1	-0,016738
0,574167	0,1	0,013346
0,575833	0,1	0,049198
0,577500	0,1	-0,021511
0,579167	0,1	0,018085
0,580833	0,1	0,037860
0,582500	0,1	0,030971
0,584167	0,1	0,055517
0,585833	0,1	0,009576
0,587500	0,1	-0,037952
0,589167	0,1	0,037555
0,590833	0,1	0,026459
0,592500	0,1	0,038896
0,594167	0,1	0,035111
0,595833	0,1	-0,004108
0,597500	0,1	0,030280
0,599167	0,1	0,028383
0,600833	0,1	0,025672
0,602500	0,1	-0,003138
0,604167	0,1	-0,014776
0,605833	0,1	0,036029
0,607500	0,1	0,015055
0,609167	0,1	0,033656
0,610833	0,1	0,051644
0,612500	0,1	0,052046
0,614167	0,1	-0,000690
0,615833	0,1	0,046422
0,617500	0,1	0,086195
0,619167	0,1	0,029431
0,620833	0,1	0,052433
0,622500	0,1	0,014315
0,624167	0,1	0,006172
0,625833	0,1	0,036800
0,627500	0,1	0,038506
0,629167	0,1	0,022734
0,630833	0,1	0,018364
0,632500	0,1	0,016023
0,634167	0,1	0,044026
0,635833	0,1	0,062765
0,637500	0,1	0,047950
0,639167	0,1	0,031801
0,640833	0,1	0,028527
0,642500	0,1	0,058041
0,644167	0,1	0,074773
0,645833	0,1	0,058031
0,647500	0,1	0,073778
0,649167	0,1	0,010265
0,650833	0,1	0,029330
0,652500	0,1	0,037694
0,654167	0,1	0,059555
0,655833	0,1	0,066203
0,657500	0,1	0,057721
0,659167	0,1	0,042423
0,660833	0,1	0,074190
0,662500	0,1	0,079518
0,664167	0,1	0,056170
0,665833	0,1	0,056185
0,667500	0,1	0,072972
0,669167	0,1	0,075605
0,670833	0,1	0,067695
0,672500	0,1	0,071817
0,674167	0,1	0,089948
0,675833	0,1	0,040589
0,677500	0,1	0,085057
0,679167	0,1	0,066396
0,680833	0,1	0,099284
0,682500	0,1	0,071762
0,684167	0,1	0,073185
0,685833	0,1	0,062006
0,687500	0,1	0,117539
0,689167	0,1	0,080624
0,690833	0,1	0,065528
0,692500	0,1	0,122736
0,694167	0,1	0,052455
0,695833	0,1	0,083238
0,697500	0,1	0,093075
0,699167	0,1	0,104236
0,700833	0,1	0,115586
0,702500	0,1	0,115298
0,704167	0,1	0,120018
0,705833	0,1	0,129620
0,707500	0,1	0,099963
0,709167	0,1	0,070250
0,710833	0,1	0,107712
0,712500	0,1	0,098464
0,714167	0,1	0,117485
0,715833	0,1	0,131656
0,717500	0,1	0,100254
0,719167	0,1	0,098446
0,720833	0,1	0,136925
0,722500	0,1	0,133224
0,724167	0,1	0,187963
0,725833	0,1	0,136596
0,727500	0,1	0,158378
0,729167	0,1	0,106427
0,730833	0,1	0,131731
0,732500	0,1	0,136103
0,734167	0,1	0,166344
0,735833	0,1	0,173361
0,737500	0,1	0,130739
0,739167	0,1	0,157596
0,740833	0,1	0,180747
0,742500	0,1	0,180815
0,744167	0,1	0,187246
0,745833	0,1	0,153947
0,747500	0,1	0,209023
0,749167	0,1	0,204771
0,750833	0,1	0,191216
0,752500	0,1	0,175267
0,754167	0,1	0,181128
0,755833	0,1	0,174610
0,757500	0,1	0,222043
0,759167	0,1	0,165359
0,760833	0,1	0,172630
0,762500	0,1	0,227126
0,764167	0,1	0,207757
0,765833	0,1	0,222767
0,767500	0,1	0,173891
0,769167	0,1	0,219451
0,770833	0,1	0,170165
0,772500	0,1	0,160814
0,774167	0,1	0,238224
0,775833	0,1	0,210189
0,777500	0,1	0,177802
0,779167	0,1	0,217183
0,780833	0,1	0,214716
0,782500	0,1	0,203288
0,784167	0,1	0,189038
0,785833	0,1	0,196926
0,787500	0,1	0,187111
0,789167	0,1	0,227609
0,790833	0,1	0,210615
0,792500	0,1	0,180558
0,794167	0,1	0,146118
0,795833	0,1	0,155260
0,797500	0,1	0,184117
0,799167	0,1	0,222888
0,800833	0,1	0,181365
0,802500	0,1	0,205595
0,804167	0,1	0,212370
0,805833	0,1	0,193117
0,807500	0,1	0,179283
0,809167	0,1	0,206966
0,810833	0,1	0,166513
0,812500	0,1	0,207064
0,814167	0,1	0,188511
0,815833	0,1	0,198536
0,817500	0,1	0,179473
0,819167	0,1	0,143614
0,820833	0,1	0,195605
0,822500	0,1	0,223634
0,824167	0,1	0,162464
0,825833	0,1	0,186650
0,827500	0,1	0,213334
0,829167	0,1	0,194464
0,830833	0,1	0,184316
0,832500	0,1	0,187297
0,834167	0,1	0,186341
0,835833	0,1	0,177544
0,837500	0,1	0,155910
0,839167	0,1	0,201990
0,840833	0,1	0,184116
0,842500	0,1	0,170798
0,844167	0,1	0,195764
0,845833	0,1	0,183611
0,847500	0,1	0,199981
0,849167	0,1	0,214322
0,850833	0,1	0,186084
0,852500	0,1	0,179242
0,854167	0,1	0,181457
0,855833	0,1	0,197854
0,857500	0,1	0,183777
0,859167	0,1	0,213561
0,860833	0,1	0,167947
0,862500	0,1	0,219776
0,864167	0,1	0,205025
0,865833	0,1	0,201006
0,867500	0,1	0,168461
0,869167	0,1	0,183115
0,870833	0,1	0,201895
0,872500	0,1	0,188585
0,874167	0,1	0,166697
0,875833	0,1	0,228661
0,877500	0,1	0,186891
0,879167	0,1	0,181647
0,880833	0,1	0,166368
0,882500	0,1	0,209821
0,884167	0,1	0,230533
0,885833	0,1	0,183934
0,887500	0,1	0,207420
0,889167	0,1	0,218501
0,890833	0,1	0,243889
0,892500	0,1	0,225091
0,894167	0,1	0,225503
0,895833	0,1	0,213974
0,897500	0,1	0,181452
0,899167	0,1	0,214227
0,900833	0,1	0,205943
0,902500	0,1	0,180140
0,904167	0,1	0,219867
0,905833	0,1	0,244142
0,907500	0,1	0,219693
0,909167	0,1	0,199789
0,910833	0,1	0,221509
0,912500	0,1	0,207215
0,914167	0,1	0,210409
0,915833	0,1	0,212372
0,917500	0,1	0,230120
0,919167	0,1	0,235421
0,920833	0,1	0,211637
0,922500	0,1	0,216250
0,924167	0,1	0,225112
0,925833	0,1	0,234578
0,927500	0,1	0,244472
0,929167	0,1	0,207686
0,930833	0,1	0,222315
0,932500	0,1	0,231052
0,934167	0,1	0,236316
0,935833	0,1	0,195804
0,937500	0,1	0,255565
0,939167	0,1	0,236675
0,940833	0,1	0,269853
0,942500	0,1	0,247879
0,944167	0,1	0,214622
0,945833	0,1	0,268509
0,947500	0,1	0,220820
0,949167	0,1	0,267840
0,950833	0,1	0,240050
0,952500	0,1	0,254582
0,954167	0,1	0,232407
0,955833	0,1	0,298170
0,957500	0,1	0,300944
0,959167	0,1	0,273303
0,960833	0,1	0,268296
0,962500	0,1	0,259336
0,964167	0,1	0,308285
0,965833	0,1	0,239961
0,967500	0,1	0,273288
0,969167	0,1	0,319881
0,970833	0,1	0,261245
0,972500	0,1	0,279523
0,974167	0,1	0,237411
0,975833	0,1	0,305331
0,977500	0,1	0,309009
0,979167	0,1	0,278512
0,980833	0,1	0,320170
0,982500	0,1	0,340598
0,984167	0,1	0,309364
0,985833	0,1	0,308912
0,987500	0,1	0,313145
0,989167	0,1	0,304763
0,990833	0,1	0,325313
0,992500	0,1	0,307117
0,994167	0,1	0,322457
0,995833	0,1	0,343422
0,997500	0,1	0,353572
0,999167	0,1	0,367960
1,000833	0,1	0,364397
1,002500	0,1	0,372488
1,004167	0,1	0,368283
1,005833	0,1	0,387992
1,007500	0,1	0,393041
1,009167	0,1	0,397116
1,010833	0,1	0,407970
1,012500	0,1	0,428072
1,014167	0,1	0,451133
1,015833	0,1	0,472140
1,017500	0,1	0,385385
1,019167	0,1	0,470231
1,020833	0,1	0,442281
1,022500	0,1	0,450815
1,024167	0,1	0,505089
1,025833	0,1	0,500510
1,027500	0,1	0,477290
1,029167	0,1	0,510105
1,030833	0,1	0,479155
1,032500	0,1	0,479726
1,034167	0,1	0,541323
1,035833	0,1	0,559036
1,037500	0,1	0,564438
1,039167	0,1	0,543628
1,040833	0,1	0,548826
1,042500	0,1	0,573106
1,044167	0,1	0,584486
1,045833	0,1	0,577227
1,047500	0,1	0,585158
1,049167	0,1	0,647219
1,050833	0,1	0,639821
1,052500	0,1	0,695778
1,054167	0,1	0,738295
1,055833	0,1	0,724374
1,057500	0,1	0,781151
1,059167	0,1	0,855085
1,060833	0,1	0,982490
1,062500	0,1	1,101695
1,064167	0,1	1,271934
1,065833	0,1	1,494745
1,067500	0,1	1,782361
1,069167	0,1	2,076713
1,070833	0,1	2,528194
1,072500	0,1	3,095807
1,074167	0,1	3,725502
1,075833	0,1	4,526458
1,077500	0,1	5,353129
1,079167	0,1	6,437162
1,080833	0,1	7,674402
1,082500	0,1	8,988503
1,084167	0,1	10,500074
1,085833	0,1	12,179909
1,087500	0,1	13,950361
1,089167	0,1	15,857258
1,090833	0,1	17,827803
1,092500	0,1	19,884115
1,094167	0,1	21,938809
1,095833	0,1	24,072196
1,097500	0,1	26,118880
1,099167	0,1	28,133403
1,100833	0,1	30,110698
1,102500	0,1	31,927394
1,104167	0,1	33,639996
1,105833	0,1	35,119485
1,107500	0,1	36,537666
1,109167	0,1	37,766847
1,110833	0,1	38,800087
1,112500	0,1	39,670522
1,114167	0,1	40,386662
1,115833	0,1	40,948380
1,117500	0,1	41,387371
1,119167	0,1	41,663434
1,120833	0,1	41,801345
1,122500	0,1	41,923567
1,124167	0,1	41,927291
1,125833	0,1	41,859916
1,127500	0,1	41,698978
1,129167	0,1	41,607216
1,130833	0,1	41,406102
1,132500	0,1	41,270406
1,134167	0,1	41,074123
1,135833	0,1	40,992159
1,137500	0,1	40,882415
1,139167	0,1	40,880553
1,140833	0,1	40,912598
1,142500	0,1	40,966137
1,144167	0,1	41,219032
1,145833	0,1	41,446523
1,147500	0,1	41,801773
1,149167	0,1	42,200770
1,150833	0,1	42,750330
1,152500	0,1	43,361055
1,154167	0,1	44,058814
1,155833	0,1	44,787459
1,157500	0,1	45,628550
1,159167	0,1	46,429336
1,160833	0,1	47,361151
1,162500	0,1	48,333083
1,164167	0,1	49,208093
1,165833	0,1	50,191085
1,167500	0,1	51,107349
1,169167	0,1	52,034106
1,170833	0,1	52,873767
1,172500	0,1	53,699578
1,174167	0,1	54,492156
1,175833	0,1	55,225828
1,177500	0,1	55,798383
1,179167	0,1	56,426890
1,180833	0,1	56,898051
1,182500	0,1	57,331285
1,184167	0,1	57,699064
1,185833	0,1	58,007460
1,187500	0,1	58,199963
1,189167	0,1	58,395463
1,190833	0,1	58,548101
1,192500	0,1	58,713659
1,194167	0,1	58,829948
1,195833	0,1	59,005874
1,197500	0,1	59,192333
1,199167	0,1	59,473522
1,200833	0,1	59,819028
1,202500	0,1	60,289045
1,204167	0,1	60,902393
1,205833	0,1	61,705967
1,207500	0,1	62,653205
1,209167	0,1	63,802239
1,210833	0,1	65,224890
1,212500	0,1	66,833291
1,214167	0,1	68,655004
1,215833	0,1	70,730993
1,217500	0,1	72,949890
1,219167	0,1	75,426432
1,220833	0,1	78,080946
1,222500	0,1	80,899896
1,224167	0,1	83,792554
1,225833	0,1	86,816979
1,227500	0,1	89,861060
1,229167	0,1	92,976339
1,230833	0,1	96,094637
1,232500	0,1	99,044234
1,234167	0,1	102,021823
1,235833	0,1	104,834074
1,237500	0,1	107,469046
1,239167	0,1	109,986472
1,240833	0,1	112,309725
1,242500	0,1	114,373419
1,244167	0,1	116,258539
1,245833	0,1	117,853422
1,247500	0,1	119,255449
1,249167	0,1	120,343670
1,250833	0,1	121,247897
1,252500	0,1	121,812483
1,254167	0,1	122,177458
1,255833	0,1	122,297480
1,257500	0,1	122,115236
1,259167	0,1	121,732728
1,260833	0,1	121,099066
1,262500	0,1	120,234940
1,264167	0,1	119,164155
1,265833	0,1	117,857214
1,267500	0,1	116,384238
1,269167	0,1	114,775435
1,270833	0,1	112,963942
1,272500	0,1	111,004920
1,274167	0,1	108,896849
1,275833	0,1	106,719659
1,277500	0,1	104,393015
1,279167	0,1	101,966434
1,280833	0,1	99,585966
1,282500	0,1	96,971760
1,284167	0,1	94,486793
1,285833	0,1	91,834176
1,287500	0,1	89,242085
1,289167	0,1	86,699545
1,290833	0,1	84,108132
1,292500	0,1	81,556814
1,294167	0,1	79,037167
1,295833	0,1	76,559088
1,297500	0,1	74,127417
1,299167	0,1	71,797302
1,300833	0,1	69,504942
1,302500	0,1	67,286209
1,304167	0,1	65,112982
1,305833	0,1	63,010691
1,307500	0,1	61,108818
1,309167	0,1	59,069579
1,310833	0,1	57,292206
1,312500	0,1	55,448324
1,314167	0,1	53,795741
1,315833	0,1	52,152879
1,317500	0,1	50,559528
1,319167	0,1	49,075803
1,320833	0,1	47,624387
1,322500	0,1	46,257573
1,324167	0,1	44,934971
1,325833	0,1	43,657354
1,327500	0,1	42,411557
1,329167	0,1	41,351620
1,330833	0,1	40,212215
1,332500	0,1	39,114448
1,334167	0,1	38,104415
1,335833	0,1	37,111480
1,337500	0,1	36,132403
1,339167	0,1	35,187279
1,340833	0,1	34,334301
1,342500	0,1	33,463102
1,344167	0,1	32,640774
1,345833	0,1	31,784853
1,347500	0,1	30,995015
1,349167	0,1	30,291477
1,350833	0,1	29,543990
1,352500	0,1	28,848201
1,354167	0,1	28,186162
1,355833	0,1	27,515776
1,357500	0,1	26,852860
1,359167	0,1	26,202107
1,360833	0,1	25,623855
1,362500	0,1	24,975767
1,364167	0,1	24,428906
1,365833	0,1	23,824913
1,367500	0,1	23,314740
1,369167	0,1	22,709998
1,370833	0,1	22,176106
1,372500	0,1	21,671866
1,374167	0,1	21,199728
1,375833	0,1	20,685282
1,377500	0,1	20,206456
1,379167	0,1	19,742764
1,380833	0,1	19,291810
1,382500	0,1	18,873609
1,384167	0,1	18,461448
1,385833	0,1	18,033426
1,387500	0,1	17,635455
1,389167	0,1	17,235996
1,390833	0,1	16,826153
1,392500	0,1	16,431285
1,394167	0,1	16,140603
1,395833	0,1	15,779407
1,397500	0,1	15,430708
1,399167	0,1	15,122162
1,400833	0,1	14,819550
1,402500	0,1	14,512876
1,404167	0,1	14,200896
1,405833	0,1	13,925797
1,407500	0,1	13,671609
1,409167	0,1	13,405189
1,410833	0,1	13,086844
1,412500	0,1	12,904192
1,414167	0,1	12,665446
1,415833	0,1	12,423589
1,417500	0,1	12,211656
1,419167	0,1	12,036586
1,420833	0,1	11,814284
1,422500	0,1	11,611818
1,424167	0,1	11,437917
1,425833	0,1	11,257275
1,427500	0,1	11,090365
1,429167	0,1	10,918682
1,430833	0,1	10,732452
1,432500	0,1	10,583972
1,434167	0,1	10,389060
1,435833	0,1	10,281152
1,437500	0,1	10,173325
1,439167	0,1	9,941946
1,440833	0,1	9,856080
1,442500	0,1	9,754200
1,444167	0,1	9,587059
1,445833	0,1	9,434015
1,447500	0,1	9,344090
1,449167	0,1	9,177052
1,450833	0,1	9,094766
1,452500	0,1	8,952011
1,454167	0,1	8,841656
1,455833	0,1	8,746247
1,457500	0,1	8,656776
1,459167	0,1	8,600447
1,460833	0,1	8,442404
1,462500	0,1	8,398440
1,464167	0,1	8,265040
1,465833	0,1	8,169649
1,467500	0,1	8,097721
1,469167	0,1	7,996304
1,470833	0,1	7,926099
1,472500	0,1	7,870423
1,474167	0,1	7,782516
1,475833	0,1	7,734817
1,477500	0,1	7,630217
1,479167	0,1	7,558118
1,480833	0,1	7,540283
1,482500	0,1	7,444129
1,484167	0,1	7,368135
1,485833	0,1	7,340908
1,487500	0,1	7,290560
1,489167	0,1	7,213939
1,490833	0,1	7,201440
1,492500	0,1	7,162763
1,494167	0,1	7,077599
1,495833	0,1	7,032683
1,497500	0,1	7,059872
1,499167	0,1	7,059598
1,500833	0,1	6,982941
1,502500	0,1	6,955539
1,504167	0,1	6,931879
1,505833	0,1	6,892576
1,507500	0,1	6,931957
1,509167	0,1	6,857193
1,510833	0,1	6,871422
1,512500	0,1	6,821989
1,514167	0,1	6,813590
1,515833	0,1	6,781197
1,517500	0,1	6,766849
1,519167	0,1	6,779328
1,520833	0,1	6,753730
1,522500	0,1	6,708481
1,524167	0,1	6,733420
1,525833	0,1	6,652165
1,527500	0,1	6,640884
1,529167	0,1	6,631211
1,530833	0,1	6,609890
1,532500	0,1	6,589047
1,534167	0,1	6,548088
1,535833	0,1	6,549020
1,537500	0,1	6,505645
1,539167	0,1	6,467408
1,540833	0,1	6,466475
1,542500	0,1	6,454020
1,544167	0,1	6,416622
1,545833	0,1	6,432339
1,547500	0,1	6,400521
1,549167	0,1	6,375031
1,550833	0,1	6,340702
1,552500	0,1	6,301456
1,554167	0,1	6,305713
1,555833	0,1	6,254023
1,557500	0,1	6,248533
1,559167	0,1	6,192351
1,560833	0,1	6,154718
1,562500	0,1	6,182703
1,564167	0,1	6,112129
1,565833	0,1	6,065167
1,567500	0,1	6,045577
1,569167	0,1	6,019168
1,570833	0,1	5,969047
1,572500	0,1	5,971843
1,574167	0,1	5,955774
1,575833	0,1	5,931764
1,577500	0,1	5,840522
1,579167	0,1	5,824718
1,580833	0,1	5,792835
1,582500	0,1	5,740377
1,584167	0,1	5,766036
1,585833	0,1	5,750509
1,587500	0,1	5,684074
1,589167	0,1	5,670184
1,590833	0,1	5,621329
1,592500	0,1	5,575913
1,594167	0,1	5,528208
1,595833	0,1	5,554987
1,597500	0,1	5,446898
1,599167	0,1	5,452872
1,600833	0,1	5,417121
1,602500	0,1	5,390956
1,604167	0,1	5,345396
1,605833	0,1	5,320422
1,607500	0,1	5,303470
1,609167	0,1	5,284350
1,610833	0,1	5,234122
1,612500	0,1	5,222046
1,614167	0,1	5,148941
1,615833	0,1	5,159166
1,617500	0,1	5,126539
1,619167	0,1	5,090264
1,620833	0,1	5,008896
1,622500	0,1	5,069944
1,624167	0,1	5,001867
1,625833	0,1	4,945529
1,627500	0,1	4,946224
1,629167	0,1	4,901643
1,630833	0,1	4,927992
1,632500	0,1	4,884327
1,634167	0,1	4,872776
1,635833	0,1	4,803126
1,637500	0,1	4,842211
1,639167	0,1	4,778617
1,640833	0,1	4,815744
1,642500	0,1	4,741504
1,644167	0,1	4,785611
1,645833	0,1	4,763851
1,647500	0,1	4,757641
1,649167	0,1	4,740442
1,650833	0,1	4,765734
1,652500	0,1	4,773224
1,654167	0,1	4,753252
1,655833	0,1	4,765623
1,657500	0,1	4,791803
1,659167	0,1	4,781366
1,660833	0,1	4,805396
1,662500	0,1	4,860660
1,664167	0,1	4,878274
1,665833	0,1	4,876668
1,667500	0,1	4,968583
1,669167	0,1	5,000741
1,670833	0,1	5,072117
1,672500	0,1	5,085990
1,674167	0,1	5,190204
1,675833	0,1	5,267807
1,677500	0,1	5,345539
1,679167	0,1	5,434266
1,680833	0,1	5,542772
1,682500	0,1	5,666386
1,684167	0,1	5,806133
1,685833	0,1	5,934241
1,687500	0,1	6,052113
1,689167	0,1	6,255455
1,690833	0,1	6,321787
1,692500	0,1	6,508873
1,694167	0,1	6,657699
1,695833	0,1	6,838693
1,697500	0,1	6,993040
1,699167	0,1	7,228404
1,700833	0,1	7,413281
1,702500	0,1	7,606367
1,704167	0,1	7,815097
1,705833	0,1	8,046425
1,707500	0,1	8,184633
1,709167	0,1	8,448236
1,710833	0,1	8,680618
1,712500	0,1	8,885200
1,714167	0,1	9,141903
1,715833	0,1	9,398638
1,717500	0,1	9,605797
1,719167	0,1	9,803395
1,720833	0,1	10,034955
1,722500	0,1	10,289939
1,724167	0,1	10,552423
1,725833	0,1	10,740688
1,727500	0,1	10,978358
1,729167	0,1	11,182387
1,730833	0,1	11,427136
1,732500	0,1	11,630160
1,734167	0,1	11,809873
1,735833	0,1	12,017867
1,737500	0,1	12,237755
1,739167	0,1	12,397541
1,740833	0,1	12,675751
1,742500	0,1	12,776407
1,744167	0,1	12,923493
1,745833	0,1	13,138174
1,747500	0,1	13,270712
1,749167	0,1	13,381762
1,750833	0,1	13,574761
1,752500	0,1	13,685879
1,754167	0,1	13,772134
1,755833	0,1	13,852106
1,757500	0,1	14,018522
1,759167	0,1	14,083287
1,760833	0,1	14,164732
1,762500	0,1	14,204775
1,764167	0,1	14,290699
1,765833	0,1	14,310008
1,767500	0,1	14,370183
1,769167	0,1	14,362084
1,770833	0,1	14,358496
1,772500	0,1	14,359458
1,774167	0,1	14,362065
1,775833	0,1	14,309034
1,777500	0,1	14,316978
1,779167	0,1	14,302297
1,780833	0,1	14,217151
1,782500	0,1	14,168615
1,784167	0,1	14,111997
1,785833	0,1	14,034845
1,787500	0,1	13,974782
1,789167	0,1	13,870100
1,790833	0,1	13,824455
1,792500	0,1	13,670981
1,794167	0,1	13,562938
1,795833	0,1	13,450699
1,797500	0,1	13,294305
1,799167	0,1	13,178154
1,800833	0,1	13,079089
1,802500	0,1	12,915935
1,804167	0,1	12,771777
1,805833	0,1	12,614164
1,807500	0,1	12,470523
1,809167	0,1	12,298577
1,810833	0,1	12,175022
1,812500	0,1	11,963563
1,814167	0,1	11,800998
1,815833	0,1	11,649562
1,817500	0,1	11,465340
1,819167	0,1	11,296498
1,820833	0,1	11,101886
1,822500	0,1	10,942610
1,824167	0,1	10,790006
1,825833	0,1	10,550241
1,827500	0,1	10,454883
1,829167	0,1	10,195784
1,830833	0,1	10,042165
1,832500	0,1	9,906488
1,834167	0,1	9,717216
1,835833	0,1	9,585029
1,837500	0,1	9,389262
1,839167	0,1	9,241730
1,840833	0,1	9,068508
1,842500	0,1	8,947853
1,844167	0,1	8,821782
1,845833	0,1	8,663388
1,847500	0,1	8,556935
1,849167	0,1	8,461863
1,850833	0,1	8,308647
1,852500	0,1	8,255072
1,854167	0,1	8,120127
1,855833	0,1	8,057805
1,857500	0,1	7,984074
1,859167	0,1	7,921965
1,860833	0,1	7,841302
1,862500	0,1	7,790068
1,864167	0,1	7,733246
1,865833	0,1	7,636017
1,867500	0,1	7,568171
1,869167	0,1	7,543358
1,870833	0,1	7,485815
1,872500	0,1	7,456048
1,874167	0,1	7,359567
1,875833	0,1	7,323930
1,877500	0,1	7,272768
1,879167	0,1	7,242636
1,880833	0,1	7,218687
1,882500	0,1	7,181407
1,884167	0,1	7,117570
1,885833	0,1	7,078146
1,887500	0,1	6,996916
1,889167	0,1	6,964111
1,890833	0,1	6,923872
1,892500	0,1	6,849089
1,894167	0,1	6,848234
1,895833	0,1	6,806990
1,897500	0,1	6,745813
1,899167	0,1	6,762377
1,900833	0,1	6,752790
1,902500	0,1	6,654589
1,904167	0,1	6,639952
1,905833	0,1	6,614743
1,907500	0,1	6,596675
1,909167	0,1	6,564389
1,910833	0,1	6,527161
1,912500	0,1	6,470138
1,914167	0,1	6,471685
1,915833	0,1	6,441823
1,917500	0,1	6,431603
1,919167	0,1	6,360239
1,920833	0,1	6,323765
1,922500	0,1	6,340230
1,924167	0,1	6,296801
1,925833	0,1	6,240365
1,927500	0,1	6,255980
1,929167	0,1	6,192340
1,930833	0,1	6,168283
1,932500	0,1	6,130344
1,934167	0,1	6,123996
1,935833	0,1	6,100672
1,937500	0,1	6,093981
1,939167	0,1	6,044728
1,940833	0,1	6,019742
1,942500	0,1	5,964228
1,944167	0,1	5,976852
1,945833	0,1	5,939220
1,947500	0,1	5,871013
1,949167	0,1	5,899628
1,950833	0,1	5,893203
1,952500	0,1	5,893780
1,954167	0,1	5,849208
1,955833	0,1	5,851307
1,957500	0,1	5,838882
1,959167	0,1	5,798357
1,960833	0,1	5,807362
1,962500	0,1	5,771956
1,964167	0,1	5,761439
1,965833	0,1	5,747276
1,967500	0,1	5,802076
1,969167	0,1	5,757880
1,970833	0,1	5,725699
1,972500	0,1	5,775486
1,974167	0,1	5,721890
1,975833	0,1	5,743909
1,977500	0,1	5,734446
1,979167	0,1	5,778142
1,980833	0,1	5,771211
1,982500	0,1	5,790941
1,984167	0,1	5,779965
1,985833	0,1	5,784020
1,987500	0,1	5,798589
1,989167	0,1	5,808838
1,990833	0,1	5,846657
1,992500	0,1	5,857441
1,994167	0,1	5,852241
1,995833	0,1	5,888921
1,997500	0,1	5,890157
1,999167	0,1	5,907348
2,000833	0,1	5,965722
2,002500	0,1	5,991664
2,004167	0,1	5,979949
2,005833	0,1	5,986937
2,007500	0,1	6,064103
2,009167	0,1	6,051939
2,010833	0,1	6,093894
2,012500	0,1	6,142499
2,014167	0,1	6,148939
2,015833	0,1	6,203872
2,017500	0,1	6,177944
2,019167	0,1	6,277894
2,020833	0,1	6,256869
2,022500	0,1	6,296499
2,024167	0,1	6,360322
2,025833	0,1	6,391405
2,027500	0,1	6,398081
2,029167	0,1	6,432970
2,030833	0,1	6,472600
2,032500	0,1	6,550955
2,034167	0,1	6,553774
2,035833	0,1	6,613592
2,037500	0,1	6,644325
2,039167	0,1	6,674483
2,040833	0,1	6,709307
2,042500	0,1	6,759946
2,044167	0,1	6,822702
2,045833	0,1	6,854841
2,047500	0,1	6,878498
2,049167	0,1	6,867607
2,050833	0,1	6,965571
2,052500	0,1	6,984779
2,054167	0,1	7,037594
2,055833	0,1	7,056332
2,057500	0,1	7,109804
2,059167	0,1	7,120069
2,060833	0,1	7,186413
2,062500	0,1	7,197329
2,064167	0,1	7,228830
2,065833	0,1	7,258197
2,067500	0,1	7,302753
2,069167	0,1	7,373321
2,070833	0,1	7,426087
2,072500	0,1	7,440385
2,074167	0,1	7,492960
2,075833	0,1	7,514051
2,077500	0,1	7,560960
2,079167	0,1	7,574239
2,080833	0,1	7,585313
2,082500	0,1	7,629432
2,084167	0,1	7,673298
2,085833	0,1	7,661929
2,087500	0,1	7,734412
2,089167	0,1	7,740404
2,090833	0,1	7,760555
2,092500	0,1	7,788634
2,094167	0,1	7,804245
2,095833	0,1	7,844346
2,097500	0,1	7,836558
2,099167	0,1	7,892529
2,100833	0,1	7,916131
2,102500	0,1	7,970286
2,104167	0,1	7,961000
2,105833	0,1	7,979001
2,107500	0,1	8,000458
2,109167	0,1	8,023220
2,110833	0,1	8,052765
2,112500	0,1	8,078443
2,114167	0,1	8,045458
2,115833	0,1	8,102866
2,117500	0,1	8,075660
2,119167	0,1	8,122616
2,120833	0,1	8,135523
2,122500	0,1	8,113936
2,124167	0,1	8,134983
2,125833	0,1	8,142796
2,127500	0,1	8,158174
2,129167	0,1	8,161007
2,130833	0,1	8,174082
2,132500	0,1	8,172144
2,134167	0,1	8,186407
2,135833	0,1	8,162144
2,137500	0,1	8,195398
2,139167	0,1	8,137797
2,140833	0,1	8,171617
2,142500	0,1	8,133197
2,144167	0,1	8,146718
2,145833	0,1	8,124023
2,147500	0,1	8,146403
2,149167	0,1	8,133013
2,150833	0,1	8,134396
2,152500	0,1	8,101158
2,154167	0,1	8,085331
2,155833	0,1	8,100413
2,157500	0,1	8,056999
2,159167	0,1	8,020309
2,160833	0,1	8,040706
2,162500	0,1	8,005781
2,164167	0,1	8,019056
2,165833	0,1	8,017524
2,167500	0,1	7,996823
2,169167	0,1	7,941930
2,170833	0,1	7,917215
2,172500	0,1	7,925202
2,174167	0,1	7,891426
2,175833	0,1	7,913533
2,177500	0,1	7,909395
2,179167	0,1	7,854072
2,180833	0,1	7,793641
2,182500	0,1	7,779437
2,184167	0,1	7,790598
2,185833	0,1	7,714874
2,187500	0,1	7,747680
2,189167	0,1	7,720441
2,190833	0,1	7,696732
2,192500	0,1	7,735233
2,194167	0,1	7,616815
2,195833	0,1	7,614550
2,197500	0,1	7,602029
2,199167	0,1	7,582421
2,200833	0,1	7,537582
2,202500	0,1	7,495508
2,204167	0,1	7,486733
2,205833	0,1	7,493067
2,207500	0,1	7,502302
2,209167	0,1	7,417363
2,210833	0,1	7,385469
2,212500	0,1	7,387311
2,214167	0,1	7,377529
2,215833	0,1	7,374631
2,217500	0,1	7,322337
2,219167	0,1	7,271632
2,220833	0,1	7,259786
2,222500	0,1	7,233223
2,224167	0,1	7,167439
2,225833	0,1	7,211858
2,227500	0,1	7,154101
2,229167	0,1	7,156037
2,230833	0,1	7,146449
2,232500	0,1	7,100700
2,234167	0,1	7,086901
2,235833	0,1	7,092396
2,237500	0,1	7,068173
2,239167	0,1	7,046003
2,240833	0,1	7,014419
2,242500	0,1	7,019530
2,244167	0,1	7,015249
2,245833	0,1	6,973803
2,247500	0,1	6,956842
2,249167	0,1	6,946407
2,250833	0,1	6,945007
2,252500	0,1	6,921259
2,254167	0,1	6,931034
2,255833	0,1	6,877211
2,257500	0,1	6,887907
2,259167	0,1	6,891451
2,260833	0,1	6,840145
2,262500	0,1	6,861546
2,264167	0,1	6,807927
2,265833	0,1	6,806799
2,267500	0,1	6,781751
2,269167	0,1	6,738086
2,270833	0,1	6,798492
2,272500	0,1	6,749264
2,274167	0,1	6,731185
2,275833	0,1	6,728399
2,277500	0,1	6,708569
2,279167	0,1	6,675521
2,280833	0,1	6,634742
2,282500	0,1	6,662571
2,284167	0,1	6,635593
2,285833	0,1	6,594630
2,287500	0,1	6,571907
2,289167	0,1	6,560292
2,290833	0,1	6,548828
2,292500	0,1	6,542697
2,294167	0,1	6,521196
2,295833	0,1	6,510315
2,297500	0,1	6,489559
2,299167	0,1	6,498762
2,300833	0,1	6,472343
2,302500	0,1	6,425726
2,304167	0,1	6,464693
2,305833	0,1	6,475696
2,307500	0,1	6,405633
2,309167	0,1	6,392413
2,310833	0,1	6,356884
2,312500	0,1	6,396696
2,314167	0,1	6,370094
2,315833	0,1	6,328604
2,317500	0,1	6,301073
2,319167	0,1	6,324771
2,320833	0,1	6,289555
2,322500	0,1	6,258275
2,324167	0,1	6,238180
2,325833	0,1	6,252335
2,327500	0,1	6,225094
2,329167	0,1	6,233458
2,330833	0,1	6,209278
2,332500	0,1	6,214479
2,334167	0,1	6,155656
2,335833	0,1	6,175791
2,337500	0,1	6,183256
2,339167	0,1	6,147940
2,340833	0,1	6,140609
2,342500	0,1	6,131639
2,344167	0,1	6,103762
2,345833	0,1	6,094837
2,347500	0,1	6,101801
2,349167	0,1	6,066225
2,350833	0,1	6,028369
2,352500	0,1	6,049073
2,354167	0,1	6,047703
2,355833	0,1	6,029755
2,357500	0,1	6,027517
2,359167	0,1	6,009584
2,360833	0,1	5,956893
2,362500	0,1	5,973703
2,364167	0,1	5,968310
2,365833	0,1	5,961998
2,367500	0,1	5,973704
2,369167	0,1	5,994801
2,370833	0,1	5,984326
2,372500	0,1	6,019344
2,374167	0,1	5,911706
2,375833	0,1	6,000094
2,377500	0,1	5,960984
2,379167	0,1	5,992094
2,380833	0,1	5,986543
2,382500	0,1	6,026678
2,384167	0,1	6,035604
2,385833	0,1	6,060301
2,387500	0,1	6,071125
2,389167	0,1	6,134225
2,390833	0,1	6,140365
2,392500	0,1	6,197003
2,394167	0,1	6,209740
2,395833	0,1	6,330656
2,397500	0,1	6,374635
2,399167	0,1	6,473624
2,400833	0,1	6,536353
2,402500	0,1	6,578337
2,404167	0,1	6,656229
2,405833	0,1	6,792978
2,407500	0,1	6,883603
2,409167	0,1	7,052105
2,410833	0,1	7,176514
2,412500	0,1	7,274116
2,414167	0,1	7,452559
2,415833	0,1	7,646271
2,417500	0,1	7,800084
2,419167	0,1	8,001247
2,420833	0,1	8,162474
2,422500	0,1	8,398807
2,424167	0,1	8,581409
2,425833	0,1	8,777176
2,427500	0,1	9,069404
2,429167	0,1	9,287703
2,430833	0,1	9,514873
2,432500	0,1	9,773739
2,434167	0,1	9,972749
2,435833	0,1	10,257960
2,437500	0,1	10,520811
2,439167	0,1	10,763754
2,440833	0,1	11,052286
2,442500	0,1	11,295597
2,444167	0,1	11,566212
2,445833	0,1	11,873546
2,447500	0,1	12,097579
2,449167	0,1	12,354953
2,450833	0,1	12,672050
2,452500	0,1	12,881109
2,454167	0,1	13,151389
2,455833	0,1	13,365586
2,457500	0,1	13,616674
2,459167	0,1	13,851179
2,460833	0,1	14,039134
2,462500	0,1	14,290898
2,464167	0,1	14,492493
2,465833	0,1	14,690381
2,467500	0,1	14,887703
2,469167	0,1	15,069543
2,470833	0,1	15,243663
2,472500	0,1	15,401605
2,474167	0,1	15,592990
2,475833	0,1	15,750801
2,477500	0,1	15,880713
2,479167	0,1	16,062453
2,480833	0,1	16,205766
2,482500	0,1	16,312238
2,484167	0,1	16,454165
2,485833	0,1	16,578972
2,487500	0,1	16,729121
2,489167	0,1	16,851694
2,490833	0,1	16,947658
2,492500	0,1	17,099370
2,494167	0,1	17,211450
2,495833	0,1	17,418252
2,497500	0,1	17,509836
2,499167	0,1	17,645897
2,500833	0,1	17,780844
2,502500	0,1	17,973843
2,504167	0,1	18,146604
2,505833	0,1	18,323368
2,507500	0,1	18,486667
2,509167	0,1	18,714777
2,510833	0,1	18,890597
2,512500	0,1	19,155662
2,514167	0,1	19,330866
2,515833	0,1	19,571992
2,517500	0,1	19,809561
2,519167	0,1	20,067305
2,520833	0,1	20,365840
2,522500	0,1	20,665570
2,524167	0,1	20,915740
2,525833	0,1	21,224535
2,527500	0,1	21,544231
2,529167	0,1	21,888439
2,530833	0,1	22,251392
2,532500	0,1	22,580273
2,534167	0,1	22,935160
2,535833	0,1	23,306235
2,537500	0,1	23,685134
2,539167	0,1	24,057353
2,540833	0,1	24,406038
2,542500	0,1	24,873662
2,544167	0,1	25,249399
2,545833	0,1	25,632975
2,547500	0,1	26,051825
2,549167	0,1	26,462807
2,550833	0,1	26,870119
2,552500	0,1	27,241454
2,554167	0,1	27,642702
2,555833	0,1	28,087687
2,557500	0,1	28,433317
2,559167	0,1	28,837625
2,560833	0,1	29,176875
2,562500	0,1	29,555971
2,564167	0,1	29,886848
2,565833	0,1	30,241052
2,567500	0,1	30,565339
2,569167	0,1	30,912315
2,570833	0,1	31,166876
2,572500	0,1	31,494060
2,574167	0,1	31,723911
2,575833	0,1	31,989368
2,577500	0,1	32,230931
2,579167	0,1	32,476833
2,580833	0,1	32,645562
2,582500	0,1	32,843563
2,584167	0,1	32,999861
2,585833	0,1	33,131513
2,587500	0,1	33,302959
2,589167	0,1	33,409522
2,590833	0,1	33,512514
2,592500	0,1	33,647372
2,594167	0,1	33,709996
2,595833	0,1	33,749334
2,597500	0,1	33,739337
2,599167	0,1	33,796910
2,600833	0,1	33,752586
2,602500	0,1	33,753111
2,604167	0,1	33,697737
2,605833	0,1	33,694755
2,607500	0,1	33,582215
2,609167	0,1	33,479336
2,610833	0,1	33,422753
2,612500	0,1	33,311725
2,614167	0,1	33,239832
2,615833	0,1	33,097140
2,617500	0,1	32,913191
2,619167	0,1	32,762356
2,620833	0,1	32,622650
2,622500	0,1	32,412098
2,624167	0,1	32,243923
2,625833	0,1	32,030837
2,627500	0,1	31,799716
2,629167	0,1	31,607802
2,630833	0,1	31,359369
2,632500	0,1	31,180600
2,634167	0,1	30,879398
2,635833	0,1	30,644659
2,637500	0,1	30,363967
2,639167	0,1	30,093956
2,640833	0,1	29,788329
2,642500	0,1	29,549591
2,644167	0,1	29,216306
2,645833	0,1	28,927592
2,647500	0,1	28,614631
2,649167	0,1	28,321671
2,650833	0,1	28,002251
2,652500	0,1	27,696699
2,654167	0,1	27,360344
2,655833	0,1	27,045699
2,657500	0,1	26,747670
2,659167	0,1	26,416995
2,660833	0,1	26,024264
2,662500	0,1	25,708066
2,664167	0,1	25,350098
2,665833	0,1	25,024003
2,667500	0,1	24,663785
2,669167	0,1	24,333454
2,670833	0,1	23,944273
2,672500	0,1	23,610519
2,674167	0,1	23,252154
2,675833	0,1	22,933911
2,677500	0,1	22,628781
2,679167	0,1	22,201838
2,680833	0,1	21,916480
2,682500	0,1	21,543723
2,684167	0,1	21,185059
2,685833	0,1	20,857098
2,687500	0,1	20,537924
2,689167	0,1	20,176434
2,690833	0,1	19,811177
2,692500	0,1	19,541182
2,694167	0,1	19,180105
2,695833	0,1	18,867600
2,697500	0,1	18,535148
2,699167	0,1	18,234298
2,700833	0,1	17,890471
2,702500	0,1	17,573186
2,704167	0,1	17,250715
2,705833	0,1	16,974174
2,707500	0,1	16,706526
2,709167	0,1	16,393930
2,710833	0,1	16,097188
2,712500	0,1	15,821447
2,714167	0,1	15,604266
2,715833	0,1	15,282463
2,717500	0,1	15,006931
2,719167	0,1	14,688982
2,720833	0,1	14,468005
2,722500	0,1	14,253098
2,724167	0,1	13,979760
2,725833	0,1	13,780999
2,727500	0,1	13,503028
2,729167	0,1	13,262253
2,730833	0,1	13,022913
2,732500	0,1	12,826682
2,734167	0,1	12,592027
2,735833	0,1	12,366870
2,737500	0,1	12,183733
2,739167	0,1	12,010433
2,740833	0,1	11,794815
2,742500	0,1	11,594727
2,744167	0,1	11,374479
2,745833	0,1	11,149906
2,747500	0,1	11,032365
2,749167	0,1	10,810301
2,750833	0,1	10,631490
2,752500	0,1	10,465084
2,754167	0,1	10,308713
2,755833	0,1	10,146433
2,757500	0,1	9,977861
2,759167	0,1	9,829607
2,760833	0,1	9,676799
2,762500	0,1	9,507950
2,764167	0,1	9,412458
2,765833	0,1	9,247221
2,767500	0,1	9,122128
2,769167	0,1	8,968474
2,770833	0,1	8,847699
2,772500	0,1	8,725652
2,774167	0,1	8,621481
2,775833	0,1	8,478566
2,777500	0,1	8,377542
2,779167	0,1	8,220930
2,780833	0,1	8,103759
2,782500	0,1	7,963353
2,784167	0,1	7,864759
2,785833	0,1	7,722888
2,787500	0,1	7,672015
2,789167	0,1	7,618998
2,790833	0,1	7,451974
2,792500	0,1	7,376057
2,794167	0,1	7,267825
2,795833	0,1	7,186825
2,797500	0,1	7,090374
2,799167	0,1	6,955380
2,800833	0,1	6,875449
2,802500	0,1	6,820586
2,804167	0,1	6,708865
2,805833	0,1	6,604697
2,807500	0,1	6,594158
2,809167	0,1	6,467262
2,810833	0,1	6,429375
2,812500	0,1	6,247724
2,814167	0,1	6,157669
2,815833	0,1	6,144633
2,817500	0,1	6,096326
2,819167	0,1	5,989243
2,820833	0,1	5,923984
2,822500	0,1	5,858495
2,824167	0,1	5,773549
2,825833	0,1	5,701825
2,827500	0,1	5,656433
2,829167	0,1	5,599404
2,830833	0,1	5,539583
2,832500	0,1	5,431846
2,834167	0,1	5,413954
2,835833	0,1	5,342263
2,837500	0,1	5,284642
2,839167	0,1	5,235191
2,840833	0,1	5,148459
2,842500	0,1	5,141158
2,844167	0,1	5,020536
2,845833	0,1	4,963339
2,847500	0,1	4,949504
2,849167	0,1	4,867799
2,850833	0,1	4,815200
2,852500	0,1	4,766586
2,854167	0,1	4,718809
2,855833	0,1	4,661293
2,857500	0,1	4,660051
2,859167	0,1	4,573976
2,860833	0,1	4,538979
2,862500	0,1	4,504037
2,864167	0,1	4,457323
2,865833	0,1	4,370230
2,867500	0,1	4,364694
2,869167	0,1	4,306658
2,870833	0,1	4,293925
2,872500	0,1	4,269869
2,874167	0,1	4,259862
2,875833	0,1	4,151191
2,877500	0,1	4,105746
2,879167	0,1	4,090153
2,880833	0,1	4,078857
2,882500	0,1	4,001309
2,884167	0,1	3,973130
2,885833	0,1	3,947714
2,887500	0,1	3,887174
2,889167	0,1	3,910623
2,890833	0,1	3,827475
2,892500	0,1	3,828289
2,894167	0,1	3,777920
2,895833	0,1	3,717126
2,897500	0,1	3,645304
2,899167	0,1	3,662333
2,900833	0,1	3,687413
2,902500	0,1	3,639750
2,904167	0,1	3,565840
2,905833	0,1	3,523417
2,907500	0,1	3,549844
2,909167	0,1	3,496740
2,910833	0,1	3,484645
2,912500	0,1	3,471347
2,914167	0,1	3,417566
2,915833	0,1	3,414630
2,917500	0,1	3,379742
2,919167	0,1	3,341691
2,920833	0,1	3,319306
2,922500	0,1	3,277204
2,924167	0,1	3,247669
2,925833	0,1	3,223517
2,927500	0,1	3,207220
2,929167	0,1	3,160704
2,930833	0,1	3,193689
2,932500	0,1	3,157583
2,934167	0,1	3,160690
2,935833	0,1	3,121823
2,937500	0,1	3,093972
2,939167	0,1	3,093510
2,940833	0,1	3,070553
2,942500	0,1	3,031823
2,944167	0,1	3,040020
2,945833	0,1	2,994187
2,947500	0,1	2,990493
2,949167	0,1	2,963210
2,950833	0,1	2,946560
2,952500	0,1	2,936566
2,954167	0,1	2,901129
2,955833	0,1	2,888428
2,957500	0,1	2,854183
2,959167	0,1	2,841654
2,960833	0,1	2,823832
2,962500	0,1	2,818486
2,964167	0,1	2,792522
2,965833	0,1	2,776820
2,967500	0,1	2,752281
2,969167	0,1	2,702201
2,970833	0,1	2,774638
2,972500	0,1	2,701413
2,974167	0,1	2,693787
2,975833	0,1	2,719163
2,977500	0,1	2,699305
2,979167	0,1	2,641066
2,980833	0,1	2,655963
2,982500	0,1	2,678061
2,984167	0,1	2,594589
2,985833	0,1	2,595362
2,987500	0,1	2,572914
2,989167	0,1	2,582385
2,990833	0,1	2,603152
2,992500	0,1	2,596002
2,994167	0,1	2,516418
2,995833	0,1	2,555608
2,997500	0,1	2,507879
2,999167	0,1	2,509212
3,000833	0,1	2,462189
3,002500	0,1	2,475813
3,004167	0,1	2,441266
3,005833	0,1	2,455087
3,007500	0,1	2,463832
3,009167	0,1	2,400322
3,010833	0,1	2,452626
3,012500	0,1	2,419174
3,014167	0,1	2,393642
3,015833	0,1	2,393490
3,017500	0,1	2,421807
3,019167	0,1	2,368848
3,020833	0,1	2,341670
3,022500	0,1	2,394626
3,024167	0,1	2,357084
3,025833	0,1	2,352845
3,027500	0,1	2,335498
3,029167	0,1	2,355484
3,030833	0,1	2,319593
3,032500	0,1	2,324955
3,034167	0,1	2,300228
3,035833	0,1	2,297714
3,037500	0,1	2,292200
3,039167	0,1	2,339066
3,040833	0,1	2,261541
3,042500	0,1	2,260661
3,044167	0,1	2,233075
3,045833	0,1	2,275631
3,047500	0,1	2,246404
3,049167	0,1	2,246041
3,050833	0,1	2,203693
3,052500	0,1	2,208341
3,054167	0,1	2,179112
3,055833	0,1	2,192070
3,057500	0,1	2,219513
3,059167	0,1	2,195163
3,060833	0,1	2,171657
3,062500	0,1	2,156678
3,064167	0,1	2,150298
3,065833	0,1	2,114480
3,067500	0,1	2,153369
3,069167	0,1	2,138622
3,070833	0,1	2,150723
3,072500	0,1	2,120926
3,074167	0,1	2,089330
3,075833	0,1	2,097415
3,077500	0,1	2,133092
3,079167	0,1	2,113687
3,080833	0,1	2,101791
3,082500	0,1	2,114753
3,084167	0,1	2,062397
3,085833	0,1	2,116964
3,087500	0,1	2,116764
3,089167	0,1	2,081234
3,090833	0,1	2,052933
3,092500	0,1	2,117108
3,094167	0,1	2,082883
3,095833	0,1	2,084521
3,097500	0,1	2,077432
3,099167	0,1	2,086456
3,100833	0,1	2,068049
3,102500	0,1	2,087314
3,104167	0,1	2,049355
3,105833	0,1	2,103855
3,107500	0,1	2,048138
3,109167	0,1	2,098552
3,110833	0,1	2,107590
3,112500	0,1	2,141476
3,114167	0,1	2,100653
3,115833	0,1	2,133308
3,117500	0,1	2,161755
3,119167	0,1	2,166133
3,120833	0,1	2,135471
3,122500	0,1	2,127799
3,124167	0,1	2,156811
3,125833	0,1	2,165700
3,127500	0,1	2,175947
3,129167	0,1	2,206040
3,130833	0,1	2,229477
3,132500	0,1	2,195880
3,134167	0,1	2,181041
3,135833	0,1	2,228754
3,137500	0,1	2,227980
3,139167	0,1	2,261583
3,140833	0,1	2,282521
3,142500	0,1	2,249130
3,144167	0,1	2,333466
3,145833	0,1	2,289129
3,147500	0,1	2,313480
3,149167	0,1	2,292059
3,150833	0,1	2,359277
3,152500	0,1	2,335072
3,154167	0,1	2,390463
3,155833	0,1	2,334079
3,157500	0,1	2,404582
3,159167	0,1	2,425608
3,160833	0,1	2,389694
3,162500	0,1	2,450250
3,164167	0,1	2,409854
3,165833	0,1	2,480518
3,167500	0,1	2,478600
3,169167	0,1	2,485556
3,170833	0,1	2,449498
3,172500	0,1	2,508905
3,174167	0,1	2,470430
3,175833	0,1	2,456592
3,177500	0,1	2,512490
3,179167	0,1	2,489861
3,180833	0,1	2,480318
3,182500	0,1	2,492800
3,184167	0,1	2,519685
3,185833	0,1	2,521064
3,187500	0,1	2,517110
3,189167	0,1	2,540414
3,190833	0,1	2,543719
3,192500	0,1	2,533110
3,194167	0,1	2,531163
3,195833	0,1	2,516682
3,197500	0,1	2,508076
3,199167	0,1	2,496326
3,200833	0,1	2,490868
3,202500	0,1	2,552090
3,204167	0,1	2,505430
3,205833	0,1	2,492513
3,207500	0,1	2,489512
3,209167	0,1	2,506925
3,210833	0,1	2,447648
3,212500	0,1	2,512942
3,214167	0,1	2,441624
3,215833	0,1	2,470202
3,217500	0,1	2,453293
3,219167	0,1	2,414794
3,220833	0,1	2,470768
3,222500	0,1	2,452149
3,224167	0,1	2,447051
3,225833	0,1	2,415223
3,227500	0,1	2,408327
3,229167	0,1	2,399585
3,230833	0,1	2,382665
3,232500	0,1	2,383524
3,234167	0,1	2,351779
3,235833	0,1	2,317657
3,237500	0,1	2,342015
3,239167	0,1	2,312993
3,240833	0,1	2,304891
3,242500	0,1	2,272280
3,244167	0,1	2,334616
3,245833	0,1	2,269279
3,247500	0,1	2,256929
3,249167	0,1	2,218743
3,250833	0,1	2,228190
3,252500	0,1	2,225401
3,254167	0,1	2,166434
3,255833	0,1	2,191854
3,257500	0,1	2,141996
3,259167	0,1	2,208824
3,260833	0,1	2,094223
3,262500	0,1	2,124065
3,264167	0,1	2,088541
3,265833	0,1	2,093692
3,267500	0,1	2,071847
3,269167	0,1	2,069118
3,270833	0,1	2,013539
3,272500	0,1	2,037451
3,274167	0,1	1,996773
3,275833	0,1	1,980580
3,277500	0,1	1,976425
3,279167	0,1	1,955298
3,280833	0,1	1,962023
3,282500	0,1	1,950359
3,284167	0,1	1,936535
3,285833	0,1	1,907530
3,287500	0,1	1,889696
3,289167	0,1	1,822889
3,290833	0,1	1,853663
3,292500	0,1	1,810933
3,294167	0,1	1,828826
3,295833	0,1	1,771341
3,297500	0,1	1,789219
3,299167	0,1	1,789658
3,300833	0,1	1,801548
3,302500	0,1	1,768626
3,304167	0,1	1,737195
3,305833	0,1	1,730102
3,307500	0,1	1,716355
3,309167	0,1	1,689798
3,310833	0,1	1,687511
3,312500	0,1	1,653575
3,314167	0,1	1,696520
3,315833	0,1	1,681577
3,317500	0,1	1,659955
3,319167	0,1	1,660463
3,320833	0,1	1,632883
3,322500	0,1	1,604619
3,324167	0,1	1,586050
3,325833	0,1	1,580518
3,327500	0,1	1,594039
3,329167	0,1	1,595892
3,330833	0,1	1,569713
3,332500	0,1	1,534143
3,334167	0,1	1,482769
3,335833	0,1	1,544999
3,337500	0,1	1,520273
3,339167	0,1	1,508310
3,340833	0,1	1,476408
3,342500	0,1	1,508737
3,344167	0,1	1,484845
3,345833	0,1	1,426041
3,347500	0,1	1,448487
3,349167	0,1	1,441275
3,350833	0,1	1,449779
3,352500	0,1	1,442494
3,354167	0,1	1,436768
3,355833	0,1	1,437917
3,357500	0,1	1,411487
3,359167	0,1	1,433473
3,360833	0,1	1,376234
3,362500	0,1	1,391394
3,364167	0,1	1,369804
3,365833	0,1	1,376371
3,367500	0,1	1,394846
3,369167	0,1	1,398849
3,370833	0,1	1,351663
3,372500	0,1	1,362660
3,374167	0,1	1,333839
3,375833	0,1	1,326535
3,377500	0,1	1,327753
3,379167	0,1	1,356355
3,380833	0,1	1,304897
3,382500	0,1	1,324022
3,384167	0,1	1,301283
3,385833	0,1	1,320767
3,387500	0,1	1,323042
3,389167	0,1	1,293053
3,390833	0,1	1,279769
3,392500	0,1	1,291213
3,394167	0,1	1,280194
3,395833	0,1	1,278208
3,397500	0,1	1,252658
3,399167	0,1	1,267891
3,400833	0,1	1,251741
3,402500	0,1	1,261608
3,404167	0,1	1,314813
3,405833	0,1	1,233026
3,407500	0,1	1,246484
3,409167	0,1	1,253632
3,410833	0,1	1,260524
3,412500	0,1	1,252602
3,414167	0,1	1,218195
3,415833	0,1	1,240283
3,417500	0,1	1,222139
3,419167	0,1	1,207318
3,420833	0,1	1,230292
3,422500	0,1	1,209202
3,424167	0,1	1,196091
3,425833	0,1	1,202423
3,427500	0,1	1,246527
3,429167	0,1	1,246318
3,430833	0,1	1,186824
3,432500	0,1	1,232571
3,434167	0,1	1,212995
3,435833	0,1	1,164078
3,437500	0,1	1,190799
3,439167	0,1	1,183611
3,440833	0,1	1,214151
3,442500	0,1	1,210858
3,444167	0,1	1,147709
3,445833	0,1	1,211399
3,447500	0,1	1,169072
3,449167	0,1	1,162272
3,450833	0,1	1,164490
3,452500	0,1	1,179526
3,454167	0,1	1,151205
3,455833	0,1	1,166724
3,457500	0,1	1,144971
3,459167	0,1	1,133475
3,460833	0,1	1,172509
3,462500	0,1	1,161890
3,464167	0,1	1,159785
3,465833	0,1	1,163577
3,467500	0,1	1,164259
3,469167	0,1	1,159025
3,470833	0,1	1,175665
3,472500	0,1	1,171472
3,474167	0,1	1,186604
3,475833	0,1	1,153425
3,477500	0,1	1,160868
3,479167	0,1	1,191172
3,480833	0,1	1,140070
3,482500	0,1	1,148593
3,484167	0,1	1,119459
3,485833	0,1	1,145181
3,487500	0,1	1,154720
3,489167	0,1	1,158631
3,490833	0,1	1,148138
3,492500	0,1	1,136048
3,494167	0,1	1,170849
3,495833	0,1	1,124677
3,497500	0,1	1,115017
3,499167	0,1	1,206736
3,500833	0,1	1,140343
3,502500	0,1	1,180756
3,504167	0,1	1,150936
3,505833	0,1	1,111250
3,507500	0,1	1,159753
3,509167	0,1	1,127247
3,510833	0,1	1,150145
3,512500	0,1	1,172426
3,514167	0,1	1,151223
3,515833	0,1	1,141944
3,517500	0,1	1,174354
3,519167	0,1	1,166104
3,520833	0,1	1,180187
3,522500	0,1	1,173029
3,524167	0,1	1,138935
3,525833	0,1	1,190742
3,527500	0,1	1,130422
3,529167	0,1	1,141632
3,530833	0,1	1,142210
3,532500	0,1	1,172885
3,534167	0,1	1,160747
3,535833	0,1	1,139911
3,537500	0,1	1,147739
3,539167	0,1	1,152331
3,540833	0,1	1,162508
3,542500	0,1	1,170586
3,544167	0,1	1,135361
3,545833	0,1	1,164741
3,547500	0,1	1,150932
3,549167	0,1	1,132967
3,550833	0,1	1,129899
3,552500	0,1	1,151433
3,554167	0,1	1,186040
3,555833	0,1	1,145370
3,557500	0,1	1,115196
3,559167	0,1	1,177143
3,560833	0,1	1,143351
3,562500	0,1	1,141547
3,564167	0,1	1,161488
3,565833	0,1	1,135716
3,567500	0,1	1,144475
3,569167	0,1	1,116903
3,570833	0,1	1,146860
3,572500	0,1	1,155094
3,574167	0,1	1,125758
3,575833	0,1	1,124483
3,577500	0,1	1,107165
3,579167	0,1	1,177532
3,580833	0,1	1,180459
3,582500	0,1	1,153021
3,584167	0,1	1,110875
3,585833	0,1	1,125412
3,587500	0,1	1,105187
3,589167	0,1	1,124018
3,590833	0,1	1,158901
3,592500	0,1	1,105061
3,594167	0,1	1,121704
3,595833	0,1	1,084585
3,597500	0,1	1,091383
3,599167	0,1	1,098192
3,600833	0,1	1,074932
3,602500	0,1	1,115956
3,604167	0,1	1,106913
3,605833	0,1	1,089392
3,607500	0,1	1,075774
3,609167	0,1	1,086925
3,610833	0,1	1,093734
3,612500	0,1	1,083244
3,614167	0,1	1,081937
3,615833	0,1	1,110812
3,617500	0,1	1,064269
3,619167	0,1	1,109098
3,620833	0,1	1,065288
3,622500	0,1	1,070375
3,624167	0,1	1,035895
3,625833	0,1	1,072144
3,627500	0,1	1,050061
3,629167	0,1	1,079397
3,630833	0,1	1,077099
3,632500	0,1	1,072596
3,634167	0,1	1,039487
3,635833	0,1	1,034688
3,637500	0,1	0,991092
3,639167	0,1	1,082041
3,640833	0,1	1,025985
3,642500	0,1	1,053068
3,644167	0,1	1,026730
3,645833	0,1	1,086157
3,647500	0,1	1,045056
3,649167	0,1	1,003046
3,650833	0,1	1,021994
3,652500	0,1	1,028872
3,654167	0,1	1,001756
3,655833	0,1	1,014101
3,657500	0,1	1,025279
3,659167	0,1	0,971201
3,660833	0,1	0,983894
3,662500	0,1	1,012744
3,664167	0,1	1,000023
3,665833	0,1	1,010065
3,667500	0,1	0,962307
3,669167	0,1	0,987883
3,670833	0,1	0,973653
3,672500	0,1	0,993673
3,674167	0,1	0,989176
3,675833	0,1	0,989396
3,677500	0,1	0,959441
3,679167	0,1	0,976218
3,680833	0,1	0,980747
3,682500	0,1	0,981657
3,684167	0,1	0,972700
3,685833	0,1	0,998994
3,687500	0,1	0,948956
3,689167	0,1	0,957548
3,690833	0,1	0,995509
3,692500	0,1	0,942659
3,694167	0,1	1,006283
3,695833	0,1	0,983480
3,697500	0,1	1,007223
3,699167	0,1	0,955521
3,700833	0,1	0,983757
3,702500	0,1	0,970859
3,704167	0,1	0,964227
3,705833	0,1	0,962674
3,707500	0,1	0,988525
3,709167	0,1	0,929599
3,710833	0,1	0,939362
3,712500	0,1	0,953288
3,714167	0,1	0,953778
3,715833	0,1	0,946042
3,717500	0,1	0,925000
3,719167	0,1	0,981444
3,720833	0,1	0,952258
3,722500	0,1	0,943336
3,724167	0,1	0,922825
3,725833	0,1	0,978805
3,727500	0,1	0,947511
3,729167	0,1	0,927374
3,730833	0,1	0,942998
3,732500	0,1	0,996391
3,734167	0,1	0,961151
3,735833	0,1	0,926889
3,737500	0,1	0,974791
3,739167	0,1	0,931437
3,740833	0,1	0,938545
3,742500	0,1	0,970582
3,744167	0,1	0,966886
3,745833	0,1	0,965889
3,747500	0,1	0,979812
3,749167	0,1	0,968175
3,750833	0,1	0,961721
3,752500	0,1	0,976176
3,754167	0,1	0,993650
3,755833	0,1	0,997270
3,757500	0,1	0,966606
3,759167	0,1	0,954959
3,760833	0,1	0,953911
3,762500	0,1	0,966728
3,764167	0,1	0,977816
3,765833	0,1	0,995536
3,767500	0,1	0,970397
3,769167	0,1	0,991809
3,770833	0,1	0,990483
3,772500	0,1	1,013188
3,774167	0,1	1,008249
3,775833	0,1	0,985099
3,777500	0,1	1,037203
3,779167	0,1	1,019077
3,780833	0,1	0,972929
3,782500	0,1	1,039040
3,784167	0,1	1,042715
3,785833	0,1	1,065647
3,787500	0,1	1,054698
3,789167	0,1	1,061082
3,790833	0,1	1,018283
3,792500	0,1	1,061407
3,794167	0,1	1,050351
3,795833	0,1	1,047686
3,797500	0,1	1,031764
3,799167	0,1	1,093099
3,800833	0,1	1,057608
3,802500	0,1	1,064585
3,804167	0,1	1,051482
3,805833	0,1	1,080554
3,807500	0,1	1,070158
3,809167	0,1	1,078053
3,810833	0,1	1,077032
3,812500	0,1	1,079630
3,814167	0,1	1,044411
3,815833	0,1	1,073920
3,817500	0,1	1,105839
3,819167	0,1	1,117912
3,820833	0,1	1,121180
3,822500	0,1	1,116035
3,824167	0,1	1,110772
3,825833	0,1	1,082452
3,827500	0,1	1,080227
3,829167	0,1	1,120479
3,830833	0,1	1,117897
3,832500	0,1	1,151670
3,834167	0,1	1,135261
3,835833	0,1	1,127924
3,837500	0,1	1,150923
3,839167	0,1	1,095304
3,840833	0,1	1,143591
3,842500	0,1	1,103725
3,844167	0,1	1,140933
3,845833	0,1	1,114954
3,847500	0,1	1,131336
3,849167	0,1	1,150436
3,850833	0,1	1,134734
3,852500	0,1	1,154834
3,854167	0,1	1,192235
3,855833	0,1	1,119420
3,857500	0,1	1,110004
3,859167	0,1	1,143066
3,860833	0,1	1,075497
3,862500	0,1	1,117021
3,864167	0,1	1,140303
3,865833	0,1	1,123977
3,867500	0,1	1,142493
3,869167	0,1	1,174661
3,870833	0,1	1,140557
3,872500	0,1	1,111671
3,874167	0,1	1,100837
3,875833	0,1	1,101986
3,877500	0,1	1,147058
3,879167	0,1	1,145475
3,880833	0,1	1,130835
3,882500	0,1	1,103795
3,884167	0,1	1,156689
3,885833	0,1	1,142214
3,887500	0,1	1,125438
3,889167	0,1	1,108805
3,890833	0,1	1,134636
3,892500	0,1	1,109893
3,894167	0,1	1,090417
3,895833	0,1	1,114338
3,897500	0,1	1,089239
3,899167	0,1	1,124715
3,900833	0,1	1,111908
3,902500	0,1	1,092851
3,904167	0,1	1,092605
3,905833	0,1	1,102627
3,907500	0,1	1,100746
3,909167	0,1	1,071892
3,910833	0,1	1,058914
3,912500	0,1	1,065738
3,914167	0,1	1,076390
3,915833	0,1	1,077545
3,917500	0,1	1,049489
3,919167	0,1	1,041255
3,920833	0,1	1,089135
3,922500	0,1	1,077235
3,924167	0,1	1,061288
3,925833	0,1	1,071994
3,927500	0,1	0,999107
3,929167	0,1	1,020554
3,930833	0,1	1,036393
3,932500	0,1	1,044534
3,934167	0,1	1,023780
3,935833	0,1	1,008718
3,937500	0,1	1,002394
3,939167	0,1	0,995630
3,940833	0,1	0,998466
3,942500	0,1	1,034654
3,944167	0,1	1,032404
3,945833	0,1	0,988896
3,947500	0,1	0,979419
3,949167	0,1	0,993231
3,950833	0,1	0,993588
3,952500	0,1	1,015784
3,954167	0,1	1,019205
3,955833	0,1	0,996343
3,957500	0,1	1,006029
3,959167	0,1	0,980421
3,960833	0,1	0,987332
3,962500	0,1	0,985404
3,964167	0,1	0,984938
3,965833	0,1	0,967732
3,967500	0,1	0,936134
3,969167	0,1	0,942801
3,970833	0,1	0,934710
3,972500	0,1	0,926239
3,974167	0,1	0,970468
3,975833	0,1	0,938086
3,977500	0,1	0,901744
3,979167	0,1	0,951638
3,980833	0,1	0,910148
3,982500	0,1	0,931931
3,984167	0,1	0,953021
3,985833	0,1	0,930457
3,987500	0,1	0,924111
3,989167	0,1	0,925395
3,990833	0,1	0,900653
3,992500	0,1	0,905257
3,994167	0,1	0,910846
3,995833	0,1	0,890143
3,997500	0,1	0,900777
3,999167	0,1	0,888855
4,000833	0,1	0,899623
4,002500	0,1	0,896610
4,004167	0,1	0,887568
4,005833	0,1	0,887721
4,007500	0,1	0,892510
4,009167	0,1	0,886924
4,010833	0,1	0,921595
4,012500	0,1	0,876909
4,014167	0,1	0,868986
4,015833	0,1	0,872776
4,017500	0,1	0,890883
4,019167	0,1	0,876259
4,020833	0,1	0,884992
4,022500	0,1	0,889138
4,024167	0,1	0,864398
4,025833	0,1	0,873704
4,027500	0,1	0,880135
4,029167	0,1	0,893350
4,030833	0,1	0,893930
4,032500	0,1	0,906384
4,034167	0,1	0,877457
4,035833	0,1	0,919907
4,037500	0,1	0,911096
4,039167	0,1	0,925389
4,040833	0,1	0,905954
4,042500	0,1	0,902819
4,044167	0,1	0,894285
4,045833	0,1	0,921641
4,047500	0,1	0,882052
4,049167	0,1	0,904122
4,050833	0,1	0,937738
4,052500	0,1	0,973752
4,054167	0,1	0,950260
4,055833	0,1	0,949632
4,057500	0,1	0,944066
4,059167	0,1	0,995018
4,060833	0,1	0,958023
4,062500	0,1	0,958171
4,064167	0,1	0,950233
4,065833	0,1	0,978211
4,067500	0,1	1,000237
4,069167	0,1	0,994522
4,070833	0,1	0,989397
4,072500	0,1	1,002190
4,074167	0,1	0,983168
4,075833	0,1	1,028287
4,077500	0,1	1,040387
4,079167	0,1	1,044953
4,080833	0,1	1,039391
4,082500	0,1	1,057105
4,084167	0,1	1,078224
4,085833	0,1	1,081137
4,087500	0,1	1,080516
4,089167	0,1	1,090075
4,090833	0,1	1,097133
4,092500	0,1	1,110039
4,094167	0,1	1,130893
4,095833	0,1	1,150377
4,097500	0,1	1,145122
4,099167	0,1	1,164264
4,100833	0,1	1,170587
4,102500	0,1	1,167486
4,104167	0,1	1,179813
4,105833	0,1	1,182642
4,107500	0,1	1,191379
4,109167	0,1	1,227679
4,110833	0,1	1,258960
4,112500	0,1	1,279083
4,114167	0,1	1,284846
4,115833	0,1	1,322337
4,117500	0,1	1,326986
4,119167	0,1	1,294409
4,120833	0,1	1,300142
4,122500	0,1	1,340852
4,124167	0,1	1,341049
4,125833	0,1	1,366315
4,127500	0,1	1,382040
4,129167	0,1	1,388850
4,130833	0,1	1,392850
4,132500	0,1	1,415776
4,134167	0,1	1,429395
4,135833	0,1	1,434532
4,137500	0,1	1,479497
4,139167	0,1	1,447049
4,140833	0,1	1,473297
4,142500	0,1	1,500573
4,144167	0,1	1,473817
4,145833	0,1	1,487687
4,147500	0,1	1,536768
4,149167	0,1	1,521548
4,150833	0,1	1,521417
4,152500	0,1	1,577063
4,154167	0,1	1,560543
4,155833	0,1	1,598887
4,157500	0,1	1,611348
4,159167	0,1	1,581731
4,160833	0,1	1,653283
4,162500	0,1	1,604209
4,164167	0,1	1,619146
4,165833	0,1	1,596473
4,167500	0,1	1,603551
4,169167	0,1	1,627587
4,170833	0,1	1,664458
4,172500	0,1	1,712189
4,174167	0,1	1,690302
4,175833	0,1	1,670408
4,177500	0,1	1,693589
4,179167	0,1	1,679130
4,180833	0,1	1,684706
4,182500	0,1	1,733891
4,184167	0,1	1,676563
4,185833	0,1	1,716552
4,187500	0,1	1,703898
4,189167	0,1	1,708404
4,190833	0,1	1,717787
4,192500	0,1	1,710765
4,194167	0,1	1,734255
4,195833	0,1	1,697748
4,197500	0,1	1,728595
4,199167	0,1	1,731535
4,200833	0,1	1,718002
4,202500	0,1	1,709470
4,204167	0,1	1,722871
4,205833	0,1	1,697536
4,207500	0,1	1,734656
4,209167	0,1	1,746056
4,210833	0,1	1,725602
4,212500	0,1	1,741910
4,214167	0,1	1,741278
4,215833	0,1	1,721232
4,217500	0,1	1,713637
4,219167	0,1	1,721948
4,220833	0,1	1,728173
4,222500	0,1	1,730107
4,224167	0,1	1,709559
4,225833	0,1	1,728309
4,227500	0,1	1,724163
4,229167	0,1	1,699538
4,230833	0,1	1,705973
4,232500	0,1	1,702398
4,234167	0,1	1,672761
4,235833	0,1	1,684991
4,237500	0,1	1,691723
4,239167	0,1	1,668824
4,240833	0,1	1,709116
4,242500	0,1	1,649805
4,244167	0,1	1,657954
4,245833	0,1	1,642195
4,247500	0,1	1,646579
4,249167	0,1	1,643261
4,250833	0,1	1,643638
4,252500	0,1	1,637187
4,254167	0,1	1,580816
4,255833	0,1	1,634823
4,257500	0,1	1,607297
4,259167	0,1	1,588903
4,260833	0,1	1,626237
4,262500	0,1	1,583449
4,264167	0,1	1,554819
4,265833	0,1	1,557388
4,267500	0,1	1,567414
4,269167	0,1	1,570717
4,270833	0,1	1,496803
4,272500	0,1	1,526252
4,274167	0,1	1,509337
4,275833	0,1	1,511458
4,277500	0,1	1,502720
4,279167	0,1	1,473299
4,280833	0,1	1,483054
4,282500	0,1	1,444845
4,284167	0,1	1,466230
4,285833	0,1	1,429133
4,287500	0,1	1,443395
4,289167	0,1	1,404435
4,290833	0,1	1,463151
4,292500	0,1	1,408809
4,294167	0,1	1,452852
4,295833	0,1	1,395303
4,297500	0,1	1,342554
4,299167	0,1	1,376583
4,300833	0,1	1,415253
4,302500	0,1	1,301594
4,304167	0,1	1,355487
4,305833	0,1	1,387338
4,307500	0,1	1,346869
4,309167	0,1	1,317090
4,310833	0,1	1,310390
4,312500	0,1	1,308798
4,314167	0,1	1,314810
4,315833	0,1	1,256475
4,317500	0,1	1,263099
4,319167	0,1	1,295766
4,320833	0,1	1,299310
4,322500	0,1	1,206271
4,324167	0,1	1,258684
4,325833	0,1	1,248759
4,327500	0,1	1,215910
4,329167	0,1	1,219779
4,330833	0,1	1,199327
4,332500	0,1	1,195549
4,334167	0,1	1,166533
4,335833	0,1	1,192123
4,337500	0,1	1,143354
4,339167	0,1	1,140656
4,340833	0,1	1,157245
4,342500	0,1	1,122034
4,344167	0,1	1,144068
4,345833	0,1	1,140819
4,347500	0,1	1,127282
4,349167	0,1	1,105187
4,350833	0,1	1,100259
4,352500	0,1	1,119111
4,354167	0,1	1,084585
4,355833	0,1	1,088655
4,357500	0,1	1,095686
4,359167	0,1	1,090984
4,360833	0,1	1,043194
4,362500	0,1	1,070812
4,364167	0,1	1,062216
4,365833	0,1	1,056935
4,367500	0,1	1,062878
4,369167	0,1	1,003030
4,370833	0,1	1,000576
4,372500	0,1	1,012748
4,374167	0,1	0,994612
4,375833	0,1	1,020176
4,377500	0,1	0,971399
4,379167	0,1	0,996577
4,380833	0,1	0,929712
4,382500	0,1	1,007320
4,384167	0,1	0,985832
4,385833	0,1	1,015406
4,387500	0,1	0,948474
4,389167	0,1	0,950586
4,390833	0,1	0,941187
4,392500	0,1	1,001668
4,394167	0,1	0,935944
4,395833	0,1	0,921783
4,397500	0,1	0,971221
4,399167	0,1	0,914587
4,400833	0,1	0,911047
4,402500	0,1	0,925146
4,404167	0,1	0,907967
4,405833	0,1	0,891583
4,407500	0,1	0,899690
4,409167	0,1	0,887124
4,410833	0,1	0,889024
4,412500	0,1	0,896144
4,414167	0,1	0,881007
4,415833	0,1	0,838577
4,417500	0,1	0,848604
4,419167	0,1	0,868337
4,420833	0,1	0,894211
4,422500	0,1	0,816254
4,424167	0,1	0,856666
4,425833	0,1	0,862553
4,427500	0,1	0,822964
4,429167	0,1	0,806111
4,430833	0,1	0,821847
4,432500	0,1	0,839206
4,434167	0,1	0,824334
4,435833	0,1	0,797334
4,437500	0,1	0,807901
4,439167	0,1	0,768408
4,440833	0,1	0,805009
4,442500	0,1	0,805239
4,444167	0,1	0,802077
4,445833	0,1	0,813307
4,447500	0,1	0,811275
4,449167	0,1	0,754428
4,450833	0,1	0,789697
4,452500	0,1	0,727824
4,454167	0,1	0,750393
4,455833	0,1	0,790011
4,457500	0,1	0,757190
4,459167	0,1	0,764502
4,460833	0,1	0,759138
4,462500	0,1	0,737064
4,464167	0,1	0,740821
4,465833	0,1	0,773364
4,467500	0,1	0,731375
4,469167	0,1	0,714696
4,470833	0,1	0,719478
4,472500	0,1	0,712159
4,474167	0,1	0,719832
4,475833	0,1	0,665215
4,477500	0,1	0,727718
4,479167	0,1	0,664862
4,480833	0,1	0,678313
4,482500	0,1	0,717290
4,484167	0,1	0,673576
4,485833	0,1	0,698226
4,487500	0,1	0,711567
4,489167	0,1	0,700003
4,490833	0,1	0,711828
4,492500	0,1	0,640572
4,494167	0,1	0,666164
4,495833	0,1	0,683872
4,497500	0,1	0,681913
4,499167	0,1	0,623702
4,500833	0,1	0,625585
4,502500	0,1	0,637021
4,504167	0,1	0,613671
4,505833	0,1	0,684466
4,507500	0,1	0,609278
4,509167	0,1	0,657058
4,510833	0,1	0,662461
4,512500	0,1	0,604192
4,514167	0,1	0,608641
4,515833	0,1	0,597213
4,517500	0,1	0,654449
4,519167	0,1	0,625456
4,520833	0,1	0,620671
4,522500	0,1	0,607949
4,524167	0,1	0,596306
4,525833	0,1	0,565381
4,527500	0,1	0,622707
4,529167	0,1	0,634156
4,530833	0,1	0,595963
4,532500	0,1	0,600163
4,534167	0,1	0,571095
4,535833	0,1	0,572118
4,537500	0,1	0,559780
4,539167	0,1	0,582102
4,540833	0,1	0,584965
4,542500	0,1	0,577196
4,544167	0,1	0,574203
4,545833	0,1	0,554580
4,547500	0,1	0,598998
4,549167	0,1	0,539489
4,550833	0,1	0,559966
4,552500	0,1	0,526987
4,554167	0,1	0,558742
4,555833	0,1	0,509259
4,557500	0,1	0,545926
4,559167	0,1	0,562023
4,560833	0,1	0,520693
4,562500	0,1	0,536452
4,564167	0,1	0,554022
4,565833	0,1	0,532253
4,567500	0,1	0,537352
4,569167	0,1	0,521617
4,570833	0,1	0,498619
4,572500	0,1	0,516856
4,574167	0,1	0,476330
4,575833	0,1	0,484896
4,577500	0,1	0,476644
4,579167	0,1	0,517846
4,580833	0,1	0,522287
4,582500	0,1	0,475176
4,584167	0,1	0,470766
4,585833	0,1	0,502944
4,587500	0,1	0,471929
4,589167	0,1	0,472723
4,590833	0,1	0,510137
4,592500	0,1	0,446241
4,594167	0,1	0,453419
4,595833	0,1	0,434089
4,597500	0,1	0,477081
4,599167	0,1	0,514600
4,600833	0,1	0,452664
4,602500	0,1	0,489001
4,604167	0,1	0,450153
4,605833	0,1	0,459166
4,607500	0,1	0,424617
4,609167	0,1	0,449881
4,610833	0,1	0,450689
4,612500	0,1	0,458943
4,614167	0,1	0,440030
4,615833	0,1	0,455311
4,617500	0,1	0,448732
4,619167	0,1	0,423877
4,620833	0,1	0,406404
4,622500	0,1	0,397346
4,624167	0,1	0,428391
4,625833	0,1	0,422782
4,627500	0,1	0,438801
4,629167	0,1	0,402682
4,630833	0,1	0,451897
4,632500	0,1	0,414628
4,634167	0,1	0,436488
4,635833	0,1	0,430713
4,637500	0,1	0,399888
4,639167	0,1	0,389638
4,640833	0,1	0,430735
4,642500	0,1	0,385889
4,644167	0,1	0,381962
4,645833	0,1	0,408131
4,647500	0,1	0,408329
4,649167	0,1	0,397311
4,650833	0,1	0,377274
4,652500	0,1	0,348984
4,654167	0,1	0,375818
4,655833	0,1	0,411882
4,657500	0,1	0,430515
4,659167	0,1	0,349157
4,660833	0,1	0,391972
4,662500	0,1	0,368926
4,664167	0,1	0,349270
4,665833	0,1	0,386156
4,667500	0,1	0,321093
4,669167	0,1	0,345505
4,670833	0,1	0,359059
4,672500	0,1	0,366481
4,674167	0,1	0,369630
4,675833	0,1	0,372294
4,677500	0,1	0,340572
4,679167	0,1	0,348944
4,680833	0,1	0,363778
4,682500	0,1	0,348020
4,684167	0,1	0,340084
4,685833	0,1	0,352733
4,687500	0,1	0,387925
4,689167	0,1	0,377626
4,690833	0,1	0,354189
4,692500	0,1	0,353414
4,694167	0,1	0,337426
4,695833	0,1	0,324906
4,697500	0,1	0,368718
4,699167	0,1	0,381861
4,700833	0,1	0,369473
4,702500	0,1	0,365969
4,704167	0,1	0,329464
4,705833	0,1	0,336200
4,707500	0,1	0,379863
4,709167	0,1	0,361513
4,710833	0,1	0,312486
4,712500	0,1	0,290803
4,714167	0,1	0,352752
4,715833	0,1	0,354183
4,717500	0,1	0,354795
4,719167	0,1	0,314892
4,720833	0,1	0,313886
4,722500	0,1	0,315742
4,724167	0,1	0,378930
4,725833	0,1	0,323271
4,727500	0,1	0,308140
4,729167	0,1	0,278667
4,730833	0,1	0,311981
4,732500	0,1	0,294816
4,734167	0,1	0,301705
4,735833	0,1	0,257029
4,737500	0,1	0,305399
4,739167	0,1	0,337345
4,740833	0,1	0,281467
4,742500	0,1	0,324214
4,744167	0,1	0,332120
4,745833	0,1	0,297996
4,747500	0,1	0,316958
4,749167	0,1	0,321042
4,750833	0,1	0,333954
4,752500	0,1	0,317512
4,754167	0,1	0,285179
4,755833	0,1	0,284503
4,757500	0,1	0,301583
4,759167	0,1	0,327720
4,760833	0,1	0,250325
4,762500	0,1	0,305327
4,764167	0,1	0,277607
4,765833	0,1	0,314583
4,767500	0,1	0,300941
4,769167	0,1	0,277247
4,770833	0,1	0,262547
4,772500	0,1	0,293359
4,774167	0,1	0,289992
4,775833	0,1	0,278148
4,777500	0,1	0,246626
4,779167	0,1	0,281157
4,780833	0,1	0,280613
4,782500	0,1	0,271734
4,784167	0,1	0,280999
4,785833	0,1	0,237639
4,787500	0,1	0,267674
4,789167	0,1	0,259914
4,790833	0,1	0,258528
4,792500	0,1	0,297915
4,794167	0,1	0,280853
4,795833	0,1	0,280207
4,797500	0,1	0,274872
4,799167	0,1	0,278794
4,800833	0,1	0,285566
4,802500	0,1	0,285914
4,804167	0,1	0,239566
4,805833	0,1	0,256887
4,807500	0,1	0,273583
4,809167	0,1	0,248161
4,810833	0,1	0,231427
4,812500	0,1	0,269209
4,814167	0,1	0,225918
4,815833	0,1	0,276080
4,817500	0,1	0,233650
4,819167	0,1	0,268087
4,820833	0,1	0,252916
4,822500	0,1	0,232017
4,824167	0,1	0,273260
4,825833	0,1	0,256706
4,827500	0,1	0,248935
4,829167	0,1	0,227108
4,830833	0,1	0,234164
4,832500	0,1	0,211977
4,834167	0,1	0,213809
4,835833	0,1	0,261122
4,837500	0,1	0,214688
4,839167	0,1	0,253482
4,840833	0,1	0,223321
4,842500	0,1	0,207165
4,844167	0,1	0,275053
4,845833	0,1	0,214754
4,847500	0,1	0,245551
4,849167	0,1	0,237466
4,850833	0,1	0,242989
4,852500	0,1	0,268921
4,854167	0,1	0,255446
4,855833	0,1	0,241169
4,857500	0,1	0,247294
4,859167	0,1	0,257304
4,860833	0,1	0,202897
4,862500	0,1	0,244780
4,864167	0,1	0,231563
4,865833	0,1	0,244155
4,867500	0,1	0,233526
4,869167	0,1	0,225393
4,870833	0,1	0,238078
4,872500	0,1	0,203219
4,874167	0,1	0,247313
4,875833	0,1	0,210029
4,877500	0,1	0,244203
4,879167	0,1	0,245081
4,880833	0,1	0,258660
4,882500	0,1	0,236929
4,884167	0,1	0,230929
4,885833	0,1	0,254191
4,887500	0,1	0,203385
4,889167	0,1	0,229311
4,890833	0,1	0,222800
4,892500	0,1	0,204019
4,894167	0,1	0,214060
4,895833	0,1	0,209215
4,897500	0,1	0,273027
4,899167	0,1	0,224420
4,900833	0,1	0,219916
4,902500	0,1	0,224786
4,904167	0,1	0,252941
4,905833	0,1	0,274802
4,907500	0,1	0,224572
4,909167	0,1	0,237110
4,910833	0,1	0,228930
4,912500	0,1	0,251370
4,914167	0,1	0,202076
4,915833	0,1	0,242051
4,917500	0,1	0,226076
4,919167	0,1	0,238268
4,920833	0,1	0,225117
4,922500	0,1	0,247328
4,924167	0,1	0,236130
4,925833	0,1	0,211689
4,927500	0,1	0,227994
4,929167	0,1	0,225655
4,930833	0,1	0,223956
4,932500	0,1	0,271557
4,934167	0,1	0,259688
4,935833	0,1	0,250056
4,937500	0,1	0,236421
4,939167	0,1	0,252466
4,940833	0,1	0,214977
4,942500	0,1	0,238816
4,944167	0,1	0,253488
4,945833	0,1	0,223483
4,947500	0,1	0,230789
4,949167	0,1	0,221110
4,950833	0,1	0,234036
4,952500	0,1	0,238442
4,954167	0,1	0,234409
4,955833	0,1	0,250078
4,957500	0,1	0,228140
4,959167	0,1	0,234190
4,960833	0,1	0,223468
4,962500	0,1	0,217562
4,964167	0,1	0,236340
4,965833	0,1	0,253496
4,967500	0,1	0,256862
4,969167	0,1	0,214851
4,970833	0,1	0,207868
4,972500	0,1	0,248408
4,974167	0,1	0,270722
4,975833	0,1	0,269544
4,977500	0,1	0,253647
4,979167	0,1	0,235002
4,980833	0,1	0,252491
4,982500	0,1	0,249829
4,984167	0,1	0,261709
4,985833	0,1	0,277145
4,987500	0,1	0,257646
4,989167	0,1	0,261196
4,990833	0,1	0,232626
4,992500	0,1	0,250918
4,994167	0,1	0,276221
4,995833	0,1	0,301488
4,997500	0,1	0,297157
4,999167	0,1	0,236097
5,000833	0,1	0,231599
5,002500	0,1	0,288144
5,004167	0,1	0,239693
5,005833	0,1	0,277755
5,007500	0,1	0,252827
5,009167	0,1	0,275191
5,010833	0,1	0,234074
5,012500	0,1	0,283947
5,014167	0,1	0,278054
5,015833	0,1	0,265467
5,017500	0,1	0,283059
5,019167	0,1	0,289956
5,020833	0,1	0,260688
5,022500	0,1	0,279903
5,024167	0,1	0,274066
5,025833	0,1	0,256570
5,027500	0,1	0,262704
5,029167	0,1	0,302410
5,030833	0,1	0,291633
5,032500	0,1	0,291178
5,034167	0,1	0,300103
5,035833	0,1	0,285310
5,037500	0,1	0,272179
5,039167	0,1	0,296769
5,040833	0,1	0,262903
5,042500	0,1	0,287969
5,044167	0,1	0,305978
5,045833	0,1	0,303541
5,047500	0,1	0,314746
5,049167	0,1	0,242384
5,050833	0,1	0,311323
5,052500	0,1	0,274880
5,054167	0,1	0,317053
5,055833	0,1	0,345764
5,057500	0,1	0,322206
5,059167	0,1	0,320308
5,060833	0,1	0,322391
5,062500	0,1	0,314466
5,064167	0,1	0,311381
5,065833	0,1	0,304729
5,067500	0,1	0,316769
5,069167	0,1	0,307750
5,070833	0,1	0,318308
5,072500	0,1	0,297900
5,074167	0,1	0,315069
5,075833	0,1	0,321330
5,077500	0,1	0,350160
5,079167	0,1	0,335336
5,080833	0,1	0,315620
5,082500	0,1	0,326466
5,084167	0,1	0,340016
5,085833	0,1	0,289425
5,087500	0,1	0,345434
5,089167	0,1	0,336486
5,090833	0,1	0,335369
5,092500	0,1	0,353792
5,094167	0,1	0,355919
5,095833	0,1	0,344523
5,097500	0,1	0,359764
5,099167	0,1	0,310616
5,100833	0,1	0,358987
5,102500	0,1	0,324841
5,104167	0,1	0,320563
5,105833	0,1	0,363712
5,107500	0,1	0,390687
5,109167	0,1	0,329343
5,110833	0,1	0,363646
5,112500	0,1	0,338353
5,114167	0,1	0,370164
5,115833	0,1	0,399909
5,117500	0,1	0,342505
5,119167	0,1	0,383331
5,120833	0,1	0,347734
5,122500	0,1	0,358417
5,124167	0,1	0,363781
5,125833	0,1	0,372871
5,127500	0,1	0,367800
5,129167	0,1	0,365709
5,130833	0,1	0,362014
5,132500	0,1	0,364582
5,134167	0,1	0,325287
5,135833	0,1	0,358891
5,137500	0,1	0,359449
5,139167	0,1	0,368344
5,140833	0,1	0,400452
5,142500	0,1	0,324815
5,144167	0,1	0,345501
5,145833	0,1	0,348334
5,147500	0,1	0,381793
5,149167	0,1	0,323399
5,150833	0,1	0,358607
5,152500	0,1	0,341822
5,154167	0,1	0,390427
5,155833	0,1	0,354672
5,157500	0,1	0,359448
5,159167	0,1	0,342528
5,160833	0,1	0,344323
5,162500	0,1	0,354887
5,164167	0,1	0,335592
5,165833	0,1	0,367340
5,167500	0,1	0,372421
5,169167	0,1	0,316786
5,170833	0,1	0,359791
5,172500	0,1	0,323267
5,174167	0,1	0,322779
5,175833	0,1	0,322933
5,177500	0,1	0,308972
5,179167	0,1	0,322549
5,180833	0,1	0,322645
5,182500	0,1	0,332664
5,184167	0,1	0,350517
5,185833	0,1	0,331393
5,187500	0,1	0,281719
5,189167	0,1	0,328478
5,190833	0,1	0,365412
5,192500	0,1	0,340991
5,194167	0,1	0,322486
5,195833	0,1	0,337870
5,197500	0,1	0,334755
5,199167	0,1	0,339312
5,200833	0,1	0,337196
5,202500	0,1	0,294985
5,204167	0,1	0,334399
5,205833	0,1	0,295978
5,207500	0,1	0,308197
5,209167	0,1	0,312122
5,210833	0,1	0,296319
5,212500	0,1	0,321679
5,214167	0,1	0,297867
5,215833	0,1	0,293140
5,217500	0,1	0,296024
5,219167	0,1	0,281874
5,220833	0,1	0,253878
5,222500	0,1	0,296149
5,224167	0,1	0,290093
5,225833	0,1	0,313365
5,227500	0,1	0,327595
5,229167	0,1	0,303837
5,230833	0,1	0,247951
5,232500	0,1	0,274899
5,234167	0,1	0,314104
5,235833	0,1	0,243713
5,237500	0,1	0,283053
5,239167	0,1	0,272918
5,240833	0,1	0,275964
5,242500	0,1	0,251217
5,244167	0,1	0,250243
5,245833	0,1	0,279393
5,247500	0,1	0,240621
5,249167	0,1	0,239881
5,250833	0,1	0,265296
5,252500	0,1	0,257662
5,254167	0,1	0,273491
5,255833	0,1	0,245882
5,257500	0,1	0,212081
5,259167	0,1	0,239359
5,260833	0,1	0,248261
5,262500	0,1	0,244475
5,264167	0,1	0,224024
5,265833	0,1	0,249984
5,267500	0,1	0,235201
5,269167	0,1	0,242827
5,270833	0,1	0,229773
5,272500	0,1	0,246424
5,274167	0,1	0,184001
5,275833	0,1	0,224361
5,277500	0,1	0,242796
5,279167	0,1	0,243180
5,280833	0,1	0,218121
5,282500	0,1	0,234839
5,284167	0,1	0,197477
5,285833	0,1	0,221130
5,287500	0,1	0,234640
5,289167	0,1	0,191727
5,290833	0,1	0,232707
5,292500	0,1	0,197425
5,294167	0,1	0,191856
5,295833	0,1	0,145003
5,297500	0,1	0,209840
5,299167	0,1	0,253996
5,300833	0,1	0,207499
5,302500	0,1	0,208862
5,304167	0,1	0,216990
5,305833	0,1	0,205993
5,307500	0,1	0,181262
5,309167	0,1	0,206210
5,310833	0,1	0,184507
5,312500	0,1	0,155935
5,314167	0,1	0,170061
5,315833	0,1	0,179490
5,317500	0,1	0,194833
5,319167	0,1	0,160985
5,320833	0,1	0,200869
5,322500	0,1	0,146993
5,324167	0,1	0,159588
5,325833	0,1	0,182759
5,327500	0,1	0,158227
5,329167	0,1	0,182609
5,330833	0,1	0,161598
5,332500	0,1	0,146756
5,334167	0,1	0,185714
5,335833	0,1	0,184502
5,337500	0,1	0,149656
5,339167	0,1	0,156380
5,340833	0,1	0,132510
5,342500	0,1	0,147265
5,344167	0,1	0,142174
5,345833	0,1	0,144700
5,347500	0,1	0,176326
5,349167	0,1	0,123758
5,350833	0,1	0,152006
5,352500	0,1	0,148265
5,354167	0,1	0,145383
5,355833	0,1	0,124581
5,357500	0,1	0,173967
5,359167	0,1	0,177188
5,360833	0,1	0,141993
5,362500	0,1	0,164407
5,364167	0,1	0,131228
5,365833	0,1	0,131714
5,367500	0,1	0,102718
5,369167	0,1	0,120798
5,370833	0,1	0,174773
5,372500	0,1	0,121895
5,374167	0,1	0,147100
5,375833	0,1	0,128343
5,377500	0,1	0,127745
5,379167	0,1	0,101803
5,380833	0,1	0,123324
5,382500	0,1	0,125874
5,384167	0,1	0,137990
5,385833	0,1	0,094543
5,387500	0,1	0,133793
5,389167	0,1	0,140722
5,390833	0,1	0,114703
5,392500	0,1	0,123869
5,394167	0,1	0,117303
5,395833	0,1	0,108505
5,397500	0,1	0,118608
5,399167	0,1	0,090875
5,400833	0,1	0,117483
5,402500	0,1	0,107638
5,404167	0,1	0,106703
5,405833	0,1	0,087022
5,407500	0,1	0,128996
5,409167	0,1	0,117164
5,410833	0,1	0,141032
5,412500	0,1	0,109303
5,414167	0,1	0,109874
5,415833	0,1	0,073148
5,417500	0,1	0,065298
5,419167	0,1	0,072292
5,420833	0,1	0,121683
5,422500	0,1	0,092260
5,424167	0,1	0,100840
5,425833	0,1	0,058308
5,427500	0,1	0,067964
5,429167	0,1	0,094917
5,430833	0,1	0,113493
5,432500	0,1	0,058994
5,434167	0,1	0,099798
5,435833	0,1	0,101154
5,437500	0,1	0,099809
5,439167	0,1	0,092834
5,440833	0,1	0,085627
5,442500	0,1	0,084075
5,444167	0,1	0,083621
5,445833	0,1	0,054142
5,447500	0,1	0,091643
5,449167	0,1	0,083286
5,450833	0,1	0,052428
5,452500	0,1	0,062001
5,454167	0,1	0,056540
5,455833	0,1	0,109110
5,457500	0,1	0,073710
5,459167	0,1	0,079018
5,460833	0,1	0,078524
5,462500	0,1	0,093699
5,464167	0,1	0,086644
5,465833	0,1	0,068651
5,467500	0,1	0,075417
5,469167	0,1	0,086452
5,470833	0,1	0,041043
5,472500	0,1	0,054961
5,474167	0,1	0,070593
5,475833	0,1	0,089118
5,477500	0,1	0,062485
5,479167	0,1	0,088021
5,480833	0,1	0,101731
5,482500	0,1	0,065634
5,484167	0,1	0,041181
5,485833	0,1	0,082882
5,487500	0,1	0,080654
5,489167	0,1	0,063870
5,490833	0,1	0,048012
5,492500	0,1	0,055105
5,494167	0,1	0,058918
5,495833	0,1	0,046273
5,497500	0,1	0,084417
5,499167	0,1	0,060746
5,500833	0,1	0,028495
5,502500	0,1	0,084600
5,504167	0,1	0,056688
5,505833	0,1	0,078231
5,507500	0,1	0,064799
5,509167	0,1	0,079828
5,510833	0,1	0,039054
5,512500	0,1	0,003074
5,514167	0,1	0,003334
5,515833	0,1	0,050460
5,517500	0,1	0,065372
5,519167	0,1	0,034788
5,520833	0,1	0,048834
5,522500	0,1	0,074583
5,524167	0,1	0,031870
5,525833	0,1	0,094805
5,527500	0,1	0,039411
5,529167	0,1	0,044219
5,530833	0,1	0,050408
5,532500	0,1	0,058563
5,534167	0,1	0,046107
5,535833	0,1	0,056019
5,537500	0,1	0,047844
5,539167	0,1	0,021310
5,540833	0,1	0,048103
5,542500	0,1	0,042358
5,544167	0,1	0,053616
5,545833	0,1	0,017193
5,547500	0,1	0,049448
5,549167	0,1	0,040434
5,550833	0,1	0,063320
5,552500	0,1	0,026508
5,554167	0,1	0,017494
5,555833	0,1	0,033719
5,557500	0,1	0,056946
5,559167	0,1	0,035903
5,560833	0,1	0,027723
5,562500	0,1	0,033267
5,564167	0,1	0,048418
5,565833	0,1	0,031739
5,567500	0,1	0,041588
5,569167	0,1	0,064565
5,570833	0,1	0,025867
5,572500	0,1	0,013439
5,574167	0,1	0,062592
5,575833	0,1	0,012642
5,577500	0,1	0,047750
5,579167	0,1	0,035300
5,580833	0,1	0,024224
5,582500	0,1	0,033370
5,584167	0,1	0,064108
5,585833	0,1	0,047433
5,587500	0,1	0,049125
5,589167	0,1	0,041426
5,590833	0,1	0,071849
5,592500	0,1	0,055690
5,594167	0,1	-0,001144
5,595833	0,1	0,069483
5,597500	0,1	0,039631
5,599167	0,1	0,029256
5,600833	0,1	0,050633
5,602500	0,1	0,079818
5,604167	0,1	0,021566
5,605833	0,1	0,061578
5,607500	0,1	0,028869
5,609167	0,1	0,048503
5,610833	0,1	0,046684
5,612500	0,1	0,058916
5,614167	0,1	0,046169
5,615833	0,1	0,039791
5,617500	0,1	0,080127
5,619167	0,1	0,029222
5,620833	0,1	0,062346
5,622500	0,1	0,068254
5,624167	0,1	0,055422
5,625833	0,1	0,049935
5,627500	0,1	0,073096
5,629167	0,1	0,042489
5,630833	0,1	0,034471
5,632500	0,1	0,038669
5,634167	0,1	0,043639
5,635833	0,1	0,038508
5,637500	0,1	0,037075
5,639167	0,1	0,066010
5,640833	0,1	0,030791
5,642500	0,1	0,027473
5,644167	0,1	0,046907
5,645833	0,1	0,044096
5,647500	0,1	0,031097
5,649167	0,1	0,037323
5,650833	0,1	0,084705
5,652500	0,1	0,058034
5,654167	0,1	0,022346
5,655833	0,1	0,020518
5,657500	0,1	0,056052
5,659167	0,1	0,044348
5,660833	0,1	0,078228
5,662500	0,1	0,036300
5,664167	0,1	0,043018
5,665833	0,1	0,072640
5,667500	0,1	0,016700
5,669167	0,1	0,028069
5,670833	0,1	0,073919
5,672500	0,1	0,035408
5,674167	0,1	0,093689
5,675833	0,1	0,057603
5,677500	0,1	0,073677
5,679167	0,1	0,057678
5,680833	0,1	0,059020
5,682500	0,1	0,012599
5,684167	0,1	0,094175
5,685833	0,1	0,088052
5,687500	0,1	0,060061
5,689167	0,1	0,068378
5,690833	0,1	0,048239
5,692500	0,1	0,020894
5,694167	0,1	0,064105
5,695833	0,1	0,063762
5,697500	0,1	0,073120
5,699167	0,1	0,067781
5,700833	0,1	0,057017
5,702500	0,1	0,055464
5,704167	0,1	0,094890
5,705833	0,1	0,061907
5,707500	0,1	0,090587
5,709167	0,1	0,082769
5,710833	0,1	0,091750
5,712500	0,1	0,046382
5,714167	0,1	0,053866
5,715833	0,1	0,070655
5,717500	0,1	0,099636
5,719167	0,1	0,098500
5,720833	0,1	0,097404
5,722500	0,1	0,099041
5,724167	0,1	0,074766
5,725833	0,1	0,077677
5,727500	0,1	0,099762
5,729167	0,1	0,079250
5,730833	0,1	0,070574
5,732500	0,1	0,053765
5,734167	0,1	0,086531
5,735833	0,1	0,078425
5,737500	0,1	0,091671
5,739167	0,1	0,101378
5,740833	0,1	0,090433
5,742500	0,1	0,057022
5,744167	0,1	0,102637
5,745833	0,1	0,081842
5,747500	0,1	0,084942
5,749167	0,1	0,091838
5,750833	0,1	0,082418
5,752500	0,1	0,056857
5,754167	0,1	0,083756
5,755833	0,1	0,088754
5,757500	0,1	0,117132
5,759167	0,1	0,088738
5,760833	0,1	0,076289
5,762500	0,1	0,084361
5,764167	0,1	0,088934
5,765833	0,1	0,085626
5,767500	0,1	0,060042
5,769167	0,1	0,145801
5,770833	0,1	0,137869
5,772500	0,1	0,126972
5,774167	0,1	0,089860
5,775833	0,1	0,071101
5,777500	0,1	0,074655
5,779167	0,1	0,045635
5,780833	0,1	0,093566
5,782500	0,1	0,094923
5,784167	0,1	0,085007
5,785833	0,1	0,080763
5,787500	0,1	0,080803
5,789167	0,1	0,070183
5,790833	0,1	0,088022
5,792500	0,1	0,122453
5,794167	0,1	0,077956
5,795833	0,1	0,064057
5,797500	0,1	0,111952
5,799167	0,1	0,086420
5,800833	0,1	0,098872
5,802500	0,1	0,110238
5,804167	0,1	0,080685
5,805833	0,1	0,111933
5,807500	0,1	0,069073
5,809167	0,1	0,074672
5,810833	0,1	0,072852
5,812500	0,1	0,116962
5,814167	0,1	0,124401
5,815833	0,1	0,114533
5,817500	0,1	0,077415
5,819167	0,1	0,056645
5,820833	0,1	0,106362
5,822500	0,1	0,122333
5,824167	0,1	0,111856
5,825833	0,1	0,090186
5,827500	0,1	0,099477
5,829167	0,1	0,135306
5,830833	0,1	0,083054
5,832500	0,1	0,102950
5,834167	0,1	0,097343
5,835833	0,1	0,096724
5,837500	0,1	0,114479
5,839167	0,1	0,084474
5,840833	0,1	0,076642
5,842500	0,1	0,089824
5,844167	0,1	0,104939
5,845833	0,1	0,086497
5,847500	0,1	0,055637
5,849167	0,1	0,078019
5,850833	0,1	0,087924
5,852500	0,1	0,073206
5,854167	0,1	0,104998
5,855833	0,1	0,088901
5,857500	0,1	0,090305
5,859167	0,1	0,089664
5,860833	0,1	0,073127
5,862500	0,1	0,085644
5,864167	0,1	0,073784
5,865833	0,1	0,093032
5,867500	0,1	0,068590
5,869167	0,1	0,079250
5,870833	0,1	0,051741
5,872500	0,1	0,057696
5,874167	0,1	0,070281
5,875833	0,1	0,108143
5,877500	0,1	0,087327
5,879167	0,1	0,056915
5,880833	0,1	0,057986
5,882500	0,1	0,079389
5,884167	0,1	0,086186
5,885833	0,1	0,082643
5,887500	0,1	0,096016
5,889167	0,1	0,049716
5,890833	0,1	0,050614
5,892500	0,1	0,101268
5,894167	0,1	0,050938
5,895833	0,1	0,072742
5,897500	0,1	0,072748
5,899167	0,1	0,068381
5,900833	0,1	0,058217
5,902500	0,1	0,116646
5,904167	0,1	0,060317
5,905833	0,1	0,104250
5,907500	0,1	0,087805
5,909167	0,1	0,056938
5,910833	0,1	0,043519
5,912500	0,1	0,099066
5,914167	0,1	0,046633
5,915833	0,1	0,048257
5,917500	0,1	0,057422
5,919167	0,1	0,047824
5,920833	0,1	0,007008
5,922500	0,1	0,051495
5,924167	0,1	0,042154
5,925833	0,1	0,111674
5,927500	0,1	0,074598
5,929167	0,1	0,048389
5,930833	0,1	0,074191
5,932500	0,1	0,049236
5,934167	0,1	0,065003
5,935833	0,1	0,048449
5,937500	0,1	0,043642
5,939167	0,1	0,019570
5,940833	0,1	0,086023
5,942500	0,1	0,065318
5,944167	0,1	0,057721
5,945833	0,1	0,057306
5,947500	0,1	0,070218
5,949167	0,1	0,064572
5,950833	0,1	0,038967
5,952500	0,1	0,035566
5,954167	0,1	0,029791
5,955833	0,1	0,044983
5,957500	0,1	0,051546
5,959167	0,1	0,075701
5,960833	0,1	0,094544
5,962500	0,1	0,017285
5,964167	0,1	0,025254
5,965833	0,1	0,116929
5,967500	0,1	0,048376
5,969167	0,1	0,038797
5,970833	0,1	0,051048
5,972500	0,1	0,056264
5,974167	0,1	0,033565
5,975833	0,1	0,042747
5,977500	0,1	0,064586
5,979167	0,1	0,012456
5,980833	0,1	0,017245
5,982500	0,1	0,009463
5,984167	0,1	0,040879
5,985833	0,1	0,032504
5,987500	0,1	-0,006675
5,989167	0,1	0,044745
5,990833	0,1	0,020667
5,992500	0,1	0,024158
5,994167	0,1	0,020973
5,995833	0,1	0,025254
5,997500	0,1	0,047031
5,999167	0,1	0,056121
6,000833	0,1	0,000552
