File Path	chrom://chromeleon01/ikbm_chromeleon/2022/Rezex/Esteban/220612_chitin_4_7.seq/221.smp/UV_VIS_1.channel/UV_VIS_1.chm
Channel	UV_VIS_1

Injection Information:
Data Vault	ikbm_chromeleon
Injection	Sc10D_24h-ChiBS_2
Injection Number	20
Position	RC1
Comment	
Processing Method	New ProcMethod
Instrument Method	Short_Rezex_6min_194nm
Type	Unknown
Status	Finished
Injection Date	12.06.2022
Injection Time	19:17:17
Injection Volume (µl)	8,000
Dilution Factor	1,0000
Weight	1,0000

Chromatogram Data Information:
Time Min. (min)	0,000833
Time Max. (min)	6,000833
Data Points	3601
Detector	UV
Generating Data System	Chromeleon 7.2.9.11323
Exporting Data System	Chromeleon 7.2.9.0
Operator	Instrument Controller
Signal Quantity	Absorbance
Signal Unit	mAU
Signal Min.	-0,143805
Signal Max.	953,873349
Channel	UV_VIS_1
Driver Name	VWD3000.dll
Channel Type	Evaluation
Min. Step (s)	0,1
Max. Step (s)	0,1
Average Step (s)	0,1

Signal Parameter Information:
Signal Info	WVL:194 nm

Chromatogram Data:
Time (min)	Step (s)	Value (mAU)
0,000833	n.a.	-0,039444
0,002500	0,1	-0,083989
0,004167	0,1	-0,070500
0,005833	0,1	-0,073952
0,007500	0,1	-0,120805
0,009167	0,1	-0,086038
0,010833	0,1	-0,082686
0,012500	0,1	-0,069565
0,014167	0,1	-0,053448
0,015833	0,1	-0,065447
0,017500	0,1	-0,052219
0,019167	0,1	-0,056252
0,020833	0,1	-0,079395
0,022500	0,1	-0,078173
0,024167	0,1	-0,094102
0,025833	0,1	-0,069106
0,027500	0,1	-0,123297
0,029167	0,1	-0,079922
0,030833	0,1	-0,094883
0,032500	0,1	-0,120422
0,034167	0,1	-0,120658
0,035833	0,1	-0,139589
0,037500	0,1	-0,115337
0,039167	0,1	-0,112170
0,040833	0,1	-0,129860
0,042500	0,1	-0,078721
0,044167	0,1	-0,104148
0,045833	0,1	-0,143805
0,047500	0,1	-0,076315
0,049167	0,1	-0,114263
0,050833	0,1	-0,066254
0,052500	0,1	-0,064756
0,054167	0,1	-0,061487
0,055833	0,1	-0,102247
0,057500	0,1	-0,109637
0,059167	0,1	-0,069415
0,060833	0,1	-0,084969
0,062500	0,1	-0,096864
0,064167	0,1	-0,084500
0,065833	0,1	-0,105013
0,067500	0,1	-0,104518
0,069167	0,1	-0,083614
0,070833	0,1	-0,084096
0,072500	0,1	-0,050119
0,074167	0,1	-0,098742
0,075833	0,1	-0,070797
0,077500	0,1	-0,082914
0,079167	0,1	-0,064931
0,080833	0,1	-0,068841
0,082500	0,1	-0,070790
0,084167	0,1	-0,030196
0,085833	0,1	-0,061757
0,087500	0,1	-0,064865
0,089167	0,1	-0,054092
0,090833	0,1	-0,090122
0,092500	0,1	-0,074186
0,094167	0,1	-0,081054
0,095833	0,1	-0,039732
0,097500	0,1	-0,047274
0,099167	0,1	-0,047920
0,100833	0,1	-0,074054
0,102500	0,1	-0,042199
0,104167	0,1	-0,083674
0,105833	0,1	-0,084035
0,107500	0,1	-0,091479
0,109167	0,1	-0,109756
0,110833	0,1	-0,109274
0,112500	0,1	-0,067115
0,114167	0,1	-0,093129
0,115833	0,1	-0,103787
0,117500	0,1	-0,113918
0,119167	0,1	-0,085149
0,120833	0,1	-0,079477
0,122500	0,1	-0,075025
0,124167	0,1	-0,129196
0,125833	0,1	-0,105837
0,127500	0,1	-0,097696
0,129167	0,1	-0,119596
0,130833	0,1	-0,081916
0,132500	0,1	-0,078234
0,134167	0,1	-0,100804
0,135833	0,1	-0,101794
0,137500	0,1	-0,106876
0,139167	0,1	-0,110697
0,140833	0,1	-0,071918
0,142500	0,1	-0,105752
0,144167	0,1	-0,061082
0,145833	0,1	-0,105226
0,147500	0,1	-0,072331
0,149167	0,1	-0,099160
0,150833	0,1	-0,047437
0,152500	0,1	-0,081741
0,154167	0,1	-0,074489
0,155833	0,1	-0,054922
0,157500	0,1	-0,077937
0,159167	0,1	-0,068980
0,160833	0,1	-0,078001
0,162500	0,1	-0,104890
0,164167	0,1	-0,084903
0,165833	0,1	-0,067815
0,167500	0,1	-0,095804
0,169167	0,1	-0,082627
0,170833	0,1	-0,083805
0,172500	0,1	-0,058254
0,174167	0,1	-0,094985
0,175833	0,1	-0,074492
0,177500	0,1	-0,054846
0,179167	0,1	-0,119744
0,180833	0,1	-0,117010
0,182500	0,1	-0,083169
0,184167	0,1	-0,060786
0,185833	0,1	-0,072965
0,187500	0,1	-0,089006
0,189167	0,1	-0,081290
0,190833	0,1	-0,059008
0,192500	0,1	-0,052984
0,194167	0,1	-0,069909
0,195833	0,1	-0,064650
0,197500	0,1	-0,092702
0,199167	0,1	-0,078286
0,200833	0,1	-0,063641
0,202500	0,1	-0,066094
0,204167	0,1	-0,029672
0,205833	0,1	-0,072700
0,207500	0,1	-0,100363
0,209167	0,1	-0,111218
0,210833	0,1	-0,046674
0,212500	0,1	-0,072643
0,214167	0,1	-0,056489
0,215833	0,1	-0,090827
0,217500	0,1	-0,092952
0,219167	0,1	-0,074892
0,220833	0,1	-0,081408
0,222500	0,1	-0,030354
0,224167	0,1	-0,105108
0,225833	0,1	-0,107765
0,227500	0,1	-0,114490
0,229167	0,1	-0,051816
0,230833	0,1	-0,065447
0,232500	0,1	-0,090307
0,234167	0,1	-0,066832
0,235833	0,1	-0,057945
0,237500	0,1	-0,063221
0,239167	0,1	-0,022153
0,240833	0,1	-0,123967
0,242500	0,1	-0,057497
0,244167	0,1	-0,058018
0,245833	0,1	-0,070604
0,247500	0,1	-0,078571
0,249167	0,1	-0,066550
0,250833	0,1	-0,075641
0,252500	0,1	-0,061550
0,254167	0,1	-0,037284
0,255833	0,1	-0,079927
0,257500	0,1	-0,057963
0,259167	0,1	-0,079105
0,260833	0,1	-0,077162
0,262500	0,1	-0,051651
0,264167	0,1	-0,022933
0,265833	0,1	-0,062339
0,267500	0,1	-0,047646
0,269167	0,1	-0,074504
0,270833	0,1	-0,056440
0,272500	0,1	-0,066031
0,274167	0,1	-0,069378
0,275833	0,1	-0,042998
0,277500	0,1	-0,081679
0,279167	0,1	-0,067910
0,280833	0,1	-0,056961
0,282500	0,1	-0,080319
0,284167	0,1	-0,022634
0,285833	0,1	-0,088811
0,287500	0,1	-0,031951
0,289167	0,1	-0,016589
0,290833	0,1	-0,099608
0,292500	0,1	-0,043543
0,294167	0,1	-0,066673
0,295833	0,1	-0,048535
0,297500	0,1	-0,060763
0,299167	0,1	-0,095157
0,300833	0,1	-0,007918
0,302500	0,1	-0,028785
0,304167	0,1	-0,062570
0,305833	0,1	-0,046051
0,307500	0,1	-0,039507
0,309167	0,1	-0,105221
0,310833	0,1	-0,048640
0,312500	0,1	-0,026017
0,314167	0,1	-0,064456
0,315833	0,1	-0,035873
0,317500	0,1	-0,078685
0,319167	0,1	-0,037275
0,320833	0,1	-0,050157
0,322500	0,1	-0,075236
0,324167	0,1	-0,014437
0,325833	0,1	-0,031994
0,327500	0,1	-0,035731
0,329167	0,1	-0,013782
0,330833	0,1	-0,043290
0,332500	0,1	-0,006571
0,334167	0,1	-0,052557
0,335833	0,1	-0,035748
0,337500	0,1	-0,066610
0,339167	0,1	-0,036857
0,340833	0,1	-0,034409
0,342500	0,1	-0,045888
0,344167	0,1	-0,041502
0,345833	0,1	-0,044586
0,347500	0,1	-0,054961
0,349167	0,1	-0,069047
0,350833	0,1	-0,032590
0,352500	0,1	-0,067715
0,354167	0,1	-0,034612
0,355833	0,1	-0,033810
0,357500	0,1	-0,039626
0,359167	0,1	-0,029253
0,360833	0,1	-0,028652
0,362500	0,1	-0,063908
0,364167	0,1	-0,072769
0,365833	0,1	-0,054140
0,367500	0,1	-0,061348
0,369167	0,1	-0,025513
0,370833	0,1	-0,016636
0,372500	0,1	-0,021987
0,374167	0,1	-0,045932
0,375833	0,1	-0,029594
0,377500	0,1	-0,027962
0,379167	0,1	-0,024277
0,380833	0,1	-0,027701
0,382500	0,1	-0,049156
0,384167	0,1	-0,010962
0,385833	0,1	-0,032380
0,387500	0,1	-0,019738
0,389167	0,1	-0,042586
0,390833	0,1	-0,021781
0,392500	0,1	-0,027545
0,394167	0,1	-0,025505
0,395833	0,1	0,003150
0,397500	0,1	-0,026604
0,399167	0,1	-0,028190
0,400833	0,1	-0,038953
0,402500	0,1	-0,037266
0,404167	0,1	-0,019936
0,405833	0,1	-0,040130
0,407500	0,1	-0,017345
0,409167	0,1	-0,017923
0,410833	0,1	-0,011844
0,412500	0,1	0,000527
0,414167	0,1	-0,030411
0,415833	0,1	-0,013353
0,417500	0,1	-0,046635
0,419167	0,1	-0,009795
0,420833	0,1	-0,035264
0,422500	0,1	-0,029943
0,424167	0,1	-0,044354
0,425833	0,1	-0,005588
0,427500	0,1	-0,007436
0,429167	0,1	0,023660
0,430833	0,1	-0,008734
0,432500	0,1	-0,011136
0,434167	0,1	-0,048861
0,435833	0,1	-0,041597
0,437500	0,1	0,004111
0,439167	0,1	-0,001510
0,440833	0,1	-0,027310
0,442500	0,1	-0,018860
0,444167	0,1	-0,029722
0,445833	0,1	-0,030986
0,447500	0,1	-0,013243
0,449167	0,1	-0,031703
0,450833	0,1	-0,011954
0,452500	0,1	0,003092
0,454167	0,1	0,011735
0,455833	0,1	0,011891
0,457500	0,1	0,010618
0,459167	0,1	-0,032036
0,460833	0,1	-0,000751
0,462500	0,1	-0,008250
0,464167	0,1	-0,022955
0,465833	0,1	-0,006383
0,467500	0,1	0,011474
0,469167	0,1	-0,047091
0,470833	0,1	-0,000693
0,472500	0,1	0,009541
0,474167	0,1	-0,037071
0,475833	0,1	-0,022636
0,477500	0,1	-0,024167
0,479167	0,1	0,027247
0,480833	0,1	-0,009239
0,482500	0,1	0,012070
0,484167	0,1	0,008194
0,485833	0,1	-0,011545
0,487500	0,1	-0,012778
0,489167	0,1	-0,000869
0,490833	0,1	0,003769
0,492500	0,1	-0,010121
0,494167	0,1	0,012776
0,495833	0,1	-0,007248
0,497500	0,1	0,004979
0,499167	0,1	-0,012590
0,500833	0,1	0,005961
0,502500	0,1	0,021852
0,504167	0,1	0,001657
0,505833	0,1	-0,021603
0,507500	0,1	-0,034500
0,509167	0,1	-0,016990
0,510833	0,1	-0,013363
0,512500	0,1	0,038209
0,514167	0,1	-0,001901
0,515833	0,1	-0,008311
0,517500	0,1	-0,033975
0,519167	0,1	0,030898
0,520833	0,1	0,010284
0,522500	0,1	0,019305
0,524167	0,1	0,044708
0,525833	0,1	0,034048
0,527500	0,1	-0,002914
0,529167	0,1	0,041742
0,530833	0,1	0,018361
0,532500	0,1	0,035116
0,534167	0,1	0,034582
0,535833	0,1	0,017408
0,537500	0,1	0,023925
0,539167	0,1	-0,003393
0,540833	0,1	0,023047
0,542500	0,1	0,042332
0,544167	0,1	0,014783
0,545833	0,1	0,019412
0,547500	0,1	0,023404
0,549167	0,1	0,032891
0,550833	0,1	0,006462
0,552500	0,1	0,052380
0,554167	0,1	0,041862
0,555833	0,1	0,009243
0,557500	0,1	0,020993
0,559167	0,1	0,012677
0,560833	0,1	0,027976
0,562500	0,1	0,030896
0,564167	0,1	0,016792
0,565833	0,1	0,052124
0,567500	0,1	0,046667
0,569167	0,1	0,093898
0,570833	0,1	0,050314
0,572500	0,1	0,041585
0,574167	0,1	0,037179
0,575833	0,1	0,052650
0,577500	0,1	0,062217
0,579167	0,1	0,040130
0,580833	0,1	0,036871
0,582500	0,1	0,081892
0,584167	0,1	0,054933
0,585833	0,1	0,043029
0,587500	0,1	0,060204
0,589167	0,1	0,062878
0,590833	0,1	0,086843
0,592500	0,1	0,080661
0,594167	0,1	0,030864
0,595833	0,1	0,066402
0,597500	0,1	0,047207
0,599167	0,1	0,084121
0,600833	0,1	0,045570
0,602500	0,1	0,070766
0,604167	0,1	0,073750
0,605833	0,1	0,074765
0,607500	0,1	0,080260
0,609167	0,1	0,080030
0,610833	0,1	0,050372
0,612500	0,1	0,080989
0,614167	0,1	0,079845
0,615833	0,1	0,049437
0,617500	0,1	0,055124
0,619167	0,1	0,084185
0,620833	0,1	0,091575
0,622500	0,1	0,102901
0,624167	0,1	0,038129
0,625833	0,1	0,079421
0,627500	0,1	0,079493
0,629167	0,1	0,107508
0,630833	0,1	0,092287
0,632500	0,1	0,091885
0,634167	0,1	0,128144
0,635833	0,1	0,080378
0,637500	0,1	0,126773
0,639167	0,1	0,106433
0,640833	0,1	0,065040
0,642500	0,1	0,133341
0,644167	0,1	0,125161
0,645833	0,1	0,090190
0,647500	0,1	0,117687
0,649167	0,1	0,076861
0,650833	0,1	0,097835
0,652500	0,1	0,116585
0,654167	0,1	0,114088
0,655833	0,1	0,138547
0,657500	0,1	0,114880
0,659167	0,1	0,141003
0,660833	0,1	0,133545
0,662500	0,1	0,121891
0,664167	0,1	0,130395
0,665833	0,1	0,107874
0,667500	0,1	0,153527
0,669167	0,1	0,145923
0,670833	0,1	0,160232
0,672500	0,1	0,156136
0,674167	0,1	0,128973
0,675833	0,1	0,108333
0,677500	0,1	0,112028
0,679167	0,1	0,123901
0,680833	0,1	0,145457
0,682500	0,1	0,157695
0,684167	0,1	0,162398
0,685833	0,1	0,138002
0,687500	0,1	0,190353
0,689167	0,1	0,129978
0,690833	0,1	0,139284
0,692500	0,1	0,114923
0,694167	0,1	0,191531
0,695833	0,1	0,156937
0,697500	0,1	0,142990
0,699167	0,1	0,189920
0,700833	0,1	0,193943
0,702500	0,1	0,166965
0,704167	0,1	0,161527
0,705833	0,1	0,116863
0,707500	0,1	0,178944
0,709167	0,1	0,216450
0,710833	0,1	0,164304
0,712500	0,1	0,177065
0,714167	0,1	0,142201
0,715833	0,1	0,209577
0,717500	0,1	0,174663
0,719167	0,1	0,230117
0,720833	0,1	0,190728
0,722500	0,1	0,185808
0,724167	0,1	0,199207
0,725833	0,1	0,211899
0,727500	0,1	0,150885
0,729167	0,1	0,173255
0,730833	0,1	0,214848
0,732500	0,1	0,196777
0,734167	0,1	0,162469
0,735833	0,1	0,217695
0,737500	0,1	0,203957
0,739167	0,1	0,217891
0,740833	0,1	0,208534
0,742500	0,1	0,215896
0,744167	0,1	0,228588
0,745833	0,1	0,220309
0,747500	0,1	0,236746
0,749167	0,1	0,239994
0,750833	0,1	0,271310
0,752500	0,1	0,251197
0,754167	0,1	0,261388
0,755833	0,1	0,278576
0,757500	0,1	0,254882
0,759167	0,1	0,272644
0,760833	0,1	0,259645
0,762500	0,1	0,278825
0,764167	0,1	0,280120
0,765833	0,1	0,288068
0,767500	0,1	0,289778
0,769167	0,1	0,278645
0,770833	0,1	0,274959
0,772500	0,1	0,252738
0,774167	0,1	0,295117
0,775833	0,1	0,271073
0,777500	0,1	0,272710
0,779167	0,1	0,263057
0,780833	0,1	0,274248
0,782500	0,1	0,258770
0,784167	0,1	0,281510
0,785833	0,1	0,292815
0,787500	0,1	0,316893
0,789167	0,1	0,301041
0,790833	0,1	0,321366
0,792500	0,1	0,254703
0,794167	0,1	0,329472
0,795833	0,1	0,262093
0,797500	0,1	0,319050
0,799167	0,1	0,296588
0,800833	0,1	0,299205
0,802500	0,1	0,289093
0,804167	0,1	0,295790
0,805833	0,1	0,267681
0,807500	0,1	0,241145
0,809167	0,1	0,301960
0,810833	0,1	0,275195
0,812500	0,1	0,302989
0,814167	0,1	0,336597
0,815833	0,1	0,308974
0,817500	0,1	0,281960
0,819167	0,1	0,318844
0,820833	0,1	0,293801
0,822500	0,1	0,290424
0,824167	0,1	0,322802
0,825833	0,1	0,281151
0,827500	0,1	0,342712
0,829167	0,1	0,325790
0,830833	0,1	0,288079
0,832500	0,1	0,284680
0,834167	0,1	0,326003
0,835833	0,1	0,317107
0,837500	0,1	0,319852
0,839167	0,1	0,305287
0,840833	0,1	0,307530
0,842500	0,1	0,326157
0,844167	0,1	0,333503
0,845833	0,1	0,327681
0,847500	0,1	0,348152
0,849167	0,1	0,361563
0,850833	0,1	0,349434
0,852500	0,1	0,308562
0,854167	0,1	0,320266
0,855833	0,1	0,330715
0,857500	0,1	0,321104
0,859167	0,1	0,329135
0,860833	0,1	0,328137
0,862500	0,1	0,322832
0,864167	0,1	0,366529
0,865833	0,1	0,394763
0,867500	0,1	0,344322
0,869167	0,1	0,373820
0,870833	0,1	0,348833
0,872500	0,1	0,320983
0,874167	0,1	0,352234
0,875833	0,1	0,369787
0,877500	0,1	0,365061
0,879167	0,1	0,385957
0,880833	0,1	0,371337
0,882500	0,1	0,356265
0,884167	0,1	0,376759
0,885833	0,1	0,361845
0,887500	0,1	0,363941
0,889167	0,1	0,381929
0,890833	0,1	0,369982
0,892500	0,1	0,347106
0,894167	0,1	0,390053
0,895833	0,1	0,378016
0,897500	0,1	0,417145
0,899167	0,1	0,382186
0,900833	0,1	0,387629
0,902500	0,1	0,354396
0,904167	0,1	0,383421
0,905833	0,1	0,384696
0,907500	0,1	0,388174
0,909167	0,1	0,412290
0,910833	0,1	0,423517
0,912500	0,1	0,462299
0,914167	0,1	0,422138
0,915833	0,1	0,411222
0,917500	0,1	0,421959
0,919167	0,1	0,428314
0,920833	0,1	0,433059
0,922500	0,1	0,445234
0,924167	0,1	0,433203
0,925833	0,1	0,465693
0,927500	0,1	0,429323
0,929167	0,1	0,444006
0,930833	0,1	0,458495
0,932500	0,1	0,446618
0,934167	0,1	0,443175
0,935833	0,1	0,456559
0,937500	0,1	0,444681
0,939167	0,1	0,489217
0,940833	0,1	0,465441
0,942500	0,1	0,515618
0,944167	0,1	0,478062
0,945833	0,1	0,483963
0,947500	0,1	0,526822
0,949167	0,1	0,484937
0,950833	0,1	0,462250
0,952500	0,1	0,506864
0,954167	0,1	0,499621
0,955833	0,1	0,584333
0,957500	0,1	0,501148
0,959167	0,1	0,551152
0,960833	0,1	0,535000
0,962500	0,1	0,500618
0,964167	0,1	0,520144
0,965833	0,1	0,508687
0,967500	0,1	0,559481
0,969167	0,1	0,502469
0,970833	0,1	0,543497
0,972500	0,1	0,532662
0,974167	0,1	0,542923
0,975833	0,1	0,598991
0,977500	0,1	0,608913
0,979167	0,1	0,595907
0,980833	0,1	0,581149
0,982500	0,1	0,544645
0,984167	0,1	0,627715
0,985833	0,1	0,619994
0,987500	0,1	0,609983
0,989167	0,1	0,618406
0,990833	0,1	0,639742
0,992500	0,1	0,646818
0,994167	0,1	0,690624
0,995833	0,1	0,669294
0,997500	0,1	0,682560
0,999167	0,1	0,683560
1,000833	0,1	0,706000
1,002500	0,1	0,691638
1,004167	0,1	0,745743
1,005833	0,1	0,731325
1,007500	0,1	0,745106
1,009167	0,1	0,763061
1,010833	0,1	0,784053
1,012500	0,1	0,730365
1,014167	0,1	0,794929
1,015833	0,1	0,843668
1,017500	0,1	0,885178
1,019167	0,1	0,839689
1,020833	0,1	0,852661
1,022500	0,1	0,859995
1,024167	0,1	0,837326
1,025833	0,1	0,862093
1,027500	0,1	0,924331
1,029167	0,1	0,928933
1,030833	0,1	0,948633
1,032500	0,1	0,954583
1,034167	0,1	0,948610
1,035833	0,1	0,988795
1,037500	0,1	0,969461
1,039167	0,1	0,963800
1,040833	0,1	1,030244
1,042500	0,1	0,983160
1,044167	0,1	0,995621
1,045833	0,1	1,047184
1,047500	0,1	1,038570
1,049167	0,1	1,058864
1,050833	0,1	1,117015
1,052500	0,1	1,088254
1,054167	0,1	1,116368
1,055833	0,1	1,147978
1,057500	0,1	1,221968
1,059167	0,1	1,285316
1,060833	0,1	1,395591
1,062500	0,1	1,475748
1,064167	0,1	1,618090
1,065833	0,1	1,853198
1,067500	0,1	2,093073
1,069167	0,1	2,440598
1,070833	0,1	2,814376
1,072500	0,1	3,302521
1,074167	0,1	3,901879
1,075833	0,1	4,551101
1,077500	0,1	5,404991
1,079167	0,1	6,380101
1,080833	0,1	7,450820
1,082500	0,1	8,731137
1,084167	0,1	10,063224
1,085833	0,1	11,625732
1,087500	0,1	13,231849
1,089167	0,1	15,022433
1,090833	0,1	16,873595
1,092500	0,1	18,684206
1,094167	0,1	20,588622
1,095833	0,1	22,562301
1,097500	0,1	24,516293
1,099167	0,1	26,323484
1,100833	0,1	28,143335
1,102500	0,1	29,781244
1,104167	0,1	31,261155
1,105833	0,1	32,715806
1,107500	0,1	33,922629
1,109167	0,1	34,975073
1,110833	0,1	35,850473
1,112500	0,1	36,562811
1,114167	0,1	37,053418
1,115833	0,1	37,415000
1,117500	0,1	37,561251
1,119167	0,1	37,621263
1,120833	0,1	37,443240
1,122500	0,1	37,201781
1,124167	0,1	36,867344
1,125833	0,1	36,411386
1,127500	0,1	35,814433
1,129167	0,1	35,230583
1,130833	0,1	34,501651
1,132500	0,1	33,800492
1,134167	0,1	33,009363
1,135833	0,1	32,276967
1,137500	0,1	31,437257
1,139167	0,1	30,696816
1,140833	0,1	29,881869
1,142500	0,1	29,110392
1,144167	0,1	28,446055
1,145833	0,1	27,746156
1,147500	0,1	27,119017
1,149167	0,1	26,575194
1,150833	0,1	25,968166
1,152500	0,1	25,506552
1,154167	0,1	25,077984
1,155833	0,1	24,711941
1,157500	0,1	24,370094
1,159167	0,1	24,084183
1,160833	0,1	23,830211
1,162500	0,1	23,679093
1,164167	0,1	23,496829
1,165833	0,1	23,279173
1,167500	0,1	23,226843
1,169167	0,1	23,102137
1,170833	0,1	23,005322
1,172500	0,1	22,969897
1,174167	0,1	22,883073
1,175833	0,1	22,830790
1,177500	0,1	22,740075
1,179167	0,1	22,701665
1,180833	0,1	22,683101
1,182500	0,1	22,634693
1,184167	0,1	22,632829
1,185833	0,1	22,638261
1,187500	0,1	22,630957
1,189167	0,1	22,726480
1,190833	0,1	22,796488
1,192500	0,1	23,004236
1,194167	0,1	23,267403
1,195833	0,1	23,599817
1,197500	0,1	24,148566
1,199167	0,1	24,859354
1,200833	0,1	25,695223
1,202500	0,1	26,729224
1,204167	0,1	27,993119
1,205833	0,1	29,550536
1,207500	0,1	31,379235
1,209167	0,1	33,511921
1,210833	0,1	35,904732
1,212500	0,1	38,747954
1,214167	0,1	41,838539
1,215833	0,1	45,266158
1,217500	0,1	48,985268
1,219167	0,1	53,056039
1,220833	0,1	57,357567
1,222500	0,1	61,935471
1,224167	0,1	66,649891
1,225833	0,1	71,554543
1,227500	0,1	76,503312
1,229167	0,1	81,588335
1,230833	0,1	86,650769
1,232500	0,1	91,654388
1,234167	0,1	96,547483
1,235833	0,1	101,255522
1,237500	0,1	105,838737
1,239167	0,1	110,202635
1,240833	0,1	114,237899
1,242500	0,1	118,057999
1,244167	0,1	121,507055
1,245833	0,1	124,678209
1,247500	0,1	127,364416
1,249167	0,1	129,836843
1,250833	0,1	131,964255
1,252500	0,1	133,691727
1,254167	0,1	135,050636
1,255833	0,1	136,081542
1,257500	0,1	136,712142
1,259167	0,1	137,068685
1,260833	0,1	137,113811
1,262500	0,1	136,789120
1,264167	0,1	136,176708
1,265833	0,1	135,267424
1,267500	0,1	134,118669
1,269167	0,1	132,684282
1,270833	0,1	131,029485
1,272500	0,1	129,142282
1,274167	0,1	127,076832
1,275833	0,1	124,795139
1,277500	0,1	122,414232
1,279167	0,1	119,848622
1,280833	0,1	117,174853
1,282500	0,1	114,496536
1,284167	0,1	111,634509
1,285833	0,1	108,710627
1,287500	0,1	105,767058
1,289167	0,1	102,828819
1,290833	0,1	99,905393
1,292500	0,1	96,966392
1,294167	0,1	94,033266
1,295833	0,1	91,205499
1,297500	0,1	88,372653
1,299167	0,1	85,608306
1,300833	0,1	82,891159
1,302500	0,1	80,254872
1,304167	0,1	77,727077
1,305833	0,1	75,277582
1,307500	0,1	72,871362
1,309167	0,1	70,629288
1,310833	0,1	68,408731
1,312500	0,1	66,311104
1,314167	0,1	64,350388
1,315833	0,1	62,396611
1,317500	0,1	60,486737
1,319167	0,1	58,799322
1,320833	0,1	57,083921
1,322500	0,1	55,445541
1,324167	0,1	53,868932
1,325833	0,1	52,415172
1,327500	0,1	51,013373
1,329167	0,1	49,668887
1,330833	0,1	48,271325
1,332500	0,1	47,106838
1,334167	0,1	45,891623
1,335833	0,1	44,730735
1,337500	0,1	43,606235
1,339167	0,1	42,526667
1,340833	0,1	41,457260
1,342500	0,1	40,467262
1,344167	0,1	39,471152
1,345833	0,1	38,560921
1,347500	0,1	37,681731
1,349167	0,1	36,776227
1,350833	0,1	35,944980
1,352500	0,1	35,065909
1,354167	0,1	34,262105
1,355833	0,1	33,512303
1,357500	0,1	32,746323
1,359167	0,1	31,946791
1,360833	0,1	31,293399
1,362500	0,1	30,546604
1,364167	0,1	29,889676
1,365833	0,1	29,217261
1,367500	0,1	28,578710
1,369167	0,1	27,925988
1,370833	0,1	27,286813
1,372500	0,1	26,684365
1,374167	0,1	26,108752
1,375833	0,1	25,558201
1,377500	0,1	24,987685
1,379167	0,1	24,441439
1,380833	0,1	23,925044
1,382500	0,1	23,443299
1,384167	0,1	22,952422
1,385833	0,1	22,449001
1,387500	0,1	21,995061
1,389167	0,1	21,515318
1,390833	0,1	21,112830
1,392500	0,1	20,706691
1,394167	0,1	20,292393
1,395833	0,1	19,921326
1,397500	0,1	19,581799
1,399167	0,1	19,227955
1,400833	0,1	18,872098
1,402500	0,1	18,533478
1,404167	0,1	18,205314
1,405833	0,1	17,909966
1,407500	0,1	17,626983
1,409167	0,1	17,344123
1,410833	0,1	17,027013
1,412500	0,1	16,792501
1,414167	0,1	16,544070
1,415833	0,1	16,338459
1,417500	0,1	16,101276
1,419167	0,1	15,896168
1,420833	0,1	15,656810
1,422500	0,1	15,453652
1,424167	0,1	15,251652
1,425833	0,1	15,079672
1,427500	0,1	14,832481
1,429167	0,1	14,651331
1,430833	0,1	14,440430
1,432500	0,1	14,323322
1,434167	0,1	14,143829
1,435833	0,1	13,929651
1,437500	0,1	13,754452
1,439167	0,1	13,613675
1,440833	0,1	13,455395
1,442500	0,1	13,283280
1,444167	0,1	13,133723
1,445833	0,1	12,946966
1,447500	0,1	12,804259
1,449167	0,1	12,601904
1,450833	0,1	12,470643
1,452500	0,1	12,285527
1,454167	0,1	12,151749
1,455833	0,1	11,981930
1,457500	0,1	11,826034
1,459167	0,1	11,685018
1,460833	0,1	11,512577
1,462500	0,1	11,398861
1,464167	0,1	11,256420
1,465833	0,1	11,085082
1,467500	0,1	10,961730
1,469167	0,1	10,809129
1,470833	0,1	10,667308
1,472500	0,1	10,503351
1,474167	0,1	10,417588
1,475833	0,1	10,238248
1,477500	0,1	10,183859
1,479167	0,1	10,038034
1,480833	0,1	9,852434
1,482500	0,1	9,790106
1,484167	0,1	9,685787
1,485833	0,1	9,581315
1,487500	0,1	9,472155
1,489167	0,1	9,359624
1,490833	0,1	9,312905
1,492500	0,1	9,173503
1,494167	0,1	9,112570
1,495833	0,1	9,016209
1,497500	0,1	8,920945
1,499167	0,1	8,841897
1,500833	0,1	8,752820
1,502500	0,1	8,688100
1,504167	0,1	8,634326
1,505833	0,1	8,546787
1,507500	0,1	8,454474
1,509167	0,1	8,453043
1,510833	0,1	8,375888
1,512500	0,1	8,294998
1,514167	0,1	8,275531
1,515833	0,1	8,258329
1,517500	0,1	8,188706
1,519167	0,1	8,134352
1,520833	0,1	8,115824
1,522500	0,1	8,100561
1,524167	0,1	8,029318
1,525833	0,1	7,957295
1,527500	0,1	7,922471
1,529167	0,1	7,915145
1,530833	0,1	7,865816
1,532500	0,1	7,852494
1,534167	0,1	7,807957
1,535833	0,1	7,800631
1,537500	0,1	7,738582
1,539167	0,1	7,754869
1,540833	0,1	7,727576
1,542500	0,1	7,691866
1,544167	0,1	7,668342
1,545833	0,1	7,694026
1,547500	0,1	7,641539
1,549167	0,1	7,663997
1,550833	0,1	7,625505
1,552500	0,1	7,606848
1,554167	0,1	7,609926
1,555833	0,1	7,553902
1,557500	0,1	7,514909
1,559167	0,1	7,556962
1,560833	0,1	7,522124
1,562500	0,1	7,511337
1,564167	0,1	7,494092
1,565833	0,1	7,510766
1,567500	0,1	7,480594
1,569167	0,1	7,499798
1,570833	0,1	7,405289
1,572500	0,1	7,442258
1,574167	0,1	7,462034
1,575833	0,1	7,395628
1,577500	0,1	7,365168
1,579167	0,1	7,372652
1,580833	0,1	7,373497
1,582500	0,1	7,327233
1,584167	0,1	7,293414
1,585833	0,1	7,287222
1,587500	0,1	7,275985
1,589167	0,1	7,258849
1,590833	0,1	7,243204
1,592500	0,1	7,253875
1,594167	0,1	7,189178
1,595833	0,1	7,206298
1,597500	0,1	7,190667
1,599167	0,1	7,172313
1,600833	0,1	7,163414
1,602500	0,1	7,135423
1,604167	0,1	7,149269
1,605833	0,1	7,098908
1,607500	0,1	7,111815
1,609167	0,1	7,071102
1,610833	0,1	7,096552
1,612500	0,1	7,126326
1,614167	0,1	7,106956
1,615833	0,1	7,134661
1,617500	0,1	7,128954
1,619167	0,1	7,236993
1,620833	0,1	7,286833
1,622500	0,1	7,328987
1,624167	0,1	7,350074
1,625833	0,1	7,470816
1,627500	0,1	7,602307
1,629167	0,1	7,753306
1,630833	0,1	7,894013
1,632500	0,1	8,074115
1,634167	0,1	8,296945
1,635833	0,1	8,547800
1,637500	0,1	8,860909
1,639167	0,1	9,175693
1,640833	0,1	9,590938
1,642500	0,1	10,042829
1,644167	0,1	10,555551
1,645833	0,1	11,169995
1,647500	0,1	11,827916
1,649167	0,1	12,596597
1,650833	0,1	13,419886
1,652500	0,1	14,425196
1,654167	0,1	15,488639
1,655833	0,1	16,662007
1,657500	0,1	17,996175
1,659167	0,1	19,397619
1,660833	0,1	21,014784
1,662500	0,1	22,769676
1,664167	0,1	24,714912
1,665833	0,1	26,804652
1,667500	0,1	29,109665
1,669167	0,1	31,632391
1,670833	0,1	34,350556
1,672500	0,1	37,305452
1,674167	0,1	40,454714
1,675833	0,1	43,916194
1,677500	0,1	47,532315
1,679167	0,1	51,483935
1,680833	0,1	55,650176
1,682500	0,1	60,121612
1,684167	0,1	64,783829
1,685833	0,1	69,781682
1,687500	0,1	75,123815
1,689167	0,1	80,685029
1,690833	0,1	86,533799
1,692500	0,1	92,655274
1,694167	0,1	99,081572
1,695833	0,1	105,808787
1,697500	0,1	112,715320
1,699167	0,1	119,904690
1,700833	0,1	127,455552
1,702500	0,1	135,195454
1,704167	0,1	143,192621
1,705833	0,1	151,440515
1,707500	0,1	159,843707
1,709167	0,1	168,429103
1,710833	0,1	177,203110
1,712500	0,1	186,196889
1,714167	0,1	195,263436
1,715833	0,1	204,568209
1,717500	0,1	213,834281
1,719167	0,1	223,306987
1,720833	0,1	232,788661
1,722500	0,1	242,274567
1,724167	0,1	251,789191
1,725833	0,1	261,345150
1,727500	0,1	270,879959
1,729167	0,1	280,327036
1,730833	0,1	289,706253
1,732500	0,1	299,079302
1,734167	0,1	308,160150
1,735833	0,1	317,243600
1,737500	0,1	326,081750
1,739167	0,1	334,694733
1,740833	0,1	343,205160
1,742500	0,1	351,407041
1,744167	0,1	359,435413
1,745833	0,1	367,250727
1,747500	0,1	374,660707
1,749167	0,1	381,832855
1,750833	0,1	388,645069
1,752500	0,1	395,248966
1,754167	0,1	401,406011
1,755833	0,1	407,326248
1,757500	0,1	412,819447
1,759167	0,1	417,914277
1,760833	0,1	422,658468
1,762500	0,1	427,151449
1,764167	0,1	431,035610
1,765833	0,1	434,731059
1,767500	0,1	437,964296
1,769167	0,1	440,754068
1,770833	0,1	443,258471
1,772500	0,1	445,311099
1,774167	0,1	447,053292
1,775833	0,1	448,273809
1,777500	0,1	449,184324
1,779167	0,1	449,845109
1,780833	0,1	449,915350
1,782500	0,1	449,714605
1,784167	0,1	449,205560
1,785833	0,1	448,234925
1,787500	0,1	446,956348
1,789167	0,1	445,446642
1,790833	0,1	443,545806
1,792500	0,1	441,275599
1,794167	0,1	438,726058
1,795833	0,1	435,872089
1,797500	0,1	432,666294
1,799167	0,1	429,451311
1,800833	0,1	425,744206
1,802500	0,1	421,784645
1,804167	0,1	417,695098
1,805833	0,1	413,379729
1,807500	0,1	408,693676
1,809167	0,1	403,947605
1,810833	0,1	398,932489
1,812500	0,1	393,852028
1,814167	0,1	388,524765
1,815833	0,1	383,027610
1,817500	0,1	377,477983
1,819167	0,1	371,754512
1,820833	0,1	365,905884
1,822500	0,1	360,026789
1,824167	0,1	353,935323
1,825833	0,1	347,846814
1,827500	0,1	341,749389
1,829167	0,1	335,535518
1,830833	0,1	329,218243
1,832500	0,1	322,946230
1,834167	0,1	316,687871
1,835833	0,1	310,334097
1,837500	0,1	304,000271
1,839167	0,1	297,711131
1,840833	0,1	291,390440
1,842500	0,1	285,123920
1,844167	0,1	278,934682
1,845833	0,1	272,712867
1,847500	0,1	266,582472
1,849167	0,1	260,487282
1,850833	0,1	254,451872
1,852500	0,1	248,499390
1,854167	0,1	242,665355
1,855833	0,1	236,816054
1,857500	0,1	231,116443
1,859167	0,1	225,501758
1,860833	0,1	219,942658
1,862500	0,1	214,534406
1,864167	0,1	209,179941
1,865833	0,1	203,842724
1,867500	0,1	198,682952
1,869167	0,1	193,627361
1,870833	0,1	188,614912
1,872500	0,1	183,729553
1,874167	0,1	179,010824
1,875833	0,1	174,307009
1,877500	0,1	169,650345
1,879167	0,1	165,221939
1,880833	0,1	160,843915
1,882500	0,1	156,551168
1,884167	0,1	152,381820
1,885833	0,1	148,280712
1,887500	0,1	144,282917
1,889167	0,1	140,356766
1,890833	0,1	136,590307
1,892500	0,1	132,893137
1,894167	0,1	129,254587
1,895833	0,1	125,758728
1,897500	0,1	122,379940
1,899167	0,1	119,013859
1,900833	0,1	115,746913
1,902500	0,1	112,636938
1,904167	0,1	109,513021
1,905833	0,1	106,552489
1,907500	0,1	103,655164
1,909167	0,1	100,836318
1,910833	0,1	98,085754
1,912500	0,1	95,422517
1,914167	0,1	92,844404
1,915833	0,1	90,307688
1,917500	0,1	87,849898
1,919167	0,1	85,487138
1,920833	0,1	83,170513
1,922500	0,1	80,922375
1,924167	0,1	78,730004
1,925833	0,1	76,590215
1,927500	0,1	74,608410
1,929167	0,1	72,540087
1,930833	0,1	70,603417
1,932500	0,1	68,729067
1,934167	0,1	66,886936
1,935833	0,1	65,171746
1,937500	0,1	63,428467
1,939167	0,1	61,727237
1,940833	0,1	60,145720
1,942500	0,1	58,625523
1,944167	0,1	57,056871
1,945833	0,1	55,583580
1,947500	0,1	54,128780
1,949167	0,1	52,805543
1,950833	0,1	51,429090
1,952500	0,1	50,106645
1,954167	0,1	48,878716
1,955833	0,1	47,628163
1,957500	0,1	46,481066
1,959167	0,1	45,313484
1,960833	0,1	44,233373
1,962500	0,1	43,146212
1,964167	0,1	42,159644
1,965833	0,1	41,141320
1,967500	0,1	40,186195
1,969167	0,1	39,242517
1,970833	0,1	38,329147
1,972500	0,1	37,474080
1,974167	0,1	36,596163
1,975833	0,1	35,817541
1,977500	0,1	35,038039
1,979167	0,1	34,219848
1,980833	0,1	33,530731
1,982500	0,1	32,849522
1,984167	0,1	32,179214
1,985833	0,1	31,550331
1,987500	0,1	30,854325
1,989167	0,1	30,328907
1,990833	0,1	29,728217
1,992500	0,1	29,157242
1,994167	0,1	28,638869
1,995833	0,1	28,148384
1,997500	0,1	27,630088
1,999167	0,1	27,177822
2,000833	0,1	26,721171
2,002500	0,1	26,288681
2,004167	0,1	25,862184
2,005833	0,1	25,463179
2,007500	0,1	25,064962
2,009167	0,1	24,711415
2,010833	0,1	24,417386
2,012500	0,1	24,064603
2,014167	0,1	23,772671
2,015833	0,1	23,445224
2,017500	0,1	23,155666
2,019167	0,1	22,880456
2,020833	0,1	22,595981
2,022500	0,1	22,340089
2,024167	0,1	22,166428
2,025833	0,1	21,948561
2,027500	0,1	21,722153
2,029167	0,1	21,543741
2,030833	0,1	21,349158
2,032500	0,1	21,116026
2,034167	0,1	20,964713
2,035833	0,1	20,795644
2,037500	0,1	20,648943
2,039167	0,1	20,457171
2,040833	0,1	20,367480
2,042500	0,1	20,221611
2,044167	0,1	20,061724
2,045833	0,1	19,964160
2,047500	0,1	19,850377
2,049167	0,1	19,732035
2,050833	0,1	19,603255
2,052500	0,1	19,518076
2,054167	0,1	19,442325
2,055833	0,1	19,305744
2,057500	0,1	19,177120
2,059167	0,1	19,119759
2,060833	0,1	19,030360
2,062500	0,1	18,948395
2,064167	0,1	18,857011
2,065833	0,1	18,778586
2,067500	0,1	18,684813
2,069167	0,1	18,636134
2,070833	0,1	18,562113
2,072500	0,1	18,500616
2,074167	0,1	18,371946
2,075833	0,1	18,349725
2,077500	0,1	18,265292
2,079167	0,1	18,196848
2,080833	0,1	18,098085
2,082500	0,1	18,051112
2,084167	0,1	17,918336
2,085833	0,1	17,922537
2,087500	0,1	17,787862
2,089167	0,1	17,769255
2,090833	0,1	17,706490
2,092500	0,1	17,616159
2,094167	0,1	17,527132
2,095833	0,1	17,438311
2,097500	0,1	17,402854
2,099167	0,1	17,307425
2,100833	0,1	17,248349
2,102500	0,1	17,144439
2,104167	0,1	17,092506
2,105833	0,1	17,020205
2,107500	0,1	16,929553
2,109167	0,1	16,852226
2,110833	0,1	16,776740
2,112500	0,1	16,707857
2,114167	0,1	16,676489
2,115833	0,1	16,587137
2,117500	0,1	16,441156
2,119167	0,1	16,395074
2,120833	0,1	16,278595
2,122500	0,1	16,236145
2,124167	0,1	16,149277
2,125833	0,1	16,086913
2,127500	0,1	15,998211
2,129167	0,1	15,915801
2,130833	0,1	15,809614
2,132500	0,1	15,710657
2,134167	0,1	15,666135
2,135833	0,1	15,592224
2,137500	0,1	15,478213
2,139167	0,1	15,425307
2,140833	0,1	15,337380
2,142500	0,1	15,224138
2,144167	0,1	15,113313
2,145833	0,1	15,056443
2,147500	0,1	14,957945
2,149167	0,1	14,878102
2,150833	0,1	14,788721
2,152500	0,1	14,731589
2,154167	0,1	14,634669
2,155833	0,1	14,535562
2,157500	0,1	14,486758
2,159167	0,1	14,388391
2,160833	0,1	14,285914
2,162500	0,1	14,206103
2,164167	0,1	14,135889
2,165833	0,1	14,053286
2,167500	0,1	13,952101
2,169167	0,1	13,834772
2,170833	0,1	13,806229
2,172500	0,1	13,759423
2,174167	0,1	13,618311
2,175833	0,1	13,576350
2,177500	0,1	13,443447
2,179167	0,1	13,367506
2,180833	0,1	13,336217
2,182500	0,1	13,229176
2,184167	0,1	13,163670
2,185833	0,1	13,042288
2,187500	0,1	13,008960
2,189167	0,1	12,906524
2,190833	0,1	12,847984
2,192500	0,1	12,765612
2,194167	0,1	12,676377
2,195833	0,1	12,624317
2,197500	0,1	12,564967
2,199167	0,1	12,481130
2,200833	0,1	12,409313
2,202500	0,1	12,360685
2,204167	0,1	12,251138
2,205833	0,1	12,194216
2,207500	0,1	12,168272
2,209167	0,1	12,086107
2,210833	0,1	12,033890
2,212500	0,1	11,998998
2,214167	0,1	11,903566
2,215833	0,1	11,836635
2,217500	0,1	11,795800
2,219167	0,1	11,722554
2,220833	0,1	11,655792
2,222500	0,1	11,606119
2,224167	0,1	11,546944
2,225833	0,1	11,494882
2,227500	0,1	11,473624
2,229167	0,1	11,402259
2,230833	0,1	11,338571
2,232500	0,1	11,317857
2,234167	0,1	11,284175
2,235833	0,1	11,274506
2,237500	0,1	11,152258
2,239167	0,1	11,153828
2,240833	0,1	11,113709
2,242500	0,1	11,053466
2,244167	0,1	11,050913
2,245833	0,1	10,959294
2,247500	0,1	10,930573
2,249167	0,1	10,906879
2,250833	0,1	10,890570
2,252500	0,1	10,809277
2,254167	0,1	10,787889
2,255833	0,1	10,741741
2,257500	0,1	10,702862
2,259167	0,1	10,671305
2,260833	0,1	10,656934
2,262500	0,1	10,612950
2,264167	0,1	10,566204
2,265833	0,1	10,481219
2,267500	0,1	10,442518
2,269167	0,1	10,422257
2,270833	0,1	10,427869
2,272500	0,1	10,379398
2,274167	0,1	10,311932
2,275833	0,1	10,289198
2,277500	0,1	10,266766
2,279167	0,1	10,178544
2,280833	0,1	10,167091
2,282500	0,1	10,118262
2,284167	0,1	10,083751
2,285833	0,1	10,053248
2,287500	0,1	10,014149
2,289167	0,1	9,967331
2,290833	0,1	9,936534
2,292500	0,1	9,893978
2,294167	0,1	9,917010
2,295833	0,1	9,789280
2,297500	0,1	9,760795
2,299167	0,1	9,746035
2,300833	0,1	9,691185
2,302500	0,1	9,681772
2,304167	0,1	9,668999
2,305833	0,1	9,601668
2,307500	0,1	9,537458
2,309167	0,1	9,525199
2,310833	0,1	9,481504
2,312500	0,1	9,479725
2,314167	0,1	9,400709
2,315833	0,1	9,369491
2,317500	0,1	9,349552
2,319167	0,1	9,309683
2,320833	0,1	9,278380
2,322500	0,1	9,223679
2,324167	0,1	9,227176
2,325833	0,1	9,173278
2,327500	0,1	9,151863
2,329167	0,1	9,113704
2,330833	0,1	9,070735
2,332500	0,1	9,055669
2,334167	0,1	9,031686
2,335833	0,1	8,980653
2,337500	0,1	8,978512
2,339167	0,1	8,965757
2,340833	0,1	8,916023
2,342500	0,1	8,952784
2,344167	0,1	8,904075
2,345833	0,1	8,887767
2,347500	0,1	8,892622
2,349167	0,1	8,856920
2,350833	0,1	8,895955
2,352500	0,1	8,862033
2,354167	0,1	8,896691
2,355833	0,1	8,864890
2,357500	0,1	8,893426
2,359167	0,1	8,891587
2,360833	0,1	8,921751
2,362500	0,1	8,972600
2,364167	0,1	8,991922
2,365833	0,1	9,020053
2,367500	0,1	9,051847
2,369167	0,1	9,116842
2,370833	0,1	9,143701
2,372500	0,1	9,201437
2,374167	0,1	9,325635
2,375833	0,1	9,370166
2,377500	0,1	9,426094
2,379167	0,1	9,508042
2,380833	0,1	9,607978
2,382500	0,1	9,740619
2,384167	0,1	9,843895
2,385833	0,1	9,997249
2,387500	0,1	10,062782
2,389167	0,1	10,256519
2,390833	0,1	10,423435
2,392500	0,1	10,601223
2,394167	0,1	10,740649
2,395833	0,1	10,942090
2,397500	0,1	11,201174
2,399167	0,1	11,333879
2,400833	0,1	11,577186
2,402500	0,1	11,805196
2,404167	0,1	12,088714
2,405833	0,1	12,322924
2,407500	0,1	12,642141
2,409167	0,1	12,964975
2,410833	0,1	13,182240
2,412500	0,1	13,536414
2,414167	0,1	13,876226
2,415833	0,1	14,196478
2,417500	0,1	14,511763
2,419167	0,1	14,924610
2,420833	0,1	15,291471
2,422500	0,1	15,662684
2,424167	0,1	16,044257
2,425833	0,1	16,459085
2,427500	0,1	16,880083
2,429167	0,1	17,275521
2,430833	0,1	17,754868
2,432500	0,1	18,168326
2,434167	0,1	18,616470
2,435833	0,1	19,096130
2,437500	0,1	19,525257
2,439167	0,1	20,042895
2,440833	0,1	20,535732
2,442500	0,1	21,022021
2,444167	0,1	21,539806
2,445833	0,1	22,076895
2,447500	0,1	22,627066
2,449167	0,1	23,227545
2,450833	0,1	23,798936
2,452500	0,1	24,436595
2,454167	0,1	25,037633
2,455833	0,1	25,742717
2,457500	0,1	26,472858
2,459167	0,1	27,230751
2,460833	0,1	28,058091
2,462500	0,1	28,932623
2,464167	0,1	29,888140
2,465833	0,1	30,932462
2,467500	0,1	32,067052
2,469167	0,1	33,242458
2,470833	0,1	34,647437
2,472500	0,1	36,145304
2,474167	0,1	37,773238
2,475833	0,1	39,604028
2,477500	0,1	41,576312
2,479167	0,1	43,765427
2,480833	0,1	46,184077
2,482500	0,1	48,887969
2,484167	0,1	51,785540
2,485833	0,1	55,030682
2,487500	0,1	58,610700
2,489167	0,1	62,530288
2,490833	0,1	66,779243
2,492500	0,1	71,463556
2,494167	0,1	76,580591
2,495833	0,1	82,087603
2,497500	0,1	88,111352
2,499167	0,1	94,599164
2,500833	0,1	101,708903
2,502500	0,1	109,341323
2,504167	0,1	117,519975
2,505833	0,1	126,261519
2,507500	0,1	135,696357
2,509167	0,1	145,703286
2,510833	0,1	156,349095
2,512500	0,1	167,678183
2,514167	0,1	179,683594
2,515833	0,1	192,286490
2,517500	0,1	205,645099
2,519167	0,1	219,662598
2,520833	0,1	234,245941
2,522500	0,1	249,544472
2,524167	0,1	265,466652
2,525833	0,1	281,989160
2,527500	0,1	299,081488
2,529167	0,1	316,732010
2,530833	0,1	334,756168
2,532500	0,1	353,425308
2,534167	0,1	372,532361
2,535833	0,1	391,890330
2,537500	0,1	411,682781
2,539167	0,1	431,752622
2,540833	0,1	452,124375
2,542500	0,1	472,520064
2,544167	0,1	492,981458
2,545833	0,1	513,564339
2,547500	0,1	534,124086
2,549167	0,1	554,541037
2,550833	0,1	575,040756
2,552500	0,1	595,063121
2,554167	0,1	614,992287
2,555833	0,1	634,596413
2,557500	0,1	653,759287
2,559167	0,1	672,615679
2,560833	0,1	690,848568
2,562500	0,1	708,739750
2,564167	0,1	726,203458
2,565833	0,1	742,945084
2,567500	0,1	758,963320
2,569167	0,1	774,577766
2,570833	0,1	789,436611
2,572500	0,1	803,635182
2,574167	0,1	817,208674
2,575833	0,1	829,971071
2,577500	0,1	842,268673
2,579167	0,1	853,687576
2,580833	0,1	864,425497
2,582500	0,1	874,519565
2,584167	0,1	883,923244
2,585833	0,1	892,858623
2,587500	0,1	900,973856
2,589167	0,1	908,498616
2,590833	0,1	915,378253
2,592500	0,1	921,688326
2,594167	0,1	927,267545
2,595833	0,1	932,343775
2,597500	0,1	936,799900
2,599167	0,1	940,659493
2,600833	0,1	944,180405
2,602500	0,1	946,906803
2,604167	0,1	949,270611
2,605833	0,1	951,232395
2,607500	0,1	952,586791
2,609167	0,1	953,287698
2,610833	0,1	953,873349
2,612500	0,1	953,862598
2,614167	0,1	953,364525
2,615833	0,1	952,564088
2,617500	0,1	951,279114
2,619167	0,1	949,581594
2,620833	0,1	947,667478
2,622500	0,1	945,340915
2,624167	0,1	942,433490
2,625833	0,1	939,170615
2,627500	0,1	935,941442
2,629167	0,1	932,032357
2,630833	0,1	927,981015
2,632500	0,1	923,500584
2,634167	0,1	918,724679
2,635833	0,1	913,544466
2,637500	0,1	908,099364
2,639167	0,1	902,490309
2,640833	0,1	896,443778
2,642500	0,1	890,158909
2,644167	0,1	883,541046
2,645833	0,1	876,865805
2,647500	0,1	869,720281
2,649167	0,1	862,352031
2,650833	0,1	854,806407
2,652500	0,1	846,864197
2,654167	0,1	838,869516
2,655833	0,1	830,755819
2,657500	0,1	822,368385
2,659167	0,1	813,592857
2,660833	0,1	804,721336
2,662500	0,1	795,797061
2,664167	0,1	786,581701
2,665833	0,1	777,134142
2,667500	0,1	767,604678
2,669167	0,1	758,050712
2,670833	0,1	748,289055
2,672500	0,1	738,421156
2,674167	0,1	728,491551
2,675833	0,1	718,540544
2,677500	0,1	708,300230
2,679167	0,1	698,000255
2,680833	0,1	687,779947
2,682500	0,1	677,321665
2,684167	0,1	667,023764
2,685833	0,1	656,587599
2,687500	0,1	646,190190
2,689167	0,1	635,795718
2,690833	0,1	625,439374
2,692500	0,1	614,948348
2,694167	0,1	604,651526
2,695833	0,1	594,212595
2,697500	0,1	584,039509
2,699167	0,1	573,832898
2,700833	0,1	563,545331
2,702500	0,1	553,564461
2,704167	0,1	543,530019
2,705833	0,1	533,545058
2,707500	0,1	523,764850
2,709167	0,1	514,020999
2,710833	0,1	504,425884
2,712500	0,1	494,922780
2,714167	0,1	485,535855
2,715833	0,1	476,145249
2,717500	0,1	467,068231
2,719167	0,1	457,967786
2,720833	0,1	449,165854
2,722500	0,1	440,401772
2,724167	0,1	431,802538
2,725833	0,1	423,266627
2,727500	0,1	414,986881
2,729167	0,1	406,762004
2,730833	0,1	398,795736
2,732500	0,1	390,845005
2,734167	0,1	383,093663
2,735833	0,1	375,552599
2,737500	0,1	368,138747
2,739167	0,1	360,843740
2,740833	0,1	353,688065
2,742500	0,1	346,625465
2,744167	0,1	339,822966
2,745833	0,1	333,050823
2,747500	0,1	326,475825
2,749167	0,1	320,095149
2,750833	0,1	313,793489
2,752500	0,1	307,631446
2,754167	0,1	301,601629
2,755833	0,1	295,745062
2,757500	0,1	290,009194
2,759167	0,1	284,321878
2,760833	0,1	278,798871
2,762500	0,1	273,443723
2,764167	0,1	268,112458
2,765833	0,1	263,008085
2,767500	0,1	257,980295
2,769167	0,1	252,998974
2,770833	0,1	248,100951
2,772500	0,1	243,366765
2,774167	0,1	238,763489
2,775833	0,1	234,250292
2,777500	0,1	229,804902
2,779167	0,1	225,463646
2,780833	0,1	221,218831
2,782500	0,1	217,062675
2,784167	0,1	212,954850
2,785833	0,1	208,965925
2,787500	0,1	205,030035
2,789167	0,1	201,210655
2,790833	0,1	197,440247
2,792500	0,1	193,753605
2,794167	0,1	190,187507
2,795833	0,1	186,662657
2,797500	0,1	183,137428
2,799167	0,1	179,743644
2,800833	0,1	176,410801
2,802500	0,1	173,106110
2,804167	0,1	169,890066
2,805833	0,1	166,807957
2,807500	0,1	163,707450
2,809167	0,1	160,668099
2,810833	0,1	157,684003
2,812500	0,1	154,779261
2,814167	0,1	151,896653
2,815833	0,1	149,152354
2,817500	0,1	146,385758
2,819167	0,1	143,736029
2,820833	0,1	141,049841
2,822500	0,1	138,487995
2,824167	0,1	135,926700
2,825833	0,1	133,457903
2,827500	0,1	131,040924
2,829167	0,1	128,667850
2,830833	0,1	126,270488
2,832500	0,1	123,992986
2,834167	0,1	121,779769
2,835833	0,1	119,594510
2,837500	0,1	117,445215
2,839167	0,1	115,316823
2,840833	0,1	113,254309
2,842500	0,1	111,227104
2,844167	0,1	109,293037
2,845833	0,1	107,366908
2,847500	0,1	105,482602
2,849167	0,1	103,615903
2,850833	0,1	101,836952
2,852500	0,1	100,067525
2,854167	0,1	98,361982
2,855833	0,1	96,697830
2,857500	0,1	95,014598
2,859167	0,1	93,490690
2,860833	0,1	91,865485
2,862500	0,1	90,324392
2,864167	0,1	88,840494
2,865833	0,1	87,408958
2,867500	0,1	86,017703
2,869167	0,1	84,601383
2,870833	0,1	83,209023
2,872500	0,1	81,932270
2,874167	0,1	80,622699
2,875833	0,1	79,376839
2,877500	0,1	78,120058
2,879167	0,1	76,971484
2,880833	0,1	75,782393
2,882500	0,1	74,679232
2,884167	0,1	73,534429
2,885833	0,1	72,459724
2,887500	0,1	71,410689
2,889167	0,1	70,384740
2,890833	0,1	69,390840
2,892500	0,1	68,361311
2,894167	0,1	67,523767
2,895833	0,1	66,536961
2,897500	0,1	65,622585
2,899167	0,1	64,738978
2,900833	0,1	63,849853
2,902500	0,1	63,044192
2,904167	0,1	62,168209
2,905833	0,1	61,445091
2,907500	0,1	60,635592
2,909167	0,1	59,873747
2,910833	0,1	59,116997
2,912500	0,1	58,359656
2,914167	0,1	57,627021
2,915833	0,1	56,931230
2,917500	0,1	56,253810
2,919167	0,1	55,621286
2,920833	0,1	54,955780
2,922500	0,1	54,282101
2,924167	0,1	53,712345
2,925833	0,1	53,052803
2,927500	0,1	52,512156
2,929167	0,1	51,887098
2,930833	0,1	51,305224
2,932500	0,1	50,757886
2,934167	0,1	50,181987
2,935833	0,1	49,638948
2,937500	0,1	49,115232
2,939167	0,1	48,594745
2,940833	0,1	48,077119
2,942500	0,1	47,530619
2,944167	0,1	47,050852
2,945833	0,1	46,583101
2,947500	0,1	46,097859
2,949167	0,1	45,655514
2,950833	0,1	45,157788
2,952500	0,1	44,656086
2,954167	0,1	44,250247
2,955833	0,1	43,800216
2,957500	0,1	43,357928
2,959167	0,1	42,958135
2,960833	0,1	42,483256
2,962500	0,1	42,095373
2,964167	0,1	41,660137
2,965833	0,1	41,272590
2,967500	0,1	40,823753
2,969167	0,1	40,471541
2,970833	0,1	40,070912
2,972500	0,1	39,647670
2,974167	0,1	39,300258
2,975833	0,1	38,904715
2,977500	0,1	38,545219
2,979167	0,1	38,174049
2,980833	0,1	37,825737
2,982500	0,1	37,439056
2,984167	0,1	37,079613
2,985833	0,1	36,737077
2,987500	0,1	36,368641
2,989167	0,1	36,035511
2,990833	0,1	35,661153
2,992500	0,1	35,305016
2,994167	0,1	35,042583
2,995833	0,1	34,687509
2,997500	0,1	34,373617
2,999167	0,1	34,017161
3,000833	0,1	33,694031
3,002500	0,1	33,378857
3,004167	0,1	33,087809
3,005833	0,1	32,756829
3,007500	0,1	32,482640
3,009167	0,1	32,152152
3,010833	0,1	31,880874
3,012500	0,1	31,564364
3,014167	0,1	31,254987
3,015833	0,1	30,941827
3,017500	0,1	30,683043
3,019167	0,1	30,362531
3,020833	0,1	30,086198
3,022500	0,1	29,810144
3,024167	0,1	29,552004
3,025833	0,1	29,260438
3,027500	0,1	28,989235
3,029167	0,1	28,734787
3,030833	0,1	28,456295
3,032500	0,1	28,173463
3,034167	0,1	27,888952
3,035833	0,1	27,688283
3,037500	0,1	27,372825
3,039167	0,1	27,159362
3,040833	0,1	26,887788
3,042500	0,1	26,640991
3,044167	0,1	26,416104
3,045833	0,1	26,124425
3,047500	0,1	25,863443
3,049167	0,1	25,604306
3,050833	0,1	25,405800
3,052500	0,1	25,136042
3,054167	0,1	24,925225
3,055833	0,1	24,749439
3,057500	0,1	24,490591
3,059167	0,1	24,297752
3,060833	0,1	24,047531
3,062500	0,1	23,810116
3,064167	0,1	23,642846
3,065833	0,1	23,367415
3,067500	0,1	23,159762
3,069167	0,1	22,988842
3,070833	0,1	22,787537
3,072500	0,1	22,550719
3,074167	0,1	22,359019
3,075833	0,1	22,189611
3,077500	0,1	21,959641
3,079167	0,1	21,786571
3,080833	0,1	21,592289
3,082500	0,1	21,407904
3,084167	0,1	21,248978
3,085833	0,1	21,037487
3,087500	0,1	20,864066
3,089167	0,1	20,655411
3,090833	0,1	20,497474
3,092500	0,1	20,318605
3,094167	0,1	20,170635
3,095833	0,1	19,998436
3,097500	0,1	19,821525
3,099167	0,1	19,678241
3,100833	0,1	19,533975
3,102500	0,1	19,354145
3,104167	0,1	19,219072
3,105833	0,1	19,061758
3,107500	0,1	18,905743
3,109167	0,1	18,756969
3,110833	0,1	18,607578
3,112500	0,1	18,464436
3,114167	0,1	18,334589
3,115833	0,1	18,212374
3,117500	0,1	18,119887
3,119167	0,1	17,934576
3,120833	0,1	17,815076
3,122500	0,1	17,728140
3,124167	0,1	17,588236
3,125833	0,1	17,506522
3,127500	0,1	17,381061
3,129167	0,1	17,245657
3,130833	0,1	17,149718
3,132500	0,1	17,045267
3,134167	0,1	16,877670
3,135833	0,1	16,794829
3,137500	0,1	16,676769
3,139167	0,1	16,576261
3,140833	0,1	16,504728
3,142500	0,1	16,357990
3,144167	0,1	16,311765
3,145833	0,1	16,209508
3,147500	0,1	16,129336
3,149167	0,1	16,042628
3,150833	0,1	15,884790
3,152500	0,1	15,818567
3,154167	0,1	15,716559
3,155833	0,1	15,668418
3,157500	0,1	15,566566
3,159167	0,1	15,496415
3,160833	0,1	15,419850
3,162500	0,1	15,281873
3,164167	0,1	15,205050
3,165833	0,1	15,139646
3,167500	0,1	15,025883
3,169167	0,1	14,980505
3,170833	0,1	14,876144
3,172500	0,1	14,821591
3,174167	0,1	14,725806
3,175833	0,1	14,605831
3,177500	0,1	14,553914
3,179167	0,1	14,454714
3,180833	0,1	14,390416
3,182500	0,1	14,296358
3,184167	0,1	14,214475
3,185833	0,1	14,149500
3,187500	0,1	14,070705
3,189167	0,1	13,963384
3,190833	0,1	13,911985
3,192500	0,1	13,789609
3,194167	0,1	13,732090
3,195833	0,1	13,610890
3,197500	0,1	13,543843
3,199167	0,1	13,475080
3,200833	0,1	13,416545
3,202500	0,1	13,321207
3,204167	0,1	13,241917
3,205833	0,1	13,190401
3,207500	0,1	13,056250
3,209167	0,1	12,989352
3,210833	0,1	12,911725
3,212500	0,1	12,816694
3,214167	0,1	12,734226
3,215833	0,1	12,708214
3,217500	0,1	12,558273
3,219167	0,1	12,501449
3,220833	0,1	12,410916
3,222500	0,1	12,340439
3,224167	0,1	12,252467
3,225833	0,1	12,197776
3,227500	0,1	12,096530
3,229167	0,1	12,059717
3,230833	0,1	11,982685
3,232500	0,1	11,887996
3,234167	0,1	11,808329
3,235833	0,1	11,685774
3,237500	0,1	11,634073
3,239167	0,1	11,598680
3,240833	0,1	11,446565
3,242500	0,1	11,431067
3,244167	0,1	11,341585
3,245833	0,1	11,268730
3,247500	0,1	11,212702
3,249167	0,1	11,123741
3,250833	0,1	11,082434
3,252500	0,1	10,983432
3,254167	0,1	10,941430
3,255833	0,1	10,827851
3,257500	0,1	10,737683
3,259167	0,1	10,717841
3,260833	0,1	10,628874
3,262500	0,1	10,525821
3,264167	0,1	10,465984
3,265833	0,1	10,407699
3,267500	0,1	10,360202
3,269167	0,1	10,283774
3,270833	0,1	10,169513
3,272500	0,1	10,147544
3,274167	0,1	10,063135
3,275833	0,1	9,990215
3,277500	0,1	9,891762
3,279167	0,1	9,892292
3,280833	0,1	9,796686
3,282500	0,1	9,746618
3,284167	0,1	9,664955
3,285833	0,1	9,606658
3,287500	0,1	9,500042
3,289167	0,1	9,495057
3,290833	0,1	9,377418
3,292500	0,1	9,371396
3,294167	0,1	9,298985
3,295833	0,1	9,240508
3,297500	0,1	9,147315
3,299167	0,1	9,130761
3,300833	0,1	9,033696
3,302500	0,1	8,998416
3,304167	0,1	8,969807
3,305833	0,1	8,910860
3,307500	0,1	8,875448
3,309167	0,1	8,787516
3,310833	0,1	8,757696
3,312500	0,1	8,717269
3,314167	0,1	8,655045
3,315833	0,1	8,603130
3,317500	0,1	8,583075
3,319167	0,1	8,516615
3,320833	0,1	8,448941
3,322500	0,1	8,372748
3,324167	0,1	8,363576
3,325833	0,1	8,296573
3,327500	0,1	8,278556
3,329167	0,1	8,189015
3,330833	0,1	8,192556
3,332500	0,1	8,138421
3,334167	0,1	8,095188
3,335833	0,1	8,052832
3,337500	0,1	8,024758
3,339167	0,1	7,997770
3,340833	0,1	7,951054
3,342500	0,1	7,942208
3,344167	0,1	7,878447
3,345833	0,1	7,807568
3,347500	0,1	7,794408
3,349167	0,1	7,783538
3,350833	0,1	7,732721
3,352500	0,1	7,680139
3,354167	0,1	7,634668
3,355833	0,1	7,612540
3,357500	0,1	7,633335
3,359167	0,1	7,534585
3,360833	0,1	7,551234
3,362500	0,1	7,498857
3,364167	0,1	7,527700
3,365833	0,1	7,440780
3,367500	0,1	7,470538
3,369167	0,1	7,379036
3,370833	0,1	7,394469
3,372500	0,1	7,307286
3,374167	0,1	7,340883
3,375833	0,1	7,296315
3,377500	0,1	7,257538
3,379167	0,1	7,313523
3,380833	0,1	7,194157
3,382500	0,1	7,200213
3,384167	0,1	7,191790
3,385833	0,1	7,154060
3,387500	0,1	7,133929
3,389167	0,1	7,099940
3,390833	0,1	7,076539
3,392500	0,1	7,079062
3,394167	0,1	7,046491
3,395833	0,1	7,041897
3,397500	0,1	7,009235
3,399167	0,1	6,949513
3,400833	0,1	7,001917
3,402500	0,1	6,936798
3,404167	0,1	6,938658
3,405833	0,1	6,887111
3,407500	0,1	6,918063
3,409167	0,1	6,843038
3,410833	0,1	6,875966
3,412500	0,1	6,830395
3,414167	0,1	6,805602
3,415833	0,1	6,813366
3,417500	0,1	6,780627
3,419167	0,1	6,766693
3,420833	0,1	6,738722
3,422500	0,1	6,725800
3,424167	0,1	6,723093
3,425833	0,1	6,722812
3,427500	0,1	6,700562
3,429167	0,1	6,653878
3,430833	0,1	6,684348
3,432500	0,1	6,651355
3,434167	0,1	6,627039
3,435833	0,1	6,591231
3,437500	0,1	6,563545
3,439167	0,1	6,581590
3,440833	0,1	6,525693
3,442500	0,1	6,565946
3,444167	0,1	6,530471
3,445833	0,1	6,526414
3,447500	0,1	6,487370
3,449167	0,1	6,480412
3,450833	0,1	6,459858
3,452500	0,1	6,452477
3,454167	0,1	6,438984
3,455833	0,1	6,434165
3,457500	0,1	6,379590
3,459167	0,1	6,403190
3,460833	0,1	6,439019
3,462500	0,1	6,345091
3,464167	0,1	6,333949
3,465833	0,1	6,336103
3,467500	0,1	6,323202
3,469167	0,1	6,329751
3,470833	0,1	6,306582
3,472500	0,1	6,306907
3,474167	0,1	6,246741
3,475833	0,1	6,266463
3,477500	0,1	6,223042
3,479167	0,1	6,242246
3,480833	0,1	6,223006
3,482500	0,1	6,251921
3,484167	0,1	6,245255
3,485833	0,1	6,221743
3,487500	0,1	6,175626
3,489167	0,1	6,192749
3,490833	0,1	6,213692
3,492500	0,1	6,180828
3,494167	0,1	6,212098
3,495833	0,1	6,161481
3,497500	0,1	6,165925
3,499167	0,1	6,140799
3,500833	0,1	6,161593
3,502500	0,1	6,118355
3,504167	0,1	6,160223
3,505833	0,1	6,116239
3,507500	0,1	6,096052
3,509167	0,1	6,133221
3,510833	0,1	6,128032
3,512500	0,1	6,127256
3,514167	0,1	6,117941
3,515833	0,1	6,131756
3,517500	0,1	6,084217
3,519167	0,1	6,137123
3,520833	0,1	6,125152
3,522500	0,1	6,111477
3,524167	0,1	6,122336
3,525833	0,1	6,089920
3,527500	0,1	6,145463
3,529167	0,1	6,097293
3,530833	0,1	6,107814
3,532500	0,1	6,149671
3,534167	0,1	6,172225
3,535833	0,1	6,131698
3,537500	0,1	6,098863
3,539167	0,1	6,123359
3,540833	0,1	6,121316
3,542500	0,1	6,117061
3,544167	0,1	6,116986
3,545833	0,1	6,150270
3,547500	0,1	6,147720
3,549167	0,1	6,118777
3,550833	0,1	6,148472
3,552500	0,1	6,149908
3,554167	0,1	6,140650
3,555833	0,1	6,191344
3,557500	0,1	6,146543
3,559167	0,1	6,149342
3,560833	0,1	6,172563
3,562500	0,1	6,183030
3,564167	0,1	6,239561
3,565833	0,1	6,203718
3,567500	0,1	6,211049
3,569167	0,1	6,219476
3,570833	0,1	6,188539
3,572500	0,1	6,228803
3,574167	0,1	6,214636
3,575833	0,1	6,220058
3,577500	0,1	6,231902
3,579167	0,1	6,265091
3,580833	0,1	6,221540
3,582500	0,1	6,242291
3,584167	0,1	6,267412
3,585833	0,1	6,250311
3,587500	0,1	6,233679
3,589167	0,1	6,261152
3,590833	0,1	6,282279
3,592500	0,1	6,273190
3,594167	0,1	6,243106
3,595833	0,1	6,301045
3,597500	0,1	6,285453
3,599167	0,1	6,325833
3,600833	0,1	6,287125
3,602500	0,1	6,310764
3,604167	0,1	6,344215
3,605833	0,1	6,322741
3,607500	0,1	6,297023
3,609167	0,1	6,295635
3,610833	0,1	6,305815
3,612500	0,1	6,367222
3,614167	0,1	6,306474
3,615833	0,1	6,354615
3,617500	0,1	6,332273
3,619167	0,1	6,328060
3,620833	0,1	6,327020
3,622500	0,1	6,352748
3,624167	0,1	6,313319
3,625833	0,1	6,343023
3,627500	0,1	6,357674
3,629167	0,1	6,372093
3,630833	0,1	6,339958
3,632500	0,1	6,343464
3,634167	0,1	6,344118
3,635833	0,1	6,361793
3,637500	0,1	6,367594
3,639167	0,1	6,355295
3,640833	0,1	6,310882
3,642500	0,1	6,347702
3,644167	0,1	6,315100
3,645833	0,1	6,328429
3,647500	0,1	6,318953
3,649167	0,1	6,300308
3,650833	0,1	6,297894
3,652500	0,1	6,283491
3,654167	0,1	6,316661
3,655833	0,1	6,298345
3,657500	0,1	6,322951
3,659167	0,1	6,316300
3,660833	0,1	6,286931
3,662500	0,1	6,290429
3,664167	0,1	6,270129
3,665833	0,1	6,280511
3,667500	0,1	6,259664
3,669167	0,1	6,251662
3,670833	0,1	6,211342
3,672500	0,1	6,221854
3,674167	0,1	6,216685
3,675833	0,1	6,210443
3,677500	0,1	6,169148
3,679167	0,1	6,171292
3,680833	0,1	6,164545
3,682500	0,1	6,163268
3,684167	0,1	6,177458
3,685833	0,1	6,090710
3,687500	0,1	6,124381
3,689167	0,1	6,100945
3,690833	0,1	6,057252
3,692500	0,1	6,080561
3,694167	0,1	6,082384
3,695833	0,1	6,021281
3,697500	0,1	5,996219
3,699167	0,1	6,018277
3,700833	0,1	6,025488
3,702500	0,1	5,989704
3,704167	0,1	5,957197
3,705833	0,1	5,958408
3,707500	0,1	5,993979
3,709167	0,1	5,920233
3,710833	0,1	5,925043
3,712500	0,1	5,894667
3,714167	0,1	5,893810
3,715833	0,1	5,883377
3,717500	0,1	5,849922
3,719167	0,1	5,820738
3,720833	0,1	5,844355
3,722500	0,1	5,787770
3,724167	0,1	5,828756
3,725833	0,1	5,814178
3,727500	0,1	5,721988
3,729167	0,1	5,754754
3,730833	0,1	5,713288
3,732500	0,1	5,670671
3,734167	0,1	5,660739
3,735833	0,1	5,702011
3,737500	0,1	5,663336
3,739167	0,1	5,626954
3,740833	0,1	5,621596
3,742500	0,1	5,613798
3,744167	0,1	5,633285
3,745833	0,1	5,587709
3,747500	0,1	5,530246
3,749167	0,1	5,579418
3,750833	0,1	5,566508
3,752500	0,1	5,510141
3,754167	0,1	5,464693
3,755833	0,1	5,477623
3,757500	0,1	5,417011
3,759167	0,1	5,463932
3,760833	0,1	5,457502
3,762500	0,1	5,452165
3,764167	0,1	5,409372
3,765833	0,1	5,370829
3,767500	0,1	5,379047
3,769167	0,1	5,316745
3,770833	0,1	5,324078
3,772500	0,1	5,335144
3,774167	0,1	5,291515
3,775833	0,1	5,288242
3,777500	0,1	5,265889
3,779167	0,1	5,248639
3,780833	0,1	5,189891
3,782500	0,1	5,185311
3,784167	0,1	5,200712
3,785833	0,1	5,149662
3,787500	0,1	5,155750
3,789167	0,1	5,133037
3,790833	0,1	5,140522
3,792500	0,1	5,063000
3,794167	0,1	5,084101
3,795833	0,1	5,073557
3,797500	0,1	5,049774
3,799167	0,1	5,062844
3,800833	0,1	5,016000
3,802500	0,1	4,966400
3,804167	0,1	5,011862
3,805833	0,1	4,966367
3,807500	0,1	4,943653
3,809167	0,1	4,957541
3,810833	0,1	4,912927
3,812500	0,1	4,928229
3,814167	0,1	4,877339
3,815833	0,1	4,856195
3,817500	0,1	4,863514
3,819167	0,1	4,798515
3,820833	0,1	4,833152
3,822500	0,1	4,810349
3,824167	0,1	4,767219
3,825833	0,1	4,773469
3,827500	0,1	4,751691
3,829167	0,1	4,745648
3,830833	0,1	4,711559
3,832500	0,1	4,693757
3,834167	0,1	4,705929
3,835833	0,1	4,675068
3,837500	0,1	4,676041
3,839167	0,1	4,626931
3,840833	0,1	4,642309
3,842500	0,1	4,635592
3,844167	0,1	4,577125
3,845833	0,1	4,601985
3,847500	0,1	4,575978
3,849167	0,1	4,549792
3,850833	0,1	4,553737
3,852500	0,1	4,492635
3,854167	0,1	4,510043
3,855833	0,1	4,478460
3,857500	0,1	4,492781
3,859167	0,1	4,484481
3,860833	0,1	4,406378
3,862500	0,1	4,448969
3,864167	0,1	4,406613
3,865833	0,1	4,392966
3,867500	0,1	4,394593
3,869167	0,1	4,344949
3,870833	0,1	4,346971
3,872500	0,1	4,342131
3,874167	0,1	4,285412
3,875833	0,1	4,283240
3,877500	0,1	4,265013
3,879167	0,1	4,268710
3,880833	0,1	4,315910
3,882500	0,1	4,256318
3,884167	0,1	4,230438
3,885833	0,1	4,217121
3,887500	0,1	4,225739
3,889167	0,1	4,179292
3,890833	0,1	4,167727
3,892500	0,1	4,207787
3,894167	0,1	4,139512
3,895833	0,1	4,138273
3,897500	0,1	4,125862
3,899167	0,1	4,105846
3,900833	0,1	4,083116
3,902500	0,1	4,133797
3,904167	0,1	4,084597
3,905833	0,1	4,066478
3,907500	0,1	4,029994
3,909167	0,1	4,052613
3,910833	0,1	4,015725
3,912500	0,1	4,034820
3,914167	0,1	3,962981
3,915833	0,1	4,020115
3,917500	0,1	3,928425
3,919167	0,1	3,944683
3,920833	0,1	3,928742
3,922500	0,1	3,938700
3,924167	0,1	3,906833
3,925833	0,1	3,894289
3,927500	0,1	3,908981
3,929167	0,1	3,888745
3,930833	0,1	3,855444
3,932500	0,1	3,895472
3,934167	0,1	3,852272
3,935833	0,1	3,826250
3,937500	0,1	3,855014
3,939167	0,1	3,808801
3,940833	0,1	3,808683
3,942500	0,1	3,754328
3,944167	0,1	3,809686
3,945833	0,1	3,769621
3,947500	0,1	3,762250
3,949167	0,1	3,762768
3,950833	0,1	3,717388
3,952500	0,1	3,759872
3,954167	0,1	3,737283
3,955833	0,1	3,715069
3,957500	0,1	3,748609
3,959167	0,1	3,686053
3,960833	0,1	3,658504
3,962500	0,1	3,703999
3,964167	0,1	3,676787
3,965833	0,1	3,666923
3,967500	0,1	3,666766
3,969167	0,1	3,649865
3,970833	0,1	3,637094
3,972500	0,1	3,624487
3,974167	0,1	3,631006
3,975833	0,1	3,612917
3,977500	0,1	3,603807
3,979167	0,1	3,568686
3,980833	0,1	3,619503
3,982500	0,1	3,584420
3,984167	0,1	3,566423
3,985833	0,1	3,571045
3,987500	0,1	3,576037
3,989167	0,1	3,564836
3,990833	0,1	3,537980
3,992500	0,1	3,547258
3,994167	0,1	3,535376
3,995833	0,1	3,516398
3,997500	0,1	3,546208
3,999167	0,1	3,540960
4,000833	0,1	3,531455
4,002500	0,1	3,531718
4,004167	0,1	3,496462
4,005833	0,1	3,477156
4,007500	0,1	3,496240
4,009167	0,1	3,421546
4,010833	0,1	3,486270
4,012500	0,1	3,478258
4,014167	0,1	3,460812
4,015833	0,1	3,433269
4,017500	0,1	3,493762
4,019167	0,1	3,459439
4,020833	0,1	3,451328
4,022500	0,1	3,470795
4,024167	0,1	3,453375
4,025833	0,1	3,482856
4,027500	0,1	3,461784
4,029167	0,1	3,437894
4,030833	0,1	3,418189
4,032500	0,1	3,457410
4,034167	0,1	3,451459
4,035833	0,1	3,418707
4,037500	0,1	3,431828
4,039167	0,1	3,437427
4,040833	0,1	3,448570
4,042500	0,1	3,432923
4,044167	0,1	3,434562
4,045833	0,1	3,452278
4,047500	0,1	3,456483
4,049167	0,1	3,438312
4,050833	0,1	3,434946
4,052500	0,1	3,449373
4,054167	0,1	3,446566
4,055833	0,1	3,424268
4,057500	0,1	3,459193
4,059167	0,1	3,454080
4,060833	0,1	3,445709
4,062500	0,1	3,419356
4,064167	0,1	3,431120
4,065833	0,1	3,455792
4,067500	0,1	3,476644
4,069167	0,1	3,486571
4,070833	0,1	3,499757
4,072500	0,1	3,489957
4,074167	0,1	3,536873
4,075833	0,1	3,498259
4,077500	0,1	3,521222
4,079167	0,1	3,510677
4,080833	0,1	3,529177
4,082500	0,1	3,577095
4,084167	0,1	3,549944
4,085833	0,1	3,541975
4,087500	0,1	3,544054
4,089167	0,1	3,574366
4,090833	0,1	3,569097
4,092500	0,1	3,580322
4,094167	0,1	3,613394
4,095833	0,1	3,606723
4,097500	0,1	3,618940
4,099167	0,1	3,625620
4,100833	0,1	3,630666
4,102500	0,1	3,638700
4,104167	0,1	3,666503
4,105833	0,1	3,674566
4,107500	0,1	3,700390
4,109167	0,1	3,674939
4,110833	0,1	3,690247
4,112500	0,1	3,740802
4,114167	0,1	3,778185
4,115833	0,1	3,757570
4,117500	0,1	3,734032
4,119167	0,1	3,770537
4,120833	0,1	3,793328
4,122500	0,1	3,820227
4,124167	0,1	3,768270
4,125833	0,1	3,864077
4,127500	0,1	3,842847
4,129167	0,1	3,886984
4,130833	0,1	3,831774
4,132500	0,1	3,861884
4,134167	0,1	3,919606
4,135833	0,1	3,919315
4,137500	0,1	3,917285
4,139167	0,1	3,911982
4,140833	0,1	3,948295
4,142500	0,1	4,006070
4,144167	0,1	3,987011
4,145833	0,1	3,975790
4,147500	0,1	3,968218
4,149167	0,1	3,996522
4,150833	0,1	4,006621
4,152500	0,1	4,030646
4,154167	0,1	4,083192
4,155833	0,1	4,080062
4,157500	0,1	4,063795
4,159167	0,1	4,073710
4,160833	0,1	4,098167
4,162500	0,1	4,107473
4,164167	0,1	4,165186
4,165833	0,1	4,129581
4,167500	0,1	4,162281
4,169167	0,1	4,153074
4,170833	0,1	4,191240
4,172500	0,1	4,190392
4,174167	0,1	4,193155
4,175833	0,1	4,222078
4,177500	0,1	4,234906
4,179167	0,1	4,232422
4,180833	0,1	4,217245
4,182500	0,1	4,223600
4,184167	0,1	4,247719
4,185833	0,1	4,266842
4,187500	0,1	4,216192
4,189167	0,1	4,256133
4,190833	0,1	4,280843
4,192500	0,1	4,260705
4,194167	0,1	4,267869
4,195833	0,1	4,265588
4,197500	0,1	4,275174
4,199167	0,1	4,296264
4,200833	0,1	4,265231
4,202500	0,1	4,314408
4,204167	0,1	4,316250
4,205833	0,1	4,284104
4,207500	0,1	4,281375
4,209167	0,1	4,315962
4,210833	0,1	4,302205
4,212500	0,1	4,324094
4,214167	0,1	4,307342
4,215833	0,1	4,299351
4,217500	0,1	4,336185
4,219167	0,1	4,331022
4,220833	0,1	4,294764
4,222500	0,1	4,319945
4,224167	0,1	4,310224
4,225833	0,1	4,334563
4,227500	0,1	4,354255
4,229167	0,1	4,298105
4,230833	0,1	4,320393
4,232500	0,1	4,306280
4,234167	0,1	4,328900
4,235833	0,1	4,308557
4,237500	0,1	4,331221
4,239167	0,1	4,310108
4,240833	0,1	4,278689
4,242500	0,1	4,311523
4,244167	0,1	4,275400
4,245833	0,1	4,280473
4,247500	0,1	4,292558
4,249167	0,1	4,266443
4,250833	0,1	4,288649
4,252500	0,1	4,292326
4,254167	0,1	4,295903
4,255833	0,1	4,268236
4,257500	0,1	4,291004
4,259167	0,1	4,248412
4,260833	0,1	4,264362
4,262500	0,1	4,243537
4,264167	0,1	4,238051
4,265833	0,1	4,200372
4,267500	0,1	4,226760
4,269167	0,1	4,245928
4,270833	0,1	4,197040
4,272500	0,1	4,212040
4,274167	0,1	4,206347
4,275833	0,1	4,165745
4,277500	0,1	4,184848
4,279167	0,1	4,168802
4,280833	0,1	4,167118
4,282500	0,1	4,144376
4,284167	0,1	4,153174
4,285833	0,1	4,162571
4,287500	0,1	4,129580
4,289167	0,1	4,136159
4,290833	0,1	4,128172
4,292500	0,1	4,127094
4,294167	0,1	4,117174
4,295833	0,1	4,089924
4,297500	0,1	4,071938
4,299167	0,1	4,034803
4,300833	0,1	4,053265
4,302500	0,1	4,071550
4,304167	0,1	4,058588
4,305833	0,1	4,047574
4,307500	0,1	4,058170
4,309167	0,1	3,997019
4,310833	0,1	4,005144
4,312500	0,1	4,016509
4,314167	0,1	4,043264
4,315833	0,1	3,994225
4,317500	0,1	4,005161
4,319167	0,1	3,967831
4,320833	0,1	3,932698
4,322500	0,1	3,947393
4,324167	0,1	3,910788
4,325833	0,1	3,943043
4,327500	0,1	3,916846
4,329167	0,1	3,876575
4,330833	0,1	3,901409
4,332500	0,1	3,889678
4,334167	0,1	3,848055
4,335833	0,1	3,872651
4,337500	0,1	3,853825
4,339167	0,1	3,843445
4,340833	0,1	3,835039
4,342500	0,1	3,829628
4,344167	0,1	3,844374
4,345833	0,1	3,790695
4,347500	0,1	3,815547
4,349167	0,1	3,759764
4,350833	0,1	3,778709
4,352500	0,1	3,800378
4,354167	0,1	3,748995
4,355833	0,1	3,743209
4,357500	0,1	3,747187
4,359167	0,1	3,758707
4,360833	0,1	3,733250
4,362500	0,1	3,694316
4,364167	0,1	3,661388
4,365833	0,1	3,669025
4,367500	0,1	3,687412
4,369167	0,1	3,690589
4,370833	0,1	3,693244
4,372500	0,1	3,676683
4,374167	0,1	3,634943
4,375833	0,1	3,648613
4,377500	0,1	3,611460
4,379167	0,1	3,607861
4,380833	0,1	3,582412
4,382500	0,1	3,603961
4,384167	0,1	3,585506
4,385833	0,1	3,571987
4,387500	0,1	3,542322
4,389167	0,1	3,574211
4,390833	0,1	3,560076
4,392500	0,1	3,562266
4,394167	0,1	3,576661
4,395833	0,1	3,510041
4,397500	0,1	3,537946
4,399167	0,1	3,510815
4,400833	0,1	3,524488
4,402500	0,1	3,505668
4,404167	0,1	3,469739
4,405833	0,1	3,436311
4,407500	0,1	3,442742
4,409167	0,1	3,452218
4,410833	0,1	3,437891
4,412500	0,1	3,450192
4,414167	0,1	3,416434
4,415833	0,1	3,385435
4,417500	0,1	3,372837
4,419167	0,1	3,422127
4,420833	0,1	3,382151
4,422500	0,1	3,377097
4,424167	0,1	3,330843
4,425833	0,1	3,368161
4,427500	0,1	3,333153
4,429167	0,1	3,326631
4,430833	0,1	3,311751
4,432500	0,1	3,310635
4,434167	0,1	3,316715
4,435833	0,1	3,279428
4,437500	0,1	3,278770
4,439167	0,1	3,294068
4,440833	0,1	3,256026
4,442500	0,1	3,265050
4,444167	0,1	3,258195
4,445833	0,1	3,231840
4,447500	0,1	3,231126
4,449167	0,1	3,212883
4,450833	0,1	3,206536
4,452500	0,1	3,233295
4,454167	0,1	3,212536
4,455833	0,1	3,213452
4,457500	0,1	3,159954
4,459167	0,1	3,145567
4,460833	0,1	3,170009
4,462500	0,1	3,124671
4,464167	0,1	3,109852
4,465833	0,1	3,142371
4,467500	0,1	3,077822
4,469167	0,1	3,087694
4,470833	0,1	3,076300
4,472500	0,1	3,069232
4,474167	0,1	3,067907
4,475833	0,1	2,999929
4,477500	0,1	3,042237
4,479167	0,1	3,012553
4,480833	0,1	3,026802
4,482500	0,1	3,032796
4,484167	0,1	3,045242
4,485833	0,1	3,014328
4,487500	0,1	2,979924
4,489167	0,1	2,974448
4,490833	0,1	2,984169
4,492500	0,1	2,953331
4,494167	0,1	2,972908
4,495833	0,1	2,912500
4,497500	0,1	2,900232
4,499167	0,1	2,890941
4,500833	0,1	2,916726
4,502500	0,1	2,875224
4,504167	0,1	2,913478
4,505833	0,1	2,878097
4,507500	0,1	2,883639
4,509167	0,1	2,855742
4,510833	0,1	2,855301
4,512500	0,1	2,883930
4,514167	0,1	2,847899
4,515833	0,1	2,841477
4,517500	0,1	2,840457
4,519167	0,1	2,824591
4,520833	0,1	2,775367
4,522500	0,1	2,770313
4,524167	0,1	2,773045
4,525833	0,1	2,712363
4,527500	0,1	2,751552
4,529167	0,1	2,736075
4,530833	0,1	2,699885
4,532500	0,1	2,736483
4,534167	0,1	2,735623
4,535833	0,1	2,728863
4,537500	0,1	2,689939
4,539167	0,1	2,663419
4,540833	0,1	2,706353
4,542500	0,1	2,721567
4,544167	0,1	2,650739
4,545833	0,1	2,613762
4,547500	0,1	2,645809
4,549167	0,1	2,615841
4,550833	0,1	2,646680
4,552500	0,1	2,632485
4,554167	0,1	2,624997
4,555833	0,1	2,617784
4,557500	0,1	2,598262
4,559167	0,1	2,612887
4,560833	0,1	2,584856
4,562500	0,1	2,568428
4,564167	0,1	2,547963
4,565833	0,1	2,535421
4,567500	0,1	2,523749
4,569167	0,1	2,539814
4,570833	0,1	2,496453
4,572500	0,1	2,518050
4,574167	0,1	2,504727
4,575833	0,1	2,515890
4,577500	0,1	2,450928
4,579167	0,1	2,486349
4,580833	0,1	2,499823
4,582500	0,1	2,456828
4,584167	0,1	2,470645
4,585833	0,1	2,445153
4,587500	0,1	2,430023
4,589167	0,1	2,450759
4,590833	0,1	2,435425
4,592500	0,1	2,457890
4,594167	0,1	2,406548
4,595833	0,1	2,454426
4,597500	0,1	2,420662
4,599167	0,1	2,386519
4,600833	0,1	2,377078
4,602500	0,1	2,361451
4,604167	0,1	2,363463
4,605833	0,1	2,308024
4,607500	0,1	2,347679
4,609167	0,1	2,347689
4,610833	0,1	2,333291
4,612500	0,1	2,341205
4,614167	0,1	2,339842
4,615833	0,1	2,306071
4,617500	0,1	2,317081
4,619167	0,1	2,279783
4,620833	0,1	2,284673
4,622500	0,1	2,280214
4,624167	0,1	2,292882
4,625833	0,1	2,300589
4,627500	0,1	2,238676
4,629167	0,1	2,233263
4,630833	0,1	2,216412
4,632500	0,1	2,239809
4,634167	0,1	2,205121
4,635833	0,1	2,241612
4,637500	0,1	2,242846
4,639167	0,1	2,234056
4,640833	0,1	2,177045
4,642500	0,1	2,157746
4,644167	0,1	2,186823
4,645833	0,1	2,219726
4,647500	0,1	2,143287
4,649167	0,1	2,193792
4,650833	0,1	2,177399
4,652500	0,1	2,164082
4,654167	0,1	2,179332
4,655833	0,1	2,131260
4,657500	0,1	2,134492
4,659167	0,1	2,133186
4,660833	0,1	2,150533
4,662500	0,1	2,162854
4,664167	0,1	2,083474
4,665833	0,1	2,107701
4,667500	0,1	2,086188
4,669167	0,1	2,088055
4,670833	0,1	2,040343
4,672500	0,1	2,055733
4,674167	0,1	2,088123
4,675833	0,1	2,076037
4,677500	0,1	2,015075
4,679167	0,1	2,038312
4,680833	0,1	2,025662
4,682500	0,1	2,048907
4,684167	0,1	2,051207
4,685833	0,1	2,056966
4,687500	0,1	2,031782
4,689167	0,1	2,009533
4,690833	0,1	2,031835
4,692500	0,1	1,995437
4,694167	0,1	1,947165
4,695833	0,1	1,976779
4,697500	0,1	1,969313
4,699167	0,1	2,020401
4,700833	0,1	1,998461
4,702500	0,1	1,963491
4,704167	0,1	1,987667
4,705833	0,1	1,956804
4,707500	0,1	1,927144
4,709167	0,1	1,956500
4,710833	0,1	1,930462
4,712500	0,1	1,927270
4,714167	0,1	1,939747
4,715833	0,1	1,955498
4,717500	0,1	1,910610
4,719167	0,1	1,936226
4,720833	0,1	1,892122
4,722500	0,1	1,925326
4,724167	0,1	1,900027
4,725833	0,1	1,917291
4,727500	0,1	1,914198
4,729167	0,1	1,885922
4,730833	0,1	1,857502
4,732500	0,1	1,857644
4,734167	0,1	1,890538
4,735833	0,1	1,889014
4,737500	0,1	1,834178
4,739167	0,1	1,845838
4,740833	0,1	1,844616
4,742500	0,1	1,845749
4,744167	0,1	1,852971
4,745833	0,1	1,818297
4,747500	0,1	1,816139
4,749167	0,1	1,814187
4,750833	0,1	1,826425
4,752500	0,1	1,798077
4,754167	0,1	1,813905
4,755833	0,1	1,831464
4,757500	0,1	1,807728
4,759167	0,1	1,777650
4,760833	0,1	1,782914
4,762500	0,1	1,793606
4,764167	0,1	1,772759
4,765833	0,1	1,759094
4,767500	0,1	1,778808
4,769167	0,1	1,782267
4,770833	0,1	1,768666
4,772500	0,1	1,789511
4,774167	0,1	1,769257
4,775833	0,1	1,756723
4,777500	0,1	1,735793
4,779167	0,1	1,753109
4,780833	0,1	1,760232
4,782500	0,1	1,748912
4,784167	0,1	1,721719
4,785833	0,1	1,718600
4,787500	0,1	1,701349
4,789167	0,1	1,698811
4,790833	0,1	1,708103
4,792500	0,1	1,722356
4,794167	0,1	1,706581
4,795833	0,1	1,688102
4,797500	0,1	1,715288
4,799167	0,1	1,707241
4,800833	0,1	1,705751
4,802500	0,1	1,702365
4,804167	0,1	1,651523
4,805833	0,1	1,658681
4,807500	0,1	1,681482
4,809167	0,1	1,673874
4,810833	0,1	1,671381
4,812500	0,1	1,682999
4,814167	0,1	1,661018
4,815833	0,1	1,657144
4,817500	0,1	1,642827
4,819167	0,1	1,673880
4,820833	0,1	1,630895
4,822500	0,1	1,632894
4,824167	0,1	1,642531
4,825833	0,1	1,661008
4,827500	0,1	1,663738
4,829167	0,1	1,655837
4,830833	0,1	1,593423
4,832500	0,1	1,633395
4,834167	0,1	1,613130
4,835833	0,1	1,610506
4,837500	0,1	1,617958
4,839167	0,1	1,635921
4,840833	0,1	1,602407
4,842500	0,1	1,624135
4,844167	0,1	1,607306
4,845833	0,1	1,605429
4,847500	0,1	1,613839
4,849167	0,1	1,592934
4,850833	0,1	1,553606
4,852500	0,1	1,586282
4,854167	0,1	1,588314
4,855833	0,1	1,581115
4,857500	0,1	1,618276
4,859167	0,1	1,555111
4,860833	0,1	1,585003
4,862500	0,1	1,574933
4,864167	0,1	1,555849
4,865833	0,1	1,569342
4,867500	0,1	1,529377
4,869167	0,1	1,561217
4,870833	0,1	1,553887
4,872500	0,1	1,546770
4,874167	0,1	1,583708
4,875833	0,1	1,541314
4,877500	0,1	1,545458
4,879167	0,1	1,542444
4,880833	0,1	1,564591
4,882500	0,1	1,519011
4,884167	0,1	1,530557
4,885833	0,1	1,522748
4,887500	0,1	1,459123
4,889167	0,1	1,506050
4,890833	0,1	1,543883
4,892500	0,1	1,495790
4,894167	0,1	1,530381
4,895833	0,1	1,506423
4,897500	0,1	1,477640
4,899167	0,1	1,543229
4,900833	0,1	1,482990
4,902500	0,1	1,485734
4,904167	0,1	1,517529
4,905833	0,1	1,490473
4,907500	0,1	1,461140
4,909167	0,1	1,520671
4,910833	0,1	1,502491
4,912500	0,1	1,481296
4,914167	0,1	1,510259
4,915833	0,1	1,465808
4,917500	0,1	1,506918
4,919167	0,1	1,459698
4,920833	0,1	1,450853
4,922500	0,1	1,481795
4,924167	0,1	1,480029
4,925833	0,1	1,492608
4,927500	0,1	1,482008
4,929167	0,1	1,492916
4,930833	0,1	1,505020
4,932500	0,1	1,514027
4,934167	0,1	1,457506
4,935833	0,1	1,460641
4,937500	0,1	1,481337
4,939167	0,1	1,479215
4,940833	0,1	1,453600
4,942500	0,1	1,457116
4,944167	0,1	1,457543
4,945833	0,1	1,457475
4,947500	0,1	1,454414
4,949167	0,1	1,493401
4,950833	0,1	1,430631
4,952500	0,1	1,433656
4,954167	0,1	1,503712
4,955833	0,1	1,422633
4,957500	0,1	1,461076
4,959167	0,1	1,453749
4,960833	0,1	1,460098
4,962500	0,1	1,488180
4,964167	0,1	1,481516
4,965833	0,1	1,453398
4,967500	0,1	1,471276
4,969167	0,1	1,451540
4,970833	0,1	1,457135
4,972500	0,1	1,471313
4,974167	0,1	1,469783
4,975833	0,1	1,466888
4,977500	0,1	1,475331
4,979167	0,1	1,448290
4,980833	0,1	1,439463
4,982500	0,1	1,465760
4,984167	0,1	1,514579
4,985833	0,1	1,451977
4,987500	0,1	1,448420
4,989167	0,1	1,477027
4,990833	0,1	1,437703
4,992500	0,1	1,440280
4,994167	0,1	1,487577
4,995833	0,1	1,486007
4,997500	0,1	1,491284
4,999167	0,1	1,497378
5,000833	0,1	1,542807
5,002500	0,1	1,521220
5,004167	0,1	1,475308
5,005833	0,1	1,520299
5,007500	0,1	1,460792
5,009167	0,1	1,474938
5,010833	0,1	1,485529
5,012500	0,1	1,491112
5,014167	0,1	1,479848
5,015833	0,1	1,523943
5,017500	0,1	1,523716
5,019167	0,1	1,496739
5,020833	0,1	1,533531
5,022500	0,1	1,549847
5,024167	0,1	1,529595
5,025833	0,1	1,528074
5,027500	0,1	1,558119
5,029167	0,1	1,566740
5,030833	0,1	1,548936
5,032500	0,1	1,540130
5,034167	0,1	1,544520
5,035833	0,1	1,574514
5,037500	0,1	1,577877
5,039167	0,1	1,590353
5,040833	0,1	1,561641
5,042500	0,1	1,537273
5,044167	0,1	1,556658
5,045833	0,1	1,579692
5,047500	0,1	1,588398
5,049167	0,1	1,614701
5,050833	0,1	1,569866
5,052500	0,1	1,618274
5,054167	0,1	1,616940
5,055833	0,1	1,589446
5,057500	0,1	1,584282
5,059167	0,1	1,640937
5,060833	0,1	1,636354
5,062500	0,1	1,624044
5,064167	0,1	1,636928
5,065833	0,1	1,642313
5,067500	0,1	1,622477
5,069167	0,1	1,622969
5,070833	0,1	1,655606
5,072500	0,1	1,695826
5,074167	0,1	1,680720
5,075833	0,1	1,666165
5,077500	0,1	1,673817
5,079167	0,1	1,673293
5,080833	0,1	1,687694
5,082500	0,1	1,680458
5,084167	0,1	1,672360
5,085833	0,1	1,674106
5,087500	0,1	1,688288
5,089167	0,1	1,732429
5,090833	0,1	1,690943
5,092500	0,1	1,694294
5,094167	0,1	1,692422
5,095833	0,1	1,663896
5,097500	0,1	1,727094
5,099167	0,1	1,683768
5,100833	0,1	1,644690
5,102500	0,1	1,715154
5,104167	0,1	1,679486
5,105833	0,1	1,709833
5,107500	0,1	1,707267
5,109167	0,1	1,734582
5,110833	0,1	1,707686
5,112500	0,1	1,746104
5,114167	0,1	1,740194
5,115833	0,1	1,699426
5,117500	0,1	1,755230
5,119167	0,1	1,690936
5,120833	0,1	1,742838
5,122500	0,1	1,708473
5,124167	0,1	1,721419
5,125833	0,1	1,735658
5,127500	0,1	1,718837
5,129167	0,1	1,709058
5,130833	0,1	1,701428
5,132500	0,1	1,705324
5,134167	0,1	1,710777
5,135833	0,1	1,677200
5,137500	0,1	1,740977
5,139167	0,1	1,690642
5,140833	0,1	1,715522
5,142500	0,1	1,708383
5,144167	0,1	1,679141
5,145833	0,1	1,684019
5,147500	0,1	1,713166
5,149167	0,1	1,701966
5,150833	0,1	1,678423
5,152500	0,1	1,672000
5,154167	0,1	1,680067
5,155833	0,1	1,658099
5,157500	0,1	1,689041
5,159167	0,1	1,680224
5,160833	0,1	1,688771
5,162500	0,1	1,661833
5,164167	0,1	1,643171
5,165833	0,1	1,621406
5,167500	0,1	1,647279
5,169167	0,1	1,633973
5,170833	0,1	1,637934
5,172500	0,1	1,631975
5,174167	0,1	1,636793
5,175833	0,1	1,570519
5,177500	0,1	1,622614
5,179167	0,1	1,611475
5,180833	0,1	1,600201
5,182500	0,1	1,580403
5,184167	0,1	1,609182
5,185833	0,1	1,577254
5,187500	0,1	1,578845
5,189167	0,1	1,547014
5,190833	0,1	1,607469
5,192500	0,1	1,572879
5,194167	0,1	1,540733
5,195833	0,1	1,563789
5,197500	0,1	1,518568
5,199167	0,1	1,530318
5,200833	0,1	1,558781
5,202500	0,1	1,515860
5,204167	0,1	1,488821
5,205833	0,1	1,505120
5,207500	0,1	1,484753
5,209167	0,1	1,482058
5,210833	0,1	1,493734
5,212500	0,1	1,501683
5,214167	0,1	1,472038
5,215833	0,1	1,507670
5,217500	0,1	1,489841
5,219167	0,1	1,444769
5,220833	0,1	1,470627
5,222500	0,1	1,460390
5,224167	0,1	1,430518
5,225833	0,1	1,455885
5,227500	0,1	1,412246
5,229167	0,1	1,419772
5,230833	0,1	1,404080
5,232500	0,1	1,423805
5,234167	0,1	1,402809
5,235833	0,1	1,429451
5,237500	0,1	1,354316
5,239167	0,1	1,384019
5,240833	0,1	1,361194
5,242500	0,1	1,346318
5,244167	0,1	1,333627
5,245833	0,1	1,338911
5,247500	0,1	1,333471
5,249167	0,1	1,371791
5,250833	0,1	1,372358
5,252500	0,1	1,298770
5,254167	0,1	1,318570
5,255833	0,1	1,296905
5,257500	0,1	1,284218
5,259167	0,1	1,269033
5,260833	0,1	1,271415
5,262500	0,1	1,247921
5,264167	0,1	1,256810
5,265833	0,1	1,273977
5,267500	0,1	1,248101
5,269167	0,1	1,265749
5,270833	0,1	1,270812
5,272500	0,1	1,229668
5,274167	0,1	1,245841
5,275833	0,1	1,213794
5,277500	0,1	1,195998
5,279167	0,1	1,215763
5,280833	0,1	1,180512
5,282500	0,1	1,175023
5,284167	0,1	1,185853
5,285833	0,1	1,151064
5,287500	0,1	1,170403
5,289167	0,1	1,162361
5,290833	0,1	1,147273
5,292500	0,1	1,183974
5,294167	0,1	1,187170
5,295833	0,1	1,143624
5,297500	0,1	1,133921
5,299167	0,1	1,106953
5,300833	0,1	1,145345
5,302500	0,1	1,137798
5,304167	0,1	1,115958
5,305833	0,1	1,132847
5,307500	0,1	1,079681
5,309167	0,1	1,107703
5,310833	0,1	1,104320
5,312500	0,1	1,082655
5,314167	0,1	1,099790
5,315833	0,1	1,079500
5,317500	0,1	1,028532
5,319167	0,1	1,055524
5,320833	0,1	1,079017
5,322500	0,1	1,032343
5,324167	0,1	1,045545
5,325833	0,1	1,052232
5,327500	0,1	1,063335
5,329167	0,1	1,026552
5,330833	0,1	1,040955
5,332500	0,1	0,987916
5,334167	0,1	1,007759
5,335833	0,1	1,042848
5,337500	0,1	0,979837
5,339167	0,1	0,988997
5,340833	0,1	1,017992
5,342500	0,1	0,969981
5,344167	0,1	0,976271
5,345833	0,1	0,952080
5,347500	0,1	0,999250
5,349167	0,1	0,947686
5,350833	0,1	0,991770
5,352500	0,1	1,009501
5,354167	0,1	0,961611
5,355833	0,1	0,977073
5,357500	0,1	0,930691
5,359167	0,1	0,929941
5,360833	0,1	0,910345
5,362500	0,1	0,945662
5,364167	0,1	0,950296
5,365833	0,1	0,947189
5,367500	0,1	0,930011
5,369167	0,1	0,893322
5,370833	0,1	0,929771
5,372500	0,1	0,914636
5,374167	0,1	0,919254
5,375833	0,1	0,957225
5,377500	0,1	0,912124
5,379167	0,1	0,880661
5,380833	0,1	0,916009
5,382500	0,1	0,907555
5,384167	0,1	0,890152
5,385833	0,1	0,885590
5,387500	0,1	0,876004
5,389167	0,1	0,855945
5,390833	0,1	0,904995
5,392500	0,1	0,836582
5,394167	0,1	0,870500
5,395833	0,1	0,865727
5,397500	0,1	0,847648
5,399167	0,1	0,858818
5,400833	0,1	0,849933
5,402500	0,1	0,845541
5,404167	0,1	0,860945
5,405833	0,1	0,821881
5,407500	0,1	0,822547
5,409167	0,1	0,844438
5,410833	0,1	0,815676
5,412500	0,1	0,837593
5,414167	0,1	0,801889
5,415833	0,1	0,825871
5,417500	0,1	0,817349
5,419167	0,1	0,802849
5,420833	0,1	0,833422
5,422500	0,1	0,823552
5,424167	0,1	0,812539
5,425833	0,1	0,792713
5,427500	0,1	0,800261
5,429167	0,1	0,824384
5,430833	0,1	0,783093
5,432500	0,1	0,771431
5,434167	0,1	0,790702
5,435833	0,1	0,775694
5,437500	0,1	0,813076
5,439167	0,1	0,781348
5,440833	0,1	0,779274
5,442500	0,1	0,798968
5,444167	0,1	0,765783
5,445833	0,1	0,782855
5,447500	0,1	0,744021
5,449167	0,1	0,741623
5,450833	0,1	0,785656
5,452500	0,1	0,747056
5,454167	0,1	0,736557
5,455833	0,1	0,738974
5,457500	0,1	0,766771
5,459167	0,1	0,738692
5,460833	0,1	0,742882
5,462500	0,1	0,769644
5,464167	0,1	0,736206
5,465833	0,1	0,755149
5,467500	0,1	0,760060
5,469167	0,1	0,733267
5,470833	0,1	0,691943
5,472500	0,1	0,732347
5,474167	0,1	0,684067
5,475833	0,1	0,761236
5,477500	0,1	0,725908
5,479167	0,1	0,712213
5,480833	0,1	0,717534
5,482500	0,1	0,735839
5,484167	0,1	0,708923
5,485833	0,1	0,712853
5,487500	0,1	0,693036
5,489167	0,1	0,735994
5,490833	0,1	0,686747
5,492500	0,1	0,684474
5,494167	0,1	0,710459
5,495833	0,1	0,658241
5,497500	0,1	0,654420
5,499167	0,1	0,678367
5,500833	0,1	0,683409
5,502500	0,1	0,675567
5,504167	0,1	0,689636
5,505833	0,1	0,684994
5,507500	0,1	0,704810
5,509167	0,1	0,672342
5,510833	0,1	0,662715
5,512500	0,1	0,686633
5,514167	0,1	0,674437
5,515833	0,1	0,651906
5,517500	0,1	0,688856
5,519167	0,1	0,685766
5,520833	0,1	0,693418
5,522500	0,1	0,675669
5,524167	0,1	0,707390
5,525833	0,1	0,666828
5,527500	0,1	0,665591
5,529167	0,1	0,659229
5,530833	0,1	0,670654
5,532500	0,1	0,670981
5,534167	0,1	0,676890
5,535833	0,1	0,655555
5,537500	0,1	0,612138
5,539167	0,1	0,679356
5,540833	0,1	0,675759
5,542500	0,1	0,617696
5,544167	0,1	0,643790
5,545833	0,1	0,642023
5,547500	0,1	0,665906
5,549167	0,1	0,645709
5,550833	0,1	0,632795
5,552500	0,1	0,643148
5,554167	0,1	0,573308
5,555833	0,1	0,636458
5,557500	0,1	0,624722
5,559167	0,1	0,631302
5,560833	0,1	0,655836
5,562500	0,1	0,596099
5,564167	0,1	0,619287
5,565833	0,1	0,623460
5,567500	0,1	0,626079
5,569167	0,1	0,620683
5,570833	0,1	0,635079
5,572500	0,1	0,624110
5,574167	0,1	0,610873
5,575833	0,1	0,650440
5,577500	0,1	0,648480
5,579167	0,1	0,635442
5,580833	0,1	0,634084
5,582500	0,1	0,662770
5,584167	0,1	0,600911
5,585833	0,1	0,628551
5,587500	0,1	0,623813
5,589167	0,1	0,597382
5,590833	0,1	0,639143
5,592500	0,1	0,630890
5,594167	0,1	0,625784
5,595833	0,1	0,623009
5,597500	0,1	0,629980
5,599167	0,1	0,640890
5,600833	0,1	0,614977
5,602500	0,1	0,621879
5,604167	0,1	0,619780
5,605833	0,1	0,596453
5,607500	0,1	0,580057
5,609167	0,1	0,603345
5,610833	0,1	0,601478
5,612500	0,1	0,625521
5,614167	0,1	0,604647
5,615833	0,1	0,589925
5,617500	0,1	0,578594
5,619167	0,1	0,551158
5,620833	0,1	0,604239
5,622500	0,1	0,597734
5,624167	0,1	0,575496
5,625833	0,1	0,589599
5,627500	0,1	0,592439
5,629167	0,1	0,593892
5,630833	0,1	0,620839
5,632500	0,1	0,586084
5,634167	0,1	0,588274
5,635833	0,1	0,551262
5,637500	0,1	0,585330
5,639167	0,1	0,586210
5,640833	0,1	0,617643
5,642500	0,1	0,583246
5,644167	0,1	0,572273
5,645833	0,1	0,628131
5,647500	0,1	0,542717
5,649167	0,1	0,556868
5,650833	0,1	0,563325
5,652500	0,1	0,584850
5,654167	0,1	0,584273
5,655833	0,1	0,547580
5,657500	0,1	0,580066
5,659167	0,1	0,589146
5,660833	0,1	0,587205
5,662500	0,1	0,576848
5,664167	0,1	0,568493
5,665833	0,1	0,601278
5,667500	0,1	0,571760
5,669167	0,1	0,574270
5,670833	0,1	0,577625
5,672500	0,1	0,564039
5,674167	0,1	0,581821
5,675833	0,1	0,553842
5,677500	0,1	0,573069
5,679167	0,1	0,611478
5,680833	0,1	0,534107
5,682500	0,1	0,629216
5,684167	0,1	0,585413
5,685833	0,1	0,578112
5,687500	0,1	0,579011
5,689167	0,1	0,574110
5,690833	0,1	0,566519
5,692500	0,1	0,602404
5,694167	0,1	0,557073
5,695833	0,1	0,579523
5,697500	0,1	0,606764
5,699167	0,1	0,584762
5,700833	0,1	0,581913
5,702500	0,1	0,575237
5,704167	0,1	0,624643
5,705833	0,1	0,579022
5,707500	0,1	0,548840
5,709167	0,1	0,617025
5,710833	0,1	0,620035
5,712500	0,1	0,591183
5,714167	0,1	0,582304
5,715833	0,1	0,615834
5,717500	0,1	0,561658
5,719167	0,1	0,559743
5,720833	0,1	0,604823
5,722500	0,1	0,567952
5,724167	0,1	0,616860
5,725833	0,1	0,572056
5,727500	0,1	0,598953
5,729167	0,1	0,566915
5,730833	0,1	0,578007
5,732500	0,1	0,556430
5,734167	0,1	0,599850
5,735833	0,1	0,602604
5,737500	0,1	0,619066
5,739167	0,1	0,555014
5,740833	0,1	0,555097
5,742500	0,1	0,612664
5,744167	0,1	0,613290
5,745833	0,1	0,596089
5,747500	0,1	0,590148
5,749167	0,1	0,566169
5,750833	0,1	0,623384
5,752500	0,1	0,601611
5,754167	0,1	0,577470
5,755833	0,1	0,654917
5,757500	0,1	0,618631
5,759167	0,1	0,550887
5,760833	0,1	0,634063
5,762500	0,1	0,576187
5,764167	0,1	0,613543
5,765833	0,1	0,585373
5,767500	0,1	0,567430
5,769167	0,1	0,607120
5,770833	0,1	0,574762
5,772500	0,1	0,608733
5,774167	0,1	0,596061
5,775833	0,1	0,567496
5,777500	0,1	0,559418
5,779167	0,1	0,597467
5,780833	0,1	0,600092
5,782500	0,1	0,571144
5,784167	0,1	0,574908
5,785833	0,1	0,605024
5,787500	0,1	0,593186
5,789167	0,1	0,540909
5,790833	0,1	0,555994
5,792500	0,1	0,634807
5,794167	0,1	0,555727
5,795833	0,1	0,598112
5,797500	0,1	0,616839
5,799167	0,1	0,590927
5,800833	0,1	0,599475
5,802500	0,1	0,585023
5,804167	0,1	0,624034
5,805833	0,1	0,598192
5,807500	0,1	0,556589
5,809167	0,1	0,601793
5,810833	0,1	0,641465
5,812500	0,1	0,571769
5,814167	0,1	0,576852
5,815833	0,1	0,577209
5,817500	0,1	0,570365
5,819167	0,1	0,573043
5,820833	0,1	0,578435
5,822500	0,1	0,590668
5,824167	0,1	0,597475
5,825833	0,1	0,586575
5,827500	0,1	0,552234
5,829167	0,1	0,586655
5,830833	0,1	0,570112
5,832500	0,1	0,598213
5,834167	0,1	0,552499
5,835833	0,1	0,586174
5,837500	0,1	0,601508
5,839167	0,1	0,559888
5,840833	0,1	0,559135
5,842500	0,1	0,538866
5,844167	0,1	0,542606
5,845833	0,1	0,594136
5,847500	0,1	0,581411
5,849167	0,1	0,608706
5,850833	0,1	0,606677
5,852500	0,1	0,552175
5,854167	0,1	0,558878
5,855833	0,1	0,551191
5,857500	0,1	0,603953
5,859167	0,1	0,572860
5,860833	0,1	0,583662
5,862500	0,1	0,589571
5,864167	0,1	0,577501
5,865833	0,1	0,569109
5,867500	0,1	0,569298
5,869167	0,1	0,562938
5,870833	0,1	0,553582
5,872500	0,1	0,569012
5,874167	0,1	0,567107
5,875833	0,1	0,571170
5,877500	0,1	0,582398
5,879167	0,1	0,521712
5,880833	0,1	0,558934
5,882500	0,1	0,549353
5,884167	0,1	0,518185
5,885833	0,1	0,587712
5,887500	0,1	0,539845
5,889167	0,1	0,559966
5,890833	0,1	0,544127
5,892500	0,1	0,517767
5,894167	0,1	0,584754
5,895833	0,1	0,506695
5,897500	0,1	0,520266
5,899167	0,1	0,524532
5,900833	0,1	0,566061
5,902500	0,1	0,543229
5,904167	0,1	0,506505
5,905833	0,1	0,536625
5,907500	0,1	0,562157
5,909167	0,1	0,541292
5,910833	0,1	0,546160
5,912500	0,1	0,559195
5,914167	0,1	0,542611
5,915833	0,1	0,527272
5,917500	0,1	0,545830
5,919167	0,1	0,496463
5,920833	0,1	0,545949
5,922500	0,1	0,541189
5,924167	0,1	0,523892
5,925833	0,1	0,512816
5,927500	0,1	0,517986
5,929167	0,1	0,520924
5,930833	0,1	0,503883
5,932500	0,1	0,506940
5,934167	0,1	0,496363
5,935833	0,1	0,503712
5,937500	0,1	0,514366
5,939167	0,1	0,517115
5,940833	0,1	0,510335
5,942500	0,1	0,515267
5,944167	0,1	0,498275
5,945833	0,1	0,487164
5,947500	0,1	0,511136
5,949167	0,1	0,522111
5,950833	0,1	0,470077
5,952500	0,1	0,485649
5,954167	0,1	0,545918
5,955833	0,1	0,476951
5,957500	0,1	0,536818
5,959167	0,1	0,491235
5,960833	0,1	0,515008
5,962500	0,1	0,491911
5,964167	0,1	0,455444
5,965833	0,1	0,471807
5,967500	0,1	0,482641
5,969167	0,1	0,483035
5,970833	0,1	0,480772
5,972500	0,1	0,504455
5,974167	0,1	0,460901
5,975833	0,1	0,501577
5,977500	0,1	0,462619
5,979167	0,1	0,483384
5,980833	0,1	0,485388
5,982500	0,1	0,471094
5,984167	0,1	0,463839
5,985833	0,1	0,483285
5,987500	0,1	0,474458
5,989167	0,1	0,499038
5,990833	0,1	0,477284
5,992500	0,1	0,486577
5,994167	0,1	0,432192
5,995833	0,1	0,452722
5,997500	0,1	0,498514
5,999167	0,1	0,457837
6,000833	0,1	0,475350
