File Path	chrom://chromeleon01/ikbm_chromeleon/2022/ICS-5000/ED1/Esteban/20220612_Cell_7_4_eg.seq/353.smp/ED_1.channel/ED_1.chm
Channel	ED_1

Injection Information:
Data Vault	ikbm_chromeleon
Injection	4_00.5h-EGS_2
Injection Number	117
Position	BC1
Comment	
Processing Method	Stop sequence after Cell Death
Instrument Method	ICS5000_PA200_FullNative_Ox_26min_ED1
Type	Unknown
Status	Finished
Injection Date	14.06.2022
Injection Time	23:24:31
Injection Volume (µl)	5,0
Dilution Factor	1,0000
Weight	1,0000

Chromatogram Data Information:
Time Min. (min)	0,000167
Time Max. (min)	26,000167
Data Points	3121
Detector	EDet1
Generating Data System	Chromeleon 7.2.9.11323
Exporting Data System	Chromeleon 7.2.9.0
Operator	Instrument Controller
Signal Quantity	
Signal Unit	nC
Signal Min.	-2,298200
Signal Max.	2 150,418282
Channel	ED_1
Driver Name	DC-5000
Channel Type	Evaluation
Min. Step (s)	0,5
Max. Step (s)	0,5
Average Step (s)	0,5

Signal Parameter Information:
Signal Info	

Chromatogram Data:
Time (min)	Step (s)	Value (nC)
0,000167	n.a.	-0,015700
0,008500	0,5	-0,082700
0,016833	0,5	-0,086000
0,025167	0,5	-0,072600
0,033500	0,5	-0,055950
0,041833	0,5	-0,039300
0,050167	0,5	-0,053800
0,058500	0,5	-0,023900
0,066833	0,5	-0,044950
0,075167	0,5	-0,060800
0,083500	0,5	-0,053850
0,091833	0,5	-0,029000
0,100167	0,5	-0,008100
0,108500	0,5	0,005750
0,116833	0,5	-0,003750
0,125167	0,5	0,003650
0,133500	0,5	-0,001950
0,141833	0,5	-0,005000
0,150167	0,5	-0,009300
0,158500	0,5	-0,015550
0,166833	0,5	-0,015650
0,175167	0,5	-0,023700
0,183500	0,5	-0,017500
0,191833	0,5	-0,051250
0,200167	0,5	-0,046650
0,208500	0,5	-0,031000
0,216833	0,5	-0,039900
0,225167	0,5	-0,054350
0,233500	0,5	-0,046550
0,241833	0,5	-0,034500
0,250167	0,5	-0,007250
0,258500	0,5	-0,001700
0,266833	0,5	-0,003250
0,275167	0,5	-0,011950
0,283500	0,5	-0,007750
0,291833	0,5	-0,012800
0,300167	0,5	0,025600
0,308500	0,5	0,048650
0,316833	0,5	0,028150
0,325167	0,5	-0,016750
0,333500	0,5	-0,054450
0,341833	0,5	-0,075050
0,350167	0,5	-0,067000
0,358500	0,5	-0,058050
0,366833	0,5	-0,065600
0,375167	0,5	-0,069400
0,383500	0,5	-0,070350
0,391833	0,5	-0,041000
0,400167	0,5	-0,026200
0,408500	0,5	-0,014250
0,416833	0,5	-0,026800
0,425167	0,5	-0,024200
0,433500	0,5	-0,035250
0,441833	0,5	-0,030500
0,450167	0,5	-0,040350
0,458500	0,5	-0,038150
0,466833	0,5	-0,039300
0,475167	0,5	-0,044800
0,483500	0,5	-0,041450
0,491833	0,5	-0,058700
0,500167	0,5	-0,037900
0,508500	0,5	-0,042150
0,516833	0,5	-0,058200
0,525167	0,5	-0,059550
0,533500	0,5	-0,050250
0,541833	0,5	-0,015700
0,550167	0,5	-0,007950
0,558500	0,5	-0,025000
0,566833	0,5	-0,012750
0,575167	0,5	-0,022200
0,583500	0,5	-0,006250
0,591833	0,5	-0,019850
0,600167	0,5	-0,009350
0,608500	0,5	-0,019350
0,616833	0,5	-0,014550
0,625167	0,5	-0,015850
0,633500	0,5	-0,027250
0,641833	0,5	-0,039300
0,650167	0,5	0,004050
0,658500	0,5	-0,020700
0,666833	0,5	-0,027000
0,675167	0,5	-0,026100
0,683500	0,5	-0,014300
0,691833	0,5	0,025750
0,700167	0,5	0,016650
0,708500	0,5	0,016300
0,716833	0,5	0,011400
0,725167	0,5	0,024450
0,733500	0,5	0,017850
0,741833	0,5	0,025650
0,750167	0,5	0,013850
0,758500	0,5	0,016350
0,766833	0,5	0,015050
0,775167	0,5	0,032050
0,783500	0,5	0,019100
0,791833	0,5	0,019700
0,800167	0,5	0,042800
0,808500	0,5	0,021000
0,816833	0,5	0,014200
0,825167	0,5	0,021350
0,833500	0,5	0,030600
0,841833	0,5	0,071900
0,850167	0,5	0,062250
0,858500	0,5	0,057300
0,866833	0,5	0,057050
0,875167	0,5	0,060150
0,883500	0,5	0,061550
0,891833	0,5	0,064700
0,900167	0,5	0,067150
0,908500	0,5	0,061200
0,916833	0,5	0,063200
0,925167	0,5	0,067500
0,933500	0,5	0,073400
0,941833	0,5	0,067150
0,950167	0,5	0,086650
0,958500	0,5	0,056150
0,966833	0,5	0,060900
0,975167	0,5	0,061800
0,983500	0,5	0,091000
0,991833	0,5	0,115100
1,000167	0,5	0,109750
1,008500	0,5	0,105950
1,016833	0,5	0,109950
1,025167	0,5	0,107400
1,033500	0,5	0,107400
1,041833	0,5	0,100500
1,050167	0,5	0,098100
1,058500	0,5	0,099950
1,066833	0,5	0,100850
1,075167	0,5	0,103000
1,083500	0,5	0,095300
1,091833	0,5	0,118000
1,100167	0,5	0,104650
1,108500	0,5	0,087700
1,116833	0,5	0,085550
1,125167	0,5	0,100000
1,133500	0,5	0,123150
1,141833	0,5	0,149300
1,150167	0,5	0,132900
1,158500	0,5	0,142600
1,166833	0,5	0,129800
1,175167	0,5	0,137600
1,183500	0,5	0,131900
1,191833	0,5	0,135100
1,200167	0,5	0,126300
1,208500	0,5	0,128550
1,216833	0,5	0,127700
1,225167	0,5	0,112100
1,233500	0,5	0,115850
1,241833	0,5	0,127350
1,250167	0,5	0,115450
1,258500	0,5	0,106950
1,266833	0,5	0,113650
1,275167	0,5	0,129650
1,283500	0,5	0,159300
1,291833	0,5	0,160550
1,300167	0,5	0,163250
1,308500	0,5	0,152950
1,316833	0,5	0,160450
1,325167	0,5	0,146550
1,333500	0,5	0,157150
1,341833	0,5	0,143450
1,350167	0,5	0,144700
1,358500	0,5	0,141700
1,366833	0,5	0,148850
1,375167	0,5	0,137200
1,383500	0,5	0,154800
1,391833	0,5	0,152350
1,400167	0,5	0,136800
1,408500	0,5	0,130250
1,416833	0,5	0,136050
1,425167	0,5	0,158100
1,433500	0,5	0,170800
1,441833	0,5	0,175250
1,450167	0,5	0,164900
1,458500	0,5	0,171850
1,466833	0,5	0,170350
1,475167	0,5	0,175400
1,483500	0,5	0,162550
1,491833	0,5	0,166000
1,500167	0,5	0,158450
1,508500	0,5	0,167300
1,516833	0,5	0,158600
1,525167	0,5	0,151200
1,533500	0,5	0,167050
1,541833	0,5	0,161250
1,550167	0,5	0,148100
1,558500	0,5	0,175350
1,566833	0,5	0,286350
1,575167	0,5	0,649050
1,583500	0,5	1,450500
1,591833	0,5	4,461800
1,600167	0,5	20,879750
1,608500	0,5	92,988601
1,616833	0,5	347,720805
1,625167	0,5	1 022,283515
1,633500	0,5	1 553,224623
1,641833	0,5	2 150,418282
1,650167	0,5	2 031,205980
1,658500	0,5	1 986,811130
1,666833	0,5	1 979,194929
1,675167	0,5	1 967,484179
1,683500	0,5	1 778,924627
1,691833	0,5	1 389,333871
1,700167	0,5	985,762115
1,708500	0,5	700,801310
1,716833	0,5	524,741058
1,725167	0,5	419,205956
1,733500	0,5	347,833055
1,741833	0,5	294,739654
1,750167	0,5	252,724604
1,758500	0,5	219,498403
1,766833	0,5	192,478253
1,775167	0,5	169,452103
1,783500	0,5	150,366652
1,791833	0,5	136,515452
1,800167	0,5	128,635302
1,808500	0,5	125,981702
1,816833	0,5	126,385452
1,825167	0,5	127,612702
1,833500	0,5	128,206702
1,841833	0,5	126,933052
1,850167	0,5	123,262652
1,858500	0,5	117,415602
1,866833	0,5	110,281402
1,875167	0,5	102,898452
1,883500	0,5	96,001751
1,891833	0,5	90,140951
1,900167	0,5	85,157201
1,908500	0,5	80,736051
1,916833	0,5	76,690401
1,925167	0,5	73,226001
1,933500	0,5	70,526551
1,941833	0,5	68,487551
1,950167	0,5	66,607551
1,958500	0,5	64,672951
1,966833	0,5	62,939151
1,975167	0,5	61,692201
1,983500	0,5	61,048101
1,991833	0,5	61,258851
2,000167	0,5	62,655101
2,008500	0,5	64,226751
2,016833	0,5	64,037951
2,025167	0,5	61,218101
2,033500	0,5	57,034751
2,041833	0,5	53,191901
2,050167	0,5	50,506551
2,058500	0,5	49,051301
2,066833	0,5	48,940851
2,075167	0,5	50,782151
2,083500	0,5	56,241601
2,091833	0,5	66,736451
2,100167	0,5	79,808351
2,108500	0,5	88,447901
2,116833	0,5	88,904051
2,125167	0,5	85,946951
2,133500	0,5	86,205401
2,141833	0,5	90,364751
2,150167	0,5	93,963151
2,158500	0,5	92,959201
2,166833	0,5	87,140701
2,175167	0,5	78,278001
2,183500	0,5	68,120101
2,191833	0,5	58,447001
2,200167	0,5	50,608751
2,208500	0,5	45,081051
2,216833	0,5	41,602851
2,225167	0,5	39,996601
2,233500	0,5	40,432851
2,241833	0,5	43,024551
2,250167	0,5	46,316851
2,258500	0,5	47,559851
2,266833	0,5	45,543601
2,275167	0,5	41,756501
2,283500	0,5	38,070101
2,291833	0,5	35,291101
2,300167	0,5	33,305700
2,308500	0,5	31,907100
2,316833	0,5	31,000350
2,325167	0,5	30,420400
2,333500	0,5	29,979350
2,341833	0,5	29,563450
2,350167	0,5	29,271600
2,358500	0,5	29,344200
2,366833	0,5	29,973150
2,375167	0,5	30,997750
2,383500	0,5	32,057600
2,391833	0,5	32,872350
2,400167	0,5	33,604101
2,408500	0,5	34,549301
2,416833	0,5	35,754001
2,425167	0,5	36,462751
2,433500	0,5	36,006401
2,441833	0,5	34,599001
2,450167	0,5	32,976900
2,458500	0,5	31,622900
2,466833	0,5	30,613450
2,475167	0,5	29,771800
2,483500	0,5	29,019800
2,491833	0,5	28,336200
2,500167	0,5	27,760450
2,508500	0,5	27,273000
2,516833	0,5	26,859150
2,525167	0,5	26,509200
2,533500	0,5	26,227150
2,541833	0,5	26,002950
2,550167	0,5	25,768400
2,558500	0,5	25,501700
2,566833	0,5	25,233950
2,575167	0,5	25,050450
2,583500	0,5	25,254000
2,591833	0,5	26,624500
2,600167	0,5	28,350600
2,608500	0,5	27,861800
2,616833	0,5	25,725300
2,625167	0,5	24,048000
2,633500	0,5	23,102550
2,641833	0,5	22,581450
2,650167	0,5	22,251500
2,658500	0,5	22,038500
2,666833	0,5	21,887650
2,675167	0,5	21,780650
2,683500	0,5	21,721550
2,691833	0,5	21,697300
2,700167	0,5	21,711050
2,708500	0,5	21,689600
2,716833	0,5	21,671850
2,725167	0,5	21,534750
2,733500	0,5	21,351450
2,741833	0,5	21,121650
2,750167	0,5	20,890250
2,758500	0,5	20,683550
2,766833	0,5	20,475100
2,775167	0,5	20,305700
2,783500	0,5	20,253250
2,791833	0,5	20,303300
2,800167	0,5	20,572350
2,808500	0,5	21,094850
2,816833	0,5	21,909600
2,825167	0,5	22,909000
2,833500	0,5	23,924800
2,841833	0,5	24,793050
2,850167	0,5	25,457150
2,858500	0,5	25,952700
2,866833	0,5	26,398650
2,875167	0,5	26,791800
2,883500	0,5	27,384650
2,891833	0,5	28,459150
2,900167	0,5	30,621650
2,908500	0,5	35,012701
2,916833	0,5	43,420751
2,925167	0,5	58,305951
2,933500	0,5	81,164501
2,941833	0,5	110,440452
2,950167	0,5	140,027502
2,958500	0,5	161,539552
2,966833	0,5	168,692903
2,975167	0,5	160,855902
2,983500	0,5	142,358602
2,991833	0,5	119,788852
3,000167	0,5	98,825151
3,008500	0,5	82,614901
3,016833	0,5	71,474851
3,025167	0,5	64,038801
3,033500	0,5	58,632301
3,041833	0,5	53,974451
3,050167	0,5	49,479201
3,058500	0,5	45,058651
3,066833	0,5	40,869251
3,075167	0,5	37,146701
3,083500	0,5	34,097201
3,091833	0,5	31,875350
3,100167	0,5	30,698150
3,108500	0,5	30,838000
3,116833	0,5	32,552800
3,125167	0,5	35,807451
3,133500	0,5	40,105251
3,141833	0,5	44,395351
3,150167	0,5	47,533451
3,158500	0,5	48,663151
3,166833	0,5	47,516201
3,175167	0,5	44,429451
3,183500	0,5	40,154951
3,191833	0,5	35,443751
3,200167	0,5	30,960000
3,208500	0,5	27,082950
3,216833	0,5	23,964500
3,225167	0,5	21,610100
3,233500	0,5	19,890050
3,241833	0,5	18,649800
3,250167	0,5	17,754050
3,258500	0,5	17,099200
3,266833	0,5	16,598100
3,275167	0,5	16,212400
3,283500	0,5	15,898000
3,291833	0,5	15,637300
3,300167	0,5	15,411300
3,308500	0,5	15,239850
3,316833	0,5	15,054500
3,325167	0,5	14,904300
3,333500	0,5	14,797350
3,341833	0,5	14,768300
3,350167	0,5	14,829950
3,358500	0,5	14,999350
3,366833	0,5	15,274750
3,375167	0,5	15,668450
3,383500	0,5	16,074600
3,391833	0,5	16,423550
3,400167	0,5	16,596500
3,408500	0,5	16,556200
3,416833	0,5	16,307050
3,425167	0,5	15,906250
3,433500	0,5	15,443300
3,441833	0,5	14,955950
3,450167	0,5	14,560700
3,458500	0,5	14,226850
3,466833	0,5	13,941550
3,475167	0,5	13,712100
3,483500	0,5	13,535350
3,491833	0,5	13,390900
3,500167	0,5	13,281750
3,508500	0,5	13,161600
3,516833	0,5	13,076700
3,525167	0,5	12,997600
3,533500	0,5	12,945500
3,541833	0,5	12,891400
3,550167	0,5	12,879500
3,558500	0,5	12,879250
3,566833	0,5	12,946200
3,575167	0,5	13,080750
3,583500	0,5	13,302650
3,591833	0,5	13,587200
3,600167	0,5	13,928950
3,608500	0,5	14,182450
3,616833	0,5	14,305450
3,625167	0,5	14,263850
3,633500	0,5	14,050400
3,641833	0,5	13,739150
3,650167	0,5	13,350050
3,658500	0,5	12,984800
3,666833	0,5	12,685750
3,675167	0,5	12,492100
3,683500	0,5	12,379450
3,691833	0,5	12,357200
3,700167	0,5	12,386650
3,708500	0,5	12,492150
3,716833	0,5	12,634250
3,725167	0,5	12,810500
3,733500	0,5	12,999750
3,741833	0,5	13,147100
3,750167	0,5	13,262650
3,758500	0,5	13,251750
3,766833	0,5	13,146300
3,775167	0,5	12,962500
3,783500	0,5	12,724300
3,791833	0,5	12,488550
3,800167	0,5	12,240850
3,808500	0,5	12,014650
3,816833	0,5	11,848350
3,825167	0,5	11,701250
3,833500	0,5	11,586650
3,841833	0,5	11,465550
3,850167	0,5	11,362450
3,858500	0,5	11,244200
3,866833	0,5	11,148900
3,875167	0,5	11,063400
3,883500	0,5	10,983400
3,891833	0,5	10,914200
3,900167	0,5	10,898950
3,908500	0,5	10,843200
3,916833	0,5	10,825550
3,925167	0,5	10,801200
3,933500	0,5	10,793100
3,941833	0,5	10,787200
3,950167	0,5	10,739800
3,958500	0,5	10,683600
3,966833	0,5	10,620250
3,975167	0,5	10,558750
3,983500	0,5	10,492900
3,991833	0,5	10,445350
4,000167	0,5	10,401750
4,008500	0,5	10,381000
4,016833	0,5	10,376350
4,025167	0,5	10,393150
4,033500	0,5	10,423050
4,041833	0,5	10,478300
4,050167	0,5	10,526150
4,058500	0,5	10,533900
4,066833	0,5	10,525000
4,075167	0,5	10,496100
4,083500	0,5	10,447550
4,091833	0,5	10,385950
4,100167	0,5	10,282850
4,108500	0,5	10,184450
4,116833	0,5	10,095150
4,125167	0,5	10,023600
4,133500	0,5	9,961150
4,141833	0,5	9,913550
4,150167	0,5	9,877250
4,158500	0,5	9,860500
4,166833	0,5	9,858850
4,175167	0,5	9,846400
4,183500	0,5	9,852700
4,191833	0,5	9,872050
4,200167	0,5	9,882800
4,208500	0,5	9,877250
4,216833	0,5	9,898450
4,225167	0,5	9,920500
4,233500	0,5	9,973550
4,241833	0,5	10,009600
4,250167	0,5	10,039700
4,258500	0,5	10,060450
4,266833	0,5	10,088000
4,275167	0,5	10,110400
4,283500	0,5	10,151350
4,291833	0,5	10,205950
4,300167	0,5	10,277700
4,308500	0,5	10,368800
4,316833	0,5	10,467650
4,325167	0,5	10,560750
4,333500	0,5	10,650350
4,341833	0,5	10,718100
4,350167	0,5	10,717900
4,358500	0,5	10,684650
4,366833	0,5	10,616400
4,375167	0,5	10,523850
4,383500	0,5	10,409200
4,391833	0,5	10,277850
4,400167	0,5	10,139500
4,408500	0,5	10,034900
4,416833	0,5	9,938200
4,425167	0,5	9,881800
4,433500	0,5	9,829750
4,441833	0,5	9,808650
4,450167	0,5	9,789500
4,458500	0,5	9,799000
4,466833	0,5	9,812950
4,475167	0,5	9,819750
4,483500	0,5	9,855050
4,491833	0,5	9,890700
4,500167	0,5	9,889150
4,508500	0,5	9,886000
4,516833	0,5	9,875800
4,525167	0,5	9,861200
4,533500	0,5	9,824800
4,541833	0,5	9,751800
4,550167	0,5	9,686250
4,558500	0,5	9,609850
4,566833	0,5	9,547400
4,575167	0,5	9,479400
4,583500	0,5	9,427650
4,591833	0,5	9,369050
4,600167	0,5	9,335300
4,608500	0,5	9,299350
4,616833	0,5	9,271400
4,625167	0,5	9,225700
4,633500	0,5	9,224200
4,641833	0,5	9,199550
4,650167	0,5	9,173650
4,658500	0,5	9,154150
4,666833	0,5	9,152950
4,675167	0,5	9,163300
4,683500	0,5	9,157150
4,691833	0,5	9,141900
4,700167	0,5	9,131000
4,708500	0,5	9,122450
4,716833	0,5	9,112350
4,725167	0,5	9,108350
4,733500	0,5	9,091700
4,741833	0,5	9,087800
4,750167	0,5	9,076950
4,758500	0,5	9,074000
4,766833	0,5	9,060400
4,775167	0,5	9,047100
4,783500	0,5	9,053450
4,791833	0,5	9,032750
4,800167	0,5	9,011150
4,808500	0,5	9,006050
4,816833	0,5	9,001550
4,825167	0,5	9,016200
4,833500	0,5	9,001500
4,841833	0,5	8,990100
4,850167	0,5	8,984350
4,858500	0,5	8,983350
4,866833	0,5	8,983300
4,875167	0,5	8,985700
4,883500	0,5	8,997200
4,891833	0,5	9,001650
4,900167	0,5	9,020200
4,908500	0,5	9,042350
4,916833	0,5	9,068400
4,925167	0,5	9,085900
4,933500	0,5	9,137450
4,941833	0,5	9,146850
4,950167	0,5	9,194300
4,958500	0,5	9,248950
4,966833	0,5	9,336450
4,975167	0,5	9,445500
4,983500	0,5	9,556000
4,991833	0,5	9,681150
5,000167	0,5	9,852150
5,008500	0,5	10,036050
5,016833	0,5	10,261100
5,025167	0,5	10,504650
5,033500	0,5	10,765250
5,041833	0,5	11,046700
5,050167	0,5	11,331900
5,058500	0,5	11,617650
5,066833	0,5	11,881000
5,075167	0,5	12,150950
5,083500	0,5	12,417000
5,091833	0,5	12,646350
5,100167	0,5	12,875700
5,108500	0,5	13,093300
5,116833	0,5	13,292400
5,125167	0,5	13,459900
5,133500	0,5	13,531550
5,141833	0,5	13,546000
5,150167	0,5	13,462350
5,158500	0,5	13,311100
5,166833	0,5	13,059300
5,175167	0,5	12,743900
5,183500	0,5	12,367500
5,191833	0,5	11,956100
5,200167	0,5	11,533800
5,208500	0,5	11,103850
5,216833	0,5	10,704100
5,225167	0,5	10,360350
5,233500	0,5	10,033700
5,241833	0,5	9,751550
5,250167	0,5	9,525250
5,258500	0,5	9,344600
5,266833	0,5	9,219000
5,275167	0,5	9,111500
5,283500	0,5	9,036800
5,291833	0,5	8,972800
5,300167	0,5	8,936850
5,308500	0,5	8,912100
5,316833	0,5	8,911000
5,325167	0,5	8,922400
5,333500	0,5	8,954050
5,341833	0,5	8,995700
5,350167	0,5	9,047800
5,358500	0,5	9,088600
5,366833	0,5	9,143650
5,375167	0,5	9,191550
5,383500	0,5	9,205150
5,391833	0,5	9,207000
5,400167	0,5	9,204100
5,408500	0,5	9,197550
5,416833	0,5	9,191200
5,425167	0,5	9,164000
5,433500	0,5	9,130650
5,441833	0,5	9,116250
5,450167	0,5	9,113900
5,458500	0,5	9,118000
5,466833	0,5	9,125800
5,475167	0,5	9,144400
5,483500	0,5	9,157750
5,491833	0,5	9,173500
5,500167	0,5	9,174150
5,508500	0,5	9,153850
5,516833	0,5	9,121250
5,525167	0,5	9,090450
5,533500	0,5	9,006450
5,541833	0,5	8,927050
5,550167	0,5	8,841100
5,558500	0,5	8,764300
5,566833	0,5	8,688050
5,575167	0,5	8,602100
5,583500	0,5	8,521900
5,591833	0,5	8,454000
5,600167	0,5	8,396400
5,608500	0,5	8,343100
5,616833	0,5	8,298300
5,625167	0,5	8,254250
5,633500	0,5	8,221350
5,641833	0,5	8,187050
5,650167	0,5	8,162650
5,658500	0,5	8,109400
5,666833	0,5	8,094800
5,675167	0,5	8,056950
5,683500	0,5	8,017200
5,691833	0,5	7,984350
5,700167	0,5	7,972800
5,708500	0,5	7,976000
5,716833	0,5	7,967100
5,725167	0,5	7,947450
5,733500	0,5	7,947050
5,741833	0,5	7,937850
5,750167	0,5	7,939550
5,758500	0,5	7,933900
5,766833	0,5	7,939750
5,775167	0,5	7,937750
5,783500	0,5	7,939450
5,791833	0,5	7,942350
5,800167	0,5	7,926300
5,808500	0,5	7,914750
5,816833	0,5	7,927150
5,825167	0,5	7,909350
5,833500	0,5	7,893450
5,841833	0,5	7,886150
5,850167	0,5	7,880500
5,858500	0,5	7,896450
5,866833	0,5	7,884000
5,875167	0,5	7,873300
5,883500	0,5	7,856950
5,891833	0,5	7,847450
5,900167	0,5	7,826750
5,908500	0,5	7,814100
5,916833	0,5	7,795150
5,925167	0,5	7,772900
5,933500	0,5	7,754350
5,941833	0,5	7,736550
5,950167	0,5	7,719650
5,958500	0,5	7,702200
5,966833	0,5	7,697800
5,975167	0,5	7,673300
5,983500	0,5	7,662450
5,991833	0,5	7,652400
6,000167	0,5	7,657100
6,008500	0,5	7,670700
6,016833	0,5	7,671700
6,025167	0,5	7,653500
6,033500	0,5	7,650300
6,041833	0,5	7,630500
6,050167	0,5	7,626000
6,058500	0,5	7,613100
6,066833	0,5	7,605400
6,075167	0,5	7,591550
6,083500	0,5	7,587700
6,091833	0,5	7,579500
6,100167	0,5	7,572150
6,108500	0,5	7,576000
6,116833	0,5	7,579150
6,125167	0,5	7,562750
6,133500	0,5	7,563850
6,141833	0,5	7,566050
6,150167	0,5	7,589550
6,158500	0,5	7,605700
6,166833	0,5	7,604750
6,175167	0,5	7,608300
6,183500	0,5	7,606850
6,191833	0,5	7,612750
6,200167	0,5	7,610850
6,208500	0,5	7,617700
6,216833	0,5	7,614500
6,225167	0,5	7,620550
6,233500	0,5	7,619900
6,241833	0,5	7,621200
6,250167	0,5	7,621400
6,258500	0,5	7,645400
6,266833	0,5	7,640050
6,275167	0,5	7,631700
6,283500	0,5	7,634600
6,291833	0,5	7,639250
6,300167	0,5	7,657100
6,308500	0,5	7,657300
6,316833	0,5	7,653250
6,325167	0,5	7,640750
6,333500	0,5	7,631400
6,341833	0,5	7,617750
6,350167	0,5	7,604800
6,358500	0,5	7,585800
6,366833	0,5	7,567600
6,375167	0,5	7,553950
6,383500	0,5	7,546900
6,391833	0,5	7,526300
6,400167	0,5	7,520350
6,408500	0,5	7,517650
6,416833	0,5	7,501700
6,425167	0,5	7,482850
6,433500	0,5	7,482700
6,441833	0,5	7,490200
6,450167	0,5	7,511900
6,458500	0,5	7,517300
6,466833	0,5	7,527400
6,475167	0,5	7,545100
6,483500	0,5	7,574900
6,491833	0,5	7,610450
6,500167	0,5	7,654750
6,508500	0,5	7,704450
6,516833	0,5	7,758900
6,525167	0,5	7,821150
6,533500	0,5	7,876550
6,541833	0,5	7,924000
6,550167	0,5	7,961350
6,558500	0,5	7,991900
6,566833	0,5	7,978550
6,575167	0,5	7,968450
6,583500	0,5	7,947700
6,591833	0,5	7,932050
6,600167	0,5	7,910650
6,608500	0,5	7,874200
6,616833	0,5	7,837450
6,625167	0,5	7,813850
6,633500	0,5	7,782000
6,641833	0,5	7,760200
6,650167	0,5	7,731350
6,658500	0,5	7,709650
6,666833	0,5	7,688450
6,675167	0,5	7,669650
6,683500	0,5	7,660850
6,691833	0,5	7,635700
6,700167	0,5	7,635950
6,708500	0,5	7,627950
6,716833	0,5	7,615550
6,725167	0,5	7,610650
6,733500	0,5	7,623000
6,741833	0,5	7,644600
6,750167	0,5	7,669050
6,758500	0,5	7,679300
6,766833	0,5	7,709200
6,775167	0,5	7,740300
6,783500	0,5	7,785700
6,791833	0,5	7,830350
6,800167	0,5	7,892550
6,808500	0,5	7,951000
6,816833	0,5	8,031600
6,825167	0,5	8,113050
6,833500	0,5	8,200750
6,841833	0,5	8,293900
6,850167	0,5	8,424900
6,858500	0,5	8,556800
6,866833	0,5	8,734100
6,875167	0,5	8,970900
6,883500	0,5	9,303200
6,891833	0,5	9,781950
6,900167	0,5	10,426900
6,908500	0,5	11,317000
6,916833	0,5	12,505150
6,925167	0,5	14,017650
6,933500	0,5	15,821650
6,941833	0,5	17,831400
6,950167	0,5	19,872700
6,958500	0,5	21,743200
6,966833	0,5	23,217050
6,975167	0,5	24,141450
6,983500	0,5	24,395450
6,991833	0,5	24,014450
7,000167	0,5	23,089500
7,008500	0,5	21,737800
7,016833	0,5	20,150650
7,025167	0,5	18,483450
7,033500	0,5	16,857100
7,041833	0,5	15,347750
7,050167	0,5	13,970950
7,058500	0,5	12,752800
7,066833	0,5	11,711000
7,075167	0,5	10,840950
7,083500	0,5	10,140850
7,091833	0,5	9,587900
7,100167	0,5	9,172950
7,108500	0,5	8,856700
7,116833	0,5	8,625300
7,125167	0,5	8,450350
7,133500	0,5	8,324800
7,141833	0,5	8,234400
7,150167	0,5	8,165150
7,158500	0,5	8,090750
7,166833	0,5	8,012350
7,175167	0,5	7,924750
7,183500	0,5	7,844300
7,191833	0,5	7,761400
7,200167	0,5	7,678300
7,208500	0,5	7,604100
7,216833	0,5	7,545250
7,225167	0,5	7,501150
7,233500	0,5	7,461500
7,241833	0,5	7,428600
7,250167	0,5	7,394900
7,258500	0,5	7,366000
7,266833	0,5	7,334650
7,275167	0,5	7,309450
7,283500	0,5	7,275400
7,291833	0,5	7,258100
7,300167	0,5	7,228850
7,308500	0,5	7,202200
7,316833	0,5	7,176650
7,325167	0,5	7,161350
7,333500	0,5	7,152100
7,341833	0,5	7,145700
7,350167	0,5	7,125500
7,358500	0,5	7,108000
7,366833	0,5	7,082150
7,375167	0,5	7,069400
7,383500	0,5	7,051600
7,391833	0,5	7,047350
7,400167	0,5	7,047350
7,408500	0,5	7,060650
7,416833	0,5	7,075300
7,425167	0,5	7,075350
7,433500	0,5	7,066600
7,441833	0,5	7,053000
7,450167	0,5	7,004000
7,458500	0,5	6,951250
7,466833	0,5	6,906700
7,475167	0,5	6,870600
7,483500	0,5	6,851300
7,491833	0,5	6,821900
7,500167	0,5	6,800250
7,508500	0,5	6,780400
7,516833	0,5	6,767000
7,525167	0,5	6,753700
7,533500	0,5	6,739500
7,541833	0,5	6,709800
7,550167	0,5	6,684600
7,558500	0,5	6,654550
7,566833	0,5	6,633250
7,575167	0,5	6,619150
7,583500	0,5	6,621600
7,591833	0,5	6,640250
7,600167	0,5	6,646750
7,608500	0,5	6,651700
7,616833	0,5	6,649650
7,625167	0,5	6,644200
7,633500	0,5	6,639650
7,641833	0,5	6,626450
7,650167	0,5	6,620000
7,658500	0,5	6,638350
7,666833	0,5	6,706700
7,675167	0,5	6,864550
7,683500	0,5	7,104450
7,691833	0,5	7,384500
7,700167	0,5	7,623600
7,708500	0,5	7,771950
7,716833	0,5	7,794350
7,725167	0,5	7,712000
7,733500	0,5	7,551600
7,741833	0,5	7,354350
7,750167	0,5	7,139600
7,758500	0,5	6,953100
7,766833	0,5	6,807000
7,775167	0,5	6,712750
7,783500	0,5	6,658150
7,791833	0,5	6,621100
7,800167	0,5	6,621150
7,808500	0,5	6,641550
7,816833	0,5	6,677350
7,825167	0,5	6,718750
7,833500	0,5	6,746650
7,841833	0,5	6,739950
7,850167	0,5	6,713850
7,858500	0,5	6,682350
7,866833	0,5	6,688300
7,875167	0,5	6,732450
7,883500	0,5	6,837100
7,891833	0,5	6,981450
7,900167	0,5	7,170350
7,908500	0,5	7,428450
7,916833	0,5	7,782700
7,925167	0,5	8,283750
7,933500	0,5	8,996350
7,941833	0,5	10,015100
7,950167	0,5	11,457100
7,958500	0,5	13,407800
7,966833	0,5	15,952750
7,975167	0,5	19,115300
7,983500	0,5	22,835000
7,991833	0,5	26,916000
8,000167	0,5	30,981200
8,008500	0,5	34,510851
8,016833	0,5	36,921501
8,025167	0,5	37,793851
8,033500	0,5	36,950201
8,041833	0,5	34,506451
8,050167	0,5	30,899200
8,058500	0,5	26,739850
8,066833	0,5	22,674600
8,075167	0,5	19,219450
8,083500	0,5	16,647800
8,091833	0,5	15,025450
8,100167	0,5	14,317400
8,108500	0,5	14,591100
8,116833	0,5	16,255050
8,125167	0,5	20,322800
8,133500	0,5	28,274950
8,141833	0,5	41,078601
8,150167	0,5	57,442801
8,158500	0,5	73,064601
8,166833	0,5	82,479951
8,175167	0,5	82,425651
8,183500	0,5	73,600151
8,191833	0,5	59,711301
8,200167	0,5	45,084751
8,208500	0,5	32,652100
8,216833	0,5	23,542450
8,225167	0,5	17,555900
8,233500	0,5	13,886300
8,241833	0,5	11,707450
8,250167	0,5	10,397800
8,258500	0,5	9,577300
8,266833	0,5	9,042800
8,275167	0,5	8,683150
8,283500	0,5	8,443200
8,291833	0,5	8,268450
8,300167	0,5	8,089900
8,308500	0,5	7,875600
8,316833	0,5	7,638800
8,325167	0,5	7,442500
8,333500	0,5	7,296950
8,341833	0,5	7,200750
8,350167	0,5	7,134900
8,358500	0,5	7,069050
8,366833	0,5	6,996700
8,375167	0,5	6,910000
8,383500	0,5	6,823750
8,391833	0,5	6,759800
8,400167	0,5	6,722150
8,408500	0,5	6,687400
8,416833	0,5	6,643200
8,425167	0,5	6,586550
8,433500	0,5	6,526900
8,441833	0,5	6,483000
8,450167	0,5	6,458750
8,458500	0,5	6,446500
8,466833	0,5	6,439550
8,475167	0,5	6,435550
8,483500	0,5	6,406900
8,491833	0,5	6,371900
8,500167	0,5	6,353100
8,508500	0,5	6,376250
8,516833	0,5	6,459250
8,525167	0,5	6,545850
8,533500	0,5	6,595950
8,541833	0,5	6,565950
8,550167	0,5	6,469900
8,558500	0,5	6,352100
8,566833	0,5	6,243700
8,575167	0,5	6,146000
8,583500	0,5	6,070900
8,591833	0,5	6,009150
8,600167	0,5	5,978450
8,608500	0,5	5,970550
8,616833	0,5	5,987300
8,625167	0,5	6,023950
8,633500	0,5	6,064000
8,641833	0,5	6,120150
8,650167	0,5	6,214250
8,658500	0,5	6,363600
8,666833	0,5	6,553100
8,675167	0,5	6,737200
8,683500	0,5	6,873400
8,691833	0,5	6,926350
8,700167	0,5	6,900450
8,708500	0,5	6,823450
8,716833	0,5	6,743350
8,725167	0,5	6,715050
8,733500	0,5	6,749750
8,741833	0,5	6,823450
8,750167	0,5	6,918100
8,758500	0,5	7,053850
8,766833	0,5	7,275900
8,775167	0,5	7,592000
8,783500	0,5	7,961850
8,791833	0,5	8,376300
8,800167	0,5	8,860100
8,808500	0,5	9,543850
8,816833	0,5	10,703400
8,825167	0,5	13,015800
8,833500	0,5	17,807750
8,841833	0,5	26,719050
8,850167	0,5	40,138351
8,858500	0,5	55,409601
8,866833	0,5	67,135851
8,875167	0,5	70,443351
8,883500	0,5	64,334051
8,891833	0,5	51,996051
8,900167	0,5	38,277651
8,908500	0,5	26,759550
8,916833	0,5	18,744050
8,925167	0,5	13,816500
8,933500	0,5	10,971500
8,941833	0,5	9,326100
8,950167	0,5	8,344100
8,958500	0,5	7,742400
8,966833	0,5	7,368950
8,975167	0,5	7,134050
8,983500	0,5	6,963250
8,991833	0,5	6,828750
9,000167	0,5	6,718400
9,008500	0,5	6,634950
9,016833	0,5	6,571150
9,025167	0,5	6,529350
9,033500	0,5	6,512700
9,041833	0,5	6,519400
9,050167	0,5	6,561500
9,058500	0,5	6,638550
9,066833	0,5	6,769850
9,075167	0,5	6,924850
9,083500	0,5	7,065200
9,091833	0,5	7,169400
9,100167	0,5	7,255000
9,108500	0,5	7,384350
9,116833	0,5	7,526000
9,125167	0,5	7,575450
9,133500	0,5	7,553500
9,141833	0,5	7,498450
9,150167	0,5	7,449950
9,158500	0,5	7,446250
9,166833	0,5	7,514300
9,175167	0,5	7,702250
9,183500	0,5	8,079550
9,191833	0,5	8,797750
9,200167	0,5	10,188800
9,208500	0,5	12,599150
9,216833	0,5	14,989500
9,225167	0,5	15,895500
9,233500	0,5	14,999950
9,241833	0,5	13,704100
9,250167	0,5	12,963900
9,258500	0,5	12,858850
9,266833	0,5	13,207150
9,275167	0,5	13,808600
9,283500	0,5	14,485800
9,291833	0,5	15,069550
9,300167	0,5	15,438000
9,308500	0,5	15,557000
9,316833	0,5	15,439900
9,325167	0,5	15,106950
9,333500	0,5	14,569400
9,341833	0,5	13,845100
9,350167	0,5	12,987100
9,358500	0,5	12,075550
9,366833	0,5	11,192950
9,375167	0,5	10,418750
9,383500	0,5	9,822850
9,391833	0,5	9,452200
9,400167	0,5	9,323550
9,408500	0,5	9,420450
9,416833	0,5	9,686050
9,425167	0,5	10,026050
9,433500	0,5	10,328350
9,441833	0,5	10,489100
9,450167	0,5	10,447000
9,458500	0,5	10,196850
9,466833	0,5	9,789400
9,475167	0,5	9,296850
9,483500	0,5	8,804600
9,491833	0,5	8,363450
9,500167	0,5	8,001900
9,508500	0,5	7,719500
9,516833	0,5	7,493700
9,525167	0,5	7,305200
9,533500	0,5	7,141800
9,541833	0,5	7,007200
9,550167	0,5	6,892450
9,558500	0,5	6,787850
9,566833	0,5	6,685500
9,575167	0,5	6,570850
9,583500	0,5	6,440050
9,591833	0,5	6,297450
9,600167	0,5	6,148600
9,608500	0,5	6,015600
9,616833	0,5	5,892900
9,625167	0,5	5,791100
9,633500	0,5	5,700900
9,641833	0,5	5,630950
9,650167	0,5	5,573000
9,658500	0,5	5,533100
9,666833	0,5	5,505050
9,675167	0,5	5,493550
9,683500	0,5	5,489000
9,691833	0,5	5,492150
9,700167	0,5	5,508250
9,708500	0,5	5,524850
9,716833	0,5	5,547250
9,725167	0,5	5,567350
9,733500	0,5	5,587100
9,741833	0,5	5,604600
9,750167	0,5	5,618700
9,758500	0,5	5,630200
9,766833	0,5	5,634650
9,775167	0,5	5,631850
9,783500	0,5	5,617750
9,791833	0,5	5,596750
9,800167	0,5	5,571750
9,808500	0,5	5,554400
9,816833	0,5	5,552450
9,825167	0,5	5,578850
9,833500	0,5	5,647600
9,841833	0,5	5,761350
9,850167	0,5	5,924450
9,858500	0,5	6,129850
9,866833	0,5	6,360850
9,875167	0,5	6,598850
9,883500	0,5	6,832750
9,891833	0,5	7,043850
9,900167	0,5	7,236700
9,908500	0,5	7,424650
9,916833	0,5	7,603000
9,925167	0,5	7,784100
9,933500	0,5	7,967050
9,941833	0,5	8,142950
9,950167	0,5	8,310950
9,958500	0,5	8,469050
9,966833	0,5	8,618950
9,975167	0,5	8,760550
9,983500	0,5	8,906250
9,991833	0,5	9,048450
10,000167	0,5	9,194200
10,008500	0,5	9,332850
10,016833	0,5	9,453800
10,025167	0,5	9,546250
10,033500	0,5	9,588750
10,041833	0,5	9,551150
10,050167	0,5	9,399550
10,058500	0,5	9,109800
10,066833	0,5	8,681800
10,075167	0,5	8,152650
10,083500	0,5	7,576950
10,091833	0,5	7,013800
10,100167	0,5	6,525900
10,108500	0,5	6,135000
10,116833	0,5	5,837050
10,125167	0,5	5,628200
10,133500	0,5	5,493100
10,141833	0,5	5,421150
10,150167	0,5	5,400050
10,158500	0,5	5,413400
10,166833	0,5	5,438850
10,175167	0,5	5,460300
10,183500	0,5	5,465050
10,191833	0,5	5,446000
10,200167	0,5	5,399500
10,208500	0,5	5,340400
10,216833	0,5	5,279900
10,225167	0,5	5,221600
10,233500	0,5	5,164200
10,241833	0,5	5,112500
10,250167	0,5	5,067550
10,258500	0,5	5,025900
10,266833	0,5	4,984150
10,275167	0,5	4,946150
10,283500	0,5	4,913200
10,291833	0,5	4,892100
10,300167	0,5	4,881250
10,308500	0,5	4,876750
10,316833	0,5	4,880450
10,325167	0,5	4,894350
10,333500	0,5	4,911750
10,341833	0,5	4,930950
10,350167	0,5	4,951750
10,358500	0,5	4,974050
10,366833	0,5	4,996250
10,375167	0,5	5,026150
10,383500	0,5	5,056900
10,391833	0,5	5,094700
10,400167	0,5	5,147450
10,408500	0,5	5,210100
10,416833	0,5	5,272100
10,425167	0,5	5,343950
10,433500	0,5	5,405750
10,441833	0,5	5,453750
10,450167	0,5	5,471750
10,458500	0,5	5,458700
10,466833	0,5	5,409550
10,475167	0,5	5,348350
10,483500	0,5	5,276550
10,491833	0,5	5,195000
10,500167	0,5	5,113300
10,508500	0,5	5,028900
10,516833	0,5	4,953250
10,525167	0,5	4,883100
10,533500	0,5	4,825700
10,541833	0,5	4,784650
10,550167	0,5	4,767850
10,558500	0,5	4,765650
10,566833	0,5	4,775100
10,575167	0,5	4,804300
10,583500	0,5	4,833750
10,591833	0,5	4,867600
10,600167	0,5	4,884150
10,608500	0,5	4,899450
10,616833	0,5	4,920550
10,625167	0,5	4,948300
10,633500	0,5	4,992000
10,641833	0,5	5,034050
10,650167	0,5	5,066350
10,658500	0,5	5,076950
10,666833	0,5	5,054550
10,675167	0,5	5,002900
10,683500	0,5	4,920850
10,691833	0,5	4,833400
10,700167	0,5	4,752000
10,708500	0,5	4,678250
10,716833	0,5	4,609800
10,725167	0,5	4,555950
10,733500	0,5	4,499100
10,741833	0,5	4,453350
10,750167	0,5	4,412950
10,758500	0,5	4,382550
10,766833	0,5	4,365200
10,775167	0,5	4,368250
10,783500	0,5	4,379900
10,791833	0,5	4,411000
10,800167	0,5	4,450150
10,808500	0,5	4,500450
10,816833	0,5	4,568800
10,825167	0,5	4,648500
10,833500	0,5	4,723900
10,841833	0,5	4,784300
10,850167	0,5	4,800950
10,858500	0,5	4,770050
10,866833	0,5	4,692500
10,875167	0,5	4,589550
10,883500	0,5	4,487600
10,891833	0,5	4,390250
10,900167	0,5	4,315250
10,908500	0,5	4,248600
10,916833	0,5	4,197300
10,925167	0,5	4,151050
10,933500	0,5	4,115300
10,941833	0,5	4,086800
10,950167	0,5	4,073850
10,958500	0,5	4,073200
10,966833	0,5	4,095450
10,975167	0,5	4,134550
10,983500	0,5	4,198900
10,991833	0,5	4,291250
11,000167	0,5	4,385900
11,008500	0,5	4,469200
11,016833	0,5	4,511550
11,025167	0,5	4,497500
11,033500	0,5	4,432550
11,041833	0,5	4,329750
11,050167	0,5	4,211700
11,058500	0,5	4,100300
11,066833	0,5	4,004400
11,075167	0,5	3,932250
11,083500	0,5	3,870700
11,091833	0,5	3,829300
11,100167	0,5	3,795750
11,108500	0,5	3,783800
11,116833	0,5	3,783800
11,125167	0,5	3,809700
11,133500	0,5	3,860700
11,141833	0,5	3,943200
11,150167	0,5	4,032700
11,158500	0,5	4,121800
11,166833	0,5	4,178350
11,175167	0,5	4,190250
11,183500	0,5	4,152900
11,191833	0,5	4,070400
11,200167	0,5	3,965000
11,208500	0,5	3,857000
11,216833	0,5	3,766150
11,225167	0,5	3,686400
11,233500	0,5	3,632400
11,241833	0,5	3,588150
11,250167	0,5	3,558200
11,258500	0,5	3,536550
11,266833	0,5	3,520650
11,275167	0,5	3,506900
11,283500	0,5	3,507650
11,291833	0,5	3,506100
11,300167	0,5	3,488350
11,308500	0,5	3,455350
11,316833	0,5	3,408200
11,325167	0,5	3,348650
11,333500	0,5	3,286450
11,341833	0,5	3,238900
11,350167	0,5	3,208350
11,358500	0,5	3,190050
11,366833	0,5	3,189900
11,375167	0,5	3,206250
11,383500	0,5	3,223000
11,391833	0,5	3,244800
11,400167	0,5	3,265400
11,408500	0,5	3,291950
11,416833	0,5	3,315250
11,425167	0,5	3,331900
11,433500	0,5	3,342650
11,441833	0,5	3,338350
11,450167	0,5	3,310300
11,458500	0,5	3,271400
11,466833	0,5	3,218400
11,475167	0,5	3,177000
11,483500	0,5	3,138100
11,491833	0,5	3,110000
11,500167	0,5	3,085600
11,508500	0,5	3,075850
11,516833	0,5	3,071400
11,525167	0,5	3,068600
11,533500	0,5	3,078050
11,541833	0,5	3,087900
11,550167	0,5	3,093550
11,558500	0,5	3,097850
11,566833	0,5	3,095550
11,575167	0,5	3,091200
11,583500	0,5	3,090550
11,591833	0,5	3,083550
11,600167	0,5	3,080250
11,608500	0,5	3,079550
11,616833	0,5	3,090600
11,625167	0,5	3,112800
11,633500	0,5	3,138000
11,641833	0,5	3,172750
11,650167	0,5	3,211800
11,658500	0,5	3,253200
11,666833	0,5	3,297450
11,675167	0,5	3,336750
11,683500	0,5	3,376850
11,691833	0,5	3,417150
11,700167	0,5	3,455300
11,708500	0,5	3,498850
11,716833	0,5	3,522900
11,725167	0,5	3,544950
11,733500	0,5	3,551500
11,741833	0,5	3,545600
11,750167	0,5	3,525450
11,758500	0,5	3,508000
11,766833	0,5	3,494750
11,775167	0,5	3,496150
11,783500	0,5	3,494900
11,791833	0,5	3,508300
11,800167	0,5	3,522800
11,808500	0,5	3,539650
11,816833	0,5	3,552500
11,825167	0,5	3,565450
11,833500	0,5	3,574400
11,841833	0,5	3,581850
11,850167	0,5	3,600050
11,858500	0,5	3,627550
11,866833	0,5	3,662850
11,875167	0,5	3,751350
11,883500	0,5	3,883650
11,891833	0,5	4,082200
11,900167	0,5	4,335850
11,908500	0,5	4,642950
11,916833	0,5	4,974550
11,925167	0,5	5,262200
11,933500	0,5	5,467650
11,941833	0,5	5,540100
11,950167	0,5	5,496250
11,958500	0,5	5,335350
11,966833	0,5	5,103050
11,975167	0,5	4,830600
11,983500	0,5	4,558350
11,991833	0,5	4,310200
12,000167	0,5	4,108350
12,008500	0,5	3,946150
12,016833	0,5	3,830850
12,025167	0,5	3,758150
12,033500	0,5	3,711250
12,041833	0,5	3,690200
12,050167	0,5	3,689000
12,058500	0,5	3,710800
12,066833	0,5	3,758550
12,075167	0,5	3,827500
12,083500	0,5	3,897900
12,091833	0,5	3,966350
12,100167	0,5	4,024750
12,108500	0,5	4,071500
12,116833	0,5	4,098650
12,125167	0,5	4,119500
12,133500	0,5	4,123150
12,141833	0,5	4,123150
12,150167	0,5	4,126150
12,158500	0,5	4,130600
12,166833	0,5	4,157100
12,175167	0,5	4,204750
12,183500	0,5	4,273800
12,191833	0,5	4,376500
12,200167	0,5	4,488450
12,208500	0,5	4,623900
12,216833	0,5	4,753750
12,225167	0,5	4,854950
12,233500	0,5	4,909750
12,241833	0,5	4,901950
12,250167	0,5	4,835450
12,258500	0,5	4,714750
12,266833	0,5	4,567500
12,275167	0,5	4,414250
12,283500	0,5	4,276650
12,291833	0,5	4,176600
12,300167	0,5	4,109100
12,308500	0,5	4,066100
12,316833	0,5	4,063800
12,325167	0,5	4,067200
12,333500	0,5	4,066650
12,341833	0,5	4,058900
12,350167	0,5	4,035750
12,358500	0,5	4,000100
12,366833	0,5	3,955000
12,375167	0,5	3,895150
12,383500	0,5	3,835650
12,391833	0,5	3,774350
12,400167	0,5	3,721650
12,408500	0,5	3,677800
12,416833	0,5	3,639100
12,425167	0,5	3,609050
12,433500	0,5	3,583050
12,441833	0,5	3,568400
12,450167	0,5	3,548100
12,458500	0,5	3,525750
12,466833	0,5	3,526950
12,475167	0,5	3,533200
12,483500	0,5	3,545850
12,491833	0,5	3,566550
12,500167	0,5	3,582550
12,508500	0,5	3,613950
12,516833	0,5	3,631600
12,525167	0,5	3,653050
12,533500	0,5	3,672050
12,541833	0,5	3,701350
12,550167	0,5	3,732650
12,558500	0,5	3,783250
12,566833	0,5	3,845300
12,575167	0,5	3,914000
12,583500	0,5	3,992400
12,591833	0,5	4,080800
12,600167	0,5	4,160500
12,608500	0,5	4,250750
12,616833	0,5	4,339300
12,625167	0,5	4,422100
12,633500	0,5	4,495500
12,641833	0,5	4,563450
12,650167	0,5	4,633050
12,658500	0,5	4,697450
12,666833	0,5	4,752950
12,675167	0,5	4,787950
12,683500	0,5	4,815900
12,691833	0,5	4,822400
12,700167	0,5	4,811550
12,708500	0,5	4,777700
12,716833	0,5	4,735350
12,725167	0,5	4,678100
12,733500	0,5	4,603650
12,741833	0,5	4,512450
12,750167	0,5	4,397700
12,758500	0,5	4,283900
12,766833	0,5	4,176650
12,775167	0,5	4,095750
12,783500	0,5	4,051150
12,791833	0,5	4,049300
12,800167	0,5	4,086900
12,808500	0,5	4,165400
12,816833	0,5	4,239200
12,825167	0,5	4,268500
12,833500	0,5	4,279700
12,841833	0,5	4,436400
12,850167	0,5	4,927400
12,858500	0,5	5,327050
12,866833	0,5	5,609350
12,875167	0,5	5,870550
12,883500	0,5	6,083450
12,891833	0,5	5,817400
12,900167	0,5	5,466100
12,908500	0,5	5,240800
12,916833	0,5	4,732600
12,925167	0,5	4,050650
12,933500	0,5	3,574200
12,941833	0,5	3,281350
12,950167	0,5	3,077200
12,958500	0,5	2,933300
12,966833	0,5	2,820200
12,975167	0,5	2,730750
12,983500	0,5	2,656300
12,991833	0,5	2,590550
13,000167	0,5	2,534400
13,008500	0,5	2,494350
13,016833	0,5	2,454950
13,025167	0,5	2,419450
13,033500	0,5	2,394550
13,041833	0,5	2,359850
13,050167	0,5	2,334750
13,058500	0,5	2,315800
13,066833	0,5	2,288500
13,075167	0,5	2,267350
13,083500	0,5	2,240400
13,091833	0,5	2,221100
13,100167	0,5	2,218200
13,108500	0,5	2,219300
13,116833	0,5	2,217600
13,125167	0,5	2,217900
13,133500	0,5	2,221100
13,141833	0,5	2,223550
13,150167	0,5	2,221850
13,158500	0,5	2,216250
13,166833	0,5	2,203350
13,175167	0,5	2,199200
13,183500	0,5	2,182500
13,191833	0,5	2,159800
13,200167	0,5	2,144550
13,208500	0,5	2,137700
13,216833	0,5	2,119050
13,225167	0,5	2,109300
13,233500	0,5	2,094450
13,241833	0,5	2,092150
13,250167	0,5	2,091400
13,258500	0,5	2,095650
13,266833	0,5	2,092600
13,275167	0,5	2,093000
13,283500	0,5	2,090100
13,291833	0,5	2,087700
13,300167	0,5	2,078300
13,308500	0,5	2,070450
13,316833	0,5	2,057900
13,325167	0,5	2,051700
13,333500	0,5	2,044900
13,341833	0,5	2,029850
13,350167	0,5	2,037100
13,358500	0,5	2,039050
13,366833	0,5	2,044400
13,375167	0,5	2,045050
13,383500	0,5	2,056250
13,391833	0,5	2,079150
13,400167	0,5	2,117050
13,408500	0,5	2,160000
13,416833	0,5	2,224600
13,425167	0,5	2,312900
13,433500	0,5	2,433450
13,441833	0,5	2,584800
13,450167	0,5	2,781000
13,458500	0,5	3,016200
13,466833	0,5	3,285250
13,475167	0,5	3,594750
13,483500	0,5	3,911850
13,491833	0,5	4,234150
13,500167	0,5	4,558650
13,508500	0,5	4,852500
13,516833	0,5	5,106550
13,525167	0,5	5,317000
13,533500	0,5	5,477500
13,541833	0,5	5,604750
13,550167	0,5	5,669450
13,558500	0,5	5,701850
13,566833	0,5	5,699500
13,575167	0,5	5,679850
13,583500	0,5	5,637600
13,591833	0,5	5,593250
13,600167	0,5	5,545700
13,608500	0,5	5,503850
13,616833	0,5	5,463450
13,625167	0,5	5,438050
13,633500	0,5	5,398000
13,641833	0,5	5,380500
13,650167	0,5	5,368000
13,658500	0,5	5,352750
13,666833	0,5	5,340250
13,675167	0,5	5,323800
13,683500	0,5	5,319400
13,691833	0,5	5,319550
13,700167	0,5	5,318650
13,708500	0,5	5,311900
13,716833	0,5	5,313150
13,725167	0,5	5,309750
13,733500	0,5	5,313950
13,741833	0,5	5,308900
13,750167	0,5	5,305300
13,758500	0,5	5,297450
13,766833	0,5	5,299600
13,775167	0,5	5,293750
13,783500	0,5	5,281750
13,791833	0,5	5,280350
13,800167	0,5	5,273850
13,808500	0,5	5,265700
13,816833	0,5	5,252350
13,825167	0,5	5,239500
13,833500	0,5	5,232100
13,841833	0,5	5,233950
13,850167	0,5	5,230650
13,858500	0,5	5,227400
13,866833	0,5	5,221550
13,875167	0,5	5,224450
13,883500	0,5	5,220350
13,891833	0,5	5,221700
13,900167	0,5	5,217850
13,908500	0,5	5,216400
13,916833	0,5	5,215400
13,925167	0,5	5,215650
13,933500	0,5	5,199700
13,941833	0,5	5,208600
13,950167	0,5	5,199850
13,958500	0,5	5,194750
13,966833	0,5	5,182900
13,975167	0,5	5,175650
13,983500	0,5	5,178750
13,991833	0,5	5,183550
14,000167	0,5	5,184000
14,008500	0,5	5,183350
14,016833	0,5	5,185000
14,025167	0,5	5,181600
14,033500	0,5	5,175750
14,041833	0,5	5,168300
14,050167	0,5	5,157200
14,058500	0,5	5,146850
14,066833	0,5	5,143750
14,075167	0,5	5,126000
14,083500	0,5	5,120700
14,091833	0,5	5,122650
14,100167	0,5	5,112650
14,108500	0,5	5,101100
14,116833	0,5	5,080050
14,125167	0,5	5,064650
14,133500	0,5	5,053300
14,141833	0,5	5,047000
14,150167	0,5	5,041950
14,158500	0,5	5,030650
14,166833	0,5	5,023200
14,175167	0,5	5,012400
14,183500	0,5	5,008900
14,191833	0,5	5,002250
14,200167	0,5	4,995350
14,208500	0,5	4,996100
14,216833	0,5	4,989500
14,225167	0,5	4,974800
14,233500	0,5	4,976050
14,241833	0,5	4,975200
14,250167	0,5	4,966850
14,258500	0,5	4,958350
14,266833	0,5	4,943250
14,275167	0,5	4,936900
14,283500	0,5	4,934000
14,291833	0,5	4,933650
14,300167	0,5	4,928650
14,308500	0,5	4,928650
14,316833	0,5	4,922250
14,325167	0,5	4,922400
14,333500	0,5	4,919100
14,341833	0,5	4,918350
14,350167	0,5	4,915500
14,358500	0,5	4,915850
14,366833	0,5	4,905550
14,375167	0,5	4,897700
14,383500	0,5	4,903100
14,391833	0,5	4,904350
14,400167	0,5	4,898800
14,408500	0,5	4,884350
14,416833	0,5	4,880100
14,425167	0,5	4,879550
14,433500	0,5	4,886250
14,441833	0,5	4,880950
14,450167	0,5	4,884850
14,458500	0,5	4,879850
14,466833	0,5	4,884850
14,475167	0,5	4,884000
14,483500	0,5	4,886900
14,491833	0,5	4,891100
14,500167	0,5	4,893700
14,508500	0,5	4,907250
14,516833	0,5	4,909600
14,525167	0,5	4,924850
14,533500	0,5	4,948750
14,541833	0,5	4,968350
14,550167	0,5	4,986900
14,558500	0,5	4,996250
14,566833	0,5	5,018550
14,575167	0,5	5,048000
14,583500	0,5	5,054700
14,591833	0,5	5,065500
14,600167	0,5	5,061350
14,608500	0,5	5,061950
14,616833	0,5	5,056700
14,625167	0,5	5,058550
14,633500	0,5	5,052750
14,641833	0,5	5,060150
14,650167	0,5	5,070550
14,658500	0,5	5,092200
14,666833	0,5	5,102150
14,675167	0,5	5,138200
14,683500	0,5	5,160800
14,691833	0,5	5,182850
14,700167	0,5	5,198750
14,708500	0,5	5,213050
14,716833	0,5	5,247700
14,725167	0,5	5,281400
14,733500	0,5	5,318050
14,741833	0,5	5,346250
14,750167	0,5	5,376600
14,758500	0,5	5,389450
14,766833	0,5	5,416350
14,775167	0,5	5,434750
14,783500	0,5	5,464700
14,791833	0,5	5,497900
14,800167	0,5	5,549550
14,808500	0,5	5,600300
14,816833	0,5	5,640800
14,825167	0,5	5,685400
14,833500	0,5	5,701850
14,841833	0,5	5,686300
14,850167	0,5	5,647700
14,858500	0,5	5,585500
14,866833	0,5	5,536350
14,875167	0,5	5,493950
14,883500	0,5	5,452250
14,891833	0,5	5,426200
14,900167	0,5	5,405000
14,908500	0,5	5,406200
14,916833	0,5	5,405500
14,925167	0,5	5,409300
14,933500	0,5	5,398700
14,941833	0,5	5,377500
14,950167	0,5	5,344400
14,958500	0,5	5,296100
14,966833	0,5	5,246600
14,975167	0,5	5,224400
14,983500	0,5	5,182500
14,991833	0,5	5,160550
15,000167	0,5	5,129450
15,008500	0,5	5,107850
15,016833	0,5	5,095250
15,025167	0,5	5,088750
15,033500	0,5	5,077800
15,041833	0,5	5,066300
15,050167	0,5	5,058200
15,058500	0,5	5,045700
15,066833	0,5	5,035050
15,075167	0,5	5,018700
15,083500	0,5	5,004250
15,091833	0,5	4,987650
15,100167	0,5	4,977200
15,108500	0,5	4,953300
15,116833	0,5	4,951700
15,125167	0,5	4,941750
15,133500	0,5	4,926200
15,141833	0,5	4,904450
15,150167	0,5	4,883100
15,158500	0,5	4,865250
15,166833	0,5	4,854800
15,175167	0,5	4,839950
15,183500	0,5	4,827600
15,191833	0,5	4,807450
15,200167	0,5	4,789950
15,208500	0,5	4,772000
15,216833	0,5	4,756600
15,225167	0,5	4,738850
15,233500	0,5	4,720750
15,241833	0,5	4,717700
15,250167	0,5	4,699500
15,258500	0,5	4,680900
15,266833	0,5	4,668900
15,275167	0,5	4,661500
15,283500	0,5	4,640400
15,291833	0,5	4,623750
15,300167	0,5	4,592650
15,308500	0,5	4,593150
15,316833	0,5	4,576150
15,325167	0,5	4,576050
15,333500	0,5	4,551900
15,341833	0,5	4,541300
15,350167	0,5	4,531650
15,358500	0,5	4,526600
15,366833	0,5	4,515250
15,375167	0,5	4,506350
15,383500	0,5	4,500450
15,391833	0,5	4,495400
15,400167	0,5	4,481300
15,408500	0,5	4,476400
15,416833	0,5	4,474300
15,425167	0,5	4,466800
15,433500	0,5	4,451000
15,441833	0,5	4,421750
15,450167	0,5	4,406550
15,458500	0,5	4,398850
15,466833	0,5	4,395100
15,475167	0,5	4,386600
15,483500	0,5	4,381050
15,491833	0,5	4,363450
15,500167	0,5	4,346300
15,508500	0,5	4,325100
15,516833	0,5	4,304100
15,525167	0,5	4,281750
15,533500	0,5	4,267150
15,541833	0,5	4,262250
15,550167	0,5	4,233850
15,558500	0,5	4,232300
15,566833	0,5	4,228500
15,575167	0,5	4,217600
15,583500	0,5	4,207050
15,591833	0,5	4,190900
15,600167	0,5	4,189600
15,608500	0,5	4,190300
15,616833	0,5	4,175400
15,625167	0,5	4,162500
15,633500	0,5	4,140200
15,641833	0,5	4,126100
15,650167	0,5	4,101950
15,658500	0,5	4,090550
15,666833	0,5	4,074700
15,675167	0,5	4,064600
15,683500	0,5	4,053550
15,691833	0,5	4,045600
15,700167	0,5	4,013950
15,708500	0,5	4,019300
15,716833	0,5	4,005550
15,725167	0,5	3,992300
15,733500	0,5	3,969900
15,741833	0,5	3,942750
15,750167	0,5	3,942550
15,758500	0,5	3,931000
15,766833	0,5	3,927600
15,775167	0,5	3,912700
15,783500	0,5	3,907800
15,791833	0,5	3,895400
15,800167	0,5	3,891100
15,808500	0,5	3,875000
15,816833	0,5	3,863300
15,825167	0,5	3,855350
15,833500	0,5	3,850800
15,841833	0,5	3,833650
15,850167	0,5	3,817600
15,858500	0,5	3,813600
15,866833	0,5	3,800600
15,875167	0,5	3,782700
15,883500	0,5	3,764550
15,891833	0,5	3,741600
15,900167	0,5	3,739050
15,908500	0,5	3,732450
15,916833	0,5	3,724350
15,925167	0,5	3,710300
15,933500	0,5	3,691400
15,941833	0,5	3,678100
15,950167	0,5	3,660100
15,958500	0,5	3,652400
15,966833	0,5	3,637050
15,975167	0,5	3,633900
15,983500	0,5	3,626600
15,991833	0,5	3,611050
16,000167	0,5	3,606100
16,008500	0,5	3,603900
16,016833	0,5	3,588950
16,025167	0,5	3,576750
16,033500	0,5	3,553800
16,041833	0,5	3,537350
16,050167	0,5	3,525150
16,058500	0,5	3,514500
16,066833	0,5	3,501400
16,075167	0,5	3,492000
16,083500	0,5	3,481900
16,091833	0,5	3,471950
16,100167	0,5	3,467100
16,108500	0,5	3,453850
16,116833	0,5	3,445550
16,125167	0,5	3,432000
16,133500	0,5	3,419550
16,141833	0,5	3,399100
16,150167	0,5	3,398200
16,158500	0,5	3,390600
16,166833	0,5	3,374750
16,175167	0,5	3,349100
16,183500	0,5	3,332200
16,191833	0,5	3,317550
16,200167	0,5	3,315500
16,208500	0,5	3,301600
16,216833	0,5	3,293550
16,225167	0,5	3,280850
16,233500	0,5	3,271600
16,241833	0,5	3,259950
16,250167	0,5	3,248350
16,258500	0,5	3,239500
16,266833	0,5	3,227100
16,275167	0,5	3,227650
16,283500	0,5	3,206150
16,291833	0,5	3,193500
16,300167	0,5	3,187050
16,308500	0,5	3,174650
16,316833	0,5	3,159050
16,325167	0,5	3,137800
16,333500	0,5	3,122100
16,341833	0,5	3,124250
16,350167	0,5	3,106850
16,358500	0,5	3,103350
16,366833	0,5	3,090200
16,375167	0,5	3,088850
16,383500	0,5	3,083950
16,391833	0,5	3,083000
16,400167	0,5	3,079950
16,408500	0,5	3,072050
16,416833	0,5	3,073800
16,425167	0,5	3,069350
16,433500	0,5	3,040800
16,441833	0,5	3,040100
16,450167	0,5	3,033750
16,458500	0,5	3,018550
16,466833	0,5	3,003000
16,475167	0,5	2,966350
16,483500	0,5	2,956850
16,491833	0,5	2,939800
16,500167	0,5	2,933450
16,508500	0,5	2,913850
16,516833	0,5	2,907150
16,525167	0,5	2,892850
16,533500	0,5	2,885700
16,541833	0,5	2,868300
16,550167	0,5	2,859850
16,558500	0,5	2,848400
16,566833	0,5	2,847000
16,575167	0,5	2,838700
16,583500	0,5	2,816350
16,591833	0,5	2,814900
16,600167	0,5	2,806400
16,608500	0,5	2,794600
16,616833	0,5	2,774000
16,625167	0,5	2,746450
16,633500	0,5	2,741500
16,641833	0,5	2,740950
16,650167	0,5	2,727850
16,658500	0,5	2,718750
16,666833	0,5	2,706350
16,675167	0,5	2,707350
16,683500	0,5	2,698750
16,691833	0,5	2,696300
16,700167	0,5	2,690700
16,708500	0,5	2,685900
16,716833	0,5	2,685800
16,725167	0,5	2,677050
16,733500	0,5	2,658550
16,741833	0,5	2,663350
16,750167	0,5	2,646900
16,758500	0,5	2,631700
16,766833	0,5	2,606700
16,775167	0,5	2,579400
16,783500	0,5	2,573450
16,791833	0,5	2,555000
16,800167	0,5	2,543900
16,808500	0,5	2,529700
16,816833	0,5	2,521700
16,825167	0,5	2,509850
16,833500	0,5	2,504100
16,841833	0,5	2,489300
16,850167	0,5	2,479600
16,858500	0,5	2,474250
16,866833	0,5	2,473950
16,875167	0,5	2,456100
16,883500	0,5	2,451550
16,891833	0,5	2,449250
16,900167	0,5	2,438800
16,908500	0,5	2,423100
16,916833	0,5	2,406750
16,925167	0,5	2,397850
16,933500	0,5	2,396500
16,941833	0,5	2,391450
16,950167	0,5	2,386350
16,958500	0,5	2,380050
16,966833	0,5	2,373150
16,975167	0,5	2,369500
16,983500	0,5	2,363650
16,991833	0,5	2,361300
17,000167	0,5	2,352300
17,008500	0,5	2,355000
17,016833	0,5	2,340300
17,025167	0,5	2,323500
17,033500	0,5	2,316700
17,041833	0,5	2,307150
17,050167	0,5	2,292750
17,058500	0,5	2,271950
17,066833	0,5	2,246300
17,075167	0,5	2,232700
17,083500	0,5	2,226350
17,091833	0,5	2,216750
17,100167	0,5	2,207000
17,108500	0,5	2,200150
17,116833	0,5	2,190050
17,125167	0,5	2,185000
17,133500	0,5	2,177600
17,141833	0,5	2,169100
17,150167	0,5	2,170400
17,158500	0,5	2,166350
17,166833	0,5	2,153850
17,175167	0,5	2,141700
17,183500	0,5	2,145200
17,191833	0,5	2,128950
17,200167	0,5	2,121150
17,208500	0,5	2,086000
17,216833	0,5	2,071100
17,225167	0,5	2,051800
17,233500	0,5	2,048700
17,241833	0,5	2,039550
17,250167	0,5	2,037450
17,258500	0,5	2,032800
17,266833	0,5	2,032600
17,275167	0,5	2,033150
17,283500	0,5	2,036200
17,291833	0,5	2,044650
17,300167	0,5	2,047500
17,308500	0,5	2,062900
17,316833	0,5	2,044500
17,325167	0,5	2,052550
17,333500	0,5	2,044200
17,341833	0,5	2,027750
17,350167	0,5	2,006400
17,358500	0,5	1,971350
17,366833	0,5	1,957600
17,375167	0,5	1,956500
17,383500	0,5	1,942250
17,391833	0,5	1,942350
17,400167	0,5	1,936800
17,408500	0,5	1,942950
17,416833	0,5	1,935850
17,425167	0,5	1,943800
17,433500	0,5	1,945800
17,441833	0,5	1,943950
17,450167	0,5	1,949550
17,458500	0,5	1,947950
17,466833	0,5	1,929650
17,475167	0,5	1,934550
17,483500	0,5	1,939300
17,491833	0,5	1,932200
17,500167	0,5	1,930750
17,508500	0,5	1,909450
17,516833	0,5	1,923550
17,525167	0,5	1,922350
17,533500	0,5	1,925750
17,541833	0,5	1,921200
17,550167	0,5	1,931550
17,558500	0,5	1,930350
17,566833	0,5	1,937800
17,575167	0,5	1,943350
17,583500	0,5	1,944550
17,591833	0,5	1,954050
17,600167	0,5	1,975450
17,608500	0,5	1,981350
17,616833	0,5	1,997250
17,625167	0,5	2,028750
17,633500	0,5	2,050000
17,641833	0,5	2,066150
17,650167	0,5	2,076000
17,658500	0,5	2,085250
17,666833	0,5	2,104650
17,675167	0,5	2,120350
17,683500	0,5	2,120250
17,691833	0,5	2,125700
17,700167	0,5	2,110950
17,708500	0,5	2,103700
17,716833	0,5	2,087250
17,725167	0,5	2,076600
17,733500	0,5	2,057000
17,741833	0,5	2,036550
17,750167	0,5	2,022500
17,758500	0,5	1,995850
17,766833	0,5	1,988950
17,775167	0,5	1,976100
17,783500	0,5	1,956200
17,791833	0,5	1,936000
17,800167	0,5	1,903550
17,808500	0,5	1,889550
17,816833	0,5	1,883000
17,825167	0,5	1,871100
17,833500	0,5	1,865200
17,841833	0,5	1,856200
17,850167	0,5	1,850400
17,858500	0,5	1,846800
17,866833	0,5	1,845450
17,875167	0,5	1,839250
17,883500	0,5	1,842400
17,891833	0,5	1,854850
17,900167	0,5	1,881850
17,908500	0,5	1,906700
17,916833	0,5	1,971700
17,925167	0,5	2,027750
17,933500	0,5	2,085050
17,941833	0,5	2,109100
17,950167	0,5	2,116300
17,958500	0,5	2,102350
17,966833	0,5	2,059900
17,975167	0,5	1,997450
17,983500	0,5	1,924450
17,991833	0,5	1,850400
18,000167	0,5	1,780650
18,008500	0,5	1,730550
18,016833	0,5	1,688000
18,025167	0,5	1,659800
18,033500	0,5	1,635050
18,041833	0,5	1,624000
18,050167	0,5	1,598500
18,058500	0,5	1,587000
18,066833	0,5	1,580300
18,075167	0,5	1,565400
18,083500	0,5	1,546550
18,091833	0,5	1,520550
18,100167	0,5	1,496000
18,108500	0,5	1,481250
18,116833	0,5	1,469650
18,125167	0,5	1,458850
18,133500	0,5	1,445800
18,141833	0,5	1,435650
18,150167	0,5	1,427100
18,158500	0,5	1,420500
18,166833	0,5	1,407400
18,175167	0,5	1,390350
18,183500	0,5	1,388900
18,191833	0,5	1,378900
18,200167	0,5	1,353300
18,208500	0,5	1,347700
18,216833	0,5	1,346100
18,225167	0,5	1,323900
18,233500	0,5	1,307850
18,241833	0,5	1,275200
18,250167	0,5	1,261350
18,258500	0,5	1,249800
18,266833	0,5	1,245850
18,275167	0,5	1,228650
18,283500	0,5	1,222450
18,291833	0,5	1,215650
18,300167	0,5	1,200500
18,308500	0,5	1,198650
18,316833	0,5	1,183600
18,325167	0,5	1,176250
18,333500	0,5	1,173900
18,341833	0,5	1,165150
18,350167	0,5	1,141950
18,358500	0,5	1,148350
18,366833	0,5	1,141500
18,375167	0,5	1,127500
18,383500	0,5	1,104350
18,391833	0,5	1,082450
18,400167	0,5	1,079350
18,408500	0,5	1,071350
18,416833	0,5	1,055200
18,425167	0,5	1,043400
18,433500	0,5	1,033700
18,441833	0,5	1,023900
18,450167	0,5	1,014750
18,458500	0,5	1,005050
18,466833	0,5	0,994700
18,475167	0,5	0,981100
18,483500	0,5	0,988600
18,491833	0,5	0,968900
18,500167	0,5	0,961100
18,508500	0,5	0,955500
18,516833	0,5	0,950750
18,525167	0,5	0,933100
18,533500	0,5	0,914200
18,541833	0,5	0,891950
18,550167	0,5	0,892950
18,558500	0,5	0,876200
18,566833	0,5	0,866400
18,575167	0,5	0,851600
18,583500	0,5	0,844950
18,591833	0,5	0,834900
18,600167	0,5	0,828600
18,608500	0,5	0,818700
18,616833	0,5	0,808650
18,625167	0,5	0,814750
18,633500	0,5	0,816050
18,641833	0,5	0,793800
18,650167	0,5	0,797550
18,658500	0,5	0,794600
18,666833	0,5	0,785600
18,675167	0,5	0,771250
18,683500	0,5	0,742350
18,691833	0,5	0,742850
18,700167	0,5	0,738500
18,708500	0,5	0,737900
18,716833	0,5	0,726550
18,725167	0,5	0,725400
18,733500	0,5	0,713450
18,741833	0,5	0,714000
18,750167	0,5	0,695500
18,758500	0,5	0,690250
18,766833	0,5	0,685350
18,775167	0,5	0,687600
18,783500	0,5	0,681850
18,791833	0,5	0,665050
18,800167	0,5	0,669700
18,808500	0,5	0,660000
18,816833	0,5	0,656750
18,825167	0,5	0,633850
18,833500	0,5	0,614700
18,841833	0,5	0,611950
18,850167	0,5	0,615000
18,858500	0,5	0,608550
18,866833	0,5	0,608700
18,875167	0,5	0,608150
18,883500	0,5	0,612450
18,891833	0,5	0,611650
18,900167	0,5	0,615300
18,908500	0,5	0,615200
18,916833	0,5	0,621300
18,925167	0,5	0,634050
18,933500	0,5	0,635750
18,941833	0,5	0,636500
18,950167	0,5	0,656550
18,958500	0,5	0,657750
18,966833	0,5	0,660300
18,975167	0,5	0,656700
18,983500	0,5	0,647000
18,991833	0,5	0,661350
19,000167	0,5	0,664300
19,008500	0,5	0,677500
19,016833	0,5	0,677150
19,025167	0,5	0,681500
19,033500	0,5	0,677000
19,041833	0,5	0,681700
19,050167	0,5	0,676100
19,058500	0,5	0,674000
19,066833	0,5	0,681950
19,075167	0,5	0,675900
19,083500	0,5	0,650500
19,091833	0,5	0,645050
19,100167	0,5	0,633700
19,108500	0,5	0,612850
19,116833	0,5	0,585600
19,125167	0,5	0,558400
19,133500	0,5	0,546550
19,141833	0,5	0,530850
19,150167	0,5	0,516050
19,158500	0,5	0,498300
19,166833	0,5	0,487050
19,175167	0,5	0,468050
19,183500	0,5	0,456450
19,191833	0,5	0,435900
19,200167	0,5	0,423250
19,208500	0,5	0,404450
19,216833	0,5	0,403900
19,225167	0,5	0,381000
19,233500	0,5	0,361650
19,241833	0,5	0,355350
19,250167	0,5	0,344300
19,258500	0,5	0,327200
19,266833	0,5	0,301400
19,275167	0,5	0,282950
19,283500	0,5	0,272900
19,291833	0,5	0,274850
19,300167	0,5	0,259450
19,308500	0,5	0,256400
19,316833	0,5	0,251650
19,325167	0,5	0,246150
19,333500	0,5	0,241600
19,341833	0,5	0,236300
19,350167	0,5	0,225250
19,358500	0,5	0,231850
19,366833	0,5	0,239000
19,375167	0,5	0,231950
19,383500	0,5	0,242500
19,391833	0,5	0,259300
19,400167	0,5	0,264200
19,408500	0,5	0,266300
19,416833	0,5	0,247450
19,425167	0,5	0,247450
19,433500	0,5	0,233600
19,441833	0,5	0,210450
19,450167	0,5	0,180500
19,458500	0,5	0,149350
19,466833	0,5	0,119750
19,475167	0,5	0,092450
19,483500	0,5	0,075800
19,491833	0,5	0,057100
19,500167	0,5	0,046350
19,508500	0,5	0,034600
19,516833	0,5	0,028850
19,525167	0,5	0,000850
19,533500	0,5	0,009100
19,541833	0,5	0,002550
19,550167	0,5	-0,005800
19,558500	0,5	-0,018800
19,566833	0,5	-0,044950
19,575167	0,5	-0,040600
19,583500	0,5	-0,048700
19,591833	0,5	-0,060950
19,600167	0,5	-0,067650
19,608500	0,5	-0,080200
19,616833	0,5	-0,080600
19,625167	0,5	-0,092500
19,633500	0,5	-0,094350
19,641833	0,5	-0,098600
19,650167	0,5	-0,100700
19,658500	0,5	-0,083500
19,666833	0,5	-0,086050
19,675167	0,5	-0,086200
19,683500	0,5	-0,072150
19,691833	0,5	-0,064100
19,700167	0,5	-0,066550
19,708500	0,5	-0,070900
19,716833	0,5	-0,077950
19,725167	0,5	-0,062600
19,733500	0,5	-0,057550
19,741833	0,5	-0,036800
19,750167	0,5	-0,025100
19,758500	0,5	-0,006100
19,766833	0,5	0,002250
19,775167	0,5	0,000400
19,783500	0,5	-0,028400
19,791833	0,5	-0,069500
19,800167	0,5	-0,104100
19,808500	0,5	-0,144300
19,816833	0,5	-0,190800
19,825167	0,5	-0,219700
19,833500	0,5	-0,234950
19,841833	0,5	-0,256550
19,850167	0,5	-0,275350
19,858500	0,5	-0,300100
19,866833	0,5	-0,311950
19,875167	0,5	-0,317850
19,883500	0,5	-0,317000
19,891833	0,5	-0,329600
19,900167	0,5	-0,331750
19,908500	0,5	-0,334300
19,916833	0,5	-0,331750
19,925167	0,5	-0,328550
19,933500	0,5	-0,325900
19,941833	0,5	-0,316900
19,950167	0,5	-0,295450
19,958500	0,5	-0,277800
19,966833	0,5	-0,271000
19,975167	0,5	-0,243400
19,983500	0,5	-0,242950
19,991833	0,5	-0,258550
20,000167	0,5	-0,300950
20,008500	0,5	-0,341950
20,016833	0,5	-0,377600
20,025167	0,5	-0,391750
20,033500	0,5	-0,413050
20,041833	0,5	-0,422800
20,050167	0,5	-0,434900
20,058500	0,5	-0,436900
20,066833	0,5	-0,447700
20,075167	0,5	-0,452250
20,083500	0,5	-0,460900
20,091833	0,5	-0,457600
20,100167	0,5	-0,452200
20,108500	0,5	-0,466300
20,116833	0,5	-0,466300
20,125167	0,5	-0,455850
20,133500	0,5	-0,456750
20,141833	0,5	-0,460550
20,150167	0,5	-0,471750
20,158500	0,5	-0,469200
20,166833	0,5	-0,447950
20,175167	0,5	-0,442350
20,183500	0,5	-0,420650
20,191833	0,5	-0,408200
20,200167	0,5	-0,393850
20,208500	0,5	-0,379450
20,216833	0,5	-0,365050
20,225167	0,5	-0,353350
20,233500	0,5	-0,342700
20,241833	0,5	-0,335200
20,250167	0,5	-0,358050
20,258500	0,5	-0,417000
20,266833	0,5	-0,454750
20,275167	0,5	-0,505100
20,283500	0,5	-0,550800
20,291833	0,5	-0,583000
20,300167	0,5	-0,619700
20,308500	0,5	-0,621500
20,316833	0,5	-0,629500
20,325167	0,5	-0,628800
20,333500	0,5	-0,636250
20,341833	0,5	-0,632050
20,350167	0,5	-0,638850
20,358500	0,5	-0,631600
20,366833	0,5	-0,633000
20,375167	0,5	-0,622150
20,383500	0,5	-0,609600
20,391833	0,5	-0,581900
20,400167	0,5	-0,572600
20,408500	0,5	-0,567050
20,416833	0,5	-0,567150
20,425167	0,5	-0,585450
20,433500	0,5	-0,614050
20,441833	0,5	-0,652850
20,450167	0,5	-0,675700
20,458500	0,5	-0,686150
20,466833	0,5	-0,691450
20,475167	0,5	-0,700450
20,483500	0,5	-0,705100
20,491833	0,5	-0,707750
20,500167	0,5	-0,702000
20,508500	0,5	-0,701850
20,516833	0,5	-0,696550
20,525167	0,5	-0,692950
20,533500	0,5	-0,677300
20,541833	0,5	-0,662650
20,550167	0,5	-0,666300
20,558500	0,5	-0,662350
20,566833	0,5	-0,654700
20,575167	0,5	-0,645850
20,583500	0,5	-0,642450
20,591833	0,5	-0,643850
20,600167	0,5	-0,621150
20,608500	0,5	-0,595550
20,616833	0,5	-0,594400
20,625167	0,5	-0,595850
20,633500	0,5	-0,617800
20,641833	0,5	-0,621350
20,650167	0,5	-0,639000
20,658500	0,5	-0,643400
20,666833	0,5	-0,657000
20,675167	0,5	-0,662500
20,683500	0,5	-0,642950
20,691833	0,5	-0,636700
20,700167	0,5	-0,653350
20,708500	0,5	-0,649800
20,716833	0,5	-0,657900
20,725167	0,5	-0,673250
20,733500	0,5	-0,699700
20,741833	0,5	-0,730900
20,750167	0,5	-0,740850
20,758500	0,5	-0,750300
20,766833	0,5	-0,752800
20,775167	0,5	-0,758600
20,783500	0,5	-0,754900
20,791833	0,5	-0,762150
20,800167	0,5	-0,757650
20,808500	0,5	-0,760150
20,816833	0,5	-0,756750
20,825167	0,5	-0,756650
20,833500	0,5	-0,739400
20,841833	0,5	-0,741400
20,850167	0,5	-0,740600
20,858500	0,5	-0,734150
20,866833	0,5	-0,735450
20,875167	0,5	-0,744650
20,883500	0,5	-0,765800
20,891833	0,5	-0,781900
20,900167	0,5	-0,800100
20,908500	0,5	-0,802600
20,916833	0,5	-0,813350
20,925167	0,5	-0,809800
20,933500	0,5	-0,814150
20,941833	0,5	-0,811250
20,950167	0,5	-0,810550
20,958500	0,5	-0,809000
20,966833	0,5	-0,812650
20,975167	0,5	-0,787400
20,983500	0,5	-0,775800
20,991833	0,5	-0,778350
21,000167	0,5	-0,778100
21,008500	0,5	-0,774900
21,016833	0,5	-0,781600
21,025167	0,5	-0,791800
21,033500	0,5	-0,804550
21,041833	0,5	-0,803300
21,050167	0,5	-0,789050
21,058500	0,5	-0,782900
21,066833	0,5	-0,779400
21,075167	0,5	-0,786100
21,083500	0,5	-0,784550
21,091833	0,5	-0,786000
21,100167	0,5	-0,780800
21,108500	0,5	-0,787400
21,116833	0,5	-0,772150
21,125167	0,5	-0,747450
21,133500	0,5	-0,737800
21,141833	0,5	-0,742400
21,150167	0,5	-0,738300
21,158500	0,5	-0,745600
21,166833	0,5	-0,747000
21,175167	0,5	-0,769300
21,183500	0,5	-0,769300
21,191833	0,5	-0,763650
21,200167	0,5	-0,759100
21,208500	0,5	-0,759550
21,216833	0,5	-0,758050
21,225167	0,5	-0,759000
21,233500	0,5	-0,756350
21,241833	0,5	-0,750700
21,250167	0,5	-0,748850
21,258500	0,5	-0,740850
21,266833	0,5	-0,713150
21,275167	0,5	-0,692050
21,283500	0,5	-0,694600
21,291833	0,5	-0,694850
21,300167	0,5	-0,693100
21,308500	0,5	-0,701500
21,316833	0,5	-0,713100
21,325167	0,5	-0,728700
21,333500	0,5	-0,719500
21,341833	0,5	-0,719750
21,350167	0,5	-0,718800
21,358500	0,5	-0,714900
21,366833	0,5	-0,704250
21,375167	0,5	-0,701800
21,383500	0,5	-0,688850
21,391833	0,5	-0,685200
21,400167	0,5	-0,674600
21,408500	0,5	-0,666550
21,416833	0,5	-0,631950
21,425167	0,5	-0,613800
21,433500	0,5	-0,615450
21,441833	0,5	-0,611000
21,450167	0,5	-0,607300
21,458500	0,5	-0,618250
21,466833	0,5	-0,626950
21,475167	0,5	-0,625500
21,483500	0,5	-0,613800
21,491833	0,5	-0,608250
21,500167	0,5	-0,597650
21,508500	0,5	-0,590700
21,516833	0,5	-0,577350
21,525167	0,5	-0,561500
21,533500	0,5	-0,546850
21,541833	0,5	-0,528950
21,550167	0,5	-0,515300
21,558500	0,5	-0,477700
21,566833	0,5	-0,449800
21,575167	0,5	-0,440700
21,583500	0,5	-0,432550
21,591833	0,5	-0,422550
21,600167	0,5	-0,414950
21,608500	0,5	-0,398050
21,616833	0,5	-0,390600
21,625167	0,5	-0,358000
21,633500	0,5	-0,321400
21,641833	0,5	-0,287400
21,650167	0,5	-0,245400
21,658500	0,5	-0,217950
21,666833	0,5	-0,206300
21,675167	0,5	-0,210550
21,683500	0,5	-0,213150
21,691833	0,5	-0,222950
21,700167	0,5	-0,221100
21,708500	0,5	-0,196500
21,716833	0,5	-0,184300
21,725167	0,5	-0,184450
21,733500	0,5	-0,168700
21,741833	0,5	-0,164100
21,750167	0,5	-0,167750
21,758500	0,5	-0,171050
21,766833	0,5	-0,172900
21,775167	0,5	-0,152000
21,783500	0,5	-0,135450
21,791833	0,5	-0,119200
21,800167	0,5	-0,093050
21,808500	0,5	-0,069750
21,816833	0,5	-0,045400
21,825167	0,5	-0,011500
21,833500	0,5	0,017850
21,841833	0,5	0,049700
21,850167	0,5	0,089500
21,858500	0,5	0,127300
21,866833	0,5	0,146400
21,875167	0,5	0,170100
21,883500	0,5	0,188300
21,891833	0,5	0,207200
21,900167	0,5	0,219450
21,908500	0,5	0,224300
21,916833	0,5	0,244700
21,925167	0,5	0,258650
21,933500	0,5	0,278750
21,941833	0,5	0,296700
21,950167	0,5	0,318900
21,958500	0,5	0,339700
21,966833	0,5	0,363800
21,975167	0,5	0,385200
21,983500	0,5	0,410250
21,991833	0,5	0,428000
22,000167	0,5	0,466300
22,008500	0,5	0,486250
22,016833	0,5	0,506700
22,025167	0,5	0,531450
22,033500	0,5	0,552150
22,041833	0,5	0,576800
22,050167	0,5	0,588900
22,058500	0,5	0,616050
22,066833	0,5	0,645600
22,075167	0,5	0,676200
22,083500	0,5	0,710700
22,091833	0,5	0,747500
22,100167	0,5	0,782500
22,108500	0,5	0,818200
22,116833	0,5	0,846400
22,125167	0,5	0,886150
22,133500	0,5	0,922850
22,141833	0,5	0,968350
22,150167	0,5	1,009750
22,158500	0,5	1,045350
22,166833	0,5	1,097300
22,175167	0,5	1,145450
22,183500	0,5	1,183950
22,191833	0,5	1,229200
22,200167	0,5	1,259150
22,208500	0,5	1,310200
22,216833	0,5	1,373150
22,225167	0,5	1,421350
22,233500	0,5	1,474450
22,241833	0,5	1,524750
22,250167	0,5	1,577150
22,258500	0,5	1,626000
22,266833	0,5	1,676250
22,275167	0,5	1,723300
22,283500	0,5	1,778500
22,291833	0,5	1,821300
22,300167	0,5	1,874400
22,308500	0,5	1,924050
22,316833	0,5	1,997900
22,325167	0,5	2,051650
22,333500	0,5	2,099150
22,341833	0,5	2,132050
22,350167	0,5	2,170150
22,358500	0,5	2,223650
22,366833	0,5	2,276150
22,375167	0,5	2,322950
22,383500	0,5	2,375500
22,391833	0,5	2,425750
22,400167	0,5	2,481900
22,408500	0,5	2,537250
22,416833	0,5	2,589600
22,425167	0,5	2,650650
22,433500	0,5	2,690900
22,441833	0,5	2,752050
22,450167	0,5	2,803050
22,458500	0,5	2,900750
22,466833	0,5	2,971600
22,475167	0,5	3,041550
22,483500	0,5	3,101600
22,491833	0,5	3,156050
22,500167	0,5	3,237200
22,508500	0,5	3,307000
22,516833	0,5	3,379000
22,525167	0,5	3,448550
22,533500	0,5	3,522500
22,541833	0,5	3,587300
22,550167	0,5	3,666000
22,558500	0,5	3,733950
22,566833	0,5	3,811000
22,575167	0,5	3,883350
22,583500	0,5	3,921650
22,591833	0,5	4,001000
22,600167	0,5	4,080200
22,608500	0,5	4,174100
22,616833	0,5	4,245700
22,625167	0,5	4,304650
22,633500	0,5	4,361700
22,641833	0,5	4,404850
22,650167	0,5	4,464450
22,658500	0,5	4,515800
22,666833	0,5	4,553000
22,675167	0,5	4,580500
22,683500	0,5	4,600150
22,691833	0,5	4,617200
22,700167	0,5	4,621500
22,708500	0,5	4,625250
22,716833	0,5	4,609750
22,725167	0,5	4,573750
22,733500	0,5	4,510700
22,741833	0,5	4,504050
22,750167	0,5	4,482050
22,758500	0,5	4,445800
22,766833	0,5	4,377900
22,775167	0,5	4,302100
22,783500	0,5	4,195550
22,791833	0,5	4,086450
22,800167	0,5	3,979500
22,808500	0,5	3,863450
22,816833	0,5	3,732700
22,825167	0,5	3,604050
22,833500	0,5	3,463000
22,841833	0,5	3,321600
22,850167	0,5	3,176250
22,858500	0,5	3,024200
22,866833	0,5	2,863000
22,875167	0,5	2,653800
22,883500	0,5	2,490500
22,891833	0,5	2,335000
22,900167	0,5	2,167300
22,908500	0,5	1,980250
22,916833	0,5	1,792700
22,925167	0,5	1,614650
22,933500	0,5	1,434000
22,941833	0,5	1,249900
22,950167	0,5	1,069100
22,958500	0,5	0,900300
22,966833	0,5	0,730600
22,975167	0,5	0,565800
22,983500	0,5	0,407900
22,991833	0,5	0,243900
23,000167	0,5	0,094400
23,008500	0,5	-0,063050
23,016833	0,5	-0,195700
23,025167	0,5	-0,347600
23,033500	0,5	-0,484700
23,041833	0,5	-0,638750
23,050167	0,5	-0,792600
23,058500	0,5	-0,923650
23,066833	0,5	-1,033650
23,075167	0,5	-1,140150
23,083500	0,5	-1,245800
23,091833	0,5	-1,346600
23,100167	0,5	-1,433250
23,108500	0,5	-1,517900
23,116833	0,5	-1,589250
23,125167	0,5	-1,664900
23,133500	0,5	-1,732600
23,141833	0,5	-1,797300
23,150167	0,5	-1,857750
23,158500	0,5	-1,910500
23,166833	0,5	-1,946100
23,175167	0,5	-2,010300
23,183500	0,5	-2,044550
23,191833	0,5	-2,125600
23,200167	0,5	-2,189250
23,208500	0,5	-2,210100
23,216833	0,5	-2,247000
23,225167	0,5	-2,253100
23,233500	0,5	-2,275700
23,241833	0,5	-2,288200
23,250167	0,5	-2,298200
23,258500	0,5	-2,293450
23,266833	0,5	-2,289850
23,275167	0,5	-2,283550
23,283500	0,5	-2,280800
23,291833	0,5	-2,274350
23,300167	0,5	-2,266500
23,308500	0,5	-2,255800
23,316833	0,5	-2,273450
23,325167	0,5	-2,244100
23,333500	0,5	-2,219850
23,341833	0,5	-2,238850
23,350167	0,5	-2,246650
23,358500	0,5	-2,240200
23,366833	0,5	-2,219850
23,375167	0,5	-2,201900
23,383500	0,5	-2,189800
23,391833	0,5	-2,169100
23,400167	0,5	-2,139850
23,408500	0,5	-2,111400
23,416833	0,5	-2,079800
23,425167	0,5	-2,051350
23,433500	0,5	-2,020500
23,441833	0,5	-1,991200
23,450167	0,5	-1,960700
23,458500	0,5	-1,935250
23,466833	0,5	-1,961750
23,475167	0,5	-1,909100
23,483500	0,5	-1,849150
23,491833	0,5	-1,844050
23,500167	0,5	-1,839850
23,508500	0,5	-1,822800
23,516833	0,5	-1,805200
23,525167	0,5	-1,786650
23,533500	0,5	-1,774850
23,541833	0,5	-1,752550
23,550167	0,5	-1,737400
23,558500	0,5	-1,714250
23,566833	0,5	-1,697200
23,575167	0,5	-1,672900
23,583500	0,5	-1,655650
23,591833	0,5	-1,633600
23,600167	0,5	-1,616450
23,608500	0,5	-1,686750
23,616833	0,5	-1,661250
23,625167	0,5	-1,623200
23,633500	0,5	-1,558500
23,641833	0,5	-1,543100
23,650167	0,5	-1,537050
23,658500	0,5	-1,527700
23,666833	0,5	-1,519200
23,675167	0,5	-1,509100
23,683500	0,5	-1,500100
23,691833	0,5	-1,489050
23,700167	0,5	-1,478750
23,708500	0,5	-1,469850
23,716833	0,5	-1,462250
23,725167	0,5	-1,452550
23,733500	0,5	-1,446900
23,741833	0,5	-1,440700
23,750167	0,5	-1,446050
23,758500	0,5	-1,585000
23,766833	0,5	-1,547450
23,775167	0,5	-1,495150
23,783500	0,5	-1,450950
23,791833	0,5	-1,439750
23,800167	0,5	-1,439050
23,808500	0,5	-1,439650
23,816833	0,5	-1,446300
23,825167	0,5	-1,441900
23,833500	0,5	-1,428250
23,841833	0,5	-1,418250
23,850167	0,5	-1,404250
23,858500	0,5	-1,393500
23,866833	0,5	-1,381500
23,875167	0,5	-1,371900
23,883500	0,5	-1,358500
23,891833	0,5	-1,353500
23,900167	0,5	-1,394800
23,908500	0,5	-1,492900
23,916833	0,5	-1,441600
23,925167	0,5	-1,392000
23,933500	0,5	-1,346300
23,941833	0,5	-1,339800
23,950167	0,5	-1,337900
23,958500	0,5	-1,351650
23,966833	0,5	-1,354550
23,975167	0,5	-1,345000
23,983500	0,5	-1,332700
23,991833	0,5	-1,326400
24,000167	0,5	-1,313550
24,008500	0,5	-1,303500
24,016833	0,5	-1,294200
24,025167	0,5	-1,279600
24,033500	0,5	-1,270000
24,041833	0,5	-1,256950
24,050167	0,5	-1,376950
24,058500	0,5	-1,362650
24,066833	0,5	-1,331050
24,075167	0,5	-1,268700
24,083500	0,5	-1,231400
24,091833	0,5	-1,213850
24,100167	0,5	-1,205800
24,108500	0,5	-1,202250
24,116833	0,5	-1,193500
24,125167	0,5	-1,173400
24,133500	0,5	-1,161000
24,141833	0,5	-1,143250
24,150167	0,5	-1,129000
24,158500	0,5	-1,112450
24,166833	0,5	-1,097750
24,175167	0,5	-1,085850
24,183500	0,5	-1,071650
24,191833	0,5	-1,078850
24,200167	0,5	-1,180450
24,208500	0,5	-1,156550
24,216833	0,5	-1,116900
24,225167	0,5	-1,067550
24,233500	0,5	-1,036550
24,241833	0,5	-1,034000
24,250167	0,5	-1,026450
24,258500	0,5	-1,035750
24,266833	0,5	-1,009100
24,275167	0,5	-0,999500
24,283500	0,5	-0,978350
24,291833	0,5	-0,965100
24,300167	0,5	-0,943600
24,308500	0,5	-0,926800
24,316833	0,5	-0,906950
24,325167	0,5	-0,888300
24,333500	0,5	-0,872900
24,341833	0,5	-0,904350
24,350167	0,5	-0,941950
24,358500	0,5	-0,918200
24,366833	0,5	-0,874150
24,375167	0,5	-0,834300
24,383500	0,5	-0,813900
24,391833	0,5	-0,803300
24,400167	0,5	-0,804800
24,408500	0,5	-0,799150
24,416833	0,5	-0,788050
24,425167	0,5	-0,768200
24,433500	0,5	-0,766150
24,441833	0,5	-0,749950
24,450167	0,5	-0,744900
24,458500	0,5	-0,727150
24,466833	0,5	-0,713350
24,475167	0,5	-0,699550
24,483500	0,5	-0,691750
24,491833	0,5	-0,764550
24,500167	0,5	-0,740350
24,508500	0,5	-0,720850
24,516833	0,5	-0,677700
24,525167	0,5	-0,650250
24,533500	0,5	-0,632400
24,541833	0,5	-0,625650
24,550167	0,5	-0,629600
24,558500	0,5	-0,618800
24,566833	0,5	-0,599450
24,575167	0,5	-0,589300
24,583500	0,5	-0,571200
24,591833	0,5	-0,561750
24,600167	0,5	-0,548650
24,608500	0,5	-0,540300
24,616833	0,5	-0,525200
24,625167	0,5	-0,518350
24,633500	0,5	-0,515850
24,641833	0,5	-0,569450
24,650167	0,5	-0,538150
24,658500	0,5	-0,530400
24,666833	0,5	-0,499050
24,675167	0,5	-0,486850
24,683500	0,5	-0,478500
24,691833	0,5	-0,477850
24,700167	0,5	-0,484200
24,708500	0,5	-0,473050
24,716833	0,5	-0,463850
24,725167	0,5	-0,453000
24,733500	0,5	-0,444800
24,741833	0,5	-0,432400
24,750167	0,5	-0,422200
24,758500	0,5	-0,405100
24,766833	0,5	-0,394550
24,775167	0,5	-0,383400
24,783500	0,5	-0,395100
24,791833	0,5	-0,404250
24,800167	0,5	-0,391550
24,808500	0,5	-0,369000
24,816833	0,5	-0,350000
24,825167	0,5	-0,336050
24,833500	0,5	-0,330900
24,841833	0,5	-0,329900
24,850167	0,5	-0,335300
24,858500	0,5	-0,331400
24,866833	0,5	-0,321250
24,875167	0,5	-0,314350
24,883500	0,5	-0,306900
24,891833	0,5	-0,298500
24,900167	0,5	-0,291200
24,908500	0,5	-0,284050
24,916833	0,5	-0,275800
24,925167	0,5	-0,275400
24,933500	0,5	-0,292250
24,941833	0,5	-0,289800
24,950167	0,5	-0,277850
24,958500	0,5	-0,261400
24,966833	0,5	-0,245200
24,975167	0,5	-0,238850
24,983500	0,5	-0,233700
24,991833	0,5	-0,234500
25,000167	0,5	-0,232000
25,008500	0,5	-0,224050
25,016833	0,5	-0,212300
25,025167	0,5	-0,203800
25,033500	0,5	-0,200450
25,041833	0,5	-0,194050
25,050167	0,5	-0,188750
25,058500	0,5	-0,179850
25,066833	0,5	-0,176300
25,075167	0,5	-0,172400
25,083500	0,5	-0,183750
25,091833	0,5	-0,175650
25,100167	0,5	-0,168750
25,108500	0,5	-0,160850
25,116833	0,5	-0,154450
25,125167	0,5	-0,151600
25,133500	0,5	-0,150100
25,141833	0,5	-0,153200
25,150167	0,5	-0,148950
25,158500	0,5	-0,141150
25,166833	0,5	-0,140950
25,175167	0,5	-0,135800
25,183500	0,5	-0,130300
25,191833	0,5	-0,125650
25,200167	0,5	-0,117550
25,208500	0,5	-0,110650
25,216833	0,5	-0,105450
25,225167	0,5	-0,106350
25,233500	0,5	-0,101850
25,241833	0,5	-0,097250
25,250167	0,5	-0,088750
25,258500	0,5	-0,085400
25,266833	0,5	-0,078350
25,275167	0,5	-0,078100
25,283500	0,5	-0,076800
25,291833	0,5	-0,078950
25,300167	0,5	-0,077000
25,308500	0,5	-0,074450
25,316833	0,5	-0,072450
25,325167	0,5	-0,071900
25,333500	0,5	-0,069550
25,341833	0,5	-0,067300
25,350167	0,5	-0,065600
25,358500	0,5	-0,062350
25,366833	0,5	-0,059350
25,375167	0,5	-0,058550
25,383500	0,5	-0,054150
25,391833	0,5	-0,050450
25,400167	0,5	-0,046000
25,408500	0,5	-0,043950
25,416833	0,5	-0,039400
25,425167	0,5	-0,037050
25,433500	0,5	-0,036450
25,441833	0,5	-0,032050
25,450167	0,5	-0,029300
25,458500	0,5	-0,025400
25,466833	0,5	-0,025550
25,475167	0,5	-0,022600
25,483500	0,5	-0,022600
25,491833	0,5	-0,020900
25,500167	0,5	-0,020300
25,508500	0,5	-0,015250
25,516833	0,5	-0,014400
25,525167	0,5	-0,011650
25,533500	0,5	-0,012400
25,541833	0,5	-0,011000
25,550167	0,5	-0,012500
25,558500	0,5	-0,011600
25,566833	0,5	-0,009900
25,575167	0,5	-0,009150
25,583500	0,5	-0,006700
25,591833	0,5	-0,006700
25,600167	0,5	-0,003550
25,608500	0,5	-0,002950
25,616833	0,5	0,000050
25,625167	0,5	0,003000
25,633500	0,5	0,005000
25,641833	0,5	0,007450
25,650167	0,5	0,005800
25,658500	0,5	0,011950
25,666833	0,5	0,017050
25,675167	0,5	0,023400
25,683500	0,5	0,018100
25,691833	0,5	0,021750
25,700167	0,5	0,013600
25,708500	0,5	0,016000
25,716833	0,5	0,015100
25,725167	0,5	0,017950
25,733500	0,5	0,022950
25,741833	0,5	0,019600
25,750167	0,5	0,020150
25,758500	0,5	0,018050
25,766833	0,5	0,021550
25,775167	0,5	0,019100
25,783500	0,5	0,025450
25,791833	0,5	0,023850
25,800167	0,5	0,026250
25,808500	0,5	0,028850
25,816833	0,5	0,035750
25,825167	0,5	0,036800
25,833500	0,5	0,041500
25,841833	0,5	0,036450
25,850167	0,5	0,034750
25,858500	0,5	0,034100
25,866833	0,5	0,038300
25,875167	0,5	0,042000
25,883500	0,5	0,048850
25,891833	0,5	0,047300
25,900167	0,5	0,042850
25,908500	0,5	0,048250
25,916833	0,5	0,047400
25,925167	0,5	0,049200
25,933500	0,5	0,047750
25,941833	0,5	0,048200
25,950167	0,5	0,048750
25,958500	0,5	0,050400
25,966833	0,5	0,051900
25,975167	0,5	0,060150
25,983500	0,5	0,063700
25,991833	0,5	0,058900
26,000167	0,5	0,057500
