File Path	chrom://chromeleon01/ikbm_chromeleon/2022/ICS-5000/ED1/Esteban/20220612_Cell_7_4_eg.seq/441.smp/ED_1.channel/ED_1.chm
Channel	ED_1

Injection Information:
Data Vault	ikbm_chromeleon
Injection	4_00h-EGS_NA
Injection Number	130
Position	BD5
Comment	
Processing Method	Stop sequence after Cell Death
Instrument Method	ICS5000_PA200_FullNative_Ox_26min_ED1
Type	Unknown
Status	Finished
Injection Date	15.06.2022
Injection Time	05:36:55
Injection Volume (µl)	5,0
Dilution Factor	1,0000
Weight	1,0000

Chromatogram Data Information:
Time Min. (min)	0,000333
Time Max. (min)	26,000333
Data Points	3121
Detector	EDet1
Generating Data System	Chromeleon 7.2.9.11323
Exporting Data System	Chromeleon 7.2.9.0
Operator	Instrument Controller
Signal Quantity	
Signal Unit	nC
Signal Min.	-2,760550
Signal Max.	2 221,216283
Channel	ED_1
Driver Name	DC-5000
Channel Type	Evaluation
Min. Step (s)	0,5
Max. Step (s)	0,5
Average Step (s)	0,5

Signal Parameter Information:
Signal Info	

Chromatogram Data:
Time (min)	Step (s)	Value (nC)
0,000333	n.a.	-0,060450
0,008667	0,5	-0,065550
0,017000	0,5	-0,047350
0,025333	0,5	-0,045350
0,033667	0,5	-0,050650
0,042000	0,5	-0,042400
0,050333	0,5	-0,039800
0,058667	0,5	0,004550
0,067000	0,5	-0,004600
0,075333	0,5	0,006850
0,083667	0,5	-0,006150
0,092000	0,5	0,003200
0,100333	0,5	-0,007900
0,108667	0,5	-0,005500
0,117000	0,5	-0,015300
0,125333	0,5	-0,014600
0,133667	0,5	-0,019400
0,142000	0,5	-0,025500
0,150333	0,5	-0,022600
0,158667	0,5	-0,027550
0,167000	0,5	-0,000300
0,175333	0,5	-0,026000
0,183667	0,5	-0,042950
0,192000	0,5	-0,045400
0,200333	0,5	-0,037850
0,208667	0,5	-0,006350
0,217000	0,5	-0,008850
0,225333	0,5	-0,021000
0,233667	0,5	-0,012600
0,242000	0,5	-0,025300
0,250333	0,5	-0,018200
0,258667	0,5	-0,033850
0,267000	0,5	-0,031900
0,275333	0,5	-0,040250
0,283667	0,5	-0,023950
0,292000	0,5	0,016500
0,300333	0,5	0,044500
0,308667	0,5	0,009400
0,317000	0,5	-0,004300
0,325333	0,5	-0,067050
0,333667	0,5	-0,079150
0,342000	0,5	-0,080050
0,350333	0,5	-0,064200
0,358667	0,5	-0,031700
0,367000	0,5	-0,038900
0,375333	0,5	-0,040600
0,383667	0,5	-0,042450
0,392000	0,5	-0,038100
0,400333	0,5	-0,039750
0,408667	0,5	-0,028650
0,417000	0,5	-0,042400
0,425333	0,5	-0,037800
0,433667	0,5	-0,048000
0,442000	0,5	-0,039700
0,450333	0,5	-0,063750
0,458667	0,5	-0,046150
0,467000	0,5	-0,033250
0,475333	0,5	-0,058650
0,483667	0,5	-0,059000
0,492000	0,5	-0,046050
0,500333	0,5	-0,029250
0,508667	0,5	-0,002500
0,517000	0,5	-0,015750
0,525333	0,5	-0,012250
0,533667	0,5	-0,016300
0,542000	0,5	-0,012200
0,550333	0,5	-0,017500
0,558667	0,5	-0,012800
0,567000	0,5	-0,012450
0,575333	0,5	-0,015900
0,583667	0,5	-0,010250
0,592000	0,5	-0,012900
0,600333	0,5	-0,005400
0,608667	0,5	0,006400
0,617000	0,5	0,002600
0,625333	0,5	-0,020550
0,633667	0,5	-0,016100
0,642000	0,5	-0,008600
0,650333	0,5	0,030300
0,658667	0,5	0,050200
0,667000	0,5	0,051400
0,675333	0,5	0,035900
0,683667	0,5	0,042200
0,692000	0,5	0,035500
0,700333	0,5	0,038950
0,708667	0,5	0,035250
0,717000	0,5	0,032300
0,725333	0,5	0,038350
0,733667	0,5	0,038100
0,742000	0,5	0,049000
0,750333	0,5	0,051200
0,758667	0,5	0,064050
0,767000	0,5	0,045400
0,775333	0,5	0,040600
0,783667	0,5	0,042800
0,792000	0,5	0,061350
0,800333	0,5	0,087300
0,808667	0,5	0,104050
0,817000	0,5	0,088350
0,825333	0,5	0,094950
0,833667	0,5	0,083050
0,842000	0,5	0,093150
0,850333	0,5	0,094200
0,858667	0,5	0,091300
0,867000	0,5	0,082500
0,875333	0,5	0,082250
0,883667	0,5	0,088400
0,892000	0,5	0,084050
0,900333	0,5	0,098800
0,908667	0,5	0,113600
0,917000	0,5	0,087500
0,925333	0,5	0,082600
0,933667	0,5	0,088550
0,942000	0,5	0,115150
0,950333	0,5	0,137150
0,958667	0,5	0,131400
0,967000	0,5	0,138250
0,975333	0,5	0,127950
0,983667	0,5	0,136150
0,992000	0,5	0,124200
1,000333	0,5	0,128200
1,008667	0,5	0,119350
1,017000	0,5	0,126050
1,025333	0,5	0,124950
1,033667	0,5	0,121850
1,042000	0,5	0,110250
1,050333	0,5	0,144600
1,058667	0,5	0,129350
1,067000	0,5	0,117650
1,075333	0,5	0,114900
1,083667	0,5	0,123650
1,092000	0,5	0,159550
1,100333	0,5	0,159800
1,108667	0,5	0,159100
1,117000	0,5	0,151550
1,125333	0,5	0,152100
1,133667	0,5	0,159250
1,142000	0,5	0,162300
1,150333	0,5	0,154800
1,158667	0,5	0,155850
1,167000	0,5	0,150150
1,175333	0,5	0,156050
1,183667	0,5	0,152050
1,192000	0,5	0,147700
1,200333	0,5	0,172350
1,208667	0,5	0,157800
1,217000	0,5	0,143950
1,225333	0,5	0,150800
1,233667	0,5	0,154900
1,242000	0,5	0,192350
1,250333	0,5	0,188450
1,258667	0,5	0,183650
1,267000	0,5	0,183600
1,275333	0,5	0,186450
1,283667	0,5	0,185500
1,292000	0,5	0,178400
1,300333	0,5	0,180550
1,308667	0,5	0,171650
1,317000	0,5	0,178750
1,325333	0,5	0,187900
1,333667	0,5	0,204450
1,342000	0,5	0,181850
1,350333	0,5	0,210100
1,358667	0,5	0,175450
1,367000	0,5	0,174900
1,375333	0,5	0,174050
1,383667	0,5	0,191800
1,392000	0,5	0,216200
1,400333	0,5	0,213400
1,408667	0,5	0,203600
1,417000	0,5	0,211050
1,425333	0,5	0,205500
1,433667	0,5	0,207800
1,442000	0,5	0,207400
1,450333	0,5	0,204550
1,458667	0,5	0,201150
1,467000	0,5	0,199600
1,475333	0,5	0,205500
1,483667	0,5	0,194850
1,492000	0,5	0,196250
1,500333	0,5	0,206300
1,508667	0,5	0,180350
1,517000	0,5	0,178400
1,525333	0,5	0,183700
1,533667	0,5	0,200800
1,542000	0,5	0,237050
1,550333	0,5	0,256350
1,558667	0,5	0,412000
1,567000	0,5	0,864050
1,575333	0,5	2,306050
1,583667	0,5	9,692650
1,592000	0,5	47,723301
1,600333	0,5	199,988903
1,608667	0,5	690,040110
1,617000	0,5	1 555,194373
1,625333	0,5	2 221,216283
1,633667	0,5	2 079,590931
1,642000	0,5	2 025,286380
1,650333	0,5	2 003,948630
1,658667	0,5	2 002,606280
1,667000	0,5	2 016,211930
1,675333	0,5	1 860,806628
1,683667	0,5	1 493,290422
1,692000	0,5	1 085,069166
1,700333	0,5	774,917112
1,708667	0,5	569,269508
1,717000	0,5	435,244506
1,725333	0,5	345,820705
1,733667	0,5	280,935804
1,742000	0,5	233,864453
1,750333	0,5	198,699803
1,758667	0,5	171,741803
1,767000	0,5	150,587502
1,775333	0,5	133,664402
1,783667	0,5	120,078152
1,792000	0,5	109,158902
1,800333	0,5	100,284751
1,808667	0,5	92,905001
1,817000	0,5	86,602601
1,825333	0,5	81,002651
1,833667	0,5	75,932351
1,842000	0,5	71,228751
1,850333	0,5	66,840201
1,858667	0,5	62,785451
1,867000	0,5	59,074401
1,875333	0,5	55,720851
1,883667	0,5	52,670651
1,892000	0,5	49,909101
1,900333	0,5	47,376201
1,908667	0,5	45,093251
1,917000	0,5	43,036601
1,925333	0,5	41,143651
1,933667	0,5	39,330201
1,942000	0,5	37,585801
1,950333	0,5	35,904801
1,958667	0,5	34,425601
1,967000	0,5	33,142850
1,975333	0,5	32,067300
1,983667	0,5	31,118950
1,992000	0,5	30,206750
2,000333	0,5	29,292600
2,008667	0,5	28,402850
2,017000	0,5	27,557750
2,025333	0,5	26,767750
2,033667	0,5	26,058450
2,042000	0,5	25,409800
2,050333	0,5	24,841050
2,058667	0,5	24,313900
2,067000	0,5	23,840800
2,075333	0,5	23,362850
2,083667	0,5	22,956450
2,092000	0,5	22,550550
2,100333	0,5	22,205050
2,108667	0,5	21,951850
2,117000	0,5	21,812200
2,125333	0,5	21,847400
2,133667	0,5	22,155000
2,142000	0,5	22,555600
2,150333	0,5	22,590100
2,158667	0,5	21,995850
2,167000	0,5	21,120900
2,175333	0,5	20,329450
2,183667	0,5	19,775650
2,192000	0,5	19,395100
2,200333	0,5	19,137400
2,208667	0,5	18,968350
2,217000	0,5	18,848300
2,225333	0,5	18,759250
2,233667	0,5	18,708200
2,242000	0,5	18,595250
2,250333	0,5	18,485300
2,258667	0,5	18,421100
2,267000	0,5	18,398650
2,275333	0,5	18,449650
2,283667	0,5	18,467100
2,292000	0,5	18,473200
2,300333	0,5	18,448100
2,308667	0,5	18,425300
2,317000	0,5	18,412500
2,325333	0,5	18,457900
2,333667	0,5	18,552600
2,342000	0,5	18,696450
2,350333	0,5	18,863250
2,358667	0,5	19,031800
2,367000	0,5	19,178600
2,375333	0,5	19,281400
2,383667	0,5	19,368850
2,392000	0,5	19,368250
2,400333	0,5	19,354250
2,408667	0,5	19,310250
2,417000	0,5	19,249650
2,425333	0,5	19,161050
2,433667	0,5	19,019700
2,442000	0,5	18,856300
2,450333	0,5	18,732250
2,458667	0,5	18,610700
2,467000	0,5	18,519900
2,475333	0,5	18,421650
2,483667	0,5	18,337900
2,492000	0,5	18,252050
2,500333	0,5	18,211100
2,508667	0,5	18,194200
2,517000	0,5	18,169600
2,525333	0,5	18,168650
2,533667	0,5	18,426800
2,542000	0,5	19,721300
2,550333	0,5	21,194900
2,558667	0,5	20,697150
2,567000	0,5	19,310800
2,575333	0,5	18,380800
2,583667	0,5	17,827850
2,592000	0,5	17,476400
2,600333	0,5	17,229750
2,608667	0,5	17,055250
2,617000	0,5	16,916000
2,625333	0,5	16,814750
2,633667	0,5	16,709300
2,642000	0,5	16,628500
2,650333	0,5	16,539150
2,658667	0,5	16,443900
2,667000	0,5	16,329500
2,675333	0,5	16,233800
2,683667	0,5	16,106250
2,692000	0,5	15,966550
2,700333	0,5	15,846800
2,708667	0,5	15,732100
2,717000	0,5	15,635000
2,725333	0,5	15,529900
2,733667	0,5	15,410450
2,742000	0,5	15,289000
2,750333	0,5	15,162950
2,758667	0,5	15,045650
2,767000	0,5	14,924350
2,775333	0,5	14,811450
2,783667	0,5	14,715950
2,792000	0,5	14,626950
2,800333	0,5	14,578450
2,808667	0,5	14,540950
2,817000	0,5	14,578200
2,825333	0,5	14,726100
2,833667	0,5	15,037050
2,842000	0,5	15,662750
2,850333	0,5	16,764050
2,858667	0,5	18,338600
2,867000	0,5	20,209300
2,875333	0,5	21,858100
2,883667	0,5	22,780450
2,892000	0,5	22,634600
2,900333	0,5	21,509200
2,908667	0,5	19,766550
2,917000	0,5	17,909150
2,925333	0,5	16,309450
2,933667	0,5	15,125250
2,942000	0,5	14,348650
2,950333	0,5	13,850700
2,958667	0,5	13,526200
2,967000	0,5	13,301900
2,975333	0,5	13,128700
2,983667	0,5	12,923650
2,992000	0,5	12,747100
3,000333	0,5	12,594650
3,008667	0,5	12,467950
3,017000	0,5	12,350000
3,025333	0,5	12,219700
3,033667	0,5	12,069150
3,042000	0,5	11,938700
3,050333	0,5	11,803300
3,058667	0,5	11,686800
3,067000	0,5	11,577000
3,075333	0,5	11,479150
3,083667	0,5	11,383050
3,092000	0,5	11,286450
3,100333	0,5	11,187350
3,108667	0,5	11,058800
3,117000	0,5	10,959000
3,125333	0,5	10,860400
3,133667	0,5	10,752400
3,142000	0,5	10,664900
3,150333	0,5	10,604700
3,158667	0,5	10,565400
3,167000	0,5	10,523050
3,175333	0,5	10,450650
3,183667	0,5	10,409500
3,192000	0,5	10,357700
3,200333	0,5	10,328200
3,208667	0,5	10,299450
3,217000	0,5	10,326200
3,225333	0,5	10,399600
3,233667	0,5	10,587950
3,242000	0,5	10,882500
3,250333	0,5	11,284900
3,258667	0,5	11,736150
3,267000	0,5	12,199750
3,275333	0,5	12,472000
3,283667	0,5	12,516550
3,292000	0,5	12,315050
3,300333	0,5	11,923900
3,308667	0,5	11,452450
3,317000	0,5	10,952450
3,325333	0,5	10,525200
3,333667	0,5	10,191950
3,342000	0,5	9,959350
3,350333	0,5	9,790050
3,358667	0,5	9,669550
3,367000	0,5	9,564300
3,375333	0,5	9,477250
3,383667	0,5	9,398850
3,392000	0,5	9,330850
3,400333	0,5	9,261150
3,408667	0,5	9,195100
3,417000	0,5	9,146000
3,425333	0,5	9,075700
3,433667	0,5	9,019100
3,442000	0,5	8,970100
3,450333	0,5	8,934300
3,458667	0,5	8,915300
3,467000	0,5	8,884250
3,475333	0,5	8,839600
3,483667	0,5	8,800700
3,492000	0,5	8,760950
3,500333	0,5	8,723450
3,508667	0,5	8,691150
3,517000	0,5	8,658450
3,525333	0,5	8,624600
3,533667	0,5	8,595400
3,542000	0,5	8,563500
3,550333	0,5	8,538900
3,558667	0,5	8,504250
3,567000	0,5	8,484850
3,575333	0,5	8,428550
3,583667	0,5	8,397850
3,592000	0,5	8,359750
3,600333	0,5	8,341300
3,608667	0,5	8,313250
3,617000	0,5	8,272650
3,625333	0,5	8,231050
3,633667	0,5	8,213050
3,642000	0,5	8,195600
3,650333	0,5	8,192200
3,658667	0,5	8,187700
3,667000	0,5	8,188450
3,675333	0,5	8,190700
3,683667	0,5	8,179900
3,692000	0,5	8,170250
3,700333	0,5	8,149100
3,708667	0,5	8,152850
3,717000	0,5	8,141000
3,725333	0,5	8,111750
3,733667	0,5	8,100450
3,742000	0,5	8,089400
3,750333	0,5	8,092850
3,758667	0,5	8,092550
3,767000	0,5	8,069900
3,775333	0,5	8,057600
3,783667	0,5	8,025400
3,792000	0,5	8,014900
3,800333	0,5	7,988150
3,808667	0,5	7,977050
3,817000	0,5	7,956300
3,825333	0,5	7,944000
3,833667	0,5	7,935200
3,842000	0,5	7,904100
3,850333	0,5	7,886850
3,858667	0,5	7,893950
3,867000	0,5	7,860650
3,875333	0,5	7,834850
3,883667	0,5	7,823850
3,892000	0,5	7,805950
3,900333	0,5	7,822550
3,908667	0,5	7,800700
3,917000	0,5	7,785600
3,925333	0,5	7,755900
3,933667	0,5	7,744450
3,942000	0,5	7,719200
3,950333	0,5	7,714800
3,958667	0,5	7,692650
3,967000	0,5	7,682400
3,975333	0,5	7,663350
3,983667	0,5	7,652400
3,992000	0,5	7,629300
4,000333	0,5	7,623400
4,008667	0,5	7,633100
4,017000	0,5	7,599000
4,025333	0,5	7,580150
4,033667	0,5	7,575600
4,042000	0,5	7,572250
4,050333	0,5	7,584050
4,058667	0,5	7,566450
4,067000	0,5	7,543200
4,075333	0,5	7,542200
4,083667	0,5	7,528500
4,092000	0,5	7,526050
4,100333	0,5	7,509500
4,108667	0,5	7,499850
4,117000	0,5	7,485000
4,125333	0,5	7,479000
4,133667	0,5	7,471550
4,142000	0,5	7,451000
4,150333	0,5	7,443500
4,158667	0,5	7,441550
4,167000	0,5	7,403150
4,175333	0,5	7,393700
4,183667	0,5	7,381400
4,192000	0,5	7,389600
4,200333	0,5	7,391050
4,208667	0,5	7,367600
4,217000	0,5	7,354100
4,225333	0,5	7,338850
4,233667	0,5	7,332550
4,242000	0,5	7,321000
4,250333	0,5	7,311800
4,258667	0,5	7,293150
4,267000	0,5	7,286300
4,275333	0,5	7,274100
4,283667	0,5	7,273950
4,292000	0,5	7,247400
4,300333	0,5	7,254900
4,308667	0,5	7,237550
4,317000	0,5	7,217950
4,325333	0,5	7,204650
4,333667	0,5	7,211900
4,342000	0,5	7,216450
4,350333	0,5	7,220900
4,358667	0,5	7,202550
4,367000	0,5	7,198250
4,375333	0,5	7,183400
4,383667	0,5	7,179750
4,392000	0,5	7,168450
4,400333	0,5	7,158800
4,408667	0,5	7,145950
4,417000	0,5	7,133400
4,425333	0,5	7,126950
4,433667	0,5	7,110800
4,442000	0,5	7,103150
4,450333	0,5	7,104500
4,458667	0,5	7,084250
4,467000	0,5	7,069500
4,475333	0,5	7,062200
4,483667	0,5	7,062950
4,492000	0,5	7,083150
4,500333	0,5	7,077000
4,508667	0,5	7,070950
4,517000	0,5	7,053850
4,525333	0,5	7,052350
4,533667	0,5	7,037450
4,542000	0,5	7,034000
4,550333	0,5	7,020950
4,558667	0,5	7,017950
4,567000	0,5	7,013050
4,575333	0,5	7,007300
4,583667	0,5	6,997350
4,592000	0,5	6,998950
4,600333	0,5	7,004900
4,608667	0,5	6,985850
4,617000	0,5	6,980200
4,625333	0,5	6,983450
4,633667	0,5	7,008600
4,642000	0,5	7,029900
4,650333	0,5	7,051300
4,658667	0,5	7,052900
4,667000	0,5	7,087100
4,675333	0,5	7,125200
4,683667	0,5	7,185550
4,692000	0,5	7,253900
4,700333	0,5	7,353500
4,708667	0,5	7,465850
4,717000	0,5	7,607450
4,725333	0,5	7,755050
4,733667	0,5	7,904850
4,742000	0,5	8,065800
4,750333	0,5	8,195950
4,758667	0,5	8,272700
4,767000	0,5	8,332850
4,775333	0,5	8,348850
4,783667	0,5	8,335650
4,792000	0,5	8,274850
4,800333	0,5	8,162100
4,808667	0,5	8,045600
4,817000	0,5	7,906300
4,825333	0,5	7,772100
4,833667	0,5	7,627200
4,842000	0,5	7,509650
4,850333	0,5	7,390350
4,858667	0,5	7,303250
4,867000	0,5	7,216300
4,875333	0,5	7,141350
4,883667	0,5	7,069700
4,892000	0,5	7,042350
4,900333	0,5	6,976700
4,908667	0,5	6,927050
4,917000	0,5	6,892800
4,925333	0,5	6,869900
4,933667	0,5	6,865600
4,942000	0,5	6,836500
4,950333	0,5	6,811350
4,958667	0,5	6,797500
4,967000	0,5	6,774450
4,975333	0,5	6,757550
4,983667	0,5	6,743850
4,992000	0,5	6,721900
5,000333	0,5	6,710450
5,008667	0,5	6,691950
5,017000	0,5	6,683500
5,025333	0,5	6,654150
5,033667	0,5	6,641500
5,042000	0,5	6,654650
5,050333	0,5	6,630650
5,058667	0,5	6,616000
5,067000	0,5	6,615200
5,075333	0,5	6,613200
5,083667	0,5	6,634900
5,092000	0,5	6,619400
5,100333	0,5	6,618750
5,108667	0,5	6,610550
5,117000	0,5	6,613650
5,125333	0,5	6,609600
5,133667	0,5	6,607300
5,142000	0,5	6,598150
5,150333	0,5	6,594000
5,158667	0,5	6,594700
5,167000	0,5	6,582900
5,175333	0,5	6,574550
5,183667	0,5	6,563100
5,192000	0,5	6,564850
5,200333	0,5	6,534650
5,208667	0,5	6,523000
5,217000	0,5	6,513800
5,225333	0,5	6,523050
5,233667	0,5	6,527200
5,242000	0,5	6,521950
5,250333	0,5	6,505900
5,258667	0,5	6,505200
5,267000	0,5	6,492850
5,275333	0,5	6,488550
5,283667	0,5	6,480200
5,292000	0,5	6,473650
5,300333	0,5	6,466800
5,308667	0,5	6,462150
5,317000	0,5	6,452500
5,325333	0,5	6,439050
5,333667	0,5	6,439800
5,342000	0,5	6,438550
5,350333	0,5	6,417750
5,358667	0,5	6,413100
5,367000	0,5	6,419550
5,375333	0,5	6,428200
5,383667	0,5	6,440650
5,392000	0,5	6,422500
5,400333	0,5	6,424000
5,408667	0,5	6,413300
5,417000	0,5	6,419850
5,425333	0,5	6,409850
5,433667	0,5	6,412500
5,442000	0,5	6,405600
5,450333	0,5	6,400750
5,458667	0,5	6,398200
5,467000	0,5	6,380250
5,475333	0,5	6,369900
5,483667	0,5	6,379600
5,492000	0,5	6,370650
5,500333	0,5	6,357450
5,508667	0,5	6,350450
5,517000	0,5	6,350500
5,525333	0,5	6,365700
5,533667	0,5	6,370000
5,542000	0,5	6,365550
5,550333	0,5	6,351150
5,558667	0,5	6,346250
5,567000	0,5	6,336400
5,575333	0,5	6,332800
5,583667	0,5	6,317650
5,592000	0,5	6,316150
5,600333	0,5	6,308600
5,608667	0,5	6,306500
5,617000	0,5	6,285850
5,625333	0,5	6,294550
5,633667	0,5	6,300450
5,642000	0,5	6,290350
5,650333	0,5	6,288650
5,658667	0,5	6,301350
5,667000	0,5	6,320750
5,675333	0,5	6,344400
5,683667	0,5	6,356400
5,692000	0,5	6,358200
5,700333	0,5	6,361400
5,708667	0,5	6,363300
5,717000	0,5	6,361700
5,725333	0,5	6,357800
5,733667	0,5	6,347900
5,742000	0,5	6,330800
5,750333	0,5	6,320150
5,758667	0,5	6,296450
5,767000	0,5	6,276250
5,775333	0,5	6,272450
5,783667	0,5	6,258700
5,792000	0,5	6,227750
5,800333	0,5	6,210450
5,808667	0,5	6,197450
5,817000	0,5	6,209000
5,825333	0,5	6,203800
5,833667	0,5	6,191400
5,842000	0,5	6,179150
5,850333	0,5	6,172900
5,858667	0,5	6,162200
5,867000	0,5	6,152500
5,875333	0,5	6,146150
5,883667	0,5	6,133500
5,892000	0,5	6,127200
5,900333	0,5	6,123550
5,908667	0,5	6,126950
5,917000	0,5	6,108250
5,925333	0,5	6,125000
5,933667	0,5	6,105700
5,942000	0,5	6,093700
5,950333	0,5	6,085100
5,958667	0,5	6,087400
5,967000	0,5	6,102100
5,975333	0,5	6,101750
5,983667	0,5	6,085900
5,992000	0,5	6,089850
6,000333	0,5	6,076850
6,008667	0,5	6,079550
6,017000	0,5	6,072750
6,025333	0,5	6,069650
6,033667	0,5	6,063350
6,042000	0,5	6,056350
6,050333	0,5	6,058150
6,058667	0,5	6,048100
6,067000	0,5	6,034850
6,075333	0,5	6,053050
6,083667	0,5	6,032100
6,092000	0,5	6,025050
6,100333	0,5	6,023900
6,108667	0,5	6,029250
6,117000	0,5	6,050000
6,125333	0,5	6,037650
6,133667	0,5	6,038800
6,142000	0,5	6,032600
6,150333	0,5	6,035550
6,158667	0,5	6,025650
6,167000	0,5	6,025250
6,175333	0,5	6,011950
6,183667	0,5	6,010600
6,192000	0,5	6,002900
6,200333	0,5	6,004150
6,208667	0,5	5,993450
6,217000	0,5	5,994150
6,225333	0,5	5,998550
6,233667	0,5	5,976750
6,242000	0,5	5,968250
6,250333	0,5	5,964450
6,258667	0,5	5,973550
6,267000	0,5	5,984900
6,275333	0,5	5,977100
6,283667	0,5	5,964150
6,292000	0,5	5,963400
6,300333	0,5	5,952000
6,308667	0,5	5,948250
6,317000	0,5	5,937300
6,325333	0,5	5,933200
6,333667	0,5	5,921850
6,342000	0,5	5,922700
6,350333	0,5	5,918050
6,358667	0,5	5,918550
6,367000	0,5	5,913300
6,375333	0,5	5,912300
6,383667	0,5	5,892200
6,392000	0,5	5,891700
6,400333	0,5	5,886600
6,408667	0,5	5,896250
6,417000	0,5	5,905750
6,425333	0,5	5,891750
6,433667	0,5	5,886600
6,442000	0,5	5,877300
6,450333	0,5	5,869450
6,458667	0,5	5,860200
6,467000	0,5	5,855300
6,475333	0,5	5,840800
6,483667	0,5	5,835750
6,492000	0,5	5,828200
6,500333	0,5	5,822050
6,508667	0,5	5,813300
6,517000	0,5	5,823800
6,525333	0,5	5,806950
6,533667	0,5	5,797150
6,542000	0,5	5,793950
6,550333	0,5	5,796400
6,558667	0,5	5,804800
6,567000	0,5	5,811400
6,575333	0,5	5,810000
6,583667	0,5	5,811050
6,592000	0,5	5,808000
6,600333	0,5	5,807300
6,608667	0,5	5,802050
6,617000	0,5	5,798050
6,625333	0,5	5,795700
6,633667	0,5	5,793000
6,642000	0,5	5,797700
6,650333	0,5	5,791500
6,658667	0,5	5,803850
6,667000	0,5	5,833800
6,675333	0,5	5,858650
6,683667	0,5	5,908800
6,692000	0,5	5,988850
6,700333	0,5	6,092850
6,708667	0,5	6,211300
6,717000	0,5	6,298950
6,725333	0,5	6,366400
6,733667	0,5	6,384450
6,742000	0,5	6,363200
6,750333	0,5	6,288100
6,758667	0,5	6,190050
6,767000	0,5	6,076000
6,775333	0,5	5,974900
6,783667	0,5	5,887300
6,792000	0,5	5,817750
6,800333	0,5	5,760350
6,808667	0,5	5,730350
6,817000	0,5	5,704850
6,825333	0,5	5,674450
6,833667	0,5	5,657500
6,842000	0,5	5,649050
6,850333	0,5	5,648700
6,858667	0,5	5,644850
6,867000	0,5	5,638300
6,875333	0,5	5,623000
6,883667	0,5	5,613450
6,892000	0,5	5,599750
6,900333	0,5	5,588950
6,908667	0,5	5,570100
6,917000	0,5	5,557500
6,925333	0,5	5,544800
6,933667	0,5	5,537050
6,942000	0,5	5,534450
6,950333	0,5	5,521950
6,958667	0,5	5,522650
6,967000	0,5	5,506450
6,975333	0,5	5,488800
6,983667	0,5	5,476600
6,992000	0,5	5,473500
7,000333	0,5	5,477250
7,008667	0,5	5,469850
7,017000	0,5	5,456400
7,025333	0,5	5,449800
7,033667	0,5	5,436500
7,042000	0,5	5,430750
7,050333	0,5	5,419150
7,058667	0,5	5,409800
7,067000	0,5	5,396100
7,075333	0,5	5,389500
7,083667	0,5	5,376750
7,092000	0,5	5,367050
7,100333	0,5	5,351100
7,108667	0,5	5,352450
7,117000	0,5	5,335850
7,125333	0,5	5,322050
7,133667	0,5	5,309900
7,142000	0,5	5,309350
7,150333	0,5	5,315500
7,158667	0,5	5,307050
7,167000	0,5	5,300300
7,175333	0,5	5,292550
7,183667	0,5	5,286350
7,192000	0,5	5,274050
7,200333	0,5	5,264950
7,208667	0,5	5,252200
7,217000	0,5	5,243900
7,225333	0,5	5,235700
7,233667	0,5	5,231500
7,242000	0,5	5,220750
7,250333	0,5	5,215800
7,258667	0,5	5,214750
7,267000	0,5	5,200200
7,275333	0,5	5,187300
7,283667	0,5	5,177050
7,292000	0,5	5,173750
7,300333	0,5	5,175050
7,308667	0,5	5,162100
7,317000	0,5	5,147200
7,325333	0,5	5,130850
7,333667	0,5	5,119050
7,342000	0,5	5,104150
7,350333	0,5	5,094450
7,358667	0,5	5,089600
7,367000	0,5	5,081600
7,375333	0,5	5,075050
7,383667	0,5	5,073050
7,392000	0,5	5,068900
7,400333	0,5	5,067950
7,408667	0,5	5,064400
7,417000	0,5	5,052300
7,425333	0,5	5,058500
7,433667	0,5	5,081600
7,442000	0,5	5,159200
7,450333	0,5	5,280550
7,458667	0,5	5,420150
7,467000	0,5	5,514850
7,475333	0,5	5,527350
7,483667	0,5	5,443350
7,492000	0,5	5,318900
7,500333	0,5	5,198500
7,508667	0,5	5,099850
7,517000	0,5	5,031700
7,525333	0,5	4,986250
7,533667	0,5	4,947100
7,542000	0,5	4,920100
7,550333	0,5	4,898350
7,558667	0,5	4,875400
7,567000	0,5	4,853750
7,575333	0,5	4,836900
7,583667	0,5	4,827000
7,592000	0,5	4,828950
7,600333	0,5	4,832600
7,608667	0,5	4,828650
7,617000	0,5	4,822950
7,625333	0,5	4,815450
7,633667	0,5	4,808700
7,642000	0,5	4,793600
7,650333	0,5	4,781350
7,658667	0,5	4,767450
7,667000	0,5	4,757150
7,675333	0,5	4,744750
7,683667	0,5	4,729200
7,692000	0,5	4,715900
7,700333	0,5	4,718350
7,708667	0,5	4,711250
7,717000	0,5	4,712000
7,725333	0,5	4,719900
7,733667	0,5	4,738750
7,742000	0,5	4,756800
7,750333	0,5	4,751050
7,758667	0,5	4,738350
7,767000	0,5	4,717350
7,775333	0,5	4,696000
7,783667	0,5	4,676350
7,792000	0,5	4,665100
7,800333	0,5	4,655550
7,808667	0,5	4,661100
7,817000	0,5	4,695950
7,825333	0,5	4,774150
7,833667	0,5	4,898350
7,842000	0,5	5,035200
7,850333	0,5	5,122750
7,858667	0,5	5,127750
7,867000	0,5	5,088250
7,875333	0,5	5,067700
7,883667	0,5	5,081800
7,892000	0,5	5,096800
7,900333	0,5	5,077200
7,908667	0,5	5,026050
7,917000	0,5	4,968150
7,925333	0,5	4,954000
7,933667	0,5	4,994600
7,942000	0,5	5,080800
7,950333	0,5	5,169000
7,958667	0,5	5,212050
7,967000	0,5	5,178250
7,975333	0,5	5,068850
7,983667	0,5	4,919100
7,992000	0,5	4,769650
8,000333	0,5	4,652300
8,008667	0,5	4,566300
8,017000	0,5	4,510850
8,025333	0,5	4,480150
8,033667	0,5	4,461100
8,042000	0,5	4,446000
8,050333	0,5	4,429100
8,058667	0,5	4,413350
8,067000	0,5	4,406850
8,075333	0,5	4,413500
8,083667	0,5	4,457400
8,092000	0,5	4,547550
8,100333	0,5	4,661950
8,108667	0,5	4,746450
8,117000	0,5	4,747000
8,125333	0,5	4,672000
8,133667	0,5	4,560550
8,142000	0,5	4,467600
8,150333	0,5	4,401200
8,158667	0,5	4,358350
8,167000	0,5	4,332900
8,175333	0,5	4,328050
8,183667	0,5	4,332350
8,192000	0,5	4,337700
8,200333	0,5	4,340850
8,208667	0,5	4,342350
8,217000	0,5	4,334200
8,225333	0,5	4,314950
8,233667	0,5	4,299650
8,242000	0,5	4,282950
8,250333	0,5	4,280850
8,258667	0,5	4,287750
8,267000	0,5	4,300000
8,275333	0,5	4,311850
8,283667	0,5	4,319250
8,292000	0,5	4,333300
8,300333	0,5	4,345150
8,308667	0,5	4,365600
8,317000	0,5	4,408500
8,325333	0,5	4,487400
8,333667	0,5	4,581750
8,342000	0,5	4,639350
8,350333	0,5	4,630000
8,358667	0,5	4,549150
8,367000	0,5	4,437750
8,375333	0,5	4,333800
8,383667	0,5	4,258950
8,392000	0,5	4,211900
8,400333	0,5	4,186250
8,408667	0,5	4,174800
8,417000	0,5	4,167000
8,425333	0,5	4,159050
8,433667	0,5	4,149450
8,442000	0,5	4,137900
8,450333	0,5	4,122200
8,458667	0,5	4,104650
8,467000	0,5	4,098800
8,475333	0,5	4,102200
8,483667	0,5	4,107800
8,492000	0,5	4,114100
8,500333	0,5	4,113850
8,508667	0,5	4,119050
8,517000	0,5	4,119500
8,525333	0,5	4,130400
8,533667	0,5	4,152450
8,542000	0,5	4,208850
8,550333	0,5	4,303850
8,558667	0,5	4,422000
8,567000	0,5	4,511650
8,575333	0,5	4,525950
8,583667	0,5	4,485550
8,592000	0,5	4,407500
8,600333	0,5	4,338550
8,608667	0,5	4,289900
8,617000	0,5	4,267500
8,625333	0,5	4,261300
8,633667	0,5	4,265850
8,642000	0,5	4,275450
8,650333	0,5	4,321100
8,658667	0,5	4,412950
8,667000	0,5	4,534800
8,675333	0,5	4,640250
8,683667	0,5	4,672100
8,692000	0,5	4,607350
8,700333	0,5	4,477200
8,708667	0,5	4,329200
8,717000	0,5	4,213150
8,725333	0,5	4,146750
8,733667	0,5	4,157500
8,742000	0,5	4,226550
8,750333	0,5	4,319350
8,758667	0,5	4,379750
8,767000	0,5	4,383300
8,775333	0,5	4,335100
8,783667	0,5	4,256850
8,792000	0,5	4,174900
8,800333	0,5	4,102150
8,808667	0,5	4,047500
8,817000	0,5	4,012350
8,825333	0,5	3,997200
8,833667	0,5	3,988250
8,842000	0,5	4,002450
8,850333	0,5	4,032300
8,858667	0,5	4,076550
8,867000	0,5	4,131300
8,875333	0,5	4,194950
8,883667	0,5	4,265500
8,892000	0,5	4,361450
8,900333	0,5	4,464200
8,908667	0,5	4,540300
8,917000	0,5	4,542050
8,925333	0,5	4,458550
8,933667	0,5	4,329450
8,942000	0,5	4,205850
8,950333	0,5	4,119150
8,958667	0,5	4,074850
8,967000	0,5	4,072750
8,975333	0,5	4,103900
8,983667	0,5	4,166700
8,992000	0,5	4,216400
9,000333	0,5	4,205200
9,008667	0,5	4,132350
9,017000	0,5	4,049950
9,025333	0,5	4,007250
9,033667	0,5	4,017950
9,042000	0,5	4,062250
9,050333	0,5	4,132700
9,058667	0,5	4,212650
9,067000	0,5	4,279100
9,075333	0,5	4,309450
9,083667	0,5	4,284650
9,092000	0,5	4,217850
9,100333	0,5	4,133100
9,108667	0,5	4,051850
9,117000	0,5	3,984150
9,125333	0,5	3,939900
9,133667	0,5	3,911400
9,142000	0,5	3,890850
9,150333	0,5	3,878050
9,158667	0,5	3,862550
9,167000	0,5	3,851800
9,175333	0,5	3,845450
9,183667	0,5	3,845550
9,192000	0,5	3,853050
9,200333	0,5	3,871850
9,208667	0,5	3,898300
9,217000	0,5	3,932750
9,225333	0,5	3,933000
9,233667	0,5	3,993350
9,242000	0,5	4,021700
9,250333	0,5	4,055800
9,258667	0,5	4,092900
9,267000	0,5	4,122650
9,275333	0,5	4,137000
9,283667	0,5	4,125200
9,292000	0,5	4,087750
9,300333	0,5	4,031750
9,308667	0,5	3,971150
9,317000	0,5	3,917700
9,325333	0,5	3,886500
9,333667	0,5	3,867300
9,342000	0,5	3,859700
9,350333	0,5	3,861150
9,358667	0,5	3,877550
9,367000	0,5	3,905600
9,375333	0,5	3,955450
9,383667	0,5	4,026900
9,392000	0,5	4,119750
9,400333	0,5	4,221700
9,408667	0,5	4,311850
9,417000	0,5	4,368100
9,425333	0,5	4,377700
9,433667	0,5	4,353550
9,442000	0,5	4,309300
9,450333	0,5	4,255000
9,458667	0,5	4,199050
9,467000	0,5	4,147900
9,475333	0,5	4,107400
9,483667	0,5	4,073450
9,492000	0,5	4,042200
9,500333	0,5	4,020650
9,508667	0,5	4,002150
9,517000	0,5	3,994000
9,525333	0,5	3,984250
9,533667	0,5	3,980900
9,542000	0,5	3,985350
9,550333	0,5	3,993850
9,558667	0,5	4,012250
9,567000	0,5	4,033300
9,575333	0,5	4,064450
9,583667	0,5	4,102050
9,592000	0,5	4,141150
9,600333	0,5	4,188650
9,608667	0,5	4,230600
9,617000	0,5	4,264300
9,625333	0,5	4,278600
9,633667	0,5	4,266050
9,642000	0,5	4,225050
9,650333	0,5	4,180150
9,658667	0,5	4,133600
9,667000	0,5	4,103950
9,675333	0,5	4,100400
9,683667	0,5	4,122650
9,692000	0,5	4,180550
9,700333	0,5	4,263350
9,708667	0,5	4,362250
9,717000	0,5	4,455050
9,725333	0,5	4,523650
9,733667	0,5	4,548550
9,742000	0,5	4,530200
9,750333	0,5	4,482300
9,758667	0,5	4,412900
9,767000	0,5	4,348050
9,775333	0,5	4,293800
9,783667	0,5	4,244600
9,792000	0,5	4,203700
9,800333	0,5	4,163500
9,808667	0,5	4,132400
9,817000	0,5	4,115100
9,825333	0,5	4,098250
9,833667	0,5	4,100350
9,842000	0,5	4,102350
9,850333	0,5	4,107650
9,858667	0,5	4,124000
9,867000	0,5	4,137250
9,875333	0,5	4,150300
9,883667	0,5	4,161800
9,892000	0,5	4,171150
9,900333	0,5	4,183350
9,908667	0,5	4,189000
9,917000	0,5	4,200550
9,925333	0,5	4,212800
9,933667	0,5	4,230900
9,942000	0,5	4,241550
9,950333	0,5	4,254050
9,958667	0,5	4,256000
9,967000	0,5	4,257250
9,975333	0,5	4,257250
9,983667	0,5	4,269750
9,992000	0,5	4,304850
10,000333	0,5	4,369400
10,008667	0,5	4,439450
10,017000	0,5	4,507100
10,025333	0,5	4,548550
10,033667	0,5	4,558300
10,042000	0,5	4,540050
10,050333	0,5	4,489700
10,058667	0,5	4,422300
10,067000	0,5	4,360200
10,075333	0,5	4,297300
10,083667	0,5	4,240900
10,092000	0,5	4,192200
10,100333	0,5	4,146000
10,108667	0,5	4,107250
10,117000	0,5	4,069550
10,125333	0,5	4,035650
10,133667	0,5	4,008850
10,142000	0,5	3,992450
10,150333	0,5	3,981100
10,158667	0,5	3,980050
10,167000	0,5	3,985700
10,175333	0,5	3,995700
10,183667	0,5	4,011050
10,192000	0,5	4,030150
10,200333	0,5	4,055500
10,208667	0,5	4,084450
10,217000	0,5	4,118750
10,225333	0,5	4,156450
10,233667	0,5	4,202400
10,242000	0,5	4,247700
10,250333	0,5	4,295850
10,258667	0,5	4,350550
10,267000	0,5	4,411950
10,275333	0,5	4,464650
10,283667	0,5	4,505800
10,292000	0,5	4,519950
10,300333	0,5	4,503200
10,308667	0,5	4,452500
10,317000	0,5	4,379050
10,325333	0,5	4,294450
10,333667	0,5	4,213800
10,342000	0,5	4,140450
10,350333	0,5	4,074850
10,358667	0,5	4,019200
10,367000	0,5	3,972300
10,375333	0,5	3,930300
10,383667	0,5	3,892700
10,392000	0,5	3,864500
10,400333	0,5	3,850750
10,408667	0,5	3,850200
10,417000	0,5	3,862300
10,425333	0,5	3,883050
10,433667	0,5	3,905300
10,442000	0,5	3,934900
10,450333	0,5	3,964900
10,458667	0,5	4,000350
10,467000	0,5	4,046900
10,475333	0,5	4,107750
10,483667	0,5	4,178600
10,492000	0,5	4,256600
10,500333	0,5	4,318400
10,508667	0,5	4,358850
10,517000	0,5	4,356000
10,525333	0,5	4,306650
10,533667	0,5	4,221550
10,542000	0,5	4,114800
10,550333	0,5	4,011400
10,558667	0,5	3,920950
10,567000	0,5	3,840350
10,575333	0,5	3,778650
10,583667	0,5	3,717000
10,592000	0,5	3,668550
10,600333	0,5	3,625250
10,608667	0,5	3,591550
10,617000	0,5	3,572650
10,625333	0,5	3,570500
10,633667	0,5	3,584700
10,642000	0,5	3,607800
10,650333	0,5	3,638500
10,658667	0,5	3,688750
10,667000	0,5	3,752200
10,675333	0,5	3,829800
10,683667	0,5	3,925950
10,692000	0,5	4,014850
10,700333	0,5	4,092150
10,708667	0,5	4,115900
10,717000	0,5	4,086100
10,725333	0,5	4,004250
10,733667	0,5	3,896900
10,742000	0,5	3,778700
10,750333	0,5	3,664350
10,758667	0,5	3,569950
10,767000	0,5	3,485750
10,775333	0,5	3,421350
10,783667	0,5	3,365500
10,792000	0,5	3,320700
10,800333	0,5	3,285050
10,808667	0,5	3,275350
10,817000	0,5	3,279850
10,825333	0,5	3,304300
10,833667	0,5	3,350500
10,842000	0,5	3,426500
10,850333	0,5	3,536800
10,858667	0,5	3,675200
10,867000	0,5	3,813000
10,875333	0,5	3,937500
10,883667	0,5	4,008600
10,892000	0,5	4,014200
10,900333	0,5	3,955400
10,908667	0,5	3,848200
10,917000	0,5	3,723650
10,925333	0,5	3,597750
10,933667	0,5	3,490100
10,942000	0,5	3,394100
10,950333	0,5	3,315000
10,958667	0,5	3,254500
10,967000	0,5	3,201250
10,975333	0,5	3,167050
10,983667	0,5	3,153850
10,992000	0,5	3,169050
11,000333	0,5	3,217100
11,008667	0,5	3,292250
11,017000	0,5	3,396750
11,025333	0,5	3,509850
11,033667	0,5	3,613650
11,042000	0,5	3,663600
11,050333	0,5	3,651750
11,058667	0,5	3,563950
11,067000	0,5	3,424200
11,075333	0,5	3,249500
11,083667	0,5	3,071050
11,092000	0,5	2,892650
11,100333	0,5	2,737400
11,108667	0,5	2,599250
11,117000	0,5	2,476550
11,125333	0,5	2,379900
11,133667	0,5	2,312800
11,142000	0,5	2,288400
11,150333	0,5	2,309950
11,158667	0,5	2,381150
11,167000	0,5	2,491500
11,175333	0,5	2,624900
11,183667	0,5	2,755500
11,192000	0,5	2,856900
11,200333	0,5	2,917250
11,208667	0,5	2,931600
11,217000	0,5	2,906150
11,225333	0,5	2,864100
11,233667	0,5	2,810100
11,242000	0,5	2,760150
11,250333	0,5	2,721600
11,258667	0,5	2,690150
11,267000	0,5	2,667250
11,275333	0,5	2,650150
11,283667	0,5	2,652250
11,292000	0,5	2,666400
11,300333	0,5	2,701250
11,308667	0,5	2,739700
11,317000	0,5	2,767600
11,325333	0,5	2,786200
11,333667	0,5	2,780450
11,342000	0,5	2,760100
11,350333	0,5	2,724900
11,358667	0,5	2,684150
11,367000	0,5	2,648500
11,375333	0,5	2,619300
11,383667	0,5	2,592700
11,392000	0,5	2,580750
11,400333	0,5	2,577500
11,408667	0,5	2,574750
11,417000	0,5	2,578700
11,425333	0,5	2,586150
11,433667	0,5	2,605600
11,442000	0,5	2,623950
11,450333	0,5	2,639400
11,458667	0,5	2,642600
11,467000	0,5	2,644250
11,475333	0,5	2,635150
11,483667	0,5	2,629750
11,492000	0,5	2,619900
11,500333	0,5	2,612100
11,508667	0,5	2,611300
11,517000	0,5	2,614350
11,525333	0,5	2,628600
11,533667	0,5	2,639550
11,542000	0,5	2,662050
11,550333	0,5	2,682450
11,558667	0,5	2,696250
11,567000	0,5	2,700800
11,575333	0,5	2,698200
11,583667	0,5	2,696900
11,592000	0,5	2,693950
11,600333	0,5	2,688650
11,608667	0,5	2,688300
11,617000	0,5	2,685000
11,625333	0,5	2,690100
11,633667	0,5	2,695050
11,642000	0,5	2,703050
11,650333	0,5	2,714050
11,658667	0,5	2,728100
11,667000	0,5	2,745300
11,675333	0,5	2,760100
11,683667	0,5	2,762850
11,692000	0,5	2,773150
11,700333	0,5	2,773600
11,708667	0,5	2,766300
11,717000	0,5	2,756800
11,725333	0,5	2,740650
11,733667	0,5	2,737800
11,742000	0,5	2,730650
11,750333	0,5	2,726700
11,758667	0,5	2,726550
11,767000	0,5	2,728100
11,775333	0,5	2,729000
11,783667	0,5	2,734300
11,792000	0,5	2,736400
11,800333	0,5	2,742150
11,808667	0,5	2,750400
11,817000	0,5	2,764450
11,825333	0,5	2,766150
11,833667	0,5	2,761100
11,842000	0,5	2,758950
11,850333	0,5	2,753050
11,858667	0,5	2,737750
11,867000	0,5	2,723700
11,875333	0,5	2,713350
11,883667	0,5	2,705850
11,892000	0,5	2,706900
11,900333	0,5	2,710050
11,908667	0,5	2,717050
11,917000	0,5	2,722600
11,925333	0,5	2,733200
11,933667	0,5	2,736300
11,942000	0,5	2,738550
11,950333	0,5	2,733850
11,958667	0,5	2,732350
11,967000	0,5	2,728900
11,975333	0,5	2,725050
11,983667	0,5	2,718500
11,992000	0,5	2,724650
12,000333	0,5	2,718950
12,008667	0,5	2,719300
12,017000	0,5	2,714650
12,025333	0,5	2,715100
12,033667	0,5	2,720200
12,042000	0,5	2,725100
12,050333	0,5	2,723100
12,058667	0,5	2,719550
12,067000	0,5	2,719650
12,075333	0,5	2,723850
12,083667	0,5	2,728300
12,092000	0,5	2,731450
12,100333	0,5	2,736750
12,108667	0,5	2,738700
12,117000	0,5	2,740850
12,125333	0,5	2,730900
12,133667	0,5	2,726000
12,142000	0,5	2,723650
12,150333	0,5	2,715500
12,158667	0,5	2,705900
12,167000	0,5	2,699450
12,175333	0,5	2,695900
12,183667	0,5	2,697750
12,192000	0,5	2,698300
12,200333	0,5	2,698450
12,208667	0,5	2,691450
12,217000	0,5	2,682950
12,225333	0,5	2,674350
12,233667	0,5	2,671050
12,242000	0,5	2,665850
12,250333	0,5	2,668050
12,258667	0,5	2,679100
12,267000	0,5	2,679150
12,275333	0,5	2,682100
12,283667	0,5	2,685850
12,292000	0,5	2,687300
12,300333	0,5	2,677000
12,308667	0,5	2,666100
12,317000	0,5	2,658850
12,325333	0,5	2,661300
12,333667	0,5	2,668500
12,342000	0,5	2,678300
12,350333	0,5	2,684700
12,358667	0,5	2,687800
12,367000	0,5	2,687300
12,375333	0,5	2,688450
12,383667	0,5	2,689850
12,392000	0,5	2,694200
12,400333	0,5	2,704500
12,408667	0,5	2,718600
12,417000	0,5	2,721500
12,425333	0,5	2,731050
12,433667	0,5	2,750350
12,442000	0,5	2,771600
12,450333	0,5	2,800750
12,458667	0,5	2,832000
12,467000	0,5	2,881750
12,475333	0,5	2,946200
12,483667	0,5	3,019400
12,492000	0,5	3,100300
12,500333	0,5	3,183300
12,508667	0,5	3,271350
12,517000	0,5	3,363200
12,525333	0,5	3,463700
12,533667	0,5	3,565200
12,542000	0,5	3,668400
12,550333	0,5	3,771250
12,558667	0,5	3,872600
12,567000	0,5	3,965200
12,575333	0,5	4,063750
12,583667	0,5	4,148300
12,592000	0,5	4,209700
12,600333	0,5	4,251600
12,608667	0,5	4,263300
12,617000	0,5	4,258400
12,625333	0,5	4,230000
12,633667	0,5	4,176900
12,642000	0,5	4,122000
12,650333	0,5	4,043700
12,658667	0,5	3,948550
12,667000	0,5	3,822450
12,675333	0,5	3,679700
12,683667	0,5	3,532200
12,692000	0,5	3,405900
12,700333	0,5	3,316600
12,708667	0,5	3,281450
12,717000	0,5	3,281400
12,725333	0,5	3,335600
12,733667	0,5	3,391600
12,742000	0,5	3,429600
12,750333	0,5	3,423250
12,758667	0,5	3,386750
12,767000	0,5	3,373000
12,775333	0,5	3,288850
12,783667	0,5	3,117750
12,792000	0,5	2,949250
12,800333	0,5	2,784800
12,808667	0,5	2,626100
12,817000	0,5	2,397000
12,825333	0,5	2,098150
12,833667	0,5	1,808050
12,842000	0,5	1,461350
12,850333	0,5	1,175450
12,858667	0,5	0,955500
12,867000	0,5	0,791050
12,875333	0,5	0,684500
12,883667	0,5	0,602550
12,892000	0,5	0,544800
12,900333	0,5	0,505100
12,908667	0,5	0,471550
12,917000	0,5	0,452350
12,925333	0,5	0,428550
12,933667	0,5	0,406250
12,942000	0,5	0,383550
12,950333	0,5	0,354350
12,958667	0,5	0,325400
12,967000	0,5	0,290400
12,975333	0,5	0,259250
12,983667	0,5	0,220800
12,992000	0,5	0,192800
13,000333	0,5	0,165700
13,008667	0,5	0,141200
13,017000	0,5	0,128850
13,025333	0,5	0,124450
13,033667	0,5	0,117250
13,042000	0,5	0,114050
13,050333	0,5	0,108850
13,058667	0,5	0,114300
13,067000	0,5	0,123300
13,075333	0,5	0,133700
13,083667	0,5	0,132850
13,092000	0,5	0,131500
13,100333	0,5	0,124600
13,108667	0,5	0,116050
13,117000	0,5	0,103700
13,125333	0,5	0,085100
13,133667	0,5	0,070650
13,142000	0,5	0,053200
13,150333	0,5	0,041950
13,158667	0,5	0,023300
13,167000	0,5	0,017650
13,175333	0,5	0,013850
13,183667	0,5	0,002100
13,192000	0,5	-0,009700
13,200333	0,5	-0,017750
13,208667	0,5	-0,026850
13,217000	0,5	-0,024200
13,225333	0,5	-0,026400
13,233667	0,5	-0,025950
13,242000	0,5	-0,034850
13,250333	0,5	-0,039600
13,258667	0,5	-0,051300
13,267000	0,5	-0,061300
13,275333	0,5	-0,071750
13,283667	0,5	-0,078850
13,292000	0,5	-0,086150
13,300333	0,5	-0,094800
13,308667	0,5	-0,100050
13,317000	0,5	-0,097750
13,325333	0,5	-0,100800
13,333667	0,5	-0,110750
13,342000	0,5	-0,121200
13,350333	0,5	-0,131350
13,358667	0,5	-0,128200
13,367000	0,5	-0,133600
13,375333	0,5	-0,128200
13,383667	0,5	-0,131650
13,392000	0,5	-0,130300
13,400333	0,5	-0,132700
13,408667	0,5	-0,130050
13,417000	0,5	-0,133550
13,425333	0,5	-0,136050
13,433667	0,5	-0,137100
13,442000	0,5	-0,136300
13,450333	0,5	-0,147950
13,458667	0,5	-0,144050
13,467000	0,5	-0,143900
13,475333	0,5	-0,148350
13,483667	0,5	-0,155750
13,492000	0,5	-0,167650
13,500333	0,5	-0,168750
13,508667	0,5	-0,172500
13,517000	0,5	-0,174700
13,525333	0,5	-0,179200
13,533667	0,5	-0,181400
13,542000	0,5	-0,182000
13,550333	0,5	-0,183050
13,558667	0,5	-0,190200
13,567000	0,5	-0,191050
13,575333	0,5	-0,192900
13,583667	0,5	-0,196700
13,592000	0,5	-0,197550
13,600333	0,5	-0,207800
13,608667	0,5	-0,198400
13,617000	0,5	-0,196400
13,625333	0,5	-0,200950
13,633667	0,5	-0,206650
13,642000	0,5	-0,215950
13,650333	0,5	-0,215050
13,658667	0,5	-0,214050
13,667000	0,5	-0,213300
13,675333	0,5	-0,211250
13,683667	0,5	-0,209950
13,692000	0,5	-0,207200
13,700333	0,5	-0,208750
13,708667	0,5	-0,204550
13,717000	0,5	-0,211150
13,725333	0,5	-0,209900
13,733667	0,5	-0,210400
13,742000	0,5	-0,202900
13,750333	0,5	-0,217050
13,758667	0,5	-0,205350
13,767000	0,5	-0,207050
13,775333	0,5	-0,208350
13,783667	0,5	-0,208150
13,792000	0,5	-0,218800
13,800333	0,5	-0,207850
13,808667	0,5	-0,200750
13,817000	0,5	-0,196950
13,825333	0,5	-0,191200
13,833667	0,5	-0,185800
13,842000	0,5	-0,181350
13,850333	0,5	-0,173250
13,858667	0,5	-0,171400
13,867000	0,5	-0,165050
13,875333	0,5	-0,166550
13,883667	0,5	-0,158100
13,892000	0,5	-0,163700
13,900333	0,5	-0,162700
13,908667	0,5	-0,148850
13,917000	0,5	-0,138800
13,925333	0,5	-0,129500
13,933667	0,5	-0,124600
13,942000	0,5	-0,121500
13,950333	0,5	-0,106050
13,958667	0,5	-0,103050
13,967000	0,5	-0,097250
13,975333	0,5	-0,095550
13,983667	0,5	-0,090050
13,992000	0,5	-0,091650
14,000333	0,5	-0,089600
14,008667	0,5	-0,084400
14,017000	0,5	-0,084150
14,025333	0,5	-0,071100
14,033667	0,5	-0,069550
14,042000	0,5	-0,074750
14,050333	0,5	-0,069750
14,058667	0,5	-0,067300
14,067000	0,5	-0,075500
14,075333	0,5	-0,081700
14,083667	0,5	-0,095850
14,092000	0,5	-0,094850
14,100333	0,5	-0,092400
14,108667	0,5	-0,081600
14,117000	0,5	-0,081350
14,125333	0,5	-0,076500
14,133667	0,5	-0,074250
14,142000	0,5	-0,068100
14,150333	0,5	-0,063650
14,158667	0,5	-0,056400
14,167000	0,5	-0,050750
14,175333	0,5	-0,041350
14,183667	0,5	-0,039050
14,192000	0,5	-0,032900
14,200333	0,5	-0,022800
14,208667	0,5	-0,014600
14,217000	0,5	-0,011250
14,225333	0,5	-0,014450
14,233667	0,5	-0,010000
14,242000	0,5	-0,008900
14,250333	0,5	0,004000
14,258667	0,5	0,012050
14,267000	0,5	0,028300
14,275333	0,5	0,031450
14,283667	0,5	0,043750
14,292000	0,5	0,051200
14,300333	0,5	0,061950
14,308667	0,5	0,067850
14,317000	0,5	0,075500
14,325333	0,5	0,085550
14,333667	0,5	0,085850
14,342000	0,5	0,097600
14,350333	0,5	0,115150
14,358667	0,5	0,128100
14,367000	0,5	0,133550
14,375333	0,5	0,135300
14,383667	0,5	0,142550
14,392000	0,5	0,164000
14,400333	0,5	0,171750
14,408667	0,5	0,191500
14,417000	0,5	0,202750
14,425333	0,5	0,221550
14,433667	0,5	0,238400
14,442000	0,5	0,262950
14,450333	0,5	0,286200
14,458667	0,5	0,315850
14,467000	0,5	0,356500
14,475333	0,5	0,402050
14,483667	0,5	0,427100
14,492000	0,5	0,483850
14,500333	0,5	0,525400
14,508667	0,5	0,559100
14,517000	0,5	0,578300
14,525333	0,5	0,577600
14,533667	0,5	0,588800
14,542000	0,5	0,596750
14,550333	0,5	0,600800
14,558667	0,5	0,605600
14,567000	0,5	0,613350
14,575333	0,5	0,628800
14,583667	0,5	0,663000
14,592000	0,5	0,696550
14,600333	0,5	0,741500
14,608667	0,5	0,776500
14,617000	0,5	0,823300
14,625333	0,5	0,872600
14,633667	0,5	0,924000
14,642000	0,5	1,009150
14,650333	0,5	1,089450
14,658667	0,5	1,165350
14,667000	0,5	1,224850
14,675333	0,5	1,251850
14,683667	0,5	1,284050
14,692000	0,5	1,297150
14,700333	0,5	1,311100
14,708667	0,5	1,335950
14,717000	0,5	1,386850
14,725333	0,5	1,467500
14,733667	0,5	1,563800
14,742000	0,5	1,662050
14,750333	0,5	1,736800
14,758667	0,5	1,777250
14,767000	0,5	1,775200
14,775333	0,5	1,729500
14,783667	0,5	1,640200
14,792000	0,5	1,562700
14,800333	0,5	1,469350
14,808667	0,5	1,397850
14,817000	0,5	1,335500
14,825333	0,5	1,295950
14,833667	0,5	1,288400
14,842000	0,5	1,296100
14,850333	0,5	1,303800
14,858667	0,5	1,310750
14,867000	0,5	1,302300
14,875333	0,5	1,273400
14,883667	0,5	1,225900
14,892000	0,5	1,175550
14,900333	0,5	1,127250
14,908667	0,5	1,093250
14,917000	0,5	1,070900
14,925333	0,5	1,047800
14,933667	0,5	1,037050
14,942000	0,5	1,037500
14,950333	0,5	1,034050
14,958667	0,5	1,022350
14,967000	0,5	1,010150
14,975333	0,5	0,992200
14,983667	0,5	0,994900
14,992000	0,5	0,979800
15,000333	0,5	0,975600
15,008667	0,5	0,967400
15,017000	0,5	0,961850
15,025333	0,5	0,955600
15,033667	0,5	0,947500
15,042000	0,5	0,938050
15,050333	0,5	0,930500
15,058667	0,5	0,932800
15,067000	0,5	0,922100
15,075333	0,5	0,901550
15,083667	0,5	0,896450
15,092000	0,5	0,890250
15,100333	0,5	0,875150
15,108667	0,5	0,862000
15,117000	0,5	0,840900
15,125333	0,5	0,831650
15,133667	0,5	0,825550
15,142000	0,5	0,825750
15,150333	0,5	0,815800
15,158667	0,5	0,816450
15,167000	0,5	0,805550
15,175333	0,5	0,806400
15,183667	0,5	0,800600
15,192000	0,5	0,795850
15,200333	0,5	0,794600
15,208667	0,5	0,795700
15,217000	0,5	0,788100
15,225333	0,5	0,781900
15,233667	0,5	0,784400
15,242000	0,5	0,781600
15,250333	0,5	0,779450
15,258667	0,5	0,766600
15,267000	0,5	0,760300
15,275333	0,5	0,756450
15,283667	0,5	0,759450
15,292000	0,5	0,758550
15,300333	0,5	0,764950
15,308667	0,5	0,767700
15,317000	0,5	0,773750
15,325333	0,5	0,776250
15,333667	0,5	0,784650
15,342000	0,5	0,782950
15,350333	0,5	0,794300
15,358667	0,5	0,797650
15,367000	0,5	0,783100
15,375333	0,5	0,778450
15,383667	0,5	0,781400
15,392000	0,5	0,774550
15,400333	0,5	0,768200
15,408667	0,5	0,748100
15,417000	0,5	0,745300
15,425333	0,5	0,744750
15,433667	0,5	0,728600
15,442000	0,5	0,716550
15,450333	0,5	0,699950
15,458667	0,5	0,686300
15,467000	0,5	0,670750
15,475333	0,5	0,664750
15,483667	0,5	0,652900
15,492000	0,5	0,649350
15,500333	0,5	0,655150
15,508667	0,5	0,661700
15,517000	0,5	0,643200
15,525333	0,5	0,663000
15,533667	0,5	0,668950
15,542000	0,5	0,675500
15,550333	0,5	0,663550
15,558667	0,5	0,642250
15,567000	0,5	0,634250
15,575333	0,5	0,617000
15,583667	0,5	0,604150
15,592000	0,5	0,593800
15,600333	0,5	0,585400
15,608667	0,5	0,580100
15,617000	0,5	0,581800
15,625333	0,5	0,576000
15,633667	0,5	0,578100
15,642000	0,5	0,574150
15,650333	0,5	0,584850
15,658667	0,5	0,579450
15,667000	0,5	0,565000
15,675333	0,5	0,573900
15,683667	0,5	0,575100
15,692000	0,5	0,567700
15,700333	0,5	0,563550
15,708667	0,5	0,548050
15,717000	0,5	0,558100
15,725333	0,5	0,555850
15,733667	0,5	0,559700
15,742000	0,5	0,558900
15,750333	0,5	0,560200
15,758667	0,5	0,560500
15,767000	0,5	0,558150
15,775333	0,5	0,553150
15,783667	0,5	0,542250
15,792000	0,5	0,540800
15,800333	0,5	0,538350
15,808667	0,5	0,531650
15,817000	0,5	0,521200
15,825333	0,5	0,531450
15,833667	0,5	0,533050
15,842000	0,5	0,529200
15,850333	0,5	0,514500
15,858667	0,5	0,497200
15,867000	0,5	0,487400
15,875333	0,5	0,484650
15,883667	0,5	0,465800
15,892000	0,5	0,456600
15,900333	0,5	0,447250
15,908667	0,5	0,438900
15,917000	0,5	0,436850
15,925333	0,5	0,437200
15,933667	0,5	0,436050
15,942000	0,5	0,440800
15,950333	0,5	0,440850
15,958667	0,5	0,427150
15,967000	0,5	0,428300
15,975333	0,5	0,432950
15,983667	0,5	0,425300
15,992000	0,5	0,407500
16,000333	0,5	0,390700
16,008667	0,5	0,372550
16,017000	0,5	0,370950
16,025333	0,5	0,359550
16,033667	0,5	0,360750
16,042000	0,5	0,354200
16,050333	0,5	0,354650
16,058667	0,5	0,352000
16,067000	0,5	0,348400
16,075333	0,5	0,341400
16,083667	0,5	0,331900
16,092000	0,5	0,328000
16,100333	0,5	0,317650
16,108667	0,5	0,305850
16,117000	0,5	0,310950
16,125333	0,5	0,310550
16,133667	0,5	0,297300
16,142000	0,5	0,281000
16,150333	0,5	0,264200
16,158667	0,5	0,261200
16,167000	0,5	0,256550
16,175333	0,5	0,258350
16,183667	0,5	0,250900
16,192000	0,5	0,249600
16,200333	0,5	0,241600
16,208667	0,5	0,245050
16,217000	0,5	0,235300
16,225333	0,5	0,235200
16,233667	0,5	0,233650
16,242000	0,5	0,234850
16,250333	0,5	0,210500
16,258667	0,5	0,209550
16,267000	0,5	0,211450
16,275333	0,5	0,204100
16,283667	0,5	0,197550
16,292000	0,5	0,178000
16,300333	0,5	0,173250
16,308667	0,5	0,165150
16,317000	0,5	0,165750
16,325333	0,5	0,158700
16,333667	0,5	0,155650
16,342000	0,5	0,152400
16,350333	0,5	0,153350
16,358667	0,5	0,148350
16,367000	0,5	0,149700
16,375333	0,5	0,142000
16,383667	0,5	0,146200
16,392000	0,5	0,145150
16,400333	0,5	0,128200
16,408667	0,5	0,134750
16,417000	0,5	0,137700
16,425333	0,5	0,123550
16,433667	0,5	0,115000
16,442000	0,5	0,091600
16,450333	0,5	0,091100
16,458667	0,5	0,087350
16,467000	0,5	0,086250
16,475333	0,5	0,079500
16,483667	0,5	0,075650
16,492000	0,5	0,075200
16,500333	0,5	0,070600
16,508667	0,5	0,073200
16,517000	0,5	0,063400
16,525333	0,5	0,064800
16,533667	0,5	0,061850
16,542000	0,5	0,060000
16,550333	0,5	0,043700
16,558667	0,5	0,058400
16,567000	0,5	0,052900
16,575333	0,5	0,044650
16,583667	0,5	0,028050
16,592000	0,5	0,009050
16,600333	0,5	0,018150
16,608667	0,5	0,016850
16,617000	0,5	0,008900
16,625333	0,5	0,004900
16,633667	0,5	0,004200
16,642000	0,5	0,002700
16,650333	0,5	0,001300
16,658667	0,5	-0,001000
16,667000	0,5	-0,003900
16,675333	0,5	-0,010700
16,683667	0,5	-0,008600
16,692000	0,5	-0,016350
16,700333	0,5	-0,024000
16,708667	0,5	-0,016300
16,717000	0,5	-0,017900
16,725333	0,5	-0,030400
16,733667	0,5	-0,042900
16,742000	0,5	-0,058250
16,750333	0,5	-0,051950
16,758667	0,5	-0,056800
16,767000	0,5	-0,057400
16,775333	0,5	-0,065900
16,783667	0,5	-0,065350
16,792000	0,5	-0,068450
16,800333	0,5	-0,066900
16,808667	0,5	-0,073200
16,817000	0,5	-0,078900
16,825333	0,5	-0,077400
16,833667	0,5	-0,077050
16,842000	0,5	-0,081950
16,850333	0,5	-0,080250
16,858667	0,5	-0,074650
16,867000	0,5	-0,080900
16,875333	0,5	-0,088100
16,883667	0,5	-0,102250
16,892000	0,5	-0,106450
16,900333	0,5	-0,111900
16,908667	0,5	-0,105500
16,917000	0,5	-0,114000
16,925333	0,5	-0,112800
16,933667	0,5	-0,119900
16,942000	0,5	-0,124100
16,950333	0,5	-0,129450
16,958667	0,5	-0,136900
16,967000	0,5	-0,136500
16,975333	0,5	-0,141800
16,983667	0,5	-0,149900
16,992000	0,5	-0,161250
17,000333	0,5	-0,155500
17,008667	0,5	-0,160650
17,017000	0,5	-0,163200
17,025333	0,5	-0,182250
17,033667	0,5	-0,194600
17,042000	0,5	-0,202350
17,050333	0,5	-0,200300
17,058667	0,5	-0,207400
17,067000	0,5	-0,208100
17,075333	0,5	-0,214550
17,083667	0,5	-0,206550
17,092000	0,5	-0,213750
17,100333	0,5	-0,215700
17,108667	0,5	-0,217700
17,117000	0,5	-0,216850
17,125333	0,5	-0,212200
17,133667	0,5	-0,224700
17,142000	0,5	-0,225400
17,150333	0,5	-0,217550
17,158667	0,5	-0,224350
17,167000	0,5	-0,232150
17,175333	0,5	-0,249000
17,183667	0,5	-0,257950
17,192000	0,5	-0,257200
17,200333	0,5	-0,254950
17,208667	0,5	-0,250650
17,217000	0,5	-0,257850
17,225333	0,5	-0,252200
17,233667	0,5	-0,258800
17,242000	0,5	-0,251550
17,250333	0,5	-0,253400
17,258667	0,5	-0,251050
17,267000	0,5	-0,240550
17,275333	0,5	-0,233800
17,283667	0,5	-0,254500
17,292000	0,5	-0,242500
17,300333	0,5	-0,236800
17,308667	0,5	-0,234750
17,317000	0,5	-0,234200
17,325333	0,5	-0,247200
17,333667	0,5	-0,236950
17,342000	0,5	-0,233700
17,350333	0,5	-0,222800
17,358667	0,5	-0,219250
17,367000	0,5	-0,206000
17,375333	0,5	-0,202200
17,383667	0,5	-0,189850
17,392000	0,5	-0,180050
17,400333	0,5	-0,172450
17,408667	0,5	-0,161150
17,417000	0,5	-0,144550
17,425333	0,5	-0,137500
17,433667	0,5	-0,139400
17,442000	0,5	-0,117700
17,450333	0,5	-0,102100
17,458667	0,5	-0,100700
17,467000	0,5	-0,098750
17,475333	0,5	-0,107600
17,483667	0,5	-0,091250
17,492000	0,5	-0,080400
17,500333	0,5	-0,072750
17,508667	0,5	-0,062400
17,517000	0,5	-0,058900
17,525333	0,5	-0,048800
17,533667	0,5	-0,045250
17,542000	0,5	-0,030650
17,550333	0,5	-0,034050
17,558667	0,5	-0,024250
17,567000	0,5	-0,020050
17,575333	0,5	-0,015750
17,583667	0,5	-0,021750
17,592000	0,5	-0,008500
17,600333	0,5	-0,008800
17,608667	0,5	-0,012050
17,617000	0,5	-0,024250
17,625333	0,5	-0,035300
17,633667	0,5	-0,029300
17,642000	0,5	-0,024400
17,650333	0,5	-0,027600
17,658667	0,5	-0,030250
17,667000	0,5	-0,033750
17,675333	0,5	-0,040900
17,683667	0,5	-0,038600
17,692000	0,5	-0,044350
17,700333	0,5	-0,046000
17,708667	0,5	-0,048550
17,717000	0,5	-0,045400
17,725333	0,5	-0,067300
17,733667	0,5	-0,065150
17,742000	0,5	-0,065750
17,750333	0,5	-0,073200
17,758667	0,5	-0,092250
17,767000	0,5	-0,111600
17,775333	0,5	-0,120300
17,783667	0,5	-0,124600
17,792000	0,5	-0,132650
17,800333	0,5	-0,132700
17,808667	0,5	-0,143400
17,817000	0,5	-0,148200
17,825333	0,5	-0,150150
17,833667	0,5	-0,156800
17,842000	0,5	-0,164650
17,850333	0,5	-0,174400
17,858667	0,5	-0,167350
17,867000	0,5	-0,176750
17,875333	0,5	-0,192750
17,883667	0,5	-0,192750
17,892000	0,5	-0,199350
17,900333	0,5	-0,210650
17,908667	0,5	-0,226950
17,917000	0,5	-0,250150
17,925333	0,5	-0,254000
17,933667	0,5	-0,261500
17,942000	0,5	-0,263350
17,950333	0,5	-0,272800
17,958667	0,5	-0,279200
17,967000	0,5	-0,287450
17,975333	0,5	-0,290500
17,983667	0,5	-0,299350
17,992000	0,5	-0,307150
18,000333	0,5	-0,308650
18,008667	0,5	-0,308050
18,017000	0,5	-0,327000
18,025333	0,5	-0,333750
18,033667	0,5	-0,333850
18,042000	0,5	-0,345900
18,050333	0,5	-0,356100
18,058667	0,5	-0,381750
18,067000	0,5	-0,396900
18,075333	0,5	-0,406850
18,083667	0,5	-0,403850
18,092000	0,5	-0,412900
18,100333	0,5	-0,418250
18,108667	0,5	-0,427600
18,117000	0,5	-0,427650
18,125333	0,5	-0,434700
18,133667	0,5	-0,438600
18,142000	0,5	-0,451200
18,150333	0,5	-0,446700
18,158667	0,5	-0,453200
18,167000	0,5	-0,477200
18,175333	0,5	-0,476650
18,183667	0,5	-0,477200
18,192000	0,5	-0,486250
18,200333	0,5	-0,503400
18,208667	0,5	-0,525250
18,217000	0,5	-0,534000
18,225333	0,5	-0,532950
18,233667	0,5	-0,548850
18,242000	0,5	-0,552300
18,250333	0,5	-0,561450
18,258667	0,5	-0,567350
18,267000	0,5	-0,574150
18,275333	0,5	-0,579200
18,283667	0,5	-0,585450
18,292000	0,5	-0,590550
18,300333	0,5	-0,588500
18,308667	0,5	-0,596050
18,317000	0,5	-0,618950
18,325333	0,5	-0,612500
18,333667	0,5	-0,616300
18,342000	0,5	-0,630250
18,350333	0,5	-0,647800
18,358667	0,5	-0,665550
18,367000	0,5	-0,659800
18,375333	0,5	-0,672500
18,383667	0,5	-0,678450
18,392000	0,5	-0,691350
18,400333	0,5	-0,690350
18,408667	0,5	-0,700300
18,417000	0,5	-0,696650
18,425333	0,5	-0,706200
18,433667	0,5	-0,711700
18,442000	0,5	-0,715250
18,450333	0,5	-0,704350
18,458667	0,5	-0,723950
18,467000	0,5	-0,730200
18,475333	0,5	-0,728950
18,483667	0,5	-0,735050
18,492000	0,5	-0,747750
18,500333	0,5	-0,764400
18,508667	0,5	-0,774500
18,517000	0,5	-0,773950
18,525333	0,5	-0,780800
18,533667	0,5	-0,784000
18,542000	0,5	-0,786950
18,550333	0,5	-0,790300
18,558667	0,5	-0,789050
18,567000	0,5	-0,798700
18,575333	0,5	-0,796150
18,583667	0,5	-0,802650
18,592000	0,5	-0,800200
18,600333	0,5	-0,795800
18,608667	0,5	-0,805700
18,617000	0,5	-0,805600
18,625333	0,5	-0,803500
18,633667	0,5	-0,804450
18,642000	0,5	-0,818000
18,650333	0,5	-0,838150
18,658667	0,5	-0,841850
18,667000	0,5	-0,841900
18,675333	0,5	-0,845700
18,683667	0,5	-0,851000
18,692000	0,5	-0,852000
18,700333	0,5	-0,856850
18,708667	0,5	-0,861300
18,717000	0,5	-0,862100
18,725333	0,5	-0,867600
18,733667	0,5	-0,866050
18,742000	0,5	-0,868400
18,750333	0,5	-0,870350
18,758667	0,5	-0,885150
18,767000	0,5	-0,872100
18,775333	0,5	-0,876100
18,783667	0,5	-0,878200
18,792000	0,5	-0,895100
18,800333	0,5	-0,912650
18,808667	0,5	-0,917150
18,817000	0,5	-0,915000
18,825333	0,5	-0,917950
18,833667	0,5	-0,917900
18,842000	0,5	-0,915600
18,850333	0,5	-0,915300
18,858667	0,5	-0,913700
18,867000	0,5	-0,921500
18,875333	0,5	-0,919800
18,883667	0,5	-0,924300
18,892000	0,5	-0,914800
18,900333	0,5	-0,926200
18,908667	0,5	-0,928900
18,917000	0,5	-0,925700
18,925333	0,5	-0,928700
18,933667	0,5	-0,940550
18,942000	0,5	-0,952850
18,950333	0,5	-0,966800
18,958667	0,5	-0,960150
18,967000	0,5	-0,962450
18,975333	0,5	-0,953450
18,983667	0,5	-0,963000
18,992000	0,5	-0,958650
19,000333	0,5	-0,961050
19,008667	0,5	-0,954500
19,017000	0,5	-0,949550
19,025333	0,5	-0,956150
19,033667	0,5	-0,944400
19,042000	0,5	-0,949900
19,050333	0,5	-0,970200
19,058667	0,5	-0,969600
19,067000	0,5	-0,969600
19,075333	0,5	-0,985850
19,083667	0,5	-0,994650
19,092000	0,5	-1,024300
19,100333	0,5	-1,024750
19,108667	0,5	-1,036350
19,117000	0,5	-1,034650
19,125333	0,5	-1,045350
19,133667	0,5	-1,048150
19,142000	0,5	-1,055800
19,150333	0,5	-1,066800
19,158667	0,5	-1,070750
19,167000	0,5	-1,078750
19,175333	0,5	-1,082600
19,183667	0,5	-1,087200
19,192000	0,5	-1,102550
19,200333	0,5	-1,116950
19,208667	0,5	-1,108700
19,217000	0,5	-1,112250
19,225333	0,5	-1,120950
19,233667	0,5	-1,146000
19,242000	0,5	-1,154950
19,250333	0,5	-1,163400
19,258667	0,5	-1,154600
19,267000	0,5	-1,170300
19,275333	0,5	-1,165800
19,283667	0,5	-1,173400
19,292000	0,5	-1,177800
19,300333	0,5	-1,180400
19,308667	0,5	-1,181550
19,317000	0,5	-1,181250
19,325333	0,5	-1,178550
19,333667	0,5	-1,165200
19,342000	0,5	-1,175400
19,350333	0,5	-1,163850
19,358667	0,5	-1,145750
19,367000	0,5	-1,138100
19,375333	0,5	-1,138000
19,383667	0,5	-1,144550
19,392000	0,5	-1,144900
19,400333	0,5	-1,136400
19,408667	0,5	-1,159250
19,417000	0,5	-1,171700
19,425333	0,5	-1,201750
19,433667	0,5	-1,218300
19,442000	0,5	-1,238750
19,450333	0,5	-1,247000
19,458667	0,5	-1,257850
19,467000	0,5	-1,270700
19,475333	0,5	-1,271450
19,483667	0,5	-1,269550
19,492000	0,5	-1,293000
19,500333	0,5	-1,276600
19,508667	0,5	-1,282850
19,517000	0,5	-1,287250
19,525333	0,5	-1,295550
19,533667	0,5	-1,325100
19,542000	0,5	-1,316400
19,550333	0,5	-1,324750
19,558667	0,5	-1,323600
19,567000	0,5	-1,336400
19,575333	0,5	-1,331500
19,583667	0,5	-1,336300
19,592000	0,5	-1,336200
19,600333	0,5	-1,339700
19,608667	0,5	-1,341100
19,617000	0,5	-1,337450
19,625333	0,5	-1,326950
19,633667	0,5	-1,325750
19,642000	0,5	-1,322100
19,650333	0,5	-1,303100
19,658667	0,5	-1,290900
19,667000	0,5	-1,287850
19,675333	0,5	-1,284450
19,683667	0,5	-1,287000
19,692000	0,5	-1,274300
19,700333	0,5	-1,257600
19,708667	0,5	-1,249750
19,717000	0,5	-1,229250
19,725333	0,5	-1,218400
19,733667	0,5	-1,201900
19,742000	0,5	-1,204100
19,750333	0,5	-1,215150
19,758667	0,5	-1,254700
19,767000	0,5	-1,287250
19,775333	0,5	-1,323550
19,783667	0,5	-1,366850
19,792000	0,5	-1,396800
19,800333	0,5	-1,407200
19,808667	0,5	-1,426600
19,817000	0,5	-1,436850
19,825333	0,5	-1,460550
19,833667	0,5	-1,473500
19,842000	0,5	-1,465050
19,850333	0,5	-1,469650
19,858667	0,5	-1,467350
19,867000	0,5	-1,472850
19,875333	0,5	-1,473000
19,883667	0,5	-1,476600
19,892000	0,5	-1,467200
19,900333	0,5	-1,469700
19,908667	0,5	-1,458150
19,917000	0,5	-1,441400
19,925333	0,5	-1,419900
19,933667	0,5	-1,415700
19,942000	0,5	-1,375750
19,950333	0,5	-1,361150
19,958667	0,5	-1,364250
19,967000	0,5	-1,399000
19,975333	0,5	-1,440650
19,983667	0,5	-1,472700
19,992000	0,5	-1,505700
20,000333	0,5	-1,529100
20,008667	0,5	-1,548650
20,017000	0,5	-1,561650
20,025333	0,5	-1,575850
20,033667	0,5	-1,581450
20,042000	0,5	-1,592250
20,050333	0,5	-1,600000
20,058667	0,5	-1,600150
20,067000	0,5	-1,588650
20,075333	0,5	-1,612600
20,083667	0,5	-1,612300
20,092000	0,5	-1,609750
20,100333	0,5	-1,609100
20,108667	0,5	-1,619250
20,117000	0,5	-1,633000
20,125333	0,5	-1,633450
20,133667	0,5	-1,625350
20,142000	0,5	-1,614650
20,150333	0,5	-1,597450
20,158667	0,5	-1,573600
20,167000	0,5	-1,546500
20,175333	0,5	-1,516500
20,183667	0,5	-1,493250
20,192000	0,5	-1,462750
20,200333	0,5	-1,436750
20,208667	0,5	-1,412000
20,217000	0,5	-1,415150
20,225333	0,5	-1,458600
20,233667	0,5	-1,501900
20,242000	0,5	-1,547400
20,250333	0,5	-1,599050
20,258667	0,5	-1,632400
20,267000	0,5	-1,671350
20,275333	0,5	-1,677750
20,283667	0,5	-1,679050
20,292000	0,5	-1,673700
20,300333	0,5	-1,673200
20,308667	0,5	-1,671950
20,317000	0,5	-1,673150
20,325333	0,5	-1,668050
20,333667	0,5	-1,659800
20,342000	0,5	-1,655000
20,350333	0,5	-1,633500
20,358667	0,5	-1,604050
20,367000	0,5	-1,583500
20,375333	0,5	-1,582350
20,383667	0,5	-1,562050
20,392000	0,5	-1,574000
20,400333	0,5	-1,599350
20,408667	0,5	-1,637350
20,417000	0,5	-1,665100
20,425333	0,5	-1,671750
20,433667	0,5	-1,674450
20,442000	0,5	-1,683350
20,450333	0,5	-1,684050
20,458667	0,5	-1,681850
20,467000	0,5	-1,677600
20,475333	0,5	-1,669700
20,483667	0,5	-1,665000
20,492000	0,5	-1,657850
20,500333	0,5	-1,642800
20,508667	0,5	-1,625750
20,517000	0,5	-1,624150
20,525333	0,5	-1,617650
20,533667	0,5	-1,605100
20,542000	0,5	-1,593400
20,550333	0,5	-1,589250
20,558667	0,5	-1,579750
20,567000	0,5	-1,559950
20,575333	0,5	-1,526600
20,583667	0,5	-1,513900
20,592000	0,5	-1,506900
20,600333	0,5	-1,519700
20,608667	0,5	-1,527850
20,617000	0,5	-1,545000
20,625333	0,5	-1,554950
20,633667	0,5	-1,566950
20,642000	0,5	-1,584050
20,650333	0,5	-1,573600
20,658667	0,5	-1,579550
20,667000	0,5	-1,594900
20,675333	0,5	-1,594550
20,683667	0,5	-1,600100
20,692000	0,5	-1,611050
20,700333	0,5	-1,632550
20,708667	0,5	-1,665500
20,717000	0,5	-1,676700
20,725333	0,5	-1,690050
20,733667	0,5	-1,690900
20,742000	0,5	-1,698500
20,750333	0,5	-1,698000
20,758667	0,5	-1,701450
20,767000	0,5	-1,697450
20,775333	0,5	-1,696250
20,783667	0,5	-1,695700
20,792000	0,5	-1,685650
20,800333	0,5	-1,666300
20,808667	0,5	-1,665850
20,817000	0,5	-1,669550
20,825333	0,5	-1,654700
20,833667	0,5	-1,655250
20,842000	0,5	-1,649300
20,850333	0,5	-1,666550
20,858667	0,5	-1,677750
20,867000	0,5	-1,691400
20,875333	0,5	-1,696600
20,883667	0,5	-1,702750
20,892000	0,5	-1,698000
20,900333	0,5	-1,696750
20,908667	0,5	-1,690800
20,917000	0,5	-1,687200
20,925333	0,5	-1,683900
20,933667	0,5	-1,683700
20,942000	0,5	-1,663850
20,950333	0,5	-1,651700
20,958667	0,5	-1,658750
20,967000	0,5	-1,658150
20,975333	0,5	-1,653000
20,983667	0,5	-1,660450
20,992000	0,5	-1,670000
21,000333	0,5	-1,678950
21,008667	0,5	-1,673500
21,017000	0,5	-1,660450
21,025333	0,5	-1,652700
21,033667	0,5	-1,648650
21,042000	0,5	-1,649150
21,050333	0,5	-1,648800
21,058667	0,5	-1,653450
21,067000	0,5	-1,652550
21,075333	0,5	-1,653350
21,083667	0,5	-1,653200
21,092000	0,5	-1,625350
21,100333	0,5	-1,617200
21,108667	0,5	-1,624050
21,117000	0,5	-1,626950
21,125333	0,5	-1,623800
21,133667	0,5	-1,637100
21,142000	0,5	-1,652200
21,150333	0,5	-1,656300
21,158667	0,5	-1,642250
21,167000	0,5	-1,645900
21,175333	0,5	-1,637650
21,183667	0,5	-1,641400
21,192000	0,5	-1,638800
21,200333	0,5	-1,641900
21,208667	0,5	-1,630700
21,217000	0,5	-1,628750
21,225333	0,5	-1,622800
21,233667	0,5	-1,596750
21,242000	0,5	-1,574650
21,250333	0,5	-1,568150
21,258667	0,5	-1,565550
21,267000	0,5	-1,565200
21,275333	0,5	-1,563550
21,283667	0,5	-1,572150
21,292000	0,5	-1,589900
21,300333	0,5	-1,571750
21,308667	0,5	-1,571250
21,317000	0,5	-1,558550
21,325333	0,5	-1,550850
21,333667	0,5	-1,541750
21,342000	0,5	-1,535450
21,350333	0,5	-1,523550
21,358667	0,5	-1,512350
21,367000	0,5	-1,503150
21,375333	0,5	-1,497300
21,383667	0,5	-1,458650
21,392000	0,5	-1,437300
21,400333	0,5	-1,443550
21,408667	0,5	-1,437250
21,417000	0,5	-1,440350
21,425333	0,5	-1,443750
21,433667	0,5	-1,451850
21,442000	0,5	-1,454250
21,450333	0,5	-1,443900
21,458667	0,5	-1,429400
21,467000	0,5	-1,423950
21,475333	0,5	-1,412150
21,483667	0,5	-1,404950
21,492000	0,5	-1,390450
21,500333	0,5	-1,378300
21,508667	0,5	-1,362550
21,517000	0,5	-1,353450
21,525333	0,5	-1,332600
21,533667	0,5	-1,301850
21,542000	0,5	-1,287000
21,550333	0,5	-1,286200
21,558667	0,5	-1,271800
21,567000	0,5	-1,261850
21,575333	0,5	-1,258000
21,583667	0,5	-1,248000
21,592000	0,5	-1,229950
21,600333	0,5	-1,188950
21,608667	0,5	-1,160300
21,617000	0,5	-1,119100
21,625333	0,5	-1,089100
21,633667	0,5	-1,059000
21,642000	0,5	-1,057700
21,650333	0,5	-1,057400
21,658667	0,5	-1,068100
21,667000	0,5	-1,070300
21,675333	0,5	-1,045550
21,683667	0,5	-1,030350
21,692000	0,5	-1,031200
21,700333	0,5	-1,015400
21,708667	0,5	-1,013850
21,717000	0,5	-1,011250
21,725333	0,5	-1,008700
21,733667	0,5	-1,006150
21,742000	0,5	-0,980850
21,750333	0,5	-0,969500
21,758667	0,5	-0,941850
21,767000	0,5	-0,921050
21,775333	0,5	-0,895450
21,783667	0,5	-0,871400
21,792000	0,5	-0,837550
21,800333	0,5	-0,814000
21,808667	0,5	-0,783250
21,817000	0,5	-0,743600
21,825333	0,5	-0,699350
21,833667	0,5	-0,680350
21,842000	0,5	-0,656950
21,850333	0,5	-0,624500
21,858667	0,5	-0,607000
21,867000	0,5	-0,578450
21,875333	0,5	-0,565450
21,883667	0,5	-0,533500
21,892000	0,5	-0,516450
21,900333	0,5	-0,489200
21,908667	0,5	-0,478500
21,917000	0,5	-0,451650
21,925333	0,5	-0,436900
21,933667	0,5	-0,408550
21,942000	0,5	-0,385250
21,950333	0,5	-0,362800
21,958667	0,5	-0,341350
21,967000	0,5	-0,301550
21,975333	0,5	-0,276200
21,983667	0,5	-0,258000
21,992000	0,5	-0,227850
22,000333	0,5	-0,197650
22,008667	0,5	-0,175400
22,017000	0,5	-0,155800
22,025333	0,5	-0,128950
22,033667	0,5	-0,092300
22,042000	0,5	-0,051550
22,050333	0,5	-0,019400
22,058667	0,5	0,017900
22,067000	0,5	0,047150
22,075333	0,5	0,087400
22,083667	0,5	0,118650
22,092000	0,5	0,157400
22,100333	0,5	0,193550
22,108667	0,5	0,239250
22,117000	0,5	0,289400
22,125333	0,5	0,319950
22,133667	0,5	0,369450
22,142000	0,5	0,424250
22,150333	0,5	0,466050
22,158667	0,5	0,511050
22,167000	0,5	0,549250
22,175333	0,5	0,602000
22,183667	0,5	0,668550
22,192000	0,5	0,713950
22,200333	0,5	0,773950
22,208667	0,5	0,827850
22,217000	0,5	0,886500
22,225333	0,5	0,933850
22,233667	0,5	0,989350
22,242000	0,5	1,032350
22,250333	0,5	1,081900
22,258667	0,5	1,133550
22,267000	0,5	1,187800
22,275333	0,5	1,222150
22,283667	0,5	1,297300
22,292000	0,5	1,350750
22,300333	0,5	1,404250
22,308667	0,5	1,451350
22,317000	0,5	1,483200
22,325333	0,5	1,546650
22,333667	0,5	1,593350
22,342000	0,5	1,650300
22,350333	0,5	1,699900
22,358667	0,5	1,762050
22,367000	0,5	1,813850
22,375333	0,5	1,877200
22,383667	0,5	1,933600
22,392000	0,5	1,997700
22,400333	0,5	2,050150
22,408667	0,5	2,098500
22,417000	0,5	2,163750
22,425333	0,5	2,250900
22,433667	0,5	2,333950
22,442000	0,5	2,406900
22,450333	0,5	2,479500
22,458667	0,5	2,547100
22,467000	0,5	2,623600
22,475333	0,5	2,705050
22,483667	0,5	2,793250
22,492000	0,5	2,870750
22,500333	0,5	2,953250
22,508667	0,5	3,031150
22,517000	0,5	3,116850
22,525333	0,5	3,198550
22,533667	0,5	3,282950
22,542000	0,5	3,367050
22,550333	0,5	3,410700
22,558667	0,5	3,491650
22,567000	0,5	3,579800
22,575333	0,5	3,666700
22,583667	0,5	3,738950
22,592000	0,5	3,795650
22,600333	0,5	3,844600
22,608667	0,5	3,883200
22,617000	0,5	3,925850
22,625333	0,5	3,981300
22,633667	0,5	4,011300
22,642000	0,5	4,052150
22,650333	0,5	4,075500
22,658667	0,5	4,103700
22,667000	0,5	4,113000
22,675333	0,5	4,118500
22,683667	0,5	4,110200
22,692000	0,5	4,093800
22,700333	0,5	4,021800
22,708667	0,5	4,010750
22,717000	0,5	3,990050
22,725333	0,5	3,958100
22,733667	0,5	3,911300
22,742000	0,5	3,851850
22,750333	0,5	3,775400
22,758667	0,5	3,687000
22,767000	0,5	3,595300
22,775333	0,5	3,481800
22,783667	0,5	3,360250
22,792000	0,5	3,222550
22,800333	0,5	3,083700
22,808667	0,5	2,938100
22,817000	0,5	2,785800
22,825333	0,5	2,630000
22,833667	0,5	2,468600
22,842000	0,5	2,288050
22,850333	0,5	2,087450
22,858667	0,5	1,923200
22,867000	0,5	1,767850
22,875333	0,5	1,578350
22,883667	0,5	1,392850
22,892000	0,5	1,208550
22,900333	0,5	1,031050
22,908667	0,5	0,846350
22,917000	0,5	0,668900
22,925333	0,5	0,495100
22,933667	0,5	0,326750
22,942000	0,5	0,157350
22,950333	0,5	0,002350
22,958667	0,5	-0,163550
22,967000	0,5	-0,318200
22,975333	0,5	-0,477200
22,983667	0,5	-0,621150
22,992000	0,5	-0,761350
23,000333	0,5	-0,909650
23,008667	0,5	-1,049700
23,017000	0,5	-1,215050
23,025333	0,5	-1,351900
23,033667	0,5	-1,463100
23,042000	0,5	-1,572100
23,050333	0,5	-1,675700
23,058667	0,5	-1,781450
23,067000	0,5	-1,873350
23,075333	0,5	-1,953050
23,083667	0,5	-2,028650
23,092000	0,5	-2,099450
23,100333	0,5	-2,172200
23,108667	0,5	-2,239050
23,117000	0,5	-2,304300
23,125333	0,5	-2,357450
23,133667	0,5	-2,403300
23,142000	0,5	-2,464450
23,150333	0,5	-2,503950
23,158667	0,5	-2,571400
23,167000	0,5	-2,640750
23,175333	0,5	-2,674650
23,183667	0,5	-2,706050
23,192000	0,5	-2,718000
23,200333	0,5	-2,738450
23,208667	0,5	-2,754350
23,217000	0,5	-2,758600
23,225333	0,5	-2,760550
23,233667	0,5	-2,754500
23,242000	0,5	-2,751350
23,250333	0,5	-2,748450
23,258667	0,5	-2,747600
23,267000	0,5	-2,739100
23,275333	0,5	-2,737850
23,283667	0,5	-2,738300
23,292000	0,5	-2,725250
23,300333	0,5	-2,709050
23,308667	0,5	-2,712700
23,317000	0,5	-2,729350
23,325333	0,5	-2,726800
23,333667	0,5	-2,705300
23,342000	0,5	-2,687900
23,350333	0,5	-2,667500
23,358667	0,5	-2,651200
23,367000	0,5	-2,621000
23,375333	0,5	-2,590850
23,383667	0,5	-2,559800
23,392000	0,5	-2,530600
23,400333	0,5	-2,498750
23,408667	0,5	-2,470200
23,417000	0,5	-2,440600
23,425333	0,5	-2,408400
23,433667	0,5	-2,454950
23,442000	0,5	-2,393700
23,450333	0,5	-2,340950
23,458667	0,5	-2,322150
23,467000	0,5	-2,321350
23,475333	0,5	-2,306150
23,483667	0,5	-2,289500
23,492000	0,5	-2,263400
23,500333	0,5	-2,252500
23,508667	0,5	-2,235050
23,517000	0,5	-2,220500
23,525333	0,5	-2,195850
23,533667	0,5	-2,179850
23,542000	0,5	-2,153050
23,550333	0,5	-2,135700
23,558667	0,5	-2,113150
23,567000	0,5	-2,094400
23,575333	0,5	-2,097550
23,583667	0,5	-2,159500
23,592000	0,5	-2,100650
23,600333	0,5	-2,044400
23,608667	0,5	-2,018500
23,617000	0,5	-2,013900
23,625333	0,5	-2,007150
23,633667	0,5	-2,000600
23,642000	0,5	-1,987950
23,650333	0,5	-1,983600
23,658667	0,5	-1,966350
23,667000	0,5	-1,961350
23,675333	0,5	-1,951100
23,683667	0,5	-1,941850
23,692000	0,5	-1,936100
23,700333	0,5	-1,925600
23,708667	0,5	-1,927250
23,717000	0,5	-1,922600
23,725333	0,5	-2,032850
23,733667	0,5	-2,036700
23,742000	0,5	-1,995150
23,750333	0,5	-1,943050
23,758667	0,5	-1,922300
23,767000	0,5	-1,923100
23,775333	0,5	-1,920450
23,783667	0,5	-1,921700
23,792000	0,5	-1,920100
23,800333	0,5	-1,908100
23,808667	0,5	-1,897400
23,817000	0,5	-1,885000
23,825333	0,5	-1,875150
23,833667	0,5	-1,866050
23,842000	0,5	-1,853900
23,850333	0,5	-1,843750
23,858667	0,5	-1,836850
23,867000	0,5	-1,840550
23,875333	0,5	-1,970200
23,883667	0,5	-1,938700
23,892000	0,5	-1,907900
23,900333	0,5	-1,849900
23,908667	0,5	-1,830650
23,917000	0,5	-1,829800
23,925333	0,5	-1,832300
23,933667	0,5	-1,841700
23,942000	0,5	-1,832200
23,950333	0,5	-1,823150
23,958667	0,5	-1,814650
23,967000	0,5	-1,808300
23,975333	0,5	-1,794750
23,983667	0,5	-1,787400
23,992000	0,5	-1,768150
24,000333	0,5	-1,758850
24,008667	0,5	-1,745950
24,017000	0,5	-1,811000
24,025333	0,5	-1,855550
24,033667	0,5	-1,834800
24,042000	0,5	-1,773750
24,050333	0,5	-1,731000
24,058667	0,5	-1,701950
24,067000	0,5	-1,689750
24,075333	0,5	-1,685650
24,083667	0,5	-1,680300
24,092000	0,5	-1,658150
24,100333	0,5	-1,643550
24,108667	0,5	-1,627050
24,117000	0,5	-1,615650
24,125333	0,5	-1,598150
24,133667	0,5	-1,585400
24,142000	0,5	-1,570750
24,150333	0,5	-1,556050
24,158667	0,5	-1,548350
24,167000	0,5	-1,651250
24,175333	0,5	-1,636850
24,183667	0,5	-1,609200
24,192000	0,5	-1,557900
24,200333	0,5	-1,521400
24,208667	0,5	-1,507750
24,217000	0,5	-1,500150
24,225333	0,5	-1,506500
24,233667	0,5	-1,491400
24,242000	0,5	-1,470200
24,250333	0,5	-1,448400
24,258667	0,5	-1,434650
24,267000	0,5	-1,411150
24,275333	0,5	-1,393350
24,283667	0,5	-1,373150
24,292000	0,5	-1,352400
24,300333	0,5	-1,335650
24,308667	0,5	-1,324150
24,317000	0,5	-1,422050
24,325333	0,5	-1,374350
24,333667	0,5	-1,349900
24,342000	0,5	-1,299000
24,350333	0,5	-1,277150
24,358667	0,5	-1,254550
24,367000	0,5	-1,252900
24,375333	0,5	-1,257600
24,383667	0,5	-1,248400
24,392000	0,5	-1,224950
24,400333	0,5	-1,215950
24,408667	0,5	-1,198350
24,417000	0,5	-1,189900
24,425333	0,5	-1,172550
24,433667	0,5	-1,158650
24,442000	0,5	-1,144500
24,450333	0,5	-1,129950
24,458667	0,5	-1,162300
24,467000	0,5	-1,186850
24,475333	0,5	-1,155950
24,483667	0,5	-1,125350
24,492000	0,5	-1,087000
24,500333	0,5	-1,066400
24,508667	0,5	-1,055300
24,517000	0,5	-1,048900
24,525333	0,5	-1,051150
24,533667	0,5	-1,029500
24,542000	0,5	-1,014300
24,550333	0,5	-0,993100
24,558667	0,5	-0,982550
24,567000	0,5	-0,966350
24,575333	0,5	-0,956500
24,583667	0,5	-0,940800
24,592000	0,5	-0,929050
24,600333	0,5	-0,920100
24,608667	0,5	-0,959050
24,617000	0,5	-0,955600
24,625333	0,5	-0,941600
24,633667	0,5	-0,912950
24,642000	0,5	-0,889900
24,650333	0,5	-0,879300
24,658667	0,5	-0,874800
24,667000	0,5	-0,877000
24,675333	0,5	-0,867650
24,683667	0,5	-0,862550
24,692000	0,5	-0,843900
24,700333	0,5	-0,834250
24,708667	0,5	-0,817800
24,717000	0,5	-0,804750
24,725333	0,5	-0,788700
24,733667	0,5	-0,777350
24,742000	0,5	-0,764350
24,750333	0,5	-0,758550
24,758667	0,5	-0,788050
24,767000	0,5	-0,770350
24,775333	0,5	-0,751850
24,783667	0,5	-0,730150
24,792000	0,5	-0,709350
24,800333	0,5	-0,706250
24,808667	0,5	-0,701750
24,817000	0,5	-0,702100
24,825333	0,5	-0,697600
24,833667	0,5	-0,686300
24,842000	0,5	-0,678450
24,850333	0,5	-0,670400
24,858667	0,5	-0,663650
24,867000	0,5	-0,655800
24,875333	0,5	-0,649850
24,883667	0,5	-0,639400
24,892000	0,5	-0,636700
24,900333	0,5	-0,640000
24,908667	0,5	-0,646500
24,917000	0,5	-0,634550
24,925333	0,5	-0,622200
24,933667	0,5	-0,603500
24,942000	0,5	-0,593350
24,950333	0,5	-0,585800
24,958667	0,5	-0,583050
24,967000	0,5	-0,581400
24,975333	0,5	-0,569400
24,983667	0,5	-0,561550
24,992000	0,5	-0,554150
25,000333	0,5	-0,548350
25,008667	0,5	-0,541000
25,017000	0,5	-0,533500
25,025333	0,5	-0,523550
25,033667	0,5	-0,517400
25,042000	0,5	-0,511550
25,050333	0,5	-0,524300
25,058667	0,5	-0,515250
25,067000	0,5	-0,512400
25,075333	0,5	-0,501500
25,083667	0,5	-0,495800
25,092000	0,5	-0,490100
25,100333	0,5	-0,485000
25,108667	0,5	-0,486800
25,117000	0,5	-0,485950
25,125333	0,5	-0,475900
25,133667	0,5	-0,471950
25,142000	0,5	-0,467700
25,150333	0,5	-0,460150
25,158667	0,5	-0,453700
25,167000	0,5	-0,449150
25,175333	0,5	-0,442000
25,183667	0,5	-0,436850
25,192000	0,5	-0,431800
25,200333	0,5	-0,431500
25,208667	0,5	-0,424650
25,217000	0,5	-0,420000
25,225333	0,5	-0,413100
25,233667	0,5	-0,408000
25,242000	0,5	-0,405350
25,250333	0,5	-0,405150
25,258667	0,5	-0,407500
25,267000	0,5	-0,403950
25,275333	0,5	-0,402200
25,283667	0,5	-0,398300
25,292000	0,5	-0,399400
25,300333	0,5	-0,396650
25,308667	0,5	-0,392600
25,317000	0,5	-0,389100
25,325333	0,5	-0,386800
25,333667	0,5	-0,383500
25,342000	0,5	-0,381400
25,350333	0,5	-0,376350
25,358667	0,5	-0,375850
25,367000	0,5	-0,370700
25,375333	0,5	-0,369350
25,383667	0,5	-0,362750
25,392000	0,5	-0,360050
25,400333	0,5	-0,358600
25,408667	0,5	-0,353800
25,417000	0,5	-0,352350
25,425333	0,5	-0,351800
25,433667	0,5	-0,347200
25,442000	0,5	-0,347750
25,450333	0,5	-0,344900
25,458667	0,5	-0,343100
25,467000	0,5	-0,341100
25,475333	0,5	-0,340150
25,483667	0,5	-0,339900
25,492000	0,5	-0,338200
25,500333	0,5	-0,334000
25,508667	0,5	-0,333900
25,517000	0,5	-0,335300
25,525333	0,5	-0,336100
25,533667	0,5	-0,336200
25,542000	0,5	-0,331100
25,550333	0,5	-0,329600
25,558667	0,5	-0,326400
25,567000	0,5	-0,325600
25,575333	0,5	-0,321350
25,583667	0,5	-0,322700
25,592000	0,5	-0,320200
25,600333	0,5	-0,318600
25,608667	0,5	-0,314550
25,617000	0,5	-0,314350
25,625333	0,5	-0,312500
25,633667	0,5	-0,309800
25,642000	0,5	-0,304850
25,650333	0,5	-0,303150
25,658667	0,5	-0,298000
25,667000	0,5	-0,303700
25,675333	0,5	-0,304500
25,683667	0,5	-0,303100
25,692000	0,5	-0,300600
25,700333	0,5	-0,296600
25,708667	0,5	-0,294950
25,717000	0,5	-0,295300
25,725333	0,5	-0,297550
25,733667	0,5	-0,293400
25,742000	0,5	-0,289750
25,750333	0,5	-0,288500
25,758667	0,5	-0,286350
25,767000	0,5	-0,282800
25,775333	0,5	-0,278100
25,783667	0,5	-0,273600
25,792000	0,5	-0,269700
25,800333	0,5	-0,262150
25,808667	0,5	-0,259700
25,817000	0,5	-0,265600
25,825333	0,5	-0,265500
25,833667	0,5	-0,259800
25,842000	0,5	-0,259600
25,850333	0,5	-0,250950
25,858667	0,5	-0,251400
25,867000	0,5	-0,249900
25,875333	0,5	-0,249950
25,883667	0,5	-0,252450
25,892000	0,5	-0,250200
25,900333	0,5	-0,249650
25,908667	0,5	-0,248850
25,917000	0,5	-0,250650
25,925333	0,5	-0,250800
25,933667	0,5	-0,246500
25,942000	0,5	-0,245150
25,950333	0,5	-0,239000
25,958667	0,5	-0,237600
25,967000	0,5	-0,244500
25,975333	0,5	-0,244150
25,983667	0,5	-0,241100
25,992000	0,5	-0,231350
26,000333	0,5	-0,224550
