File Path	chrom://chromeleon01/ikbm_chromeleon/2022/ICS-5000/ED1/Esteban/20220612_Cell_7_4_eg.seq/802.smp/ED_1.channel/ED_1.chm
Channel	ED_1

Injection Information:
Data Vault	ikbm_chromeleon
Injection	4_00.5h-EGS_1
Injection Number	116
Position	BB8
Comment	
Processing Method	Stop sequence after Cell Death
Instrument Method	ICS5000_PA200_FullNative_Ox_26min_ED1
Type	Unknown
Status	Finished
Injection Date	14.06.2022
Injection Time	22:55:44
Injection Volume (µl)	5,0
Dilution Factor	1,0000
Weight	1,0000

Chromatogram Data Information:
Time Min. (min)	0,000167
Time Max. (min)	26,000167
Data Points	3121
Detector	EDet1
Generating Data System	Chromeleon 7.2.9.11323
Exporting Data System	Chromeleon 7.2.9.0
Operator	Instrument Controller
Signal Quantity	
Signal Unit	nC
Signal Min.	-2,420300
Signal Max.	2 130,420932
Channel	ED_1
Driver Name	DC-5000
Channel Type	Evaluation
Min. Step (s)	0,5
Max. Step (s)	0,5
Average Step (s)	0,5

Signal Parameter Information:
Signal Info	

Chromatogram Data:
Time (min)	Step (s)	Value (nC)
0,000167	n.a.	0,003950
0,008500	0,5	-0,039100
0,016833	0,5	-0,034200
0,025167	0,5	-0,025950
0,033500	0,5	-0,002050
0,041833	0,5	0,010400
0,050167	0,5	0,022350
0,058500	0,5	0,012950
0,066833	0,5	0,016900
0,075167	0,5	0,005150
0,083500	0,5	0,017050
0,091833	0,5	0,011500
0,100167	0,5	0,016400
0,108500	0,5	-0,008200
0,116833	0,5	0,031950
0,125167	0,5	-0,009600
0,133500	0,5	-0,004950
0,141833	0,5	-0,012800
0,150167	0,5	0,011600
0,158500	0,5	0,044400
0,166833	0,5	0,044700
0,175167	0,5	0,032550
0,183500	0,5	0,041000
0,191833	0,5	0,032650
0,200167	0,5	0,029350
0,208500	0,5	0,023150
0,216833	0,5	0,014850
0,225167	0,5	0,018300
0,233500	0,5	0,012650
0,241833	0,5	0,017700
0,250167	0,5	-0,002150
0,258500	0,5	0,000450
0,266833	0,5	0,005150
0,275167	0,5	-0,016500
0,283500	0,5	-0,013650
0,291833	0,5	0,008550
0,300167	0,5	0,081150
0,308500	0,5	0,118950
0,316833	0,5	0,080450
0,325167	0,5	0,032150
0,333500	0,5	-0,005850
0,341833	0,5	-0,011450
0,350167	0,5	-0,012350
0,358500	0,5	-0,002350
0,366833	0,5	-0,007350
0,375167	0,5	-0,003850
0,383500	0,5	-0,003100
0,391833	0,5	-0,015100
0,400167	0,5	-0,017400
0,408500	0,5	-0,002800
0,416833	0,5	-0,011950
0,425167	0,5	-0,032300
0,433500	0,5	-0,023200
0,441833	0,5	-0,022850
0,450167	0,5	0,011800
0,458500	0,5	0,017850
0,466833	0,5	0,028400
0,475167	0,5	0,016200
0,483500	0,5	0,019000
0,491833	0,5	0,006200
0,500167	0,5	0,003250
0,508500	0,5	-0,006750
0,516833	0,5	-0,003100
0,525167	0,5	-0,005350
0,533500	0,5	-0,006600
0,541833	0,5	-0,008400
0,550167	0,5	-0,008450
0,558500	0,5	0,013250
0,566833	0,5	-0,004900
0,575167	0,5	-0,022600
0,583500	0,5	-0,012300
0,591833	0,5	-0,002700
0,600167	0,5	0,030200
0,608500	0,5	0,036950
0,616833	0,5	0,021050
0,625167	0,5	0,028700
0,633500	0,5	0,017250
0,641833	0,5	0,026250
0,650167	0,5	0,022000
0,658500	0,5	0,027600
0,666833	0,5	0,019400
0,675167	0,5	0,028300
0,683500	0,5	0,026850
0,691833	0,5	0,014750
0,700167	0,5	0,015800
0,708500	0,5	0,042750
0,716833	0,5	0,013800
0,725167	0,5	0,011250
0,733500	0,5	0,020450
0,741833	0,5	0,039950
0,750167	0,5	0,063350
0,758500	0,5	0,053750
0,766833	0,5	0,061350
0,775167	0,5	0,063200
0,783500	0,5	0,064650
0,791833	0,5	0,059950
0,800167	0,5	0,070700
0,808500	0,5	0,056250
0,816833	0,5	0,063500
0,825167	0,5	0,058850
0,833500	0,5	0,065900
0,841833	0,5	0,042250
0,850167	0,5	0,067100
0,858500	0,5	0,067050
0,866833	0,5	0,057800
0,875167	0,5	0,054400
0,883500	0,5	0,069850
0,891833	0,5	0,097100
0,900167	0,5	0,111600
0,908500	0,5	0,096950
0,916833	0,5	0,099400
0,925167	0,5	0,099400
0,933500	0,5	0,101950
0,941833	0,5	0,102400
0,950167	0,5	0,103400
0,958500	0,5	0,105500
0,966833	0,5	0,103800
0,975167	0,5	0,111800
0,983500	0,5	0,105750
0,991833	0,5	0,096450
1,000167	0,5	0,117000
1,008500	0,5	0,105900
1,016833	0,5	0,096600
1,025167	0,5	0,103000
1,033500	0,5	0,106300
1,041833	0,5	0,150000
1,050167	0,5	0,151650
1,058500	0,5	0,148450
1,066833	0,5	0,138700
1,075167	0,5	0,149100
1,083500	0,5	0,144600
1,091833	0,5	0,147850
1,100167	0,5	0,146300
1,108500	0,5	0,139500
1,116833	0,5	0,141700
1,125167	0,5	0,139750
1,133500	0,5	0,156800
1,141833	0,5	0,145050
1,150167	0,5	0,162300
1,158500	0,5	0,137250
1,166833	0,5	0,137600
1,175167	0,5	0,136150
1,183500	0,5	0,153650
1,191833	0,5	0,180000
1,200167	0,5	0,191150
1,208500	0,5	0,175800
1,216833	0,5	0,185350
1,225167	0,5	0,176600
1,233500	0,5	0,179400
1,241833	0,5	0,170000
1,250167	0,5	0,170500
1,258500	0,5	0,168650
1,266833	0,5	0,168950
1,275167	0,5	0,171050
1,283500	0,5	0,168250
1,291833	0,5	0,169650
1,300167	0,5	0,178750
1,308500	0,5	0,155850
1,316833	0,5	0,158750
1,325167	0,5	0,163300
1,333500	0,5	0,191600
1,341833	0,5	0,217600
1,350167	0,5	0,206450
1,358500	0,5	0,210900
1,366833	0,5	0,199750
1,375167	0,5	0,207050
1,383500	0,5	0,196900
1,391833	0,5	0,200450
1,400167	0,5	0,193750
1,408500	0,5	0,198950
1,416833	0,5	0,195950
1,425167	0,5	0,187050
1,433500	0,5	0,176750
1,441833	0,5	0,197450
1,450167	0,5	0,189600
1,458500	0,5	0,175350
1,466833	0,5	0,179550
1,475167	0,5	0,184150
1,483500	0,5	0,217550
1,491833	0,5	0,223650
1,500167	0,5	0,229450
1,508500	0,5	0,221400
1,516833	0,5	0,221000
1,525167	0,5	0,222100
1,533500	0,5	0,220850
1,541833	0,5	0,213500
1,550167	0,5	0,221550
1,558500	0,5	0,253000
1,566833	0,5	0,405700
1,575167	0,5	0,799750
1,583500	0,5	1,751300
1,591833	0,5	5,579600
1,600167	0,5	25,102000
1,608500	0,5	105,154752
1,616833	0,5	374,759256
1,625167	0,5	1 039,697765
1,633500	0,5	1 553,067923
1,641833	0,5	2 130,420932
1,650167	0,5	2 050,590231
1,658500	0,5	2 004,526430
1,666833	0,5	1 984,951130
1,675167	0,5	1 844,602727
1,683500	0,5	1 478,468522
1,691833	0,5	1 041,583866
1,700167	0,5	715,264211
1,708500	0,5	513,670058
1,716833	0,5	393,048906
1,725167	0,5	314,151005
1,733500	0,5	259,928154
1,741833	0,5	219,965353
1,750167	0,5	189,794803
1,758500	0,5	166,897652
1,766833	0,5	148,465002
1,775167	0,5	132,506202
1,783500	0,5	118,548502
1,791833	0,5	106,894952
1,800167	0,5	97,970901
1,808500	0,5	91,962901
1,816833	0,5	88,930601
1,825167	0,5	89,060401
1,833500	0,5	91,513701
1,841833	0,5	93,720701
1,850167	0,5	93,107351
1,858500	0,5	89,149401
1,866833	0,5	82,871501
1,875167	0,5	75,710951
1,883500	0,5	69,407951
1,891833	0,5	64,820951
1,900167	0,5	61,642351
1,908500	0,5	59,058551
1,916833	0,5	56,674401
1,925167	0,5	54,867251
1,933500	0,5	53,848451
1,941833	0,5	53,065201
1,950167	0,5	51,828651
1,958500	0,5	49,874801
1,966833	0,5	47,806301
1,975167	0,5	46,271901
1,983500	0,5	45,834901
1,991833	0,5	47,103701
2,000167	0,5	50,622201
2,008500	0,5	55,195951
2,016833	0,5	57,635101
2,025167	0,5	56,135401
2,033500	0,5	52,497401
2,041833	0,5	49,255401
2,050167	0,5	47,447101
2,058500	0,5	46,890951
2,066833	0,5	47,295401
2,075167	0,5	48,585101
2,083500	0,5	50,712101
2,091833	0,5	53,791001
2,100167	0,5	57,911051
2,108500	0,5	63,283301
2,116833	0,5	70,314901
2,125167	0,5	79,903401
2,133500	0,5	92,333351
2,141833	0,5	106,055202
2,150167	0,5	117,562402
2,158500	0,5	123,359752
2,166833	0,5	121,246052
2,175167	0,5	111,359302
2,183500	0,5	97,119251
2,191833	0,5	82,981801
2,200167	0,5	71,574051
2,208500	0,5	63,194051
2,216833	0,5	57,515051
2,225167	0,5	54,769351
2,233500	0,5	55,884651
2,241833	0,5	60,714951
2,250167	0,5	65,595351
2,258500	0,5	65,728201
2,266833	0,5	61,368651
2,275167	0,5	56,593251
2,283500	0,5	53,406951
2,291833	0,5	50,331401
2,300167	0,5	46,142801
2,308500	0,5	41,559701
2,316833	0,5	37,806001
2,325167	0,5	35,225951
2,333500	0,5	33,573001
2,341833	0,5	32,509500
2,350167	0,5	32,040550
2,358500	0,5	32,340650
2,366833	0,5	33,940051
2,375167	0,5	36,724751
2,383500	0,5	39,446951
2,391833	0,5	41,193801
2,400167	0,5	42,075351
2,408500	0,5	42,706701
2,416833	0,5	43,286301
2,425167	0,5	43,194001
2,433500	0,5	41,820801
2,441833	0,5	39,560751
2,450167	0,5	37,245951
2,458500	0,5	35,387701
2,466833	0,5	33,943101
2,475167	0,5	32,746600
2,483500	0,5	31,539400
2,491833	0,5	30,370050
2,500167	0,5	29,337800
2,508500	0,5	28,502450
2,516833	0,5	27,869850
2,525167	0,5	27,405000
2,533500	0,5	27,104300
2,541833	0,5	26,896550
2,550167	0,5	26,655000
2,558500	0,5	26,338950
2,566833	0,5	26,045700
2,575167	0,5	25,993650
2,583500	0,5	26,402750
2,591833	0,5	28,217650
2,600167	0,5	30,889500
2,608500	0,5	31,224850
2,616833	0,5	29,211500
2,625167	0,5	27,310650
2,633500	0,5	25,976650
2,641833	0,5	25,065350
2,650167	0,5	24,459150
2,658500	0,5	24,033850
2,666833	0,5	23,768800
2,675167	0,5	23,544050
2,683500	0,5	23,419150
2,691833	0,5	23,384550
2,700167	0,5	23,439650
2,708500	0,5	23,487700
2,716833	0,5	23,483700
2,725167	0,5	23,343200
2,733500	0,5	23,075800
2,741833	0,5	22,719400
2,750167	0,5	22,326850
2,758500	0,5	21,956550
2,766833	0,5	21,612550
2,775167	0,5	21,335000
2,783500	0,5	21,056550
2,791833	0,5	20,856650
2,800167	0,5	20,730750
2,808500	0,5	20,693650
2,816833	0,5	20,738750
2,825167	0,5	20,783850
2,833500	0,5	20,818950
2,841833	0,5	20,838550
2,850167	0,5	20,829100
2,858500	0,5	20,863250
2,866833	0,5	20,961650
2,875167	0,5	21,181100
2,883500	0,5	21,564400
2,891833	0,5	22,225000
2,900167	0,5	23,369400
2,908500	0,5	25,394000
2,916833	0,5	29,179700
2,925167	0,5	35,984751
2,933500	0,5	47,142101
2,941833	0,5	63,100751
2,950167	0,5	81,986701
2,958500	0,5	99,508751
2,966833	0,5	110,553452
2,975167	0,5	111,889402
2,983500	0,5	103,970752
2,991833	0,5	90,031401
3,000167	0,5	74,396851
3,008500	0,5	60,445601
3,016833	0,5	49,892401
3,025167	0,5	42,743501
3,033500	0,5	38,170251
3,041833	0,5	35,116651
3,050167	0,5	32,817600
3,058500	0,5	30,827700
3,066833	0,5	29,093500
3,075167	0,5	27,540050
3,083500	0,5	26,326700
3,091833	0,5	25,593450
3,100167	0,5	25,620850
3,108500	0,5	26,786600
3,116833	0,5	29,453500
3,125167	0,5	33,775251
3,133500	0,5	39,291201
3,141833	0,5	44,876801
3,150167	0,5	49,084501
3,158500	0,5	50,835201
3,166833	0,5	49,783001
3,175167	0,5	46,376901
3,183500	0,5	41,511601
3,191833	0,5	36,176851
3,200167	0,5	31,129600
3,208500	0,5	26,857950
3,216833	0,5	23,506150
3,225167	0,5	20,989450
3,233500	0,5	19,170050
3,241833	0,5	17,898650
3,250167	0,5	17,017100
3,258500	0,5	16,414300
3,266833	0,5	15,955050
3,275167	0,5	15,581750
3,283500	0,5	15,261650
3,291833	0,5	14,972000
3,300167	0,5	14,701900
3,308500	0,5	14,445700
3,316833	0,5	14,224750
3,325167	0,5	14,023250
3,333500	0,5	13,888400
3,341833	0,5	13,813750
3,350167	0,5	13,836700
3,358500	0,5	13,988850
3,366833	0,5	14,286350
3,375167	0,5	14,677400
3,383500	0,5	15,152650
3,391833	0,5	15,585950
3,400167	0,5	15,903050
3,408500	0,5	15,979750
3,416833	0,5	15,806000
3,425167	0,5	15,429700
3,433500	0,5	14,976600
3,441833	0,5	14,503400
3,450167	0,5	14,103950
3,458500	0,5	13,808550
3,466833	0,5	13,624550
3,475167	0,5	13,553750
3,483500	0,5	13,557950
3,491833	0,5	13,603150
3,500167	0,5	13,613250
3,508500	0,5	13,589000
3,516833	0,5	13,447300
3,525167	0,5	13,248800
3,533500	0,5	13,052000
3,541833	0,5	12,887800
3,550167	0,5	12,799000
3,558500	0,5	12,782750
3,566833	0,5	12,866550
3,575167	0,5	13,122700
3,583500	0,5	13,519500
3,591833	0,5	14,041850
3,600167	0,5	14,552800
3,608500	0,5	14,955800
3,616833	0,5	15,096650
3,625167	0,5	14,945450
3,633500	0,5	14,519600
3,641833	0,5	13,909000
3,650167	0,5	13,256450
3,658500	0,5	12,695600
3,666833	0,5	12,197700
3,675167	0,5	11,847350
3,683500	0,5	11,627200
3,691833	0,5	11,489100
3,700167	0,5	11,434150
3,708500	0,5	11,359150
3,716833	0,5	11,320100
3,725167	0,5	11,274150
3,733500	0,5	11,243850
3,741833	0,5	11,204850
3,750167	0,5	11,179900
3,758500	0,5	11,139150
3,766833	0,5	11,102500
3,775167	0,5	11,047900
3,783500	0,5	10,990950
3,791833	0,5	10,913900
3,800167	0,5	10,849900
3,808500	0,5	10,795500
3,816833	0,5	10,736100
3,825167	0,5	10,727350
3,833500	0,5	10,805400
3,841833	0,5	10,979200
3,850167	0,5	11,247150
3,858500	0,5	11,520100
3,866833	0,5	11,771300
3,875167	0,5	11,989150
3,883500	0,5	12,150300
3,891833	0,5	12,291050
3,900167	0,5	12,408900
3,908500	0,5	12,524500
3,916833	0,5	12,624450
3,925167	0,5	12,716800
3,933500	0,5	12,779750
3,941833	0,5	12,816700
3,950167	0,5	12,856200
3,958500	0,5	12,908900
3,966833	0,5	12,960400
3,975167	0,5	13,076350
3,983500	0,5	13,262450
3,991833	0,5	13,568100
4,000167	0,5	14,063250
4,008500	0,5	14,925500
4,016833	0,5	16,584250
4,025167	0,5	19,617950
4,033500	0,5	24,480850
4,041833	0,5	31,035950
4,050167	0,5	38,415101
4,058500	0,5	45,306701
4,066833	0,5	50,466251
4,075167	0,5	53,014451
4,083500	0,5	52,797901
4,091833	0,5	50,184001
4,100167	0,5	46,036301
4,108500	0,5	41,143051
4,116833	0,5	36,261501
4,125167	0,5	31,878950
4,133500	0,5	28,226350
4,141833	0,5	25,312700
4,150167	0,5	23,036950
4,158500	0,5	21,241350
4,166833	0,5	19,830050
4,175167	0,5	18,679400
4,183500	0,5	17,726950
4,191833	0,5	16,908700
4,200167	0,5	16,206300
4,208500	0,5	15,587750
4,216833	0,5	15,052600
4,225167	0,5	14,596850
4,233500	0,5	14,181950
4,241833	0,5	13,841500
4,250167	0,5	13,561900
4,258500	0,5	13,287550
4,266833	0,5	13,050150
4,275167	0,5	12,843050
4,283500	0,5	12,657200
4,291833	0,5	12,497700
4,300167	0,5	12,319700
4,308500	0,5	12,144350
4,316833	0,5	11,963300
4,325167	0,5	11,803500
4,333500	0,5	11,637300
4,341833	0,5	11,491000
4,350167	0,5	11,346900
4,358500	0,5	11,219500
4,366833	0,5	11,105600
4,375167	0,5	10,987200
4,383500	0,5	10,880350
4,391833	0,5	10,807850
4,400167	0,5	10,726550
4,408500	0,5	10,638400
4,416833	0,5	10,580950
4,425167	0,5	10,543550
4,433500	0,5	10,547500
4,441833	0,5	10,563500
4,450167	0,5	10,591800
4,458500	0,5	10,629350
4,466833	0,5	10,711700
4,475167	0,5	10,803750
4,483500	0,5	10,918650
4,491833	0,5	11,021250
4,500167	0,5	11,099700
4,508500	0,5	11,137500
4,516833	0,5	11,120000
4,525167	0,5	11,037150
4,533500	0,5	10,901700
4,541833	0,5	10,745650
4,550167	0,5	10,536700
4,558500	0,5	10,317900
4,566833	0,5	10,115500
4,575167	0,5	9,938700
4,583500	0,5	9,803850
4,591833	0,5	9,679000
4,600167	0,5	9,559350
4,608500	0,5	9,480350
4,616833	0,5	9,406950
4,625167	0,5	9,353300
4,633500	0,5	9,303950
4,641833	0,5	9,267000
4,650167	0,5	9,231300
4,658500	0,5	9,209050
4,666833	0,5	9,189350
4,675167	0,5	9,168750
4,683500	0,5	9,146700
4,691833	0,5	9,166350
4,700167	0,5	9,125900
4,708500	0,5	9,101350
4,716833	0,5	9,087250
4,725167	0,5	9,077100
4,733500	0,5	9,082250
4,741833	0,5	9,044200
4,750167	0,5	9,025250
4,758500	0,5	9,007750
4,766833	0,5	8,993200
4,775167	0,5	8,981700
4,783500	0,5	8,972450
4,791833	0,5	8,966900
4,800167	0,5	8,973550
4,808500	0,5	8,971050
4,816833	0,5	8,978200
4,825167	0,5	8,961300
4,833500	0,5	8,959950
4,841833	0,5	8,965200
4,850167	0,5	8,939250
4,858500	0,5	8,921600
4,866833	0,5	8,915150
4,875167	0,5	8,911800
4,883500	0,5	8,928700
4,891833	0,5	8,907150
4,900167	0,5	8,901900
4,908500	0,5	8,903900
4,916833	0,5	8,916600
4,925167	0,5	8,930400
4,933500	0,5	8,949950
4,941833	0,5	8,972800
4,950167	0,5	8,999100
4,958500	0,5	9,047600
4,966833	0,5	9,090850
4,975167	0,5	9,149800
4,983500	0,5	9,235800
4,991833	0,5	9,349000
5,000167	0,5	9,461550
5,008500	0,5	9,621300
5,016833	0,5	9,802750
5,025167	0,5	10,027500
5,033500	0,5	10,248900
5,041833	0,5	10,444650
5,050167	0,5	10,612350
5,058500	0,5	10,764750
5,066833	0,5	10,840050
5,075167	0,5	10,862450
5,083500	0,5	10,808200
5,091833	0,5	10,695050
5,100167	0,5	10,534200
5,108500	0,5	10,332150
5,116833	0,5	10,118000
5,125167	0,5	9,879400
5,133500	0,5	9,673300
5,141833	0,5	9,459300
5,150167	0,5	9,267800
5,158500	0,5	9,113250
5,166833	0,5	8,995850
5,175167	0,5	8,904300
5,183500	0,5	8,837400
5,191833	0,5	8,753150
5,200167	0,5	8,703950
5,208500	0,5	8,653650
5,216833	0,5	8,624100
5,225167	0,5	8,590000
5,233500	0,5	8,575800
5,241833	0,5	8,552000
5,250167	0,5	8,547500
5,258500	0,5	8,536700
5,266833	0,5	8,520700
5,275167	0,5	8,516350
5,283500	0,5	8,525150
5,291833	0,5	8,507750
5,300167	0,5	8,504050
5,308500	0,5	8,500450
5,316833	0,5	8,514200
5,325167	0,5	8,534600
5,333500	0,5	8,533400
5,341833	0,5	8,543550
5,350167	0,5	8,545950
5,358500	0,5	8,556800
5,366833	0,5	8,553750
5,375167	0,5	8,554850
5,383500	0,5	8,536750
5,391833	0,5	8,521300
5,400167	0,5	8,502400
5,408500	0,5	8,475550
5,416833	0,5	8,437700
5,425167	0,5	8,419650
5,433500	0,5	8,388000
5,441833	0,5	8,354850
5,450167	0,5	8,332800
5,458500	0,5	8,330100
5,466833	0,5	8,349350
5,475167	0,5	8,369900
5,483500	0,5	8,385400
5,491833	0,5	8,394200
5,500167	0,5	8,415050
5,508500	0,5	8,426050
5,516833	0,5	8,437500
5,525167	0,5	8,440100
5,533500	0,5	8,435550
5,541833	0,5	8,421300
5,550167	0,5	8,403200
5,558500	0,5	8,373700
5,566833	0,5	8,336800
5,575167	0,5	8,313200
5,583500	0,5	8,265550
5,591833	0,5	8,213700
5,600167	0,5	8,179350
5,608500	0,5	8,152100
5,616833	0,5	8,153500
5,625167	0,5	8,129400
5,633500	0,5	8,105750
5,641833	0,5	8,094000
5,650167	0,5	8,090400
5,658500	0,5	8,074150
5,666833	0,5	8,065900
5,675167	0,5	8,055300
5,683500	0,5	8,045500
5,691833	0,5	8,047050
5,700167	0,5	8,044000
5,708500	0,5	8,042700
5,716833	0,5	8,033450
5,725167	0,5	8,061000
5,733500	0,5	8,039750
5,741833	0,5	8,035450
5,750167	0,5	8,035950
5,758500	0,5	8,047150
5,766833	0,5	8,073300
5,775167	0,5	8,067500
5,783500	0,5	8,062750
5,791833	0,5	8,067300
5,800167	0,5	8,061950
5,808500	0,5	8,065300
5,816833	0,5	8,051750
5,825167	0,5	8,042100
5,833500	0,5	8,015100
5,841833	0,5	7,981550
5,850167	0,5	7,940100
5,858500	0,5	7,869250
5,866833	0,5	7,809750
5,875167	0,5	7,768900
5,883500	0,5	7,707400
5,891833	0,5	7,661650
5,900167	0,5	7,626250
5,908500	0,5	7,596400
5,916833	0,5	7,586950
5,925167	0,5	7,538750
5,933500	0,5	7,511800
5,941833	0,5	7,477800
5,950167	0,5	7,456050
5,958500	0,5	7,427850
5,966833	0,5	7,411000
5,975167	0,5	7,387400
5,983500	0,5	7,374200
5,991833	0,5	7,357100
6,000167	0,5	7,340800
6,008500	0,5	7,317950
6,016833	0,5	7,316550
6,025167	0,5	7,308900
6,033500	0,5	7,289000
6,041833	0,5	7,280300
6,050167	0,5	7,275750
6,058500	0,5	7,281900
6,066833	0,5	7,287750
6,075167	0,5	7,284600
6,083500	0,5	7,272850
6,091833	0,5	7,280750
6,100167	0,5	7,273600
6,108500	0,5	7,284650
6,116833	0,5	7,291050
6,125167	0,5	7,303700
6,133500	0,5	7,321050
6,141833	0,5	7,339700
6,150167	0,5	7,354200
6,158500	0,5	7,370750
6,166833	0,5	7,395450
6,175167	0,5	7,412600
6,183500	0,5	7,412700
6,191833	0,5	7,431300
6,200167	0,5	7,452750
6,208500	0,5	7,488600
6,216833	0,5	7,525850
6,225167	0,5	7,550200
6,233500	0,5	7,594300
6,241833	0,5	7,646350
6,250167	0,5	7,717300
6,258500	0,5	7,802900
6,266833	0,5	7,903200
6,275167	0,5	7,995800
6,283500	0,5	8,095700
6,291833	0,5	8,177100
6,300167	0,5	8,235800
6,308500	0,5	8,265250
6,316833	0,5	8,272700
6,325167	0,5	8,218100
6,333500	0,5	8,139450
6,341833	0,5	8,040500
6,350167	0,5	7,939100
6,358500	0,5	7,831750
6,366833	0,5	7,719300
6,375167	0,5	7,604800
6,383500	0,5	7,506800
6,391833	0,5	7,421350
6,400167	0,5	7,349750
6,408500	0,5	7,296550
6,416833	0,5	7,250050
6,425167	0,5	7,211650
6,433500	0,5	7,187550
6,441833	0,5	7,168500
6,450167	0,5	7,144350
6,458500	0,5	7,143600
6,466833	0,5	7,140300
6,475167	0,5	7,132200
6,483500	0,5	7,130350
6,491833	0,5	7,138750
6,500167	0,5	7,170300
6,508500	0,5	7,198250
6,516833	0,5	7,213200
6,525167	0,5	7,232800
6,533500	0,5	7,244300
6,541833	0,5	7,261600
6,550167	0,5	7,267300
6,558500	0,5	7,268250
6,566833	0,5	7,266400
6,575167	0,5	7,254200
6,583500	0,5	7,251000
6,591833	0,5	7,235950
6,600167	0,5	7,225250
6,608500	0,5	7,244150
6,616833	0,5	7,244500
6,625167	0,5	7,258150
6,633500	0,5	7,289850
6,641833	0,5	7,335850
6,650167	0,5	7,410500
6,658500	0,5	7,468200
6,666833	0,5	7,532300
6,675167	0,5	7,589900
6,683500	0,5	7,655850
6,691833	0,5	7,702250
6,700167	0,5	7,744350
6,708500	0,5	7,765500
6,716833	0,5	7,769200
6,725167	0,5	7,759000
6,733500	0,5	7,732800
6,741833	0,5	7,693800
6,750167	0,5	7,637900
6,758500	0,5	7,595850
6,766833	0,5	7,529500
6,775167	0,5	7,480450
6,783500	0,5	7,443650
6,791833	0,5	7,428850
6,800167	0,5	7,442600
6,808500	0,5	7,457400
6,816833	0,5	7,478300
6,825167	0,5	7,526150
6,833500	0,5	7,580700
6,841833	0,5	7,655800
6,850167	0,5	7,741250
6,858500	0,5	7,850250
6,866833	0,5	7,983500
6,875167	0,5	8,165550
6,883500	0,5	8,409400
6,891833	0,5	8,744750
6,900167	0,5	9,200200
6,908500	0,5	9,855850
6,916833	0,5	10,703100
6,925167	0,5	11,817850
6,933500	0,5	13,179550
6,941833	0,5	14,739750
6,950167	0,5	16,399750
6,958500	0,5	17,951000
6,966833	0,5	19,266950
6,975167	0,5	20,190250
6,983500	0,5	20,608200
6,991833	0,5	20,493650
7,000167	0,5	19,901000
7,008500	0,5	18,934000
7,016833	0,5	17,735800
7,025167	0,5	16,423250
7,033500	0,5	15,100500
7,041833	0,5	13,825450
7,050167	0,5	12,659300
7,058500	0,5	11,604450
7,066833	0,5	10,666800
7,075167	0,5	9,875450
7,083500	0,5	9,234000
7,091833	0,5	8,741700
7,100167	0,5	8,369650
7,108500	0,5	8,094600
7,116833	0,5	7,901300
7,125167	0,5	7,779800
7,133500	0,5	7,708350
7,141833	0,5	7,671650
7,150167	0,5	7,651350
7,158500	0,5	7,625300
7,166833	0,5	7,581250
7,175167	0,5	7,518950
7,183500	0,5	7,426950
7,191833	0,5	7,335850
7,200167	0,5	7,251300
7,208500	0,5	7,179050
7,216833	0,5	7,108250
7,225167	0,5	7,067900
7,233500	0,5	7,033200
7,241833	0,5	7,007450
7,250167	0,5	6,979500
7,258500	0,5	6,951700
7,266833	0,5	6,918700
7,275167	0,5	6,893400
7,283500	0,5	6,866150
7,291833	0,5	6,847950
7,300167	0,5	6,834450
7,308500	0,5	6,831000
7,316833	0,5	6,831350
7,325167	0,5	6,837050
7,333500	0,5	6,847050
7,341833	0,5	6,854200
7,350167	0,5	6,871050
7,358500	0,5	6,863000
7,366833	0,5	6,860450
7,375167	0,5	6,866750
7,383500	0,5	6,884350
7,391833	0,5	6,911100
7,400167	0,5	6,944250
7,408500	0,5	6,971900
7,416833	0,5	7,002600
7,425167	0,5	7,005500
7,433500	0,5	7,000000
7,441833	0,5	6,962200
7,450167	0,5	6,911000
7,458500	0,5	6,850650
7,466833	0,5	6,791550
7,475167	0,5	6,738800
7,483500	0,5	6,681750
7,491833	0,5	6,644150
7,500167	0,5	6,612450
7,508500	0,5	6,573950
7,516833	0,5	6,543350
7,525167	0,5	6,519200
7,533500	0,5	6,495150
7,541833	0,5	6,470300
7,550167	0,5	6,431000
7,558500	0,5	6,399300
7,566833	0,5	6,367950
7,575167	0,5	6,351250
7,583500	0,5	6,336800
7,591833	0,5	6,334250
7,600167	0,5	6,327300
7,608500	0,5	6,319200
7,616833	0,5	6,308150
7,625167	0,5	6,289150
7,633500	0,5	6,261450
7,641833	0,5	6,256400
7,650167	0,5	6,254000
7,658500	0,5	6,287350
7,666833	0,5	6,377950
7,675167	0,5	6,534950
7,683500	0,5	6,716300
7,691833	0,5	6,819500
7,700167	0,5	6,820900
7,708500	0,5	6,731150
7,716833	0,5	6,619750
7,725167	0,5	6,528350
7,733500	0,5	6,467200
7,741833	0,5	6,417850
7,750167	0,5	6,367900
7,758500	0,5	6,312700
7,766833	0,5	6,261750
7,775167	0,5	6,220350
7,783500	0,5	6,184700
7,791833	0,5	6,177750
7,800167	0,5	6,171750
7,808500	0,5	6,179300
7,816833	0,5	6,195950
7,825167	0,5	6,215550
7,833500	0,5	6,244300
7,841833	0,5	6,259650
7,850167	0,5	6,260750
7,858500	0,5	6,264800
7,866833	0,5	6,274100
7,875167	0,5	6,303100
7,883500	0,5	6,355200
7,891833	0,5	6,439000
7,900167	0,5	6,560350
7,908500	0,5	6,738850
7,916833	0,5	6,990400
7,925167	0,5	7,358250
7,933500	0,5	7,893100
7,941833	0,5	8,677250
7,950167	0,5	9,750800
7,958500	0,5	11,210850
7,966833	0,5	13,094500
7,975167	0,5	15,420750
7,983500	0,5	18,130900
7,991833	0,5	21,027800
8,000167	0,5	23,826600
8,008500	0,5	26,140100
8,016833	0,5	27,593100
8,025167	0,5	27,932050
8,033500	0,5	27,091500
8,041833	0,5	25,202950
8,050167	0,5	22,613250
8,058500	0,5	19,796700
8,066833	0,5	17,260050
8,075167	0,5	15,322050
8,083500	0,5	14,046000
8,091833	0,5	13,297550
8,100167	0,5	12,978100
8,108500	0,5	13,257100
8,116833	0,5	14,656100
8,125167	0,5	18,129350
8,133500	0,5	24,716500
8,141833	0,5	34,659301
8,150167	0,5	46,336751
8,158500	0,5	56,208301
8,166833	0,5	60,673801
8,175167	0,5	58,229001
8,183500	0,5	50,244151
8,191833	0,5	39,758351
8,200167	0,5	29,671800
8,208500	0,5	21,676550
8,216833	0,5	16,147850
8,225167	0,5	12,676900
8,233500	0,5	10,629500
8,241833	0,5	9,434450
8,250167	0,5	8,728250
8,258500	0,5	8,301200
8,266833	0,5	8,041700
8,275167	0,5	7,885600
8,283500	0,5	7,760050
8,291833	0,5	7,606300
8,300167	0,5	7,393200
8,308500	0,5	7,154050
8,316833	0,5	6,932600
8,325167	0,5	6,772650
8,333500	0,5	6,662400
8,341833	0,5	6,591000
8,350167	0,5	6,551550
8,358500	0,5	6,525050
8,366833	0,5	6,506150
8,375167	0,5	6,499700
8,383500	0,5	6,499100
8,391833	0,5	6,497500
8,400167	0,5	6,486900
8,408500	0,5	6,461300
8,416833	0,5	6,418950
8,425167	0,5	6,369100
8,433500	0,5	6,321250
8,441833	0,5	6,284750
8,450167	0,5	6,266100
8,458500	0,5	6,260750
8,466833	0,5	6,267600
8,475167	0,5	6,277000
8,483500	0,5	6,305850
8,491833	0,5	6,369350
8,500167	0,5	6,482400
8,508500	0,5	6,631200
8,516833	0,5	6,754950
8,525167	0,5	6,797150
8,533500	0,5	6,734000
8,541833	0,5	6,601050
8,550167	0,5	6,459200
8,558500	0,5	6,337900
8,566833	0,5	6,252250
8,575167	0,5	6,189000
8,583500	0,5	6,138800
8,591833	0,5	6,112050
8,600167	0,5	6,110850
8,608500	0,5	6,124500
8,616833	0,5	6,147750
8,625167	0,5	6,178800
8,633500	0,5	6,221950
8,641833	0,5	6,288350
8,650167	0,5	6,390200
8,658500	0,5	6,525100
8,666833	0,5	6,659250
8,675167	0,5	6,766450
8,683500	0,5	6,810600
8,691833	0,5	6,790600
8,700167	0,5	6,737200
8,708500	0,5	6,698150
8,716833	0,5	6,718450
8,725167	0,5	6,800100
8,733500	0,5	6,904350
8,741833	0,5	6,986400
8,750167	0,5	7,031400
8,758500	0,5	7,055150
8,766833	0,5	7,077600
8,775167	0,5	7,106550
8,783500	0,5	7,136550
8,791833	0,5	7,187700
8,800167	0,5	7,303050
8,808500	0,5	7,546600
8,816833	0,5	8,064950
8,825167	0,5	9,170500
8,833500	0,5	11,355350
8,841833	0,5	15,061300
8,850167	0,5	20,080950
8,858500	0,5	25,101050
8,866833	0,5	28,200800
8,875167	0,5	28,026800
8,883500	0,5	24,795350
8,891833	0,5	20,005650
8,900167	0,5	15,329400
8,908500	0,5	11,750950
8,916833	0,5	9,418950
8,925167	0,5	8,029050
8,933500	0,5	7,201300
8,941833	0,5	6,695550
8,950167	0,5	6,388400
8,958500	0,5	6,208850
8,966833	0,5	6,109350
8,975167	0,5	6,047200
8,983500	0,5	5,985600
8,991833	0,5	5,933050
9,000167	0,5	5,891500
9,008500	0,5	5,868450
9,016833	0,5	5,863550
9,025167	0,5	5,871400
9,033500	0,5	5,892950
9,041833	0,5	5,944900
9,050167	0,5	6,034400
9,058500	0,5	6,175050
9,066833	0,5	6,354300
9,075167	0,5	6,539100
9,083500	0,5	6,693800
9,091833	0,5	6,822350
9,100167	0,5	6,948000
9,108500	0,5	7,143100
9,116833	0,5	7,338200
9,125167	0,5	7,395050
9,133500	0,5	7,358650
9,141833	0,5	7,319850
9,150167	0,5	7,321900
9,158500	0,5	7,399300
9,166833	0,5	7,580350
9,175167	0,5	7,901750
9,183500	0,5	8,520450
9,191833	0,5	9,675900
9,200167	0,5	11,865900
9,208500	0,5	15,454100
9,216833	0,5	19,330600
9,225167	0,5	21,431950
9,233500	0,5	21,127650
9,241833	0,5	20,313050
9,250167	0,5	20,575500
9,258500	0,5	22,046350
9,266833	0,5	24,373850
9,275167	0,5	27,129000
9,283500	0,5	30,007350
9,291833	0,5	32,747850
9,300167	0,5	35,050751
9,308500	0,5	36,616151
9,316833	0,5	37,190751
9,325167	0,5	36,667551
9,333500	0,5	35,078601
9,341833	0,5	32,623700
9,350167	0,5	29,592200
9,358500	0,5	26,314450
9,366833	0,5	23,100750
9,375167	0,5	20,193750
9,383500	0,5	17,749350
9,391833	0,5	15,846050
9,400167	0,5	14,471800
9,408500	0,5	13,551650
9,416833	0,5	12,978100
9,425167	0,5	12,605200
9,433500	0,5	12,312800
9,441833	0,5	12,009650
9,450167	0,5	11,656900
9,458500	0,5	11,261750
9,466833	0,5	10,863650
9,475167	0,5	10,489800
9,483500	0,5	10,171650
9,491833	0,5	9,911350
9,500167	0,5	9,685750
9,508500	0,5	9,482000
9,516833	0,5	9,281250
9,525167	0,5	9,076700
9,533500	0,5	8,863050
9,541833	0,5	8,645100
9,550167	0,5	8,414950
9,558500	0,5	8,163900
9,566833	0,5	7,886100
9,575167	0,5	7,596100
9,583500	0,5	7,294900
9,591833	0,5	7,012100
9,600167	0,5	6,763150
9,608500	0,5	6,539450
9,616833	0,5	6,346550
9,625167	0,5	6,181350
9,633500	0,5	6,041350
9,641833	0,5	5,926200
9,650167	0,5	5,834150
9,658500	0,5	5,757450
9,666833	0,5	5,691500
9,675167	0,5	5,635700
9,683500	0,5	5,589000
9,691833	0,5	5,547450
9,700167	0,5	5,519700
9,708500	0,5	5,499850
9,716833	0,5	5,495250
9,725167	0,5	5,499950
9,733500	0,5	5,510250
9,741833	0,5	5,527150
9,750167	0,5	5,542450
9,758500	0,5	5,548500
9,766833	0,5	5,533100
9,775167	0,5	5,492850
9,783500	0,5	5,436050
9,791833	0,5	5,374650
9,800167	0,5	5,323500
9,808500	0,5	5,296350
9,816833	0,5	5,296900
9,825167	0,5	5,332300
9,833500	0,5	5,404500
9,841833	0,5	5,500500
9,850167	0,5	5,601200
9,858500	0,5	5,690900
9,866833	0,5	5,756900
9,875167	0,5	5,784900
9,883500	0,5	5,790300
9,891833	0,5	5,785750
9,900167	0,5	5,785650
9,908500	0,5	5,795500
9,916833	0,5	5,810850
9,925167	0,5	5,833000
9,933500	0,5	5,853200
9,941833	0,5	5,878050
9,950167	0,5	5,902550
9,958500	0,5	5,930300
9,966833	0,5	5,958550
9,975167	0,5	5,976900
9,983500	0,5	5,991300
9,991833	0,5	5,988950
10,000167	0,5	5,967550
10,008500	0,5	5,934450
10,016833	0,5	5,887200
10,025167	0,5	5,818300
10,033500	0,5	5,746150
10,041833	0,5	5,670150
10,050167	0,5	5,594600
10,058500	0,5	5,528600
10,066833	0,5	5,464150
10,075167	0,5	5,405000
10,083500	0,5	5,351850
10,091833	0,5	5,296150
10,100167	0,5	5,255600
10,108500	0,5	5,230250
10,116833	0,5	5,233800
10,125167	0,5	5,260950
10,133500	0,5	5,313650
10,141833	0,5	5,373250
10,150167	0,5	5,422300
10,158500	0,5	5,450600
10,166833	0,5	5,452100
10,175167	0,5	5,423600
10,183500	0,5	5,379150
10,191833	0,5	5,332800
10,200167	0,5	5,285800
10,208500	0,5	5,253400
10,216833	0,5	5,215950
10,225167	0,5	5,186550
10,233500	0,5	5,157550
10,241833	0,5	5,128350
10,250167	0,5	5,098950
10,258500	0,5	5,075200
10,266833	0,5	5,054250
10,275167	0,5	5,039950
10,283500	0,5	5,027200
10,291833	0,5	5,021600
10,300167	0,5	5,018550
10,308500	0,5	5,023450
10,316833	0,5	5,024550
10,325167	0,5	5,026450
10,333500	0,5	5,034900
10,341833	0,5	5,052900
10,350167	0,5	5,083450
10,358500	0,5	5,128800
10,366833	0,5	5,184900
10,375167	0,5	5,248000
10,383500	0,5	5,330550
10,391833	0,5	5,417700
10,400167	0,5	5,508350
10,408500	0,5	5,593800
10,416833	0,5	5,659250
10,425167	0,5	5,699550
10,433500	0,5	5,703700
10,441833	0,5	5,678500
10,450167	0,5	5,638900
10,458500	0,5	5,577900
10,466833	0,5	5,504700
10,475167	0,5	5,413250
10,483500	0,5	5,311600
10,491833	0,5	5,207400
10,500167	0,5	5,110100
10,508500	0,5	5,022150
10,516833	0,5	4,952100
10,525167	0,5	4,905150
10,533500	0,5	4,881450
10,541833	0,5	4,875250
10,550167	0,5	4,888150
10,558500	0,5	4,905250
10,566833	0,5	4,922850
10,575167	0,5	4,952600
10,583500	0,5	4,981400
10,591833	0,5	5,018950
10,600167	0,5	5,075400
10,608500	0,5	5,130000
10,616833	0,5	5,174200
10,625167	0,5	5,190050
10,633500	0,5	5,172050
10,641833	0,5	5,122000
10,650167	0,5	5,048500
10,658500	0,5	4,959000
10,666833	0,5	4,874900
10,675167	0,5	4,802300
10,683500	0,5	4,739500
10,691833	0,5	4,688150
10,700167	0,5	4,641400
10,708500	0,5	4,596000
10,716833	0,5	4,560200
10,725167	0,5	4,533100
10,733500	0,5	4,519400
10,741833	0,5	4,513450
10,750167	0,5	4,525500
10,758500	0,5	4,547950
10,766833	0,5	4,578400
10,775167	0,5	4,620400
10,783500	0,5	4,683700
10,791833	0,5	4,764250
10,800167	0,5	4,845000
10,808500	0,5	4,845000
10,816833	0,5	4,921800
10,825167	0,5	4,890800
10,833500	0,5	4,817050
10,841833	0,5	4,715650
10,850167	0,5	4,607500
10,858500	0,5	4,503600
10,866833	0,5	4,418500
10,875167	0,5	4,348200
10,883500	0,5	4,287350
10,891833	0,5	4,232700
10,900167	0,5	4,199150
10,908500	0,5	4,170850
10,916833	0,5	4,151300
10,925167	0,5	4,143600
10,933500	0,5	4,155300
10,941833	0,5	4,194150
10,950167	0,5	4,249550
10,958500	0,5	4,331750
10,966833	0,5	4,421000
10,975167	0,5	4,510600
10,983500	0,5	4,567000
10,991833	0,5	4,582200
11,000167	0,5	4,546350
11,008500	0,5	4,482800
11,016833	0,5	4,406200
11,025167	0,5	4,334100
11,033500	0,5	4,277050
11,041833	0,5	4,237400
11,050167	0,5	4,211750
11,058500	0,5	4,186500
11,066833	0,5	4,159800
11,075167	0,5	4,137450
11,083500	0,5	4,123700
11,091833	0,5	4,128100
11,100167	0,5	4,149400
11,108500	0,5	4,187000
11,116833	0,5	4,244200
11,125167	0,5	4,301500
11,133500	0,5	4,345450
11,141833	0,5	4,352900
11,150167	0,5	4,319600
11,158500	0,5	4,245600
11,166833	0,5	4,148950
11,175167	0,5	4,047650
11,183500	0,5	3,952500
11,191833	0,5	3,876700
11,200167	0,5	3,818600
11,208500	0,5	3,771650
11,216833	0,5	3,731700
11,225167	0,5	3,696100
11,233500	0,5	3,666350
11,241833	0,5	3,642800
11,250167	0,5	3,619650
11,258500	0,5	3,600750
11,266833	0,5	3,570400
11,275167	0,5	3,532150
11,283500	0,5	3,486650
11,291833	0,5	3,428150
11,300167	0,5	3,371000
11,308500	0,5	3,322950
11,316833	0,5	3,287950
11,325167	0,5	3,278400
11,333500	0,5	3,282850
11,341833	0,5	3,310350
11,350167	0,5	3,337200
11,358500	0,5	3,369650
11,366833	0,5	3,401300
11,375167	0,5	3,439050
11,383500	0,5	3,483350
11,391833	0,5	3,531350
11,400167	0,5	3,570700
11,408500	0,5	3,601000
11,416833	0,5	3,622050
11,425167	0,5	3,621950
11,433500	0,5	3,608900
11,441833	0,5	3,579400
11,450167	0,5	3,550150
11,458500	0,5	3,518850
11,466833	0,5	3,495700
11,475167	0,5	3,463450
11,483500	0,5	3,449300
11,491833	0,5	3,439950
11,500167	0,5	3,428450
11,508500	0,5	3,418650
11,516833	0,5	3,409600
11,525167	0,5	3,398150
11,533500	0,5	3,387250
11,541833	0,5	3,368350
11,550167	0,5	3,346950
11,558500	0,5	3,318050
11,566833	0,5	3,297050
11,575167	0,5	3,277750
11,583500	0,5	3,264000
11,591833	0,5	3,261250
11,600167	0,5	3,267250
11,608500	0,5	3,280250
11,616833	0,5	3,303550
11,625167	0,5	3,325900
11,633500	0,5	3,366350
11,641833	0,5	3,404550
11,650167	0,5	3,435600
11,658500	0,5	3,466800
11,666833	0,5	3,494050
11,675167	0,5	3,531450
11,683500	0,5	3,568100
11,691833	0,5	3,605500
11,700167	0,5	3,634600
11,708500	0,5	3,657050
11,716833	0,5	3,667900
11,725167	0,5	3,679500
11,733500	0,5	3,682700
11,741833	0,5	3,689100
11,750167	0,5	3,702050
11,758500	0,5	3,722700
11,766833	0,5	3,755000
11,775167	0,5	3,781650
11,783500	0,5	3,828650
11,791833	0,5	3,863150
11,800167	0,5	3,894000
11,808500	0,5	3,924700
11,816833	0,5	3,951550
11,825167	0,5	3,995400
11,833500	0,5	4,050700
11,841833	0,5	4,123800
11,850167	0,5	4,238950
11,858500	0,5	4,414200
11,866833	0,5	4,668850
11,875167	0,5	4,998800
11,883500	0,5	5,395700
11,891833	0,5	5,810350
11,900167	0,5	6,176650
11,908500	0,5	6,442000
11,916833	0,5	6,560450
11,925167	0,5	6,524050
11,933500	0,5	6,371800
11,941833	0,5	6,121050
11,950167	0,5	5,822050
11,958500	0,5	5,511600
11,966833	0,5	5,220700
11,975167	0,5	4,979950
11,983500	0,5	4,786850
11,991833	0,5	4,647650
12,000167	0,5	4,564100
12,008500	0,5	4,530000
12,016833	0,5	4,541150
12,025167	0,5	4,595550
12,033500	0,5	4,680350
12,041833	0,5	4,801200
12,050167	0,5	4,938800
12,058500	0,5	5,080400
12,066833	0,5	5,194500
12,075167	0,5	5,284500
12,083500	0,5	5,343300
12,091833	0,5	5,368450
12,100167	0,5	5,367800
12,108500	0,5	5,362150
12,116833	0,5	5,350950
12,125167	0,5	5,352700
12,133500	0,5	5,360800
12,141833	0,5	5,376000
12,150167	0,5	5,410450
12,158500	0,5	5,448150
12,166833	0,5	5,504900
12,175167	0,5	5,571500
12,183500	0,5	5,657500
12,191833	0,5	5,745350
12,200167	0,5	5,837700
12,208500	0,5	5,914000
12,216833	0,5	5,959650
12,225167	0,5	5,973100
12,233500	0,5	5,939250
12,241833	0,5	5,856300
12,250167	0,5	5,739200
12,258500	0,5	5,604500
12,266833	0,5	5,478450
12,275167	0,5	5,368550
12,283500	0,5	5,283200
12,291833	0,5	5,223800
12,300167	0,5	5,184650
12,308500	0,5	5,164950
12,316833	0,5	5,148300
12,325167	0,5	5,132750
12,333500	0,5	5,107700
12,341833	0,5	5,076550
12,350167	0,5	5,030200
12,358500	0,5	4,974650
12,366833	0,5	4,909250
12,375167	0,5	4,842950
12,383500	0,5	4,773450
12,391833	0,5	4,704450
12,400167	0,5	4,635750
12,408500	0,5	4,582200
12,416833	0,5	4,532900
12,425167	0,5	4,498250
12,433500	0,5	4,457750
12,441833	0,5	4,428900
12,450167	0,5	4,400900
12,458500	0,5	4,381650
12,466833	0,5	4,362350
12,475167	0,5	4,358550
12,483500	0,5	4,357950
12,491833	0,5	4,356450
12,500167	0,5	4,361200
12,508500	0,5	4,358500
12,516833	0,5	4,365350
12,525167	0,5	4,379050
12,533500	0,5	4,397050
12,541833	0,5	4,428600
12,550167	0,5	4,468350
12,558500	0,5	4,535400
12,566833	0,5	4,624800
12,575167	0,5	4,718050
12,583500	0,5	4,816250
12,591833	0,5	4,901850
12,600167	0,5	4,987300
12,608500	0,5	5,040100
12,616833	0,5	5,078850
12,625167	0,5	5,090750
12,633500	0,5	5,095900
12,641833	0,5	5,096500
12,650167	0,5	5,091150
12,658500	0,5	5,072500
12,666833	0,5	5,067700
12,675167	0,5	5,054900
12,683500	0,5	5,032100
12,691833	0,5	4,999850
12,700167	0,5	4,945000
12,708500	0,5	4,899350
12,716833	0,5	4,837650
12,725167	0,5	4,770400
12,733500	0,5	4,681500
12,741833	0,5	4,582850
12,750167	0,5	4,470850
12,758500	0,5	4,371950
12,766833	0,5	4,296150
12,775167	0,5	4,273900
12,783500	0,5	4,308950
12,791833	0,5	4,404300
12,800167	0,5	4,540250
12,808500	0,5	4,671250
12,816833	0,5	4,747700
12,825167	0,5	4,756050
12,833500	0,5	4,762000
12,841833	0,5	4,938950
12,850167	0,5	5,475850
12,858500	0,5	5,986700
12,866833	0,5	6,305500
12,875167	0,5	6,274350
12,883500	0,5	5,656750
12,891833	0,5	5,084850
12,900167	0,5	4,762250
12,908500	0,5	4,417200
12,916833	0,5	3,792950
12,925167	0,5	3,134950
12,933500	0,5	2,672950
12,941833	0,5	2,354350
12,950167	0,5	2,116350
12,958500	0,5	1,937550
12,966833	0,5	1,806350
12,975167	0,5	1,689050
12,983500	0,5	1,593050
12,991833	0,5	1,506950
13,000167	0,5	1,438550
13,008500	0,5	1,396650
13,016833	0,5	1,358850
13,025167	0,5	1,323550
13,033500	0,5	1,298800
13,041833	0,5	1,278150
13,050167	0,5	1,259900
13,058500	0,5	1,244350
13,066833	0,5	1,229150
13,075167	0,5	1,216100
13,083500	0,5	1,205900
13,091833	0,5	1,195050
13,100167	0,5	1,176300
13,108500	0,5	1,166200
13,116833	0,5	1,154650
13,125167	0,5	1,141050
13,133500	0,5	1,116650
13,141833	0,5	1,091200
13,150167	0,5	1,073900
13,158500	0,5	1,060000
13,166833	0,5	1,042550
13,175167	0,5	1,023600
13,183500	0,5	1,007800
13,191833	0,5	0,994550
13,200167	0,5	0,985200
13,208500	0,5	0,972900
13,216833	0,5	0,968650
13,225167	0,5	0,958850
13,233500	0,5	0,958750
13,241833	0,5	0,948900
13,250167	0,5	0,940250
13,258500	0,5	0,936200
13,266833	0,5	0,929700
13,275167	0,5	0,916250
13,283500	0,5	0,899000
13,291833	0,5	0,880700
13,300167	0,5	0,872450
13,308500	0,5	0,861600
13,316833	0,5	0,853400
13,325167	0,5	0,840150
13,333500	0,5	0,830050
13,341833	0,5	0,820450
13,350167	0,5	0,815750
13,358500	0,5	0,809400
13,366833	0,5	0,803350
13,375167	0,5	0,800400
13,383500	0,5	0,799900
13,391833	0,5	0,789550
13,400167	0,5	0,786550
13,408500	0,5	0,791150
13,416833	0,5	0,788800
13,425167	0,5	0,785700
13,433500	0,5	0,778400
13,441833	0,5	0,777350
13,450167	0,5	0,778500
13,458500	0,5	0,784050
13,466833	0,5	0,782600
13,475167	0,5	0,788350
13,483500	0,5	0,789450
13,491833	0,5	0,793650
13,500167	0,5	0,791050
13,508500	0,5	0,788850
13,516833	0,5	0,783550
13,525167	0,5	0,783200
13,533500	0,5	0,780550
13,541833	0,5	0,765550
13,550167	0,5	0,767450
13,558500	0,5	0,760700
13,566833	0,5	0,753800
13,575167	0,5	0,742750
13,583500	0,5	0,726250
13,591833	0,5	0,717450
13,600167	0,5	0,717800
13,608500	0,5	0,710800
13,616833	0,5	0,708050
13,625167	0,5	0,701250
13,633500	0,5	0,703350
13,641833	0,5	0,699100
13,650167	0,5	0,699900
13,658500	0,5	0,693600
13,666833	0,5	0,691650
13,675167	0,5	0,696650
13,683500	0,5	0,695700
13,691833	0,5	0,680500
13,700167	0,5	0,691450
13,708500	0,5	0,685850
13,716833	0,5	0,684150
13,725167	0,5	0,674850
13,733500	0,5	0,664550
13,741833	0,5	0,670900
13,750167	0,5	0,666050
13,758500	0,5	0,664900
13,766833	0,5	0,656900
13,775167	0,5	0,660750
13,783500	0,5	0,658850
13,791833	0,5	0,658900
13,800167	0,5	0,657700
13,808500	0,5	0,653700
13,816833	0,5	0,653400
13,825167	0,5	0,656750
13,833500	0,5	0,652800
13,841833	0,5	0,652450
13,850167	0,5	0,660950
13,858500	0,5	0,662650
13,866833	0,5	0,659800
13,875167	0,5	0,660000
13,883500	0,5	0,657250
13,891833	0,5	0,667850
13,900167	0,5	0,673150
13,908500	0,5	0,673350
13,916833	0,5	0,676900
13,925167	0,5	0,678250
13,933500	0,5	0,680800
13,941833	0,5	0,682800
13,950167	0,5	0,686850
13,958500	0,5	0,689000
13,966833	0,5	0,696950
13,975167	0,5	0,704000
13,983500	0,5	0,706500
13,991833	0,5	0,714900
14,000167	0,5	0,723650
14,008500	0,5	0,725850
14,016833	0,5	0,725000
14,025167	0,5	0,713300
14,033500	0,5	0,712350
14,041833	0,5	0,714600
14,050167	0,5	0,717500
14,058500	0,5	0,716500
14,066833	0,5	0,721750
14,075167	0,5	0,724400
14,083500	0,5	0,727400
14,091833	0,5	0,733050
14,100167	0,5	0,734800
14,108500	0,5	0,733550
14,116833	0,5	0,731850
14,125167	0,5	0,733050
14,133500	0,5	0,722700
14,141833	0,5	0,728550
14,150167	0,5	0,728650
14,158500	0,5	0,729950
14,166833	0,5	0,724250
14,175167	0,5	0,719900
14,183500	0,5	0,723100
14,191833	0,5	0,730700
14,200167	0,5	0,738400
14,208500	0,5	0,748450
14,216833	0,5	0,750250
14,225167	0,5	0,757300
14,233500	0,5	0,761950
14,241833	0,5	0,769550
14,250167	0,5	0,775500
14,258500	0,5	0,782450
14,266833	0,5	0,798600
14,275167	0,5	0,796550
14,283500	0,5	0,797600
14,291833	0,5	0,806100
14,300167	0,5	0,811950
14,308500	0,5	0,813700
14,316833	0,5	0,810000
14,325167	0,5	0,808300
14,333500	0,5	0,820150
14,341833	0,5	0,827800
14,350167	0,5	0,839350
14,358500	0,5	0,840200
14,366833	0,5	0,855250
14,375167	0,5	0,858350
14,383500	0,5	0,866450
14,391833	0,5	0,874200
14,400167	0,5	0,881550
14,408500	0,5	0,897750
14,416833	0,5	0,906600
14,425167	0,5	0,905650
14,433500	0,5	0,919650
14,441833	0,5	0,932750
14,450167	0,5	0,941700
14,458500	0,5	0,951050
14,466833	0,5	0,948850
14,475167	0,5	0,962600
14,483500	0,5	0,973150
14,491833	0,5	0,995300
14,500167	0,5	1,009000
14,508500	0,5	1,034350
14,516833	0,5	1,054900
14,525167	0,5	1,084500
14,533500	0,5	1,115050
14,541833	0,5	1,144650
14,550167	0,5	1,176350
14,558500	0,5	1,210000
14,566833	0,5	1,234450
14,575167	0,5	1,243400
14,583500	0,5	1,270700
14,591833	0,5	1,284850
14,600167	0,5	1,287850
14,608500	0,5	1,287150
14,616833	0,5	1,281550
14,625167	0,5	1,296400
14,633500	0,5	1,318150
14,641833	0,5	1,337150
14,650167	0,5	1,367550
14,658500	0,5	1,401400
14,666833	0,5	1,433700
14,675167	0,5	1,466200
14,683500	0,5	1,503300
14,691833	0,5	1,532000
14,700167	0,5	1,569150
14,708500	0,5	1,607750
14,716833	0,5	1,652200
14,725167	0,5	1,683500
14,733500	0,5	1,738950
14,741833	0,5	1,767900
14,750167	0,5	1,793000
14,758500	0,5	1,808500
14,766833	0,5	1,825750
14,775167	0,5	1,871100
14,783500	0,5	1,913600
14,791833	0,5	1,962050
14,800167	0,5	2,011900
14,808500	0,5	2,071050
14,816833	0,5	2,116000
14,825167	0,5	2,145300
14,833500	0,5	2,148950
14,841833	0,5	2,133650
14,850167	0,5	2,098600
14,858500	0,5	2,066450
14,866833	0,5	2,014350
14,875167	0,5	1,987300
14,883500	0,5	1,966050
14,891833	0,5	1,956000
14,900167	0,5	1,945350
14,908500	0,5	1,941300
14,916833	0,5	1,946650
14,925167	0,5	1,958900
14,933500	0,5	1,952050
14,941833	0,5	1,934300
14,950167	0,5	1,908200
14,958500	0,5	1,872150
14,966833	0,5	1,844250
14,975167	0,5	1,817650
14,983500	0,5	1,803900
14,991833	0,5	1,784400
15,000167	0,5	1,780500
15,008500	0,5	1,777250
15,016833	0,5	1,768300
15,025167	0,5	1,769600
15,033500	0,5	1,771900
15,041833	0,5	1,760900
15,050167	0,5	1,750850
15,058500	0,5	1,731700
15,066833	0,5	1,722100
15,075167	0,5	1,716600
15,083500	0,5	1,713400
15,091833	0,5	1,703500
15,100167	0,5	1,700600
15,108500	0,5	1,693800
15,116833	0,5	1,691450
15,125167	0,5	1,686300
15,133500	0,5	1,676350
15,141833	0,5	1,669100
15,150167	0,5	1,659800
15,158500	0,5	1,655300
15,166833	0,5	1,642650
15,175167	0,5	1,646450
15,183500	0,5	1,634650
15,191833	0,5	1,626700
15,200167	0,5	1,603700
15,208500	0,5	1,586550
15,216833	0,5	1,578850
15,225167	0,5	1,580250
15,233500	0,5	1,571900
15,241833	0,5	1,572550
15,250167	0,5	1,566050
15,258500	0,5	1,567250
15,266833	0,5	1,563900
15,275167	0,5	1,556100
15,283500	0,5	1,551500
15,291833	0,5	1,546050
15,300167	0,5	1,547650
15,308500	0,5	1,537100
15,316833	0,5	1,536750
15,325167	0,5	1,537700
15,333500	0,5	1,529450
15,341833	0,5	1,523500
15,350167	0,5	1,505450
15,358500	0,5	1,495600
15,366833	0,5	1,504500
15,375167	0,5	1,500550
15,383500	0,5	1,504250
15,391833	0,5	1,505950
15,400167	0,5	1,508300
15,408500	0,5	1,507750
15,416833	0,5	1,515950
15,425167	0,5	1,516250
15,433500	0,5	1,511750
15,441833	0,5	1,515850
15,450167	0,5	1,514350
15,458500	0,5	1,497750
15,466833	0,5	1,506750
15,475167	0,5	1,510150
15,483500	0,5	1,503000
15,491833	0,5	1,492450
15,500167	0,5	1,465350
15,508500	0,5	1,460150
15,516833	0,5	1,443300
15,525167	0,5	1,434150
15,533500	0,5	1,423950
15,541833	0,5	1,423300
15,550167	0,5	1,413250
15,558500	0,5	1,415400
15,566833	0,5	1,405950
15,575167	0,5	1,404150
15,583500	0,5	1,409650
15,591833	0,5	1,420050
15,600167	0,5	1,416500
15,608500	0,5	1,412050
15,616833	0,5	1,415350
15,625167	0,5	1,404850
15,633500	0,5	1,387250
15,641833	0,5	1,363300
15,650167	0,5	1,340800
15,658500	0,5	1,336250
15,666833	0,5	1,328600
15,675167	0,5	1,319050
15,683500	0,5	1,312100
15,691833	0,5	1,304700
15,700167	0,5	1,302650
15,708500	0,5	1,294850
15,716833	0,5	1,292500
15,725167	0,5	1,285400
15,733500	0,5	1,279400
15,741833	0,5	1,283900
15,750167	0,5	1,274200
15,758500	0,5	1,269250
15,766833	0,5	1,275650
15,775167	0,5	1,275750
15,783500	0,5	1,266550
15,791833	0,5	1,250650
15,800167	0,5	1,240950
15,808500	0,5	1,247500
15,816833	0,5	1,245900
15,825167	0,5	1,241950
15,833500	0,5	1,237850
15,841833	0,5	1,235800
15,850167	0,5	1,232300
15,858500	0,5	1,230300
15,866833	0,5	1,223400
15,875167	0,5	1,223100
15,883500	0,5	1,220750
15,891833	0,5	1,225300
15,900167	0,5	1,209450
15,908500	0,5	1,217700
15,916833	0,5	1,212150
15,925167	0,5	1,204700
15,933500	0,5	1,187100
15,941833	0,5	1,165500
15,950167	0,5	1,155700
15,958500	0,5	1,152200
15,966833	0,5	1,144600
15,975167	0,5	1,141550
15,983500	0,5	1,140550
15,991833	0,5	1,139300
16,000167	0,5	1,140200
16,008500	0,5	1,137100
16,016833	0,5	1,136300
16,025167	0,5	1,133750
16,033500	0,5	1,141350
16,041833	0,5	1,133600
16,050167	0,5	1,117800
16,058500	0,5	1,117550
16,066833	0,5	1,113550
16,075167	0,5	1,101200
16,083500	0,5	1,086550
16,091833	0,5	1,066050
16,100167	0,5	1,065600
16,108500	0,5	1,063800
16,116833	0,5	1,063550
16,125167	0,5	1,063500
16,133500	0,5	1,061550
16,141833	0,5	1,052100
16,150167	0,5	1,051750
16,158500	0,5	1,050800
16,166833	0,5	1,046350
16,175167	0,5	1,048200
16,183500	0,5	1,042150
16,191833	0,5	1,034600
16,200167	0,5	1,026100
16,208500	0,5	1,028550
16,216833	0,5	1,019100
16,225167	0,5	1,011900
16,233500	0,5	0,986600
16,241833	0,5	0,968250
16,250167	0,5	0,959050
16,258500	0,5	0,957800
16,266833	0,5	0,948600
16,275167	0,5	0,945200
16,283500	0,5	0,936150
16,291833	0,5	0,930450
16,300167	0,5	0,922550
16,308500	0,5	0,916100
16,316833	0,5	0,909600
16,325167	0,5	0,908200
16,333500	0,5	0,911250
16,341833	0,5	0,895300
16,350167	0,5	0,903750
16,358500	0,5	0,911950
16,366833	0,5	0,909150
16,375167	0,5	0,900550
16,383500	0,5	0,890050
16,391833	0,5	0,890600
16,400167	0,5	0,908050
16,408500	0,5	0,906100
16,416833	0,5	0,912850
16,425167	0,5	0,910200
16,433500	0,5	0,912300
16,441833	0,5	0,909200
16,450167	0,5	0,911850
16,458500	0,5	0,910200
16,466833	0,5	0,900650
16,475167	0,5	0,905600
16,483500	0,5	0,891400
16,491833	0,5	0,867700
16,500167	0,5	0,867750
16,508500	0,5	0,858750
16,516833	0,5	0,840600
16,525167	0,5	0,819250
16,533500	0,5	0,797650
16,541833	0,5	0,799000
16,550167	0,5	0,789850
16,558500	0,5	0,784750
16,566833	0,5	0,774050
16,575167	0,5	0,772450
16,583500	0,5	0,764700
16,591833	0,5	0,766700
16,600167	0,5	0,756750
16,608500	0,5	0,755600
16,616833	0,5	0,748150
16,625167	0,5	0,752300
16,633500	0,5	0,736200
16,641833	0,5	0,739650
16,650167	0,5	0,741950
16,658500	0,5	0,744800
16,666833	0,5	0,736750
16,675167	0,5	0,719700
16,683500	0,5	0,717950
16,691833	0,5	0,715850
16,700167	0,5	0,718050
16,708500	0,5	0,708550
16,716833	0,5	0,706000
16,725167	0,5	0,698050
16,733500	0,5	0,692600
16,741833	0,5	0,685350
16,750167	0,5	0,680550
16,758500	0,5	0,668850
16,766833	0,5	0,660750
16,775167	0,5	0,657550
16,783500	0,5	0,638650
16,791833	0,5	0,639600
16,800167	0,5	0,637600
16,808500	0,5	0,628950
16,816833	0,5	0,614100
16,825167	0,5	0,588000
16,833500	0,5	0,591100
16,841833	0,5	0,590100
16,850167	0,5	0,587550
16,858500	0,5	0,581250
16,866833	0,5	0,578400
16,875167	0,5	0,580000
16,883500	0,5	0,575600
16,891833	0,5	0,579500
16,900167	0,5	0,576750
16,908500	0,5	0,579950
16,916833	0,5	0,587700
16,925167	0,5	0,593850
16,933500	0,5	0,580600
16,941833	0,5	0,602350
16,950167	0,5	0,602600
16,958500	0,5	0,605950
16,966833	0,5	0,594250
16,975167	0,5	0,581900
16,983500	0,5	0,585650
16,991833	0,5	0,588650
17,000167	0,5	0,577200
17,008500	0,5	0,570800
17,016833	0,5	0,568200
17,025167	0,5	0,564300
17,033500	0,5	0,558550
17,041833	0,5	0,550800
17,050167	0,5	0,542250
17,058500	0,5	0,536100
17,066833	0,5	0,544650
17,075167	0,5	0,530500
17,083500	0,5	0,519750
17,091833	0,5	0,517900
17,100167	0,5	0,510050
17,108500	0,5	0,502050
17,116833	0,5	0,483950
17,125167	0,5	0,471200
17,133500	0,5	0,477800
17,141833	0,5	0,482250
17,150167	0,5	0,487150
17,158500	0,5	0,491600
17,166833	0,5	0,498000
17,175167	0,5	0,497400
17,183500	0,5	0,500400
17,191833	0,5	0,496550
17,200167	0,5	0,487600
17,208500	0,5	0,492600
17,216833	0,5	0,486300
17,225167	0,5	0,474450
17,233500	0,5	0,475150
17,241833	0,5	0,480350
17,250167	0,5	0,479650
17,258500	0,5	0,490000
17,266833	0,5	0,491750
17,275167	0,5	0,520700
17,283500	0,5	0,567050
17,291833	0,5	0,621200
17,300167	0,5	0,672300
17,308500	0,5	0,725650
17,316833	0,5	0,750750
17,325167	0,5	0,755500
17,333500	0,5	0,734200
17,341833	0,5	0,685900
17,350167	0,5	0,632550
17,358500	0,5	0,585700
17,366833	0,5	0,530400
17,375167	0,5	0,484900
17,383500	0,5	0,464700
17,391833	0,5	0,450450
17,400167	0,5	0,435300
17,408500	0,5	0,411600
17,416833	0,5	0,401300
17,425167	0,5	0,399350
17,433500	0,5	0,410750
17,441833	0,5	0,408450
17,450167	0,5	0,418750
17,458500	0,5	0,420950
17,466833	0,5	0,436650
17,475167	0,5	0,445350
17,483500	0,5	0,462250
17,491833	0,5	0,479000
17,500167	0,5	0,496300
17,508500	0,5	0,520250
17,516833	0,5	0,518750
17,525167	0,5	0,526800
17,533500	0,5	0,540600
17,541833	0,5	0,546850
17,550167	0,5	0,546700
17,558500	0,5	0,539450
17,566833	0,5	0,550350
17,575167	0,5	0,577150
17,583500	0,5	0,598350
17,591833	0,5	0,619350
17,600167	0,5	0,635900
17,608500	0,5	0,658100
17,616833	0,5	0,667900
17,625167	0,5	0,684850
17,633500	0,5	0,683650
17,641833	0,5	0,683000
17,650167	0,5	0,682000
17,658500	0,5	0,681050
17,666833	0,5	0,646800
17,675167	0,5	0,651200
17,683500	0,5	0,636550
17,691833	0,5	0,625900
17,700167	0,5	0,606750
17,708500	0,5	0,577200
17,716833	0,5	0,584350
17,725167	0,5	0,582000
17,733500	0,5	0,588050
17,741833	0,5	0,592350
17,750167	0,5	0,609550
17,758500	0,5	0,617450
17,766833	0,5	0,620200
17,775167	0,5	0,623700
17,783500	0,5	0,623250
17,791833	0,5	0,611350
17,800167	0,5	0,612350
17,808500	0,5	0,603650
17,816833	0,5	0,584600
17,825167	0,5	0,592200
17,833500	0,5	0,597800
17,841833	0,5	0,593700
17,850167	0,5	0,593900
17,858500	0,5	0,585800
17,866833	0,5	0,612200
17,875167	0,5	0,646700
17,883500	0,5	0,691600
17,891833	0,5	0,767600
17,900167	0,5	0,883200
17,908500	0,5	1,060000
17,916833	0,5	1,292450
17,925167	0,5	1,579400
17,933500	0,5	1,864800
17,941833	0,5	2,116700
17,950167	0,5	2,277000
17,958500	0,5	2,304300
17,966833	0,5	2,194000
17,975167	0,5	1,984300
17,983500	0,5	1,698550
17,991833	0,5	1,399200
18,000167	0,5	1,112650
18,008500	0,5	0,879250
18,016833	0,5	0,718400
18,025167	0,5	0,601050
18,033500	0,5	0,514050
18,041833	0,5	0,457050
18,050167	0,5	0,414750
18,058500	0,5	0,386100
18,066833	0,5	0,363650
18,075167	0,5	0,342350
18,083500	0,5	0,330450
18,091833	0,5	0,315450
18,100167	0,5	0,310000
18,108500	0,5	0,291800
18,116833	0,5	0,294550
18,125167	0,5	0,286450
18,133500	0,5	0,276950
18,141833	0,5	0,256250
18,150167	0,5	0,238750
18,158500	0,5	0,234150
18,166833	0,5	0,237150
18,175167	0,5	0,238000
18,183500	0,5	0,243300
18,191833	0,5	0,235750
18,200167	0,5	0,237100
18,208500	0,5	0,229350
18,216833	0,5	0,219000
18,225167	0,5	0,208050
18,233500	0,5	0,189800
18,241833	0,5	0,188250
18,250167	0,5	0,166500
18,258500	0,5	0,147650
18,266833	0,5	0,143050
18,275167	0,5	0,131550
18,283500	0,5	0,114250
18,291833	0,5	0,093600
18,300167	0,5	0,071900
18,308500	0,5	0,066000
18,316833	0,5	0,059300
18,325167	0,5	0,057000
18,333500	0,5	0,044350
18,341833	0,5	0,042650
18,350167	0,5	0,035550
18,358500	0,5	0,035600
18,366833	0,5	0,029150
18,375167	0,5	0,016600
18,383500	0,5	0,020550
18,391833	0,5	0,018300
18,400167	0,5	-0,002800
18,408500	0,5	-0,007800
18,416833	0,5	-0,007250
18,425167	0,5	-0,022300
18,433500	0,5	-0,032650
18,441833	0,5	-0,064300
18,450167	0,5	-0,071200
18,458500	0,5	-0,077700
18,466833	0,5	-0,082650
18,475167	0,5	-0,094550
18,483500	0,5	-0,095250
18,491833	0,5	-0,101150
18,500167	0,5	-0,101650
18,508500	0,5	-0,110950
18,516833	0,5	-0,112200
18,525167	0,5	-0,120600
18,533500	0,5	-0,120300
18,541833	0,5	-0,120050
18,550167	0,5	-0,140100
18,558500	0,5	-0,126500
18,566833	0,5	-0,131750
18,575167	0,5	-0,139350
18,583500	0,5	-0,148150
18,591833	0,5	-0,163750
18,600167	0,5	-0,165900
18,608500	0,5	-0,162750
18,616833	0,5	-0,179950
18,625167	0,5	-0,178800
18,633500	0,5	-0,189800
18,641833	0,5	-0,188350
18,650167	0,5	-0,194150
18,658500	0,5	-0,195350
18,666833	0,5	-0,202500
18,675167	0,5	-0,207350
18,683500	0,5	-0,204400
18,691833	0,5	-0,213650
18,700167	0,5	-0,226800
18,708500	0,5	-0,210750
18,716833	0,5	-0,217150
18,725167	0,5	-0,225750
18,733500	0,5	-0,236400
18,741833	0,5	-0,253950
18,750167	0,5	-0,246950
18,758500	0,5	-0,256900
18,766833	0,5	-0,254300
18,775167	0,5	-0,264900
18,783500	0,5	-0,260700
18,791833	0,5	-0,273200
18,800167	0,5	-0,264800
18,808500	0,5	-0,272200
18,816833	0,5	-0,273150
18,825167	0,5	-0,268300
18,833500	0,5	-0,259550
18,841833	0,5	-0,266900
18,850167	0,5	-0,256450
18,858500	0,5	-0,246800
18,866833	0,5	-0,240450
18,875167	0,5	-0,237950
18,883500	0,5	-0,242500
18,891833	0,5	-0,230450
18,900167	0,5	-0,215050
18,908500	0,5	-0,194200
18,916833	0,5	-0,178900
18,925167	0,5	-0,156550
18,933500	0,5	-0,141050
18,941833	0,5	-0,117800
18,950167	0,5	-0,100050
18,958500	0,5	-0,078900
18,966833	0,5	-0,060100
18,975167	0,5	-0,037100
18,983500	0,5	-0,024600
18,991833	0,5	-0,016350
19,000167	0,5	0,006500
19,008500	0,5	0,020850
19,016833	0,5	0,025550
19,025167	0,5	0,023400
19,033500	0,5	0,011400
19,041833	0,5	0,010550
19,050167	0,5	0,020750
19,058500	0,5	0,015150
19,066833	0,5	0,013100
19,075167	0,5	0,001250
19,083500	0,5	-0,002000
19,091833	0,5	-0,022800
19,100167	0,5	-0,040100
19,108500	0,5	-0,058450
19,116833	0,5	-0,069500
19,125167	0,5	-0,084200
19,133500	0,5	-0,101250
19,141833	0,5	-0,121950
19,150167	0,5	-0,124450
19,158500	0,5	-0,142900
19,166833	0,5	-0,163000
19,175167	0,5	-0,199400
19,183500	0,5	-0,226600
19,191833	0,5	-0,242800
19,200167	0,5	-0,254000
19,208500	0,5	-0,270050
19,216833	0,5	-0,284650
19,225167	0,5	-0,298700
19,233500	0,5	-0,316650
19,241833	0,5	-0,324800
19,250167	0,5	-0,339350
19,258500	0,5	-0,348950
19,266833	0,5	-0,354450
19,275167	0,5	-0,357300
19,283500	0,5	-0,379350
19,291833	0,5	-0,374800
19,300167	0,5	-0,377900
19,308500	0,5	-0,384200
19,316833	0,5	-0,389700
19,325167	0,5	-0,404750
19,333500	0,5	-0,408550
19,341833	0,5	-0,410900
19,350167	0,5	-0,410950
19,358500	0,5	-0,406200
19,366833	0,5	-0,395600
19,375167	0,5	-0,383300
19,383500	0,5	-0,362000
19,391833	0,5	-0,338200
19,400167	0,5	-0,307500
19,408500	0,5	-0,281500
19,416833	0,5	-0,248100
19,425167	0,5	-0,242100
19,433500	0,5	-0,251800
19,441833	0,5	-0,259050
19,450167	0,5	-0,284150
19,458500	0,5	-0,325300
19,466833	0,5	-0,371800
19,475167	0,5	-0,424900
19,483500	0,5	-0,443100
19,491833	0,5	-0,466550
19,500167	0,5	-0,481050
19,508500	0,5	-0,492350
19,516833	0,5	-0,499150
19,525167	0,5	-0,501550
19,533500	0,5	-0,499950
19,541833	0,5	-0,496550
19,550167	0,5	-0,500200
19,558500	0,5	-0,493700
19,566833	0,5	-0,492750
19,575167	0,5	-0,509150
19,583500	0,5	-0,518250
19,591833	0,5	-0,530800
19,600167	0,5	-0,545200
19,608500	0,5	-0,571600
19,616833	0,5	-0,610800
19,625167	0,5	-0,627550
19,633500	0,5	-0,637300
19,641833	0,5	-0,646150
19,650167	0,5	-0,662000
19,658500	0,5	-0,656800
19,666833	0,5	-0,659150
19,675167	0,5	-0,651350
19,683500	0,5	-0,640400
19,691833	0,5	-0,625900
19,700167	0,5	-0,615500
19,708500	0,5	-0,609900
19,716833	0,5	-0,589050
19,725167	0,5	-0,603650
19,733500	0,5	-0,577150
19,741833	0,5	-0,570800
19,750167	0,5	-0,558000
19,758500	0,5	-0,560250
19,766833	0,5	-0,572600
19,775167	0,5	-0,583800
19,783500	0,5	-0,598200
19,791833	0,5	-0,640050
19,800167	0,5	-0,674200
19,808500	0,5	-0,713650
19,816833	0,5	-0,742950
19,825167	0,5	-0,765100
19,833500	0,5	-0,781100
19,841833	0,5	-0,797750
19,850167	0,5	-0,801450
19,858500	0,5	-0,800150
19,866833	0,5	-0,795300
19,875167	0,5	-0,810350
19,883500	0,5	-0,797150
19,891833	0,5	-0,804450
19,900167	0,5	-0,810250
19,908500	0,5	-0,824700
19,916833	0,5	-0,840650
19,925167	0,5	-0,828300
19,933500	0,5	-0,828450
19,941833	0,5	-0,816000
19,950167	0,5	-0,812250
19,958500	0,5	-0,795000
19,966833	0,5	-0,781450
19,975167	0,5	-0,765050
19,983500	0,5	-0,765150
19,991833	0,5	-0,778700
20,000167	0,5	-0,798000
20,008500	0,5	-0,823750
20,016833	0,5	-0,858700
20,025167	0,5	-0,879650
20,033500	0,5	-0,893050
20,041833	0,5	-0,905650
20,050167	0,5	-0,921150
20,058500	0,5	-0,940550
20,066833	0,5	-0,952900
20,075167	0,5	-0,958200
20,083500	0,5	-0,954350
20,091833	0,5	-0,963200
20,100167	0,5	-0,962200
20,108500	0,5	-0,972650
20,116833	0,5	-0,968300
20,125167	0,5	-0,973550
20,133500	0,5	-0,974800
20,141833	0,5	-0,980450
20,150167	0,5	-0,969550
20,158500	0,5	-0,964700
20,166833	0,5	-0,964700
20,175167	0,5	-0,945400
20,183500	0,5	-0,928900
20,191833	0,5	-0,917550
20,200167	0,5	-0,915950
20,208500	0,5	-0,902750
20,216833	0,5	-0,888800
20,225167	0,5	-0,858550
20,233500	0,5	-0,844450
20,241833	0,5	-0,835850
20,250167	0,5	-0,853550
20,258500	0,5	-0,886200
20,266833	0,5	-0,928900
20,275167	0,5	-0,961400
20,283500	0,5	-0,994250
20,291833	0,5	-1,010800
20,300167	0,5	-1,006950
20,308500	0,5	-1,017650
20,316833	0,5	-1,018000
20,325167	0,5	-1,006050
20,333500	0,5	-0,999300
20,341833	0,5	-0,993350
20,350167	0,5	-0,999850
20,358500	0,5	-0,994550
20,366833	0,5	-0,966900
20,375167	0,5	-0,954850
20,383500	0,5	-0,933500
20,391833	0,5	-0,918200
20,400167	0,5	-0,898800
20,408500	0,5	-0,905150
20,416833	0,5	-0,911050
20,425167	0,5	-0,943900
20,433500	0,5	-0,975500
20,441833	0,5	-0,991650
20,450167	0,5	-1,004750
20,458500	0,5	-1,036550
20,466833	0,5	-1,041300
20,475167	0,5	-1,044250
20,483500	0,5	-1,050650
20,491833	0,5	-1,052900
20,500167	0,5	-1,075550
20,508500	0,5	-1,056050
20,516833	0,5	-1,053650
20,525167	0,5	-1,043250
20,533500	0,5	-1,044000
20,541833	0,5	-1,036450
20,550167	0,5	-1,034050
20,558500	0,5	-1,025150
20,566833	0,5	-1,017550
20,575167	0,5	-1,001700
20,583500	0,5	-0,979700
20,591833	0,5	-0,930750
20,600167	0,5	-0,901350
20,608500	0,5	-0,886450
20,616833	0,5	-0,877450
20,625167	0,5	-0,883750
20,633500	0,5	-0,899950
20,641833	0,5	-0,917950
20,650167	0,5	-0,930350
20,658500	0,5	-0,931100
20,666833	0,5	-0,934250
20,675167	0,5	-0,946400
20,683500	0,5	-0,950900
20,691833	0,5	-0,961350
20,700167	0,5	-0,968400
20,708500	0,5	-0,977900
20,716833	0,5	-0,981300
20,725167	0,5	-0,994450
20,733500	0,5	-0,990600
20,741833	0,5	-0,987550
20,750167	0,5	-0,999750
20,758500	0,5	-1,009400
20,766833	0,5	-1,008850
20,775167	0,5	-1,007500
20,783500	0,5	-1,013200
20,791833	0,5	-1,027600
20,800167	0,5	-1,030850
20,808500	0,5	-1,026950
20,816833	0,5	-1,038650
20,825167	0,5	-1,044550
20,833500	0,5	-1,052400
20,841833	0,5	-1,051150
20,850167	0,5	-1,050650
20,858500	0,5	-1,041600
20,866833	0,5	-1,043000
20,875167	0,5	-1,038600
20,883500	0,5	-1,021550
20,891833	0,5	-1,022100
20,900167	0,5	-1,041800
20,908500	0,5	-1,041200
20,916833	0,5	-1,050050
20,925167	0,5	-1,045500
20,933500	0,5	-1,056750
20,941833	0,5	-1,072600
20,950167	0,5	-1,063450
20,958500	0,5	-1,064950
20,966833	0,5	-1,060450
20,975167	0,5	-1,066600
20,983500	0,5	-1,069650
20,991833	0,5	-1,075250
21,000167	0,5	-1,072050
21,008500	0,5	-1,069150
21,016833	0,5	-1,065050
21,025167	0,5	-1,054350
21,033500	0,5	-1,026350
21,041833	0,5	-1,013500
21,050167	0,5	-1,012650
21,058500	0,5	-1,005400
21,066833	0,5	-1,014950
21,075167	0,5	-1,027150
21,083500	0,5	-1,050700
21,091833	0,5	-1,062350
21,100167	0,5	-1,064050
21,108500	0,5	-1,057350
21,116833	0,5	-1,049900
21,125167	0,5	-1,039300
21,133500	0,5	-1,023850
21,141833	0,5	-1,014650
21,150167	0,5	-1,006950
21,158500	0,5	-0,995550
21,166833	0,5	-0,997200
21,175167	0,5	-0,969550
21,183500	0,5	-0,960600
21,191833	0,5	-0,963600
21,200167	0,5	-0,967500
21,208500	0,5	-0,971000
21,216833	0,5	-0,984700
21,225167	0,5	-0,999050
21,233500	0,5	-1,010800
21,241833	0,5	-1,011500
21,250167	0,5	-0,999950
21,258500	0,5	-0,990750
21,266833	0,5	-0,981600
21,275167	0,5	-0,967300
21,283500	0,5	-0,957700
21,291833	0,5	-0,947900
21,300167	0,5	-0,933500
21,308500	0,5	-0,931350
21,316833	0,5	-0,917400
21,325167	0,5	-0,896150
21,333500	0,5	-0,889800
21,341833	0,5	-0,893400
21,350167	0,5	-0,891300
21,358500	0,5	-0,893650
21,366833	0,5	-0,890700
21,375167	0,5	-0,903400
21,383500	0,5	-0,897250
21,391833	0,5	-0,884450
21,400167	0,5	-0,872650
21,408500	0,5	-0,861250
21,416833	0,5	-0,852600
21,425167	0,5	-0,842600
21,433500	0,5	-0,835000
21,441833	0,5	-0,819050
21,450167	0,5	-0,814450
21,458500	0,5	-0,806500
21,466833	0,5	-0,782500
21,475167	0,5	-0,755350
21,483500	0,5	-0,750200
21,491833	0,5	-0,726750
21,500167	0,5	-0,708550
21,508500	0,5	-0,699700
21,516833	0,5	-0,708900
21,525167	0,5	-0,723750
21,533500	0,5	-0,712650
21,541833	0,5	-0,713800
21,550167	0,5	-0,707500
21,558500	0,5	-0,698000
21,566833	0,5	-0,686600
21,575167	0,5	-0,674450
21,583500	0,5	-0,653250
21,591833	0,5	-0,632850
21,600167	0,5	-0,606550
21,608500	0,5	-0,573050
21,616833	0,5	-0,503050
21,625167	0,5	-0,452700
21,633500	0,5	-0,392800
21,641833	0,5	-0,323150
21,650167	0,5	-0,260250
21,658500	0,5	-0,247200
21,666833	0,5	-0,261200
21,675167	0,5	-0,299050
21,683500	0,5	-0,328400
21,691833	0,5	-0,350150
21,700167	0,5	-0,369100
21,708500	0,5	-0,364400
21,716833	0,5	-0,354050
21,725167	0,5	-0,348750
21,733500	0,5	-0,347050
21,741833	0,5	-0,341200
21,750167	0,5	-0,347700
21,758500	0,5	-0,338450
21,766833	0,5	-0,321850
21,775167	0,5	-0,320650
21,783500	0,5	-0,304000
21,791833	0,5	-0,284150
21,800167	0,5	-0,269250
21,808500	0,5	-0,251450
21,816833	0,5	-0,241800
21,825167	0,5	-0,205200
21,833500	0,5	-0,173100
21,841833	0,5	-0,144450
21,850167	0,5	-0,121050
21,858500	0,5	-0,092950
21,866833	0,5	-0,065500
21,875167	0,5	-0,044300
21,883500	0,5	-0,007000
21,891833	0,5	0,020300
21,900167	0,5	0,059500
21,908500	0,5	0,093500
21,916833	0,5	0,113800
21,925167	0,5	0,114300
21,933500	0,5	0,147800
21,941833	0,5	0,150950
21,950167	0,5	0,163200
21,958500	0,5	0,165250
21,966833	0,5	0,174250
21,975167	0,5	0,199750
21,983500	0,5	0,223900
21,991833	0,5	0,249550
22,000167	0,5	0,272800
22,008500	0,5	0,301200
22,016833	0,5	0,321600
22,025167	0,5	0,352700
22,033500	0,5	0,379400
22,041833	0,5	0,408050
22,050167	0,5	0,439350
22,058500	0,5	0,474150
22,066833	0,5	0,494000
22,075167	0,5	0,550650
22,083500	0,5	0,588900
22,091833	0,5	0,615250
22,100167	0,5	0,636400
22,108500	0,5	0,656650
22,116833	0,5	0,688050
22,125167	0,5	0,727250
22,133500	0,5	0,768050
22,141833	0,5	0,817250
22,150167	0,5	0,873300
22,158500	0,5	0,925400
22,166833	0,5	0,974150
22,175167	0,5	1,009150
22,183500	0,5	1,041450
22,191833	0,5	1,069900
22,200167	0,5	1,098400
22,208500	0,5	1,132800
22,216833	0,5	1,197850
22,225167	0,5	1,257700
22,233500	0,5	1,309350
22,241833	0,5	1,349750
22,250167	0,5	1,385700
22,258500	0,5	1,427150
22,266833	0,5	1,476050
22,275167	0,5	1,535150
22,283500	0,5	1,588950
22,291833	0,5	1,648000
22,300167	0,5	1,707400
22,308500	0,5	1,776150
22,316833	0,5	1,845300
22,325167	0,5	1,908400
22,333500	0,5	1,954500
22,341833	0,5	1,985250
22,350167	0,5	2,002400
22,358500	0,5	2,043850
22,366833	0,5	2,108600
22,375167	0,5	2,168250
22,383500	0,5	2,214150
22,391833	0,5	2,268300
22,400167	0,5	2,306050
22,408500	0,5	2,371800
22,416833	0,5	2,430650
22,425167	0,5	2,491300
22,433500	0,5	2,547050
22,441833	0,5	2,611750
22,450167	0,5	2,681050
22,458500	0,5	2,739650
22,466833	0,5	2,815500
22,475167	0,5	2,885950
22,483500	0,5	2,964200
22,491833	0,5	2,994650
22,500167	0,5	3,062050
22,508500	0,5	3,118100
22,516833	0,5	3,191500
22,525167	0,5	3,237600
22,533500	0,5	3,288250
22,541833	0,5	3,320700
22,550167	0,5	3,349400
22,558500	0,5	3,401650
22,566833	0,5	3,440550
22,575167	0,5	3,479250
22,583500	0,5	3,510750
22,591833	0,5	3,536000
22,600167	0,5	3,552950
22,608500	0,5	3,566300
22,616833	0,5	3,571050
22,625167	0,5	3,570100
22,633500	0,5	3,537800
22,641833	0,5	3,501300
22,650167	0,5	3,480050
22,658500	0,5	3,476100
22,666833	0,5	3,432400
22,675167	0,5	3,387600
22,683500	0,5	3,312750
22,691833	0,5	3,232900
22,700167	0,5	3,151900
22,708500	0,5	3,076050
22,716833	0,5	2,984450
22,725167	0,5	2,890550
22,733500	0,5	2,790700
22,741833	0,5	2,688350
22,750167	0,5	2,581700
22,758500	0,5	2,466750
22,766833	0,5	2,346750
22,775167	0,5	2,217600
22,783500	0,5	2,032700
22,791833	0,5	1,898550
22,800167	0,5	1,776900
22,808500	0,5	1,644250
22,816833	0,5	1,488550
22,825167	0,5	1,329300
22,833500	0,5	1,166200
22,841833	0,5	1,010700
22,850167	0,5	0,847900
22,858500	0,5	0,690100
22,866833	0,5	0,536200
22,875167	0,5	0,389450
22,883500	0,5	0,234900
22,891833	0,5	0,092000
22,900167	0,5	-0,051350
22,908500	0,5	-0,195650
22,916833	0,5	-0,330650
22,925167	0,5	-0,462200
22,933500	0,5	-0,622200
22,941833	0,5	-0,730450
22,950167	0,5	-0,865500
22,958500	0,5	-1,023400
22,966833	0,5	-1,132600
22,975167	0,5	-1,250400
22,983500	0,5	-1,341300
22,991833	0,5	-1,433800
23,000167	0,5	-1,533200
23,008500	0,5	-1,622400
23,016833	0,5	-1,695250
23,025167	0,5	-1,769000
23,033500	0,5	-1,830250
23,041833	0,5	-1,896200
23,050167	0,5	-1,956950
23,058500	0,5	-2,017850
23,066833	0,5	-2,071700
23,075167	0,5	-2,096100
23,083500	0,5	-2,155150
23,091833	0,5	-2,193750
23,100167	0,5	-2,267000
23,108500	0,5	-2,323200
23,116833	0,5	-2,352950
23,125167	0,5	-2,373400
23,133500	0,5	-2,387650
23,141833	0,5	-2,399200
23,150167	0,5	-2,420300
23,158500	0,5	-2,414500
23,166833	0,5	-2,419900
23,175167	0,5	-2,407400
23,183500	0,5	-2,404650
23,191833	0,5	-2,395350
23,200167	0,5	-2,389600
23,208500	0,5	-2,383650
23,216833	0,5	-2,371000
23,225167	0,5	-2,390300
23,233500	0,5	-2,368600
23,241833	0,5	-2,326700
23,250167	0,5	-2,346700
23,258500	0,5	-2,358800
23,266833	0,5	-2,345350
23,275167	0,5	-2,329850
23,283500	0,5	-2,304400
23,291833	0,5	-2,290500
23,300167	0,5	-2,264700
23,308500	0,5	-2,242850
23,316833	0,5	-2,208000
23,325167	0,5	-2,181450
23,333500	0,5	-2,141450
23,341833	0,5	-2,117150
23,350167	0,5	-2,084500
23,358500	0,5	-2,055150
23,366833	0,5	-2,025450
23,375167	0,5	-2,055950
23,383500	0,5	-2,005950
23,391833	0,5	-1,933950
23,400167	0,5	-1,927750
23,408500	0,5	-1,922400
23,416833	0,5	-1,908800
23,425167	0,5	-1,885250
23,433500	0,5	-1,869950
23,441833	0,5	-1,852350
23,450167	0,5	-1,833400
23,458500	0,5	-1,812900
23,466833	0,5	-1,791350
23,475167	0,5	-1,769700
23,483500	0,5	-1,750200
23,491833	0,5	-1,728500
23,500167	0,5	-1,708350
23,508500	0,5	-1,687050
23,516833	0,5	-1,753050
23,525167	0,5	-1,729150
23,533500	0,5	-1,688200
23,541833	0,5	-1,624550
23,550167	0,5	-1,607850
23,558500	0,5	-1,602300
23,566833	0,5	-1,594400
23,575167	0,5	-1,583450
23,583500	0,5	-1,573650
23,591833	0,5	-1,562450
23,600167	0,5	-1,552200
23,608500	0,5	-1,541600
23,616833	0,5	-1,531150
23,625167	0,5	-1,520200
23,633500	0,5	-1,514100
23,641833	0,5	-1,506700
23,650167	0,5	-1,499550
23,658500	0,5	-1,503700
23,666833	0,5	-1,644200
23,675167	0,5	-1,584150
23,683500	0,5	-1,555200
23,691833	0,5	-1,495400
23,700167	0,5	-1,491100
23,708500	0,5	-1,488400
23,716833	0,5	-1,489600
23,725167	0,5	-1,493000
23,733500	0,5	-1,482350
23,741833	0,5	-1,471400
23,750167	0,5	-1,464250
23,758500	0,5	-1,451150
23,766833	0,5	-1,437100
23,775167	0,5	-1,428900
23,783500	0,5	-1,414650
23,791833	0,5	-1,404400
23,800167	0,5	-1,394500
23,808500	0,5	-1,451300
23,816833	0,5	-1,523650
23,825167	0,5	-1,492800
23,833500	0,5	-1,432800
23,841833	0,5	-1,393150
23,850167	0,5	-1,386900
23,858500	0,5	-1,385200
23,866833	0,5	-1,389300
23,875167	0,5	-1,395900
23,883500	0,5	-1,382400
23,891833	0,5	-1,376700
23,900167	0,5	-1,366600
23,908500	0,5	-1,357300
23,916833	0,5	-1,343150
23,925167	0,5	-1,331600
23,933500	0,5	-1,320500
23,941833	0,5	-1,310500
23,950167	0,5	-1,306100
23,958500	0,5	-1,421650
23,966833	0,5	-1,412300
23,975167	0,5	-1,358700
23,983500	0,5	-1,303600
23,991833	0,5	-1,265750
24,000167	0,5	-1,254350
24,008500	0,5	-1,243000
24,016833	0,5	-1,245000
24,025167	0,5	-1,242250
24,033500	0,5	-1,227750
24,041833	0,5	-1,203200
24,050167	0,5	-1,188700
24,058500	0,5	-1,168800
24,066833	0,5	-1,158950
24,075167	0,5	-1,143650
24,083500	0,5	-1,128350
24,091833	0,5	-1,117050
24,100167	0,5	-1,112550
24,108500	0,5	-1,224050
24,116833	0,5	-1,189850
24,125167	0,5	-1,153450
24,133500	0,5	-1,103900
24,141833	0,5	-1,079700
24,150167	0,5	-1,071250
24,158500	0,5	-1,071650
24,166833	0,5	-1,066900
24,175167	0,5	-1,061200
24,183500	0,5	-1,038800
24,191833	0,5	-1,026750
24,200167	0,5	-1,004550
24,208500	0,5	-0,990750
24,216833	0,5	-0,964250
24,225167	0,5	-0,951200
24,233500	0,5	-0,928500
24,241833	0,5	-0,912350
24,250167	0,5	-0,946300
24,258500	0,5	-0,975550
24,266833	0,5	-0,954500
24,275167	0,5	-0,906400
24,283500	0,5	-0,868200
24,291833	0,5	-0,844850
24,300167	0,5	-0,836750
24,308500	0,5	-0,841000
24,316833	0,5	-0,840850
24,325167	0,5	-0,821050
24,333500	0,5	-0,813300
24,341833	0,5	-0,798350
24,350167	0,5	-0,788950
24,358500	0,5	-0,771950
24,366833	0,5	-0,762950
24,375167	0,5	-0,744550
24,383500	0,5	-0,736800
24,391833	0,5	-0,726100
24,400167	0,5	-0,783150
24,408500	0,5	-0,769050
24,416833	0,5	-0,752650
24,425167	0,5	-0,707450
24,433500	0,5	-0,682400
24,441833	0,5	-0,665700
24,450167	0,5	-0,654900
24,458500	0,5	-0,659450
24,466833	0,5	-0,640500
24,475167	0,5	-0,629350
24,483500	0,5	-0,612850
24,491833	0,5	-0,602600
24,500167	0,5	-0,586050
24,508500	0,5	-0,579850
24,516833	0,5	-0,563350
24,525167	0,5	-0,551550
24,533500	0,5	-0,536300
24,541833	0,5	-0,535450
24,550167	0,5	-0,587950
24,558500	0,5	-0,566050
24,566833	0,5	-0,552050
24,575167	0,5	-0,522150
24,583500	0,5	-0,503400
24,591833	0,5	-0,500150
24,600167	0,5	-0,496200
24,608500	0,5	-0,503700
24,616833	0,5	-0,489350
24,625167	0,5	-0,478400
24,633500	0,5	-0,469200
24,641833	0,5	-0,457250
24,650167	0,5	-0,448450
24,658500	0,5	-0,432200
24,666833	0,5	-0,421850
24,675167	0,5	-0,407700
24,683500	0,5	-0,401700
24,691833	0,5	-0,414800
24,700167	0,5	-0,425100
24,708500	0,5	-0,403550
24,716833	0,5	-0,387050
24,725167	0,5	-0,364100
24,733500	0,5	-0,355350
24,741833	0,5	-0,348200
24,750167	0,5	-0,350800
24,758500	0,5	-0,351000
24,766833	0,5	-0,340050
24,775167	0,5	-0,330000
24,783500	0,5	-0,325500
24,791833	0,5	-0,319350
24,800167	0,5	-0,312550
24,808500	0,5	-0,307700
24,816833	0,5	-0,299300
24,825167	0,5	-0,292850
24,833500	0,5	-0,285850
24,841833	0,5	-0,307150
24,850167	0,5	-0,296050
24,858500	0,5	-0,286200
24,866833	0,5	-0,267550
24,875167	0,5	-0,257100
24,883500	0,5	-0,248700
24,891833	0,5	-0,244350
24,900167	0,5	-0,240950
24,908500	0,5	-0,239250
24,916833	0,5	-0,234900
24,925167	0,5	-0,222600
24,933500	0,5	-0,214950
24,941833	0,5	-0,206600
24,950167	0,5	-0,199000
24,958500	0,5	-0,192100
24,966833	0,5	-0,185700
24,975167	0,5	-0,178800
24,983500	0,5	-0,177750
24,991833	0,5	-0,186350
25,000167	0,5	-0,180350
25,008500	0,5	-0,171050
25,016833	0,5	-0,163150
25,025167	0,5	-0,156000
25,033500	0,5	-0,155200
25,041833	0,5	-0,155650
25,050167	0,5	-0,155200
25,058500	0,5	-0,151450
25,066833	0,5	-0,149400
25,075167	0,5	-0,140300
25,083500	0,5	-0,138500
25,091833	0,5	-0,129350
25,100167	0,5	-0,124600
25,108500	0,5	-0,118200
25,116833	0,5	-0,112900
25,125167	0,5	-0,104950
25,133500	0,5	-0,101550
25,141833	0,5	-0,101900
25,150167	0,5	-0,094250
25,158500	0,5	-0,088900
25,166833	0,5	-0,081500
25,175167	0,5	-0,079400
25,183500	0,5	-0,073600
25,191833	0,5	-0,074250
25,200167	0,5	-0,075950
25,208500	0,5	-0,071150
25,216833	0,5	-0,072450
25,225167	0,5	-0,068900
25,233500	0,5	-0,064550
25,241833	0,5	-0,066450
25,250167	0,5	-0,063450
25,258500	0,5	-0,060850
25,266833	0,5	-0,055850
25,275167	0,5	-0,055300
25,283500	0,5	-0,050450
25,291833	0,5	-0,047800
25,300167	0,5	-0,041300
25,308500	0,5	-0,039950
25,316833	0,5	-0,038700
25,325167	0,5	-0,033250
25,333500	0,5	-0,030750
25,341833	0,5	-0,029500
25,350167	0,5	-0,024950
25,358500	0,5	-0,023150
25,366833	0,5	-0,019600
25,375167	0,5	-0,018400
25,383500	0,5	-0,015600
25,391833	0,5	-0,014100
25,400167	0,5	-0,013300
25,408500	0,5	-0,010650
25,416833	0,5	-0,007300
25,425167	0,5	-0,006300
25,433500	0,5	-0,001350
25,441833	0,5	-0,001750
25,450167	0,5	0,002850
25,458500	0,5	-0,002150
25,466833	0,5	-0,001250
25,475167	0,5	-0,000850
25,483500	0,5	0,000750
25,491833	0,5	0,004000
25,500167	0,5	0,005800
25,508500	0,5	0,008300
25,516833	0,5	0,009850
25,525167	0,5	0,013250
25,533500	0,5	0,015100
25,541833	0,5	0,018800
25,550167	0,5	0,020600
25,558500	0,5	0,022700
25,566833	0,5	0,025950
25,575167	0,5	0,031650
25,583500	0,5	0,036600
25,591833	0,5	0,040800
25,600167	0,5	0,039950
25,608500	0,5	0,035050
25,616833	0,5	0,034800
25,625167	0,5	0,037250
25,633500	0,5	0,038850
25,641833	0,5	0,045950
25,650167	0,5	0,042650
25,658500	0,5	0,044750
25,666833	0,5	0,042350
25,675167	0,5	0,043100
25,683500	0,5	0,043650
25,691833	0,5	0,043750
25,700167	0,5	0,046950
25,708500	0,5	0,047350
25,716833	0,5	0,051950
25,725167	0,5	0,061200
25,733500	0,5	0,062300
25,741833	0,5	0,065050
25,750167	0,5	0,061600
25,758500	0,5	0,058650
25,766833	0,5	0,061050
25,775167	0,5	0,063600
25,783500	0,5	0,071450
25,791833	0,5	0,077200
25,800167	0,5	0,078400
25,808500	0,5	0,076950
25,816833	0,5	0,079900
25,825167	0,5	0,079950
25,833500	0,5	0,079900
25,841833	0,5	0,081700
25,850167	0,5	0,084250
25,858500	0,5	0,083900
25,866833	0,5	0,084600
25,875167	0,5	0,094500
25,883500	0,5	0,094750
25,891833	0,5	0,101050
25,900167	0,5	0,092000
25,908500	0,5	0,091750
25,916833	0,5	0,092000
25,925167	0,5	0,097250
25,933500	0,5	0,106100
25,941833	0,5	0,113050
25,950167	0,5	0,109150
25,958500	0,5	0,113950
25,966833	0,5	0,110600
25,975167	0,5	0,113350
25,983500	0,5	0,113100
25,991833	0,5	0,111900
26,000167	0,5	0,111550
