File Path	chrom://chromeleon01/ikbm_chromeleon/2022/ICS-5000/ED1/Esteban/20220612_Cell_7_4_eg.seq/292.smp/ED_1.channel/ED_1.chm
Channel	ED_1

Injection Information:
Data Vault	ikbm_chromeleon
Injection	4_00.5h-EGS_3
Injection Number	118
Position	BC2
Comment	
Processing Method	Stop sequence after Cell Death
Instrument Method	ICS5000_PA200_FullNative_Ox_26min_ED1
Type	Unknown
Status	Finished
Injection Date	14.06.2022
Injection Time	23:53:18
Injection Volume (µl)	5,0
Dilution Factor	1,0000
Weight	1,0000

Chromatogram Data Information:
Time Min. (min)	0,000167
Time Max. (min)	26,000167
Data Points	3121
Detector	EDet1
Generating Data System	Chromeleon 7.2.9.11323
Exporting Data System	Chromeleon 7.2.9.0
Operator	Instrument Controller
Signal Quantity	
Signal Unit	nC
Signal Min.	-2,630250
Signal Max.	2 106,680481
Channel	ED_1
Driver Name	DC-5000
Channel Type	Evaluation
Min. Step (s)	0,5
Max. Step (s)	0,5
Average Step (s)	0,5

Signal Parameter Information:
Signal Info	

Chromatogram Data:
Time (min)	Step (s)	Value (nC)
0,000167	n.a.	0,007650
0,008500	0,5	-0,043850
0,016833	0,5	-0,057100
0,025167	0,5	-0,047300
0,033500	0,5	-0,041000
0,041833	0,5	-0,002250
0,050167	0,5	0,023650
0,058500	0,5	0,033050
0,066833	0,5	0,021900
0,075167	0,5	0,021600
0,083500	0,5	0,018600
0,091833	0,5	0,020900
0,100167	0,5	0,006800
0,108500	0,5	0,011850
0,116833	0,5	0,001950
0,125167	0,5	0,003600
0,133500	0,5	-0,005900
0,141833	0,5	-0,000050
0,150167	0,5	0,012000
0,158500	0,5	0,001250
0,166833	0,5	-0,024200
0,175167	0,5	-0,018050
0,183500	0,5	-0,018900
0,191833	0,5	0,014600
0,200167	0,5	0,020350
0,208500	0,5	0,014700
0,216833	0,5	0,014650
0,225167	0,5	0,010450
0,233500	0,5	0,009100
0,241833	0,5	0,001600
0,250167	0,5	-0,001150
0,258500	0,5	-0,009300
0,266833	0,5	-0,004750
0,275167	0,5	-0,009800
0,283500	0,5	-0,001900
0,291833	0,5	-0,001600
0,300167	0,5	0,067800
0,308500	0,5	0,066000
0,316833	0,5	0,035250
0,325167	0,5	-0,010700
0,333500	0,5	-0,036350
0,341833	0,5	-0,035250
0,350167	0,5	-0,031750
0,358500	0,5	-0,028700
0,366833	0,5	-0,022150
0,375167	0,5	-0,020100
0,383500	0,5	-0,024050
0,391833	0,5	-0,024400
0,400167	0,5	-0,032000
0,408500	0,5	-0,027150
0,416833	0,5	-0,035250
0,425167	0,5	-0,024450
0,433500	0,5	-0,044800
0,441833	0,5	-0,029800
0,450167	0,5	-0,018850
0,458500	0,5	-0,041550
0,466833	0,5	-0,053650
0,475167	0,5	-0,039700
0,483500	0,5	-0,032400
0,491833	0,5	-0,007000
0,500167	0,5	-0,026250
0,508500	0,5	-0,020700
0,516833	0,5	-0,029850
0,525167	0,5	-0,022050
0,533500	0,5	-0,028850
0,541833	0,5	-0,022300
0,550167	0,5	-0,031050
0,558500	0,5	-0,036100
0,566833	0,5	-0,031750
0,575167	0,5	-0,032950
0,583500	0,5	-0,045200
0,591833	0,5	-0,018800
0,600167	0,5	-0,034100
0,608500	0,5	-0,048250
0,616833	0,5	-0,051850
0,625167	0,5	-0,045450
0,633500	0,5	-0,007250
0,641833	0,5	0,002600
0,650167	0,5	-0,004750
0,658500	0,5	-0,011450
0,666833	0,5	-0,001500
0,675167	0,5	-0,013400
0,683500	0,5	-0,013700
0,691833	0,5	-0,018900
0,700167	0,5	-0,014400
0,708500	0,5	-0,017950
0,716833	0,5	-0,016950
0,725167	0,5	-0,004900
0,733500	0,5	-0,010550
0,741833	0,5	0,004800
0,750167	0,5	-0,014450
0,758500	0,5	-0,024700
0,766833	0,5	-0,027750
0,775167	0,5	-0,008950
0,783500	0,5	0,020450
0,791833	0,5	0,029600
0,800167	0,5	0,005650
0,808500	0,5	0,016250
0,816833	0,5	0,014650
0,825167	0,5	0,023100
0,833500	0,5	0,022000
0,841833	0,5	0,023050
0,850167	0,5	0,013050
0,858500	0,5	0,020950
0,866833	0,5	0,019450
0,875167	0,5	0,022550
0,883500	0,5	0,013500
0,891833	0,5	0,031050
0,900167	0,5	0,009000
0,908500	0,5	0,008950
0,916833	0,5	0,010800
0,925167	0,5	0,033250
0,933500	0,5	0,067950
0,941833	0,5	0,066300
0,950167	0,5	0,068800
0,958500	0,5	0,062050
0,966833	0,5	0,064650
0,975167	0,5	0,058950
0,983500	0,5	0,062850
0,991833	0,5	0,053950
1,000167	0,5	0,060550
1,008500	0,5	0,055800
1,016833	0,5	0,061650
1,025167	0,5	0,045750
1,033500	0,5	0,065800
1,041833	0,5	0,060650
1,050167	0,5	0,048400
1,058500	0,5	0,051650
1,066833	0,5	0,057550
1,075167	0,5	0,085550
1,083500	0,5	0,106400
1,091833	0,5	0,106600
1,100167	0,5	0,101900
1,108500	0,5	0,094050
1,116833	0,5	0,099850
1,125167	0,5	0,097200
1,133500	0,5	0,096000
1,141833	0,5	0,095550
1,150167	0,5	0,091350
1,158500	0,5	0,096900
1,166833	0,5	0,080450
1,175167	0,5	0,083950
1,183500	0,5	0,108650
1,191833	0,5	0,095600
1,200167	0,5	0,077800
1,208500	0,5	0,086900
1,216833	0,5	0,086450
1,225167	0,5	0,123800
1,233500	0,5	0,129550
1,241833	0,5	0,126350
1,250167	0,5	0,119000
1,258500	0,5	0,130600
1,266833	0,5	0,124600
1,275167	0,5	0,120150
1,283500	0,5	0,112550
1,291833	0,5	0,109600
1,300167	0,5	0,113650
1,308500	0,5	0,114900
1,316833	0,5	0,119050
1,325167	0,5	0,115050
1,333500	0,5	0,133550
1,341833	0,5	0,108800
1,350167	0,5	0,099800
1,358500	0,5	0,103150
1,366833	0,5	0,119100
1,375167	0,5	0,145200
1,383500	0,5	0,147600
1,391833	0,5	0,133200
1,400167	0,5	0,144900
1,408500	0,5	0,137600
1,416833	0,5	0,144950
1,425167	0,5	0,138350
1,433500	0,5	0,137150
1,441833	0,5	0,133650
1,450167	0,5	0,132800
1,458500	0,5	0,138950
1,466833	0,5	0,124800
1,475167	0,5	0,127650
1,483500	0,5	0,144100
1,491833	0,5	0,117450
1,500167	0,5	0,114250
1,508500	0,5	0,120650
1,516833	0,5	0,135050
1,525167	0,5	0,159000
1,533500	0,5	0,134500
1,541833	0,5	0,142750
1,550167	0,5	0,148250
1,558500	0,5	0,182200
1,566833	0,5	0,278450
1,575167	0,5	0,619100
1,583500	0,5	1,353700
1,591833	0,5	3,650550
1,600167	0,5	15,410700
1,608500	0,5	67,190951
1,616833	0,5	251,471654
1,625167	0,5	769,462161
1,633500	0,5	1 549,075723
1,641833	0,5	2 106,680481
1,650167	0,5	2 095,468631
1,658500	0,5	2 031,580880
1,666833	0,5	2 003,935880
1,675167	0,5	1 889,224378
1,683500	0,5	1 552,858773
1,691833	0,5	1 109,474367
1,700167	0,5	755,199161
1,708500	0,5	532,547258
1,716833	0,5	399,740706
1,725167	0,5	314,882505
1,733500	0,5	258,204354
1,741833	0,5	217,029953
1,750167	0,5	186,099203
1,758500	0,5	162,824602
1,766833	0,5	144,532352
1,775167	0,5	128,930602
1,783500	0,5	115,077102
1,791833	0,5	103,291152
1,800167	0,5	94,074551
1,808500	0,5	87,628301
1,816833	0,5	84,077251
1,825167	0,5	83,632851
1,833500	0,5	86,051351
1,841833	0,5	89,331701
1,850167	0,5	90,418901
1,858500	0,5	87,941101
1,866833	0,5	82,581901
1,875167	0,5	75,771751
1,883500	0,5	69,189701
1,891833	0,5	64,133851
1,900167	0,5	60,701351
1,908500	0,5	58,121051
1,916833	0,5	55,689301
1,925167	0,5	53,669851
1,933500	0,5	52,419951
1,941833	0,5	51,821551
1,950167	0,5	50,992301
1,958500	0,5	49,431001
1,966833	0,5	47,467351
1,975167	0,5	45,839151
1,983500	0,5	45,137501
1,991833	0,5	46,035351
2,000167	0,5	49,259101
2,008500	0,5	54,341151
2,016833	0,5	58,226151
2,025167	0,5	57,948751
2,033500	0,5	54,345551
2,041833	0,5	50,480501
2,050167	0,5	48,052051
2,058500	0,5	47,045301
2,066833	0,5	47,143051
2,075167	0,5	48,103601
2,083500	0,5	49,912501
2,091833	0,5	52,658301
2,100167	0,5	56,434301
2,108500	0,5	61,412001
2,116833	0,5	67,935251
2,125167	0,5	76,728551
2,133500	0,5	88,506551
2,141833	0,5	102,307052
2,150167	0,5	115,069352
2,158500	0,5	122,826652
2,166833	0,5	122,732702
2,175167	0,5	114,103602
2,183500	0,5	99,980001
2,191833	0,5	85,245101
2,200167	0,5	73,063901
2,208500	0,5	64,119701
2,216833	0,5	58,040701
2,225167	0,5	54,778051
2,233500	0,5	55,336751
2,241833	0,5	60,190401
2,250167	0,5	66,123151
2,258500	0,5	67,654051
2,266833	0,5	63,600051
2,275167	0,5	58,242001
2,283500	0,5	54,575401
2,291833	0,5	51,574501
2,300167	0,5	47,468951
2,308500	0,5	42,717201
2,316833	0,5	38,633101
2,325167	0,5	35,811801
2,333500	0,5	34,026901
2,341833	0,5	32,968700
2,350167	0,5	32,564500
2,358500	0,5	33,249250
2,366833	0,5	35,371951
2,375167	0,5	38,018151
2,383500	0,5	40,160751
2,391833	0,5	41,458801
2,400167	0,5	42,116951
2,408500	0,5	42,722951
2,416833	0,5	43,427201
2,425167	0,5	43,565751
2,433500	0,5	42,375701
2,441833	0,5	40,070801
2,450167	0,5	37,614001
2,458500	0,5	35,609501
2,466833	0,5	34,112151
2,475167	0,5	32,857250
2,483500	0,5	31,689800
2,491833	0,5	30,555750
2,500167	0,5	29,544700
2,508500	0,5	28,751100
2,516833	0,5	28,170450
2,525167	0,5	27,715100
2,533500	0,5	27,465050
2,541833	0,5	27,334300
2,550167	0,5	27,226050
2,558500	0,5	27,059550
2,566833	0,5	26,856150
2,575167	0,5	26,779400
2,583500	0,5	27,349800
2,591833	0,5	29,770350
2,600167	0,5	32,165200
2,608500	0,5	31,361350
2,616833	0,5	29,055350
2,625167	0,5	27,254750
2,633500	0,5	26,055750
2,641833	0,5	25,247150
2,650167	0,5	24,659700
2,658500	0,5	24,269950
2,666833	0,5	23,961150
2,675167	0,5	23,750450
2,683500	0,5	23,653100
2,691833	0,5	23,677950
2,700167	0,5	23,751850
2,708500	0,5	23,801100
2,716833	0,5	23,712250
2,725167	0,5	23,511600
2,733500	0,5	23,192850
2,741833	0,5	22,826250
2,750167	0,5	22,451550
2,758500	0,5	22,103600
2,766833	0,5	21,798550
2,775167	0,5	21,530750
2,783500	0,5	21,323600
2,791833	0,5	21,153700
2,800167	0,5	21,067300
2,808500	0,5	21,078600
2,816833	0,5	21,123250
2,825167	0,5	21,170250
2,833500	0,5	21,203700
2,841833	0,5	21,201850
2,850167	0,5	21,225000
2,858500	0,5	21,283850
2,866833	0,5	21,456150
2,875167	0,5	21,783050
2,883500	0,5	22,356950
2,891833	0,5	23,306650
2,900167	0,5	25,008550
2,908500	0,5	28,171200
2,916833	0,5	34,026551
2,925167	0,5	44,016201
2,933500	0,5	58,939001
2,941833	0,5	77,555501
2,950167	0,5	96,059501
2,958500	0,5	109,244002
2,966833	0,5	113,086502
2,975167	0,5	107,152702
2,983500	0,5	94,181301
2,991833	0,5	78,477701
3,000167	0,5	63,779301
3,008500	0,5	52,237651
3,016833	0,5	44,249201
3,025167	0,5	39,198551
3,033500	0,5	35,992151
3,041833	0,5	33,736001
3,050167	0,5	31,852400
3,058500	0,5	30,113200
3,066833	0,5	28,497800
3,075167	0,5	27,125100
3,083500	0,5	26,142850
3,091833	0,5	25,802200
3,100167	0,5	26,504300
3,108500	0,5	28,677200
3,116833	0,5	32,582950
3,125167	0,5	38,029051
3,133500	0,5	44,014351
3,141833	0,5	49,113751
3,150167	0,5	51,976901
3,158500	0,5	51,955951
3,166833	0,5	49,293351
3,175167	0,5	44,742951
3,183500	0,5	39,387901
3,191833	0,5	39,336401
3,200167	0,5	29,060300
3,208500	0,5	25,193550
3,216833	0,5	22,214550
3,225167	0,5	20,029300
3,233500	0,5	18,475600
3,241833	0,5	17,382300
3,250167	0,5	16,657800
3,258500	0,5	16,098750
3,266833	0,5	15,664700
3,275167	0,5	15,308200
3,283500	0,5	14,993500
3,291833	0,5	14,733700
3,300167	0,5	14,467200
3,308500	0,5	14,232150
3,316833	0,5	14,038550
3,325167	0,5	13,890600
3,333500	0,5	13,804350
3,341833	0,5	13,817300
3,350167	0,5	13,951600
3,358500	0,5	14,236300
3,366833	0,5	14,634050
3,375167	0,5	15,095550
3,383500	0,5	15,487400
3,391833	0,5	15,746250
3,400167	0,5	15,795800
3,408500	0,5	15,572950
3,416833	0,5	15,166450
3,425167	0,5	14,681550
3,433500	0,5	14,189900
3,441833	0,5	13,783550
3,450167	0,5	13,407300
3,458500	0,5	13,119000
3,466833	0,5	12,883500
3,475167	0,5	12,697700
3,483500	0,5	12,533850
3,491833	0,5	12,399650
3,500167	0,5	12,292050
3,508500	0,5	12,203050
3,516833	0,5	12,150750
3,525167	0,5	12,108700
3,533500	0,5	12,091300
3,541833	0,5	12,097950
3,550167	0,5	12,181250
3,558500	0,5	12,303500
3,566833	0,5	12,570850
3,575167	0,5	12,967300
3,583500	0,5	13,491150
3,591833	0,5	14,035100
3,600167	0,5	14,455800
3,608500	0,5	14,633050
3,616833	0,5	14,533600
3,625167	0,5	14,141100
3,633500	0,5	13,571200
3,641833	0,5	12,933000
3,650167	0,5	12,333600
3,658500	0,5	11,847050
3,666833	0,5	11,488700
3,675167	0,5	11,249900
3,683500	0,5	11,085750
3,691833	0,5	10,995000
3,700167	0,5	10,934000
3,708500	0,5	10,864000
3,716833	0,5	10,816050
3,725167	0,5	10,786200
3,733500	0,5	10,764900
3,741833	0,5	10,755150
3,750167	0,5	10,702500
3,758500	0,5	10,672250
3,766833	0,5	10,613250
3,775167	0,5	10,562800
3,783500	0,5	10,486350
3,791833	0,5	10,428350
3,800167	0,5	10,361350
3,808500	0,5	10,316000
3,816833	0,5	10,292000
3,825167	0,5	10,301100
3,833500	0,5	10,384950
3,841833	0,5	10,588000
3,850167	0,5	10,822200
3,858500	0,5	11,068750
3,866833	0,5	11,303800
3,875167	0,5	11,512200
3,883500	0,5	11,715650
3,891833	0,5	11,882050
3,900167	0,5	12,036250
3,908500	0,5	12,164600
3,916833	0,5	12,284550
3,925167	0,5	12,364950
3,933500	0,5	12,432450
3,941833	0,5	12,478850
3,950167	0,5	12,538150
3,958500	0,5	12,625150
3,966833	0,5	12,761200
3,975167	0,5	12,963400
3,983500	0,5	13,310300
3,991833	0,5	13,908650
4,000167	0,5	14,999650
4,008500	0,5	17,102450
4,016833	0,5	20,821100
4,025167	0,5	26,462900
4,033500	0,5	33,625901
4,041833	0,5	41,236501
4,050167	0,5	47,935001
4,058500	0,5	52,541151
4,066833	0,5	54,332201
4,075167	0,5	53,302251
4,083500	0,5	50,005001
4,091833	0,5	45,313151
4,100167	0,5	40,109351
4,108500	0,5	35,109201
4,116833	0,5	30,718850
4,125167	0,5	27,111100
4,133500	0,5	24,277300
4,141833	0,5	22,083950
4,150167	0,5	20,361150
4,158500	0,5	19,013050
4,166833	0,5	17,916350
4,175167	0,5	17,029200
4,183500	0,5	16,254100
4,191833	0,5	15,569400
4,200167	0,5	14,974900
4,208500	0,5	14,465500
4,216833	0,5	14,023650
4,225167	0,5	13,645300
4,233500	0,5	13,324100
4,241833	0,5	13,036500
4,250167	0,5	12,793900
4,258500	0,5	12,572600
4,266833	0,5	12,368950
4,275167	0,5	12,161900
4,283500	0,5	12,004050
4,291833	0,5	11,809400
4,300167	0,5	11,627050
4,308500	0,5	11,457250
4,316833	0,5	11,300150
4,325167	0,5	11,173100
4,333500	0,5	11,033150
4,341833	0,5	10,893550
4,350167	0,5	10,777450
4,358500	0,5	10,659350
4,366833	0,5	10,568500
4,375167	0,5	10,471300
4,383500	0,5	10,386250
4,391833	0,5	10,310450
4,400167	0,5	10,247650
4,408500	0,5	10,210650
4,416833	0,5	10,165650
4,425167	0,5	10,157350
4,433500	0,5	10,202100
4,441833	0,5	10,230750
4,450167	0,5	10,305600
4,458500	0,5	10,414350
4,466833	0,5	10,547150
4,475167	0,5	10,705550
4,483500	0,5	10,803750
4,491833	0,5	10,882250
4,500167	0,5	10,896050
4,508500	0,5	10,859450
4,516833	0,5	10,739350
4,525167	0,5	10,578000
4,533500	0,5	10,370150
4,541833	0,5	10,148750
4,550167	0,5	9,925900
4,558500	0,5	9,721550
4,566833	0,5	9,526750
4,575167	0,5	9,368600
4,583500	0,5	9,252550
4,591833	0,5	9,129600
4,600167	0,5	9,045400
4,608500	0,5	8,982000
4,616833	0,5	8,950950
4,625167	0,5	8,926100
4,633500	0,5	8,885250
4,641833	0,5	8,843600
4,650167	0,5	8,832550
4,658500	0,5	8,810550
4,666833	0,5	8,800000
4,675167	0,5	8,778700
4,683500	0,5	8,766050
4,691833	0,5	8,744400
4,700167	0,5	8,727500
4,708500	0,5	8,711000
4,716833	0,5	8,677800
4,725167	0,5	8,654900
4,733500	0,5	8,636150
4,741833	0,5	8,592800
4,750167	0,5	8,574400
4,758500	0,5	8,563650
4,766833	0,5	8,571100
4,775167	0,5	8,582850
4,783500	0,5	8,569350
4,791833	0,5	8,576600
4,800167	0,5	8,573700
4,808500	0,5	8,576800
4,816833	0,5	8,565800
4,825167	0,5	8,562800
4,833500	0,5	8,542900
4,841833	0,5	8,536950
4,850167	0,5	8,521950
4,858500	0,5	8,503700
4,866833	0,5	8,479600
4,875167	0,5	8,485850
4,883500	0,5	8,460950
4,891833	0,5	8,455150
4,900167	0,5	8,458950
4,908500	0,5	8,486050
4,916833	0,5	8,524600
4,925167	0,5	8,556250
4,933500	0,5	8,589150
4,941833	0,5	8,627300
4,950167	0,5	8,678800
4,958500	0,5	8,744650
4,966833	0,5	8,836050
4,975167	0,5	8,942600
4,983500	0,5	9,081200
4,991833	0,5	9,239750
5,000167	0,5	9,425900
5,008500	0,5	9,609350
5,016833	0,5	9,822700
5,025167	0,5	10,029100
5,033500	0,5	10,191500
5,041833	0,5	10,317400
5,050167	0,5	10,400950
5,058500	0,5	10,426300
5,066833	0,5	10,395900
5,075167	0,5	10,283750
5,083500	0,5	10,113200
5,091833	0,5	9,907350
5,100167	0,5	9,686200
5,108500	0,5	9,452950
5,116833	0,5	9,230200
5,125167	0,5	9,020900
5,133500	0,5	8,838600
5,141833	0,5	8,687400
5,150167	0,5	8,557100
5,158500	0,5	8,441350
5,166833	0,5	8,365850
5,175167	0,5	8,301700
5,183500	0,5	8,235350
5,191833	0,5	8,191700
5,200167	0,5	8,160850
5,208500	0,5	8,159500
5,216833	0,5	8,146300
5,225167	0,5	8,140000
5,233500	0,5	8,119200
5,241833	0,5	8,113250
5,250167	0,5	8,101250
5,258500	0,5	8,092850
5,266833	0,5	8,085250
5,275167	0,5	8,077350
5,283500	0,5	8,071550
5,291833	0,5	8,069350
5,300167	0,5	8,068350
5,308500	0,5	8,055750
5,316833	0,5	8,079950
5,325167	0,5	8,072750
5,333500	0,5	8,074550
5,341833	0,5	8,083600
5,350167	0,5	8,099500
5,358500	0,5	8,124700
5,366833	0,5	8,123450
5,375167	0,5	8,105700
5,383500	0,5	8,097750
5,391833	0,5	8,070050
5,400167	0,5	8,046600
5,408500	0,5	8,007900
5,416833	0,5	7,988050
5,425167	0,5	7,952200
5,433500	0,5	7,936850
5,441833	0,5	7,916900
5,450167	0,5	7,907300
5,458500	0,5	7,906300
5,466833	0,5	7,943200
5,475167	0,5	7,939050
5,483500	0,5	7,952700
5,491833	0,5	7,970500
5,500167	0,5	7,991350
5,508500	0,5	8,030750
5,516833	0,5	8,022850
5,525167	0,5	8,016200
5,533500	0,5	7,998200
5,541833	0,5	7,977700
5,550167	0,5	7,938000
5,558500	0,5	7,898400
5,566833	0,5	7,849100
5,575167	0,5	7,813900
5,583500	0,5	7,774850
5,591833	0,5	7,742600
5,600167	0,5	7,697150
5,608500	0,5	7,672850
5,616833	0,5	7,662600
5,625167	0,5	7,631600
5,633500	0,5	7,617700
5,641833	0,5	7,607400
5,650167	0,5	7,611250
5,658500	0,5	7,626450
5,666833	0,5	7,615100
5,675167	0,5	7,605200
5,683500	0,5	7,601200
5,691833	0,5	7,598050
5,700167	0,5	7,601200
5,708500	0,5	7,597800
5,716833	0,5	7,596200
5,725167	0,5	7,590550
5,733500	0,5	7,593000
5,741833	0,5	7,585800
5,750167	0,5	7,582850
5,758500	0,5	7,583250
5,766833	0,5	7,585350
5,775167	0,5	7,557950
5,783500	0,5	7,543750
5,791833	0,5	7,514650
5,800167	0,5	7,497650
5,808500	0,5	7,469800
5,816833	0,5	7,422750
5,825167	0,5	7,378500
5,833500	0,5	7,346050
5,841833	0,5	7,313650
5,850167	0,5	7,291450
5,858500	0,5	7,273100
5,866833	0,5	7,246650
5,875167	0,5	7,229500
5,883500	0,5	7,202300
5,891833	0,5	7,183250
5,900167	0,5	7,150250
5,908500	0,5	7,134950
5,916833	0,5	7,096700
5,925167	0,5	7,055750
5,933500	0,5	7,029350
5,941833	0,5	7,017500
5,950167	0,5	7,015400
5,958500	0,5	7,011700
5,966833	0,5	6,988100
5,975167	0,5	6,979100
5,983500	0,5	6,961900
5,991833	0,5	6,956050
6,000167	0,5	6,945200
6,008500	0,5	6,934250
6,016833	0,5	6,921400
6,025167	0,5	6,913650
6,033500	0,5	6,908150
6,041833	0,5	6,886350
6,050167	0,5	6,881350
6,058500	0,5	6,881200
6,066833	0,5	6,866950
6,075167	0,5	6,856400
6,083500	0,5	6,862900
6,091833	0,5	6,878750
6,100167	0,5	6,904950
6,108500	0,5	6,916300
6,116833	0,5	6,936150
6,125167	0,5	6,944400
6,133500	0,5	6,967200
6,141833	0,5	6,982850
6,150167	0,5	7,005150
6,158500	0,5	7,017700
6,166833	0,5	7,035200
6,175167	0,5	7,051150
6,183500	0,5	7,066900
6,191833	0,5	7,072650
6,200167	0,5	7,109500
6,208500	0,5	7,127300
6,216833	0,5	7,148000
6,225167	0,5	7,188150
6,233500	0,5	7,252150
6,241833	0,5	7,349450
6,250167	0,5	7,449200
6,258500	0,5	7,553750
6,266833	0,5	7,657500
6,275167	0,5	7,769700
6,283500	0,5	7,856400
6,291833	0,5	7,924250
6,300167	0,5	7,952800
6,308500	0,5	7,949900
6,316833	0,5	7,907250
6,325167	0,5	7,831250
6,333500	0,5	7,730400
6,341833	0,5	7,606250
6,350167	0,5	7,490100
6,358500	0,5	7,352350
6,366833	0,5	7,218750
6,375167	0,5	7,113050
6,383500	0,5	7,023300
6,391833	0,5	6,966850
6,400167	0,5	6,905750
6,408500	0,5	6,851200
6,416833	0,5	6,816100
6,425167	0,5	6,788200
6,433500	0,5	6,770150
6,441833	0,5	6,753550
6,450167	0,5	6,744350
6,458500	0,5	6,729550
6,466833	0,5	6,730500
6,475167	0,5	6,730250
6,483500	0,5	6,744150
6,491833	0,5	6,736300
6,500167	0,5	6,771150
6,508500	0,5	6,771100
6,516833	0,5	6,786100
6,525167	0,5	6,798450
6,533500	0,5	6,821150
6,541833	0,5	6,853500
6,550167	0,5	6,853350
6,558500	0,5	6,851250
6,566833	0,5	6,854900
6,575167	0,5	6,846650
6,583500	0,5	6,836650
6,591833	0,5	6,827600
6,600167	0,5	6,821350
6,608500	0,5	6,822850
6,616833	0,5	6,831900
6,625167	0,5	6,857900
6,633500	0,5	6,876400
6,641833	0,5	6,917450
6,650167	0,5	6,976800
6,658500	0,5	7,025000
6,666833	0,5	7,086050
6,675167	0,5	7,156400
6,683500	0,5	7,229300
6,691833	0,5	7,303250
6,700167	0,5	7,337350
6,708500	0,5	7,367950
6,716833	0,5	7,371800
6,725167	0,5	7,368750
6,733500	0,5	7,339750
6,741833	0,5	7,302650
6,750167	0,5	7,248350
6,758500	0,5	7,194800
6,766833	0,5	7,145050
6,775167	0,5	7,096350
6,783500	0,5	7,065700
6,791833	0,5	7,051650
6,800167	0,5	7,058700
6,808500	0,5	7,062750
6,816833	0,5	7,100000
6,825167	0,5	7,151250
6,833500	0,5	7,229950
6,841833	0,5	7,323050
6,850167	0,5	7,427300
6,858500	0,5	7,545450
6,866833	0,5	7,707850
6,875167	0,5	7,911700
6,883500	0,5	8,195450
6,891833	0,5	8,585350
6,900167	0,5	9,135300
6,908500	0,5	9,892850
6,916833	0,5	10,902600
6,925167	0,5	12,189250
6,933500	0,5	13,727600
6,941833	0,5	15,444650
6,950167	0,5	17,195000
6,958500	0,5	18,799300
6,966833	0,5	20,093850
6,975167	0,5	20,922350
6,983500	0,5	21,197300
6,991833	0,5	20,910150
7,000167	0,5	20,107850
7,008500	0,5	18,954400
7,016833	0,5	17,572650
7,025167	0,5	16,131350
7,033500	0,5	14,716650
7,041833	0,5	13,413250
7,050167	0,5	12,234850
7,058500	0,5	11,194600
7,066833	0,5	10,289000
7,075167	0,5	9,514350
7,083500	0,5	8,875500
7,091833	0,5	8,375800
7,100167	0,5	7,978550
7,108500	0,5	7,685850
7,116833	0,5	7,487150
7,125167	0,5	7,360550
7,133500	0,5	7,295800
7,141833	0,5	7,252050
7,150167	0,5	7,237950
7,158500	0,5	7,221450
7,166833	0,5	7,196500
7,175167	0,5	7,142500
7,183500	0,5	7,075550
7,191833	0,5	6,984350
7,200167	0,5	6,905650
7,208500	0,5	6,828850
7,216833	0,5	6,768650
7,225167	0,5	6,712500
7,233500	0,5	6,678600
7,241833	0,5	6,643300
7,250167	0,5	6,598050
7,258500	0,5	6,558650
7,266833	0,5	6,531000
7,275167	0,5	6,514500
7,283500	0,5	6,501050
7,291833	0,5	6,481850
7,300167	0,5	6,469000
7,308500	0,5	6,463500
7,316833	0,5	6,465450
7,325167	0,5	6,469050
7,333500	0,5	6,480100
7,341833	0,5	6,488900
7,350167	0,5	6,494200
7,358500	0,5	6,501850
7,366833	0,5	6,498350
7,375167	0,5	6,496850
7,383500	0,5	6,509650
7,391833	0,5	6,520000
7,400167	0,5	6,537500
7,408500	0,5	6,563950
7,416833	0,5	6,593900
7,425167	0,5	6,627850
7,433500	0,5	6,628300
7,441833	0,5	6,598600
7,450167	0,5	6,551000
7,458500	0,5	6,490950
7,466833	0,5	6,427000
7,475167	0,5	6,371000
7,483500	0,5	6,314200
7,491833	0,5	6,267350
7,500167	0,5	6,223950
7,508500	0,5	6,189200
7,516833	0,5	6,163550
7,525167	0,5	6,135850
7,533500	0,5	6,121350
7,541833	0,5	6,082550
7,550167	0,5	6,042150
7,558500	0,5	6,004850
7,566833	0,5	5,974750
7,575167	0,5	5,962200
7,583500	0,5	5,948300
7,591833	0,5	5,936700
7,600167	0,5	5,935400
7,608500	0,5	5,926300
7,616833	0,5	5,919650
7,625167	0,5	5,897300
7,633500	0,5	5,878950
7,641833	0,5	5,858000
7,650167	0,5	5,843350
7,658500	0,5	5,846550
7,666833	0,5	5,880150
7,675167	0,5	5,967950
7,683500	0,5	6,115950
7,691833	0,5	6,256650
7,700167	0,5	6,340050
7,708500	0,5	6,331600
7,716833	0,5	6,263800
7,725167	0,5	6,187000
7,733500	0,5	6,112700
7,741833	0,5	6,066450
7,750167	0,5	6,016150
7,758500	0,5	5,966000
7,766833	0,5	5,912950
7,775167	0,5	5,866400
7,783500	0,5	5,824900
7,791833	0,5	5,800750
7,800167	0,5	5,790350
7,808500	0,5	5,789700
7,816833	0,5	5,796150
7,825167	0,5	5,815800
7,833500	0,5	5,834250
7,841833	0,5	5,842900
7,850167	0,5	5,846850
7,858500	0,5	5,849150
7,866833	0,5	5,859150
7,875167	0,5	5,881200
7,883500	0,5	5,922550
7,891833	0,5	5,989350
7,900167	0,5	6,098500
7,908500	0,5	6,250850
7,916833	0,5	6,461300
7,925167	0,5	6,760200
7,933500	0,5	7,197350
7,941833	0,5	7,836600
7,950167	0,5	8,759800
7,958500	0,5	10,029600
7,966833	0,5	11,711700
7,975167	0,5	13,837450
7,983500	0,5	16,367700
7,991833	0,5	19,180000
8,000167	0,5	22,049400
8,008500	0,5	24,620550
8,016833	0,5	26,504900
8,025167	0,5	27,368300
8,033500	0,5	27,048900
8,041833	0,5	25,628700
8,050167	0,5	23,348550
8,058500	0,5	20,607300
8,066833	0,5	17,872200
8,075167	0,5	15,573300
8,083500	0,5	13,934850
8,091833	0,5	12,938650
8,100167	0,5	12,425450
8,108500	0,5	12,313800
8,116833	0,5	12,819950
8,125167	0,5	14,561400
8,133500	0,5	18,519350
8,141833	0,5	25,687550
8,150167	0,5	35,995501
8,158500	0,5	47,416401
8,166833	0,5	56,274751
8,175167	0,5	59,300401
8,183500	0,5	55,633401
8,191833	0,5	47,082601
8,200167	0,5	36,694551
8,208500	0,5	27,118350
8,216833	0,5	19,746800
8,225167	0,5	14,758050
8,233500	0,5	11,679350
8,241833	0,5	9,874100
8,250167	0,5	8,835600
8,258500	0,5	8,218250
8,266833	0,5	7,842650
8,275167	0,5	7,607900
8,283500	0,5	7,448850
8,291833	0,5	7,311450
8,300167	0,5	7,147000
8,308500	0,5	6,939600
8,316833	0,5	6,713300
8,325167	0,5	6,516900
8,333500	0,5	6,376750
8,341833	0,5	6,282100
8,350167	0,5	6,226150
8,358500	0,5	6,191350
8,366833	0,5	6,170550
8,375167	0,5	6,156150
8,383500	0,5	6,150750
8,391833	0,5	6,152600
8,400167	0,5	6,153200
8,408500	0,5	6,143450
8,416833	0,5	6,125250
8,425167	0,5	6,077750
8,433500	0,5	6,017450
8,441833	0,5	5,960400
8,450167	0,5	5,924100
8,458500	0,5	5,915200
8,466833	0,5	5,915150
8,475167	0,5	5,925200
8,483500	0,5	5,942500
8,491833	0,5	5,982150
8,500167	0,5	6,061000
8,508500	0,5	6,181550
8,516833	0,5	6,317650
8,525167	0,5	6,410950
8,533500	0,5	6,408500
8,541833	0,5	6,310200
8,550167	0,5	6,167050
8,558500	0,5	6,031000
8,566833	0,5	5,924200
8,575167	0,5	5,837350
8,583500	0,5	5,767000
8,591833	0,5	5,721800
8,600167	0,5	5,701500
8,608500	0,5	5,707850
8,616833	0,5	5,721600
8,625167	0,5	5,741500
8,633500	0,5	5,767750
8,641833	0,5	5,814700
8,650167	0,5	5,900000
8,658500	0,5	6,018100
8,666833	0,5	6,158050
8,675167	0,5	6,269400
8,683500	0,5	6,326400
8,691833	0,5	6,312100
8,700167	0,5	6,245800
8,708500	0,5	6,174600
8,716833	0,5	6,152950
8,725167	0,5	6,203250
8,733500	0,5	6,304450
8,741833	0,5	6,399350
8,750167	0,5	6,454000
8,758500	0,5	6,473750
8,766833	0,5	6,467650
8,775167	0,5	6,467150
8,783500	0,5	6,472050
8,791833	0,5	6,501300
8,800167	0,5	6,599350
8,808500	0,5	6,825550
8,816833	0,5	7,332050
8,825167	0,5	8,413550
8,833500	0,5	10,586250
8,841833	0,5	14,317700
8,850167	0,5	19,391400
8,858500	0,5	24,504800
8,866833	0,5	27,641500
8,875167	0,5	27,426300
8,883500	0,5	24,140750
8,891833	0,5	19,336450
8,900167	0,5	14,706450
8,908500	0,5	11,205650
8,916833	0,5	8,946050
8,925167	0,5	7,602950
8,933500	0,5	6,805150
8,941833	0,5	6,310750
8,950167	0,5	6,007550
8,958500	0,5	5,832050
8,966833	0,5	5,728150
8,975167	0,5	5,655400
8,983500	0,5	5,594350
8,991833	0,5	5,542300
9,000167	0,5	5,502150
9,008500	0,5	5,485200
9,016833	0,5	5,481550
9,025167	0,5	5,488250
9,033500	0,5	5,515650
9,041833	0,5	5,573350
9,050167	0,5	5,687300
9,058500	0,5	5,849950
9,066833	0,5	6,047650
9,075167	0,5	6,234750
9,083500	0,5	6,384150
9,091833	0,5	6,513600
9,100167	0,5	6,676100
9,108500	0,5	6,933850
9,116833	0,5	7,085300
9,125167	0,5	7,109100
9,133500	0,5	7,097100
9,141833	0,5	7,115950
9,150167	0,5	7,203400
9,158500	0,5	7,389300
9,166833	0,5	7,701500
9,175167	0,5	8,250200
9,183500	0,5	9,279500
9,191833	0,5	11,242800
9,200167	0,5	15,096900
9,208500	0,5	20,295650
9,216833	0,5	24,387250
9,225167	0,5	25,956750
9,233500	0,5	26,059300
9,241833	0,5	27,039450
9,250167	0,5	29,213500
9,258500	0,5	32,144700
9,266833	0,5	35,195801
9,275167	0,5	37,885701
9,283500	0,5	39,895851
9,291833	0,5	40,988101
9,300167	0,5	41,011751
9,308500	0,5	39,911801
9,316833	0,5	37,750151
9,325167	0,5	34,762101
9,333500	0,5	31,260550
9,341833	0,5	27,585050
9,350167	0,5	24,035700
9,358500	0,5	20,844550
9,366833	0,5	18,171850
9,375167	0,5	16,079250
9,383500	0,5	14,553750
9,391833	0,5	13,527750
9,400167	0,5	12,909550
9,408500	0,5	12,573500
9,416833	0,5	12,399950
9,425167	0,5	12,269000
9,433500	0,5	12,096800
9,441833	0,5	11,836500
9,450167	0,5	11,495550
9,458500	0,5	11,107750
9,466833	0,5	10,696800
9,475167	0,5	10,311750
9,483500	0,5	9,964150
9,491833	0,5	9,654450
9,500167	0,5	9,362700
9,508500	0,5	9,079100
9,516833	0,5	8,794500
9,525167	0,5	8,515250
9,533500	0,5	8,249650
9,541833	0,5	7,996700
9,550167	0,5	7,756100
9,558500	0,5	7,513500
9,566833	0,5	7,264700
9,575167	0,5	7,004500
9,583500	0,5	6,750700
9,591833	0,5	6,506950
9,600167	0,5	6,287600
9,608500	0,5	6,097400
9,616833	0,5	5,928100
9,625167	0,5	5,785900
9,633500	0,5	5,663300
9,641833	0,5	5,562550
9,650167	0,5	5,482750
9,658500	0,5	5,406500
9,666833	0,5	5,344400
9,675167	0,5	5,288900
9,683500	0,5	5,237600
9,691833	0,5	5,198900
9,700167	0,5	5,162900
9,708500	0,5	5,144250
9,716833	0,5	5,132100
9,725167	0,5	5,133950
9,733500	0,5	5,140000
9,741833	0,5	5,150100
9,750167	0,5	5,161150
9,758500	0,5	5,168500
9,766833	0,5	5,153500
9,775167	0,5	5,122100
9,783500	0,5	5,076500
9,791833	0,5	5,030200
9,800167	0,5	4,979250
9,808500	0,5	4,944750
9,816833	0,5	4,931850
9,825167	0,5	4,950900
9,833500	0,5	4,999800
9,841833	0,5	5,077500
9,850167	0,5	5,180200
9,858500	0,5	5,285750
9,866833	0,5	5,372350
9,875167	0,5	5,442500
9,883500	0,5	5,472800
9,891833	0,5	5,481700
9,900167	0,5	5,485600
9,908500	0,5	5,485050
9,916833	0,5	5,492500
9,925167	0,5	5,504400
9,933500	0,5	5,521700
9,941833	0,5	5,542700
9,950167	0,5	5,560450
9,958500	0,5	5,578500
9,966833	0,5	5,594600
9,975167	0,5	5,602600
9,983500	0,5	5,600200
9,991833	0,5	5,584750
10,000167	0,5	5,554800
10,008500	0,5	5,509000
10,016833	0,5	5,455300
10,025167	0,5	5,395400
10,033500	0,5	5,330250
10,041833	0,5	5,262650
10,050167	0,5	5,198150
10,058500	0,5	5,135800
10,066833	0,5	5,075750
10,075167	0,5	5,020150
10,083500	0,5	4,970350
10,091833	0,5	4,929900
10,100167	0,5	4,889300
10,108500	0,5	4,855400
10,116833	0,5	4,831750
10,125167	0,5	4,828550
10,133500	0,5	4,848000
10,141833	0,5	4,892750
10,150167	0,5	4,954400
10,158500	0,5	5,016900
10,166833	0,5	5,066050
10,175167	0,5	5,090300
10,183500	0,5	5,086200
10,191833	0,5	5,063650
10,200167	0,5	5,025500
10,208500	0,5	4,981650
10,216833	0,5	4,942900
10,225167	0,5	4,906300
10,233500	0,5	4,875150
10,241833	0,5	4,842900
10,250167	0,5	4,814000
10,258500	0,5	4,781150
10,266833	0,5	4,746350
10,275167	0,5	4,718850
10,283500	0,5	4,694900
10,291833	0,5	4,674400
10,300167	0,5	4,657150
10,308500	0,5	4,647550
10,316833	0,5	4,643300
10,325167	0,5	4,641050
10,333500	0,5	4,640900
10,341833	0,5	4,653100
10,350167	0,5	4,671550
10,358500	0,5	4,689150
10,366833	0,5	4,722850
10,375167	0,5	4,764550
10,383500	0,5	4,827150
10,391833	0,5	4,906050
10,400167	0,5	4,996150
10,408500	0,5	5,097150
10,416833	0,5	5,198450
10,425167	0,5	5,291950
10,433500	0,5	5,356600
10,441833	0,5	5,385850
10,450167	0,5	5,372450
10,458500	0,5	5,323400
10,466833	0,5	5,240450
10,475167	0,5	5,144900
10,483500	0,5	5,036400
10,491833	0,5	4,931450
10,500167	0,5	4,822800
10,508500	0,5	4,719300
10,516833	0,5	4,628050
10,525167	0,5	4,553400
10,533500	0,5	4,501600
10,541833	0,5	4,475900
10,550167	0,5	4,467700
10,558500	0,5	4,475250
10,566833	0,5	4,494850
10,575167	0,5	4,520350
10,583500	0,5	4,543700
10,591833	0,5	4,567900
10,600167	0,5	4,597600
10,608500	0,5	4,631500
10,616833	0,5	4,680850
10,625167	0,5	4,733200
10,633500	0,5	4,780300
10,641833	0,5	4,820350
10,650167	0,5	4,822850
10,658500	0,5	4,788650
10,666833	0,5	4,724550
10,675167	0,5	4,640150
10,683500	0,5	4,560250
10,691833	0,5	4,485500
10,700167	0,5	4,422950
10,708500	0,5	4,366600
10,716833	0,5	4,318100
10,725167	0,5	4,272650
10,733500	0,5	4,226750
10,741833	0,5	4,191550
10,750167	0,5	4,166500
10,758500	0,5	4,158050
10,766833	0,5	4,158400
10,775167	0,5	4,172900
10,783500	0,5	4,197600
10,791833	0,5	4,246150
10,800167	0,5	4,297550
10,808500	0,5	4,366850
10,816833	0,5	4,442700
10,825167	0,5	4,510250
10,833500	0,5	4,553150
10,841833	0,5	4,550800
10,850167	0,5	4,498600
10,858500	0,5	4,409450
10,866833	0,5	4,303500
10,875167	0,5	4,195850
10,883500	0,5	4,104400
10,891833	0,5	4,025600
10,900167	0,5	3,964250
10,908500	0,5	3,908350
10,916833	0,5	3,865850
10,925167	0,5	3,825700
10,933500	0,5	3,802250
10,941833	0,5	3,790200
10,950167	0,5	3,792850
10,958500	0,5	3,812350
10,966833	0,5	3,860600
10,975167	0,5	3,936150
10,983500	0,5	4,036650
10,991833	0,5	4,145450
11,000167	0,5	4,243200
11,008500	0,5	4,297900
11,016833	0,5	4,306450
11,025167	0,5	4,262550
11,033500	0,5	4,195950
11,041833	0,5	4,114600
11,050167	0,5	4,043050
11,058500	0,5	3,984100
11,066833	0,5	3,934300
11,075167	0,5	3,887700
11,083500	0,5	3,844950
11,091833	0,5	3,805400
11,100167	0,5	3,770350
11,108500	0,5	3,747150
11,116833	0,5	3,745350
11,125167	0,5	3,776500
11,133500	0,5	3,830900
11,141833	0,5	3,903200
11,150167	0,5	3,972200
11,158500	0,5	4,024500
11,166833	0,5	4,029350
11,175167	0,5	3,990350
11,183500	0,5	3,903250
11,191833	0,5	3,798700
11,200167	0,5	3,693050
11,208500	0,5	3,599600
11,216833	0,5	3,510150
11,225167	0,5	3,440300
11,233500	0,5	3,374450
11,241833	0,5	3,309400
11,250167	0,5	3,241900
11,258500	0,5	3,182150
11,266833	0,5	3,139100
11,275167	0,5	3,110950
11,283500	0,5	3,096550
11,291833	0,5	3,094000
11,300167	0,5	3,092150
11,308500	0,5	3,089750
11,316833	0,5	3,083750
11,325167	0,5	3,073350
11,333500	0,5	3,063750
11,341833	0,5	3,055200
11,350167	0,5	3,057200
11,358500	0,5	3,064000
11,366833	0,5	3,070000
11,375167	0,5	3,088550
11,383500	0,5	3,104700
11,391833	0,5	3,127250
11,400167	0,5	3,157800
11,408500	0,5	3,189800
11,416833	0,5	3,235500
11,425167	0,5	3,272350
11,433500	0,5	3,296900
11,441833	0,5	3,304350
11,450167	0,5	3,290450
11,458500	0,5	3,265300
11,466833	0,5	3,221400
11,475167	0,5	3,182850
11,483500	0,5	3,140700
11,491833	0,5	3,105250
11,500167	0,5	3,082150
11,508500	0,5	3,067800
11,516833	0,5	3,045500
11,525167	0,5	3,042650
11,533500	0,5	3,035100
11,541833	0,5	3,028800
11,550167	0,5	3,013650
11,558500	0,5	2,994550
11,566833	0,5	2,979750
11,575167	0,5	2,961250
11,583500	0,5	2,944300
11,591833	0,5	2,929850
11,600167	0,5	2,924300
11,608500	0,5	2,927750
11,616833	0,5	2,937150
11,625167	0,5	2,959400
11,633500	0,5	2,986600
11,641833	0,5	3,024100
11,650167	0,5	3,069850
11,658500	0,5	3,111800
11,666833	0,5	3,148500
11,675167	0,5	3,196750
11,683500	0,5	3,232800
11,691833	0,5	3,265850
11,700167	0,5	3,296150
11,708500	0,5	3,317700
11,716833	0,5	3,338000
11,725167	0,5	3,348850
11,733500	0,5	3,354300
11,741833	0,5	3,360650
11,750167	0,5	3,371000
11,758500	0,5	3,383600
11,766833	0,5	3,406750
11,775167	0,5	3,442800
11,783500	0,5	3,478950
11,791833	0,5	3,520050
11,800167	0,5	3,561550
11,808500	0,5	3,593600
11,816833	0,5	3,628600
11,825167	0,5	3,664400
11,833500	0,5	3,700100
11,841833	0,5	3,745450
11,850167	0,5	3,815050
11,858500	0,5	3,923000
11,866833	0,5	4,095700
11,875167	0,5	4,342150
11,883500	0,5	4,672900
11,891833	0,5	5,066950
11,900167	0,5	5,477250
11,908500	0,5	5,844650
11,916833	0,5	6,107950
11,925167	0,5	6,226900
11,933500	0,5	6,195600
11,941833	0,5	6,038800
11,950167	0,5	5,793050
11,958500	0,5	5,495450
11,966833	0,5	5,199150
11,975167	0,5	4,921400
11,983500	0,5	4,680550
11,991833	0,5	4,496800
12,000167	0,5	4,368150
12,008500	0,5	4,297950
12,016833	0,5	4,282600
12,025167	0,5	4,307650
12,033500	0,5	4,374900
12,041833	0,5	4,480600
12,050167	0,5	4,615100
12,058500	0,5	4,762950
12,066833	0,5	4,907650
12,075167	0,5	5,034050
12,083500	0,5	5,122150
12,091833	0,5	5,183500
12,100167	0,5	5,210000
12,108500	0,5	5,218200
12,116833	0,5	5,230650
12,125167	0,5	5,233850
12,133500	0,5	5,243650
12,141833	0,5	5,259200
12,150167	0,5	5,286250
12,158500	0,5	5,334950
12,166833	0,5	5,387900
12,175167	0,5	5,463750
12,183500	0,5	5,547950
12,191833	0,5	5,643550
12,200167	0,5	5,740050
12,208500	0,5	5,827800
12,216833	0,5	5,890100
12,225167	0,5	5,909050
12,233500	0,5	5,882750
12,241833	0,5	5,809650
12,250167	0,5	5,683900
12,258500	0,5	5,551800
12,266833	0,5	5,411800
12,275167	0,5	5,286950
12,283500	0,5	5,189150
12,291833	0,5	5,114500
12,300167	0,5	5,072600
12,308500	0,5	5,054100
12,316833	0,5	5,035150
12,325167	0,5	5,021750
12,333500	0,5	4,995900
12,341833	0,5	4,955950
12,350167	0,5	4,899450
12,358500	0,5	4,830950
12,366833	0,5	4,752000
12,375167	0,5	4,672650
12,383500	0,5	4,593100
12,391833	0,5	4,514800
12,400167	0,5	4,442300
12,408500	0,5	4,390350
12,416833	0,5	4,339250
12,425167	0,5	4,293400
12,433500	0,5	4,250500
12,441833	0,5	4,210450
12,450167	0,5	4,186700
12,458500	0,5	4,177050
12,466833	0,5	4,168400
12,475167	0,5	4,167750
12,483500	0,5	4,170250
12,491833	0,5	4,173550
12,500167	0,5	4,185150
12,508500	0,5	4,197100
12,516833	0,5	4,217550
12,525167	0,5	4,248700
12,533500	0,5	4,296450
12,541833	0,5	4,365200
12,550167	0,5	4,441100
12,558500	0,5	4,549100
12,566833	0,5	4,653500
12,575167	0,5	4,759850
12,583500	0,5	4,856500
12,591833	0,5	4,939150
12,600167	0,5	5,005800
12,608500	0,5	5,051400
12,616833	0,5	5,078450
12,625167	0,5	5,093050
12,633500	0,5	5,094450
12,641833	0,5	5,087350
12,650167	0,5	5,073350
12,658500	0,5	5,049250
12,666833	0,5	5,012350
12,675167	0,5	4,961650
12,683500	0,5	4,906850
12,691833	0,5	4,826300
12,700167	0,5	4,728900
12,708500	0,5	4,620450
12,716833	0,5	4,491850
12,725167	0,5	4,366250
12,733500	0,5	4,263500
12,741833	0,5	4,207000
12,750167	0,5	4,226150
12,758500	0,5	4,299600
12,766833	0,5	4,436450
12,775167	0,5	4,566050
12,783500	0,5	4,710900
12,791833	0,5	5,035650
12,800167	0,5	5,589050
12,808500	0,5	5,912750
12,816833	0,5	6,071000
12,825167	0,5	6,100200
12,833500	0,5	5,927300
12,841833	0,5	5,353300
12,850167	0,5	4,872000
12,858500	0,5	4,581850
12,866833	0,5	4,150450
12,875167	0,5	3,428650
12,883500	0,5	2,775000
12,891833	0,5	2,343250
12,900167	0,5	2,047350
12,908500	0,5	1,834100
12,916833	0,5	1,667950
12,925167	0,5	1,545150
12,933500	0,5	1,442950
12,941833	0,5	1,360050
12,950167	0,5	1,289150
12,958500	0,5	1,231200
12,966833	0,5	1,183250
12,975167	0,5	1,147600
12,983500	0,5	1,113200
12,991833	0,5	1,087750
13,000167	0,5	1,071550
13,008500	0,5	1,053250
13,016833	0,5	1,031050
13,025167	0,5	1,008050
13,033500	0,5	0,988650
13,041833	0,5	0,971300
13,050167	0,5	0,959600
13,058500	0,5	0,941650
13,066833	0,5	0,926100
13,075167	0,5	0,913100
13,083500	0,5	0,899600
13,091833	0,5	0,883100
13,100167	0,5	0,873800
13,108500	0,5	0,856550
13,116833	0,5	0,843400
13,125167	0,5	0,830950
13,133500	0,5	0,813300
13,141833	0,5	0,794300
13,150167	0,5	0,787100
13,158500	0,5	0,770200
13,166833	0,5	0,753450
13,175167	0,5	0,734700
13,183500	0,5	0,723050
13,191833	0,5	0,716000
13,200167	0,5	0,708150
13,208500	0,5	0,704000
13,216833	0,5	0,694500
13,225167	0,5	0,689750
13,233500	0,5	0,677750
13,241833	0,5	0,670850
13,250167	0,5	0,655800
13,258500	0,5	0,650150
13,266833	0,5	0,639900
13,275167	0,5	0,633900
13,283500	0,5	0,613000
13,291833	0,5	0,611350
13,300167	0,5	0,604350
13,308500	0,5	0,592500
13,316833	0,5	0,578950
13,325167	0,5	0,562200
13,333500	0,5	0,560450
13,341833	0,5	0,560550
13,350167	0,5	0,556000
13,358500	0,5	0,559200
13,366833	0,5	0,556850
13,375167	0,5	0,554800
13,383500	0,5	0,555400
13,391833	0,5	0,553900
13,400167	0,5	0,553450
13,408500	0,5	0,549550
13,416833	0,5	0,556100
13,425167	0,5	0,553900
13,433500	0,5	0,544450
13,441833	0,5	0,549100
13,450167	0,5	0,551650
13,458500	0,5	0,545150
13,466833	0,5	0,538650
13,475167	0,5	0,520550
13,483500	0,5	0,521000
13,491833	0,5	0,514300
13,500167	0,5	0,509600
13,508500	0,5	0,499250
13,516833	0,5	0,496800
13,525167	0,5	0,487850
13,533500	0,5	0,482400
13,541833	0,5	0,477200
13,550167	0,5	0,469700
13,558500	0,5	0,463150
13,566833	0,5	0,458500
13,575167	0,5	0,453750
13,583500	0,5	0,440450
13,591833	0,5	0,451750
13,600167	0,5	0,444800
13,608500	0,5	0,439500
13,616833	0,5	0,427650
13,625167	0,5	0,420350
13,633500	0,5	0,422100
13,641833	0,5	0,421850
13,650167	0,5	0,417400
13,658500	0,5	0,418850
13,666833	0,5	0,417650
13,675167	0,5	0,417850
13,683500	0,5	0,416200
13,691833	0,5	0,413000
13,700167	0,5	0,412850
13,708500	0,5	0,411150
13,716833	0,5	0,413150
13,725167	0,5	0,403350
13,733500	0,5	0,399050
13,741833	0,5	0,406600
13,750167	0,5	0,400750
13,758500	0,5	0,393750
13,766833	0,5	0,381250
13,775167	0,5	0,375250
13,783500	0,5	0,382000
13,791833	0,5	0,379200
13,800167	0,5	0,382600
13,808500	0,5	0,382250
13,816833	0,5	0,387000
13,825167	0,5	0,386700
13,833500	0,5	0,395000
13,841833	0,5	0,396200
13,850167	0,5	0,399550
13,858500	0,5	0,408700
13,866833	0,5	0,412500
13,875167	0,5	0,408650
13,883500	0,5	0,414450
13,891833	0,5	0,419200
13,900167	0,5	0,418900
13,908500	0,5	0,415300
13,916833	0,5	0,406100
13,925167	0,5	0,408500
13,933500	0,5	0,411100
13,941833	0,5	0,419700
13,950167	0,5	0,424100
13,958500	0,5	0,430200
13,966833	0,5	0,437800
13,975167	0,5	0,447000
13,983500	0,5	0,453350
13,991833	0,5	0,462850
14,000167	0,5	0,462700
14,008500	0,5	0,472650
14,016833	0,5	0,468350
14,025167	0,5	0,467450
14,033500	0,5	0,471600
14,041833	0,5	0,473700
14,050167	0,5	0,468750
14,058500	0,5	0,460050
14,066833	0,5	0,461200
14,075167	0,5	0,463950
14,083500	0,5	0,468550
14,091833	0,5	0,471350
14,100167	0,5	0,472950
14,108500	0,5	0,474350
14,116833	0,5	0,467250
14,125167	0,5	0,463550
14,133500	0,5	0,465650
14,141833	0,5	0,465050
14,150167	0,5	0,471700
14,158500	0,5	0,471800
14,166833	0,5	0,463900
14,175167	0,5	0,472450
14,183500	0,5	0,482750
14,191833	0,5	0,483100
14,200167	0,5	0,485850
14,208500	0,5	0,475700
14,216833	0,5	0,482350
14,225167	0,5	0,489000
14,233500	0,5	0,496500
14,241833	0,5	0,504100
14,250167	0,5	0,508650
14,258500	0,5	0,513800
14,266833	0,5	0,518150
14,275167	0,5	0,526300
14,283500	0,5	0,527900
14,291833	0,5	0,531550
14,300167	0,5	0,535500
14,308500	0,5	0,548650
14,316833	0,5	0,539650
14,325167	0,5	0,553150
14,333500	0,5	0,561450
14,341833	0,5	0,562750
14,350167	0,5	0,563450
14,358500	0,5	0,556450
14,366833	0,5	0,566100
14,375167	0,5	0,579300
14,383500	0,5	0,580150
14,391833	0,5	0,591700
14,400167	0,5	0,594250
14,408500	0,5	0,605350
14,416833	0,5	0,615950
14,425167	0,5	0,625650
14,433500	0,5	0,635800
14,441833	0,5	0,641650
14,450167	0,5	0,664200
14,458500	0,5	0,671500
14,466833	0,5	0,674000
14,475167	0,5	0,692150
14,483500	0,5	0,707650
14,491833	0,5	0,718300
14,500167	0,5	0,728350
14,508500	0,5	0,736450
14,516833	0,5	0,770950
14,525167	0,5	0,795550
14,533500	0,5	0,828600
14,541833	0,5	0,858800
14,550167	0,5	0,898400
14,558500	0,5	0,935700
14,566833	0,5	0,962600
14,575167	0,5	0,983350
14,583500	0,5	0,999050
14,591833	0,5	1,011850
14,600167	0,5	1,026800
14,608500	0,5	1,026950
14,616833	0,5	1,032500
14,625167	0,5	1,053900
14,633500	0,5	1,068050
14,641833	0,5	1,085500
14,650167	0,5	1,104450
14,658500	0,5	1,133050
14,666833	0,5	1,170650
14,675167	0,5	1,207750
14,683500	0,5	1,238050
14,691833	0,5	1,276750
14,700167	0,5	1,311100
14,708500	0,5	1,353550
14,716833	0,5	1,395600
14,725167	0,5	1,435600
14,733500	0,5	1,469900
14,741833	0,5	1,500800
14,750167	0,5	1,528350
14,758500	0,5	1,549200
14,766833	0,5	1,583550
14,775167	0,5	1,627850
14,783500	0,5	1,674900
14,791833	0,5	1,725200
14,800167	0,5	1,781200
14,808500	0,5	1,827400
14,816833	0,5	1,870050
14,825167	0,5	1,879300
14,833500	0,5	1,868400
14,841833	0,5	1,831900
14,850167	0,5	1,789550
14,858500	0,5	1,738150
14,866833	0,5	1,709900
14,875167	0,5	1,679050
14,883500	0,5	1,664100
14,891833	0,5	1,670750
14,900167	0,5	1,679600
14,908500	0,5	1,682750
14,916833	0,5	1,693700
14,925167	0,5	1,681650
14,933500	0,5	1,651600
14,941833	0,5	1,612750
14,950167	0,5	1,561500
14,958500	0,5	1,536650
14,966833	0,5	1,509850
14,975167	0,5	1,492350
14,983500	0,5	1,482600
14,991833	0,5	1,479800
15,000167	0,5	1,477250
15,008500	0,5	1,477750
15,016833	0,5	1,469750
15,025167	0,5	1,468700
15,033500	0,5	1,466500
15,041833	0,5	1,466950
15,050167	0,5	1,448750
15,058500	0,5	1,446750
15,066833	0,5	1,446700
15,075167	0,5	1,438400
15,083500	0,5	1,428600
15,091833	0,5	1,410800
15,100167	0,5	1,404150
15,108500	0,5	1,398600
15,116833	0,5	1,399600
15,125167	0,5	1,394150
15,133500	0,5	1,385850
15,141833	0,5	1,382900
15,150167	0,5	1,380650
15,158500	0,5	1,372600
15,166833	0,5	1,370300
15,175167	0,5	1,359750
15,183500	0,5	1,359200
15,191833	0,5	1,350350
15,200167	0,5	1,330550
15,208500	0,5	1,336200
15,216833	0,5	1,336900
15,225167	0,5	1,329550
15,233500	0,5	1,321750
15,241833	0,5	1,304100
15,250167	0,5	1,302400
15,258500	0,5	1,298000
15,266833	0,5	1,298850
15,275167	0,5	1,295300
15,283500	0,5	1,294700
15,291833	0,5	1,292900
15,300167	0,5	1,290400
15,308500	0,5	1,290550
15,316833	0,5	1,284900
15,325167	0,5	1,281100
15,333500	0,5	1,270850
15,341833	0,5	1,277050
15,350167	0,5	1,259850
15,358500	0,5	1,275100
15,366833	0,5	1,275050
15,375167	0,5	1,270750
15,383500	0,5	1,266050
15,391833	0,5	1,250850
15,400167	0,5	1,263100
15,408500	0,5	1,272350
15,416833	0,5	1,268100
15,425167	0,5	1,271200
15,433500	0,5	1,265500
15,441833	0,5	1,264050
15,450167	0,5	1,261900
15,458500	0,5	1,260400
15,466833	0,5	1,258950
15,475167	0,5	1,257600
15,483500	0,5	1,264300
15,491833	0,5	1,248950
15,500167	0,5	1,232150
15,508500	0,5	1,224750
15,516833	0,5	1,212250
15,525167	0,5	1,193300
15,533500	0,5	1,174950
15,541833	0,5	1,158500
15,550167	0,5	1,162000
15,558500	0,5	1,151150
15,566833	0,5	1,152600
15,575167	0,5	1,146100
15,583500	0,5	1,155350
15,591833	0,5	1,158900
15,600167	0,5	1,165150
15,608500	0,5	1,161250
15,616833	0,5	1,150750
15,625167	0,5	1,143000
15,633500	0,5	1,132850
15,641833	0,5	1,101700
15,650167	0,5	1,096350
15,658500	0,5	1,092400
15,666833	0,5	1,079500
15,675167	0,5	1,062450
15,683500	0,5	1,041200
15,691833	0,5	1,035000
15,700167	0,5	1,028400
15,708500	0,5	1,031200
15,716833	0,5	1,023000
15,725167	0,5	1,024650
15,733500	0,5	1,015100
15,741833	0,5	1,015900
15,750167	0,5	1,010250
15,758500	0,5	1,008250
15,766833	0,5	1,008950
15,775167	0,5	1,008050
15,783500	0,5	1,006800
15,791833	0,5	0,996300
15,800167	0,5	1,003800
15,808500	0,5	0,999800
15,816833	0,5	0,993350
15,825167	0,5	0,981350
15,833500	0,5	0,968450
15,841833	0,5	0,963550
15,850167	0,5	0,967550
15,858500	0,5	0,964050
15,866833	0,5	0,961850
15,875167	0,5	0,958000
15,883500	0,5	0,958000
15,891833	0,5	0,957850
15,900167	0,5	0,958350
15,908500	0,5	0,951450
15,916833	0,5	0,950300
15,925167	0,5	0,940250
15,933500	0,5	0,928150
15,941833	0,5	0,914400
15,950167	0,5	0,918500
15,958500	0,5	0,908750
15,966833	0,5	0,900200
15,975167	0,5	0,881050
15,983500	0,5	0,866500
15,991833	0,5	0,872400
16,000167	0,5	0,870650
16,008500	0,5	0,873000
16,016833	0,5	0,867050
16,025167	0,5	0,868450
16,033500	0,5	0,862550
16,041833	0,5	0,866300
16,050167	0,5	0,856050
16,058500	0,5	0,850450
16,066833	0,5	0,847700
16,075167	0,5	0,844800
16,083500	0,5	0,824600
16,091833	0,5	0,832300
16,100167	0,5	0,828550
16,108500	0,5	0,823850
16,116833	0,5	0,812750
16,125167	0,5	0,795900
16,133500	0,5	0,794100
16,141833	0,5	0,789650
16,150167	0,5	0,787850
16,158500	0,5	0,783550
16,166833	0,5	0,785950
16,175167	0,5	0,778700
16,183500	0,5	0,778900
16,191833	0,5	0,770900
16,200167	0,5	0,767150
16,208500	0,5	0,756600
16,216833	0,5	0,757200
16,225167	0,5	0,743850
16,233500	0,5	0,725700
16,241833	0,5	0,725750
16,250167	0,5	0,725200
16,258500	0,5	0,710850
16,266833	0,5	0,696650
16,275167	0,5	0,676250
16,283500	0,5	0,671700
16,291833	0,5	0,663750
16,300167	0,5	0,657600
16,308500	0,5	0,645450
16,316833	0,5	0,644500
16,325167	0,5	0,640250
16,333500	0,5	0,638000
16,341833	0,5	0,640250
16,350167	0,5	0,633750
16,358500	0,5	0,632400
16,366833	0,5	0,634550
16,375167	0,5	0,633100
16,383500	0,5	0,626000
16,391833	0,5	0,643550
16,400167	0,5	0,645150
16,408500	0,5	0,641900
16,416833	0,5	0,633650
16,425167	0,5	0,626900
16,433500	0,5	0,629200
16,441833	0,5	0,632050
16,450167	0,5	0,625800
16,458500	0,5	0,622150
16,466833	0,5	0,614350
16,475167	0,5	0,608750
16,483500	0,5	0,600750
16,491833	0,5	0,587800
16,500167	0,5	0,578700
16,508500	0,5	0,564950
16,516833	0,5	0,563850
16,525167	0,5	0,536350
16,533500	0,5	0,536200
16,541833	0,5	0,529400
16,550167	0,5	0,523500
16,558500	0,5	0,509700
16,566833	0,5	0,491500
16,575167	0,5	0,489650
16,583500	0,5	0,495300
16,591833	0,5	0,484600
16,600167	0,5	0,482650
16,608500	0,5	0,477500
16,616833	0,5	0,476800
16,625167	0,5	0,477300
16,633500	0,5	0,476750
16,641833	0,5	0,477750
16,650167	0,5	0,475850
16,658500	0,5	0,481850
16,666833	0,5	0,483850
16,675167	0,5	0,471350
16,683500	0,5	0,482800
16,691833	0,5	0,482300
16,700167	0,5	0,474650
16,708500	0,5	0,464050
16,716833	0,5	0,435800
16,725167	0,5	0,437800
16,733500	0,5	0,431000
16,741833	0,5	0,428800
16,750167	0,5	0,419000
16,758500	0,5	0,415450
16,766833	0,5	0,403250
16,775167	0,5	0,401450
16,783500	0,5	0,389250
16,791833	0,5	0,381850
16,800167	0,5	0,379650
16,808500	0,5	0,377150
16,816833	0,5	0,366050
16,825167	0,5	0,354300
16,833500	0,5	0,363150
16,841833	0,5	0,353250
16,850167	0,5	0,348700
16,858500	0,5	0,328200
16,866833	0,5	0,318900
16,875167	0,5	0,314400
16,883500	0,5	0,321550
16,891833	0,5	0,321550
16,900167	0,5	0,322050
16,908500	0,5	0,325100
16,916833	0,5	0,330050
16,925167	0,5	0,328400
16,933500	0,5	0,334750
16,941833	0,5	0,333200
16,950167	0,5	0,340150
16,958500	0,5	0,341450
16,966833	0,5	0,336100
16,975167	0,5	0,341850
16,983500	0,5	0,346350
16,991833	0,5	0,338700
17,000167	0,5	0,327200
17,008500	0,5	0,305450
17,016833	0,5	0,293950
17,025167	0,5	0,292250
17,033500	0,5	0,279650
17,041833	0,5	0,275800
17,050167	0,5	0,266000
17,058500	0,5	0,262200
17,066833	0,5	0,254550
17,075167	0,5	0,249650
17,083500	0,5	0,237350
17,091833	0,5	0,233650
17,100167	0,5	0,232350
17,108500	0,5	0,228600
17,116833	0,5	0,214000
17,125167	0,5	0,222000
17,133500	0,5	0,224550
17,141833	0,5	0,221050
17,150167	0,5	0,211100
17,158500	0,5	0,203800
17,166833	0,5	0,210250
17,175167	0,5	0,217250
17,183500	0,5	0,214750
17,191833	0,5	0,213450
17,200167	0,5	0,212650
17,208500	0,5	0,207850
17,216833	0,5	0,205650
17,225167	0,5	0,197500
17,233500	0,5	0,195850
17,241833	0,5	0,195950
17,250167	0,5	0,208850
17,258500	0,5	0,207600
17,266833	0,5	0,218900
17,275167	0,5	0,252100
17,283500	0,5	0,294100
17,291833	0,5	0,338450
17,300167	0,5	0,383850
17,308500	0,5	0,425600
17,316833	0,5	0,467100
17,325167	0,5	0,479450
17,333500	0,5	0,465700
17,341833	0,5	0,423350
17,350167	0,5	0,378300
17,358500	0,5	0,325400
17,366833	0,5	0,275200
17,375167	0,5	0,237800
17,383500	0,5	0,203200
17,391833	0,5	0,190550
17,400167	0,5	0,183650
17,408500	0,5	0,166000
17,416833	0,5	0,172100
17,425167	0,5	0,178350
17,433500	0,5	0,180050
17,441833	0,5	0,179350
17,450167	0,5	0,161550
17,458500	0,5	0,179000
17,466833	0,5	0,191550
17,475167	0,5	0,209200
17,483500	0,5	0,224050
17,491833	0,5	0,247550
17,500167	0,5	0,264050
17,508500	0,5	0,285050
17,516833	0,5	0,299650
17,525167	0,5	0,303700
17,533500	0,5	0,318050
17,541833	0,5	0,319450
17,550167	0,5	0,330000
17,558500	0,5	0,325400
17,566833	0,5	0,356750
17,575167	0,5	0,371650
17,583500	0,5	0,389200
17,591833	0,5	0,400850
17,600167	0,5	0,409450
17,608500	0,5	0,429750
17,616833	0,5	0,450750
17,625167	0,5	0,456450
17,633500	0,5	0,459900
17,641833	0,5	0,453600
17,650167	0,5	0,451450
17,658500	0,5	0,442050
17,666833	0,5	0,431350
17,675167	0,5	0,419500
17,683500	0,5	0,401450
17,691833	0,5	0,398850
17,700167	0,5	0,381800
17,708500	0,5	0,362300
17,716833	0,5	0,367650
17,725167	0,5	0,362000
17,733500	0,5	0,351600
17,741833	0,5	0,349250
17,750167	0,5	0,339350
17,758500	0,5	0,356250
17,766833	0,5	0,358050
17,775167	0,5	0,366050
17,783500	0,5	0,360300
17,791833	0,5	0,356050
17,800167	0,5	0,342700
17,808500	0,5	0,340050
17,816833	0,5	0,329150
17,825167	0,5	0,322100
17,833500	0,5	0,333200
17,841833	0,5	0,339450
17,850167	0,5	0,333500
17,858500	0,5	0,352800
17,866833	0,5	0,371200
17,875167	0,5	0,392300
17,883500	0,5	0,426250
17,891833	0,5	0,479250
17,900167	0,5	0,590800
17,908500	0,5	0,759900
17,916833	0,5	1,005900
17,925167	0,5	1,299250
17,933500	0,5	1,636100
17,941833	0,5	1,943150
17,950167	0,5	2,175550
17,958500	0,5	2,271900
17,966833	0,5	2,210600
17,975167	0,5	2,009500
17,983500	0,5	1,721200
17,991833	0,5	1,386100
18,000167	0,5	1,057300
18,008500	0,5	0,790300
18,016833	0,5	0,580550
18,025167	0,5	0,420700
18,033500	0,5	0,296700
18,041833	0,5	0,211950
18,050167	0,5	0,155450
18,058500	0,5	0,120950
18,066833	0,5	0,088450
18,075167	0,5	0,067650
18,083500	0,5	0,047300
18,091833	0,5	0,035100
18,100167	0,5	0,020100
18,108500	0,5	0,011200
18,116833	0,5	-0,006200
18,125167	0,5	-0,011800
18,133500	0,5	-0,012500
18,141833	0,5	-0,026850
18,150167	0,5	-0,033850
18,158500	0,5	-0,033300
18,166833	0,5	-0,036750
18,175167	0,5	-0,043200
18,183500	0,5	-0,065100
18,191833	0,5	-0,072300
18,200167	0,5	-0,067850
18,208500	0,5	-0,078350
18,216833	0,5	-0,090200
18,225167	0,5	-0,105250
18,233500	0,5	-0,117100
18,241833	0,5	-0,137400
18,250167	0,5	-0,146750
18,258500	0,5	-0,161650
18,266833	0,5	-0,173400
18,275167	0,5	-0,180150
18,283500	0,5	-0,181750
18,291833	0,5	-0,215250
18,300167	0,5	-0,206900
18,308500	0,5	-0,215350
18,316833	0,5	-0,224100
18,325167	0,5	-0,240900
18,333500	0,5	-0,263700
18,341833	0,5	-0,261350
18,350167	0,5	-0,268800
18,358500	0,5	-0,275400
18,366833	0,5	-0,284050
18,375167	0,5	-0,289200
18,383500	0,5	-0,295050
18,391833	0,5	-0,295250
18,400167	0,5	-0,303150
18,408500	0,5	-0,307700
18,416833	0,5	-0,318850
18,425167	0,5	-0,322150
18,433500	0,5	-0,326150
18,441833	0,5	-0,347500
18,450167	0,5	-0,342500
18,458500	0,5	-0,350150
18,466833	0,5	-0,362800
18,475167	0,5	-0,377250
18,483500	0,5	-0,404600
18,491833	0,5	-0,399450
18,500167	0,5	-0,410350
18,508500	0,5	-0,410700
18,516833	0,5	-0,415000
18,525167	0,5	-0,417450
18,533500	0,5	-0,420100
18,541833	0,5	-0,424200
18,550167	0,5	-0,431300
18,558500	0,5	-0,436350
18,566833	0,5	-0,438500
18,575167	0,5	-0,441100
18,583500	0,5	-0,443600
18,591833	0,5	-0,450600
18,600167	0,5	-0,440550
18,608500	0,5	-0,447300
18,616833	0,5	-0,459050
18,625167	0,5	-0,481950
18,633500	0,5	-0,491850
18,641833	0,5	-0,490650
18,650167	0,5	-0,490500
18,658500	0,5	-0,500150
18,666833	0,5	-0,505300
18,675167	0,5	-0,511050
18,683500	0,5	-0,516100
18,691833	0,5	-0,517800
18,700167	0,5	-0,521450
18,708500	0,5	-0,526500
18,716833	0,5	-0,527700
18,725167	0,5	-0,524450
18,733500	0,5	-0,542300
18,741833	0,5	-0,535350
18,750167	0,5	-0,536700
18,758500	0,5	-0,543100
18,766833	0,5	-0,560350
18,775167	0,5	-0,576300
18,783500	0,5	-0,590600
18,791833	0,5	-0,587300
18,800167	0,5	-0,591600
18,808500	0,5	-0,592350
18,816833	0,5	-0,595800
18,825167	0,5	-0,591800
18,833500	0,5	-0,597350
18,841833	0,5	-0,590850
18,850167	0,5	-0,587900
18,858500	0,5	-0,585350
18,866833	0,5	-0,564500
18,875167	0,5	-0,562500
18,883500	0,5	-0,560400
18,891833	0,5	-0,540400
18,900167	0,5	-0,526600
18,908500	0,5	-0,516150
18,916833	0,5	-0,514500
18,925167	0,5	-0,510600
18,933500	0,5	-0,488050
18,941833	0,5	-0,467300
18,950167	0,5	-0,443450
18,958500	0,5	-0,431400
18,966833	0,5	-0,404450
18,975167	0,5	-0,392450
18,983500	0,5	-0,368800
18,991833	0,5	-0,353700
19,000167	0,5	-0,340450
19,008500	0,5	-0,322100
19,016833	0,5	-0,301400
19,025167	0,5	-0,303300
19,033500	0,5	-0,299150
19,041833	0,5	-0,286300
19,050167	0,5	-0,288600
19,058500	0,5	-0,293850
19,066833	0,5	-0,321100
19,075167	0,5	-0,327500
19,083500	0,5	-0,345600
19,091833	0,5	-0,352900
19,100167	0,5	-0,374100
19,108500	0,5	-0,385300
19,116833	0,5	-0,407250
19,125167	0,5	-0,420000
19,133500	0,5	-0,437750
19,141833	0,5	-0,452450
19,150167	0,5	-0,471000
19,158500	0,5	-0,480700
19,166833	0,5	-0,497900
19,175167	0,5	-0,527100
19,183500	0,5	-0,533850
19,191833	0,5	-0,547300
19,200167	0,5	-0,571950
19,208500	0,5	-0,601000
19,216833	0,5	-0,630150
19,225167	0,5	-0,644700
19,233500	0,5	-0,653350
19,241833	0,5	-0,676400
19,250167	0,5	-0,682800
19,258500	0,5	-0,700750
19,266833	0,5	-0,711350
19,275167	0,5	-0,720650
19,283500	0,5	-0,726300
19,291833	0,5	-0,734450
19,300167	0,5	-0,734950
19,308500	0,5	-0,730500
19,316833	0,5	-0,735650
19,325167	0,5	-0,742700
19,333500	0,5	-0,730550
19,341833	0,5	-0,730900
19,350167	0,5	-0,735550
19,358500	0,5	-0,751100
19,366833	0,5	-0,756100
19,375167	0,5	-0,737300
19,383500	0,5	-0,724750
19,391833	0,5	-0,702850
19,400167	0,5	-0,686500
19,408500	0,5	-0,656200
19,416833	0,5	-0,632300
19,425167	0,5	-0,606300
19,433500	0,5	-0,605200
19,441833	0,5	-0,612850
19,450167	0,5	-0,626050
19,458500	0,5	-0,645400
19,466833	0,5	-0,695150
19,475167	0,5	-0,718750
19,483500	0,5	-0,750350
19,491833	0,5	-0,776650
19,500167	0,5	-0,804950
19,508500	0,5	-0,837650
19,516833	0,5	-0,848100
19,525167	0,5	-0,856050
19,533500	0,5	-0,855050
19,541833	0,5	-0,855900
19,550167	0,5	-0,853900
19,558500	0,5	-0,857850
19,566833	0,5	-0,853800
19,575167	0,5	-0,862100
19,583500	0,5	-0,865650
19,591833	0,5	-0,877650
19,600167	0,5	-0,881700
19,608500	0,5	-0,900050
19,616833	0,5	-0,925450
19,625167	0,5	-0,932400
19,633500	0,5	-0,945550
19,641833	0,5	-0,968150
19,650167	0,5	-0,985200
19,658500	0,5	-1,007050
19,666833	0,5	-0,998800
19,675167	0,5	-0,993150
19,683500	0,5	-0,983350
19,691833	0,5	-0,974850
19,700167	0,5	-0,965150
19,708500	0,5	-0,950250
19,716833	0,5	-0,940200
19,725167	0,5	-0,929000
19,733500	0,5	-0,927900
19,741833	0,5	-0,915100
19,750167	0,5	-0,903450
19,758500	0,5	-0,892550
19,766833	0,5	-0,886350
19,775167	0,5	-0,867750
19,783500	0,5	-0,882450
19,791833	0,5	-0,910450
19,800167	0,5	-0,963450
19,808500	0,5	-1,013550
19,816833	0,5	-1,049300
19,825167	0,5	-1,073750
19,833500	0,5	-1,103350
19,841833	0,5	-1,103200
19,850167	0,5	-1,120250
19,858500	0,5	-1,125600
19,866833	0,5	-1,123950
19,875167	0,5	-1,129900
19,883500	0,5	-1,128600
19,891833	0,5	-1,125900
19,900167	0,5	-1,119300
19,908500	0,5	-1,134450
19,916833	0,5	-1,122550
19,925167	0,5	-1,120650
19,933500	0,5	-1,120250
19,941833	0,5	-1,128550
19,950167	0,5	-1,131000
19,958500	0,5	-1,120450
19,966833	0,5	-1,099950
19,975167	0,5	-1,082950
19,983500	0,5	-1,076300
19,991833	0,5	-1,083800
20,000167	0,5	-1,102700
20,008500	0,5	-1,132850
20,016833	0,5	-1,164150
20,025167	0,5	-1,188750
20,033500	0,5	-1,211900
20,041833	0,5	-1,210500
20,050167	0,5	-1,230800
20,058500	0,5	-1,238300
20,066833	0,5	-1,239800
20,075167	0,5	-1,239150
20,083500	0,5	-1,253100
20,091833	0,5	-1,268850
20,100167	0,5	-1,286700
20,108500	0,5	-1,283350
20,116833	0,5	-1,293000
20,125167	0,5	-1,296050
20,133500	0,5	-1,299700
20,141833	0,5	-1,297850
20,150167	0,5	-1,291550
20,158500	0,5	-1,288550
20,166833	0,5	-1,279050
20,175167	0,5	-1,269750
20,183500	0,5	-1,246750
20,191833	0,5	-1,227750
20,200167	0,5	-1,225100
20,208500	0,5	-1,194850
20,216833	0,5	-1,166600
20,225167	0,5	-1,147450
20,233500	0,5	-1,133900
20,241833	0,5	-1,155950
20,250167	0,5	-1,164600
20,258500	0,5	-1,200300
20,266833	0,5	-1,234800
20,275167	0,5	-1,277250
20,283500	0,5	-1,298350
20,291833	0,5	-1,317650
20,300167	0,5	-1,327350
20,308500	0,5	-1,325900
20,316833	0,5	-1,328250
20,325167	0,5	-1,317850
20,333500	0,5	-1,305150
20,341833	0,5	-1,287000
20,350167	0,5	-1,292950
20,358500	0,5	-1,260050
20,366833	0,5	-1,240600
20,375167	0,5	-1,222150
20,383500	0,5	-1,211800
20,391833	0,5	-1,208750
20,400167	0,5	-1,193350
20,408500	0,5	-1,186150
20,416833	0,5	-1,212650
20,425167	0,5	-1,229850
20,433500	0,5	-1,268250
20,441833	0,5	-1,290650
20,450167	0,5	-1,312800
20,458500	0,5	-1,326350
20,466833	0,5	-1,337000
20,475167	0,5	-1,342050
20,483500	0,5	-1,326900
20,491833	0,5	-1,325900
20,500167	0,5	-1,328500
20,508500	0,5	-1,315000
20,516833	0,5	-1,307650
20,525167	0,5	-1,309950
20,533500	0,5	-1,317950
20,541833	0,5	-1,330150
20,550167	0,5	-1,312650
20,558500	0,5	-1,315950
20,566833	0,5	-1,302800
20,575167	0,5	-1,289150
20,583500	0,5	-1,260750
20,591833	0,5	-1,238200
20,600167	0,5	-1,206600
20,608500	0,5	-1,185500
20,616833	0,5	-1,174200
20,625167	0,5	-1,155050
20,633500	0,5	-1,149700
20,641833	0,5	-1,165500
20,650167	0,5	-1,167350
20,658500	0,5	-1,170450
20,666833	0,5	-1,178600
20,675167	0,5	-1,197950
20,683500	0,5	-1,230050
20,691833	0,5	-1,236500
20,700167	0,5	-1,245300
20,708500	0,5	-1,243600
20,716833	0,5	-1,257700
20,725167	0,5	-1,264400
20,733500	0,5	-1,280650
20,741833	0,5	-1,284850
20,750167	0,5	-1,294150
20,758500	0,5	-1,297250
20,766833	0,5	-1,296500
20,775167	0,5	-1,275500
20,783500	0,5	-1,263500
20,791833	0,5	-1,265000
20,800167	0,5	-1,260300
20,808500	0,5	-1,271550
20,816833	0,5	-1,278350
20,825167	0,5	-1,306950
20,833500	0,5	-1,323550
20,841833	0,5	-1,336300
20,850167	0,5	-1,326350
20,858500	0,5	-1,328400
20,866833	0,5	-1,313050
20,875167	0,5	-1,319150
20,883500	0,5	-1,316250
20,891833	0,5	-1,323150
20,900167	0,5	-1,328400
20,908500	0,5	-1,333100
20,916833	0,5	-1,318250
20,925167	0,5	-1,301650
20,933500	0,5	-1,296950
20,941833	0,5	-1,295300
20,950167	0,5	-1,288900
20,958500	0,5	-1,302650
20,966833	0,5	-1,316950
20,975167	0,5	-1,334950
20,983500	0,5	-1,344600
20,991833	0,5	-1,335600
21,000167	0,5	-1,344400
21,008500	0,5	-1,333250
21,016833	0,5	-1,334450
21,025167	0,5	-1,325650
21,033500	0,5	-1,319200
21,041833	0,5	-1,307450
21,050167	0,5	-1,300750
21,058500	0,5	-1,293800
21,066833	0,5	-1,268750
21,075167	0,5	-1,254650
21,083500	0,5	-1,269200
21,091833	0,5	-1,273350
21,100167	0,5	-1,273100
21,108500	0,5	-1,288700
21,116833	0,5	-1,292600
21,125167	0,5	-1,301800
21,133500	0,5	-1,284150
21,141833	0,5	-1,279950
21,150167	0,5	-1,265150
21,158500	0,5	-1,264100
21,166833	0,5	-1,253150
21,175167	0,5	-1,256650
21,183500	0,5	-1,242350
21,191833	0,5	-1,241200
21,200167	0,5	-1,239300
21,208500	0,5	-1,232150
21,216833	0,5	-1,209750
21,225167	0,5	-1,208650
21,233500	0,5	-1,211600
21,241833	0,5	-1,209750
21,250167	0,5	-1,209250
21,258500	0,5	-1,211600
21,266833	0,5	-1,225450
21,275167	0,5	-1,206400
21,283500	0,5	-1,198000
21,291833	0,5	-1,181100
21,300167	0,5	-1,179100
21,308500	0,5	-1,163150
21,316833	0,5	-1,160950
21,325167	0,5	-1,154200
21,333500	0,5	-1,158650
21,341833	0,5	-1,150700
21,350167	0,5	-1,151200
21,358500	0,5	-1,115300
21,366833	0,5	-1,095850
21,375167	0,5	-1,095600
21,383500	0,5	-1,086900
21,391833	0,5	-1,087250
21,400167	0,5	-1,085650
21,408500	0,5	-1,089650
21,416833	0,5	-1,093100
21,425167	0,5	-1,080500
21,433500	0,5	-1,064000
21,441833	0,5	-1,064150
21,450167	0,5	-1,058650
21,458500	0,5	-1,054150
21,466833	0,5	-1,039300
21,475167	0,5	-1,031200
21,483500	0,5	-1,013100
21,491833	0,5	-0,998650
21,500167	0,5	-0,971400
21,508500	0,5	-0,931000
21,516833	0,5	-0,913450
21,525167	0,5	-0,918950
21,533500	0,5	-0,919950
21,541833	0,5	-0,926000
21,550167	0,5	-0,936600
21,558500	0,5	-0,940200
21,566833	0,5	-0,941000
21,575167	0,5	-0,914150
21,583500	0,5	-0,901000
21,591833	0,5	-0,874650
21,600167	0,5	-0,851900
21,608500	0,5	-0,813100
21,616833	0,5	-0,782600
21,625167	0,5	-0,722350
21,633500	0,5	-0,662550
21,641833	0,5	-0,590800
21,650167	0,5	-0,507300
21,658500	0,5	-0,454450
21,666833	0,5	-0,456850
21,675167	0,5	-0,480650
21,683500	0,5	-0,518650
21,691833	0,5	-0,552200
21,700167	0,5	-0,580850
21,708500	0,5	-0,602650
21,716833	0,5	-0,588700
21,725167	0,5	-0,582300
21,733500	0,5	-0,568350
21,741833	0,5	-0,568400
21,750167	0,5	-0,566000
21,758500	0,5	-0,568650
21,766833	0,5	-0,559750
21,775167	0,5	-0,548850
21,783500	0,5	-0,531800
21,791833	0,5	-0,511300
21,800167	0,5	-0,467950
21,808500	0,5	-0,446000
21,816833	0,5	-0,421650
21,825167	0,5	-0,391300
21,833500	0,5	-0,371050
21,841833	0,5	-0,345850
21,850167	0,5	-0,333100
21,858500	0,5	-0,312700
21,866833	0,5	-0,293450
21,875167	0,5	-0,261800
21,883500	0,5	-0,236800
21,891833	0,5	-0,187850
21,900167	0,5	-0,152850
21,908500	0,5	-0,119650
21,916833	0,5	-0,106250
21,925167	0,5	-0,087250
21,933500	0,5	-0,074450
21,941833	0,5	-0,045650
21,950167	0,5	-0,025150
21,958500	0,5	-0,015600
21,966833	0,5	0,002700
21,975167	0,5	0,029350
21,983500	0,5	0,041950
21,991833	0,5	0,051200
22,000167	0,5	0,063450
22,008500	0,5	0,083200
22,016833	0,5	0,117250
22,025167	0,5	0,141650
22,033500	0,5	0,174700
22,041833	0,5	0,202800
22,050167	0,5	0,239800
22,058500	0,5	0,266850
22,066833	0,5	0,306400
22,075167	0,5	0,341450
22,083500	0,5	0,377250
22,091833	0,5	0,416300
22,100167	0,5	0,437100
22,108500	0,5	0,469800
22,116833	0,5	0,511450
22,125167	0,5	0,544950
22,133500	0,5	0,583350
22,141833	0,5	0,613750
22,150167	0,5	0,663650
22,158500	0,5	0,722700
22,166833	0,5	0,768500
22,175167	0,5	0,812000
22,183500	0,5	0,849000
22,191833	0,5	0,886400
22,200167	0,5	0,921900
22,208500	0,5	0,976550
22,216833	0,5	1,025050
22,225167	0,5	1,079600
22,233500	0,5	1,124350
22,241833	0,5	1,175800
22,250167	0,5	1,208500
22,258500	0,5	1,280100
22,266833	0,5	1,335350
22,275167	0,5	1,384850
22,283500	0,5	1,429050
22,291833	0,5	1,469000
22,300167	0,5	1,545250
22,308500	0,5	1,613100
22,316833	0,5	1,687350
22,325167	0,5	1,750850
22,333500	0,5	1,815750
22,341833	0,5	1,853750
22,350167	0,5	1,897500
22,358500	0,5	1,928050
22,366833	0,5	1,978250
22,375167	0,5	2,021550
22,383500	0,5	2,047750
22,391833	0,5	2,108400
22,400167	0,5	2,183350
22,408500	0,5	2,258600
22,416833	0,5	2,323200
22,425167	0,5	2,380950
22,433500	0,5	2,429900
22,441833	0,5	2,490000
22,450167	0,5	2,558600
22,458500	0,5	2,635250
22,466833	0,5	2,708600
22,475167	0,5	2,791250
22,483500	0,5	2,870500
22,491833	0,5	2,947450
22,500167	0,5	3,022650
22,508500	0,5	3,090400
22,516833	0,5	3,143750
22,525167	0,5	3,182600
22,533500	0,5	3,237400
22,541833	0,5	3,311000
22,550167	0,5	3,397450
22,558500	0,5	3,462650
22,566833	0,5	3,517000
22,575167	0,5	3,564100
22,583500	0,5	3,604350
22,591833	0,5	3,645700
22,600167	0,5	3,693150
22,608500	0,5	3,729600
22,616833	0,5	3,770950
22,625167	0,5	3,793600
22,633500	0,5	3,822050
22,641833	0,5	3,837450
22,650167	0,5	3,856500
22,658500	0,5	3,854450
22,666833	0,5	3,859350
22,675167	0,5	3,780100
22,683500	0,5	3,793750
22,691833	0,5	3,775850
22,700167	0,5	3,753800
22,708500	0,5	3,694550
22,716833	0,5	3,625200
22,725167	0,5	3,537450
22,733500	0,5	3,442550
22,741833	0,5	3,359450
22,750167	0,5	3,266500
22,758500	0,5	3,174700
22,766833	0,5	3,079950
22,775167	0,5	2,984000
22,783500	0,5	2,882450
22,791833	0,5	2,763800
22,800167	0,5	2,638950
22,808500	0,5	2,499900
22,816833	0,5	2,340550
22,825167	0,5	2,135750
22,833500	0,5	1,990000
22,841833	0,5	1,841650
22,850167	0,5	1,662350
22,858500	0,5	1,477350
22,866833	0,5	1,294350
22,875167	0,5	1,116550
22,883500	0,5	0,936550
22,891833	0,5	0,764250
22,900167	0,5	0,589250
22,908500	0,5	0,425100
22,916833	0,5	0,263550
22,925167	0,5	0,112250
22,933500	0,5	-0,048550
22,941833	0,5	-0,198500
22,950167	0,5	-0,353700
22,958500	0,5	-0,492200
22,966833	0,5	-0,629300
22,975167	0,5	-0,780400
22,983500	0,5	-0,901200
22,991833	0,5	-1,068350
23,000167	0,5	-1,205950
23,008500	0,5	-1,320400
23,016833	0,5	-1,428500
23,025167	0,5	-1,535550
23,033500	0,5	-1,634650
23,041833	0,5	-1,729250
23,050167	0,5	-1,814300
23,058500	0,5	-1,893000
23,066833	0,5	-1,966550
23,075167	0,5	-2,036900
23,083500	0,5	-2,099500
23,091833	0,5	-2,166100
23,100167	0,5	-2,219000
23,108500	0,5	-2,267350
23,116833	0,5	-2,333600
23,125167	0,5	-2,362550
23,133500	0,5	-2,416650
23,141833	0,5	-2,495750
23,150167	0,5	-2,532850
23,158500	0,5	-2,563500
23,166833	0,5	-2,575850
23,175167	0,5	-2,599650
23,183500	0,5	-2,622300
23,191833	0,5	-2,628250
23,200167	0,5	-2,630250
23,208500	0,5	-2,626550
23,216833	0,5	-2,622400
23,225167	0,5	-2,614250
23,233500	0,5	-2,615050
23,241833	0,5	-2,604350
23,250167	0,5	-2,604100
23,258500	0,5	-2,593500
23,266833	0,5	-2,600400
23,275167	0,5	-2,579650
23,283500	0,5	-2,569500
23,291833	0,5	-2,584300
23,300167	0,5	-2,587200
23,308500	0,5	-2,570600
23,316833	0,5	-2,549250
23,325167	0,5	-2,536000
23,333500	0,5	-2,519400
23,341833	0,5	-2,489200
23,350167	0,5	-2,461750
23,358500	0,5	-2,431700
23,366833	0,5	-2,401350
23,375167	0,5	-2,369350
23,383500	0,5	-2,340800
23,391833	0,5	-2,310150
23,400167	0,5	-2,280500
23,408500	0,5	-2,320550
23,416833	0,5	-2,265550
23,425167	0,5	-2,208150
23,433500	0,5	-2,180850
23,441833	0,5	-2,177650
23,450167	0,5	-2,166150
23,458500	0,5	-2,148150
23,466833	0,5	-2,128050
23,475167	0,5	-2,115750
23,483500	0,5	-2,096550
23,491833	0,5	-2,078500
23,500167	0,5	-2,055900
23,508500	0,5	-2,038800
23,516833	0,5	-2,016100
23,525167	0,5	-1,997150
23,533500	0,5	-1,974500
23,541833	0,5	-1,959150
23,550167	0,5	-1,951250
23,558500	0,5	-2,038950
23,566833	0,5	-1,965600
23,575167	0,5	-1,911050
23,583500	0,5	-1,877300
23,591833	0,5	-1,869000
23,600167	0,5	-1,862800
23,608500	0,5	-1,852300
23,616833	0,5	-1,842950
23,625167	0,5	-1,833950
23,633500	0,5	-1,824150
23,641833	0,5	-1,816250
23,650167	0,5	-1,804650
23,658500	0,5	-1,794000
23,666833	0,5	-1,785500
23,675167	0,5	-1,777100
23,683500	0,5	-1,771700
23,691833	0,5	-1,767450
23,700167	0,5	-1,884200
23,708500	0,5	-1,886000
23,716833	0,5	-1,842900
23,725167	0,5	-1,790400
23,733500	0,5	-1,765100
23,741833	0,5	-1,764750
23,750167	0,5	-1,764550
23,758500	0,5	-1,765800
23,766833	0,5	-1,768500
23,775167	0,5	-1,751100
23,783500	0,5	-1,742450
23,791833	0,5	-1,729600
23,800167	0,5	-1,717950
23,808500	0,5	-1,706550
23,816833	0,5	-1,699500
23,825167	0,5	-1,685950
23,833500	0,5	-1,678950
23,841833	0,5	-1,678700
23,850167	0,5	-1,820800
23,858500	0,5	-1,788850
23,866833	0,5	-1,742300
23,875167	0,5	-1,685550
23,883500	0,5	-1,664600
23,891833	0,5	-1,663550
23,900167	0,5	-1,667450
23,908500	0,5	-1,669850
23,916833	0,5	-1,665700
23,925167	0,5	-1,661350
23,933500	0,5	-1,648550
23,941833	0,5	-1,639900
23,950167	0,5	-1,624550
23,958500	0,5	-1,619750
23,966833	0,5	-1,604600
23,975167	0,5	-1,595100
23,983500	0,5	-1,582250
23,991833	0,5	-1,624500
24,000167	0,5	-1,708200
24,008500	0,5	-1,680000
24,016833	0,5	-1,609050
24,025167	0,5	-1,564450
24,033500	0,5	-1,537200
24,041833	0,5	-1,527700
24,050167	0,5	-1,528150
24,058500	0,5	-1,518450
24,066833	0,5	-1,507400
24,075167	0,5	-1,485500
24,083500	0,5	-1,473600
24,091833	0,5	-1,455050
24,100167	0,5	-1,440850
24,108500	0,5	-1,423700
24,116833	0,5	-1,410200
24,125167	0,5	-1,393300
24,133500	0,5	-1,392150
24,141833	0,5	-1,497200
24,150167	0,5	-1,486900
24,158500	0,5	-1,456450
24,166833	0,5	-1,406650
24,175167	0,5	-1,370800
24,183500	0,5	-1,355500
24,191833	0,5	-1,347050
24,200167	0,5	-1,354350
24,208500	0,5	-1,339050
24,216833	0,5	-1,320650
24,225167	0,5	-1,302900
24,233500	0,5	-1,285150
24,241833	0,5	-1,269700
24,250167	0,5	-1,252200
24,258500	0,5	-1,235500
24,266833	0,5	-1,211900
24,275167	0,5	-1,197900
24,283500	0,5	-1,184700
24,291833	0,5	-1,282900
24,300167	0,5	-1,241250
24,308500	0,5	-1,217700
24,316833	0,5	-1,162350
24,325167	0,5	-1,138500
24,333500	0,5	-1,123250
24,341833	0,5	-1,122150
24,350167	0,5	-1,126750
24,358500	0,5	-1,108750
24,366833	0,5	-1,094050
24,375167	0,5	-1,086550
24,383500	0,5	-1,072500
24,391833	0,5	-1,064050
24,400167	0,5	-1,049100
24,408500	0,5	-1,038150
24,416833	0,5	-1,023900
24,425167	0,5	-1,010700
24,433500	0,5	-1,045250
24,441833	0,5	-1,077200
24,450167	0,5	-1,048850
24,458500	0,5	-1,011200
24,466833	0,5	-0,977800
24,475167	0,5	-0,957700
24,483500	0,5	-0,949700
24,491833	0,5	-0,943450
24,500167	0,5	-0,947600
24,508500	0,5	-0,924750
24,516833	0,5	-0,909100
24,525167	0,5	-0,893550
24,533500	0,5	-0,883750
24,541833	0,5	-0,870050
24,550167	0,5	-0,859050
24,558500	0,5	-0,844700
24,566833	0,5	-0,835600
24,575167	0,5	-0,830400
24,583500	0,5	-0,879000
24,591833	0,5	-0,871800
24,600167	0,5	-0,850900
24,608500	0,5	-0,828950
24,616833	0,5	-0,804550
24,625167	0,5	-0,795650
24,633500	0,5	-0,792050
24,641833	0,5	-0,794050
24,650167	0,5	-0,791150
24,658500	0,5	-0,785250
24,666833	0,5	-0,768800
24,675167	0,5	-0,762350
24,683500	0,5	-0,748550
24,691833	0,5	-0,737600
24,700167	0,5	-0,722200
24,708500	0,5	-0,711750
24,716833	0,5	-0,696650
24,725167	0,5	-0,692700
24,733500	0,5	-0,729450
24,741833	0,5	-0,706700
24,750167	0,5	-0,687750
24,758500	0,5	-0,665150
24,766833	0,5	-0,650150
24,775167	0,5	-0,647150
24,783500	0,5	-0,646750
24,791833	0,5	-0,646600
24,800167	0,5	-0,643800
24,808500	0,5	-0,633350
24,816833	0,5	-0,625950
24,825167	0,5	-0,617950
24,833500	0,5	-0,612400
24,841833	0,5	-0,602750
24,850167	0,5	-0,597900
24,858500	0,5	-0,588700
24,866833	0,5	-0,583800
24,875167	0,5	-0,592900
24,883500	0,5	-0,602650
24,891833	0,5	-0,588100
24,900167	0,5	-0,572950
24,908500	0,5	-0,555950
24,916833	0,5	-0,548250
24,925167	0,5	-0,542050
24,933500	0,5	-0,537900
24,941833	0,5	-0,536750
24,950167	0,5	-0,527650
24,958500	0,5	-0,520600
24,966833	0,5	-0,511750
24,975167	0,5	-0,507100
24,983500	0,5	-0,497850
24,991833	0,5	-0,495150
25,000167	0,5	-0,483500
25,008500	0,5	-0,477050
25,016833	0,5	-0,468600
25,025167	0,5	-0,484900
25,033500	0,5	-0,478250
25,041833	0,5	-0,474000
25,050167	0,5	-0,462950
25,058500	0,5	-0,456950
25,066833	0,5	-0,452600
25,075167	0,5	-0,451400
25,083500	0,5	-0,454850
25,091833	0,5	-0,448500
25,100167	0,5	-0,444050
25,108500	0,5	-0,440750
25,116833	0,5	-0,434300
25,125167	0,5	-0,426950
25,133500	0,5	-0,422950
25,141833	0,5	-0,417150
25,150167	0,5	-0,408350
25,158500	0,5	-0,401400
25,166833	0,5	-0,399250
25,175167	0,5	-0,400750
25,183500	0,5	-0,391750
25,191833	0,5	-0,387050
25,200167	0,5	-0,382300
25,208500	0,5	-0,377500
25,216833	0,5	-0,374300
25,225167	0,5	-0,373350
25,233500	0,5	-0,373500
25,241833	0,5	-0,372100
25,250167	0,5	-0,367900
25,258500	0,5	-0,366050
25,266833	0,5	-0,365900
25,275167	0,5	-0,363350
25,283500	0,5	-0,359950
25,291833	0,5	-0,359000
25,300167	0,5	-0,353750
25,308500	0,5	-0,354400
25,316833	0,5	-0,350650
25,325167	0,5	-0,344450
25,333500	0,5	-0,342950
25,341833	0,5	-0,337500
25,350167	0,5	-0,337550
25,358500	0,5	-0,331650
25,366833	0,5	-0,328050
25,375167	0,5	-0,328300
25,383500	0,5	-0,324450
25,391833	0,5	-0,323300
25,400167	0,5	-0,323100
25,408500	0,5	-0,319950
25,416833	0,5	-0,317800
25,425167	0,5	-0,313350
25,433500	0,5	-0,310850
25,441833	0,5	-0,311050
25,450167	0,5	-0,307900
25,458500	0,5	-0,309900
25,466833	0,5	-0,299950
25,475167	0,5	-0,299700
25,483500	0,5	-0,298600
25,491833	0,5	-0,302450
25,500167	0,5	-0,301200
25,508500	0,5	-0,300800
25,516833	0,5	-0,298350
25,525167	0,5	-0,300350
25,533500	0,5	-0,294500
25,541833	0,5	-0,295750
25,550167	0,5	-0,292850
25,558500	0,5	-0,290750
25,566833	0,5	-0,287450
25,575167	0,5	-0,285950
25,583500	0,5	-0,282500
25,591833	0,5	-0,279350
25,600167	0,5	-0,278200
25,608500	0,5	-0,275300
25,616833	0,5	-0,263900
25,625167	0,5	-0,264500
25,633500	0,5	-0,261500
25,641833	0,5	-0,271050
25,650167	0,5	-0,270350
25,658500	0,5	-0,270400
25,666833	0,5	-0,268800
25,675167	0,5	-0,265700
25,683500	0,5	-0,263750
25,691833	0,5	-0,260650
25,700167	0,5	-0,265100
25,708500	0,5	-0,262150
25,716833	0,5	-0,267300
25,725167	0,5	-0,262350
25,733500	0,5	-0,263200
25,741833	0,5	-0,259450
25,750167	0,5	-0,257100
25,758500	0,5	-0,251950
25,766833	0,5	-0,244400
25,775167	0,5	-0,239650
25,783500	0,5	-0,242250
25,791833	0,5	-0,249350
25,800167	0,5	-0,246050
25,808500	0,5	-0,244800
25,816833	0,5	-0,241700
25,825167	0,5	-0,233500
25,833500	0,5	-0,229950
25,841833	0,5	-0,235000
25,850167	0,5	-0,233450
25,858500	0,5	-0,231400
25,866833	0,5	-0,230650
25,875167	0,5	-0,228900
25,883500	0,5	-0,226500
25,891833	0,5	-0,228250
25,900167	0,5	-0,223850
25,908500	0,5	-0,217750
25,916833	0,5	-0,209550
25,925167	0,5	-0,203650
25,933500	0,5	-0,213050
25,941833	0,5	-0,218150
25,950167	0,5	-0,215100
25,958500	0,5	-0,214600
25,966833	0,5	-0,205350
25,975167	0,5	-0,197650
25,983500	0,5	-0,199650
25,991833	0,5	-0,197000
26,000167	0,5	-0,197850
