File Path	chrom://chromeleon01/ikbm_chromeleon/2022/ICS-5000/ED1/Esteban/20220612_Cell_7_4_eg.seq/233.smp/ED_1.channel/ED_1.chm
Channel	ED_1

Injection Information:
Data Vault	ikbm_chromeleon
Injection	4_00h-EGS_1
Injection Number	127
Position	BD2
Comment	
Processing Method	Stop sequence after Cell Death
Instrument Method	ICS5000_PA200_FullNative_Ox_26min_ED1
Type	Unknown
Status	Finished
Injection Date	15.06.2022
Injection Time	04:10:31
Injection Volume (µl)	5,0
Dilution Factor	1,0000
Weight	1,0000

Chromatogram Data Information:
Time Min. (min)	0,000167
Time Max. (min)	26,000167
Data Points	3121
Detector	EDet1
Generating Data System	Chromeleon 7.2.9.11323
Exporting Data System	Chromeleon 7.2.9.0
Operator	Instrument Controller
Signal Quantity	
Signal Unit	nC
Signal Min.	-2,378100
Signal Max.	2 097,790681
Channel	ED_1
Driver Name	DC-5000
Channel Type	Evaluation
Min. Step (s)	0,5
Max. Step (s)	0,5
Average Step (s)	0,5

Signal Parameter Information:
Signal Info	

Chromatogram Data:
Time (min)	Step (s)	Value (nC)
0,000167	n.a.	-0,084800
0,008500	0,5	-0,079950
0,016833	0,5	-0,070150
0,025167	0,5	-0,051350
0,033500	0,5	-0,022700
0,041833	0,5	-0,027600
0,050167	0,5	-0,002650
0,058500	0,5	-0,029350
0,066833	0,5	-0,051650
0,075167	0,5	-0,038700
0,083500	0,5	-0,026050
0,091833	0,5	0,003700
0,100167	0,5	0,009300
0,108500	0,5	-0,007000
0,116833	0,5	-0,003400
0,125167	0,5	-0,014650
0,133500	0,5	-0,006600
0,141833	0,5	-0,011750
0,150167	0,5	-0,010600
0,158500	0,5	-0,024300
0,166833	0,5	-0,018000
0,175167	0,5	-0,019700
0,183500	0,5	-0,034450
0,191833	0,5	-0,038100
0,200167	0,5	-0,006800
0,208500	0,5	-0,042650
0,216833	0,5	-0,050950
0,225167	0,5	-0,042050
0,233500	0,5	-0,032200
0,241833	0,5	-0,004650
0,250167	0,5	-0,024900
0,258500	0,5	-0,020150
0,266833	0,5	-0,016950
0,275167	0,5	-0,013550
0,283500	0,5	-0,012250
0,291833	0,5	0,029550
0,300167	0,5	0,037450
0,308500	0,5	0,009600
0,316833	0,5	-0,036100
0,325167	0,5	-0,061950
0,333500	0,5	-0,081500
0,341833	0,5	-0,065900
0,350167	0,5	-0,056100
0,358500	0,5	-0,064950
0,366833	0,5	-0,072200
0,375167	0,5	-0,060050
0,383500	0,5	-0,041800
0,391833	0,5	-0,016950
0,400167	0,5	-0,030500
0,408500	0,5	-0,034650
0,416833	0,5	-0,038400
0,425167	0,5	-0,042950
0,433500	0,5	-0,044850
0,441833	0,5	-0,043400
0,450167	0,5	-0,041700
0,458500	0,5	-0,049350
0,466833	0,5	-0,035900
0,475167	0,5	-0,040900
0,483500	0,5	-0,047950
0,491833	0,5	-0,043600
0,500167	0,5	-0,043850
0,508500	0,5	-0,061950
0,516833	0,5	-0,060100
0,525167	0,5	-0,051100
0,533500	0,5	-0,022800
0,541833	0,5	-0,013700
0,550167	0,5	-0,011500
0,558500	0,5	-0,017500
0,566833	0,5	-0,008550
0,575167	0,5	-0,017650
0,583500	0,5	-0,012550
0,591833	0,5	-0,014950
0,600167	0,5	-0,019550
0,608500	0,5	-0,015150
0,616833	0,5	-0,019850
0,625167	0,5	0,004500
0,633500	0,5	-0,013300
0,641833	0,5	0,013250
0,650167	0,5	-0,010350
0,658500	0,5	-0,015850
0,666833	0,5	-0,018000
0,675167	0,5	0,000650
0,683500	0,5	0,027300
0,691833	0,5	0,040950
0,700167	0,5	0,022850
0,708500	0,5	0,031500
0,716833	0,5	0,021250
0,725167	0,5	0,030900
0,733500	0,5	0,020350
0,741833	0,5	0,028450
0,750167	0,5	0,027000
0,758500	0,5	0,034550
0,766833	0,5	0,036900
0,775167	0,5	0,029050
0,783500	0,5	0,034900
0,791833	0,5	0,053100
0,800167	0,5	0,027150
0,808500	0,5	0,025100
0,816833	0,5	0,031450
0,825167	0,5	0,052550
0,833500	0,5	0,082400
0,841833	0,5	0,083300
0,850167	0,5	0,088250
0,858500	0,5	0,077850
0,866833	0,5	0,086950
0,875167	0,5	0,075850
0,883500	0,5	0,082950
0,891833	0,5	0,077250
0,900167	0,5	0,076700
0,908500	0,5	0,074400
0,916833	0,5	0,066150
0,925167	0,5	0,056950
0,933500	0,5	0,090100
0,941833	0,5	0,082000
0,950167	0,5	0,070000
0,958500	0,5	0,072700
0,966833	0,5	0,074950
0,975167	0,5	0,103800
0,983500	0,5	0,115300
0,991833	0,5	0,128250
1,000167	0,5	0,113800
1,008500	0,5	0,121600
1,016833	0,5	0,111500
1,025167	0,5	0,115150
1,033500	0,5	0,109450
1,041833	0,5	0,110100
1,050167	0,5	0,108450
1,058500	0,5	0,112700
1,066833	0,5	0,105050
1,075167	0,5	0,106300
1,083500	0,5	0,128800
1,091833	0,5	0,116000
1,100167	0,5	0,096450
1,108500	0,5	0,103000
1,116833	0,5	0,110050
1,125167	0,5	0,154200
1,133500	0,5	0,149300
1,141833	0,5	0,138900
1,150167	0,5	0,138900
1,158500	0,5	0,139650
1,166833	0,5	0,141500
1,175167	0,5	0,141150
1,183500	0,5	0,139800
1,191833	0,5	0,131400
1,200167	0,5	0,141550
1,208500	0,5	0,134850
1,216833	0,5	0,141750
1,225167	0,5	0,130400
1,233500	0,5	0,170700
1,241833	0,5	0,131200
1,250167	0,5	0,129000
1,258500	0,5	0,127650
1,266833	0,5	0,141150
1,275167	0,5	0,169500
1,283500	0,5	0,159250
1,291833	0,5	0,153950
1,300167	0,5	0,165450
1,308500	0,5	0,158650
1,316833	0,5	0,164800
1,325167	0,5	0,161250
1,333500	0,5	0,155450
1,341833	0,5	0,154450
1,350167	0,5	0,157700
1,358500	0,5	0,170400
1,366833	0,5	0,156200
1,375167	0,5	0,163900
1,383500	0,5	0,173550
1,391833	0,5	0,150400
1,400167	0,5	0,148550
1,408500	0,5	0,159500
1,416833	0,5	0,171800
1,425167	0,5	0,197750
1,433500	0,5	0,185650
1,441833	0,5	0,189450
1,450167	0,5	0,181050
1,458500	0,5	0,187950
1,466833	0,5	0,179500
1,475167	0,5	0,182700
1,483500	0,5	0,178800
1,491833	0,5	0,180250
1,500167	0,5	0,183450
1,508500	0,5	0,177100
1,516833	0,5	0,166500
1,525167	0,5	0,179950
1,533500	0,5	0,173950
1,541833	0,5	0,168250
1,550167	0,5	0,213550
1,558500	0,5	0,374900
1,566833	0,5	0,805300
1,575167	0,5	1,822600
1,583500	0,5	6,656950
1,591833	0,5	30,768050
1,600167	0,5	125,181752
1,608500	0,5	428,631006
1,616833	0,5	1 107,208166
1,625167	0,5	1 552,103773
1,633500	0,5	2 097,790681
1,641833	0,5	2 050,722781
1,650167	0,5	2 006,178780
1,658500	0,5	1 923,894629
1,666833	0,5	1 644,676475
1,675167	0,5	1 206,152118
1,683500	0,5	816,808062
1,691833	0,5	566,905158
1,700167	0,5	418,490706
1,708500	0,5	328,629455
1,716833	0,5	267,027754
1,725167	0,5	222,991303
1,733500	0,5	189,566553
1,741833	0,5	164,052802
1,750167	0,5	144,068702
1,758500	0,5	127,484002
1,766833	0,5	113,182402
1,775167	0,5	101,187852
1,783500	0,5	91,757101
1,791833	0,5	85,131651
1,800167	0,5	81,344401
1,808500	0,5	80,519601
1,816833	0,5	82,335001
1,825167	0,5	84,914551
1,833500	0,5	85,439251
1,841833	0,5	82,751951
1,850167	0,5	77,486451
1,858500	0,5	71,121651
1,866833	0,5	65,217651
1,875167	0,5	60,759051
1,883500	0,5	57,684301
1,891833	0,5	55,281301
1,900167	0,5	53,111501
1,908500	0,5	51,380451
1,916833	0,5	50,291601
1,925167	0,5	49,451551
1,933500	0,5	48,244501
1,941833	0,5	46,453601
1,950167	0,5	44,505151
1,958500	0,5	42,996651
1,966833	0,5	42,484301
1,975167	0,5	43,428901
1,983500	0,5	46,253851
1,991833	0,5	49,884401
2,000167	0,5	51,728701
2,008500	0,5	50,431651
2,016833	0,5	47,433851
2,025167	0,5	44,821251
2,033500	0,5	43,416851
2,041833	0,5	43,074901
2,050167	0,5	43,568451
2,058500	0,5	44,781801
2,066833	0,5	46,706451
2,075167	0,5	49,415651
2,083500	0,5	53,171901
2,091833	0,5	58,402101
2,100167	0,5	65,701251
2,108500	0,5	75,628651
2,116833	0,5	87,715251
2,125167	0,5	99,588501
2,133500	0,5	108,436802
2,141833	0,5	112,323152
2,150167	0,5	110,019802
2,158500	0,5	101,603102
2,166833	0,5	89,348801
2,175167	0,5	76,977101
2,183500	0,5	66,732301
2,191833	0,5	59,216451
2,200167	0,5	54,492051
2,208500	0,5	53,133601
2,216833	0,5	55,573251
2,225167	0,5	60,048051
2,233500	0,5	62,265251
2,241833	0,5	60,080251
2,250167	0,5	55,863201
2,258500	0,5	52,325251
2,266833	0,5	49,286951
2,275167	0,5	45,413351
2,283500	0,5	41,042601
2,291833	0,5	37,246401
2,300167	0,5	34,559951
2,308500	0,5	32,858450
2,316833	0,5	31,888100
2,325167	0,5	31,766100
2,333500	0,5	32,713450
2,341833	0,5	34,312951
2,350167	0,5	35,889701
2,358500	0,5	37,014001
2,366833	0,5	37,669301
2,375167	0,5	38,043951
2,383500	0,5	38,554351
2,391833	0,5	39,255651
2,400167	0,5	39,516901
2,408500	0,5	38,684901
2,416833	0,5	36,921101
2,425167	0,5	34,877001
2,433500	0,5	33,149100
2,441833	0,5	31,770450
2,450167	0,5	30,579300
2,458500	0,5	29,486450
2,466833	0,5	28,459400
2,475167	0,5	27,620450
2,483500	0,5	26,969050
2,491833	0,5	26,494650
2,500167	0,5	26,148600
2,508500	0,5	25,953500
2,516833	0,5	25,804150
2,525167	0,5	25,664400
2,533500	0,5	25,482600
2,541833	0,5	25,253700
2,550167	0,5	25,033550
2,558500	0,5	25,146200
2,566833	0,5	26,421450
2,575167	0,5	28,650400
2,583500	0,5	29,194950
2,591833	0,5	27,771050
2,600167	0,5	26,348650
2,608500	0,5	25,359800
2,616833	0,5	24,578250
2,625167	0,5	23,919850
2,633500	0,5	23,383600
2,641833	0,5	22,957000
2,650167	0,5	22,663100
2,658500	0,5	22,493250
2,666833	0,5	22,459800
2,675167	0,5	22,505250
2,683500	0,5	22,583500
2,691833	0,5	22,582350
2,700167	0,5	22,477400
2,708500	0,5	22,263400
2,716833	0,5	21,951450
2,725167	0,5	21,599700
2,733500	0,5	21,283700
2,741833	0,5	20,988800
2,750167	0,5	20,750400
2,758500	0,5	20,525350
2,766833	0,5	20,332800
2,775167	0,5	20,188050
2,783500	0,5	20,114150
2,791833	0,5	20,091000
2,800167	0,5	20,093800
2,808500	0,5	20,084950
2,816833	0,5	20,038750
2,825167	0,5	19,961400
2,833500	0,5	19,844450
2,841833	0,5	19,719100
2,850167	0,5	19,591700
2,858500	0,5	19,466350
2,866833	0,5	19,369250
2,875167	0,5	19,446300
2,883500	0,5	19,847900
2,891833	0,5	20,781600
2,900167	0,5	22,345550
2,908500	0,5	24,457350
2,916833	0,5	26,709350
2,925167	0,5	28,555200
2,933500	0,5	29,447600
2,941833	0,5	29,280250
2,950167	0,5	28,292300
2,958500	0,5	26,971750
2,966833	0,5	25,745200
2,975167	0,5	24,821550
2,983500	0,5	24,179350
2,991833	0,5	23,660550
3,000167	0,5	23,155900
3,008500	0,5	22,510550
3,016833	0,5	21,735400
3,025167	0,5	20,915850
3,033500	0,5	20,169300
3,041833	0,5	19,608300
3,050167	0,5	19,334400
3,058500	0,5	19,467050
3,066833	0,5	20,253350
3,075167	0,5	21,974800
3,083500	0,5	24,967050
3,091833	0,5	29,219550
3,100167	0,5	34,221751
3,108500	0,5	38,869101
3,116833	0,5	41,987251
3,125167	0,5	42,775351
3,133500	0,5	41,145001
3,141833	0,5	37,689251
3,150167	0,5	33,367050
3,158500	0,5	28,920600
3,166833	0,5	24,982250
3,175167	0,5	21,822150
3,183500	0,5	19,457350
3,191833	0,5	17,789400
3,200167	0,5	16,581100
3,208500	0,5	15,750100
3,216833	0,5	15,154200
3,225167	0,5	14,730500
3,233500	0,5	14,383950
3,241833	0,5	14,095700
3,250167	0,5	13,825750
3,258500	0,5	13,590950
3,266833	0,5	13,382200
3,275167	0,5	13,222150
3,283500	0,5	13,104150
3,291833	0,5	13,064500
3,300167	0,5	13,147550
3,308500	0,5	13,302050
3,316833	0,5	13,572550
3,325167	0,5	13,919900
3,333500	0,5	14,268750
3,341833	0,5	14,545600
3,350167	0,5	14,621300
3,358500	0,5	14,521950
3,366833	0,5	14,284250
3,375167	0,5	13,955300
3,383500	0,5	13,596800
3,391833	0,5	13,250750
3,400167	0,5	12,961550
3,408500	0,5	12,717900
3,416833	0,5	12,534150
3,425167	0,5	12,376250
3,433500	0,5	12,245150
3,441833	0,5	12,117700
3,450167	0,5	12,037200
3,458500	0,5	11,926000
3,466833	0,5	11,855400
3,475167	0,5	11,799400
3,483500	0,5	11,774500
3,491833	0,5	11,780700
3,500167	0,5	11,786200
3,508500	0,5	11,837800
3,516833	0,5	11,985350
3,525167	0,5	12,233050
3,533500	0,5	12,627600
3,541833	0,5	13,125450
3,550167	0,5	13,648650
3,558500	0,5	14,068850
3,566833	0,5	14,247800
3,575167	0,5	14,142250
3,583500	0,5	13,732400
3,591833	0,5	13,172250
3,600167	0,5	12,539250
3,608500	0,5	11,949150
3,616833	0,5	11,482550
3,625167	0,5	11,154550
3,633500	0,5	10,948350
3,641833	0,5	10,830650
3,650167	0,5	10,744650
3,658500	0,5	10,701200
3,666833	0,5	10,669200
3,675167	0,5	10,658000
3,683500	0,5	10,640550
3,691833	0,5	10,637400
3,700167	0,5	10,625500
3,708500	0,5	10,617500
3,716833	0,5	10,595550
3,725167	0,5	10,542400
3,733500	0,5	10,490900
3,741833	0,5	10,456600
3,750167	0,5	10,390950
3,758500	0,5	10,327750
3,766833	0,5	10,309600
3,775167	0,5	10,345750
3,783500	0,5	10,483350
3,791833	0,5	10,672500
3,800167	0,5	10,896500
3,808500	0,5	11,091400
3,816833	0,5	11,273350
3,825167	0,5	11,407750
3,833500	0,5	11,528850
3,841833	0,5	11,632450
3,850167	0,5	11,746450
3,858500	0,5	11,854900
3,866833	0,5	11,944800
3,875167	0,5	12,003200
3,883500	0,5	12,056650
3,891833	0,5	12,095550
3,900167	0,5	12,128250
3,908500	0,5	12,182500
3,916833	0,5	12,292650
3,925167	0,5	12,478500
3,933500	0,5	12,769800
3,941833	0,5	13,262950
3,950167	0,5	14,180550
3,958500	0,5	15,976850
3,966833	0,5	19,149300
3,975167	0,5	23,953000
3,983500	0,5	29,936450
3,991833	0,5	36,166901
4,000167	0,5	41,443551
4,008500	0,5	44,828451
4,016833	0,5	45,844051
4,025167	0,5	44,595301
4,033500	0,5	41,678301
4,041833	0,5	37,816851
4,050167	0,5	33,682651
4,058500	0,5	29,829450
4,066833	0,5	26,524450
4,075167	0,5	23,851600
4,083500	0,5	21,732200
4,091833	0,5	20,048250
4,100167	0,5	18,724850
4,108500	0,5	17,641050
4,116833	0,5	16,738750
4,125167	0,5	15,956050
4,133500	0,5	15,287800
4,141833	0,5	14,699750
4,150167	0,5	14,199750
4,158500	0,5	13,765200
4,166833	0,5	13,399600
4,175167	0,5	13,061800
4,183500	0,5	12,817050
4,191833	0,5	12,555850
4,200167	0,5	12,329750
4,208500	0,5	12,123800
4,216833	0,5	11,947000
4,225167	0,5	11,794650
4,233500	0,5	11,622450
4,241833	0,5	11,448800
4,250167	0,5	11,282750
4,258500	0,5	11,127150
4,266833	0,5	10,982350
4,275167	0,5	10,849250
4,283500	0,5	10,730300
4,291833	0,5	10,615200
4,300167	0,5	10,514550
4,308500	0,5	10,429950
4,316833	0,5	10,334500
4,325167	0,5	10,257900
4,333500	0,5	10,216850
4,341833	0,5	10,152350
4,350167	0,5	10,102050
4,358500	0,5	10,079500
4,366833	0,5	10,072450
4,375167	0,5	10,118450
4,383500	0,5	10,144300
4,391833	0,5	10,201200
4,400167	0,5	10,276700
4,408500	0,5	10,379900
4,416833	0,5	10,471450
4,425167	0,5	10,561300
4,433500	0,5	10,613900
4,441833	0,5	10,623950
4,450167	0,5	10,583250
4,458500	0,5	10,485350
4,466833	0,5	10,348400
4,475167	0,5	10,176100
4,483500	0,5	10,012350
4,491833	0,5	9,802150
4,500167	0,5	9,632950
4,508500	0,5	9,476450
4,516833	0,5	9,369050
4,525167	0,5	9,286700
4,533500	0,5	9,205850
4,541833	0,5	9,125250
4,550167	0,5	9,077800
4,558500	0,5	9,023250
4,566833	0,5	8,993950
4,575167	0,5	8,956200
4,583500	0,5	8,929700
4,591833	0,5	8,900100
4,600167	0,5	8,877200
4,608500	0,5	8,853350
4,616833	0,5	8,830450
4,625167	0,5	8,812850
4,633500	0,5	8,788500
4,641833	0,5	8,747650
4,650167	0,5	8,728500
4,658500	0,5	8,714400
4,666833	0,5	8,721650
4,675167	0,5	8,728950
4,683500	0,5	8,707600
4,691833	0,5	8,700300
4,700167	0,5	8,684050
4,708500	0,5	8,691200
4,716833	0,5	8,688350
4,725167	0,5	8,698900
4,733500	0,5	8,693450
4,741833	0,5	8,707600
4,750167	0,5	8,706300
4,758500	0,5	8,704050
4,766833	0,5	8,699200
4,775167	0,5	8,717350
4,783500	0,5	8,698500
4,791833	0,5	8,675600
4,800167	0,5	8,670400
4,808500	0,5	8,673800
4,816833	0,5	8,702750
4,825167	0,5	8,726150
4,833500	0,5	8,760200
4,841833	0,5	8,799950
4,850167	0,5	8,861700
4,858500	0,5	8,940800
4,866833	0,5	9,034150
4,875167	0,5	9,132500
4,883500	0,5	9,246500
4,891833	0,5	9,355500
4,900167	0,5	9,467850
4,908500	0,5	9,548100
4,916833	0,5	9,624600
4,925167	0,5	9,674250
4,933500	0,5	9,672400
4,941833	0,5	9,640350
4,950167	0,5	9,604650
4,958500	0,5	9,546150
4,966833	0,5	9,482850
4,975167	0,5	9,381850
4,983500	0,5	9,274800
4,991833	0,5	9,170150
5,000167	0,5	9,068750
5,008500	0,5	8,972200
5,016833	0,5	8,882350
5,025167	0,5	8,800300
5,033500	0,5	8,727300
5,041833	0,5	8,670650
5,050167	0,5	8,618750
5,058500	0,5	8,569050
5,066833	0,5	8,536600
5,075167	0,5	8,503450
5,083500	0,5	8,447800
5,091833	0,5	8,415750
5,100167	0,5	8,384700
5,108500	0,5	8,375550
5,116833	0,5	8,354950
5,125167	0,5	8,328150
5,133500	0,5	8,296600
5,141833	0,5	8,287200
5,150167	0,5	8,264950
5,158500	0,5	8,248800
5,166833	0,5	8,232800
5,175167	0,5	8,212100
5,183500	0,5	8,199550
5,191833	0,5	8,191150
5,200167	0,5	8,193700
5,208500	0,5	8,164700
5,216833	0,5	8,174100
5,225167	0,5	8,152850
5,233500	0,5	8,136050
5,241833	0,5	8,127750
5,250167	0,5	8,135950
5,258500	0,5	8,154400
5,266833	0,5	8,170700
5,275167	0,5	8,166950
5,283500	0,5	8,183900
5,291833	0,5	8,189400
5,300167	0,5	8,200900
5,308500	0,5	8,194300
5,316833	0,5	8,195500
5,325167	0,5	8,184000
5,333500	0,5	8,174900
5,341833	0,5	8,161850
5,350167	0,5	8,145050
5,358500	0,5	8,119500
5,366833	0,5	8,130950
5,375167	0,5	8,112300
5,383500	0,5	8,109250
5,391833	0,5	8,116700
5,400167	0,5	8,138650
5,408500	0,5	8,177550
5,416833	0,5	8,177050
5,425167	0,5	8,184350
5,433500	0,5	8,179800
5,441833	0,5	8,174250
5,450167	0,5	8,145850
5,458500	0,5	8,123750
5,466833	0,5	8,082200
5,475167	0,5	8,047200
5,483500	0,5	8,003900
5,491833	0,5	7,958250
5,500167	0,5	7,908400
5,508500	0,5	7,858900
5,516833	0,5	7,810700
5,525167	0,5	7,738650
5,533500	0,5	7,680150
5,541833	0,5	7,628900
5,550167	0,5	7,592750
5,558500	0,5	7,575950
5,566833	0,5	7,553700
5,575167	0,5	7,517800
5,583500	0,5	7,501850
5,591833	0,5	7,476400
5,600167	0,5	7,466400
5,608500	0,5	7,450250
5,616833	0,5	7,444600
5,625167	0,5	7,434900
5,633500	0,5	7,438650
5,641833	0,5	7,438550
5,650167	0,5	7,439250
5,658500	0,5	7,441250
5,666833	0,5	7,442800
5,675167	0,5	7,424700
5,683500	0,5	7,426400
5,691833	0,5	7,423900
5,700167	0,5	7,444500
5,708500	0,5	7,457450
5,716833	0,5	7,458450
5,725167	0,5	7,458200
5,733500	0,5	7,456050
5,741833	0,5	7,459400
5,750167	0,5	7,459500
5,758500	0,5	7,463250
5,766833	0,5	7,459550
5,775167	0,5	7,457200
5,783500	0,5	7,442600
5,791833	0,5	7,434600
5,800167	0,5	7,413350
5,808500	0,5	7,423400
5,816833	0,5	7,394850
5,825167	0,5	7,363450
5,833500	0,5	7,344800
5,841833	0,5	7,330000
5,850167	0,5	7,331650
5,858500	0,5	7,322750
5,866833	0,5	7,304800
5,875167	0,5	7,294000
5,883500	0,5	7,276550
5,891833	0,5	7,271250
5,900167	0,5	7,254550
5,908500	0,5	7,243900
5,916833	0,5	7,233850
5,925167	0,5	7,227250
5,933500	0,5	7,220050
5,941833	0,5	7,199000
5,950167	0,5	7,193450
5,958500	0,5	7,200950
5,966833	0,5	7,180600
5,975167	0,5	7,166150
5,983500	0,5	7,163800
5,991833	0,5	7,169550
6,000167	0,5	7,191700
6,008500	0,5	7,189050
6,016833	0,5	7,194950
6,025167	0,5	7,195150
6,033500	0,5	7,210150
6,041833	0,5	7,210300
6,050167	0,5	7,224750
6,058500	0,5	7,228900
6,066833	0,5	7,232150
6,075167	0,5	7,241700
6,083500	0,5	7,239100
6,091833	0,5	7,232700
6,100167	0,5	7,236950
6,108500	0,5	7,239250
6,116833	0,5	7,226950
6,125167	0,5	7,230250
6,133500	0,5	7,246050
6,141833	0,5	7,283850
6,150167	0,5	7,329300
6,158500	0,5	7,380950
6,166833	0,5	7,441150
6,175167	0,5	7,528900
6,183500	0,5	7,613150
6,191833	0,5	7,712700
6,200167	0,5	7,798500
6,208500	0,5	7,876750
6,216833	0,5	7,929600
6,225167	0,5	7,959100
6,233500	0,5	7,971350
6,241833	0,5	7,933350
6,250167	0,5	7,877400
6,258500	0,5	7,791550
6,266833	0,5	7,680000
6,275167	0,5	7,572900
6,283500	0,5	7,478900
6,291833	0,5	7,405100
6,300167	0,5	7,330500
6,308500	0,5	7,256000
6,316833	0,5	7,200800
6,325167	0,5	7,150400
6,333500	0,5	7,119150
6,341833	0,5	7,084800
6,350167	0,5	7,067350
6,358500	0,5	7,043400
6,366833	0,5	7,031950
6,375167	0,5	7,024950
6,383500	0,5	7,026300
6,391833	0,5	7,012000
6,400167	0,5	7,028000
6,408500	0,5	7,013500
6,416833	0,5	7,012500
6,425167	0,5	7,012900
6,433500	0,5	7,029700
6,441833	0,5	7,050050
6,450167	0,5	7,052450
6,458500	0,5	7,057400
6,466833	0,5	7,060850
6,475167	0,5	7,068400
6,483500	0,5	7,080850
6,491833	0,5	7,094750
6,500167	0,5	7,113350
6,508500	0,5	7,141700
6,516833	0,5	7,174500
6,525167	0,5	7,217250
6,533500	0,5	7,258050
6,541833	0,5	7,309550
6,550167	0,5	7,362600
6,558500	0,5	7,396100
6,566833	0,5	7,432050
6,575167	0,5	7,467200
6,583500	0,5	7,500350
6,591833	0,5	7,534000
6,600167	0,5	7,549300
6,608500	0,5	7,548750
6,616833	0,5	7,534750
6,625167	0,5	7,512150
6,633500	0,5	7,474500
6,641833	0,5	7,426050
6,650167	0,5	7,371800
6,658500	0,5	7,312750
6,666833	0,5	7,263000
6,675167	0,5	7,215450
6,683500	0,5	7,182950
6,691833	0,5	7,169800
6,700167	0,5	7,164750
6,708500	0,5	7,161050
6,716833	0,5	7,183650
6,725167	0,5	7,217350
6,733500	0,5	7,280800
6,741833	0,5	7,342350
6,750167	0,5	7,411350
6,758500	0,5	7,480300
6,766833	0,5	7,570900
6,775167	0,5	7,682200
6,783500	0,5	7,826000
6,791833	0,5	8,009650
6,800167	0,5	8,277450
6,808500	0,5	8,649400
6,816833	0,5	9,159850
6,825167	0,5	9,849000
6,833500	0,5	10,728150
6,841833	0,5	11,827400
6,850167	0,5	13,059600
6,858500	0,5	14,363500
6,866833	0,5	15,638300
6,875167	0,5	16,745900
6,883500	0,5	17,571250
6,891833	0,5	17,998300
6,900167	0,5	17,983100
6,908500	0,5	17,557300
6,916833	0,5	16,765500
6,925167	0,5	15,712500
6,933500	0,5	14,495700
6,941833	0,5	13,257700
6,950167	0,5	12,072950
6,958500	0,5	11,023600
6,966833	0,5	10,138850
6,975167	0,5	9,419100
6,983500	0,5	8,853000
6,991833	0,5	8,435750
7,000167	0,5	8,099000
7,008500	0,5	7,860600
7,016833	0,5	7,689850
7,025167	0,5	7,572850
7,033500	0,5	7,496350
7,041833	0,5	7,415900
7,050167	0,5	7,352050
7,058500	0,5	7,279600
7,066833	0,5	7,217600
7,075167	0,5	7,147350
7,083500	0,5	7,095750
7,091833	0,5	7,049250
7,100167	0,5	7,011900
7,108500	0,5	6,985400
7,116833	0,5	6,962550
7,125167	0,5	6,936400
7,133500	0,5	6,920700
7,141833	0,5	6,908100
7,150167	0,5	6,882500
7,158500	0,5	6,858800
7,166833	0,5	6,842550
7,175167	0,5	6,835550
7,183500	0,5	6,828250
7,191833	0,5	6,813250
7,200167	0,5	6,793850
7,208500	0,5	6,782550
7,216833	0,5	6,770550
7,225167	0,5	6,758250
7,233500	0,5	6,738150
7,241833	0,5	6,721250
7,250167	0,5	6,701150
7,258500	0,5	6,679100
7,266833	0,5	6,659550
7,275167	0,5	6,632750
7,283500	0,5	6,610500
7,291833	0,5	6,596400
7,300167	0,5	6,568750
7,308500	0,5	6,553950
7,316833	0,5	6,540050
7,325167	0,5	6,537150
7,333500	0,5	6,529950
7,341833	0,5	6,509500
7,350167	0,5	6,488800
7,358500	0,5	6,468300
7,366833	0,5	6,444500
7,375167	0,5	6,427000
7,383500	0,5	6,405550
7,391833	0,5	6,386950
7,400167	0,5	6,372700
7,408500	0,5	6,355900
7,416833	0,5	6,347350
7,425167	0,5	6,321100
7,433500	0,5	6,310350
7,441833	0,5	6,278750
7,450167	0,5	6,253250
7,458500	0,5	6,229800
7,466833	0,5	6,218400
7,475167	0,5	6,210600
7,483500	0,5	6,205400
7,491833	0,5	6,198000
7,500167	0,5	6,194950
7,508500	0,5	6,185600
7,516833	0,5	6,181100
7,525167	0,5	6,168100
7,533500	0,5	6,160050
7,541833	0,5	6,148650
7,550167	0,5	6,145400
7,558500	0,5	6,161200
7,566833	0,5	6,216700
7,575167	0,5	6,335450
7,583500	0,5	6,490400
7,591833	0,5	6,610200
7,600167	0,5	6,646000
7,608500	0,5	6,590700
7,616833	0,5	6,489250
7,625167	0,5	6,396950
7,633500	0,5	6,318850
7,641833	0,5	6,266850
7,650167	0,5	6,219000
7,658500	0,5	6,178700
7,666833	0,5	6,131700
7,675167	0,5	6,092250
7,683500	0,5	6,056400
7,691833	0,5	6,032050
7,700167	0,5	6,011550
7,708500	0,5	5,999750
7,716833	0,5	5,993400
7,725167	0,5	5,998200
7,733500	0,5	6,005250
7,741833	0,5	6,007600
7,750167	0,5	6,007850
7,758500	0,5	6,013800
7,766833	0,5	6,030300
7,775167	0,5	6,059650
7,783500	0,5	6,106800
7,791833	0,5	6,170150
7,800167	0,5	6,267650
7,808500	0,5	6,400800
7,816833	0,5	6,589850
7,825167	0,5	6,843550
7,833500	0,5	7,203850
7,841833	0,5	7,715150
7,850167	0,5	8,444450
7,858500	0,5	9,466000
7,866833	0,5	10,851200
7,875167	0,5	12,649350
7,883500	0,5	14,812700
7,891833	0,5	17,225450
7,900167	0,5	19,664700
7,908500	0,5	21,803500
7,916833	0,5	23,314150
7,925167	0,5	23,911300
7,933500	0,5	23,487850
7,941833	0,5	22,136150
7,950167	0,5	20,078500
7,958500	0,5	17,631100
7,966833	0,5	15,146950
7,975167	0,5	12,964200
7,983500	0,5	11,298250
7,991833	0,5	10,158100
8,000167	0,5	9,379650
8,008500	0,5	8,776700
8,016833	0,5	8,240900
8,025167	0,5	7,790050
8,033500	0,5	7,460750
8,041833	0,5	7,304450
8,050167	0,5	7,329300
8,058500	0,5	7,495750
8,066833	0,5	7,726550
8,075167	0,5	7,913200
8,083500	0,5	7,987700
8,091833	0,5	7,923200
8,100167	0,5	7,740650
8,108500	0,5	7,489350
8,116833	0,5	7,208550
8,125167	0,5	6,932050
8,133500	0,5	6,695950
8,141833	0,5	6,501700
8,150167	0,5	6,359050
8,158500	0,5	6,253000
8,166833	0,5	6,178950
8,175167	0,5	6,144700
8,183500	0,5	6,143000
8,191833	0,5	6,186950
8,200167	0,5	6,267550
8,208500	0,5	6,331100
8,216833	0,5	6,329800
8,225167	0,5	6,254450
8,233500	0,5	6,151150
8,241833	0,5	6,063100
8,250167	0,5	6,008500
8,258500	0,5	5,986050
8,266833	0,5	5,983400
8,275167	0,5	5,993000
8,283500	0,5	6,013450
8,291833	0,5	6,036950
8,300167	0,5	6,057500
8,308500	0,5	6,068600
8,316833	0,5	6,069600
8,325167	0,5	6,051150
8,333500	0,5	6,018300
8,341833	0,5	5,984800
8,350167	0,5	5,961600
8,358500	0,5	5,954550
8,366833	0,5	5,958000
8,375167	0,5	5,971350
8,383500	0,5	5,980650
8,391833	0,5	5,995800
8,400167	0,5	6,012350
8,408500	0,5	6,052250
8,416833	0,5	6,112750
8,425167	0,5	6,199550
8,433500	0,5	6,293750
8,441833	0,5	6,357600
8,450167	0,5	6,344150
8,458500	0,5	6,254250
8,466833	0,5	6,124900
8,475167	0,5	5,992350
8,483500	0,5	5,880050
8,491833	0,5	5,790300
8,500167	0,5	5,728950
8,508500	0,5	5,687300
8,516833	0,5	5,656100
8,525167	0,5	5,629500
8,533500	0,5	5,608750
8,541833	0,5	5,586450
8,550167	0,5	5,564550
8,558500	0,5	5,542250
8,566833	0,5	5,527900
8,575167	0,5	5,517600
8,583500	0,5	5,508450
8,591833	0,5	5,489500
8,600167	0,5	5,458150
8,608500	0,5	5,422750
8,616833	0,5	5,395150
8,625167	0,5	5,383550
8,633500	0,5	5,410750
8,641833	0,5	5,496100
8,650167	0,5	5,625600
8,658500	0,5	5,753000
8,666833	0,5	5,817400
8,675167	0,5	5,801100
8,683500	0,5	5,729300
8,691833	0,5	5,631650
8,700167	0,5	5,546400
8,708500	0,5	5,478650
8,716833	0,5	5,438550
8,725167	0,5	5,422050
8,733500	0,5	5,418950
8,741833	0,5	5,430650
8,750167	0,5	5,452300
8,758500	0,5	5,517700
8,766833	0,5	5,617400
8,775167	0,5	5,719650
8,783500	0,5	5,778750
8,791833	0,5	5,763700
8,800167	0,5	5,679750
8,808500	0,5	5,568650
8,816833	0,5	5,484300
8,825167	0,5	5,455500
8,833500	0,5	5,488550
8,841833	0,5	5,541400
8,850167	0,5	5,577000
8,858500	0,5	5,578600
8,866833	0,5	5,558600
8,875167	0,5	5,545450
8,883500	0,5	5,552550
8,891833	0,5	5,558950
8,900167	0,5	5,561050
8,908500	0,5	5,554450
8,916833	0,5	5,547200
8,925167	0,5	5,543650
8,933500	0,5	5,551500
8,941833	0,5	5,575150
8,950167	0,5	5,616400
8,958500	0,5	5,680750
8,966833	0,5	5,776500
8,975167	0,5	5,906900
8,983500	0,5	6,069050
8,991833	0,5	6,256300
9,000167	0,5	6,452850
9,008500	0,5	6,598300
9,016833	0,5	6,658200
9,025167	0,5	6,670050
9,033500	0,5	6,657050
9,041833	0,5	6,627650
9,050167	0,5	6,613000
9,058500	0,5	6,647500
9,066833	0,5	6,773300
9,075167	0,5	7,064250
9,083500	0,5	7,652050
9,091833	0,5	8,821300
9,100167	0,5	10,924050
9,108500	0,5	13,213100
9,116833	0,5	14,448700
9,125167	0,5	14,047350
9,133500	0,5	12,720800
9,141833	0,5	11,399900
9,150167	0,5	10,362300
9,158500	0,5	9,709800
9,166833	0,5	9,458500
9,175167	0,5	9,624250
9,183500	0,5	10,253300
9,191833	0,5	11,373050
9,200167	0,5	13,011500
9,208500	0,5	15,171200
9,216833	0,5	17,766300
9,225167	0,5	20,693950
9,233500	0,5	23,754100
9,241833	0,5	26,714450
9,250167	0,5	29,310000
9,258500	0,5	31,266800
9,266833	0,5	32,398700
9,275167	0,5	32,580750
9,283500	0,5	31,820150
9,291833	0,5	30,220850
9,300167	0,5	27,993700
9,308500	0,5	25,387200
9,316833	0,5	22,681100
9,325167	0,5	20,118000
9,333500	0,5	17,878750
9,341833	0,5	16,058200
9,350167	0,5	14,670950
9,358500	0,5	13,644750
9,366833	0,5	12,856300
9,375167	0,5	12,202550
9,383500	0,5	11,612000
9,391833	0,5	11,054500
9,400167	0,5	10,544700
9,408500	0,5	10,097600
9,416833	0,5	9,727700
9,425167	0,5	9,437800
9,433500	0,5	9,215800
9,441833	0,5	9,028150
9,450167	0,5	8,854800
9,458500	0,5	8,678300
9,466833	0,5	8,493500
9,475167	0,5	8,309400
9,483500	0,5	8,124100
9,491833	0,5	7,945850
9,500167	0,5	7,760500
9,508500	0,5	7,558950
9,516833	0,5	7,328900
9,525167	0,5	7,094450
9,533500	0,5	6,859950
9,541833	0,5	6,636100
9,550167	0,5	6,432100
9,558500	0,5	6,245300
9,566833	0,5	6,081400
9,575167	0,5	5,943750
9,583500	0,5	5,820750
9,591833	0,5	5,721350
9,600167	0,5	5,635000
9,608500	0,5	5,563000
9,616833	0,5	5,501400
9,625167	0,5	5,453050
9,633500	0,5	5,410050
9,641833	0,5	5,380600
9,650167	0,5	5,360900
9,658500	0,5	5,354250
9,666833	0,5	5,347850
9,675167	0,5	5,357550
9,683500	0,5	5,375400
9,691833	0,5	5,398500
9,700167	0,5	5,422700
9,708500	0,5	5,434900
9,716833	0,5	5,431750
9,725167	0,5	5,403450
9,733500	0,5	5,359300
9,741833	0,5	5,305350
9,750167	0,5	5,259800
9,758500	0,5	5,229000
9,766833	0,5	5,226950
9,775167	0,5	5,255350
9,783500	0,5	5,318300
9,791833	0,5	5,411850
9,800167	0,5	5,527750
9,808500	0,5	5,650000
9,816833	0,5	5,754100
9,825167	0,5	5,829700
9,833500	0,5	5,875900
9,841833	0,5	5,896550
9,850167	0,5	5,899600
9,858500	0,5	5,906000
9,866833	0,5	5,911000
9,875167	0,5	5,919200
9,883500	0,5	5,924700
9,891833	0,5	5,922150
9,900167	0,5	5,908600
9,908500	0,5	5,879900
9,916833	0,5	5,846250
9,925167	0,5	5,794700
9,933500	0,5	5,729300
9,941833	0,5	5,657300
9,950167	0,5	5,583150
9,958500	0,5	5,509200
9,966833	0,5	5,440550
9,975167	0,5	5,377300
9,983500	0,5	5,325750
9,991833	0,5	5,284350
10,000167	0,5	5,245300
10,008500	0,5	5,209050
10,016833	0,5	5,181700
10,025167	0,5	5,163150
10,033500	0,5	5,153600
10,041833	0,5	5,149000
10,050167	0,5	5,139250
10,058500	0,5	5,128450
10,066833	0,5	5,116250
10,075167	0,5	5,120500
10,083500	0,5	5,139300
10,091833	0,5	5,177600
10,100167	0,5	5,240500
10,108500	0,5	5,303200
10,116833	0,5	5,357000
10,125167	0,5	5,393400
10,133500	0,5	5,405600
10,141833	0,5	5,392750
10,150167	0,5	5,359900
10,158500	0,5	5,315400
10,166833	0,5	5,270150
10,175167	0,5	5,228450
10,183500	0,5	5,190700
10,191833	0,5	5,152400
10,200167	0,5	5,112450
10,208500	0,5	5,068000
10,216833	0,5	5,025050
10,225167	0,5	4,981000
10,233500	0,5	4,940550
10,241833	0,5	4,907600
10,250167	0,5	4,885350
10,258500	0,5	4,868100
10,266833	0,5	4,860350
10,275167	0,5	4,861950
10,283500	0,5	4,876450
10,291833	0,5	4,905300
10,300167	0,5	4,939500
10,308500	0,5	4,986950
10,316833	0,5	5,049800
10,325167	0,5	5,130100
10,333500	0,5	5,214900
10,341833	0,5	5,313300
10,350167	0,5	5,404250
10,358500	0,5	5,491800
10,366833	0,5	5,571450
10,375167	0,5	5,628250
10,383500	0,5	5,652650
10,391833	0,5	5,647200
10,400167	0,5	5,598500
10,408500	0,5	5,514850
10,416833	0,5	5,399300
10,425167	0,5	5,278300
10,433500	0,5	5,157950
10,441833	0,5	5,054350
10,450167	0,5	4,963200
10,458500	0,5	4,883400
10,466833	0,5	4,815500
10,475167	0,5	4,756800
10,483500	0,5	4,710250
10,491833	0,5	4,674700
10,500167	0,5	4,649450
10,508500	0,5	4,640450
10,516833	0,5	4,646150
10,525167	0,5	4,654500
10,533500	0,5	4,668800
10,541833	0,5	4,691050
10,550167	0,5	4,711250
10,558500	0,5	4,734750
10,566833	0,5	4,765650
10,575167	0,5	4,811050
10,583500	0,5	4,870800
10,591833	0,5	4,935900
10,600167	0,5	4,999550
10,608500	0,5	5,041950
10,616833	0,5	5,054100
10,625167	0,5	5,031150
10,633500	0,5	4,975800
10,641833	0,5	4,897950
10,650167	0,5	4,806200
10,658500	0,5	4,722500
10,666833	0,5	4,645850
10,675167	0,5	4,571950
10,683500	0,5	4,510550
10,691833	0,5	4,460600
10,700167	0,5	4,411550
10,708500	0,5	4,371800
10,716833	0,5	4,339550
10,725167	0,5	4,327400
10,733500	0,5	4,329150
10,741833	0,5	4,340750
10,750167	0,5	4,357400
10,758500	0,5	4,388250
10,766833	0,5	4,426100
10,775167	0,5	4,478500
10,783500	0,5	4,540600
10,791833	0,5	4,612900
10,800167	0,5	4,668350
10,808500	0,5	4,696150
10,816833	0,5	4,681250
10,825167	0,5	4,619900
10,833500	0,5	4,541950
10,841833	0,5	4,446950
10,850167	0,5	4,354150
10,858500	0,5	4,271350
10,866833	0,5	4,200700
10,875167	0,5	4,144850
10,883500	0,5	4,100000
10,891833	0,5	4,059400
10,900167	0,5	4,031350
10,908500	0,5	4,018100
10,916833	0,5	4,019250
10,925167	0,5	4,037700
10,933500	0,5	4,075350
10,941833	0,5	4,137000
10,950167	0,5	4,222850
10,958500	0,5	4,330850
10,966833	0,5	4,453150
10,975167	0,5	4,550700
10,983500	0,5	4,626500
10,991833	0,5	4,648250
11,000167	0,5	4,614200
11,008500	0,5	4,544050
11,016833	0,5	4,450700
11,025167	0,5	4,366050
11,033500	0,5	4,287100
11,041833	0,5	4,211050
11,050167	0,5	4,142400
11,058500	0,5	4,083600
11,066833	0,5	4,034900
11,075167	0,5	4,001250
11,083500	0,5	3,988200
11,091833	0,5	3,997900
11,100167	0,5	4,027100
11,108500	0,5	4,082750
11,116833	0,5	4,157000
11,125167	0,5	4,233050
11,133500	0,5	4,300100
11,141833	0,5	4,327250
11,150167	0,5	4,300350
11,158500	0,5	4,226650
11,166833	0,5	4,111100
11,175167	0,5	3,988700
11,183500	0,5	3,855150
11,191833	0,5	3,723450
11,200167	0,5	3,596550
11,208500	0,5	3,476300
11,216833	0,5	3,370550
11,225167	0,5	3,279400
11,233500	0,5	3,220700
11,241833	0,5	3,189750
11,250167	0,5	3,196650
11,258500	0,5	3,243700
11,266833	0,5	3,319650
11,275167	0,5	3,405400
11,283500	0,5	3,494600
11,291833	0,5	3,551450
11,300167	0,5	3,581450
11,308500	0,5	3,576300
11,316833	0,5	3,553500
11,325167	0,5	3,524550
11,333500	0,5	3,495200
11,341833	0,5	3,466800
11,350167	0,5	3,450350
11,358500	0,5	3,436000
11,366833	0,5	3,435550
11,375167	0,5	3,448800
11,383500	0,5	3,469700
11,391833	0,5	3,503300
11,400167	0,5	3,535600
11,408500	0,5	3,561450
11,416833	0,5	3,567400
11,425167	0,5	3,569400
11,433500	0,5	3,548000
11,441833	0,5	3,517750
11,450167	0,5	3,475600
11,458500	0,5	3,436200
11,466833	0,5	3,404950
11,475167	0,5	3,380450
11,483500	0,5	3,360550
11,491833	0,5	3,344300
11,500167	0,5	3,327900
11,508500	0,5	3,321000
11,516833	0,5	3,310050
11,525167	0,5	3,307100
11,533500	0,5	3,302150
11,541833	0,5	3,296050
11,550167	0,5	3,293350
11,558500	0,5	3,280000
11,566833	0,5	3,267000
11,575167	0,5	3,265500
11,583500	0,5	3,264750
11,591833	0,5	3,258550
11,600167	0,5	3,266950
11,608500	0,5	3,271700
11,616833	0,5	3,292600
11,625167	0,5	3,314450
11,633500	0,5	3,346250
11,641833	0,5	3,369950
11,650167	0,5	3,394700
11,658500	0,5	3,413500
11,666833	0,5	3,429150
11,675167	0,5	3,437750
11,683500	0,5	3,448950
11,691833	0,5	3,460500
11,700167	0,5	3,476350
11,708500	0,5	3,485050
11,716833	0,5	3,509000
11,725167	0,5	3,533500
11,733500	0,5	3,559050
11,741833	0,5	3,584800
11,750167	0,5	3,609550
11,758500	0,5	3,646500
11,766833	0,5	3,684650
11,775167	0,5	3,729050
11,783500	0,5	3,768100
11,791833	0,5	3,811450
11,800167	0,5	3,859700
11,808500	0,5	3,921000
11,816833	0,5	4,009050
11,825167	0,5	4,140000
11,833500	0,5	4,326700
11,841833	0,5	4,584550
11,850167	0,5	4,906350
11,858500	0,5	5,254200
11,866833	0,5	5,600550
11,875167	0,5	5,878650
11,883500	0,5	6,050200
11,891833	0,5	6,098150
11,900167	0,5	6,018200
11,908500	0,5	5,855850
11,916833	0,5	5,637150
11,925167	0,5	5,375600
11,933500	0,5	5,119800
11,941833	0,5	4,881150
11,950167	0,5	4,682350
11,958500	0,5	4,523650
11,966833	0,5	4,415000
11,975167	0,5	4,347750
11,983500	0,5	4,327800
11,991833	0,5	4,349700
12,000167	0,5	4,414950
12,008500	0,5	4,498650
12,016833	0,5	4,624500
12,025167	0,5	4,748750
12,033500	0,5	4,866800
12,041833	0,5	4,957500
12,050167	0,5	5,012600
12,058500	0,5	5,047250
12,066833	0,5	5,053450
12,075167	0,5	5,040250
12,083500	0,5	5,021250
12,091833	0,5	5,012300
12,100167	0,5	5,000850
12,108500	0,5	5,011600
12,116833	0,5	5,028200
12,125167	0,5	5,059350
12,133500	0,5	5,091250
12,141833	0,5	5,134750
12,150167	0,5	5,174600
12,158500	0,5	5,226350
12,166833	0,5	5,293300
12,175167	0,5	5,364250
12,183500	0,5	5,428550
12,191833	0,5	5,475050
12,200167	0,5	5,490200
12,208500	0,5	5,483000
12,216833	0,5	5,427900
12,225167	0,5	5,339000
12,233500	0,5	5,234250
12,241833	0,5	5,125650
12,250167	0,5	5,026750
12,258500	0,5	4,942500
12,266833	0,5	4,880150
12,275167	0,5	4,826350
12,283500	0,5	4,788800
12,291833	0,5	4,755250
12,300167	0,5	4,721000
12,308500	0,5	4,687200
12,316833	0,5	4,656600
12,325167	0,5	4,610100
12,333500	0,5	4,567650
12,341833	0,5	4,521400
12,350167	0,5	4,476300
12,358500	0,5	4,432300
12,366833	0,5	4,431850
12,375167	0,5	4,343000
12,383500	0,5	4,297000
12,391833	0,5	4,248500
12,400167	0,5	4,204800
12,408500	0,5	4,165400
12,416833	0,5	4,132950
12,425167	0,5	4,104750
12,433500	0,5	4,079800
12,441833	0,5	4,057800
12,450167	0,5	4,028300
12,458500	0,5	4,012700
12,466833	0,5	3,992500
12,475167	0,5	3,970250
12,483500	0,5	3,956250
12,491833	0,5	3,943000
12,500167	0,5	3,941150
12,508500	0,5	3,946200
12,516833	0,5	3,950650
12,525167	0,5	3,959700
12,533500	0,5	3,970050
12,541833	0,5	3,997250
12,550167	0,5	4,034800
12,558500	0,5	4,085550
12,566833	0,5	4,147750
12,575167	0,5	4,217600
12,583500	0,5	4,298450
12,591833	0,5	4,363150
12,600167	0,5	4,413250
12,608500	0,5	4,456150
12,616833	0,5	4,475850
12,625167	0,5	4,478850
12,633500	0,5	4,474250
12,641833	0,5	4,473200
12,650167	0,5	4,484750
12,658500	0,5	4,496750
12,666833	0,5	4,522450
12,675167	0,5	4,551500
12,683500	0,5	4,590150
12,691833	0,5	4,612650
12,700167	0,5	4,628250
12,708500	0,5	4,632100
12,716833	0,5	4,637700
12,725167	0,5	4,618350
12,733500	0,5	4,577300
12,741833	0,5	4,505500
12,750167	0,5	4,439900
12,758500	0,5	4,384650
12,766833	0,5	4,332700
12,775167	0,5	4,289350
12,783500	0,5	4,243450
12,791833	0,5	4,212600
12,800167	0,5	4,178800
12,808500	0,5	4,143550
12,816833	0,5	4,102300
12,825167	0,5	4,074250
12,833500	0,5	4,058750
12,841833	0,5	4,058000
12,850167	0,5	4,064350
12,858500	0,5	4,083350
12,866833	0,5	4,102150
12,875167	0,5	4,124450
12,883500	0,5	4,142950
12,891833	0,5	4,147400
12,900167	0,5	4,129200
12,908500	0,5	4,070650
12,916833	0,5	4,001000
12,925167	0,5	3,996600
12,933500	0,5	4,182900
12,941833	0,5	4,525600
12,950167	0,5	4,770250
12,958500	0,5	5,008600
12,966833	0,5	5,105450
12,975167	0,5	4,805050
12,983500	0,5	4,382850
12,991833	0,5	3,853050
13,000167	0,5	3,208750
13,008500	0,5	2,706650
13,016833	0,5	2,358250
13,025167	0,5	2,097350
13,033500	0,5	1,902000
13,041833	0,5	1,732100
13,050167	0,5	1,610700
13,058500	0,5	1,495600
13,066833	0,5	1,400650
13,075167	0,5	1,311650
13,083500	0,5	1,247100
13,091833	0,5	1,206350
13,100167	0,5	1,179050
13,108500	0,5	1,161750
13,116833	0,5	1,152250
13,125167	0,5	1,145950
13,133500	0,5	1,144500
13,141833	0,5	1,143750
13,150167	0,5	1,137600
13,158500	0,5	1,131900
13,166833	0,5	1,120000
13,175167	0,5	1,109750
13,183500	0,5	1,091150
13,191833	0,5	1,070750
13,200167	0,5	1,054050
13,208500	0,5	1,027750
13,216833	0,5	1,001950
13,225167	0,5	0,976450
13,233500	0,5	0,947200
13,241833	0,5	0,935550
13,250167	0,5	0,921400
13,258500	0,5	0,908750
13,266833	0,5	0,896600
13,275167	0,5	0,888650
13,283500	0,5	0,883550
13,291833	0,5	0,872400
13,300167	0,5	0,865300
13,308500	0,5	0,857950
13,316833	0,5	0,854250
13,325167	0,5	0,847100
13,333500	0,5	0,837100
13,341833	0,5	0,832050
13,350167	0,5	0,826400
13,358500	0,5	0,812450
13,366833	0,5	0,799350
13,375167	0,5	0,776550
13,383500	0,5	0,764100
13,391833	0,5	0,751950
13,400167	0,5	0,740700
13,408500	0,5	0,727300
13,416833	0,5	0,719100
13,425167	0,5	0,710100
13,433500	0,5	0,700800
13,441833	0,5	0,690450
13,450167	0,5	0,683300
13,458500	0,5	0,677100
13,466833	0,5	0,676900
13,475167	0,5	0,670650
13,483500	0,5	0,664450
13,491833	0,5	0,669400
13,500167	0,5	0,672150
13,508500	0,5	0,670250
13,516833	0,5	0,670450
13,525167	0,5	0,669700
13,533500	0,5	0,671950
13,541833	0,5	0,686400
13,550167	0,5	0,691000
13,558500	0,5	0,702050
13,566833	0,5	0,702850
13,575167	0,5	0,713100
13,583500	0,5	0,713400
13,591833	0,5	0,716300
13,600167	0,5	0,709250
13,608500	0,5	0,706800
13,616833	0,5	0,703050
13,625167	0,5	0,690550
13,633500	0,5	0,679600
13,641833	0,5	0,678700
13,650167	0,5	0,666500
13,658500	0,5	0,653400
13,666833	0,5	0,634650
13,675167	0,5	0,620250
13,683500	0,5	0,621450
13,691833	0,5	0,612550
13,700167	0,5	0,606550
13,708500	0,5	0,600900
13,716833	0,5	0,600450
13,725167	0,5	0,593300
13,733500	0,5	0,595600
13,741833	0,5	0,586450
13,750167	0,5	0,583300
13,758500	0,5	0,585450
13,766833	0,5	0,590000
13,775167	0,5	0,572600
13,783500	0,5	0,579650
13,791833	0,5	0,579400
13,800167	0,5	0,580300
13,808500	0,5	0,571950
13,816833	0,5	0,559000
13,825167	0,5	0,559600
13,833500	0,5	0,561100
13,841833	0,5	0,560750
13,850167	0,5	0,560550
13,858500	0,5	0,563200
13,866833	0,5	0,564850
13,875167	0,5	0,571000
13,883500	0,5	0,577150
13,891833	0,5	0,583750
13,900167	0,5	0,584350
13,908500	0,5	0,592450
13,916833	0,5	0,597400
13,925167	0,5	0,589100
13,933500	0,5	0,604900
13,941833	0,5	0,609450
13,950167	0,5	0,612750
13,958500	0,5	0,618750
13,966833	0,5	0,617400
13,975167	0,5	0,628050
13,983500	0,5	0,639650
13,991833	0,5	0,646500
14,000167	0,5	0,652150
14,008500	0,5	0,654900
14,016833	0,5	0,657500
14,025167	0,5	0,658100
14,033500	0,5	0,659600
14,041833	0,5	0,656150
14,050167	0,5	0,661950
14,058500	0,5	0,662600
14,066833	0,5	0,673100
14,075167	0,5	0,669500
14,083500	0,5	0,684600
14,091833	0,5	0,680500
14,100167	0,5	0,679000
14,108500	0,5	0,665000
14,116833	0,5	0,661300
14,125167	0,5	0,660900
14,133500	0,5	0,667600
14,141833	0,5	0,666250
14,150167	0,5	0,668150
14,158500	0,5	0,670250
14,166833	0,5	0,678550
14,175167	0,5	0,679500
14,183500	0,5	0,684900
14,191833	0,5	0,691250
14,200167	0,5	0,694550
14,208500	0,5	0,706400
14,216833	0,5	0,706250
14,225167	0,5	0,710500
14,233500	0,5	0,721800
14,241833	0,5	0,727600
14,250167	0,5	0,726950
14,258500	0,5	0,726700
14,266833	0,5	0,725100
14,275167	0,5	0,738250
14,283500	0,5	0,742050
14,291833	0,5	0,755400
14,300167	0,5	0,756600
14,308500	0,5	0,770100
14,316833	0,5	0,772550
14,325167	0,5	0,783750
14,333500	0,5	0,787950
14,341833	0,5	0,792100
14,350167	0,5	0,809500
14,358500	0,5	0,819300
14,366833	0,5	0,814450
14,375167	0,5	0,827800
14,383500	0,5	0,843700
14,391833	0,5	0,848250
14,400167	0,5	0,849050
14,408500	0,5	0,847950
14,416833	0,5	0,859150
14,425167	0,5	0,873350
14,433500	0,5	0,890700
14,441833	0,5	0,902650
14,450167	0,5	0,922750
14,458500	0,5	0,932950
14,466833	0,5	0,954000
14,475167	0,5	0,973100
14,483500	0,5	1,000300
14,491833	0,5	1,030100
14,500167	0,5	1,067850
14,508500	0,5	1,095700
14,516833	0,5	1,130950
14,525167	0,5	1,169650
14,533500	0,5	1,200600
14,541833	0,5	1,223400
14,550167	0,5	1,226550
14,558500	0,5	1,234450
14,566833	0,5	1,241750
14,575167	0,5	1,254850
14,583500	0,5	1,256100
14,591833	0,5	1,270450
14,600167	0,5	1,282250
14,608500	0,5	1,303050
14,616833	0,5	1,332850
14,625167	0,5	1,369150
14,633500	0,5	1,401800
14,641833	0,5	1,444400
14,650167	0,5	1,490100
14,658500	0,5	1,533950
14,666833	0,5	1,591900
14,675167	0,5	1,663600
14,683500	0,5	1,724800
14,691833	0,5	1,772600
14,700167	0,5	1,796700
14,708500	0,5	1,819500
14,716833	0,5	1,841500
14,725167	0,5	1,859100
14,733500	0,5	1,886050
14,741833	0,5	1,926450
14,750167	0,5	1,982500
14,758500	0,5	2,050450
14,766833	0,5	2,131150
14,775167	0,5	2,188000
14,783500	0,5	2,231100
14,791833	0,5	2,246200
14,800167	0,5	2,237850
14,808500	0,5	2,177750
14,816833	0,5	2,135800
14,825167	0,5	2,073800
14,833500	0,5	2,021450
14,841833	0,5	1,968700
14,850167	0,5	1,927500
14,858500	0,5	1,915900
14,866833	0,5	1,913350
14,875167	0,5	1,918150
14,883500	0,5	1,923150
14,891833	0,5	1,916750
14,900167	0,5	1,904800
14,908500	0,5	1,880900
14,916833	0,5	1,845100
14,925167	0,5	1,814300
14,933500	0,5	1,776250
14,941833	0,5	1,761050
14,950167	0,5	1,742250
14,958500	0,5	1,716000
14,966833	0,5	1,717750
14,975167	0,5	1,713150
14,983500	0,5	1,706400
14,991833	0,5	1,694150
15,000167	0,5	1,676600
15,008500	0,5	1,681350
15,016833	0,5	1,677100
15,025167	0,5	1,673700
15,033500	0,5	1,664300
15,041833	0,5	1,658650
15,050167	0,5	1,655650
15,058500	0,5	1,652850
15,066833	0,5	1,645100
15,075167	0,5	1,631850
15,083500	0,5	1,629750
15,091833	0,5	1,626350
15,100167	0,5	1,617850
15,108500	0,5	1,603800
15,116833	0,5	1,604700
15,125167	0,5	1,593650
15,133500	0,5	1,579600
15,141833	0,5	1,560650
15,150167	0,5	1,544150
15,158500	0,5	1,536700
15,166833	0,5	1,535850
15,175167	0,5	1,524200
15,183500	0,5	1,520000
15,191833	0,5	1,511250
15,200167	0,5	1,512300
15,208500	0,5	1,503650
15,216833	0,5	1,502200
15,225167	0,5	1,494050
15,233500	0,5	1,492300
15,241833	0,5	1,487300
15,250167	0,5	1,478900
15,258500	0,5	1,479000
15,266833	0,5	1,480200
15,275167	0,5	1,474900
15,283500	0,5	1,463850
15,291833	0,5	1,453250
15,300167	0,5	1,443000
15,308500	0,5	1,444950
15,316833	0,5	1,441100
15,325167	0,5	1,446050
15,333500	0,5	1,440300
15,341833	0,5	1,452050
15,350167	0,5	1,446400
15,358500	0,5	1,451950
15,366833	0,5	1,452000
15,375167	0,5	1,453400
15,383500	0,5	1,464300
15,391833	0,5	1,464300
15,400167	0,5	1,452050
15,408500	0,5	1,452200
15,416833	0,5	1,452150
15,425167	0,5	1,440100
15,433500	0,5	1,426950
15,441833	0,5	1,415250
15,450167	0,5	1,417550
15,458500	0,5	1,413100
15,466833	0,5	1,411050
15,475167	0,5	1,396300
15,483500	0,5	1,388250
15,491833	0,5	1,371350
15,500167	0,5	1,366900
15,508500	0,5	1,353650
15,516833	0,5	1,346600
15,525167	0,5	1,342450
15,533500	0,5	1,347850
15,541833	0,5	1,329450
15,550167	0,5	1,338500
15,558500	0,5	1,347950
15,566833	0,5	1,354650
15,575167	0,5	1,354500
15,583500	0,5	1,342550
15,591833	0,5	1,331750
15,600167	0,5	1,323700
15,608500	0,5	1,312050
15,616833	0,5	1,299950
15,625167	0,5	1,294200
15,633500	0,5	1,283400
15,641833	0,5	1,278500
15,650167	0,5	1,274350
15,658500	0,5	1,270550
15,666833	0,5	1,261750
15,675167	0,5	1,261850
15,683500	0,5	1,261250
15,691833	0,5	1,240250
15,700167	0,5	1,249150
15,708500	0,5	1,252600
15,716833	0,5	1,241900
15,725167	0,5	1,243200
15,733500	0,5	1,216850
15,741833	0,5	1,219200
15,750167	0,5	1,221750
15,758500	0,5	1,219000
15,766833	0,5	1,213850
15,775167	0,5	1,217650
15,783500	0,5	1,215300
15,791833	0,5	1,213750
15,800167	0,5	1,211800
15,808500	0,5	1,203350
15,816833	0,5	1,199850
15,825167	0,5	1,188800
15,833500	0,5	1,187550
15,841833	0,5	1,166450
15,850167	0,5	1,180050
15,858500	0,5	1,175750
15,866833	0,5	1,173800
15,875167	0,5	1,158450
15,883500	0,5	1,149750
15,891833	0,5	1,148300
15,900167	0,5	1,146800
15,908500	0,5	1,130200
15,916833	0,5	1,126400
15,925167	0,5	1,114850
15,933500	0,5	1,105700
15,941833	0,5	1,098750
15,950167	0,5	1,096850
15,958500	0,5	1,096650
15,966833	0,5	1,091400
15,975167	0,5	1,097350
15,983500	0,5	1,091850
15,991833	0,5	1,083300
16,000167	0,5	1,093500
16,008500	0,5	1,090300
16,016833	0,5	1,079750
16,025167	0,5	1,067100
16,033500	0,5	1,038700
16,041833	0,5	1,040750
16,050167	0,5	1,030150
16,058500	0,5	1,031300
16,066833	0,5	1,021500
16,075167	0,5	1,022700
16,083500	0,5	1,016550
16,091833	0,5	1,020750
16,100167	0,5	1,016900
16,108500	0,5	1,009650
16,116833	0,5	1,008650
16,125167	0,5	1,006600
16,133500	0,5	0,991600
16,141833	0,5	0,989850
16,150167	0,5	0,991650
16,158500	0,5	0,983100
16,166833	0,5	0,973050
16,175167	0,5	0,950100
16,183500	0,5	0,940400
16,191833	0,5	0,932900
16,200167	0,5	0,934100
16,208500	0,5	0,924000
16,216833	0,5	0,921350
16,225167	0,5	0,906600
16,233500	0,5	0,889050
16,241833	0,5	0,885950
16,250167	0,5	0,881600
16,258500	0,5	0,878300
16,266833	0,5	0,874600
16,275167	0,5	0,866250
16,283500	0,5	0,853050
16,291833	0,5	0,857050
16,300167	0,5	0,858500
16,308500	0,5	0,849350
16,316833	0,5	0,842100
16,325167	0,5	0,830050
16,333500	0,5	0,823300
16,341833	0,5	0,829100
16,350167	0,5	0,830450
16,358500	0,5	0,835800
16,366833	0,5	0,834850
16,375167	0,5	0,844400
16,383500	0,5	0,846600
16,391833	0,5	0,855950
16,400167	0,5	0,851600
16,408500	0,5	0,851200
16,416833	0,5	0,851700
16,425167	0,5	0,845800
16,433500	0,5	0,834000
16,441833	0,5	0,840400
16,450167	0,5	0,831100
16,458500	0,5	0,817700
16,466833	0,5	0,788750
16,475167	0,5	0,771050
16,483500	0,5	0,762300
16,491833	0,5	0,750800
16,500167	0,5	0,746700
16,508500	0,5	0,734050
16,516833	0,5	0,730100
16,525167	0,5	0,722850
16,533500	0,5	0,722200
16,541833	0,5	0,713900
16,550167	0,5	0,709450
16,558500	0,5	0,709400
16,566833	0,5	0,712150
16,575167	0,5	0,685650
16,583500	0,5	0,695150
16,591833	0,5	0,697400
16,600167	0,5	0,696500
16,608500	0,5	0,688500
16,616833	0,5	0,672800
16,625167	0,5	0,678400
16,633500	0,5	0,676600
16,641833	0,5	0,679050
16,650167	0,5	0,676250
16,658500	0,5	0,676450
16,666833	0,5	0,672000
16,675167	0,5	0,673850
16,683500	0,5	0,667200
16,691833	0,5	0,666550
16,700167	0,5	0,657150
16,708500	0,5	0,664050
16,716833	0,5	0,653950
16,725167	0,5	0,635900
16,733500	0,5	0,642500
16,741833	0,5	0,639050
16,750167	0,5	0,630700
16,758500	0,5	0,617550
16,766833	0,5	0,592450
16,775167	0,5	0,593750
16,783500	0,5	0,587700
16,791833	0,5	0,584450
16,800167	0,5	0,574050
16,808500	0,5	0,572050
16,816833	0,5	0,566350
16,825167	0,5	0,565350
16,833500	0,5	0,562650
16,841833	0,5	0,557350
16,850167	0,5	0,552050
16,858500	0,5	0,549650
16,866833	0,5	0,550950
16,875167	0,5	0,543050
16,883500	0,5	0,554500
16,891833	0,5	0,554800
16,900167	0,5	0,555450
16,908500	0,5	0,546300
16,916833	0,5	0,540350
16,925167	0,5	0,549450
16,933500	0,5	0,554900
16,941833	0,5	0,548150
16,950167	0,5	0,548850
16,958500	0,5	0,544650
16,966833	0,5	0,544700
16,975167	0,5	0,540750
16,983500	0,5	0,536300
16,991833	0,5	0,533400
17,000167	0,5	0,524150
17,008500	0,5	0,529600
17,016833	0,5	0,512550
17,025167	0,5	0,514850
17,033500	0,5	0,518550
17,041833	0,5	0,511200
17,050167	0,5	0,497700
17,058500	0,5	0,482150
17,066833	0,5	0,471450
17,075167	0,5	0,476550
17,083500	0,5	0,462450
17,091833	0,5	0,463850
17,100167	0,5	0,458700
17,108500	0,5	0,466050
17,116833	0,5	0,464450
17,125167	0,5	0,469650
17,133500	0,5	0,468500
17,141833	0,5	0,468200
17,150167	0,5	0,478450
17,158500	0,5	0,475100
17,166833	0,5	0,457700
17,175167	0,5	0,464050
17,183500	0,5	0,459050
17,191833	0,5	0,450750
17,200167	0,5	0,433450
17,208500	0,5	0,416900
17,216833	0,5	0,418650
17,225167	0,5	0,422700
17,233500	0,5	0,446350
17,241833	0,5	0,465800
17,250167	0,5	0,505100
17,258500	0,5	0,544300
17,266833	0,5	0,595200
17,275167	0,5	0,638950
17,283500	0,5	0,669250
17,291833	0,5	0,680300
17,300167	0,5	0,675200
17,308500	0,5	0,633300
17,316833	0,5	0,588350
17,325167	0,5	0,544750
17,333500	0,5	0,497400
17,341833	0,5	0,455250
17,350167	0,5	0,410350
17,358500	0,5	0,388500
17,366833	0,5	0,372250
17,375167	0,5	0,372200
17,383500	0,5	0,367650
17,391833	0,5	0,371800
17,400167	0,5	0,368900
17,408500	0,5	0,374500
17,416833	0,5	0,373800
17,425167	0,5	0,379150
17,433500	0,5	0,384700
17,441833	0,5	0,395150
17,450167	0,5	0,405000
17,458500	0,5	0,410250
17,466833	0,5	0,425150
17,475167	0,5	0,446800
17,483500	0,5	0,453100
17,491833	0,5	0,456350
17,500167	0,5	0,442300
17,508500	0,5	0,445550
17,516833	0,5	0,459650
17,525167	0,5	0,466550
17,533500	0,5	0,489900
17,541833	0,5	0,510400
17,550167	0,5	0,535000
17,558500	0,5	0,555100
17,566833	0,5	0,584250
17,575167	0,5	0,600150
17,583500	0,5	0,616400
17,591833	0,5	0,634700
17,600167	0,5	0,640950
17,608500	0,5	0,620400
17,616833	0,5	0,626350
17,625167	0,5	0,619450
17,633500	0,5	0,605350
17,641833	0,5	0,587050
17,650167	0,5	0,562250
17,658500	0,5	0,562000
17,666833	0,5	0,553750
17,675167	0,5	0,550300
17,683500	0,5	0,544950
17,691833	0,5	0,552550
17,700167	0,5	0,554700
17,708500	0,5	0,569550
17,716833	0,5	0,581200
17,725167	0,5	0,591450
17,733500	0,5	0,594350
17,741833	0,5	0,606800
17,750167	0,5	0,596400
17,758500	0,5	0,587800
17,766833	0,5	0,589550
17,775167	0,5	0,587150
17,783500	0,5	0,575300
17,791833	0,5	0,563650
17,800167	0,5	0,555800
17,808500	0,5	0,565100
17,816833	0,5	0,571850
17,825167	0,5	0,582900
17,833500	0,5	0,596800
17,841833	0,5	0,622950
17,850167	0,5	0,650950
17,858500	0,5	0,704150
17,866833	0,5	0,793550
17,875167	0,5	0,918750
17,883500	0,5	1,098500
17,891833	0,5	1,330700
17,900167	0,5	1,567150
17,908500	0,5	1,806800
17,916833	0,5	1,989600
17,925167	0,5	2,058050
17,933500	0,5	2,005250
17,941833	0,5	1,829750
17,950167	0,5	1,607550
17,958500	0,5	1,357600
17,966833	0,5	1,120700
17,975167	0,5	0,914050
17,983500	0,5	0,751950
17,991833	0,5	0,628450
18,000167	0,5	0,545300
18,008500	0,5	0,488250
18,016833	0,5	0,445200
18,025167	0,5	0,416850
18,033500	0,5	0,393900
18,041833	0,5	0,381950
18,050167	0,5	0,344700
18,058500	0,5	0,345750
18,066833	0,5	0,332850
18,075167	0,5	0,325750
18,083500	0,5	0,298600
18,091833	0,5	0,279950
18,100167	0,5	0,267800
18,108500	0,5	0,268800
18,116833	0,5	0,263900
18,125167	0,5	0,262450
18,133500	0,5	0,252800
18,141833	0,5	0,256150
18,150167	0,5	0,259150
18,158500	0,5	0,258200
18,166833	0,5	0,250700
18,175167	0,5	0,248950
18,183500	0,5	0,249650
18,191833	0,5	0,228200
18,200167	0,5	0,211950
18,208500	0,5	0,206600
18,216833	0,5	0,191300
18,225167	0,5	0,173300
18,233500	0,5	0,144750
18,241833	0,5	0,117650
18,250167	0,5	0,114550
18,258500	0,5	0,106700
18,266833	0,5	0,101450
18,275167	0,5	0,091050
18,283500	0,5	0,086250
18,291833	0,5	0,073000
18,300167	0,5	0,076700
18,308500	0,5	0,059650
18,316833	0,5	0,052850
18,325167	0,5	0,053000
18,333500	0,5	0,050150
18,341833	0,5	0,026100
18,350167	0,5	0,025450
18,358500	0,5	0,027450
18,366833	0,5	0,012250
18,375167	0,5	0,000500
18,383500	0,5	-0,030650
18,391833	0,5	-0,034650
18,400167	0,5	-0,049150
18,408500	0,5	-0,054000
18,416833	0,5	-0,065500
18,425167	0,5	-0,071100
18,433500	0,5	-0,083800
18,441833	0,5	-0,085950
18,450167	0,5	-0,094300
18,458500	0,5	-0,097400
18,466833	0,5	-0,103550
18,475167	0,5	-0,104250
18,483500	0,5	-0,117200
18,491833	0,5	-0,132200
18,500167	0,5	-0,129900
18,508500	0,5	-0,133000
18,516833	0,5	-0,143850
18,525167	0,5	-0,158350
18,533500	0,5	-0,178000
18,541833	0,5	-0,181750
18,550167	0,5	-0,180200
18,558500	0,5	-0,188450
18,566833	0,5	-0,190400
18,575167	0,5	-0,198850
18,583500	0,5	-0,198700
18,591833	0,5	-0,210600
18,600167	0,5	-0,212350
18,608500	0,5	-0,231050
18,616833	0,5	-0,235450
18,625167	0,5	-0,236250
18,633500	0,5	-0,251350
18,641833	0,5	-0,259150
18,650167	0,5	-0,255600
18,658500	0,5	-0,259900
18,666833	0,5	-0,270850
18,675167	0,5	-0,290700
18,683500	0,5	-0,298550
18,691833	0,5	-0,295000
18,700167	0,5	-0,301650
18,708500	0,5	-0,309700
18,716833	0,5	-0,315250
18,725167	0,5	-0,319450
18,733500	0,5	-0,326550
18,741833	0,5	-0,325050
18,750167	0,5	-0,332450
18,758500	0,5	-0,333100
18,766833	0,5	-0,336550
18,775167	0,5	-0,327300
18,783500	0,5	-0,352650
18,791833	0,5	-0,341600
18,800167	0,5	-0,341100
18,808500	0,5	-0,341200
18,816833	0,5	-0,351600
18,825167	0,5	-0,364750
18,833500	0,5	-0,356850
18,841833	0,5	-0,346400
18,850167	0,5	-0,341300
18,858500	0,5	-0,329050
18,866833	0,5	-0,317400
18,875167	0,5	-0,305800
18,883500	0,5	-0,284400
18,891833	0,5	-0,276550
18,900167	0,5	-0,259550
18,908500	0,5	-0,250900
18,916833	0,5	-0,225050
18,925167	0,5	-0,210000
18,933500	0,5	-0,203350
18,941833	0,5	-0,184250
18,950167	0,5	-0,172700
18,958500	0,5	-0,164700
18,966833	0,5	-0,162050
18,975167	0,5	-0,173500
18,983500	0,5	-0,156700
18,991833	0,5	-0,149300
19,000167	0,5	-0,141000
19,008500	0,5	-0,142600
19,016833	0,5	-0,138600
19,025167	0,5	-0,140350
19,033500	0,5	-0,146250
19,041833	0,5	-0,147750
19,050167	0,5	-0,163050
19,058500	0,5	-0,165650
19,066833	0,5	-0,180950
19,075167	0,5	-0,198000
19,083500	0,5	-0,219500
19,091833	0,5	-0,220100
19,100167	0,5	-0,244650
19,108500	0,5	-0,262850
19,116833	0,5	-0,294000
19,125167	0,5	-0,314350
19,133500	0,5	-0,330700
19,141833	0,5	-0,341300
19,150167	0,5	-0,357150
19,158500	0,5	-0,365250
19,166833	0,5	-0,383950
19,175167	0,5	-0,397250
19,183500	0,5	-0,406600
19,191833	0,5	-0,423900
19,200167	0,5	-0,435400
19,208500	0,5	-0,451600
19,216833	0,5	-0,458750
19,225167	0,5	-0,480400
19,233500	0,5	-0,485850
19,241833	0,5	-0,489600
19,250167	0,5	-0,500300
19,258500	0,5	-0,520350
19,266833	0,5	-0,538650
19,275167	0,5	-0,550750
19,283500	0,5	-0,542500
19,291833	0,5	-0,546950
19,300167	0,5	-0,540900
19,308500	0,5	-0,547150
19,316833	0,5	-0,542850
19,325167	0,5	-0,538850
19,333500	0,5	-0,535000
19,341833	0,5	-0,529250
19,350167	0,5	-0,516250
19,358500	0,5	-0,482750
19,366833	0,5	-0,465600
19,375167	0,5	-0,452200
19,383500	0,5	-0,415700
19,391833	0,5	-0,393800
19,400167	0,5	-0,392750
19,408500	0,5	-0,412300
19,416833	0,5	-0,440450
19,425167	0,5	-0,463900
19,433500	0,5	-0,500200
19,441833	0,5	-0,529200
19,450167	0,5	-0,569950
19,458500	0,5	-0,589800
19,466833	0,5	-0,614650
19,475167	0,5	-0,623400
19,483500	0,5	-0,624700
19,491833	0,5	-0,629450
19,500167	0,5	-0,626450
19,508500	0,5	-0,616600
19,516833	0,5	-0,633700
19,525167	0,5	-0,624850
19,533500	0,5	-0,623900
19,541833	0,5	-0,634000
19,550167	0,5	-0,645000
19,558500	0,5	-0,684350
19,566833	0,5	-0,693500
19,575167	0,5	-0,719200
19,583500	0,5	-0,734300
19,591833	0,5	-0,755450
19,600167	0,5	-0,763800
19,608500	0,5	-0,776200
19,616833	0,5	-0,783700
19,625167	0,5	-0,787750
19,633500	0,5	-0,786550
19,641833	0,5	-0,786000
19,650167	0,5	-0,778500
19,658500	0,5	-0,767700
19,666833	0,5	-0,774050
19,675167	0,5	-0,749050
19,683500	0,5	-0,735900
19,691833	0,5	-0,732500
19,700167	0,5	-0,738500
19,708500	0,5	-0,751050
19,716833	0,5	-0,742000
19,725167	0,5	-0,722950
19,733500	0,5	-0,724900
19,741833	0,5	-0,715750
19,750167	0,5	-0,725700
19,758500	0,5	-0,738450
19,766833	0,5	-0,763850
19,775167	0,5	-0,795300
19,783500	0,5	-0,827900
19,791833	0,5	-0,851150
19,800167	0,5	-0,859750
19,808500	0,5	-0,875200
19,816833	0,5	-0,898400
19,825167	0,5	-0,889100
19,833500	0,5	-0,893900
19,841833	0,5	-0,905200
19,850167	0,5	-0,917700
19,858500	0,5	-0,932450
19,866833	0,5	-0,921200
19,875167	0,5	-0,930400
19,883500	0,5	-0,926550
19,891833	0,5	-0,930300
19,900167	0,5	-0,926300
19,908500	0,5	-0,928150
19,916833	0,5	-0,916600
19,925167	0,5	-0,918250
19,933500	0,5	-0,903750
19,941833	0,5	-0,887600
19,950167	0,5	-0,865700
19,958500	0,5	-0,868800
19,966833	0,5	-0,866400
19,975167	0,5	-0,878300
19,983500	0,5	-0,904700
19,991833	0,5	-0,944650
20,000167	0,5	-0,985750
20,008500	0,5	-1,004300
20,016833	0,5	-1,017450
20,025167	0,5	-1,021350
20,033500	0,5	-1,027650
20,041833	0,5	-1,031550
20,050167	0,5	-1,039000
20,058500	0,5	-1,037550
20,066833	0,5	-1,044650
20,075167	0,5	-1,048350
20,083500	0,5	-1,054000
20,091833	0,5	-1,041350
20,100167	0,5	-1,048900
20,108500	0,5	-1,060550
20,116833	0,5	-1,061550
20,125167	0,5	-1,062800
20,133500	0,5	-1,066450
20,141833	0,5	-1,074900
20,150167	0,5	-1,084550
20,158500	0,5	-1,082250
20,166833	0,5	-1,060350
20,175167	0,5	-1,050850
20,183500	0,5	-1,031250
20,191833	0,5	-1,013150
20,200167	0,5	-0,988850
20,208500	0,5	-0,970550
20,216833	0,5	-0,943150
20,225167	0,5	-0,941300
20,233500	0,5	-0,940000
20,241833	0,5	-0,952100
20,250167	0,5	-0,992700
20,258500	0,5	-1,038200
20,266833	0,5	-1,053100
20,275167	0,5	-1,075800
20,283500	0,5	-1,085800
20,291833	0,5	-1,109500
20,300167	0,5	-1,109450
20,308500	0,5	-1,097950
20,316833	0,5	-1,083050
20,325167	0,5	-1,066050
20,333500	0,5	-1,054750
20,341833	0,5	-1,036600
20,350167	0,5	-1,023550
20,358500	0,5	-1,002950
20,366833	0,5	-0,993950
20,375167	0,5	-0,980000
20,383500	0,5	-0,961500
20,391833	0,5	-0,946600
20,400167	0,5	-0,965950
20,408500	0,5	-0,977950
20,416833	0,5	-0,998300
20,425167	0,5	-1,024550
20,433500	0,5	-1,053000
20,441833	0,5	-1,079650
20,450167	0,5	-1,080850
20,458500	0,5	-1,080850
20,466833	0,5	-1,082350
20,475167	0,5	-1,077350
20,483500	0,5	-1,082150
20,491833	0,5	-1,062250
20,500167	0,5	-1,050950
20,508500	0,5	-1,047950
20,516833	0,5	-1,042300
20,525167	0,5	-1,038650
20,533500	0,5	-1,013550
20,541833	0,5	-1,009550
20,550167	0,5	-1,013250
20,558500	0,5	-1,000250
20,566833	0,5	-0,980250
20,575167	0,5	-0,971100
20,583500	0,5	-0,958950
20,591833	0,5	-0,951350
20,600167	0,5	-0,933650
20,608500	0,5	-0,937500
20,616833	0,5	-0,944300
20,625167	0,5	-0,953850
20,633500	0,5	-0,957200
20,641833	0,5	-0,956400
20,650167	0,5	-0,964550
20,658500	0,5	-0,979650
20,666833	0,5	-0,998600
20,675167	0,5	-0,989950
20,683500	0,5	-0,987850
20,691833	0,5	-1,000550
20,700167	0,5	-1,017750
20,708500	0,5	-1,026950
20,716833	0,5	-1,043800
20,725167	0,5	-1,060700
20,733500	0,5	-1,091200
20,741833	0,5	-1,093100
20,750167	0,5	-1,090100
20,758500	0,5	-1,083300
20,766833	0,5	-1,084200
20,775167	0,5	-1,078250
20,783500	0,5	-1,075000
20,791833	0,5	-1,077400
20,800167	0,5	-1,082450
20,808500	0,5	-1,094500
20,816833	0,5	-1,097250
20,825167	0,5	-1,075950
20,833500	0,5	-1,069350
20,841833	0,5	-1,075200
20,850167	0,5	-1,063850
20,858500	0,5	-1,068400
20,866833	0,5	-1,070750
20,875167	0,5	-1,097200
20,883500	0,5	-1,113850
20,891833	0,5	-1,116900
20,900167	0,5	-1,110100
20,908500	0,5	-1,101950
20,916833	0,5	-1,093650
20,925167	0,5	-1,083750
20,933500	0,5	-1,076400
20,941833	0,5	-1,071300
20,950167	0,5	-1,073450
20,958500	0,5	-1,073150
20,966833	0,5	-1,065650
20,975167	0,5	-1,045800
20,983500	0,5	-1,046600
20,991833	0,5	-1,054750
21,000167	0,5	-1,051200
21,008500	0,5	-1,051700
21,016833	0,5	-1,062500
21,025167	0,5	-1,068300
21,033500	0,5	-1,073450
21,041833	0,5	-1,062800
21,050167	0,5	-1,064200
21,058500	0,5	-1,060550
21,066833	0,5	-1,063650
21,075167	0,5	-1,066950
21,083500	0,5	-1,068800
21,091833	0,5	-1,062900
21,100167	0,5	-1,058050
21,108500	0,5	-1,053500
21,116833	0,5	-1,018450
21,125167	0,5	-0,998050
21,133500	0,5	-0,994150
21,141833	0,5	-0,995650
21,150167	0,5	-0,997250
21,158500	0,5	-1,010500
21,166833	0,5	-1,022500
21,175167	0,5	-1,040800
21,183500	0,5	-1,041550
21,191833	0,5	-1,047500
21,200167	0,5	-1,041600
21,208500	0,5	-1,042350
21,216833	0,5	-1,040150
21,225167	0,5	-1,035050
21,233500	0,5	-1,025750
21,241833	0,5	-1,014500
21,250167	0,5	-1,013500
21,258500	0,5	-0,992700
21,266833	0,5	-0,955350
21,275167	0,5	-0,938450
21,283500	0,5	-0,941650
21,291833	0,5	-0,941500
21,300167	0,5	-0,951100
21,308500	0,5	-0,951450
21,316833	0,5	-0,978350
21,325167	0,5	-0,977950
21,333500	0,5	-0,975450
21,341833	0,5	-0,963250
21,350167	0,5	-0,960500
21,358500	0,5	-0,945650
21,366833	0,5	-0,936050
21,375167	0,5	-0,924750
21,383500	0,5	-0,916050
21,391833	0,5	-0,904200
21,400167	0,5	-0,895700
21,408500	0,5	-0,865800
21,416833	0,5	-0,840800
21,425167	0,5	-0,832600
21,433500	0,5	-0,832600
21,441833	0,5	-0,831050
21,450167	0,5	-0,830400
21,458500	0,5	-0,835700
21,466833	0,5	-0,833350
21,475167	0,5	-0,807900
21,483500	0,5	-0,781600
21,491833	0,5	-0,765550
21,500167	0,5	-0,750800
21,508500	0,5	-0,752400
21,516833	0,5	-0,744500
21,525167	0,5	-0,740000
21,533500	0,5	-0,729600
21,541833	0,5	-0,718700
21,550167	0,5	-0,700500
21,558500	0,5	-0,655050
21,566833	0,5	-0,621900
21,575167	0,5	-0,612700
21,583500	0,5	-0,587350
21,591833	0,5	-0,558250
21,600167	0,5	-0,537150
21,608500	0,5	-0,490550
21,616833	0,5	-0,438400
21,625167	0,5	-0,358000
21,633500	0,5	-0,300900
21,641833	0,5	-0,260400
21,650167	0,5	-0,268650
21,658500	0,5	-0,289900
21,666833	0,5	-0,321050
21,675167	0,5	-0,342300
21,683500	0,5	-0,353950
21,691833	0,5	-0,353400
21,700167	0,5	-0,328950
21,708500	0,5	-0,301950
21,716833	0,5	-0,299700
21,725167	0,5	-0,304200
21,733500	0,5	-0,310150
21,741833	0,5	-0,320950
21,750167	0,5	-0,319200
21,758500	0,5	-0,327150
21,766833	0,5	-0,305550
21,775167	0,5	-0,290050
21,783500	0,5	-0,259550
21,791833	0,5	-0,236850
21,800167	0,5	-0,204650
21,808500	0,5	-0,174750
21,816833	0,5	-0,141200
21,825167	0,5	-0,111950
21,833500	0,5	-0,082700
21,841833	0,5	-0,046850
21,850167	0,5	0,001800
21,858500	0,5	0,033500
21,866833	0,5	0,049700
21,875167	0,5	0,091550
21,883500	0,5	0,120400
21,891833	0,5	0,145700
21,900167	0,5	0,148750
21,908500	0,5	0,151950
21,916833	0,5	0,167750
21,925167	0,5	0,190150
21,933500	0,5	0,201250
21,941833	0,5	0,223400
21,950167	0,5	0,242050
21,958500	0,5	0,268750
21,966833	0,5	0,293500
21,975167	0,5	0,313700
21,983500	0,5	0,337750
21,991833	0,5	0,367900
22,000167	0,5	0,407850
22,008500	0,5	0,423850
22,016833	0,5	0,449500
22,025167	0,5	0,483750
22,033500	0,5	0,506250
22,041833	0,5	0,525850
22,050167	0,5	0,555250
22,058500	0,5	0,591950
22,066833	0,5	0,633200
22,075167	0,5	0,666300
22,083500	0,5	0,709200
22,091833	0,5	0,733150
22,100167	0,5	0,768750
22,108500	0,5	0,804350
22,116833	0,5	0,846800
22,125167	0,5	0,890000
22,133500	0,5	0,938750
22,141833	0,5	1,009150
22,150167	0,5	1,051100
22,158500	0,5	1,092000
22,166833	0,5	1,134650
22,175167	0,5	1,167350
22,183500	0,5	1,202800
22,191833	0,5	1,240900
22,200167	0,5	1,282400
22,208500	0,5	1,344950
22,216833	0,5	1,387550
22,225167	0,5	1,444100
22,233500	0,5	1,484900
22,241833	0,5	1,540550
22,250167	0,5	1,590650
22,258500	0,5	1,648950
22,266833	0,5	1,701250
22,275167	0,5	1,758100
22,283500	0,5	1,816600
22,291833	0,5	1,875350
22,300167	0,5	1,933950
22,308500	0,5	2,015950
22,316833	0,5	2,082250
22,325167	0,5	2,119750
22,333500	0,5	2,156250
22,341833	0,5	2,172900
22,350167	0,5	2,227100
22,358500	0,5	2,275050
22,366833	0,5	2,338800
22,375167	0,5	2,389100
22,383500	0,5	2,459350
22,391833	0,5	2,513450
22,400167	0,5	2,579150
22,408500	0,5	2,637550
22,416833	0,5	2,699900
22,425167	0,5	2,759250
22,433500	0,5	2,797900
22,441833	0,5	2,871000
22,450167	0,5	2,955900
22,458500	0,5	3,051900
22,466833	0,5	3,136200
22,475167	0,5	3,210050
22,483500	0,5	3,272700
22,491833	0,5	3,333050
22,500167	0,5	3,399650
22,508500	0,5	3,471100
22,516833	0,5	3,538350
22,525167	0,5	3,612300
22,533500	0,5	3,682500
22,541833	0,5	3,756600
22,550167	0,5	3,825700
22,558500	0,5	3,898750
22,566833	0,5	3,968950
22,575167	0,5	4,015050
22,583500	0,5	4,047950
22,591833	0,5	4,107800
22,600167	0,5	4,186550
22,608500	0,5	4,239600
22,616833	0,5	4,284200
22,625167	0,5	4,314400
22,633500	0,5	4,343900
22,641833	0,5	4,371300
22,650167	0,5	4,414350
22,658500	0,5	4,438350
22,666833	0,5	4,459900
22,675167	0,5	4,469350
22,683500	0,5	4,486600
22,691833	0,5	4,482800
22,700167	0,5	4,480550
22,708500	0,5	4,457200
22,716833	0,5	4,429600
22,725167	0,5	4,344950
22,733500	0,5	4,317050
22,741833	0,5	4,275150
22,750167	0,5	4,236450
22,758500	0,5	4,166500
22,766833	0,5	4,075050
22,775167	0,5	3,968400
22,783500	0,5	3,847100
22,791833	0,5	3,735100
22,800167	0,5	3,613650
22,808500	0,5	3,488650
22,816833	0,5	3,352350
22,825167	0,5	3,217750
22,833500	0,5	3,077600
22,841833	0,5	2,931450
22,850167	0,5	2,777150
22,858500	0,5	2,618900
22,866833	0,5	2,459500
22,875167	0,5	2,235900
22,883500	0,5	2,091150
22,891833	0,5	1,940350
22,900167	0,5	1,760250
22,908500	0,5	1,578150
22,916833	0,5	1,398450
22,925167	0,5	1,227000
22,933500	0,5	1,048900
22,941833	0,5	0,877900
22,950167	0,5	0,698900
22,958500	0,5	0,539900
22,966833	0,5	0,374800
22,975167	0,5	0,227300
22,983500	0,5	0,064500
22,991833	0,5	-0,080750
23,000167	0,5	-0,233050
23,008500	0,5	-0,378250
23,016833	0,5	-0,496550
23,025167	0,5	-0,650650
23,033500	0,5	-0,772650
23,041833	0,5	-0,932700
23,050167	0,5	-1,073800
23,058500	0,5	-1,184200
23,066833	0,5	-1,283300
23,075167	0,5	-1,377700
23,083500	0,5	-1,471400
23,091833	0,5	-1,566250
23,100167	0,5	-1,643550
23,108500	0,5	-1,717850
23,116833	0,5	-1,778550
23,125167	0,5	-1,846050
23,133500	0,5	-1,902550
23,141833	0,5	-1,966050
23,150167	0,5	-2,018100
23,158500	0,5	-2,072850
23,166833	0,5	-2,113900
23,175167	0,5	-2,148300
23,183500	0,5	-2,188600
23,191833	0,5	-2,267150
23,200167	0,5	-2,307850
23,208500	0,5	-2,335150
23,216833	0,5	-2,345250
23,225167	0,5	-2,358350
23,233500	0,5	-2,374500
23,241833	0,5	-2,374950
23,250167	0,5	-2,378100
23,258500	0,5	-2,370350
23,266833	0,5	-2,366000
23,275167	0,5	-2,353400
23,283500	0,5	-2,350500
23,291833	0,5	-2,340150
23,300167	0,5	-2,334350
23,308500	0,5	-2,311600
23,316833	0,5	-2,339050
23,325167	0,5	-2,315950
23,333500	0,5	-2,283350
23,341833	0,5	-2,303000
23,350167	0,5	-2,309000
23,358500	0,5	-2,292300
23,366833	0,5	-2,271250
23,375167	0,5	-2,249400
23,383500	0,5	-2,235050
23,391833	0,5	-2,208800
23,400167	0,5	-2,179750
23,408500	0,5	-2,148450
23,416833	0,5	-2,115600
23,425167	0,5	-2,085150
23,433500	0,5	-2,052850
23,441833	0,5	-2,027350
23,450167	0,5	-1,996950
23,458500	0,5	-2,022850
23,466833	0,5	-1,997650
23,475167	0,5	-1,943550
23,483500	0,5	-1,899050
23,491833	0,5	-1,894600
23,500167	0,5	-1,886650
23,508500	0,5	-1,874100
23,516833	0,5	-1,852800
23,525167	0,5	-1,840850
23,533500	0,5	-1,824550
23,541833	0,5	-1,811850
23,550167	0,5	-1,787250
23,558500	0,5	-1,768050
23,566833	0,5	-1,749200
23,575167	0,5	-1,733550
23,583500	0,5	-1,713900
23,591833	0,5	-1,695550
23,600167	0,5	-1,681850
23,608500	0,5	-1,783850
23,616833	0,5	-1,717000
23,625167	0,5	-1,680400
23,633500	0,5	-1,625750
23,641833	0,5	-1,622400
23,650167	0,5	-1,614250
23,658500	0,5	-1,606900
23,666833	0,5	-1,603600
23,675167	0,5	-1,593900
23,683500	0,5	-1,584800
23,691833	0,5	-1,574850
23,700167	0,5	-1,566950
23,708500	0,5	-1,563250
23,716833	0,5	-1,555550
23,725167	0,5	-1,550600
23,733500	0,5	-1,545750
23,741833	0,5	-1,543250
23,750167	0,5	-1,610650
23,758500	0,5	-1,683650
23,766833	0,5	-1,642850
23,775167	0,5	-1,593350
23,783500	0,5	-1,559150
23,791833	0,5	-1,556550
23,800167	0,5	-1,559850
23,808500	0,5	-1,560200
23,816833	0,5	-1,565500
23,825167	0,5	-1,551400
23,833500	0,5	-1,547750
23,841833	0,5	-1,533300
23,850167	0,5	-1,527350
23,858500	0,5	-1,514050
23,866833	0,5	-1,505750
23,875167	0,5	-1,496600
23,883500	0,5	-1,486000
23,891833	0,5	-1,484700
23,900167	0,5	-1,615000
23,908500	0,5	-1,607850
23,916833	0,5	-1,573850
23,925167	0,5	-1,513850
23,933500	0,5	-1,486600
23,941833	0,5	-1,482200
23,950167	0,5	-1,484350
23,958500	0,5	-1,494800
23,966833	0,5	-1,491250
23,975167	0,5	-1,488600
23,983500	0,5	-1,474550
23,991833	0,5	-1,470400
24,000167	0,5	-1,455750
24,008500	0,5	-1,448550
24,016833	0,5	-1,433500
24,025167	0,5	-1,423950
24,033500	0,5	-1,412200
24,041833	0,5	-1,417550
24,050167	0,5	-1,544150
24,058500	0,5	-1,511450
24,066833	0,5	-1,457750
24,075167	0,5	-1,400850
24,083500	0,5	-1,368250
24,091833	0,5	-1,357900
24,100167	0,5	-1,352750
24,108500	0,5	-1,350300
24,116833	0,5	-1,343200
24,125167	0,5	-1,319900
24,133500	0,5	-1,303650
24,141833	0,5	-1,283400
24,150167	0,5	-1,272050
24,158500	0,5	-1,252300
24,166833	0,5	-1,240250
24,175167	0,5	-1,220600
24,183500	0,5	-1,216250
24,191833	0,5	-1,270900
24,200167	0,5	-1,317650
24,208500	0,5	-1,283100
24,216833	0,5	-1,238250
24,225167	0,5	-1,194200
24,233500	0,5	-1,177250
24,241833	0,5	-1,166150
24,250167	0,5	-1,166050
24,258500	0,5	-1,158200
24,266833	0,5	-1,136300
24,275167	0,5	-1,119800
24,283500	0,5	-1,101000
24,291833	0,5	-1,085250
24,300167	0,5	-1,063300
24,308500	0,5	-1,046950
24,316833	0,5	-1,025900
24,325167	0,5	-1,008350
24,333500	0,5	-0,988350
24,341833	0,5	-1,071250
24,350167	0,5	-1,038650
24,358500	0,5	-1,028500
24,366833	0,5	-0,969950
24,375167	0,5	-0,942250
24,383500	0,5	-0,920450
24,391833	0,5	-0,911300
24,400167	0,5	-0,916200
24,408500	0,5	-0,902450
24,416833	0,5	-0,885050
24,425167	0,5	-0,872300
24,433500	0,5	-0,860950
24,441833	0,5	-0,847300
24,450167	0,5	-0,832000
24,458500	0,5	-0,817600
24,466833	0,5	-0,803000
24,475167	0,5	-0,789150
24,483500	0,5	-0,794150
24,491833	0,5	-0,851300
24,500167	0,5	-0,823350
24,508500	0,5	-0,802300
24,516833	0,5	-0,756600
24,525167	0,5	-0,734250
24,533500	0,5	-0,722650
24,541833	0,5	-0,709650
24,550167	0,5	-0,715250
24,558500	0,5	-0,692450
24,566833	0,5	-0,679400
24,575167	0,5	-0,654000
24,583500	0,5	-0,645850
24,591833	0,5	-0,628550
24,600167	0,5	-0,619350
24,608500	0,5	-0,605000
24,616833	0,5	-0,590700
24,625167	0,5	-0,580750
24,633500	0,5	-0,603400
24,641833	0,5	-0,624300
24,650167	0,5	-0,599600
24,658500	0,5	-0,577550
24,666833	0,5	-0,548250
24,675167	0,5	-0,539900
24,683500	0,5	-0,530500
24,691833	0,5	-0,532850
24,700167	0,5	-0,532050
24,708500	0,5	-0,521450
24,716833	0,5	-0,506200
24,725167	0,5	-0,499100
24,733500	0,5	-0,484900
24,741833	0,5	-0,474200
24,750167	0,5	-0,457250
24,758500	0,5	-0,444950
24,766833	0,5	-0,430500
24,775167	0,5	-0,420450
24,783500	0,5	-0,453450
24,791833	0,5	-0,438250
24,800167	0,5	-0,418550
24,808500	0,5	-0,399600
24,816833	0,5	-0,381450
24,825167	0,5	-0,371150
24,833500	0,5	-0,366700
24,841833	0,5	-0,362000
24,850167	0,5	-0,362750
24,858500	0,5	-0,348400
24,866833	0,5	-0,342500
24,875167	0,5	-0,333650
24,883500	0,5	-0,326550
24,891833	0,5	-0,318800
24,900167	0,5	-0,311000
24,908500	0,5	-0,299200
24,916833	0,5	-0,296950
24,925167	0,5	-0,293800
24,933500	0,5	-0,310900
24,941833	0,5	-0,297300
24,950167	0,5	-0,285550
24,958500	0,5	-0,267850
24,966833	0,5	-0,254900
24,975167	0,5	-0,247550
24,983500	0,5	-0,246000
24,991833	0,5	-0,244650
25,000167	0,5	-0,236750
25,008500	0,5	-0,227350
25,016833	0,5	-0,216550
25,025167	0,5	-0,209700
25,033500	0,5	-0,200450
25,041833	0,5	-0,195500
25,050167	0,5	-0,184950
25,058500	0,5	-0,178950
25,066833	0,5	-0,170650
25,075167	0,5	-0,177700
25,083500	0,5	-0,178300
25,091833	0,5	-0,171950
25,100167	0,5	-0,162550
25,108500	0,5	-0,154200
25,116833	0,5	-0,147000
25,125167	0,5	-0,145550
25,133500	0,5	-0,145800
25,141833	0,5	-0,145050
25,150167	0,5	-0,141150
25,158500	0,5	-0,135800
25,166833	0,5	-0,130500
25,175167	0,5	-0,125300
25,183500	0,5	-0,120100
25,191833	0,5	-0,113550
25,200167	0,5	-0,106300
25,208500	0,5	-0,099800
25,216833	0,5	-0,094500
25,225167	0,5	-0,095500
25,233500	0,5	-0,089050
25,241833	0,5	-0,080550
25,250167	0,5	-0,077150
25,258500	0,5	-0,069550
25,266833	0,5	-0,067700
25,275167	0,5	-0,065450
25,283500	0,5	-0,069100
25,291833	0,5	-0,064700
25,300167	0,5	-0,060100
25,308500	0,5	-0,058100
25,316833	0,5	-0,059550
25,325167	0,5	-0,055500
25,333500	0,5	-0,051300
25,341833	0,5	-0,048250
25,350167	0,5	-0,047350
25,358500	0,5	-0,043750
25,366833	0,5	-0,041450
25,375167	0,5	-0,039200
25,383500	0,5	-0,034450
25,391833	0,5	-0,031200
25,400167	0,5	-0,031600
25,408500	0,5	-0,026850
25,416833	0,5	-0,023350
25,425167	0,5	-0,021200
25,433500	0,5	-0,017600
25,441833	0,5	-0,015350
25,450167	0,5	-0,012600
25,458500	0,5	-0,009650
25,466833	0,5	-0,008750
25,475167	0,5	-0,005250
25,483500	0,5	-0,005200
25,491833	0,5	-0,003000
25,500167	0,5	-0,001850
25,508500	0,5	0,002100
25,516833	0,5	0,003600
25,525167	0,5	0,010250
25,533500	0,5	0,009850
25,541833	0,5	0,009150
25,550167	0,5	0,005850
25,558500	0,5	0,008700
25,566833	0,5	0,009550
25,575167	0,5	0,008450
25,583500	0,5	0,013750
25,591833	0,5	0,013000
25,600167	0,5	0,015950
25,608500	0,5	0,016350
25,616833	0,5	0,020850
25,625167	0,5	0,021500
25,633500	0,5	0,028300
25,641833	0,5	0,025000
25,650167	0,5	0,027400
25,658500	0,5	0,031550
25,666833	0,5	0,039100
25,675167	0,5	0,043150
25,683500	0,5	0,044750
25,691833	0,5	0,037900
25,700167	0,5	0,035450
25,708500	0,5	0,037100
25,716833	0,5	0,038800
25,725167	0,5	0,042900
25,733500	0,5	0,042450
25,741833	0,5	0,045100
25,750167	0,5	0,046900
25,758500	0,5	0,051750
25,766833	0,5	0,049150
25,775167	0,5	0,050700
25,783500	0,5	0,051900
25,791833	0,5	0,055050
25,800167	0,5	0,059550
25,808500	0,5	0,061500
25,816833	0,5	0,075350
25,825167	0,5	0,079200
25,833500	0,5	0,079700
25,841833	0,5	0,075500
25,850167	0,5	0,073400
25,858500	0,5	0,078500
25,866833	0,5	0,080250
25,875167	0,5	0,085500
25,883500	0,5	0,094100
25,891833	0,5	0,091000
25,900167	0,5	0,093400
25,908500	0,5	0,088500
25,916833	0,5	0,090500
25,925167	0,5	0,088800
25,933500	0,5	0,090050
25,941833	0,5	0,088250
25,950167	0,5	0,089200
25,958500	0,5	0,092300
25,966833	0,5	0,097900
25,975167	0,5	0,101250
25,983500	0,5	0,101300
25,991833	0,5	0,088500
26,000167	0,5	0,091150
