File Path	chrom://chromeleon01/ikbm_chromeleon/2022/ICS-5000/ED1/Esteban/20220612_Cell_7_4_eg.seq/369.smp/ED_1.channel/ED_1.chm
Channel	ED_1

Injection Information:
Data Vault	ikbm_chromeleon
Injection	4_00h-EGS_3
Injection Number	129
Position	BD4
Comment	
Processing Method	Stop sequence after Cell Death
Instrument Method	ICS5000_PA200_FullNative_Ox_26min_ED1
Type	Unknown
Status	Finished
Injection Date	15.06.2022
Injection Time	05:08:07
Injection Volume (µl)	5,0
Dilution Factor	1,0000
Weight	1,0000

Chromatogram Data Information:
Time Min. (min)	0,000333
Time Max. (min)	26,000333
Data Points	3121
Detector	EDet1
Generating Data System	Chromeleon 7.2.9.11323
Exporting Data System	Chromeleon 7.2.9.0
Operator	Instrument Controller
Signal Quantity	
Signal Unit	nC
Signal Min.	-2,322400
Signal Max.	2 083,891031
Channel	ED_1
Driver Name	DC-5000
Channel Type	Evaluation
Min. Step (s)	0,5
Max. Step (s)	0,5
Average Step (s)	0,5

Signal Parameter Information:
Signal Info	

Chromatogram Data:
Time (min)	Step (s)	Value (nC)
0,000333	n.a.	-0,099550
0,008667	0,5	-0,087050
0,017000	0,5	-0,077200
0,025333	0,5	-0,061450
0,033667	0,5	-0,057950
0,042000	0,5	-0,042700
0,050333	0,5	-0,040700
0,058667	0,5	-0,056950
0,067000	0,5	-0,077100
0,075333	0,5	-0,038150
0,083667	0,5	-0,051450
0,092000	0,5	-0,068100
0,100333	0,5	-0,071600
0,108667	0,5	-0,058300
0,117000	0,5	-0,026700
0,125333	0,5	-0,013400
0,133667	0,5	-0,014200
0,142000	0,5	-0,021050
0,150333	0,5	-0,022600
0,158667	0,5	-0,028750
0,167000	0,5	-0,032650
0,175333	0,5	-0,040750
0,183667	0,5	-0,041400
0,192000	0,5	-0,047350
0,200333	0,5	-0,041450
0,208667	0,5	-0,066000
0,217000	0,5	-0,070850
0,225333	0,5	-0,048550
0,233667	0,5	-0,056250
0,242000	0,5	-0,075600
0,250333	0,5	-0,067550
0,258667	0,5	-0,068350
0,267000	0,5	-0,027150
0,275333	0,5	-0,031150
0,283667	0,5	-0,025600
0,292000	0,5	0,012050
0,300333	0,5	0,035500
0,308667	0,5	0,005100
0,317000	0,5	-0,037850
0,325333	0,5	-0,076800
0,333667	0,5	-0,084900
0,342000	0,5	-0,085050
0,350333	0,5	-0,077300
0,358667	0,5	-0,079500
0,367000	0,5	-0,093650
0,375333	0,5	-0,054800
0,383667	0,5	-0,084050
0,392000	0,5	-0,091350
0,400333	0,5	-0,091350
0,408667	0,5	-0,073400
0,417000	0,5	-0,044250
0,425333	0,5	-0,051050
0,433667	0,5	-0,058450
0,442000	0,5	-0,047850
0,450333	0,5	-0,058100
0,458667	0,5	-0,055750
0,467000	0,5	-0,067750
0,475333	0,5	-0,062700
0,483667	0,5	-0,062800
0,492000	0,5	-0,066000
0,500333	0,5	-0,063400
0,508667	0,5	-0,085200
0,517000	0,5	-0,083500
0,525333	0,5	-0,051300
0,533667	0,5	-0,084150
0,542000	0,5	-0,079450
0,550333	0,5	-0,070000
0,558667	0,5	-0,052750
0,567000	0,5	-0,016350
0,575333	0,5	-0,035350
0,583667	0,5	-0,035600
0,592000	0,5	-0,042100
0,600333	0,5	-0,027950
0,608667	0,5	-0,035000
0,617000	0,5	-0,024600
0,625333	0,5	-0,035200
0,633667	0,5	-0,028450
0,642000	0,5	-0,029100
0,650333	0,5	-0,042500
0,658667	0,5	-0,057800
0,667000	0,5	-0,036850
0,675333	0,5	-0,031700
0,683667	0,5	-0,049500
0,692000	0,5	-0,043650
0,700333	0,5	-0,034250
0,708667	0,5	-0,011750
0,717000	0,5	0,021650
0,725333	0,5	0,023050
0,733667	0,5	0,017500
0,742000	0,5	0,019900
0,750333	0,5	0,012850
0,758667	0,5	0,018750
0,767000	0,5	0,010150
0,775333	0,5	0,014800
0,783667	0,5	0,010300
0,792000	0,5	0,016950
0,800333	0,5	0,003200
0,808667	0,5	0,004950
0,817000	0,5	0,021850
0,825333	0,5	0,022150
0,833667	0,5	0,004200
0,842000	0,5	0,011000
0,850333	0,5	0,026250
0,858667	0,5	0,056950
0,867000	0,5	0,075150
0,875333	0,5	0,061400
0,883667	0,5	0,059750
0,892000	0,5	0,061350
0,900333	0,5	0,059000
0,908667	0,5	0,061950
0,917000	0,5	0,063300
0,925333	0,5	0,058100
0,933667	0,5	0,066550
0,942000	0,5	0,056850
0,950333	0,5	0,052900
0,958667	0,5	0,054550
0,967000	0,5	0,078900
0,975333	0,5	0,055050
0,983667	0,5	0,053800
0,992000	0,5	0,055300
1,000333	0,5	0,084800
1,008667	0,5	0,103700
1,017000	0,5	0,113350
1,025333	0,5	0,108750
1,033667	0,5	0,110150
1,042000	0,5	0,108900
1,050333	0,5	0,108800
1,058667	0,5	0,106250
1,067000	0,5	0,095150
1,075333	0,5	0,096600
1,083667	0,5	0,100100
1,092000	0,5	0,098300
1,100333	0,5	0,079100
1,108667	0,5	0,099250
1,117000	0,5	0,104000
1,125333	0,5	0,092150
1,133667	0,5	0,086450
1,142000	0,5	0,098850
1,150333	0,5	0,118500
1,158667	0,5	0,138600
1,167000	0,5	0,132050
1,175333	0,5	0,140450
1,183667	0,5	0,127750
1,192000	0,5	0,136300
1,200333	0,5	0,126850
1,208667	0,5	0,129950
1,217000	0,5	0,123050
1,225333	0,5	0,123600
1,233667	0,5	0,131300
1,242000	0,5	0,123050
1,250333	0,5	0,110750
1,258667	0,5	0,138600
1,267000	0,5	0,127150
1,275333	0,5	0,119250
1,283667	0,5	0,121300
1,292000	0,5	0,127650
1,300333	0,5	0,167450
1,308667	0,5	0,167600
1,317000	0,5	0,175500
1,325333	0,5	0,176850
1,333667	0,5	0,200850
1,342000	0,5	0,213500
1,350333	0,5	0,246750
1,358667	0,5	0,273300
1,367000	0,5	0,328050
1,375333	0,5	0,388850
1,383667	0,5	0,486400
1,392000	0,5	0,600900
1,400333	0,5	0,735150
1,408667	0,5	0,945600
1,417000	0,5	1,140250
1,425333	0,5	1,402700
1,433667	0,5	1,719450
1,442000	0,5	2,108650
1,450333	0,5	2,590750
1,458667	0,5	3,127500
1,467000	0,5	3,755100
1,475333	0,5	4,526750
1,483667	0,5	5,377700
1,492000	0,5	6,275000
1,500333	0,5	7,170250
1,508667	0,5	8,081000
1,517000	0,5	8,979250
1,525333	0,5	9,900100
1,533667	0,5	10,825850
1,542000	0,5	11,773400
1,550333	0,5	12,756450
1,558667	0,5	13,932050
1,567000	0,5	15,347300
1,575333	0,5	17,453600
1,583667	0,5	23,216650
1,592000	0,5	47,487301
1,600333	0,5	139,001952
1,608667	0,5	430,382306
1,617000	0,5	1 085,844216
1,625333	0,5	1 551,825323
1,633667	0,5	2 083,891031
1,642000	0,5	2 045,429730
1,650333	0,5	1 996,400130
1,658667	0,5	1 905,041578
1,667000	0,5	1 623,757774
1,675333	0,5	1 189,860068
1,683667	0,5	811,442162
1,692000	0,5	570,502909
1,700333	0,5	427,399506
1,708667	0,5	340,981355
1,717000	0,5	282,379554
1,725333	0,5	241,514354
1,733667	0,5	211,279403
1,742000	0,5	188,365553
1,750333	0,5	170,182853
1,758667	0,5	154,552902
1,767000	0,5	140,812552
1,775333	0,5	129,170202
1,783667	0,5	120,205402
1,792000	0,5	114,172152
1,800333	0,5	111,278252
1,808667	0,5	111,648402
1,817000	0,5	114,540102
1,825333	0,5	117,396202
1,833667	0,5	117,323102
1,842000	0,5	113,674152
1,850333	0,5	107,663102
1,858667	0,5	101,063352
1,867000	0,5	95,457001
1,875333	0,5	91,528551
1,883667	0,5	88,777801
1,892000	0,5	86,539401
1,900333	0,5	84,569051
1,908667	0,5	83,179951
1,917000	0,5	82,269651
1,925333	0,5	81,307351
1,933667	0,5	79,732051
1,942000	0,5	77,757901
1,950333	0,5	75,962801
1,958667	0,5	74,983351
1,967000	0,5	75,432401
1,975333	0,5	77,870751
1,983667	0,5	81,588951
1,992000	0,5	83,921501
2,000333	0,5	82,847501
2,008667	0,5	79,433951
2,017000	0,5	76,181551
2,025333	0,5	74,227601
2,033667	0,5	73,479351
2,042000	0,5	73,657451
2,050333	0,5	74,629801
2,058667	0,5	76,321901
2,067000	0,5	78,886451
2,075333	0,5	82,554251
2,083667	0,5	87,875301
2,092000	0,5	95,520501
2,100333	0,5	105,987902
2,108667	0,5	118,308252
2,117000	0,5	129,803202
2,125333	0,5	137,520802
2,133667	0,5	139,693752
2,142000	0,5	135,358952
2,150333	0,5	124,905952
2,158667	0,5	111,324652
2,167000	0,5	98,468801
2,175333	0,5	88,279001
2,183667	0,5	81,118051
2,192000	0,5	77,259401
2,200333	0,5	77,444451
2,208667	0,5	81,470001
2,217000	0,5	85,585501
2,225333	0,5	85,312301
2,233667	0,5	80,903451
2,242000	0,5	76,049901
2,250333	0,5	72,058151
2,258667	0,5	67,699001
2,267000	0,5	62,588351
2,275333	0,5	57,817401
2,283667	0,5	54,196701
2,292000	0,5	51,825701
2,300333	0,5	50,376101
2,308667	0,5	49,995601
2,317000	0,5	50,771101
2,325333	0,5	52,065651
2,333667	0,5	53,126701
2,342000	0,5	53,662101
2,350333	0,5	53,722951
2,358667	0,5	53,673651
2,367000	0,5	53,983401
2,375333	0,5	54,598451
2,383667	0,5	54,653001
2,392000	0,5	53,380151
2,400333	0,5	51,117101
2,408667	0,5	48,728351
2,417000	0,5	46,706051
2,425333	0,5	44,975151
2,433667	0,5	43,414101
2,442000	0,5	42,041301
2,450333	0,5	40,857751
2,458667	0,5	39,928351
2,467000	0,5	39,219051
2,475333	0,5	38,683601
2,483667	0,5	38,365951
2,492000	0,5	38,148601
2,500333	0,5	37,898001
2,508667	0,5	37,552101
2,517000	0,5	37,432951
2,525333	0,5	38,903501
2,533667	0,5	41,467251
2,542000	0,5	41,705751
2,550333	0,5	39,573601
2,558667	0,5	37,124501
2,567000	0,5	35,045151
2,575333	0,5	33,512250
2,583667	0,5	32,453300
2,592000	0,5	31,836850
2,600333	0,5	31,438350
2,608667	0,5	31,253800
2,617000	0,5	31,190200
2,625333	0,5	31,202900
2,633667	0,5	31,196500
2,642000	0,5	31,073500
2,650333	0,5	30,811000
2,658667	0,5	30,465350
2,667000	0,5	30,042900
2,675333	0,5	29,616100
2,683667	0,5	29,197350
2,692000	0,5	28,810100
2,700333	0,5	28,448800
2,708667	0,5	28,116500
2,717000	0,5	27,822150
2,725333	0,5	27,571350
2,733667	0,5	27,380200
2,742000	0,5	27,249050
2,750333	0,5	27,100650
2,758667	0,5	26,973900
2,767000	0,5	26,841450
2,775333	0,5	26,752600
2,783667	0,5	26,774300
2,792000	0,5	26,947700
2,800333	0,5	27,431150
2,808667	0,5	28,320750
2,817000	0,5	29,759650
2,825333	0,5	31,580100
2,833667	0,5	33,418300
2,842000	0,5	34,673301
2,850333	0,5	34,910401
2,858667	0,5	34,050201
2,867000	0,5	32,448800
2,875333	0,5	30,728450
2,883667	0,5	29,398950
2,892000	0,5	28,586750
2,900333	0,5	28,249400
2,908667	0,5	28,201950
2,917000	0,5	28,230400
2,925333	0,5	28,190850
2,933667	0,5	27,976650
2,942000	0,5	27,591400
2,950333	0,5	27,053750
2,958667	0,5	26,440500
2,967000	0,5	25,810750
2,975333	0,5	25,307600
2,983667	0,5	25,080100
2,992000	0,5	25,383450
3,000333	0,5	26,538650
3,008667	0,5	28,918850
3,017000	0,5	32,637050
3,025333	0,5	37,365351
3,033667	0,5	42,152851
3,042000	0,5	45,797651
3,050333	0,5	47,420751
3,058667	0,5	46,779251
3,067000	0,5	44,143951
3,075333	0,5	40,235401
3,083667	0,5	35,788801
3,092000	0,5	31,498300
3,100333	0,5	27,816600
3,108667	0,5	24,915000
3,117000	0,5	22,767350
3,125333	0,5	21,236850
3,133667	0,5	20,164600
3,142000	0,5	19,400800
3,150333	0,5	18,852450
3,158667	0,5	18,455800
3,167000	0,5	18,195300
3,175333	0,5	18,074800
3,183667	0,5	18,112100
3,192000	0,5	18,198950
3,200333	0,5	18,334600
3,208667	0,5	18,403850
3,217000	0,5	18,337800
3,225333	0,5	18,085600
3,233667	0,5	17,650000
3,242000	0,5	17,137100
3,250333	0,5	16,632800
3,258667	0,5	16,198650
3,267000	0,5	15,867550
3,275333	0,5	15,646400
3,283667	0,5	15,515550
3,292000	0,5	15,442100
3,300333	0,5	15,387750
3,308667	0,5	15,323600
3,317000	0,5	15,208000
3,325333	0,5	15,113200
3,333667	0,5	14,992200
3,342000	0,5	14,874550
3,350333	0,5	14,764500
3,358667	0,5	14,682600
3,367000	0,5	14,613450
3,375333	0,5	14,549500
3,383667	0,5	14,463000
3,392000	0,5	14,404950
3,400333	0,5	14,351250
3,408667	0,5	14,324850
3,417000	0,5	14,315050
3,425333	0,5	14,366850
3,433667	0,5	14,498250
3,442000	0,5	14,751700
3,450333	0,5	15,138150
3,458667	0,5	15,590350
3,467000	0,5	16,029250
3,475333	0,5	16,356100
3,483667	0,5	16,391250
3,492000	0,5	16,137050
3,500333	0,5	15,637700
3,508667	0,5	15,013900
3,517000	0,5	14,386050
3,525333	0,5	13,801500
3,533667	0,5	13,334000
3,542000	0,5	12,983400
3,550333	0,5	12,752150
3,558667	0,5	12,581600
3,567000	0,5	12,479700
3,575333	0,5	12,392200
3,583667	0,5	12,347950
3,592000	0,5	12,310250
3,600333	0,5	12,285950
3,608667	0,5	12,265850
3,617000	0,5	12,250850
3,625333	0,5	12,253700
3,633667	0,5	12,209650
3,642000	0,5	12,175400
3,650333	0,5	12,132950
3,658667	0,5	12,097050
3,667000	0,5	12,068300
3,675333	0,5	12,039850
3,683667	0,5	12,015800
3,692000	0,5	12,071900
3,700333	0,5	12,200150
3,708667	0,5	12,404600
3,717000	0,5	12,609600
3,725333	0,5	12,811150
3,733667	0,5	12,983350
3,742000	0,5	13,155600
3,750333	0,5	13,323250
3,758667	0,5	13,505000
3,767000	0,5	13,677600
3,775333	0,5	13,858750
3,783667	0,5	13,986200
3,792000	0,5	14,126500
3,800333	0,5	14,257550
3,808667	0,5	14,420350
3,817000	0,5	14,601350
3,825333	0,5	14,800200
3,833667	0,5	15,077300
3,842000	0,5	15,520500
3,850333	0,5	16,389450
3,858667	0,5	18,137100
3,867000	0,5	21,353450
3,875333	0,5	26,273350
3,883667	0,5	32,491450
3,892000	0,5	38,949301
3,900333	0,5	44,417351
3,908667	0,5	47,851751
3,917000	0,5	48,826751
3,925333	0,5	47,391351
3,933667	0,5	44,209801
3,942000	0,5	40,103801
3,950333	0,5	35,812701
3,958667	0,5	31,858000
3,967000	0,5	28,480750
3,975333	0,5	25,737150
3,983667	0,5	23,589950
3,992000	0,5	21,923500
4,000333	0,5	20,613000
4,008667	0,5	19,551050
4,017000	0,5	18,664450
4,025333	0,5	17,908800
4,033667	0,5	17,245000
4,042000	0,5	16,675200
4,050333	0,5	16,156700
4,058667	0,5	15,726050
4,067000	0,5	15,387650
4,075333	0,5	15,050000
4,083667	0,5	14,760600
4,092000	0,5	14,525700
4,100333	0,5	14,306600
4,108667	0,5	14,138600
4,117000	0,5	13,945100
4,125333	0,5	13,765050
4,133667	0,5	13,574850
4,142000	0,5	13,406000
4,150333	0,5	13,228300
4,158667	0,5	13,072750
4,167000	0,5	12,911350
4,175333	0,5	12,762550
4,183667	0,5	12,627650
4,192000	0,5	12,505050
4,200333	0,5	12,389450
4,208667	0,5	12,292800
4,217000	0,5	12,223650
4,225333	0,5	12,117050
4,233667	0,5	12,039150
4,242000	0,5	11,978000
4,250333	0,5	11,938950
4,258667	0,5	11,924100
4,267000	0,5	11,894550
4,275333	0,5	11,887050
4,283667	0,5	11,918000
4,292000	0,5	11,963600
4,300333	0,5	12,043500
4,308667	0,5	12,133700
4,317000	0,5	12,230900
4,325333	0,5	12,312200
4,333667	0,5	12,363900
4,342000	0,5	12,373900
4,350333	0,5	12,308550
4,358667	0,5	12,193000
4,367000	0,5	12,027000
4,375333	0,5	11,808900
4,383667	0,5	11,585950
4,392000	0,5	11,381300
4,400333	0,5	11,196500
4,408667	0,5	11,041650
4,417000	0,5	10,876700
4,425333	0,5	10,753900
4,433667	0,5	10,649900
4,442000	0,5	10,571250
4,450333	0,5	10,496550
4,458667	0,5	10,439800
4,467000	0,5	10,380950
4,475333	0,5	10,336100
4,483667	0,5	10,288750
4,492000	0,5	10,250200
4,500333	0,5	10,201800
4,508667	0,5	10,186100
4,517000	0,5	10,137050
4,525333	0,5	10,095500
4,533667	0,5	10,060500
4,542000	0,5	10,040400
4,550333	0,5	10,035450
4,558667	0,5	10,020750
4,567000	0,5	9,997150
4,575333	0,5	9,972950
4,583667	0,5	9,959700
4,592000	0,5	9,953800
4,600333	0,5	9,957350
4,608667	0,5	9,966050
4,617000	0,5	10,002600
4,625333	0,5	10,049000
4,633667	0,5	10,122050
4,642000	0,5	10,190700
4,650333	0,5	10,283350
4,658667	0,5	10,395850
4,667000	0,5	10,479550
4,675333	0,5	10,569650
4,683667	0,5	10,659550
4,692000	0,5	10,735100
4,700333	0,5	10,793150
4,708667	0,5	10,803100
4,717000	0,5	10,781650
4,725333	0,5	10,780600
4,733667	0,5	10,654800
4,742000	0,5	10,564400
4,750333	0,5	10,471350
4,758667	0,5	10,364950
4,767000	0,5	10,259150
4,775333	0,5	10,165200
4,783667	0,5	10,071950
4,792000	0,5	9,990700
4,800333	0,5	9,923700
4,808667	0,5	9,867850
4,817000	0,5	9,797150
4,825333	0,5	9,747900
4,833667	0,5	9,705900
4,842000	0,5	9,686050
4,850333	0,5	9,659000
4,858667	0,5	9,622750
4,867000	0,5	9,577100
4,875333	0,5	9,539300
4,883667	0,5	9,490150
4,892000	0,5	9,449100
4,900333	0,5	9,396950
4,908667	0,5	9,350600
4,917000	0,5	9,311400
4,925333	0,5	9,268800
4,933667	0,5	9,235050
4,942000	0,5	9,186450
4,950333	0,5	9,175000
4,958667	0,5	9,130550
4,967000	0,5	9,090150
4,975333	0,5	9,053850
4,983667	0,5	9,031700
4,992000	0,5	9,028650
5,000333	0,5	9,018400
5,008667	0,5	8,984750
5,017000	0,5	8,974450
5,025333	0,5	8,953600
5,033667	0,5	8,946700
5,042000	0,5	8,929000
5,050333	0,5	8,920100
5,058667	0,5	8,906200
5,067000	0,5	8,897300
5,075333	0,5	8,889550
5,083667	0,5	8,867750
5,092000	0,5	8,848050
5,100333	0,5	8,861700
5,108667	0,5	8,822200
5,117000	0,5	8,800600
5,125333	0,5	8,785650
5,133667	0,5	8,779050
5,142000	0,5	8,798250
5,150333	0,5	8,778600
5,158667	0,5	8,782500
5,167000	0,5	8,777300
5,175333	0,5	8,795050
5,183667	0,5	8,796500
5,192000	0,5	8,817850
5,200333	0,5	8,821850
5,208667	0,5	8,837100
5,217000	0,5	8,842700
5,225333	0,5	8,852550
5,233667	0,5	8,852300
5,242000	0,5	8,852450
5,250333	0,5	8,863850
5,258667	0,5	8,841300
5,267000	0,5	8,830550
5,275333	0,5	8,826400
5,283667	0,5	8,829950
5,292000	0,5	8,845700
5,300333	0,5	8,822500
5,308667	0,5	8,802700
5,317000	0,5	8,781150
5,325333	0,5	8,749800
5,333667	0,5	8,710950
5,342000	0,5	8,661750
5,350333	0,5	8,614450
5,358667	0,5	8,564200
5,367000	0,5	8,520400
5,375333	0,5	8,469250
5,383667	0,5	8,414250
5,392000	0,5	8,356750
5,400333	0,5	8,324150
5,408667	0,5	8,252300
5,417000	0,5	8,203000
5,425333	0,5	8,157950
5,433667	0,5	8,133800
5,442000	0,5	8,120500
5,450333	0,5	8,084500
5,458667	0,5	8,059400
5,467000	0,5	8,039750
5,475333	0,5	8,022800
5,483667	0,5	8,013800
5,492000	0,5	8,006100
5,500333	0,5	7,996050
5,508667	0,5	7,990800
5,517000	0,5	7,984100
5,525333	0,5	7,968750
5,533667	0,5	7,955500
5,542000	0,5	7,957950
5,550333	0,5	7,944750
5,558667	0,5	7,927800
5,567000	0,5	7,914900
5,575333	0,5	7,915100
5,583667	0,5	7,917100
5,592000	0,5	7,930250
5,600333	0,5	7,916750
5,608667	0,5	7,918900
5,617000	0,5	7,914300
5,625333	0,5	7,915050
5,633667	0,5	7,911350
5,642000	0,5	7,911500
5,650333	0,5	7,910700
5,658667	0,5	7,906950
5,667000	0,5	7,904100
5,675333	0,5	7,880400
5,683667	0,5	7,872600
5,692000	0,5	7,873000
5,700333	0,5	7,846550
5,708667	0,5	7,821050
5,717000	0,5	7,805800
5,725333	0,5	7,800200
5,733667	0,5	7,806300
5,742000	0,5	7,790000
5,750333	0,5	7,775500
5,758667	0,5	7,749300
5,767000	0,5	7,739050
5,775333	0,5	7,715850
5,783667	0,5	7,710150
5,792000	0,5	7,691150
5,800333	0,5	7,682850
5,808667	0,5	7,666400
5,817000	0,5	7,651800
5,825333	0,5	7,632700
5,833667	0,5	7,628600
5,842000	0,5	7,622050
5,850333	0,5	7,606000
5,858667	0,5	7,598850
5,867000	0,5	7,598750
5,875333	0,5	7,614250
5,883667	0,5	7,631000
5,892000	0,5	7,644400
5,900333	0,5	7,644300
5,908667	0,5	7,656250
5,917000	0,5	7,652350
5,925333	0,5	7,661800
5,933667	0,5	7,657700
5,942000	0,5	7,655600
5,950333	0,5	7,644500
5,958667	0,5	7,637850
5,967000	0,5	7,623200
5,975333	0,5	7,606350
5,983667	0,5	7,613200
5,992000	0,5	7,605950
6,000333	0,5	7,591000
6,008667	0,5	7,594050
6,017000	0,5	7,611450
6,025333	0,5	7,657600
6,033667	0,5	7,699650
6,042000	0,5	7,745650
6,050333	0,5	7,818900
6,058667	0,5	7,900600
6,067000	0,5	7,997450
6,075333	0,5	8,095950
6,083667	0,5	8,196800
6,092000	0,5	8,282100
6,100333	0,5	8,349200
6,108667	0,5	8,386250
6,117000	0,5	8,380750
6,125333	0,5	8,342800
6,133667	0,5	8,302050
6,142000	0,5	8,198900
6,150333	0,5	8,091150
6,158667	0,5	7,976750
6,167000	0,5	7,876000
6,175333	0,5	7,791950
6,183667	0,5	7,697450
6,192000	0,5	7,613100
6,200333	0,5	7,545700
6,208667	0,5	7,493900
6,217000	0,5	7,451950
6,225333	0,5	7,424550
6,233667	0,5	7,398000
6,242000	0,5	7,382450
6,250333	0,5	7,369150
6,258667	0,5	7,362700
6,267000	0,5	7,344450
6,275333	0,5	7,336450
6,283667	0,5	7,351100
6,292000	0,5	7,336950
6,300333	0,5	7,331900
6,308667	0,5	7,334750
6,317000	0,5	7,343000
6,325333	0,5	7,373350
6,333667	0,5	7,373650
6,342000	0,5	7,390450
6,350333	0,5	7,404200
6,358667	0,5	7,435450
6,367000	0,5	7,463100
6,375333	0,5	7,496900
6,383667	0,5	7,530950
6,392000	0,5	7,566800
6,400333	0,5	7,605400
6,408667	0,5	7,634200
6,417000	0,5	7,651650
6,425333	0,5	7,671950
6,433667	0,5	7,694650
6,442000	0,5	7,692500
6,450333	0,5	7,703850
6,458667	0,5	7,725450
6,467000	0,5	7,749950
6,475333	0,5	7,773200
6,483667	0,5	7,771300
6,492000	0,5	7,751350
6,500333	0,5	7,723800
6,508667	0,5	7,677100
6,517000	0,5	7,626600
6,525333	0,5	7,564700
6,533667	0,5	7,509750
6,542000	0,5	7,455200
6,550333	0,5	7,416600
6,558667	0,5	7,383550
6,567000	0,5	7,366450
6,575333	0,5	7,373900
6,583667	0,5	7,393100
6,592000	0,5	7,404250
6,600333	0,5	7,440550
6,608667	0,5	7,493650
6,617000	0,5	7,564300
6,625333	0,5	7,642800
6,633667	0,5	7,705450
6,642000	0,5	7,794350
6,650333	0,5	7,893600
6,658667	0,5	8,021000
6,667000	0,5	8,176950
6,675333	0,5	8,400050
6,683667	0,5	8,699600
6,692000	0,5	9,134750
6,700333	0,5	9,724950
6,708667	0,5	10,502950
6,717000	0,5	11,499100
6,725333	0,5	12,704800
6,733667	0,5	14,016300
6,742000	0,5	15,364450
6,750333	0,5	16,617450
6,758667	0,5	17,640950
6,767000	0,5	18,315500
6,775333	0,5	18,557700
6,783667	0,5	18,353550
6,792000	0,5	17,751700
6,800333	0,5	16,843550
6,808667	0,5	15,727250
6,817000	0,5	14,529900
6,825333	0,5	13,332350
6,833667	0,5	12,220050
6,842000	0,5	11,234000
6,850333	0,5	10,400650
6,858667	0,5	9,707600
6,867000	0,5	9,171250
6,875333	0,5	8,758250
6,883667	0,5	8,433500
6,892000	0,5	8,187900
6,900333	0,5	8,008400
6,908667	0,5	7,871650
6,917000	0,5	7,764400
6,925333	0,5	7,659750
6,933667	0,5	7,569450
6,942000	0,5	7,485250
6,950333	0,5	7,413350
6,958667	0,5	7,352950
6,967000	0,5	7,301850
6,975333	0,5	7,262900
6,983667	0,5	7,231050
6,992000	0,5	7,209600
7,000333	0,5	7,191350
7,008667	0,5	7,171300
7,017000	0,5	7,159950
7,025333	0,5	7,145750
7,033667	0,5	7,122750
7,042000	0,5	7,101950
7,050333	0,5	7,088150
7,058667	0,5	7,086250
7,067000	0,5	7,081700
7,075333	0,5	7,071600
7,083667	0,5	7,060700
7,092000	0,5	7,056050
7,100333	0,5	7,046250
7,108667	0,5	7,036100
7,117000	0,5	7,019900
7,125333	0,5	7,003450
7,133667	0,5	6,988750
7,142000	0,5	6,970150
7,150333	0,5	6,947150
7,158667	0,5	6,918850
7,167000	0,5	6,905350
7,175333	0,5	6,883450
7,183667	0,5	6,861800
7,192000	0,5	6,845750
7,200333	0,5	6,831200
7,208667	0,5	6,825700
7,217000	0,5	6,812400
7,225333	0,5	6,785800
7,233667	0,5	6,764200
7,242000	0,5	6,742700
7,250333	0,5	6,725700
7,258667	0,5	6,702850
7,267000	0,5	6,690050
7,275333	0,5	6,669250
7,283667	0,5	6,650900
7,292000	0,5	6,635550
7,300333	0,5	6,613300
7,308667	0,5	6,594000
7,317000	0,5	6,587650
7,325333	0,5	6,558500
7,333667	0,5	6,537200
7,342000	0,5	6,517000
7,350333	0,5	6,503400
7,358667	0,5	6,499350
7,367000	0,5	6,484950
7,375333	0,5	6,479950
7,383667	0,5	6,471050
7,392000	0,5	6,470600
7,400333	0,5	6,464450
7,408667	0,5	6,458900
7,417000	0,5	6,446050
7,425333	0,5	6,437100
7,433667	0,5	6,424600
7,442000	0,5	6,412950
7,450333	0,5	6,406500
7,458667	0,5	6,431450
7,467000	0,5	6,497200
7,475333	0,5	6,596100
7,483667	0,5	6,723200
7,492000	0,5	6,829200
7,500333	0,5	6,871050
7,508667	0,5	6,838200
7,517000	0,5	6,756600
7,525333	0,5	6,668500
7,533667	0,5	6,596650
7,542000	0,5	6,536600
7,550333	0,5	6,485550
7,558667	0,5	6,435350
7,567000	0,5	6,391700
7,575333	0,5	6,347450
7,583667	0,5	6,317800
7,592000	0,5	6,283450
7,600333	0,5	6,261850
7,608667	0,5	6,248800
7,617000	0,5	6,249400
7,625333	0,5	6,241850
7,633667	0,5	6,249050
7,642000	0,5	6,252800
7,650333	0,5	6,267950
7,658667	0,5	6,277000
7,667000	0,5	6,284250
7,675333	0,5	6,301550
7,683667	0,5	6,340350
7,692000	0,5	6,401500
7,700333	0,5	6,490750
7,708667	0,5	6,614050
7,717000	0,5	6,781900
7,725333	0,5	7,011700
7,733667	0,5	7,336250
7,742000	0,5	7,794350
7,750333	0,5	8,443950
7,758667	0,5	9,370100
7,767000	0,5	10,610350
7,775333	0,5	12,219200
7,783667	0,5	14,198200
7,792000	0,5	16,457800
7,800333	0,5	18,811050
7,808667	0,5	20,977450
7,817000	0,5	22,630100
7,825333	0,5	23,498350
7,833667	0,5	23,408100
7,842000	0,5	22,369800
7,850333	0,5	20,576800
7,858667	0,5	18,343000
7,867000	0,5	16,000550
7,875333	0,5	13,811950
7,883667	0,5	11,960800
7,892000	0,5	10,561200
7,900333	0,5	9,661250
7,908667	0,5	9,175200
7,917000	0,5	8,880150
7,925333	0,5	8,607100
7,933667	0,5	8,282600
7,942000	0,5	7,962000
7,950333	0,5	7,744100
7,958667	0,5	7,676200
7,967000	0,5	7,759700
7,975333	0,5	7,920350
7,983667	0,5	8,070450
7,992000	0,5	8,125250
8,000333	0,5	8,046150
8,008667	0,5	7,848300
8,017000	0,5	7,585000
8,025333	0,5	7,305000
8,033667	0,5	7,047100
8,042000	0,5	6,827600
8,050333	0,5	6,659150
8,058667	0,5	6,536550
8,067000	0,5	6,442950
8,075333	0,5	6,375300
8,083667	0,5	6,324100
8,092000	0,5	6,291000
8,100333	0,5	6,273800
8,108667	0,5	6,287950
8,117000	0,5	6,341650
8,125333	0,5	6,435050
8,133667	0,5	6,511500
8,142000	0,5	6,536850
8,150333	0,5	6,496250
8,158667	0,5	6,437050
8,167000	0,5	6,397400
8,175333	0,5	6,392950
8,183667	0,5	6,420950
8,192000	0,5	6,451700
8,200333	0,5	6,487750
8,208667	0,5	6,505950
8,217000	0,5	6,505900
8,225333	0,5	6,496700
8,233667	0,5	6,473200
8,242000	0,5	6,436900
8,250333	0,5	6,389400
8,258667	0,5	6,334400
8,267000	0,5	6,287850
8,275333	0,5	6,252300
8,283667	0,5	6,233950
8,292000	0,5	6,227000
8,300333	0,5	6,224900
8,308667	0,5	6,226050
8,317000	0,5	6,235350
8,325333	0,5	6,249550
8,333667	0,5	6,271800
8,342000	0,5	6,310500
8,350333	0,5	6,371650
8,358667	0,5	6,411300
8,367000	0,5	6,404150
8,375333	0,5	6,327150
8,383667	0,5	6,201150
8,392000	0,5	6,072200
8,400333	0,5	5,953100
8,408667	0,5	5,859500
8,417000	0,5	5,789900
8,425333	0,5	5,738150
8,433667	0,5	5,705000
8,442000	0,5	5,683150
8,450333	0,5	5,668750
8,458667	0,5	5,661000
8,467000	0,5	5,649850
8,475333	0,5	5,648050
8,483667	0,5	5,643550
8,492000	0,5	5,644850
8,500333	0,5	5,646450
8,508667	0,5	5,633700
8,517000	0,5	5,610350
8,525333	0,5	5,585500
8,533667	0,5	5,561550
8,542000	0,5	5,557900
8,550333	0,5	5,579150
8,558667	0,5	5,639850
8,567000	0,5	5,746000
8,575333	0,5	5,889750
8,583667	0,5	6,025150
8,592000	0,5	6,090250
8,600333	0,5	6,066150
8,608667	0,5	5,976050
8,617000	0,5	5,867300
8,625333	0,5	5,775100
8,633667	0,5	5,705050
8,642000	0,5	5,672900
8,650333	0,5	5,655000
8,658667	0,5	5,648950
8,667000	0,5	5,654950
8,675333	0,5	5,691750
8,683667	0,5	5,772300
8,692000	0,5	5,872750
8,700333	0,5	5,953500
8,708667	0,5	5,978050
8,717000	0,5	5,942950
8,725333	0,5	5,860350
8,733667	0,5	5,781300
8,742000	0,5	5,735450
8,750333	0,5	5,744450
8,758667	0,5	5,812900
8,767000	0,5	5,917650
8,775333	0,5	6,012900
8,783667	0,5	6,059650
8,792000	0,5	6,046850
8,800333	0,5	5,998050
8,808667	0,5	5,932300
8,817000	0,5	5,877850
8,825333	0,5	5,844400
8,833667	0,5	5,837400
8,842000	0,5	5,846550
8,850333	0,5	5,866600
8,858667	0,5	5,907500
8,867000	0,5	5,969450
8,875333	0,5	6,053250
8,883667	0,5	6,159950
8,892000	0,5	6,293950
8,900333	0,5	6,506400
8,908667	0,5	6,749400
8,917000	0,5	6,959950
8,925333	0,5	7,125450
8,933667	0,5	7,219350
8,942000	0,5	7,228800
8,950333	0,5	7,205800
8,958667	0,5	7,230650
8,967000	0,5	7,386250
8,975333	0,5	7,794200
8,983667	0,5	8,623200
8,992000	0,5	10,292750
9,000333	0,5	13,207350
9,008667	0,5	16,064000
9,017000	0,5	17,144750
9,025333	0,5	16,007100
9,033667	0,5	14,327250
9,042000	0,5	13,246050
9,050333	0,5	12,988600
9,058667	0,5	13,560750
9,067000	0,5	14,931700
9,075333	0,5	17,051650
9,083667	0,5	19,820050
9,092000	0,5	23,059050
9,100333	0,5	26,491800
9,108667	0,5	29,824300
9,117000	0,5	32,755450
9,125333	0,5	34,979401
9,133667	0,5	36,264651
9,142000	0,5	36,453851
9,150333	0,5	35,534251
9,158667	0,5	33,638401
9,167000	0,5	30,994550
9,175333	0,5	27,923250
9,183667	0,5	24,742700
9,192000	0,5	21,735850
9,200333	0,5	19,105050
9,208667	0,5	16,962350
9,217000	0,5	15,325250
9,225333	0,5	14,140650
9,233667	0,5	13,317700
9,242000	0,5	12,738350
9,250333	0,5	12,301200
9,258667	0,5	11,938050
9,267000	0,5	11,605200
9,275333	0,5	11,285600
9,283667	0,5	10,971400
9,292000	0,5	10,660700
9,300333	0,5	10,355800
9,308667	0,5	10,054100
9,317000	0,5	9,750050
9,325333	0,5	9,441350
9,333667	0,5	9,130500
9,342000	0,5	8,818000
9,350333	0,5	8,504450
9,358667	0,5	8,190350
9,367000	0,5	7,883400
9,375333	0,5	7,588650
9,383667	0,5	7,314150
9,392000	0,5	7,071800
9,400333	0,5	6,862150
9,408667	0,5	6,711150
9,417000	0,5	6,602900
9,425333	0,5	6,535350
9,433667	0,5	6,486050
9,442000	0,5	6,430500
9,450333	0,5	6,357850
9,458667	0,5	6,261100
9,467000	0,5	6,163350
9,475333	0,5	6,063300
9,483667	0,5	5,966550
9,492000	0,5	5,877500
9,500333	0,5	5,796850
9,508667	0,5	5,727500
9,517000	0,5	5,665050
9,525333	0,5	5,608250
9,533667	0,5	5,559300
9,542000	0,5	5,516700
9,550333	0,5	5,476650
9,558667	0,5	5,447900
9,567000	0,5	5,429200
9,575333	0,5	5,423500
9,583667	0,5	5,422900
9,592000	0,5	5,430050
9,600333	0,5	5,443300
9,608667	0,5	5,459650
9,617000	0,5	5,483500
9,625333	0,5	5,507100
9,633667	0,5	5,532450
9,642000	0,5	5,546250
9,650333	0,5	5,551450
9,658667	0,5	5,543450
9,667000	0,5	5,522050
9,675333	0,5	5,502650
9,683667	0,5	5,493150
9,692000	0,5	5,502050
9,700333	0,5	5,531750
9,708667	0,5	5,589000
9,717000	0,5	5,678400
9,725333	0,5	5,796250
9,733667	0,5	5,927600
9,742000	0,5	6,056300
9,750333	0,5	6,167850
9,758667	0,5	6,242050
9,767000	0,5	6,287650
9,775333	0,5	6,300400
9,783667	0,5	6,289650
9,792000	0,5	6,265800
9,800333	0,5	6,235950
9,808667	0,5	6,196300
9,817000	0,5	6,140900
9,825333	0,5	6,067000
9,833667	0,5	5,985300
9,842000	0,5	5,892150
9,850333	0,5	5,799100
9,858667	0,5	5,711500
9,867000	0,5	5,633750
9,875333	0,5	5,562550
9,883667	0,5	5,502950
9,892000	0,5	5,443950
9,900333	0,5	5,391350
9,908667	0,5	5,343950
9,917000	0,5	5,305600
9,925333	0,5	5,276750
9,933667	0,5	5,253300
9,942000	0,5	5,237200
9,950333	0,5	5,227500
9,958667	0,5	5,233450
9,967000	0,5	5,237400
9,975333	0,5	5,243450
9,983667	0,5	5,249650
9,992000	0,5	5,248350
10,000333	0,5	5,251750
10,008667	0,5	5,262650
10,017000	0,5	5,292850
10,025333	0,5	5,342800
10,033667	0,5	5,403400
10,042000	0,5	5,463000
10,050333	0,5	5,512950
10,058667	0,5	5,541700
10,067000	0,5	5,539200
10,075333	0,5	5,511800
10,083667	0,5	5,468750
10,092000	0,5	5,422100
10,100333	0,5	5,372050
10,108667	0,5	5,322200
10,117000	0,5	5,269350
10,125333	0,5	5,220600
10,133667	0,5	5,170400
10,142000	0,5	5,116350
10,150333	0,5	5,063050
10,158667	0,5	5,018550
10,167000	0,5	4,985500
10,175333	0,5	4,965650
10,183667	0,5	4,955700
10,192000	0,5	4,960050
10,200333	0,5	4,972850
10,208667	0,5	5,006800
10,217000	0,5	5,048000
10,225333	0,5	5,102200
10,233667	0,5	5,167650
10,242000	0,5	5,240000
10,250333	0,5	5,319800
10,258667	0,5	5,396400
10,267000	0,5	5,467600
10,275333	0,5	5,532500
10,283667	0,5	5,583850
10,292000	0,5	5,613200
10,300333	0,5	5,629550
10,308667	0,5	5,624700
10,317000	0,5	5,600650
10,325333	0,5	5,549700
10,333667	0,5	5,472200
10,342000	0,5	5,375400
10,350333	0,5	5,272050
10,358667	0,5	5,170200
10,367000	0,5	5,078200
10,375333	0,5	5,001400
10,383667	0,5	4,929800
10,392000	0,5	4,871350
10,400333	0,5	4,821600
10,408667	0,5	4,779950
10,417000	0,5	4,748100
10,425333	0,5	4,729900
10,433667	0,5	4,724650
10,442000	0,5	4,726500
10,450333	0,5	4,739250
10,458667	0,5	4,762950
10,467000	0,5	4,790550
10,475333	0,5	4,821950
10,483667	0,5	4,859650
10,492000	0,5	4,910250
10,500333	0,5	4,976900
10,508667	0,5	5,059850
10,517000	0,5	5,156450
10,525333	0,5	5,249100
10,533667	0,5	5,316650
10,542000	0,5	5,340800
10,550333	0,5	5,308550
10,558667	0,5	5,237950
10,567000	0,5	5,133350
10,575333	0,5	5,030000
10,583667	0,5	4,924550
10,592000	0,5	4,833950
10,600333	0,5	4,759150
10,608667	0,5	4,696500
10,617000	0,5	4,648850
10,625333	0,5	4,605900
10,633667	0,5	4,571500
10,642000	0,5	4,545750
10,650333	0,5	4,530250
10,658667	0,5	4,526400
10,667000	0,5	4,537350
10,675333	0,5	4,550000
10,683667	0,5	4,574250
10,692000	0,5	4,603800
10,700333	0,5	4,645500
10,708667	0,5	4,693150
10,717000	0,5	4,761500
10,725333	0,5	4,818600
10,733667	0,5	4,848250
10,742000	0,5	4,841150
10,750333	0,5	4,789550
10,758667	0,5	4,712500
10,767000	0,5	4,619100
10,775333	0,5	4,524500
10,783667	0,5	4,437100
10,792000	0,5	4,362800
10,800333	0,5	4,302150
10,808667	0,5	4,251900
10,817000	0,5	4,207900
10,825333	0,5	4,176200
10,833667	0,5	4,154900
10,842000	0,5	4,154850
10,850333	0,5	4,171750
10,858667	0,5	4,205150
10,867000	0,5	4,277900
10,875333	0,5	4,375150
10,883667	0,5	4,490750
10,892000	0,5	4,626750
10,900333	0,5	4,757250
10,908667	0,5	4,866950
10,917000	0,5	4,915300
10,925333	0,5	4,902200
10,933667	0,5	4,832950
10,942000	0,5	4,727150
10,950333	0,5	4,613900
10,958667	0,5	4,502700
10,967000	0,5	4,405650
10,975333	0,5	4,330900
10,983667	0,5	4,270750
10,992000	0,5	4,222650
11,000333	0,5	4,188750
11,008667	0,5	4,164750
11,017000	0,5	4,161750
11,025333	0,5	4,169900
11,033667	0,5	4,206350
11,042000	0,5	4,265950
11,050333	0,5	4,343800
11,058667	0,5	4,424600
11,067000	0,5	4,473900
11,075333	0,5	4,463150
11,083667	0,5	4,391550
11,092000	0,5	4,266250
11,100333	0,5	4,112600
11,108667	0,5	3,946100
11,117000	0,5	3,787100
11,125333	0,5	3,636800
11,133667	0,5	3,509650
11,142000	0,5	3,410900
11,150333	0,5	3,336600
11,158667	0,5	3,302450
11,167000	0,5	3,310800
11,175333	0,5	3,359850
11,183667	0,5	3,444350
11,192000	0,5	3,556350
11,200333	0,5	3,678350
11,208667	0,5	3,796150
11,217000	0,5	3,877200
11,225333	0,5	3,928350
11,233667	0,5	3,936250
11,242000	0,5	3,915950
11,250333	0,5	3,876250
11,258667	0,5	3,837100
11,267000	0,5	3,797200
11,275333	0,5	3,760700
11,283667	0,5	3,733150
11,292000	0,5	3,715400
11,300333	0,5	3,702800
11,308667	0,5	3,710800
11,317000	0,5	3,726300
11,325333	0,5	3,740800
11,333667	0,5	3,753800
11,342000	0,5	3,755200
11,350333	0,5	3,744750
11,358667	0,5	3,716300
11,367000	0,5	3,674900
11,375333	0,5	3,626850
11,383667	0,5	3,581900
11,392000	0,5	3,536350
11,400333	0,5	3,503250
11,408667	0,5	3,470750
11,417000	0,5	3,447750
11,425333	0,5	3,430150
11,433667	0,5	3,424450
11,442000	0,5	3,418200
11,450333	0,5	3,424200
11,458667	0,5	3,437950
11,467000	0,5	3,443500
11,475333	0,5	3,444800
11,483667	0,5	3,440150
11,492000	0,5	3,440950
11,500333	0,5	3,441250
11,508667	0,5	3,451100
11,517000	0,5	3,464100
11,525333	0,5	3,486750
11,533667	0,5	3,519500
11,542000	0,5	3,556600
11,550333	0,5	3,601800
11,558667	0,5	3,648900
11,567000	0,5	3,691750
11,575333	0,5	3,735400
11,583667	0,5	3,765150
11,592000	0,5	3,792350
11,600333	0,5	3,809400
11,608667	0,5	3,824100
11,617000	0,5	3,824550
11,625333	0,5	3,821600
11,633667	0,5	3,810200
11,642000	0,5	3,807350
11,650333	0,5	3,803550
11,658667	0,5	3,808550
11,667000	0,5	3,817150
11,675333	0,5	3,829900
11,683667	0,5	3,856100
11,692000	0,5	3,882000
11,700333	0,5	3,917700
11,708667	0,5	3,955600
11,717000	0,5	4,003050
11,725333	0,5	4,068800
11,733667	0,5	4,170700
11,742000	0,5	4,309750
11,750333	0,5	4,529350
11,758667	0,5	4,810000
11,767000	0,5	5,143850
11,775333	0,5	5,496200
11,783667	0,5	5,817950
11,792000	0,5	6,070350
11,800333	0,5	6,211900
11,808667	0,5	6,222700
11,817000	0,5	6,125000
11,825333	0,5	5,939050
11,833667	0,5	5,698300
11,842000	0,5	5,436600
11,850333	0,5	5,178150
11,858667	0,5	4,945350
11,867000	0,5	4,753400
11,875333	0,5	4,610000
11,883667	0,5	4,509850
11,892000	0,5	4,453400
11,900333	0,5	4,457200
11,908667	0,5	4,493900
11,917000	0,5	4,567050
11,925333	0,5	4,675900
11,933667	0,5	4,789550
11,942000	0,5	4,924300
11,950333	0,5	5,034600
11,958667	0,5	5,121150
11,967000	0,5	5,170050
11,975333	0,5	5,192150
11,983667	0,5	5,194950
11,992000	0,5	5,189350
12,000333	0,5	5,180050
12,008667	0,5	5,182950
12,017000	0,5	5,192250
12,025333	0,5	5,220200
12,033667	0,5	5,251550
12,042000	0,5	5,287500
12,050333	0,5	5,334050
12,058667	0,5	5,381200
12,067000	0,5	5,431500
12,075333	0,5	5,487050
12,083667	0,5	5,556950
12,092000	0,5	5,635350
12,100333	0,5	5,713850
12,108667	0,5	5,758300
12,117000	0,5	5,772500
12,125333	0,5	5,750150
12,133667	0,5	5,695750
12,142000	0,5	5,612350
12,150333	0,5	5,524200
12,158667	0,5	5,444100
12,167000	0,5	5,383900
12,175333	0,5	5,341200
12,183667	0,5	5,312900
12,192000	0,5	5,294950
12,200333	0,5	5,285350
12,208667	0,5	5,260600
12,217000	0,5	5,221550
12,225333	0,5	5,173000
12,233667	0,5	5,113400
12,242000	0,5	5,050150
12,250333	0,5	4,983400
12,258667	0,5	4,909550
12,267000	0,5	4,832600
12,275333	0,5	4,763700
12,283667	0,5	4,683650
12,292000	0,5	4,615700
12,300333	0,5	4,539950
12,308667	0,5	4,484800
12,317000	0,5	4,431150
12,325333	0,5	4,385500
12,333667	0,5	4,338850
12,342000	0,5	4,312850
12,350333	0,5	4,281500
12,358667	0,5	4,254950
12,367000	0,5	4,224400
12,375333	0,5	4,196750
12,383667	0,5	4,177700
12,392000	0,5	4,169750
12,400333	0,5	4,166450
12,408667	0,5	4,172150
12,417000	0,5	4,178900
12,425333	0,5	4,186150
12,433667	0,5	4,203900
12,442000	0,5	4,224750
12,450333	0,5	4,260650
12,458667	0,5	4,313500
12,467000	0,5	4,386050
12,475333	0,5	4,462500
12,483667	0,5	4,547800
12,492000	0,5	4,642650
12,500333	0,5	4,719150
12,508667	0,5	4,775850
12,517000	0,5	4,809550
12,525333	0,5	4,830600
12,533667	0,5	4,851550
12,542000	0,5	4,870550
12,550333	0,5	4,888550
12,558667	0,5	4,914800
12,567000	0,5	4,950100
12,575333	0,5	5,000450
12,583667	0,5	5,055000
12,592000	0,5	5,104850
12,600333	0,5	5,146800
12,608667	0,5	5,185750
12,617000	0,5	5,206900
12,625333	0,5	5,206200
12,633667	0,5	5,191700
12,642000	0,5	5,172150
12,650333	0,5	5,137750
12,658667	0,5	5,100150
12,667000	0,5	5,041900
12,675333	0,5	4,978150
12,683667	0,5	4,902050
12,692000	0,5	4,825850
12,700333	0,5	4,753400
12,708667	0,5	4,719950
12,717000	0,5	4,728050
12,725333	0,5	4,789750
12,733667	0,5	4,879750
12,742000	0,5	4,980900
12,750333	0,5	5,081000
12,758667	0,5	5,120350
12,767000	0,5	5,089100
12,775333	0,5	5,021350
12,783667	0,5	5,077900
12,792000	0,5	5,427000
12,800333	0,5	5,826600
12,808667	0,5	6,118600
12,817000	0,5	6,417150
12,825333	0,5	6,563000
12,833667	0,5	6,195150
12,842000	0,5	5,758350
12,850333	0,5	5,334300
12,858667	0,5	4,609850
12,867000	0,5	3,888450
12,875333	0,5	3,374300
12,883667	0,5	3,015050
12,892000	0,5	2,751100
12,900333	0,5	2,549050
12,908667	0,5	2,401400
12,917000	0,5	2,279550
12,925333	0,5	2,176800
12,933667	0,5	2,108050
12,942000	0,5	2,047650
12,950333	0,5	2,004600
12,958667	0,5	1,966250
12,967000	0,5	1,941850
12,975333	0,5	1,947500
12,983667	0,5	1,962950
12,992000	0,5	2,016400
13,000333	0,5	2,104150
13,008667	0,5	2,260950
13,017000	0,5	2,497200
13,025333	0,5	2,839250
13,033667	0,5	3,293200
13,042000	0,5	3,866600
13,050333	0,5	4,539450
13,058667	0,5	5,280600
13,067000	0,5	6,025800
13,075333	0,5	6,721600
13,083667	0,5	7,308100
13,092000	0,5	7,711050
13,100333	0,5	7,894750
13,108667	0,5	7,840800
13,117000	0,5	7,562900
13,125333	0,5	7,101200
13,133667	0,5	6,504750
13,142000	0,5	5,836450
13,150333	0,5	5,166500
13,158667	0,5	4,547250
13,167000	0,5	4,010650
13,175333	0,5	3,575450
13,183667	0,5	3,233800
13,192000	0,5	2,977100
13,200333	0,5	2,790850
13,208667	0,5	2,661450
13,217000	0,5	2,558450
13,225333	0,5	2,485900
13,233667	0,5	2,433700
13,242000	0,5	2,378500
13,250333	0,5	2,329700
13,258667	0,5	2,286300
13,267000	0,5	2,246350
13,275333	0,5	2,220950
13,283667	0,5	2,195450
13,292000	0,5	2,177650
13,300333	0,5	2,162550
13,308667	0,5	2,152650
13,317000	0,5	2,148850
13,325333	0,5	2,155250
13,333667	0,5	2,167200
13,342000	0,5	2,193700
13,350333	0,5	2,235550
13,358667	0,5	2,288900
13,367000	0,5	2,348350
13,375333	0,5	2,429150
13,383667	0,5	2,510850
13,392000	0,5	2,593000
13,400333	0,5	2,666900
13,408667	0,5	2,740000
13,417000	0,5	2,806550
13,425333	0,5	2,866000
13,433667	0,5	2,902700
13,442000	0,5	2,923050
13,450333	0,5	2,923500
13,458667	0,5	2,904550
13,467000	0,5	2,871750
13,475333	0,5	2,828200
13,483667	0,5	2,776750
13,492000	0,5	2,718100
13,500333	0,5	2,661250
13,508667	0,5	2,594900
13,517000	0,5	2,535700
13,525333	0,5	2,480750
13,533667	0,5	2,426050
13,542000	0,5	2,373150
13,550333	0,5	2,317700
13,558667	0,5	2,270150
13,567000	0,5	2,235600
13,575333	0,5	2,200450
13,583667	0,5	2,172100
13,592000	0,5	2,141600
13,600333	0,5	2,119150
13,608667	0,5	2,090450
13,617000	0,5	2,068600
13,625333	0,5	2,046250
13,633667	0,5	2,025950
13,642000	0,5	2,008500
13,650333	0,5	1,988200
13,658667	0,5	1,961050
13,667000	0,5	1,954450
13,675333	0,5	1,940900
13,683667	0,5	1,924700
13,692000	0,5	1,910100
13,700333	0,5	1,885400
13,708667	0,5	1,873900
13,717000	0,5	1,859650
13,725333	0,5	1,850300
13,733667	0,5	1,836150
13,742000	0,5	1,831000
13,750333	0,5	1,818250
13,758667	0,5	1,813400
13,767000	0,5	1,804250
13,775333	0,5	1,798550
13,783667	0,5	1,791300
13,792000	0,5	1,786300
13,800333	0,5	1,786200
13,808667	0,5	1,772500
13,817000	0,5	1,779550
13,825333	0,5	1,783000
13,833667	0,5	1,777250
13,842000	0,5	1,767050
13,850333	0,5	1,756500
13,858667	0,5	1,757500
13,867000	0,5	1,759000
13,875333	0,5	1,749200
13,883667	0,5	1,752250
13,892000	0,5	1,745400
13,900333	0,5	1,752500
13,908667	0,5	1,753450
13,917000	0,5	1,760100
13,925333	0,5	1,765350
13,933667	0,5	1,770350
13,942000	0,5	1,777500
13,950333	0,5	1,780450
13,958667	0,5	1,764850
13,967000	0,5	1,774600
13,975333	0,5	1,767550
13,983667	0,5	1,760950
13,992000	0,5	1,750550
14,000333	0,5	1,739750
14,008667	0,5	1,745150
14,017000	0,5	1,742450
14,025333	0,5	1,746400
14,033667	0,5	1,741550
14,042000	0,5	1,738300
14,050333	0,5	1,729950
14,058667	0,5	1,726600
14,067000	0,5	1,716450
14,075333	0,5	1,710150
14,083667	0,5	1,705400
14,092000	0,5	1,706250
14,100333	0,5	1,693900
14,108667	0,5	1,689650
14,117000	0,5	1,699000
14,125333	0,5	1,693600
14,133667	0,5	1,683500
14,142000	0,5	1,677100
14,150333	0,5	1,671400
14,158667	0,5	1,674050
14,167000	0,5	1,677450
14,175333	0,5	1,680950
14,183667	0,5	1,685500
14,192000	0,5	1,684250
14,200333	0,5	1,683150
14,208667	0,5	1,683800
14,217000	0,5	1,685500
14,225333	0,5	1,685450
14,233667	0,5	1,690750
14,242000	0,5	1,692200
14,250333	0,5	1,688200
14,258667	0,5	1,692800
14,267000	0,5	1,699600
14,275333	0,5	1,700100
14,283667	0,5	1,698650
14,292000	0,5	1,689550
14,300333	0,5	1,693800
14,308667	0,5	1,699950
14,317000	0,5	1,708150
14,325333	0,5	1,709700
14,333667	0,5	1,718300
14,342000	0,5	1,725550
14,350333	0,5	1,731400
14,358667	0,5	1,741100
14,367000	0,5	1,745450
14,375333	0,5	1,752700
14,383667	0,5	1,759700
14,392000	0,5	1,764700
14,400333	0,5	1,768700
14,408667	0,5	1,787350
14,417000	0,5	1,798200
14,425333	0,5	1,811700
14,433667	0,5	1,817400
14,442000	0,5	1,825300
14,450333	0,5	1,847500
14,458667	0,5	1,875350
14,467000	0,5	1,903200
14,475333	0,5	1,937050
14,483667	0,5	1,969600
14,492000	0,5	2,005650
14,500333	0,5	2,040850
14,508667	0,5	2,066600
14,517000	0,5	2,089850
14,525333	0,5	2,099600
14,533667	0,5	2,114300
14,542000	0,5	2,104000
14,550333	0,5	2,111650
14,558667	0,5	2,123200
14,567000	0,5	2,130300
14,575333	0,5	2,136000
14,583667	0,5	2,147150
14,592000	0,5	2,172700
14,600333	0,5	2,213050
14,608667	0,5	2,242750
14,617000	0,5	2,284000
14,625333	0,5	2,322050
14,633667	0,5	2,371900
14,642000	0,5	2,427000
14,650333	0,5	2,492350
14,658667	0,5	2,559500
14,667000	0,5	2,612800
14,675333	0,5	2,659800
14,683667	0,5	2,690900
14,692000	0,5	2,689950
14,700333	0,5	2,709600
14,708667	0,5	2,732800
14,717000	0,5	2,760900
14,725333	0,5	2,806450
14,733667	0,5	2,860800
14,742000	0,5	2,944650
14,750333	0,5	3,008400
14,758667	0,5	3,057150
14,767000	0,5	3,065850
14,775333	0,5	3,047400
14,783667	0,5	2,995100
14,792000	0,5	2,929150
14,800333	0,5	2,852250
14,808667	0,5	2,787350
14,817000	0,5	2,729450
14,825333	0,5	2,690700
14,833667	0,5	2,669500
14,842000	0,5	2,647350
14,850333	0,5	2,661150
14,858667	0,5	2,667400
14,867000	0,5	2,656550
14,875333	0,5	2,633100
14,883667	0,5	2,589600
14,892000	0,5	2,551950
14,900333	0,5	2,515850
14,908667	0,5	2,476500
14,917000	0,5	2,445900
14,925333	0,5	2,421500
14,933667	0,5	2,410950
14,942000	0,5	2,397350
14,950333	0,5	2,395950
14,958667	0,5	2,383300
14,967000	0,5	2,380300
14,975333	0,5	2,375700
14,983667	0,5	2,369150
14,992000	0,5	2,350000
15,000333	0,5	2,352850
15,008667	0,5	2,340350
15,017000	0,5	2,325600
15,025333	0,5	2,304450
15,033667	0,5	2,287000
15,042000	0,5	2,285500
15,050333	0,5	2,278350
15,058667	0,5	2,266600
15,067000	0,5	2,256350
15,075333	0,5	2,247550
15,083667	0,5	2,239850
15,092000	0,5	2,234400
15,100333	0,5	2,220350
15,108667	0,5	2,212200
15,117000	0,5	2,202900
15,125333	0,5	2,194800
15,133667	0,5	2,175150
15,142000	0,5	2,169400
15,150333	0,5	2,162300
15,158667	0,5	2,151700
15,167000	0,5	2,133400
15,175333	0,5	2,114900
15,183667	0,5	2,104900
15,192000	0,5	2,103300
15,200333	0,5	2,098100
15,208667	0,5	2,094750
15,217000	0,5	2,091150
15,225333	0,5	2,088800
15,233667	0,5	2,086300
15,242000	0,5	2,080200
15,250333	0,5	2,074950
15,258667	0,5	2,071950
15,267000	0,5	2,081850
15,275333	0,5	2,070700
15,283667	0,5	2,061800
15,292000	0,5	2,062300
15,300333	0,5	2,063450
15,308667	0,5	2,053200
15,317000	0,5	2,046400
15,325333	0,5	2,038000
15,333667	0,5	2,039100
15,342000	0,5	2,040600
15,350333	0,5	2,051000
15,358667	0,5	2,049850
15,367000	0,5	2,052400
15,375333	0,5	2,051800
15,383667	0,5	2,045850
15,392000	0,5	2,041150
15,400333	0,5	2,029400
15,408667	0,5	2,032050
15,417000	0,5	2,030150
15,425333	0,5	2,020450
15,433667	0,5	2,011250
15,442000	0,5	2,004300
15,450333	0,5	1,984900
15,458667	0,5	1,966050
15,467000	0,5	1,933150
15,475333	0,5	1,916300
15,483667	0,5	1,904650
15,492000	0,5	1,901800
15,500333	0,5	1,889100
15,508667	0,5	1,889900
15,517000	0,5	1,884100
15,525333	0,5	1,886700
15,533667	0,5	1,886250
15,542000	0,5	1,891200
15,550333	0,5	1,892450
15,558667	0,5	1,894450
15,567000	0,5	1,889550
15,575333	0,5	1,862550
15,583667	0,5	1,851250
15,592000	0,5	1,839450
15,600333	0,5	1,824050
15,608667	0,5	1,804600
15,617000	0,5	1,783450
15,625333	0,5	1,769250
15,633667	0,5	1,775000
15,642000	0,5	1,759400
15,650333	0,5	1,758400
15,658667	0,5	1,746400
15,667000	0,5	1,747750
15,675333	0,5	1,739500
15,683667	0,5	1,738350
15,692000	0,5	1,734500
15,700333	0,5	1,730150
15,708667	0,5	1,737300
15,717000	0,5	1,736250
15,725333	0,5	1,714400
15,733667	0,5	1,723600
15,742000	0,5	1,720150
15,750333	0,5	1,714500
15,758667	0,5	1,712450
15,767000	0,5	1,691700
15,775333	0,5	1,699450
15,783667	0,5	1,688250
15,792000	0,5	1,685850
15,800333	0,5	1,673650
15,808667	0,5	1,667800
15,817000	0,5	1,658500
15,825333	0,5	1,659100
15,833667	0,5	1,656650
15,842000	0,5	1,654150
15,850333	0,5	1,652100
15,858667	0,5	1,657050
15,867000	0,5	1,642850
15,875333	0,5	1,628450
15,883667	0,5	1,631300
15,892000	0,5	1,616250
15,900333	0,5	1,600850
15,908667	0,5	1,582500
15,917000	0,5	1,562100
15,925333	0,5	1,563900
15,933667	0,5	1,564600
15,942000	0,5	1,561850
15,950333	0,5	1,560300
15,958667	0,5	1,554350
15,967000	0,5	1,553200
15,975333	0,5	1,544700
15,983667	0,5	1,542250
15,992000	0,5	1,535250
16,000333	0,5	1,528650
16,008667	0,5	1,521100
16,017000	0,5	1,512750
16,025333	0,5	1,501150
16,033667	0,5	1,509050
16,042000	0,5	1,504900
16,050333	0,5	1,496600
16,058667	0,5	1,482900
16,067000	0,5	1,474300
16,075333	0,5	1,480650
16,083667	0,5	1,477150
16,092000	0,5	1,467950
16,100333	0,5	1,461700
16,108667	0,5	1,454050
16,117000	0,5	1,449200
16,125333	0,5	1,445800
16,133667	0,5	1,434100
16,142000	0,5	1,430900
16,150333	0,5	1,413750
16,158667	0,5	1,409550
16,167000	0,5	1,390350
16,175333	0,5	1,394300
16,183667	0,5	1,384350
16,192000	0,5	1,376400
16,200333	0,5	1,351300
16,208667	0,5	1,335850
16,217000	0,5	1,326550
16,225333	0,5	1,325400
16,233667	0,5	1,323150
16,242000	0,5	1,323150
16,250333	0,5	1,317300
16,258667	0,5	1,317800
16,267000	0,5	1,319850
16,275333	0,5	1,322450
16,283667	0,5	1,322950
16,292000	0,5	1,321500
16,300333	0,5	1,332450
16,308667	0,5	1,324950
16,317000	0,5	1,327000
16,325333	0,5	1,336500
16,333667	0,5	1,338200
16,342000	0,5	1,338100
16,350333	0,5	1,325200
16,358667	0,5	1,319400
16,367000	0,5	1,323200
16,375333	0,5	1,319550
16,383667	0,5	1,317850
16,392000	0,5	1,308650
16,400333	0,5	1,305850
16,408667	0,5	1,291200
16,417000	0,5	1,280900
16,425333	0,5	1,267200
16,433667	0,5	1,249350
16,442000	0,5	1,236400
16,450333	0,5	1,218050
16,458667	0,5	1,185750
16,467000	0,5	1,178800
16,475333	0,5	1,175850
16,483667	0,5	1,160650
16,492000	0,5	1,150700
16,500333	0,5	1,122600
16,508667	0,5	1,114050
16,517000	0,5	1,107950
16,525333	0,5	1,110200
16,533667	0,5	1,097100
16,542000	0,5	1,097700
16,550333	0,5	1,091800
16,558667	0,5	1,092750
16,567000	0,5	1,089550
16,575333	0,5	1,082550
16,583667	0,5	1,079550
16,592000	0,5	1,077400
16,600333	0,5	1,080400
16,608667	0,5	1,065750
16,617000	0,5	1,078700
16,625333	0,5	1,082100
16,633667	0,5	1,073550
16,642000	0,5	1,056900
16,650333	0,5	1,037650
16,658667	0,5	1,031250
16,667000	0,5	1,030950
16,675333	0,5	1,016000
16,683667	0,5	1,011800
16,692000	0,5	1,001450
16,700333	0,5	0,995950
16,708667	0,5	0,990950
16,717000	0,5	0,989500
16,725333	0,5	0,980500
16,733667	0,5	0,971150
16,742000	0,5	0,973000
16,750333	0,5	0,967300
16,758667	0,5	0,954200
16,767000	0,5	0,964400
16,775333	0,5	0,962850
16,783667	0,5	0,956750
16,792000	0,5	0,951900
16,800333	0,5	0,938900
16,808667	0,5	0,949950
16,817000	0,5	0,948000
16,825333	0,5	0,951900
16,833667	0,5	0,950900
16,842000	0,5	0,963050
16,850333	0,5	0,966900
16,858667	0,5	0,990400
16,867000	0,5	1,000750
16,875333	0,5	1,022700
16,883667	0,5	1,047950
16,892000	0,5	1,083700
16,900333	0,5	1,092200
16,908667	0,5	1,109050
16,917000	0,5	1,122050
16,925333	0,5	1,122750
16,933667	0,5	1,110900
16,942000	0,5	1,095250
16,950333	0,5	1,080800
16,958667	0,5	1,077300
16,967000	0,5	1,079900
16,975333	0,5	1,080050
16,983667	0,5	1,082600
16,992000	0,5	1,078450
17,000333	0,5	1,077400
17,008667	0,5	1,067000
17,017000	0,5	1,059450
17,025333	0,5	1,038000
17,033667	0,5	1,027850
17,042000	0,5	1,006350
17,050333	0,5	0,977450
17,058667	0,5	0,961550
17,067000	0,5	0,950500
17,075333	0,5	0,934400
17,083667	0,5	0,915900
17,092000	0,5	0,891550
17,100333	0,5	0,879550
17,108667	0,5	0,879550
17,117000	0,5	0,875750
17,125333	0,5	0,868950
17,133667	0,5	0,861800
17,142000	0,5	0,857950
17,150333	0,5	0,848750
17,158667	0,5	0,850200
17,167000	0,5	0,843300
17,175333	0,5	0,841050
17,183667	0,5	0,840950
17,192000	0,5	0,845600
17,200333	0,5	0,847200
17,208667	0,5	0,884800
17,217000	0,5	0,910800
17,225333	0,5	0,953750
17,233667	0,5	0,985750
17,242000	0,5	1,025200
17,250333	0,5	1,056750
17,258667	0,5	1,077950
17,267000	0,5	1,073550
17,275333	0,5	1,044500
17,283667	0,5	1,002900
17,292000	0,5	0,955800
17,300333	0,5	0,911750
17,308667	0,5	0,869750
17,317000	0,5	0,841250
17,325333	0,5	0,826600
17,333667	0,5	0,821150
17,342000	0,5	0,803400
17,350333	0,5	0,806350
17,358667	0,5	0,816900
17,367000	0,5	0,819100
17,375333	0,5	0,812900
17,383667	0,5	0,808500
17,392000	0,5	0,806950
17,400333	0,5	0,824700
17,408667	0,5	0,838450
17,417000	0,5	0,851800
17,425333	0,5	0,865650
17,433667	0,5	0,888050
17,442000	0,5	0,900500
17,450333	0,5	0,917600
17,458667	0,5	0,927850
17,467000	0,5	0,936100
17,475333	0,5	0,956950
17,483667	0,5	0,964850
17,492000	0,5	0,958100
17,500333	0,5	0,985050
17,508667	0,5	1,015100
17,517000	0,5	1,033400
17,525333	0,5	1,054650
17,533667	0,5	1,052150
17,542000	0,5	1,071850
17,550333	0,5	1,076950
17,558667	0,5	1,083050
17,567000	0,5	1,076350
17,575333	0,5	1,075700
17,583667	0,5	1,056250
17,592000	0,5	1,041300
17,600333	0,5	1,023450
17,608667	0,5	1,006750
17,617000	0,5	0,990300
17,625333	0,5	0,982600
17,633667	0,5	0,962800
17,642000	0,5	0,945300
17,650333	0,5	0,948750
17,658667	0,5	0,942050
17,667000	0,5	0,934250
17,675333	0,5	0,921350
17,683667	0,5	0,917950
17,692000	0,5	0,924800
17,700333	0,5	0,932750
17,708667	0,5	0,926500
17,717000	0,5	0,924250
17,725333	0,5	0,913150
17,733667	0,5	0,902400
17,742000	0,5	0,887900
17,750333	0,5	0,878000
17,758667	0,5	0,869200
17,767000	0,5	0,865100
17,775333	0,5	0,866100
17,783667	0,5	0,858450
17,792000	0,5	0,863250
17,800333	0,5	0,882750
17,808667	0,5	0,898650
17,817000	0,5	0,916050
17,825333	0,5	0,943700
17,833667	0,5	1,011100
17,842000	0,5	1,135400
17,850333	0,5	1,295650
17,858667	0,5	1,518100
17,867000	0,5	1,777250
17,875333	0,5	2,053750
17,883667	0,5	2,278050
17,892000	0,5	2,423800
17,900333	0,5	2,430350
17,908667	0,5	2,316100
17,917000	0,5	2,106950
17,925333	0,5	1,843700
17,933667	0,5	1,549200
17,942000	0,5	1,312250
17,950333	0,5	1,106750
17,958667	0,5	0,951350
17,967000	0,5	0,824300
17,975333	0,5	0,726300
17,983667	0,5	0,672150
17,992000	0,5	0,635450
18,000333	0,5	0,603400
18,008667	0,5	0,579250
18,017000	0,5	0,557300
18,025333	0,5	0,538850
18,033667	0,5	0,526550
18,042000	0,5	0,513700
18,050333	0,5	0,500800
18,058667	0,5	0,488650
18,067000	0,5	0,488400
18,075333	0,5	0,472500
18,083667	0,5	0,458950
18,092000	0,5	0,461900
18,100333	0,5	0,453050
18,108667	0,5	0,445750
18,117000	0,5	0,430350
18,125333	0,5	0,419000
18,133667	0,5	0,417750
18,142000	0,5	0,417150
18,150333	0,5	0,409600
18,158667	0,5	0,396500
18,167000	0,5	0,385650
18,175333	0,5	0,373550
18,183667	0,5	0,355300
18,192000	0,5	0,340900
18,200333	0,5	0,323550
18,208667	0,5	0,319350
18,217000	0,5	0,310650
18,225333	0,5	0,289250
18,233667	0,5	0,276350
18,242000	0,5	0,279500
18,250333	0,5	0,263750
18,258667	0,5	0,251500
18,267000	0,5	0,223850
18,275333	0,5	0,209800
18,283667	0,5	0,202100
18,292000	0,5	0,200600
18,300333	0,5	0,188900
18,308667	0,5	0,184150
18,317000	0,5	0,177450
18,325333	0,5	0,171600
18,333667	0,5	0,164650
18,342000	0,5	0,156250
18,350333	0,5	0,149200
18,358667	0,5	0,146100
18,367000	0,5	0,141450
18,375333	0,5	0,118000
18,383667	0,5	0,115550
18,392000	0,5	0,108450
18,400333	0,5	0,091400
18,408667	0,5	0,070000
18,417000	0,5	0,048650
18,425333	0,5	0,042450
18,433667	0,5	0,041900
18,442000	0,5	0,030600
18,450333	0,5	0,026650
18,458667	0,5	0,015800
18,467000	0,5	0,013600
18,475333	0,5	0,006200
18,483667	0,5	0,005950
18,492000	0,5	-0,001350
18,500333	0,5	-0,006850
18,508667	0,5	0,005500
18,517000	0,5	-0,002750
18,525333	0,5	-0,019700
18,533667	0,5	-0,020550
18,542000	0,5	-0,022450
18,550333	0,5	-0,042450
18,558667	0,5	-0,055300
18,567000	0,5	-0,076300
18,575333	0,5	-0,075600
18,583667	0,5	-0,091150
18,592000	0,5	-0,094950
18,600333	0,5	-0,107650
18,608667	0,5	-0,104400
18,617000	0,5	-0,110600
18,625333	0,5	-0,110800
18,633667	0,5	-0,117600
18,642000	0,5	-0,123000
18,650333	0,5	-0,115150
18,658667	0,5	-0,110400
18,667000	0,5	-0,128650
18,675333	0,5	-0,126550
18,683667	0,5	-0,121750
18,692000	0,5	-0,127850
18,700333	0,5	-0,139650
18,708667	0,5	-0,161300
18,717000	0,5	-0,164750
18,725333	0,5	-0,168250
18,733667	0,5	-0,167650
18,742000	0,5	-0,176900
18,750333	0,5	-0,173550
18,758667	0,5	-0,181300
18,767000	0,5	-0,177300
18,775333	0,5	-0,180100
18,783667	0,5	-0,179150
18,792000	0,5	-0,176900
18,800333	0,5	-0,163900
18,808667	0,5	-0,151800
18,817000	0,5	-0,160950
18,825333	0,5	-0,142800
18,833667	0,5	-0,131500
18,842000	0,5	-0,123800
18,850333	0,5	-0,120850
18,858667	0,5	-0,125900
18,867000	0,5	-0,110800
18,875333	0,5	-0,093400
18,883667	0,5	-0,076950
18,892000	0,5	-0,059700
18,900333	0,5	-0,046750
18,908667	0,5	-0,021950
18,917000	0,5	-0,013100
18,925333	0,5	0,007300
18,933667	0,5	0,016050
18,942000	0,5	0,032150
18,950333	0,5	0,044050
18,958667	0,5	0,052650
18,967000	0,5	0,044700
18,975333	0,5	0,062150
18,983667	0,5	0,059350
18,992000	0,5	0,056250
19,000333	0,5	0,040450
19,008667	0,5	0,021650
19,017000	0,5	0,024700
19,025333	0,5	0,014800
19,033667	0,5	0,007150
19,042000	0,5	-0,006150
19,050333	0,5	-0,017050
19,058667	0,5	-0,036850
19,067000	0,5	-0,051800
19,075333	0,5	-0,068950
19,083667	0,5	-0,081500
19,092000	0,5	-0,095750
19,100333	0,5	-0,102950
19,108667	0,5	-0,134950
19,117000	0,5	-0,151250
19,125333	0,5	-0,162150
19,133667	0,5	-0,182350
19,142000	0,5	-0,211550
19,150333	0,5	-0,242350
19,158667	0,5	-0,267600
19,167000	0,5	-0,282550
19,175333	0,5	-0,296900
19,183667	0,5	-0,313700
19,192000	0,5	-0,328800
19,200333	0,5	-0,343500
19,208667	0,5	-0,352400
19,217000	0,5	-0,367100
19,225333	0,5	-0,372600
19,233667	0,5	-0,386650
19,242000	0,5	-0,378050
19,250333	0,5	-0,387600
19,258667	0,5	-0,398800
19,267000	0,5	-0,394300
19,275333	0,5	-0,388250
19,283667	0,5	-0,395500
19,292000	0,5	-0,399150
19,300333	0,5	-0,415400
19,308667	0,5	-0,413300
19,317000	0,5	-0,404600
19,325333	0,5	-0,387200
19,333667	0,5	-0,370750
19,342000	0,5	-0,345400
19,350333	0,5	-0,323650
19,358667	0,5	-0,303250
19,367000	0,5	-0,283850
19,375333	0,5	-0,274150
19,383667	0,5	-0,265000
19,392000	0,5	-0,265050
19,400333	0,5	-0,287100
19,408667	0,5	-0,319950
19,417000	0,5	-0,337100
19,425333	0,5	-0,372550
19,433667	0,5	-0,408300
19,442000	0,5	-0,455800
19,450333	0,5	-0,473150
19,458667	0,5	-0,480600
19,467000	0,5	-0,485500
19,475333	0,5	-0,494250
19,483667	0,5	-0,499750
19,492000	0,5	-0,502000
19,500333	0,5	-0,501950
19,508667	0,5	-0,504400
19,517000	0,5	-0,513950
19,525333	0,5	-0,523250
19,533667	0,5	-0,536750
19,542000	0,5	-0,537550
19,550333	0,5	-0,577750
19,558667	0,5	-0,576550
19,567000	0,5	-0,594750
19,575333	0,5	-0,607950
19,583667	0,5	-0,634050
19,592000	0,5	-0,662350
19,600333	0,5	-0,666000
19,608667	0,5	-0,663250
19,617000	0,5	-0,670300
19,625333	0,5	-0,665950
19,633667	0,5	-0,667300
19,642000	0,5	-0,655450
19,650333	0,5	-0,652650
19,658667	0,5	-0,641900
19,667000	0,5	-0,640750
19,675333	0,5	-0,637050
19,683667	0,5	-0,620450
19,692000	0,5	-0,615900
19,700333	0,5	-0,633950
19,708667	0,5	-0,615000
19,717000	0,5	-0,605050
19,725333	0,5	-0,601150
19,733667	0,5	-0,609750
19,742000	0,5	-0,628350
19,750333	0,5	-0,635100
19,758667	0,5	-0,660900
19,767000	0,5	-0,689450
19,775333	0,5	-0,730500
19,783667	0,5	-0,757400
19,792000	0,5	-0,783100
19,800333	0,5	-0,792550
19,808667	0,5	-0,804000
19,817000	0,5	-0,808700
19,825333	0,5	-0,807750
19,833667	0,5	-0,798200
19,842000	0,5	-0,806400
19,850333	0,5	-0,811550
19,858667	0,5	-0,804700
19,867000	0,5	-0,817950
19,875333	0,5	-0,825300
19,883667	0,5	-0,849300
19,892000	0,5	-0,858400
19,900333	0,5	-0,859700
19,908667	0,5	-0,849300
19,917000	0,5	-0,851400
19,925333	0,5	-0,838900
19,933667	0,5	-0,829200
19,942000	0,5	-0,810200
19,950333	0,5	-0,801450
19,958667	0,5	-0,800300
19,967000	0,5	-0,820200
19,975333	0,5	-0,830300
19,983667	0,5	-0,856700
19,992000	0,5	-0,883600
20,000333	0,5	-0,893600
20,008667	0,5	-0,902500
20,017000	0,5	-0,915050
20,025333	0,5	-0,935300
20,033667	0,5	-0,950850
20,042000	0,5	-0,967400
20,050333	0,5	-0,963500
20,058667	0,5	-0,973200
20,067000	0,5	-0,976550
20,075333	0,5	-0,984500
20,083667	0,5	-0,980700
20,092000	0,5	-0,985350
20,100333	0,5	-0,982550
20,108667	0,5	-0,995350
20,117000	0,5	-0,989500
20,125333	0,5	-0,975900
20,133667	0,5	-0,980650
20,142000	0,5	-0,977250
20,150333	0,5	-0,958750
20,158667	0,5	-0,947900
20,167000	0,5	-0,940600
20,175333	0,5	-0,940650
20,183667	0,5	-0,931300
20,192000	0,5	-0,906100
20,200333	0,5	-0,890000
20,208667	0,5	-0,867550
20,217000	0,5	-0,862950
20,225333	0,5	-0,869850
20,233667	0,5	-0,900450
20,242000	0,5	-0,927950
20,250333	0,5	-0,965300
20,258667	0,5	-0,990500
20,267000	0,5	-1,004850
20,275333	0,5	-1,006400
20,283667	0,5	-1,028000
20,292000	0,5	-1,015250
20,300333	0,5	-0,996800
20,308667	0,5	-0,988100
20,317000	0,5	-0,978650
20,325333	0,5	-0,988600
20,333667	0,5	-0,971550
20,342000	0,5	-0,962850
20,350333	0,5	-0,952150
20,358667	0,5	-0,949000
20,367000	0,5	-0,938950
20,375333	0,5	-0,936750
20,383667	0,5	-0,935950
20,392000	0,5	-0,953350
20,400333	0,5	-0,966350
20,408667	0,5	-0,988750
20,417000	0,5	-0,987800
20,425333	0,5	-1,003650
20,433667	0,5	-1,024850
20,442000	0,5	-1,016950
20,450333	0,5	-1,007450
20,458667	0,5	-0,997750
20,467000	0,5	-0,979350
20,475333	0,5	-0,961400
20,483667	0,5	-0,924100
20,492000	0,5	-0,902050
20,500333	0,5	-0,897400
20,508667	0,5	-0,899000
20,517000	0,5	-0,889400
20,525333	0,5	-0,857300
20,533667	0,5	-0,827450
20,542000	0,5	-0,793600
20,550333	0,5	-0,774650
20,558667	0,5	-0,765200
20,567000	0,5	-0,758400
20,575333	0,5	-0,773100
20,583667	0,5	-0,791050
20,592000	0,5	-0,787550
20,600333	0,5	-0,793200
20,608667	0,5	-0,799000
20,617000	0,5	-0,809850
20,625333	0,5	-0,818150
20,633667	0,5	-0,805800
20,642000	0,5	-0,817200
20,650333	0,5	-0,826800
20,658667	0,5	-0,840350
20,667000	0,5	-0,845750
20,675333	0,5	-0,842300
20,683667	0,5	-0,810350
20,692000	0,5	-0,770350
20,700333	0,5	-0,723800
20,708667	0,5	-0,681700
20,717000	0,5	-0,666650
20,725333	0,5	-0,704200
20,733667	0,5	-0,745200
20,742000	0,5	-0,801650
20,750333	0,5	-0,847950
20,758667	0,5	-0,901850
20,767000	0,5	-0,936400
20,775333	0,5	-0,953650
20,783667	0,5	-0,962900
20,792000	0,5	-0,977000
20,800333	0,5	-0,990600
20,808667	0,5	-0,997450
20,817000	0,5	-1,008700
20,825333	0,5	-1,009900
20,833667	0,5	-1,011950
20,842000	0,5	-1,007050
20,850333	0,5	-1,008100
20,858667	0,5	-0,980250
20,867000	0,5	-0,980950
20,875333	0,5	-1,000450
20,883667	0,5	-1,001800
20,892000	0,5	-1,004150
20,900333	0,5	-1,005500
20,908667	0,5	-1,006050
20,917000	0,5	-1,010750
20,925333	0,5	-1,008950
20,933667	0,5	-1,001450
20,942000	0,5	-0,998500
20,950333	0,5	-1,005150
20,958667	0,5	-1,004900
20,967000	0,5	-1,010650
20,975333	0,5	-1,010900
20,983667	0,5	-1,008700
20,992000	0,5	-1,012700
21,000333	0,5	-0,993150
21,008667	0,5	-0,975450
21,017000	0,5	-0,974900
21,025333	0,5	-0,972900
21,033667	0,5	-0,966800
21,042000	0,5	-0,978050
21,050333	0,5	-0,988750
21,058667	0,5	-1,010900
21,067000	0,5	-1,021650
21,075333	0,5	-1,017950
21,083667	0,5	-1,011950
21,092000	0,5	-1,004550
21,100333	0,5	-0,991200
21,108667	0,5	-0,979050
21,117000	0,5	-0,971300
21,125333	0,5	-0,956950
21,133667	0,5	-0,953900
21,142000	0,5	-0,950850
21,150333	0,5	-0,926150
21,158667	0,5	-0,917000
21,167000	0,5	-0,923650
21,175333	0,5	-0,922650
21,183667	0,5	-0,929350
21,192000	0,5	-0,942200
21,200333	0,5	-0,961450
21,208667	0,5	-0,964400
21,217000	0,5	-0,955150
21,225333	0,5	-0,941500
21,233667	0,5	-0,923350
21,242000	0,5	-0,886300
21,250333	0,5	-0,847150
21,258667	0,5	-0,799300
21,267000	0,5	-0,776800
21,275333	0,5	-0,772500
21,283667	0,5	-0,781250
21,292000	0,5	-0,793250
21,300333	0,5	-0,787500
21,308667	0,5	-0,800100
21,317000	0,5	-0,811500
21,325333	0,5	-0,819450
21,333667	0,5	-0,825100
21,342000	0,5	-0,831950
21,350333	0,5	-0,841550
21,358667	0,5	-0,836350
21,367000	0,5	-0,824450
21,375333	0,5	-0,824400
21,383667	0,5	-0,809450
21,392000	0,5	-0,805800
21,400333	0,5	-0,800300
21,408667	0,5	-0,790800
21,417000	0,5	-0,783500
21,425333	0,5	-0,774600
21,433667	0,5	-0,775000
21,442000	0,5	-0,736200
21,450333	0,5	-0,715550
21,458667	0,5	-0,702250
21,467000	0,5	-0,682400
21,475333	0,5	-0,654250
21,483667	0,5	-0,644250
21,492000	0,5	-0,635750
21,500333	0,5	-0,643700
21,508667	0,5	-0,636750
21,517000	0,5	-0,638800
21,525333	0,5	-0,640000
21,533667	0,5	-0,639200
21,542000	0,5	-0,625400
21,550333	0,5	-0,610650
21,558667	0,5	-0,589450
21,567000	0,5	-0,552000
21,575333	0,5	-0,506150
21,583667	0,5	-0,415900
21,592000	0,5	-0,301650
21,600333	0,5	-0,217150
21,608667	0,5	-0,170950
21,617000	0,5	-0,131700
21,625333	0,5	-0,115250
21,633667	0,5	-0,112250
21,642000	0,5	-0,143700
21,650333	0,5	-0,181850
21,658667	0,5	-0,216700
21,667000	0,5	-0,252500
21,675333	0,5	-0,279800
21,683667	0,5	-0,289900
21,692000	0,5	-0,283650
21,700333	0,5	-0,277250
21,708667	0,5	-0,268300
21,717000	0,5	-0,265500
21,725333	0,5	-0,270250
21,733667	0,5	-0,253450
21,742000	0,5	-0,235250
21,750333	0,5	-0,237200
21,758667	0,5	-0,217750
21,767000	0,5	-0,206450
21,775333	0,5	-0,180350
21,783667	0,5	-0,165950
21,792000	0,5	-0,143800
21,800333	0,5	-0,101300
21,808667	0,5	-0,058000
21,817000	0,5	-0,018950
21,825333	0,5	0,022950
21,833667	0,5	0,066850
21,842000	0,5	0,114800
21,850333	0,5	0,181600
21,858667	0,5	0,279900
21,867000	0,5	0,423350
21,875333	0,5	0,599650
21,883667	0,5	0,751100
21,892000	0,5	0,786550
21,900333	0,5	0,738850
21,908667	0,5	0,654250
21,917000	0,5	0,555150
21,925333	0,5	0,480750
21,933667	0,5	0,428250
21,942000	0,5	0,402900
21,950333	0,5	0,406700
21,958667	0,5	0,415350
21,967000	0,5	0,430600
21,975333	0,5	0,456850
21,983667	0,5	0,477100
21,992000	0,5	0,504300
22,000333	0,5	0,529800
22,008667	0,5	0,551250
22,017000	0,5	0,575800
22,025333	0,5	0,614150
22,033667	0,5	0,640750
22,042000	0,5	0,671000
22,050333	0,5	0,712400
22,058667	0,5	0,759100
22,067000	0,5	0,786250
22,075333	0,5	0,817000
22,083667	0,5	0,841100
22,092000	0,5	0,881300
22,100333	0,5	0,924200
22,108667	0,5	0,977900
22,117000	0,5	1,033350
22,125333	0,5	1,104150
22,133667	0,5	1,176450
22,142000	0,5	1,253050
22,150333	0,5	1,335250
22,158667	0,5	1,421200
22,167000	0,5	1,535350
22,175333	0,5	1,676250
22,183667	0,5	1,854600
22,192000	0,5	2,084200
22,200333	0,5	2,330550
22,208667	0,5	2,556400
22,217000	0,5	2,757100
22,225333	0,5	2,898400
22,233667	0,5	3,006300
22,242000	0,5	3,071600
22,250333	0,5	3,106750
22,258667	0,5	3,105750
22,267000	0,5	3,095550
22,275333	0,5	3,091650
22,283667	0,5	3,128050
22,292000	0,5	3,221450
22,300333	0,5	3,368100
22,308667	0,5	3,492200
22,317000	0,5	3,505550
22,325333	0,5	3,434400
22,333667	0,5	3,298650
22,342000	0,5	3,213250
22,350333	0,5	3,138350
22,358667	0,5	3,101150
22,367000	0,5	3,081700
22,375333	0,5	3,079950
22,383667	0,5	3,106450
22,392000	0,5	3,144150
22,400333	0,5	3,180450
22,408667	0,5	3,223400
22,417000	0,5	3,270500
22,425333	0,5	3,323700
22,433667	0,5	3,381550
22,442000	0,5	3,444550
22,450333	0,5	3,518150
22,458667	0,5	3,586200
22,467000	0,5	3,639050
22,475333	0,5	3,706050
22,483667	0,5	3,770650
22,492000	0,5	3,830150
22,500333	0,5	3,882050
22,508667	0,5	3,923400
22,517000	0,5	3,969250
22,525333	0,5	4,013150
22,533667	0,5	4,082000
22,542000	0,5	4,135200
22,550333	0,5	4,187800
22,558667	0,5	4,232000
22,567000	0,5	4,281000
22,575333	0,5	4,323850
22,583667	0,5	4,366850
22,592000	0,5	4,400850
22,600333	0,5	4,421950
22,608667	0,5	4,415000
22,617000	0,5	4,417350
22,625333	0,5	4,428000
22,633667	0,5	4,445450
22,642000	0,5	4,448950
22,650333	0,5	4,432450
22,658667	0,5	4,414500
22,667000	0,5	4,372400
22,675333	0,5	4,341450
22,683667	0,5	4,303250
22,692000	0,5	4,265550
22,700333	0,5	4,208100
22,708667	0,5	4,154950
22,717000	0,5	4,090250
22,725333	0,5	4,023850
22,733667	0,5	3,959550
22,742000	0,5	3,879000
22,750333	0,5	3,798600
22,758667	0,5	3,648200
22,767000	0,5	3,577900
22,775333	0,5	3,483900
22,783667	0,5	3,381450
22,792000	0,5	3,252250
22,800333	0,5	3,105700
22,808667	0,5	2,954250
22,817000	0,5	2,795400
22,825333	0,5	2,637600
22,833667	0,5	2,487000
22,842000	0,5	2,326500
22,850333	0,5	2,170600
22,858667	0,5	2,013700
22,867000	0,5	1,853300
22,875333	0,5	1,699100
22,883667	0,5	1,536600
22,892000	0,5	1,379150
22,900333	0,5	1,224850
22,908667	0,5	1,030650
22,917000	0,5	0,888550
22,925333	0,5	0,731050
22,933667	0,5	0,555550
22,942000	0,5	0,400700
22,950333	0,5	0,252000
22,958667	0,5	0,111750
22,967000	0,5	-0,029000
22,975333	0,5	-0,178950
22,983667	0,5	-0,301500
22,992000	0,5	-0,432450
23,000333	0,5	-0,547800
23,008667	0,5	-0,665150
23,017000	0,5	-0,779950
23,025333	0,5	-0,891300
23,033667	0,5	-0,998400
23,042000	0,5	-1,102250
23,050333	0,5	-1,180200
23,058667	0,5	-1,285400
23,067000	0,5	-1,382100
23,075333	0,5	-1,501500
23,083667	0,5	-1,600050
23,092000	0,5	-1,666650
23,100333	0,5	-1,736100
23,108667	0,5	-1,789600
23,117000	0,5	-1,853850
23,125333	0,5	-1,900000
23,133667	0,5	-1,952850
23,142000	0,5	-1,985750
23,150333	0,5	-2,025000
23,158667	0,5	-2,054500
23,167000	0,5	-2,095250
23,175333	0,5	-2,123000
23,183667	0,5	-2,151600
23,192000	0,5	-2,170450
23,200333	0,5	-2,212300
23,208667	0,5	-2,219250
23,217000	0,5	-2,238950
23,225333	0,5	-2,291400
23,233667	0,5	-2,315400
23,242000	0,5	-2,322400
23,250333	0,5	-2,319450
23,258667	0,5	-2,318300
23,267000	0,5	-2,317900
23,275333	0,5	-2,312000
23,283667	0,5	-2,294200
23,292000	0,5	-2,280950
23,300333	0,5	-2,259350
23,308667	0,5	-2,243400
23,317000	0,5	-2,222400
23,325333	0,5	-2,212000
23,333667	0,5	-2,191600
23,342000	0,5	-2,178150
23,350333	0,5	-2,195150
23,358667	0,5	-2,152800
23,367000	0,5	-2,127100
23,375333	0,5	-2,134150
23,383667	0,5	-2,134050
23,392000	0,5	-2,115500
23,400333	0,5	-2,095900
23,408667	0,5	-2,077900
23,417000	0,5	-2,060500
23,425333	0,5	-2,032400
23,433667	0,5	-2,004850
23,442000	0,5	-1,976650
23,450333	0,5	-1,949500
23,458667	0,5	-1,921650
23,467000	0,5	-1,896600
23,475333	0,5	-1,866400
23,483667	0,5	-1,844050
23,492000	0,5	-1,894250
23,500333	0,5	-1,835150
23,508667	0,5	-1,808250
23,517000	0,5	-1,754150
23,525333	0,5	-1,753750
23,533667	0,5	-1,746900
23,542000	0,5	-1,735700
23,550333	0,5	-1,723250
23,558667	0,5	-1,710400
23,567000	0,5	-1,700900
23,575333	0,5	-1,689000
23,583667	0,5	-1,675400
23,592000	0,5	-1,663350
23,600333	0,5	-1,651050
23,608667	0,5	-1,641200
23,617000	0,5	-1,626700
23,625333	0,5	-1,616150
23,633667	0,5	-1,621950
23,642000	0,5	-1,718900
23,650333	0,5	-1,669750
23,658667	0,5	-1,617750
23,667000	0,5	-1,585500
23,675333	0,5	-1,580200
23,683667	0,5	-1,577600
23,692000	0,5	-1,577000
23,700333	0,5	-1,574150
23,708667	0,5	-1,569950
23,717000	0,5	-1,562750
23,725333	0,5	-1,554550
23,733667	0,5	-1,551050
23,742000	0,5	-1,547050
23,750333	0,5	-1,543600
23,758667	0,5	-1,541050
23,767000	0,5	-1,536750
23,775333	0,5	-1,543000
23,783667	0,5	-1,610700
23,792000	0,5	-1,687000
23,800333	0,5	-1,644500
23,808667	0,5	-1,601200
23,817000	0,5	-1,573250
23,825333	0,5	-1,575050
23,833667	0,5	-1,576500
23,842000	0,5	-1,592200
23,850333	0,5	-1,596400
23,858667	0,5	-1,594250
23,867000	0,5	-1,582900
23,875333	0,5	-1,577150
23,883667	0,5	-1,569150
23,892000	0,5	-1,562850
23,900333	0,5	-1,553050
23,908667	0,5	-1,542100
23,917000	0,5	-1,538800
23,925333	0,5	-1,534700
23,933667	0,5	-1,670800
23,942000	0,5	-1,647700
23,950333	0,5	-1,616500
23,958667	0,5	-1,564950
23,967000	0,5	-1,539850
23,975333	0,5	-1,535750
23,983667	0,5	-1,542050
23,992000	0,5	-1,550550
24,000333	0,5	-1,556250
24,008667	0,5	-1,537650
24,017000	0,5	-1,534350
24,025333	0,5	-1,524450
24,033667	0,5	-1,522150
24,042000	0,5	-1,509600
24,050333	0,5	-1,502950
24,058667	0,5	-1,494000
24,067000	0,5	-1,484350
24,075333	0,5	-1,503750
24,083667	0,5	-1,598350
24,092000	0,5	-1,572850
24,100333	0,5	-1,534250
24,108667	0,5	-1,480650
24,117000	0,5	-1,453950
24,125333	0,5	-1,442850
24,133667	0,5	-1,438600
24,142000	0,5	-1,439600
24,150333	0,5	-1,416750
24,158667	0,5	-1,410250
24,167000	0,5	-1,386850
24,175333	0,5	-1,375550
24,183667	0,5	-1,351750
24,192000	0,5	-1,338100
24,200333	0,5	-1,321650
24,208667	0,5	-1,305750
24,217000	0,5	-1,295600
24,225333	0,5	-1,360550
24,233667	0,5	-1,375900
24,242000	0,5	-1,360850
24,250333	0,5	-1,307850
24,258667	0,5	-1,274800
24,267000	0,5	-1,253300
24,275333	0,5	-1,248400
24,283667	0,5	-1,252550
24,292000	0,5	-1,241950
24,300333	0,5	-1,226300
24,308667	0,5	-1,206100
24,317000	0,5	-1,193750
24,325333	0,5	-1,174050
24,333667	0,5	-1,162800
24,342000	0,5	-1,141350
24,350333	0,5	-1,123700
24,358667	0,5	-1,101500
24,367000	0,5	-1,094100
24,375333	0,5	-1,166350
24,383667	0,5	-1,133100
24,392000	0,5	-1,111250
24,400333	0,5	-1,062350
24,408667	0,5	-1,033250
24,417000	0,5	-1,018350
24,425333	0,5	-1,005950
24,433667	0,5	-1,013450
24,442000	0,5	-0,999450
24,450333	0,5	-0,978150
24,458667	0,5	-0,968300
24,467000	0,5	-0,951500
24,475333	0,5	-0,940700
24,483667	0,5	-0,927850
24,492000	0,5	-0,911700
24,500333	0,5	-0,894050
24,508667	0,5	-0,885100
24,517000	0,5	-0,887650
24,525333	0,5	-0,940950
24,533667	0,5	-0,905150
24,542000	0,5	-0,889700
24,550333	0,5	-0,848650
24,558667	0,5	-0,831800
24,567000	0,5	-0,814450
24,575333	0,5	-0,811900
24,583667	0,5	-0,811350
24,592000	0,5	-0,790950
24,600333	0,5	-0,773950
24,608667	0,5	-0,758200
24,617000	0,5	-0,742600
24,625333	0,5	-0,728500
24,633667	0,5	-0,712800
24,642000	0,5	-0,698400
24,650333	0,5	-0,686150
24,658667	0,5	-0,673800
24,667000	0,5	-0,697500
24,675333	0,5	-0,699050
24,683667	0,5	-0,681650
24,692000	0,5	-0,659550
24,700333	0,5	-0,633950
24,708667	0,5	-0,621400
24,717000	0,5	-0,619450
24,725333	0,5	-0,616800
24,733667	0,5	-0,616950
24,742000	0,5	-0,603700
24,750333	0,5	-0,594750
24,758667	0,5	-0,582400
24,767000	0,5	-0,575900
24,775333	0,5	-0,563000
24,783667	0,5	-0,551950
24,792000	0,5	-0,536650
24,800333	0,5	-0,522800
24,808667	0,5	-0,510950
24,817000	0,5	-0,531100
24,825333	0,5	-0,525750
24,833667	0,5	-0,506750
24,842000	0,5	-0,485500
24,850333	0,5	-0,467000
24,858667	0,5	-0,459300
24,867000	0,5	-0,451550
24,875333	0,5	-0,451450
24,883667	0,5	-0,445200
24,892000	0,5	-0,438150
24,900333	0,5	-0,425900
24,908667	0,5	-0,418850
24,917000	0,5	-0,406500
24,925333	0,5	-0,402000
24,933667	0,5	-0,390850
24,942000	0,5	-0,382000
24,950333	0,5	-0,378500
24,958667	0,5	-0,375450
24,967000	0,5	-0,385850
24,975333	0,5	-0,376150
24,983667	0,5	-0,367500
24,992000	0,5	-0,351450
25,000333	0,5	-0,343700
25,008667	0,5	-0,338700
25,017000	0,5	-0,333850
25,025333	0,5	-0,329350
25,033667	0,5	-0,325150
25,042000	0,5	-0,313500
25,050333	0,5	-0,303450
25,058667	0,5	-0,297350
25,067000	0,5	-0,290850
25,075333	0,5	-0,281650
25,083667	0,5	-0,276700
25,092000	0,5	-0,266300
25,100333	0,5	-0,257950
25,108667	0,5	-0,263050
25,117000	0,5	-0,257350
25,125333	0,5	-0,251750
25,133667	0,5	-0,245300
25,142000	0,5	-0,237600
25,150333	0,5	-0,232750
25,158667	0,5	-0,230900
25,167000	0,5	-0,232400
25,175333	0,5	-0,228650
25,183667	0,5	-0,224350
25,192000	0,5	-0,225400
25,200333	0,5	-0,220500
25,208667	0,5	-0,218250
25,217000	0,5	-0,209750
25,225333	0,5	-0,206500
25,233667	0,5	-0,200150
25,242000	0,5	-0,196600
25,250333	0,5	-0,193950
25,258667	0,5	-0,192250
25,267000	0,5	-0,183600
25,275333	0,5	-0,175400
25,283667	0,5	-0,173200
25,292000	0,5	-0,167100
25,300333	0,5	-0,161950
25,308667	0,5	-0,162450
25,317000	0,5	-0,160900
25,325333	0,5	-0,157950
25,333667	0,5	-0,155900
25,342000	0,5	-0,152550
25,350333	0,5	-0,150800
25,358667	0,5	-0,148400
25,367000	0,5	-0,149450
25,375333	0,5	-0,146450
25,383667	0,5	-0,141550
25,392000	0,5	-0,140200
25,400333	0,5	-0,140650
25,408667	0,5	-0,132600
25,417000	0,5	-0,131500
25,425333	0,5	-0,130000
25,433667	0,5	-0,129000
25,442000	0,5	-0,126150
25,450333	0,5	-0,123600
25,458667	0,5	-0,123300
25,467000	0,5	-0,116750
25,475333	0,5	-0,115200
25,483667	0,5	-0,114100
25,492000	0,5	-0,110950
25,500333	0,5	-0,107950
25,508667	0,5	-0,105550
25,517000	0,5	-0,104100
25,525333	0,5	-0,101650
25,533667	0,5	-0,098200
25,542000	0,5	-0,098150
25,550333	0,5	-0,094250
25,558667	0,5	-0,090000
25,567000	0,5	-0,091550
25,575333	0,5	-0,088650
25,583667	0,5	-0,095800
25,592000	0,5	-0,092800
25,600333	0,5	-0,093800
25,608667	0,5	-0,091100
25,617000	0,5	-0,084900
25,625333	0,5	-0,085150
25,633667	0,5	-0,085150
25,642000	0,5	-0,086100
25,650333	0,5	-0,084800
25,658667	0,5	-0,081200
25,667000	0,5	-0,080000
25,675333	0,5	-0,077400
25,683667	0,5	-0,075150
25,692000	0,5	-0,073700
25,700333	0,5	-0,063300
25,708667	0,5	-0,060200
25,717000	0,5	-0,055200
25,725333	0,5	-0,055750
25,733667	0,5	-0,058450
25,742000	0,5	-0,057300
25,750333	0,5	-0,050950
25,758667	0,5	-0,049100
25,767000	0,5	-0,042200
25,775333	0,5	-0,041900
25,783667	0,5	-0,039150
25,792000	0,5	-0,041550
25,800333	0,5	-0,040950
25,808667	0,5	-0,042150
25,817000	0,5	-0,037600
25,825333	0,5	-0,038450
25,833667	0,5	-0,038300
25,842000	0,5	-0,035000
25,850333	0,5	-0,034900
25,858667	0,5	-0,030850
25,867000	0,5	-0,023350
25,875333	0,5	-0,029750
25,883667	0,5	-0,031550
25,892000	0,5	-0,031300
25,900333	0,5	-0,026250
25,908667	0,5	-0,015650
25,917000	0,5	-0,013450
25,925333	0,5	-0,010550
25,933667	0,5	-0,012500
25,942000	0,5	-0,013450
25,950333	0,5	-0,015450
25,958667	0,5	-0,013100
25,967000	0,5	-0,015100
25,975333	0,5	-0,012600
25,983667	0,5	-0,013400
25,992000	0,5	-0,008750
26,000333	0,5	-0,010950
