File Path	chrom://chromeleon01/ikbm_chromeleon/2022/ICS-5000/ED1/Esteban/20220612_Cell_7_4_eg.seq/542.smp/ED_1.channel/ED_1.chm
Channel	ED_1

Injection Information:
Data Vault	ikbm_chromeleon
Injection	4_00h-EGS_2
Injection Number	128
Position	BD3
Comment	
Processing Method	Stop sequence after Cell Death
Instrument Method	ICS5000_PA200_FullNative_Ox_26min_ED1
Type	Unknown
Status	Finished
Injection Date	15.06.2022
Injection Time	04:39:19
Injection Volume (µl)	5,0
Dilution Factor	1,0000
Weight	1,0000

Chromatogram Data Information:
Time Min. (min)	0,000167
Time Max. (min)	26,000167
Data Points	3121
Detector	EDet1
Generating Data System	Chromeleon 7.2.9.11323
Exporting Data System	Chromeleon 7.2.9.0
Operator	Instrument Controller
Signal Quantity	
Signal Unit	nC
Signal Min.	-2,282800
Signal Max.	2 127,035532
Channel	ED_1
Driver Name	DC-5000
Channel Type	Evaluation
Min. Step (s)	0,5
Max. Step (s)	0,5
Average Step (s)	0,5

Signal Parameter Information:
Signal Info	

Chromatogram Data:
Time (min)	Step (s)	Value (nC)
0,000167	n.a.	-0,049100
0,008500	0,5	-0,060250
0,016833	0,5	-0,050650
0,025167	0,5	-0,037200
0,033500	0,5	-0,000600
0,041833	0,5	0,023750
0,050167	0,5	0,011850
0,058500	0,5	0,019000
0,066833	0,5	0,008400
0,075167	0,5	0,020200
0,083500	0,5	0,005100
0,091833	0,5	0,009150
0,100167	0,5	-0,010050
0,108500	0,5	-0,001700
0,116833	0,5	-0,003150
0,125167	0,5	-0,021800
0,133500	0,5	-0,027200
0,141833	0,5	0,002550
0,150167	0,5	-0,018600
0,158500	0,5	-0,034200
0,166833	0,5	-0,029600
0,175167	0,5	-0,021700
0,183500	0,5	0,004450
0,191833	0,5	0,007300
0,200167	0,5	0,006650
0,208500	0,5	-0,000750
0,216833	0,5	-0,000300
0,225167	0,5	-0,000350
0,233500	0,5	-0,007250
0,241833	0,5	-0,022700
0,250167	0,5	-0,020500
0,258500	0,5	-0,026200
0,266833	0,5	-0,023500
0,275167	0,5	-0,040600
0,283500	0,5	-0,022700
0,291833	0,5	0,027100
0,300167	0,5	0,041550
0,308500	0,5	0,002400
0,316833	0,5	-0,029500
0,325167	0,5	-0,054550
0,333500	0,5	-0,048650
0,341833	0,5	-0,053400
0,350167	0,5	-0,047000
0,358500	0,5	-0,043650
0,366833	0,5	-0,045650
0,375167	0,5	-0,043250
0,383500	0,5	-0,048700
0,391833	0,5	-0,046000
0,400167	0,5	-0,051250
0,408500	0,5	-0,049450
0,416833	0,5	-0,046900
0,425167	0,5	-0,054700
0,433500	0,5	-0,041750
0,441833	0,5	-0,039500
0,450167	0,5	-0,068500
0,458500	0,5	-0,070300
0,466833	0,5	-0,069900
0,475167	0,5	-0,042900
0,483500	0,5	-0,038400
0,491833	0,5	-0,044350
0,500167	0,5	-0,050150
0,508500	0,5	-0,049100
0,516833	0,5	-0,046650
0,525167	0,5	-0,050150
0,533500	0,5	-0,052250
0,541833	0,5	-0,061550
0,550167	0,5	-0,054250
0,558500	0,5	-0,055950
0,566833	0,5	-0,039000
0,575167	0,5	-0,069950
0,583500	0,5	-0,036050
0,591833	0,5	-0,060700
0,600167	0,5	-0,067700
0,608500	0,5	-0,069050
0,616833	0,5	-0,051250
0,625167	0,5	-0,029050
0,633500	0,5	-0,015950
0,641833	0,5	-0,034700
0,650167	0,5	-0,026500
0,658500	0,5	-0,037650
0,666833	0,5	-0,028750
0,675167	0,5	-0,032400
0,683500	0,5	-0,027450
0,691833	0,5	-0,033500
0,700167	0,5	-0,033950
0,708500	0,5	-0,027900
0,716833	0,5	-0,037850
0,725167	0,5	-0,049200
0,733500	0,5	-0,017250
0,741833	0,5	-0,039200
0,750167	0,5	-0,041050
0,758500	0,5	-0,036900
0,766833	0,5	-0,019450
0,775167	0,5	0,018450
0,783500	0,5	0,012150
0,791833	0,5	0,013150
0,800167	0,5	0,008600
0,808500	0,5	0,016500
0,816833	0,5	0,006300
0,825167	0,5	0,012650
0,833500	0,5	0,004650
0,841833	0,5	0,006150
0,850167	0,5	0,007150
0,858500	0,5	0,009050
0,866833	0,5	0,004550
0,875167	0,5	0,023350
0,883500	0,5	0,028450
0,891833	0,5	0,003500
0,900167	0,5	0,005550
0,908500	0,5	0,006050
0,916833	0,5	0,031700
0,925167	0,5	0,056950
0,933500	0,5	0,071150
0,941833	0,5	0,054300
0,950167	0,5	0,057150
0,958500	0,5	0,051450
0,966833	0,5	0,057800
0,975167	0,5	0,054100
0,983500	0,5	0,055200
0,991833	0,5	0,047200
1,000167	0,5	0,054350
1,008500	0,5	0,051800
1,016833	0,5	0,057550
1,025167	0,5	0,068650
1,033500	0,5	0,066350
1,041833	0,5	0,042450
1,050167	0,5	0,052800
1,058500	0,5	0,055250
1,066833	0,5	0,092100
1,075167	0,5	0,107850
1,083500	0,5	0,100800
1,091833	0,5	0,098900
1,100167	0,5	0,092350
1,108500	0,5	0,096350
1,116833	0,5	0,094300
1,125167	0,5	0,096650
1,133500	0,5	0,087400
1,141833	0,5	0,091800
1,150167	0,5	0,085150
1,158500	0,5	0,094650
1,166833	0,5	0,085000
1,175167	0,5	0,119200
1,183500	0,5	0,094150
1,191833	0,5	0,082350
1,200167	0,5	0,084050
1,208500	0,5	0,093050
1,216833	0,5	0,115800
1,225167	0,5	0,120700
1,233500	0,5	0,118100
1,241833	0,5	0,125350
1,250167	0,5	0,120000
1,258500	0,5	0,126350
1,266833	0,5	0,121700
1,275167	0,5	0,118050
1,283500	0,5	0,120150
1,291833	0,5	0,116000
1,300167	0,5	0,126000
1,308500	0,5	0,106300
1,316833	0,5	0,111300
1,325167	0,5	0,134500
1,333500	0,5	0,111950
1,341833	0,5	0,105550
1,350167	0,5	0,118150
1,358500	0,5	0,132650
1,366833	0,5	0,166550
1,375167	0,5	0,146350
1,383500	0,5	0,149150
1,391833	0,5	0,143050
1,400167	0,5	0,155000
1,408500	0,5	0,145500
1,416833	0,5	0,148750
1,425167	0,5	0,141350
1,433500	0,5	0,140800
1,441833	0,5	0,144000
1,450167	0,5	0,150850
1,458500	0,5	0,137050
1,466833	0,5	0,152800
1,475167	0,5	0,158100
1,483500	0,5	0,136500
1,491833	0,5	0,134450
1,500167	0,5	0,141800
1,508500	0,5	0,160100
1,516833	0,5	0,171000
1,525167	0,5	0,170750
1,533500	0,5	0,158450
1,541833	0,5	0,180850
1,550167	0,5	0,207950
1,558500	0,5	0,343900
1,566833	0,5	0,714800
1,575167	0,5	1,658250
1,583500	0,5	6,062400
1,591833	0,5	29,426450
1,600167	0,5	125,801752
1,608500	0,5	448,590007
1,616833	0,5	1 203,977118
1,625167	0,5	1 551,294623
1,633500	0,5	2 127,035532
1,641833	0,5	2 023,006930
1,650167	0,5	1 988,182630
1,658500	0,5	1 985,832180
1,666833	0,5	1 919,692329
1,675167	0,5	1 629,494374
1,683500	0,5	1 202,113818
1,691833	0,5	838,633312
1,700167	0,5	603,182509
1,708500	0,5	460,802907
1,716833	0,5	373,476356
1,725167	0,5	311,340405
1,733500	0,5	264,432154
1,741833	0,5	227,760553
1,750167	0,5	198,820103
1,758500	0,5	174,684853
1,766833	0,5	154,177252
1,775167	0,5	137,815652
1,783500	0,5	126,948202
1,791833	0,5	121,714852
1,800167	0,5	120,785002
1,808500	0,5	121,906252
1,816833	0,5	123,095002
1,825167	0,5	123,124502
1,833500	0,5	121,010202
1,841833	0,5	116,440902
1,850167	0,5	110,051902
1,858500	0,5	102,913402
1,866833	0,5	96,018851
1,875167	0,5	90,018751
1,883500	0,5	84,942501
1,891833	0,5	80,491901
1,900167	0,5	76,378151
1,908500	0,5	72,762451
1,916833	0,5	69,809501
1,925167	0,5	67,504901
1,933500	0,5	65,559251
1,941833	0,5	63,672451
1,950167	0,5	61,970601
1,958500	0,5	60,638351
1,966833	0,5	59,688001
1,975167	0,5	59,335151
1,983500	0,5	59,838701
1,991833	0,5	60,603901
2,000167	0,5	60,070101
2,008500	0,5	57,538601
2,016833	0,5	53,930751
2,025167	0,5	50,583501
2,033500	0,5	48,089151
2,041833	0,5	46,408651
2,050167	0,5	45,444651
2,058500	0,5	45,210051
2,066833	0,5	45,883201
2,075167	0,5	47,666401
2,083500	0,5	50,364751
2,091833	0,5	53,588951
2,100167	0,5	58,097001
2,108500	0,5	65,264751
2,116833	0,5	75,004551
2,125167	0,5	83,881651
2,133500	0,5	87,681401
2,141833	0,5	85,168601
2,150167	0,5	78,354351
2,158500	0,5	69,483801
2,166833	0,5	60,169601
2,175167	0,5	51,865601
2,183500	0,5	45,520951
2,191833	0,5	41,283751
2,200167	0,5	38,876451
2,208500	0,5	38,307101
2,216833	0,5	39,489251
2,225167	0,5	41,784001
2,233500	0,5	43,343901
2,241833	0,5	42,585951
2,250167	0,5	39,862801
2,258500	0,5	36,676251
2,266833	0,5	34,030351
2,275167	0,5	32,131400
2,283500	0,5	30,783500
2,291833	0,5	29,887450
2,300167	0,5	29,296150
2,308500	0,5	28,895050
2,316833	0,5	28,542150
2,325167	0,5	28,328600
2,333500	0,5	28,462700
2,341833	0,5	29,080250
2,350167	0,5	30,086600
2,358500	0,5	31,157150
2,366833	0,5	31,986900
2,375167	0,5	32,815600
2,383500	0,5	33,846101
2,391833	0,5	34,818251
2,400167	0,5	35,044251
2,408500	0,5	34,106601
2,416833	0,5	32,542300
2,425167	0,5	30,971550
2,433500	0,5	29,724700
2,441833	0,5	28,731900
2,450167	0,5	27,946450
2,458500	0,5	27,284250
2,466833	0,5	26,780850
2,475167	0,5	26,394650
2,483500	0,5	26,082850
2,491833	0,5	25,791000
2,500167	0,5	25,576600
2,508500	0,5	25,413200
2,516833	0,5	25,300950
2,525167	0,5	25,226800
2,533500	0,5	25,124000
2,541833	0,5	25,008100
2,550167	0,5	25,434800
2,558500	0,5	26,885800
2,566833	0,5	27,235050
2,575167	0,5	25,596800
2,583500	0,5	23,904650
2,591833	0,5	22,903350
2,600167	0,5	22,369150
2,608500	0,5	22,072250
2,616833	0,5	21,879850
2,625167	0,5	21,769850
2,633500	0,5	21,688150
2,641833	0,5	21,626050
2,650167	0,5	21,598800
2,658500	0,5	21,565400
2,666833	0,5	21,508650
2,675167	0,5	21,450100
2,683500	0,5	21,352650
2,691833	0,5	21,240600
2,700167	0,5	21,076950
2,708500	0,5	20,876350
2,716833	0,5	20,674150
2,725167	0,5	20,485650
2,733500	0,5	20,327350
2,741833	0,5	20,217300
2,750167	0,5	20,188600
2,758500	0,5	20,278200
2,766833	0,5	20,567000
2,775167	0,5	21,059050
2,783500	0,5	21,722250
2,791833	0,5	22,414150
2,800167	0,5	23,037400
2,808500	0,5	23,448050
2,816833	0,5	23,677250
2,825167	0,5	23,716400
2,833500	0,5	23,601450
2,841833	0,5	23,375750
2,850167	0,5	23,223950
2,858500	0,5	23,409350
2,866833	0,5	24,277400
2,875167	0,5	25,972300
2,883500	0,5	28,357050
2,891833	0,5	30,821150
2,900167	0,5	32,581700
2,908500	0,5	33,053800
2,916833	0,5	32,283250
2,925167	0,5	30,936300
2,933500	0,5	29,914000
2,941833	0,5	29,956100
2,950167	0,5	31,180750
2,958500	0,5	33,112450
2,966833	0,5	34,991451
2,975167	0,5	36,109101
2,983500	0,5	36,090001
2,991833	0,5	34,914901
3,000167	0,5	32,840650
3,008500	0,5	30,327700
3,016833	0,5	27,805450
3,025167	0,5	25,666400
3,033500	0,5	24,136250
3,041833	0,5	23,429500
3,050167	0,5	23,727950
3,058500	0,5	25,264700
3,066833	0,5	28,094200
3,075167	0,5	31,924500
3,083500	0,5	35,987801
3,091833	0,5	39,328501
3,100167	0,5	40,999651
3,108500	0,5	40,651401
3,116833	0,5	38,488801
3,125167	0,5	35,073601
3,133500	0,5	31,153150
3,141833	0,5	27,297050
3,150167	0,5	23,955400
3,158500	0,5	21,292650
3,166833	0,5	19,325550
3,175167	0,5	17,910500
3,183500	0,5	16,916900
3,191833	0,5	16,197750
3,200167	0,5	15,677450
3,208500	0,5	15,278650
3,216833	0,5	14,982750
3,225167	0,5	14,751350
3,233500	0,5	14,577900
3,241833	0,5	14,504500
3,250167	0,5	14,467050
3,258500	0,5	14,520350
3,266833	0,5	14,688000
3,275167	0,5	14,937200
3,283500	0,5	15,254150
3,291833	0,5	15,514650
3,300167	0,5	15,663550
3,308500	0,5	15,657600
3,316833	0,5	15,474750
3,325167	0,5	15,167050
3,333500	0,5	14,799100
3,341833	0,5	14,445950
3,350167	0,5	14,139900
3,358500	0,5	13,911900
3,366833	0,5	13,721750
3,375167	0,5	13,563850
3,383500	0,5	13,418000
3,391833	0,5	13,327150
3,400167	0,5	13,184050
3,408500	0,5	13,073500
3,416833	0,5	12,974900
3,425167	0,5	12,896950
3,433500	0,5	12,838750
3,441833	0,5	12,746750
3,450167	0,5	12,675150
3,458500	0,5	12,623750
3,466833	0,5	12,578350
3,475167	0,5	12,546300
3,483500	0,5	12,546500
3,491833	0,5	12,583350
3,500167	0,5	12,702250
3,508500	0,5	12,880300
3,516833	0,5	13,121050
3,525167	0,5	13,346200
3,533500	0,5	13,539350
3,541833	0,5	13,610100
3,550167	0,5	13,485950
3,558500	0,5	13,235300
3,566833	0,5	12,909400
3,575167	0,5	12,572350
3,583500	0,5	12,291900
3,591833	0,5	12,058950
3,600167	0,5	11,932550
3,608500	0,5	11,900050
3,616833	0,5	11,966950
3,625167	0,5	12,108900
3,633500	0,5	12,303950
3,641833	0,5	12,506650
3,650167	0,5	12,690300
3,658500	0,5	12,814300
3,666833	0,5	12,829000
3,675167	0,5	12,740050
3,683500	0,5	12,578650
3,691833	0,5	12,334500
3,700167	0,5	12,060700
3,708500	0,5	11,819250
3,716833	0,5	11,610850
3,725167	0,5	11,468400
3,733500	0,5	11,354400
3,741833	0,5	11,279900
3,750167	0,5	11,214850
3,758500	0,5	11,171700
3,766833	0,5	11,114300
3,775167	0,5	11,060900
3,783500	0,5	10,994650
3,791833	0,5	10,922550
3,800167	0,5	10,850350
3,808500	0,5	10,782000
3,816833	0,5	10,728800
3,825167	0,5	10,685450
3,833500	0,5	10,662650
3,841833	0,5	10,629250
3,850167	0,5	10,600250
3,858500	0,5	10,582950
3,866833	0,5	10,572700
3,875167	0,5	10,554800
3,883500	0,5	10,521550
3,891833	0,5	10,454750
3,900167	0,5	10,405550
3,908500	0,5	10,350600
3,916833	0,5	10,317200
3,925167	0,5	10,288150
3,933500	0,5	10,290000
3,941833	0,5	10,297800
3,950167	0,5	10,317050
3,958500	0,5	10,329400
3,966833	0,5	10,318800
3,975167	0,5	10,293850
3,983500	0,5	10,255750
3,991833	0,5	10,168150
4,000167	0,5	10,080450
4,008500	0,5	9,998300
4,016833	0,5	9,942300
4,025167	0,5	9,896550
4,033500	0,5	9,849950
4,041833	0,5	9,818450
4,050167	0,5	9,796200
4,058500	0,5	9,782550
4,066833	0,5	9,772950
4,075167	0,5	9,775950
4,083500	0,5	9,772950
4,091833	0,5	9,777700
4,100167	0,5	9,778100
4,108500	0,5	9,782700
4,116833	0,5	9,776200
4,125167	0,5	9,823550
4,133500	0,5	9,837450
4,141833	0,5	9,843200
4,150167	0,5	9,855600
4,158500	0,5	9,880100
4,166833	0,5	9,925250
4,175167	0,5	9,955800
4,183500	0,5	9,978850
4,191833	0,5	9,989350
4,200167	0,5	9,987200
4,208500	0,5	9,974400
4,216833	0,5	9,945000
4,225167	0,5	9,917400
4,233500	0,5	9,877200
4,241833	0,5	9,833700
4,250167	0,5	9,800050
4,258500	0,5	9,754950
4,266833	0,5	9,722000
4,275167	0,5	9,721700
4,283500	0,5	9,687700
4,291833	0,5	9,660250
4,300167	0,5	9,647650
4,308500	0,5	9,644850
4,316833	0,5	9,673200
4,325167	0,5	9,668550
4,333500	0,5	9,674750
4,341833	0,5	9,682600
4,350167	0,5	9,709550
4,358500	0,5	9,732200
4,366833	0,5	9,765500
4,375167	0,5	9,790550
4,383500	0,5	9,814000
4,391833	0,5	9,835700
4,400167	0,5	9,839900
4,408500	0,5	9,830600
4,416833	0,5	9,785200
4,425167	0,5	9,763550
4,433500	0,5	9,675750
4,441833	0,5	9,600550
4,450167	0,5	9,531050
4,458500	0,5	9,476500
4,466833	0,5	9,443650
4,475167	0,5	9,387900
4,483500	0,5	9,334950
4,491833	0,5	9,306900
4,500167	0,5	9,268100
4,508500	0,5	9,251850
4,516833	0,5	9,226600
4,525167	0,5	9,205200
4,533500	0,5	9,184100
4,541833	0,5	9,164050
4,550167	0,5	9,152250
4,558500	0,5	9,129150
4,566833	0,5	9,112050
4,575167	0,5	9,109350
4,583500	0,5	9,077500
4,591833	0,5	9,062200
4,600167	0,5	9,057550
4,608500	0,5	9,061350
4,616833	0,5	9,075500
4,625167	0,5	9,053750
4,633500	0,5	9,053400
4,641833	0,5	9,039650
4,650167	0,5	9,045050
4,658500	0,5	9,033400
4,666833	0,5	9,031350
4,675167	0,5	9,019650
4,683500	0,5	9,016000
4,691833	0,5	9,015850
4,700167	0,5	9,006050
4,708500	0,5	9,002400
4,716833	0,5	9,025050
4,725167	0,5	9,031300
4,733500	0,5	9,040900
4,741833	0,5	9,071350
4,750167	0,5	9,121450
4,758500	0,5	9,204850
4,766833	0,5	9,293100
4,775167	0,5	9,389650
4,783500	0,5	9,488550
4,791833	0,5	9,610150
4,800167	0,5	9,729800
4,808500	0,5	9,857500
4,816833	0,5	9,959200
4,825167	0,5	10,053950
4,833500	0,5	10,114400
4,841833	0,5	10,156550
4,850167	0,5	10,151800
4,858500	0,5	10,130650
4,866833	0,5	10,092600
4,875167	0,5	10,031700
4,883500	0,5	9,950300
4,891833	0,5	9,890900
4,900167	0,5	9,833200
4,908500	0,5	9,795200
4,916833	0,5	9,750450
4,925167	0,5	9,690550
4,933500	0,5	9,639650
4,941833	0,5	9,583950
4,950167	0,5	9,529150
4,958500	0,5	9,460250
4,966833	0,5	9,390550
4,975167	0,5	9,310900
4,983500	0,5	9,243250
4,991833	0,5	9,165050
5,000167	0,5	9,092150
5,008500	0,5	9,033950
5,016833	0,5	8,983550
5,025167	0,5	8,909850
5,033500	0,5	8,855300
5,041833	0,5	8,809100
5,050167	0,5	8,782200
5,058500	0,5	8,757900
5,066833	0,5	8,720600
5,075167	0,5	8,685900
5,083500	0,5	8,663950
5,091833	0,5	8,631650
5,100167	0,5	8,605950
5,108500	0,5	8,581700
5,116833	0,5	8,555000
5,125167	0,5	8,539750
5,133500	0,5	8,522250
5,141833	0,5	8,511250
5,150167	0,5	8,482200
5,158500	0,5	8,493900
5,166833	0,5	8,478150
5,175167	0,5	8,453900
5,183500	0,5	8,447550
5,191833	0,5	8,458200
5,200167	0,5	8,485250
5,208500	0,5	8,505200
5,216833	0,5	8,514050
5,225167	0,5	8,540550
5,233500	0,5	8,567000
5,241833	0,5	8,602350
5,250167	0,5	8,624600
5,258500	0,5	8,649850
5,266833	0,5	8,653300
5,275167	0,5	8,648050
5,283500	0,5	8,636550
5,291833	0,5	8,595200
5,300167	0,5	8,536100
5,308500	0,5	8,503500
5,316833	0,5	8,437050
5,325167	0,5	8,366950
5,333500	0,5	8,311600
5,341833	0,5	8,262650
5,350167	0,5	8,240600
5,358500	0,5	8,192350
5,366833	0,5	8,165000
5,375167	0,5	8,129700
5,383500	0,5	8,111200
5,391833	0,5	8,084900
5,400167	0,5	8,070300
5,408500	0,5	8,044550
5,416833	0,5	8,031150
5,425167	0,5	8,014800
5,433500	0,5	8,004200
5,441833	0,5	7,990000
5,450167	0,5	7,976450
5,458500	0,5	7,986700
5,466833	0,5	7,968250
5,475167	0,5	7,961150
5,483500	0,5	7,958800
5,491833	0,5	7,968550
5,500167	0,5	7,988300
5,508500	0,5	7,986250
5,516833	0,5	7,977300
5,525167	0,5	7,978150
5,533500	0,5	7,969050
5,541833	0,5	7,972850
5,550167	0,5	7,964450
5,558500	0,5	7,968500
5,566833	0,5	7,966550
5,575167	0,5	7,975300
5,583500	0,5	7,975250
5,591833	0,5	7,979400
5,600167	0,5	7,977450
5,608500	0,5	7,996450
5,616833	0,5	7,973700
5,625167	0,5	7,971950
5,633500	0,5	7,970250
5,641833	0,5	7,979750
5,650167	0,5	7,992700
5,658500	0,5	7,980550
5,666833	0,5	7,963100
5,675167	0,5	7,952950
5,683500	0,5	7,943200
5,691833	0,5	7,930450
5,700167	0,5	7,924750
5,708500	0,5	7,911150
5,716833	0,5	7,903600
5,725167	0,5	7,895200
5,733500	0,5	7,887450
5,741833	0,5	7,873250
5,750167	0,5	7,878750
5,758500	0,5	7,865550
5,766833	0,5	7,845300
5,775167	0,5	7,837400
5,783500	0,5	7,830700
5,791833	0,5	7,834600
5,800167	0,5	7,842200
5,808500	0,5	7,828250
5,816833	0,5	7,820900
5,825167	0,5	7,806700
5,833500	0,5	7,796950
5,841833	0,5	7,786100
5,850167	0,5	7,777800
5,858500	0,5	7,770400
5,866833	0,5	7,761200
5,875167	0,5	7,752200
5,883500	0,5	7,729350
5,891833	0,5	7,718600
5,900167	0,5	7,718000
5,908500	0,5	7,704000
5,916833	0,5	7,680100
5,925167	0,5	7,680450
5,933500	0,5	7,673850
5,941833	0,5	7,689300
5,950167	0,5	7,679800
5,958500	0,5	7,677750
5,966833	0,5	7,661850
5,975167	0,5	7,658550
5,983500	0,5	7,651950
5,991833	0,5	7,646150
6,000167	0,5	7,639950
6,008500	0,5	7,634200
6,016833	0,5	7,629800
6,025167	0,5	7,621950
6,033500	0,5	7,609450
6,041833	0,5	7,611150
6,050167	0,5	7,614600
6,058500	0,5	7,598600
6,066833	0,5	7,587200
6,075167	0,5	7,582700
6,083500	0,5	7,592200
6,091833	0,5	7,603400
6,100167	0,5	7,603500
6,108500	0,5	7,596250
6,116833	0,5	7,603300
6,125167	0,5	7,600500
6,133500	0,5	7,608800
6,141833	0,5	7,605900
6,150167	0,5	7,605050
6,158500	0,5	7,605550
6,166833	0,5	7,606900
6,175167	0,5	7,609150
6,183500	0,5	7,596850
6,191833	0,5	7,597550
6,200167	0,5	7,591300
6,208500	0,5	7,576100
6,216833	0,5	7,564100
6,225167	0,5	7,560350
6,233500	0,5	7,571500
6,241833	0,5	7,576150
6,250167	0,5	7,562850
6,258500	0,5	7,562850
6,266833	0,5	7,556700
6,275167	0,5	7,559750
6,283500	0,5	7,557100
6,291833	0,5	7,567850
6,300167	0,5	7,568400
6,308500	0,5	7,583050
6,316833	0,5	7,600000
6,325167	0,5	7,624950
6,333500	0,5	7,636450
6,341833	0,5	7,690350
6,350167	0,5	7,713750
6,358500	0,5	7,745500
6,366833	0,5	7,773200
6,375167	0,5	7,808750
6,383500	0,5	7,850650
6,391833	0,5	7,861150
6,400167	0,5	7,870150
6,408500	0,5	7,862500
6,416833	0,5	7,859500
6,425167	0,5	7,847500
6,433500	0,5	7,828600
6,441833	0,5	7,806150
6,450167	0,5	7,783400
6,458500	0,5	7,760350
6,466833	0,5	7,741050
6,475167	0,5	7,708250
6,483500	0,5	7,687650
6,491833	0,5	7,679950
6,500167	0,5	7,653050
6,508500	0,5	7,631400
6,516833	0,5	7,618500
6,525167	0,5	7,613250
6,533500	0,5	7,621250
6,541833	0,5	7,614950
6,550167	0,5	7,603850
6,558500	0,5	7,593200
6,566833	0,5	7,591400
6,575167	0,5	7,585350
6,583500	0,5	7,587900
6,591833	0,5	7,591300
6,600167	0,5	7,603350
6,608500	0,5	7,626600
6,616833	0,5	7,649900
6,625167	0,5	7,683300
6,633500	0,5	7,724100
6,641833	0,5	7,784100
6,650167	0,5	7,832250
6,658500	0,5	7,898300
6,666833	0,5	7,972600
6,675167	0,5	8,071800
6,683500	0,5	8,169850
6,691833	0,5	8,277750
6,700167	0,5	8,378950
6,708500	0,5	8,519500
6,716833	0,5	8,683100
6,725167	0,5	8,906900
6,733500	0,5	9,206150
6,741833	0,5	9,628500
6,750167	0,5	10,225100
6,758500	0,5	11,048350
6,766833	0,5	12,160400
6,775167	0,5	13,573300
6,783500	0,5	15,288950
6,791833	0,5	17,202450
6,800167	0,5	19,158150
6,808500	0,5	20,988950
6,816833	0,5	22,469450
6,825167	0,5	23,430850
6,833500	0,5	23,758550
6,841833	0,5	23,408950
6,850167	0,5	22,495250
6,858500	0,5	21,123450
6,866833	0,5	19,486950
6,875167	0,5	17,736500
6,883500	0,5	16,028250
6,891833	0,5	14,462100
6,900167	0,5	13,102350
6,908500	0,5	11,954800
6,916833	0,5	11,018700
6,925167	0,5	10,271750
6,933500	0,5	9,712450
6,941833	0,5	9,264050
6,950167	0,5	8,917300
6,958500	0,5	8,660900
6,966833	0,5	8,463300
6,975167	0,5	8,318200
6,983500	0,5	8,181850
6,991833	0,5	8,070400
7,000167	0,5	7,963050
7,008500	0,5	7,874250
7,016833	0,5	7,792700
7,025167	0,5	7,721850
7,033500	0,5	7,659900
7,041833	0,5	7,606150
7,050167	0,5	7,558050
7,058500	0,5	7,519400
7,066833	0,5	7,473250
7,075167	0,5	7,440900
7,083500	0,5	7,415450
7,091833	0,5	7,377950
7,100167	0,5	7,340000
7,108500	0,5	7,313800
7,116833	0,5	7,288500
7,125167	0,5	7,275450
7,133500	0,5	7,253750
7,141833	0,5	7,230450
7,150167	0,5	7,214700
7,158500	0,5	7,191950
7,166833	0,5	7,170950
7,175167	0,5	7,144850
7,183500	0,5	7,121850
7,191833	0,5	7,103400
7,200167	0,5	7,080250
7,208500	0,5	7,060500
7,216833	0,5	7,038900
7,225167	0,5	7,018950
7,233500	0,5	7,003350
7,241833	0,5	6,979550
7,250167	0,5	6,960300
7,258500	0,5	6,952250
7,266833	0,5	6,947800
7,275167	0,5	6,937800
7,283500	0,5	6,920950
7,291833	0,5	6,900500
7,300167	0,5	6,890550
7,308500	0,5	6,876000
7,316833	0,5	6,863200
7,325167	0,5	6,851950
7,333500	0,5	6,836850
7,341833	0,5	6,820600
7,350167	0,5	6,806350
7,358500	0,5	6,798750
7,366833	0,5	6,777950
7,375167	0,5	6,769000
7,383500	0,5	6,749500
7,391833	0,5	6,732950
7,400167	0,5	6,711100
7,408500	0,5	6,703050
7,416833	0,5	6,701150
7,425167	0,5	6,704950
7,433500	0,5	6,698850
7,441833	0,5	6,700600
7,450167	0,5	6,700550
7,458500	0,5	6,697650
7,466833	0,5	6,685400
7,475167	0,5	6,674900
7,483500	0,5	6,657050
7,491833	0,5	6,642950
7,500167	0,5	6,640600
7,508500	0,5	6,647400
7,516833	0,5	6,691600
7,525167	0,5	6,788750
7,533500	0,5	6,900700
7,541833	0,5	6,993350
7,550167	0,5	7,023550
7,558500	0,5	6,979450
7,566833	0,5	6,902750
7,575167	0,5	6,816150
7,583500	0,5	6,745600
7,591833	0,5	6,689600
7,600167	0,5	6,645650
7,608500	0,5	6,597350
7,616833	0,5	6,560600
7,625167	0,5	6,522700
7,633500	0,5	6,492500
7,641833	0,5	6,470100
7,650167	0,5	6,449350
7,658500	0,5	6,433050
7,666833	0,5	6,431800
7,675167	0,5	6,434150
7,683500	0,5	6,430050
7,691833	0,5	6,431300
7,700167	0,5	6,435150
7,708500	0,5	6,459400
7,716833	0,5	6,497500
7,725167	0,5	6,555450
7,733500	0,5	6,632200
7,741833	0,5	6,754050
7,750167	0,5	6,911950
7,758500	0,5	7,125300
7,766833	0,5	7,409100
7,775167	0,5	7,797900
7,783500	0,5	8,327700
7,791833	0,5	9,083550
7,800167	0,5	10,153350
7,808500	0,5	11,650350
7,816833	0,5	13,684700
7,825167	0,5	16,303300
7,833500	0,5	19,469800
7,841833	0,5	23,035150
7,850167	0,5	26,675250
7,858500	0,5	29,955300
7,866833	0,5	32,365150
7,875167	0,5	33,463150
7,883500	0,5	33,025450
7,891833	0,5	31,100900
7,900167	0,5	28,026650
7,908500	0,5	24,294050
7,916833	0,5	20,429400
7,925167	0,5	16,848100
7,933500	0,5	13,843900
7,941833	0,5	11,533350
7,950167	0,5	9,897350
7,958500	0,5	8,823750
7,966833	0,5	8,162350
7,975167	0,5	7,768200
7,983500	0,5	7,554700
7,991833	0,5	7,479300
8,000167	0,5	7,530000
8,008500	0,5	7,701650
8,016833	0,5	7,959300
8,025167	0,5	8,247200
8,033500	0,5	8,485250
8,041833	0,5	8,601000
8,050167	0,5	8,555850
8,058500	0,5	8,366950
8,066833	0,5	8,078100
8,075167	0,5	7,746850
8,083500	0,5	7,421600
8,091833	0,5	7,135050
8,100167	0,5	6,892000
8,108500	0,5	6,704150
8,116833	0,5	6,575600
8,125167	0,5	6,467950
8,133500	0,5	6,391400
8,141833	0,5	6,349700
8,150167	0,5	6,348050
8,158500	0,5	6,397950
8,166833	0,5	6,452250
8,175167	0,5	6,480900
8,183500	0,5	6,439100
8,191833	0,5	6,346800
8,200167	0,5	6,233750
8,208500	0,5	6,138750
8,216833	0,5	6,072300
8,225167	0,5	6,025350
8,233500	0,5	5,997700
8,241833	0,5	5,978400
8,250167	0,5	5,959850
8,258500	0,5	5,948800
8,266833	0,5	5,945200
8,275167	0,5	5,932550
8,283500	0,5	5,914750
8,291833	0,5	5,893200
8,300167	0,5	5,881800
8,308500	0,5	5,873050
8,316833	0,5	5,872600
8,325167	0,5	5,880600
8,333500	0,5	5,893300
8,341833	0,5	5,896700
8,350167	0,5	5,894050
8,358500	0,5	5,878900
8,366833	0,5	5,857450
8,375167	0,5	5,850850
8,383500	0,5	5,876800
8,391833	0,5	5,941900
8,400167	0,5	6,031650
8,408500	0,5	6,101500
8,416833	0,5	6,106650
8,425167	0,5	6,041850
8,433500	0,5	5,941300
8,441833	0,5	5,850700
8,450167	0,5	5,778650
8,458500	0,5	5,729050
8,466833	0,5	5,692150
8,475167	0,5	5,674100
8,483500	0,5	5,662850
8,491833	0,5	5,652850
8,500167	0,5	5,641500
8,508500	0,5	5,625000
8,516833	0,5	5,603800
8,525167	0,5	5,584800
8,533500	0,5	5,569600
8,541833	0,5	5,563100
8,550167	0,5	5,558550
8,558500	0,5	5,558700
8,566833	0,5	5,557500
8,575167	0,5	5,554750
8,583500	0,5	5,559150
8,591833	0,5	5,576800
8,600167	0,5	5,612150
8,608500	0,5	5,682850
8,616833	0,5	5,785550
8,625167	0,5	5,895100
8,633500	0,5	5,962500
8,641833	0,5	5,962750
8,650167	0,5	5,913650
8,658500	0,5	5,842900
8,666833	0,5	5,788750
8,675167	0,5	5,750400
8,683500	0,5	5,736400
8,691833	0,5	5,730500
8,700167	0,5	5,742150
8,708500	0,5	5,766100
8,716833	0,5	5,823950
8,725167	0,5	5,929450
8,733500	0,5	6,080550
8,741833	0,5	6,226150
8,750167	0,5	6,297050
8,758500	0,5	6,260100
8,766833	0,5	6,141550
8,775167	0,5	5,997300
8,783500	0,5	5,878250
8,791833	0,5	5,823050
8,800167	0,5	5,839550
8,808500	0,5	5,911350
8,816833	0,5	5,981350
8,825167	0,5	6,023400
8,833500	0,5	6,017100
8,841833	0,5	5,988900
8,850167	0,5	5,956650
8,858500	0,5	5,926850
8,866833	0,5	5,893750
8,875167	0,5	5,870650
8,883500	0,5	5,861850
8,891833	0,5	5,867100
8,900167	0,5	5,885200
8,908500	0,5	5,922050
8,916833	0,5	5,972200
8,925167	0,5	6,035350
8,933500	0,5	6,119050
8,941833	0,5	6,219250
8,950167	0,5	6,348100
8,958500	0,5	6,535100
8,966833	0,5	6,734700
8,975167	0,5	6,859650
8,983500	0,5	6,907800
8,991833	0,5	6,897100
9,000167	0,5	6,871350
9,008500	0,5	6,854400
9,016833	0,5	6,873200
9,025167	0,5	6,960700
9,033500	0,5	7,184850
9,041833	0,5	7,653250
9,050167	0,5	8,591200
9,058500	0,5	10,372550
9,066833	0,5	12,300250
9,075167	0,5	13,240650
9,083500	0,5	12,806850
9,091833	0,5	11,771150
9,100167	0,5	10,921500
9,108500	0,5	10,365000
9,116833	0,5	10,003600
9,125167	0,5	9,715950
9,133500	0,5	9,514800
9,141833	0,5	9,466150
9,150167	0,5	9,658650
9,158500	0,5	10,075300
9,166833	0,5	10,666900
9,175167	0,5	11,341400
9,183500	0,5	11,990500
9,191833	0,5	12,523300
9,200167	0,5	12,854650
9,208500	0,5	12,946150
9,216833	0,5	12,783500
9,225167	0,5	12,401950
9,233500	0,5	11,845400
9,241833	0,5	11,201500
9,250167	0,5	10,543300
9,258500	0,5	9,953150
9,266833	0,5	9,497750
9,275167	0,5	9,223000
9,283500	0,5	9,146300
9,291833	0,5	9,251350
9,300167	0,5	9,500250
9,308500	0,5	9,795700
9,316833	0,5	10,047200
9,325167	0,5	10,161550
9,333500	0,5	10,084300
9,341833	0,5	9,811200
9,350167	0,5	9,393700
9,358500	0,5	8,904700
9,366833	0,5	8,428100
9,375167	0,5	8,014200
9,383500	0,5	7,686100
9,391833	0,5	7,430450
9,400167	0,5	7,230700
9,408500	0,5	7,063900
9,416833	0,5	6,912650
9,425167	0,5	6,770500
9,433500	0,5	6,649250
9,441833	0,5	6,551100
9,450167	0,5	6,483750
9,458500	0,5	6,431600
9,466833	0,5	6,380450
9,475167	0,5	6,316500
9,483500	0,5	6,236150
9,491833	0,5	6,143550
9,500167	0,5	6,045250
9,508500	0,5	5,949700
9,516833	0,5	5,865100
9,525167	0,5	5,791700
9,533500	0,5	5,733950
9,541833	0,5	5,688350
9,550167	0,5	5,651100
9,558500	0,5	5,620450
9,566833	0,5	5,597550
9,575167	0,5	5,578500
9,583500	0,5	5,556550
9,591833	0,5	5,544550
9,600167	0,5	5,536700
9,608500	0,5	5,531850
9,616833	0,5	5,528850
9,625167	0,5	5,536300
9,633500	0,5	5,550000
9,641833	0,5	5,569750
9,650167	0,5	5,600800
9,658500	0,5	5,632500
9,666833	0,5	5,661550
9,675167	0,5	5,687800
9,683500	0,5	5,706450
9,691833	0,5	5,717450
9,700167	0,5	5,723250
9,708500	0,5	5,737700
9,716833	0,5	5,778400
9,725167	0,5	5,851000
9,733500	0,5	5,963500
9,741833	0,5	6,126000
9,750167	0,5	6,334500
9,758500	0,5	6,577100
9,766833	0,5	6,846850
9,775167	0,5	7,123800
9,783500	0,5	7,393000
9,791833	0,5	7,627650
9,800167	0,5	7,825600
9,808500	0,5	7,989950
9,816833	0,5	8,132850
9,825167	0,5	8,265800
9,833500	0,5	8,394500
9,841833	0,5	8,515150
9,850167	0,5	8,627000
9,858500	0,5	8,730900
9,866833	0,5	8,821250
9,875167	0,5	8,899750
9,883500	0,5	8,956800
9,891833	0,5	8,987300
9,900167	0,5	8,969500
9,908500	0,5	8,877800
9,916833	0,5	8,709250
9,925167	0,5	8,435250
9,933500	0,5	8,080000
9,941833	0,5	7,649800
9,950167	0,5	7,200850
9,958500	0,5	6,766700
9,966833	0,5	6,391900
9,975167	0,5	6,091550
9,983500	0,5	5,869350
9,991833	0,5	5,710650
10,000167	0,5	5,604500
10,008500	0,5	5,532250
10,016833	0,5	5,477500
10,025167	0,5	5,436800
10,033500	0,5	5,403200
10,041833	0,5	5,391900
10,050167	0,5	5,397350
10,058500	0,5	5,424150
10,066833	0,5	5,468800
10,075167	0,5	5,512950
10,083500	0,5	5,550300
10,091833	0,5	5,559150
10,100167	0,5	5,544750
10,108500	0,5	5,506000
10,116833	0,5	5,451900
10,125167	0,5	5,399250
10,133500	0,5	5,339650
10,141833	0,5	5,289850
10,150167	0,5	5,240450
10,158500	0,5	5,193550
10,166833	0,5	5,149400
10,175167	0,5	5,108700
10,183500	0,5	5,065300
10,191833	0,5	5,031550
10,200167	0,5	5,000300
10,208500	0,5	4,980350
10,216833	0,5	4,967950
10,225167	0,5	4,963350
10,233500	0,5	4,970800
10,241833	0,5	4,984150
10,250167	0,5	5,004400
10,258500	0,5	5,026100
10,266833	0,5	5,056300
10,275167	0,5	5,093350
10,283500	0,5	5,141900
10,291833	0,5	5,192200
10,300167	0,5	5,252100
10,308500	0,5	5,310500
10,316833	0,5	5,374900
10,325167	0,5	5,431550
10,333500	0,5	5,483800
10,341833	0,5	5,519000
10,350167	0,5	5,524500
10,358500	0,5	5,490200
10,366833	0,5	5,429500
10,375167	0,5	5,344950
10,383500	0,5	5,254750
10,391833	0,5	5,165000
10,400167	0,5	5,080600
10,408500	0,5	5,006550
10,416833	0,5	4,941650
10,425167	0,5	4,885750
10,433500	0,5	4,836550
10,441833	0,5	4,797950
10,450167	0,5	4,768700
10,458500	0,5	4,758500
10,466833	0,5	4,754150
10,475167	0,5	4,762150
10,483500	0,5	4,780500
10,491833	0,5	4,802700
10,500167	0,5	4,823400
10,508500	0,5	4,844800
10,516833	0,5	4,866550
10,525167	0,5	4,903150
10,533500	0,5	4,952150
10,541833	0,5	5,011250
10,550167	0,5	5,068650
10,558500	0,5	5,122450
10,566833	0,5	5,153400
10,575167	0,5	5,152500
10,583500	0,5	5,116400
10,591833	0,5	5,050200
10,600167	0,5	4,967700
10,608500	0,5	4,877250
10,616833	0,5	4,799200
10,625167	0,5	4,725500
10,633500	0,5	4,670700
10,641833	0,5	4,612250
10,650167	0,5	4,561250
10,658500	0,5	4,514400
10,666833	0,5	4,479500
10,675167	0,5	4,456700
10,683500	0,5	4,453800
10,691833	0,5	4,466450
10,700167	0,5	4,487250
10,708500	0,5	4,517800
10,716833	0,5	4,560200
10,725167	0,5	4,607150
10,733500	0,5	4,668900
10,741833	0,5	4,745900
10,750167	0,5	4,820950
10,758500	0,5	4,879100
10,766833	0,5	4,899450
10,775167	0,5	4,881000
10,783500	0,5	4,821050
10,791833	0,5	4,728000
10,800167	0,5	4,623650
10,808500	0,5	4,523100
10,816833	0,5	4,435050
10,825167	0,5	4,365250
10,833500	0,5	4,303700
10,841833	0,5	4,257350
10,850167	0,5	4,211650
10,858500	0,5	4,181800
10,866833	0,5	4,164850
10,875167	0,5	4,162000
10,883500	0,5	4,178750
10,891833	0,5	4,209850
10,900167	0,5	4,265100
10,908500	0,5	4,343100
10,916833	0,5	4,435300
10,925167	0,5	4,543900
10,933500	0,5	4,637250
10,941833	0,5	4,690400
10,950167	0,5	4,689650
10,958500	0,5	4,629100
10,966833	0,5	4,536500
10,975167	0,5	4,425400
10,983500	0,5	4,318350
10,991833	0,5	4,228300
11,000167	0,5	4,153750
11,008500	0,5	4,093350
11,016833	0,5	4,049350
11,025167	0,5	4,014200
11,033500	0,5	3,994800
11,041833	0,5	3,986650
11,050167	0,5	4,001500
11,058500	0,5	4,039800
11,066833	0,5	4,104000
11,075167	0,5	4,199100
11,083500	0,5	4,301850
11,091833	0,5	4,387950
11,100167	0,5	4,437550
11,108500	0,5	4,423250
11,116833	0,5	4,355800
11,125167	0,5	4,234450
11,133500	0,5	4,085350
11,141833	0,5	3,930200
11,150167	0,5	3,778950
11,158500	0,5	3,638850
11,166833	0,5	3,509250
11,175167	0,5	3,397050
11,183500	0,5	3,300000
11,191833	0,5	3,232600
11,200167	0,5	3,201250
11,208500	0,5	3,210700
11,216833	0,5	3,258900
11,225167	0,5	3,355150
11,233500	0,5	3,462700
11,241833	0,5	3,567850
11,250167	0,5	3,648050
11,258500	0,5	3,686050
11,266833	0,5	3,694400
11,275167	0,5	3,670900
11,283500	0,5	3,631400
11,291833	0,5	3,587900
11,300167	0,5	3,547050
11,308500	0,5	3,512800
11,316833	0,5	3,483750
11,325167	0,5	3,464050
11,333500	0,5	3,455950
11,341833	0,5	3,465150
11,350167	0,5	3,486850
11,358500	0,5	3,505650
11,366833	0,5	3,529300
11,375167	0,5	3,547450
11,383500	0,5	3,536650
11,391833	0,5	3,507800
11,400167	0,5	3,465950
11,408500	0,5	3,419250
11,416833	0,5	3,382900
11,425167	0,5	3,351400
11,433500	0,5	3,331850
11,441833	0,5	3,317350
11,450167	0,5	3,312450
11,458500	0,5	3,313900
11,466833	0,5	3,322150
11,475167	0,5	3,335150
11,483500	0,5	3,349550
11,491833	0,5	3,367000
11,500167	0,5	3,373650
11,508500	0,5	3,371900
11,516833	0,5	3,368300
11,525167	0,5	3,363950
11,533500	0,5	3,351550
11,541833	0,5	3,345150
11,550167	0,5	3,343650
11,558500	0,5	3,352250
11,566833	0,5	3,368200
11,575167	0,5	3,395450
11,583500	0,5	3,423000
11,591833	0,5	3,457900
11,600167	0,5	3,488450
11,608500	0,5	3,517650
11,616833	0,5	3,537300
11,625167	0,5	3,543600
11,633500	0,5	3,545150
11,641833	0,5	3,542350
11,650167	0,5	3,529650
11,658500	0,5	3,521650
11,666833	0,5	3,519750
11,675167	0,5	3,515850
11,683500	0,5	3,518000
11,691833	0,5	3,515800
11,700167	0,5	3,522200
11,708500	0,5	3,536800
11,716833	0,5	3,555600
11,725167	0,5	3,570350
11,733500	0,5	3,583200
11,741833	0,5	3,596900
11,750167	0,5	3,608450
11,758500	0,5	3,614500
11,766833	0,5	3,625600
11,775167	0,5	3,643200
11,783500	0,5	3,675850
11,791833	0,5	3,735950
11,800167	0,5	3,808750
11,808500	0,5	3,930750
11,816833	0,5	4,078050
11,825167	0,5	4,243950
11,833500	0,5	4,410050
11,841833	0,5	4,551900
11,850167	0,5	4,656250
11,858500	0,5	4,706300
11,866833	0,5	4,681900
11,875167	0,5	4,602600
11,883500	0,5	4,481450
11,891833	0,5	4,330850
11,900167	0,5	4,177000
11,908500	0,5	4,041950
11,916833	0,5	3,921600
11,925167	0,5	3,826900
11,933500	0,5	3,761450
11,941833	0,5	3,724350
11,950167	0,5	3,697850
11,958500	0,5	3,711150
11,966833	0,5	3,735600
11,975167	0,5	3,773200
11,983500	0,5	3,819650
11,991833	0,5	3,859200
12,000167	0,5	3,914900
12,008500	0,5	3,959800
12,016833	0,5	3,990450
12,025167	0,5	4,008400
12,033500	0,5	4,016400
12,041833	0,5	4,011850
12,050167	0,5	4,005300
12,058500	0,5	3,999700
12,066833	0,5	3,998700
12,075167	0,5	4,012850
12,083500	0,5	4,044350
12,091833	0,5	4,083350
12,100167	0,5	4,132400
12,108500	0,5	4,208950
12,116833	0,5	4,301150
12,125167	0,5	4,403900
12,133500	0,5	4,511250
12,141833	0,5	4,602800
12,150167	0,5	4,674550
12,158500	0,5	4,700500
12,166833	0,5	4,677350
12,175167	0,5	4,603900
12,183500	0,5	4,495750
12,191833	0,5	4,373450
12,200167	0,5	4,251050
12,208500	0,5	4,148100
12,216833	0,5	4,068300
12,225167	0,5	4,020900
12,233500	0,5	3,991950
12,241833	0,5	3,975150
12,250167	0,5	3,961400
12,258500	0,5	3,956750
12,266833	0,5	3,941250
12,275167	0,5	3,914150
12,283500	0,5	3,885900
12,291833	0,5	3,853000
12,300167	0,5	3,823400
12,308500	0,5	3,792850
12,316833	0,5	3,760450
12,325167	0,5	3,730500
12,333500	0,5	3,693700
12,341833	0,5	3,661800
12,350167	0,5	3,631750
12,358500	0,5	3,606200
12,366833	0,5	3,583350
12,375167	0,5	3,571050
12,383500	0,5	3,562300
12,391833	0,5	3,547800
12,400167	0,5	3,543550
12,408500	0,5	3,541800
12,416833	0,5	3,531350
12,425167	0,5	3,521800
12,433500	0,5	3,518450
12,441833	0,5	3,515200
12,450167	0,5	3,527050
12,458500	0,5	3,535550
12,466833	0,5	3,548950
12,475167	0,5	3,563450
12,483500	0,5	3,581800
12,491833	0,5	3,604400
12,500167	0,5	3,640100
12,508500	0,5	3,684900
12,516833	0,5	3,736500
12,525167	0,5	3,809700
12,533500	0,5	3,876900
12,541833	0,5	3,942150
12,550167	0,5	4,019500
12,558500	0,5	4,086350
12,566833	0,5	4,148050
12,575167	0,5	4,218800
12,583500	0,5	4,294750
12,591833	0,5	4,380600
12,600167	0,5	4,472350
12,608500	0,5	4,567900
12,616833	0,5	4,659300
12,625167	0,5	4,755900
12,633500	0,5	4,836750
12,641833	0,5	4,907300
12,650167	0,5	4,952350
12,658500	0,5	4,979850
12,666833	0,5	4,989250
12,675167	0,5	4,970150
12,683500	0,5	4,917350
12,691833	0,5	4,855100
12,700167	0,5	4,799550
12,708500	0,5	4,742200
12,716833	0,5	4,670300
12,725167	0,5	4,578350
12,733500	0,5	4,469350
12,741833	0,5	4,344800
12,750167	0,5	4,218500
12,758500	0,5	4,107650
12,766833	0,5	4,028600
12,775167	0,5	3,997300
12,783500	0,5	4,016500
12,791833	0,5	4,068850
12,800167	0,5	4,139200
12,808500	0,5	4,211750
12,816833	0,5	4,260750
12,825167	0,5	4,252000
12,833500	0,5	4,214050
12,841833	0,5	4,257000
12,850167	0,5	4,475500
12,858500	0,5	4,607000
12,866833	0,5	4,695450
12,875167	0,5	4,842150
12,883500	0,5	5,065350
12,891833	0,5	5,074550
12,900167	0,5	4,840250
12,908500	0,5	4,473500
12,916833	0,5	3,965450
12,925167	0,5	3,574200
12,933500	0,5	3,315100
12,941833	0,5	3,137000
12,950167	0,5	3,005850
12,958500	0,5	2,901600
12,966833	0,5	2,819500
12,975167	0,5	2,751650
12,983500	0,5	2,675900
12,991833	0,5	2,623950
13,000167	0,5	2,573500
13,008500	0,5	2,528650
13,016833	0,5	2,485150
13,025167	0,5	2,441700
13,033500	0,5	2,415400
13,041833	0,5	2,389550
13,050167	0,5	2,370050
13,058500	0,5	2,347500
13,066833	0,5	2,329650
13,075167	0,5	2,318950
13,083500	0,5	2,314750
13,091833	0,5	2,309050
13,100167	0,5	2,311700
13,108500	0,5	2,310950
13,116833	0,5	2,321250
13,125167	0,5	2,322750
13,133500	0,5	2,317650
13,141833	0,5	2,323100
13,150167	0,5	2,318100
13,158500	0,5	2,300250
13,166833	0,5	2,284850
13,175167	0,5	2,258800
13,183500	0,5	2,245000
13,191833	0,5	2,229700
13,200167	0,5	2,219350
13,208500	0,5	2,202000
13,216833	0,5	2,196150
13,225167	0,5	2,192150
13,233500	0,5	2,191150
13,241833	0,5	2,197250
13,250167	0,5	2,195450
13,258500	0,5	2,202100
13,266833	0,5	2,201800
13,275167	0,5	2,193250
13,283500	0,5	2,186400
13,291833	0,5	2,181350
13,300167	0,5	2,167300
13,308500	0,5	2,157300
13,316833	0,5	2,143600
13,325167	0,5	2,136850
13,333500	0,5	2,141350
13,341833	0,5	2,151400
13,350167	0,5	2,159950
13,358500	0,5	2,180100
13,366833	0,5	2,206250
13,375167	0,5	2,254050
13,383500	0,5	2,315300
13,391833	0,5	2,399850
13,400167	0,5	2,514550
13,408500	0,5	2,663150
13,416833	0,5	2,844850
13,425167	0,5	3,053350
13,433500	0,5	3,303550
13,441833	0,5	3,575450
13,450167	0,5	3,854900
13,458500	0,5	4,128500
13,466833	0,5	4,392200
13,475167	0,5	4,630350
13,483500	0,5	4,846500
13,491833	0,5	5,014450
13,500167	0,5	5,146450
13,508500	0,5	5,231550
13,516833	0,5	5,284800
13,525167	0,5	5,305500
13,533500	0,5	5,304500
13,541833	0,5	5,281650
13,550167	0,5	5,248200
13,558500	0,5	5,219200
13,566833	0,5	5,177650
13,575167	0,5	5,136650
13,583500	0,5	5,111550
13,591833	0,5	5,084750
13,600167	0,5	5,060300
13,608500	0,5	5,035350
13,616833	0,5	5,015450
13,625167	0,5	5,006400
13,633500	0,5	5,002150
13,641833	0,5	4,999200
13,650167	0,5	4,994350
13,658500	0,5	4,992400
13,666833	0,5	4,984900
13,675167	0,5	4,984700
13,683500	0,5	4,981500
13,691833	0,5	4,978000
13,700167	0,5	4,977450
13,708500	0,5	4,978950
13,716833	0,5	4,962650
13,725167	0,5	4,965950
13,733500	0,5	4,967100
13,741833	0,5	4,965350
13,750167	0,5	4,955100
13,758500	0,5	4,942100
13,766833	0,5	4,937150
13,775167	0,5	4,933650
13,783500	0,5	4,927800
13,791833	0,5	4,924450
13,800167	0,5	4,921250
13,808500	0,5	4,914250
13,816833	0,5	4,915250
13,825167	0,5	4,910350
13,833500	0,5	4,908500
13,841833	0,5	4,902950
13,850167	0,5	4,904550
13,858500	0,5	4,904900
13,866833	0,5	4,894850
13,875167	0,5	4,899200
13,883500	0,5	4,904100
13,891833	0,5	4,898200
13,900167	0,5	4,890800
13,908500	0,5	4,873300
13,916833	0,5	4,876050
13,925167	0,5	4,877300
13,933500	0,5	4,883800
13,941833	0,5	4,886800
13,950167	0,5	4,889550
13,958500	0,5	4,894200
13,966833	0,5	4,897050
13,975167	0,5	4,898950
13,983500	0,5	4,891100
13,991833	0,5	4,887600
14,000167	0,5	4,872800
14,008500	0,5	4,873050
14,016833	0,5	4,855900
14,025167	0,5	4,858600
14,033500	0,5	4,849600
14,041833	0,5	4,843650
14,050167	0,5	4,831600
14,058500	0,5	4,821800
14,066833	0,5	4,818800
14,075167	0,5	4,809650
14,083500	0,5	4,796950
14,091833	0,5	4,788300
14,100167	0,5	4,775150
14,108500	0,5	4,765850
14,116833	0,5	4,759100
14,125167	0,5	4,747450
14,133500	0,5	4,743050
14,141833	0,5	4,731150
14,150167	0,5	4,730200
14,158500	0,5	4,721100
14,166833	0,5	4,709950
14,175167	0,5	4,715700
14,183500	0,5	4,710700
14,191833	0,5	4,700600
14,200167	0,5	4,693900
14,208500	0,5	4,680050
14,216833	0,5	4,686850
14,225167	0,5	4,681550
14,233500	0,5	4,682900
14,241833	0,5	4,675100
14,250167	0,5	4,678000
14,258500	0,5	4,672000
14,266833	0,5	4,670350
14,275167	0,5	4,666000
14,283500	0,5	4,662900
14,291833	0,5	4,666450
14,300167	0,5	4,665600
14,308500	0,5	4,657300
14,316833	0,5	4,655900
14,325167	0,5	4,659350
14,333500	0,5	4,651850
14,341833	0,5	4,648650
14,350167	0,5	4,637200
14,358500	0,5	4,634250
14,366833	0,5	4,634350
14,375167	0,5	4,643050
14,383500	0,5	4,641600
14,391833	0,5	4,646900
14,400167	0,5	4,644050
14,408500	0,5	4,650600
14,416833	0,5	4,652050
14,425167	0,5	4,659200
14,433500	0,5	4,663050
14,441833	0,5	4,672700
14,450167	0,5	4,674750
14,458500	0,5	4,681900
14,466833	0,5	4,705050
14,475167	0,5	4,724350
14,483500	0,5	4,745550
14,491833	0,5	4,765400
14,500167	0,5	4,791650
14,508500	0,5	4,818250
14,516833	0,5	4,855700
14,525167	0,5	4,878400
14,533500	0,5	4,899650
14,541833	0,5	4,911700
14,550167	0,5	4,912250
14,558500	0,5	4,908900
14,566833	0,5	4,911200
14,575167	0,5	4,900600
14,583500	0,5	4,900750
14,591833	0,5	4,908000
14,600167	0,5	4,912950
14,608500	0,5	4,934750
14,616833	0,5	4,969800
14,625167	0,5	4,999800
14,633500	0,5	5,033600
14,641833	0,5	5,055500
14,650167	0,5	5,094000
14,658500	0,5	5,152800
14,666833	0,5	5,220900
14,675167	0,5	5,286650
14,683500	0,5	5,346900
14,691833	0,5	5,389050
14,700167	0,5	5,409850
14,708500	0,5	5,422400
14,716833	0,5	5,422250
14,725167	0,5	5,439100
14,733500	0,5	5,458850
14,741833	0,5	5,516900
14,750167	0,5	5,570500
14,758500	0,5	5,658350
14,766833	0,5	5,733050
14,775167	0,5	5,776550
14,783500	0,5	5,782500
14,791833	0,5	5,745600
14,800167	0,5	5,690500
14,808500	0,5	5,612050
14,816833	0,5	5,523850
14,825167	0,5	5,446150
14,833500	0,5	5,377550
14,841833	0,5	5,328600
14,850167	0,5	5,297600
14,858500	0,5	5,279350
14,866833	0,5	5,274800
14,875167	0,5	5,271350
14,883500	0,5	5,274550
14,891833	0,5	5,249650
14,900167	0,5	5,196450
14,908500	0,5	5,160400
14,916833	0,5	5,107650
14,925167	0,5	5,055500
14,933500	0,5	5,012400
14,941833	0,5	4,969050
14,950167	0,5	4,954550
14,958500	0,5	4,938850
14,966833	0,5	4,929250
14,975167	0,5	4,915200
14,983500	0,5	4,905200
14,991833	0,5	4,893000
15,000167	0,5	4,882900
15,008500	0,5	4,869350
15,016833	0,5	4,853750
15,025167	0,5	4,838700
15,033500	0,5	4,823350
15,041833	0,5	4,806900
15,050167	0,5	4,784950
15,058500	0,5	4,785950
15,066833	0,5	4,765100
15,075167	0,5	4,746200
15,083500	0,5	4,719300
15,091833	0,5	4,698900
15,100167	0,5	4,684900
15,108500	0,5	4,676600
15,116833	0,5	4,654900
15,125167	0,5	4,641250
15,133500	0,5	4,622100
15,141833	0,5	4,609500
15,150167	0,5	4,596550
15,158500	0,5	4,576650
15,166833	0,5	4,562900
15,175167	0,5	4,548700
15,183500	0,5	4,542650
15,191833	0,5	4,522550
15,200167	0,5	4,507500
15,208500	0,5	4,504050
15,216833	0,5	4,486850
15,225167	0,5	4,469150
15,233500	0,5	4,450400
15,241833	0,5	4,431650
15,250167	0,5	4,429950
15,258500	0,5	4,415700
15,266833	0,5	4,410800
15,275167	0,5	4,397750
15,283500	0,5	4,396550
15,291833	0,5	4,383800
15,300167	0,5	4,377550
15,308500	0,5	4,365450
15,316833	0,5	4,354500
15,325167	0,5	4,358200
15,333500	0,5	4,351050
15,341833	0,5	4,334250
15,350167	0,5	4,337000
15,358500	0,5	4,332700
15,366833	0,5	4,323750
15,375167	0,5	4,308200
15,383500	0,5	4,287500
15,391833	0,5	4,274050
15,400167	0,5	4,261250
15,408500	0,5	4,252450
15,416833	0,5	4,240800
15,425167	0,5	4,235750
15,433500	0,5	4,224600
15,441833	0,5	4,217900
15,450167	0,5	4,202700
15,458500	0,5	4,185900
15,466833	0,5	4,165950
15,475167	0,5	4,151100
15,483500	0,5	4,122500
15,491833	0,5	4,102550
15,500167	0,5	4,087250
15,508500	0,5	4,075700
15,516833	0,5	4,060200
15,525167	0,5	4,038250
15,533500	0,5	4,025650
15,541833	0,5	4,020200
15,550167	0,5	4,024700
15,558500	0,5	4,027650
15,566833	0,5	4,023700
15,575167	0,5	4,017300
15,583500	0,5	4,009200
15,591833	0,5	3,987550
15,600167	0,5	3,969950
15,608500	0,5	3,949000
15,616833	0,5	3,938900
15,625167	0,5	3,929000
15,633500	0,5	3,907450
15,641833	0,5	3,892400
15,650167	0,5	3,891100
15,658500	0,5	3,877900
15,666833	0,5	3,866700
15,675167	0,5	3,840900
15,683500	0,5	3,832400
15,691833	0,5	3,822650
15,700167	0,5	3,820450
15,708500	0,5	3,813000
15,716833	0,5	3,807700
15,725167	0,5	3,798350
15,733500	0,5	3,790750
15,741833	0,5	3,787700
15,750167	0,5	3,776500
15,758500	0,5	3,770850
15,766833	0,5	3,767350
15,775167	0,5	3,766000
15,783500	0,5	3,735900
15,791833	0,5	3,741400
15,800167	0,5	3,730250
15,808500	0,5	3,715000
15,816833	0,5	3,693900
15,825167	0,5	3,665550
15,833500	0,5	3,664250
15,841833	0,5	3,654950
15,850167	0,5	3,651350
15,858500	0,5	3,646800
15,866833	0,5	3,636700
15,875167	0,5	3,633700
15,883500	0,5	3,622400
15,891833	0,5	3,606350
15,900167	0,5	3,592350
15,908500	0,5	3,572000
15,916833	0,5	3,561900
15,925167	0,5	3,543550
15,933500	0,5	3,514450
15,941833	0,5	3,517200
15,950167	0,5	3,511300
15,958500	0,5	3,495850
15,966833	0,5	3,482950
15,975167	0,5	3,453000
15,983500	0,5	3,454850
15,991833	0,5	3,444100
16,000167	0,5	3,436100
16,008500	0,5	3,422800
16,016833	0,5	3,413900
16,025167	0,5	3,397700
16,033500	0,5	3,385550
16,041833	0,5	3,373400
16,050167	0,5	3,353550
16,058500	0,5	3,343850
16,066833	0,5	3,340950
16,075167	0,5	3,323450
16,083500	0,5	3,313650
16,091833	0,5	3,312100
16,100167	0,5	3,296100
16,108500	0,5	3,275350
16,116833	0,5	3,250950
16,125167	0,5	3,228650
16,133500	0,5	3,222650
16,141833	0,5	3,218200
16,150167	0,5	3,204600
16,158500	0,5	3,197900
16,166833	0,5	3,180700
16,175167	0,5	3,171200
16,183500	0,5	3,160200
16,191833	0,5	3,150350
16,200167	0,5	3,135300
16,208500	0,5	3,123050
16,216833	0,5	3,115550
16,225167	0,5	3,095450
16,233500	0,5	3,094800
16,241833	0,5	3,088450
16,250167	0,5	3,074850
16,258500	0,5	3,054150
16,266833	0,5	3,032150
16,275167	0,5	3,017350
16,283500	0,5	3,011050
16,291833	0,5	2,999850
16,300167	0,5	2,998850
16,308500	0,5	2,991100
16,316833	0,5	2,988600
16,325167	0,5	2,977300
16,333500	0,5	2,974850
16,341833	0,5	2,962850
16,350167	0,5	2,956250
16,358500	0,5	2,953600
16,366833	0,5	2,946450
16,375167	0,5	2,932250
16,383500	0,5	2,933000
16,391833	0,5	2,928250
16,400167	0,5	2,913400
16,408500	0,5	2,888900
16,416833	0,5	2,867000
16,425167	0,5	2,861150
16,433500	0,5	2,842600
16,441833	0,5	2,831100
16,450167	0,5	2,822500
16,458500	0,5	2,809100
16,466833	0,5	2,794000
16,475167	0,5	2,786150
16,483500	0,5	2,772000
16,491833	0,5	2,764300
16,500167	0,5	2,755250
16,508500	0,5	2,751450
16,516833	0,5	2,726200
16,525167	0,5	2,721650
16,533500	0,5	2,717200
16,541833	0,5	2,706900
16,550167	0,5	2,691950
16,558500	0,5	2,670050
16,566833	0,5	2,654950
16,575167	0,5	2,648150
16,583500	0,5	2,641800
16,591833	0,5	2,632000
16,600167	0,5	2,628400
16,608500	0,5	2,612850
16,616833	0,5	2,609050
16,625167	0,5	2,603650
16,633500	0,5	2,603200
16,641833	0,5	2,590450
16,650167	0,5	2,592750
16,658500	0,5	2,594200
16,666833	0,5	2,571750
16,675167	0,5	2,576200
16,683500	0,5	2,575800
16,691833	0,5	2,563300
16,700167	0,5	2,546250
16,708500	0,5	2,519700
16,716833	0,5	2,512050
16,725167	0,5	2,500800
16,733500	0,5	2,492900
16,741833	0,5	2,478150
16,750167	0,5	2,470700
16,758500	0,5	2,455150
16,766833	0,5	2,445800
16,775167	0,5	2,440400
16,783500	0,5	2,425150
16,791833	0,5	2,418400
16,800167	0,5	2,411400
16,808500	0,5	2,404050
16,816833	0,5	2,382000
16,825167	0,5	2,383950
16,833500	0,5	2,379350
16,841833	0,5	2,365200
16,850167	0,5	2,346500
16,858500	0,5	2,328900
16,866833	0,5	2,329100
16,875167	0,5	2,329000
16,883500	0,5	2,319100
16,891833	0,5	2,312600
16,900167	0,5	2,302250
16,908500	0,5	2,301850
16,916833	0,5	2,297050
16,925167	0,5	2,288750
16,933500	0,5	2,281300
16,941833	0,5	2,272450
16,950167	0,5	2,276950
16,958500	0,5	2,261150
16,966833	0,5	2,246100
16,975167	0,5	2,245050
16,983500	0,5	2,238350
16,991833	0,5	2,220300
17,000167	0,5	2,205000
17,008500	0,5	2,182250
17,016833	0,5	2,182450
17,025167	0,5	2,171800
17,033500	0,5	2,165950
17,041833	0,5	2,151650
17,050167	0,5	2,148750
17,058500	0,5	2,133900
17,066833	0,5	2,127350
17,075167	0,5	2,118250
17,083500	0,5	2,102700
17,091833	0,5	2,104200
17,100167	0,5	2,101550
17,108500	0,5	2,081100
17,116833	0,5	2,079750
17,125167	0,5	2,076950
17,133500	0,5	2,063800
17,141833	0,5	2,047950
17,150167	0,5	2,022000
17,158500	0,5	2,012900
17,166833	0,5	2,005150
17,175167	0,5	2,002650
17,183500	0,5	1,989850
17,191833	0,5	1,987350
17,200167	0,5	1,974300
17,208500	0,5	1,971500
17,216833	0,5	1,962750
17,225167	0,5	1,958750
17,233500	0,5	1,955500
17,241833	0,5	1,962850
17,250167	0,5	1,959250
17,258500	0,5	1,949650
17,266833	0,5	1,960250
17,275167	0,5	1,963250
17,283500	0,5	1,954450
17,291833	0,5	1,934100
17,300167	0,5	1,914000
17,308500	0,5	1,902350
17,316833	0,5	1,901850
17,325167	0,5	1,897100
17,333500	0,5	1,896150
17,341833	0,5	1,895500
17,350167	0,5	1,902650
17,358500	0,5	1,902800
17,366833	0,5	1,904000
17,375167	0,5	1,906450
17,383500	0,5	1,911850
17,391833	0,5	1,912100
17,400167	0,5	1,909300
17,408500	0,5	1,905800
17,416833	0,5	1,913300
17,425167	0,5	1,907400
17,433500	0,5	1,901900
17,441833	0,5	1,884750
17,450167	0,5	1,882500
17,458500	0,5	1,893000
17,466833	0,5	1,891550
17,475167	0,5	1,898800
17,483500	0,5	1,903400
17,491833	0,5	1,906300
17,500167	0,5	1,906650
17,508500	0,5	1,916150
17,516833	0,5	1,919550
17,525167	0,5	1,928700
17,533500	0,5	1,945600
17,541833	0,5	1,963900
17,550167	0,5	1,948850
17,558500	0,5	1,974150
17,566833	0,5	1,994800
17,575167	0,5	2,010850
17,583500	0,5	2,021950
17,591833	0,5	2,025250
17,600167	0,5	2,046000
17,608500	0,5	2,063150
17,616833	0,5	2,076450
17,625167	0,5	2,086350
17,633500	0,5	2,090450
17,641833	0,5	2,092400
17,650167	0,5	2,088200
17,658500	0,5	2,079000
17,666833	0,5	2,065600
17,675167	0,5	2,046550
17,683500	0,5	2,046100
17,691833	0,5	2,023000
17,700167	0,5	1,997800
17,708500	0,5	1,991550
17,716833	0,5	1,982500
17,725167	0,5	1,960450
17,733500	0,5	1,942550
17,741833	0,5	1,914750
17,750167	0,5	1,906550
17,758500	0,5	1,895500
17,766833	0,5	1,888600
17,775167	0,5	1,872350
17,783500	0,5	1,865800
17,791833	0,5	1,856750
17,800167	0,5	1,846900
17,808500	0,5	1,838450
17,816833	0,5	1,830350
17,825167	0,5	1,830900
17,833500	0,5	1,832550
17,841833	0,5	1,828950
17,850167	0,5	1,827650
17,858500	0,5	1,852050
17,866833	0,5	1,874750
17,875167	0,5	1,908750
17,883500	0,5	1,932800
17,891833	0,5	1,974550
17,900167	0,5	2,020200
17,908500	0,5	2,041000
17,916833	0,5	2,031250
17,925167	0,5	2,002400
17,933500	0,5	1,948250
17,941833	0,5	1,883350
17,950167	0,5	1,822950
17,958500	0,5	1,763650
17,966833	0,5	1,711600
17,975167	0,5	1,666600
17,983500	0,5	1,640500
17,991833	0,5	1,602200
18,000167	0,5	1,594950
18,008500	0,5	1,580900
18,016833	0,5	1,565600
18,025167	0,5	1,540200
18,033500	0,5	1,516300
18,041833	0,5	1,498700
18,050167	0,5	1,493100
18,058500	0,5	1,477350
18,066833	0,5	1,465300
18,075167	0,5	1,449400
18,083500	0,5	1,441250
18,091833	0,5	1,425650
18,100167	0,5	1,416100
18,108500	0,5	1,406150
18,116833	0,5	1,391500
18,125167	0,5	1,391500
18,133500	0,5	1,378100
18,141833	0,5	1,361650
18,150167	0,5	1,361750
18,158500	0,5	1,349250
18,166833	0,5	1,335650
18,175167	0,5	1,310050
18,183500	0,5	1,282150
18,191833	0,5	1,276950
18,200167	0,5	1,263050
18,208500	0,5	1,259600
18,216833	0,5	1,244150
18,225167	0,5	1,237850
18,233500	0,5	1,224400
18,241833	0,5	1,221350
18,250167	0,5	1,208750
18,258500	0,5	1,197100
18,266833	0,5	1,188050
18,275167	0,5	1,180350
18,283500	0,5	1,160700
18,291833	0,5	1,154450
18,300167	0,5	1,155200
18,308500	0,5	1,139050
18,316833	0,5	1,126850
18,325167	0,5	1,095900
18,333500	0,5	1,079350
18,341833	0,5	1,065250
18,350167	0,5	1,066650
18,358500	0,5	1,049500
18,366833	0,5	1,043850
18,375167	0,5	1,027450
18,383500	0,5	1,019950
18,391833	0,5	1,008850
18,400167	0,5	1,002000
18,408500	0,5	0,988250
18,416833	0,5	0,979750
18,425167	0,5	0,968250
18,433500	0,5	0,950200
18,441833	0,5	0,948250
18,450167	0,5	0,945500
18,458500	0,5	0,931400
18,466833	0,5	0,909750
18,475167	0,5	0,889200
18,483500	0,5	0,876750
18,491833	0,5	0,874600
18,500167	0,5	0,859600
18,508500	0,5	0,855400
18,516833	0,5	0,839400
18,525167	0,5	0,832950
18,533500	0,5	0,817800
18,541833	0,5	0,812600
18,550167	0,5	0,794650
18,558500	0,5	0,789700
18,566833	0,5	0,788850
18,575167	0,5	0,775300
18,583500	0,5	0,750800
18,591833	0,5	0,756550
18,600167	0,5	0,749800
18,608500	0,5	0,737650
18,616833	0,5	0,721150
18,625167	0,5	0,701100
18,633500	0,5	0,703250
18,641833	0,5	0,691450
18,650167	0,5	0,684100
18,658500	0,5	0,675750
18,666833	0,5	0,669150
18,675167	0,5	0,657350
18,683500	0,5	0,654700
18,691833	0,5	0,643150
18,700167	0,5	0,634150
18,708500	0,5	0,629500
18,716833	0,5	0,634050
18,725167	0,5	0,609400
18,733500	0,5	0,610250
18,741833	0,5	0,600050
18,750167	0,5	0,593850
18,758500	0,5	0,577050
18,766833	0,5	0,552650
18,775167	0,5	0,541900
18,783500	0,5	0,537050
18,791833	0,5	0,538800
18,800167	0,5	0,530650
18,808500	0,5	0,529050
18,816833	0,5	0,518800
18,825167	0,5	0,519650
18,833500	0,5	0,516650
18,841833	0,5	0,513500
18,850167	0,5	0,510700
18,858500	0,5	0,523800
18,866833	0,5	0,530400
18,875167	0,5	0,517600
18,883500	0,5	0,527850
18,891833	0,5	0,532200
18,900167	0,5	0,533850
18,908500	0,5	0,531850
18,916833	0,5	0,516350
18,925167	0,5	0,529850
18,933500	0,5	0,534700
18,941833	0,5	0,540550
18,950167	0,5	0,541800
18,958500	0,5	0,549750
18,966833	0,5	0,550500
18,975167	0,5	0,555550
18,983500	0,5	0,558900
18,991833	0,5	0,556650
19,000167	0,5	0,560700
19,008500	0,5	0,561350
19,016833	0,5	0,555750
19,025167	0,5	0,539000
19,033500	0,5	0,549550
19,041833	0,5	0,530750
19,050167	0,5	0,520200
19,058500	0,5	0,493050
19,066833	0,5	0,463500
19,075167	0,5	0,449450
19,083500	0,5	0,442650
19,091833	0,5	0,426200
19,100167	0,5	0,415000
19,108500	0,5	0,395650
19,116833	0,5	0,384150
19,125167	0,5	0,367500
19,133500	0,5	0,355300
19,141833	0,5	0,339150
19,150167	0,5	0,328350
19,158500	0,5	0,322850
19,166833	0,5	0,298800
19,175167	0,5	0,283800
19,183500	0,5	0,273300
19,191833	0,5	0,258850
19,200167	0,5	0,234200
19,208500	0,5	0,208200
19,216833	0,5	0,182850
19,225167	0,5	0,178450
19,233500	0,5	0,164800
19,241833	0,5	0,164750
19,250167	0,5	0,153900
19,258500	0,5	0,148300
19,266833	0,5	0,141000
19,275167	0,5	0,136850
19,283500	0,5	0,134400
19,291833	0,5	0,127650
19,300167	0,5	0,133550
19,308500	0,5	0,125450
19,316833	0,5	0,099800
19,325167	0,5	0,105300
19,333500	0,5	0,104100
19,341833	0,5	0,094550
19,350167	0,5	0,088800
19,358500	0,5	0,076750
19,366833	0,5	0,083250
19,375167	0,5	0,089650
19,383500	0,5	0,104050
19,391833	0,5	0,100450
19,400167	0,5	0,108750
19,408500	0,5	0,093950
19,416833	0,5	0,081150
19,425167	0,5	0,058350
19,433500	0,5	0,029250
19,441833	0,5	0,010750
19,450167	0,5	-0,003650
19,458500	0,5	-0,033900
19,466833	0,5	-0,050500
19,475167	0,5	-0,054100
19,483500	0,5	-0,062450
19,491833	0,5	-0,080800
19,500167	0,5	-0,110300
19,508500	0,5	-0,118050
19,516833	0,5	-0,126550
19,525167	0,5	-0,125850
19,533500	0,5	-0,135100
19,541833	0,5	-0,135600
19,550167	0,5	-0,148200
19,558500	0,5	-0,154050
19,566833	0,5	-0,158600
19,575167	0,5	-0,164550
19,583500	0,5	-0,171150
19,591833	0,5	-0,171800
19,600167	0,5	-0,174200
19,608500	0,5	-0,193500
19,616833	0,5	-0,190100
19,625167	0,5	-0,190000
19,633500	0,5	-0,193400
19,641833	0,5	-0,200550
19,650167	0,5	-0,217650
19,658500	0,5	-0,208500
19,666833	0,5	-0,189850
19,675167	0,5	-0,186250
19,683500	0,5	-0,178200
19,691833	0,5	-0,175500
19,700167	0,5	-0,166650
19,708500	0,5	-0,165500
19,716833	0,5	-0,146400
19,725167	0,5	-0,139700
19,733500	0,5	-0,126100
19,741833	0,5	-0,103050
19,750167	0,5	-0,101400
19,758500	0,5	-0,140700
19,766833	0,5	-0,156300
19,775167	0,5	-0,194800
19,783500	0,5	-0,234650
19,791833	0,5	-0,284850
19,800167	0,5	-0,333200
19,808500	0,5	-0,341850
19,816833	0,5	-0,358550
19,825167	0,5	-0,370450
19,833500	0,5	-0,382500
19,841833	0,5	-0,385550
19,850167	0,5	-0,391600
19,858500	0,5	-0,389200
19,866833	0,5	-0,399100
19,875167	0,5	-0,401300
19,883500	0,5	-0,407850
19,891833	0,5	-0,393700
19,900167	0,5	-0,403750
19,908500	0,5	-0,404700
19,916833	0,5	-0,385550
19,925167	0,5	-0,381850
19,933500	0,5	-0,379050
19,941833	0,5	-0,376600
19,950167	0,5	-0,365000
19,958500	0,5	-0,352800
19,966833	0,5	-0,346950
19,975167	0,5	-0,364100
19,983500	0,5	-0,390000
19,991833	0,5	-0,419150
20,000167	0,5	-0,442900
20,008500	0,5	-0,466100
20,016833	0,5	-0,476500
20,025167	0,5	-0,491050
20,033500	0,5	-0,493800
20,041833	0,5	-0,500650
20,050167	0,5	-0,512400
20,058500	0,5	-0,517700
20,066833	0,5	-0,517250
20,075167	0,5	-0,533300
20,083500	0,5	-0,542300
20,091833	0,5	-0,559950
20,100167	0,5	-0,575350
20,108500	0,5	-0,568050
20,116833	0,5	-0,566200
20,125167	0,5	-0,563750
20,133500	0,5	-0,558000
20,141833	0,5	-0,547600
20,150167	0,5	-0,541800
20,158500	0,5	-0,525650
20,166833	0,5	-0,516050
20,175167	0,5	-0,501000
20,183500	0,5	-0,479200
20,191833	0,5	-0,465700
20,200167	0,5	-0,458950
20,208500	0,5	-0,432600
20,216833	0,5	-0,426500
20,225167	0,5	-0,437700
20,233500	0,5	-0,489000
20,241833	0,5	-0,539300
20,250167	0,5	-0,590600
20,258500	0,5	-0,629650
20,266833	0,5	-0,663600
20,275167	0,5	-0,677650
20,283500	0,5	-0,689000
20,291833	0,5	-0,688850
20,300167	0,5	-0,687000
20,308500	0,5	-0,691300
20,316833	0,5	-0,688300
20,325167	0,5	-0,679650
20,333500	0,5	-0,667800
20,341833	0,5	-0,673700
20,350167	0,5	-0,667550
20,358500	0,5	-0,653700
20,366833	0,5	-0,643850
20,375167	0,5	-0,635500
20,383500	0,5	-0,643150
20,391833	0,5	-0,642650
20,400167	0,5	-0,646950
20,408500	0,5	-0,664500
20,416833	0,5	-0,682750
20,425167	0,5	-0,697950
20,433500	0,5	-0,703650
20,441833	0,5	-0,707050
20,450167	0,5	-0,708150
20,458500	0,5	-0,707950
20,466833	0,5	-0,714500
20,475167	0,5	-0,689450
20,483500	0,5	-0,679050
20,491833	0,5	-0,687700
20,500167	0,5	-0,684250
20,508500	0,5	-0,676000
20,516833	0,5	-0,685950
20,525167	0,5	-0,681400
20,533500	0,5	-0,698550
20,541833	0,5	-0,684700
20,550167	0,5	-0,683700
20,558500	0,5	-0,668900
20,566833	0,5	-0,654150
20,575167	0,5	-0,627200
20,583500	0,5	-0,613350
20,591833	0,5	-0,603950
20,600167	0,5	-0,608050
20,608500	0,5	-0,625550
20,616833	0,5	-0,631000
20,625167	0,5	-0,623050
20,633500	0,5	-0,635400
20,641833	0,5	-0,657850
20,650167	0,5	-0,666700
20,658500	0,5	-0,678450
20,666833	0,5	-0,692800
20,675167	0,5	-0,716050
20,683500	0,5	-0,721050
20,691833	0,5	-0,717950
20,700167	0,5	-0,723750
20,708500	0,5	-0,744850
20,716833	0,5	-0,752800
20,725167	0,5	-0,767300
20,733500	0,5	-0,771150
20,741833	0,5	-0,777650
20,750167	0,5	-0,779850
20,758500	0,5	-0,782500
20,766833	0,5	-0,766850
20,775167	0,5	-0,750650
20,783500	0,5	-0,761000
20,791833	0,5	-0,772200
20,800167	0,5	-0,778800
20,808500	0,5	-0,778850
20,816833	0,5	-0,796000
20,825167	0,5	-0,809050
20,833500	0,5	-0,805250
20,841833	0,5	-0,788300
20,850167	0,5	-0,795050
20,858500	0,5	-0,791550
20,866833	0,5	-0,802250
20,875167	0,5	-0,809850
20,883500	0,5	-0,817450
20,891833	0,5	-0,817400
20,900167	0,5	-0,820550
20,908500	0,5	-0,817450
20,916833	0,5	-0,790200
20,925167	0,5	-0,777900
20,933500	0,5	-0,787900
20,941833	0,5	-0,788000
20,950167	0,5	-0,792800
20,958500	0,5	-0,803300
20,966833	0,5	-0,811900
20,975167	0,5	-0,825700
20,983500	0,5	-0,817350
20,991833	0,5	-0,815200
21,000167	0,5	-0,803300
21,008500	0,5	-0,803800
21,016833	0,5	-0,790850
21,025167	0,5	-0,792650
21,033500	0,5	-0,782050
21,041833	0,5	-0,782550
21,050167	0,5	-0,783200
21,058500	0,5	-0,770300
21,066833	0,5	-0,753800
21,075167	0,5	-0,754450
21,083500	0,5	-0,766100
21,091833	0,5	-0,764350
21,100167	0,5	-0,777750
21,108500	0,5	-0,787450
21,116833	0,5	-0,802150
21,125167	0,5	-0,810850
21,133500	0,5	-0,811300
21,141833	0,5	-0,796300
21,150167	0,5	-0,796400
21,158500	0,5	-0,789850
21,166833	0,5	-0,789650
21,175167	0,5	-0,781800
21,183500	0,5	-0,784050
21,191833	0,5	-0,782550
21,200167	0,5	-0,782050
21,208500	0,5	-0,756100
21,216833	0,5	-0,737150
21,225167	0,5	-0,741700
21,233500	0,5	-0,745000
21,241833	0,5	-0,744650
21,250167	0,5	-0,748100
21,258500	0,5	-0,761000
21,266833	0,5	-0,760700
21,275167	0,5	-0,761450
21,283500	0,5	-0,747450
21,291833	0,5	-0,745150
21,300167	0,5	-0,735150
21,308500	0,5	-0,736800
21,316833	0,5	-0,730050
21,325167	0,5	-0,726100
21,333500	0,5	-0,717400
21,341833	0,5	-0,708400
21,350167	0,5	-0,688900
21,358500	0,5	-0,663400
21,366833	0,5	-0,647250
21,375167	0,5	-0,648850
21,383500	0,5	-0,647200
21,391833	0,5	-0,653150
21,400167	0,5	-0,660350
21,408500	0,5	-0,670200
21,416833	0,5	-0,665400
21,425167	0,5	-0,652650
21,433500	0,5	-0,649450
21,441833	0,5	-0,639000
21,450167	0,5	-0,638450
21,458500	0,5	-0,627600
21,466833	0,5	-0,620400
21,475167	0,5	-0,608650
21,483500	0,5	-0,604500
21,491833	0,5	-0,595100
21,500167	0,5	-0,556750
21,508500	0,5	-0,535100
21,516833	0,5	-0,534150
21,525167	0,5	-0,526450
21,533500	0,5	-0,519150
21,541833	0,5	-0,522150
21,550167	0,5	-0,521800
21,558500	0,5	-0,529050
21,566833	0,5	-0,508850
21,575167	0,5	-0,499950
21,583500	0,5	-0,475450
21,591833	0,5	-0,462200
21,600167	0,5	-0,429150
21,608500	0,5	-0,407550
21,616833	0,5	-0,369500
21,625167	0,5	-0,334650
21,633500	0,5	-0,303150
21,641833	0,5	-0,281800
21,650167	0,5	-0,257350
21,658500	0,5	-0,257850
21,666833	0,5	-0,276700
21,675167	0,5	-0,281350
21,683500	0,5	-0,287850
21,691833	0,5	-0,294850
21,700167	0,5	-0,302850
21,708500	0,5	-0,290950
21,716833	0,5	-0,275900
21,725167	0,5	-0,252500
21,733500	0,5	-0,248650
21,741833	0,5	-0,231800
21,750167	0,5	-0,219450
21,758500	0,5	-0,199900
21,766833	0,5	-0,183750
21,775167	0,5	-0,157550
21,783500	0,5	-0,139700
21,791833	0,5	-0,095050
21,800167	0,5	-0,055150
21,808500	0,5	-0,033000
21,816833	0,5	0,001500
21,825167	0,5	0,026950
21,833500	0,5	0,053300
21,841833	0,5	0,065400
21,850167	0,5	0,086000
21,858500	0,5	0,111950
21,866833	0,5	0,147900
21,875167	0,5	0,171400
21,883500	0,5	0,202800
21,891833	0,5	0,218400
21,900167	0,5	0,244200
21,908500	0,5	0,258200
21,916833	0,5	0,276650
21,925167	0,5	0,295000
21,933500	0,5	0,318450
21,941833	0,5	0,359500
21,950167	0,5	0,380200
21,958500	0,5	0,391750
21,966833	0,5	0,424800
21,975167	0,5	0,437000
21,983500	0,5	0,451650
21,991833	0,5	0,466250
22,000167	0,5	0,474600
22,008500	0,5	0,510200
22,016833	0,5	0,537800
22,025167	0,5	0,572500
22,033500	0,5	0,601200
22,041833	0,5	0,638600
22,050167	0,5	0,662650
22,058500	0,5	0,698150
22,066833	0,5	0,722750
22,075167	0,5	0,756450
22,083500	0,5	0,794300
22,091833	0,5	0,830000
22,100167	0,5	0,854700
22,108500	0,5	0,893900
22,116833	0,5	0,937750
22,125167	0,5	0,970300
22,133500	0,5	1,009400
22,141833	0,5	1,042300
22,150167	0,5	1,086600
22,158500	0,5	1,125800
22,166833	0,5	1,184800
22,175167	0,5	1,229400
22,183500	0,5	1,283950
22,191833	0,5	1,332800
22,200167	0,5	1,392200
22,208500	0,5	1,441850
22,216833	0,5	1,493900
22,225167	0,5	1,545100
22,233500	0,5	1,593250
22,241833	0,5	1,632200
22,250167	0,5	1,696100
22,258500	0,5	1,759600
22,266833	0,5	1,813400
22,275167	0,5	1,859150
22,283500	0,5	1,895900
22,291833	0,5	1,951100
22,300167	0,5	2,003550
22,308500	0,5	2,062500
22,316833	0,5	2,110550
22,325167	0,5	2,167300
22,333500	0,5	2,209050
22,341833	0,5	2,259050
22,350167	0,5	2,305800
22,358500	0,5	2,362300
22,366833	0,5	2,410250
22,375167	0,5	2,456800
22,383500	0,5	2,502550
22,391833	0,5	2,555250
22,400167	0,5	2,638550
22,408500	0,5	2,707650
22,416833	0,5	2,768800
22,425167	0,5	2,828900
22,433500	0,5	2,884000
22,441833	0,5	2,959400
22,450167	0,5	3,045200
22,458500	0,5	3,113400
22,466833	0,5	3,192150
22,475167	0,5	3,264000
22,483500	0,5	3,336550
22,491833	0,5	3,411900
22,500167	0,5	3,488850
22,508500	0,5	3,556800
22,516833	0,5	3,626500
22,525167	0,5	3,659800
22,533500	0,5	3,737950
22,541833	0,5	3,816500
22,550167	0,5	3,903100
22,558500	0,5	3,967350
22,566833	0,5	4,024900
22,575167	0,5	4,070700
22,583500	0,5	4,110050
22,591833	0,5	4,179850
22,600167	0,5	4,224250
22,608500	0,5	4,278950
22,616833	0,5	4,313450
22,625167	0,5	4,348800
22,633500	0,5	4,365600
22,641833	0,5	4,387600
22,650167	0,5	4,387450
22,658500	0,5	4,381550
22,666833	0,5	4,339550
22,675167	0,5	4,295600
22,683500	0,5	4,265200
22,691833	0,5	4,245550
22,700167	0,5	4,191500
22,708500	0,5	4,121450
22,716833	0,5	4,037700
22,725167	0,5	3,940800
22,733500	0,5	3,858350
22,741833	0,5	3,763700
22,750167	0,5	3,676100
22,758500	0,5	3,571200
22,766833	0,5	3,465450
22,775167	0,5	3,353100
22,783500	0,5	3,233650
22,791833	0,5	3,098150
22,800167	0,5	2,946400
22,808500	0,5	2,793350
22,816833	0,5	2,580650
22,825167	0,5	2,417700
22,833500	0,5	2,268350
22,841833	0,5	2,103550
22,850167	0,5	1,917500
22,858500	0,5	1,728850
22,866833	0,5	1,556850
22,875167	0,5	1,378950
22,883500	0,5	1,202550
22,891833	0,5	1,023850
22,900167	0,5	0,862250
22,908500	0,5	0,695150
22,916833	0,5	0,541050
22,925167	0,5	0,382450
22,933500	0,5	0,226150
22,941833	0,5	0,069600
22,950167	0,5	-0,078550
22,958500	0,5	-0,215650
22,966833	0,5	-0,370650
22,975167	0,5	-0,497500
22,983500	0,5	-0,652350
22,991833	0,5	-0,811750
23,000167	0,5	-0,929750
23,008500	0,5	-1,046300
23,016833	0,5	-1,145550
23,025167	0,5	-1,243600
23,033500	0,5	-1,352400
23,041833	0,5	-1,437050
23,050167	0,5	-1,519900
23,058500	0,5	-1,591150
23,066833	0,5	-1,661300
23,075167	0,5	-1,726450
23,083500	0,5	-1,796250
23,091833	0,5	-1,854650
23,100167	0,5	-1,915650
23,108500	0,5	-1,942850
23,116833	0,5	-2,009050
23,125167	0,5	-2,047100
23,133500	0,5	-2,124000
23,141833	0,5	-2,182300
23,150167	0,5	-2,211450
23,158500	0,5	-2,234050
23,166833	0,5	-2,249600
23,175167	0,5	-2,265750
23,183500	0,5	-2,276550
23,191833	0,5	-2,282800
23,200167	0,5	-2,281100
23,208500	0,5	-2,272350
23,216833	0,5	-2,272750
23,225167	0,5	-2,268500
23,233500	0,5	-2,261900
23,241833	0,5	-2,258150
23,250167	0,5	-2,249500
23,258500	0,5	-2,260550
23,266833	0,5	-2,249900
23,275167	0,5	-2,209600
23,283500	0,5	-2,234100
23,291833	0,5	-2,247250
23,300167	0,5	-2,233650
23,308500	0,5	-2,217800
23,316833	0,5	-2,193200
23,325167	0,5	-2,178050
23,333500	0,5	-2,155300
23,341833	0,5	-2,138050
23,350167	0,5	-2,100550
23,358500	0,5	-2,070050
23,366833	0,5	-2,036150
23,375167	0,5	-2,007500
23,383500	0,5	-1,983100
23,391833	0,5	-1,949250
23,400167	0,5	-1,924600
23,408500	0,5	-1,954700
23,416833	0,5	-1,899550
23,425167	0,5	-1,846600
23,433500	0,5	-1,835800
23,441833	0,5	-1,831800
23,450167	0,5	-1,820000
23,458500	0,5	-1,797750
23,466833	0,5	-1,781150
23,475167	0,5	-1,767200
23,483500	0,5	-1,751700
23,491833	0,5	-1,729050
23,500167	0,5	-1,711800
23,508500	0,5	-1,688950
23,516833	0,5	-1,670800
23,525167	0,5	-1,651550
23,533500	0,5	-1,635100
23,541833	0,5	-1,615300
23,550167	0,5	-1,692400
23,558500	0,5	-1,653300
23,566833	0,5	-1,627650
23,575167	0,5	-1,561100
23,583500	0,5	-1,548700
23,591833	0,5	-1,543000
23,600167	0,5	-1,536150
23,608500	0,5	-1,529650
23,616833	0,5	-1,520350
23,625167	0,5	-1,510250
23,633500	0,5	-1,503400
23,641833	0,5	-1,494650
23,650167	0,5	-1,487150
23,658500	0,5	-1,478350
23,666833	0,5	-1,471550
23,675167	0,5	-1,466600
23,683500	0,5	-1,464500
23,691833	0,5	-1,467250
23,700167	0,5	-1,609800
23,708500	0,5	-1,564150
23,716833	0,5	-1,532900
23,725167	0,5	-1,478050
23,733500	0,5	-1,471600
23,741833	0,5	-1,469600
23,750167	0,5	-1,472600
23,758500	0,5	-1,480000
23,766833	0,5	-1,468150
23,775167	0,5	-1,462700
23,783500	0,5	-1,447450
23,791833	0,5	-1,443500
23,800167	0,5	-1,429900
23,808500	0,5	-1,420150
23,816833	0,5	-1,406300
23,825167	0,5	-1,400650
23,833500	0,5	-1,393750
23,841833	0,5	-1,447350
23,850167	0,5	-1,535500
23,858500	0,5	-1,496150
23,866833	0,5	-1,441050
23,875167	0,5	-1,405150
23,883500	0,5	-1,392550
23,891833	0,5	-1,393000
23,900167	0,5	-1,397250
23,908500	0,5	-1,404600
23,916833	0,5	-1,404050
23,925167	0,5	-1,388000
23,933500	0,5	-1,382500
23,941833	0,5	-1,369400
23,950167	0,5	-1,363650
23,958500	0,5	-1,347500
23,966833	0,5	-1,337400
23,975167	0,5	-1,325400
23,983500	0,5	-1,321100
23,991833	0,5	-1,428600
24,000167	0,5	-1,426650
24,008500	0,5	-1,383500
24,016833	0,5	-1,328050
24,025167	0,5	-1,280400
24,033500	0,5	-1,274900
24,041833	0,5	-1,262550
24,050167	0,5	-1,268050
24,058500	0,5	-1,262250
24,066833	0,5	-1,242700
24,075167	0,5	-1,229850
24,083500	0,5	-1,211150
24,091833	0,5	-1,195050
24,100167	0,5	-1,175550
24,108500	0,5	-1,163350
24,116833	0,5	-1,147050
24,125167	0,5	-1,137800
24,133500	0,5	-1,133550
24,141833	0,5	-1,243050
24,150167	0,5	-1,210550
24,158500	0,5	-1,186050
24,166833	0,5	-1,133250
24,175167	0,5	-1,106200
24,183500	0,5	-1,094650
24,191833	0,5	-1,094250
24,200167	0,5	-1,091350
24,208500	0,5	-1,075350
24,216833	0,5	-1,055350
24,225167	0,5	-1,038550
24,233500	0,5	-1,018100
24,241833	0,5	-1,001450
24,250167	0,5	-0,980150
24,258500	0,5	-0,961350
24,266833	0,5	-0,941900
24,275167	0,5	-0,927250
24,283500	0,5	-0,962850
24,291833	0,5	-0,983850
24,300167	0,5	-0,970600
24,308500	0,5	-0,920550
24,316833	0,5	-0,885550
24,325167	0,5	-0,857550
24,333500	0,5	-0,853050
24,341833	0,5	-0,850450
24,350167	0,5	-0,851350
24,358500	0,5	-0,831900
24,366833	0,5	-0,821950
24,375167	0,5	-0,805350
24,383500	0,5	-0,792200
24,391833	0,5	-0,777400
24,400167	0,5	-0,765400
24,408500	0,5	-0,749300
24,416833	0,5	-0,737350
24,425167	0,5	-0,725150
24,433500	0,5	-0,780000
24,441833	0,5	-0,767700
24,450167	0,5	-0,750250
24,458500	0,5	-0,710800
24,466833	0,5	-0,679950
24,475167	0,5	-0,664550
24,483500	0,5	-0,651950
24,491833	0,5	-0,658550
24,500167	0,5	-0,640050
24,508500	0,5	-0,623850
24,516833	0,5	-0,603500
24,525167	0,5	-0,595300
24,533500	0,5	-0,578350
24,541833	0,5	-0,570650
24,550167	0,5	-0,555600
24,558500	0,5	-0,542150
24,566833	0,5	-0,529700
24,575167	0,5	-0,523100
24,583500	0,5	-0,576950
24,591833	0,5	-0,549650
24,600167	0,5	-0,540900
24,608500	0,5	-0,507600
24,616833	0,5	-0,494500
24,625167	0,5	-0,481400
24,633500	0,5	-0,478450
24,641833	0,5	-0,484900
24,650167	0,5	-0,475850
24,658500	0,5	-0,458850
24,666833	0,5	-0,452150
24,675167	0,5	-0,437400
24,683500	0,5	-0,426200
24,691833	0,5	-0,412700
24,700167	0,5	-0,402200
24,708500	0,5	-0,387100
24,716833	0,5	-0,378300
24,725167	0,5	-0,386250
24,733500	0,5	-0,400150
24,741833	0,5	-0,378600
24,750167	0,5	-0,364900
24,758500	0,5	-0,340300
24,766833	0,5	-0,330050
24,775167	0,5	-0,322900
24,783500	0,5	-0,322400
24,791833	0,5	-0,325500
24,800167	0,5	-0,311700
24,808500	0,5	-0,308200
24,816833	0,5	-0,297600
24,825167	0,5	-0,292300
24,833500	0,5	-0,284900
24,841833	0,5	-0,277750
24,850167	0,5	-0,267500
24,858500	0,5	-0,260350
24,866833	0,5	-0,253550
24,875167	0,5	-0,269500
24,883500	0,5	-0,264350
24,891833	0,5	-0,253750
24,900167	0,5	-0,236900
24,908500	0,5	-0,224900
24,916833	0,5	-0,213750
24,925167	0,5	-0,209550
24,933500	0,5	-0,209650
24,941833	0,5	-0,204850
24,950167	0,5	-0,199250
24,958500	0,5	-0,188950
24,966833	0,5	-0,181900
24,975167	0,5	-0,173450
24,983500	0,5	-0,166950
24,991833	0,5	-0,159850
25,000167	0,5	-0,154250
25,008500	0,5	-0,147450
25,016833	0,5	-0,143650
25,025167	0,5	-0,151850
25,033500	0,5	-0,147900
25,041833	0,5	-0,138500
25,050167	0,5	-0,132400
25,058500	0,5	-0,122850
25,066833	0,5	-0,119250
25,075167	0,5	-0,118050
25,083500	0,5	-0,120650
25,091833	0,5	-0,118850
25,100167	0,5	-0,113150
25,108500	0,5	-0,107150
25,116833	0,5	-0,101450
25,125167	0,5	-0,097000
25,133500	0,5	-0,090850
25,141833	0,5	-0,083600
25,150167	0,5	-0,076300
25,158500	0,5	-0,071900
25,166833	0,5	-0,069900
25,175167	0,5	-0,067700
25,183500	0,5	-0,060250
25,191833	0,5	-0,055050
25,200167	0,5	-0,050350
25,208500	0,5	-0,048550
25,216833	0,5	-0,044850
25,225167	0,5	-0,045950
25,233500	0,5	-0,044950
25,241833	0,5	-0,039700
25,250167	0,5	-0,038700
25,258500	0,5	-0,038550
25,266833	0,5	-0,036850
25,275167	0,5	-0,035350
25,283500	0,5	-0,032100
25,291833	0,5	-0,031150
25,300167	0,5	-0,026250
25,308500	0,5	-0,026350
25,316833	0,5	-0,021850
25,325167	0,5	-0,017300
25,333500	0,5	-0,014650
25,341833	0,5	-0,012050
25,350167	0,5	-0,009650
25,358500	0,5	-0,005900
25,366833	0,5	-0,001750
25,375167	0,5	0,000150
25,383500	0,5	0,002450
25,391833	0,5	0,006750
25,400167	0,5	0,009150
25,408500	0,5	0,010500
25,416833	0,5	0,011750
25,425167	0,5	0,013350
25,433500	0,5	0,014800
25,441833	0,5	0,015100
25,450167	0,5	0,016100
25,458500	0,5	0,015700
25,466833	0,5	0,021500
25,475167	0,5	0,024150
25,483500	0,5	0,028350
25,491833	0,5	0,019500
25,500167	0,5	0,020200
25,508500	0,5	0,023550
25,516833	0,5	0,023950
25,525167	0,5	0,030200
25,533500	0,5	0,027700
25,541833	0,5	0,030050
25,550167	0,5	0,030900
25,558500	0,5	0,034900
25,566833	0,5	0,036200
25,575167	0,5	0,039100
25,583500	0,5	0,040500
25,591833	0,5	0,042150
25,600167	0,5	0,043050
25,608500	0,5	0,047350
25,616833	0,5	0,054750
25,625167	0,5	0,054450
25,633500	0,5	0,054650
25,641833	0,5	0,049000
25,650167	0,5	0,051700
25,658500	0,5	0,049900
25,666833	0,5	0,051850
25,675167	0,5	0,058050
25,683500	0,5	0,059150
25,691833	0,5	0,057750
25,700167	0,5	0,059100
25,708500	0,5	0,059600
25,716833	0,5	0,064050
25,725167	0,5	0,064950
25,733500	0,5	0,065900
25,741833	0,5	0,069100
25,750167	0,5	0,073650
25,758500	0,5	0,080500
25,766833	0,5	0,091050
25,775167	0,5	0,084500
25,783500	0,5	0,088850
25,791833	0,5	0,082150
25,800167	0,5	0,085850
25,808500	0,5	0,087350
25,816833	0,5	0,095100
25,825167	0,5	0,101450
25,833500	0,5	0,098200
25,841833	0,5	0,099050
25,850167	0,5	0,094950
25,858500	0,5	0,099000
25,866833	0,5	0,098800
25,875167	0,5	0,098600
25,883500	0,5	0,095600
25,891833	0,5	0,097850
25,900167	0,5	0,095900
25,908500	0,5	0,101550
25,916833	0,5	0,101150
25,925167	0,5	0,110800
25,933500	0,5	0,102800
25,941833	0,5	0,099000
25,950167	0,5	0,102950
25,958500	0,5	0,103700
25,966833	0,5	0,114050
25,975167	0,5	0,121900
25,983500	0,5	0,121650
25,991833	0,5	0,120550
26,000167	0,5	0,120150
