File Path	chrom://chromeleon01/ikbm_chromeleon/2022/ICS-5000/ED1/Esteban/20220612_Cell_7_4_eg.seq/647.smp/ED_1.channel/ED_1.chm
Channel	ED_1

Injection Information:
Data Vault	ikbm_chromeleon
Injection	4_01h-EGS_1
Injection Number	107
Position	BA7
Comment	
Processing Method	Stop sequence after Cell Death
Instrument Method	ICS5000_PA200_FullNative_Ox_26min_ED1
Type	Unknown
Status	Finished
Injection Date	14.06.2022
Injection Time	18:36:41
Injection Volume (µl)	5,0
Dilution Factor	1,0000
Weight	1,0000

Chromatogram Data Information:
Time Min. (min)	0,000167
Time Max. (min)	26,000167
Data Points	3121
Detector	EDet1
Generating Data System	Chromeleon 7.2.9.11323
Exporting Data System	Chromeleon 7.2.9.0
Operator	Instrument Controller
Signal Quantity	
Signal Unit	nC
Signal Min.	-2,676150
Signal Max.	2 101,088381
Channel	ED_1
Driver Name	DC-5000
Channel Type	Evaluation
Min. Step (s)	0,5
Max. Step (s)	0,5
Average Step (s)	0,5

Signal Parameter Information:
Signal Info	

Chromatogram Data:
Time (min)	Step (s)	Value (nC)
0,000167	n.a.	0,009650
0,008500	0,5	-0,042000
0,016833	0,5	-0,048250
0,025167	0,5	-0,036400
0,033500	0,5	-0,016800
0,041833	0,5	0,029050
0,050167	0,5	0,031850
0,058500	0,5	0,029500
0,066833	0,5	0,023050
0,075167	0,5	0,035650
0,083500	0,5	0,026550
0,091833	0,5	0,032600
0,100167	0,5	0,022600
0,108500	0,5	0,019500
0,116833	0,5	0,021300
0,125167	0,5	0,015350
0,133500	0,5	0,008450
0,141833	0,5	0,002150
0,150167	0,5	0,021000
0,158500	0,5	-0,007900
0,166833	0,5	-0,010250
0,175167	0,5	-0,008450
0,183500	0,5	0,018450
0,191833	0,5	0,036550
0,200167	0,5	0,048100
0,208500	0,5	0,028800
0,216833	0,5	0,043400
0,225167	0,5	0,030650
0,233500	0,5	0,031450
0,241833	0,5	0,018950
0,250167	0,5	0,016700
0,258500	0,5	0,010250
0,266833	0,5	0,009850
0,275167	0,5	0,005950
0,283500	0,5	-0,007750
0,291833	0,5	0,014650
0,300167	0,5	0,064350
0,308500	0,5	0,069400
0,316833	0,5	0,046400
0,325167	0,5	-0,001800
0,333500	0,5	-0,017400
0,341833	0,5	-0,012600
0,350167	0,5	-0,014800
0,358500	0,5	-0,003750
0,366833	0,5	-0,009050
0,375167	0,5	0,006050
0,383500	0,5	-0,005600
0,391833	0,5	0,001600
0,400167	0,5	-0,013100
0,408500	0,5	-0,008050
0,416833	0,5	-0,008900
0,425167	0,5	-0,027650
0,433500	0,5	-0,037350
0,441833	0,5	-0,004550
0,450167	0,5	-0,028250
0,458500	0,5	-0,036900
0,466833	0,5	-0,035550
0,475167	0,5	-0,031750
0,483500	0,5	0,002650
0,491833	0,5	0,002750
0,500167	0,5	0,003600
0,508500	0,5	0,001350
0,516833	0,5	0,002850
0,525167	0,5	-0,006550
0,533500	0,5	-0,003850
0,541833	0,5	-0,015550
0,550167	0,5	-0,014300
0,558500	0,5	-0,016950
0,566833	0,5	-0,010800
0,575167	0,5	-0,027850
0,583500	0,5	-0,024250
0,591833	0,5	0,000600
0,600167	0,5	-0,020350
0,608500	0,5	-0,033800
0,616833	0,5	-0,024000
0,625167	0,5	-0,012900
0,633500	0,5	0,028050
0,641833	0,5	0,011750
0,650167	0,5	0,002050
0,658500	0,5	0,009400
0,666833	0,5	0,007350
0,675167	0,5	0,003800
0,683500	0,5	0,001850
0,691833	0,5	0,006300
0,700167	0,5	0,007550
0,708500	0,5	0,013100
0,716833	0,5	0,011750
0,725167	0,5	0,005900
0,733500	0,5	0,000150
0,741833	0,5	0,036800
0,750167	0,5	0,000400
0,758500	0,5	0,002750
0,766833	0,5	0,003300
0,775167	0,5	0,021850
0,783500	0,5	0,050850
0,791833	0,5	0,038300
0,800167	0,5	0,030500
0,808500	0,5	0,043750
0,816833	0,5	0,042600
0,825167	0,5	0,046550
0,833500	0,5	0,043800
0,841833	0,5	0,040500
0,850167	0,5	0,040900
0,858500	0,5	0,039150
0,866833	0,5	0,057100
0,875167	0,5	0,035850
0,883500	0,5	0,052200
0,891833	0,5	0,058000
0,900167	0,5	0,040300
0,908500	0,5	0,038100
0,916833	0,5	0,051900
0,925167	0,5	0,071200
0,933500	0,5	0,099450
0,941833	0,5	0,081750
0,950167	0,5	0,093100
0,958500	0,5	0,082850
0,966833	0,5	0,091700
0,975167	0,5	0,081600
0,983500	0,5	0,096200
0,991833	0,5	0,090300
1,000167	0,5	0,092950
1,008500	0,5	0,095100
1,016833	0,5	0,080600
1,025167	0,5	0,077850
1,033500	0,5	0,096900
1,041833	0,5	0,086450
1,050167	0,5	0,075250
1,058500	0,5	0,079350
1,066833	0,5	0,095800
1,075167	0,5	0,131900
1,083500	0,5	0,138000
1,091833	0,5	0,132600
1,100167	0,5	0,121750
1,108500	0,5	0,132200
1,116833	0,5	0,124850
1,125167	0,5	0,131600
1,133500	0,5	0,121300
1,141833	0,5	0,125000
1,150167	0,5	0,120200
1,158500	0,5	0,122000
1,166833	0,5	0,115150
1,175167	0,5	0,122450
1,183500	0,5	0,130800
1,191833	0,5	0,115400
1,200167	0,5	0,107300
1,208500	0,5	0,112950
1,216833	0,5	0,125900
1,225167	0,5	0,153600
1,233500	0,5	0,166300
1,241833	0,5	0,152400
1,250167	0,5	0,157650
1,258500	0,5	0,151900
1,266833	0,5	0,153800
1,275167	0,5	0,149200
1,283500	0,5	0,149900
1,291833	0,5	0,142100
1,300167	0,5	0,147100
1,308500	0,5	0,146050
1,316833	0,5	0,147350
1,325167	0,5	0,154750
1,333500	0,5	0,157150
1,341833	0,5	0,130850
1,350167	0,5	0,132050
1,358500	0,5	0,133950
1,366833	0,5	0,167750
1,375167	0,5	0,181400
1,383500	0,5	0,176900
1,391833	0,5	0,176550
1,400167	0,5	0,172200
1,408500	0,5	0,173500
1,416833	0,5	0,168100
1,425167	0,5	0,172850
1,433500	0,5	0,163800
1,441833	0,5	0,168450
1,450167	0,5	0,161650
1,458500	0,5	0,164250
1,466833	0,5	0,150500
1,475167	0,5	0,186300
1,483500	0,5	0,166400
1,491833	0,5	0,156200
1,500167	0,5	0,153000
1,508500	0,5	0,164850
1,516833	0,5	0,192200
1,525167	0,5	0,193750
1,533500	0,5	0,185350
1,541833	0,5	0,193150
1,550167	0,5	0,195850
1,558500	0,5	0,235550
1,566833	0,5	0,345100
1,575167	0,5	0,682100
1,583500	0,5	1,455550
1,591833	0,5	4,294950
1,600167	0,5	19,110300
1,608500	0,5	81,570251
1,616833	0,5	296,882354
1,625167	0,5	866,697563
1,633500	0,5	1 554,477823
1,641833	0,5	2 101,088381
1,650167	0,5	2 070,213281
1,658500	0,5	2 015,283380
1,666833	0,5	1 985,068430
1,675167	0,5	1 841,874777
1,683500	0,5	1 477,377322
1,691833	0,5	1 037,509265
1,700167	0,5	707,396611
1,708500	0,5	504,956258
1,716833	0,5	385,387856
1,725167	0,5	308,058605
1,733500	0,5	255,481204
1,741833	0,5	216,518253
1,750167	0,5	186,743553
1,758500	0,5	163,882602
1,766833	0,5	145,515852
1,775167	0,5	129,771152
1,783500	0,5	115,886302
1,791833	0,5	104,257002
1,800167	0,5	95,209151
1,808500	0,5	88,923301
1,816833	0,5	85,533451
1,825167	0,5	85,162551
1,833500	0,5	87,348401
1,841833	0,5	89,918751
1,850167	0,5	90,074701
1,858500	0,5	86,949851
1,866833	0,5	81,302901
1,875167	0,5	74,519801
1,883500	0,5	68,141301
1,891833	0,5	63,280751
1,900167	0,5	59,938151
1,908500	0,5	57,370101
1,916833	0,5	55,081101
1,925167	0,5	53,268701
1,933500	0,5	52,153351
1,941833	0,5	51,503201
1,950167	0,5	50,555001
1,958500	0,5	48,957001
1,966833	0,5	47,080251
1,975167	0,5	45,543201
1,983500	0,5	44,973751
1,991833	0,5	45,878301
2,000167	0,5	48,897451
2,008500	0,5	53,395801
2,016833	0,5	56,678151
2,025167	0,5	56,249801
2,033500	0,5	53,015051
2,041833	0,5	49,566101
2,050167	0,5	47,363301
2,058500	0,5	46,444951
2,066833	0,5	46,553501
2,075167	0,5	47,450301
2,083500	0,5	49,186001
2,091833	0,5	51,874401
2,100167	0,5	55,623951
2,108500	0,5	60,529901
2,116833	0,5	66,829451
2,125167	0,5	75,267651
2,133500	0,5	86,517651
2,141833	0,5	99,717151
2,150167	0,5	111,923202
2,158500	0,5	119,536752
2,166833	0,5	119,967852
2,175167	0,5	112,592352
2,183500	0,5	99,731701
2,191833	0,5	85,740101
2,200167	0,5	73,778701
2,208500	0,5	64,791001
2,216833	0,5	58,447001
2,225167	0,5	54,685401
2,233500	0,5	54,200051
2,241833	0,5	57,441301
2,250167	0,5	62,140951
2,258500	0,5	63,828801
2,266833	0,5	60,911651
2,275167	0,5	56,400251
2,283500	0,5	53,077051
2,291833	0,5	50,435701
2,300167	0,5	46,935101
2,308500	0,5	42,713801
2,316833	0,5	38,921801
2,325167	0,5	36,172151
2,333500	0,5	34,343951
2,341833	0,5	33,107350
2,350167	0,5	32,345550
2,358500	0,5	32,104950
2,366833	0,5	32,469300
2,375167	0,5	33,484950
2,383500	0,5	35,212751
2,391833	0,5	37,446251
2,400167	0,5	39,579251
2,408500	0,5	41,172651
2,416833	0,5	42,336851
2,425167	0,5	42,773201
2,433500	0,5	42,034251
2,441833	0,5	40,224451
2,450167	0,5	38,142251
2,458500	0,5	36,358551
2,466833	0,5	34,986701
2,475167	0,5	33,857101
2,483500	0,5	32,765900
2,491833	0,5	31,687450
2,500167	0,5	30,658300
2,508500	0,5	29,808900
2,516833	0,5	29,089150
2,525167	0,5	28,521950
2,533500	0,5	28,124150
2,541833	0,5	27,835900
2,550167	0,5	27,541100
2,558500	0,5	27,133950
2,566833	0,5	26,614800
2,575167	0,5	26,209600
2,583500	0,5	26,207900
2,591833	0,5	27,415850
2,600167	0,5	30,089700
2,608500	0,5	31,579900
2,616833	0,5	30,253000
2,625167	0,5	28,322800
2,633500	0,5	26,957300
2,641833	0,5	26,037750
2,650167	0,5	25,385400
2,658500	0,5	24,950700
2,666833	0,5	24,560850
2,675167	0,5	24,265800
2,683500	0,5	24,050750
2,691833	0,5	23,929650
2,700167	0,5	23,935700
2,708500	0,5	23,940400
2,716833	0,5	23,963900
2,725167	0,5	23,893950
2,733500	0,5	23,712800
2,741833	0,5	23,401050
2,750167	0,5	23,038550
2,758500	0,5	22,650550
2,766833	0,5	22,295350
2,775167	0,5	21,974550
2,783500	0,5	21,705400
2,791833	0,5	21,478700
2,800167	0,5	21,326800
2,808500	0,5	21,272850
2,816833	0,5	21,250700
2,825167	0,5	21,302800
2,833500	0,5	21,376850
2,841833	0,5	21,456100
2,850167	0,5	21,543050
2,858500	0,5	21,645000
2,866833	0,5	21,853150
2,875167	0,5	22,263050
2,883500	0,5	22,925200
2,891833	0,5	23,976350
2,900167	0,5	25,618550
2,908500	0,5	28,350250
2,916833	0,5	33,224300
2,925167	0,5	42,122551
2,933500	0,5	57,440351
2,941833	0,5	80,660201
2,950167	0,5	109,910702
2,958500	0,5	138,926002
2,966833	0,5	158,991402
2,975167	0,5	164,297202
2,983500	0,5	154,395152
2,991833	0,5	133,933302
3,000167	0,5	109,502952
3,008500	0,5	86,730801
3,016833	0,5	68,877201
3,025167	0,5	56,550251
3,033500	0,5	48,686501
3,041833	0,5	43,705601
3,050167	0,5	40,263701
3,058500	0,5	37,536551
3,066833	0,5	35,195151
3,075167	0,5	33,097650
3,083500	0,5	31,262200
3,091833	0,5	29,766900
3,100167	0,5	28,872600
3,108500	0,5	28,855750
3,116833	0,5	30,180150
3,125167	0,5	33,117950
3,133500	0,5	37,449051
3,141833	0,5	42,315301
3,150167	0,5	46,418251
3,158500	0,5	48,585401
3,166833	0,5	48,297101
3,175167	0,5	45,705301
3,183500	0,5	41,553001
3,191833	0,5	36,709351
3,200167	0,5	31,972750
3,208500	0,5	27,828850
3,216833	0,5	24,497100
3,225167	0,5	21,970700
3,233500	0,5	20,094550
3,241833	0,5	18,778200
3,250167	0,5	17,858050
3,258500	0,5	17,179000
3,266833	0,5	16,678450
3,275167	0,5	16,301000
3,283500	0,5	15,990550
3,291833	0,5	15,726050
3,300167	0,5	15,451300
3,308500	0,5	15,195700
3,316833	0,5	14,947300
3,325167	0,5	14,748500
3,333500	0,5	14,572550
3,341833	0,5	14,475750
3,350167	0,5	14,465200
3,358500	0,5	14,594600
3,366833	0,5	14,864750
3,375167	0,5	15,248300
3,383500	0,5	15,687950
3,391833	0,5	16,114250
3,400167	0,5	16,373950
3,408500	0,5	16,396600
3,416833	0,5	16,192550
3,425167	0,5	15,812200
3,433500	0,5	15,367400
3,441833	0,5	14,892700
3,450167	0,5	14,462800
3,458500	0,5	14,097100
3,466833	0,5	14,095550
3,475167	0,5	13,583600
3,483500	0,5	13,405800
3,491833	0,5	13,246050
3,500167	0,5	13,121950
3,508500	0,5	13,013550
3,516833	0,5	12,934800
3,525167	0,5	12,872600
3,533500	0,5	12,817000
3,541833	0,5	12,815050
3,550167	0,5	12,831150
3,558500	0,5	12,887650
3,566833	0,5	13,050650
3,575167	0,5	13,329450
3,583500	0,5	13,758400
3,591833	0,5	14,252050
3,600167	0,5	14,727350
3,608500	0,5	15,095000
3,616833	0,5	15,206750
3,625167	0,5	15,046200
3,633500	0,5	14,623600
3,641833	0,5	14,062750
3,650167	0,5	13,452300
3,658500	0,5	12,922200
3,666833	0,5	12,495600
3,675167	0,5	12,187300
3,683500	0,5	11,974850
3,691833	0,5	11,882900
3,700167	0,5	11,775150
3,708500	0,5	11,720250
3,716833	0,5	11,674550
3,725167	0,5	11,650900
3,733500	0,5	11,650700
3,741833	0,5	11,606500
3,750167	0,5	11,569450
3,758500	0,5	11,534400
3,766833	0,5	11,487300
3,775167	0,5	11,417700
3,783500	0,5	11,337150
3,791833	0,5	11,241650
3,800167	0,5	11,156000
3,808500	0,5	11,067950
3,816833	0,5	10,995950
3,825167	0,5	10,916450
3,833500	0,5	10,883050
3,841833	0,5	10,893000
3,850167	0,5	10,921050
3,858500	0,5	11,041450
3,866833	0,5	11,257000
3,875167	0,5	11,539200
3,883500	0,5	11,857550
3,891833	0,5	12,112000
3,900167	0,5	12,325750
3,908500	0,5	12,489000
3,916833	0,5	12,597700
3,925167	0,5	12,654000
3,933500	0,5	12,669600
3,941833	0,5	12,649650
3,950167	0,5	12,618150
3,958500	0,5	12,595350
3,966833	0,5	12,580050
3,975167	0,5	12,602450
3,983500	0,5	12,669050
3,991833	0,5	12,798800
4,000167	0,5	12,991800
4,008500	0,5	13,388650
4,016833	0,5	14,156500
4,025167	0,5	15,670950
4,033500	0,5	18,342400
4,041833	0,5	22,338650
4,050167	0,5	27,276850
4,058500	0,5	32,263600
4,066833	0,5	36,263951
4,075167	0,5	38,584951
4,083500	0,5	38,981801
4,091833	0,5	37,701201
4,100167	0,5	35,262601
4,108500	0,5	32,255100
4,116833	0,5	29,189450
4,125167	0,5	26,387900
4,133500	0,5	24,029700
4,141833	0,5	22,097350
4,150167	0,5	20,534750
4,158500	0,5	19,294750
4,166833	0,5	18,286800
4,175167	0,5	17,450150
4,183500	0,5	16,721050
4,191833	0,5	16,060400
4,200167	0,5	15,498600
4,208500	0,5	14,989350
4,216833	0,5	14,563550
4,225167	0,5	14,179250
4,233500	0,5	13,855600
4,241833	0,5	13,563900
4,250167	0,5	13,315550
4,258500	0,5	13,091300
4,266833	0,5	12,870900
4,275167	0,5	12,682100
4,283500	0,5	12,519200
4,291833	0,5	12,334600
4,300167	0,5	12,153700
4,308500	0,5	11,993450
4,316833	0,5	11,845450
4,325167	0,5	11,718400
4,333500	0,5	11,577500
4,341833	0,5	11,449900
4,350167	0,5	11,314600
4,358500	0,5	11,201900
4,366833	0,5	11,083400
4,375167	0,5	10,989600
4,383500	0,5	10,885900
4,391833	0,5	10,803950
4,400167	0,5	10,728600
4,408500	0,5	10,674750
4,416833	0,5	10,615800
4,425167	0,5	10,607650
4,433500	0,5	10,603600
4,441833	0,5	10,607600
4,450167	0,5	10,643200
4,458500	0,5	10,719550
4,466833	0,5	10,830050
4,475167	0,5	10,947450
4,483500	0,5	11,046800
4,491833	0,5	11,125750
4,500167	0,5	11,172800
4,508500	0,5	11,161900
4,516833	0,5	11,095700
4,525167	0,5	10,979400
4,533500	0,5	10,820500
4,541833	0,5	10,630000
4,550167	0,5	10,436250
4,558500	0,5	10,235250
4,566833	0,5	10,051600
4,575167	0,5	9,915250
4,583500	0,5	9,777050
4,591833	0,5	9,657800
4,600167	0,5	9,570600
4,608500	0,5	9,509000
4,616833	0,5	9,488050
4,625167	0,5	9,448100
4,633500	0,5	9,409350
4,641833	0,5	9,384900
4,650167	0,5	9,375750
4,658500	0,5	9,363950
4,666833	0,5	9,358850
4,675167	0,5	9,354900
4,683500	0,5	9,339300
4,691833	0,5	9,334500
4,700167	0,5	9,322100
4,708500	0,5	9,313000
4,716833	0,5	9,274200
4,725167	0,5	9,275050
4,733500	0,5	9,227000
4,741833	0,5	9,195750
4,750167	0,5	9,168100
4,758500	0,5	9,158850
4,766833	0,5	9,172300
4,775167	0,5	9,157750
4,783500	0,5	9,141100
4,791833	0,5	9,151650
4,800167	0,5	9,149700
4,808500	0,5	9,155350
4,816833	0,5	9,148700
4,825167	0,5	9,145600
4,833500	0,5	9,134050
4,841833	0,5	9,122900
4,850167	0,5	9,115600
4,858500	0,5	9,093250
4,866833	0,5	9,076050
4,875167	0,5	9,088400
4,883500	0,5	9,071700
4,891833	0,5	9,076500
4,900167	0,5	9,092050
4,908500	0,5	9,132650
4,916833	0,5	9,194950
4,925167	0,5	9,223000
4,933500	0,5	9,283350
4,941833	0,5	9,343500
4,950167	0,5	9,443000
4,958500	0,5	9,551150
4,966833	0,5	9,698000
4,975167	0,5	9,863750
4,983500	0,5	10,076200
4,991833	0,5	10,321100
5,000167	0,5	10,588650
5,008500	0,5	10,866700
5,016833	0,5	11,162900
5,025167	0,5	11,431100
5,033500	0,5	11,636050
5,041833	0,5	11,792250
5,050167	0,5	11,869650
5,058500	0,5	11,883650
5,066833	0,5	11,813100
5,075167	0,5	11,659150
5,083500	0,5	11,436900
5,091833	0,5	11,206500
5,100167	0,5	10,945800
5,108500	0,5	10,696850
5,116833	0,5	10,449000
5,125167	0,5	10,228850
5,133500	0,5	10,027300
5,141833	0,5	9,850750
5,150167	0,5	9,683500
5,158500	0,5	9,542050
5,166833	0,5	9,422850
5,175167	0,5	9,308250
5,183500	0,5	9,190450
5,191833	0,5	9,109000
5,200167	0,5	9,037700
5,208500	0,5	8,997000
5,216833	0,5	8,957100
5,225167	0,5	8,899800
5,233500	0,5	8,867050
5,241833	0,5	8,829300
5,250167	0,5	8,804850
5,258500	0,5	8,775900
5,266833	0,5	8,761650
5,275167	0,5	8,740100
5,283500	0,5	8,732000
5,291833	0,5	8,716850
5,300167	0,5	8,707850
5,308500	0,5	8,704150
5,316833	0,5	8,730400
5,325167	0,5	8,724550
5,333500	0,5	8,736400
5,341833	0,5	8,760600
5,350167	0,5	8,793350
5,358500	0,5	8,831750
5,366833	0,5	8,841850
5,375167	0,5	8,847100
5,383500	0,5	8,851900
5,391833	0,5	8,845100
5,400167	0,5	8,832450
5,408500	0,5	8,818650
5,416833	0,5	8,800650
5,425167	0,5	8,793400
5,433500	0,5	8,793850
5,441833	0,5	8,803500
5,450167	0,5	8,801100
5,458500	0,5	8,831650
5,466833	0,5	8,857900
5,475167	0,5	8,864950
5,483500	0,5	8,868150
5,491833	0,5	8,880250
5,500167	0,5	8,884750
5,508500	0,5	8,884150
5,516833	0,5	8,839400
5,525167	0,5	8,801800
5,533500	0,5	8,746300
5,541833	0,5	8,695200
5,550167	0,5	8,628350
5,558500	0,5	8,575150
5,566833	0,5	8,515300
5,575167	0,5	8,467600
5,583500	0,5	8,427800
5,591833	0,5	8,387850
5,600167	0,5	8,347350
5,608500	0,5	8,335000
5,616833	0,5	8,309900
5,625167	0,5	8,283650
5,633500	0,5	8,269600
5,641833	0,5	8,263050
5,650167	0,5	8,278750
5,658500	0,5	8,270200
5,666833	0,5	8,264700
5,675167	0,5	8,256550
5,683500	0,5	8,263700
5,691833	0,5	8,255850
5,700167	0,5	8,263650
5,708500	0,5	8,254900
5,716833	0,5	8,255700
5,725167	0,5	8,254550
5,733500	0,5	8,252700
5,741833	0,5	8,267400
5,750167	0,5	8,253700
5,758500	0,5	8,272250
5,766833	0,5	8,259550
5,775167	0,5	8,252650
5,783500	0,5	8,246950
5,791833	0,5	8,256250
5,800167	0,5	8,275600
5,808500	0,5	8,274100
5,816833	0,5	8,261850
5,825167	0,5	8,276900
5,833500	0,5	8,272850
5,841833	0,5	8,282150
5,850167	0,5	8,274150
5,858500	0,5	8,279350
5,866833	0,5	8,276900
5,875167	0,5	8,270400
5,883500	0,5	8,261950
5,891833	0,5	8,240950
5,900167	0,5	8,213400
5,908500	0,5	8,204300
5,916833	0,5	8,158000
5,925167	0,5	8,126300
5,933500	0,5	8,092450
5,941833	0,5	8,065150
5,950167	0,5	8,040150
5,958500	0,5	7,976750
5,966833	0,5	7,909000
5,975167	0,5	7,828100
5,983500	0,5	7,762300
5,991833	0,5	7,693200
6,000167	0,5	7,642950
6,008500	0,5	7,591550
6,016833	0,5	7,554050
6,025167	0,5	7,525950
6,033500	0,5	7,501700
6,041833	0,5	7,475100
6,050167	0,5	7,471400
6,058500	0,5	7,466950
6,066833	0,5	7,459500
6,075167	0,5	7,459800
6,083500	0,5	7,468000
6,091833	0,5	7,490950
6,100167	0,5	7,523200
6,108500	0,5	7,546050
6,116833	0,5	7,562950
6,125167	0,5	7,586800
6,133500	0,5	7,603850
6,141833	0,5	7,624800
6,150167	0,5	7,646550
6,158500	0,5	7,662450
6,166833	0,5	7,677400
6,175167	0,5	7,692950
6,183500	0,5	7,704050
6,191833	0,5	7,722400
6,200167	0,5	7,760300
6,208500	0,5	7,795700
6,216833	0,5	7,825300
6,225167	0,5	7,888250
6,233500	0,5	7,962750
6,241833	0,5	8,068950
6,250167	0,5	8,160650
6,258500	0,5	8,242700
6,266833	0,5	8,311500
6,275167	0,5	8,365000
6,283500	0,5	8,392950
6,291833	0,5	8,389500
6,300167	0,5	8,353850
6,308500	0,5	8,284600
6,316833	0,5	8,194100
6,325167	0,5	8,085900
6,333500	0,5	7,969900
6,341833	0,5	7,849050
6,350167	0,5	7,752850
6,358500	0,5	7,642950
6,366833	0,5	7,549650
6,375167	0,5	7,479850
6,383500	0,5	7,431650
6,391833	0,5	7,400950
6,400167	0,5	7,369850
6,408500	0,5	7,340300
6,416833	0,5	7,331500
6,425167	0,5	7,317850
6,433500	0,5	7,322600
6,441833	0,5	7,319050
6,450167	0,5	7,327000
6,458500	0,5	7,333650
6,466833	0,5	7,350150
6,475167	0,5	7,371500
6,483500	0,5	7,381800
6,491833	0,5	7,406050
6,500167	0,5	7,425650
6,508500	0,5	7,421700
6,516833	0,5	7,413600
6,525167	0,5	7,413650
6,533500	0,5	7,408200
6,541833	0,5	7,408750
6,550167	0,5	7,383950
6,558500	0,5	7,376750
6,566833	0,5	7,365450
6,575167	0,5	7,374600
6,583500	0,5	7,382600
6,591833	0,5	7,410150
6,600167	0,5	7,442250
6,608500	0,5	7,487900
6,616833	0,5	7,539100
6,625167	0,5	7,591550
6,633500	0,5	7,633450
6,641833	0,5	7,697250
6,650167	0,5	7,737150
6,658500	0,5	7,758300
6,666833	0,5	7,777350
6,675167	0,5	7,791900
6,683500	0,5	7,806850
6,691833	0,5	7,794000
6,700167	0,5	7,757050
6,708500	0,5	7,710000
6,716833	0,5	7,662400
6,725167	0,5	7,608450
6,733500	0,5	7,562500
6,741833	0,5	7,512600
6,750167	0,5	7,480350
6,758500	0,5	7,462350
6,766833	0,5	7,464800
6,775167	0,5	7,480000
6,783500	0,5	7,507600
6,791833	0,5	7,563000
6,800167	0,5	7,618350
6,808500	0,5	7,684950
6,816833	0,5	7,775850
6,825167	0,5	7,892450
6,833500	0,5	8,048900
6,841833	0,5	8,232700
6,850167	0,5	8,461350
6,858500	0,5	8,789000
6,866833	0,5	9,237700
6,875167	0,5	9,861950
6,883500	0,5	10,698150
6,891833	0,5	11,789600
6,900167	0,5	13,126450
6,908500	0,5	14,672750
6,916833	0,5	16,312850
6,925167	0,5	17,896200
6,933500	0,5	19,250700
6,941833	0,5	20,253050
6,950167	0,5	20,747000
6,958500	0,5	20,736700
6,966833	0,5	20,246500
6,975167	0,5	19,362050
6,983500	0,5	18,189550
6,991833	0,5	16,811800
7,000167	0,5	15,358650
7,008500	0,5	13,943700
7,016833	0,5	12,632850
7,025167	0,5	11,487250
7,033500	0,5	10,532700
7,041833	0,5	9,773800
7,050167	0,5	9,186500
7,058500	0,5	8,750250
7,066833	0,5	8,430650
7,075167	0,5	8,202350
7,083500	0,5	8,059950
7,091833	0,5	7,977900
7,100167	0,5	7,919350
7,108500	0,5	7,876750
7,116833	0,5	7,825700
7,125167	0,5	7,758900
7,133500	0,5	7,670250
7,141833	0,5	7,556650
7,150167	0,5	7,453550
7,158500	0,5	7,358600
7,166833	0,5	7,288400
7,175167	0,5	7,230300
7,183500	0,5	7,186000
7,191833	0,5	7,149300
7,200167	0,5	7,114300
7,208500	0,5	7,084250
7,216833	0,5	7,041000
7,225167	0,5	7,001350
7,233500	0,5	6,975700
7,241833	0,5	6,945000
7,250167	0,5	6,912400
7,258500	0,5	6,896950
7,266833	0,5	6,890100
7,275167	0,5	6,906850
7,283500	0,5	6,919200
7,291833	0,5	6,933700
7,300167	0,5	6,936650
7,308500	0,5	6,944000
7,316833	0,5	6,945300
7,325167	0,5	6,945750
7,333500	0,5	6,952950
7,341833	0,5	6,967700
7,350167	0,5	6,993200
7,358500	0,5	7,031000
7,366833	0,5	7,065800
7,375167	0,5	7,100800
7,383500	0,5	7,130800
7,391833	0,5	7,110450
7,400167	0,5	7,067800
7,408500	0,5	7,000200
7,416833	0,5	6,928400
7,425167	0,5	6,863050
7,433500	0,5	6,796750
7,441833	0,5	6,733650
7,450167	0,5	6,687500
7,458500	0,5	6,648950
7,466833	0,5	6,624650
7,475167	0,5	6,595750
7,483500	0,5	6,572250
7,491833	0,5	6,534550
7,500167	0,5	6,495150
7,508500	0,5	6,454900
7,516833	0,5	6,416800
7,525167	0,5	6,381950
7,533500	0,5	6,373350
7,541833	0,5	6,355100
7,550167	0,5	6,344900
7,558500	0,5	6,338700
7,566833	0,5	6,337550
7,575167	0,5	6,342800
7,583500	0,5	6,326750
7,591833	0,5	6,316100
7,600167	0,5	6,308000
7,608500	0,5	6,324800
7,616833	0,5	6,375650
7,625167	0,5	6,499100
7,633500	0,5	6,685050
7,641833	0,5	6,885850
7,650167	0,5	7,022850
7,658500	0,5	7,070750
7,666833	0,5	7,030750
7,675167	0,5	6,963800
7,683500	0,5	6,878950
7,691833	0,5	6,778700
7,700167	0,5	6,669100
7,708500	0,5	6,560650
7,716833	0,5	6,463050
7,725167	0,5	6,385750
7,733500	0,5	6,322950
7,741833	0,5	6,281750
7,750167	0,5	6,269450
7,758500	0,5	6,276300
7,766833	0,5	6,296750
7,775167	0,5	6,326200
7,783500	0,5	6,350000
7,791833	0,5	6,359350
7,800167	0,5	6,361500
7,808500	0,5	6,348100
7,816833	0,5	6,333100
7,825167	0,5	6,345350
7,833500	0,5	6,365850
7,841833	0,5	6,409600
7,850167	0,5	6,481350
7,858500	0,5	6,586600
7,866833	0,5	6,741350
7,875167	0,5	6,943200
7,883500	0,5	7,238850
7,891833	0,5	7,676550
7,900167	0,5	8,305700
7,908500	0,5	9,178550
7,916833	0,5	10,349950
7,925167	0,5	11,858000
7,933500	0,5	13,738800
7,941833	0,5	16,008100
7,950167	0,5	18,594800
7,958500	0,5	21,312750
7,966833	0,5	23,849350
7,975167	0,5	25,847950
7,983500	0,5	26,957450
7,991833	0,5	27,008000
8,000167	0,5	25,985350
8,008500	0,5	24,078600
8,016833	0,5	21,638400
8,025167	0,5	19,141950
8,033500	0,5	17,002400
8,041833	0,5	15,469300
8,050167	0,5	14,539550
8,058500	0,5	14,191100
8,066833	0,5	14,538950
8,075167	0,5	16,082900
8,083500	0,5	19,895350
8,091833	0,5	27,474150
8,100167	0,5	39,796701
8,108500	0,5	55,709801
8,116833	0,5	71,205001
8,125167	0,5	80,939301
8,133500	0,5	81,411201
8,141833	0,5	73,133351
8,150167	0,5	59,622401
8,158500	0,5	45,102251
8,166833	0,5	32,600200
8,175167	0,5	23,344450
8,183500	0,5	17,248800
8,191833	0,5	13,535350
8,200167	0,5	11,376900
8,208500	0,5	10,125650
8,216833	0,5	9,379850
8,225167	0,5	8,898850
8,233500	0,5	8,575700
8,241833	0,5	8,341600
8,250167	0,5	8,154200
8,258500	0,5	7,955350
8,266833	0,5	7,723250
8,275167	0,5	7,453500
8,283500	0,5	7,198000
8,291833	0,5	7,007400
8,300167	0,5	6,883800
8,308500	0,5	6,816250
8,316833	0,5	6,768350
8,325167	0,5	6,724100
8,333500	0,5	6,678900
8,341833	0,5	6,631250
8,350167	0,5	6,592300
8,358500	0,5	6,563650
8,366833	0,5	6,536750
8,375167	0,5	6,499300
8,383500	0,5	6,445350
8,391833	0,5	6,379950
8,400167	0,5	6,317100
8,408500	0,5	6,271750
8,416833	0,5	6,246450
8,425167	0,5	6,233100
8,433500	0,5	6,222950
8,441833	0,5	6,229600
8,450167	0,5	6,247200
8,458500	0,5	6,291450
8,466833	0,5	6,371900
8,475167	0,5	6,502800
8,483500	0,5	6,663200
8,491833	0,5	6,785300
8,500167	0,5	6,806900
8,508500	0,5	6,726650
8,516833	0,5	6,590850
8,525167	0,5	6,448250
8,533500	0,5	6,332400
8,541833	0,5	6,239900
8,550167	0,5	6,174850
8,558500	0,5	6,126750
8,566833	0,5	6,103800
8,575167	0,5	6,099650
8,583500	0,5	6,123450
8,591833	0,5	6,166750
8,600167	0,5	6,224550
8,608500	0,5	6,306550
8,616833	0,5	6,414300
8,625167	0,5	6,574950
8,633500	0,5	6,780650
8,641833	0,5	7,003450
8,650167	0,5	7,189750
8,658500	0,5	7,289000
8,666833	0,5	7,291750
8,675167	0,5	7,220450
8,683500	0,5	7,128200
8,691833	0,5	7,078600
8,700167	0,5	7,091000
8,708500	0,5	7,152950
8,716833	0,5	7,228200
8,725167	0,5	7,288350
8,733500	0,5	7,375350
8,741833	0,5	7,533300
8,750167	0,5	7,762100
8,758500	0,5	8,041450
8,766833	0,5	8,348500
8,775167	0,5	8,714500
8,783500	0,5	9,223100
8,791833	0,5	10,088500
8,800167	0,5	11,756700
8,808500	0,5	15,162350
8,816833	0,5	21,511600
8,825167	0,5	31,410700
8,833500	0,5	43,410151
8,841833	0,5	53,773851
8,850167	0,5	58,371851
8,858500	0,5	55,430151
8,866833	0,5	46,576401
8,875167	0,5	35,486451
8,883500	0,5	25,462450
8,891833	0,5	18,085650
8,900167	0,5	13,360250
8,908500	0,5	10,556100
8,916833	0,5	8,922100
8,925167	0,5	7,951050
8,933500	0,5	7,359950
8,941833	0,5	6,996300
8,950167	0,5	6,762900
8,958500	0,5	6,604450
8,966833	0,5	6,476100
8,975167	0,5	6,369000
8,983500	0,5	6,284250
8,991833	0,5	6,219350
9,000167	0,5	6,179250
9,008500	0,5	6,152600
9,016833	0,5	6,149950
9,025167	0,5	6,176000
9,033500	0,5	6,234550
9,041833	0,5	6,348750
9,050167	0,5	6,504350
9,058500	0,5	6,669900
9,066833	0,5	6,814350
9,075167	0,5	6,931800
9,083500	0,5	7,049600
9,091833	0,5	7,175050
9,100167	0,5	7,285650
9,108500	0,5	7,417250
9,116833	0,5	7,504850
9,125167	0,5	7,459800
9,133500	0,5	7,376500
9,141833	0,5	7,340550
9,150167	0,5	7,370250
9,158500	0,5	7,488450
9,166833	0,5	7,706000
9,175167	0,5	8,075650
9,183500	0,5	8,741350
9,191833	0,5	9,930650
9,200167	0,5	12,065350
9,208500	0,5	15,461400
9,216833	0,5	19,011300
9,225167	0,5	20,978550
9,233500	0,5	20,867650
9,241833	0,5	20,282750
9,250167	0,5	20,718750
9,258500	0,5	22,272400
9,266833	0,5	24,635750
9,275167	0,5	27,405200
9,283500	0,5	30,255550
9,291833	0,5	32,845250
9,300167	0,5	34,852301
9,308500	0,5	35,932401
9,316833	0,5	35,906251
9,325167	0,5	34,763351
9,333500	0,5	32,651100
9,341833	0,5	29,849700
9,350167	0,5	26,679350
9,358500	0,5	23,468000
9,366833	0,5	20,493350
9,375167	0,5	17,946100
9,383500	0,5	15,919150
9,391833	0,5	14,412650
9,400167	0,5	13,361650
9,408500	0,5	12,643600
9,416833	0,5	12,128550
9,425167	0,5	11,698250
9,433500	0,5	11,284050
9,441833	0,5	10,859750
9,450167	0,5	10,443100
9,458500	0,5	10,052950
9,466833	0,5	9,722700
9,475167	0,5	9,458800
9,483500	0,5	9,255450
9,491833	0,5	9,098500
9,500167	0,5	8,961050
9,508500	0,5	8,823800
9,516833	0,5	8,683250
9,525167	0,5	8,527400
9,533500	0,5	8,353950
9,541833	0,5	8,152450
9,550167	0,5	7,914350
9,558500	0,5	7,642200
9,566833	0,5	7,356250
9,575167	0,5	7,071650
9,583500	0,5	6,806100
9,591833	0,5	6,565350
9,600167	0,5	6,355200
9,608500	0,5	6,171650
9,616833	0,5	6,017100
9,625167	0,5	5,891500
9,633500	0,5	5,791450
9,641833	0,5	5,716150
9,650167	0,5	5,656100
9,658500	0,5	5,605800
9,666833	0,5	5,560200
9,675167	0,5	5,525200
9,683500	0,5	5,499750
9,691833	0,5	5,477000
9,700167	0,5	5,465850
9,708500	0,5	5,461300
9,716833	0,5	5,461600
9,725167	0,5	5,464300
9,733500	0,5	5,477400
9,741833	0,5	5,475900
9,750167	0,5	5,471150
9,758500	0,5	5,446550
9,766833	0,5	5,407900
9,775167	0,5	5,354700
9,783500	0,5	5,301350
9,791833	0,5	5,258800
9,800167	0,5	5,237150
9,808500	0,5	5,237200
9,816833	0,5	5,274200
9,825167	0,5	5,333200
9,833500	0,5	5,415200
9,841833	0,5	5,504950
9,850167	0,5	5,583950
9,858500	0,5	5,637450
9,866833	0,5	5,663550
9,875167	0,5	5,673300
9,883500	0,5	5,673150
9,891833	0,5	5,678700
9,900167	0,5	5,698000
9,908500	0,5	5,722450
9,916833	0,5	5,756950
9,925167	0,5	5,788150
9,933500	0,5	5,823750
9,941833	0,5	5,866600
9,950167	0,5	5,912700
9,958500	0,5	5,961600
9,966833	0,5	6,014700
9,975167	0,5	6,065300
9,983500	0,5	6,107550
9,991833	0,5	6,138000
10,000167	0,5	6,146700
10,008500	0,5	6,134050
10,016833	0,5	6,092800
10,025167	0,5	6,026250
10,033500	0,5	5,931850
10,041833	0,5	5,827550
10,050167	0,5	5,720250
10,058500	0,5	5,608900
10,066833	0,5	5,509000
10,075167	0,5	5,414400
10,083500	0,5	5,331750
10,091833	0,5	5,263700
10,100167	0,5	5,217100
10,108500	0,5	5,199200
10,116833	0,5	5,212950
10,125167	0,5	5,250050
10,133500	0,5	5,300250
10,141833	0,5	5,344700
10,150167	0,5	5,370900
10,158500	0,5	5,371100
10,166833	0,5	5,352900
10,175167	0,5	5,314300
10,183500	0,5	5,266700
10,191833	0,5	5,225200
10,200167	0,5	5,187600
10,208500	0,5	5,155900
10,216833	0,5	5,123950
10,225167	0,5	5,093350
10,233500	0,5	5,066850
10,241833	0,5	5,043400
10,250167	0,5	5,022800
10,258500	0,5	5,003450
10,266833	0,5	4,993050
10,275167	0,5	4,988000
10,283500	0,5	4,987000
10,291833	0,5	4,991250
10,300167	0,5	4,990700
10,308500	0,5	4,996000
10,316833	0,5	4,996300
10,325167	0,5	5,002600
10,333500	0,5	5,004000
10,341833	0,5	5,021600
10,350167	0,5	5,047750
10,358500	0,5	5,083350
10,366833	0,5	5,129100
10,375167	0,5	5,187200
10,383500	0,5	5,263800
10,391833	0,5	5,342650
10,400167	0,5	5,415200
10,408500	0,5	5,477000
10,416833	0,5	5,514450
10,425167	0,5	5,527450
10,433500	0,5	5,520500
10,441833	0,5	5,495250
10,450167	0,5	5,458600
10,458500	0,5	5,407650
10,466833	0,5	5,346000
10,475167	0,5	5,265300
10,483500	0,5	5,179000
10,491833	0,5	5,094500
10,500167	0,5	5,011750
10,508500	0,5	4,945300
10,516833	0,5	4,898850
10,525167	0,5	4,875450
10,533500	0,5	4,876250
10,541833	0,5	4,886950
10,550167	0,5	4,902350
10,558500	0,5	4,918050
10,566833	0,5	4,935250
10,575167	0,5	4,949550
10,583500	0,5	4,971500
10,591833	0,5	5,006150
10,600167	0,5	5,045300
10,608500	0,5	5,082150
10,616833	0,5	5,102500
10,625167	0,5	5,093900
10,633500	0,5	5,057350
10,641833	0,5	4,996350
10,650167	0,5	4,920200
10,658500	0,5	4,836650
10,666833	0,5	4,763350
10,675167	0,5	4,706750
10,683500	0,5	4,657750
10,691833	0,5	4,614500
10,700167	0,5	4,570900
10,708500	0,5	4,539800
10,716833	0,5	4,508450
10,725167	0,5	4,493700
10,733500	0,5	4,489400
10,741833	0,5	4,493400
10,750167	0,5	4,506450
10,758500	0,5	4,525900
10,766833	0,5	4,562450
10,775167	0,5	4,602100
10,783500	0,5	4,657900
10,791833	0,5	4,728300
10,800167	0,5	4,785550
10,808500	0,5	4,824800
10,816833	0,5	4,831500
10,825167	0,5	4,795650
10,833500	0,5	4,730450
10,841833	0,5	4,642600
10,850167	0,5	4,551600
10,858500	0,5	4,470450
10,866833	0,5	4,406250
10,875167	0,5	4,353050
10,883500	0,5	4,310600
10,891833	0,5	4,272500
10,900167	0,5	4,243200
10,908500	0,5	4,219450
10,916833	0,5	4,204250
10,925167	0,5	4,192500
10,933500	0,5	4,201700
10,941833	0,5	4,218250
10,950167	0,5	4,255500
10,958500	0,5	4,313200
10,966833	0,5	4,385050
10,975167	0,5	4,462000
10,983500	0,5	4,521600
10,991833	0,5	4,551700
11,000167	0,5	4,538250
11,008500	0,5	4,499950
11,016833	0,5	4,440050
11,025167	0,5	4,384800
11,033500	0,5	4,335850
11,041833	0,5	4,302500
11,050167	0,5	4,275650
11,058500	0,5	4,251350
11,066833	0,5	4,214750
11,075167	0,5	4,180950
11,083500	0,5	4,148900
11,091833	0,5	4,120950
11,100167	0,5	4,108600
11,108500	0,5	4,113950
11,116833	0,5	4,136750
11,125167	0,5	4,176400
11,133500	0,5	4,217800
11,141833	0,5	4,240800
11,150167	0,5	4,231500
11,158500	0,5	4,186200
11,166833	0,5	4,111550
11,175167	0,5	4,023650
11,183500	0,5	3,939350
11,191833	0,5	3,870200
11,200167	0,5	3,820800
11,208500	0,5	3,779950
11,216833	0,5	3,751350
11,225167	0,5	3,735300
11,233500	0,5	3,718650
11,241833	0,5	3,694150
11,250167	0,5	3,671550
11,258500	0,5	3,640250
11,266833	0,5	3,604300
11,275167	0,5	3,569350
11,283500	0,5	3,525500
11,291833	0,5	3,473200
11,300167	0,5	3,422650
11,308500	0,5	3,376200
11,316833	0,5	3,345100
11,325167	0,5	3,332800
11,333500	0,5	3,334500
11,341833	0,5	3,348200
11,350167	0,5	3,364650
11,358500	0,5	3,390950
11,366833	0,5	3,412350
11,375167	0,5	3,453450
11,383500	0,5	3,486600
11,391833	0,5	3,519900
11,400167	0,5	3,553850
11,408500	0,5	3,575900
11,416833	0,5	3,592650
11,425167	0,5	3,595300
11,433500	0,5	3,580450
11,441833	0,5	3,553700
11,450167	0,5	3,521550
11,458500	0,5	3,492350
11,466833	0,5	3,460650
11,475167	0,5	3,439900
11,483500	0,5	3,417350
11,491833	0,5	3,399800
11,500167	0,5	3,393600
11,508500	0,5	3,378500
11,516833	0,5	3,365050
11,525167	0,5	3,359450
11,533500	0,5	3,339050
11,541833	0,5	3,316400
11,550167	0,5	3,289550
11,558500	0,5	3,265700
11,566833	0,5	3,250550
11,575167	0,5	3,237000
11,583500	0,5	3,233600
11,591833	0,5	3,232400
11,600167	0,5	3,245600
11,608500	0,5	3,263500
11,616833	0,5	3,291950
11,625167	0,5	3,324800
11,633500	0,5	3,365700
11,641833	0,5	3,407950
11,650167	0,5	3,454300
11,658500	0,5	3,492500
11,666833	0,5	3,542250
11,675167	0,5	3,589450
11,683500	0,5	3,634650
11,691833	0,5	3,663050
11,700167	0,5	3,683150
11,708500	0,5	3,693850
11,716833	0,5	3,695250
11,725167	0,5	3,690250
11,733500	0,5	3,680400
11,741833	0,5	3,681250
11,750167	0,5	3,688800
11,758500	0,5	3,713150
11,766833	0,5	3,746850
11,775167	0,5	3,788250
11,783500	0,5	3,828500
11,791833	0,5	3,872650
11,800167	0,5	3,918500
11,808500	0,5	3,947750
11,816833	0,5	3,987300
11,825167	0,5	4,028900
11,833500	0,5	4,084950
11,841833	0,5	4,171300
11,850167	0,5	4,307300
11,858500	0,5	4,518950
11,866833	0,5	4,817150
11,875167	0,5	5,182800
11,883500	0,5	5,591850
11,891833	0,5	5,975550
11,900167	0,5	6,279100
11,908500	0,5	6,453150
11,916833	0,5	6,480900
11,925167	0,5	6,365900
11,933500	0,5	6,148000
11,941833	0,5	5,861550
11,950167	0,5	5,551900
11,958500	0,5	5,241950
11,966833	0,5	4,981100
11,975167	0,5	4,759450
11,983500	0,5	4,597250
11,991833	0,5	4,480600
12,000167	0,5	4,419300
12,008500	0,5	4,410850
12,016833	0,5	4,443400
12,025167	0,5	4,507900
12,033500	0,5	4,603700
12,041833	0,5	4,725150
12,050167	0,5	4,851900
12,058500	0,5	4,974500
12,066833	0,5	5,072700
12,075167	0,5	5,138650
12,083500	0,5	5,183300
12,091833	0,5	5,210700
12,100167	0,5	5,216600
12,108500	0,5	5,231650
12,116833	0,5	5,249050
12,125167	0,5	5,270850
12,133500	0,5	5,293800
12,141833	0,5	5,314650
12,150167	0,5	5,346700
12,158500	0,5	5,389300
12,166833	0,5	5,438500
12,175167	0,5	5,502150
12,183500	0,5	5,578400
12,191833	0,5	5,655050
12,200167	0,5	5,729700
12,208500	0,5	5,786100
12,216833	0,5	5,810700
12,225167	0,5	5,789750
12,233500	0,5	5,727800
12,241833	0,5	5,624300
12,250167	0,5	5,494250
12,258500	0,5	5,364300
12,266833	0,5	5,249850
12,275167	0,5	5,148800
12,283500	0,5	5,079850
12,291833	0,5	5,026450
12,300167	0,5	5,004950
12,308500	0,5	4,994700
12,316833	0,5	4,984250
12,325167	0,5	4,970750
12,333500	0,5	4,945700
12,341833	0,5	4,909150
12,350167	0,5	4,863100
12,358500	0,5	4,802700
12,366833	0,5	4,736500
12,375167	0,5	4,669050
12,383500	0,5	4,602550
12,391833	0,5	4,534350
12,400167	0,5	4,468200
12,408500	0,5	4,422400
12,416833	0,5	4,380550
12,425167	0,5	4,340000
12,433500	0,5	4,300750
12,441833	0,5	4,264600
12,450167	0,5	4,239950
12,458500	0,5	4,219600
12,466833	0,5	4,201900
12,475167	0,5	4,193250
12,483500	0,5	4,191050
12,491833	0,5	4,197100
12,500167	0,5	4,205200
12,508500	0,5	4,208050
12,516833	0,5	4,209300
12,525167	0,5	4,211700
12,533500	0,5	4,220250
12,541833	0,5	4,233850
12,550167	0,5	4,257800
12,558500	0,5	4,307000
12,566833	0,5	4,359350
12,575167	0,5	4,424550
12,583500	0,5	4,500450
12,591833	0,5	4,571600
12,600167	0,5	4,640900
12,608500	0,5	4,691700
12,616833	0,5	4,728000
12,625167	0,5	4,745250
12,633500	0,5	4,749300
12,641833	0,5	4,737550
12,650167	0,5	4,733850
12,658500	0,5	4,723000
12,666833	0,5	4,715400
12,675167	0,5	4,704050
12,683500	0,5	4,689050
12,691833	0,5	4,658050
12,700167	0,5	4,629400
12,708500	0,5	4,585200
12,716833	0,5	4,533750
12,725167	0,5	4,468950
12,733500	0,5	4,399950
12,741833	0,5	4,333850
12,750167	0,5	4,264350
12,758500	0,5	4,183300
12,766833	0,5	4,098800
12,775167	0,5	4,023250
12,783500	0,5	3,957800
12,791833	0,5	3,931100
12,800167	0,5	3,941950
12,808500	0,5	3,999000
12,816833	0,5	4,089750
12,825167	0,5	4,204700
12,833500	0,5	4,321750
12,841833	0,5	4,388350
12,850167	0,5	4,386950
12,858500	0,5	4,337450
12,866833	0,5	4,301050
12,875167	0,5	4,452750
12,883500	0,5	5,011350
12,891833	0,5	5,594200
12,900167	0,5	6,009050
12,908500	0,5	6,168350
12,916833	0,5	5,719800
12,925167	0,5	5,132000
12,933500	0,5	4,706400
12,941833	0,5	4,112800
12,950167	0,5	3,339900
12,958500	0,5	2,758050
12,966833	0,5	2,381200
12,975167	0,5	2,109500
12,983500	0,5	1,910450
12,991833	0,5	1,751750
13,000167	0,5	1,633550
13,008500	0,5	1,522650
13,016833	0,5	1,434800
13,025167	0,5	1,355750
13,033500	0,5	1,288450
13,041833	0,5	1,246200
13,050167	0,5	1,215250
13,058500	0,5	1,185550
13,066833	0,5	1,166850
13,075167	0,5	1,148950
13,083500	0,5	1,128300
13,091833	0,5	1,124350
13,100167	0,5	1,107300
13,108500	0,5	1,098150
13,116833	0,5	1,086400
13,125167	0,5	1,075850
13,133500	0,5	1,054050
13,141833	0,5	1,042000
13,150167	0,5	1,031450
13,158500	0,5	1,015000
13,166833	0,5	0,991100
13,175167	0,5	0,964950
13,183500	0,5	0,947900
13,191833	0,5	0,936850
13,200167	0,5	0,917650
13,208500	0,5	0,906850
13,216833	0,5	0,889250
13,225167	0,5	0,881250
13,233500	0,5	0,873550
13,241833	0,5	0,866200
13,250167	0,5	0,860450
13,258500	0,5	0,857450
13,266833	0,5	0,860650
13,275167	0,5	0,851600
13,283500	0,5	0,841150
13,291833	0,5	0,843800
13,300167	0,5	0,838450
13,308500	0,5	0,822800
13,316833	0,5	0,810100
13,325167	0,5	0,787950
13,333500	0,5	0,780050
13,341833	0,5	0,771950
13,350167	0,5	0,762400
13,358500	0,5	0,752450
13,366833	0,5	0,742100
13,375167	0,5	0,732300
13,383500	0,5	0,727250
13,391833	0,5	0,717450
13,400167	0,5	0,712200
13,408500	0,5	0,702800
13,416833	0,5	0,701250
13,425167	0,5	0,686700
13,433500	0,5	0,680250
13,441833	0,5	0,682700
13,450167	0,5	0,678950
13,458500	0,5	0,674350
13,466833	0,5	0,665350
13,475167	0,5	0,666050
13,483500	0,5	0,664950
13,491833	0,5	0,668650
13,500167	0,5	0,661100
13,508500	0,5	0,661450
13,516833	0,5	0,659150
13,525167	0,5	0,663350
13,533500	0,5	0,659150
13,541833	0,5	0,656800
13,550167	0,5	0,647950
13,558500	0,5	0,641950
13,566833	0,5	0,637900
13,575167	0,5	0,627450
13,583500	0,5	0,619850
13,591833	0,5	0,618500
13,600167	0,5	0,610050
13,608500	0,5	0,598600
13,616833	0,5	0,585300
13,625167	0,5	0,579500
13,633500	0,5	0,582300
13,641833	0,5	0,577450
13,650167	0,5	0,577050
13,658500	0,5	0,572000
13,666833	0,5	0,574150
13,675167	0,5	0,571750
13,683500	0,5	0,574700
13,691833	0,5	0,571850
13,700167	0,5	0,574350
13,708500	0,5	0,572100
13,716833	0,5	0,581050
13,725167	0,5	0,568000
13,733500	0,5	0,579100
13,741833	0,5	0,578000
13,750167	0,5	0,575850
13,758500	0,5	0,571700
13,766833	0,5	0,563300
13,775167	0,5	0,565700
13,783500	0,5	0,566550
13,791833	0,5	0,565600
13,800167	0,5	0,567750
13,808500	0,5	0,570100
13,816833	0,5	0,568050
13,825167	0,5	0,577450
13,833500	0,5	0,577100
13,841833	0,5	0,581450
13,850167	0,5	0,583100
13,858500	0,5	0,596150
13,866833	0,5	0,598950
13,875167	0,5	0,600400
13,883500	0,5	0,610300
13,891833	0,5	0,617350
13,900167	0,5	0,616550
13,908500	0,5	0,616600
13,916833	0,5	0,610200
13,925167	0,5	0,615250
13,933500	0,5	0,619350
13,941833	0,5	0,628550
13,950167	0,5	0,635900
13,958500	0,5	0,643700
13,966833	0,5	0,649900
13,975167	0,5	0,658300
13,983500	0,5	0,665250
13,991833	0,5	0,668850
14,000167	0,5	0,675000
14,008500	0,5	0,681050
14,016833	0,5	0,681550
14,025167	0,5	0,679250
14,033500	0,5	0,685000
14,041833	0,5	0,681500
14,050167	0,5	0,683550
14,058500	0,5	0,673100
14,066833	0,5	0,674400
14,075167	0,5	0,678950
14,083500	0,5	0,689950
14,091833	0,5	0,688400
14,100167	0,5	0,692800
14,108500	0,5	0,690600
14,116833	0,5	0,690400
14,125167	0,5	0,691550
14,133500	0,5	0,694100
14,141833	0,5	0,698050
14,150167	0,5	0,696000
14,158500	0,5	0,701200
14,166833	0,5	0,696700
14,175167	0,5	0,702550
14,183500	0,5	0,713150
14,191833	0,5	0,714750
14,200167	0,5	0,714550
14,208500	0,5	0,710650
14,216833	0,5	0,714200
14,225167	0,5	0,725700
14,233500	0,5	0,728900
14,241833	0,5	0,737350
14,250167	0,5	0,738500
14,258500	0,5	0,745800
14,266833	0,5	0,748150
14,275167	0,5	0,758400
14,283500	0,5	0,759550
14,291833	0,5	0,764700
14,300167	0,5	0,781850
14,308500	0,5	0,779150
14,316833	0,5	0,775750
14,325167	0,5	0,790100
14,333500	0,5	0,798100
14,341833	0,5	0,796900
14,350167	0,5	0,798250
14,358500	0,5	0,794300
14,366833	0,5	0,808050
14,375167	0,5	0,810300
14,383500	0,5	0,820800
14,391833	0,5	0,826350
14,400167	0,5	0,839250
14,408500	0,5	0,840800
14,416833	0,5	0,853900
14,425167	0,5	0,862800
14,433500	0,5	0,872400
14,441833	0,5	0,882200
14,450167	0,5	0,898900
14,458500	0,5	0,898300
14,466833	0,5	0,907100
14,475167	0,5	0,924600
14,483500	0,5	0,939400
14,491833	0,5	0,950400
14,500167	0,5	0,956600
14,508500	0,5	0,974450
14,516833	0,5	1,003750
14,525167	0,5	1,034050
14,533500	0,5	1,058300
14,541833	0,5	1,087750
14,550167	0,5	1,113550
14,558500	0,5	1,143550
14,566833	0,5	1,157800
14,575167	0,5	1,173850
14,583500	0,5	1,181700
14,591833	0,5	1,189900
14,600167	0,5	1,204550
14,608500	0,5	1,205000
14,616833	0,5	1,221200
14,625167	0,5	1,244800
14,633500	0,5	1,263750
14,641833	0,5	1,289950
14,650167	0,5	1,304300
14,658500	0,5	1,340950
14,666833	0,5	1,377600
14,675167	0,5	1,405800
14,683500	0,5	1,435450
14,691833	0,5	1,466300
14,700167	0,5	1,501250
14,708500	0,5	1,537350
14,716833	0,5	1,579400
14,725167	0,5	1,606650
14,733500	0,5	1,646250
14,741833	0,5	1,672600
14,750167	0,5	1,708000
14,758500	0,5	1,723950
14,766833	0,5	1,773900
14,775167	0,5	1,815450
14,783500	0,5	1,856950
14,791833	0,5	1,894900
14,800167	0,5	1,924600
14,808500	0,5	1,959050
14,816833	0,5	1,975050
14,825167	0,5	1,967850
14,833500	0,5	1,943600
14,841833	0,5	1,915000
14,850167	0,5	1,886350
14,858500	0,5	1,863100
14,866833	0,5	1,841600
14,875167	0,5	1,833650
14,883500	0,5	1,828000
14,891833	0,5	1,841200
14,900167	0,5	1,845700
14,908500	0,5	1,843850
14,916833	0,5	1,846500
14,925167	0,5	1,826400
14,933500	0,5	1,797150
14,941833	0,5	1,759000
14,950167	0,5	1,716950
14,958500	0,5	1,702050
14,966833	0,5	1,686250
14,975167	0,5	1,679150
14,983500	0,5	1,671550
14,991833	0,5	1,669300
15,000167	0,5	1,665050
15,008500	0,5	1,664500
15,016833	0,5	1,661150
15,025167	0,5	1,651450
15,033500	0,5	1,657100
15,041833	0,5	1,649300
15,050167	0,5	1,635150
15,058500	0,5	1,635000
15,066833	0,5	1,634850
15,075167	0,5	1,621750
15,083500	0,5	1,610300
15,091833	0,5	1,593800
15,100167	0,5	1,582100
15,108500	0,5	1,576700
15,116833	0,5	1,578000
15,125167	0,5	1,567250
15,133500	0,5	1,565350
15,141833	0,5	1,559050
15,150167	0,5	1,557150
15,158500	0,5	1,551000
15,166833	0,5	1,544900
15,175167	0,5	1,536200
15,183500	0,5	1,530950
15,191833	0,5	1,521400
15,200167	0,5	1,503800
15,208500	0,5	1,504550
15,216833	0,5	1,502300
15,225167	0,5	1,489350
15,233500	0,5	1,478700
15,241833	0,5	1,463600
15,250167	0,5	1,458250
15,258500	0,5	1,459900
15,266833	0,5	1,452500
15,275167	0,5	1,450500
15,283500	0,5	1,443250
15,291833	0,5	1,450400
15,300167	0,5	1,441450
15,308500	0,5	1,443400
15,316833	0,5	1,434150
15,325167	0,5	1,433650
15,333500	0,5	1,440800
15,341833	0,5	1,429150
15,350167	0,5	1,422750
15,358500	0,5	1,430600
15,366833	0,5	1,429800
15,375167	0,5	1,421900
15,383500	0,5	1,415200
15,391833	0,5	1,404100
15,400167	0,5	1,417700
15,408500	0,5	1,410400
15,416833	0,5	1,409750
15,425167	0,5	1,404750
15,433500	0,5	1,402000
15,441833	0,5	1,400250
15,450167	0,5	1,407350
15,458500	0,5	1,402850
15,466833	0,5	1,400000
15,475167	0,5	1,400600
15,483500	0,5	1,400550
15,491833	0,5	1,373450
15,500167	0,5	1,363850
15,508500	0,5	1,356450
15,516833	0,5	1,346650
15,525167	0,5	1,334050
15,533500	0,5	1,310100
15,541833	0,5	1,310000
15,550167	0,5	1,308600
15,558500	0,5	1,312850
15,566833	0,5	1,310650
15,575167	0,5	1,313300
15,583500	0,5	1,314100
15,591833	0,5	1,319150
15,600167	0,5	1,308850
15,608500	0,5	1,299750
15,616833	0,5	1,284250
15,625167	0,5	1,274550
15,633500	0,5	1,267500
15,641833	0,5	1,240700
15,650167	0,5	1,242450
15,658500	0,5	1,235850
15,666833	0,5	1,222800
15,675167	0,5	1,209500
15,683500	0,5	1,184850
15,691833	0,5	1,188000
15,700167	0,5	1,182150
15,708500	0,5	1,176500
15,716833	0,5	1,170000
15,725167	0,5	1,167100
15,733500	0,5	1,169200
15,741833	0,5	1,161750
15,750167	0,5	1,163200
15,758500	0,5	1,155550
15,766833	0,5	1,159650
15,775167	0,5	1,154000
15,783500	0,5	1,155950
15,791833	0,5	1,139250
15,800167	0,5	1,149650
15,808500	0,5	1,144050
15,816833	0,5	1,137650
15,825167	0,5	1,124700
15,833500	0,5	1,106250
15,841833	0,5	1,108900
15,850167	0,5	1,106900
15,858500	0,5	1,103450
15,866833	0,5	1,102400
15,875167	0,5	1,099900
15,883500	0,5	1,099300
15,891833	0,5	1,098550
15,900167	0,5	1,088350
15,908500	0,5	1,082750
15,916833	0,5	1,080750
15,925167	0,5	1,078150
15,933500	0,5	1,064100
15,941833	0,5	1,058000
15,950167	0,5	1,059450
15,958500	0,5	1,052900
15,966833	0,5	1,046250
15,975167	0,5	1,031700
15,983500	0,5	1,019550
15,991833	0,5	1,025900
16,000167	0,5	1,024350
16,008500	0,5	1,027850
16,016833	0,5	1,022900
16,025167	0,5	1,023400
16,033500	0,5	1,021250
16,041833	0,5	1,015400
16,050167	0,5	1,013200
16,058500	0,5	1,001000
16,066833	0,5	1,005600
16,075167	0,5	0,998950
16,083500	0,5	0,986350
16,091833	0,5	0,990500
16,100167	0,5	0,993250
16,108500	0,5	0,980900
16,116833	0,5	0,971950
16,125167	0,5	0,952250
16,133500	0,5	0,952250
16,141833	0,5	0,948450
16,150167	0,5	0,948450
16,158500	0,5	0,944400
16,166833	0,5	0,946100
16,175167	0,5	0,933650
16,183500	0,5	0,932550
16,191833	0,5	0,926850
16,200167	0,5	0,920100
16,208500	0,5	0,918350
16,216833	0,5	0,913900
16,225167	0,5	0,896000
16,233500	0,5	0,886500
16,241833	0,5	0,885100
16,250167	0,5	0,877800
16,258500	0,5	0,862850
16,266833	0,5	0,840500
16,275167	0,5	0,824100
16,283500	0,5	0,816400
16,291833	0,5	0,817050
16,300167	0,5	0,803700
16,308500	0,5	0,803600
16,316833	0,5	0,797600
16,325167	0,5	0,797650
16,333500	0,5	0,798600
16,341833	0,5	0,798000
16,350167	0,5	0,797800
16,358500	0,5	0,793050
16,366833	0,5	0,802450
16,375167	0,5	0,791550
16,383500	0,5	0,799250
16,391833	0,5	0,814600
16,400167	0,5	0,816800
16,408500	0,5	0,811850
16,416833	0,5	0,800150
16,425167	0,5	0,794750
16,433500	0,5	0,803600
16,441833	0,5	0,793800
16,450167	0,5	0,794650
16,458500	0,5	0,783350
16,466833	0,5	0,775750
16,475167	0,5	0,764400
16,483500	0,5	0,758700
16,491833	0,5	0,746100
16,500167	0,5	0,736800
16,508500	0,5	0,729350
16,516833	0,5	0,722900
16,525167	0,5	0,693800
16,533500	0,5	0,702400
16,541833	0,5	0,693300
16,550167	0,5	0,687850
16,558500	0,5	0,674950
16,566833	0,5	0,651400
16,575167	0,5	0,657050
16,583500	0,5	0,654050
16,591833	0,5	0,650600
16,600167	0,5	0,645350
16,608500	0,5	0,645150
16,616833	0,5	0,640800
16,625167	0,5	0,646850
16,633500	0,5	0,640650
16,641833	0,5	0,642650
16,650167	0,5	0,636550
16,658500	0,5	0,643450
16,666833	0,5	0,638600
16,675167	0,5	0,633350
16,683500	0,5	0,647150
16,691833	0,5	0,645950
16,700167	0,5	0,638150
16,708500	0,5	0,623250
16,716833	0,5	0,603350
16,725167	0,5	0,601450
16,733500	0,5	0,597700
16,741833	0,5	0,588900
16,750167	0,5	0,580000
16,758500	0,5	0,570750
16,766833	0,5	0,563950
16,775167	0,5	0,556100
16,783500	0,5	0,547900
16,791833	0,5	0,537200
16,800167	0,5	0,532650
16,808500	0,5	0,519900
16,816833	0,5	0,518400
16,825167	0,5	0,506200
16,833500	0,5	0,514150
16,841833	0,5	0,501300
16,850167	0,5	0,496900
16,858500	0,5	0,476950
16,866833	0,5	0,468900
16,875167	0,5	0,473050
16,883500	0,5	0,472900
16,891833	0,5	0,468950
16,900167	0,5	0,470100
16,908500	0,5	0,472750
16,916833	0,5	0,474550
16,925167	0,5	0,484450
16,933500	0,5	0,483500
16,941833	0,5	0,485300
16,950167	0,5	0,485900
16,958500	0,5	0,491150
16,966833	0,5	0,477900
16,975167	0,5	0,488600
16,983500	0,5	0,489100
16,991833	0,5	0,481000
17,000167	0,5	0,460650
17,008500	0,5	0,444050
17,016833	0,5	0,432650
17,025167	0,5	0,434350
17,033500	0,5	0,420750
17,041833	0,5	0,419600
17,050167	0,5	0,408400
17,058500	0,5	0,411900
17,066833	0,5	0,401500
17,075167	0,5	0,392050
17,083500	0,5	0,386300
17,091833	0,5	0,378750
17,100167	0,5	0,390150
17,108500	0,5	0,377300
17,116833	0,5	0,374850
17,125167	0,5	0,386200
17,133500	0,5	0,387500
17,141833	0,5	0,386700
17,150167	0,5	0,374950
17,158500	0,5	0,363000
17,166833	0,5	0,364400
17,175167	0,5	0,357800
17,183500	0,5	0,356400
17,191833	0,5	0,349000
17,200167	0,5	0,344650
17,208500	0,5	0,335850
17,216833	0,5	0,339750
17,225167	0,5	0,337200
17,233500	0,5	0,339900
17,241833	0,5	0,354500
17,250167	0,5	0,379650
17,258500	0,5	0,396500
17,266833	0,5	0,445700
17,275167	0,5	0,504350
17,283500	0,5	0,555350
17,291833	0,5	0,602950
17,300167	0,5	0,611500
17,308500	0,5	0,619200
17,316833	0,5	0,595150
17,325167	0,5	0,556150
17,333500	0,5	0,496150
17,341833	0,5	0,446000
17,350167	0,5	0,390750
17,358500	0,5	0,353700
17,366833	0,5	0,322250
17,375167	0,5	0,301700
17,383500	0,5	0,286400
17,391833	0,5	0,278150
17,400167	0,5	0,278700
17,408500	0,5	0,261800
17,416833	0,5	0,275500
17,425167	0,5	0,280250
17,433500	0,5	0,277650
17,441833	0,5	0,277200
17,450167	0,5	0,265600
17,458500	0,5	0,277800
17,466833	0,5	0,295250
17,475167	0,5	0,302000
17,483500	0,5	0,322000
17,491833	0,5	0,328700
17,500167	0,5	0,341550
17,508500	0,5	0,340700
17,516833	0,5	0,346900
17,525167	0,5	0,349950
17,533500	0,5	0,354950
17,541833	0,5	0,372650
17,550167	0,5	0,387750
17,558500	0,5	0,382250
17,566833	0,5	0,419400
17,575167	0,5	0,435700
17,583500	0,5	0,453100
17,591833	0,5	0,456800
17,600167	0,5	0,456300
17,608500	0,5	0,476150
17,616833	0,5	0,474200
17,625167	0,5	0,481200
17,633500	0,5	0,470000
17,641833	0,5	0,471800
17,650167	0,5	0,464850
17,658500	0,5	0,459350
17,666833	0,5	0,448450
17,675167	0,5	0,441400
17,683500	0,5	0,437500
17,691833	0,5	0,445700
17,700167	0,5	0,430450
17,708500	0,5	0,435300
17,716833	0,5	0,446300
17,725167	0,5	0,452450
17,733500	0,5	0,458700
17,741833	0,5	0,452200
17,750167	0,5	0,454450
17,758500	0,5	0,458950
17,766833	0,5	0,465650
17,775167	0,5	0,458850
17,783500	0,5	0,458250
17,791833	0,5	0,450950
17,800167	0,5	0,443350
17,808500	0,5	0,437400
17,816833	0,5	0,443850
17,825167	0,5	0,444900
17,833500	0,5	0,458000
17,841833	0,5	0,467850
17,850167	0,5	0,478450
17,858500	0,5	0,508000
17,866833	0,5	0,553900
17,875167	0,5	0,615100
17,883500	0,5	0,706800
17,891833	0,5	0,837500
17,900167	0,5	1,039250
17,908500	0,5	1,292100
17,916833	0,5	1,550000
17,925167	0,5	1,773350
17,933500	0,5	1,915850
17,941833	0,5	1,946800
17,950167	0,5	1,849100
17,958500	0,5	1,659050
17,966833	0,5	1,404500
17,975167	0,5	1,142250
17,983500	0,5	0,909400
17,991833	0,5	0,707750
18,000167	0,5	0,553250
18,008500	0,5	0,456600
18,016833	0,5	0,378700
18,025167	0,5	0,326500
18,033500	0,5	0,270850
18,041833	0,5	0,230300
18,050167	0,5	0,212400
18,058500	0,5	0,197700
18,066833	0,5	0,179950
18,075167	0,5	0,173300
18,083500	0,5	0,157000
18,091833	0,5	0,150600
18,100167	0,5	0,147100
18,108500	0,5	0,134650
18,116833	0,5	0,132750
18,125167	0,5	0,129550
18,133500	0,5	0,137850
18,141833	0,5	0,120850
18,150167	0,5	0,124700
18,158500	0,5	0,127500
18,166833	0,5	0,127100
18,175167	0,5	0,120100
18,183500	0,5	0,095250
18,191833	0,5	0,089200
18,200167	0,5	0,086600
18,208500	0,5	0,072550
18,216833	0,5	0,061150
18,225167	0,5	0,044650
18,233500	0,5	0,030950
18,241833	0,5	0,021050
18,250167	0,5	0,009950
18,258500	0,5	0,001400
18,266833	0,5	-0,008750
18,275167	0,5	-0,006800
18,283500	0,5	-0,019000
18,291833	0,5	-0,040800
18,300167	0,5	-0,037350
18,308500	0,5	-0,039000
18,316833	0,5	-0,056600
18,325167	0,5	-0,063850
18,333500	0,5	-0,091450
18,341833	0,5	-0,088000
18,350167	0,5	-0,097550
18,358500	0,5	-0,103600
18,366833	0,5	-0,116350
18,375167	0,5	-0,120550
18,383500	0,5	-0,128400
18,391833	0,5	-0,134200
18,400167	0,5	-0,136950
18,408500	0,5	-0,150350
18,416833	0,5	-0,155650
18,425167	0,5	-0,157950
18,433500	0,5	-0,171650
18,441833	0,5	-0,186350
18,450167	0,5	-0,183650
18,458500	0,5	-0,188700
18,466833	0,5	-0,204750
18,475167	0,5	-0,226000
18,483500	0,5	-0,241300
18,491833	0,5	-0,242200
18,500167	0,5	-0,241550
18,508500	0,5	-0,253200
18,516833	0,5	-0,255250
18,525167	0,5	-0,262300
18,533500	0,5	-0,265400
18,541833	0,5	-0,273300
18,550167	0,5	-0,278550
18,558500	0,5	-0,285750
18,566833	0,5	-0,294800
18,575167	0,5	-0,288000
18,583500	0,5	-0,300900
18,591833	0,5	-0,302200
18,600167	0,5	-0,304300
18,608500	0,5	-0,310050
18,616833	0,5	-0,326600
18,625167	0,5	-0,343050
18,633500	0,5	-0,355450
18,641833	0,5	-0,348750
18,650167	0,5	-0,364000
18,658500	0,5	-0,366900
18,666833	0,5	-0,373500
18,675167	0,5	-0,373450
18,683500	0,5	-0,381100
18,691833	0,5	-0,378700
18,700167	0,5	-0,382000
18,708500	0,5	-0,389900
18,716833	0,5	-0,380500
18,725167	0,5	-0,384100
18,733500	0,5	-0,403400
18,741833	0,5	-0,397100
18,750167	0,5	-0,398700
18,758500	0,5	-0,411000
18,766833	0,5	-0,423250
18,775167	0,5	-0,446800
18,783500	0,5	-0,442100
18,791833	0,5	-0,446750
18,800167	0,5	-0,443100
18,808500	0,5	-0,448700
18,816833	0,5	-0,441850
18,825167	0,5	-0,442350
18,833500	0,5	-0,433550
18,841833	0,5	-0,434900
18,850167	0,5	-0,425350
18,858500	0,5	-0,415950
18,866833	0,5	-0,398400
18,875167	0,5	-0,394750
18,883500	0,5	-0,379750
18,891833	0,5	-0,358200
18,900167	0,5	-0,344400
18,908500	0,5	-0,334600
18,916833	0,5	-0,331300
18,925167	0,5	-0,327350
18,933500	0,5	-0,309550
18,941833	0,5	-0,292400
18,950167	0,5	-0,275150
18,958500	0,5	-0,255850
18,966833	0,5	-0,241500
18,975167	0,5	-0,224250
18,983500	0,5	-0,211350
18,991833	0,5	-0,196450
19,000167	0,5	-0,190950
19,008500	0,5	-0,177950
19,016833	0,5	-0,172800
19,025167	0,5	-0,173000
19,033500	0,5	-0,171200
19,041833	0,5	-0,162300
19,050167	0,5	-0,173450
19,058500	0,5	-0,184000
19,066833	0,5	-0,211650
19,075167	0,5	-0,234800
19,083500	0,5	-0,245400
19,091833	0,5	-0,261450
19,100167	0,5	-0,274850
19,108500	0,5	-0,289100
19,116833	0,5	-0,304350
19,125167	0,5	-0,321400
19,133500	0,5	-0,336150
19,141833	0,5	-0,358000
19,150167	0,5	-0,367150
19,158500	0,5	-0,379100
19,166833	0,5	-0,399150
19,175167	0,5	-0,430400
19,183500	0,5	-0,435900
19,191833	0,5	-0,450900
19,200167	0,5	-0,471900
19,208500	0,5	-0,503450
19,216833	0,5	-0,531200
19,225167	0,5	-0,541900
19,233500	0,5	-0,552050
19,241833	0,5	-0,564750
19,250167	0,5	-0,578250
19,258500	0,5	-0,583950
19,266833	0,5	-0,594050
19,275167	0,5	-0,594800
19,283500	0,5	-0,601200
19,291833	0,5	-0,597900
19,300167	0,5	-0,598100
19,308500	0,5	-0,586650
19,316833	0,5	-0,598450
19,325167	0,5	-0,606250
19,333500	0,5	-0,605500
19,341833	0,5	-0,604100
19,350167	0,5	-0,608800
19,358500	0,5	-0,612650
19,366833	0,5	-0,602800
19,375167	0,5	-0,579950
19,383500	0,5	-0,559850
19,391833	0,5	-0,536850
19,400167	0,5	-0,523000
19,408500	0,5	-0,513200
19,416833	0,5	-0,515650
19,425167	0,5	-0,523100
19,433500	0,5	-0,541350
19,441833	0,5	-0,577600
19,450167	0,5	-0,598300
19,458500	0,5	-0,619250
19,466833	0,5	-0,655800
19,475167	0,5	-0,665000
19,483500	0,5	-0,674000
19,491833	0,5	-0,688050
19,500167	0,5	-0,694300
19,508500	0,5	-0,723750
19,516833	0,5	-0,711100
19,525167	0,5	-0,707400
19,533500	0,5	-0,699350
19,541833	0,5	-0,701300
19,550167	0,5	-0,697900
19,558500	0,5	-0,704650
19,566833	0,5	-0,717200
19,575167	0,5	-0,728300
19,583500	0,5	-0,745350
19,591833	0,5	-0,762600
19,600167	0,5	-0,774500
19,608500	0,5	-0,793200
19,616833	0,5	-0,823400
19,625167	0,5	-0,820900
19,633500	0,5	-0,834750
19,641833	0,5	-0,841950
19,650167	0,5	-0,859300
19,658500	0,5	-0,869050
19,666833	0,5	-0,858350
19,675167	0,5	-0,844050
19,683500	0,5	-0,841600
19,691833	0,5	-0,830050
19,700167	0,5	-0,825250
19,708500	0,5	-0,818950
19,716833	0,5	-0,811350
19,725167	0,5	-0,806850
19,733500	0,5	-0,795250
19,741833	0,5	-0,776150
19,750167	0,5	-0,754150
19,758500	0,5	-0,752550
19,766833	0,5	-0,765050
19,775167	0,5	-0,784100
19,783500	0,5	-0,816550
19,791833	0,5	-0,866600
19,800167	0,5	-0,916700
19,808500	0,5	-0,965550
19,816833	0,5	-0,979050
19,825167	0,5	-1,002550
19,833500	0,5	-1,009450
19,841833	0,5	-1,021200
19,850167	0,5	-1,022150
19,858500	0,5	-1,028150
19,866833	0,5	-1,025850
19,875167	0,5	-1,025300
19,883500	0,5	-1,030900
19,891833	0,5	-1,019600
19,900167	0,5	-1,015050
19,908500	0,5	-1,029150
19,916833	0,5	-1,023650
19,925167	0,5	-1,017700
19,933500	0,5	-1,017500
19,941833	0,5	-1,018950
19,950167	0,5	-1,023300
19,958500	0,5	-1,007500
19,966833	0,5	-0,999400
19,975167	0,5	-0,990500
19,983500	0,5	-1,008700
19,991833	0,5	-1,021750
20,000167	0,5	-1,057350
20,008500	0,5	-1,080550
20,016833	0,5	-1,102900
20,025167	0,5	-1,116400
20,033500	0,5	-1,127300
20,041833	0,5	-1,124350
20,050167	0,5	-1,138000
20,058500	0,5	-1,148400
20,066833	0,5	-1,149600
20,075167	0,5	-1,151800
20,083500	0,5	-1,167650
20,091833	0,5	-1,187850
20,100167	0,5	-1,198350
20,108500	0,5	-1,205450
20,116833	0,5	-1,205450
20,125167	0,5	-1,211800
20,133500	0,5	-1,203000
20,141833	0,5	-1,210600
20,150167	0,5	-1,195600
20,158500	0,5	-1,193350
20,166833	0,5	-1,181500
20,175167	0,5	-1,172800
20,183500	0,5	-1,145550
20,191833	0,5	-1,120800
20,200167	0,5	-1,113850
20,208500	0,5	-1,090900
20,216833	0,5	-1,064550
20,225167	0,5	-1,051850
20,233500	0,5	-1,052300
20,241833	0,5	-1,083900
20,250167	0,5	-1,116750
20,258500	0,5	-1,144300
20,266833	0,5	-1,193450
20,275167	0,5	-1,220300
20,283500	0,5	-1,244050
20,291833	0,5	-1,253800
20,300167	0,5	-1,258650
20,308500	0,5	-1,252400
20,316833	0,5	-1,249450
20,325167	0,5	-1,240650
20,333500	0,5	-1,219600
20,341833	0,5	-1,202350
20,350167	0,5	-1,209000
20,358500	0,5	-1,181300
20,366833	0,5	-1,165650
20,375167	0,5	-1,155750
20,383500	0,5	-1,150550
20,391833	0,5	-1,161450
20,400167	0,5	-1,147100
20,408500	0,5	-1,169250
20,416833	0,5	-1,193500
20,425167	0,5	-1,229900
20,433500	0,5	-1,249750
20,441833	0,5	-1,280800
20,450167	0,5	-1,291100
20,458500	0,5	-1,304150
20,466833	0,5	-1,311250
20,475167	0,5	-1,304900
20,483500	0,5	-1,285800
20,491833	0,5	-1,284150
20,500167	0,5	-1,280200
20,508500	0,5	-1,269800
20,516833	0,5	-1,264550
20,525167	0,5	-1,277850
20,533500	0,5	-1,290100
20,541833	0,5	-1,293100
20,550167	0,5	-1,281100
20,558500	0,5	-1,275050
20,566833	0,5	-1,262950
20,575167	0,5	-1,239000
20,583500	0,5	-1,214200
20,591833	0,5	-1,184450
20,600167	0,5	-1,167200
20,608500	0,5	-1,160600
20,616833	0,5	-1,169550
20,625167	0,5	-1,157000
20,633500	0,5	-1,149750
20,641833	0,5	-1,159150
20,650167	0,5	-1,163900
20,658500	0,5	-1,173000
20,666833	0,5	-1,182950
20,675167	0,5	-1,206400
20,683500	0,5	-1,233850
20,691833	0,5	-1,247650
20,700167	0,5	-1,246650
20,708500	0,5	-1,261800
20,716833	0,5	-1,267700
20,725167	0,5	-1,285050
20,733500	0,5	-1,288450
20,741833	0,5	-1,298200
20,750167	0,5	-1,300650
20,758500	0,5	-1,302250
20,766833	0,5	-1,290700
20,775167	0,5	-1,263650
20,783500	0,5	-1,254000
20,791833	0,5	-1,263400
20,800167	0,5	-1,261050
20,808500	0,5	-1,276450
20,816833	0,5	-1,293200
20,825167	0,5	-1,321100
20,833500	0,5	-1,338400
20,841833	0,5	-1,335100
20,850167	0,5	-1,333050
20,858500	0,5	-1,328250
20,866833	0,5	-1,328400
20,875167	0,5	-1,327100
20,883500	0,5	-1,340350
20,891833	0,5	-1,346100
20,900167	0,5	-1,357250
20,908500	0,5	-1,345250
20,916833	0,5	-1,330050
20,925167	0,5	-1,307700
20,933500	0,5	-1,304700
20,941833	0,5	-1,306050
20,950167	0,5	-1,309450
20,958500	0,5	-1,321700
20,966833	0,5	-1,339750
20,975167	0,5	-1,357900
20,983500	0,5	-1,363400
20,991833	0,5	-1,367550
21,000167	0,5	-1,360750
21,008500	0,5	-1,363800
21,016833	0,5	-1,352550
21,025167	0,5	-1,352100
21,033500	0,5	-1,337550
21,041833	0,5	-1,332650
21,050167	0,5	-1,325650
21,058500	0,5	-1,325150
21,066833	0,5	-1,296850
21,075167	0,5	-1,291000
21,083500	0,5	-1,303450
21,091833	0,5	-1,308150
21,100167	0,5	-1,306950
21,108500	0,5	-1,315150
21,116833	0,5	-1,319450
21,125167	0,5	-1,328250
21,133500	0,5	-1,318100
21,141833	0,5	-1,314150
21,150167	0,5	-1,307550
21,158500	0,5	-1,299750
21,166833	0,5	-1,300250
21,175167	0,5	-1,294600
21,183500	0,5	-1,290350
21,191833	0,5	-1,284100
21,200167	0,5	-1,289650
21,208500	0,5	-1,276750
21,216833	0,5	-1,256800
21,225167	0,5	-1,249900
21,233500	0,5	-1,255000
21,241833	0,5	-1,253950
21,250167	0,5	-1,257300
21,258500	0,5	-1,256800
21,266833	0,5	-1,271350
21,275167	0,5	-1,255900
21,283500	0,5	-1,239400
21,291833	0,5	-1,236200
21,300167	0,5	-1,234900
21,308500	0,5	-1,228450
21,316833	0,5	-1,230250
21,325167	0,5	-1,226800
21,333500	0,5	-1,220000
21,341833	0,5	-1,219100
21,350167	0,5	-1,209950
21,358500	0,5	-1,180700
21,366833	0,5	-1,157800
21,375167	0,5	-1,165350
21,383500	0,5	-1,156600
21,391833	0,5	-1,156800
21,400167	0,5	-1,157650
21,408500	0,5	-1,171200
21,416833	0,5	-1,180350
21,425167	0,5	-1,161100
21,433500	0,5	-1,156300
21,441833	0,5	-1,156450
21,450167	0,5	-1,155450
21,458500	0,5	-1,149700
21,466833	0,5	-1,143200
21,475167	0,5	-1,122050
21,483500	0,5	-1,107950
21,491833	0,5	-1,086900
21,500167	0,5	-1,070850
21,508500	0,5	-1,036750
21,516833	0,5	-1,023650
21,525167	0,5	-1,037850
21,533500	0,5	-1,040550
21,541833	0,5	-1,046350
21,550167	0,5	-1,056950
21,558500	0,5	-1,059150
21,566833	0,5	-1,054300
21,575167	0,5	-1,034400
21,583500	0,5	-1,014550
21,591833	0,5	-0,987850
21,600167	0,5	-0,964500
21,608500	0,5	-0,925650
21,616833	0,5	-0,876100
21,625167	0,5	-0,818250
21,633500	0,5	-0,747500
21,641833	0,5	-0,686400
21,650167	0,5	-0,620450
21,658500	0,5	-0,603400
21,666833	0,5	-0,632750
21,675167	0,5	-0,670700
21,683500	0,5	-0,707150
21,691833	0,5	-0,737350
21,700167	0,5	-0,750200
21,708500	0,5	-0,765100
21,716833	0,5	-0,751100
21,725167	0,5	-0,745850
21,733500	0,5	-0,744900
21,741833	0,5	-0,748350
21,750167	0,5	-0,751100
21,758500	0,5	-0,745600
21,766833	0,5	-0,737800
21,775167	0,5	-0,722050
21,783500	0,5	-0,711900
21,791833	0,5	-0,686900
21,800167	0,5	-0,646800
21,808500	0,5	-0,623150
21,816833	0,5	-0,604700
21,825167	0,5	-0,573450
21,833500	0,5	-0,560500
21,841833	0,5	-0,539500
21,850167	0,5	-0,528500
21,858500	0,5	-0,517300
21,866833	0,5	-0,493900
21,875167	0,5	-0,465750
21,883500	0,5	-0,437050
21,891833	0,5	-0,401100
21,900167	0,5	-0,369150
21,908500	0,5	-0,349250
21,916833	0,5	-0,334400
21,925167	0,5	-0,325700
21,933500	0,5	-0,310400
21,941833	0,5	-0,292150
21,950167	0,5	-0,270150
21,958500	0,5	-0,264600
21,966833	0,5	-0,236400
21,975167	0,5	-0,222350
21,983500	0,5	-0,210700
21,991833	0,5	-0,202150
22,000167	0,5	-0,188950
22,008500	0,5	-0,166250
22,016833	0,5	-0,137900
22,025167	0,5	-0,112200
22,033500	0,5	-0,076550
22,041833	0,5	-0,050350
22,050167	0,5	-0,019350
22,058500	0,5	0,017200
22,066833	0,5	0,048100
22,075167	0,5	0,083700
22,083500	0,5	0,108850
22,091833	0,5	0,155500
22,100167	0,5	0,169500
22,108500	0,5	0,207550
22,116833	0,5	0,242350
22,125167	0,5	0,278850
22,133500	0,5	0,315650
22,141833	0,5	0,347350
22,150167	0,5	0,397550
22,158500	0,5	0,448150
22,166833	0,5	0,492250
22,175167	0,5	0,530250
22,183500	0,5	0,564150
22,191833	0,5	0,600050
22,200167	0,5	0,647350
22,208500	0,5	0,684650
22,216833	0,5	0,739200
22,225167	0,5	0,773650
22,233500	0,5	0,821500
22,241833	0,5	0,855400
22,250167	0,5	0,893350
22,258500	0,5	0,956250
22,266833	0,5	1,008100
22,275167	0,5	1,048350
22,283500	0,5	1,094950
22,291833	0,5	1,132750
22,300167	0,5	1,197500
22,308500	0,5	1,263200
22,316833	0,5	1,322050
22,325167	0,5	1,383500
22,333500	0,5	1,431950
22,341833	0,5	1,465000
22,350167	0,5	1,500650
22,358500	0,5	1,539500
22,366833	0,5	1,578750
22,375167	0,5	1,627600
22,383500	0,5	1,657950
22,391833	0,5	1,717950
22,400167	0,5	1,781450
22,408500	0,5	1,852500
22,416833	0,5	1,912050
22,425167	0,5	1,965450
22,433500	0,5	2,010550
22,441833	0,5	2,065950
22,450167	0,5	2,137450
22,458500	0,5	2,206700
22,466833	0,5	2,276650
22,475167	0,5	2,355000
22,483500	0,5	2,432950
22,491833	0,5	2,503650
22,500167	0,5	2,573700
22,508500	0,5	2,632650
22,516833	0,5	2,691500
22,525167	0,5	2,722950
22,533500	0,5	2,784650
22,541833	0,5	2,836000
22,550167	0,5	2,921450
22,558500	0,5	2,980250
22,566833	0,5	3,037950
22,575167	0,5	3,079850
22,583500	0,5	3,113850
22,591833	0,5	3,161850
22,600167	0,5	3,202400
22,608500	0,5	3,237650
22,616833	0,5	3,272600
22,625167	0,5	3,295450
22,633500	0,5	3,325200
22,641833	0,5	3,341800
22,650167	0,5	3,355750
22,658500	0,5	3,365300
22,666833	0,5	3,360500
22,675167	0,5	3,307050
22,683500	0,5	3,300850
22,691833	0,5	3,286850
22,700167	0,5	3,259200
22,708500	0,5	3,201700
22,716833	0,5	3,130950
22,725167	0,5	3,048900
22,733500	0,5	2,951800
22,741833	0,5	2,869450
22,750167	0,5	2,782400
22,758500	0,5	2,690450
22,766833	0,5	2,587100
22,775167	0,5	2,486550
22,783500	0,5	2,380750
22,791833	0,5	2,267950
22,800167	0,5	2,146900
22,808500	0,5	2,017250
22,816833	0,5	1,872150
22,825167	0,5	1,669700
22,833500	0,5	1,545500
22,841833	0,5	1,406400
22,850167	0,5	1,239650
22,858500	0,5	1,076950
22,866833	0,5	0,901750
22,875167	0,5	0,738700
22,883500	0,5	0,575400
22,891833	0,5	0,409700
22,900167	0,5	0,247750
22,908500	0,5	0,101200
22,916833	0,5	-0,052950
22,925167	0,5	-0,192800
22,933500	0,5	-0,336950
22,941833	0,5	-0,480750
22,950167	0,5	-0,615900
22,958500	0,5	-0,758350
22,966833	0,5	-0,870050
22,975167	0,5	-1,006750
22,983500	0,5	-1,140400
22,991833	0,5	-1,295650
23,000167	0,5	-1,417350
23,008500	0,5	-1,524850
23,016833	0,5	-1,621150
23,025167	0,5	-1,719850
23,033500	0,5	-1,813950
23,041833	0,5	-1,903400
23,050167	0,5	-1,973900
23,058500	0,5	-2,046900
23,066833	0,5	-2,107800
23,075167	0,5	-2,172000
23,083500	0,5	-2,231300
23,091833	0,5	-2,283800
23,100167	0,5	-2,338050
23,108500	0,5	-2,374850
23,116833	0,5	-2,415950
23,125167	0,5	-2,457400
23,133500	0,5	-2,510750
23,141833	0,5	-2,576000
23,150167	0,5	-2,611750
23,158500	0,5	-2,634900
23,166833	0,5	-2,645700
23,175167	0,5	-2,655450
23,183500	0,5	-2,676150
23,191833	0,5	-2,668950
23,200167	0,5	-2,671150
23,208500	0,5	-2,656850
23,216833	0,5	-2,650400
23,225167	0,5	-2,634700
23,233500	0,5	-2,631050
23,241833	0,5	-2,619050
23,250167	0,5	-2,610300
23,258500	0,5	-2,584800
23,266833	0,5	-2,593150
23,275167	0,5	-2,560250
23,283500	0,5	-2,557800
23,291833	0,5	-2,571000
23,300167	0,5	-2,562600
23,308500	0,5	-2,547200
23,316833	0,5	-2,517700
23,325167	0,5	-2,501950
23,333500	0,5	-2,478750
23,341833	0,5	-2,452100
23,350167	0,5	-2,417900
23,358500	0,5	-2,387700
23,366833	0,5	-2,351550
23,375167	0,5	-2,318700
23,383500	0,5	-2,282250
23,391833	0,5	-2,251700
23,400167	0,5	-2,216750
23,408500	0,5	-2,241200
23,416833	0,5	-2,184150
23,425167	0,5	-2,132300
23,433500	0,5	-2,100900
23,441833	0,5	-2,097350
23,450167	0,5	-2,086600
23,458500	0,5	-2,062050
23,466833	0,5	-2,041400
23,475167	0,5	-2,026150
23,483500	0,5	-2,006800
23,491833	0,5	-1,982650
23,500167	0,5	-1,960650
23,508500	0,5	-1,937000
23,516833	0,5	-1,914050
23,525167	0,5	-1,891850
23,533500	0,5	-1,870500
23,541833	0,5	-1,849900
23,550167	0,5	-1,842100
23,558500	0,5	-1,908500
23,566833	0,5	-1,837700
23,575167	0,5	-1,798000
23,583500	0,5	-1,759450
23,591833	0,5	-1,753050
23,600167	0,5	-1,744650
23,608500	0,5	-1,731550
23,616833	0,5	-1,724100
23,625167	0,5	-1,711900
23,633500	0,5	-1,700800
23,641833	0,5	-1,689300
23,650167	0,5	-1,675750
23,658500	0,5	-1,668350
23,666833	0,5	-1,654700
23,675167	0,5	-1,646650
23,683500	0,5	-1,639200
23,691833	0,5	-1,634950
23,700167	0,5	-1,731800
23,708500	0,5	-1,739900
23,716833	0,5	-1,705650
23,725167	0,5	-1,646050
23,733500	0,5	-1,625900
23,741833	0,5	-1,624050
23,750167	0,5	-1,624000
23,758500	0,5	-1,625700
23,766833	0,5	-1,625100
23,775167	0,5	-1,610950
23,783500	0,5	-1,601150
23,791833	0,5	-1,588650
23,800167	0,5	-1,576650
23,808500	0,5	-1,565450
23,816833	0,5	-1,549550
23,825167	0,5	-1,540600
23,833500	0,5	-1,528800
23,841833	0,5	-1,525350
23,850167	0,5	-1,648650
23,858500	0,5	-1,627950
23,866833	0,5	-1,574300
23,875167	0,5	-1,525300
23,883500	0,5	-1,506650
23,891833	0,5	-1,505150
23,900167	0,5	-1,505100
23,908500	0,5	-1,514400
23,916833	0,5	-1,510000
23,925167	0,5	-1,502400
23,933500	0,5	-1,491900
23,941833	0,5	-1,480750
23,950167	0,5	-1,471350
23,958500	0,5	-1,459100
23,966833	0,5	-1,445450
23,975167	0,5	-1,435250
23,983500	0,5	-1,425300
23,991833	0,5	-1,446650
24,000167	0,5	-1,543350
24,008500	0,5	-1,504350
24,016833	0,5	-1,450950
24,025167	0,5	-1,393750
24,033500	0,5	-1,372750
24,041833	0,5	-1,358400
24,050167	0,5	-1,365050
24,058500	0,5	-1,354500
24,066833	0,5	-1,345350
24,075167	0,5	-1,321550
24,083500	0,5	-1,311250
24,091833	0,5	-1,288650
24,100167	0,5	-1,276400
24,108500	0,5	-1,258150
24,116833	0,5	-1,243050
24,125167	0,5	-1,229650
24,133500	0,5	-1,219450
24,141833	0,5	-1,304600
24,150167	0,5	-1,299900
24,158500	0,5	-1,285800
24,166833	0,5	-1,232250
24,175167	0,5	-1,200250
24,183500	0,5	-1,182700
24,191833	0,5	-1,176200
24,200167	0,5	-1,177600
24,208500	0,5	-1,165250
24,216833	0,5	-1,145400
24,225167	0,5	-1,137450
24,233500	0,5	-1,113650
24,241833	0,5	-1,104400
24,250167	0,5	-1,081850
24,258500	0,5	-1,066550
24,266833	0,5	-1,042900
24,275167	0,5	-1,026100
24,283500	0,5	-1,015400
24,291833	0,5	-1,091700
24,300167	0,5	-1,059500
24,308500	0,5	-1,041100
24,316833	0,5	-0,986400
24,325167	0,5	-0,959350
24,333500	0,5	-0,947100
24,341833	0,5	-0,941800
24,350167	0,5	-0,956050
24,358500	0,5	-0,932600
24,366833	0,5	-0,923900
24,375167	0,5	-0,911250
24,383500	0,5	-0,904200
24,391833	0,5	-0,884900
24,400167	0,5	-0,876000
24,408500	0,5	-0,858200
24,416833	0,5	-0,851050
24,425167	0,5	-0,835200
24,433500	0,5	-0,851500
24,441833	0,5	-0,889200
24,450167	0,5	-0,863600
24,458500	0,5	-0,838050
24,466833	0,5	-0,800300
24,475167	0,5	-0,781400
24,483500	0,5	-0,770800
24,491833	0,5	-0,764800
24,500167	0,5	-0,764150
24,508500	0,5	-0,745600
24,516833	0,5	-0,725150
24,525167	0,5	-0,713800
24,533500	0,5	-0,700700
24,541833	0,5	-0,690750
24,550167	0,5	-0,676650
24,558500	0,5	-0,667600
24,566833	0,5	-0,652400
24,575167	0,5	-0,645850
24,583500	0,5	-0,683350
24,591833	0,5	-0,684600
24,600167	0,5	-0,662250
24,608500	0,5	-0,644250
24,616833	0,5	-0,618500
24,625167	0,5	-0,612200
24,633500	0,5	-0,605750
24,641833	0,5	-0,610750
24,650167	0,5	-0,612200
24,658500	0,5	-0,597000
24,666833	0,5	-0,586200
24,675167	0,5	-0,576300
24,683500	0,5	-0,565700
24,691833	0,5	-0,554200
24,700167	0,5	-0,544550
24,708500	0,5	-0,528200
24,716833	0,5	-0,519450
24,725167	0,5	-0,506600
24,733500	0,5	-0,545400
24,741833	0,5	-0,522500
24,750167	0,5	-0,508650
24,758500	0,5	-0,485050
24,766833	0,5	-0,469900
24,775167	0,5	-0,460500
24,783500	0,5	-0,463350
24,791833	0,5	-0,465850
24,800167	0,5	-0,460950
24,808500	0,5	-0,449450
24,816833	0,5	-0,443650
24,825167	0,5	-0,434900
24,833500	0,5	-0,431850
24,841833	0,5	-0,422850
24,850167	0,5	-0,415500
24,858500	0,5	-0,410250
24,866833	0,5	-0,398600
24,875167	0,5	-0,403750
24,883500	0,5	-0,411800
24,891833	0,5	-0,405300
24,900167	0,5	-0,390900
24,908500	0,5	-0,377450
24,916833	0,5	-0,365250
24,925167	0,5	-0,358350
24,933500	0,5	-0,357300
24,941833	0,5	-0,356950
24,950167	0,5	-0,348900
24,958500	0,5	-0,342100
24,966833	0,5	-0,330600
24,975167	0,5	-0,325800
24,983500	0,5	-0,318500
24,991833	0,5	-0,311750
25,000167	0,5	-0,304100
25,008500	0,5	-0,297600
25,016833	0,5	-0,291050
25,025167	0,5	-0,298350
25,033500	0,5	-0,298250
25,041833	0,5	-0,293050
25,050167	0,5	-0,279750
25,058500	0,5	-0,275150
25,066833	0,5	-0,269650
25,075167	0,5	-0,269200
25,083500	0,5	-0,273850
25,091833	0,5	-0,268800
25,100167	0,5	-0,266100
25,108500	0,5	-0,259900
25,116833	0,5	-0,255450
25,125167	0,5	-0,248750
25,133500	0,5	-0,240450
25,141833	0,5	-0,233850
25,150167	0,5	-0,228700
25,158500	0,5	-0,223650
25,166833	0,5	-0,216550
25,175167	0,5	-0,219150
25,183500	0,5	-0,210400
25,191833	0,5	-0,206700
25,200167	0,5	-0,202000
25,208500	0,5	-0,193150
25,216833	0,5	-0,193100
25,225167	0,5	-0,192250
25,233500	0,5	-0,191600
25,241833	0,5	-0,187800
25,250167	0,5	-0,189450
25,258500	0,5	-0,186200
25,266833	0,5	-0,186000
25,275167	0,5	-0,184500
25,283500	0,5	-0,182950
25,291833	0,5	-0,178700
25,300167	0,5	-0,174300
25,308500	0,5	-0,173000
25,316833	0,5	-0,171600
25,325167	0,5	-0,165900
25,333500	0,5	-0,163650
25,341833	0,5	-0,157800
25,350167	0,5	-0,156800
25,358500	0,5	-0,151650
25,366833	0,5	-0,148300
25,375167	0,5	-0,146400
25,383500	0,5	-0,142400
25,391833	0,5	-0,143850
25,400167	0,5	-0,132450
25,408500	0,5	-0,133000
25,416833	0,5	-0,132550
25,425167	0,5	-0,133650
25,433500	0,5	-0,129500
25,441833	0,5	-0,132300
25,450167	0,5	-0,127700
25,458500	0,5	-0,127000
25,466833	0,5	-0,124700
25,475167	0,5	-0,121600
25,483500	0,5	-0,120300
25,491833	0,5	-0,121600
25,500167	0,5	-0,121300
25,508500	0,5	-0,119800
25,516833	0,5	-0,117800
25,525167	0,5	-0,119000
25,533500	0,5	-0,113950
25,541833	0,5	-0,111950
25,550167	0,5	-0,109150
25,558500	0,5	-0,104050
25,566833	0,5	-0,106300
25,575167	0,5	-0,102300
25,583500	0,5	-0,100000
25,591833	0,5	-0,097000
25,600167	0,5	-0,095850
25,608500	0,5	-0,094150
25,616833	0,5	-0,085300
25,625167	0,5	-0,084250
25,633500	0,5	-0,083650
25,641833	0,5	-0,086550
25,650167	0,5	-0,086800
25,658500	0,5	-0,085950
25,666833	0,5	-0,083550
25,675167	0,5	-0,082450
25,683500	0,5	-0,078050
25,691833	0,5	-0,077000
25,700167	0,5	-0,077800
25,708500	0,5	-0,075750
25,716833	0,5	-0,078850
25,725167	0,5	-0,076850
25,733500	0,5	-0,075950
25,741833	0,5	-0,076800
25,750167	0,5	-0,074300
25,758500	0,5	-0,072650
25,766833	0,5	-0,065750
25,775167	0,5	-0,067450
25,783500	0,5	-0,059750
25,791833	0,5	-0,065600
25,800167	0,5	-0,063650
25,808500	0,5	-0,065050
25,816833	0,5	-0,060550
25,825167	0,5	-0,051250
25,833500	0,5	-0,047450
25,841833	0,5	-0,054050
25,850167	0,5	-0,049500
25,858500	0,5	-0,052150
25,866833	0,5	-0,050050
25,875167	0,5	-0,052950
25,883500	0,5	-0,051550
25,891833	0,5	-0,051950
25,900167	0,5	-0,050950
25,908500	0,5	-0,046050
25,916833	0,5	-0,048750
25,925167	0,5	-0,038500
25,933500	0,5	-0,036600
25,941833	0,5	-0,043950
25,950167	0,5	-0,040150
25,958500	0,5	-0,035300
25,966833	0,5	-0,028900
25,975167	0,5	-0,017100
25,983500	0,5	-0,019700
25,991833	0,5	-0,014400
26,000167	0,5	-0,016800
