File Path	chrom://chromeleon01/ikbm_chromeleon/2022/ICS-5000/ED1/Esteban/20220612_Cell_7_4_eg.seq/230.smp/ED_1.channel/ED_1.chm
Channel	ED_1

Injection Information:
Data Vault	ikbm_chromeleon
Injection	4_01h-EGS_3
Injection Number	109
Position	BB1
Comment	
Processing Method	Stop sequence after Cell Death
Instrument Method	ICS5000_PA200_FullNative_Ox_26min_ED1
Type	Unknown
Status	Finished
Injection Date	14.06.2022
Injection Time	19:34:15
Injection Volume (µl)	5,0
Dilution Factor	1,0000
Weight	1,0000

Chromatogram Data Information:
Time Min. (min)	0,000333
Time Max. (min)	26,000333
Data Points	3121
Detector	EDet1
Generating Data System	Chromeleon 7.2.9.11323
Exporting Data System	Chromeleon 7.2.9.0
Operator	Instrument Controller
Signal Quantity	
Signal Unit	nC
Signal Min.	-2,752450
Signal Max.	2 094,938581
Channel	ED_1
Driver Name	DC-5000
Channel Type	Evaluation
Min. Step (s)	0,5
Max. Step (s)	0,5
Average Step (s)	0,5

Signal Parameter Information:
Signal Info	

Chromatogram Data:
Time (min)	Step (s)	Value (nC)
0,000333	n.a.	-0,058800
0,008667	0,5	-0,077600
0,017000	0,5	-0,063500
0,025333	0,5	-0,056100
0,033667	0,5	-0,034850
0,042000	0,5	-0,021150
0,050333	0,5	-0,047200
0,058667	0,5	-0,053150
0,067000	0,5	-0,043950
0,075333	0,5	-0,017600
0,083667	0,5	0,005150
0,092000	0,5	0,001350
0,100333	0,5	-0,006750
0,108667	0,5	-0,000150
0,117000	0,5	-0,007150
0,125333	0,5	-0,002750
0,133667	0,5	-0,013450
0,142000	0,5	-0,009750
0,150333	0,5	-0,018550
0,158667	0,5	-0,017300
0,167000	0,5	-0,022950
0,175333	0,5	-0,036800
0,183667	0,5	-0,029400
0,192000	0,5	-0,018450
0,200333	0,5	-0,040150
0,208667	0,5	-0,046150
0,217000	0,5	-0,038000
0,225333	0,5	-0,015000
0,233667	0,5	-0,000150
0,242000	0,5	-0,023500
0,250333	0,5	-0,016950
0,258667	0,5	-0,022000
0,267000	0,5	-0,016500
0,275333	0,5	-0,022050
0,283667	0,5	-0,015650
0,292000	0,5	0,009300
0,300333	0,5	0,053700
0,308667	0,5	0,038600
0,317000	0,5	-0,010400
0,325333	0,5	-0,070650
0,333667	0,5	-0,060950
0,342000	0,5	-0,064950
0,350333	0,5	-0,069700
0,358667	0,5	-0,073000
0,367000	0,5	-0,057100
0,375333	0,5	-0,023300
0,383667	0,5	-0,019850
0,392000	0,5	-0,028500
0,400333	0,5	-0,023300
0,408667	0,5	-0,024300
0,417000	0,5	-0,026700
0,425333	0,5	-0,026800
0,433667	0,5	-0,027300
0,442000	0,5	-0,025750
0,450333	0,5	-0,035250
0,458667	0,5	-0,030800
0,467000	0,5	-0,058900
0,475333	0,5	-0,064450
0,483667	0,5	-0,034850
0,492000	0,5	-0,054550
0,500333	0,5	-0,055500
0,508667	0,5	-0,054800
0,517000	0,5	-0,038800
0,525333	0,5	0,005500
0,533667	0,5	-0,003950
0,542000	0,5	-0,004450
0,550333	0,5	-0,013400
0,558667	0,5	0,001600
0,567000	0,5	-0,005350
0,575333	0,5	0,001900
0,583667	0,5	-0,006100
0,592000	0,5	-0,009650
0,600333	0,5	-0,002800
0,608667	0,5	-0,011500
0,617000	0,5	-0,017100
0,625333	0,5	-0,016650
0,633667	0,5	0,004900
0,642000	0,5	-0,021750
0,650333	0,5	-0,016650
0,658667	0,5	-0,016200
0,667000	0,5	0,008000
0,675333	0,5	0,043550
0,683667	0,5	0,045600
0,692000	0,5	0,028600
0,700333	0,5	0,035500
0,708667	0,5	0,025400
0,717000	0,5	0,033400
0,725333	0,5	0,031300
0,733667	0,5	0,030300
0,742000	0,5	0,026150
0,750333	0,5	0,032950
0,758667	0,5	0,028650
0,767000	0,5	0,022800
0,775333	0,5	0,036850
0,783667	0,5	0,036650
0,792000	0,5	0,019000
0,800333	0,5	0,024300
0,808667	0,5	0,036200
0,817000	0,5	0,064500
0,825333	0,5	0,089450
0,833667	0,5	0,068500
0,842000	0,5	0,080950
0,850333	0,5	0,074600
0,858667	0,5	0,080500
0,867000	0,5	0,073050
0,875333	0,5	0,079350
0,883667	0,5	0,073500
0,892000	0,5	0,077450
0,900333	0,5	0,071450
0,908667	0,5	0,057050
0,917000	0,5	0,053800
0,925333	0,5	0,088450
0,933667	0,5	0,069000
0,942000	0,5	0,061750
0,950333	0,5	0,062050
0,958667	0,5	0,075300
0,967000	0,5	0,107850
0,975333	0,5	0,106100
0,983667	0,5	0,110800
0,992000	0,5	0,105100
1,000333	0,5	0,113750
1,008667	0,5	0,107850
1,017000	0,5	0,110750
1,025333	0,5	0,099950
1,033667	0,5	0,103650
1,042000	0,5	0,100000
1,050333	0,5	0,110350
1,058667	0,5	0,090200
1,067000	0,5	0,102500
1,075333	0,5	0,118000
1,083667	0,5	0,097900
1,092000	0,5	0,085500
1,100333	0,5	0,099500
1,108667	0,5	0,112800
1,117000	0,5	0,155200
1,125333	0,5	0,137950
1,133667	0,5	0,133700
1,142000	0,5	0,132100
1,150333	0,5	0,134650
1,158667	0,5	0,135200
1,167000	0,5	0,136600
1,175333	0,5	0,133600
1,183667	0,5	0,127100
1,192000	0,5	0,131000
1,200333	0,5	0,132550
1,208667	0,5	0,125200
1,217000	0,5	0,131000
1,225333	0,5	0,143550
1,233667	0,5	0,119950
1,242000	0,5	0,121000
1,250333	0,5	0,130700
1,258667	0,5	0,156750
1,267000	0,5	0,167200
1,275333	0,5	0,149650
1,283667	0,5	0,150650
1,292000	0,5	0,152850
1,300333	0,5	0,158350
1,308667	0,5	0,159050
1,317000	0,5	0,153150
1,325333	0,5	0,150600
1,333667	0,5	0,154550
1,342000	0,5	0,157400
1,350333	0,5	0,163000
1,358667	0,5	0,140500
1,367000	0,5	0,168500
1,375333	0,5	0,151650
1,383667	0,5	0,144800
1,392000	0,5	0,138050
1,400333	0,5	0,153550
1,408667	0,5	0,174700
1,417000	0,5	0,189100
1,425333	0,5	0,170450
1,433667	0,5	0,180850
1,442000	0,5	0,177650
1,450333	0,5	0,181250
1,458667	0,5	0,175100
1,467000	0,5	0,179650
1,475333	0,5	0,169150
1,483667	0,5	0,171500
1,492000	0,5	0,167650
1,500333	0,5	0,154700
1,508667	0,5	0,142500
1,517000	0,5	0,165400
1,525333	0,5	0,145850
1,533667	0,5	0,146350
1,542000	0,5	0,151150
1,550333	0,5	0,186000
1,558667	0,5	0,297100
1,567000	0,5	0,542250
1,575333	0,5	1,134700
1,583667	0,5	2,808300
1,592000	0,5	11,415650
1,600333	0,5	50,586751
1,608667	0,5	193,482253
1,617000	0,5	613,575759
1,625333	0,5	1 384,279671
1,633667	0,5	1 998,955780
1,642000	0,5	2 094,938581
1,650333	0,5	2 038,260130
1,658667	0,5	1 995,224880
1,667000	0,5	1 863,818028
1,675333	0,5	1 519,158923
1,683667	0,5	1 075,356016
1,692000	0,5	726,579511
1,700333	0,5	511,104458
1,708667	0,5	384,474606
1,717000	0,5	303,795855
1,725333	0,5	249,911004
1,733667	0,5	210,706953
1,742000	0,5	181,063453
1,750333	0,5	158,593202
1,758667	0,5	140,787252
1,767000	0,5	125,577802
1,775333	0,5	112,136402
1,783667	0,5	100,730052
1,792000	0,5	91,755901
1,800333	0,5	85,470801
1,808667	0,5	82,016451
1,817000	0,5	81,606351
1,825333	0,5	83,789601
1,833667	0,5	86,533801
1,842000	0,5	86,960601
1,850333	0,5	84,075351
1,858667	0,5	78,615651
1,867000	0,5	72,010651
1,875333	0,5	65,806551
1,883667	0,5	61,015601
1,892000	0,5	57,688851
1,900333	0,5	55,160951
1,908667	0,5	52,963201
1,917000	0,5	51,230301
1,925333	0,5	50,208551
1,933667	0,5	49,573151
1,942000	0,5	48,642951
1,950333	0,5	47,073851
1,958667	0,5	45,306051
1,967000	0,5	43,852951
1,975333	0,5	43,279701
1,983667	0,5	44,095301
1,992000	0,5	46,860251
2,000333	0,5	51,000251
2,008667	0,5	53,922251
2,017000	0,5	53,370051
2,025333	0,5	50,211351
2,033667	0,5	46,895251
2,042000	0,5	44,789801
2,050333	0,5	43,917201
2,058667	0,5	43,984601
2,067000	0,5	44,854901
2,075333	0,5	46,530151
2,083667	0,5	49,120751
2,092000	0,5	52,667751
2,100333	0,5	57,337951
2,108667	0,5	63,450151
2,117000	0,5	71,650201
2,125333	0,5	82,564251
2,133667	0,5	95,172451
2,142000	0,5	106,516102
2,150333	0,5	113,485352
2,158667	0,5	113,843252
2,167000	0,5	107,131852
2,175333	0,5	95,154951
2,183667	0,5	81,853801
2,192000	0,5	70,320851
2,200333	0,5	61,590351
2,208667	0,5	55,461301
2,217000	0,5	51,976351
2,225333	0,5	51,831551
2,233667	0,5	55,373251
2,242000	0,5	60,193151
2,250333	0,5	61,817101
2,258667	0,5	58,797651
2,267000	0,5	54,183901
2,275333	0,5	50,748651
2,283667	0,5	47,966301
2,292000	0,5	44,460501
2,300333	0,5	40,355751
2,308667	0,5	36,707251
2,317000	0,5	34,078701
2,325333	0,5	32,332000
2,333667	0,5	31,144850
2,342000	0,5	30,406600
2,350333	0,5	30,121950
2,358667	0,5	30,415600
2,367000	0,5	31,350400
2,375333	0,5	32,990100
2,383667	0,5	35,100601
2,392000	0,5	37,016201
2,400333	0,5	38,532151
2,408667	0,5	39,732451
2,417000	0,5	40,287951
2,425333	0,5	39,661601
2,433667	0,5	37,968551
2,442000	0,5	35,971201
2,450333	0,5	34,254501
2,458667	0,5	32,909850
2,467000	0,5	31,815700
2,475333	0,5	30,767450
2,483667	0,5	29,739050
2,492000	0,5	28,785000
2,500333	0,5	27,983950
2,508667	0,5	27,319750
2,517000	0,5	26,817450
2,525333	0,5	26,451950
2,533667	0,5	26,182800
2,542000	0,5	25,879550
2,550333	0,5	25,522850
2,558667	0,5	25,036350
2,567000	0,5	24,655350
2,575333	0,5	24,662950
2,583667	0,5	25,809200
2,592000	0,5	28,427650
2,600333	0,5	29,886600
2,608667	0,5	28,579850
2,617000	0,5	26,681900
2,625333	0,5	25,333550
2,633667	0,5	24,423950
2,642000	0,5	23,777250
2,650333	0,5	23,287200
2,658667	0,5	22,917550
2,667000	0,5	22,621450
2,675333	0,5	22,413500
2,683667	0,5	22,287800
2,692000	0,5	22,275900
2,700333	0,5	22,318500
2,708667	0,5	22,328200
2,717000	0,5	22,269950
2,725333	0,5	22,111350
2,733667	0,5	21,860350
2,742000	0,5	21,559900
2,750333	0,5	21,218550
2,758667	0,5	20,896800
2,767000	0,5	20,603550
2,775333	0,5	20,369000
2,783667	0,5	20,171700
2,792000	0,5	20,048800
2,800333	0,5	19,989000
2,808667	0,5	20,009450
2,817000	0,5	20,103400
2,825333	0,5	20,197400
2,833667	0,5	20,289700
2,842000	0,5	20,383950
2,850333	0,5	20,489700
2,858667	0,5	20,682000
2,867000	0,5	21,061500
2,875333	0,5	21,674650
2,883667	0,5	22,663150
2,892000	0,5	24,183350
2,900333	0,5	26,686850
2,908667	0,5	31,115250
2,917000	0,5	39,206201
2,925333	0,5	53,203051
2,933667	0,5	74,781501
2,942000	0,5	102,644352
2,950333	0,5	131,288602
2,958667	0,5	152,568552
2,967000	0,5	160,119252
2,975333	0,5	152,665352
2,983667	0,5	133,982002
2,992000	0,5	110,425502
3,000333	0,5	87,645651
3,008667	0,5	69,276601
3,017000	0,5	56,352451
3,025333	0,5	48,080151
3,033667	0,5	42,947101
3,042000	0,5	39,508451
3,050333	0,5	36,842951
3,058667	0,5	34,559051
3,067000	0,5	32,455800
3,075333	0,5	30,566700
3,083667	0,5	28,940900
3,092000	0,5	27,797500
3,100333	0,5	27,431800
3,108667	0,5	28,265000
3,117000	0,5	30,622750
3,125333	0,5	34,434951
3,133667	0,5	39,084451
3,142000	0,5	43,457251
3,150333	0,5	46,221551
3,158667	0,5	46,718651
3,167000	0,5	44,895551
3,175333	0,5	41,288201
3,183667	0,5	36,757951
3,192000	0,5	32,024100
3,200333	0,5	27,757100
3,208667	0,5	24,219600
3,217000	0,5	21,494550
3,225333	0,5	19,465650
3,233667	0,5	18,021200
3,242000	0,5	16,981650
3,250333	0,5	16,257700
3,258667	0,5	15,729550
3,267000	0,5	15,323950
3,275333	0,5	14,969000
3,283667	0,5	14,683400
3,292000	0,5	14,416200
3,300333	0,5	14,145150
3,308667	0,5	13,904350
3,317000	0,5	13,701450
3,325333	0,5	13,543250
3,333667	0,5	13,437350
3,342000	0,5	13,395050
3,350333	0,5	13,472100
3,358667	0,5	13,689000
3,367000	0,5	14,026450
3,375333	0,5	14,450500
3,383667	0,5	14,863400
3,392000	0,5	15,168350
3,400333	0,5	15,272700
3,408667	0,5	15,151150
3,417000	0,5	14,818950
3,425333	0,5	14,366400
3,433667	0,5	13,892700
3,442000	0,5	13,445050
3,450333	0,5	13,057600
3,458667	0,5	12,759100
3,467000	0,5	12,533750
3,475333	0,5	12,372200
3,483667	0,5	12,231950
3,492000	0,5	12,095100
3,500333	0,5	11,991450
3,508667	0,5	11,911750
3,517000	0,5	11,844600
3,525333	0,5	11,803150
3,533667	0,5	11,782400
3,542000	0,5	11,792400
3,550333	0,5	11,855100
3,558667	0,5	11,976000
3,567000	0,5	12,199600
3,575333	0,5	12,545050
3,583667	0,5	13,029300
3,592000	0,5	13,512000
3,600333	0,5	13,924700
3,608667	0,5	14,132300
3,617000	0,5	14,091800
3,625333	0,5	13,790600
3,633667	0,5	13,285250
3,642000	0,5	12,676700
3,650333	0,5	12,117900
3,658667	0,5	11,644000
3,667000	0,5	11,297200
3,675333	0,5	11,053500
3,683667	0,5	10,897450
3,692000	0,5	10,799450
3,700333	0,5	10,729050
3,708667	0,5	10,677350
3,717000	0,5	10,617650
3,725333	0,5	10,588300
3,733667	0,5	10,572300
3,742000	0,5	10,532300
3,750333	0,5	10,496400
3,758667	0,5	10,460650
3,767000	0,5	10,421900
3,775333	0,5	10,377700
3,783667	0,5	10,294900
3,792000	0,5	10,214000
3,800333	0,5	10,117800
3,808667	0,5	10,047400
3,817000	0,5	9,972850
3,825333	0,5	9,930500
3,833667	0,5	9,882250
3,842000	0,5	9,864250
3,850333	0,5	9,876600
3,858667	0,5	9,922350
3,867000	0,5	10,039850
3,875333	0,5	10,262050
3,883667	0,5	10,519200
3,892000	0,5	10,783050
3,900333	0,5	11,026450
3,908667	0,5	11,218650
3,917000	0,5	11,369200
3,925333	0,5	11,434800
3,933667	0,5	11,451300
3,942000	0,5	11,428750
3,950333	0,5	11,413050
3,958667	0,5	11,390550
3,967000	0,5	11,406700
3,975333	0,5	11,434600
3,983667	0,5	11,510350
3,992000	0,5	11,640750
4,000333	0,5	11,872500
4,008667	0,5	12,281300
4,017000	0,5	13,103350
4,025333	0,5	14,704550
4,033667	0,5	17,367150
4,042000	0,5	21,154850
4,050333	0,5	25,572000
4,058667	0,5	29,733700
4,067000	0,5	32,859300
4,075333	0,5	34,393451
4,083667	0,5	34,289301
4,092000	0,5	32,881550
4,100333	0,5	30,628500
4,108667	0,5	28,047400
4,117000	0,5	25,499250
4,125333	0,5	23,229450
4,133667	0,5	21,311300
4,142000	0,5	19,766700
4,150333	0,5	18,510600
4,158667	0,5	17,482350
4,167000	0,5	16,604950
4,175333	0,5	15,892200
4,183667	0,5	15,211700
4,192000	0,5	14,638200
4,200333	0,5	14,137500
4,208667	0,5	13,718250
4,217000	0,5	13,366700
4,225333	0,5	13,026050
4,233667	0,5	12,737050
4,242000	0,5	12,486400
4,250333	0,5	12,264000
4,258667	0,5	12,061450
4,267000	0,5	11,881350
4,275333	0,5	11,697800
4,283667	0,5	11,534250
4,292000	0,5	11,365400
4,300333	0,5	11,214000
4,308667	0,5	11,047850
4,317000	0,5	10,906350
4,325333	0,5	10,773600
4,333667	0,5	10,628950
4,342000	0,5	10,497400
4,350333	0,5	10,389300
4,358667	0,5	10,297400
4,367000	0,5	10,217550
4,375333	0,5	10,105550
4,383667	0,5	10,029400
4,392000	0,5	9,959750
4,400333	0,5	9,908750
4,408667	0,5	9,861650
4,417000	0,5	9,828000
4,425333	0,5	9,816800
4,433667	0,5	9,825550
4,442000	0,5	9,865650
4,450333	0,5	9,923950
4,458667	0,5	10,001500
4,467000	0,5	10,109600
4,475333	0,5	10,219150
4,483667	0,5	10,297650
4,492000	0,5	10,358600
4,500333	0,5	10,378000
4,508667	0,5	10,363050
4,517000	0,5	10,278350
4,525333	0,5	10,135550
4,533667	0,5	9,951650
4,542000	0,5	9,764650
4,550333	0,5	9,565950
4,558667	0,5	9,389850
4,567000	0,5	9,221850
4,575333	0,5	9,084150
4,583667	0,5	8,973250
4,592000	0,5	8,886050
4,600333	0,5	8,811350
4,608667	0,5	8,751650
4,617000	0,5	8,713800
4,625333	0,5	8,668450
4,633667	0,5	8,634400
4,642000	0,5	8,617950
4,650333	0,5	8,623000
4,658667	0,5	8,633950
4,667000	0,5	8,641050
4,675333	0,5	8,626200
4,683667	0,5	8,626200
4,692000	0,5	8,613500
4,700333	0,5	8,604450
4,708667	0,5	8,580950
4,717000	0,5	8,561100
4,725333	0,5	8,528150
4,733667	0,5	8,503950
4,742000	0,5	8,479800
4,750333	0,5	8,454800
4,758667	0,5	8,442550
4,767000	0,5	8,440000
4,775333	0,5	8,409300
4,783667	0,5	8,406000
4,792000	0,5	8,402050
4,800333	0,5	8,418500
4,808667	0,5	8,436850
4,817000	0,5	8,433200
4,825333	0,5	8,427000
4,833667	0,5	8,414650
4,842000	0,5	8,413200
4,850333	0,5	8,391150
4,858667	0,5	8,380650
4,867000	0,5	8,362800
4,875333	0,5	8,363250
4,883667	0,5	8,363800
4,892000	0,5	8,370050
4,900333	0,5	8,373700
4,908667	0,5	8,415250
4,917000	0,5	8,433850
4,925333	0,5	8,466150
4,933667	0,5	8,511650
4,942000	0,5	8,582650
4,950333	0,5	8,690300
4,958667	0,5	8,809500
4,967000	0,5	8,942250
4,975333	0,5	9,111450
4,983667	0,5	9,316150
4,992000	0,5	9,557200
5,000333	0,5	9,828400
5,008667	0,5	10,110850
5,017000	0,5	10,398050
5,025333	0,5	10,656600
5,033667	0,5	10,881950
5,042000	0,5	11,027950
5,050333	0,5	11,102600
5,058667	0,5	11,111450
5,067000	0,5	11,003500
5,075333	0,5	10,832200
5,083667	0,5	10,625200
5,092000	0,5	10,385100
5,100333	0,5	10,161200
5,108667	0,5	9,904550
5,117000	0,5	9,669100
5,125333	0,5	9,459100
5,133667	0,5	9,271600
5,142000	0,5	9,098550
5,150333	0,5	8,950800
5,158667	0,5	8,814850
5,167000	0,5	8,696750
5,175333	0,5	8,594700
5,183667	0,5	8,504700
5,192000	0,5	8,435800
5,200333	0,5	8,354200
5,208667	0,5	8,315400
5,217000	0,5	8,237650
5,225333	0,5	8,192350
5,233667	0,5	8,156550
5,242000	0,5	8,138500
5,250333	0,5	8,138500
5,258667	0,5	8,114850
5,267000	0,5	8,091000
5,275333	0,5	8,086550
5,283667	0,5	8,072750
5,292000	0,5	8,071500
5,300333	0,5	8,066350
5,308667	0,5	8,067700
5,317000	0,5	8,077250
5,325333	0,5	8,092700
5,333667	0,5	8,125000
5,342000	0,5	8,137900
5,350333	0,5	8,155450
5,358667	0,5	8,186450
5,367000	0,5	8,179450
5,375333	0,5	8,182150
5,383667	0,5	8,185350
5,392000	0,5	8,191150
5,400333	0,5	8,200550
5,408667	0,5	8,170650
5,417000	0,5	8,167750
5,425333	0,5	8,160100
5,433667	0,5	8,176750
5,442000	0,5	8,181850
5,450333	0,5	8,212550
5,458667	0,5	8,228000
5,467000	0,5	8,252750
5,475333	0,5	8,276450
5,483667	0,5	8,290150
5,492000	0,5	8,285950
5,500333	0,5	8,291450
5,508667	0,5	8,266650
5,517000	0,5	8,219900
5,525333	0,5	8,175000
5,533667	0,5	8,127550
5,542000	0,5	8,083100
5,550333	0,5	8,035100
5,558667	0,5	7,978000
5,567000	0,5	7,916750
5,575333	0,5	7,871100
5,583667	0,5	7,816700
5,592000	0,5	7,779000
5,600333	0,5	7,744700
5,608667	0,5	7,722700
5,617000	0,5	7,696350
5,625333	0,5	7,684350
5,633667	0,5	7,665200
5,642000	0,5	7,663850
5,650333	0,5	7,658650
5,658667	0,5	7,642350
5,667000	0,5	7,624900
5,675333	0,5	7,624200
5,683667	0,5	7,629500
5,692000	0,5	7,651700
5,700333	0,5	7,660050
5,708667	0,5	7,649750
5,717000	0,5	7,650500
5,725333	0,5	7,650650
5,733667	0,5	7,652700
5,742000	0,5	7,655750
5,750333	0,5	7,657250
5,758667	0,5	7,654050
5,767000	0,5	7,657450
5,775333	0,5	7,657400
5,783667	0,5	7,656700
5,792000	0,5	7,656400
5,800333	0,5	7,663950
5,808667	0,5	7,643500
5,817000	0,5	7,642950
5,825333	0,5	7,640500
5,833667	0,5	7,660650
5,842000	0,5	7,676300
5,850333	0,5	7,679650
5,858667	0,5	7,678600
5,867000	0,5	7,676250
5,875333	0,5	7,676800
5,883667	0,5	7,665650
5,892000	0,5	7,651650
5,900333	0,5	7,627100
5,908667	0,5	7,604900
5,917000	0,5	7,583200
5,925333	0,5	7,564200
5,933667	0,5	7,525900
5,942000	0,5	7,521800
5,950333	0,5	7,485100
5,958667	0,5	7,445200
5,967000	0,5	7,406300
5,975333	0,5	7,373250
5,983667	0,5	7,343600
5,992000	0,5	7,292050
6,000333	0,5	7,222450
6,008667	0,5	7,170750
6,017000	0,5	7,111800
6,025333	0,5	7,066900
6,033667	0,5	7,022900
6,042000	0,5	6,990050
6,050333	0,5	6,964750
6,058667	0,5	6,947200
6,067000	0,5	6,938600
6,075333	0,5	6,924600
6,083667	0,5	6,922750
6,092000	0,5	6,944800
6,100333	0,5	6,950100
6,108667	0,5	6,956800
6,117000	0,5	6,977850
6,125333	0,5	7,004400
6,133667	0,5	7,053350
6,142000	0,5	7,067050
6,150333	0,5	7,088150
6,158667	0,5	7,104150
6,167000	0,5	7,131800
6,175333	0,5	7,145300
6,183667	0,5	7,166950
6,192000	0,5	7,182900
6,200333	0,5	7,208050
6,208667	0,5	7,237950
6,217000	0,5	7,288200
6,225333	0,5	7,343450
6,233667	0,5	7,404050
6,242000	0,5	7,495950
6,250333	0,5	7,559050
6,258667	0,5	7,637750
6,267000	0,5	7,711200
6,275333	0,5	7,780700
6,283667	0,5	7,836800
6,292000	0,5	7,843050
6,300333	0,5	7,808050
6,308667	0,5	7,760500
6,317000	0,5	7,678500
6,325333	0,5	7,581850
6,333667	0,5	7,466850
6,342000	0,5	7,350600
6,350333	0,5	7,237750
6,358667	0,5	7,138350
6,367000	0,5	7,050400
6,375333	0,5	6,971500
6,383667	0,5	6,909650
6,392000	0,5	6,872350
6,400333	0,5	6,823100
6,408667	0,5	6,795850
6,417000	0,5	6,780600
6,425333	0,5	6,782700
6,433667	0,5	6,794350
6,442000	0,5	6,782050
6,450333	0,5	6,789900
6,458667	0,5	6,799500
6,467000	0,5	6,819550
6,475333	0,5	6,831450
6,483667	0,5	6,858750
6,492000	0,5	6,876800
6,500333	0,5	6,901500
6,508667	0,5	6,915000
6,517000	0,5	6,920300
6,525333	0,5	6,911350
6,533667	0,5	6,917100
6,542000	0,5	6,901500
6,550333	0,5	6,881250
6,558667	0,5	6,861900
6,567000	0,5	6,856750
6,575333	0,5	6,861500
6,583667	0,5	6,875550
6,592000	0,5	6,883950
6,600333	0,5	6,905300
6,608667	0,5	6,937600
6,617000	0,5	6,976050
6,625333	0,5	7,023200
6,633667	0,5	7,073050
6,642000	0,5	7,122400
6,650333	0,5	7,170700
6,658667	0,5	7,218350
6,667000	0,5	7,240300
6,675333	0,5	7,268000
6,683667	0,5	7,286700
6,692000	0,5	7,276450
6,700333	0,5	7,257350
6,708667	0,5	7,232600
6,717000	0,5	7,202800
6,725333	0,5	7,170700
6,733667	0,5	7,130900
6,742000	0,5	7,084000
6,750333	0,5	7,040600
6,758667	0,5	7,014150
6,767000	0,5	6,996550
6,775333	0,5	7,003650
6,783667	0,5	7,017650
6,792000	0,5	7,049550
6,800333	0,5	7,099600
6,808667	0,5	7,158050
6,817000	0,5	7,226100
6,825333	0,5	7,319850
6,833667	0,5	7,435000
6,842000	0,5	7,563400
6,850333	0,5	7,740650
6,858667	0,5	7,978600
6,867000	0,5	8,324900
6,875333	0,5	8,794200
6,883667	0,5	9,439500
6,892000	0,5	10,292800
6,900333	0,5	11,405050
6,908667	0,5	12,753100
6,917000	0,5	14,304350
6,925333	0,5	15,929600
6,933667	0,5	17,493300
6,942000	0,5	18,815050
6,950333	0,5	19,749350
6,958667	0,5	20,191950
6,967000	0,5	20,106900
6,975333	0,5	19,565750
6,983667	0,5	18,630300
6,992000	0,5	17,419450
7,000333	0,5	16,073100
7,008667	0,5	14,696200
7,017000	0,5	13,367200
7,025333	0,5	12,126750
7,033667	0,5	11,019550
7,042000	0,5	10,086350
7,050333	0,5	9,321850
7,058667	0,5	8,727000
7,067000	0,5	8,272600
7,075333	0,5	7,942600
7,083667	0,5	7,702950
7,092000	0,5	7,549050
7,100333	0,5	7,453850
7,108667	0,5	7,394700
7,117000	0,5	7,353800
7,125333	0,5	7,334600
7,133667	0,5	7,272450
7,142000	0,5	7,184900
7,150333	0,5	7,085000
7,158667	0,5	6,984900
7,167000	0,5	6,905250
7,175333	0,5	6,828950
7,183667	0,5	6,769500
7,192000	0,5	6,725700
7,200333	0,5	6,693900
7,208667	0,5	6,659700
7,217000	0,5	6,630450
7,225333	0,5	6,597700
7,233667	0,5	6,566050
7,242000	0,5	6,535250
7,250333	0,5	6,510000
7,258667	0,5	6,481850
7,267000	0,5	6,464250
7,275333	0,5	6,464750
7,283667	0,5	6,458950
7,292000	0,5	6,458900
7,300333	0,5	6,470800
7,308667	0,5	6,483700
7,317000	0,5	6,509650
7,325333	0,5	6,510700
7,333667	0,5	6,510200
7,342000	0,5	6,518750
7,350333	0,5	6,530450
7,358667	0,5	6,549300
7,367000	0,5	6,580150
7,375333	0,5	6,617350
7,383667	0,5	6,644700
7,392000	0,5	6,660100
7,400333	0,5	6,641650
7,408667	0,5	6,592850
7,417000	0,5	6,520900
7,425333	0,5	6,448350
7,433667	0,5	6,358050
7,442000	0,5	6,288500
7,450333	0,5	6,232150
7,458667	0,5	6,198300
7,467000	0,5	6,175700
7,475333	0,5	6,146700
7,483667	0,5	6,119150
7,492000	0,5	6,098650
7,500333	0,5	6,070100
7,508667	0,5	6,035300
7,517000	0,5	5,996450
7,525333	0,5	5,956450
7,533667	0,5	5,925550
7,542000	0,5	5,907350
7,550333	0,5	5,896600
7,558667	0,5	5,889650
7,567000	0,5	5,891050
7,575333	0,5	5,884150
7,583667	0,5	5,870800
7,592000	0,5	5,857150
7,600333	0,5	5,847800
7,608667	0,5	5,843400
7,617000	0,5	5,853850
7,625333	0,5	5,891400
7,633667	0,5	5,995050
7,642000	0,5	6,153250
7,650333	0,5	6,349100
7,658667	0,5	6,504650
7,667000	0,5	6,587250
7,675333	0,5	6,587650
7,683667	0,5	6,539750
7,692000	0,5	6,457650
7,700333	0,5	6,355450
7,708667	0,5	6,237550
7,717000	0,5	6,123300
7,725333	0,5	6,009400
7,733667	0,5	5,915700
7,742000	0,5	5,849400
7,750333	0,5	5,816200
7,758667	0,5	5,812400
7,767000	0,5	5,819950
7,775333	0,5	5,843650
7,783667	0,5	5,867100
7,792000	0,5	5,895300
7,800333	0,5	5,901750
7,808667	0,5	5,903250
7,817000	0,5	5,889800
7,825333	0,5	5,883800
7,833667	0,5	5,888900
7,842000	0,5	5,918950
7,850333	0,5	5,963100
7,858667	0,5	6,040550
7,867000	0,5	6,151150
7,875333	0,5	6,293700
7,883667	0,5	6,498850
7,892000	0,5	6,813750
7,900333	0,5	7,282950
7,908667	0,5	7,958800
7,917000	0,5	8,889150
7,925333	0,5	10,116250
7,933667	0,5	11,675850
7,942000	0,5	13,589200
7,950333	0,5	15,845950
7,958667	0,5	18,338450
7,967000	0,5	20,845300
7,975333	0,5	23,037700
7,983667	0,5	24,579000
7,992000	0,5	25,196000
8,000333	0,5	24,778600
8,008667	0,5	23,412850
8,017000	0,5	21,344700
8,025333	0,5	18,982800
8,033667	0,5	16,791850
8,042000	0,5	15,085350
8,050333	0,5	13,969750
8,058667	0,5	13,387600
8,067000	0,5	13,337050
8,075333	0,5	14,074200
8,083667	0,5	16,298050
8,092000	0,5	21,257250
8,100333	0,5	30,393500
8,108667	0,5	44,049601
8,117000	0,5	59,985601
8,125333	0,5	73,427751
8,133667	0,5	79,491451
8,142000	0,5	76,247101
8,150333	0,5	65,561801
8,158667	0,5	51,531351
8,167000	0,5	37,940801
8,175333	0,5	27,044200
8,183667	0,5	19,433400
8,192000	0,5	14,627600
8,200333	0,5	11,787900
8,208667	0,5	10,142800
8,217000	0,5	9,176350
8,225333	0,5	8,592600
8,233667	0,5	8,207800
8,242000	0,5	7,930850
8,250333	0,5	7,718650
8,258667	0,5	7,506750
8,267000	0,5	7,267750
8,275333	0,5	6,999150
8,283667	0,5	6,747250
8,292000	0,5	6,542800
8,300333	0,5	6,401350
8,308667	0,5	6,322650
8,317000	0,5	6,267200
8,325333	0,5	6,220900
8,333667	0,5	6,174150
8,342000	0,5	6,124150
8,350333	0,5	6,092300
8,358667	0,5	6,065700
8,367000	0,5	6,045300
8,375333	0,5	6,017650
8,383667	0,5	5,972950
8,392000	0,5	5,912900
8,400333	0,5	5,852750
8,408667	0,5	5,800200
8,417000	0,5	5,767950
8,425333	0,5	5,752950
8,433667	0,5	5,747750
8,442000	0,5	5,750800
8,450333	0,5	5,758550
8,458667	0,5	5,790600
8,467000	0,5	5,854300
8,475333	0,5	5,968450
8,483667	0,5	6,115450
8,492000	0,5	6,244000
8,500333	0,5	6,282700
8,508667	0,5	6,224050
8,517000	0,5	6,098350
8,525333	0,5	5,970000
8,533667	0,5	5,861400
8,542000	0,5	5,778900
8,550333	0,5	5,714050
8,558667	0,5	5,667100
8,567000	0,5	5,643650
8,575333	0,5	5,642500
8,583667	0,5	5,669100
8,592000	0,5	5,712200
8,600333	0,5	5,768350
8,608667	0,5	5,844150
8,617000	0,5	5,952000
8,625333	0,5	6,113400
8,633667	0,5	6,322000
8,642000	0,5	6,546400
8,650333	0,5	6,732050
8,658667	0,5	6,829900
8,667000	0,5	6,832800
8,675333	0,5	6,756500
8,683667	0,5	6,673700
8,692000	0,5	6,636950
8,700333	0,5	6,666850
8,708667	0,5	6,739900
8,717000	0,5	6,814300
8,725333	0,5	6,889150
8,733667	0,5	7,002550
8,742000	0,5	7,183200
8,750333	0,5	7,425250
8,758667	0,5	7,703250
8,767000	0,5	8,014900
8,775333	0,5	8,411550
8,783667	0,5	9,028450
8,792000	0,5	10,165900
8,800333	0,5	12,484000
8,808667	0,5	17,135300
8,817000	0,5	25,251450
8,825333	0,5	36,622551
8,833667	0,5	48,503201
8,842000	0,5	56,462351
8,850333	0,5	57,128751
8,858667	0,5	50,564601
8,867000	0,5	39,913451
8,875333	0,5	29,025600
8,883667	0,5	20,372850
8,892000	0,5	14,562000
8,900333	0,5	11,046250
8,908667	0,5	8,995600
8,917000	0,5	7,792150
8,925333	0,5	7,070450
8,933667	0,5	6,637550
8,942000	0,5	6,370850
8,950333	0,5	6,200950
8,958667	0,5	6,068500
8,967000	0,5	5,962350
8,975333	0,5	5,878800
8,983667	0,5	5,811350
8,992000	0,5	5,767700
9,000333	0,5	5,743850
9,008667	0,5	5,737200
9,017000	0,5	5,756700
9,025333	0,5	5,820300
9,033667	0,5	5,931450
9,042000	0,5	6,083650
9,050333	0,5	6,243250
9,058667	0,5	6,374150
9,067000	0,5	6,479700
9,075333	0,5	6,591550
9,083667	0,5	6,723100
9,092000	0,5	6,876300
9,100333	0,5	7,043350
9,108667	0,5	7,083700
9,117000	0,5	7,021300
9,125333	0,5	6,944800
9,133667	0,5	6,905550
9,142000	0,5	6,936050
9,150333	0,5	7,056000
9,158667	0,5	7,297850
9,167000	0,5	7,758450
9,175333	0,5	8,608900
9,183667	0,5	10,123400
9,192000	0,5	12,841550
9,200333	0,5	16,286800
9,208667	0,5	18,634050
9,217000	0,5	18,916850
9,225333	0,5	17,868250
9,233667	0,5	17,453600
9,242000	0,5	18,085100
9,250333	0,5	19,693450
9,258667	0,5	22,047200
9,267000	0,5	24,935300
9,275333	0,5	28,086750
9,283667	0,5	31,130850
9,292000	0,5	33,662851
9,300333	0,5	35,317601
9,308667	0,5	35,866301
9,317000	0,5	35,237501
9,325333	0,5	33,511850
9,333667	0,5	30,937850
9,342000	0,5	27,854950
9,350333	0,5	24,588750
9,358667	0,5	21,452700
9,367000	0,5	18,681300
9,375333	0,5	16,415400
9,383667	0,5	14,677250
9,392000	0,5	13,421450
9,400333	0,5	12,548400
9,408667	0,5	11,928950
9,417000	0,5	11,445750
9,425333	0,5	11,015700
9,433667	0,5	10,584500
9,442000	0,5	10,161350
9,450333	0,5	9,762300
9,458667	0,5	9,415900
9,467000	0,5	9,129650
9,475333	0,5	8,907150
9,483667	0,5	8,727800
9,492000	0,5	8,581150
9,500333	0,5	8,442350
9,508667	0,5	8,300400
9,517000	0,5	8,149250
9,525333	0,5	7,975850
9,533667	0,5	7,773050
9,542000	0,5	7,535000
9,550333	0,5	7,257750
9,558667	0,5	6,961300
9,567000	0,5	6,677100
9,575333	0,5	6,410400
9,583667	0,5	6,170600
9,592000	0,5	5,959850
9,600333	0,5	5,780300
9,608667	0,5	5,627200
9,617000	0,5	5,506750
9,625333	0,5	5,404950
9,633667	0,5	5,324350
9,642000	0,5	5,265250
9,650333	0,5	5,211850
9,658667	0,5	5,169250
9,667000	0,5	5,133000
9,675333	0,5	5,108400
9,683667	0,5	5,093100
9,692000	0,5	5,082100
9,700333	0,5	5,072050
9,708667	0,5	5,068150
9,717000	0,5	5,068300
9,725333	0,5	5,066600
9,733667	0,5	5,058300
9,742000	0,5	5,039200
9,750333	0,5	5,011850
9,758667	0,5	4,968900
9,767000	0,5	4,923350
9,775333	0,5	4,875700
9,783667	0,5	4,840250
9,792000	0,5	4,832000
9,800333	0,5	4,841200
9,808667	0,5	4,877850
9,817000	0,5	4,937400
9,825333	0,5	5,014050
9,833667	0,5	5,090950
9,842000	0,5	5,149950
9,850333	0,5	5,184100
9,858667	0,5	5,202800
9,867000	0,5	5,210700
9,875333	0,5	5,219800
9,883667	0,5	5,235850
9,892000	0,5	5,260700
9,900333	0,5	5,294750
9,908667	0,5	5,330550
9,917000	0,5	5,371550
9,925333	0,5	5,408850
9,933667	0,5	5,460050
9,942000	0,5	5,509400
9,950333	0,5	5,564000
9,958667	0,5	5,619500
9,967000	0,5	5,673900
9,975333	0,5	5,723500
9,983667	0,5	5,765650
9,992000	0,5	5,785550
10,000333	0,5	5,780650
10,008667	0,5	5,751600
10,017000	0,5	5,687450
10,025333	0,5	5,599350
10,033667	0,5	5,493950
10,042000	0,5	5,380600
10,050333	0,5	5,269650
10,058667	0,5	5,156500
10,067000	0,5	5,058950
10,075333	0,5	4,965000
10,083667	0,5	4,893950
10,092000	0,5	4,840400
10,100333	0,5	4,813900
10,108667	0,5	4,818050
10,117000	0,5	4,843000
10,125333	0,5	4,887950
10,133667	0,5	4,928600
10,142000	0,5	4,954900
10,150333	0,5	4,960450
10,158667	0,5	4,946100
10,167000	0,5	4,916650
10,175333	0,5	4,881400
10,183667	0,5	4,839950
10,192000	0,5	4,811300
10,200333	0,5	4,783650
10,208667	0,5	4,757650
10,217000	0,5	4,731800
10,225333	0,5	4,704550
10,233667	0,5	4,684600
10,242000	0,5	4,659400
10,250333	0,5	4,645550
10,258667	0,5	4,633750
10,267000	0,5	4,625950
10,275333	0,5	4,630500
10,283667	0,5	4,633350
10,292000	0,5	4,635450
10,300333	0,5	4,642300
10,308667	0,5	4,645550
10,317000	0,5	4,645700
10,325333	0,5	4,646900
10,333667	0,5	4,657400
10,342000	0,5	4,673450
10,350333	0,5	4,696700
10,358667	0,5	4,730250
10,367000	0,5	4,776000
10,375333	0,5	4,834400
10,383667	0,5	4,906100
10,392000	0,5	4,977250
10,400333	0,5	5,041700
10,408667	0,5	5,089500
10,417000	0,5	5,117700
10,425333	0,5	5,124800
10,433667	0,5	5,113800
10,442000	0,5	5,085950
10,450333	0,5	5,046500
10,458667	0,5	4,995450
10,467000	0,5	4,930150
10,475333	0,5	4,852650
10,483667	0,5	4,766100
10,492000	0,5	4,684850
10,500333	0,5	4,616500
10,508667	0,5	4,561650
10,517000	0,5	4,522050
10,525333	0,5	4,513550
10,533667	0,5	4,521800
10,542000	0,5	4,534350
10,550333	0,5	4,551500
10,558667	0,5	4,563400
10,567000	0,5	4,575400
10,575333	0,5	4,592500
10,583667	0,5	4,617950
10,592000	0,5	4,649500
10,600333	0,5	4,688000
10,608667	0,5	4,722600
10,617000	0,5	4,741000
10,625333	0,5	4,728700
10,633667	0,5	4,685950
10,642000	0,5	4,621950
10,650333	0,5	4,550550
10,658667	0,5	4,469500
10,667000	0,5	4,401950
10,675333	0,5	4,346350
10,683667	0,5	4,297000
10,692000	0,5	4,253650
10,700333	0,5	4,207650
10,708667	0,5	4,171450
10,717000	0,5	4,146250
10,725333	0,5	4,137650
10,733667	0,5	4,137100
10,742000	0,5	4,147300
10,750333	0,5	4,165950
10,758667	0,5	4,193500
10,767000	0,5	4,230650
10,775333	0,5	4,282050
10,783667	0,5	4,341650
10,792000	0,5	4,404950
10,800333	0,5	4,460150
10,808667	0,5	4,478700
10,817000	0,5	4,459950
10,825333	0,5	4,406100
10,833667	0,5	4,318100
10,842000	0,5	4,224950
10,850333	0,5	4,130050
10,858667	0,5	4,051200
10,867000	0,5	3,995600
10,875333	0,5	3,948500
10,883667	0,5	3,909600
10,892000	0,5	3,876100
10,900333	0,5	3,847950
10,908667	0,5	3,829450
10,917000	0,5	3,822450
10,925333	0,5	3,827700
10,933667	0,5	3,847650
10,942000	0,5	3,888400
10,950333	0,5	3,957400
10,958667	0,5	4,032200
10,967000	0,5	4,116400
10,975333	0,5	4,176950
10,983667	0,5	4,196400
10,992000	0,5	4,168850
11,000333	0,5	4,107800
11,008667	0,5	4,037700
11,017000	0,5	3,975800
11,025333	0,5	3,926500
11,033667	0,5	3,898750
11,042000	0,5	3,867650
11,050333	0,5	3,843200
11,058667	0,5	3,813800
11,067000	0,5	3,790600
11,075333	0,5	3,762200
11,083667	0,5	3,746350
11,092000	0,5	3,750350
11,100333	0,5	3,775100
11,108667	0,5	3,808050
11,117000	0,5	3,859050
11,125333	0,5	3,891950
11,133667	0,5	3,893450
11,142000	0,5	3,855100
11,150333	0,5	3,775450
11,158667	0,5	3,691300
11,167000	0,5	3,596700
11,175333	0,5	3,518800
11,183667	0,5	3,452700
11,192000	0,5	3,408450
11,200333	0,5	3,380300
11,208667	0,5	3,362550
11,217000	0,5	3,347700
11,225333	0,5	3,342050
11,233667	0,5	3,330350
11,242000	0,5	3,317300
11,250333	0,5	3,296750
11,258667	0,5	3,260000
11,267000	0,5	3,219150
11,275333	0,5	3,160650
11,283667	0,5	3,093400
11,292000	0,5	3,025800
11,300333	0,5	2,969700
11,308667	0,5	2,939500
11,317000	0,5	2,932700
11,325333	0,5	2,940150
11,333667	0,5	2,959550
11,342000	0,5	2,987350
11,350333	0,5	3,022750
11,358667	0,5	3,060750
11,367000	0,5	3,100550
11,375333	0,5	3,142150
11,383667	0,5	3,183900
11,392000	0,5	3,223250
11,400333	0,5	3,248000
11,408667	0,5	3,252000
11,417000	0,5	3,256350
11,425333	0,5	3,231500
11,433667	0,5	3,204050
11,442000	0,5	3,170100
11,450333	0,5	3,133850
11,458667	0,5	3,109550
11,467000	0,5	3,086000
11,475333	0,5	3,067900
11,483667	0,5	3,058200
11,492000	0,5	3,045550
11,500333	0,5	3,035550
11,508667	0,5	3,033600
11,517000	0,5	3,022950
11,525333	0,5	3,006700
11,533667	0,5	2,986900
11,542000	0,5	2,968150
11,550333	0,5	2,940150
11,558667	0,5	2,923900
11,567000	0,5	2,916750
11,575333	0,5	2,907950
11,583667	0,5	2,908800
11,592000	0,5	2,917300
11,600333	0,5	2,939750
11,608667	0,5	2,971250
11,617000	0,5	3,008050
11,625333	0,5	3,049850
11,633667	0,5	3,093050
11,642000	0,5	3,137400
11,650333	0,5	3,180700
11,658667	0,5	3,224550
11,667000	0,5	3,271950
11,675333	0,5	3,315050
11,683667	0,5	3,353750
11,692000	0,5	3,373950
11,700333	0,5	3,377150
11,708667	0,5	3,375250
11,717000	0,5	3,366950
11,725333	0,5	3,357950
11,733667	0,5	3,355150
11,742000	0,5	3,361100
11,750333	0,5	3,386700
11,758667	0,5	3,420750
11,767000	0,5	3,465250
11,775333	0,5	3,502700
11,783667	0,5	3,548950
11,792000	0,5	3,579200
11,800333	0,5	3,616400
11,808667	0,5	3,650200
11,817000	0,5	3,688950
11,825333	0,5	3,750900
11,833667	0,5	3,848150
11,842000	0,5	3,999750
11,850333	0,5	4,231000
11,858667	0,5	4,550400
11,867000	0,5	4,930950
11,875333	0,5	5,335100
11,883667	0,5	5,696900
11,892000	0,5	5,968400
11,900333	0,5	6,100350
11,908667	0,5	6,083300
11,917000	0,5	5,929800
11,925333	0,5	5,688500
11,933667	0,5	5,384700
11,942000	0,5	5,077050
11,950333	0,5	4,787750
11,958667	0,5	4,539150
11,967000	0,5	4,345000
11,975333	0,5	4,205950
11,983667	0,5	4,124400
11,992000	0,5	4,079400
12,000333	0,5	4,090150
12,008667	0,5	4,137950
12,017000	0,5	4,218050
12,025333	0,5	4,322850
12,033667	0,5	4,443300
12,042000	0,5	4,578150
12,050333	0,5	4,699900
12,058667	0,5	4,795050
12,067000	0,5	4,862050
12,075333	0,5	4,901100
12,083667	0,5	4,930550
12,092000	0,5	4,939650
12,100333	0,5	4,955800
12,108667	0,5	4,969850
12,117000	0,5	4,985350
12,125333	0,5	5,014600
12,133667	0,5	5,048300
12,142000	0,5	5,077150
12,150333	0,5	5,134900
12,158667	0,5	5,197600
12,167000	0,5	5,271250
12,175333	0,5	5,348850
12,183667	0,5	5,413200
12,192000	0,5	5,476100
12,200333	0,5	5,506450
12,208667	0,5	5,496250
12,217000	0,5	5,437900
12,225333	0,5	5,344000
12,233667	0,5	5,219550
12,242000	0,5	5,095200
12,250333	0,5	4,976550
12,258667	0,5	4,877500
12,267000	0,5	4,806900
12,275333	0,5	4,767850
12,283667	0,5	4,744350
12,292000	0,5	4,728400
12,300333	0,5	4,726000
12,308667	0,5	4,714000
12,317000	0,5	4,683900
12,325333	0,5	4,642550
12,333667	0,5	4,583250
12,342000	0,5	4,524500
12,350333	0,5	4,455050
12,358667	0,5	4,373600
12,367000	0,5	4,306300
12,375333	0,5	4,240550
12,383667	0,5	4,182300
12,392000	0,5	4,129400
12,400333	0,5	4,088250
12,408667	0,5	4,044900
12,417000	0,5	4,011800
12,425333	0,5	3,974650
12,433667	0,5	3,947850
12,442000	0,5	3,925650
12,450333	0,5	3,920250
12,458667	0,5	3,915500
12,467000	0,5	3,917850
12,475333	0,5	3,916200
12,483667	0,5	3,910950
12,492000	0,5	3,911150
12,500333	0,5	3,926500
12,508667	0,5	3,932750
12,517000	0,5	3,952950
12,525333	0,5	3,979000
12,533667	0,5	4,015400
12,542000	0,5	4,069250
12,550333	0,5	4,140250
12,558667	0,5	4,215150
12,567000	0,5	4,299000
12,575333	0,5	4,370850
12,583667	0,5	4,430600
12,592000	0,5	4,484350
12,600333	0,5	4,516950
12,608667	0,5	4,529050
12,617000	0,5	4,530400
12,625333	0,5	4,523550
12,633667	0,5	4,511400
12,642000	0,5	4,504550
12,650333	0,5	4,488200
12,658667	0,5	4,466600
12,667000	0,5	4,438350
12,675333	0,5	4,396450
12,683667	0,5	4,344350
12,692000	0,5	4,289000
12,700333	0,5	4,227800
12,708667	0,5	4,164900
12,717000	0,5	4,093850
12,725333	0,5	4,002300
12,733667	0,5	3,906150
12,742000	0,5	3,816300
12,750333	0,5	3,737750
12,758667	0,5	3,682700
12,767000	0,5	3,668600
12,775333	0,5	3,703000
12,783667	0,5	3,790700
12,792000	0,5	3,911400
12,800333	0,5	4,047600
12,808667	0,5	4,141850
12,817000	0,5	4,161500
12,825333	0,5	4,132550
12,833667	0,5	4,145750
12,842000	0,5	4,395550
12,850333	0,5	4,967150
12,858667	0,5	5,403000
12,867000	0,5	5,756650
12,875333	0,5	5,836750
12,883667	0,5	5,337000
12,892000	0,5	4,785250
12,900333	0,5	4,392000
12,908667	0,5	3,810200
12,917000	0,5	3,048350
12,925333	0,5	2,487450
12,933667	0,5	2,120150
12,942000	0,5	1,864750
12,950333	0,5	1,665000
12,958667	0,5	1,518400
12,967000	0,5	1,399350
12,975333	0,5	1,301100
12,983667	0,5	1,216350
12,992000	0,5	1,148700
13,000333	0,5	1,088100
13,008667	0,5	1,045400
13,017000	0,5	1,015300
13,025333	0,5	0,979100
13,033667	0,5	0,966700
13,042000	0,5	0,953450
13,050333	0,5	0,937700
13,058667	0,5	0,922600
13,067000	0,5	0,901450
13,075333	0,5	0,892700
13,083667	0,5	0,886250
13,092000	0,5	0,875650
13,100333	0,5	0,858550
13,108667	0,5	0,845950
13,117000	0,5	0,834000
13,125333	0,5	0,815600
13,133667	0,5	0,802550
13,142000	0,5	0,780850
13,150333	0,5	0,759950
13,158667	0,5	0,743450
13,167000	0,5	0,728750
13,175333	0,5	0,703250
13,183667	0,5	0,698700
13,192000	0,5	0,685600
13,200333	0,5	0,670800
13,208667	0,5	0,652300
13,217000	0,5	0,639550
13,225333	0,5	0,640800
13,233667	0,5	0,636300
13,242000	0,5	0,632600
13,250333	0,5	0,626250
13,258667	0,5	0,622400
13,267000	0,5	0,613600
13,275333	0,5	0,607950
13,283667	0,5	0,597000
13,292000	0,5	0,588150
13,300333	0,5	0,570850
13,308667	0,5	0,567150
13,317000	0,5	0,553450
13,325333	0,5	0,540200
13,333667	0,5	0,539800
13,342000	0,5	0,528050
13,350333	0,5	0,515150
13,358667	0,5	0,507450
13,367000	0,5	0,490650
13,375333	0,5	0,492550
13,383667	0,5	0,486150
13,392000	0,5	0,485600
13,400333	0,5	0,482900
13,408667	0,5	0,480750
13,417000	0,5	0,480000
13,425333	0,5	0,481350
13,433667	0,5	0,483100
13,442000	0,5	0,481800
13,450333	0,5	0,486550
13,458667	0,5	0,491850
13,467000	0,5	0,487250
13,475333	0,5	0,492250
13,483667	0,5	0,499750
13,492000	0,5	0,493850
13,500333	0,5	0,492400
13,508667	0,5	0,482300
13,517000	0,5	0,477600
13,525333	0,5	0,477250
13,533667	0,5	0,475800
13,542000	0,5	0,467750
13,550333	0,5	0,466400
13,558667	0,5	0,459100
13,567000	0,5	0,458300
13,575333	0,5	0,450700
13,583667	0,5	0,443500
13,592000	0,5	0,438600
13,600333	0,5	0,431550
13,608667	0,5	0,428650
13,617000	0,5	0,418800
13,625333	0,5	0,422650
13,633667	0,5	0,418800
13,642000	0,5	0,417300
13,650333	0,5	0,407950
13,658667	0,5	0,399350
13,667000	0,5	0,395500
13,675333	0,5	0,398050
13,683667	0,5	0,396700
13,692000	0,5	0,399750
13,700333	0,5	0,397300
13,708667	0,5	0,401500
13,717000	0,5	0,397300
13,725333	0,5	0,397100
13,733667	0,5	0,397250
13,742000	0,5	0,394300
13,750333	0,5	0,393800
13,758667	0,5	0,389700
13,767000	0,5	0,383050
13,775333	0,5	0,386750
13,783667	0,5	0,384900
13,792000	0,5	0,381300
13,800333	0,5	0,374550
13,808667	0,5	0,370750
13,817000	0,5	0,379350
13,825333	0,5	0,378500
13,833667	0,5	0,387950
13,842000	0,5	0,389050
13,850333	0,5	0,397000
13,858667	0,5	0,400500
13,867000	0,5	0,408900
13,875333	0,5	0,415250
13,883667	0,5	0,419100
13,892000	0,5	0,423850
13,900333	0,5	0,432400
13,908667	0,5	0,424000
13,917000	0,5	0,432350
13,925333	0,5	0,438250
13,933667	0,5	0,445350
13,942000	0,5	0,448900
13,950333	0,5	0,445500
13,958667	0,5	0,450100
13,967000	0,5	0,459250
13,975333	0,5	0,465850
13,983667	0,5	0,463450
13,992000	0,5	0,467500
14,000333	0,5	0,467100
14,008667	0,5	0,470800
14,017000	0,5	0,468150
14,025333	0,5	0,468250
14,033667	0,5	0,466650
14,042000	0,5	0,472850
14,050333	0,5	0,474200
14,058667	0,5	0,462850
14,067000	0,5	0,467400
14,075333	0,5	0,466050
14,083667	0,5	0,459500
14,092000	0,5	0,449050
14,100333	0,5	0,431650
14,108667	0,5	0,433450
14,117000	0,5	0,439300
14,125333	0,5	0,436950
14,133667	0,5	0,438250
14,142000	0,5	0,438000
14,150333	0,5	0,434850
14,158667	0,5	0,439950
14,167000	0,5	0,448400
14,175333	0,5	0,449900
14,183667	0,5	0,453400
14,192000	0,5	0,456250
14,200333	0,5	0,468650
14,208667	0,5	0,457500
14,217000	0,5	0,480850
14,225333	0,5	0,481500
14,233667	0,5	0,488950
14,242000	0,5	0,484400
14,250333	0,5	0,479600
14,258667	0,5	0,493800
14,267000	0,5	0,500400
14,275333	0,5	0,506700
14,283667	0,5	0,511750
14,292000	0,5	0,525100
14,300333	0,5	0,531600
14,308667	0,5	0,540100
14,317000	0,5	0,546500
14,325333	0,5	0,553450
14,333667	0,5	0,560750
14,342000	0,5	0,575350
14,350333	0,5	0,578050
14,358667	0,5	0,585550
14,367000	0,5	0,602500
14,375333	0,5	0,612700
14,383667	0,5	0,614050
14,392000	0,5	0,617500
14,400333	0,5	0,621950
14,408667	0,5	0,641850
14,417000	0,5	0,652600
14,425333	0,5	0,668150
14,433667	0,5	0,678400
14,442000	0,5	0,695800
14,450333	0,5	0,714100
14,458667	0,5	0,733650
14,467000	0,5	0,756800
14,475333	0,5	0,772800
14,483667	0,5	0,811700
14,492000	0,5	0,837950
14,500333	0,5	0,862000
14,508667	0,5	0,892300
14,517000	0,5	0,928000
14,525333	0,5	0,947600
14,533667	0,5	0,959500
14,542000	0,5	0,966200
14,550333	0,5	0,975000
14,558667	0,5	0,986950
14,567000	0,5	0,999350
14,575333	0,5	1,003900
14,583667	0,5	1,024650
14,592000	0,5	1,034400
14,600333	0,5	1,057750
14,608667	0,5	1,081150
14,617000	0,5	1,111400
14,625333	0,5	1,139700
14,633667	0,5	1,177600
14,642000	0,5	1,205450
14,650333	0,5	1,228750
14,658667	0,5	1,266400
14,667000	0,5	1,297450
14,675333	0,5	1,325900
14,683667	0,5	1,347900
14,692000	0,5	1,377250
14,700333	0,5	1,412350
14,708667	0,5	1,448500
14,717000	0,5	1,472600
14,725333	0,5	1,502600
14,733667	0,5	1,537200
14,742000	0,5	1,570150
14,750333	0,5	1,610600
14,758667	0,5	1,657650
14,767000	0,5	1,702350
14,775333	0,5	1,747000
14,783667	0,5	1,786550
14,792000	0,5	1,798350
14,800333	0,5	1,799450
14,808667	0,5	1,793850
14,817000	0,5	1,760750
14,825333	0,5	1,729500
14,833667	0,5	1,690800
14,842000	0,5	1,662700
14,850333	0,5	1,652600
14,858667	0,5	1,645700
14,867000	0,5	1,644850
14,875333	0,5	1,650300
14,883667	0,5	1,664400
14,892000	0,5	1,663800
14,900333	0,5	1,661650
14,908667	0,5	1,637300
14,917000	0,5	1,610400
14,925333	0,5	1,586050
14,933667	0,5	1,562700
14,942000	0,5	1,521750
14,950333	0,5	1,517650
14,958667	0,5	1,511650
14,967000	0,5	1,502900
14,975333	0,5	1,494150
14,983667	0,5	1,475550
14,992000	0,5	1,476500
15,000333	0,5	1,475350
15,008667	0,5	1,472550
15,017000	0,5	1,465800
15,025333	0,5	1,462150
15,033667	0,5	1,457150
15,042000	0,5	1,456350
15,050333	0,5	1,450150
15,058667	0,5	1,443900
15,067000	0,5	1,437100
15,075333	0,5	1,438000
15,083667	0,5	1,434600
15,092000	0,5	1,418700
15,100333	0,5	1,423200
15,108667	0,5	1,419600
15,117000	0,5	1,413350
15,125333	0,5	1,405250
15,133667	0,5	1,376300
15,142000	0,5	1,382150
15,150333	0,5	1,376050
15,158667	0,5	1,365250
15,167000	0,5	1,356500
15,175333	0,5	1,345450
15,183667	0,5	1,336100
15,192000	0,5	1,328850
15,200333	0,5	1,320600
15,208667	0,5	1,309400
15,217000	0,5	1,303650
15,225333	0,5	1,298550
15,233667	0,5	1,291700
15,242000	0,5	1,273300
15,250333	0,5	1,280100
15,258667	0,5	1,267000
15,267000	0,5	1,259850
15,275333	0,5	1,238650
15,283667	0,5	1,224800
15,292000	0,5	1,222850
15,300333	0,5	1,221700
15,308667	0,5	1,210000
15,317000	0,5	1,210600
15,325333	0,5	1,205450
15,333667	0,5	1,203600
15,342000	0,5	1,202050
15,350333	0,5	1,200300
15,358667	0,5	1,198200
15,367000	0,5	1,196950
15,375333	0,5	1,202950
15,383667	0,5	1,196250
15,392000	0,5	1,196500
15,400333	0,5	1,200100
15,408667	0,5	1,197000
15,417000	0,5	1,182050
15,425333	0,5	1,176750
15,433667	0,5	1,166650
15,442000	0,5	1,174050
15,450333	0,5	1,165700
15,458667	0,5	1,165050
15,467000	0,5	1,152400
15,475333	0,5	1,142200
15,483667	0,5	1,127250
15,492000	0,5	1,122600
15,500333	0,5	1,114650
15,508667	0,5	1,109250
15,517000	0,5	1,113800
15,525333	0,5	1,108650
15,533667	0,5	1,100450
15,542000	0,5	1,110500
15,550333	0,5	1,114950
15,558667	0,5	1,114950
15,567000	0,5	1,108250
15,575333	0,5	1,087000
15,583667	0,5	1,083000
15,592000	0,5	1,068400
15,600333	0,5	1,060550
15,608667	0,5	1,050050
15,617000	0,5	1,044400
15,625333	0,5	1,032100
15,633667	0,5	1,031800
15,642000	0,5	1,024500
15,650333	0,5	1,020600
15,658667	0,5	1,018250
15,667000	0,5	1,015900
15,675333	0,5	0,997250
15,683667	0,5	0,994550
15,692000	0,5	0,997150
15,700333	0,5	0,993850
15,708667	0,5	0,989300
15,717000	0,5	0,968250
15,725333	0,5	0,962650
15,733667	0,5	0,961450
15,742000	0,5	0,966700
15,750333	0,5	0,961800
15,758667	0,5	0,958200
15,767000	0,5	0,954250
15,775333	0,5	0,953650
15,783667	0,5	0,949650
15,792000	0,5	0,950950
15,800333	0,5	0,938650
15,808667	0,5	0,942500
15,817000	0,5	0,941900
15,825333	0,5	0,925050
15,833667	0,5	0,929600
15,842000	0,5	0,931800
15,850333	0,5	0,924650
15,858667	0,5	0,921000
15,867000	0,5	0,899550
15,875333	0,5	0,898800
15,883667	0,5	0,899850
15,892000	0,5	0,886600
15,900333	0,5	0,884550
15,908667	0,5	0,873150
15,917000	0,5	0,869000
15,925333	0,5	0,858150
15,933667	0,5	0,863050
15,942000	0,5	0,856100
15,950333	0,5	0,855400
15,958667	0,5	0,858150
15,967000	0,5	0,859650
15,975333	0,5	0,837750
15,983667	0,5	0,853200
15,992000	0,5	0,848500
16,000333	0,5	0,845900
16,008667	0,5	0,834450
16,017000	0,5	0,816950
16,025333	0,5	0,824150
16,033667	0,5	0,814950
16,042000	0,5	0,807900
16,050333	0,5	0,798250
16,058667	0,5	0,793450
16,067000	0,5	0,791350
16,075333	0,5	0,789350
16,083667	0,5	0,786000
16,092000	0,5	0,785200
16,100333	0,5	0,779550
16,108667	0,5	0,785400
16,117000	0,5	0,776450
16,125333	0,5	0,765950
16,133667	0,5	0,768750
16,142000	0,5	0,767450
16,150333	0,5	0,752850
16,158667	0,5	0,739300
16,167000	0,5	0,720100
16,175333	0,5	0,723450
16,183667	0,5	0,721200
16,192000	0,5	0,716450
16,200333	0,5	0,704650
16,208667	0,5	0,701450
16,217000	0,5	0,691800
16,225333	0,5	0,681800
16,233667	0,5	0,679100
16,242000	0,5	0,664950
16,250333	0,5	0,664750
16,258667	0,5	0,659100
16,267000	0,5	0,642600
16,275333	0,5	0,635400
16,283667	0,5	0,637350
16,292000	0,5	0,625950
16,300333	0,5	0,618450
16,308667	0,5	0,598450
16,317000	0,5	0,599900
16,325333	0,5	0,597350
16,333667	0,5	0,602550
16,342000	0,5	0,594300
16,350333	0,5	0,600550
16,358667	0,5	0,603250
16,367000	0,5	0,605900
16,375333	0,5	0,609050
16,383667	0,5	0,610500
16,392000	0,5	0,616150
16,400333	0,5	0,616900
16,408667	0,5	0,617400
16,417000	0,5	0,609050
16,425333	0,5	0,615350
16,433667	0,5	0,611650
16,442000	0,5	0,601700
16,450333	0,5	0,581600
16,458667	0,5	0,562000
16,467000	0,5	0,552150
16,475333	0,5	0,548300
16,483667	0,5	0,533900
16,492000	0,5	0,528700
16,500333	0,5	0,512750
16,508667	0,5	0,508000
16,517000	0,5	0,496800
16,525333	0,5	0,493300
16,533667	0,5	0,484300
16,542000	0,5	0,484050
16,550333	0,5	0,487000
16,558667	0,5	0,480050
16,567000	0,5	0,466350
16,575333	0,5	0,472250
16,583667	0,5	0,466800
16,592000	0,5	0,459600
16,600333	0,5	0,445600
16,608667	0,5	0,431950
16,617000	0,5	0,439050
16,625333	0,5	0,435800
16,633667	0,5	0,438700
16,642000	0,5	0,435150
16,650333	0,5	0,441250
16,658667	0,5	0,438800
16,667000	0,5	0,443400
16,675333	0,5	0,442650
16,683667	0,5	0,439300
16,692000	0,5	0,440400
16,700333	0,5	0,438850
16,708667	0,5	0,416250
16,717000	0,5	0,419000
16,725333	0,5	0,416000
16,733667	0,5	0,406900
16,742000	0,5	0,394700
16,750333	0,5	0,367050
16,758667	0,5	0,360800
16,767000	0,5	0,352050
16,775333	0,5	0,345050
16,783667	0,5	0,334050
16,792000	0,5	0,335850
16,800333	0,5	0,326550
16,808667	0,5	0,323050
16,817000	0,5	0,312550
16,825333	0,5	0,311100
16,833667	0,5	0,301200
16,842000	0,5	0,304850
16,850333	0,5	0,301200
16,858667	0,5	0,289750
16,867000	0,5	0,295150
16,875333	0,5	0,299100
16,883667	0,5	0,290300
16,892000	0,5	0,289050
16,900333	0,5	0,273650
16,908667	0,5	0,281350
16,917000	0,5	0,285500
16,925333	0,5	0,290600
16,933667	0,5	0,289800
16,942000	0,5	0,295900
16,950333	0,5	0,299050
16,958667	0,5	0,294150
16,967000	0,5	0,293200
16,975333	0,5	0,290950
16,983667	0,5	0,285800
16,992000	0,5	0,280000
17,000333	0,5	0,272450
17,008667	0,5	0,254950
17,017000	0,5	0,262750
17,025333	0,5	0,256650
17,033667	0,5	0,241650
17,042000	0,5	0,226250
17,050333	0,5	0,206350
17,058667	0,5	0,209250
17,067000	0,5	0,196950
17,075333	0,5	0,191800
17,083667	0,5	0,183050
17,092000	0,5	0,181750
17,100333	0,5	0,181900
17,108667	0,5	0,180250
17,117000	0,5	0,179900
17,125333	0,5	0,179200
17,133667	0,5	0,180000
17,142000	0,5	0,194600
17,150333	0,5	0,177700
17,158667	0,5	0,185850
17,167000	0,5	0,184700
17,175333	0,5	0,177250
17,183667	0,5	0,160950
17,192000	0,5	0,141700
17,200333	0,5	0,131950
17,208667	0,5	0,133700
17,217000	0,5	0,126250
17,225333	0,5	0,132450
17,233667	0,5	0,146050
17,242000	0,5	0,167200
17,250333	0,5	0,198450
17,258667	0,5	0,242150
17,267000	0,5	0,298650
17,275333	0,5	0,348350
17,283667	0,5	0,405250
17,292000	0,5	0,431350
17,300333	0,5	0,415100
17,308667	0,5	0,400150
17,317000	0,5	0,354700
17,325333	0,5	0,300350
17,333667	0,5	0,235550
17,342000	0,5	0,168400
17,350333	0,5	0,136250
17,358667	0,5	0,106850
17,367000	0,5	0,089150
17,375333	0,5	0,074200
17,383667	0,5	0,073550
17,392000	0,5	0,067550
17,400333	0,5	0,071500
17,408667	0,5	0,066950
17,417000	0,5	0,067400
17,425333	0,5	0,072900
17,433667	0,5	0,082750
17,442000	0,5	0,085250
17,450333	0,5	0,087500
17,458667	0,5	0,110400
17,467000	0,5	0,117350
17,475333	0,5	0,130300
17,483667	0,5	0,125150
17,492000	0,5	0,122550
17,500333	0,5	0,129700
17,508667	0,5	0,142950
17,517000	0,5	0,140750
17,525333	0,5	0,151750
17,533667	0,5	0,157700
17,542000	0,5	0,176250
17,550333	0,5	0,194600
17,558667	0,5	0,216500
17,567000	0,5	0,232400
17,575333	0,5	0,253000
17,583667	0,5	0,269650
17,592000	0,5	0,270800
17,600333	0,5	0,284200
17,608667	0,5	0,295650
17,617000	0,5	0,290250
17,625333	0,5	0,283650
17,633667	0,5	0,265300
17,642000	0,5	0,250050
17,650333	0,5	0,250950
17,658667	0,5	0,238150
17,667000	0,5	0,234350
17,675333	0,5	0,223300
17,683667	0,5	0,225900
17,692000	0,5	0,220250
17,700333	0,5	0,228800
17,708667	0,5	0,231900
17,717000	0,5	0,242700
17,725333	0,5	0,258650
17,733667	0,5	0,268800
17,742000	0,5	0,260100
17,750333	0,5	0,276450
17,758667	0,5	0,277350
17,767000	0,5	0,270900
17,775333	0,5	0,254900
17,783667	0,5	0,231300
17,792000	0,5	0,237400
17,800333	0,5	0,232350
17,808667	0,5	0,233700
17,817000	0,5	0,231950
17,825333	0,5	0,246500
17,833667	0,5	0,251350
17,842000	0,5	0,274050
17,850333	0,5	0,291200
17,858667	0,5	0,330950
17,867000	0,5	0,389350
17,875333	0,5	0,495800
17,883667	0,5	0,629900
17,892000	0,5	0,828100
17,900333	0,5	1,073900
17,908667	0,5	1,334950
17,917000	0,5	1,563450
17,925333	0,5	1,717350
17,933667	0,5	1,762150
17,942000	0,5	1,705650
17,950333	0,5	1,530150
17,958667	0,5	1,287300
17,967000	0,5	1,022900
17,975333	0,5	0,769900
17,983667	0,5	0,562800
17,992000	0,5	0,399100
18,000333	0,5	0,287600
18,008667	0,5	0,198600
18,017000	0,5	0,141600
18,025333	0,5	0,107900
18,033667	0,5	0,062500
18,042000	0,5	0,044050
18,050333	0,5	0,032550
18,058667	0,5	0,010750
18,067000	0,5	-0,004400
18,075333	0,5	-0,033600
18,083667	0,5	-0,040700
18,092000	0,5	-0,044750
18,100333	0,5	-0,053650
18,108667	0,5	-0,062400
18,117000	0,5	-0,068800
18,125333	0,5	-0,067200
18,133667	0,5	-0,073450
18,142000	0,5	-0,071800
18,150333	0,5	-0,081300
18,158667	0,5	-0,077750
18,167000	0,5	-0,075950
18,175333	0,5	-0,068300
18,183667	0,5	-0,090350
18,192000	0,5	-0,082500
18,200333	0,5	-0,097050
18,208667	0,5	-0,111150
18,217000	0,5	-0,137950
18,225333	0,5	-0,168600
18,233667	0,5	-0,176850
18,242000	0,5	-0,186450
18,250333	0,5	-0,203550
18,258667	0,5	-0,211850
18,267000	0,5	-0,222150
18,275333	0,5	-0,230850
18,283667	0,5	-0,235800
18,292000	0,5	-0,248250
18,300333	0,5	-0,252150
18,308667	0,5	-0,259950
18,317000	0,5	-0,254800
18,325333	0,5	-0,269900
18,333667	0,5	-0,280850
18,342000	0,5	-0,285250
18,350333	0,5	-0,290300
18,358667	0,5	-0,310950
18,367000	0,5	-0,325500
18,375333	0,5	-0,347750
18,383667	0,5	-0,343950
18,392000	0,5	-0,357650
18,400333	0,5	-0,366100
18,408667	0,5	-0,372400
18,417000	0,5	-0,382450
18,425333	0,5	-0,388450
18,433667	0,5	-0,398850
18,442000	0,5	-0,405200
18,450333	0,5	-0,416900
18,458667	0,5	-0,415200
18,467000	0,5	-0,423400
18,475333	0,5	-0,437800
18,483667	0,5	-0,444900
18,492000	0,5	-0,441550
18,500333	0,5	-0,454150
18,508667	0,5	-0,462950
18,517000	0,5	-0,491550
18,525333	0,5	-0,496500
18,533667	0,5	-0,506450
18,542000	0,5	-0,504700
18,550333	0,5	-0,514600
18,558667	0,5	-0,513250
18,567000	0,5	-0,518050
18,575333	0,5	-0,519650
18,583667	0,5	-0,529900
18,592000	0,5	-0,535100
18,600333	0,5	-0,540550
18,608667	0,5	-0,540600
18,617000	0,5	-0,545200
18,625333	0,5	-0,561400
18,633667	0,5	-0,562600
18,642000	0,5	-0,567000
18,650333	0,5	-0,572750
18,658667	0,5	-0,595400
18,667000	0,5	-0,608200
18,675333	0,5	-0,615850
18,683667	0,5	-0,613850
18,692000	0,5	-0,622200
18,700333	0,5	-0,620700
18,708667	0,5	-0,630650
18,717000	0,5	-0,629000
18,725333	0,5	-0,640250
18,733667	0,5	-0,641300
18,742000	0,5	-0,646050
18,750333	0,5	-0,650100
18,758667	0,5	-0,645450
18,767000	0,5	-0,663200
18,775333	0,5	-0,666850
18,783667	0,5	-0,662550
18,792000	0,5	-0,660900
18,800333	0,5	-0,670800
18,808667	0,5	-0,686800
18,817000	0,5	-0,693650
18,825333	0,5	-0,687850
18,833667	0,5	-0,688450
18,842000	0,5	-0,679750
18,850333	0,5	-0,676700
18,858667	0,5	-0,665850
18,867000	0,5	-0,661550
18,875333	0,5	-0,642850
18,883667	0,5	-0,633050
18,892000	0,5	-0,617700
18,900333	0,5	-0,597050
18,908667	0,5	-0,575500
18,917000	0,5	-0,582000
18,925333	0,5	-0,547750
18,933667	0,5	-0,531200
18,942000	0,5	-0,521950
18,950333	0,5	-0,509900
18,958667	0,5	-0,518050
18,967000	0,5	-0,493100
18,975333	0,5	-0,485700
18,983667	0,5	-0,469950
18,992000	0,5	-0,464750
19,000333	0,5	-0,452750
19,008667	0,5	-0,451000
19,017000	0,5	-0,448950
19,025333	0,5	-0,448350
19,033667	0,5	-0,448350
19,042000	0,5	-0,446000
19,050333	0,5	-0,450050
19,058667	0,5	-0,463600
19,067000	0,5	-0,488050
19,075333	0,5	-0,483600
19,083667	0,5	-0,497250
19,092000	0,5	-0,520200
19,100333	0,5	-0,541300
19,108667	0,5	-0,574150
19,117000	0,5	-0,580000
19,125333	0,5	-0,593200
19,133667	0,5	-0,613200
19,142000	0,5	-0,627200
19,150333	0,5	-0,643700
19,158667	0,5	-0,656150
19,167000	0,5	-0,670500
19,175333	0,5	-0,684900
19,183667	0,5	-0,703200
19,192000	0,5	-0,723650
19,200333	0,5	-0,742250
19,208667	0,5	-0,752300
19,217000	0,5	-0,766500
19,225333	0,5	-0,770200
19,233667	0,5	-0,784900
19,242000	0,5	-0,798800
19,250333	0,5	-0,822400
19,258667	0,5	-0,842250
19,267000	0,5	-0,839600
19,275333	0,5	-0,843750
19,283667	0,5	-0,848150
19,292000	0,5	-0,852050
19,300333	0,5	-0,853450
19,308667	0,5	-0,860000
19,317000	0,5	-0,853300
19,325333	0,5	-0,862950
19,333667	0,5	-0,860250
19,342000	0,5	-0,857150
19,350333	0,5	-0,846150
19,358667	0,5	-0,852050
19,367000	0,5	-0,823000
19,375333	0,5	-0,799850
19,383667	0,5	-0,783300
19,392000	0,5	-0,775750
19,400333	0,5	-0,778150
19,408667	0,5	-0,764100
19,417000	0,5	-0,769200
19,425333	0,5	-0,780000
19,433667	0,5	-0,803350
19,442000	0,5	-0,828850
19,450333	0,5	-0,861700
19,458667	0,5	-0,883550
19,467000	0,5	-0,907000
19,475333	0,5	-0,922400
19,483667	0,5	-0,937800
19,492000	0,5	-0,930950
19,500333	0,5	-0,941250
19,508667	0,5	-0,945800
19,517000	0,5	-0,935300
19,525333	0,5	-0,928750
19,533667	0,5	-0,930750
19,542000	0,5	-0,947550
19,550333	0,5	-0,959800
19,558667	0,5	-0,969200
19,567000	0,5	-0,976400
19,575333	0,5	-0,987950
19,583667	0,5	-1,013250
19,592000	0,5	-1,026450
19,600333	0,5	-1,043450
19,608667	0,5	-1,059600
19,617000	0,5	-1,072850
19,625333	0,5	-1,089450
19,633667	0,5	-1,086500
19,642000	0,5	-1,084700
19,650333	0,5	-1,093700
19,658667	0,5	-1,086400
19,667000	0,5	-1,070050
19,675333	0,5	-1,072850
19,683667	0,5	-1,065650
19,692000	0,5	-1,077900
19,700333	0,5	-1,072150
19,708667	0,5	-1,066100
19,717000	0,5	-1,058450
19,725333	0,5	-1,053550
19,733667	0,5	-1,037600
19,742000	0,5	-1,026900
19,750333	0,5	-1,014450
19,758667	0,5	-1,007550
19,767000	0,5	-1,021350
19,775333	0,5	-1,046100
19,783667	0,5	-1,071850
19,792000	0,5	-1,106850
19,800333	0,5	-1,164650
19,808667	0,5	-1,178200
19,817000	0,5	-1,197150
19,825333	0,5	-1,217950
19,833667	0,5	-1,243000
19,842000	0,5	-1,263700
19,850333	0,5	-1,256800
19,858667	0,5	-1,258400
19,867000	0,5	-1,265100
19,875333	0,5	-1,267050
19,883667	0,5	-1,271400
19,892000	0,5	-1,267000
19,900333	0,5	-1,267250
19,908667	0,5	-1,268150
19,917000	0,5	-1,267400
19,925333	0,5	-1,260600
19,933667	0,5	-1,235400
19,942000	0,5	-1,236850
19,950333	0,5	-1,223350
19,958667	0,5	-1,206550
19,967000	0,5	-1,200250
19,975333	0,5	-1,214000
19,983667	0,5	-1,247600
19,992000	0,5	-1,280500
20,000333	0,5	-1,296400
20,008667	0,5	-1,324850
20,017000	0,5	-1,341400
20,025333	0,5	-1,359700
20,033667	0,5	-1,364550
20,042000	0,5	-1,377150
20,050333	0,5	-1,376500
20,058667	0,5	-1,385400
20,067000	0,5	-1,391300
20,075333	0,5	-1,383750
20,083667	0,5	-1,380250
20,092000	0,5	-1,400600
20,100333	0,5	-1,395650
20,108667	0,5	-1,400100
20,117000	0,5	-1,406950
20,125333	0,5	-1,412600
20,133667	0,5	-1,435750
20,142000	0,5	-1,426750
20,150333	0,5	-1,423000
20,158667	0,5	-1,411450
20,167000	0,5	-1,410650
20,175333	0,5	-1,388600
20,183667	0,5	-1,372850
20,192000	0,5	-1,355500
20,200333	0,5	-1,334300
20,208667	0,5	-1,317150
20,217000	0,5	-1,295350
20,225333	0,5	-1,276750
20,233667	0,5	-1,276150
20,242000	0,5	-1,306250
20,250333	0,5	-1,330300
20,258667	0,5	-1,371950
20,267000	0,5	-1,406700
20,275333	0,5	-1,446250
20,283667	0,5	-1,477300
20,292000	0,5	-1,479950
20,300333	0,5	-1,472250
20,308667	0,5	-1,470400
20,317000	0,5	-1,457550
20,325333	0,5	-1,451150
20,333667	0,5	-1,431850
20,342000	0,5	-1,423250
20,350333	0,5	-1,407350
20,358667	0,5	-1,389900
20,367000	0,5	-1,364050
20,375333	0,5	-1,336150
20,383667	0,5	-1,332250
20,392000	0,5	-1,327300
20,400333	0,5	-1,330300
20,408667	0,5	-1,353700
20,417000	0,5	-1,390150
20,425333	0,5	-1,436550
20,433667	0,5	-1,471550
20,442000	0,5	-1,481550
20,450333	0,5	-1,496550
20,458667	0,5	-1,503200
20,467000	0,5	-1,508900
20,475333	0,5	-1,504200
20,483667	0,5	-1,503200
20,492000	0,5	-1,493400
20,500333	0,5	-1,489150
20,508667	0,5	-1,483900
20,517000	0,5	-1,462800
20,525333	0,5	-1,452100
20,533667	0,5	-1,459700
20,542000	0,5	-1,457300
20,550333	0,5	-1,445400
20,558667	0,5	-1,445150
20,567000	0,5	-1,440550
20,575333	0,5	-1,429700
20,583667	0,5	-1,402450
20,592000	0,5	-1,383950
20,600333	0,5	-1,356300
20,608667	0,5	-1,361000
20,617000	0,5	-1,350150
20,625333	0,5	-1,361200
20,633667	0,5	-1,357850
20,642000	0,5	-1,362250
20,650333	0,5	-1,363150
20,658667	0,5	-1,367400
20,667000	0,5	-1,351850
20,675333	0,5	-1,367500
20,683667	0,5	-1,385750
20,692000	0,5	-1,392700
20,700333	0,5	-1,405650
20,708667	0,5	-1,421850
20,717000	0,5	-1,455750
20,725333	0,5	-1,470150
20,733667	0,5	-1,479400
20,742000	0,5	-1,482900
20,750333	0,5	-1,491550
20,758667	0,5	-1,486250
20,767000	0,5	-1,482100
20,775333	0,5	-1,474500
20,783667	0,5	-1,473400
20,792000	0,5	-1,468150
20,800333	0,5	-1,475450
20,808667	0,5	-1,463850
20,817000	0,5	-1,458900
20,825333	0,5	-1,472650
20,833667	0,5	-1,482100
20,842000	0,5	-1,478800
20,850333	0,5	-1,485250
20,858667	0,5	-1,488500
20,867000	0,5	-1,510800
20,875333	0,5	-1,514300
20,883667	0,5	-1,513250
20,892000	0,5	-1,528400
20,900333	0,5	-1,528800
20,908667	0,5	-1,531900
20,917000	0,5	-1,527550
20,925333	0,5	-1,523950
20,933667	0,5	-1,513200
20,942000	0,5	-1,515000
20,950333	0,5	-1,514100
20,958667	0,5	-1,491450
20,967000	0,5	-1,483750
20,975333	0,5	-1,501950
20,983667	0,5	-1,502150
20,992000	0,5	-1,505800
21,000333	0,5	-1,514250
21,008667	0,5	-1,533700
21,017000	0,5	-1,539100
21,025333	0,5	-1,522300
21,033667	0,5	-1,515800
21,042000	0,5	-1,509550
21,050333	0,5	-1,505600
21,058667	0,5	-1,502450
21,067000	0,5	-1,513050
21,075333	0,5	-1,505350
21,083667	0,5	-1,510750
21,092000	0,5	-1,502050
21,100333	0,5	-1,490450
21,108667	0,5	-1,465450
21,117000	0,5	-1,459250
21,125333	0,5	-1,456300
21,133667	0,5	-1,453850
21,142000	0,5	-1,454050
21,150333	0,5	-1,465250
21,158667	0,5	-1,477700
21,167000	0,5	-1,471750
21,175333	0,5	-1,470000
21,183667	0,5	-1,472550
21,192000	0,5	-1,479850
21,200333	0,5	-1,475350
21,208667	0,5	-1,477050
21,217000	0,5	-1,467850
21,225333	0,5	-1,471500
21,233667	0,5	-1,464100
21,242000	0,5	-1,460800
21,250333	0,5	-1,424200
21,258667	0,5	-1,402300
21,267000	0,5	-1,397450
21,275333	0,5	-1,390650
21,283667	0,5	-1,389600
21,292000	0,5	-1,392450
21,300333	0,5	-1,405450
21,308667	0,5	-1,418850
21,317000	0,5	-1,420600
21,325333	0,5	-1,409800
21,333667	0,5	-1,407150
21,342000	0,5	-1,404050
21,350333	0,5	-1,398450
21,358667	0,5	-1,384200
21,367000	0,5	-1,374700
21,375333	0,5	-1,360250
21,383667	0,5	-1,359350
21,392000	0,5	-1,334000
21,400333	0,5	-1,301700
21,408667	0,5	-1,289300
21,417000	0,5	-1,286000
21,425333	0,5	-1,280850
21,433667	0,5	-1,287750
21,442000	0,5	-1,290250
21,450333	0,5	-1,298650
21,458667	0,5	-1,298000
21,467000	0,5	-1,276750
21,475333	0,5	-1,262950
21,483667	0,5	-1,239550
21,492000	0,5	-1,219300
21,500333	0,5	-1,205150
21,508667	0,5	-1,199600
21,517000	0,5	-1,196500
21,525333	0,5	-1,193350
21,533667	0,5	-1,186900
21,542000	0,5	-1,161500
21,550333	0,5	-1,138800
21,558667	0,5	-1,134650
21,567000	0,5	-1,121150
21,575333	0,5	-1,109750
21,583667	0,5	-1,099250
21,592000	0,5	-1,092000
21,600333	0,5	-1,066250
21,608667	0,5	-1,024650
21,617000	0,5	-0,973650
21,625333	0,5	-0,912250
21,633667	0,5	-0,846200
21,642000	0,5	-0,785400
21,650333	0,5	-0,767700
21,658667	0,5	-0,768450
21,667000	0,5	-0,803100
21,675333	0,5	-0,832700
21,683667	0,5	-0,852250
21,692000	0,5	-0,835550
21,700333	0,5	-0,834100
21,708667	0,5	-0,836000
21,717000	0,5	-0,833150
21,725333	0,5	-0,839200
21,733667	0,5	-0,844150
21,742000	0,5	-0,865750
21,750333	0,5	-0,863450
21,758667	0,5	-0,857750
21,767000	0,5	-0,845800
21,775333	0,5	-0,831750
21,783667	0,5	-0,817200
21,792000	0,5	-0,792800
21,800333	0,5	-0,766550
21,808667	0,5	-0,742350
21,817000	0,5	-0,708900
21,825333	0,5	-0,685300
21,833667	0,5	-0,635100
21,842000	0,5	-0,606950
21,850333	0,5	-0,594800
21,858667	0,5	-0,575350
21,867000	0,5	-0,553450
21,875333	0,5	-0,536150
21,883667	0,5	-0,508950
21,892000	0,5	-0,491050
21,900333	0,5	-0,460850
21,908667	0,5	-0,442150
21,917000	0,5	-0,432050
21,925333	0,5	-0,416550
21,933667	0,5	-0,401750
21,942000	0,5	-0,383900
21,950333	0,5	-0,374050
21,958667	0,5	-0,349800
21,967000	0,5	-0,335000
21,975333	0,5	-0,310950
21,983667	0,5	-0,276350
21,992000	0,5	-0,261750
22,000333	0,5	-0,240900
22,008667	0,5	-0,214300
22,017000	0,5	-0,187900
22,025333	0,5	-0,170500
22,033667	0,5	-0,158450
22,042000	0,5	-0,130800
22,050333	0,5	-0,087550
22,058667	0,5	-0,058850
22,067000	0,5	-0,023050
22,075333	0,5	0,010250
22,083667	0,5	0,045300
22,092000	0,5	0,068250
22,100333	0,5	0,103700
22,108667	0,5	0,130900
22,117000	0,5	0,167450
22,125333	0,5	0,206850
22,133667	0,5	0,263450
22,142000	0,5	0,295150
22,150333	0,5	0,362250
22,158667	0,5	0,400850
22,167000	0,5	0,436300
22,175333	0,5	0,458150
22,183667	0,5	0,476900
22,192000	0,5	0,530500
22,200333	0,5	0,572700
22,208667	0,5	0,623900
22,217000	0,5	0,669950
22,225333	0,5	0,720450
22,233667	0,5	0,763700
22,242000	0,5	0,811650
22,250333	0,5	0,856850
22,258667	0,5	0,907300
22,267000	0,5	0,948900
22,275333	0,5	0,991950
22,283667	0,5	1,043650
22,292000	0,5	1,114350
22,300333	0,5	1,185050
22,308667	0,5	1,249850
22,317000	0,5	1,307800
22,325333	0,5	1,347650
22,333667	0,5	1,377750
22,342000	0,5	1,413800
22,350333	0,5	1,456200
22,358667	0,5	1,499900
22,367000	0,5	1,552150
22,375333	0,5	1,601950
22,383667	0,5	1,658800
22,392000	0,5	1,711400
22,400333	0,5	1,772000
22,408667	0,5	1,821350
22,417000	0,5	1,873350
22,425333	0,5	1,920100
22,433667	0,5	1,992800
22,442000	0,5	2,071650
22,450333	0,5	2,146850
22,458667	0,5	2,215650
22,467000	0,5	2,287050
22,475333	0,5	2,357350
22,483667	0,5	2,441050
22,492000	0,5	2,524550
22,500333	0,5	2,594200
22,508667	0,5	2,662800
22,517000	0,5	2,730600
22,525333	0,5	2,808200
22,533667	0,5	2,878400
22,542000	0,5	2,958150
22,550333	0,5	3,033900
22,558667	0,5	3,114750
22,567000	0,5	3,163450
22,575333	0,5	3,247600
22,583667	0,5	3,335100
22,592000	0,5	3,424500
22,600333	0,5	3,485950
22,608667	0,5	3,551500
22,617000	0,5	3,598150
22,625333	0,5	3,651400
22,633667	0,5	3,716700
22,642000	0,5	3,775150
22,650333	0,5	3,831850
22,658667	0,5	3,880550
22,667000	0,5	3,930150
22,675333	0,5	3,967750
22,683667	0,5	4,006500
22,692000	0,5	4,026750
22,700333	0,5	4,044200
22,708667	0,5	4,017450
22,717000	0,5	4,014750
22,725333	0,5	3,999450
22,733667	0,5	4,011850
22,742000	0,5	3,982450
22,750333	0,5	3,933150
22,758667	0,5	3,877450
22,767000	0,5	3,790450
22,775333	0,5	3,713850
22,783667	0,5	3,613000
22,792000	0,5	3,499900
22,800333	0,5	3,377500
22,808667	0,5	3,253250
22,817000	0,5	3,122500
22,825333	0,5	2,990750
22,833667	0,5	2,848000
22,842000	0,5	2,706400
22,850333	0,5	2,549450
22,858667	0,5	2,347700
22,867000	0,5	2,192900
22,875333	0,5	2,049000
22,883667	0,5	1,886500
22,892000	0,5	1,699050
22,900333	0,5	1,517850
22,908667	0,5	1,328350
22,917000	0,5	1,140150
22,925333	0,5	0,950400
22,933667	0,5	0,769300
22,942000	0,5	0,592900
22,950333	0,5	0,419550
22,958667	0,5	0,250200
22,967000	0,5	0,081600
22,975333	0,5	-0,081400
22,983667	0,5	-0,247250
22,992000	0,5	-0,396700
23,000333	0,5	-0,537550
23,008667	0,5	-0,702800
23,017000	0,5	-0,839200
23,025333	0,5	-1,003700
23,033667	0,5	-1,168550
23,042000	0,5	-1,294150
23,050333	0,5	-1,413600
23,058667	0,5	-1,521650
23,067000	0,5	-1,638950
23,075333	0,5	-1,743950
23,083667	0,5	-1,836500
23,092000	0,5	-1,921400
23,100333	0,5	-2,002800
23,108667	0,5	-2,076650
23,117000	0,5	-2,146050
23,125333	0,5	-2,221000
23,133667	0,5	-2,283650
23,142000	0,5	-2,347950
23,150333	0,5	-2,391650
23,158667	0,5	-2,463150
23,167000	0,5	-2,514700
23,175333	0,5	-2,593500
23,183667	0,5	-2,626300
23,192000	0,5	-2,667850
23,200333	0,5	-2,689050
23,208667	0,5	-2,708300
23,217000	0,5	-2,729200
23,225333	0,5	-2,749350
23,233667	0,5	-2,747900
23,242000	0,5	-2,752450
23,250333	0,5	-2,748050
23,258667	0,5	-2,747400
23,267000	0,5	-2,742750
23,275333	0,5	-2,738400
23,283667	0,5	-2,731300
23,292000	0,5	-2,721050
23,300333	0,5	-2,703400
23,308667	0,5	-2,706250
23,317000	0,5	-2,711100
23,325333	0,5	-2,725250
23,333667	0,5	-2,717850
23,342000	0,5	-2,706000
23,350333	0,5	-2,688200
23,358667	0,5	-2,661750
23,367000	0,5	-2,643750
23,375333	0,5	-2,620650
23,383667	0,5	-2,593650
23,392000	0,5	-2,559600
23,400333	0,5	-2,531750
23,408667	0,5	-2,497800
23,417000	0,5	-2,468400
23,425333	0,5	-2,433650
23,433667	0,5	-2,401200
23,442000	0,5	-2,366100
23,450333	0,5	-2,339200
23,458667	0,5	-2,315950
23,467000	0,5	-2,301450
23,475333	0,5	-2,293200
23,483667	0,5	-2,273200
23,492000	0,5	-2,255250
23,500333	0,5	-2,229650
23,508667	0,5	-2,210050
23,517000	0,5	-2,191050
23,525333	0,5	-2,174350
23,533667	0,5	-2,151100
23,542000	0,5	-2,128100
23,550333	0,5	-2,105450
23,558667	0,5	-2,081350
23,567000	0,5	-2,056650
23,575333	0,5	-2,035900
23,583667	0,5	-2,009850
23,592000	0,5	-2,001600
23,600333	0,5	-1,978100
23,608667	0,5	-1,963300
23,617000	0,5	-1,942500
23,625333	0,5	-1,934600
23,633667	0,5	-1,920950
23,642000	0,5	-1,908850
23,650333	0,5	-1,896350
23,658667	0,5	-1,884550
23,667000	0,5	-1,872150
23,675333	0,5	-1,861100
23,683667	0,5	-1,847850
23,692000	0,5	-1,836900
23,700333	0,5	-1,827200
23,708667	0,5	-1,817500
23,717000	0,5	-1,808300
23,725333	0,5	-1,802250
23,733667	0,5	-1,803100
23,742000	0,5	-1,830400
23,750333	0,5	-1,806250
23,758667	0,5	-1,807150
23,767000	0,5	-1,778000
23,775333	0,5	-1,778150
23,783667	0,5	-1,777950
23,792000	0,5	-1,778700
23,800333	0,5	-1,783300
23,808667	0,5	-1,762250
23,817000	0,5	-1,755700
23,825333	0,5	-1,745300
23,833667	0,5	-1,735100
23,842000	0,5	-1,718900
23,850333	0,5	-1,710950
23,858667	0,5	-1,697550
23,867000	0,5	-1,686600
23,875333	0,5	-1,675700
23,883667	0,5	-1,705800
23,892000	0,5	-1,688150
23,900333	0,5	-1,702150
23,908667	0,5	-1,665900
23,917000	0,5	-1,648350
23,925333	0,5	-1,642300
23,933667	0,5	-1,650200
23,942000	0,5	-1,654650
23,950333	0,5	-1,666250
23,958667	0,5	-1,641250
23,967000	0,5	-1,643050
23,975333	0,5	-1,632500
23,983667	0,5	-1,625450
23,992000	0,5	-1,614050
24,000333	0,5	-1,599950
24,008667	0,5	-1,585250
24,017000	0,5	-1,568550
24,025333	0,5	-1,565750
24,033667	0,5	-1,599850
24,042000	0,5	-1,582250
24,050333	0,5	-1,582300
24,058667	0,5	-1,524900
24,067000	0,5	-1,501300
24,075333	0,5	-1,494300
24,083667	0,5	-1,487750
24,092000	0,5	-1,509000
24,100333	0,5	-1,487300
24,108667	0,5	-1,476300
24,117000	0,5	-1,451500
24,125333	0,5	-1,446250
24,133667	0,5	-1,420500
24,142000	0,5	-1,410400
24,150333	0,5	-1,400500
24,158667	0,5	-1,384350
24,167000	0,5	-1,371400
24,175333	0,5	-1,362350
24,183667	0,5	-1,391650
24,192000	0,5	-1,363600
24,200333	0,5	-1,366200
24,208667	0,5	-1,323500
24,217000	0,5	-1,315150
24,225333	0,5	-1,308550
24,233667	0,5	-1,317700
24,242000	0,5	-1,331150
24,250333	0,5	-1,318750
24,258667	0,5	-1,283500
24,267000	0,5	-1,275250
24,275333	0,5	-1,254000
24,283667	0,5	-1,240850
24,292000	0,5	-1,216200
24,300333	0,5	-1,196650
24,308667	0,5	-1,170750
24,317000	0,5	-1,159550
24,325333	0,5	-1,154450
24,333667	0,5	-1,158000
24,342000	0,5	-1,137900
24,350333	0,5	-1,130000
24,358667	0,5	-1,093250
24,367000	0,5	-1,086400
24,375333	0,5	-1,077700
24,383667	0,5	-1,086100
24,392000	0,5	-1,102400
24,400333	0,5	-1,081900
24,408667	0,5	-1,078450
24,417000	0,5	-1,056000
24,425333	0,5	-1,052900
24,433667	0,5	-1,036700
24,442000	0,5	-1,028200
24,450333	0,5	-1,010850
24,458667	0,5	-0,995700
24,467000	0,5	-0,982350
24,475333	0,5	-0,981900
24,483667	0,5	-0,967000
24,492000	0,5	-0,975000
24,500333	0,5	-0,940600
24,508667	0,5	-0,918300
24,517000	0,5	-0,908800
24,525333	0,5	-0,904750
24,533667	0,5	-0,915950
24,542000	0,5	-0,909100
24,550333	0,5	-0,895500
24,558667	0,5	-0,876400
24,567000	0,5	-0,870750
24,575333	0,5	-0,853400
24,583667	0,5	-0,845750
24,592000	0,5	-0,828400
24,600333	0,5	-0,823950
24,608667	0,5	-0,806950
24,617000	0,5	-0,805300
24,625333	0,5	-0,789600
24,633667	0,5	-0,787350
24,642000	0,5	-0,798450
24,650333	0,5	-0,777550
24,658667	0,5	-0,765400
24,667000	0,5	-0,765050
24,675333	0,5	-0,762600
24,683667	0,5	-0,775300
24,692000	0,5	-0,762450
24,700333	0,5	-0,750900
24,708667	0,5	-0,739100
24,717000	0,5	-0,736500
24,725333	0,5	-0,723250
24,733667	0,5	-0,711000
24,742000	0,5	-0,695450
24,750333	0,5	-0,681650
24,758667	0,5	-0,675800
24,767000	0,5	-0,672050
24,775333	0,5	-0,667550
24,783667	0,5	-0,656850
24,792000	0,5	-0,652950
24,800333	0,5	-0,633050
24,808667	0,5	-0,626700
24,817000	0,5	-0,623200
24,825333	0,5	-0,628750
24,833667	0,5	-0,635750
24,842000	0,5	-0,622900
24,850333	0,5	-0,616400
24,858667	0,5	-0,613450
24,867000	0,5	-0,603400
24,875333	0,5	-0,601300
24,883667	0,5	-0,593300
24,892000	0,5	-0,585150
24,900333	0,5	-0,577000
24,908667	0,5	-0,573250
24,917000	0,5	-0,571200
24,925333	0,5	-0,557900
24,933667	0,5	-0,558250
24,942000	0,5	-0,548900
24,950333	0,5	-0,537600
24,958667	0,5	-0,528250
24,967000	0,5	-0,527900
24,975333	0,5	-0,528850
24,983667	0,5	-0,526050
24,992000	0,5	-0,510950
25,000333	0,5	-0,511950
25,008667	0,5	-0,503700
25,017000	0,5	-0,499250
25,025333	0,5	-0,489700
25,033667	0,5	-0,486450
25,042000	0,5	-0,478750
25,050333	0,5	-0,475700
25,058667	0,5	-0,473100
25,067000	0,5	-0,468700
25,075333	0,5	-0,462300
25,083667	0,5	-0,466200
25,092000	0,5	-0,458100
25,100333	0,5	-0,454050
25,108667	0,5	-0,452300
25,117000	0,5	-0,452450
25,125333	0,5	-0,458700
25,133667	0,5	-0,450250
25,142000	0,5	-0,448050
25,150333	0,5	-0,441000
25,158667	0,5	-0,437550
25,167000	0,5	-0,428250
25,175333	0,5	-0,422950
25,183667	0,5	-0,417100
25,192000	0,5	-0,410100
25,200333	0,5	-0,402350
25,208667	0,5	-0,400450
25,217000	0,5	-0,394700
25,225333	0,5	-0,388750
25,233667	0,5	-0,385750
25,242000	0,5	-0,380550
25,250333	0,5	-0,376500
25,258667	0,5	-0,377750
25,267000	0,5	-0,380100
25,275333	0,5	-0,380450
25,283667	0,5	-0,380500
25,292000	0,5	-0,377550
25,300333	0,5	-0,378100
25,308667	0,5	-0,372250
25,317000	0,5	-0,371900
25,325333	0,5	-0,368900
25,333667	0,5	-0,366450
25,342000	0,5	-0,362000
25,350333	0,5	-0,360500
25,358667	0,5	-0,354100
25,367000	0,5	-0,354200
25,375333	0,5	-0,349550
25,383667	0,5	-0,344850
25,392000	0,5	-0,342100
25,400333	0,5	-0,337200
25,408667	0,5	-0,336250
25,417000	0,5	-0,333850
25,425333	0,5	-0,331700
25,433667	0,5	-0,327650
25,442000	0,5	-0,325600
25,450333	0,5	-0,326650
25,458667	0,5	-0,324250
25,467000	0,5	-0,321300
25,475333	0,5	-0,322550
25,483667	0,5	-0,320150
25,492000	0,5	-0,318050
25,500333	0,5	-0,316300
25,508667	0,5	-0,316250
25,517000	0,5	-0,316050
25,525333	0,5	-0,312650
25,533667	0,5	-0,315300
25,542000	0,5	-0,312050
25,550333	0,5	-0,309650
25,558667	0,5	-0,311350
25,567000	0,5	-0,306700
25,575333	0,5	-0,305350
25,583667	0,5	-0,302950
25,592000	0,5	-0,295650
25,600333	0,5	-0,294850
25,608667	0,5	-0,293250
25,617000	0,5	-0,289050
25,625333	0,5	-0,290450
25,633667	0,5	-0,285550
25,642000	0,5	-0,284350
25,650333	0,5	-0,282000
25,658667	0,5	-0,284500
25,667000	0,5	-0,281800
25,675333	0,5	-0,276750
25,683667	0,5	-0,282200
25,692000	0,5	-0,280100
25,700333	0,5	-0,281200
25,708667	0,5	-0,280050
25,717000	0,5	-0,272550
25,725333	0,5	-0,275400
25,733667	0,5	-0,273750
25,742000	0,5	-0,275700
25,750333	0,5	-0,271800
25,758667	0,5	-0,273200
25,767000	0,5	-0,268400
25,775333	0,5	-0,265900
25,783667	0,5	-0,265900
25,792000	0,5	-0,262550
25,800333	0,5	-0,258650
25,808667	0,5	-0,257200
25,817000	0,5	-0,254350
25,825333	0,5	-0,250700
25,833667	0,5	-0,255550
25,842000	0,5	-0,254000
25,850333	0,5	-0,252600
25,858667	0,5	-0,247550
25,867000	0,5	-0,240950
25,875333	0,5	-0,244400
25,883667	0,5	-0,245850
25,892000	0,5	-0,242600
25,900333	0,5	-0,244400
25,908667	0,5	-0,243000
25,917000	0,5	-0,244250
25,925333	0,5	-0,241250
25,933667	0,5	-0,244350
25,942000	0,5	-0,241750
25,950333	0,5	-0,238350
25,958667	0,5	-0,239850
25,967000	0,5	-0,236550
25,975333	0,5	-0,232200
25,983667	0,5	-0,237500
25,992000	0,5	-0,235950
26,000333	0,5	-0,230950
