File Path	chrom://chromeleon01/ikbm_chromeleon/2022/ICS-5000/ED1/Esteban/20220612_Cell_7_4_eg.seq/508.smp/ED_1.channel/ED_1.chm
Channel	ED_1

Injection Information:
Data Vault	ikbm_chromeleon
Injection	4_01h-EGS_2
Injection Number	108
Position	BA8
Comment	
Processing Method	Stop sequence after Cell Death
Instrument Method	ICS5000_PA200_FullNative_Ox_26min_ED1
Type	Unknown
Status	Finished
Injection Date	14.06.2022
Injection Time	19:05:28
Injection Volume (µl)	5,0
Dilution Factor	1,0000
Weight	1,0000

Chromatogram Data Information:
Time Min. (min)	0,000333
Time Max. (min)	26,000333
Data Points	3121
Detector	EDet1
Generating Data System	Chromeleon 7.2.9.11323
Exporting Data System	Chromeleon 7.2.9.0
Operator	Instrument Controller
Signal Quantity	
Signal Unit	nC
Signal Min.	-2,460600
Signal Max.	2 104,798331
Channel	ED_1
Driver Name	DC-5000
Channel Type	Evaluation
Min. Step (s)	0,5
Max. Step (s)	0,5
Average Step (s)	0,5

Signal Parameter Information:
Signal Info	

Chromatogram Data:
Time (min)	Step (s)	Value (nC)
0,000333	n.a.	-0,011800
0,008667	0,5	-0,096250
0,017000	0,5	-0,080500
0,025333	0,5	-0,065500
0,033667	0,5	-0,046650
0,042000	0,5	-0,034450
0,050333	0,5	-0,043150
0,058667	0,5	-0,036200
0,067000	0,5	-0,032950
0,075333	0,5	-0,025900
0,083667	0,5	-0,053550
0,092000	0,5	-0,036550
0,100333	0,5	-0,031700
0,108667	0,5	-0,048150
0,117000	0,5	-0,063900
0,125333	0,5	-0,051250
0,133667	0,5	-0,035450
0,142000	0,5	-0,000200
0,150333	0,5	-0,005050
0,158667	0,5	0,000100
0,167000	0,5	-0,013600
0,175333	0,5	-0,012400
0,183667	0,5	-0,025150
0,192000	0,5	-0,024500
0,200333	0,5	-0,028700
0,208667	0,5	-0,036100
0,217000	0,5	-0,030750
0,225333	0,5	-0,039150
0,233667	0,5	-0,046400
0,242000	0,5	-0,032150
0,250333	0,5	-0,034850
0,258667	0,5	-0,057750
0,267000	0,5	-0,060650
0,275333	0,5	-0,057750
0,283667	0,5	-0,027050
0,292000	0,5	-0,004450
0,300333	0,5	0,037500
0,308667	0,5	0,043300
0,317000	0,5	0,015150
0,325333	0,5	-0,036800
0,333667	0,5	-0,059800
0,342000	0,5	-0,069700
0,350333	0,5	-0,061650
0,358667	0,5	-0,061050
0,367000	0,5	-0,060950
0,375333	0,5	-0,050850
0,383667	0,5	-0,065400
0,392000	0,5	-0,033150
0,400333	0,5	-0,057800
0,408667	0,5	-0,069900
0,417000	0,5	-0,074600
0,425333	0,5	-0,065900
0,433667	0,5	-0,030200
0,442000	0,5	-0,029750
0,450333	0,5	-0,052500
0,458667	0,5	-0,038900
0,467000	0,5	-0,045550
0,475333	0,5	-0,041050
0,483667	0,5	-0,056000
0,492000	0,5	-0,050050
0,500333	0,5	-0,059000
0,508667	0,5	-0,053450
0,517000	0,5	-0,049250
0,525333	0,5	-0,045100
0,533667	0,5	-0,066700
0,542000	0,5	-0,022000
0,550333	0,5	-0,061000
0,558667	0,5	-0,061000
0,567000	0,5	-0,061400
0,575333	0,5	-0,052900
0,583667	0,5	-0,010300
0,592000	0,5	-0,028050
0,600333	0,5	-0,024100
0,608667	0,5	-0,033700
0,617000	0,5	-0,022050
0,625333	0,5	-0,027700
0,633667	0,5	-0,016000
0,642000	0,5	-0,025000
0,650333	0,5	-0,020250
0,658667	0,5	-0,028050
0,667000	0,5	-0,022700
0,675333	0,5	-0,034150
0,683667	0,5	-0,032550
0,692000	0,5	-0,012850
0,700333	0,5	-0,034700
0,708667	0,5	-0,037600
0,717000	0,5	-0,029500
0,725333	0,5	-0,015200
0,733667	0,5	0,028550
0,742000	0,5	0,014000
0,750333	0,5	0,012650
0,758667	0,5	0,015900
0,767000	0,5	0,015350
0,775333	0,5	0,013550
0,783667	0,5	0,008900
0,792000	0,5	0,012900
0,800333	0,5	0,006300
0,808667	0,5	0,016750
0,817000	0,5	0,016500
0,825333	0,5	0,021600
0,833667	0,5	0,026600
0,842000	0,5	0,037700
0,850333	0,5	0,006000
0,858667	0,5	0,014600
0,867000	0,5	0,019650
0,875333	0,5	0,051000
0,883667	0,5	0,074250
0,892000	0,5	0,063350
0,900333	0,5	0,052900
0,908667	0,5	0,056700
0,917000	0,5	0,054850
0,925333	0,5	0,061100
0,933667	0,5	0,060600
0,942000	0,5	0,055950
0,950333	0,5	0,060850
0,958667	0,5	0,059050
0,967000	0,5	0,057000
0,975333	0,5	0,047350
0,983667	0,5	0,069350
0,992000	0,5	0,057100
1,000333	0,5	0,045900
1,008667	0,5	0,050400
1,017000	0,5	0,070000
1,025333	0,5	0,088350
1,033667	0,5	0,109600
1,042000	0,5	0,097650
1,050333	0,5	0,108100
1,058667	0,5	0,099350
1,067000	0,5	0,105700
1,075333	0,5	0,102550
1,083667	0,5	0,099100
1,092000	0,5	0,096250
1,100333	0,5	0,095200
1,108667	0,5	0,098550
1,117000	0,5	0,080050
1,125333	0,5	0,081800
1,133667	0,5	0,106700
1,142000	0,5	0,088550
1,150333	0,5	0,077900
1,158667	0,5	0,087600
1,167000	0,5	0,107100
1,175333	0,5	0,140900
1,183667	0,5	0,129300
1,192000	0,5	0,136850
1,200333	0,5	0,123450
1,208667	0,5	0,135850
1,217000	0,5	0,125250
1,225333	0,5	0,127150
1,233667	0,5	0,120650
1,242000	0,5	0,122650
1,250333	0,5	0,126900
1,258667	0,5	0,122950
1,267000	0,5	0,105000
1,275333	0,5	0,124750
1,283667	0,5	0,124450
1,292000	0,5	0,109950
1,300333	0,5	0,104350
1,308667	0,5	0,111100
1,317000	0,5	0,140700
1,325333	0,5	0,154800
1,333667	0,5	0,149400
1,342000	0,5	0,140550
1,350333	0,5	0,150150
1,358667	0,5	0,147850
1,367000	0,5	0,153850
1,375333	0,5	0,144450
1,383667	0,5	0,148900
1,392000	0,5	0,138450
1,400333	0,5	0,148450
1,408667	0,5	0,151350
1,417000	0,5	0,142550
1,425333	0,5	0,161650
1,433667	0,5	0,149950
1,442000	0,5	0,135150
1,450333	0,5	0,132300
1,458667	0,5	0,141100
1,467000	0,5	0,168550
1,475333	0,5	0,167100
1,483667	0,5	0,154600
1,492000	0,5	0,160350
1,500333	0,5	0,164150
1,508667	0,5	0,164150
1,517000	0,5	0,157650
1,525333	0,5	0,163100
1,533667	0,5	0,150300
1,542000	0,5	0,158950
1,550333	0,5	0,169350
1,558667	0,5	0,214500
1,567000	0,5	0,347800
1,575333	0,5	0,803800
1,583667	0,5	1,871100
1,592000	0,5	7,281250
1,600333	0,5	34,929251
1,608667	0,5	145,135152
1,617000	0,5	503,280357
1,625333	0,5	1 295,083769
1,633667	0,5	2 043,582830
1,642000	0,5	2 104,798331
1,650333	0,5	2 009,751180
1,658667	0,5	1 979,782530
1,667000	0,5	1 978,936679
1,675333	0,5	1 894,732378
1,683667	0,5	1 583,336524
1,692000	0,5	1 154,968017
1,700333	0,5	803,607912
1,708667	0,5	578,749759
1,717000	0,5	443,385107
1,725333	0,5	360,951105
1,733667	0,5	302,281255
1,742000	0,5	257,496754
1,750333	0,5	221,938653
1,758667	0,5	193,706003
1,767000	0,5	170,460003
1,775333	0,5	150,610102
1,783667	0,5	134,748802
1,792000	0,5	123,916852
1,800333	0,5	118,443552
1,808667	0,5	117,132052
1,817000	0,5	117,968652
1,825333	0,5	119,045702
1,833667	0,5	119,185952
1,842000	0,5	117,461002
1,850333	0,5	113,360802
1,858667	0,5	107,414952
1,867000	0,5	100,578051
1,875333	0,5	93,740851
1,883667	0,5	87,592201
1,892000	0,5	82,442701
1,900333	0,5	78,046851
1,908667	0,5	74,128101
1,917000	0,5	70,573551
1,925333	0,5	67,581451
1,933667	0,5	65,255301
1,942000	0,5	63,445801
1,950333	0,5	61,658251
1,958667	0,5	59,845951
1,967000	0,5	58,232251
1,975333	0,5	57,072351
1,983667	0,5	56,458551
1,992000	0,5	56,716701
2,000333	0,5	57,871901
2,008667	0,5	58,868751
2,017000	0,5	58,121501
2,025333	0,5	55,336201
2,033667	0,5	51,788051
2,042000	0,5	48,798051
2,050333	0,5	46,833401
2,058667	0,5	45,968501
2,067000	0,5	46,350351
2,075333	0,5	48,710401
2,083667	0,5	54,747451
2,092000	0,5	65,264101
2,100333	0,5	77,013201
2,108667	0,5	83,620151
2,117000	0,5	83,342401
2,125333	0,5	81,475901
2,133667	0,5	83,220351
2,142000	0,5	87,810851
2,150333	0,5	90,654301
2,158667	0,5	88,711001
2,167000	0,5	82,457401
2,175333	0,5	73,568401
2,183667	0,5	63,882451
2,192000	0,5	55,033651
2,200333	0,5	48,093101
2,208667	0,5	43,283001
2,217000	0,5	40,271301
2,225333	0,5	39,026951
2,233667	0,5	39,752651
2,242000	0,5	42,309801
2,250333	0,5	44,965851
2,258667	0,5	45,364551
2,267000	0,5	43,001151
2,275333	0,5	39,499801
2,283667	0,5	36,389201
2,292000	0,5	34,064451
2,300333	0,5	32,323250
2,308667	0,5	31,089800
2,317000	0,5	30,242500
2,325333	0,5	29,675750
2,333667	0,5	29,234800
2,342000	0,5	28,873950
2,350333	0,5	28,692300
2,358667	0,5	28,904050
2,367000	0,5	29,560650
2,375333	0,5	30,525450
2,383667	0,5	31,432200
2,392000	0,5	32,106650
2,400333	0,5	32,698050
2,408667	0,5	33,452950
2,417000	0,5	34,240601
2,425333	0,5	34,496501
2,433667	0,5	33,905001
2,442000	0,5	32,757250
2,450333	0,5	31,595450
2,458667	0,5	30,706850
2,467000	0,5	29,993400
2,475333	0,5	29,359200
2,483667	0,5	28,755850
2,492000	0,5	28,195050
2,500333	0,5	27,726250
2,508667	0,5	27,288600
2,517000	0,5	26,889150
2,525333	0,5	26,553350
2,533667	0,5	26,288400
2,542000	0,5	26,016050
2,550333	0,5	25,732000
2,558667	0,5	25,393250
2,567000	0,5	25,012450
2,575333	0,5	24,683800
2,583667	0,5	24,734100
2,592000	0,5	26,056400
2,600333	0,5	27,635750
2,608667	0,5	27,232050
2,617000	0,5	25,399900
2,625333	0,5	23,980050
2,633667	0,5	23,168550
2,642000	0,5	22,721150
2,650333	0,5	22,460950
2,658667	0,5	22,253350
2,667000	0,5	22,084800
2,675333	0,5	21,983000
2,683667	0,5	21,907450
2,692000	0,5	21,882550
2,700333	0,5	21,866450
2,708667	0,5	21,853600
2,717000	0,5	21,793850
2,725333	0,5	21,685600
2,733667	0,5	21,516100
2,742000	0,5	21,285900
2,750333	0,5	21,034550
2,758667	0,5	20,809600
2,767000	0,5	20,570600
2,775333	0,5	20,405700
2,783667	0,5	20,322850
2,792000	0,5	20,368450
2,800333	0,5	20,609850
2,808667	0,5	21,053050
2,817000	0,5	21,789650
2,825333	0,5	22,693500
2,833667	0,5	23,643100
2,842000	0,5	24,466550
2,850333	0,5	25,131000
2,858667	0,5	25,621500
2,867000	0,5	26,031950
2,875333	0,5	26,469200
2,883667	0,5	27,132450
2,892000	0,5	28,360350
2,900333	0,5	30,799000
2,908667	0,5	35,596101
2,917000	0,5	44,760501
2,925333	0,5	60,804351
2,933667	0,5	85,108751
2,942000	0,5	115,512852
2,950333	0,5	145,111902
2,958667	0,5	165,053952
2,967000	0,5	169,583953
2,975333	0,5	159,009852
2,983667	0,5	138,474502
2,992000	0,5	114,944102
3,000333	0,5	93,940601
3,008667	0,5	78,149901
3,017000	0,5	67,414801
3,025333	0,5	60,175051
3,033667	0,5	54,688001
3,042000	0,5	49,885601
3,050333	0,5	45,362701
3,058667	0,5	41,110651
3,067000	0,5	37,282201
3,075333	0,5	34,056751
3,083667	0,5	31,518800
3,092000	0,5	29,812500
3,100333	0,5	29,095600
3,108667	0,5	29,631850
3,117000	0,5	31,627950
3,125333	0,5	34,955351
3,133667	0,5	38,978301
3,142000	0,5	42,655651
3,150333	0,5	44,941901
3,158667	0,5	45,190601
3,167000	0,5	43,399101
3,175333	0,5	40,033051
3,183667	0,5	35,840151
3,192000	0,5	31,520400
3,200333	0,5	27,643300
3,208667	0,5	24,385850
3,217000	0,5	21,886050
3,225333	0,5	20,043000
3,233667	0,5	18,730500
3,242000	0,5	17,796600
3,250333	0,5	17,095850
3,258667	0,5	16,574350
3,267000	0,5	16,179100
3,275333	0,5	15,855950
3,283667	0,5	15,587900
3,292000	0,5	15,357700
3,300333	0,5	15,161950
3,308667	0,5	14,990900
3,317000	0,5	14,841000
3,325333	0,5	14,728950
3,333667	0,5	14,647700
3,342000	0,5	14,680700
3,350333	0,5	14,817350
3,358667	0,5	15,053750
3,367000	0,5	15,394050
3,375333	0,5	15,781000
3,383667	0,5	16,108050
3,392000	0,5	16,290500
3,400333	0,5	16,229750
3,408667	0,5	16,009200
3,417000	0,5	15,637100
3,425333	0,5	15,213700
3,433667	0,5	14,785850
3,442000	0,5	14,414350
3,450333	0,5	14,101000
3,458667	0,5	13,848950
3,467000	0,5	13,647000
3,475333	0,5	13,465600
3,483667	0,5	13,305450
3,492000	0,5	13,200300
3,500333	0,5	13,085100
3,508667	0,5	12,996050
3,517000	0,5	12,925150
3,525333	0,5	12,882450
3,533667	0,5	12,873200
3,542000	0,5	12,860950
3,550333	0,5	12,885700
3,558667	0,5	12,965850
3,567000	0,5	13,144900
3,575333	0,5	13,407300
3,583667	0,5	13,767200
3,592000	0,5	14,138400
3,600333	0,5	14,460000
3,608667	0,5	14,613050
3,617000	0,5	14,566500
3,625333	0,5	14,319400
3,633667	0,5	13,912350
3,642000	0,5	13,484950
3,650333	0,5	13,050400
3,658667	0,5	12,705850
3,667000	0,5	12,470500
3,675333	0,5	12,347050
3,683667	0,5	12,324900
3,692000	0,5	12,346300
3,700333	0,5	12,410300
3,708667	0,5	12,528450
3,717000	0,5	12,662900
3,725333	0,5	12,805150
3,733667	0,5	12,902750
3,742000	0,5	12,952800
3,750333	0,5	12,911750
3,758667	0,5	12,797850
3,767000	0,5	12,603350
3,775333	0,5	12,373850
3,783667	0,5	12,134250
3,792000	0,5	11,947500
3,800333	0,5	11,747500
3,808667	0,5	11,611850
3,817000	0,5	11,503600
3,825333	0,5	11,431000
3,833667	0,5	11,370700
3,842000	0,5	11,279600
3,850333	0,5	11,190050
3,858667	0,5	11,101150
3,867000	0,5	11,022900
3,875333	0,5	10,945500
3,883667	0,5	10,892000
3,892000	0,5	10,842700
3,900333	0,5	10,816450
3,908667	0,5	10,789500
3,917000	0,5	10,761250
3,925333	0,5	10,719650
3,933667	0,5	10,705400
3,942000	0,5	10,666950
3,950333	0,5	10,604800
3,958667	0,5	10,546500
3,967000	0,5	10,500000
3,975333	0,5	10,466600
3,983667	0,5	10,446850
3,992000	0,5	10,411400
4,000333	0,5	10,397900
4,008667	0,5	10,397550
4,017000	0,5	10,427400
4,025333	0,5	10,464500
4,033667	0,5	10,503550
4,042000	0,5	10,531900
4,050333	0,5	10,533850
4,058667	0,5	10,517100
4,067000	0,5	10,446950
4,075333	0,5	10,368350
4,083667	0,5	10,293850
4,092000	0,5	10,189900
4,100333	0,5	10,085850
4,108667	0,5	10,012450
4,117000	0,5	9,947550
4,125333	0,5	9,918250
4,133667	0,5	9,876300
4,142000	0,5	9,846000
4,150333	0,5	9,809400
4,158667	0,5	9,792550
4,167000	0,5	9,771250
4,175333	0,5	9,772300
4,183667	0,5	9,770250
4,192000	0,5	9,778200
4,200333	0,5	9,793500
4,208667	0,5	9,809250
4,217000	0,5	9,829200
4,225333	0,5	9,854650
4,233667	0,5	9,906550
4,242000	0,5	9,920900
4,250333	0,5	9,947350
4,258667	0,5	9,987450
4,267000	0,5	10,042800
4,275333	0,5	10,115000
4,283667	0,5	10,167300
4,292000	0,5	10,219100
4,300333	0,5	10,304050
4,308667	0,5	10,389450
4,317000	0,5	10,479150
4,325333	0,5	10,537500
4,333667	0,5	10,575350
4,342000	0,5	10,557800
4,350333	0,5	10,502800
4,358667	0,5	10,412800
4,367000	0,5	10,277250
4,375333	0,5	10,153300
4,383667	0,5	10,049200
4,392000	0,5	9,927650
4,400333	0,5	9,841650
4,408667	0,5	9,787650
4,417000	0,5	9,762000
4,425333	0,5	9,760500
4,433667	0,5	9,726350
4,442000	0,5	9,736750
4,450333	0,5	9,741900
4,458667	0,5	9,766900
4,467000	0,5	9,790000
4,475333	0,5	9,819450
4,483667	0,5	9,828350
4,492000	0,5	9,838850
4,500333	0,5	9,827300
4,508667	0,5	9,799450
4,517000	0,5	9,744550
4,525333	0,5	9,708950
4,533667	0,5	9,641550
4,542000	0,5	9,569650
4,550333	0,5	9,503450
4,558667	0,5	9,455150
4,567000	0,5	9,420750
4,575333	0,5	9,378450
4,583667	0,5	9,335350
4,592000	0,5	9,302850
4,600333	0,5	9,282500
4,608667	0,5	9,258550
4,617000	0,5	9,237050
4,625333	0,5	9,210850
4,633667	0,5	9,199150
4,642000	0,5	9,178950
4,650333	0,5	9,176650
4,658667	0,5	9,158250
4,667000	0,5	9,146650
4,675333	0,5	9,152500
4,683667	0,5	9,130250
4,692000	0,5	9,112850
4,700333	0,5	9,105000
4,708667	0,5	9,107500
4,717000	0,5	9,124050
4,725333	0,5	9,122900
4,733667	0,5	9,111850
4,742000	0,5	9,096200
4,750333	0,5	9,095000
4,758667	0,5	9,085250
4,767000	0,5	9,078400
4,775333	0,5	9,069850
4,783667	0,5	9,056100
4,792000	0,5	9,049650
4,800333	0,5	9,032350
4,808667	0,5	9,023650
4,817000	0,5	9,004200
4,825333	0,5	9,013800
4,833667	0,5	8,989600
4,842000	0,5	8,987950
4,850333	0,5	8,992300
4,858667	0,5	9,016150
4,867000	0,5	9,050200
4,875333	0,5	9,071700
4,883667	0,5	9,087150
4,892000	0,5	9,128700
4,900333	0,5	9,162050
4,908667	0,5	9,214650
4,917000	0,5	9,265200
4,925333	0,5	9,335300
4,933667	0,5	9,419200
4,942000	0,5	9,527400
4,950333	0,5	9,655400
4,958667	0,5	9,799750
4,967000	0,5	9,988350
4,975333	0,5	10,204050
4,983667	0,5	10,431250
4,992000	0,5	10,701750
5,000333	0,5	11,010800
5,008667	0,5	11,364000
5,017000	0,5	11,745650
5,025333	0,5	12,123000
5,033667	0,5	12,554550
5,042000	0,5	12,999900
5,050333	0,5	13,485050
5,058667	0,5	13,980600
5,067000	0,5	14,503850
5,075333	0,5	15,005850
5,083667	0,5	15,468150
5,092000	0,5	15,856850
5,100333	0,5	16,108550
5,108667	0,5	16,223000
5,117000	0,5	16,210750
5,125333	0,5	15,987650
5,133667	0,5	15,611700
5,142000	0,5	15,114050
5,150333	0,5	14,516250
5,158667	0,5	13,878900
5,167000	0,5	13,186650
5,175333	0,5	12,516600
5,183667	0,5	11,875400
5,192000	0,5	11,314400
5,200333	0,5	10,806650
5,208667	0,5	10,392950
5,217000	0,5	10,037700
5,225333	0,5	9,759000
5,233667	0,5	9,531250
5,242000	0,5	9,359000
5,250333	0,5	9,213700
5,258667	0,5	9,112550
5,267000	0,5	9,055700
5,275333	0,5	8,994000
5,283667	0,5	8,953500
5,292000	0,5	8,942950
5,300333	0,5	8,948550
5,308667	0,5	8,988000
5,317000	0,5	9,018300
5,325333	0,5	9,051950
5,333667	0,5	9,101050
5,342000	0,5	9,158800
5,350333	0,5	9,210650
5,358667	0,5	9,251000
5,367000	0,5	9,288100
5,375333	0,5	9,306750
5,383667	0,5	9,326350
5,392000	0,5	9,327050
5,400333	0,5	9,314700
5,408667	0,5	9,303900
5,417000	0,5	9,315400
5,425333	0,5	9,289500
5,433667	0,5	9,291300
5,442000	0,5	9,294750
5,450333	0,5	9,311600
5,458667	0,5	9,325650
5,467000	0,5	9,299850
5,475333	0,5	9,278450
5,483667	0,5	9,242150
5,492000	0,5	9,188900
5,500333	0,5	9,122950
5,508667	0,5	9,047350
5,517000	0,5	8,967650
5,525333	0,5	8,884600
5,533667	0,5	8,800650
5,542000	0,5	8,724700
5,550333	0,5	8,643300
5,558667	0,5	8,597900
5,567000	0,5	8,549350
5,575333	0,5	8,502900
5,583667	0,5	8,468600
5,592000	0,5	8,456300
5,600333	0,5	8,452150
5,608667	0,5	8,452100
5,617000	0,5	8,432050
5,625333	0,5	8,428900
5,633667	0,5	8,420100
5,642000	0,5	8,417900
5,650333	0,5	8,406400
5,658667	0,5	8,401100
5,667000	0,5	8,387850
5,675333	0,5	8,383550
5,683667	0,5	8,384050
5,692000	0,5	8,365600
5,700333	0,5	8,352250
5,708667	0,5	8,356750
5,717000	0,5	8,342250
5,725333	0,5	8,327200
5,733667	0,5	8,320300
5,742000	0,5	8,321100
5,750333	0,5	8,336600
5,758667	0,5	8,328700
5,767000	0,5	8,317200
5,775333	0,5	8,292400
5,783667	0,5	8,270600
5,792000	0,5	8,231600
5,800333	0,5	8,197100
5,808667	0,5	8,147350
5,817000	0,5	8,101150
5,825333	0,5	8,056300
5,833667	0,5	8,016300
5,842000	0,5	7,979350
5,850333	0,5	7,951050
5,858667	0,5	7,933350
5,867000	0,5	7,897900
5,875333	0,5	7,877850
5,883667	0,5	7,855100
5,892000	0,5	7,855150
5,900333	0,5	7,854550
5,908667	0,5	7,841900
5,917000	0,5	7,820100
5,925333	0,5	7,809750
5,933667	0,5	7,788550
5,942000	0,5	7,780800
5,950333	0,5	7,767200
5,958667	0,5	7,760800
5,967000	0,5	7,747950
5,975333	0,5	7,745800
5,983667	0,5	7,734550
5,992000	0,5	7,724850
6,000333	0,5	7,726250
6,008667	0,5	7,726250
6,017000	0,5	7,695950
6,025333	0,5	7,683700
6,033667	0,5	7,676800
6,042000	0,5	7,684500
6,050333	0,5	7,691800
6,058667	0,5	7,680050
6,067000	0,5	7,676200
6,075333	0,5	7,667750
6,083667	0,5	7,667100
6,092000	0,5	7,664450
6,100333	0,5	7,666950
6,108667	0,5	7,657400
6,117000	0,5	7,662300
6,125333	0,5	7,659950
6,133667	0,5	7,657500
6,142000	0,5	7,647650
6,150333	0,5	7,671400
6,158667	0,5	7,660300
6,167000	0,5	7,659500
6,175333	0,5	7,664400
6,183667	0,5	7,673550
6,192000	0,5	7,698300
6,200333	0,5	7,705600
6,208667	0,5	7,707400
6,217000	0,5	7,709450
6,225333	0,5	7,715250
6,233667	0,5	7,718250
6,242000	0,5	7,725050
6,250333	0,5	7,723600
6,258667	0,5	7,726250
6,267000	0,5	7,725200
6,275333	0,5	7,723400
6,283667	0,5	7,715950
6,292000	0,5	7,708750
6,300333	0,5	7,714500
6,308667	0,5	7,687650
6,317000	0,5	7,662850
6,325333	0,5	7,652950
6,333667	0,5	7,635350
6,342000	0,5	7,645500
6,350333	0,5	7,618550
6,358667	0,5	7,602700
6,367000	0,5	7,585600
6,375333	0,5	7,582350
6,383667	0,5	7,572300
6,392000	0,5	7,563750
6,400333	0,5	7,557300
6,408667	0,5	7,556950
6,417000	0,5	7,560650
6,425333	0,5	7,566100
6,433667	0,5	7,576850
6,442000	0,5	7,588050
6,450333	0,5	7,623850
6,458667	0,5	7,637900
6,467000	0,5	7,673700
6,475333	0,5	7,721100
6,483667	0,5	7,783400
6,492000	0,5	7,852150
6,500333	0,5	7,891050
6,508667	0,5	7,924850
6,517000	0,5	7,959300
6,525333	0,5	7,970850
6,533667	0,5	7,975650
6,542000	0,5	7,960550
6,550333	0,5	7,942450
6,558667	0,5	7,910000
6,567000	0,5	7,885050
6,575333	0,5	7,850550
6,583667	0,5	7,814550
6,592000	0,5	7,788450
6,600333	0,5	7,763150
6,608667	0,5	7,728900
6,617000	0,5	7,705050
6,625333	0,5	7,692000
6,633667	0,5	7,685050
6,642000	0,5	7,681600
6,650333	0,5	7,653000
6,658667	0,5	7,648400
6,667000	0,5	7,637000
6,675333	0,5	7,633600
6,683667	0,5	7,623600
6,692000	0,5	7,618700
6,700333	0,5	7,607850
6,708667	0,5	7,610850
6,717000	0,5	7,616000
6,725333	0,5	7,620000
6,733667	0,5	7,628350
6,742000	0,5	7,660200
6,750333	0,5	7,682650
6,758667	0,5	7,715800
6,767000	0,5	7,758200
6,775333	0,5	7,823000
6,783667	0,5	7,903150
6,792000	0,5	7,975750
6,800333	0,5	8,054900
6,808667	0,5	8,141500
6,817000	0,5	8,241550
6,825333	0,5	8,350700
6,833667	0,5	8,494050
6,842000	0,5	8,665150
6,850333	0,5	8,901000
6,858667	0,5	9,223450
6,867000	0,5	9,674200
6,875333	0,5	10,298150
6,883667	0,5	11,169600
6,892000	0,5	12,316550
6,900333	0,5	13,741950
6,908667	0,5	15,418500
6,917000	0,5	17,249700
6,925333	0,5	19,073100
6,933667	0,5	20,712150
6,942000	0,5	21,947200
6,950333	0,5	22,656250
6,958667	0,5	22,781900
6,967000	0,5	22,345550
6,975333	0,5	21,424700
6,983667	0,5	20,140550
6,992000	0,5	18,638000
7,000333	0,5	17,035350
7,008667	0,5	15,456300
7,017000	0,5	13,979450
7,025333	0,5	12,680350
7,033667	0,5	11,587950
7,042000	0,5	10,703400
7,050333	0,5	10,000000
7,058667	0,5	9,466350
7,067000	0,5	9,066300
7,075333	0,5	8,783950
7,083667	0,5	8,575050
7,092000	0,5	8,418750
7,100333	0,5	8,297050
7,108667	0,5	8,208350
7,117000	0,5	8,118600
7,125333	0,5	8,025000
7,133667	0,5	7,922750
7,142000	0,5	7,819900
7,150333	0,5	7,721850
7,158667	0,5	7,634850
7,167000	0,5	7,565100
7,175333	0,5	7,499550
7,183667	0,5	7,464350
7,192000	0,5	7,418100
7,200333	0,5	7,374250
7,208667	0,5	7,340500
7,217000	0,5	7,312750
7,225333	0,5	7,295800
7,233667	0,5	7,270950
7,242000	0,5	7,236350
7,250333	0,5	7,214600
7,258667	0,5	7,184200
7,267000	0,5	7,160050
7,275333	0,5	7,138900
7,283667	0,5	7,121900
7,292000	0,5	7,105500
7,300333	0,5	7,089400
7,308667	0,5	7,076650
7,317000	0,5	7,054850
7,325333	0,5	7,036100
7,333667	0,5	7,040250
7,342000	0,5	7,028150
7,350333	0,5	7,025600
7,358667	0,5	7,028250
7,367000	0,5	7,044450
7,375333	0,5	7,072450
7,383667	0,5	7,079650
7,392000	0,5	7,076600
7,400333	0,5	7,053950
7,408667	0,5	7,019350
7,417000	0,5	6,968650
7,425333	0,5	6,920800
7,433667	0,5	6,877650
7,442000	0,5	6,841500
7,450333	0,5	6,812950
7,458667	0,5	6,789600
7,467000	0,5	6,764250
7,475333	0,5	6,752000
7,483667	0,5	6,743900
7,492000	0,5	6,721050
7,500333	0,5	6,688650
7,508667	0,5	6,659550
7,517000	0,5	6,634850
7,525333	0,5	6,621900
7,533667	0,5	6,608000
7,542000	0,5	6,601600
7,550333	0,5	6,611500
7,558667	0,5	6,617600
7,567000	0,5	6,626450
7,575333	0,5	6,628100
7,583667	0,5	6,622750
7,592000	0,5	6,611500
7,600333	0,5	6,596650
7,608667	0,5	6,586000
7,617000	0,5	6,589500
7,625333	0,5	6,634900
7,633667	0,5	6,748900
7,642000	0,5	6,937850
7,650333	0,5	7,183200
7,658667	0,5	7,425800
7,667000	0,5	7,605900
7,675333	0,5	7,689900
7,683667	0,5	7,656600
7,692000	0,5	7,537900
7,700333	0,5	7,362700
7,708667	0,5	7,153800
7,717000	0,5	6,955000
7,725333	0,5	6,783500
7,733667	0,5	6,653200
7,742000	0,5	6,571400
7,750333	0,5	6,527350
7,758667	0,5	6,513950
7,767000	0,5	6,525400
7,775333	0,5	6,570900
7,783667	0,5	6,622050
7,792000	0,5	6,660900
7,800333	0,5	6,676450
7,808667	0,5	6,654850
7,817000	0,5	6,632750
7,825333	0,5	6,606850
7,833667	0,5	6,604450
7,842000	0,5	6,637050
7,850333	0,5	6,703450
7,858667	0,5	6,803500
7,867000	0,5	6,934500
7,875333	0,5	7,102400
7,883667	0,5	7,334600
7,892000	0,5	7,671900
7,900333	0,5	8,167750
7,908667	0,5	8,876300
7,917000	0,5	9,864450
7,925333	0,5	11,188300
7,933667	0,5	12,889150
7,942000	0,5	15,007200
7,950333	0,5	17,545950
7,958667	0,5	20,415750
7,967000	0,5	23,382850
7,975333	0,5	26,047100
7,983667	0,5	26,051350
7,992000	0,5	29,053050
8,000333	0,5	28,807550
8,008667	0,5	27,410000
8,017000	0,5	25,101350
8,025333	0,5	22,281850
8,033667	0,5	19,427850
8,042000	0,5	16,954350
8,050333	0,5	15,113850
8,058667	0,5	14,000050
8,067000	0,5	13,645100
8,075333	0,5	14,170250
8,083667	0,5	16,044200
8,092000	0,5	20,317450
8,100333	0,5	28,497150
8,108667	0,5	41,538451
8,117000	0,5	58,114601
8,125333	0,5	73,929151
8,133667	0,5	83,508701
8,142000	0,5	83,574101
8,150333	0,5	74,750951
8,158667	0,5	60,744651
8,167000	0,5	45,869451
8,175333	0,5	33,141300
8,183667	0,5	23,756500
8,192000	0,5	17,566800
8,200333	0,5	13,776100
8,208667	0,5	11,538950
8,217000	0,5	10,209800
8,225333	0,5	9,378500
8,233667	0,5	8,824050
8,242000	0,5	8,446950
8,250333	0,5	8,196350
8,258667	0,5	8,034250
8,267000	0,5	7,898600
8,275333	0,5	7,731000
8,283667	0,5	7,525750
8,292000	0,5	7,316750
8,300333	0,5	7,149100
8,308667	0,5	7,035850
8,317000	0,5	6,968750
8,325333	0,5	6,915500
8,333667	0,5	6,854000
8,342000	0,5	6,771000
8,350333	0,5	6,678150
8,358667	0,5	6,594000
8,367000	0,5	6,543350
8,375333	0,5	6,506550
8,383667	0,5	6,469500
8,392000	0,5	6,423950
8,400333	0,5	6,378950
8,408667	0,5	6,341600
8,417000	0,5	6,316250
8,425333	0,5	6,306050
8,433667	0,5	6,310900
8,442000	0,5	6,319750
8,450333	0,5	6,317100
8,458667	0,5	6,302600
8,467000	0,5	6,286500
8,475333	0,5	6,282500
8,483667	0,5	6,326350
8,492000	0,5	6,414500
8,500333	0,5	6,509400
8,508667	0,5	6,553200
8,517000	0,5	6,526800
8,525333	0,5	6,437950
8,533667	0,5	6,332850
8,542000	0,5	6,237900
8,550333	0,5	6,164550
8,558667	0,5	6,106500
8,567000	0,5	6,052750
8,575333	0,5	6,018250
8,583667	0,5	6,005850
8,592000	0,5	6,010850
8,600333	0,5	6,033050
8,608667	0,5	6,067650
8,617000	0,5	6,116800
8,625333	0,5	6,203200
8,633667	0,5	6,338300
8,642000	0,5	6,519000
8,650333	0,5	6,706200
8,658667	0,5	6,854250
8,667000	0,5	6,938700
8,675333	0,5	6,929750
8,683667	0,5	6,854900
8,692000	0,5	6,766550
8,700333	0,5	6,713800
8,708667	0,5	6,716300
8,717000	0,5	6,752700
8,725333	0,5	6,793550
8,733667	0,5	6,858900
8,742000	0,5	7,008600
8,750333	0,5	7,273000
8,758667	0,5	7,639350
8,767000	0,5	8,062350
8,775333	0,5	8,526100
8,783667	0,5	9,087300
8,792000	0,5	9,910450
8,800333	0,5	11,377200
8,808667	0,5	14,370700
8,817000	0,5	20,404400
8,825333	0,5	30,936650
8,833667	0,5	45,586301
8,842000	0,5	60,702501
8,850333	0,5	70,673801
8,858667	0,5	71,448401
8,867000	0,5	63,218501
8,875333	0,5	49,901751
8,883667	0,5	36,192001
8,892000	0,5	25,179400
8,900333	0,5	17,709700
8,908667	0,5	13,166850
8,917000	0,5	10,535700
8,925333	0,5	8,998550
8,933667	0,5	8,078050
8,942000	0,5	7,507200
8,950333	0,5	7,156900
8,958667	0,5	6,930000
8,967000	0,5	6,770650
8,975333	0,5	6,639450
8,983667	0,5	6,534350
8,992000	0,5	6,449150
9,000333	0,5	6,395400
9,008667	0,5	6,357100
9,017000	0,5	6,343100
9,025333	0,5	6,348900
9,033667	0,5	6,386900
9,042000	0,5	6,464400
9,050333	0,5	6,584400
9,058667	0,5	6,723450
9,067000	0,5	6,842750
9,075333	0,5	6,924500
9,083667	0,5	6,978600
9,092000	0,5	7,029750
9,100333	0,5	7,103800
9,108667	0,5	7,208350
9,117000	0,5	7,249100
9,125333	0,5	7,207600
9,133667	0,5	7,141450
9,142000	0,5	7,103400
9,150333	0,5	7,114100
9,158667	0,5	7,185900
9,167000	0,5	7,327200
9,175333	0,5	7,566800
9,183667	0,5	8,015550
9,192000	0,5	8,820700
9,200333	0,5	10,354050
9,208667	0,5	12,556000
9,217000	0,5	14,209250
9,225333	0,5	14,425100
9,233667	0,5	13,296600
9,242000	0,5	12,120300
9,250333	0,5	11,360150
9,258667	0,5	10,998250
9,267000	0,5	10,911000
9,275333	0,5	11,055500
9,283667	0,5	11,424150
9,292000	0,5	11,966150
9,300333	0,5	12,560550
9,308667	0,5	13,065350
9,317000	0,5	13,368300
9,325333	0,5	13,406950
9,333667	0,5	13,158800
9,342000	0,5	12,671100
9,350333	0,5	12,005400
9,358667	0,5	11,253850
9,367000	0,5	10,516550
9,375333	0,5	9,869050
9,383667	0,5	9,378150
9,392000	0,5	9,077200
9,400333	0,5	8,972250
9,408667	0,5	9,007200
9,417000	0,5	9,100250
9,425333	0,5	9,163950
9,433667	0,5	9,133700
9,442000	0,5	8,978200
9,450333	0,5	8,705300
9,458667	0,5	8,358700
9,467000	0,5	7,996450
9,475333	0,5	7,666950
9,483667	0,5	7,391550
9,492000	0,5	7,181350
9,500333	0,5	7,022550
9,508667	0,5	6,893750
9,517000	0,5	6,792650
9,525333	0,5	6,708150
9,533667	0,5	6,637350
9,542000	0,5	6,568050
9,550333	0,5	6,495400
9,558667	0,5	6,402000
9,567000	0,5	6,281850
9,575333	0,5	6,145450
9,583667	0,5	6,010100
9,592000	0,5	5,882500
9,600333	0,5	5,767100
9,608667	0,5	5,664850
9,617000	0,5	5,578700
9,625333	0,5	5,502600
9,633667	0,5	5,449450
9,642000	0,5	5,399600
9,650333	0,5	5,369750
9,658667	0,5	5,352000
9,667000	0,5	5,338750
9,675333	0,5	5,341050
9,683667	0,5	5,343450
9,692000	0,5	5,356600
9,700333	0,5	5,382100
9,708667	0,5	5,405450
9,717000	0,5	5,429400
9,725333	0,5	5,451000
9,733667	0,5	5,475500
9,742000	0,5	5,492350
9,750333	0,5	5,506750
9,758667	0,5	5,510700
9,767000	0,5	5,497450
9,775333	0,5	5,475050
9,783667	0,5	5,446000
9,792000	0,5	5,423000
9,800333	0,5	5,415100
9,808667	0,5	5,435350
9,817000	0,5	5,485200
9,825333	0,5	5,578300
9,833667	0,5	5,711100
9,842000	0,5	5,880050
9,850333	0,5	6,079450
9,858667	0,5	6,284600
9,867000	0,5	6,483600
9,875333	0,5	6,675650
9,883667	0,5	6,864350
9,892000	0,5	7,055650
9,900333	0,5	7,256700
9,908667	0,5	7,462950
9,917000	0,5	7,670150
9,925333	0,5	7,874800
9,933667	0,5	8,073300
9,942000	0,5	8,259800
9,950333	0,5	8,438300
9,958667	0,5	8,614700
9,967000	0,5	8,783800
9,975333	0,5	8,948000
9,983667	0,5	9,108150
9,992000	0,5	9,258700
10,000333	0,5	9,400150
10,008667	0,5	9,508150
10,017000	0,5	9,569050
10,025333	0,5	9,562950
10,033667	0,5	9,467600
10,042000	0,5	9,241600
10,050333	0,5	8,881800
10,058667	0,5	8,401650
10,067000	0,5	7,840300
10,075333	0,5	7,266700
10,083667	0,5	6,735350
10,092000	0,5	6,286700
10,100333	0,5	5,938150
10,108667	0,5	5,688450
10,117000	0,5	5,534650
10,125333	0,5	5,451750
10,133667	0,5	5,414350
10,142000	0,5	5,416100
10,150333	0,5	5,421150
10,158667	0,5	5,420000
10,167000	0,5	5,395400
10,175333	0,5	5,353450
10,183667	0,5	5,303750
10,192000	0,5	5,242400
10,200333	0,5	5,184350
10,208667	0,5	5,132150
10,217000	0,5	5,082900
10,225333	0,5	5,040550
10,233667	0,5	4,999100
10,242000	0,5	4,961700
10,250333	0,5	4,926800
10,258667	0,5	4,897050
10,267000	0,5	4,875600
10,275333	0,5	4,860100
10,283667	0,5	4,856050
10,292000	0,5	4,865850
10,300333	0,5	4,878100
10,308667	0,5	4,892000
10,317000	0,5	4,909600
10,325333	0,5	4,923650
10,333667	0,5	4,944350
10,342000	0,5	4,960900
10,350333	0,5	4,982800
10,358667	0,5	5,004400
10,367000	0,5	5,037750
10,375333	0,5	5,077100
10,383667	0,5	5,125850
10,392000	0,5	5,182600
10,400333	0,5	5,245350
10,408667	0,5	5,307350
10,417000	0,5	5,355050
10,425333	0,5	5,381950
10,433667	0,5	5,378550
10,442000	0,5	5,361350
10,450333	0,5	5,318950
10,458667	0,5	5,263300
10,467000	0,5	5,202600
10,475333	0,5	5,141550
10,483667	0,5	5,074750
10,492000	0,5	5,004600
10,500333	0,5	4,935900
10,508667	0,5	4,872400
10,517000	0,5	4,820400
10,525333	0,5	4,791100
10,533667	0,5	4,777850
10,542000	0,5	4,786600
10,550333	0,5	4,802200
10,558667	0,5	4,825150
10,567000	0,5	4,849650
10,575333	0,5	4,867250
10,583667	0,5	4,878050
10,592000	0,5	4,897250
10,600333	0,5	4,918500
10,608667	0,5	4,946500
10,617000	0,5	4,987850
10,625333	0,5	5,017750
10,633667	0,5	5,037800
10,642000	0,5	5,024250
10,650333	0,5	4,978150
10,658667	0,5	4,909050
10,667000	0,5	4,827700
10,675333	0,5	4,745700
10,683667	0,5	4,677800
10,692000	0,5	4,613000
10,700333	0,5	4,558700
10,708667	0,5	4,508200
10,717000	0,5	4,459400
10,725333	0,5	4,416350
10,733667	0,5	4,388400
10,742000	0,5	4,369500
10,750333	0,5	4,365200
10,758667	0,5	4,376350
10,767000	0,5	4,393500
10,775333	0,5	4,425100
10,783667	0,5	4,462200
10,792000	0,5	4,520550
10,800333	0,5	4,585200
10,808667	0,5	4,659750
10,817000	0,5	4,726000
10,825333	0,5	4,761650
10,833667	0,5	4,751150
10,842000	0,5	4,697300
10,850333	0,5	4,615450
10,858667	0,5	4,520550
10,867000	0,5	4,426450
10,875333	0,5	4,346450
10,883667	0,5	4,283400
10,892000	0,5	4,231700
10,900333	0,5	4,184000
10,908667	0,5	4,145300
10,917000	0,5	4,110300
10,925333	0,5	4,091250
10,933667	0,5	4,088450
10,942000	0,5	4,095550
10,950333	0,5	4,121350
10,958667	0,5	4,168050
10,967000	0,5	4,230250
10,975333	0,5	4,313800
10,983667	0,5	4,401400
10,992000	0,5	4,463550
11,000333	0,5	4,484650
11,008667	0,5	4,454950
11,017000	0,5	4,378050
11,025333	0,5	4,271450
11,033667	0,5	4,166250
11,042000	0,5	4,066850
11,050333	0,5	3,983850
11,058667	0,5	3,914450
11,067000	0,5	3,865800
11,075333	0,5	3,830450
11,083667	0,5	3,806500
11,092000	0,5	3,794800
11,100333	0,5	3,803400
11,108667	0,5	3,829350
11,117000	0,5	3,877050
11,125333	0,5	3,949300
11,133667	0,5	4,031900
11,142000	0,5	4,108450
11,150333	0,5	4,159300
11,158667	0,5	4,167350
11,167000	0,5	4,121650
11,175333	0,5	4,050550
11,183667	0,5	3,957300
11,192000	0,5	3,859950
11,200333	0,5	3,775800
11,208667	0,5	3,708750
11,217000	0,5	3,664350
11,225333	0,5	3,638150
11,233667	0,5	3,612750
11,242000	0,5	3,602850
11,250333	0,5	3,594900
11,258667	0,5	3,589800
11,267000	0,5	3,584450
11,275333	0,5	3,576150
11,283667	0,5	3,558750
11,292000	0,5	3,519300
11,300333	0,5	3,471850
11,308667	0,5	3,417250
11,317000	0,5	3,348450
11,325333	0,5	3,302150
11,333667	0,5	3,266850
11,342000	0,5	3,245800
11,350333	0,5	3,245350
11,358667	0,5	3,247750
11,367000	0,5	3,271950
11,375333	0,5	3,289750
11,383667	0,5	3,311950
11,392000	0,5	3,334300
11,400333	0,5	3,358750
11,408667	0,5	3,378700
11,417000	0,5	3,391150
11,425333	0,5	3,389750
11,433667	0,5	3,374900
11,442000	0,5	3,339100
11,450333	0,5	3,299500
11,458667	0,5	3,257750
11,467000	0,5	3,211400
11,475333	0,5	3,184550
11,483667	0,5	3,155700
11,492000	0,5	3,135800
11,500333	0,5	3,124100
11,508667	0,5	3,116150
11,517000	0,5	3,121800
11,525333	0,5	3,128450
11,533667	0,5	3,133750
11,542000	0,5	3,138300
11,550333	0,5	3,143550
11,558667	0,5	3,137200
11,567000	0,5	3,131450
11,575333	0,5	3,126700
11,583667	0,5	3,122050
11,592000	0,5	3,119800
11,600333	0,5	3,127850
11,608667	0,5	3,137050
11,617000	0,5	3,153150
11,625333	0,5	3,182250
11,633667	0,5	3,210550
11,642000	0,5	3,247250
11,650333	0,5	3,281150
11,658667	0,5	3,316100
11,667000	0,5	3,357100
11,675333	0,5	3,390200
11,683667	0,5	3,427300
11,692000	0,5	3,458100
11,700333	0,5	3,490600
11,708667	0,5	3,512250
11,717000	0,5	3,531700
11,725333	0,5	3,529600
11,733667	0,5	3,523700
11,742000	0,5	3,513450
11,750333	0,5	3,502550
11,758667	0,5	3,489700
11,767000	0,5	3,493300
11,775333	0,5	3,501700
11,783667	0,5	3,516150
11,792000	0,5	3,534900
11,800333	0,5	3,551000
11,808667	0,5	3,568300
11,817000	0,5	3,588400
11,825333	0,5	3,605250
11,833667	0,5	3,624000
11,842000	0,5	3,651600
11,850333	0,5	3,694350
11,858667	0,5	3,772650
11,867000	0,5	3,896550
11,875333	0,5	4,089700
11,883667	0,5	4,358550
11,892000	0,5	4,699650
11,900333	0,5	5,073050
11,908667	0,5	5,432800
11,917000	0,5	5,719450
11,925333	0,5	5,884000
11,933667	0,5	5,902200
11,942000	0,5	5,781900
11,950333	0,5	5,552850
11,958667	0,5	5,261350
11,967000	0,5	4,944350
11,975333	0,5	4,641350
11,983667	0,5	4,373300
11,992000	0,5	4,149150
12,000333	0,5	3,979500
12,008667	0,5	3,856700
12,017000	0,5	3,775500
12,025333	0,5	3,727950
12,033667	0,5	3,709400
12,042000	0,5	3,713200
12,050333	0,5	3,729350
12,058667	0,5	3,767350
12,067000	0,5	3,819900
12,075333	0,5	3,872000
12,083667	0,5	3,920550
12,092000	0,5	3,955150
12,100333	0,5	3,987750
12,108667	0,5	4,010500
12,117000	0,5	4,028300
12,125333	0,5	4,038250
12,133667	0,5	4,049250
12,142000	0,5	4,060350
12,150333	0,5	4,075150
12,158667	0,5	4,100950
12,167000	0,5	4,139450
12,175333	0,5	4,197400
12,183667	0,5	4,275700
12,192000	0,5	4,382550
12,200333	0,5	4,489150
12,208667	0,5	4,609600
12,217000	0,5	4,705950
12,225333	0,5	4,760700
12,233667	0,5	4,761400
12,242000	0,5	4,705050
12,250333	0,5	4,602800
12,258667	0,5	4,472700
12,267000	0,5	4,327800
12,275333	0,5	4,199950
12,283667	0,5	4,086600
12,292000	0,5	4,018100
12,300333	0,5	3,971050
12,308667	0,5	3,954300
12,317000	0,5	3,950100
12,325333	0,5	3,954200
12,333667	0,5	3,959200
12,342000	0,5	3,954600
12,350333	0,5	3,929100
12,358667	0,5	3,908950
12,367000	0,5	3,864400
12,375333	0,5	3,814250
12,383667	0,5	3,761100
12,392000	0,5	3,701350
12,400333	0,5	3,662000
12,408667	0,5	3,619900
12,417000	0,5	3,592350
12,425333	0,5	3,565300
12,433667	0,5	3,548900
12,442000	0,5	3,530850
12,450333	0,5	3,521600
12,458667	0,5	3,506250
12,467000	0,5	3,495650
12,475333	0,5	3,487450
12,483667	0,5	3,492050
12,492000	0,5	3,499150
12,500333	0,5	3,515550
12,508667	0,5	3,548200
12,517000	0,5	3,568550
12,525333	0,5	3,584300
12,533667	0,5	3,590450
12,542000	0,5	3,597100
12,550333	0,5	3,612350
12,558667	0,5	3,634800
12,567000	0,5	3,659150
12,575333	0,5	3,694200
12,583667	0,5	3,740600
12,592000	0,5	3,800450
12,600333	0,5	3,862650
12,608667	0,5	3,927600
12,617000	0,5	3,986900
12,625333	0,5	4,054800
12,633667	0,5	4,121250
12,642000	0,5	4,186700
12,650333	0,5	4,249700
12,658667	0,5	4,316250
12,667000	0,5	4,375600
12,675333	0,5	4,433450
12,683667	0,5	4,476250
12,692000	0,5	4,505900
12,700333	0,5	4,533250
12,708667	0,5	4,540750
12,717000	0,5	4,532650
12,725333	0,5	4,503150
12,733667	0,5	4,455300
12,742000	0,5	4,394400
12,750333	0,5	4,338550
12,758667	0,5	4,276150
12,767000	0,5	4,210750
12,775333	0,5	4,127950
12,783667	0,5	4,034000
12,792000	0,5	3,931800
12,800333	0,5	3,845250
12,808667	0,5	3,763700
12,817000	0,5	3,707600
12,825333	0,5	3,688800
12,833667	0,5	3,703800
12,842000	0,5	3,750400
12,850333	0,5	3,810750
12,858667	0,5	3,861900
12,867000	0,5	3,911650
12,875333	0,5	3,922400
12,883667	0,5	3,885500
12,892000	0,5	3,847450
12,900333	0,5	3,926450
12,908667	0,5	4,338700
12,917000	0,5	4,809850
12,925333	0,5	5,149550
12,933667	0,5	5,524500
12,942000	0,5	5,812700
12,950333	0,5	5,587400
12,958667	0,5	5,214050
12,967000	0,5	4,725150
12,975333	0,5	4,020100
12,983667	0,5	3,489700
12,992000	0,5	3,162200
13,000333	0,5	2,937850
13,008667	0,5	2,771250
13,017000	0,5	2,638250
13,025333	0,5	2,531400
13,033667	0,5	2,443550
13,042000	0,5	2,369800
13,050333	0,5	2,306100
13,058667	0,5	2,255250
13,067000	0,5	2,219800
13,075333	0,5	2,195950
13,083667	0,5	2,165800
13,092000	0,5	2,156250
13,100333	0,5	2,145400
13,108667	0,5	2,129700
13,117000	0,5	2,114250
13,125333	0,5	2,087800
13,133667	0,5	2,070800
13,142000	0,5	2,056950
13,150333	0,5	2,048250
13,158667	0,5	2,030550
13,167000	0,5	2,022800
13,175333	0,5	2,013100
13,183667	0,5	2,008500
13,192000	0,5	2,000950
13,200333	0,5	1,998550
13,208667	0,5	1,991650
13,217000	0,5	1,988400
13,225333	0,5	1,984500
13,233667	0,5	1,963550
13,242000	0,5	1,957400
13,250333	0,5	1,946800
13,258667	0,5	1,932250
13,267000	0,5	1,919550
13,275333	0,5	1,903500
13,283667	0,5	1,902300
13,292000	0,5	1,905250
13,300333	0,5	1,900800
13,308667	0,5	1,903350
13,317000	0,5	1,900950
13,325333	0,5	1,906800
13,333667	0,5	1,907450
13,342000	0,5	1,909250
13,350333	0,5	1,903450
13,358667	0,5	1,899000
13,367000	0,5	1,897700
13,375333	0,5	1,894650
13,383667	0,5	1,874450
13,392000	0,5	1,884200
13,400333	0,5	1,877250
13,408667	0,5	1,880150
13,417000	0,5	1,883800
13,425333	0,5	1,885900
13,433667	0,5	1,914250
13,442000	0,5	1,939850
13,450333	0,5	1,982250
13,458667	0,5	2,038050
13,467000	0,5	2,124600
13,475333	0,5	2,226950
13,483667	0,5	2,368050
13,492000	0,5	2,540800
13,500333	0,5	2,747800
13,508667	0,5	2,990750
13,517000	0,5	3,258900
13,525333	0,5	3,529800
13,533667	0,5	3,816150
13,542000	0,5	4,091950
13,550333	0,5	4,344650
13,558667	0,5	4,561200
13,567000	0,5	4,735900
13,575333	0,5	4,875950
13,583667	0,5	4,982450
13,592000	0,5	5,039200
13,600333	0,5	5,076850
13,608667	0,5	5,082850
13,617000	0,5	5,068500
13,625333	0,5	5,044350
13,633667	0,5	5,014050
13,642000	0,5	4,978750
13,650333	0,5	4,944000
13,658667	0,5	4,919300
13,667000	0,5	4,890300
13,675333	0,5	4,865900
13,683667	0,5	4,848350
13,692000	0,5	4,840200
13,700333	0,5	4,825350
13,708667	0,5	4,815700
13,717000	0,5	4,800200
13,725333	0,5	4,793100
13,733667	0,5	4,795750
13,742000	0,5	4,789350
13,750333	0,5	4,792200
13,758667	0,5	4,791850
13,767000	0,5	4,793050
13,775333	0,5	4,791500
13,783667	0,5	4,791550
13,792000	0,5	4,783200
13,800333	0,5	4,781450
13,808667	0,5	4,781000
13,817000	0,5	4,776650
13,825333	0,5	4,766450
13,833667	0,5	4,768300
13,842000	0,5	4,763800
13,850333	0,5	4,760350
13,858667	0,5	4,749500
13,867000	0,5	4,740500
13,875333	0,5	4,742050
13,883667	0,5	4,745650
13,892000	0,5	4,744150
13,900333	0,5	4,745800
13,908667	0,5	4,737400
13,917000	0,5	4,738800
13,925333	0,5	4,733050
13,933667	0,5	4,729900
13,942000	0,5	4,727500
13,950333	0,5	4,730500
13,958667	0,5	4,742200
13,967000	0,5	4,736800
13,975333	0,5	4,738750
13,983667	0,5	4,743800
13,992000	0,5	4,740650
14,000333	0,5	4,732750
14,008667	0,5	4,721050
14,017000	0,5	4,708400
14,025333	0,5	4,706550
14,033667	0,5	4,700550
14,042000	0,5	4,701350
14,050333	0,5	4,694300
14,058667	0,5	4,697200
14,067000	0,5	4,693700
14,075333	0,5	4,695100
14,083667	0,5	4,686650
14,092000	0,5	4,677600
14,100333	0,5	4,667700
14,108667	0,5	4,660750
14,117000	0,5	4,640500
14,125333	0,5	4,642450
14,133667	0,5	4,643200
14,142000	0,5	4,631450
14,150333	0,5	4,625750
14,158667	0,5	4,604850
14,167000	0,5	4,603700
14,175333	0,5	4,601350
14,183667	0,5	4,601300
14,192000	0,5	4,593750
14,200333	0,5	4,596200
14,208667	0,5	4,587450
14,217000	0,5	4,589350
14,225333	0,5	4,584050
14,233667	0,5	4,584300
14,242000	0,5	4,579350
14,250333	0,5	4,575400
14,258667	0,5	4,575400
14,267000	0,5	4,564350
14,275333	0,5	4,570650
14,283667	0,5	4,572250
14,292000	0,5	4,566600
14,300333	0,5	4,559400
14,308667	0,5	4,543900
14,317000	0,5	4,551200
14,325333	0,5	4,555150
14,333667	0,5	4,549100
14,342000	0,5	4,547700
14,350333	0,5	4,543550
14,358667	0,5	4,547000
14,367000	0,5	4,547900
14,375333	0,5	4,551900
14,383667	0,5	4,546000
14,392000	0,5	4,544450
14,400333	0,5	4,549450
14,408667	0,5	4,550550
14,417000	0,5	4,548250
14,425333	0,5	4,561500
14,433667	0,5	4,562250
14,442000	0,5	4,560100
14,450333	0,5	4,556350
14,458667	0,5	4,550650
14,467000	0,5	4,567750
14,475333	0,5	4,572700
14,483667	0,5	4,582050
14,492000	0,5	4,600100
14,500333	0,5	4,621100
14,508667	0,5	4,641050
14,517000	0,5	4,667800
14,525333	0,5	4,691200
14,533667	0,5	4,711650
14,542000	0,5	4,728000
14,550333	0,5	4,750900
14,558667	0,5	4,744800
14,567000	0,5	4,752150
14,575333	0,5	4,754600
14,583667	0,5	4,752650
14,592000	0,5	4,740750
14,600333	0,5	4,732750
14,608667	0,5	4,733200
14,617000	0,5	4,751200
14,625333	0,5	4,768800
14,633667	0,5	4,790100
14,642000	0,5	4,813300
14,650333	0,5	4,838300
14,658667	0,5	4,862750
14,667000	0,5	4,886250
14,675333	0,5	4,911850
14,683667	0,5	4,935900
14,692000	0,5	4,975000
14,700333	0,5	5,005400
14,708667	0,5	5,025850
14,717000	0,5	5,055150
14,725333	0,5	5,076100
14,733667	0,5	5,093200
14,742000	0,5	5,109900
14,750333	0,5	5,120150
14,758667	0,5	5,153050
14,767000	0,5	5,200800
14,775333	0,5	5,250450
14,783667	0,5	5,292850
14,792000	0,5	5,333100
14,800333	0,5	5,353950
14,808667	0,5	5,354650
14,817000	0,5	5,337850
14,825333	0,5	5,294550
14,833667	0,5	5,253250
14,842000	0,5	5,207900
14,850333	0,5	5,169750
14,858667	0,5	5,134400
14,867000	0,5	5,122350
14,875333	0,5	5,109150
14,883667	0,5	5,104050
14,892000	0,5	5,090700
14,900333	0,5	5,084300
14,908667	0,5	5,071300
14,917000	0,5	5,051500
14,925333	0,5	5,012650
14,933667	0,5	4,976650
14,942000	0,5	4,935000
14,950333	0,5	4,908150
14,958667	0,5	4,881400
14,967000	0,5	4,863950
14,975333	0,5	4,846850
14,983667	0,5	4,836050
14,992000	0,5	4,827550
15,000333	0,5	4,808200
15,008667	0,5	4,801850
15,017000	0,5	4,798250
15,025333	0,5	4,781400
15,033667	0,5	4,762300
15,042000	0,5	4,741900
15,050333	0,5	4,721850
15,058667	0,5	4,715100
15,067000	0,5	4,698900
15,075333	0,5	4,688650
15,083667	0,5	4,671550
15,092000	0,5	4,665250
15,100333	0,5	4,654050
15,108667	0,5	4,642650
15,117000	0,5	4,629450
15,125333	0,5	4,613950
15,133667	0,5	4,613850
15,142000	0,5	4,604000
15,150333	0,5	4,572050
15,158667	0,5	4,572950
15,167000	0,5	4,564200
15,175333	0,5	4,541700
15,183667	0,5	4,522750
15,192000	0,5	4,487500
15,200333	0,5	4,482550
15,208667	0,5	4,464650
15,217000	0,5	4,453250
15,225333	0,5	4,436700
15,233667	0,5	4,431500
15,242000	0,5	4,413350
15,250333	0,5	4,405400
15,258667	0,5	4,390450
15,267000	0,5	4,381950
15,275333	0,5	4,367000
15,283667	0,5	4,363850
15,292000	0,5	4,346650
15,300333	0,5	4,328000
15,308667	0,5	4,326250
15,317000	0,5	4,317100
15,325333	0,5	4,300500
15,333667	0,5	4,283000
15,342000	0,5	4,264500
15,350333	0,5	4,262150
15,358667	0,5	4,254100
15,367000	0,5	4,244200
15,375333	0,5	4,239250
15,383667	0,5	4,229000
15,392000	0,5	4,223750
15,400333	0,5	4,215450
15,408667	0,5	4,208100
15,417000	0,5	4,196850
15,425333	0,5	4,184000
15,433667	0,5	4,172800
15,442000	0,5	4,157350
15,450333	0,5	4,145400
15,458667	0,5	4,150850
15,467000	0,5	4,140450
15,475333	0,5	4,116400
15,483667	0,5	4,087600
15,492000	0,5	4,063650
15,500333	0,5	4,051050
15,508667	0,5	4,031950
15,517000	0,5	4,015850
15,525333	0,5	4,001150
15,533667	0,5	3,991050
15,542000	0,5	3,978550
15,550333	0,5	3,973950
15,558667	0,5	3,960950
15,567000	0,5	3,962950
15,575333	0,5	3,960700
15,583667	0,5	3,962500
15,592000	0,5	3,942900
15,600333	0,5	3,935400
15,608667	0,5	3,917550
15,617000	0,5	3,899300
15,625333	0,5	3,869450
15,633667	0,5	3,838100
15,642000	0,5	3,822150
15,650333	0,5	3,814700
15,658667	0,5	3,803200
15,667000	0,5	3,793950
15,675333	0,5	3,778250
15,683667	0,5	3,767950
15,692000	0,5	3,759250
15,700333	0,5	3,750000
15,708667	0,5	3,742900
15,717000	0,5	3,728250
15,725333	0,5	3,728750
15,733667	0,5	3,713950
15,742000	0,5	3,696550
15,750333	0,5	3,698150
15,758667	0,5	3,687000
15,767000	0,5	3,672400
15,775333	0,5	3,655350
15,783667	0,5	3,631600
15,792000	0,5	3,629000
15,800333	0,5	3,620650
15,808667	0,5	3,616900
15,817000	0,5	3,604100
15,825333	0,5	3,597000
15,833667	0,5	3,582150
15,842000	0,5	3,575900
15,850333	0,5	3,567800
15,858667	0,5	3,559250
15,867000	0,5	3,555550
15,875333	0,5	3,553050
15,883667	0,5	3,539100
15,892000	0,5	3,529300
15,900333	0,5	3,527950
15,908667	0,5	3,510350
15,917000	0,5	3,493050
15,925333	0,5	3,459050
15,933667	0,5	3,443350
15,942000	0,5	3,430950
15,950333	0,5	3,427500
15,958667	0,5	3,413750
15,967000	0,5	3,411650
15,975333	0,5	3,400750
15,983667	0,5	3,400700
15,992000	0,5	3,387650
16,000333	0,5	3,379000
16,008667	0,5	3,371900
16,017000	0,5	3,364800
16,025333	0,5	3,354050
16,033667	0,5	3,327700
16,042000	0,5	3,322300
16,050333	0,5	3,314400
16,058667	0,5	3,295350
16,067000	0,5	3,281650
16,075333	0,5	3,259250
16,083667	0,5	3,246550
16,092000	0,5	3,246600
16,100333	0,5	3,230100
16,108667	0,5	3,224050
16,117000	0,5	3,205350
16,125333	0,5	3,195050
16,133667	0,5	3,182450
16,142000	0,5	3,178800
16,150333	0,5	3,164900
16,158667	0,5	3,156050
16,167000	0,5	3,152650
16,175333	0,5	3,141300
16,183667	0,5	3,116700
16,192000	0,5	3,118650
16,200333	0,5	3,109700
16,208667	0,5	3,093700
16,217000	0,5	3,070450
16,225333	0,5	3,043950
16,233667	0,5	3,046400
16,242000	0,5	3,029350
16,250333	0,5	3,022500
16,258667	0,5	3,005350
16,267000	0,5	2,999650
16,275333	0,5	2,986050
16,283667	0,5	2,977800
16,292000	0,5	2,962400
16,300333	0,5	2,953900
16,308667	0,5	2,942600
16,317000	0,5	2,946150
16,325333	0,5	2,921700
16,333667	0,5	2,917350
16,342000	0,5	2,914150
16,350333	0,5	2,909000
16,358667	0,5	2,896900
16,367000	0,5	2,874350
16,375333	0,5	2,873100
16,383667	0,5	2,873050
16,392000	0,5	2,868300
16,400333	0,5	2,859950
16,408667	0,5	2,852150
16,417000	0,5	2,845150
16,425333	0,5	2,842950
16,433667	0,5	2,830100
16,442000	0,5	2,822300
16,450333	0,5	2,807150
16,458667	0,5	2,793350
16,467000	0,5	2,788450
16,475333	0,5	2,763500
16,483667	0,5	2,762100
16,492000	0,5	2,751100
16,500333	0,5	2,736750
16,508667	0,5	2,719350
16,517000	0,5	2,690450
16,525333	0,5	2,681800
16,533667	0,5	2,677450
16,542000	0,5	2,668350
16,550333	0,5	2,657350
16,558667	0,5	2,652500
16,567000	0,5	2,645400
16,575333	0,5	2,635850
16,583667	0,5	2,630850
16,592000	0,5	2,616900
16,600333	0,5	2,608500
16,608667	0,5	2,599400
16,617000	0,5	2,596300
16,625333	0,5	2,575100
16,633667	0,5	2,580350
16,642000	0,5	2,567400
16,650333	0,5	2,562350
16,658667	0,5	2,541400
16,667000	0,5	2,524050
16,675333	0,5	2,523250
16,683667	0,5	2,523600
16,692000	0,5	2,508450
16,700333	0,5	2,508800
16,708667	0,5	2,495100
16,717000	0,5	2,488300
16,725333	0,5	2,479750
16,733667	0,5	2,467000
16,742000	0,5	2,455000
16,750333	0,5	2,443400
16,758667	0,5	2,436950
16,767000	0,5	2,409200
16,775333	0,5	2,397250
16,783667	0,5	2,388000
16,792000	0,5	2,372900
16,800333	0,5	2,354600
16,808667	0,5	2,330750
16,817000	0,5	2,310300
16,825333	0,5	2,305200
16,833667	0,5	2,292750
16,842000	0,5	2,287450
16,850333	0,5	2,275800
16,858667	0,5	2,271850
16,867000	0,5	2,265050
16,875333	0,5	2,261450
16,883667	0,5	2,255150
16,892000	0,5	2,247700
16,900333	0,5	2,250100
16,908667	0,5	2,244700
16,917000	0,5	2,229300
16,925333	0,5	2,230400
16,933667	0,5	2,228350
16,942000	0,5	2,213450
16,950333	0,5	2,207050
16,958667	0,5	2,180250
16,967000	0,5	2,177650
16,975333	0,5	2,172850
16,983667	0,5	2,173400
16,992000	0,5	2,164450
17,000333	0,5	2,161100
17,008667	0,5	2,150850
17,017000	0,5	2,149400
17,025333	0,5	2,136000
17,033667	0,5	2,127250
17,042000	0,5	2,116850
17,050333	0,5	2,121450
17,058667	0,5	2,105300
17,067000	0,5	2,090150
17,075333	0,5	2,087550
17,083667	0,5	2,082050
17,092000	0,5	2,067450
17,100333	0,5	2,047850
17,108667	0,5	2,034750
17,117000	0,5	2,032500
17,125333	0,5	2,030250
17,133667	0,5	2,019450
17,142000	0,5	2,018550
17,150333	0,5	2,006550
17,158667	0,5	2,001250
17,167000	0,5	1,985250
17,175333	0,5	1,980300
17,183667	0,5	1,963950
17,192000	0,5	1,956050
17,200333	0,5	1,947850
17,208667	0,5	1,924050
17,217000	0,5	1,917450
17,225333	0,5	1,922350
17,233667	0,5	1,916300
17,242000	0,5	1,909800
17,250333	0,5	1,892900
17,258667	0,5	1,891800
17,267000	0,5	1,911050
17,275333	0,5	1,909700
17,283667	0,5	1,917750
17,292000	0,5	1,919400
17,300333	0,5	1,923750
17,308667	0,5	1,910700
17,317000	0,5	1,901650
17,325333	0,5	1,876750
17,333667	0,5	1,860900
17,342000	0,5	1,844600
17,350333	0,5	1,837250
17,358667	0,5	1,801750
17,367000	0,5	1,804450
17,375333	0,5	1,798100
17,383667	0,5	1,795850
17,392000	0,5	1,784850
17,400333	0,5	1,766400
17,408667	0,5	1,768350
17,417000	0,5	1,765300
17,425333	0,5	1,764800
17,433667	0,5	1,752900
17,442000	0,5	1,747700
17,450333	0,5	1,737400
17,458667	0,5	1,732650
17,467000	0,5	1,729400
17,475333	0,5	1,731350
17,483667	0,5	1,722950
17,492000	0,5	1,729800
17,500333	0,5	1,727300
17,508667	0,5	1,714350
17,517000	0,5	1,721350
17,525333	0,5	1,720800
17,533667	0,5	1,715350
17,542000	0,5	1,705000
17,550333	0,5	1,686450
17,558667	0,5	1,698650
17,567000	0,5	1,706550
17,575333	0,5	1,716650
17,583667	0,5	1,726700
17,592000	0,5	1,742950
17,600333	0,5	1,760000
17,608667	0,5	1,778650
17,617000	0,5	1,805100
17,625333	0,5	1,820850
17,633667	0,5	1,847300
17,642000	0,5	1,866650
17,650333	0,5	1,873300
17,658667	0,5	1,881100
17,667000	0,5	1,895300
17,675333	0,5	1,892750
17,683667	0,5	1,886100
17,692000	0,5	1,859750
17,700333	0,5	1,842350
17,708667	0,5	1,838800
17,717000	0,5	1,832050
17,725333	0,5	1,815750
17,733667	0,5	1,810950
17,742000	0,5	1,794100
17,750333	0,5	1,787100
17,758667	0,5	1,778250
17,767000	0,5	1,765350
17,775333	0,5	1,758600
17,783667	0,5	1,751950
17,792000	0,5	1,750150
17,800333	0,5	1,729950
17,808667	0,5	1,731150
17,817000	0,5	1,728650
17,825333	0,5	1,722950
17,833667	0,5	1,709450
17,842000	0,5	1,695650
17,850333	0,5	1,686200
17,858667	0,5	1,692350
17,867000	0,5	1,695350
17,875333	0,5	1,710150
17,883667	0,5	1,728150
17,892000	0,5	1,764350
17,900333	0,5	1,811100
17,908667	0,5	1,864950
17,917000	0,5	1,913050
17,925333	0,5	1,943950
17,933667	0,5	1,963050
17,942000	0,5	1,942450
17,950333	0,5	1,892450
17,958667	0,5	1,844150
17,967000	0,5	1,779750
17,975333	0,5	1,711000
17,983667	0,5	1,640550
17,992000	0,5	1,584250
18,000333	0,5	1,556100
18,008667	0,5	1,524850
18,017000	0,5	1,509800
18,025333	0,5	1,486050
18,033667	0,5	1,480300
18,042000	0,5	1,461300
18,050333	0,5	1,456900
18,058667	0,5	1,441250
18,067000	0,5	1,429950
18,075333	0,5	1,426100
18,083667	0,5	1,416700
18,092000	0,5	1,390850
18,100333	0,5	1,381300
18,108667	0,5	1,376150
18,117000	0,5	1,360850
18,125333	0,5	1,345150
18,133667	0,5	1,312950
18,142000	0,5	1,305900
18,150333	0,5	1,300800
18,158667	0,5	1,294700
18,167000	0,5	1,274800
18,175333	0,5	1,269950
18,183667	0,5	1,257050
18,192000	0,5	1,252450
18,200333	0,5	1,242950
18,208667	0,5	1,233300
18,217000	0,5	1,216100
18,225333	0,5	1,207900
18,233667	0,5	1,204600
18,242000	0,5	1,178450
18,250333	0,5	1,179650
18,258667	0,5	1,172500
18,267000	0,5	1,160700
18,275333	0,5	1,144050
18,283667	0,5	1,116450
18,292000	0,5	1,110350
18,300333	0,5	1,104750
18,308667	0,5	1,087850
18,317000	0,5	1,080900
18,325333	0,5	1,071400
18,333667	0,5	1,065050
18,342000	0,5	1,053000
18,350333	0,5	1,045900
18,358667	0,5	1,034300
18,367000	0,5	1,023950
18,375333	0,5	1,020400
18,383667	0,5	1,012150
18,392000	0,5	0,985950
18,400333	0,5	0,992200
18,408667	0,5	0,977000
18,417000	0,5	0,957350
18,425333	0,5	0,938350
18,433667	0,5	0,910900
18,442000	0,5	0,915650
18,450333	0,5	0,903650
18,458667	0,5	0,893450
18,467000	0,5	0,879300
18,475333	0,5	0,875750
18,483667	0,5	0,863350
18,492000	0,5	0,857550
18,500333	0,5	0,849100
18,508667	0,5	0,840350
18,517000	0,5	0,838550
18,525333	0,5	0,836100
18,533667	0,5	0,817750
18,542000	0,5	0,805500
18,550333	0,5	0,797150
18,558667	0,5	0,784200
18,567000	0,5	0,766550
18,575333	0,5	0,741950
18,583667	0,5	0,723400
18,592000	0,5	0,716450
18,600333	0,5	0,712450
18,608667	0,5	0,703100
18,617000	0,5	0,696500
18,625333	0,5	0,690850
18,633667	0,5	0,688750
18,642000	0,5	0,683700
18,650333	0,5	0,670250
18,658667	0,5	0,666950
18,667000	0,5	0,675000
18,675333	0,5	0,666800
18,683667	0,5	0,658500
18,692000	0,5	0,653500
18,700333	0,5	0,652200
18,708667	0,5	0,641700
18,717000	0,5	0,625500
18,725333	0,5	0,597950
18,733667	0,5	0,583750
18,742000	0,5	0,581800
18,750333	0,5	0,576250
18,758667	0,5	0,572750
18,767000	0,5	0,566050
18,775333	0,5	0,555050
18,783667	0,5	0,552450
18,792000	0,5	0,550000
18,800333	0,5	0,541800
18,808667	0,5	0,543100
18,817000	0,5	0,547700
18,825333	0,5	0,537300
18,833667	0,5	0,526450
18,842000	0,5	0,534400
18,850333	0,5	0,529950
18,858667	0,5	0,523150
18,867000	0,5	0,506850
18,875333	0,5	0,501650
18,883667	0,5	0,502850
18,892000	0,5	0,505000
18,900333	0,5	0,504000
18,908667	0,5	0,511600
18,917000	0,5	0,512900
18,925333	0,5	0,520700
18,933667	0,5	0,528850
18,942000	0,5	0,538750
18,950333	0,5	0,545900
18,958667	0,5	0,555500
18,967000	0,5	0,572150
18,975333	0,5	0,560950
18,983667	0,5	0,573850
18,992000	0,5	0,583200
19,000333	0,5	0,584300
19,008667	0,5	0,576550
19,017000	0,5	0,556250
19,025333	0,5	0,553300
19,033667	0,5	0,558050
19,042000	0,5	0,549150
19,050333	0,5	0,551100
19,058667	0,5	0,539500
19,067000	0,5	0,534750
19,075333	0,5	0,517300
19,083667	0,5	0,509600
19,092000	0,5	0,493550
19,100333	0,5	0,476450
19,108667	0,5	0,480600
19,117000	0,5	0,468950
19,125333	0,5	0,439650
19,133667	0,5	0,436300
19,142000	0,5	0,424400
19,150333	0,5	0,400450
19,158667	0,5	0,377900
19,167000	0,5	0,344250
19,175333	0,5	0,335050
19,183667	0,5	0,317650
19,192000	0,5	0,302550
19,200333	0,5	0,283050
19,208667	0,5	0,276950
19,217000	0,5	0,257100
19,225333	0,5	0,248500
19,233667	0,5	0,238750
19,242000	0,5	0,226750
19,250333	0,5	0,217750
19,258667	0,5	0,218200
19,267000	0,5	0,201600
19,275333	0,5	0,188500
19,283667	0,5	0,189800
19,292000	0,5	0,183450
19,300333	0,5	0,173650
19,308667	0,5	0,150250
19,317000	0,5	0,140400
19,325333	0,5	0,137950
19,333667	0,5	0,138700
19,342000	0,5	0,122050
19,350333	0,5	0,126600
19,358667	0,5	0,121300
19,367000	0,5	0,132900
19,375333	0,5	0,139800
19,383667	0,5	0,153450
19,392000	0,5	0,162050
19,400333	0,5	0,168800
19,408667	0,5	0,183400
19,417000	0,5	0,158550
19,425333	0,5	0,147700
19,433667	0,5	0,127250
19,442000	0,5	0,098700
19,450333	0,5	0,056300
19,458667	0,5	0,008400
19,467000	0,5	-0,016200
19,475333	0,5	-0,026500
19,483667	0,5	-0,044100
19,492000	0,5	-0,057900
19,500333	0,5	-0,077250
19,508667	0,5	-0,083650
19,517000	0,5	-0,092000
19,525333	0,5	-0,093200
19,533667	0,5	-0,102350
19,542000	0,5	-0,109600
19,550333	0,5	-0,102400
19,558667	0,5	-0,107000
19,567000	0,5	-0,125000
19,575333	0,5	-0,123150
19,583667	0,5	-0,140500
19,592000	0,5	-0,146900
19,600333	0,5	-0,169100
19,608667	0,5	-0,195150
19,617000	0,5	-0,196100
19,625333	0,5	-0,206250
19,633667	0,5	-0,205250
19,642000	0,5	-0,211600
19,650333	0,5	-0,207350
19,658667	0,5	-0,211300
19,667000	0,5	-0,198250
19,675333	0,5	-0,191800
19,683667	0,5	-0,183300
19,692000	0,5	-0,170700
19,700333	0,5	-0,155900
19,708667	0,5	-0,162200
19,717000	0,5	-0,154750
19,725333	0,5	-0,138550
19,733667	0,5	-0,127000
19,742000	0,5	-0,125250
19,750333	0,5	-0,125200
19,758667	0,5	-0,134350
19,767000	0,5	-0,142050
19,775333	0,5	-0,159900
19,783667	0,5	-0,203250
19,792000	0,5	-0,240350
19,800333	0,5	-0,286700
19,808667	0,5	-0,317350
19,817000	0,5	-0,347100
19,825333	0,5	-0,365350
19,833667	0,5	-0,385850
19,842000	0,5	-0,377300
19,850333	0,5	-0,383400
19,858667	0,5	-0,400250
19,867000	0,5	-0,404000
19,875333	0,5	-0,402300
19,883667	0,5	-0,417250
19,892000	0,5	-0,427450
19,900333	0,5	-0,449750
19,908667	0,5	-0,457250
19,917000	0,5	-0,452600
19,925333	0,5	-0,450900
19,933667	0,5	-0,442400
19,942000	0,5	-0,435300
19,950333	0,5	-0,409400
19,958667	0,5	-0,398750
19,967000	0,5	-0,382100
19,975333	0,5	-0,387000
19,983667	0,5	-0,397750
19,992000	0,5	-0,413250
20,000333	0,5	-0,442300
20,008667	0,5	-0,483200
20,017000	0,5	-0,495750
20,025333	0,5	-0,514400
20,033667	0,5	-0,530600
20,042000	0,5	-0,562150
20,050333	0,5	-0,576700
20,058667	0,5	-0,575050
20,067000	0,5	-0,583850
20,075333	0,5	-0,590800
20,083667	0,5	-0,596600
20,092000	0,5	-0,596950
20,100333	0,5	-0,604000
20,108667	0,5	-0,600200
20,117000	0,5	-0,605900
20,125333	0,5	-0,601850
20,133667	0,5	-0,601050
20,142000	0,5	-0,580100
20,150333	0,5	-0,594500
20,158667	0,5	-0,574150
20,167000	0,5	-0,564000
20,175333	0,5	-0,547100
20,183667	0,5	-0,545650
20,192000	0,5	-0,552350
20,200333	0,5	-0,537450
20,208667	0,5	-0,516950
20,217000	0,5	-0,513100
20,225333	0,5	-0,504600
20,233667	0,5	-0,515150
20,242000	0,5	-0,539900
20,250333	0,5	-0,582550
20,258667	0,5	-0,633050
20,267000	0,5	-0,669700
20,275333	0,5	-0,710500
20,283667	0,5	-0,721550
20,292000	0,5	-0,728450
20,300333	0,5	-0,751100
20,308667	0,5	-0,743850
20,317000	0,5	-0,743350
20,325333	0,5	-0,755200
20,333667	0,5	-0,762300
20,342000	0,5	-0,793300
20,350333	0,5	-0,778500
20,358667	0,5	-0,774000
20,367000	0,5	-0,765550
20,375333	0,5	-0,758600
20,383667	0,5	-0,728700
20,392000	0,5	-0,726500
20,400333	0,5	-0,723000
20,408667	0,5	-0,734450
20,417000	0,5	-0,757500
20,425333	0,5	-0,775950
20,433667	0,5	-0,785400
20,442000	0,5	-0,800350
20,450333	0,5	-0,819000
20,458667	0,5	-0,817250
20,467000	0,5	-0,829000
20,475333	0,5	-0,833450
20,483667	0,5	-0,856300
20,492000	0,5	-0,862100
20,500333	0,5	-0,858500
20,508667	0,5	-0,847500
20,517000	0,5	-0,850000
20,525333	0,5	-0,839200
20,533667	0,5	-0,840850
20,542000	0,5	-0,835850
20,550333	0,5	-0,833750
20,558667	0,5	-0,827550
20,567000	0,5	-0,814150
20,575333	0,5	-0,787450
20,583667	0,5	-0,760650
20,592000	0,5	-0,746700
20,600333	0,5	-0,735000
20,608667	0,5	-0,731500
20,617000	0,5	-0,743750
20,625333	0,5	-0,771900
20,633667	0,5	-0,799150
20,642000	0,5	-0,813050
20,650333	0,5	-0,817850
20,658667	0,5	-0,831100
20,667000	0,5	-0,832300
20,675333	0,5	-0,841100
20,683667	0,5	-0,839900
20,692000	0,5	-0,842900
20,700333	0,5	-0,843850
20,708667	0,5	-0,851450
20,717000	0,5	-0,860350
20,725333	0,5	-0,847500
20,733667	0,5	-0,859450
20,742000	0,5	-0,877950
20,750333	0,5	-0,883050
20,758667	0,5	-0,889700
20,767000	0,5	-0,900550
20,775333	0,5	-0,919450
20,783667	0,5	-0,939550
20,792000	0,5	-0,937200
20,800333	0,5	-0,942600
20,808667	0,5	-0,939650
20,817000	0,5	-0,947500
20,825333	0,5	-0,942650
20,833667	0,5	-0,944600
20,842000	0,5	-0,940250
20,850333	0,5	-0,932500
20,858667	0,5	-0,928600
20,867000	0,5	-0,910150
20,875333	0,5	-0,903650
20,883667	0,5	-0,919550
20,892000	0,5	-0,936050
20,900333	0,5	-0,947000
20,908667	0,5	-0,960700
20,917000	0,5	-0,967100
20,925333	0,5	-0,994350
20,933667	0,5	-0,992250
20,942000	0,5	-0,998950
20,950333	0,5	-0,991800
20,958667	0,5	-0,999550
20,967000	0,5	-0,992350
20,975333	0,5	-0,997550
20,983667	0,5	-0,993650
20,992000	0,5	-0,990300
21,000333	0,5	-0,981900
21,008667	0,5	-0,982200
21,017000	0,5	-0,954100
21,025333	0,5	-0,939800
21,033667	0,5	-0,942550
21,042000	0,5	-0,940000
21,050333	0,5	-0,937450
21,058667	0,5	-0,949200
21,067000	0,5	-0,970600
21,075333	0,5	-0,985850
21,083667	0,5	-0,985100
21,092000	0,5	-0,981250
21,100333	0,5	-0,992650
21,108667	0,5	-0,984550
21,117000	0,5	-0,983850
21,125333	0,5	-0,980300
21,133667	0,5	-0,979350
21,142000	0,5	-0,978750
21,150333	0,5	-0,977450
21,158667	0,5	-0,965700
21,167000	0,5	-0,938300
21,175333	0,5	-0,935800
21,183667	0,5	-0,940600
21,192000	0,5	-0,942950
21,200333	0,5	-0,944450
21,208667	0,5	-0,963600
21,217000	0,5	-0,979900
21,225333	0,5	-0,981650
21,233667	0,5	-0,972150
21,242000	0,5	-0,977700
21,250333	0,5	-0,971850
21,258667	0,5	-0,976000
21,267000	0,5	-0,971300
21,275333	0,5	-0,966900
21,283667	0,5	-0,956950
21,292000	0,5	-0,949850
21,300333	0,5	-0,949450
21,308667	0,5	-0,923700
21,317000	0,5	-0,904250
21,325333	0,5	-0,912600
21,333667	0,5	-0,913100
21,342000	0,5	-0,917350
21,350333	0,5	-0,923850
21,358667	0,5	-0,927800
21,367000	0,5	-0,945150
21,375333	0,5	-0,926400
21,383667	0,5	-0,922050
21,392000	0,5	-0,909700
21,400333	0,5	-0,907000
21,408667	0,5	-0,893600
21,417000	0,5	-0,889750
21,425333	0,5	-0,876850
21,433667	0,5	-0,870900
21,442000	0,5	-0,862150
21,450333	0,5	-0,851550
21,458667	0,5	-0,821300
21,467000	0,5	-0,807300
21,475333	0,5	-0,812750
21,483667	0,5	-0,801000
21,492000	0,5	-0,798750
21,500333	0,5	-0,804750
21,508667	0,5	-0,810950
21,517000	0,5	-0,808450
21,525333	0,5	-0,796350
21,533667	0,5	-0,772300
21,542000	0,5	-0,767400
21,550333	0,5	-0,748050
21,558667	0,5	-0,742750
21,567000	0,5	-0,725800
21,575333	0,5	-0,714650
21,583667	0,5	-0,703150
21,592000	0,5	-0,686600
21,600333	0,5	-0,646000
21,608667	0,5	-0,614350
21,617000	0,5	-0,588450
21,625333	0,5	-0,562850
21,633667	0,5	-0,536700
21,642000	0,5	-0,508850
21,650333	0,5	-0,496550
21,658667	0,5	-0,495500
21,667000	0,5	-0,503150
21,675333	0,5	-0,507100
21,683667	0,5	-0,518350
21,692000	0,5	-0,522950
21,700333	0,5	-0,526700
21,708667	0,5	-0,516150
21,717000	0,5	-0,508400
21,725333	0,5	-0,496450
21,733667	0,5	-0,491450
21,742000	0,5	-0,481050
21,750333	0,5	-0,449600
21,758667	0,5	-0,438650
21,767000	0,5	-0,436300
21,775333	0,5	-0,419150
21,783667	0,5	-0,411000
21,792000	0,5	-0,400850
21,800333	0,5	-0,394650
21,808667	0,5	-0,378400
21,817000	0,5	-0,343500
21,825333	0,5	-0,318750
21,833667	0,5	-0,282100
21,842000	0,5	-0,256650
21,850333	0,5	-0,224750
21,858667	0,5	-0,205100
21,867000	0,5	-0,176500
21,875333	0,5	-0,154000
21,883667	0,5	-0,134650
21,892000	0,5	-0,097700
21,900333	0,5	-0,072900
21,908667	0,5	-0,066650
21,917000	0,5	-0,050100
21,925333	0,5	-0,038000
21,933667	0,5	-0,029350
21,942000	0,5	-0,016400
21,950333	0,5	-0,012000
21,958667	0,5	0,015650
21,967000	0,5	0,037200
21,975333	0,5	0,061950
21,983667	0,5	0,073450
21,992000	0,5	0,100100
22,000333	0,5	0,117050
22,008667	0,5	0,147350
22,017000	0,5	0,163250
22,025333	0,5	0,186150
22,033667	0,5	0,214600
22,042000	0,5	0,249550
22,050333	0,5	0,273350
22,058667	0,5	0,298200
22,067000	0,5	0,333950
22,075333	0,5	0,366400
22,083667	0,5	0,391450
22,092000	0,5	0,405450
22,100333	0,5	0,439400
22,108667	0,5	0,470650
22,117000	0,5	0,510850
22,125333	0,5	0,543850
22,133667	0,5	0,592450
22,142000	0,5	0,627600
22,150333	0,5	0,678450
22,158667	0,5	0,717450
22,167000	0,5	0,761300
22,175333	0,5	0,801050
22,183667	0,5	0,840750
22,192000	0,5	0,889050
22,200333	0,5	0,926250
22,208667	0,5	0,995850
22,217000	0,5	1,046050
22,225333	0,5	1,100100
22,233667	0,5	1,137800
22,242000	0,5	1,176300
22,250333	0,5	1,233250
22,258667	0,5	1,291100
22,267000	0,5	1,336350
22,275333	0,5	1,395500
22,283667	0,5	1,441100
22,292000	0,5	1,495900
22,300333	0,5	1,544300
22,308667	0,5	1,603400
22,317000	0,5	1,649800
22,325333	0,5	1,696100
22,333667	0,5	1,726650
22,342000	0,5	1,763250
22,350333	0,5	1,814500
22,358667	0,5	1,869100
22,367000	0,5	1,914050
22,375333	0,5	1,953750
22,383667	0,5	1,991800
22,392000	0,5	2,022150
22,400333	0,5	2,080750
22,408667	0,5	2,125500
22,417000	0,5	2,180250
22,425333	0,5	2,229450
22,433667	0,5	2,284750
22,442000	0,5	2,338550
22,450333	0,5	2,407900
22,458667	0,5	2,463450
22,467000	0,5	2,523050
22,475333	0,5	2,568900
22,483667	0,5	2,621650
22,492000	0,5	2,681050
22,500333	0,5	2,760350
22,508667	0,5	2,826100
22,517000	0,5	2,879850
22,525333	0,5	2,926000
22,533667	0,5	2,967200
22,542000	0,5	3,019450
22,550333	0,5	3,071250
22,558667	0,5	3,132050
22,567000	0,5	3,180250
22,575333	0,5	3,231600
22,583667	0,5	3,267950
22,592000	0,5	3,317500
22,600333	0,5	3,357350
22,608667	0,5	3,393500
22,617000	0,5	3,422800
22,625333	0,5	3,408900
22,633667	0,5	3,441650
22,642000	0,5	3,465050
22,650333	0,5	3,483850
22,658667	0,5	3,469350
22,667000	0,5	3,443100
22,675333	0,5	3,397500
22,683667	0,5	3,351800
22,692000	0,5	3,310400
22,700333	0,5	3,268350
22,708667	0,5	3,209750
22,717000	0,5	3,159400
22,725333	0,5	3,095700
22,733667	0,5	3,033200
22,742000	0,5	2,964100
22,750333	0,5	2,895850
22,758667	0,5	2,810050
22,767000	0,5	2,710750
22,775333	0,5	2,583750
22,783667	0,5	2,506650
22,792000	0,5	2,424300
22,800333	0,5	2,316750
22,808667	0,5	2,194850
22,817000	0,5	2,061200
22,825333	0,5	1,921050
22,833667	0,5	1,776500
22,842000	0,5	1,639250
22,850333	0,5	1,497300
22,858667	0,5	1,354650
22,867000	0,5	1,216100
22,875333	0,5	1,077100
22,883667	0,5	0,938650
22,892000	0,5	0,795900
22,900333	0,5	0,654050
22,908667	0,5	0,511200
22,917000	0,5	0,360650
22,925333	0,5	0,212850
22,933667	0,5	0,084300
22,942000	0,5	-0,061350
22,950333	0,5	-0,213250
22,958667	0,5	-0,344850
22,967000	0,5	-0,475050
22,975333	0,5	-0,593050
22,983667	0,5	-0,724550
22,992000	0,5	-0,838750
23,000333	0,5	-0,950450
23,008667	0,5	-1,047150
23,017000	0,5	-1,148800
23,025333	0,5	-1,240450
23,033667	0,5	-1,339700
23,042000	0,5	-1,424250
23,050333	0,5	-1,516350
23,058667	0,5	-1,582800
23,067000	0,5	-1,666750
23,075333	0,5	-1,742250
23,083667	0,5	-1,831850
23,092000	0,5	-1,930000
23,100333	0,5	-1,996700
23,108667	0,5	-2,050300
23,117000	0,5	-2,093800
23,125333	0,5	-2,143800
23,133667	0,5	-2,189450
23,142000	0,5	-2,223250
23,150333	0,5	-2,249800
23,158667	0,5	-2,275550
23,167000	0,5	-2,297550
23,175333	0,5	-2,317100
23,183667	0,5	-2,331950
23,192000	0,5	-2,354200
23,200333	0,5	-2,362750
23,208667	0,5	-2,363750
23,217000	0,5	-2,398700
23,225333	0,5	-2,387050
23,233667	0,5	-2,418700
23,242000	0,5	-2,454050
23,250333	0,5	-2,460600
23,258667	0,5	-2,459350
23,267000	0,5	-2,444150
23,275333	0,5	-2,439000
23,283667	0,5	-2,436700
23,292000	0,5	-2,417750
23,300333	0,5	-2,397350
23,308667	0,5	-2,368250
23,317000	0,5	-2,348200
23,325333	0,5	-2,321000
23,333667	0,5	-2,304050
23,342000	0,5	-2,274300
23,350333	0,5	-2,253300
23,358667	0,5	-2,277200
23,367000	0,5	-2,212950
23,375333	0,5	-2,184300
23,383667	0,5	-2,175850
23,392000	0,5	-2,174800
23,400333	0,5	-2,166000
23,408667	0,5	-2,143000
23,417000	0,5	-2,117150
23,425333	0,5	-2,096950
23,433667	0,5	-2,078150
23,442000	0,5	-2,046400
23,450333	0,5	-2,022300
23,458667	0,5	-1,988100
23,467000	0,5	-1,960150
23,475333	0,5	-1,929500
23,483667	0,5	-1,901850
23,492000	0,5	-1,872800
23,500333	0,5	-1,848750
23,508667	0,5	-1,893200
23,517000	0,5	-1,835100
23,525333	0,5	-1,770400
23,533667	0,5	-1,751650
23,542000	0,5	-1,745050
23,550333	0,5	-1,733250
23,558667	0,5	-1,721300
23,567000	0,5	-1,703300
23,575333	0,5	-1,691550
23,583667	0,5	-1,680100
23,592000	0,5	-1,665450
23,600333	0,5	-1,651700
23,608667	0,5	-1,641500
23,617000	0,5	-1,623000
23,625333	0,5	-1,613450
23,633667	0,5	-1,601050
23,642000	0,5	-1,586000
23,650333	0,5	-1,646000
23,658667	0,5	-1,664550
23,667000	0,5	-1,615750
23,675333	0,5	-1,560750
23,683667	0,5	-1,542500
23,692000	0,5	-1,541850
23,700333	0,5	-1,535000
23,708667	0,5	-1,532700
23,717000	0,5	-1,526400
23,725333	0,5	-1,520050
23,733667	0,5	-1,509100
23,742000	0,5	-1,502650
23,750333	0,5	-1,493900
23,758667	0,5	-1,487800
23,767000	0,5	-1,478450
23,775333	0,5	-1,474800
23,783667	0,5	-1,474050
23,792000	0,5	-1,473500
23,800333	0,5	-1,609600
23,808667	0,5	-1,583300
23,817000	0,5	-1,539650
23,825333	0,5	-1,500650
23,833667	0,5	-1,486400
23,842000	0,5	-1,490250
23,850333	0,5	-1,497450
23,858667	0,5	-1,504000
23,867000	0,5	-1,502400
23,875333	0,5	-1,491100
23,883667	0,5	-1,491050
23,892000	0,5	-1,478400
23,900333	0,5	-1,474650
23,908667	0,5	-1,461800
23,917000	0,5	-1,450150
23,925333	0,5	-1,441500
23,933667	0,5	-1,435500
23,942000	0,5	-1,480400
23,950333	0,5	-1,557850
23,958667	0,5	-1,527550
23,967000	0,5	-1,474500
23,975333	0,5	-1,430350
23,983667	0,5	-1,415450
23,992000	0,5	-1,413100
24,000333	0,5	-1,422450
24,008667	0,5	-1,422750
24,017000	0,5	-1,407100
24,025333	0,5	-1,404500
24,033667	0,5	-1,393750
24,042000	0,5	-1,390300
24,050333	0,5	-1,381200
24,058667	0,5	-1,373300
24,067000	0,5	-1,358550
24,075333	0,5	-1,353200
24,083667	0,5	-1,343600
24,092000	0,5	-1,447900
24,100333	0,5	-1,434600
24,108667	0,5	-1,426100
24,117000	0,5	-1,356150
24,125333	0,5	-1,326600
24,133667	0,5	-1,304800
24,142000	0,5	-1,297850
24,150333	0,5	-1,303650
24,158667	0,5	-1,283450
24,167000	0,5	-1,267950
24,175333	0,5	-1,249000
24,183667	0,5	-1,237650
24,192000	0,5	-1,218000
24,200333	0,5	-1,201400
24,208667	0,5	-1,183000
24,217000	0,5	-1,167950
24,225333	0,5	-1,153600
24,233667	0,5	-1,151250
24,242000	0,5	-1,247350
24,250333	0,5	-1,213500
24,258667	0,5	-1,183300
24,267000	0,5	-1,134150
24,275333	0,5	-1,109650
24,283667	0,5	-1,101050
24,292000	0,5	-1,097550
24,300333	0,5	-1,111200
24,308667	0,5	-1,092500
24,317000	0,5	-1,074000
24,325333	0,5	-1,060850
24,333667	0,5	-1,045200
24,342000	0,5	-1,029850
24,350333	0,5	-1,014450
24,358667	0,5	-0,997600
24,367000	0,5	-0,977600
24,375333	0,5	-0,962450
24,383667	0,5	-0,978600
24,392000	0,5	-1,027450
24,400333	0,5	-0,983600
24,408667	0,5	-0,955200
24,417000	0,5	-0,907750
24,425333	0,5	-0,893850
24,433667	0,5	-0,877350
24,442000	0,5	-0,874700
24,450333	0,5	-0,877900
24,458667	0,5	-0,854350
24,467000	0,5	-0,841700
24,475333	0,5	-0,832600
24,483667	0,5	-0,816750
24,492000	0,5	-0,808550
24,500333	0,5	-0,791400
24,508667	0,5	-0,779150
24,517000	0,5	-0,764400
24,525333	0,5	-0,754350
24,533667	0,5	-0,803500
24,542000	0,5	-0,794200
24,550333	0,5	-0,777250
24,558667	0,5	-0,742950
24,567000	0,5	-0,714750
24,575333	0,5	-0,702950
24,583667	0,5	-0,694550
24,592000	0,5	-0,694450
24,600333	0,5	-0,693550
24,608667	0,5	-0,672700
24,617000	0,5	-0,658100
24,625333	0,5	-0,639850
24,633667	0,5	-0,639800
24,642000	0,5	-0,613150
24,650333	0,5	-0,599550
24,658667	0,5	-0,579950
24,667000	0,5	-0,572900
24,675333	0,5	-0,563550
24,683667	0,5	-0,599400
24,692000	0,5	-0,582600
24,700333	0,5	-0,564200
24,708667	0,5	-0,538600
24,717000	0,5	-0,520000
24,725333	0,5	-0,516200
24,733667	0,5	-0,512600
24,742000	0,5	-0,515700
24,750333	0,5	-0,504350
24,758667	0,5	-0,500550
24,767000	0,5	-0,487500
24,775333	0,5	-0,482400
24,783667	0,5	-0,471500
24,792000	0,5	-0,461800
24,800333	0,5	-0,448950
24,808667	0,5	-0,437600
24,817000	0,5	-0,424650
24,825333	0,5	-0,425000
24,833667	0,5	-0,441500
24,842000	0,5	-0,425500
24,850333	0,5	-0,405350
24,858667	0,5	-0,386100
24,867000	0,5	-0,374600
24,875333	0,5	-0,366850
24,883667	0,5	-0,366200
24,892000	0,5	-0,361300
24,900333	0,5	-0,350500
24,908667	0,5	-0,339850
24,917000	0,5	-0,336800
24,925333	0,5	-0,328300
24,933667	0,5	-0,322600
24,942000	0,5	-0,311750
24,950333	0,5	-0,305550
24,958667	0,5	-0,297200
24,967000	0,5	-0,291850
24,975333	0,5	-0,305650
24,983667	0,5	-0,298650
24,992000	0,5	-0,292050
25,000333	0,5	-0,279400
25,008667	0,5	-0,267750
25,017000	0,5	-0,262900
25,025333	0,5	-0,254550
25,033667	0,5	-0,255700
25,042000	0,5	-0,251300
25,050333	0,5	-0,239150
25,058667	0,5	-0,235750
25,067000	0,5	-0,228300
25,075333	0,5	-0,220550
25,083667	0,5	-0,214250
25,092000	0,5	-0,204500
25,100333	0,5	-0,197400
25,108667	0,5	-0,190900
25,117000	0,5	-0,183800
25,125333	0,5	-0,190200
25,133667	0,5	-0,180600
25,142000	0,5	-0,176900
25,150333	0,5	-0,167900
25,158667	0,5	-0,162700
25,167000	0,5	-0,156400
25,175333	0,5	-0,156000
25,183667	0,5	-0,158800
25,192000	0,5	-0,153050
25,200333	0,5	-0,151400
25,208667	0,5	-0,149700
25,217000	0,5	-0,146300
25,225333	0,5	-0,141950
25,233667	0,5	-0,138400
25,242000	0,5	-0,133550
25,250333	0,5	-0,127500
25,258667	0,5	-0,125350
25,267000	0,5	-0,119150
25,275333	0,5	-0,114800
25,283667	0,5	-0,108900
25,292000	0,5	-0,107100
25,300333	0,5	-0,101800
25,308667	0,5	-0,096000
25,317000	0,5	-0,090500
25,325333	0,5	-0,089700
25,333667	0,5	-0,088100
25,342000	0,5	-0,086350
25,350333	0,5	-0,083200
25,358667	0,5	-0,079350
25,367000	0,5	-0,078500
25,375333	0,5	-0,076550
25,383667	0,5	-0,074550
25,392000	0,5	-0,072500
25,400333	0,5	-0,070200
25,408667	0,5	-0,068800
25,417000	0,5	-0,066000
25,425333	0,5	-0,064700
25,433667	0,5	-0,062300
25,442000	0,5	-0,061200
25,450333	0,5	-0,061100
25,458667	0,5	-0,056050
25,467000	0,5	-0,054350
25,475333	0,5	-0,052200
25,483667	0,5	-0,048350
25,492000	0,5	-0,044900
25,500333	0,5	-0,041450
25,508667	0,5	-0,040450
25,517000	0,5	-0,038750
25,525333	0,5	-0,035100
25,533667	0,5	-0,033900
25,542000	0,5	-0,031900
25,550333	0,5	-0,025600
25,558667	0,5	-0,028050
25,567000	0,5	-0,019450
25,575333	0,5	-0,018400
25,583667	0,5	-0,016250
25,592000	0,5	-0,020800
25,600333	0,5	-0,021500
25,608667	0,5	-0,020550
25,617000	0,5	-0,019650
25,625333	0,5	-0,018200
25,633667	0,5	-0,010450
25,642000	0,5	-0,015700
25,650333	0,5	-0,012450
25,658667	0,5	-0,013100
25,667000	0,5	-0,011750
25,675333	0,5	-0,010500
25,683667	0,5	-0,010300
25,692000	0,5	-0,005800
25,700333	0,5	-0,003100
25,708667	0,5	-0,000950
25,717000	0,5	0,004650
25,725333	0,5	0,006800
25,733667	0,5	0,011850
25,742000	0,5	0,004800
25,750333	0,5	0,006950
25,758667	0,5	0,009750
25,767000	0,5	0,012750
25,775333	0,5	0,017800
25,783667	0,5	0,019350
25,792000	0,5	0,020350
25,800333	0,5	0,017800
25,808667	0,5	0,020100
25,817000	0,5	0,013550
25,825333	0,5	0,018850
25,833667	0,5	0,017000
25,842000	0,5	0,019950
25,850333	0,5	0,020600
25,858667	0,5	0,024200
25,867000	0,5	0,022000
25,875333	0,5	0,034850
25,883667	0,5	0,028350
25,892000	0,5	0,026300
25,900333	0,5	0,029250
25,908667	0,5	0,031750
25,917000	0,5	0,040450
25,925333	0,5	0,046500
25,933667	0,5	0,047750
25,942000	0,5	0,047850
25,950333	0,5	0,053100
25,958667	0,5	0,051000
25,967000	0,5	0,050950
25,975333	0,5	0,049600
25,983667	0,5	0,053400
25,992000	0,5	0,052450
26,000333	0,5	0,059000
