File Path	chrom://chromeleon01/ikbm_chromeleon/2022/ICS-5000/ED1/Esteban/20220612_Cell_7_4_eg.seq/763.smp/ED_1.channel/ED_1.chm
Channel	ED_1

Injection Information:
Data Vault	ikbm_chromeleon
Injection	4_02h-EGS_1
Injection Number	97
Position	GE6
Comment	
Processing Method	Stop sequence after Cell Death
Instrument Method	ICS5000_PA200_FullNative_Ox_26min_ED1
Type	Unknown
Status	Finished
Injection Date	14.06.2022
Injection Time	13:50:31
Injection Volume (µl)	5,0
Dilution Factor	1,0000
Weight	1,0000

Chromatogram Data Information:
Time Min. (min)	0,000167
Time Max. (min)	26,000167
Data Points	3121
Detector	EDet1
Generating Data System	Chromeleon 7.2.9.11323
Exporting Data System	Chromeleon 7.2.9.0
Operator	Instrument Controller
Signal Quantity	
Signal Unit	nC
Signal Min.	-2,558250
Signal Max.	2 250,300634
Channel	ED_1
Driver Name	DC-5000
Channel Type	Evaluation
Min. Step (s)	0,5
Max. Step (s)	0,5
Average Step (s)	0,5

Signal Parameter Information:
Signal Info	

Chromatogram Data:
Time (min)	Step (s)	Value (nC)
0,000167	n.a.	-0,071000
0,008500	0,5	-0,062850
0,016833	0,5	-0,059250
0,025167	0,5	-0,064050
0,033500	0,5	-0,049650
0,041833	0,5	-0,041050
0,050167	0,5	0,004650
0,058500	0,5	-0,010500
0,066833	0,5	-0,006450
0,075167	0,5	-0,008950
0,083500	0,5	-0,009300
0,091833	0,5	-0,016400
0,100167	0,5	-0,019250
0,108500	0,5	-0,026950
0,116833	0,5	-0,032650
0,125167	0,5	-0,027300
0,133500	0,5	-0,026950
0,141833	0,5	-0,029200
0,150167	0,5	-0,027600
0,158500	0,5	-0,006400
0,166833	0,5	-0,046600
0,175167	0,5	-0,056000
0,183500	0,5	-0,048400
0,191833	0,5	-0,025500
0,200167	0,5	-0,009850
0,208500	0,5	-0,026250
0,216833	0,5	-0,037850
0,225167	0,5	-0,029150
0,233500	0,5	-0,037300
0,241833	0,5	-0,031550
0,250167	0,5	-0,045250
0,258500	0,5	-0,042050
0,266833	0,5	-0,047050
0,275167	0,5	-0,051050
0,283500	0,5	-0,034800
0,291833	0,5	-0,012200
0,300167	0,5	0,033000
0,308500	0,5	-0,001450
0,316833	0,5	-0,067850
0,325167	0,5	-0,096800
0,333500	0,5	-0,094350
0,341833	0,5	-0,083950
0,350167	0,5	-0,066500
0,358500	0,5	-0,078950
0,366833	0,5	-0,067200
0,375167	0,5	-0,072950
0,383500	0,5	-0,063650
0,391833	0,5	-0,078850
0,400167	0,5	-0,075350
0,408500	0,5	-0,088250
0,416833	0,5	-0,079250
0,425167	0,5	-0,083100
0,433500	0,5	-0,085150
0,441833	0,5	-0,101300
0,450167	0,5	-0,071650
0,458500	0,5	-0,098200
0,466833	0,5	-0,108450
0,475167	0,5	-0,110200
0,483500	0,5	-0,095100
0,491833	0,5	-0,065900
0,500167	0,5	-0,068300
0,508500	0,5	-0,062650
0,516833	0,5	-0,077700
0,525167	0,5	-0,073050
0,533500	0,5	-0,083900
0,541833	0,5	-0,075700
0,550167	0,5	-0,084200
0,558500	0,5	-0,082150
0,566833	0,5	-0,088250
0,575167	0,5	-0,090300
0,583500	0,5	-0,108850
0,591833	0,5	-0,102900
0,600167	0,5	-0,088250
0,608500	0,5	-0,102200
0,616833	0,5	-0,105300
0,625167	0,5	-0,100200
0,633500	0,5	-0,083400
0,641833	0,5	-0,056100
0,650167	0,5	-0,054100
0,658500	0,5	-0,061850
0,666833	0,5	-0,060250
0,675167	0,5	-0,065750
0,683500	0,5	-0,063500
0,691833	0,5	-0,068050
0,700167	0,5	-0,065350
0,708500	0,5	-0,080150
0,716833	0,5	-0,070300
0,725167	0,5	-0,077100
0,733500	0,5	-0,077550
0,741833	0,5	-0,068450
0,750167	0,5	-0,058200
0,758500	0,5	-0,085750
0,766833	0,5	-0,080650
0,775167	0,5	-0,080250
0,783500	0,5	-0,044900
0,791833	0,5	-0,027700
0,800167	0,5	-0,027650
0,808500	0,5	-0,034000
0,816833	0,5	-0,031800
0,825167	0,5	-0,037250
0,833500	0,5	-0,038550
0,841833	0,5	-0,039600
0,850167	0,5	-0,044800
0,858500	0,5	-0,036750
0,866833	0,5	-0,039450
0,875167	0,5	-0,031900
0,883500	0,5	-0,045150
0,891833	0,5	-0,016050
0,900167	0,5	-0,035350
0,908500	0,5	-0,043650
0,916833	0,5	-0,038850
0,925167	0,5	-0,030900
0,933500	0,5	-0,005100
0,941833	0,5	0,001750
0,950167	0,5	-0,007300
0,958500	0,5	0,000350
0,966833	0,5	-0,001150
0,975167	0,5	0,005300
0,983500	0,5	0,004100
0,991833	0,5	0,003050
1,000167	0,5	0,001100
1,008500	0,5	-0,002700
1,016833	0,5	0,003200
1,025167	0,5	-0,014050
1,033500	0,5	-0,014050
1,041833	0,5	0,018150
1,050167	0,5	-0,005250
1,058500	0,5	-0,013500
1,066833	0,5	-0,003450
1,075167	0,5	0,000150
1,083500	0,5	0,041950
1,091833	0,5	0,024950
1,100167	0,5	0,033600
1,108500	0,5	0,028150
1,116833	0,5	0,039550
1,125167	0,5	0,027100
1,133500	0,5	0,029500
1,141833	0,5	0,022800
1,150167	0,5	0,024950
1,158500	0,5	0,030850
1,166833	0,5	0,033300
1,175167	0,5	0,028750
1,183500	0,5	0,030000
1,191833	0,5	0,050000
1,200167	0,5	0,022450
1,208500	0,5	0,017400
1,216833	0,5	0,026250
1,225167	0,5	0,043150
1,233500	0,5	0,069150
1,241833	0,5	0,061050
1,250167	0,5	0,049800
1,258500	0,5	0,058400
1,266833	0,5	0,053950
1,275167	0,5	0,063550
1,283500	0,5	0,053800
1,291833	0,5	0,059350
1,300167	0,5	0,055450
1,308500	0,5	0,059700
1,316833	0,5	0,060050
1,325167	0,5	0,047150
1,333500	0,5	0,054900
1,341833	0,5	0,060950
1,350167	0,5	0,044750
1,358500	0,5	0,045450
1,366833	0,5	0,055900
1,375167	0,5	0,073750
1,383500	0,5	0,091050
1,391833	0,5	0,076850
1,400167	0,5	0,087250
1,408500	0,5	0,079850
1,416833	0,5	0,090300
1,425167	0,5	0,084500
1,433500	0,5	0,085750
1,441833	0,5	0,075050
1,450167	0,5	0,080200
1,458500	0,5	0,080450
1,466833	0,5	0,075300
1,475167	0,5	0,061550
1,483500	0,5	0,085900
1,491833	0,5	0,072800
1,500167	0,5	0,065600
1,508500	0,5	0,066350
1,516833	0,5	0,083000
1,525167	0,5	0,106300
1,533500	0,5	0,112800
1,541833	0,5	0,116650
1,550167	0,5	0,152050
1,558500	0,5	0,285150
1,566833	0,5	0,658100
1,575167	0,5	1,663700
1,583500	0,5	6,574950
1,591833	0,5	31,042050
1,600167	0,5	126,723302
1,608500	0,5	436,879257
1,616833	0,5	1 148,643017
1,625167	0,5	1 553,965623
1,633500	0,5	2 250,300634
1,641833	0,5	2 202,004683
1,650167	0,5	2 157,026732
1,658500	0,5	2 076,071581
1,666833	0,5	1 779,479727
1,675167	0,5	1 308,038419
1,683500	0,5	886,597963
1,691833	0,5	614,357209
1,700167	0,5	453,570757
1,708500	0,5	355,532605
1,716833	0,5	288,315204
1,725167	0,5	240,424004
1,733500	0,5	204,440253
1,741833	0,5	177,140903
1,750167	0,5	155,722452
1,758500	0,5	137,732552
1,766833	0,5	122,259602
1,775167	0,5	109,538252
1,783500	0,5	99,937101
1,791833	0,5	93,694051
1,800167	0,5	91,135851
1,808500	0,5	92,085251
1,816833	0,5	94,915101
1,825167	0,5	96,316251
1,833500	0,5	93,949851
1,841833	0,5	87,945451
1,850167	0,5	80,290201
1,858500	0,5	73,214801
1,866833	0,5	67,993751
1,875167	0,5	64,295151
1,883500	0,5	61,265301
1,891833	0,5	58,675651
1,900167	0,5	56,886301
1,908500	0,5	55,894401
1,916833	0,5	55,080851
1,925167	0,5	53,906101
1,933500	0,5	52,336401
1,941833	0,5	51,097251
1,950167	0,5	51,243001
1,958500	0,5	53,701251
1,966833	0,5	57,827951
1,975167	0,5	60,673351
1,983500	0,5	60,160351
1,991833	0,5	57,583801
2,000167	0,5	55,260001
2,008500	0,5	54,237501
2,016833	0,5	54,386001
2,025167	0,5	55,582051
2,033500	0,5	57,830851
2,041833	0,5	61,368551
2,050167	0,5	66,398951
2,058500	0,5	73,205701
2,066833	0,5	82,441701
2,075167	0,5	95,083451
2,083500	0,5	110,631552
2,091833	0,5	126,304502
2,100167	0,5	136,912652
2,108500	0,5	137,782902
2,116833	0,5	128,167852
2,125167	0,5	112,237802
2,133500	0,5	95,968501
2,141833	0,5	82,621551
2,150167	0,5	72,894251
2,158500	0,5	66,542051
2,166833	0,5	63,708801
2,175167	0,5	64,734051
2,183500	0,5	68,612751
2,191833	0,5	71,439651
2,200167	0,5	69,996601
2,208500	0,5	65,686201
2,216833	0,5	61,639551
2,225167	0,5	58,177601
2,233500	0,5	54,037601
2,241833	0,5	49,416951
2,250167	0,5	45,375701
2,258500	0,5	42,406051
2,266833	0,5	40,413001
2,275167	0,5	39,112151
2,283500	0,5	38,450501
2,291833	0,5	38,404651
2,300167	0,5	38,824251
2,308500	0,5	39,486751
2,316833	0,5	40,251301
2,325167	0,5	41,113951
2,333500	0,5	41,807551
2,341833	0,5	41,875251
2,350167	0,5	41,415651
2,358500	0,5	41,297901
2,366833	0,5	41,989901
2,375167	0,5	42,893301
2,383500	0,5	43,238151
2,391833	0,5	42,937301
2,400167	0,5	42,125001
2,408500	0,5	41,105051
2,416833	0,5	40,073151
2,425167	0,5	39,118451
2,433500	0,5	38,297351
2,441833	0,5	37,528201
2,450167	0,5	36,678801
2,458500	0,5	35,740501
2,466833	0,5	34,939151
2,475167	0,5	35,088351
2,483500	0,5	37,054251
2,491833	0,5	37,963251
2,500167	0,5	36,070451
2,508500	0,5	33,908051
2,516833	0,5	32,626750
2,525167	0,5	31,789650
2,533500	0,5	31,087750
2,541833	0,5	30,467300
2,550167	0,5	29,954700
2,558500	0,5	29,556800
2,566833	0,5	29,272150
2,575167	0,5	29,080950
2,583500	0,5	28,999700
2,591833	0,5	28,963650
2,600167	0,5	28,939150
2,608500	0,5	28,847300
2,616833	0,5	28,697650
2,625167	0,5	28,496600
2,633500	0,5	28,294850
2,641833	0,5	28,119400
2,650167	0,5	27,958950
2,658500	0,5	27,869850
2,666833	0,5	27,838350
2,675167	0,5	27,830600
2,683500	0,5	27,878900
2,691833	0,5	27,990600
2,700167	0,5	28,137600
2,708500	0,5	28,320450
2,716833	0,5	28,530700
2,725167	0,5	28,881750
2,733500	0,5	29,450400
2,741833	0,5	30,427000
2,750167	0,5	31,962600
2,758500	0,5	34,576151
2,766833	0,5	39,273001
2,775167	0,5	48,083001
2,783500	0,5	63,839201
2,791833	0,5	88,797501
2,800167	0,5	121,577752
2,808500	0,5	155,199552
2,816833	0,5	179,089603
2,825167	0,5	185,359553
2,833500	0,5	173,401703
2,841833	0,5	149,143652
2,850167	0,5	121,022252
2,858500	0,5	95,905501
2,866833	0,5	77,205801
2,875167	0,5	64,979401
2,883500	0,5	57,494201
2,891833	0,5	52,647551
2,900167	0,5	49,007451
2,908500	0,5	45,838101
2,916833	0,5	42,957001
2,925167	0,5	40,376501
2,933500	0,5	38,262701
2,941833	0,5	36,905551
2,950167	0,5	36,716851
2,958500	0,5	38,134851
2,966833	0,5	41,121951
2,975167	0,5	45,085551
2,983500	0,5	48,910151
2,991833	0,5	51,340951
3,000167	0,5	51,606251
3,008500	0,5	49,545351
3,016833	0,5	45,720601
3,025167	0,5	41,037851
3,033500	0,5	36,311451
3,041833	0,5	32,133150
3,050167	0,5	28,752950
3,058500	0,5	26,206900
3,066833	0,5	24,342150
3,075167	0,5	23,014050
3,083500	0,5	22,050500
3,091833	0,5	21,322650
3,100167	0,5	20,728850
3,108500	0,5	20,280400
3,116833	0,5	19,827500
3,125167	0,5	19,469900
3,133500	0,5	19,186650
3,141833	0,5	19,020550
3,150167	0,5	19,010850
3,158500	0,5	19,104900
3,166833	0,5	19,309950
3,175167	0,5	19,543150
3,183500	0,5	19,685850
3,191833	0,5	19,636600
3,200167	0,5	19,385750
3,208500	0,5	18,946200
3,216833	0,5	18,424350
3,225167	0,5	17,879000
3,233500	0,5	17,391300
3,241833	0,5	16,948000
3,250167	0,5	16,593600
3,258500	0,5	16,320250
3,266833	0,5	16,068450
3,275167	0,5	15,878250
3,283500	0,5	15,745950
3,291833	0,5	15,655000
3,300167	0,5	15,618600
3,308500	0,5	15,574200
3,316833	0,5	15,572000
3,325167	0,5	15,614350
3,333500	0,5	15,720550
3,341833	0,5	15,901600
3,350167	0,5	16,213800
3,358500	0,5	16,684650
3,366833	0,5	17,318100
3,375167	0,5	18,044200
3,383500	0,5	18,691950
3,391833	0,5	19,095600
3,400167	0,5	19,124900
3,408500	0,5	18,767550
3,416833	0,5	18,080250
3,425167	0,5	17,276400
3,433500	0,5	16,472450
3,441833	0,5	15,787700
3,450167	0,5	15,244500
3,458500	0,5	14,816250
3,466833	0,5	14,492800
3,475167	0,5	14,265450
3,483500	0,5	14,090100
3,491833	0,5	13,968750
3,500167	0,5	13,869700
3,508500	0,5	13,792650
3,516833	0,5	13,722050
3,525167	0,5	13,650650
3,533500	0,5	13,574600
3,541833	0,5	13,474200
3,550167	0,5	13,379150
3,558500	0,5	13,259750
3,566833	0,5	13,144900
3,575167	0,5	13,054050
3,583500	0,5	13,003700
3,591833	0,5	12,983200
3,600167	0,5	12,991950
3,608500	0,5	13,011700
3,616833	0,5	13,090950
3,625167	0,5	13,222350
3,633500	0,5	13,459650
3,641833	0,5	13,787900
3,650167	0,5	14,185200
3,658500	0,5	14,557600
3,666833	0,5	14,857000
3,675167	0,5	15,046550
3,683500	0,5	15,125050
3,691833	0,5	15,137200
3,700167	0,5	15,121400
3,708500	0,5	15,046250
3,716833	0,5	14,984800
3,725167	0,5	14,951700
3,733500	0,5	14,959250
3,741833	0,5	15,023550
3,750167	0,5	15,142850
3,758500	0,5	15,438200
3,766833	0,5	16,103850
3,775167	0,5	17,569900
3,783500	0,5	20,246450
3,791833	0,5	24,140700
3,800167	0,5	28,475900
3,808500	0,5	32,150500
3,816833	0,5	34,286101
3,825167	0,5	34,641151
3,833500	0,5	33,486100
3,841833	0,5	31,455300
3,850167	0,5	29,071950
3,858500	0,5	26,735250
3,866833	0,5	24,691100
3,875167	0,5	23,008750
3,883500	0,5	21,645250
3,891833	0,5	20,522600
3,900167	0,5	19,562100
3,908500	0,5	18,731750
3,916833	0,5	18,019300
3,925167	0,5	17,389850
3,933500	0,5	16,848300
3,941833	0,5	16,374450
3,950167	0,5	15,968750
3,958500	0,5	15,603850
3,966833	0,5	15,291000
3,975167	0,5	14,993350
3,983500	0,5	14,713500
3,991833	0,5	14,470650
4,000167	0,5	14,220550
4,008500	0,5	13,977100
4,016833	0,5	13,759400
4,025167	0,5	13,561500
4,033500	0,5	13,399450
4,041833	0,5	13,219850
4,050167	0,5	13,050500
4,058500	0,5	12,897900
4,066833	0,5	12,772450
4,075167	0,5	12,668750
4,083500	0,5	12,583250
4,091833	0,5	12,537200
4,100167	0,5	12,521550
4,108500	0,5	12,558100
4,116833	0,5	12,626500
4,125167	0,5	12,728350
4,133500	0,5	12,829050
4,141833	0,5	12,955300
4,150167	0,5	12,984500
4,158500	0,5	12,965650
4,166833	0,5	12,868050
4,175167	0,5	12,717600
4,183500	0,5	12,515950
4,191833	0,5	12,256300
4,200167	0,5	11,987800
4,208500	0,5	11,751900
4,216833	0,5	11,533450
4,225167	0,5	11,356100
4,233500	0,5	11,196200
4,241833	0,5	11,072250
4,250167	0,5	10,968500
4,258500	0,5	10,889300
4,266833	0,5	10,823850
4,275167	0,5	10,755400
4,283500	0,5	10,705950
4,291833	0,5	10,695350
4,300167	0,5	10,653000
4,308500	0,5	10,629800
4,316833	0,5	10,622400
4,325167	0,5	10,618600
4,333500	0,5	10,638100
4,341833	0,5	10,605850
4,350167	0,5	10,578000
4,358500	0,5	10,535200
4,366833	0,5	10,491950
4,375167	0,5	10,436300
4,383500	0,5	10,386850
4,391833	0,5	10,331800
4,400167	0,5	10,285600
4,408500	0,5	10,247100
4,416833	0,5	10,207250
4,425167	0,5	10,172200
4,433500	0,5	10,160050
4,441833	0,5	10,158300
4,450167	0,5	10,139300
4,458500	0,5	10,149050
4,466833	0,5	10,164900
4,475167	0,5	10,204850
4,483500	0,5	10,240600
4,491833	0,5	10,273650
4,500167	0,5	10,302750
4,508500	0,5	10,359650
4,516833	0,5	10,412500
4,525167	0,5	10,494400
4,533500	0,5	10,585550
4,541833	0,5	10,699200
4,550167	0,5	10,823400
4,558500	0,5	10,961700
4,566833	0,5	11,097250
4,575167	0,5	11,235450
4,583500	0,5	11,375400
4,591833	0,5	11,501800
4,600167	0,5	11,606700
4,608500	0,5	11,742100
4,616833	0,5	11,890500
4,625167	0,5	12,062150
4,633500	0,5	12,230200
4,641833	0,5	12,367300
4,650167	0,5	12,487200
4,658500	0,5	12,552550
4,666833	0,5	12,563100
4,675167	0,5	12,491550
4,683500	0,5	12,363550
4,691833	0,5	12,175750
4,700167	0,5	11,953250
4,708500	0,5	11,693800
4,716833	0,5	11,417300
4,725167	0,5	11,147200
4,733500	0,5	10,920650
4,741833	0,5	10,676300
4,750167	0,5	10,466650
4,758500	0,5	10,292100
4,766833	0,5	10,151800
4,775167	0,5	10,045800
4,783500	0,5	9,948700
4,791833	0,5	9,875150
4,800167	0,5	9,815850
4,808500	0,5	9,774100
4,816833	0,5	9,751400
4,825167	0,5	9,734950
4,833500	0,5	9,722950
4,841833	0,5	9,723800
4,850167	0,5	9,725750
4,858500	0,5	9,733400
4,866833	0,5	9,724400
4,875167	0,5	9,749000
4,883500	0,5	9,766800
4,891833	0,5	9,766850
4,900167	0,5	9,766900
4,908500	0,5	9,783650
4,916833	0,5	9,794450
4,925167	0,5	9,811600
4,933500	0,5	9,801950
4,941833	0,5	9,810100
4,950167	0,5	9,814550
4,958500	0,5	9,833800
4,966833	0,5	9,853350
4,975167	0,5	9,890600
4,983500	0,5	9,936850
4,991833	0,5	9,985850
5,000167	0,5	10,046750
5,008500	0,5	10,088600
5,016833	0,5	10,113500
5,025167	0,5	10,142000
5,033500	0,5	10,125100
5,041833	0,5	10,066450
5,050167	0,5	9,995850
5,058500	0,5	9,906700
5,066833	0,5	9,821400
5,075167	0,5	9,709400
5,083500	0,5	9,583700
5,091833	0,5	9,466400
5,100167	0,5	9,367800
5,108500	0,5	9,271450
5,116833	0,5	9,193200
5,125167	0,5	9,121550
5,133500	0,5	9,062600
5,141833	0,5	9,014150
5,150167	0,5	8,971100
5,158500	0,5	8,940450
5,166833	0,5	8,900150
5,175167	0,5	8,900450
5,183500	0,5	8,875800
5,191833	0,5	8,854950
5,200167	0,5	8,845400
5,208500	0,5	8,845050
5,216833	0,5	8,859500
5,225167	0,5	8,861100
5,233500	0,5	8,844950
5,241833	0,5	8,849300
5,250167	0,5	8,841950
5,258500	0,5	8,845400
5,266833	0,5	8,834450
5,275167	0,5	8,833650
5,283500	0,5	8,823350
5,291833	0,5	8,820350
5,300167	0,5	8,820500
5,308500	0,5	8,803600
5,316833	0,5	8,789950
5,325167	0,5	8,801300
5,333500	0,5	8,765900
5,341833	0,5	8,751750
5,350167	0,5	8,735750
5,358500	0,5	8,732850
5,366833	0,5	8,738300
5,375167	0,5	8,718000
5,383500	0,5	8,706350
5,391833	0,5	8,687550
5,400167	0,5	8,681850
5,408500	0,5	8,664050
5,416833	0,5	8,664250
5,425167	0,5	8,657050
5,433500	0,5	8,661550
5,441833	0,5	8,662700
5,450167	0,5	8,661850
5,458500	0,5	8,653100
5,466833	0,5	8,669650
5,475167	0,5	8,677100
5,483500	0,5	8,667050
5,491833	0,5	8,670600
5,500167	0,5	8,673850
5,508500	0,5	8,687600
5,516833	0,5	8,688350
5,525167	0,5	8,678700
5,533500	0,5	8,656000
5,541833	0,5	8,639300
5,550167	0,5	8,619500
5,558500	0,5	8,598300
5,566833	0,5	8,575550
5,575167	0,5	8,555450
5,583500	0,5	8,535050
5,591833	0,5	8,519850
5,600167	0,5	8,488500
5,608500	0,5	8,467450
5,616833	0,5	8,455350
5,625167	0,5	8,435750
5,633500	0,5	8,392650
5,641833	0,5	8,362050
5,650167	0,5	8,311400
5,658500	0,5	8,286400
5,666833	0,5	8,245150
5,675167	0,5	8,191400
5,683500	0,5	8,147150
5,691833	0,5	8,113400
5,700167	0,5	8,081550
5,708500	0,5	8,056050
5,716833	0,5	8,036000
5,725167	0,5	8,012950
5,733500	0,5	7,995150
5,741833	0,5	7,972950
5,750167	0,5	7,945400
5,758500	0,5	7,915500
5,766833	0,5	7,907050
5,775167	0,5	7,866000
5,783500	0,5	7,834200
5,791833	0,5	7,814500
5,800167	0,5	7,806750
5,808500	0,5	7,814900
5,816833	0,5	7,810950
5,825167	0,5	7,820700
5,833500	0,5	7,852650
5,841833	0,5	7,890400
5,850167	0,5	7,949700
5,858500	0,5	8,015050
5,866833	0,5	8,092750
5,875167	0,5	8,163100
5,883500	0,5	8,225450
5,891833	0,5	8,270900
5,900167	0,5	8,277550
5,908500	0,5	8,278600
5,916833	0,5	8,261750
5,925167	0,5	8,187950
5,933500	0,5	8,103300
5,941833	0,5	8,015050
5,950167	0,5	7,926200
5,958500	0,5	7,846100
5,966833	0,5	7,743850
5,975167	0,5	7,671350
5,983500	0,5	7,606900
5,991833	0,5	7,559850
6,000167	0,5	7,516600
6,008500	0,5	7,492300
6,016833	0,5	7,469250
6,025167	0,5	7,463400
6,033500	0,5	7,458400
6,041833	0,5	7,452750
6,050167	0,5	7,438800
6,058500	0,5	7,436350
6,066833	0,5	7,421200
6,075167	0,5	7,391950
6,083500	0,5	7,367650
6,091833	0,5	7,351450
6,100167	0,5	7,345100
6,108500	0,5	7,332400
6,116833	0,5	7,315750
6,125167	0,5	7,299050
6,133500	0,5	7,305050
6,141833	0,5	7,303950
6,150167	0,5	7,326350
6,158500	0,5	7,342400
6,166833	0,5	7,373700
6,175167	0,5	7,406750
6,183500	0,5	7,445350
6,191833	0,5	7,486900
6,200167	0,5	7,512750
6,208500	0,5	7,551450
6,216833	0,5	7,563200
6,225167	0,5	7,564150
6,233500	0,5	7,565400
6,241833	0,5	7,570000
6,250167	0,5	7,575900
6,258500	0,5	7,567850
6,266833	0,5	7,546350
6,275167	0,5	7,527400
6,283500	0,5	7,501600
6,291833	0,5	7,473800
6,300167	0,5	7,428850
6,308500	0,5	7,386250
6,316833	0,5	7,335300
6,325167	0,5	7,287400
6,333500	0,5	7,247750
6,341833	0,5	7,209200
6,350167	0,5	7,179050
6,358500	0,5	7,178900
6,366833	0,5	7,165100
6,375167	0,5	7,173200
6,383500	0,5	7,188700
6,391833	0,5	7,227950
6,400167	0,5	7,284850
6,408500	0,5	7,332400
6,416833	0,5	7,383550
6,425167	0,5	7,441550
6,433500	0,5	7,507700
6,441833	0,5	7,585950
6,450167	0,5	7,680700
6,458500	0,5	7,796150
6,466833	0,5	7,956950
6,475167	0,5	8,171550
6,483500	0,5	8,470150
6,491833	0,5	8,872200
6,500167	0,5	9,439000
6,508500	0,5	10,176800
6,516833	0,5	11,101000
6,525167	0,5	12,214850
6,533500	0,5	13,480600
6,541833	0,5	14,822200
6,550167	0,5	16,126950
6,558500	0,5	17,259950
6,566833	0,5	18,115400
6,575167	0,5	18,113450
6,583500	0,5	18,752450
6,591833	0,5	18,477500
6,600167	0,5	17,868050
6,608500	0,5	16,992650
6,616833	0,5	15,938950
6,625167	0,5	14,796050
6,633500	0,5	13,632950
6,641833	0,5	12,523300
6,650167	0,5	11,524550
6,658500	0,5	10,637100
6,666833	0,5	9,877950
6,675167	0,5	9,275050
6,683500	0,5	8,789750
6,691833	0,5	8,438750
6,700167	0,5	8,156600
6,708500	0,5	7,949650
6,716833	0,5	7,790050
6,725167	0,5	7,680350
6,733500	0,5	7,589050
6,741833	0,5	7,525250
6,750167	0,5	7,467450
6,758500	0,5	7,422150
6,766833	0,5	7,384150
6,775167	0,5	7,343350
6,783500	0,5	7,294150
6,791833	0,5	7,241500
6,800167	0,5	7,193350
6,808500	0,5	7,122400
6,816833	0,5	6,980200
6,825167	0,5	6,996550
6,833500	0,5	6,943150
6,841833	0,5	6,910050
6,850167	0,5	6,869250
6,858500	0,5	6,830950
6,866833	0,5	6,802600
6,875167	0,5	6,773450
6,883500	0,5	6,752850
6,891833	0,5	6,729950
6,900167	0,5	6,711000
6,908500	0,5	6,690200
6,916833	0,5	6,675000
6,925167	0,5	6,659700
6,933500	0,5	6,645700
6,941833	0,5	6,641600
6,950167	0,5	6,663600
6,958500	0,5	6,668100
6,966833	0,5	6,682450
6,975167	0,5	6,702650
6,983500	0,5	6,720050
6,991833	0,5	6,737150
7,000167	0,5	6,721950
7,008500	0,5	6,711800
7,016833	0,5	6,692550
7,025167	0,5	6,675800
7,033500	0,5	6,659900
7,041833	0,5	6,657150
7,050167	0,5	6,651050
7,058500	0,5	6,658800
7,066833	0,5	6,668000
7,075167	0,5	6,684700
7,083500	0,5	6,695100
7,091833	0,5	6,713850
7,100167	0,5	6,723700
7,108500	0,5	6,711600
7,116833	0,5	6,690750
7,125167	0,5	6,661050
7,133500	0,5	6,622750
7,141833	0,5	6,574950
7,150167	0,5	6,513350
7,158500	0,5	6,455700
7,166833	0,5	6,405950
7,175167	0,5	6,365550
7,183500	0,5	6,336550
7,191833	0,5	6,312000
7,200167	0,5	6,297450
7,208500	0,5	6,274500
7,216833	0,5	6,258700
7,225167	0,5	6,236700
7,233500	0,5	6,217600
7,241833	0,5	6,202500
7,250167	0,5	6,178100
7,258500	0,5	6,142850
7,266833	0,5	6,115200
7,275167	0,5	6,085050
7,283500	0,5	6,071200
7,291833	0,5	6,050600
7,300167	0,5	6,032100
7,308500	0,5	6,013200
7,316833	0,5	6,004750
7,325167	0,5	5,998550
7,333500	0,5	5,995950
7,341833	0,5	5,996250
7,350167	0,5	5,995050
7,358500	0,5	5,997050
7,366833	0,5	5,995300
7,375167	0,5	6,009300
7,383500	0,5	6,028100
7,391833	0,5	6,073150
7,400167	0,5	6,134550
7,408500	0,5	6,232400
7,416833	0,5	6,360650
7,425167	0,5	6,517050
7,433500	0,5	6,677950
7,441833	0,5	6,836900
7,450167	0,5	6,951050
7,458500	0,5	7,009550
7,466833	0,5	6,965050
7,475167	0,5	6,818150
7,483500	0,5	6,608600
7,491833	0,5	6,396600
7,500167	0,5	6,225500
7,508500	0,5	6,117900
7,516833	0,5	6,051350
7,525167	0,5	6,012700
7,533500	0,5	5,998300
7,541833	0,5	5,989550
7,550167	0,5	5,987050
7,558500	0,5	6,002250
7,566833	0,5	6,044000
7,575167	0,5	6,122050
7,583500	0,5	6,239900
7,591833	0,5	6,390450
7,600167	0,5	6,598050
7,608500	0,5	6,864500
7,616833	0,5	7,227000
7,625167	0,5	7,713800
7,633500	0,5	8,390100
7,641833	0,5	9,302150
7,650167	0,5	10,505350
7,658500	0,5	12,016150
7,666833	0,5	13,799750
7,675167	0,5	15,754800
7,683500	0,5	17,738250
7,691833	0,5	19,504400
7,700167	0,5	20,820000
7,708500	0,5	21,479250
7,716833	0,5	21,350750
7,725167	0,5	20,426250
7,733500	0,5	18,808000
7,741833	0,5	16,748200
7,750167	0,5	14,544300
7,758500	0,5	12,474100
7,766833	0,5	10,715850
7,775167	0,5	9,362300
7,783500	0,5	8,413800
7,791833	0,5	7,828550
7,800167	0,5	7,561250
7,808500	0,5	7,561400
7,816833	0,5	7,779600
7,825167	0,5	8,170850
7,833500	0,5	8,674400
7,841833	0,5	9,230700
7,850167	0,5	9,844550
7,858500	0,5	10,596150
7,866833	0,5	11,720000
7,875167	0,5	13,728150
7,883500	0,5	17,542650
7,891833	0,5	24,475150
7,900167	0,5	35,527751
7,908500	0,5	50,178201
7,916833	0,5	65,542801
7,925167	0,5	77,146301
7,933500	0,5	81,261001
7,941833	0,5	76,938951
7,950167	0,5	66,236301
7,958500	0,5	52,647301
7,966833	0,5	39,460651
7,975167	0,5	28,685750
7,983500	0,5	20,998400
7,991833	0,5	16,028450
8,000167	0,5	12,999450
8,008500	0,5	11,153400
8,016833	0,5	9,955950
8,025167	0,5	9,112450
8,033500	0,5	8,489950
8,041833	0,5	8,025150
8,050167	0,5	7,664700
8,058500	0,5	7,357150
8,066833	0,5	7,098500
8,075167	0,5	6,880900
8,083500	0,5	6,710500
8,091833	0,5	6,585150
8,100167	0,5	6,496450
8,108500	0,5	6,452300
8,116833	0,5	6,431000
8,125167	0,5	6,434650
8,133500	0,5	6,441300
8,141833	0,5	6,440700
8,150167	0,5	6,450550
8,158500	0,5	6,472300
8,166833	0,5	6,482050
8,175167	0,5	6,470750
8,183500	0,5	6,449800
8,191833	0,5	6,454000
8,200167	0,5	6,508750
8,208500	0,5	6,570950
8,216833	0,5	6,579200
8,225167	0,5	6,495350
8,233500	0,5	6,362450
8,241833	0,5	6,231750
8,250167	0,5	6,128050
8,258500	0,5	6,050350
8,266833	0,5	5,980000
8,275167	0,5	5,907350
8,283500	0,5	5,828750
8,291833	0,5	5,753900
8,300167	0,5	5,700800
8,308500	0,5	5,672500
8,316833	0,5	5,666800
8,325167	0,5	5,661750
8,333500	0,5	5,652800
8,341833	0,5	5,629700
8,350167	0,5	5,609100
8,358500	0,5	5,589000
8,366833	0,5	5,580100
8,375167	0,5	5,574600
8,383500	0,5	5,580200
8,391833	0,5	5,585250
8,400167	0,5	5,597150
8,408500	0,5	5,611800
8,416833	0,5	5,635650
8,425167	0,5	5,668350
8,433500	0,5	5,702300
8,441833	0,5	5,734700
8,450167	0,5	5,763550
8,458500	0,5	5,786150
8,466833	0,5	5,794550
8,475167	0,5	5,795050
8,483500	0,5	5,800500
8,491833	0,5	5,842700
8,500167	0,5	5,916900
8,508500	0,5	5,989100
8,516833	0,5	6,011750
8,525167	0,5	5,979800
8,533500	0,5	5,905150
8,541833	0,5	5,833200
8,550167	0,5	5,783550
8,558500	0,5	5,757950
8,566833	0,5	5,752750
8,575167	0,5	5,754900
8,583500	0,5	5,733200
8,591833	0,5	5,705750
8,600167	0,5	5,683150
8,608500	0,5	5,680300
8,616833	0,5	5,712800
8,625167	0,5	5,796750
8,633500	0,5	5,926700
8,641833	0,5	6,086900
8,650167	0,5	6,251050
8,658500	0,5	6,388650
8,666833	0,5	6,480700
8,675167	0,5	6,544700
8,683500	0,5	6,609550
8,691833	0,5	6,722850
8,700167	0,5	6,916050
8,708500	0,5	7,194650
8,716833	0,5	7,545500
8,725167	0,5	7,932350
8,733500	0,5	8,351300
8,741833	0,5	8,851850
8,750167	0,5	9,561700
8,758500	0,5	10,783000
8,766833	0,5	13,210150
8,775167	0,5	18,065850
8,783500	0,5	26,580350
8,791833	0,5	38,619601
8,800167	0,5	51,566451
8,808500	0,5	60,966251
8,816833	0,5	63,110051
8,825167	0,5	57,455601
8,833500	0,5	46,669951
8,841833	0,5	34,666201
8,850167	0,5	24,410600
8,858500	0,5	17,066300
8,866833	0,5	12,426050
8,875167	0,5	9,718100
8,883500	0,5	8,191950
8,891833	0,5	7,334900
8,900167	0,5	6,838350
8,908500	0,5	6,550400
8,916833	0,5	6,378900
8,925167	0,5	6,283400
8,933500	0,5	6,228450
8,941833	0,5	6,191300
8,950167	0,5	6,168850
8,958500	0,5	6,162800
8,966833	0,5	6,182000
8,975167	0,5	6,197700
8,983500	0,5	6,179550
8,991833	0,5	6,118000
9,000167	0,5	6,042600
9,008500	0,5	5,979900
9,016833	0,5	5,949600
9,025167	0,5	5,970550
9,033500	0,5	6,033900
9,041833	0,5	6,143550
9,050167	0,5	6,287850
9,058500	0,5	6,440150
9,066833	0,5	6,565600
9,075167	0,5	6,642350
9,083500	0,5	6,645350
9,091833	0,5	6,594000
9,100167	0,5	6,512000
9,108500	0,5	6,435250
9,116833	0,5	6,380350
9,125167	0,5	6,361850
9,133500	0,5	6,377800
9,141833	0,5	6,414600
9,150167	0,5	6,478350
9,158500	0,5	6,569650
9,166833	0,5	6,685600
9,175167	0,5	6,794850
9,183500	0,5	6,876300
9,191833	0,5	6,938100
9,200167	0,5	6,983900
9,208500	0,5	7,022950
9,216833	0,5	7,099000
9,225167	0,5	7,260800
9,233500	0,5	7,555800
9,241833	0,5	8,079350
9,250167	0,5	9,051250
9,258500	0,5	10,905650
9,266833	0,5	14,284450
9,275167	0,5	19,765900
9,283500	0,5	27,232750
9,291833	0,5	35,655851
9,300167	0,5	43,423451
9,308500	0,5	48,798401
9,316833	0,5	50,388801
9,325167	0,5	47,925951
9,333500	0,5	42,390751
9,341833	0,5	35,365551
9,350167	0,5	28,390000
9,358500	0,5	22,443200
9,366833	0,5	17,902150
9,375167	0,5	14,699400
9,383500	0,5	12,561950
9,391833	0,5	11,169050
9,400167	0,5	10,247000
9,408500	0,5	9,594500
9,416833	0,5	9,093750
9,425167	0,5	8,685600
9,433500	0,5	8,346850
9,441833	0,5	8,067000
9,450167	0,5	7,845300
9,458500	0,5	7,666100
9,466833	0,5	7,495950
9,475167	0,5	7,319400
9,483500	0,5	7,131850
9,491833	0,5	6,935000
9,500167	0,5	6,744500
9,508500	0,5	6,562150
9,516833	0,5	6,396250
9,525167	0,5	6,237000
9,533500	0,5	6,071550
9,541833	0,5	5,904250
9,550167	0,5	5,741400
9,558500	0,5	5,584750
9,566833	0,5	5,448700
9,575167	0,5	5,341500
9,583500	0,5	5,252100
9,591833	0,5	5,193750
9,600167	0,5	5,157100
9,608500	0,5	5,147800
9,616833	0,5	5,166050
9,625167	0,5	5,201300
9,633500	0,5	5,242300
9,641833	0,5	5,268150
9,650167	0,5	5,273200
9,658500	0,5	5,245550
9,666833	0,5	5,190550
9,675167	0,5	5,123750
9,683500	0,5	5,049750
9,691833	0,5	4,980350
9,700167	0,5	4,914600
9,708500	0,5	4,863500
9,716833	0,5	4,819850
9,725167	0,5	4,782450
9,733500	0,5	4,748650
9,741833	0,5	4,722350
9,750167	0,5	4,699800
9,758500	0,5	4,688550
9,766833	0,5	4,681650
9,775167	0,5	4,679350
9,783500	0,5	4,682600
9,791833	0,5	4,698800
9,800167	0,5	4,724550
9,808500	0,5	4,760850
9,816833	0,5	4,816300
9,825167	0,5	4,885650
9,833500	0,5	4,972400
9,841833	0,5	5,073550
9,850167	0,5	5,186100
9,858500	0,5	5,300000
9,866833	0,5	5,416100
9,875167	0,5	5,534650
9,883500	0,5	5,652250
9,891833	0,5	5,766450
9,900167	0,5	5,884450
9,908500	0,5	6,003400
9,916833	0,5	6,127850
9,925167	0,5	6,236450
9,933500	0,5	6,320200
9,941833	0,5	6,352150
9,950167	0,5	6,321100
9,958500	0,5	6,198700
9,966833	0,5	6,006550
9,975167	0,5	5,764450
9,983500	0,5	5,511350
9,991833	0,5	5,269850
10,000167	0,5	5,067350
10,008500	0,5	4,899900
10,016833	0,5	4,766800
10,025167	0,5	4,667750
10,033500	0,5	4,591100
10,041833	0,5	4,544350
10,050167	0,5	4,514250
10,058500	0,5	4,503700
10,066833	0,5	4,506650
10,075167	0,5	4,525550
10,083500	0,5	4,557600
10,091833	0,5	4,601550
10,100167	0,5	4,652400
10,108500	0,5	4,703000
10,116833	0,5	4,752150
10,125167	0,5	4,793950
10,133500	0,5	4,825350
10,141833	0,5	4,849800
10,150167	0,5	4,864750
10,158500	0,5	4,868350
10,166833	0,5	4,865700
10,175167	0,5	4,857400
10,183500	0,5	4,851650
10,191833	0,5	4,854750
10,200167	0,5	4,866800
10,208500	0,5	4,891800
10,216833	0,5	4,911800
10,225167	0,5	4,914750
10,233500	0,5	4,897150
10,241833	0,5	4,853600
10,250167	0,5	4,796600
10,258500	0,5	4,738250
10,266833	0,5	4,694950
10,275167	0,5	4,673700
10,283500	0,5	4,667150
10,291833	0,5	4,678650
10,300167	0,5	4,702250
10,308500	0,5	4,733650
10,316833	0,5	4,760550
10,325167	0,5	4,783450
10,333500	0,5	4,786000
10,341833	0,5	4,768650
10,350167	0,5	4,733200
10,358500	0,5	4,681200
10,366833	0,5	4,617950
10,375167	0,5	4,565350
10,383500	0,5	4,522350
10,391833	0,5	4,503100
10,400167	0,5	4,501850
10,408500	0,5	4,513300
10,416833	0,5	4,536100
10,425167	0,5	4,564300
10,433500	0,5	4,596850
10,441833	0,5	4,633550
10,450167	0,5	4,663350
10,458500	0,5	4,690500
10,466833	0,5	4,700000
10,475167	0,5	4,687500
10,483500	0,5	4,644700
10,491833	0,5	4,589650
10,500167	0,5	4,529000
10,508500	0,5	4,457000
10,516833	0,5	4,385000
10,525167	0,5	4,316700
10,533500	0,5	4,255700
10,541833	0,5	4,197250
10,550167	0,5	4,146300
10,558500	0,5	4,103100
10,566833	0,5	4,067850
10,575167	0,5	4,047500
10,583500	0,5	4,031450
10,591833	0,5	4,031800
10,600167	0,5	4,037350
10,608500	0,5	4,055550
10,616833	0,5	4,082250
10,625167	0,5	4,125500
10,633500	0,5	4,171350
10,641833	0,5	4,229100
10,650167	0,5	4,296450
10,658500	0,5	4,351500
10,666833	0,5	4,390100
10,675167	0,5	4,404350
10,683500	0,5	4,386650
10,691833	0,5	4,337650
10,700167	0,5	4,258600
10,708500	0,5	4,163800
10,716833	0,5	4,069850
10,725167	0,5	3,988300
10,733500	0,5	3,919400
10,741833	0,5	3,863900
10,750167	0,5	3,815100
10,758500	0,5	3,773850
10,766833	0,5	3,740650
10,775167	0,5	3,721000
10,783500	0,5	3,701650
10,791833	0,5	3,711300
10,800167	0,5	3,734500
10,808500	0,5	3,775300
10,816833	0,5	3,838650
10,825167	0,5	3,926350
10,833500	0,5	4,047800
10,841833	0,5	4,188750
10,850167	0,5	4,331400
10,858500	0,5	4,455500
10,866833	0,5	4,539800
10,875167	0,5	4,565900
10,883500	0,5	4,521100
10,891833	0,5	4,419250
10,900167	0,5	4,278800
10,908500	0,5	4,119950
10,916833	0,5	3,968550
10,925167	0,5	3,840450
10,933500	0,5	3,720500
10,941833	0,5	3,634050
10,950167	0,5	3,559500
10,958500	0,5	3,494700
10,966833	0,5	3,445000
10,975167	0,5	3,399950
10,983500	0,5	3,368900
10,991833	0,5	3,337500
11,000167	0,5	3,308300
11,008500	0,5	3,282300
11,016833	0,5	3,280250
11,025167	0,5	3,296000
11,033500	0,5	3,343950
11,041833	0,5	3,411400
11,050167	0,5	3,493650
11,058500	0,5	3,564000
11,066833	0,5	3,620400
11,075167	0,5	3,659200
11,083500	0,5	3,687400
11,091833	0,5	3,725100
11,100167	0,5	3,753000
11,108500	0,5	3,773800
11,116833	0,5	3,778650
11,125167	0,5	3,763550
11,133500	0,5	3,728050
11,141833	0,5	3,679100
11,150167	0,5	3,621350
11,158500	0,5	3,578450
11,166833	0,5	3,546700
11,175167	0,5	3,545000
11,183500	0,5	3,574600
11,191833	0,5	3,630250
11,200167	0,5	3,697900
11,208500	0,5	3,758750
11,216833	0,5	3,796450
11,225167	0,5	3,795400
11,233500	0,5	3,753850
11,241833	0,5	3,700600
11,250167	0,5	3,632650
11,258500	0,5	3,569150
11,266833	0,5	3,514500
11,275167	0,5	3,472650
11,283500	0,5	3,451050
11,291833	0,5	3,429250
11,300167	0,5	3,420600
11,308500	0,5	3,412650
11,316833	0,5	3,414350
11,325167	0,5	3,423700
11,333500	0,5	3,446900
11,341833	0,5	3,474850
11,350167	0,5	3,501050
11,358500	0,5	3,519950
11,366833	0,5	3,515450
11,375167	0,5	3,484150
11,383500	0,5	3,448800
11,391833	0,5	3,399650
11,400167	0,5	3,351600
11,408500	0,5	3,306400
11,416833	0,5	3,272200
11,425167	0,5	3,247550
11,433500	0,5	3,233800
11,441833	0,5	3,227600
11,450167	0,5	3,232550
11,458500	0,5	3,249450
11,466833	0,5	3,279600
11,475167	0,5	3,319900
11,483500	0,5	3,361250
11,491833	0,5	3,396850
11,500167	0,5	3,419350
11,508500	0,5	3,434600
11,516833	0,5	3,428200
11,525167	0,5	3,432000
11,533500	0,5	3,440750
11,541833	0,5	3,461100
11,550167	0,5	3,498500
11,558500	0,5	3,557850
11,566833	0,5	3,638950
11,575167	0,5	3,748650
11,583500	0,5	3,885300
11,591833	0,5	4,040250
11,600167	0,5	4,235700
11,608500	0,5	4,487650
11,616833	0,5	4,800650
11,625167	0,5	5,162950
11,633500	0,5	5,537150
11,641833	0,5	5,870350
11,650167	0,5	6,108600
11,658500	0,5	6,210850
11,666833	0,5	6,168350
11,675167	0,5	6,007700
11,683500	0,5	5,766900
11,691833	0,5	5,469650
11,700167	0,5	5,159550
11,708500	0,5	4,866300
11,716833	0,5	4,616200
11,725167	0,5	4,414150
11,733500	0,5	4,272150
11,741833	0,5	4,185150
11,750167	0,5	4,167150
11,758500	0,5	4,200750
11,766833	0,5	4,281500
11,775167	0,5	4,392050
11,783500	0,5	4,505800
11,791833	0,5	4,603300
11,800167	0,5	4,665150
11,808500	0,5	4,695950
11,816833	0,5	4,680450
11,825167	0,5	4,669150
11,833500	0,5	4,637800
11,841833	0,5	4,612650
11,850167	0,5	4,588150
11,858500	0,5	4,569950
11,866833	0,5	4,562150
11,875167	0,5	4,549450
11,883500	0,5	4,526000
11,891833	0,5	4,497950
11,900167	0,5	4,470850
11,908500	0,5	4,448050
11,916833	0,5	4,435400
11,925167	0,5	4,448600
11,933500	0,5	4,479700
11,941833	0,5	4,539850
11,950167	0,5	4,632450
11,958500	0,5	4,735200
11,966833	0,5	4,835400
11,975167	0,5	4,937000
11,983500	0,5	5,004250
11,991833	0,5	5,033300
12,000167	0,5	5,028550
12,008500	0,5	4,991500
12,016833	0,5	4,953400
12,025167	0,5	4,892300
12,033500	0,5	4,825950
12,041833	0,5	4,745700
12,050167	0,5	4,667850
12,058500	0,5	4,582850
12,066833	0,5	4,504600
12,075167	0,5	4,433650
12,083500	0,5	4,373150
12,091833	0,5	4,327050
12,100167	0,5	4,296100
12,108500	0,5	4,260500
12,116833	0,5	4,239250
12,125167	0,5	4,225150
12,133500	0,5	4,197550
12,141833	0,5	4,166650
12,150167	0,5	4,129900
12,158500	0,5	4,090400
12,166833	0,5	4,050350
12,175167	0,5	4,008650
12,183500	0,5	3,965800
12,191833	0,5	3,922750
12,200167	0,5	3,881750
12,208500	0,5	3,844150
12,216833	0,5	3,803450
12,225167	0,5	3,759450
12,233500	0,5	3,731650
12,241833	0,5	3,699450
12,250167	0,5	3,671450
12,258500	0,5	3,640000
12,266833	0,5	3,618950
12,275167	0,5	3,604850
12,283500	0,5	3,590450
12,291833	0,5	3,586950
12,300167	0,5	3,588450
12,308500	0,5	3,607300
12,316833	0,5	3,639850
12,325167	0,5	3,669150
12,333500	0,5	3,703200
12,341833	0,5	3,733100
12,350167	0,5	3,763450
12,358500	0,5	3,783200
12,366833	0,5	3,798050
12,375167	0,5	3,795050
12,383500	0,5	3,779350
12,391833	0,5	3,753900
12,400167	0,5	3,705400
12,408500	0,5	3,657000
12,416833	0,5	3,624200
12,425167	0,5	3,599000
12,433500	0,5	3,586400
12,441833	0,5	3,591700
12,450167	0,5	3,613750
12,458500	0,5	3,648950
12,466833	0,5	3,690150
12,475167	0,5	3,733850
12,483500	0,5	3,777250
12,491833	0,5	3,822900
12,500167	0,5	3,871500
12,508500	0,5	3,917200
12,516833	0,5	3,950200
12,525167	0,5	3,987050
12,533500	0,5	4,043700
12,541833	0,5	4,140000
12,550167	0,5	4,231900
12,558500	0,5	4,326100
12,566833	0,5	4,400800
12,575167	0,5	4,486350
12,583500	0,5	4,663550
12,591833	0,5	5,053750
12,600167	0,5	5,366350
12,608500	0,5	5,542600
12,616833	0,5	5,658350
12,625167	0,5	5,404150
12,633500	0,5	4,841800
12,641833	0,5	4,324550
12,650167	0,5	3,714550
12,658500	0,5	3,025250
12,666833	0,5	2,511200
12,675167	0,5	2,164100
12,683500	0,5	1,923200
12,691833	0,5	1,747250
12,700167	0,5	1,608100
12,708500	0,5	1,507650
12,716833	0,5	1,423650
12,725167	0,5	1,350850
12,733500	0,5	1,290100
12,741833	0,5	1,233800
12,750167	0,5	1,203750
12,758500	0,5	1,181250
12,766833	0,5	1,164100
12,775167	0,5	1,149250
12,783500	0,5	1,141900
12,791833	0,5	1,128450
12,800167	0,5	1,124800
12,808500	0,5	1,115500
12,816833	0,5	1,108250
12,825167	0,5	1,101850
12,833500	0,5	1,089700
12,841833	0,5	1,087400
12,850167	0,5	1,069450
12,858500	0,5	1,071950
12,866833	0,5	1,059200
12,875167	0,5	1,052950
12,883500	0,5	1,033300
12,891833	0,5	1,014450
12,900167	0,5	1,002700
12,908500	0,5	0,992150
12,916833	0,5	0,971350
12,925167	0,5	0,950500
12,933500	0,5	0,929900
12,941833	0,5	0,915700
12,950167	0,5	0,899550
12,958500	0,5	0,882600
12,966833	0,5	0,869600
12,975167	0,5	0,856200
12,983500	0,5	0,851250
12,991833	0,5	0,842300
13,000167	0,5	0,832500
13,008500	0,5	0,836450
13,016833	0,5	0,829550
13,025167	0,5	0,824050
13,033500	0,5	0,821000
13,041833	0,5	0,814250
13,050167	0,5	0,822250
13,058500	0,5	0,826100
13,066833	0,5	0,834150
13,075167	0,5	0,841500
13,083500	0,5	0,849550
13,091833	0,5	0,850950
13,100167	0,5	0,857700
13,108500	0,5	0,853750
13,116833	0,5	0,850600
13,125167	0,5	0,845550
13,133500	0,5	0,837450
13,141833	0,5	0,823150
13,150167	0,5	0,810350
13,158500	0,5	0,802200
13,166833	0,5	0,785800
13,175167	0,5	0,771950
13,183500	0,5	0,754750
13,191833	0,5	0,746300
13,200167	0,5	0,739450
13,208500	0,5	0,741900
13,216833	0,5	0,740150
13,225167	0,5	0,750600
13,233500	0,5	0,754300
13,241833	0,5	0,761200
13,250167	0,5	0,774850
13,258500	0,5	0,785600
13,266833	0,5	0,794450
13,275167	0,5	0,810000
13,283500	0,5	0,815750
13,291833	0,5	0,817600
13,300167	0,5	0,821600
13,308500	0,5	0,824100
13,316833	0,5	0,816200
13,325167	0,5	0,802950
13,333500	0,5	0,784700
13,341833	0,5	0,766550
13,350167	0,5	0,756050
13,358500	0,5	0,742850
13,366833	0,5	0,731050
13,375167	0,5	0,721250
13,383500	0,5	0,716400
13,391833	0,5	0,712600
13,400167	0,5	0,708400
13,408500	0,5	0,697150
13,416833	0,5	0,694300
13,425167	0,5	0,688200
13,433500	0,5	0,675800
13,441833	0,5	0,662650
13,450167	0,5	0,663500
13,458500	0,5	0,655950
13,466833	0,5	0,647450
13,475167	0,5	0,637050
13,483500	0,5	0,629950
13,491833	0,5	0,625450
13,500167	0,5	0,625300
13,508500	0,5	0,618000
13,516833	0,5	0,613650
13,525167	0,5	0,605550
13,533500	0,5	0,599800
13,541833	0,5	0,598500
13,550167	0,5	0,591200
13,558500	0,5	0,587300
13,566833	0,5	0,581450
13,575167	0,5	0,585950
13,583500	0,5	0,570600
13,591833	0,5	0,572750
13,600167	0,5	0,575300
13,608500	0,5	0,573150
13,616833	0,5	0,571600
13,625167	0,5	0,561200
13,633500	0,5	0,560750
13,641833	0,5	0,562800
13,650167	0,5	0,559500
13,658500	0,5	0,560450
13,666833	0,5	0,562900
13,675167	0,5	0,564100
13,683500	0,5	0,563950
13,691833	0,5	0,563850
13,700167	0,5	0,566150
13,708500	0,5	0,561200
13,716833	0,5	0,566900
13,725167	0,5	0,570250
13,733500	0,5	0,561200
13,741833	0,5	0,569200
13,750167	0,5	0,572350
13,758500	0,5	0,569350
13,766833	0,5	0,569600
13,775167	0,5	0,554550
13,783500	0,5	0,562450
13,791833	0,5	0,564600
13,800167	0,5	0,568150
13,808500	0,5	0,566700
13,816833	0,5	0,571850
13,825167	0,5	0,572700
13,833500	0,5	0,577300
13,841833	0,5	0,582100
13,850167	0,5	0,586450
13,858500	0,5	0,587300
13,866833	0,5	0,593150
13,875167	0,5	0,598100
13,883500	0,5	0,596050
13,891833	0,5	0,610500
13,900167	0,5	0,613700
13,908500	0,5	0,618100
13,916833	0,5	0,620300
13,925167	0,5	0,613650
13,933500	0,5	0,623400
13,941833	0,5	0,634150
13,950167	0,5	0,630900
13,958500	0,5	0,635650
13,966833	0,5	0,636700
13,975167	0,5	0,642150
13,983500	0,5	0,648700
13,991833	0,5	0,660200
14,000167	0,5	0,666550
14,008500	0,5	0,672100
14,016833	0,5	0,683300
14,025167	0,5	0,685950
14,033500	0,5	0,684750
14,041833	0,5	0,702900
14,050167	0,5	0,704600
14,058500	0,5	0,708300
14,066833	0,5	0,711800
14,075167	0,5	0,713300
14,083500	0,5	0,726800
14,091833	0,5	0,727550
14,100167	0,5	0,741200
14,108500	0,5	0,744700
14,116833	0,5	0,756050
14,125167	0,5	0,762350
14,133500	0,5	0,776000
14,141833	0,5	0,786750
14,150167	0,5	0,794200
14,158500	0,5	0,808150
14,166833	0,5	0,814500
14,175167	0,5	0,811000
14,183500	0,5	0,818750
14,191833	0,5	0,825700
14,200167	0,5	0,832600
14,208500	0,5	0,830200
14,216833	0,5	0,830350
14,225167	0,5	0,835800
14,233500	0,5	0,853250
14,241833	0,5	0,868350
14,250167	0,5	0,875850
14,258500	0,5	0,881050
14,266833	0,5	0,888450
14,275167	0,5	0,897850
14,283500	0,5	0,909200
14,291833	0,5	0,918350
14,300167	0,5	0,929350
14,308500	0,5	0,946850
14,316833	0,5	0,954500
14,325167	0,5	0,965250
14,333500	0,5	0,983300
14,341833	0,5	1,002450
14,350167	0,5	1,014550
14,358500	0,5	1,022400
14,366833	0,5	1,032300
14,375167	0,5	1,047200
14,383500	0,5	1,067500
14,391833	0,5	1,084600
14,400167	0,5	1,102950
14,408500	0,5	1,123800
14,416833	0,5	1,141600
14,425167	0,5	1,162200
14,433500	0,5	1,186150
14,441833	0,5	1,201550
14,450167	0,5	1,220000
14,458500	0,5	1,253900
14,466833	0,5	1,262850
14,475167	0,5	1,277950
14,483500	0,5	1,308450
14,491833	0,5	1,325850
14,500167	0,5	1,342800
14,508500	0,5	1,348400
14,516833	0,5	1,362550
14,525167	0,5	1,385200
14,533500	0,5	1,396800
14,541833	0,5	1,415400
14,550167	0,5	1,428100
14,558500	0,5	1,441650
14,566833	0,5	1,452450
14,575167	0,5	1,465850
14,583500	0,5	1,472900
14,591833	0,5	1,487850
14,600167	0,5	1,501550
14,608500	0,5	1,519800
14,616833	0,5	1,516300
14,625167	0,5	1,537450
14,633500	0,5	1,552300
14,641833	0,5	1,567550
14,650167	0,5	1,571450
14,658500	0,5	1,569800
14,666833	0,5	1,569050
14,675167	0,5	1,570100
14,683500	0,5	1,556000
14,691833	0,5	1,545650
14,700167	0,5	1,530650
14,708500	0,5	1,522150
14,716833	0,5	1,518850
14,725167	0,5	1,521850
14,733500	0,5	1,526750
14,741833	0,5	1,533900
14,750167	0,5	1,548100
14,758500	0,5	1,554200
14,766833	0,5	1,542700
14,775167	0,5	1,559300
14,783500	0,5	1,566950
14,791833	0,5	1,568750
14,800167	0,5	1,567950
14,808500	0,5	1,547500
14,816833	0,5	1,555000
14,825167	0,5	1,543950
14,833500	0,5	1,548000
14,841833	0,5	1,554700
14,850167	0,5	1,581250
14,858500	0,5	1,608000
14,866833	0,5	1,640350
14,875167	0,5	1,661100
14,883500	0,5	1,659900
14,891833	0,5	1,645000
14,900167	0,5	1,615950
14,908500	0,5	1,580500
14,916833	0,5	1,536700
14,925167	0,5	1,519850
14,933500	0,5	1,499650
14,941833	0,5	1,491050
14,950167	0,5	1,479300
14,958500	0,5	1,473050
14,966833	0,5	1,471700
14,975167	0,5	1,461950
14,983500	0,5	1,431400
14,991833	0,5	1,408050
15,000167	0,5	1,376800
15,008500	0,5	1,358350
15,016833	0,5	1,338050
15,025167	0,5	1,321850
15,033500	0,5	1,303750
15,041833	0,5	1,294000
15,050167	0,5	1,287100
15,058500	0,5	1,274250
15,066833	0,5	1,267400
15,075167	0,5	1,276450
15,083500	0,5	1,269500
15,091833	0,5	1,262200
15,100167	0,5	1,249300
15,108500	0,5	1,238050
15,116833	0,5	1,239000
15,125167	0,5	1,231350
15,133500	0,5	1,227950
15,141833	0,5	1,220100
15,150167	0,5	1,221500
15,158500	0,5	1,215450
15,166833	0,5	1,214600
15,175167	0,5	1,207000
15,183500	0,5	1,205550
15,191833	0,5	1,206400
15,200167	0,5	1,204050
15,208500	0,5	1,184800
15,216833	0,5	1,186650
15,225167	0,5	1,184700
15,233500	0,5	1,175800
15,241833	0,5	1,162150
15,250167	0,5	1,144950
15,258500	0,5	1,145900
15,266833	0,5	1,140350
15,275167	0,5	1,138250
15,283500	0,5	1,133250
15,291833	0,5	1,129250
15,300167	0,5	1,124750
15,308500	0,5	1,125750
15,316833	0,5	1,119100
15,325167	0,5	1,119200
15,333500	0,5	1,115300
15,341833	0,5	1,121650
15,350167	0,5	1,106750
15,358500	0,5	1,101800
15,366833	0,5	1,104350
15,375167	0,5	1,107200
15,383500	0,5	1,095500
15,391833	0,5	1,087500
15,400167	0,5	1,073150
15,408500	0,5	1,074250
15,416833	0,5	1,071150
15,425167	0,5	1,068050
15,433500	0,5	1,069750
15,441833	0,5	1,068150
15,450167	0,5	1,073150
15,458500	0,5	1,072900
15,466833	0,5	1,076350
15,475167	0,5	1,070800
15,483500	0,5	1,074050
15,491833	0,5	1,073650
15,500167	0,5	1,059300
15,508500	0,5	1,061000
15,516833	0,5	1,062650
15,525167	0,5	1,056350
15,533500	0,5	1,043100
15,541833	0,5	1,012850
15,550167	0,5	1,004600
15,558500	0,5	0,994750
15,566833	0,5	0,987800
15,575167	0,5	0,978450
15,583500	0,5	0,970000
15,591833	0,5	0,966200
15,600167	0,5	0,964050
15,608500	0,5	0,961600
15,616833	0,5	0,962900
15,625167	0,5	0,967250
15,633500	0,5	0,960350
15,641833	0,5	0,967200
15,650167	0,5	0,942100
15,658500	0,5	0,949650
15,666833	0,5	0,939000
15,675167	0,5	0,922300
15,683500	0,5	0,907900
15,691833	0,5	0,887600
15,700167	0,5	0,888700
15,708500	0,5	0,886500
15,716833	0,5	0,875850
15,725167	0,5	0,874350
15,733500	0,5	0,870000
15,741833	0,5	0,863750
15,750167	0,5	0,863650
15,758500	0,5	0,862300
15,766833	0,5	0,861100
15,775167	0,5	0,852450
15,783500	0,5	0,855950
15,791833	0,5	0,851850
15,800167	0,5	0,841450
15,808500	0,5	0,853650
15,816833	0,5	0,853250
15,825167	0,5	0,847950
15,833500	0,5	0,839350
15,841833	0,5	0,820750
15,850167	0,5	0,832700
15,858500	0,5	0,824800
15,866833	0,5	0,822000
15,875167	0,5	0,818050
15,883500	0,5	0,812950
15,891833	0,5	0,810400
15,900167	0,5	0,807800
15,908500	0,5	0,801450
15,916833	0,5	0,794750
15,925167	0,5	0,795500
15,933500	0,5	0,797750
15,941833	0,5	0,789250
15,950167	0,5	0,784650
15,958500	0,5	0,790450
15,966833	0,5	0,776850
15,975167	0,5	0,772500
15,983500	0,5	0,751300
15,991833	0,5	0,745400
16,000167	0,5	0,743750
16,008500	0,5	0,746800
16,016833	0,5	0,739600
16,025167	0,5	0,742900
16,033500	0,5	0,733800
16,041833	0,5	0,738900
16,050167	0,5	0,736000
16,058500	0,5	0,737250
16,066833	0,5	0,729550
16,075167	0,5	0,726950
16,083500	0,5	0,722950
16,091833	0,5	0,707200
16,100167	0,5	0,701350
16,108500	0,5	0,699350
16,116833	0,5	0,686850
16,125167	0,5	0,672850
16,133500	0,5	0,657650
16,141833	0,5	0,643900
16,150167	0,5	0,646150
16,158500	0,5	0,638000
16,166833	0,5	0,636550
16,175167	0,5	0,637950
16,183500	0,5	0,638550
16,191833	0,5	0,633150
16,200167	0,5	0,640250
16,208500	0,5	0,633250
16,216833	0,5	0,638750
16,225167	0,5	0,642200
16,233500	0,5	0,643850
16,241833	0,5	0,628050
16,250167	0,5	0,636000
16,258500	0,5	0,631450
16,266833	0,5	0,625800
16,275167	0,5	0,607450
16,283500	0,5	0,594200
16,291833	0,5	0,595300
16,300167	0,5	0,596400
16,308500	0,5	0,597800
16,316833	0,5	0,589150
16,325167	0,5	0,593600
16,333500	0,5	0,581450
16,341833	0,5	0,579050
16,350167	0,5	0,566600
16,358500	0,5	0,560100
16,366833	0,5	0,552900
16,375167	0,5	0,551350
16,383500	0,5	0,525400
16,391833	0,5	0,520850
16,400167	0,5	0,518250
16,408500	0,5	0,511250
16,416833	0,5	0,500400
16,425167	0,5	0,483200
16,433500	0,5	0,477050
16,441833	0,5	0,477600
16,450167	0,5	0,474400
16,458500	0,5	0,471350
16,466833	0,5	0,473050
16,475167	0,5	0,466800
16,483500	0,5	0,473550
16,491833	0,5	0,471700
16,500167	0,5	0,480100
16,508500	0,5	0,478550
16,516833	0,5	0,487850
16,525167	0,5	0,490300
16,533500	0,5	0,479650
16,541833	0,5	0,495500
16,550167	0,5	0,502900
16,558500	0,5	0,499050
16,566833	0,5	0,494800
16,575167	0,5	0,470850
16,583500	0,5	0,472450
16,591833	0,5	0,465300
16,600167	0,5	0,456600
16,608500	0,5	0,446000
16,616833	0,5	0,437400
16,625167	0,5	0,423000
16,633500	0,5	0,413950
16,641833	0,5	0,407200
16,650167	0,5	0,392750
16,658500	0,5	0,390650
16,666833	0,5	0,385000
16,675167	0,5	0,383750
16,683500	0,5	0,363400
16,691833	0,5	0,377350
16,700167	0,5	0,374300
16,708500	0,5	0,369500
16,716833	0,5	0,361150
16,725167	0,5	0,353550
16,733500	0,5	0,363550
16,741833	0,5	0,366750
16,750167	0,5	0,359600
16,758500	0,5	0,362350
16,766833	0,5	0,363900
16,775167	0,5	0,365300
16,783500	0,5	0,366400
16,791833	0,5	0,369450
16,800167	0,5	0,368850
16,808500	0,5	0,355300
16,816833	0,5	0,366900
16,825167	0,5	0,350650
16,833500	0,5	0,342750
16,841833	0,5	0,347000
16,850167	0,5	0,340550
16,858500	0,5	0,327950
16,866833	0,5	0,313600
16,875167	0,5	0,295500
16,883500	0,5	0,303500
16,891833	0,5	0,295150
16,900167	0,5	0,292600
16,908500	0,5	0,286750
16,916833	0,5	0,286400
16,925167	0,5	0,282950
16,933500	0,5	0,277950
16,941833	0,5	0,274150
16,950167	0,5	0,267100
16,958500	0,5	0,270000
16,966833	0,5	0,272550
16,975167	0,5	0,256700
16,983500	0,5	0,263000
16,991833	0,5	0,265600
17,000167	0,5	0,256400
17,008500	0,5	0,250650
17,016833	0,5	0,230100
17,025167	0,5	0,233900
17,033500	0,5	0,228300
17,041833	0,5	0,238850
17,050167	0,5	0,238150
17,058500	0,5	0,247200
17,066833	0,5	0,251750
17,075167	0,5	0,265150
17,083500	0,5	0,281050
17,091833	0,5	0,303450
17,100167	0,5	0,329550
17,108500	0,5	0,356050
17,116833	0,5	0,379850
17,125167	0,5	0,398050
17,133500	0,5	0,434850
17,141833	0,5	0,460300
17,150167	0,5	0,479950
17,158500	0,5	0,480750
17,166833	0,5	0,477000
17,175167	0,5	0,462500
17,183500	0,5	0,448800
17,191833	0,5	0,415100
17,200167	0,5	0,384150
17,208500	0,5	0,345750
17,216833	0,5	0,316800
17,225167	0,5	0,288550
17,233500	0,5	0,266650
17,241833	0,5	0,246800
17,250167	0,5	0,238150
17,258500	0,5	0,235300
17,266833	0,5	0,226850
17,275167	0,5	0,228750
17,283500	0,5	0,246300
17,291833	0,5	0,251850
17,300167	0,5	0,258300
17,308500	0,5	0,261400
17,316833	0,5	0,272000
17,325167	0,5	0,303900
17,333500	0,5	0,322450
17,341833	0,5	0,353950
17,350167	0,5	0,372000
17,358500	0,5	0,396950
17,366833	0,5	0,414950
17,375167	0,5	0,436000
17,383500	0,5	0,450650
17,391833	0,5	0,465750
17,400167	0,5	0,482350
17,408500	0,5	0,494450
17,416833	0,5	0,479550
17,425167	0,5	0,495650
17,433500	0,5	0,497500
17,441833	0,5	0,490650
17,450167	0,5	0,474250
17,458500	0,5	0,451100
17,466833	0,5	0,448950
17,475167	0,5	0,437050
17,483500	0,5	0,431100
17,491833	0,5	0,419800
17,500167	0,5	0,415550
17,508500	0,5	0,408250
17,516833	0,5	0,408600
17,525167	0,5	0,403650
17,533500	0,5	0,406250
17,541833	0,5	0,401750
17,550167	0,5	0,417950
17,558500	0,5	0,413450
17,566833	0,5	0,407050
17,575167	0,5	0,428600
17,583500	0,5	0,440450
17,591833	0,5	0,438600
17,600167	0,5	0,431050
17,608500	0,5	0,416100
17,616833	0,5	0,414900
17,625167	0,5	0,407800
17,633500	0,5	0,396000
17,641833	0,5	0,386750
17,650167	0,5	0,378100
17,658500	0,5	0,374300
17,666833	0,5	0,372750
17,675167	0,5	0,376150
17,683500	0,5	0,377800
17,691833	0,5	0,380550
17,700167	0,5	0,398800
17,708500	0,5	0,413850
17,716833	0,5	0,445000
17,725167	0,5	0,502800
17,733500	0,5	0,576750
17,741833	0,5	0,682200
17,750167	0,5	0,811600
17,758500	0,5	0,984200
17,766833	0,5	1,180650
17,775167	0,5	1,354200
17,783500	0,5	1,473200
17,791833	0,5	1,526550
17,800167	0,5	1,490250
17,808500	0,5	1,380150
17,816833	0,5	1,211050
17,825167	0,5	1,012450
17,833500	0,5	0,818500
17,841833	0,5	0,644100
17,850167	0,5	0,514550
17,858500	0,5	0,386450
17,866833	0,5	0,323750
17,875167	0,5	0,268750
17,883500	0,5	0,226150
17,891833	0,5	0,187950
17,900167	0,5	0,150200
17,908500	0,5	0,135600
17,916833	0,5	0,124600
17,925167	0,5	0,110100
17,933500	0,5	0,098600
17,941833	0,5	0,092900
17,950167	0,5	0,089650
17,958500	0,5	0,084250
17,966833	0,5	0,078500
17,975167	0,5	0,073550
17,983500	0,5	0,069350
17,991833	0,5	0,080800
18,000167	0,5	0,078350
18,008500	0,5	0,066500
18,016833	0,5	0,070200
18,025167	0,5	0,061450
18,033500	0,5	0,049550
18,041833	0,5	0,026900
18,050167	0,5	-0,000350
18,058500	0,5	-0,001750
18,066833	0,5	-0,012550
18,075167	0,5	-0,014250
18,083500	0,5	-0,030200
18,091833	0,5	-0,035300
18,100167	0,5	-0,048100
18,108500	0,5	-0,055250
18,116833	0,5	-0,062650
18,125167	0,5	-0,076050
18,133500	0,5	-0,080600
18,141833	0,5	-0,086050
18,150167	0,5	-0,102700
18,158500	0,5	-0,114450
18,166833	0,5	-0,114650
18,175167	0,5	-0,129150
18,183500	0,5	-0,138750
18,191833	0,5	-0,160800
18,200167	0,5	-0,171500
18,208500	0,5	-0,182450
18,216833	0,5	-0,178550
18,225167	0,5	-0,189700
18,233500	0,5	-0,185400
18,241833	0,5	-0,196750
18,250167	0,5	-0,198400
18,258500	0,5	-0,202750
18,266833	0,5	-0,212700
18,275167	0,5	-0,223050
18,283500	0,5	-0,222700
18,291833	0,5	-0,232100
18,300167	0,5	-0,251800
18,308500	0,5	-0,250150
18,316833	0,5	-0,254950
18,325167	0,5	-0,266650
18,333500	0,5	-0,281150
18,341833	0,5	-0,302100
18,350167	0,5	-0,307300
18,358500	0,5	-0,305150
18,366833	0,5	-0,313700
18,375167	0,5	-0,310650
18,383500	0,5	-0,319900
18,391833	0,5	-0,315550
18,400167	0,5	-0,325600
18,408500	0,5	-0,327100
18,416833	0,5	-0,334900
18,425167	0,5	-0,339900
18,433500	0,5	-0,336250
18,441833	0,5	-0,346550
18,450167	0,5	-0,359300
18,458500	0,5	-0,350850
18,466833	0,5	-0,356400
18,475167	0,5	-0,366850
18,483500	0,5	-0,379950
18,491833	0,5	-0,396200
18,500167	0,5	-0,388500
18,508500	0,5	-0,399100
18,516833	0,5	-0,403850
18,525167	0,5	-0,411250
18,533500	0,5	-0,409050
18,541833	0,5	-0,417400
18,550167	0,5	-0,409950
18,558500	0,5	-0,418200
18,566833	0,5	-0,417100
18,575167	0,5	-0,416950
18,583500	0,5	-0,408850
18,591833	0,5	-0,428650
18,600167	0,5	-0,420000
18,608500	0,5	-0,415100
18,616833	0,5	-0,412250
18,625167	0,5	-0,424000
18,633500	0,5	-0,440000
18,641833	0,5	-0,439000
18,650167	0,5	-0,433850
18,658500	0,5	-0,429800
18,666833	0,5	-0,431000
18,675167	0,5	-0,422000
18,683500	0,5	-0,422150
18,691833	0,5	-0,412850
18,700167	0,5	-0,407300
18,708500	0,5	-0,397650
18,716833	0,5	-0,389150
18,725167	0,5	-0,371150
18,733500	0,5	-0,353050
18,741833	0,5	-0,352600
18,750167	0,5	-0,325500
18,758500	0,5	-0,305500
18,766833	0,5	-0,291500
18,775167	0,5	-0,281350
18,783500	0,5	-0,284950
18,791833	0,5	-0,258750
18,800167	0,5	-0,238250
18,808500	0,5	-0,229150
18,816833	0,5	-0,220000
18,825167	0,5	-0,209350
18,833500	0,5	-0,202000
18,841833	0,5	-0,205200
18,850167	0,5	-0,192900
18,858500	0,5	-0,197900
18,866833	0,5	-0,193750
18,875167	0,5	-0,200750
18,883500	0,5	-0,202000
18,891833	0,5	-0,220600
18,900167	0,5	-0,214450
18,908500	0,5	-0,229850
18,916833	0,5	-0,238950
18,925167	0,5	-0,263000
18,933500	0,5	-0,290550
18,941833	0,5	-0,295200
18,950167	0,5	-0,306250
18,958500	0,5	-0,320450
18,966833	0,5	-0,330000
18,975167	0,5	-0,337700
18,983500	0,5	-0,347750
18,991833	0,5	-0,351750
19,000167	0,5	-0,361850
19,008500	0,5	-0,364050
19,016833	0,5	-0,370600
19,025167	0,5	-0,372200
19,033500	0,5	-0,391850
19,041833	0,5	-0,398150
19,050167	0,5	-0,402750
19,058500	0,5	-0,419950
19,066833	0,5	-0,442900
19,075167	0,5	-0,463350
19,083500	0,5	-0,484350
19,091833	0,5	-0,487500
19,100167	0,5	-0,495950
19,108500	0,5	-0,502750
19,116833	0,5	-0,512800
19,125167	0,5	-0,521000
19,133500	0,5	-0,530650
19,141833	0,5	-0,539350
19,150167	0,5	-0,542050
19,158500	0,5	-0,549350
19,166833	0,5	-0,538850
19,175167	0,5	-0,541800
19,183500	0,5	-0,540700
19,191833	0,5	-0,520950
19,200167	0,5	-0,505000
19,208500	0,5	-0,507400
19,216833	0,5	-0,500750
19,225167	0,5	-0,510750
19,233500	0,5	-0,508550
19,241833	0,5	-0,513650
19,250167	0,5	-0,517650
19,258500	0,5	-0,539700
19,266833	0,5	-0,554000
19,275167	0,5	-0,571000
19,283500	0,5	-0,587300
19,291833	0,5	-0,603750
19,300167	0,5	-0,621750
19,308500	0,5	-0,628350
19,316833	0,5	-0,633350
19,325167	0,5	-0,645950
19,333500	0,5	-0,643250
19,341833	0,5	-0,624450
19,350167	0,5	-0,609600
19,358500	0,5	-0,591300
19,366833	0,5	-0,595150
19,375167	0,5	-0,575500
19,383500	0,5	-0,559450
19,391833	0,5	-0,539100
19,400167	0,5	-0,543350
19,408500	0,5	-0,544250
19,416833	0,5	-0,564200
19,425167	0,5	-0,584750
19,433500	0,5	-0,607550
19,441833	0,5	-0,637200
19,450167	0,5	-0,665050
19,458500	0,5	-0,692700
19,466833	0,5	-0,709800
19,475167	0,5	-0,750750
19,483500	0,5	-0,760300
19,491833	0,5	-0,774450
19,500167	0,5	-0,790650
19,508500	0,5	-0,810500
19,516833	0,5	-0,834950
19,525167	0,5	-0,841150
19,533500	0,5	-0,840000
19,541833	0,5	-0,854800
19,550167	0,5	-0,858850
19,558500	0,5	-0,868500
19,566833	0,5	-0,871600
19,575167	0,5	-0,876500
19,583500	0,5	-0,881950
19,591833	0,5	-0,881650
19,600167	0,5	-0,889850
19,608500	0,5	-0,882200
19,616833	0,5	-0,887100
19,625167	0,5	-0,904600
19,633500	0,5	-0,889150
19,641833	0,5	-0,885250
19,650167	0,5	-0,886700
19,658500	0,5	-0,886050
19,666833	0,5	-0,902850
19,675167	0,5	-0,876400
19,683500	0,5	-0,879200
19,691833	0,5	-0,874050
19,700167	0,5	-0,872550
19,708500	0,5	-0,956500
19,716833	0,5	-0,831450
19,725167	0,5	-0,819450
19,733500	0,5	-0,814000
19,741833	0,5	-0,820800
19,750167	0,5	-0,838250
19,758500	0,5	-0,860800
19,766833	0,5	-0,907250
19,775167	0,5	-0,942550
19,783500	0,5	-0,964850
19,791833	0,5	-0,987400
19,800167	0,5	-1,009850
19,808500	0,5	-1,036150
19,816833	0,5	-1,046200
19,825167	0,5	-1,054450
19,833500	0,5	-1,051500
19,841833	0,5	-1,057500
19,850167	0,5	-1,056000
19,858500	0,5	-1,063600
19,866833	0,5	-1,064450
19,875167	0,5	-1,068400
19,883500	0,5	-1,067300
19,891833	0,5	-1,068700
19,900167	0,5	-1,066650
19,908500	0,5	-1,058400
19,916833	0,5	-1,056900
19,925167	0,5	-1,033750
19,933500	0,5	-1,013900
19,941833	0,5	-0,999250
19,950167	0,5	-1,000250
19,958500	0,5	-1,015600
19,966833	0,5	-1,038550
19,975167	0,5	-1,053300
19,983500	0,5	-1,086900
19,991833	0,5	-1,106150
20,000167	0,5	-1,132450
20,008500	0,5	-1,140600
20,016833	0,5	-1,159450
20,025167	0,5	-1,168850
20,033500	0,5	-1,181200
20,041833	0,5	-1,190500
20,050167	0,5	-1,189950
20,058500	0,5	-1,196400
20,066833	0,5	-1,208750
20,075167	0,5	-1,202850
20,083500	0,5	-1,211000
20,091833	0,5	-1,217100
20,100167	0,5	-1,238200
20,108500	0,5	-1,251400
20,116833	0,5	-1,239650
20,125167	0,5	-1,231750
20,133500	0,5	-1,221400
20,141833	0,5	-1,210300
20,150167	0,5	-1,189850
20,158500	0,5	-1,176050
20,166833	0,5	-1,151600
20,175167	0,5	-1,133000
20,183500	0,5	-1,109400
20,191833	0,5	-1,071600
20,200167	0,5	-1,038150
20,208500	0,5	-1,035350
20,216833	0,5	-1,016800
20,225167	0,5	-1,014900
20,233500	0,5	-1,038300
20,241833	0,5	-1,070550
20,250167	0,5	-1,115150
20,258500	0,5	-1,133400
20,266833	0,5	-1,155350
20,275167	0,5	-1,164950
20,283500	0,5	-1,178850
20,291833	0,5	-1,190450
20,300167	0,5	-1,201600
20,308500	0,5	-1,209650
20,316833	0,5	-1,219100
20,325167	0,5	-1,224450
20,333500	0,5	-1,237000
20,341833	0,5	-1,225300
20,350167	0,5	-1,228050
20,358500	0,5	-1,228400
20,366833	0,5	-1,211950
20,375167	0,5	-1,201250
20,383500	0,5	-1,202100
20,391833	0,5	-1,214800
20,400167	0,5	-1,236300
20,408500	0,5	-1,247600
20,416833	0,5	-1,250900
20,425167	0,5	-1,259650
20,433500	0,5	-1,249200
20,441833	0,5	-1,239050
20,450167	0,5	-1,229700
20,458500	0,5	-1,225400
20,466833	0,5	-1,221700
20,475167	0,5	-1,231000
20,483500	0,5	-1,226650
20,491833	0,5	-1,216900
20,500167	0,5	-1,219250
20,508500	0,5	-1,222850
20,516833	0,5	-1,207950
20,525167	0,5	-1,193000
20,533500	0,5	-1,188600
20,541833	0,5	-1,185700
20,550167	0,5	-1,168750
20,558500	0,5	-1,133850
20,566833	0,5	-1,121250
20,575167	0,5	-1,109300
20,583500	0,5	-1,111400
20,591833	0,5	-1,115650
20,600167	0,5	-1,139600
20,608500	0,5	-1,164550
20,616833	0,5	-1,191000
20,625167	0,5	-1,208550
20,633500	0,5	-1,212650
20,641833	0,5	-1,210600
20,650167	0,5	-1,237250
20,658500	0,5	-1,241100
20,666833	0,5	-1,247100
20,675167	0,5	-1,246750
20,683500	0,5	-1,255800
20,691833	0,5	-1,268550
20,700167	0,5	-1,255800
20,708500	0,5	-1,259300
20,716833	0,5	-1,270850
20,725167	0,5	-1,287250
20,733500	0,5	-1,298650
20,741833	0,5	-1,302650
20,750167	0,5	-1,307450
20,758500	0,5	-1,311350
20,766833	0,5	-1,314050
20,775167	0,5	-1,317900
20,783500	0,5	-1,291450
20,791833	0,5	-1,286900
20,800167	0,5	-1,293200
20,808500	0,5	-1,293750
20,816833	0,5	-1,297450
20,825167	0,5	-1,307050
20,833500	0,5	-1,309600
20,841833	0,5	-1,313100
20,850167	0,5	-1,299050
20,858500	0,5	-1,293550
20,866833	0,5	-1,292300
20,875167	0,5	-1,295400
20,883500	0,5	-1,299600
20,891833	0,5	-1,301500
20,900167	0,5	-1,301300
20,908500	0,5	-1,296650
20,916833	0,5	-1,304350
20,925167	0,5	-1,287250
20,933500	0,5	-1,274500
20,941833	0,5	-1,274800
20,950167	0,5	-1,282200
20,958500	0,5	-1,279250
20,966833	0,5	-1,280650
20,975167	0,5	-1,288900
20,983500	0,5	-1,304600
20,991833	0,5	-1,308100
21,000167	0,5	-1,304850
21,008500	0,5	-1,303850
21,016833	0,5	-1,299400
21,025167	0,5	-1,292850
21,033500	0,5	-1,285500
21,041833	0,5	-1,279250
21,050167	0,5	-1,279900
21,058500	0,5	-1,281100
21,066833	0,5	-1,274900
21,075167	0,5	-1,248500
21,083500	0,5	-1,233550
21,091833	0,5	-1,238800
21,100167	0,5	-1,235500
21,108500	0,5	-1,244500
21,116833	0,5	-1,240600
21,125167	0,5	-1,268200
21,133500	0,5	-1,276700
21,141833	0,5	-1,278300
21,150167	0,5	-1,272400
21,158500	0,5	-1,270500
21,166833	0,5	-1,266900
21,175167	0,5	-1,258550
21,183500	0,5	-1,254750
21,191833	0,5	-1,243950
21,200167	0,5	-1,237900
21,208500	0,5	-1,228800
21,216833	0,5	-1,216950
21,225167	0,5	-1,186150
21,233500	0,5	-1,177500
21,241833	0,5	-1,184350
21,250167	0,5	-1,187400
21,258500	0,5	-1,194850
21,266833	0,5	-1,201600
21,275167	0,5	-1,214250
21,283500	0,5	-1,208400
21,291833	0,5	-1,205000
21,300167	0,5	-1,198600
21,308500	0,5	-1,191200
21,316833	0,5	-1,185200
21,325167	0,5	-1,181350
21,333500	0,5	-1,172450
21,341833	0,5	-1,168050
21,350167	0,5	-1,162200
21,358500	0,5	-1,161500
21,366833	0,5	-1,134400
21,375167	0,5	-1,115400
21,383500	0,5	-1,118750
21,391833	0,5	-1,116350
21,400167	0,5	-1,112450
21,408500	0,5	-1,119700
21,416833	0,5	-1,120350
21,425167	0,5	-1,116800
21,433500	0,5	-1,094900
21,441833	0,5	-1,079750
21,450167	0,5	-1,076050
21,458500	0,5	-1,075000
21,466833	0,5	-1,078050
21,475167	0,5	-1,077300
21,483500	0,5	-1,075800
21,491833	0,5	-1,066700
21,500167	0,5	-1,063350
21,508500	0,5	-1,039300
21,516833	0,5	-1,006250
21,525167	0,5	-0,985000
21,533500	0,5	-0,977400
21,541833	0,5	-0,959600
21,550167	0,5	-0,941150
21,558500	0,5	-0,912850
21,566833	0,5	-0,882900
21,575167	0,5	-0,824400
21,583500	0,5	-0,753400
21,591833	0,5	-0,703500
21,600167	0,5	-0,679300
21,608500	0,5	-0,683100
21,616833	0,5	-0,701750
21,625167	0,5	-0,733350
21,633500	0,5	-0,749450
21,641833	0,5	-0,770550
21,650167	0,5	-0,771950
21,658500	0,5	-0,752350
21,666833	0,5	-0,730400
21,675167	0,5	-0,736850
21,683500	0,5	-0,731250
21,691833	0,5	-0,742900
21,700167	0,5	-0,747600
21,708500	0,5	-0,760050
21,716833	0,5	-0,766600
21,725167	0,5	-0,750150
21,733500	0,5	-0,735250
21,741833	0,5	-0,723650
21,750167	0,5	-0,701400
21,758500	0,5	-0,676800
21,766833	0,5	-0,648150
21,775167	0,5	-0,618800
21,783500	0,5	-0,599850
21,791833	0,5	-0,572200
21,800167	0,5	-0,552250
21,808500	0,5	-0,504700
21,816833	0,5	-0,484450
21,825167	0,5	-0,473800
21,833500	0,5	-0,449950
21,841833	0,5	-0,424500
21,850167	0,5	-0,406400
21,858500	0,5	-0,384900
21,866833	0,5	-0,381700
21,875167	0,5	-0,365050
21,883500	0,5	-0,350350
21,891833	0,5	-0,341200
21,900167	0,5	-0,334000
21,908500	0,5	-0,322100
21,916833	0,5	-0,303150
21,925167	0,5	-0,289150
21,933500	0,5	-0,266700
21,941833	0,5	-0,255600
21,950167	0,5	-0,220750
21,958500	0,5	-0,196550
21,966833	0,5	-0,181350
21,975167	0,5	-0,159200
21,983500	0,5	-0,130900
21,991833	0,5	-0,109400
22,000167	0,5	-0,087600
22,008500	0,5	-0,069500
22,016833	0,5	-0,040100
22,025167	0,5	-0,008450
22,033500	0,5	0,023100
22,041833	0,5	0,048750
22,050167	0,5	0,074950
22,058500	0,5	0,096850
22,066833	0,5	0,122300
22,075167	0,5	0,159150
22,083500	0,5	0,182650
22,091833	0,5	0,225700
22,100167	0,5	0,270450
22,108500	0,5	0,312300
22,116833	0,5	0,360500
22,125167	0,5	0,416350
22,133500	0,5	0,444250
22,141833	0,5	0,475000
22,150167	0,5	0,486300
22,158500	0,5	0,521950
22,166833	0,5	0,563950
22,175167	0,5	0,602750
22,183500	0,5	0,643300
22,191833	0,5	0,683750
22,200167	0,5	0,731300
22,208500	0,5	0,769500
22,216833	0,5	0,815750
22,225167	0,5	0,856100
22,233500	0,5	0,906900
22,241833	0,5	0,943600
22,250167	0,5	0,990450
22,258500	0,5	1,022700
22,266833	0,5	1,101850
22,275167	0,5	1,161950
22,283500	0,5	1,216800
22,291833	0,5	1,257900
22,300167	0,5	1,281850
22,308500	0,5	1,320200
22,316833	0,5	1,362450
22,325167	0,5	1,401650
22,333500	0,5	1,443800
22,341833	0,5	1,495500
22,350167	0,5	1,543100
22,358500	0,5	1,598250
22,366833	0,5	1,648350
22,375167	0,5	1,704300
22,383500	0,5	1,752350
22,391833	0,5	1,788600
22,400167	0,5	1,830500
22,408500	0,5	1,905100
22,416833	0,5	1,978100
22,425167	0,5	2,049300
22,433500	0,5	2,108200
22,441833	0,5	2,175900
22,450167	0,5	2,248050
22,458500	0,5	2,328850
22,466833	0,5	2,394650
22,475167	0,5	2,460850
22,483500	0,5	2,517950
22,491833	0,5	2,581800
22,500167	0,5	2,642300
22,508500	0,5	2,706900
22,516833	0,5	2,777650
22,525167	0,5	2,834100
22,533500	0,5	2,882300
22,541833	0,5	2,934750
22,550167	0,5	3,001450
22,558500	0,5	3,080450
22,566833	0,5	3,138350
22,575167	0,5	3,185700
22,583500	0,5	3,231350
22,591833	0,5	3,255700
22,600167	0,5	3,303250
22,608500	0,5	3,345250
22,616833	0,5	3,382000
22,625167	0,5	3,413250
22,633500	0,5	3,441500
22,641833	0,5	3,473700
22,650167	0,5	3,492600
22,658500	0,5	3,509100
22,666833	0,5	3,503200
22,675167	0,5	3,499850
22,683500	0,5	3,417800
22,691833	0,5	3,414700
22,700167	0,5	3,378450
22,708500	0,5	3,352250
22,716833	0,5	3,284800
22,725167	0,5	3,215750
22,733500	0,5	3,126650
22,741833	0,5	3,033550
22,750167	0,5	2,954900
22,758500	0,5	2,866400
22,766833	0,5	2,759300
22,775167	0,5	2,655100
22,783500	0,5	2,543300
22,791833	0,5	2,422500
22,800167	0,5	2,298900
22,808500	0,5	2,163150
22,816833	0,5	2,026150
22,825167	0,5	1,865450
22,833500	0,5	1,679700
22,841833	0,5	1,543700
22,850167	0,5	1,405850
22,858500	0,5	1,241300
22,866833	0,5	1,075750
22,875167	0,5	0,910900
22,883500	0,5	0,750050
22,891833	0,5	0,590050
22,900167	0,5	0,428600
22,908500	0,5	0,274450
22,916833	0,5	0,121850
22,925167	0,5	-0,019000
22,933500	0,5	-0,160950
22,941833	0,5	-0,301300
22,950167	0,5	-0,442050
22,958500	0,5	-0,579100
22,966833	0,5	-0,712500
22,975167	0,5	-0,827050
22,983500	0,5	-0,964700
22,991833	0,5	-1,088300
23,000167	0,5	-1,241500
23,008500	0,5	-1,364850
23,016833	0,5	-1,468500
23,025167	0,5	-1,568550
23,033500	0,5	-1,652000
23,041833	0,5	-1,742850
23,050167	0,5	-1,821350
23,058500	0,5	-1,901500
23,066833	0,5	-1,961800
23,075167	0,5	-2,026750
23,083500	0,5	-2,082250
23,091833	0,5	-2,133750
23,100167	0,5	-2,188200
23,108500	0,5	-2,240150
23,116833	0,5	-2,273500
23,125167	0,5	-2,317300
23,133500	0,5	-2,347550
23,141833	0,5	-2,402350
23,150167	0,5	-2,470400
23,158500	0,5	-2,497600
23,166833	0,5	-2,527550
23,175167	0,5	-2,525350
23,183500	0,5	-2,544300
23,191833	0,5	-2,550850
23,200167	0,5	-2,558250
23,208500	0,5	-2,551200
23,216833	0,5	-2,541300
23,225167	0,5	-2,541150
23,233500	0,5	-2,518300
23,241833	0,5	-2,506200
23,250167	0,5	-2,491850
23,258500	0,5	-2,482200
23,266833	0,5	-2,458650
23,275167	0,5	-2,468300
23,283500	0,5	-2,441350
23,291833	0,5	-2,434100
23,300167	0,5	-2,451200
23,308500	0,5	-2,443750
23,316833	0,5	-2,429250
23,325167	0,5	-2,402050
23,333500	0,5	-2,381350
23,341833	0,5	-2,365100
23,350167	0,5	-2,328650
23,358500	0,5	-2,299700
23,366833	0,5	-2,259300
23,375167	0,5	-2,230650
23,383500	0,5	-2,187300
23,391833	0,5	-2,162650
23,400167	0,5	-2,128550
23,408500	0,5	-2,094050
23,416833	0,5	-2,112250
23,425167	0,5	-2,063250
23,433500	0,5	-2,017100
23,441833	0,5	-1,978750
23,450167	0,5	-1,974650
23,458500	0,5	-1,959600
23,466833	0,5	-1,940350
23,475167	0,5	-1,915950
23,483500	0,5	-1,899450
23,491833	0,5	-1,877550
23,500167	0,5	-1,855900
23,508500	0,5	-1,832000
23,516833	0,5	-1,808550
23,525167	0,5	-1,781550
23,533500	0,5	-1,759300
23,541833	0,5	-1,733650
23,550167	0,5	-1,709450
23,558500	0,5	-1,698950
23,566833	0,5	-1,772950
23,575167	0,5	-1,715000
23,583500	0,5	-1,650400
23,591833	0,5	-1,612350
23,600167	0,5	-1,599600
23,608500	0,5	-1,588400
23,616833	0,5	-1,572950
23,625167	0,5	-1,558400
23,633500	0,5	-1,546750
23,641833	0,5	-1,530050
23,650167	0,5	-1,519650
23,658500	0,5	-1,501600
23,666833	0,5	-1,487000
23,675167	0,5	-1,474150
23,683500	0,5	-1,463400
23,691833	0,5	-1,451400
23,700167	0,5	-1,444550
23,708500	0,5	-1,537350
23,716833	0,5	-1,553650
23,725167	0,5	-1,505450
23,733500	0,5	-1,448350
23,741833	0,5	-1,416800
23,750167	0,5	-1,410100
23,758500	0,5	-1,404750
23,766833	0,5	-1,402200
23,775167	0,5	-1,397150
23,783500	0,5	-1,381100
23,791833	0,5	-1,365350
23,800167	0,5	-1,349150
23,808500	0,5	-1,333000
23,816833	0,5	-1,317050
23,825167	0,5	-1,303550
23,833500	0,5	-1,285450
23,841833	0,5	-1,272800
23,850167	0,5	-1,261350
23,858500	0,5	-1,412000
23,866833	0,5	-1,362250
23,875167	0,5	-1,329100
23,883500	0,5	-1,257650
23,891833	0,5	-1,237100
23,900167	0,5	-1,228350
23,908500	0,5	-1,230850
23,916833	0,5	-1,232850
23,925167	0,5	-1,224200
23,933500	0,5	-1,211550
23,941833	0,5	-1,197600
23,950167	0,5	-1,183200
23,958500	0,5	-1,169750
23,966833	0,5	-1,155900
23,975167	0,5	-1,137450
23,983500	0,5	-1,123550
23,991833	0,5	-1,108350
24,000167	0,5	-1,134400
24,008500	0,5	-1,219850
24,016833	0,5	-1,185200
24,025167	0,5	-1,122150
24,033500	0,5	-1,072600
24,041833	0,5	-1,040800
24,050167	0,5	-1,025900
24,058500	0,5	-1,019800
24,066833	0,5	-1,013100
24,075167	0,5	-0,992650
24,083500	0,5	-0,978650
24,091833	0,5	-0,956800
24,100167	0,5	-0,943500
24,108500	0,5	-0,923500
24,116833	0,5	-0,905400
24,125167	0,5	-0,884850
24,133500	0,5	-0,870800
24,141833	0,5	-0,860500
24,150167	0,5	-0,935100
24,158500	0,5	-0,954500
24,166833	0,5	-0,921750
24,175167	0,5	-0,871250
24,183500	0,5	-0,828850
24,191833	0,5	-0,814400
24,200167	0,5	-0,797700
24,208500	0,5	-0,804600
24,216833	0,5	-0,786750
24,225167	0,5	-0,770050
24,233500	0,5	-0,745300
24,241833	0,5	-0,729800
24,250167	0,5	-0,708150
24,258500	0,5	-0,686050
24,266833	0,5	-0,661900
24,275167	0,5	-0,643600
24,283500	0,5	-0,624400
24,291833	0,5	-0,614800
24,300167	0,5	-0,703100
24,308500	0,5	-0,664700
24,316833	0,5	-0,639650
24,325167	0,5	-0,587500
24,333500	0,5	-0,558400
24,341833	0,5	-0,544500
24,350167	0,5	-0,538850
24,358500	0,5	-0,541250
24,366833	0,5	-0,524000
24,375167	0,5	-0,504500
24,383500	0,5	-0,497500
24,391833	0,5	-0,483300
24,400167	0,5	-0,475950
24,408500	0,5	-0,458000
24,416833	0,5	-0,448650
24,425167	0,5	-0,427900
24,433500	0,5	-0,414850
24,441833	0,5	-0,428400
24,450167	0,5	-0,470400
24,458500	0,5	-0,443500
24,466833	0,5	-0,417800
24,475167	0,5	-0,374800
24,483500	0,5	-0,350800
24,491833	0,5	-0,340300
24,500167	0,5	-0,333800
24,508500	0,5	-0,335700
24,516833	0,5	-0,306950
24,525167	0,5	-0,296900
24,533500	0,5	-0,279900
24,541833	0,5	-0,274350
24,550167	0,5	-0,252750
24,558500	0,5	-0,242700
24,566833	0,5	-0,227150
24,575167	0,5	-0,222050
24,583500	0,5	-0,212750
24,591833	0,5	-0,260950
24,600167	0,5	-0,249950
24,608500	0,5	-0,237050
24,616833	0,5	-0,210000
24,625167	0,5	-0,188750
24,633500	0,5	-0,175450
24,641833	0,5	-0,170150
24,650167	0,5	-0,167150
24,658500	0,5	-0,167250
24,666833	0,5	-0,154100
24,675167	0,5	-0,138700
24,683500	0,5	-0,128500
24,691833	0,5	-0,115100
24,700167	0,5	-0,110750
24,708500	0,5	-0,092150
24,716833	0,5	-0,082500
24,725167	0,5	-0,067750
24,733500	0,5	-0,062100
24,741833	0,5	-0,098600
24,750167	0,5	-0,081200
24,758500	0,5	-0,066550
24,766833	0,5	-0,043100
24,775167	0,5	-0,025350
24,783500	0,5	-0,017250
24,791833	0,5	-0,017550
24,800167	0,5	-0,020300
24,808500	0,5	-0,014250
24,816833	0,5	-0,006900
24,825167	0,5	-0,000350
24,833500	0,5	0,004100
24,841833	0,5	0,011850
24,850167	0,5	0,022650
24,858500	0,5	0,028950
24,866833	0,5	0,039950
24,875167	0,5	0,042900
24,883500	0,5	0,044550
24,891833	0,5	0,025600
24,900167	0,5	0,042150
24,908500	0,5	0,053200
24,916833	0,5	0,073750
24,925167	0,5	0,085550
24,933500	0,5	0,092800
24,941833	0,5	0,091400
24,950167	0,5	0,093650
24,958500	0,5	0,100200
24,966833	0,5	0,109450
24,975167	0,5	0,116050
24,983500	0,5	0,122150
24,991833	0,5	0,129050
25,000167	0,5	0,130150
25,008500	0,5	0,139750
25,016833	0,5	0,140950
25,025167	0,5	0,149100
25,033500	0,5	0,138100
25,041833	0,5	0,138500
25,050167	0,5	0,143200
25,058500	0,5	0,152250
25,066833	0,5	0,161250
25,075167	0,5	0,168000
25,083500	0,5	0,170850
25,091833	0,5	0,168650
25,100167	0,5	0,169200
25,108500	0,5	0,176150
25,116833	0,5	0,179500
25,125167	0,5	0,185750
25,133500	0,5	0,190900
25,141833	0,5	0,198800
25,150167	0,5	0,201600
25,158500	0,5	0,209300
25,166833	0,5	0,216500
25,175167	0,5	0,219050
25,183500	0,5	0,214650
25,191833	0,5	0,220100
25,200167	0,5	0,221650
25,208500	0,5	0,229500
25,216833	0,5	0,232750
25,225167	0,5	0,235650
25,233500	0,5	0,235300
25,241833	0,5	0,233200
25,250167	0,5	0,236150
25,258500	0,5	0,236400
25,266833	0,5	0,240800
25,275167	0,5	0,241800
25,283500	0,5	0,244550
25,291833	0,5	0,246750
25,300167	0,5	0,249450
25,308500	0,5	0,251500
25,316833	0,5	0,257350
25,325167	0,5	0,258750
25,333500	0,5	0,258300
25,341833	0,5	0,266200
25,350167	0,5	0,270350
25,358500	0,5	0,272600
25,366833	0,5	0,275900
25,375167	0,5	0,276000
25,383500	0,5	0,280550
25,391833	0,5	0,279750
25,400167	0,5	0,281550
25,408500	0,5	0,281200
25,416833	0,5	0,283350
25,425167	0,5	0,282650
25,433500	0,5	0,284000
25,441833	0,5	0,284700
25,450167	0,5	0,286200
25,458500	0,5	0,289650
25,466833	0,5	0,289400
25,475167	0,5	0,290100
25,483500	0,5	0,294500
25,491833	0,5	0,295700
25,500167	0,5	0,294250
25,508500	0,5	0,294100
25,516833	0,5	0,297900
25,525167	0,5	0,299900
25,533500	0,5	0,301400
25,541833	0,5	0,302850
25,550167	0,5	0,303850
25,558500	0,5	0,306950
25,566833	0,5	0,310250
25,575167	0,5	0,309100
25,583500	0,5	0,311650
25,591833	0,5	0,315050
25,600167	0,5	0,314650
25,608500	0,5	0,314650
25,616833	0,5	0,315400
25,625167	0,5	0,322450
25,633500	0,5	0,319850
25,641833	0,5	0,326600
25,650167	0,5	0,318700
25,658500	0,5	0,317450
25,666833	0,5	0,316400
25,675167	0,5	0,320500
25,683500	0,5	0,318950
25,691833	0,5	0,320300
25,700167	0,5	0,321250
25,708500	0,5	0,321850
25,716833	0,5	0,322700
25,725167	0,5	0,323600
25,733500	0,5	0,326750
25,741833	0,5	0,326750
25,750167	0,5	0,326500
25,758500	0,5	0,330450
25,766833	0,5	0,330850
25,775167	0,5	0,337450
25,783500	0,5	0,338550
25,791833	0,5	0,340750
25,800167	0,5	0,335850
25,808500	0,5	0,336050
25,816833	0,5	0,338800
25,825167	0,5	0,340850
25,833500	0,5	0,349700
25,841833	0,5	0,352300
25,850167	0,5	0,349700
25,858500	0,5	0,349550
25,866833	0,5	0,349400
25,875167	0,5	0,350500
25,883500	0,5	0,351400
25,891833	0,5	0,352000
25,900167	0,5	0,350250
25,908500	0,5	0,356800
25,916833	0,5	0,358400
25,925167	0,5	0,363850
25,933500	0,5	0,365450
25,941833	0,5	0,367250
25,950167	0,5	0,360300
25,958500	0,5	0,362950
25,966833	0,5	0,362700
25,975167	0,5	0,371950
25,983500	0,5	0,373250
25,991833	0,5	0,376300
26,000167	0,5	0,374150
