File Path	chrom://chromeleon01/ikbm_chromeleon/2022/ICS-5000/ED1/Esteban/20220612_Cell_7_4_eg.seq/243.smp/ED_1.channel/ED_1.chm
Channel	ED_1

Injection Information:
Data Vault	ikbm_chromeleon
Injection	4_02h-EGS_2
Injection Number	98
Position	GE7
Comment	
Processing Method	Stop sequence after Cell Death
Instrument Method	ICS5000_PA200_FullNative_Ox_26min_ED1
Type	Unknown
Status	Finished
Injection Date	14.06.2022
Injection Time	14:19:19
Injection Volume (µl)	5,0
Dilution Factor	1,0000
Weight	1,0000

Chromatogram Data Information:
Time Min. (min)	0,000333
Time Max. (min)	26,000333
Data Points	3121
Detector	EDet1
Generating Data System	Chromeleon 7.2.9.11323
Exporting Data System	Chromeleon 7.2.9.0
Operator	Instrument Controller
Signal Quantity	
Signal Unit	nC
Signal Min.	-2,618650
Signal Max.	2 243,816783
Channel	ED_1
Driver Name	DC-5000
Channel Type	Evaluation
Min. Step (s)	0,5
Max. Step (s)	0,5
Average Step (s)	0,5

Signal Parameter Information:
Signal Info	

Chromatogram Data:
Time (min)	Step (s)	Value (nC)
0,000333	n.a.	-0,080000
0,008667	0,5	-0,067100
0,017000	0,5	-0,062300
0,025333	0,5	-0,044850
0,033667	0,5	-0,039050
0,042000	0,5	-0,027800
0,050333	0,5	-0,036300
0,058667	0,5	-0,028950
0,067000	0,5	-0,027750
0,075333	0,5	-0,042200
0,083667	0,5	-0,046100
0,092000	0,5	-0,015600
0,100333	0,5	-0,052050
0,108667	0,5	-0,059600
0,117000	0,5	-0,057150
0,125333	0,5	-0,040350
0,133667	0,5	-0,013100
0,142000	0,5	-0,017850
0,150333	0,5	-0,019350
0,158667	0,5	-0,027200
0,167000	0,5	-0,027000
0,175333	0,5	-0,035250
0,183667	0,5	-0,032250
0,192000	0,5	-0,047350
0,200333	0,5	-0,046300
0,208667	0,5	-0,054800
0,217000	0,5	-0,054500
0,225333	0,5	-0,075650
0,233667	0,5	-0,053950
0,242000	0,5	-0,059350
0,250333	0,5	-0,076900
0,258667	0,5	-0,084950
0,267000	0,5	-0,075700
0,275333	0,5	-0,051800
0,283667	0,5	-0,030500
0,292000	0,5	0,003550
0,300333	0,5	0,020800
0,308667	0,5	-0,002850
0,317000	0,5	-0,048850
0,325333	0,5	-0,084050
0,333667	0,5	-0,092950
0,342000	0,5	-0,089050
0,350333	0,5	-0,091150
0,358667	0,5	-0,082900
0,367000	0,5	-0,089150
0,375333	0,5	-0,094000
0,383667	0,5	-0,071800
0,392000	0,5	-0,086800
0,400333	0,5	-0,102300
0,408667	0,5	-0,104250
0,417000	0,5	-0,102850
0,425333	0,5	-0,065450
0,433667	0,5	-0,069500
0,442000	0,5	-0,080450
0,450333	0,5	-0,087450
0,458667	0,5	-0,077850
0,467000	0,5	-0,081400
0,475333	0,5	-0,081600
0,483667	0,5	-0,086350
0,492000	0,5	-0,093600
0,500333	0,5	-0,088300
0,508667	0,5	-0,092350
0,517000	0,5	-0,076450
0,525333	0,5	-0,101200
0,533667	0,5	-0,061500
0,542000	0,5	-0,092050
0,550333	0,5	-0,094100
0,558667	0,5	-0,099550
0,567000	0,5	-0,083800
0,575333	0,5	-0,053750
0,583667	0,5	-0,059700
0,592000	0,5	-0,075100
0,600333	0,5	-0,061700
0,608667	0,5	-0,064700
0,617000	0,5	-0,056300
0,625333	0,5	-0,062950
0,633667	0,5	-0,065100
0,642000	0,5	-0,070300
0,650333	0,5	-0,064550
0,658667	0,5	-0,052600
0,667000	0,5	-0,063900
0,675333	0,5	-0,066250
0,683667	0,5	-0,041050
0,692000	0,5	-0,073100
0,700333	0,5	-0,073100
0,708667	0,5	-0,064650
0,717000	0,5	-0,049650
0,725333	0,5	-0,015450
0,733667	0,5	-0,037100
0,742000	0,5	-0,023950
0,750333	0,5	-0,031350
0,758667	0,5	-0,022550
0,767000	0,5	-0,035450
0,775333	0,5	-0,024000
0,783667	0,5	-0,032600
0,792000	0,5	-0,028450
0,800333	0,5	-0,024100
0,808667	0,5	-0,027550
0,817000	0,5	-0,037050
0,825333	0,5	-0,022950
0,833667	0,5	-0,021350
0,842000	0,5	-0,038550
0,850333	0,5	-0,031200
0,858667	0,5	-0,026250
0,867000	0,5	0,000150
0,875333	0,5	0,015400
0,883667	0,5	0,016800
0,892000	0,5	0,007050
0,900333	0,5	0,017700
0,908667	0,5	0,010450
0,917000	0,5	0,016000
0,925333	0,5	0,006200
0,933667	0,5	0,007850
0,942000	0,5	0,006300
0,950333	0,5	0,013700
0,958667	0,5	0,010800
0,967000	0,5	0,010600
0,975333	0,5	0,019550
0,983667	0,5	0,017450
0,992000	0,5	0,001700
1,000333	0,5	0,004350
1,008667	0,5	0,011350
1,017000	0,5	0,034650
1,025333	0,5	0,060350
1,033667	0,5	0,047750
1,042000	0,5	0,051000
1,050333	0,5	0,043750
1,058667	0,5	0,047850
1,067000	0,5	0,042050
1,075333	0,5	0,045150
1,083667	0,5	0,036500
1,092000	0,5	0,042200
1,100333	0,5	0,040900
1,108667	0,5	0,026750
1,117000	0,5	0,025300
1,125333	0,5	0,049000
1,133667	0,5	0,028450
1,142000	0,5	0,024500
1,150333	0,5	0,030250
1,158667	0,5	0,052550
1,167000	0,5	0,076050
1,175333	0,5	0,073650
1,183667	0,5	0,073550
1,192000	0,5	0,074900
1,200333	0,5	0,076700
1,208667	0,5	0,072000
1,217000	0,5	0,071950
1,225333	0,5	0,066150
1,233667	0,5	0,069200
1,242000	0,5	0,065100
1,250333	0,5	0,063100
1,258667	0,5	0,044000
1,267000	0,5	0,062450
1,275333	0,5	0,069350
1,283667	0,5	0,058600
1,292000	0,5	0,049950
1,300333	0,5	0,061000
1,308667	0,5	0,077450
1,317000	0,5	0,098300
1,325333	0,5	0,093200
1,333667	0,5	0,091300
1,342000	0,5	0,090650
1,350333	0,5	0,095950
1,358667	0,5	0,091800
1,367000	0,5	0,091500
1,375333	0,5	0,087650
1,383667	0,5	0,084450
1,392000	0,5	0,093450
1,400333	0,5	0,087150
1,408667	0,5	0,075250
1,417000	0,5	0,097200
1,425333	0,5	0,090350
1,433667	0,5	0,075250
1,442000	0,5	0,074600
1,450333	0,5	0,077500
1,458667	0,5	0,108500
1,467000	0,5	0,110800
1,475333	0,5	0,107050
1,483667	0,5	0,094500
1,492000	0,5	0,099550
1,500333	0,5	0,091500
1,508667	0,5	0,099450
1,517000	0,5	0,091300
1,525333	0,5	0,089550
1,533667	0,5	0,086400
1,542000	0,5	0,088450
1,550333	0,5	0,123250
1,558667	0,5	0,230200
1,567000	0,5	0,591950
1,575333	0,5	1,531800
1,583667	0,5	6,583550
1,592000	0,5	32,719700
1,600333	0,5	137,139002
1,608667	0,5	478,186457
1,617000	0,5	1 255,511069
1,625333	0,5	2 076,098731
1,633667	0,5	2 243,816783
1,642000	0,5	2 156,297482
1,650333	0,5	2 121,670732
1,658667	0,5	2 104,426281
1,667000	0,5	1 940,341179
1,675333	0,5	1 535,567723
1,683667	0,5	1 077,599216
1,692000	0,5	743,755411
1,700333	0,5	541,150958
1,708667	0,5	422,360406
1,717000	0,5	344,996855
1,725333	0,5	289,933304
1,733667	0,5	247,142904
1,742000	0,5	213,360003
1,750333	0,5	186,114103
1,758667	0,5	163,266102
1,767000	0,5	144,462652
1,775333	0,5	131,054952
1,783667	0,5	123,798252
1,792000	0,5	121,887252
1,800333	0,5	123,039402
1,808667	0,5	124,965852
1,817000	0,5	125,788352
1,825333	0,5	124,149402
1,833667	0,5	119,475202
1,842000	0,5	112,514402
1,850333	0,5	104,704152
1,858667	0,5	97,462551
1,867000	0,5	91,337051
1,875333	0,5	86,053401
1,883667	0,5	81,283901
1,892000	0,5	77,027651
1,900333	0,5	73,546451
1,908667	0,5	70,943001
1,917000	0,5	68,917451
1,925333	0,5	67,087201
1,933667	0,5	65,305051
1,942000	0,5	63,722101
1,950333	0,5	62,785851
1,958667	0,5	62,951251
1,967000	0,5	63,959951
1,975333	0,5	64,287451
1,983667	0,5	62,705751
1,992000	0,5	59,706201
2,000333	0,5	56,802451
2,008667	0,5	54,896601
2,017000	0,5	54,301751
2,025333	0,5	55,446351
2,033667	0,5	59,778701
2,042000	0,5	69,071151
2,050333	0,5	82,498951
2,058667	0,5	93,982951
2,067000	0,5	98,266151
2,075333	0,5	98,206101
2,083667	0,5	100,264451
2,092000	0,5	105,384002
2,100333	0,5	108,783452
2,108667	0,5	106,357602
2,117000	0,5	98,156801
2,125333	0,5	86,782501
2,133667	0,5	74,988251
2,142000	0,5	64,781701
2,150333	0,5	57,090251
2,158667	0,5	52,086351
2,167000	0,5	49,609401
2,175333	0,5	49,769501
2,183667	0,5	52,025601
2,192000	0,5	54,277001
2,200333	0,5	53,958851
2,208667	0,5	50,782651
2,217000	0,5	46,666901
2,225333	0,5	43,216501
2,233667	0,5	40,592901
2,242000	0,5	38,537301
2,250333	0,5	36,929551
2,258667	0,5	35,761651
2,267000	0,5	34,891751
2,275333	0,5	34,246051
2,283667	0,5	33,917951
2,292000	0,5	33,992401
2,300333	0,5	34,370951
2,308667	0,5	34,648151
2,317000	0,5	34,654101
2,325333	0,5	34,696901
2,333667	0,5	35,090501
2,342000	0,5	35,634851
2,350333	0,5	35,870901
2,358667	0,5	35,675351
2,367000	0,5	35,419201
2,375333	0,5	35,258601
2,383667	0,5	35,179101
2,392000	0,5	35,066701
2,400333	0,5	34,944101
2,408667	0,5	34,801051
2,417000	0,5	34,637601
2,425333	0,5	34,396001
2,433667	0,5	34,059901
2,442000	0,5	33,650251
2,450333	0,5	33,233100
2,458667	0,5	32,704150
2,467000	0,5	32,071950
2,475333	0,5	31,463150
2,483667	0,5	31,438350
2,492000	0,5	32,675700
2,500333	0,5	32,995050
2,508667	0,5	31,174050
2,517000	0,5	29,187700
2,525333	0,5	27,967100
2,533667	0,5	27,253950
2,542000	0,5	26,791250
2,550333	0,5	26,439400
2,558667	0,5	26,185050
2,567000	0,5	25,988800
2,575333	0,5	25,850650
2,583667	0,5	25,759200
2,592000	0,5	25,706000
2,600333	0,5	25,717350
2,608667	0,5	25,699400
2,617000	0,5	25,662850
2,625333	0,5	25,600700
2,633667	0,5	25,519500
2,642000	0,5	25,451150
2,650333	0,5	25,361250
2,658667	0,5	25,297400
2,667000	0,5	25,302400
2,675333	0,5	25,382600
2,683667	0,5	25,591300
2,692000	0,5	25,967450
2,700333	0,5	26,579200
2,708667	0,5	27,392550
2,717000	0,5	28,344200
2,725333	0,5	29,302500
2,733667	0,5	30,240900
2,742000	0,5	31,158950
2,750333	0,5	32,230700
2,758667	0,5	33,585651
2,767000	0,5	35,902901
2,775333	0,5	40,315801
2,783667	0,5	48,935651
2,792000	0,5	64,449101
2,800333	0,5	88,593401
2,808667	0,5	119,546652
2,817000	0,5	150,298752
2,825333	0,5	171,156503
2,833667	0,5	175,399653
2,842000	0,5	163,107502
2,850333	0,5	140,197452
2,858667	0,5	114,685852
2,867000	0,5	92,713301
2,875333	0,5	76,899151
2,883667	0,5	66,682201
2,892000	0,5	60,105651
2,900333	0,5	55,230951
2,908667	0,5	50,892101
2,917000	0,5	46,771051
2,925333	0,5	42,931601
2,933667	0,5	39,570851
2,942000	0,5	36,897601
2,950333	0,5	35,103351
2,958667	0,5	34,538701
2,967000	0,5	35,539951
2,975333	0,5	38,276951
2,983667	0,5	42,392351
2,992000	0,5	46,950601
3,000333	0,5	50,645501
3,008667	0,5	52,360851
3,017000	0,5	51,608251
3,025333	0,5	48,604751
3,033667	0,5	44,134351
3,042000	0,5	39,127651
3,050333	0,5	34,335551
3,058667	0,5	30,235050
3,067000	0,5	27,039050
3,075333	0,5	24,662450
3,083667	0,5	22,975400
3,092000	0,5	21,751650
3,100333	0,5	20,851700
3,108667	0,5	20,158050
3,117000	0,5	19,630450
3,125333	0,5	19,198250
3,133667	0,5	18,863050
3,142000	0,5	18,607700
3,150333	0,5	18,446950
3,158667	0,5	18,409200
3,167000	0,5	18,486000
3,175333	0,5	18,660850
3,183667	0,5	18,867600
3,192000	0,5	19,026950
3,200333	0,5	18,990450
3,208667	0,5	18,752350
3,217000	0,5	18,354750
3,225333	0,5	17,857650
3,233667	0,5	17,351100
3,242000	0,5	16,862400
3,250333	0,5	16,430250
3,258667	0,5	16,095250
3,267000	0,5	15,804900
3,275333	0,5	15,573700
3,283667	0,5	15,379200
3,292000	0,5	15,234250
3,300333	0,5	15,118300
3,308667	0,5	15,047850
3,317000	0,5	15,012500
3,325333	0,5	15,009400
3,333667	0,5	15,050800
3,342000	0,5	15,149200
3,350333	0,5	15,259150
3,358667	0,5	15,449200
3,367000	0,5	15,756400
3,375333	0,5	16,202950
3,383667	0,5	16,810650
3,392000	0,5	17,477450
3,400333	0,5	18,139500
3,408667	0,5	18,586200
3,417000	0,5	18,702300
3,425333	0,5	18,418800
3,433667	0,5	17,838150
3,442000	0,5	17,070600
3,450333	0,5	16,294400
3,458667	0,5	15,598150
3,467000	0,5	15,048250
3,475333	0,5	14,630800
3,483667	0,5	14,400000
3,492000	0,5	14,267300
3,500333	0,5	14,223200
3,508667	0,5	14,260050
3,517000	0,5	14,339750
3,525333	0,5	14,413500
3,533667	0,5	14,411450
3,542000	0,5	14,309650
3,550333	0,5	14,132300
3,558667	0,5	13,902400
3,567000	0,5	13,645450
3,575333	0,5	13,407800
3,583667	0,5	13,197700
3,592000	0,5	13,048300
3,600333	0,5	12,952300
3,608667	0,5	12,911200
3,617000	0,5	12,893900
3,625333	0,5	12,887600
3,633667	0,5	12,910850
3,642000	0,5	12,889800
3,650333	0,5	12,862950
3,658667	0,5	12,836600
3,667000	0,5	12,810850
3,675333	0,5	12,802150
3,683667	0,5	12,768750
3,692000	0,5	12,730150
3,700333	0,5	12,694750
3,708667	0,5	12,661650
3,717000	0,5	12,617050
3,725333	0,5	12,568250
3,733667	0,5	12,506700
3,742000	0,5	12,433700
3,750333	0,5	12,361800
3,758667	0,5	12,281050
3,767000	0,5	12,212400
3,775333	0,5	12,149300
3,783667	0,5	12,130700
3,792000	0,5	12,084100
3,800333	0,5	12,070100
3,808667	0,5	12,046850
3,817000	0,5	12,020450
3,825333	0,5	11,976500
3,833667	0,5	11,876000
3,842000	0,5	11,749700
3,850333	0,5	11,629600
3,858667	0,5	11,507000
3,867000	0,5	11,402900
3,875333	0,5	11,305650
3,883667	0,5	11,232800
3,892000	0,5	11,174050
3,900333	0,5	11,126050
3,908667	0,5	11,080300
3,917000	0,5	11,043800
3,925333	0,5	11,032100
3,933667	0,5	11,040950
3,942000	0,5	11,034300
3,950333	0,5	11,054550
3,958667	0,5	11,092300
3,967000	0,5	11,147700
3,975333	0,5	11,211150
3,983667	0,5	11,252900
3,992000	0,5	11,304950
4,000333	0,5	11,351250
4,008667	0,5	11,424800
4,017000	0,5	11,494650
4,025333	0,5	11,597700
4,033667	0,5	11,695550
4,042000	0,5	11,790500
4,050333	0,5	11,850500
4,058667	0,5	11,839600
4,067000	0,5	11,775300
4,075333	0,5	11,680400
4,083667	0,5	11,523000
4,092000	0,5	11,356800
4,100333	0,5	11,214350
4,108667	0,5	11,093000
4,117000	0,5	11,032850
4,125333	0,5	10,979600
4,133667	0,5	10,964400
4,142000	0,5	10,957500
4,150333	0,5	10,989050
4,158667	0,5	11,019350
4,167000	0,5	11,065650
4,175333	0,5	11,092200
4,183667	0,5	11,111200
4,192000	0,5	11,099400
4,200333	0,5	11,063400
4,208667	0,5	10,986000
4,217000	0,5	10,900150
4,225333	0,5	10,811350
4,233667	0,5	10,684500
4,242000	0,5	10,564000
4,250333	0,5	10,474650
4,258667	0,5	10,402300
4,267000	0,5	10,358700
4,275333	0,5	10,294850
4,283667	0,5	10,239450
4,292000	0,5	10,207250
4,300333	0,5	10,162900
4,308667	0,5	10,138300
4,317000	0,5	10,105400
4,325333	0,5	10,081750
4,333667	0,5	10,056550
4,342000	0,5	10,042400
4,350333	0,5	10,024400
4,358667	0,5	10,007150
4,367000	0,5	9,986500
4,375333	0,5	9,991400
4,383667	0,5	9,942650
4,392000	0,5	9,919750
4,400333	0,5	9,897850
4,408667	0,5	9,888500
4,417000	0,5	9,880400
4,425333	0,5	9,848400
4,433667	0,5	9,829950
4,442000	0,5	9,810250
4,450333	0,5	9,802100
4,458667	0,5	9,780400
4,467000	0,5	9,768650
4,475333	0,5	9,750850
4,483667	0,5	9,746050
4,492000	0,5	9,742650
4,500333	0,5	9,762350
4,508667	0,5	9,756400
4,517000	0,5	9,797350
4,525333	0,5	9,822500
4,533667	0,5	9,861500
4,542000	0,5	9,924250
4,550333	0,5	10,019950
4,558667	0,5	10,139050
4,567000	0,5	10,279050
4,575333	0,5	10,409650
4,583667	0,5	10,558450
4,592000	0,5	10,702750
4,600333	0,5	10,846550
4,608667	0,5	10,971750
4,617000	0,5	11,097600
4,625333	0,5	11,211450
4,633667	0,5	11,331400
4,642000	0,5	11,473450
4,650333	0,5	11,645150
4,658667	0,5	11,857250
4,667000	0,5	12,143800
4,675333	0,5	12,459450
4,683667	0,5	12,807850
4,692000	0,5	13,182200
4,700333	0,5	13,549700
4,708667	0,5	13,892700
4,717000	0,5	14,121950
4,725333	0,5	14,248750
4,733667	0,5	14,246350
4,742000	0,5	14,132150
4,750333	0,5	13,885250
4,758667	0,5	13,546850
4,767000	0,5	13,127950
4,775333	0,5	12,673300
4,783667	0,5	12,207800
4,792000	0,5	11,759750
4,800333	0,5	11,357000
4,808667	0,5	10,978450
4,817000	0,5	10,681200
4,825333	0,5	10,397850
4,833667	0,5	10,178450
4,842000	0,5	10,001700
4,850333	0,5	9,878350
4,858667	0,5	9,787150
4,867000	0,5	9,701050
4,875333	0,5	9,621550
4,883667	0,5	9,573850
4,892000	0,5	9,518750
4,900333	0,5	9,495150
4,908667	0,5	9,467500
4,917000	0,5	9,453550
4,925333	0,5	9,441900
4,933667	0,5	9,442350
4,942000	0,5	9,441850
4,950333	0,5	9,441850
4,958667	0,5	9,454800
4,967000	0,5	9,473150
4,975333	0,5	9,472750
4,983667	0,5	9,491150
4,992000	0,5	9,516750
5,000333	0,5	9,572950
5,008667	0,5	9,632400
5,017000	0,5	9,686700
5,025333	0,5	9,756850
5,033667	0,5	9,821650
5,042000	0,5	9,902100
5,050333	0,5	9,957550
5,058667	0,5	10,010000
5,067000	0,5	10,025900
5,075333	0,5	10,020150
5,083667	0,5	9,971650
5,092000	0,5	9,893650
5,100333	0,5	9,788350
5,108667	0,5	9,699900
5,117000	0,5	9,565400
5,125333	0,5	9,430300
5,133667	0,5	9,310100
5,142000	0,5	9,204050
5,150333	0,5	9,129100
5,158667	0,5	9,051250
5,167000	0,5	8,982400
5,175333	0,5	8,916950
5,183667	0,5	8,876750
5,192000	0,5	8,834600
5,200333	0,5	8,806050
5,208667	0,5	8,771250
5,217000	0,5	8,753650
5,225333	0,5	8,735850
5,233667	0,5	8,728300
5,242000	0,5	8,705700
5,250333	0,5	8,694650
5,258667	0,5	8,705550
5,267000	0,5	8,692100
5,275333	0,5	8,678250
5,283667	0,5	8,679750
5,292000	0,5	8,683150
5,300333	0,5	8,711400
5,308667	0,5	8,707650
5,317000	0,5	8,704250
5,325333	0,5	8,705550
5,333667	0,5	8,707950
5,342000	0,5	8,707800
5,350333	0,5	8,710400
5,358667	0,5	8,707800
5,367000	0,5	8,695100
5,375333	0,5	8,693550
5,383667	0,5	8,685050
5,392000	0,5	8,671550
5,400333	0,5	8,651400
5,408667	0,5	8,651700
5,417000	0,5	8,613750
5,425333	0,5	8,592000
5,433667	0,5	8,579650
5,442000	0,5	8,581700
5,450333	0,5	8,578600
5,458667	0,5	8,558000
5,467000	0,5	8,546200
5,475333	0,5	8,543200
5,483667	0,5	8,535200
5,492000	0,5	8,527800
5,500333	0,5	8,517300
5,508667	0,5	8,501100
5,517000	0,5	8,487450
5,525333	0,5	8,474200
5,533667	0,5	8,465400
5,542000	0,5	8,431050
5,550333	0,5	8,420100
5,558667	0,5	8,396450
5,567000	0,5	8,349700
5,575333	0,5	8,311550
5,583667	0,5	8,276800
5,592000	0,5	8,236100
5,600333	0,5	8,193050
5,608667	0,5	8,121300
5,617000	0,5	8,077700
5,625333	0,5	8,023600
5,633667	0,5	7,988250
5,642000	0,5	7,950900
5,650333	0,5	7,920500
5,658667	0,5	7,890800
5,667000	0,5	7,873150
5,675333	0,5	7,855600
5,683667	0,5	7,832000
5,692000	0,5	7,808200
5,700333	0,5	7,809950
5,708667	0,5	7,799050
5,717000	0,5	7,788950
5,725333	0,5	7,784950
5,733667	0,5	7,787600
5,742000	0,5	7,810400
5,750333	0,5	7,812700
5,758667	0,5	7,812450
5,767000	0,5	7,804500
5,775333	0,5	7,805350
5,783667	0,5	7,793800
5,792000	0,5	7,793400
5,800333	0,5	7,779900
5,808667	0,5	7,765800
5,817000	0,5	7,747750
5,825333	0,5	7,735950
5,833667	0,5	7,714850
5,842000	0,5	7,701400
5,850333	0,5	7,694550
5,858667	0,5	7,670050
5,867000	0,5	7,654550
5,875333	0,5	7,645000
5,883667	0,5	7,647750
5,892000	0,5	7,662850
5,900333	0,5	7,673450
5,908667	0,5	7,672100
5,917000	0,5	7,676900
5,925333	0,5	7,679350
5,933667	0,5	7,682250
5,942000	0,5	7,675500
5,950333	0,5	7,672200
5,958667	0,5	7,658250
5,967000	0,5	7,645400
5,975333	0,5	7,623500
5,983667	0,5	7,599650
5,992000	0,5	7,580300
6,000333	0,5	7,565850
6,008667	0,5	7,529750
6,017000	0,5	7,512500
6,025333	0,5	7,506100
6,033667	0,5	7,518150
6,042000	0,5	7,533000
6,050333	0,5	7,536400
6,058667	0,5	7,545350
6,067000	0,5	7,561700
6,075333	0,5	7,579900
6,083667	0,5	7,598050
6,092000	0,5	7,616650
6,100333	0,5	7,628000
6,108667	0,5	7,646300
6,117000	0,5	7,654850
6,125333	0,5	7,663250
6,133667	0,5	7,658000
6,142000	0,5	7,679250
6,150333	0,5	7,677350
6,158667	0,5	7,666600
6,167000	0,5	7,661250
6,175333	0,5	7,654150
6,183667	0,5	7,659550
6,192000	0,5	7,649500
6,200333	0,5	7,626800
6,208667	0,5	7,607850
6,217000	0,5	7,581800
6,225333	0,5	7,557600
6,233667	0,5	7,532600
6,242000	0,5	7,504300
6,250333	0,5	7,480250
6,258667	0,5	7,454200
6,267000	0,5	7,437700
6,275333	0,5	7,409900
6,283667	0,5	7,390350
6,292000	0,5	7,388550
6,300333	0,5	7,358250
6,308667	0,5	7,330250
6,317000	0,5	7,316800
6,325333	0,5	7,301000
6,333667	0,5	7,315350
6,342000	0,5	7,294350
6,350333	0,5	7,289550
6,358667	0,5	7,277400
6,367000	0,5	7,283550
6,375333	0,5	7,283800
6,383667	0,5	7,295400
6,392000	0,5	7,315250
6,400333	0,5	7,340250
6,408667	0,5	7,373500
6,417000	0,5	7,418850
6,425333	0,5	7,472600
6,433667	0,5	7,529300
6,442000	0,5	7,614000
6,450333	0,5	7,674600
6,458667	0,5	7,750700
6,467000	0,5	7,839000
6,475333	0,5	7,949000
6,483667	0,5	8,072000
6,492000	0,5	8,200500
6,500333	0,5	8,358000
6,508667	0,5	8,578350
6,517000	0,5	8,866050
6,525333	0,5	9,268150
6,533667	0,5	9,821050
6,542000	0,5	10,577550
6,550333	0,5	11,580350
6,558667	0,5	12,864700
6,567000	0,5	14,422000
6,575333	0,5	16,168300
6,583667	0,5	18,026650
6,592000	0,5	19,834550
6,600333	0,5	21,386000
6,608667	0,5	22,563700
6,617000	0,5	23,246650
6,625333	0,5	23,373300
6,633667	0,5	22,973300
6,642000	0,5	22,065300
6,650333	0,5	20,819850
6,658667	0,5	19,322750
6,667000	0,5	17,729250
6,675333	0,5	16,127900
6,683667	0,5	14,626900
6,692000	0,5	13,268250
6,700333	0,5	12,102850
6,708667	0,5	11,128750
6,717000	0,5	10,339900
6,725333	0,5	9,708250
6,733667	0,5	9,235250
6,742000	0,5	8,857350
6,750333	0,5	8,564500
6,758667	0,5	8,346750
6,767000	0,5	8,181950
6,775333	0,5	8,063800
6,783667	0,5	7,959100
6,792000	0,5	7,869700
6,800333	0,5	7,785800
6,808667	0,5	7,714100
6,817000	0,5	7,635750
6,825333	0,5	7,559700
6,833667	0,5	7,481800
6,842000	0,5	7,410900
6,850333	0,5	7,337850
6,858667	0,5	7,278200
6,867000	0,5	7,220350
6,875333	0,5	7,181750
6,883667	0,5	7,146850
6,892000	0,5	7,105550
6,900333	0,5	7,072450
6,908667	0,5	7,047950
6,917000	0,5	7,027100
6,925333	0,5	7,017000
6,933667	0,5	6,997700
6,942000	0,5	6,971900
6,950333	0,5	6,944650
6,958667	0,5	6,919950
6,967000	0,5	6,891150
6,975333	0,5	6,867450
6,983667	0,5	6,840950
6,992000	0,5	6,818850
7,000333	0,5	6,810950
7,008667	0,5	6,799200
7,017000	0,5	6,790400
7,025333	0,5	6,781200
7,033667	0,5	6,766200
7,042000	0,5	6,732350
7,050333	0,5	6,705750
7,058667	0,5	6,676200
7,067000	0,5	6,662150
7,075333	0,5	6,649250
7,083667	0,5	6,633600
7,092000	0,5	6,629250
7,100333	0,5	6,630650
7,108667	0,5	6,638450
7,117000	0,5	6,656950
7,125333	0,5	6,673250
7,133667	0,5	6,689650
7,142000	0,5	6,701650
7,150333	0,5	6,698700
7,158667	0,5	6,688650
7,167000	0,5	6,658300
7,175333	0,5	6,635800
7,183667	0,5	6,588400
7,192000	0,5	6,542600
7,200333	0,5	6,505300
7,208667	0,5	6,476950
7,217000	0,5	6,461650
7,225333	0,5	6,444800
7,233667	0,5	6,429000
7,242000	0,5	6,418450
7,250333	0,5	6,403250
7,258667	0,5	6,394200
7,267000	0,5	6,379350
7,275333	0,5	6,365250
7,283667	0,5	6,342900
7,292000	0,5	6,322900
7,300333	0,5	6,301850
7,308667	0,5	6,275950
7,317000	0,5	6,246500
7,325333	0,5	6,234200
7,333667	0,5	6,203700
7,342000	0,5	6,183800
7,350333	0,5	6,170100
7,358667	0,5	6,161650
7,367000	0,5	6,169400
7,375333	0,5	6,158650
7,383667	0,5	6,154700
7,392000	0,5	6,151600
7,400333	0,5	6,161700
7,408667	0,5	6,183300
7,417000	0,5	6,238800
7,425333	0,5	6,333550
7,433667	0,5	6,480100
7,442000	0,5	6,676000
7,450333	0,5	6,900050
7,458667	0,5	7,108300
7,467000	0,5	7,258650
7,475333	0,5	7,312200
7,483667	0,5	7,220950
7,492000	0,5	7,023400
7,500333	0,5	6,779800
7,508667	0,5	6,552350
7,517000	0,5	6,379450
7,525333	0,5	6,254450
7,533667	0,5	6,164500
7,542000	0,5	6,105450
7,550333	0,5	6,060500
7,558667	0,5	6,031050
7,567000	0,5	6,010750
7,575333	0,5	6,002250
7,583667	0,5	6,013350
7,592000	0,5	6,049850
7,600333	0,5	6,112400
7,608667	0,5	6,198750
7,617000	0,5	6,306250
7,625333	0,5	6,445400
7,633667	0,5	6,576750
7,642000	0,5	6,730400
7,650333	0,5	6,916600
7,658667	0,5	7,184950
7,667000	0,5	7,578550
7,675333	0,5	8,124800
7,683667	0,5	8,878450
7,692000	0,5	9,835250
7,700333	0,5	10,982800
7,708667	0,5	12,249100
7,717000	0,5	13,533600
7,725333	0,5	14,671350
7,733667	0,5	15,495000
7,742000	0,5	15,836500
7,750333	0,5	15,614600
7,758667	0,5	14,856800
7,767000	0,5	13,712800
7,775333	0,5	12,362350
7,783667	0,5	10,993700
7,792000	0,5	9,764650
7,800333	0,5	8,761550
7,808667	0,5	8,027750
7,817000	0,5	7,575000
7,825333	0,5	7,400400
7,833667	0,5	7,474650
7,842000	0,5	7,760500
7,850333	0,5	8,189450
7,858667	0,5	8,706250
7,867000	0,5	9,285800
7,875333	0,5	9,966050
7,883667	0,5	10,893300
7,892000	0,5	12,420900
7,900333	0,5	15,228000
7,908667	0,5	20,441100
7,917000	0,5	29,312050
7,925333	0,5	42,177801
7,933667	0,5	57,245601
7,942000	0,5	70,542751
7,950333	0,5	77,708151
7,958667	0,5	76,558801
7,967000	0,5	68,079951
7,975333	0,5	55,420051
7,983667	0,5	42,093851
7,992000	0,5	30,587250
8,000333	0,5	21,963000
8,008667	0,5	16,168550
8,017000	0,5	12,569100
8,025333	0,5	10,444750
8,033667	0,5	9,218700
8,042000	0,5	8,489850
8,050333	0,5	8,010250
8,058667	0,5	7,643950
8,067000	0,5	7,329850
8,075333	0,5	7,046800
8,083667	0,5	6,816250
8,092000	0,5	6,642050
8,100333	0,5	6,514200
8,108667	0,5	6,423850
8,117000	0,5	6,359700
8,125333	0,5	6,310750
8,133667	0,5	6,267000
8,142000	0,5	6,222550
8,150333	0,5	6,187750
8,158667	0,5	6,171000
8,167000	0,5	6,165900
8,175333	0,5	6,153100
8,183667	0,5	6,155000
8,192000	0,5	6,195800
8,200333	0,5	6,274750
8,208667	0,5	6,348650
8,217000	0,5	6,357050
8,225333	0,5	6,283300
8,233667	0,5	6,175950
8,242000	0,5	6,090250
8,250333	0,5	6,045250
8,258667	0,5	6,008900
8,267000	0,5	5,954500
8,275333	0,5	5,877200
8,283667	0,5	5,784100
8,292000	0,5	5,693150
8,300333	0,5	5,626150
8,308667	0,5	5,587100
8,317000	0,5	5,565050
8,325333	0,5	5,549800
8,333667	0,5	5,531100
8,342000	0,5	5,499600
8,350333	0,5	5,464150
8,358667	0,5	5,442650
8,367000	0,5	5,421100
8,375333	0,5	5,402950
8,383667	0,5	5,389750
8,392000	0,5	5,380450
8,400333	0,5	5,377600
8,408667	0,5	5,370200
8,417000	0,5	5,364100
8,425333	0,5	5,364150
8,433667	0,5	5,362050
8,442000	0,5	5,355600
8,450333	0,5	5,352350
8,458667	0,5	5,357900
8,467000	0,5	5,390100
8,475333	0,5	5,459700
8,483667	0,5	5,558950
8,492000	0,5	5,634800
8,500333	0,5	5,652850
8,508667	0,5	5,606050
8,517000	0,5	5,505550
8,525333	0,5	5,393950
8,533667	0,5	5,295950
8,542000	0,5	5,222500
8,550333	0,5	5,175500
8,558667	0,5	5,146200
8,567000	0,5	5,128800
8,575333	0,5	5,123600
8,583667	0,5	5,122300
8,592000	0,5	5,123600
8,600333	0,5	5,139950
8,608667	0,5	5,195800
8,617000	0,5	5,304200
8,625333	0,5	5,470650
8,633667	0,5	5,662300
8,642000	0,5	5,848550
8,650333	0,5	5,985500
8,658667	0,5	6,068700
8,667000	0,5	6,105450
8,675333	0,5	6,126400
8,683667	0,5	6,167650
8,692000	0,5	6,270000
8,700333	0,5	6,482700
8,708667	0,5	6,813400
8,717000	0,5	7,258000
8,725333	0,5	7,789900
8,733667	0,5	8,373150
8,742000	0,5	9,006000
8,750333	0,5	9,777650
8,758667	0,5	11,040500
8,767000	0,5	13,653350
8,775333	0,5	19,066000
8,783667	0,5	28,659600
8,792000	0,5	42,164601
8,800333	0,5	56,462601
8,808667	0,5	66,455851
8,817000	0,5	68,192801
8,825333	0,5	61,433651
8,833667	0,5	49,379301
8,842000	0,5	36,306851
8,850333	0,5	25,332250
8,858667	0,5	17,566000
8,867000	0,5	12,690950
8,875333	0,5	9,860100
8,883667	0,5	8,263800
8,892000	0,5	7,353200
8,900333	0,5	6,814650
8,908667	0,5	6,483400
8,917000	0,5	6,288150
8,925333	0,5	6,190500
8,933667	0,5	6,175450
8,942000	0,5	6,215500
8,950333	0,5	6,268950
8,958667	0,5	6,283850
8,967000	0,5	6,227550
8,975333	0,5	6,125200
8,983667	0,5	6,019100
8,992000	0,5	5,939200
9,000333	0,5	5,890650
9,008667	0,5	5,868750
9,017000	0,5	5,870950
9,025333	0,5	5,899200
9,033667	0,5	5,948850
9,042000	0,5	6,022300
9,050333	0,5	6,118450
9,058667	0,5	6,230900
9,067000	0,5	6,341850
9,075333	0,5	6,433550
9,083667	0,5	6,470000
9,092000	0,5	6,457700
9,100333	0,5	6,396200
9,108667	0,5	6,291150
9,117000	0,5	6,150050
9,125333	0,5	5,986650
9,133667	0,5	5,833850
9,142000	0,5	5,719400
9,150333	0,5	5,656800
9,158667	0,5	5,634200
9,167000	0,5	5,641100
9,175333	0,5	5,657200
9,183667	0,5	5,682950
9,192000	0,5	5,701500
9,200333	0,5	5,718700
9,208667	0,5	5,736750
9,217000	0,5	5,751200
9,225333	0,5	5,770250
9,233667	0,5	5,812700
9,242000	0,5	5,907050
9,250333	0,5	6,121650
9,258667	0,5	6,596750
9,267000	0,5	7,582000
9,275333	0,5	9,345600
9,283667	0,5	11,776100
9,292000	0,5	14,292850
9,300333	0,5	16,389100
9,308667	0,5	17,981200
9,317000	0,5	19,051000
9,325333	0,5	19,310500
9,333667	0,5	18,605000
9,342000	0,5	17,097850
9,350333	0,5	15,165350
9,358667	0,5	13,203750
9,367000	0,5	11,494000
9,375333	0,5	10,148850
9,383667	0,5	9,172250
9,392000	0,5	8,485100
9,400333	0,5	7,996800
9,408667	0,5	7,629050
9,417000	0,5	7,325900
9,425333	0,5	7,062250
9,433667	0,5	6,833500
9,442000	0,5	6,642850
9,450333	0,5	6,479150
9,458667	0,5	6,347100
9,467000	0,5	6,239750
9,475333	0,5	6,151000
9,483667	0,5	6,078650
9,492000	0,5	6,015100
9,500333	0,5	5,947900
9,508667	0,5	5,858050
9,517000	0,5	5,744350
9,525333	0,5	5,603150
9,533667	0,5	5,444900
9,542000	0,5	5,293750
9,550333	0,5	5,164100
9,558667	0,5	5,059650
9,567000	0,5	4,990050
9,575333	0,5	4,954550
9,583667	0,5	4,945050
9,592000	0,5	4,955250
9,600333	0,5	4,984600
9,608667	0,5	5,017850
9,617000	0,5	5,066600
9,625333	0,5	5,100950
9,633667	0,5	5,115850
9,642000	0,5	5,099550
9,650333	0,5	5,061550
9,658667	0,5	5,008000
9,667000	0,5	4,948050
9,675333	0,5	4,889600
9,683667	0,5	4,834300
9,692000	0,5	4,791000
9,700333	0,5	4,746850
9,708667	0,5	4,717500
9,717000	0,5	4,696150
9,725333	0,5	4,682050
9,733667	0,5	4,679900
9,742000	0,5	4,684500
9,750333	0,5	4,692500
9,758667	0,5	4,702150
9,767000	0,5	4,715300
9,775333	0,5	4,735650
9,783667	0,5	4,770750
9,792000	0,5	4,819800
9,800333	0,5	4,881750
9,808667	0,5	4,957700
9,817000	0,5	5,051900
9,825333	0,5	5,168400
9,833667	0,5	5,300900
9,842000	0,5	5,446800
9,850333	0,5	5,605450
9,858667	0,5	5,779200
9,867000	0,5	5,976500
9,875333	0,5	6,213150
9,883667	0,5	6,493600
9,892000	0,5	6,820700
9,900333	0,5	7,185700
9,908667	0,5	7,585450
9,917000	0,5	7,991300
9,925333	0,5	8,383900
9,933667	0,5	8,730600
9,942000	0,5	9,031050
9,950333	0,5	9,271350
9,958667	0,5	9,459250
9,967000	0,5	9,596200
9,975333	0,5	9,672200
9,983667	0,5	9,660650
9,992000	0,5	9,522050
10,000333	0,5	9,222600
10,008667	0,5	8,745400
10,017000	0,5	8,121400
10,025333	0,5	7,413950
10,033667	0,5	6,713700
10,042000	0,5	6,090300
10,050333	0,5	5,596700
10,058667	0,5	5,235650
10,067000	0,5	4,993350
10,075333	0,5	4,841250
10,083667	0,5	4,757900
10,092000	0,5	4,717200
10,100333	0,5	4,702200
10,108667	0,5	4,707900
10,117000	0,5	4,714100
10,125333	0,5	4,723350
10,133667	0,5	4,731350
10,142000	0,5	4,735500
10,150333	0,5	4,721800
10,158667	0,5	4,704450
10,167000	0,5	4,680800
10,175333	0,5	4,669000
10,183667	0,5	4,675250
10,192000	0,5	4,697200
10,200333	0,5	4,729150
10,208667	0,5	4,759050
10,217000	0,5	4,762500
10,225333	0,5	4,743900
10,233667	0,5	4,703650
10,242000	0,5	4,642100
10,250333	0,5	4,582600
10,258667	0,5	4,521700
10,267000	0,5	4,481150
10,275333	0,5	4,445350
10,283667	0,5	4,425650
10,292000	0,5	4,410400
10,300333	0,5	4,403300
10,308667	0,5	4,413650
10,317000	0,5	4,422400
10,325333	0,5	4,444200
10,333667	0,5	4,465700
10,342000	0,5	4,482250
10,350333	0,5	4,492300
10,358667	0,5	4,498750
10,367000	0,5	4,499500
10,375333	0,5	4,495550
10,383667	0,5	4,499400
10,392000	0,5	4,507000
10,400333	0,5	4,522500
10,408667	0,5	4,543200
10,417000	0,5	4,558450
10,425333	0,5	4,569700
10,433667	0,5	4,588800
10,442000	0,5	4,593600
10,450333	0,5	4,602100
10,458667	0,5	4,591200
10,467000	0,5	4,564200
10,475333	0,5	4,521000
10,483667	0,5	4,467750
10,492000	0,5	4,405150
10,500333	0,5	4,350150
10,508667	0,5	4,299850
10,517000	0,5	4,254450
10,525333	0,5	4,209600
10,533667	0,5	4,161150
10,542000	0,5	4,112200
10,550333	0,5	4,060150
10,558667	0,5	4,011650
10,567000	0,5	3,965050
10,575333	0,5	3,930450
10,583667	0,5	3,906450
10,592000	0,5	3,892200
10,600333	0,5	3,891000
10,608667	0,5	3,911250
10,617000	0,5	3,948050
10,625333	0,5	4,011050
10,633667	0,5	4,083950
10,642000	0,5	4,158200
10,650333	0,5	4,227200
10,658667	0,5	4,280700
10,667000	0,5	4,297800
10,675333	0,5	4,285500
10,683667	0,5	4,239650
10,692000	0,5	4,167650
10,700333	0,5	4,085000
10,708667	0,5	4,003100
10,717000	0,5	3,927750
10,725333	0,5	3,863150
10,733667	0,5	3,811950
10,742000	0,5	3,754050
10,750333	0,5	3,706950
10,758667	0,5	3,664850
10,767000	0,5	3,625850
10,775333	0,5	3,600400
10,783667	0,5	3,584200
10,792000	0,5	3,571350
10,800333	0,5	3,572600
10,808667	0,5	3,593650
10,817000	0,5	3,638650
10,825333	0,5	3,713100
10,833667	0,5	3,823100
10,842000	0,5	3,943450
10,850333	0,5	4,059800
10,858667	0,5	4,144300
10,867000	0,5	4,165300
10,875333	0,5	4,138950
10,883667	0,5	4,062300
10,892000	0,5	3,960800
10,900333	0,5	3,843050
10,908667	0,5	3,734650
10,917000	0,5	3,638950
10,925333	0,5	3,559700
10,933667	0,5	3,492400
10,942000	0,5	3,438750
10,950333	0,5	3,395150
10,958667	0,5	3,365400
10,967000	0,5	3,345600
10,975333	0,5	3,336700
10,983667	0,5	3,339400
10,992000	0,5	3,362600
11,000333	0,5	3,409800
11,008667	0,5	3,477800
11,017000	0,5	3,560000
11,025333	0,5	3,644500
11,033667	0,5	3,686500
11,042000	0,5	3,675100
11,050333	0,5	3,606350
11,058667	0,5	3,496650
11,067000	0,5	3,375050
11,075333	0,5	3,374400
11,083667	0,5	3,190650
11,092000	0,5	3,160750
11,100333	0,5	3,168950
11,108667	0,5	3,208050
11,117000	0,5	3,266500
11,125333	0,5	3,329900
11,133667	0,5	3,388400
11,142000	0,5	3,433400
11,150333	0,5	3,467700
11,158667	0,5	3,487750
11,167000	0,5	3,526700
11,175333	0,5	3,568400
11,183667	0,5	3,614450
11,192000	0,5	3,645700
11,200333	0,5	3,643600
11,208667	0,5	3,611450
11,217000	0,5	3,543100
11,225333	0,5	3,453700
11,233667	0,5	3,360000
11,242000	0,5	3,270050
11,250333	0,5	3,198100
11,258667	0,5	3,140100
11,267000	0,5	3,094050
11,275333	0,5	3,062350
11,283667	0,5	3,042900
11,292000	0,5	3,037350
11,300333	0,5	3,046950
11,308667	0,5	3,070600
11,317000	0,5	3,116200
11,325333	0,5	3,168850
11,333667	0,5	3,209750
11,342000	0,5	3,236200
11,350333	0,5	3,222600
11,358667	0,5	3,195750
11,367000	0,5	3,144100
11,375333	0,5	3,090350
11,383667	0,5	3,037800
11,392000	0,5	2,999150
11,400333	0,5	2,969700
11,408667	0,5	2,952200
11,417000	0,5	2,948000
11,425333	0,5	2,954800
11,433667	0,5	2,978400
11,442000	0,5	3,012900
11,450333	0,5	3,064500
11,458667	0,5	3,112150
11,467000	0,5	3,170350
11,475333	0,5	3,200750
11,483667	0,5	3,213550
11,492000	0,5	3,203400
11,500333	0,5	3,180400
11,508667	0,5	3,155050
11,517000	0,5	3,134450
11,525333	0,5	3,116350
11,533667	0,5	3,110950
11,542000	0,5	3,115950
11,550333	0,5	3,137100
11,558667	0,5	3,169050
11,567000	0,5	3,222050
11,575333	0,5	3,287050
11,583667	0,5	3,356250
11,592000	0,5	3,427550
11,600333	0,5	3,491400
11,608667	0,5	3,558100
11,617000	0,5	3,638250
11,625333	0,5	3,755500
11,633667	0,5	3,931650
11,642000	0,5	4,213050
11,650333	0,5	4,584750
11,658667	0,5	5,043800
11,667000	0,5	5,510100
11,675333	0,5	5,907700
11,683667	0,5	6,166550
11,692000	0,5	6,254250
11,700333	0,5	6,164500
11,708667	0,5	5,941000
11,717000	0,5	5,618700
11,725333	0,5	5,243050
11,733667	0,5	4,869200
11,742000	0,5	4,518100
11,750333	0,5	4,216800
11,758667	0,5	3,985400
11,767000	0,5	3,826350
11,775333	0,5	3,727800
11,783667	0,5	3,683050
11,792000	0,5	3,674750
11,800333	0,5	3,686750
11,808667	0,5	3,705550
11,817000	0,5	3,722750
11,825333	0,5	3,726600
11,833667	0,5	3,724850
11,842000	0,5	3,713150
11,850333	0,5	3,701300
11,858667	0,5	3,677500
11,867000	0,5	3,655800
11,875333	0,5	3,634700
11,883667	0,5	3,611550
11,892000	0,5	3,591550
11,900333	0,5	3,572050
11,908667	0,5	3,556850
11,917000	0,5	3,538950
11,925333	0,5	3,520650
11,933667	0,5	3,502150
11,942000	0,5	3,506000
11,950333	0,5	3,529600
11,958667	0,5	3,591700
11,967000	0,5	3,681800
11,975333	0,5	3,802350
11,983667	0,5	3,943500
11,992000	0,5	4,089100
12,000333	0,5	4,213100
12,008667	0,5	4,297250
12,017000	0,5	4,321500
12,025333	0,5	4,290000
12,033667	0,5	4,201550
12,042000	0,5	4,087050
12,050333	0,5	3,951650
12,058667	0,5	3,833850
12,067000	0,5	3,718500
12,075333	0,5	3,626050
12,083667	0,5	3,549950
12,092000	0,5	3,494700
12,100333	0,5	3,452700
12,108667	0,5	3,418750
12,117000	0,5	3,392900
12,125333	0,5	3,368050
12,133667	0,5	3,348250
12,142000	0,5	3,332000
12,150333	0,5	3,322250
12,158667	0,5	3,306400
12,167000	0,5	3,300850
12,175333	0,5	3,292250
12,183667	0,5	3,279300
12,192000	0,5	3,254050
12,200333	0,5	3,245500
12,208667	0,5	3,222550
12,217000	0,5	3,197150
12,225333	0,5	3,166700
12,233667	0,5	3,131450
12,242000	0,5	3,103750
12,250333	0,5	3,079450
12,258667	0,5	3,053250
12,267000	0,5	3,031150
12,275333	0,5	3,008950
12,283667	0,5	2,997800
12,292000	0,5	2,990150
12,300333	0,5	2,986850
12,308667	0,5	2,990000
12,317000	0,5	2,997800
12,325333	0,5	3,004100
12,333667	0,5	3,016500
12,342000	0,5	3,014150
12,350333	0,5	3,020300
12,358667	0,5	3,023550
12,367000	0,5	3,032300
12,375333	0,5	3,050100
12,383667	0,5	3,066450
12,392000	0,5	3,106950
12,400333	0,5	3,136950
12,408667	0,5	3,160850
12,417000	0,5	3,167150
12,425333	0,5	3,169250
12,433667	0,5	3,164600
12,442000	0,5	3,160350
12,450333	0,5	3,166650
12,458667	0,5	3,176300
12,467000	0,5	3,199400
12,475333	0,5	3,231000
12,483667	0,5	3,278850
12,492000	0,5	3,320550
12,500333	0,5	3,384500
12,508667	0,5	3,439000
12,517000	0,5	3,495950
12,525333	0,5	3,545350
12,533667	0,5	3,583450
12,542000	0,5	3,607900
12,550333	0,5	3,608900
12,558667	0,5	3,606150
12,567000	0,5	3,626700
12,575333	0,5	3,670300
12,583667	0,5	3,724300
12,592000	0,5	3,753850
12,600333	0,5	3,743550
12,608667	0,5	3,692350
12,617000	0,5	3,593650
12,625333	0,5	3,490850
12,633667	0,5	3,399700
12,642000	0,5	3,373200
12,650333	0,5	3,488850
12,658667	0,5	3,805800
12,667000	0,5	4,117850
12,675333	0,5	4,380450
12,683667	0,5	4,663350
12,692000	0,5	4,729000
12,700333	0,5	4,472000
12,708667	0,5	4,108150
12,717000	0,5	3,598900
12,725333	0,5	3,126850
12,733667	0,5	2,765250
12,742000	0,5	2,507150
12,750333	0,5	2,323400
12,758667	0,5	2,202050
12,767000	0,5	2,120750
12,775333	0,5	2,061500
12,783667	0,5	2,007000
12,792000	0,5	1,970000
12,800333	0,5	1,933600
12,808667	0,5	1,894650
12,817000	0,5	1,858450
12,825333	0,5	1,820800
12,833667	0,5	1,791700
12,842000	0,5	1,767400
12,850333	0,5	1,745250
12,858667	0,5	1,719700
12,867000	0,5	1,699850
12,875333	0,5	1,677200
12,883667	0,5	1,653550
12,892000	0,5	1,627950
12,900333	0,5	1,606200
12,908667	0,5	1,589650
12,917000	0,5	1,577550
12,925333	0,5	1,560000
12,933667	0,5	1,553050
12,942000	0,5	1,556650
12,950333	0,5	1,566500
12,958667	0,5	1,572200
12,967000	0,5	1,576950
12,975333	0,5	1,588500
12,983667	0,5	1,603950
12,992000	0,5	1,622650
13,000333	0,5	1,634750
13,008667	0,5	1,645250
13,017000	0,5	1,649750
13,025333	0,5	1,650500
13,033667	0,5	1,648350
13,042000	0,5	1,647400
13,050333	0,5	1,641050
13,058667	0,5	1,636400
13,067000	0,5	1,633000
13,075333	0,5	1,625250
13,083667	0,5	1,621850
13,092000	0,5	1,628050
13,100333	0,5	1,618750
13,108667	0,5	1,609300
13,117000	0,5	1,592150
13,125333	0,5	1,583750
13,133667	0,5	1,579200
13,142000	0,5	1,574450
13,150333	0,5	1,571450
13,158667	0,5	1,570550
13,167000	0,5	1,574900
13,175333	0,5	1,581150
13,183667	0,5	1,592550
13,192000	0,5	1,603250
13,200333	0,5	1,622600
13,208667	0,5	1,637850
13,217000	0,5	1,669850
13,225333	0,5	1,686050
13,233667	0,5	1,733700
13,242000	0,5	1,781750
13,250333	0,5	1,844400
13,258667	0,5	1,919550
13,267000	0,5	2,012000
13,275333	0,5	2,148050
13,283667	0,5	2,305700
13,292000	0,5	2,490700
13,300333	0,5	2,700200
13,308667	0,5	2,920100
13,317000	0,5	3,151500
13,325333	0,5	3,376200
13,333667	0,5	3,589300
13,342000	0,5	3,770850
13,350333	0,5	3,918550
13,358667	0,5	4,034000
13,367000	0,5	4,110250
13,375333	0,5	4,142850
13,383667	0,5	4,160300
13,392000	0,5	4,154850
13,400333	0,5	4,131950
13,408667	0,5	4,101100
13,417000	0,5	4,061700
13,425333	0,5	4,037950
13,433667	0,5	4,009700
13,442000	0,5	3,984100
13,450333	0,5	3,955850
13,458667	0,5	3,939050
13,467000	0,5	3,919300
13,475333	0,5	3,910850
13,483667	0,5	3,901400
13,492000	0,5	3,892000
13,500333	0,5	3,887800
13,508667	0,5	3,883750
13,517000	0,5	3,878550
13,525333	0,5	3,863850
13,533667	0,5	3,870600
13,542000	0,5	3,864800
13,550333	0,5	3,861050
13,558667	0,5	3,849250
13,567000	0,5	3,841750
13,575333	0,5	3,841650
13,583667	0,5	3,838250
13,592000	0,5	3,832650
13,600333	0,5	3,831500
13,608667	0,5	3,827800
13,617000	0,5	3,827350
13,625333	0,5	3,823800
13,633667	0,5	3,819800
13,642000	0,5	3,816750
13,650333	0,5	3,810400
13,658667	0,5	3,813600
13,667000	0,5	3,802650
13,675333	0,5	3,802300
13,683667	0,5	3,801600
13,692000	0,5	3,795250
13,700333	0,5	3,784900
13,708667	0,5	3,775250
13,717000	0,5	3,766200
13,725333	0,5	3,767350
13,733667	0,5	3,760800
13,742000	0,5	3,757800
13,750333	0,5	3,748300
13,758667	0,5	3,747100
13,767000	0,5	3,737600
13,775333	0,5	3,737000
13,783667	0,5	3,729450
13,792000	0,5	3,721700
13,800333	0,5	3,720250
13,808667	0,5	3,717200
13,817000	0,5	3,703300
13,825333	0,5	3,706850
13,833667	0,5	3,703400
13,842000	0,5	3,695950
13,850333	0,5	3,688100
13,858667	0,5	3,679000
13,867000	0,5	3,680200
13,875333	0,5	3,678300
13,883667	0,5	3,681450
13,892000	0,5	3,676200
13,900333	0,5	3,673850
13,908667	0,5	3,669550
13,917000	0,5	3,671550
13,925333	0,5	3,664850
13,933667	0,5	3,665900
13,942000	0,5	3,665700
13,950333	0,5	3,669650
13,958667	0,5	3,662900
13,967000	0,5	3,669350
13,975333	0,5	3,675400
13,983667	0,5	3,674650
13,992000	0,5	3,670450
14,000333	0,5	3,660850
14,008667	0,5	3,660100
14,017000	0,5	3,659900
14,025333	0,5	3,667250
14,033667	0,5	3,670600
14,042000	0,5	3,675050
14,050333	0,5	3,675350
14,058667	0,5	3,678200
14,067000	0,5	3,676450
14,075333	0,5	3,681200
14,083667	0,5	3,679550
14,092000	0,5	3,684300
14,100333	0,5	3,692200
14,108667	0,5	3,691050
14,117000	0,5	3,698850
14,125333	0,5	3,707900
14,133667	0,5	3,702500
14,142000	0,5	3,700500
14,150333	0,5	3,684400
14,158667	0,5	3,686350
14,167000	0,5	3,687800
14,175333	0,5	3,686600
14,183667	0,5	3,685800
14,192000	0,5	3,689200
14,200333	0,5	3,692750
14,208667	0,5	3,694050
14,217000	0,5	3,697500
14,225333	0,5	3,694850
14,233667	0,5	3,694750
14,242000	0,5	3,693850
14,250333	0,5	3,698200
14,258667	0,5	3,681100
14,267000	0,5	3,694500
14,275333	0,5	3,698700
14,283667	0,5	3,700600
14,292000	0,5	3,698800
14,300333	0,5	3,690650
14,308667	0,5	3,703800
14,317000	0,5	3,714050
14,325333	0,5	3,718700
14,333667	0,5	3,724550
14,342000	0,5	3,729500
14,350333	0,5	3,738650
14,358667	0,5	3,745400
14,367000	0,5	3,751100
14,375333	0,5	3,757100
14,383667	0,5	3,763050
14,392000	0,5	3,780200
14,400333	0,5	3,784150
14,408667	0,5	3,784900
14,417000	0,5	3,804650
14,425333	0,5	3,815200
14,433667	0,5	3,821650
14,442000	0,5	3,830550
14,450333	0,5	3,829100
14,458667	0,5	3,846400
14,467000	0,5	3,859500
14,475333	0,5	3,873000
14,483667	0,5	3,879750
14,492000	0,5	3,896350
14,500333	0,5	3,906000
14,508667	0,5	3,921200
14,517000	0,5	3,934150
14,525333	0,5	3,943700
14,533667	0,5	3,953800
14,542000	0,5	3,968400
14,550333	0,5	3,973550
14,558667	0,5	3,987100
14,567000	0,5	4,010000
14,575333	0,5	4,017700
14,583667	0,5	4,032150
14,592000	0,5	4,037850
14,600333	0,5	4,054350
14,608667	0,5	4,072400
14,617000	0,5	4,091400
14,625333	0,5	4,093600
14,633667	0,5	4,097900
14,642000	0,5	4,088650
14,650333	0,5	4,078200
14,658667	0,5	4,058050
14,667000	0,5	4,043850
14,675333	0,5	4,030050
14,683667	0,5	4,016450
14,692000	0,5	4,016700
14,700333	0,5	4,010400
14,708667	0,5	4,023850
14,717000	0,5	4,031850
14,725333	0,5	4,031950
14,733667	0,5	4,029250
14,742000	0,5	4,021850
14,750333	0,5	4,022400
14,758667	0,5	4,035300
14,767000	0,5	4,040550
14,775333	0,5	4,040550
14,783667	0,5	4,032800
14,792000	0,5	4,022950
14,800333	0,5	4,014450
14,808667	0,5	4,018650
14,817000	0,5	4,024600
14,825333	0,5	4,044350
14,833667	0,5	4,075400
14,842000	0,5	4,100700
14,850333	0,5	4,105300
14,858667	0,5	4,108150
14,867000	0,5	4,079550
14,875333	0,5	4,040200
14,883667	0,5	3,985700
14,892000	0,5	3,939800
14,900333	0,5	3,909500
14,908667	0,5	3,884450
14,917000	0,5	3,875400
14,925333	0,5	3,864850
14,933667	0,5	3,863450
14,942000	0,5	3,852000
14,950333	0,5	3,840850
14,958667	0,5	3,810700
14,967000	0,5	3,783400
14,975333	0,5	3,750450
14,983667	0,5	3,725250
14,992000	0,5	3,679700
15,000333	0,5	3,661600
15,008667	0,5	3,643400
15,017000	0,5	3,625600
15,025333	0,5	3,605150
15,033667	0,5	3,578300
15,042000	0,5	3,569350
15,050333	0,5	3,563100
15,058667	0,5	3,561050
15,067000	0,5	3,553650
15,075333	0,5	3,544550
15,083667	0,5	3,530550
15,092000	0,5	3,521850
15,100333	0,5	3,503450
15,108667	0,5	3,495150
15,117000	0,5	3,476600
15,125333	0,5	3,475050
15,133667	0,5	3,462650
15,142000	0,5	3,437100
15,150333	0,5	3,433550
15,158667	0,5	3,429200
15,167000	0,5	3,412200
15,175333	0,5	3,397900
15,183667	0,5	3,366100
15,192000	0,5	3,360100
15,200333	0,5	3,351100
15,208667	0,5	3,340250
15,217000	0,5	3,325450
15,225333	0,5	3,312300
15,233667	0,5	3,304150
15,242000	0,5	3,291400
15,250333	0,5	3,288500
15,258667	0,5	3,269100
15,267000	0,5	3,260150
15,275333	0,5	3,246050
15,283667	0,5	3,234300
15,292000	0,5	3,209500
15,300333	0,5	3,215550
15,308667	0,5	3,204450
15,317000	0,5	3,192400
15,325333	0,5	3,169700
15,333667	0,5	3,151500
15,342000	0,5	3,148800
15,350333	0,5	3,140150
15,358667	0,5	3,124350
15,367000	0,5	3,116150
15,375333	0,5	3,110850
15,383667	0,5	3,104850
15,392000	0,5	3,099650
15,400333	0,5	3,091000
15,408667	0,5	3,085050
15,417000	0,5	3,074550
15,425333	0,5	3,081000
15,433667	0,5	3,068350
15,442000	0,5	3,064900
15,450333	0,5	3,066800
15,458667	0,5	3,061650
15,467000	0,5	3,045650
15,475333	0,5	3,031050
15,483667	0,5	3,016450
15,492000	0,5	3,021100
15,500333	0,5	3,008150
15,508667	0,5	2,999450
15,517000	0,5	2,983150
15,525333	0,5	2,970800
15,533667	0,5	2,950200
15,542000	0,5	2,935650
15,550333	0,5	2,922200
15,558667	0,5	2,907900
15,567000	0,5	2,906400
15,575333	0,5	2,899100
15,583667	0,5	2,878400
15,592000	0,5	2,874950
15,600333	0,5	2,872700
15,608667	0,5	2,870650
15,617000	0,5	2,859150
15,625333	0,5	2,836200
15,633667	0,5	2,828800
15,642000	0,5	2,812400
15,650333	0,5	2,801600
15,658667	0,5	2,777100
15,667000	0,5	2,769500
15,675333	0,5	2,757250
15,683667	0,5	2,751000
15,692000	0,5	2,742600
15,700333	0,5	2,723800
15,708667	0,5	2,720250
15,717000	0,5	2,714750
15,725333	0,5	2,705300
15,733667	0,5	2,691200
15,742000	0,5	2,691000
15,750333	0,5	2,683950
15,758667	0,5	2,672900
15,767000	0,5	2,654250
15,775333	0,5	2,637200
15,783667	0,5	2,627100
15,792000	0,5	2,626400
15,800333	0,5	2,618650
15,808667	0,5	2,618950
15,817000	0,5	2,608250
15,825333	0,5	2,603250
15,833667	0,5	2,598200
15,842000	0,5	2,594600
15,850333	0,5	2,579650
15,858667	0,5	2,584150
15,867000	0,5	2,577700
15,875333	0,5	2,564700
15,883667	0,5	2,552300
15,892000	0,5	2,554150
15,900333	0,5	2,543550
15,908667	0,5	2,530200
15,917000	0,5	2,515050
15,925333	0,5	2,501800
15,933667	0,5	2,501000
15,942000	0,5	2,492200
15,950333	0,5	2,485100
15,958667	0,5	2,472400
15,967000	0,5	2,466200
15,975333	0,5	2,454600
15,983667	0,5	2,454250
15,992000	0,5	2,437350
16,000333	0,5	2,429350
16,008667	0,5	2,430450
16,017000	0,5	2,425500
16,025333	0,5	2,400300
16,033667	0,5	2,401550
16,042000	0,5	2,401200
16,050333	0,5	2,390800
16,058667	0,5	2,380200
16,067000	0,5	2,352550
16,075333	0,5	2,348450
16,083667	0,5	2,340450
16,092000	0,5	2,332700
16,100333	0,5	2,317500
16,108667	0,5	2,309200
16,117000	0,5	2,294200
16,125333	0,5	2,287600
16,133667	0,5	2,275900
16,142000	0,5	2,267550
16,150333	0,5	2,254600
16,158667	0,5	2,254850
16,167000	0,5	2,241250
16,175333	0,5	2,224750
16,183667	0,5	2,223300
16,192000	0,5	2,222250
16,200333	0,5	2,209250
16,208667	0,5	2,202250
16,217000	0,5	2,185850
16,225333	0,5	2,185550
16,233667	0,5	2,180200
16,242000	0,5	2,171400
16,250333	0,5	2,161950
16,258667	0,5	2,153750
16,267000	0,5	2,142400
16,275333	0,5	2,130900
16,283667	0,5	2,129900
16,292000	0,5	2,115650
16,300333	0,5	2,112100
16,308667	0,5	2,106150
16,317000	0,5	2,097500
16,325333	0,5	2,079450
16,333667	0,5	2,082600
16,342000	0,5	2,069050
16,350333	0,5	2,052850
16,358667	0,5	2,030400
16,367000	0,5	2,012650
16,375333	0,5	2,012200
16,383667	0,5	2,005250
16,392000	0,5	1,987000
16,400333	0,5	1,977150
16,408667	0,5	1,967700
16,417000	0,5	1,962100
16,425333	0,5	1,952900
16,433667	0,5	1,943200
16,442000	0,5	1,936250
16,450333	0,5	1,926400
16,458667	0,5	1,930600
16,467000	0,5	1,906700
16,475333	0,5	1,909400
16,483667	0,5	1,903650
16,492000	0,5	1,897800
16,500333	0,5	1,883850
16,508667	0,5	1,863400
16,517000	0,5	1,858850
16,525333	0,5	1,861100
16,533667	0,5	1,855050
16,542000	0,5	1,856650
16,550333	0,5	1,847150
16,558667	0,5	1,849650
16,567000	0,5	1,846550
16,575333	0,5	1,846150
16,583667	0,5	1,840600
16,592000	0,5	1,831150
16,600333	0,5	1,828850
16,608667	0,5	1,813000
16,617000	0,5	1,785150
16,625333	0,5	1,778450
16,633667	0,5	1,761150
16,642000	0,5	1,745600
16,650333	0,5	1,721200
16,658667	0,5	1,693600
16,667000	0,5	1,691750
16,675333	0,5	1,675800
16,683667	0,5	1,670100
16,692000	0,5	1,659100
16,700333	0,5	1,658400
16,708667	0,5	1,649800
16,717000	0,5	1,648950
16,725333	0,5	1,644350
16,733667	0,5	1,638100
16,742000	0,5	1,636300
16,750333	0,5	1,634750
16,758667	0,5	1,623300
16,767000	0,5	1,618050
16,775333	0,5	1,622350
16,783667	0,5	1,609400
16,792000	0,5	1,606650
16,800333	0,5	1,582900
16,808667	0,5	1,572300
16,817000	0,5	1,568650
16,825333	0,5	1,574000
16,833667	0,5	1,561250
16,842000	0,5	1,562250
16,850333	0,5	1,556000
16,858667	0,5	1,555600
16,867000	0,5	1,548100
16,875333	0,5	1,546300
16,883667	0,5	1,537050
16,892000	0,5	1,541400
16,900333	0,5	1,539500
16,908667	0,5	1,525650
16,917000	0,5	1,521800
16,925333	0,5	1,519450
16,933667	0,5	1,507950
16,942000	0,5	1,493250
16,950333	0,5	1,469900
16,958667	0,5	1,456250
16,967000	0,5	1,455800
16,975333	0,5	1,436150
16,983667	0,5	1,430800
16,992000	0,5	1,414000
17,000333	0,5	1,411600
17,008667	0,5	1,404650
17,017000	0,5	1,402300
17,025333	0,5	1,392000
17,033667	0,5	1,386300
17,042000	0,5	1,392600
17,050333	0,5	1,388200
17,058667	0,5	1,370100
17,067000	0,5	1,378100
17,075333	0,5	1,376000
17,083667	0,5	1,365800
17,092000	0,5	1,354850
17,100333	0,5	1,338950
17,108667	0,5	1,344550
17,117000	0,5	1,339350
17,125333	0,5	1,344200
17,133667	0,5	1,347350
17,142000	0,5	1,362750
17,150333	0,5	1,369600
17,158667	0,5	1,386400
17,167000	0,5	1,393600
17,175333	0,5	1,407500
17,183667	0,5	1,414100
17,192000	0,5	1,428050
17,200333	0,5	1,408800
17,208667	0,5	1,400350
17,217000	0,5	1,395700
17,225333	0,5	1,377600
17,233667	0,5	1,351650
17,242000	0,5	1,325650
17,250333	0,5	1,301250
17,258667	0,5	1,287600
17,267000	0,5	1,277700
17,275333	0,5	1,258750
17,283667	0,5	1,251050
17,292000	0,5	1,242450
17,300333	0,5	1,239600
17,308667	0,5	1,235750
17,317000	0,5	1,237950
17,325333	0,5	1,237750
17,333667	0,5	1,241750
17,342000	0,5	1,250450
17,350333	0,5	1,244450
17,358667	0,5	1,257550
17,367000	0,5	1,269000
17,375333	0,5	1,272300
17,383667	0,5	1,274850
17,392000	0,5	1,259350
17,400333	0,5	1,269850
17,408667	0,5	1,277000
17,417000	0,5	1,281100
17,425333	0,5	1,284500
17,433667	0,5	1,289650
17,442000	0,5	1,296250
17,450333	0,5	1,301950
17,458667	0,5	1,310150
17,467000	0,5	1,307000
17,475333	0,5	1,314300
17,483667	0,5	1,323850
17,492000	0,5	1,338300
17,500333	0,5	1,328750
17,508667	0,5	1,351900
17,517000	0,5	1,357850
17,525333	0,5	1,366750
17,533667	0,5	1,362500
17,542000	0,5	1,349300
17,550333	0,5	1,357100
17,558667	0,5	1,363900
17,567000	0,5	1,354700
17,575333	0,5	1,352700
17,583667	0,5	1,345400
17,592000	0,5	1,339100
17,600333	0,5	1,331000
17,608667	0,5	1,322400
17,617000	0,5	1,318300
17,625333	0,5	1,310050
17,633667	0,5	1,312000
17,642000	0,5	1,296200
17,650333	0,5	1,280600
17,658667	0,5	1,279000
17,667000	0,5	1,269500
17,675333	0,5	1,255800
17,683667	0,5	1,238150
17,692000	0,5	1,220750
17,700333	0,5	1,223950
17,708667	0,5	1,221000
17,717000	0,5	1,225200
17,725333	0,5	1,224200
17,733667	0,5	1,239200
17,742000	0,5	1,254200
17,750333	0,5	1,280850
17,758667	0,5	1,317350
17,767000	0,5	1,351100
17,775333	0,5	1,401750
17,783667	0,5	1,434350
17,792000	0,5	1,442800
17,800333	0,5	1,445850
17,808667	0,5	1,431050
17,817000	0,5	1,386000
17,825333	0,5	1,328550
17,833667	0,5	1,252200
17,842000	0,5	1,196550
17,850333	0,5	1,143000
17,858667	0,5	1,114100
17,867000	0,5	1,082500
17,875333	0,5	1,058400
17,883667	0,5	1,034950
17,892000	0,5	1,021450
17,900333	0,5	1,007750
17,908667	0,5	0,994750
17,917000	0,5	0,981450
17,925333	0,5	0,976850
17,933667	0,5	0,964000
17,942000	0,5	0,942650
17,950333	0,5	0,939650
17,958667	0,5	0,931300
17,967000	0,5	0,919000
17,975333	0,5	0,896350
17,983667	0,5	0,877800
17,992000	0,5	0,866300
18,000333	0,5	0,862400
18,008667	0,5	0,847700
18,017000	0,5	0,843450
18,025333	0,5	0,829350
18,033667	0,5	0,826700
18,042000	0,5	0,820500
18,050333	0,5	0,816000
18,058667	0,5	0,803650
18,067000	0,5	0,796600
18,075333	0,5	0,794900
18,083667	0,5	0,769800
18,092000	0,5	0,762950
18,100333	0,5	0,764800
18,108667	0,5	0,755300
18,117000	0,5	0,740150
18,125333	0,5	0,715050
18,133667	0,5	0,696150
18,142000	0,5	0,698700
18,150333	0,5	0,682900
18,158667	0,5	0,675700
18,167000	0,5	0,661150
18,175333	0,5	0,656200
18,183667	0,5	0,644950
18,192000	0,5	0,641400
18,200333	0,5	0,626250
18,208667	0,5	0,619150
18,217000	0,5	0,617550
18,225333	0,5	0,618500
18,233667	0,5	0,590500
18,242000	0,5	0,593300
18,250333	0,5	0,584650
18,258667	0,5	0,572150
18,267000	0,5	0,558600
18,275333	0,5	0,528300
18,283667	0,5	0,526450
18,292000	0,5	0,515900
18,300333	0,5	0,505200
18,308667	0,5	0,491850
18,317000	0,5	0,484250
18,325333	0,5	0,469450
18,333667	0,5	0,469050
18,342000	0,5	0,455250
18,350333	0,5	0,449250
18,358667	0,5	0,439400
18,367000	0,5	0,436150
18,375333	0,5	0,430700
18,383667	0,5	0,407550
18,392000	0,5	0,412400
18,400333	0,5	0,402600
18,408667	0,5	0,388700
18,417000	0,5	0,368050
18,425333	0,5	0,348850
18,433667	0,5	0,343100
18,442000	0,5	0,337200
18,450333	0,5	0,326550
18,458667	0,5	0,317850
18,467000	0,5	0,312400
18,475333	0,5	0,306100
18,483667	0,5	0,300050
18,492000	0,5	0,296450
18,500333	0,5	0,283300
18,508667	0,5	0,279750
18,517000	0,5	0,270800
18,525333	0,5	0,266250
18,533667	0,5	0,249800
18,542000	0,5	0,260250
18,550333	0,5	0,250000
18,558667	0,5	0,237650
18,567000	0,5	0,215700
18,575333	0,5	0,201050
18,583667	0,5	0,202800
18,592000	0,5	0,200350
18,600333	0,5	0,192500
18,608667	0,5	0,184300
18,617000	0,5	0,180200
18,625333	0,5	0,175400
18,633667	0,5	0,175000
18,642000	0,5	0,164700
18,650333	0,5	0,163100
18,658667	0,5	0,164000
18,667000	0,5	0,169950
18,675333	0,5	0,150700
18,683667	0,5	0,150750
18,692000	0,5	0,148700
18,700333	0,5	0,142900
18,708667	0,5	0,126600
18,717000	0,5	0,110250
18,725333	0,5	0,106400
18,733667	0,5	0,109800
18,742000	0,5	0,108500
18,750333	0,5	0,111350
18,758667	0,5	0,111450
18,767000	0,5	0,116050
18,775333	0,5	0,123250
18,783667	0,5	0,127850
18,792000	0,5	0,138200
18,800333	0,5	0,136050
18,808667	0,5	0,151650
18,817000	0,5	0,148150
18,825333	0,5	0,149650
18,833667	0,5	0,160950
18,842000	0,5	0,167450
18,850333	0,5	0,163800
18,858667	0,5	0,152550
18,867000	0,5	0,138450
18,875333	0,5	0,141950
18,883667	0,5	0,139350
18,892000	0,5	0,142450
18,900333	0,5	0,136450
18,908667	0,5	0,131600
18,917000	0,5	0,123300
18,925333	0,5	0,113500
18,933667	0,5	0,107550
18,942000	0,5	0,089650
18,950333	0,5	0,088700
18,958667	0,5	0,080450
18,967000	0,5	0,063200
18,975333	0,5	0,056150
18,983667	0,5	0,054350
18,992000	0,5	0,041350
19,000333	0,5	0,030800
19,008667	0,5	0,004950
19,017000	0,5	0,002700
19,025333	0,5	-0,005650
19,033667	0,5	-0,010550
19,042000	0,5	-0,024600
19,050333	0,5	-0,036200
19,058667	0,5	-0,048150
19,067000	0,5	-0,057950
19,075333	0,5	-0,068550
19,083667	0,5	-0,083350
19,092000	0,5	-0,089750
19,100333	0,5	-0,100150
19,108667	0,5	-0,103350
19,117000	0,5	-0,129300
19,125333	0,5	-0,127200
19,133667	0,5	-0,135100
19,142000	0,5	-0,146650
19,150333	0,5	-0,168950
19,158667	0,5	-0,193800
19,167000	0,5	-0,202950
19,175333	0,5	-0,208100
19,183667	0,5	-0,222400
19,192000	0,5	-0,222050
19,200333	0,5	-0,229250
19,208667	0,5	-0,226500
19,217000	0,5	-0,225500
19,225333	0,5	-0,225900
19,233667	0,5	-0,224900
19,242000	0,5	-0,226400
19,250333	0,5	-0,215650
19,258667	0,5	-0,221700
19,267000	0,5	-0,240250
19,275333	0,5	-0,239050
19,283667	0,5	-0,251400
19,292000	0,5	-0,274600
19,300333	0,5	-0,290400
19,308667	0,5	-0,318250
19,317000	0,5	-0,313650
19,325333	0,5	-0,330400
19,333667	0,5	-0,326050
19,342000	0,5	-0,332550
19,350333	0,5	-0,322000
19,358667	0,5	-0,318600
19,367000	0,5	-0,309000
19,375333	0,5	-0,304700
19,383667	0,5	-0,302250
19,392000	0,5	-0,305200
19,400333	0,5	-0,309800
19,408667	0,5	-0,341600
19,417000	0,5	-0,356700
19,425333	0,5	-0,373750
19,433667	0,5	-0,395650
19,442000	0,5	-0,420300
19,450333	0,5	-0,451250
19,458667	0,5	-0,462600
19,467000	0,5	-0,475150
19,475333	0,5	-0,478650
19,483667	0,5	-0,498500
19,492000	0,5	-0,501550
19,500333	0,5	-0,510000
19,508667	0,5	-0,513950
19,517000	0,5	-0,522850
19,525333	0,5	-0,530500
19,533667	0,5	-0,534950
19,542000	0,5	-0,544700
19,550333	0,5	-0,545200
19,558667	0,5	-0,559900
19,567000	0,5	-0,559200
19,575333	0,5	-0,561700
19,583667	0,5	-0,571850
19,592000	0,5	-0,586450
19,600333	0,5	-0,606950
19,608667	0,5	-0,615050
19,617000	0,5	-0,607800
19,625333	0,5	-0,618300
19,633667	0,5	-0,613100
19,642000	0,5	-0,616600
19,650333	0,5	-0,613800
19,658667	0,5	-0,612250
19,667000	0,5	-0,599750
19,675333	0,5	-0,595800
19,683667	0,5	-0,585800
19,692000	0,5	-0,574250
19,700333	0,5	-0,570750
19,708667	0,5	-0,568050
19,717000	0,5	-0,543550
19,725333	0,5	-0,533550
19,733667	0,5	-0,529500
19,742000	0,5	-0,545150
19,750333	0,5	-0,576100
19,758667	0,5	-0,595550
19,767000	0,5	-0,640100
19,775333	0,5	-0,680300
19,783667	0,5	-0,712450
19,792000	0,5	-0,737150
19,800333	0,5	-0,757250
19,808667	0,5	-0,764400
19,817000	0,5	-0,782450
19,825333	0,5	-0,786050
19,833667	0,5	-0,783050
19,842000	0,5	-0,783600
19,850333	0,5	-0,807500
19,858667	0,5	-0,802000
19,867000	0,5	-0,799850
19,875333	0,5	-0,802900
19,883667	0,5	-0,811000
19,892000	0,5	-0,834350
19,900333	0,5	-0,834550
19,908667	0,5	-0,828900
19,917000	0,5	-0,814150
19,925333	0,5	-0,806950
19,933667	0,5	-0,781950
19,942000	0,5	-0,769650
19,950333	0,5	-0,754800
19,958667	0,5	-0,754300
19,967000	0,5	-0,770500
19,975333	0,5	-0,796700
19,983667	0,5	-0,811100
19,992000	0,5	-0,842350
20,000333	0,5	-0,865200
20,008667	0,5	-0,877900
20,017000	0,5	-0,885700
20,025333	0,5	-0,904700
20,033667	0,5	-0,922250
20,042000	0,5	-0,943200
20,050333	0,5	-0,952000
20,058667	0,5	-0,953950
20,067000	0,5	-0,960750
20,075333	0,5	-0,965850
20,083667	0,5	-0,973450
20,092000	0,5	-0,976200
20,100333	0,5	-0,987200
20,108667	0,5	-0,990150
20,117000	0,5	-0,999500
20,125333	0,5	-1,002650
20,133667	0,5	-0,994100
20,142000	0,5	-0,998450
20,150333	0,5	-0,990950
20,158667	0,5	-0,968600
20,167000	0,5	-0,953300
20,175333	0,5	-0,937650
20,183667	0,5	-0,939050
20,192000	0,5	-0,915950
20,200333	0,5	-0,888500
20,208667	0,5	-0,875750
20,217000	0,5	-0,878250
20,225333	0,5	-0,895850
20,233667	0,5	-0,923650
20,242000	0,5	-0,961300
20,250333	0,5	-0,994400
20,258667	0,5	-1,027300
20,267000	0,5	-1,046000
20,275333	0,5	-1,048550
20,283667	0,5	-1,045050
20,292000	0,5	-1,066700
20,300333	0,5	-1,059750
20,308667	0,5	-1,062000
20,317000	0,5	-1,066850
20,325333	0,5	-1,081600
20,333667	0,5	-1,103500
20,342000	0,5	-1,091900
20,350333	0,5	-1,090800
20,358667	0,5	-1,083000
20,367000	0,5	-1,076950
20,375333	0,5	-1,065200
20,383667	0,5	-1,063850
20,392000	0,5	-1,066300
20,400333	0,5	-1,079200
20,408667	0,5	-1,099600
20,417000	0,5	-1,116000
20,425333	0,5	-1,108750
20,433667	0,5	-1,114150
20,442000	0,5	-1,125900
20,450333	0,5	-1,121100
20,458667	0,5	-1,123250
20,467000	0,5	-1,132400
20,475333	0,5	-1,139500
20,483667	0,5	-1,153400
20,492000	0,5	-1,145250
20,500333	0,5	-1,140350
20,508667	0,5	-1,135500
20,517000	0,5	-1,128000
20,525333	0,5	-1,117750
20,533667	0,5	-1,105050
20,542000	0,5	-1,097000
20,550333	0,5	-1,085600
20,558667	0,5	-1,077050
20,567000	0,5	-1,044600
20,575333	0,5	-1,018600
20,583667	0,5	-1,008900
20,592000	0,5	-1,014450
20,600333	0,5	-1,020850
20,608667	0,5	-1,050900
20,617000	0,5	-1,081900
20,625333	0,5	-1,118350
20,633667	0,5	-1,141350
20,642000	0,5	-1,157800
20,650333	0,5	-1,163900
20,658667	0,5	-1,172500
20,667000	0,5	-1,175650
20,675333	0,5	-1,175700
20,683667	0,5	-1,179400
20,692000	0,5	-1,177200
20,700333	0,5	-1,184600
20,708667	0,5	-1,188950
20,717000	0,5	-1,174900
20,725333	0,5	-1,179050
20,733667	0,5	-1,192000
20,742000	0,5	-1,199250
20,750333	0,5	-1,206000
20,758667	0,5	-1,210850
20,767000	0,5	-1,234850
20,775333	0,5	-1,246100
20,783667	0,5	-1,250200
20,792000	0,5	-1,248900
20,800333	0,5	-1,248950
20,808667	0,5	-1,250050
20,817000	0,5	-1,246800
20,825333	0,5	-1,245050
20,833667	0,5	-1,236800
20,842000	0,5	-1,233500
20,850333	0,5	-1,226850
20,858667	0,5	-1,222400
20,867000	0,5	-1,205900
20,875333	0,5	-1,214300
20,883667	0,5	-1,225950
20,892000	0,5	-1,230800
20,900333	0,5	-1,234550
20,908667	0,5	-1,250650
20,917000	0,5	-1,267600
20,925333	0,5	-1,270100
20,933667	0,5	-1,265500
20,942000	0,5	-1,267650
20,950333	0,5	-1,260350
20,958667	0,5	-1,261600
20,967000	0,5	-1,257250
20,975333	0,5	-1,252850
20,983667	0,5	-1,252100
20,992000	0,5	-1,244000
21,000333	0,5	-1,241600
21,008667	0,5	-1,216650
21,017000	0,5	-1,199850
21,025333	0,5	-1,205100
21,033667	0,5	-1,203800
21,042000	0,5	-1,203200
21,050333	0,5	-1,221650
21,058667	0,5	-1,231950
21,067000	0,5	-1,253550
21,075333	0,5	-1,249950
21,083667	0,5	-1,253500
21,092000	0,5	-1,252050
21,100333	0,5	-1,255250
21,108667	0,5	-1,250250
21,117000	0,5	-1,248800
21,125333	0,5	-1,250800
21,133667	0,5	-1,246500
21,142000	0,5	-1,244050
21,150333	0,5	-1,234350
21,158667	0,5	-1,206750
21,167000	0,5	-1,193400
21,175333	0,5	-1,204450
21,183667	0,5	-1,205250
21,192000	0,5	-1,210100
21,200333	0,5	-1,209400
21,208667	0,5	-1,225900
21,217000	0,5	-1,222350
21,225333	0,5	-1,216700
21,233667	0,5	-1,211600
21,242000	0,5	-1,215000
21,250333	0,5	-1,208550
21,258667	0,5	-1,207450
21,267000	0,5	-1,198850
21,275333	0,5	-1,196300
21,283667	0,5	-1,190500
21,292000	0,5	-1,185350
21,300333	0,5	-1,159600
21,308667	0,5	-1,136800
21,317000	0,5	-1,135900
21,325333	0,5	-1,134300
21,333667	0,5	-1,137650
21,342000	0,5	-1,141600
21,350333	0,5	-1,151450
21,358667	0,5	-1,167150
21,367000	0,5	-1,160750
21,375333	0,5	-1,151100
21,383667	0,5	-1,154200
21,392000	0,5	-1,148050
21,400333	0,5	-1,142650
21,408667	0,5	-1,144350
21,417000	0,5	-1,133300
21,425333	0,5	-1,126750
21,433667	0,5	-1,117550
21,442000	0,5	-1,115850
21,450333	0,5	-1,078650
21,458667	0,5	-1,064050
21,467000	0,5	-1,071400
21,475333	0,5	-1,068550
21,483667	0,5	-1,075700
21,492000	0,5	-1,084050
21,500333	0,5	-1,082950
21,508667	0,5	-1,088450
21,517000	0,5	-1,065950
21,525333	0,5	-1,060450
21,533667	0,5	-1,041250
21,542000	0,5	-1,026900
21,550333	0,5	-1,004050
21,558667	0,5	-0,986200
21,567000	0,5	-0,958500
21,575333	0,5	-0,927750
21,583667	0,5	-0,892350
21,592000	0,5	-0,838550
21,600333	0,5	-0,795450
21,608667	0,5	-0,779150
21,617000	0,5	-0,789850
21,625333	0,5	-0,802700
21,633667	0,5	-0,823550
21,642000	0,5	-0,846750
21,650333	0,5	-0,870300
21,658667	0,5	-0,869400
21,667000	0,5	-0,862250
21,675333	0,5	-0,844650
21,683667	0,5	-0,838050
21,692000	0,5	-0,823050
21,700333	0,5	-0,817800
21,708667	0,5	-0,809200
21,717000	0,5	-0,798850
21,725333	0,5	-0,793150
21,733667	0,5	-0,773000
21,742000	0,5	-0,737850
21,750333	0,5	-0,715950
21,758667	0,5	-0,702800
21,767000	0,5	-0,682000
21,775333	0,5	-0,670300
21,783667	0,5	-0,647650
21,792000	0,5	-0,642850
21,800333	0,5	-0,617750
21,808667	0,5	-0,596700
21,817000	0,5	-0,572750
21,825333	0,5	-0,559800
21,833667	0,5	-0,536400
21,842000	0,5	-0,511400
21,850333	0,5	-0,485200
21,858667	0,5	-0,465850
21,867000	0,5	-0,447800
21,875333	0,5	-0,431100
21,883667	0,5	-0,413250
21,892000	0,5	-0,391600
21,900333	0,5	-0,387250
21,908667	0,5	-0,367700
21,917000	0,5	-0,347150
21,925333	0,5	-0,333500
21,933667	0,5	-0,321700
21,942000	0,5	-0,310800
21,950333	0,5	-0,288800
21,958667	0,5	-0,261050
21,967000	0,5	-0,245800
21,975333	0,5	-0,219050
21,983667	0,5	-0,196250
21,992000	0,5	-0,170000
22,000333	0,5	-0,144900
22,008667	0,5	-0,120300
22,017000	0,5	-0,094700
22,025333	0,5	-0,073000
22,033667	0,5	-0,027400
22,042000	0,5	-0,015050
22,050333	0,5	0,004550
22,058667	0,5	0,040100
22,067000	0,5	0,069750
22,075333	0,5	0,086850
22,083667	0,5	0,105700
22,092000	0,5	0,127300
22,100333	0,5	0,172700
22,108667	0,5	0,206400
22,117000	0,5	0,253000
22,125333	0,5	0,292600
22,133667	0,5	0,335950
22,142000	0,5	0,381350
22,150333	0,5	0,422750
22,158667	0,5	0,464550
22,167000	0,5	0,505150
22,175333	0,5	0,545150
22,183667	0,5	0,583250
22,192000	0,5	0,611850
22,200333	0,5	0,668050
22,208667	0,5	0,717350
22,217000	0,5	0,762650
22,225333	0,5	0,809700
22,233667	0,5	0,837650
22,242000	0,5	0,891950
22,250333	0,5	0,939750
22,258667	0,5	0,984250
22,267000	0,5	1,023250
22,275333	0,5	1,071450
22,283667	0,5	1,115900
22,292000	0,5	1,168050
22,300333	0,5	1,211150
22,308667	0,5	1,246200
22,317000	0,5	1,290300
22,325333	0,5	1,306750
22,333667	0,5	1,363200
22,342000	0,5	1,402900
22,350333	0,5	1,479800
22,358667	0,5	1,526600
22,367000	0,5	1,572050
22,375333	0,5	1,610400
22,383667	0,5	1,651100
22,392000	0,5	1,709550
22,400333	0,5	1,771300
22,408667	0,5	1,821800
22,417000	0,5	1,888150
22,425333	0,5	1,949700
22,433667	0,5	2,017850
22,442000	0,5	2,083450
22,450333	0,5	2,145500
22,458667	0,5	2,206200
22,467000	0,5	2,258050
22,475333	0,5	2,303200
22,483667	0,5	2,360800
22,492000	0,5	2,439600
22,500333	0,5	2,508850
22,508667	0,5	2,562500
22,517000	0,5	2,612300
22,525333	0,5	2,664750
22,533667	0,5	2,717650
22,542000	0,5	2,783400
22,550333	0,5	2,831100
22,558667	0,5	2,888650
22,567000	0,5	2,931400
22,575333	0,5	2,980450
22,583667	0,5	3,015650
22,592000	0,5	3,058800
22,600333	0,5	3,087600
22,608667	0,5	3,101500
22,617000	0,5	3,081950
22,625333	0,5	3,087250
22,633667	0,5	3,109650
22,642000	0,5	3,116850
22,650333	0,5	3,104500
22,658667	0,5	3,075450
22,667000	0,5	3,039950
22,675333	0,5	2,991550
22,683667	0,5	2,952250
22,692000	0,5	2,902400
22,700333	0,5	2,854950
22,708667	0,5	2,796500
22,717000	0,5	2,744250
22,725333	0,5	2,679750
22,733667	0,5	2,618500
22,742000	0,5	2,541500
22,750333	0,5	2,462350
22,758667	0,5	2,374800
22,767000	0,5	2,228000
22,775333	0,5	2,155500
22,783667	0,5	2,078500
22,792000	0,5	1,974550
22,800333	0,5	1,849150
22,808667	0,5	1,719400
22,817000	0,5	1,583850
22,825333	0,5	1,449800
22,833667	0,5	1,312750
22,842000	0,5	1,180950
22,850333	0,5	1,043200
22,858667	0,5	0,912550
22,867000	0,5	0,779550
22,875333	0,5	0,640300
22,883667	0,5	0,508600
22,892000	0,5	0,370450
22,900333	0,5	0,229800
22,908667	0,5	0,100200
22,917000	0,5	-0,056450
22,925333	0,5	-0,183200
22,933667	0,5	-0,315200
22,942000	0,5	-0,467650
22,950333	0,5	-0,593700
22,958667	0,5	-0,721250
22,967000	0,5	-0,836900
22,975333	0,5	-0,955600
22,983667	0,5	-1,075850
22,992000	0,5	-1,173100
23,000333	0,5	-1,275300
23,008667	0,5	-1,366600
23,017000	0,5	-1,456350
23,025333	0,5	-1,543600
23,033667	0,5	-1,632800
23,042000	0,5	-1,712800
23,050333	0,5	-1,786100
23,058667	0,5	-1,855700
23,067000	0,5	-1,928050
23,075333	0,5	-2,010900
23,083667	0,5	-2,110050
23,092000	0,5	-2,181100
23,100333	0,5	-2,228550
23,108667	0,5	-2,274500
23,117000	0,5	-2,313650
23,125333	0,5	-2,365800
23,133667	0,5	-2,392650
23,142000	0,5	-2,422750
23,150333	0,5	-2,436700
23,158667	0,5	-2,462200
23,167000	0,5	-2,477900
23,175333	0,5	-2,495650
23,183667	0,5	-2,509200
23,192000	0,5	-2,525400
23,200333	0,5	-2,521650
23,208667	0,5	-2,559200
23,217000	0,5	-2,554800
23,225333	0,5	-2,566250
23,233667	0,5	-2,600450
23,242000	0,5	-2,618650
23,250333	0,5	-2,612550
23,258667	0,5	-2,600250
23,267000	0,5	-2,599600
23,275333	0,5	-2,590450
23,283667	0,5	-2,572600
23,292000	0,5	-2,546600
23,300333	0,5	-2,525200
23,308667	0,5	-2,496000
23,317000	0,5	-2,475950
23,325333	0,5	-2,447600
23,333667	0,5	-2,426550
23,342000	0,5	-2,403100
23,350333	0,5	-2,412350
23,358667	0,5	-2,378950
23,367000	0,5	-2,335650
23,375333	0,5	-2,318300
23,383667	0,5	-2,323200
23,392000	0,5	-2,312400
23,400333	0,5	-2,290750
23,408667	0,5	-2,261050
23,417000	0,5	-2,240600
23,425333	0,5	-2,222250
23,433667	0,5	-2,195300
23,442000	0,5	-2,168100
23,450333	0,5	-2,134550
23,458667	0,5	-2,104200
23,467000	0,5	-2,068900
23,475333	0,5	-2,044850
23,483667	0,5	-2,009250
23,492000	0,5	-1,982950
23,500333	0,5	-2,045100
23,508667	0,5	-1,972750
23,517000	0,5	-1,921700
23,525333	0,5	-1,885300
23,533667	0,5	-1,876950
23,542000	0,5	-1,867150
23,550333	0,5	-1,848250
23,558667	0,5	-1,835400
23,567000	0,5	-1,821100
23,575333	0,5	-1,806450
23,583667	0,5	-1,792000
23,592000	0,5	-1,773900
23,600333	0,5	-1,758000
23,608667	0,5	-1,744700
23,617000	0,5	-1,726650
23,625333	0,5	-1,711650
23,633667	0,5	-1,696900
23,642000	0,5	-1,730750
23,650333	0,5	-1,778100
23,658667	0,5	-1,734750
23,667000	0,5	-1,672000
23,675333	0,5	-1,643900
23,683667	0,5	-1,635650
23,692000	0,5	-1,631950
23,700333	0,5	-1,623200
23,708667	0,5	-1,613500
23,717000	0,5	-1,604400
23,725333	0,5	-1,592550
23,733667	0,5	-1,579100
23,742000	0,5	-1,571300
23,750333	0,5	-1,559550
23,758667	0,5	-1,548650
23,767000	0,5	-1,540900
23,775333	0,5	-1,534950
23,783667	0,5	-1,534400
23,792000	0,5	-1,648850
23,800333	0,5	-1,643700
23,808667	0,5	-1,603650
23,817000	0,5	-1,554750
23,825333	0,5	-1,530150
23,833667	0,5	-1,534700
23,842000	0,5	-1,532200
23,850333	0,5	-1,542300
23,858667	0,5	-1,535650
23,867000	0,5	-1,526350
23,875333	0,5	-1,513550
23,883667	0,5	-1,507750
23,892000	0,5	-1,494250
23,900333	0,5	-1,479750
23,908667	0,5	-1,466600
23,917000	0,5	-1,454900
23,925333	0,5	-1,445300
23,933667	0,5	-1,446000
23,942000	0,5	-1,568150
23,950333	0,5	-1,529600
23,958667	0,5	-1,490350
23,967000	0,5	-1,435150
23,975333	0,5	-1,414150
23,983667	0,5	-1,406650
23,992000	0,5	-1,409100
24,000333	0,5	-1,405400
24,008667	0,5	-1,395350
24,017000	0,5	-1,385500
24,025333	0,5	-1,380550
24,033667	0,5	-1,366150
24,042000	0,5	-1,357050
24,050333	0,5	-1,342750
24,058667	0,5	-1,330300
24,067000	0,5	-1,319750
24,075333	0,5	-1,310100
24,083667	0,5	-1,389450
24,092000	0,5	-1,410200
24,100333	0,5	-1,387950
24,108667	0,5	-1,328550
24,117000	0,5	-1,286350
24,125333	0,5	-1,259150
24,133667	0,5	-1,250900
24,142000	0,5	-1,247250
24,150333	0,5	-1,238050
24,158667	0,5	-1,210150
24,167000	0,5	-1,196950
24,175333	0,5	-1,175350
24,183667	0,5	-1,165050
24,192000	0,5	-1,142550
24,200333	0,5	-1,127700
24,208667	0,5	-1,106850
24,217000	0,5	-1,094150
24,225333	0,5	-1,084300
24,233667	0,5	-1,178250
24,242000	0,5	-1,146050
24,250333	0,5	-1,131700
24,258667	0,5	-1,078350
24,267000	0,5	-1,052300
24,275333	0,5	-1,034300
24,283667	0,5	-1,026050
24,292000	0,5	-1,032800
24,300333	0,5	-1,011850
24,308667	0,5	-1,000100
24,317000	0,5	-0,979750
24,325333	0,5	-0,966250
24,333667	0,5	-0,946250
24,342000	0,5	-0,933500
24,350333	0,5	-0,907450
24,358667	0,5	-0,891600
24,367000	0,5	-0,872000
24,375333	0,5	-0,875950
24,383667	0,5	-0,938400
24,392000	0,5	-0,901550
24,400333	0,5	-0,872400
24,408667	0,5	-0,827400
24,417000	0,5	-0,803200
24,425333	0,5	-0,786200
24,433667	0,5	-0,778700
24,442000	0,5	-0,782150
24,450333	0,5	-0,766250
24,458667	0,5	-0,748000
24,467000	0,5	-0,736450
24,475333	0,5	-0,720600
24,483667	0,5	-0,704300
24,492000	0,5	-0,692000
24,500333	0,5	-0,683600
24,508667	0,5	-0,665800
24,517000	0,5	-0,656350
24,525333	0,5	-0,677950
24,533667	0,5	-0,699100
24,542000	0,5	-0,669600
24,550333	0,5	-0,647250
24,558667	0,5	-0,610300
24,567000	0,5	-0,597700
24,575333	0,5	-0,585850
24,583667	0,5	-0,585500
24,592000	0,5	-0,579650
24,600333	0,5	-0,557450
24,608667	0,5	-0,542500
24,617000	0,5	-0,528000
24,625333	0,5	-0,516000
24,633667	0,5	-0,499100
24,642000	0,5	-0,487700
24,650333	0,5	-0,469350
24,658667	0,5	-0,455900
24,667000	0,5	-0,444250
24,675333	0,5	-0,483500
24,683667	0,5	-0,462900
24,692000	0,5	-0,451350
24,700333	0,5	-0,427700
24,708667	0,5	-0,409350
24,717000	0,5	-0,398850
24,725333	0,5	-0,397100
24,733667	0,5	-0,394250
24,742000	0,5	-0,388850
24,750333	0,5	-0,381550
24,758667	0,5	-0,371650
24,767000	0,5	-0,360650
24,775333	0,5	-0,351200
24,783667	0,5	-0,340000
24,792000	0,5	-0,326400
24,800333	0,5	-0,317250
24,808667	0,5	-0,305100
24,817000	0,5	-0,300700
24,825333	0,5	-0,311750
24,833667	0,5	-0,301000
24,842000	0,5	-0,284800
24,850333	0,5	-0,265750
24,858667	0,5	-0,247250
24,867000	0,5	-0,243200
24,875333	0,5	-0,238700
24,883667	0,5	-0,238650
24,892000	0,5	-0,226850
24,900333	0,5	-0,221000
24,908667	0,5	-0,210900
24,917000	0,5	-0,204050
24,925333	0,5	-0,196100
24,933667	0,5	-0,189900
24,942000	0,5	-0,181500
24,950333	0,5	-0,174700
24,958667	0,5	-0,169000
24,967000	0,5	-0,169000
24,975333	0,5	-0,172550
24,983667	0,5	-0,165400
24,992000	0,5	-0,155750
25,000333	0,5	-0,143950
25,008667	0,5	-0,134650
25,017000	0,5	-0,130250
25,025333	0,5	-0,127250
25,033667	0,5	-0,122900
25,042000	0,5	-0,115700
25,050333	0,5	-0,105050
25,058667	0,5	-0,099550
25,067000	0,5	-0,093100
25,075333	0,5	-0,085750
25,083667	0,5	-0,080250
25,092000	0,5	-0,070950
25,100333	0,5	-0,062300
25,108667	0,5	-0,058700
25,117000	0,5	-0,064750
25,125333	0,5	-0,053150
25,133667	0,5	-0,051550
25,142000	0,5	-0,042700
25,150333	0,5	-0,039950
25,158667	0,5	-0,037450
25,167000	0,5	-0,034600
25,175333	0,5	-0,034200
25,183667	0,5	-0,033200
25,192000	0,5	-0,023450
25,200333	0,5	-0,023150
25,208667	0,5	-0,018700
25,217000	0,5	-0,017800
25,225333	0,5	-0,012000
25,233667	0,5	-0,007600
25,242000	0,5	-0,002550
25,250333	0,5	0,002950
25,258667	0,5	0,008200
25,267000	0,5	0,009950
25,275333	0,5	0,015000
25,283667	0,5	0,021600
25,292000	0,5	0,019500
25,300333	0,5	0,024900
25,308667	0,5	0,026600
25,317000	0,5	0,030050
25,325333	0,5	0,031300
25,333667	0,5	0,033350
25,342000	0,5	0,033900
25,350333	0,5	0,037450
25,358667	0,5	0,036250
25,367000	0,5	0,038300
25,375333	0,5	0,039050
25,383667	0,5	0,039500
25,392000	0,5	0,039250
25,400333	0,5	0,043950
25,408667	0,5	0,050550
25,417000	0,5	0,055150
25,425333	0,5	0,056750
25,433667	0,5	0,058500
25,442000	0,5	0,056600
25,450333	0,5	0,058100
25,458667	0,5	0,063700
25,467000	0,5	0,066300
25,475333	0,5	0,071250
25,483667	0,5	0,072000
25,492000	0,5	0,075300
25,500333	0,5	0,077850
25,508667	0,5	0,077450
25,517000	0,5	0,077250
25,525333	0,5	0,077750
25,533667	0,5	0,082600
25,542000	0,5	0,082850
25,550333	0,5	0,082950
25,558667	0,5	0,089950
25,567000	0,5	0,093500
25,575333	0,5	0,092100
25,583667	0,5	0,089450
25,592000	0,5	0,085250
25,600333	0,5	0,086000
25,608667	0,5	0,086600
25,617000	0,5	0,091250
25,625333	0,5	0,097650
25,633667	0,5	0,096250
25,642000	0,5	0,098550
25,650333	0,5	0,098950
25,658667	0,5	0,100350
25,667000	0,5	0,100800
25,675333	0,5	0,102300
25,683667	0,5	0,103400
25,692000	0,5	0,106800
25,700333	0,5	0,107000
25,708667	0,5	0,117400
25,717000	0,5	0,114850
25,725333	0,5	0,121850
25,733667	0,5	0,110550
25,742000	0,5	0,110700
25,750333	0,5	0,108150
25,758667	0,5	0,115500
25,767000	0,5	0,118400
25,775333	0,5	0,121350
25,783667	0,5	0,120400
25,792000	0,5	0,121150
25,800333	0,5	0,119550
25,808667	0,5	0,120850
25,817000	0,5	0,122250
25,825333	0,5	0,125300
25,833667	0,5	0,123700
25,842000	0,5	0,127100
25,850333	0,5	0,129650
25,858667	0,5	0,135700
25,867000	0,5	0,146200
25,875333	0,5	0,143500
25,883667	0,5	0,136000
25,892000	0,5	0,137950
25,900333	0,5	0,141950
25,908667	0,5	0,148500
25,917000	0,5	0,157450
25,925333	0,5	0,153600
25,933667	0,5	0,154650
25,942000	0,5	0,151750
25,950333	0,5	0,156600
25,958667	0,5	0,153750
25,967000	0,5	0,155200
25,975333	0,5	0,151300
25,983667	0,5	0,153050
25,992000	0,5	0,154850
26,000333	0,5	0,158000
