File Path	chrom://chromeleon01/ikbm_chromeleon/2022/ICS-5000/ED1/Esteban/20220612_Cell_7_4_eg.seq/764.smp/ED_1.channel/ED_1.chm
Channel	ED_1

Injection Information:
Data Vault	ikbm_chromeleon
Injection	4_02h-EGS_3
Injection Number	99
Position	GE8
Comment	
Processing Method	Stop sequence after Cell Death
Instrument Method	ICS5000_PA200_FullNative_Ox_26min_ED1
Type	Unknown
Status	Finished
Injection Date	14.06.2022
Injection Time	14:48:07
Injection Volume (µl)	5,0
Dilution Factor	1,0000
Weight	1,0000

Chromatogram Data Information:
Time Min. (min)	0,000333
Time Max. (min)	26,000333
Data Points	3121
Detector	EDet1
Generating Data System	Chromeleon 7.2.9.11323
Exporting Data System	Chromeleon 7.2.9.0
Operator	Instrument Controller
Signal Quantity	
Signal Unit	nC
Signal Min.	-2,902050
Signal Max.	2 182,736433
Channel	ED_1
Driver Name	DC-5000
Channel Type	Evaluation
Min. Step (s)	0,5
Max. Step (s)	0,5
Average Step (s)	0,5

Signal Parameter Information:
Signal Info	

Chromatogram Data:
Time (min)	Step (s)	Value (nC)
0,000333	n.a.	-0,052700
0,008667	0,5	-0,088800
0,017000	0,5	-0,079000
0,025333	0,5	-0,057000
0,033667	0,5	-0,055850
0,042000	0,5	-0,070100
0,050333	0,5	-0,054900
0,058667	0,5	-0,038100
0,067000	0,5	-0,008500
0,075333	0,5	-0,010100
0,083667	0,5	-0,017800
0,092000	0,5	-0,011950
0,100333	0,5	-0,014100
0,108667	0,5	-0,013600
0,117000	0,5	-0,023150
0,125333	0,5	-0,024500
0,133667	0,5	-0,037350
0,142000	0,5	-0,031550
0,150333	0,5	-0,035000
0,158667	0,5	-0,050800
0,167000	0,5	-0,052450
0,175333	0,5	-0,022900
0,183667	0,5	-0,059900
0,192000	0,5	-0,066000
0,200333	0,5	-0,061300
0,208667	0,5	-0,041050
0,217000	0,5	-0,018700
0,225333	0,5	-0,036300
0,233667	0,5	-0,038500
0,242000	0,5	-0,037500
0,250333	0,5	-0,041950
0,258667	0,5	-0,042100
0,267000	0,5	-0,042200
0,275333	0,5	-0,048550
0,283667	0,5	-0,046600
0,292000	0,5	-0,019650
0,300333	0,5	0,022500
0,308667	0,5	-0,015600
0,317000	0,5	-0,034050
0,325333	0,5	-0,072350
0,333667	0,5	-0,099450
0,342000	0,5	-0,103250
0,350333	0,5	-0,089300
0,358667	0,5	-0,071000
0,367000	0,5	-0,049200
0,375333	0,5	-0,064250
0,383667	0,5	-0,057950
0,392000	0,5	-0,061000
0,400333	0,5	-0,054550
0,408667	0,5	-0,057000
0,417000	0,5	-0,058100
0,425333	0,5	-0,061950
0,433667	0,5	-0,068050
0,442000	0,5	-0,062100
0,450333	0,5	-0,058750
0,458667	0,5	-0,063100
0,467000	0,5	-0,041350
0,475333	0,5	-0,067050
0,483667	0,5	-0,080100
0,492000	0,5	-0,077100
0,500333	0,5	-0,065600
0,508667	0,5	-0,029450
0,517000	0,5	-0,031900
0,525333	0,5	-0,028100
0,533667	0,5	-0,037050
0,542000	0,5	-0,024150
0,550333	0,5	-0,034550
0,558667	0,5	-0,026750
0,567000	0,5	-0,039350
0,575333	0,5	-0,032800
0,583667	0,5	-0,031050
0,592000	0,5	-0,030300
0,600333	0,5	-0,034600
0,608667	0,5	-0,040600
0,617000	0,5	-0,019150
0,625333	0,5	-0,037700
0,633667	0,5	-0,037050
0,642000	0,5	-0,035400
0,650333	0,5	-0,015450
0,658667	0,5	0,016000
0,667000	0,5	0,020350
0,675333	0,5	0,003550
0,683667	0,5	0,012850
0,692000	0,5	0,005750
0,700333	0,5	0,016650
0,708667	0,5	0,007600
0,717000	0,5	0,014000
0,725333	0,5	0,002500
0,733667	0,5	0,011450
0,742000	0,5	0,012650
0,750333	0,5	0,010400
0,758667	0,5	0,014700
0,767000	0,5	0,025950
0,775333	0,5	-0,001700
0,783667	0,5	0,005800
0,792000	0,5	0,005800
0,800333	0,5	0,034900
0,808667	0,5	0,056800
0,817000	0,5	0,052250
0,825333	0,5	0,057950
0,833667	0,5	0,054200
0,842000	0,5	0,059350
0,850333	0,5	0,049500
0,858667	0,5	0,057700
0,867000	0,5	0,048000
0,875333	0,5	0,050350
0,883667	0,5	0,049250
0,892000	0,5	0,043050
0,900333	0,5	0,036300
0,908667	0,5	0,068100
0,917000	0,5	0,050500
0,925333	0,5	0,037350
0,933667	0,5	0,040350
0,942000	0,5	0,051750
0,950333	0,5	0,082950
0,958667	0,5	0,090550
0,967000	0,5	0,090100
0,975333	0,5	0,086300
0,983667	0,5	0,088250
0,992000	0,5	0,083350
1,000333	0,5	0,085550
1,008667	0,5	0,079750
1,017000	0,5	0,083200
1,025333	0,5	0,079150
1,033667	0,5	0,087950
1,042000	0,5	0,069700
1,050333	0,5	0,076950
1,058667	0,5	0,097300
1,067000	0,5	0,083300
1,075333	0,5	0,069500
1,083667	0,5	0,081350
1,092000	0,5	0,083850
1,100333	0,5	0,116950
1,108667	0,5	0,113850
1,117000	0,5	0,111950
1,125333	0,5	0,109450
1,133667	0,5	0,115700
1,142000	0,5	0,117200
1,150333	0,5	0,115650
1,158667	0,5	0,112200
1,167000	0,5	0,104350
1,175333	0,5	0,109950
1,183667	0,5	0,110450
1,192000	0,5	0,113850
1,200333	0,5	0,114100
1,208667	0,5	0,138250
1,217000	0,5	0,103850
1,225333	0,5	0,101450
1,233667	0,5	0,104250
1,242000	0,5	0,123050
1,250333	0,5	0,144050
1,258667	0,5	0,135850
1,267000	0,5	0,132800
1,275333	0,5	0,140500
1,283667	0,5	0,134350
1,292000	0,5	0,136000
1,300333	0,5	0,131500
1,308667	0,5	0,132050
1,317000	0,5	0,132450
1,325333	0,5	0,132200
1,333667	0,5	0,141300
1,342000	0,5	0,125200
1,350333	0,5	0,138350
1,358667	0,5	0,143800
1,367000	0,5	0,127050
1,375333	0,5	0,117100
1,383667	0,5	0,134350
1,392000	0,5	0,148900
1,400333	0,5	0,164700
1,408667	0,5	0,139800
1,417000	0,5	0,150400
1,425333	0,5	0,149000
1,433667	0,5	0,159800
1,442000	0,5	0,150900
1,450333	0,5	0,153400
1,458667	0,5	0,142800
1,467000	0,5	0,139650
1,475333	0,5	0,140500
1,483667	0,5	0,133650
1,492000	0,5	0,113050
1,500333	0,5	0,138600
1,508667	0,5	0,119500
1,517000	0,5	0,105700
1,525333	0,5	0,105150
1,533667	0,5	0,110700
1,542000	0,5	0,137100
1,550333	0,5	0,156200
1,558667	0,5	0,226700
1,567000	0,5	0,447650
1,575333	0,5	1,015700
1,583667	0,5	2,964500
1,592000	0,5	13,369150
1,600333	0,5	59,164401
1,608667	0,5	222,143103
1,617000	0,5	683,626010
1,625333	0,5	1 478,600622
1,633667	0,5	2 085,223231
1,642000	0,5	2 182,736433
1,650333	0,5	2 132,103382
1,658667	0,5	2 068,843331
1,667000	0,5	1 857,650728
1,675333	0,5	1 432,022121
1,683667	0,5	978,297265
1,692000	0,5	661,283610
1,700333	0,5	472,659857
1,708667	0,5	360,980255
1,717000	0,5	287,613604
1,725333	0,5	237,493804
1,733667	0,5	200,811303
1,742000	0,5	173,291603
1,750333	0,5	152,038602
1,758667	0,5	134,384252
1,767000	0,5	119,031352
1,775333	0,5	105,949352
1,783667	0,5	95,694501
1,792000	0,5	88,605301
1,800333	0,5	84,917001
1,808667	0,5	84,638101
1,817000	0,5	86,982051
1,825333	0,5	89,210401
1,833667	0,5	88,533001
1,842000	0,5	84,194251
1,850333	0,5	77,517201
1,858667	0,5	70,545201
1,867000	0,5	64,866701
1,875333	0,5	60,826851
1,883667	0,5	57,810951
1,892000	0,5	55,273001
1,900333	0,5	53,263651
1,908667	0,5	52,004251
1,917000	0,5	51,149001
1,925333	0,5	50,090551
1,933667	0,5	48,528101
1,942000	0,5	46,901501
1,950333	0,5	45,852951
1,958667	0,5	46,298001
1,967000	0,5	48,903901
1,975333	0,5	52,882701
1,983667	0,5	55,592001
1,992000	0,5	55,155151
2,000333	0,5	52,708201
2,008667	0,5	50,450751
2,017000	0,5	49,310351
2,025333	0,5	49,277201
2,033667	0,5	50,192951
2,042000	0,5	52,127351
2,050333	0,5	55,247851
2,058667	0,5	59,635401
2,067000	0,5	65,283901
2,075333	0,5	72,508501
2,083667	0,5	82,255251
2,092000	0,5	94,798151
2,100333	0,5	108,090902
2,108667	0,5	118,577952
2,117000	0,5	122,938002
2,125333	0,5	119,308852
2,133667	0,5	108,673902
2,142000	0,5	94,709651
2,150333	0,5	81,589501
2,158667	0,5	71,219551
2,167000	0,5	63,939451
2,175333	0,5	59,722451
2,183667	0,5	59,046051
2,192000	0,5	61,913851
2,200333	0,5	65,921451
2,208667	0,5	66,936301
2,217000	0,5	63,903101
2,225333	0,5	59,644101
2,233667	0,5	56,111101
2,242000	0,5	52,603101
2,250333	0,5	48,349701
2,258667	0,5	44,146901
2,267000	0,5	40,814101
2,275333	0,5	38,500901
2,283667	0,5	36,966151
2,292000	0,5	35,992151
2,300333	0,5	35,549201
2,308667	0,5	35,631751
2,317000	0,5	36,050101
2,325333	0,5	36,597551
2,333667	0,5	37,191001
2,342000	0,5	38,080351
2,350333	0,5	39,262751
2,358667	0,5	40,285551
2,367000	0,5	40,854201
2,375333	0,5	41,072051
2,383667	0,5	41,039201
2,392000	0,5	40,726401
2,400333	0,5	40,081401
2,408667	0,5	39,188651
2,417000	0,5	38,144401
2,425333	0,5	37,090401
2,433667	0,5	36,133851
2,442000	0,5	35,270501
2,450333	0,5	34,572051
2,458667	0,5	33,965751
2,467000	0,5	33,377450
2,475333	0,5	32,682950
2,483667	0,5	31,967400
2,492000	0,5	31,517700
2,500333	0,5	32,472150
2,508667	0,5	34,632601
2,517000	0,5	34,832951
2,525333	0,5	32,914750
2,533667	0,5	31,388500
2,542000	0,5	30,393850
2,550333	0,5	29,534700
2,558667	0,5	28,693850
2,567000	0,5	27,958950
2,575333	0,5	27,405600
2,583667	0,5	27,033650
2,592000	0,5	26,836650
2,600333	0,5	26,785050
2,608667	0,5	26,835650
2,617000	0,5	26,906150
2,625333	0,5	26,936050
2,633667	0,5	26,854650
2,642000	0,5	26,678650
2,650333	0,5	26,427650
2,658667	0,5	26,181700
2,667000	0,5	25,956250
2,675333	0,5	25,802300
2,683667	0,5	25,706700
2,692000	0,5	25,619750
2,700333	0,5	25,548700
2,708667	0,5	25,519700
2,717000	0,5	25,537300
2,725333	0,5	25,616700
2,733667	0,5	25,723600
2,742000	0,5	25,910850
2,750333	0,5	26,254650
2,758667	0,5	26,879850
2,767000	0,5	27,895950
2,775333	0,5	29,505400
2,783667	0,5	32,126350
2,792000	0,5	36,715051
2,800333	0,5	45,107601
2,808667	0,5	59,810651
2,817000	0,5	82,786501
2,825333	0,5	112,819752
2,833667	0,5	143,826302
2,842000	0,5	166,497152
2,850333	0,5	173,727653
2,858667	0,5	164,243552
2,867000	0,5	142,761052
2,875333	0,5	116,577502
2,883667	0,5	92,262951
2,892000	0,5	73,503751
2,900333	0,5	61,002901
2,908667	0,5	53,469701
2,917000	0,5	49,011401
2,925333	0,5	45,990601
2,933667	0,5	43,428701
2,942000	0,5	40,940951
2,950333	0,5	38,484801
2,958667	0,5	36,186651
2,967000	0,5	34,244301
2,975333	0,5	32,975900
2,983667	0,5	32,669200
2,992000	0,5	33,692001
3,000333	0,5	36,220751
3,008667	0,5	39,917651
3,017000	0,5	43,922551
3,025333	0,5	47,060501
3,033667	0,5	48,376051
3,042000	0,5	47,536201
3,050333	0,5	44,745001
3,058667	0,5	40,716351
3,067000	0,5	36,230851
3,075333	0,5	31,991150
3,083667	0,5	28,376700
3,092000	0,5	25,548900
3,100333	0,5	23,449750
3,108667	0,5	21,915500
3,117000	0,5	20,818700
3,125333	0,5	20,065550
3,133667	0,5	19,447200
3,142000	0,5	18,957500
3,150333	0,5	18,548850
3,158667	0,5	18,206050
3,167000	0,5	17,953000
3,175333	0,5	17,738850
3,183667	0,5	17,652750
3,192000	0,5	17,679550
3,200333	0,5	17,841100
3,208667	0,5	18,034850
3,217000	0,5	18,225900
3,225333	0,5	18,270750
3,233667	0,5	18,147200
3,242000	0,5	17,840200
3,250333	0,5	17,416400
3,258667	0,5	16,923450
3,267000	0,5	16,463600
3,275333	0,5	16,061500
3,283667	0,5	15,687650
3,292000	0,5	15,383050
3,300333	0,5	15,148150
3,308667	0,5	14,971150
3,317000	0,5	14,861150
3,325333	0,5	14,760050
3,333667	0,5	14,700100
3,342000	0,5	14,686800
3,350333	0,5	14,685950
3,358667	0,5	14,719200
3,367000	0,5	14,761950
3,375333	0,5	14,831750
3,383667	0,5	14,922600
3,392000	0,5	15,078300
3,400333	0,5	15,314600
3,408667	0,5	15,660300
3,417000	0,5	16,141800
3,425333	0,5	16,711100
3,433667	0,5	17,189800
3,442000	0,5	17,501250
3,450333	0,5	17,502950
3,458667	0,5	17,191050
3,467000	0,5	16,620050
3,475333	0,5	15,883200
3,483667	0,5	15,157850
3,492000	0,5	14,522750
3,500333	0,5	14,011700
3,508667	0,5	13,615550
3,517000	0,5	13,320550
3,525333	0,5	13,094200
3,533667	0,5	12,929450
3,542000	0,5	12,805750
3,550333	0,5	12,725850
3,558667	0,5	12,649050
3,567000	0,5	12,627150
3,575333	0,5	12,575450
3,583667	0,5	12,524100
3,592000	0,5	12,474350
3,600333	0,5	12,433450
3,608667	0,5	12,395500
3,617000	0,5	12,360550
3,625333	0,5	12,313750
3,633667	0,5	12,293650
3,642000	0,5	12,283300
3,650333	0,5	12,287850
3,658667	0,5	12,296500
3,667000	0,5	12,318850
3,675333	0,5	12,360700
3,683667	0,5	12,443300
3,692000	0,5	12,588050
3,700333	0,5	12,791500
3,708667	0,5	13,067650
3,717000	0,5	13,367400
3,725333	0,5	13,585600
3,733667	0,5	13,727550
3,742000	0,5	13,808250
3,750333	0,5	13,832200
3,758667	0,5	13,843300
3,767000	0,5	13,817750
3,775333	0,5	13,795950
3,783667	0,5	13,781350
3,792000	0,5	13,812750
3,800333	0,5	13,874950
3,808667	0,5	14,021900
3,817000	0,5	14,311550
3,825333	0,5	14,952650
3,833667	0,5	16,303450
3,842000	0,5	18,771300
3,850333	0,5	22,427350
3,858667	0,5	26,690200
3,867000	0,5	30,515850
3,875333	0,5	33,004250
3,883667	0,5	33,818551
3,892000	0,5	33,105650
3,900333	0,5	31,363550
3,908667	0,5	29,098650
3,917000	0,5	26,777050
3,925333	0,5	24,660200
3,933667	0,5	22,876250
3,942000	0,5	21,403050
3,950333	0,5	20,205650
3,958667	0,5	19,195800
3,967000	0,5	18,341050
3,975333	0,5	17,592300
3,983667	0,5	16,947800
3,992000	0,5	16,376250
4,000333	0,5	15,875250
4,008667	0,5	15,466250
4,017000	0,5	15,088350
4,025333	0,5	14,745650
4,033667	0,5	14,454200
4,042000	0,5	14,194800
4,050333	0,5	13,978750
4,058667	0,5	13,751350
4,067000	0,5	13,518650
4,075333	0,5	13,315900
4,083667	0,5	13,108400
4,092000	0,5	12,920150
4,100333	0,5	12,726600
4,108667	0,5	12,560350
4,117000	0,5	12,386700
4,125333	0,5	12,244550
4,133667	0,5	12,105200
4,142000	0,5	11,974800
4,150333	0,5	11,855300
4,158667	0,5	11,794500
4,167000	0,5	11,706250
4,175333	0,5	11,659650
4,183667	0,5	11,649900
4,192000	0,5	11,677950
4,200333	0,5	11,759450
4,208667	0,5	11,828900
4,217000	0,5	11,921650
4,225333	0,5	12,014850
4,233667	0,5	12,085100
4,242000	0,5	12,098900
4,250333	0,5	12,062350
4,258667	0,5	11,948000
4,267000	0,5	11,787100
4,275333	0,5	11,580850
4,283667	0,5	11,363150
4,292000	0,5	11,121050
4,300333	0,5	10,917400
4,308667	0,5	10,755650
4,317000	0,5	10,588100
4,325333	0,5	10,457700
4,333667	0,5	10,363800
4,342000	0,5	10,284900
4,350333	0,5	10,249400
4,358667	0,5	10,184150
4,367000	0,5	10,143800
4,375333	0,5	10,111600
4,383667	0,5	10,090200
4,392000	0,5	10,072950
4,400333	0,5	10,057300
4,408667	0,5	10,044500
4,417000	0,5	10,029450
4,425333	0,5	10,014150
4,433667	0,5	9,986900
4,442000	0,5	9,945050
4,450333	0,5	9,901200
4,458667	0,5	9,873250
4,467000	0,5	9,803100
4,475333	0,5	9,758150
4,483667	0,5	9,720900
4,492000	0,5	9,703050
4,500333	0,5	9,691000
4,508667	0,5	9,660950
4,517000	0,5	9,639200
4,525333	0,5	9,636150
4,533667	0,5	9,635950
4,542000	0,5	9,645700
4,550333	0,5	9,650850
4,558667	0,5	9,664700
4,567000	0,5	9,685350
4,575333	0,5	9,707100
4,583667	0,5	9,726950
4,592000	0,5	9,757350
4,600333	0,5	9,820100
4,608667	0,5	9,880750
4,617000	0,5	9,954900
4,625333	0,5	10,050300
4,633667	0,5	10,174050
4,642000	0,5	10,303100
4,650333	0,5	10,442550
4,658667	0,5	10,551450
4,667000	0,5	10,669150
4,675333	0,5	10,765750
4,683667	0,5	10,868450
4,692000	0,5	10,958200
4,700333	0,5	11,059250
4,708667	0,5	11,162100
4,717000	0,5	11,275150
4,725333	0,5	11,385650
4,733667	0,5	11,457700
4,742000	0,5	11,506200
4,750333	0,5	11,529250
4,758667	0,5	11,466750
4,767000	0,5	11,348400
4,775333	0,5	11,190950
4,783667	0,5	10,998550
4,792000	0,5	10,801650
4,800333	0,5	10,574700
4,808667	0,5	10,358100
4,817000	0,5	10,149150
4,825333	0,5	9,979400
4,833667	0,5	9,818150
4,842000	0,5	9,694700
4,850333	0,5	9,586350
4,858667	0,5	9,508350
4,867000	0,5	9,442450
4,875333	0,5	9,383250
4,883667	0,5	9,322300
4,892000	0,5	9,293550
4,900333	0,5	9,267000
4,908667	0,5	9,229000
4,917000	0,5	9,199450
4,925333	0,5	9,181100
4,933667	0,5	9,176100
4,942000	0,5	9,172050
4,950333	0,5	9,162150
4,958667	0,5	9,144100
4,967000	0,5	9,135050
4,975333	0,5	9,120750
4,983667	0,5	9,117700
4,992000	0,5	9,102450
5,000333	0,5	9,095500
5,008667	0,5	9,078450
5,017000	0,5	9,077000
5,025333	0,5	9,062950
5,033667	0,5	9,048200
5,042000	0,5	9,060850
5,050333	0,5	9,056000
5,058667	0,5	9,038700
5,067000	0,5	9,040850
5,075333	0,5	9,051650
5,083667	0,5	9,094100
5,092000	0,5	9,116900
5,100333	0,5	9,135900
5,108667	0,5	9,155800
5,117000	0,5	9,172300
5,125333	0,5	9,177050
5,133667	0,5	9,172600
5,142000	0,5	9,161650
5,150333	0,5	9,128100
5,158667	0,5	9,094350
5,167000	0,5	9,043650
5,175333	0,5	8,995200
5,183667	0,5	8,921950
5,192000	0,5	8,886750
5,200333	0,5	8,808800
5,208667	0,5	8,746300
5,217000	0,5	8,688900
5,225333	0,5	8,650900
5,233667	0,5	8,626850
5,242000	0,5	8,579800
5,250333	0,5	8,539850
5,258667	0,5	8,517400
5,267000	0,5	8,493750
5,275333	0,5	8,479350
5,283667	0,5	8,462200
5,292000	0,5	8,448250
5,300333	0,5	8,441300
5,308667	0,5	8,431700
5,317000	0,5	8,431050
5,325333	0,5	8,412900
5,333667	0,5	8,405600
5,342000	0,5	8,419750
5,350333	0,5	8,399350
5,358667	0,5	8,387200
5,367000	0,5	8,387900
5,375333	0,5	8,387400
5,383667	0,5	8,414600
5,392000	0,5	8,397950
5,400333	0,5	8,396600
5,408667	0,5	8,389850
5,417000	0,5	8,394700
5,425333	0,5	8,381550
5,433667	0,5	8,375700
5,442000	0,5	8,359350
5,450333	0,5	8,347650
5,458667	0,5	8,338950
5,467000	0,5	8,324850
5,475333	0,5	8,308850
5,483667	0,5	8,296200
5,492000	0,5	8,292350
5,500333	0,5	8,263000
5,508667	0,5	8,252850
5,517000	0,5	8,248650
5,525333	0,5	8,258200
5,533667	0,5	8,270900
5,542000	0,5	8,272350
5,550333	0,5	8,265800
5,558667	0,5	8,278150
5,567000	0,5	8,278200
5,575333	0,5	8,285050
5,583667	0,5	8,284200
5,592000	0,5	8,284950
5,600333	0,5	8,280500
5,608667	0,5	8,273450
5,617000	0,5	8,262900
5,625333	0,5	8,244100
5,633667	0,5	8,231050
5,642000	0,5	8,216950
5,650333	0,5	8,179550
5,658667	0,5	8,165450
5,667000	0,5	8,150450
5,675333	0,5	8,147350
5,683667	0,5	8,146200
5,692000	0,5	8,122550
5,700333	0,5	8,112300
5,708667	0,5	8,091400
5,717000	0,5	8,085450
5,725333	0,5	8,064600
5,733667	0,5	8,054400
5,742000	0,5	8,039550
5,750333	0,5	8,034550
5,758667	0,5	8,027750
5,767000	0,5	8,011750
5,775333	0,5	8,002100
5,783667	0,5	8,018100
5,792000	0,5	8,001350
5,800333	0,5	7,986550
5,808667	0,5	7,971900
5,817000	0,5	7,959700
5,825333	0,5	7,950100
5,833667	0,5	7,917950
5,842000	0,5	7,876750
5,850333	0,5	7,831000
5,858667	0,5	7,788950
5,867000	0,5	7,738300
5,875333	0,5	7,700100
5,883667	0,5	7,656600
5,892000	0,5	7,623400
5,900333	0,5	7,595000
5,908667	0,5	7,574850
5,917000	0,5	7,555950
5,925333	0,5	7,569300
5,933667	0,5	7,592950
5,942000	0,5	7,618150
5,950333	0,5	7,661500
5,958667	0,5	7,724800
5,967000	0,5	7,799750
5,975333	0,5	7,881500
5,983667	0,5	7,937500
5,992000	0,5	7,976550
6,000333	0,5	7,994550
6,008667	0,5	7,983200
6,017000	0,5	7,943900
6,025333	0,5	7,882000
6,033667	0,5	7,800700
6,042000	0,5	7,701450
6,050333	0,5	7,610450
6,058667	0,5	7,515800
6,067000	0,5	7,426800
6,075333	0,5	7,364350
6,083667	0,5	7,303700
6,092000	0,5	7,244600
6,100333	0,5	7,205000
6,108667	0,5	7,188750
6,117000	0,5	7,195400
6,125333	0,5	7,201000
6,133667	0,5	7,197050
6,142000	0,5	7,199700
6,150333	0,5	7,207400
6,158667	0,5	7,201400
6,167000	0,5	7,195600
6,175333	0,5	7,182150
6,183667	0,5	7,161850
6,192000	0,5	7,145350
6,200333	0,5	7,124300
6,208667	0,5	7,101700
6,217000	0,5	7,071250
6,225333	0,5	7,072150
6,233667	0,5	7,060200
6,242000	0,5	7,057550
6,250333	0,5	7,063050
6,258667	0,5	7,088850
6,267000	0,5	7,131850
6,275333	0,5	7,161250
6,283667	0,5	7,185800
6,292000	0,5	7,228200
6,300333	0,5	7,256700
6,308667	0,5	7,291550
6,317000	0,5	7,308400
6,325333	0,5	7,321150
6,333667	0,5	7,323100
6,342000	0,5	7,322400
6,350333	0,5	7,323450
6,358667	0,5	7,304200
6,367000	0,5	7,286050
6,375333	0,5	7,283950
6,383667	0,5	7,250550
6,392000	0,5	7,217800
6,400333	0,5	7,181950
6,408667	0,5	7,142500
6,417000	0,5	7,117700
6,425333	0,5	7,060600
6,433667	0,5	7,026250
6,442000	0,5	6,993750
6,450333	0,5	6,979550
6,458667	0,5	6,965050
6,467000	0,5	6,970100
6,475333	0,5	6,988650
6,483667	0,5	7,021100
6,492000	0,5	7,059200
6,500333	0,5	7,110350
6,508667	0,5	7,158500
6,517000	0,5	7,223250
6,525333	0,5	7,297300
6,533667	0,5	7,364800
6,542000	0,5	7,454850
6,550333	0,5	7,577150
6,558667	0,5	7,745250
6,567000	0,5	7,971200
6,575333	0,5	8,265350
6,583667	0,5	8,671250
6,592000	0,5	9,231300
6,600333	0,5	9,961150
6,608667	0,5	10,898400
6,617000	0,5	12,009850
6,625333	0,5	13,267350
6,633667	0,5	14,583400
6,642000	0,5	15,854500
6,650333	0,5	16,939500
6,658667	0,5	17,734200
6,667000	0,5	18,154650
6,675333	0,5	18,165150
6,683667	0,5	17,753650
6,692000	0,5	17,018350
6,700333	0,5	16,020950
6,708667	0,5	14,881550
6,717000	0,5	13,690100
6,725333	0,5	12,523000
6,733667	0,5	11,450700
6,742000	0,5	10,517750
6,750333	0,5	9,741150
6,758667	0,5	9,109950
6,767000	0,5	8,615700
6,775333	0,5	8,234800
6,783667	0,5	7,952350
6,792000	0,5	7,747600
6,800333	0,5	7,607700
6,808667	0,5	7,511050
6,817000	0,5	7,462050
6,825333	0,5	7,414100
6,833667	0,5	7,371400
6,842000	0,5	7,328950
6,850333	0,5	7,278050
6,858667	0,5	7,212300
6,867000	0,5	7,126400
6,875333	0,5	7,035350
6,883667	0,5	6,943550
6,892000	0,5	6,867950
6,900333	0,5	6,803950
6,908667	0,5	6,757100
6,917000	0,5	6,717350
6,925333	0,5	6,682900
6,933667	0,5	6,648100
6,942000	0,5	6,622650
6,950333	0,5	6,586700
6,958667	0,5	6,561100
6,967000	0,5	6,538550
6,975333	0,5	6,507400
6,983667	0,5	6,478950
6,992000	0,5	6,459700
7,000333	0,5	6,448750
7,008667	0,5	6,449200
7,017000	0,5	6,444100
7,025333	0,5	6,452300
7,033667	0,5	6,466900
7,042000	0,5	6,494400
7,050333	0,5	6,522400
7,058667	0,5	6,556400
7,067000	0,5	6,576700
7,075333	0,5	6,591000
7,083667	0,5	6,592400
7,092000	0,5	6,583800
7,100333	0,5	6,567350
7,108667	0,5	6,563150
7,117000	0,5	6,554150
7,125333	0,5	6,545000
7,133667	0,5	6,545450
7,142000	0,5	6,549750
7,150333	0,5	6,560250
7,158667	0,5	6,550450
7,167000	0,5	6,526200
7,175333	0,5	6,485000
7,183667	0,5	6,438900
7,192000	0,5	6,386650
7,200333	0,5	6,333750
7,208667	0,5	6,283400
7,217000	0,5	6,241200
7,225333	0,5	6,205300
7,233667	0,5	6,173750
7,242000	0,5	6,152800
7,250333	0,5	6,118500
7,258667	0,5	6,105700
7,267000	0,5	6,078100
7,275333	0,5	6,051800
7,283667	0,5	6,027350
7,292000	0,5	6,007500
7,300333	0,5	5,994550
7,308667	0,5	5,972650
7,317000	0,5	5,945900
7,325333	0,5	5,925250
7,333667	0,5	5,902000
7,342000	0,5	5,881600
7,350333	0,5	5,858150
7,358667	0,5	5,843800
7,367000	0,5	5,821300
7,375333	0,5	5,808000
7,383667	0,5	5,788650
7,392000	0,5	5,781050
7,400333	0,5	5,765200
7,408667	0,5	5,772000
7,417000	0,5	5,765600
7,425333	0,5	5,766600
7,433667	0,5	5,785900
7,442000	0,5	5,825500
7,450333	0,5	5,906650
7,458667	0,5	6,020400
7,467000	0,5	6,171950
7,475333	0,5	6,309450
7,483667	0,5	6,382700
7,492000	0,5	6,366250
7,500333	0,5	6,276650
7,508667	0,5	6,152450
7,517000	0,5	6,034600
7,525333	0,5	5,937150
7,533667	0,5	5,857800
7,542000	0,5	5,791500
7,550333	0,5	5,746500
7,558667	0,5	5,715000
7,567000	0,5	5,692850
7,575333	0,5	5,684100
7,583667	0,5	5,692950
7,592000	0,5	5,720800
7,600333	0,5	5,758850
7,608667	0,5	5,804600
7,617000	0,5	5,855150
7,625333	0,5	5,914950
7,633667	0,5	5,986600
7,642000	0,5	6,074700
7,650333	0,5	6,185350
7,658667	0,5	6,339250
7,667000	0,5	6,553550
7,675333	0,5	6,864800
7,683667	0,5	7,305900
7,692000	0,5	7,944600
7,700333	0,5	8,838100
7,708667	0,5	10,040400
7,717000	0,5	11,564200
7,725333	0,5	13,385700
7,733667	0,5	15,367950
7,742000	0,5	17,306900
7,750333	0,5	18,914550
7,758667	0,5	19,943750
7,767000	0,5	20,224600
7,775333	0,5	19,723650
7,783667	0,5	18,518050
7,792000	0,5	16,810350
7,800333	0,5	14,847100
7,808667	0,5	12,895300
7,817000	0,5	11,186250
7,825333	0,5	9,873050
7,833667	0,5	9,043300
7,842000	0,5	8,674500
7,850333	0,5	8,696300
7,858667	0,5	8,981200
7,867000	0,5	9,447750
7,875333	0,5	10,054000
7,883667	0,5	10,838800
7,892000	0,5	11,946950
7,900333	0,5	13,733300
7,908667	0,5	17,034550
7,917000	0,5	23,260950
7,925333	0,5	33,898851
7,933667	0,5	49,167251
7,942000	0,5	66,584151
7,950333	0,5	81,293551
7,958667	0,5	88,422951
7,967000	0,5	85,934701
7,975333	0,5	75,442751
7,983667	0,5	60,709851
7,992000	0,5	45,666101
8,000333	0,5	32,905750
8,008667	0,5	23,458550
8,017000	0,5	17,191250
8,025333	0,5	13,376400
8,033667	0,5	11,172650
8,042000	0,5	9,883650
8,050333	0,5	9,024850
8,058667	0,5	8,372200
8,067000	0,5	7,834700
8,075333	0,5	7,408850
8,083667	0,5	7,082050
8,092000	0,5	6,846800
8,100333	0,5	6,669500
8,108667	0,5	6,552100
8,117000	0,5	6,462500
8,125333	0,5	6,388100
8,133667	0,5	6,321350
8,142000	0,5	6,276450
8,150333	0,5	6,245350
8,158667	0,5	6,222950
8,167000	0,5	6,215950
8,175333	0,5	6,246350
8,183667	0,5	6,310400
8,192000	0,5	6,364950
8,200333	0,5	6,351700
8,208667	0,5	6,277900
8,217000	0,5	6,189050
8,225333	0,5	6,120900
8,233667	0,5	6,089650
8,242000	0,5	6,056900
8,250333	0,5	6,004950
8,258667	0,5	5,918500
8,267000	0,5	5,811950
8,275333	0,5	5,704800
8,283667	0,5	5,612050
8,292000	0,5	5,545200
8,300333	0,5	5,500300
8,308667	0,5	5,467700
8,317000	0,5	5,447500
8,325333	0,5	5,431050
8,333667	0,5	5,424650
8,342000	0,5	5,406700
8,350333	0,5	5,387550
8,358667	0,5	5,373700
8,367000	0,5	5,361300
8,375333	0,5	5,352900
8,383667	0,5	5,353800
8,392000	0,5	5,350350
8,400333	0,5	5,348800
8,408667	0,5	5,344100
8,417000	0,5	5,341850
8,425333	0,5	5,344800
8,433667	0,5	5,351100
8,442000	0,5	5,394750
8,450333	0,5	5,473800
8,458667	0,5	5,604500
8,467000	0,5	5,762100
8,475333	0,5	5,888550
8,483667	0,5	5,946700
8,492000	0,5	5,914150
8,500333	0,5	5,831150
8,508667	0,5	5,731450
8,517000	0,5	5,630850
8,525333	0,5	5,545350
8,533667	0,5	5,478550
8,542000	0,5	5,435450
8,550333	0,5	5,414150
8,558667	0,5	5,413800
8,567000	0,5	5,436950
8,575333	0,5	5,485800
8,583667	0,5	5,566250
8,592000	0,5	5,687350
8,600333	0,5	5,854850
8,608667	0,5	6,054900
8,617000	0,5	6,265000
8,625333	0,5	6,444600
8,633667	0,5	6,569550
8,642000	0,5	6,626500
8,650333	0,5	6,636700
8,658667	0,5	6,624900
8,667000	0,5	6,626250
8,675333	0,5	6,654250
8,683667	0,5	6,735850
8,692000	0,5	6,897850
8,700333	0,5	7,149950
8,708667	0,5	7,457400
8,717000	0,5	7,757050
8,725333	0,5	8,026900
8,733667	0,5	8,335050
8,742000	0,5	8,865100
8,750333	0,5	10,007250
8,758667	0,5	12,521500
8,767000	0,5	17,458450
8,775333	0,5	25,476400
8,783667	0,5	35,608901
8,792000	0,5	44,868951
8,800333	0,5	49,601501
8,808667	0,5	47,901851
8,817000	0,5	40,815851
8,825333	0,5	31,379400
8,833667	0,5	22,552150
8,842000	0,5	15,882150
8,850333	0,5	11,543050
8,858667	0,5	8,982000
8,867000	0,5	7,536150
8,875333	0,5	6,721900
8,883667	0,5	6,261900
8,892000	0,5	6,000150
8,900333	0,5	5,879400
8,908667	0,5	5,868100
8,917000	0,5	5,914450
8,925333	0,5	5,954550
8,933667	0,5	5,938050
8,942000	0,5	5,869850
8,950333	0,5	5,781800
8,958667	0,5	5,699950
8,967000	0,5	5,635400
8,975333	0,5	5,587400
8,983667	0,5	5,545550
8,992000	0,5	5,518100
9,000333	0,5	5,507600
9,008667	0,5	5,517850
9,017000	0,5	5,558750
9,025333	0,5	5,643450
9,033667	0,5	5,789000
9,042000	0,5	5,995150
9,050333	0,5	6,250350
9,058667	0,5	6,498050
9,067000	0,5	6,691700
9,075333	0,5	6,782200
9,083667	0,5	6,787100
9,092000	0,5	6,747950
9,100333	0,5	6,715300
9,108667	0,5	6,682200
9,117000	0,5	6,632600
9,125333	0,5	6,559750
9,133667	0,5	6,472600
9,142000	0,5	6,389800
9,150333	0,5	6,352400
9,158667	0,5	6,358850
9,167000	0,5	6,403750
9,175333	0,5	6,471600
9,183667	0,5	6,548000
9,192000	0,5	6,622200
9,200333	0,5	6,715650
9,208667	0,5	6,860900
9,217000	0,5	7,146550
9,225333	0,5	7,750550
9,233667	0,5	9,109300
9,242000	0,5	11,762900
9,250333	0,5	15,526300
9,258667	0,5	19,610450
9,267000	0,5	23,525550
9,275333	0,5	27,760100
9,283667	0,5	32,639800
9,292000	0,5	37,303251
9,300333	0,5	40,562451
9,308667	0,5	41,585401
9,317000	0,5	40,180351
9,325333	0,5	36,757501
9,333667	0,5	32,070800
9,342000	0,5	26,987450
9,350333	0,5	22,235950
9,358667	0,5	18,240300
9,367000	0,5	15,164500
9,375333	0,5	12,932600
9,383667	0,5	11,382650
9,392000	0,5	10,320150
9,400333	0,5	9,582250
9,408667	0,5	9,044800
9,417000	0,5	8,624000
9,425333	0,5	8,291450
9,433667	0,5	8,027050
9,442000	0,5	7,827300
9,450333	0,5	7,677650
9,458667	0,5	7,565700
9,467000	0,5	7,448450
9,475333	0,5	7,311200
9,483667	0,5	7,132000
9,492000	0,5	6,898200
9,500333	0,5	6,641900
9,508667	0,5	6,379500
9,517000	0,5	6,134050
9,525333	0,5	5,911800
9,533667	0,5	5,720650
9,542000	0,5	5,556450
9,550333	0,5	5,423150
9,558667	0,5	5,327450
9,567000	0,5	5,271300
9,575333	0,5	5,255850
9,583667	0,5	5,260800
9,592000	0,5	5,273800
9,600333	0,5	5,264750
9,608667	0,5	5,232450
9,617000	0,5	5,171650
9,625333	0,5	5,100600
9,633667	0,5	5,017100
9,642000	0,5	4,935450
9,650333	0,5	4,855350
9,658667	0,5	4,787150
9,667000	0,5	4,729650
9,675333	0,5	4,684350
9,683667	0,5	4,651200
9,692000	0,5	4,619050
9,700333	0,5	4,596250
9,708667	0,5	4,582600
9,717000	0,5	4,568350
9,725333	0,5	4,562150
9,733667	0,5	4,558500
9,742000	0,5	4,559750
9,750333	0,5	4,570850
9,758667	0,5	4,583750
9,767000	0,5	4,613300
9,775333	0,5	4,653150
9,783667	0,5	4,694850
9,792000	0,5	4,728300
9,800333	0,5	4,752250
9,808667	0,5	4,756250
9,817000	0,5	4,747100
9,825333	0,5	4,719500
9,833667	0,5	4,703600
9,842000	0,5	4,703350
9,850333	0,5	4,739450
9,858667	0,5	4,815950
9,867000	0,5	4,935400
9,875333	0,5	5,091300
9,883667	0,5	5,272600
9,892000	0,5	5,454450
9,900333	0,5	5,622850
9,908667	0,5	5,759350
9,917000	0,5	5,855550
9,925333	0,5	5,917800
9,933667	0,5	5,942100
9,942000	0,5	5,921900
9,950333	0,5	5,861050
9,958667	0,5	5,750100
9,967000	0,5	5,598200
9,975333	0,5	5,413250
9,983667	0,5	5,209050
9,992000	0,5	5,007350
10,000333	0,5	4,826900
10,008667	0,5	4,670600
10,017000	0,5	4,548500
10,025333	0,5	4,460350
10,033667	0,5	4,398950
10,042000	0,5	4,368050
10,050333	0,5	4,359950
10,058667	0,5	4,365950
10,067000	0,5	4,387700
10,075333	0,5	4,427050
10,083667	0,5	4,472700
10,092000	0,5	4,520250
10,100333	0,5	4,570300
10,108667	0,5	4,611800
10,117000	0,5	4,634800
10,125333	0,5	4,637950
10,133667	0,5	4,632200
10,142000	0,5	4,626250
10,150333	0,5	4,629750
10,158667	0,5	4,652000
10,167000	0,5	4,691000
10,175333	0,5	4,727850
10,183667	0,5	4,753550
10,192000	0,5	4,755700
10,200333	0,5	4,735850
10,208667	0,5	4,686900
10,217000	0,5	4,635300
10,225333	0,5	4,581850
10,233667	0,5	4,527950
10,242000	0,5	4,476900
10,250333	0,5	4,432200
10,258667	0,5	4,387100
10,267000	0,5	4,346200
10,275333	0,5	4,313600
10,283667	0,5	4,281750
10,292000	0,5	4,271650
10,300333	0,5	4,271550
10,308667	0,5	4,295750
10,317000	0,5	4,333200
10,325333	0,5	4,382900
10,333667	0,5	4,451450
10,342000	0,5	4,527900
10,350333	0,5	4,613100
10,358667	0,5	4,689650
10,367000	0,5	4,763650
10,375333	0,5	4,811300
10,383667	0,5	4,831150
10,392000	0,5	4,829950
10,400333	0,5	4,808550
10,408667	0,5	4,788750
10,417000	0,5	4,758200
10,425333	0,5	4,729900
10,433667	0,5	4,685550
10,442000	0,5	4,628700
10,450333	0,5	4,556700
10,458667	0,5	4,482150
10,467000	0,5	4,414200
10,475333	0,5	4,355750
10,483667	0,5	4,313450
10,492000	0,5	4,274900
10,500333	0,5	4,237450
10,508667	0,5	4,196450
10,517000	0,5	4,159550
10,525333	0,5	4,108350
10,533667	0,5	4,063250
10,542000	0,5	4,013800
10,550333	0,5	3,976350
10,558667	0,5	3,950100
10,567000	0,5	3,945100
10,575333	0,5	3,956400
10,583667	0,5	3,990500
10,592000	0,5	4,049000
10,600333	0,5	4,124250
10,608667	0,5	4,208500
10,617000	0,5	4,284650
10,625333	0,5	4,347600
10,633667	0,5	4,382750
10,642000	0,5	4,386200
10,650333	0,5	4,354700
10,658667	0,5	4,297150
10,667000	0,5	4,222600
10,675333	0,5	4,135350
10,683667	0,5	4,047700
10,692000	0,5	3,963500
10,700333	0,5	3,882450
10,708667	0,5	3,814850
10,717000	0,5	3,745050
10,725333	0,5	3,689650
10,733667	0,5	3,630350
10,742000	0,5	3,599150
10,750333	0,5	3,571800
10,758667	0,5	3,557100
10,767000	0,5	3,550750
10,775333	0,5	3,562400
10,783667	0,5	3,609450
10,792000	0,5	3,676350
10,800333	0,5	3,772950
10,808667	0,5	3,891200
10,817000	0,5	4,004050
10,825333	0,5	4,085200
10,833667	0,5	4,126900
10,842000	0,5	4,121650
10,850333	0,5	4,090650
10,858667	0,5	4,037200
10,867000	0,5	3,971750
10,875333	0,5	3,909300
10,883667	0,5	3,852400
10,892000	0,5	3,799050
10,900333	0,5	3,748200
10,908667	0,5	3,694750
10,917000	0,5	3,646000
10,925333	0,5	3,594350
10,933667	0,5	3,548350
10,942000	0,5	3,499850
10,950333	0,5	3,467700
10,958667	0,5	3,465400
10,967000	0,5	3,496050
10,975333	0,5	3,551950
10,983667	0,5	3,627400
10,992000	0,5	3,704200
11,000333	0,5	3,749750
11,008667	0,5	3,749850
11,017000	0,5	3,697950
11,025333	0,5	3,604350
11,033667	0,5	3,488850
11,042000	0,5	3,372700
11,050333	0,5	3,258800
11,058667	0,5	3,158900
11,067000	0,5	3,066100
11,075333	0,5	2,988000
11,083667	0,5	2,929900
11,092000	0,5	2,894250
11,100333	0,5	2,897000
11,108667	0,5	2,954400
11,117000	0,5	3,051350
11,125333	0,5	3,192600
11,133667	0,5	3,358750
11,142000	0,5	3,529700
11,150333	0,5	3,667800
11,158667	0,5	3,746850
11,167000	0,5	3,752300
11,175333	0,5	3,698150
11,183667	0,5	3,603050
11,192000	0,5	3,494450
11,200333	0,5	3,398050
11,208667	0,5	3,319000
11,217000	0,5	3,266450
11,225333	0,5	3,226150
11,233667	0,5	3,210200
11,242000	0,5	3,193650
11,250333	0,5	3,199000
11,258667	0,5	3,210150
11,267000	0,5	3,235100
11,275333	0,5	3,262600
11,283667	0,5	3,299000
11,292000	0,5	3,341200
11,300333	0,5	3,365200
11,308667	0,5	3,363800
11,317000	0,5	3,338900
11,325333	0,5	3,294500
11,333667	0,5	3,237900
11,342000	0,5	3,183150
11,350333	0,5	3,135800
11,358667	0,5	3,096050
11,367000	0,5	3,057150
11,375333	0,5	3,034800
11,383667	0,5	3,014050
11,392000	0,5	3,000650
11,400333	0,5	3,003750
11,408667	0,5	3,013750
11,417000	0,5	3,031650
11,425333	0,5	3,050850
11,433667	0,5	3,062200
11,442000	0,5	3,075850
11,450333	0,5	3,073900
11,458667	0,5	3,063650
11,467000	0,5	3,041550
11,475333	0,5	3,025900
11,483667	0,5	3,012250
11,492000	0,5	3,005350
11,500333	0,5	3,001700
11,508667	0,5	3,007100
11,517000	0,5	3,022100
11,525333	0,5	3,046900
11,533667	0,5	3,079850
11,542000	0,5	3,117750
11,550333	0,5	3,171750
11,558667	0,5	3,224350
11,567000	0,5	3,281100
11,575333	0,5	3,337550
11,583667	0,5	3,390900
11,592000	0,5	3,439650
11,600333	0,5	3,486050
11,608667	0,5	3,512050
11,617000	0,5	3,535200
11,625333	0,5	3,547950
11,633667	0,5	3,566950
11,642000	0,5	3,603150
11,650333	0,5	3,677700
11,658667	0,5	3,812600
11,667000	0,5	4,021900
11,675333	0,5	4,319700
11,683667	0,5	4,686100
11,692000	0,5	5,080150
11,700333	0,5	5,452650
11,708667	0,5	5,720250
11,717000	0,5	5,854000
11,725333	0,5	5,836700
11,733667	0,5	5,691800
11,742000	0,5	5,456300
11,750333	0,5	5,165600
11,758667	0,5	4,863050
11,767000	0,5	4,573850
11,775333	0,5	4,319700
11,783667	0,5	4,112250
11,792000	0,5	3,963950
11,800333	0,5	3,870300
11,808667	0,5	3,829500
11,817000	0,5	3,846750
11,825333	0,5	3,904500
11,833667	0,5	3,986850
11,842000	0,5	4,098300
11,850333	0,5	4,210500
11,858667	0,5	4,300450
11,867000	0,5	4,364250
11,875333	0,5	4,390500
11,883667	0,5	4,396900
11,892000	0,5	4,380400
11,900333	0,5	4,354450
11,908667	0,5	4,320300
11,917000	0,5	4,299500
11,925333	0,5	4,285250
11,933667	0,5	4,287000
11,942000	0,5	4,288400
11,950333	0,5	4,296750
11,958667	0,5	4,307900
11,967000	0,5	4,324750
11,975333	0,5	4,349250
11,983667	0,5	4,396750
11,992000	0,5	4,475200
12,000333	0,5	4,574350
12,008667	0,5	4,686650
12,017000	0,5	4,799750
12,025333	0,5	4,898150
12,033667	0,5	4,963600
12,042000	0,5	4,977450
12,050333	0,5	4,935150
12,058667	0,5	4,848500
12,067000	0,5	4,735250
12,075333	0,5	4,617350
12,083667	0,5	4,502450
12,092000	0,5	4,411900
12,100333	0,5	4,337250
12,108667	0,5	4,280300
12,117000	0,5	4,243750
12,125333	0,5	4,208050
12,133667	0,5	4,178400
12,142000	0,5	4,156750
12,150333	0,5	4,129550
12,158667	0,5	4,100700
12,167000	0,5	4,070800
12,175333	0,5	4,043700
12,183667	0,5	4,019650
12,192000	0,5	3,988650
12,200333	0,5	3,950050
12,208667	0,5	3,907450
12,217000	0,5	3,858850
12,225333	0,5	3,811100
12,233667	0,5	3,756350
12,242000	0,5	3,705050
12,250333	0,5	3,657000
12,258667	0,5	3,607950
12,267000	0,5	3,572800
12,275333	0,5	3,531000
12,283667	0,5	3,512700
12,292000	0,5	3,497550
12,300333	0,5	3,485700
12,308667	0,5	3,474600
12,317000	0,5	3,461100
12,325333	0,5	3,454850
12,333667	0,5	3,444650
12,342000	0,5	3,429150
12,350333	0,5	3,426900
12,358667	0,5	3,430500
12,367000	0,5	3,453050
12,375333	0,5	3,484250
12,383667	0,5	3,531300
12,392000	0,5	3,579500
12,400333	0,5	3,622750
12,408667	0,5	3,665050
12,417000	0,5	3,680100
12,425333	0,5	3,676200
12,433667	0,5	3,665200
12,442000	0,5	3,639300
12,450333	0,5	3,601300
12,458667	0,5	3,569250
12,467000	0,5	3,546900
12,475333	0,5	3,550450
12,483667	0,5	3,566750
12,492000	0,5	3,591050
12,500333	0,5	3,618850
12,508667	0,5	3,661550
12,517000	0,5	3,692100
12,525333	0,5	3,729600
12,533667	0,5	3,755300
12,542000	0,5	3,777450
12,550333	0,5	3,796550
12,558667	0,5	3,814650
12,567000	0,5	3,818700
12,575333	0,5	3,807950
12,583667	0,5	3,779150
12,592000	0,5	3,734050
12,600333	0,5	3,704650
12,608667	0,5	3,710900
12,617000	0,5	3,774200
12,625333	0,5	3,871950
12,633667	0,5	3,944450
12,642000	0,5	3,972050
12,650333	0,5	3,982750
12,658667	0,5	4,042500
12,667000	0,5	4,308750
12,675333	0,5	4,756500
12,683667	0,5	5,069200
12,692000	0,5	5,313850
12,700333	0,5	5,289650
12,708667	0,5	4,821200
12,717000	0,5	4,299250
12,725333	0,5	3,810350
12,733667	0,5	3,139500
12,742000	0,5	2,507050
12,750333	0,5	2,079650
12,758667	0,5	1,785350
12,767000	0,5	1,577400
12,775333	0,5	1,426700
12,783667	0,5	1,312350
12,792000	0,5	1,222150
12,800333	0,5	1,143450
12,808667	0,5	1,085150
12,817000	0,5	1,037150
12,825333	0,5	1,004300
12,833667	0,5	0,976450
12,842000	0,5	0,956300
12,850333	0,5	0,947800
12,858667	0,5	0,935850
12,867000	0,5	0,921950
12,875333	0,5	0,914350
12,883667	0,5	0,903750
12,892000	0,5	0,886000
12,900333	0,5	0,868600
12,908667	0,5	0,845350
12,917000	0,5	0,833500
12,925333	0,5	0,819350
12,933667	0,5	0,808750
12,942000	0,5	0,796650
12,950333	0,5	0,783000
12,958667	0,5	0,766950
12,967000	0,5	0,757850
12,975333	0,5	0,742700
12,983667	0,5	0,730500
12,992000	0,5	0,713150
13,000333	0,5	0,703950
13,008667	0,5	0,679550
13,017000	0,5	0,673700
13,025333	0,5	0,668500
13,033667	0,5	0,665950
13,042000	0,5	0,658550
13,050333	0,5	0,659000
13,058667	0,5	0,662250
13,067000	0,5	0,673100
13,075333	0,5	0,685250
13,083667	0,5	0,695950
13,092000	0,5	0,704250
13,100333	0,5	0,710000
13,108667	0,5	0,716300
13,117000	0,5	0,711600
13,125333	0,5	0,703900
13,133667	0,5	0,689000
13,142000	0,5	0,674950
13,150333	0,5	0,660700
13,158667	0,5	0,637350
13,167000	0,5	0,622650
13,175333	0,5	0,607900
13,183667	0,5	0,592500
13,192000	0,5	0,578100
13,200333	0,5	0,559200
13,208667	0,5	0,553700
13,217000	0,5	0,554600
13,225333	0,5	0,553750
13,233667	0,5	0,552950
13,242000	0,5	0,550300
13,250333	0,5	0,547200
13,258667	0,5	0,544850
13,267000	0,5	0,538800
13,275333	0,5	0,536600
13,283667	0,5	0,529750
13,292000	0,5	0,524950
13,300333	0,5	0,522200
13,308667	0,5	0,512000
13,317000	0,5	0,514200
13,325333	0,5	0,511350
13,333667	0,5	0,511950
13,342000	0,5	0,503100
13,350333	0,5	0,493100
13,358667	0,5	0,489200
13,367000	0,5	0,487600
13,375333	0,5	0,475100
13,383667	0,5	0,470250
13,392000	0,5	0,457800
13,400333	0,5	0,450850
13,408667	0,5	0,442300
13,417000	0,5	0,437650
13,425333	0,5	0,430100
13,433667	0,5	0,419850
13,442000	0,5	0,417000
13,450333	0,5	0,407450
13,458667	0,5	0,392050
13,467000	0,5	0,392600
13,475333	0,5	0,387650
13,483667	0,5	0,379100
13,492000	0,5	0,370850
13,500333	0,5	0,356100
13,508667	0,5	0,361350
13,517000	0,5	0,360350
13,525333	0,5	0,362000
13,533667	0,5	0,360250
13,542000	0,5	0,360700
13,550333	0,5	0,358850
13,558667	0,5	0,362750
13,567000	0,5	0,356150
13,575333	0,5	0,354600
13,583667	0,5	0,361050
13,592000	0,5	0,363000
13,600333	0,5	0,357250
13,608667	0,5	0,354400
13,617000	0,5	0,359150
13,625333	0,5	0,355550
13,633667	0,5	0,356300
13,642000	0,5	0,344050
13,650333	0,5	0,340750
13,658667	0,5	0,344850
13,667000	0,5	0,351000
13,675333	0,5	0,351750
13,683667	0,5	0,357150
13,692000	0,5	0,355950
13,700333	0,5	0,359950
13,708667	0,5	0,364500
13,717000	0,5	0,365850
13,725333	0,5	0,370100
13,733667	0,5	0,376050
13,742000	0,5	0,378350
13,750333	0,5	0,375900
13,758667	0,5	0,379100
13,767000	0,5	0,387050
13,775333	0,5	0,386900
13,783667	0,5	0,383500
13,792000	0,5	0,377250
13,800333	0,5	0,378050
13,808667	0,5	0,383950
13,817000	0,5	0,387300
13,825333	0,5	0,388300
13,833667	0,5	0,390550
13,842000	0,5	0,396850
13,850333	0,5	0,395750
13,858667	0,5	0,401200
13,867000	0,5	0,404100
13,875333	0,5	0,408000
13,883667	0,5	0,416200
13,892000	0,5	0,420850
13,900333	0,5	0,416700
13,908667	0,5	0,430800
13,917000	0,5	0,436350
13,925333	0,5	0,438350
13,933667	0,5	0,430050
13,942000	0,5	0,428300
13,950333	0,5	0,435400
13,958667	0,5	0,442750
13,967000	0,5	0,449700
13,975333	0,5	0,456800
13,983667	0,5	0,462200
13,992000	0,5	0,464650
14,000333	0,5	0,474600
14,008667	0,5	0,478450
14,017000	0,5	0,482700
14,025333	0,5	0,491400
14,033667	0,5	0,501200
14,042000	0,5	0,498050
14,050333	0,5	0,509750
14,058667	0,5	0,522650
14,067000	0,5	0,531950
14,075333	0,5	0,536500
14,083667	0,5	0,535800
14,092000	0,5	0,535850
14,100333	0,5	0,545550
14,108667	0,5	0,545400
14,117000	0,5	0,550950
14,125333	0,5	0,552800
14,133667	0,5	0,560350
14,142000	0,5	0,568950
14,150333	0,5	0,575450
14,158667	0,5	0,585200
14,167000	0,5	0,587200
14,175333	0,5	0,593450
14,183667	0,5	0,599750
14,192000	0,5	0,590350
14,200333	0,5	0,597950
14,208667	0,5	0,605700
14,217000	0,5	0,603550
14,225333	0,5	0,606250
14,233667	0,5	0,598450
14,242000	0,5	0,612600
14,250333	0,5	0,619200
14,258667	0,5	0,631300
14,267000	0,5	0,635400
14,275333	0,5	0,648200
14,283667	0,5	0,653750
14,292000	0,5	0,668200
14,300333	0,5	0,675900
14,308667	0,5	0,684900
14,317000	0,5	0,697950
14,325333	0,5	0,709450
14,333667	0,5	0,722600
14,342000	0,5	0,725800
14,350333	0,5	0,751100
14,358667	0,5	0,758450
14,367000	0,5	0,773800
14,375333	0,5	0,775500
14,383667	0,5	0,781850
14,392000	0,5	0,800750
14,400333	0,5	0,819400
14,408667	0,5	0,829950
14,417000	0,5	0,848600
14,425333	0,5	0,861950
14,433667	0,5	0,883550
14,442000	0,5	0,898550
14,450333	0,5	0,917750
14,458667	0,5	0,933050
14,467000	0,5	0,953200
14,475333	0,5	0,974250
14,483667	0,5	0,990050
14,492000	0,5	1,003400
14,500333	0,5	1,032700
14,508667	0,5	1,051500
14,517000	0,5	1,071600
14,525333	0,5	1,087850
14,533667	0,5	1,105200
14,542000	0,5	1,142050
14,550333	0,5	1,167850
14,558667	0,5	1,205200
14,567000	0,5	1,234800
14,575333	0,5	1,274800
14,583667	0,5	1,303850
14,592000	0,5	1,336200
14,600333	0,5	1,356650
14,608667	0,5	1,367800
14,617000	0,5	1,381700
14,625333	0,5	1,382800
14,633667	0,5	1,369450
14,642000	0,5	1,368000
14,650333	0,5	1,371350
14,658667	0,5	1,370000
14,667000	0,5	1,371200
14,675333	0,5	1,370300
14,683667	0,5	1,387600
14,692000	0,5	1,396250
14,700333	0,5	1,410800
14,708667	0,5	1,411300
14,717000	0,5	1,419800
14,725333	0,5	1,423450
14,733667	0,5	1,435750
14,742000	0,5	1,439450
14,750333	0,5	1,442700
14,758667	0,5	1,443600
14,767000	0,5	1,451400
14,775333	0,5	1,449550
14,783667	0,5	1,446150
14,792000	0,5	1,464100
14,800333	0,5	1,489150
14,808667	0,5	1,509800
14,817000	0,5	1,527200
14,825333	0,5	1,540650
14,833667	0,5	1,540200
14,842000	0,5	1,536500
14,850333	0,5	1,507550
14,858667	0,5	1,481600
14,867000	0,5	1,448700
14,875333	0,5	1,430350
14,883667	0,5	1,411800
14,892000	0,5	1,407100
14,900333	0,5	1,401200
14,908667	0,5	1,405800
14,917000	0,5	1,412600
14,925333	0,5	1,402850
14,933667	0,5	1,384650
14,942000	0,5	1,372450
14,950333	0,5	1,340900
14,958667	0,5	1,307400
14,967000	0,5	1,268900
14,975333	0,5	1,244300
14,983667	0,5	1,230100
14,992000	0,5	1,216200
15,000333	0,5	1,206500
15,008667	0,5	1,200700
15,017000	0,5	1,201200
15,025333	0,5	1,197000
15,033667	0,5	1,199400
15,042000	0,5	1,196200
15,050333	0,5	1,194400
15,058667	0,5	1,191600
15,067000	0,5	1,192950
15,075333	0,5	1,167900
15,083667	0,5	1,168500
15,092000	0,5	1,165400
15,100333	0,5	1,159300
15,108667	0,5	1,146550
15,117000	0,5	1,129400
15,125333	0,5	1,126600
15,133667	0,5	1,123700
15,142000	0,5	1,117050
15,150333	0,5	1,113700
15,158667	0,5	1,106500
15,167000	0,5	1,104350
15,175333	0,5	1,096750
15,183667	0,5	1,085700
15,192000	0,5	1,082500
15,200333	0,5	1,070350
15,208667	0,5	1,072450
15,217000	0,5	1,067550
15,225333	0,5	1,046200
15,233667	0,5	1,050150
15,242000	0,5	1,046300
15,250333	0,5	1,041400
15,258667	0,5	1,030900
15,267000	0,5	1,009900
15,275333	0,5	1,013500
15,283667	0,5	1,003850
15,292000	0,5	1,013450
15,300333	0,5	1,002400
15,308667	0,5	1,003050
15,317000	0,5	0,999700
15,325333	0,5	0,999400
15,333667	0,5	0,994950
15,342000	0,5	0,989950
15,350333	0,5	0,988650
15,358667	0,5	0,985850
15,367000	0,5	0,987450
15,375333	0,5	0,976100
15,383667	0,5	0,985350
15,392000	0,5	0,980600
15,400333	0,5	0,979700
15,408667	0,5	0,966750
15,417000	0,5	0,962050
15,425333	0,5	0,964750
15,433667	0,5	0,973050
15,442000	0,5	0,967400
15,450333	0,5	0,970300
15,458667	0,5	0,959050
15,467000	0,5	0,961250
15,475333	0,5	0,958700
15,483667	0,5	0,955900
15,492000	0,5	0,949050
15,500333	0,5	0,930200
15,508667	0,5	0,924500
15,517000	0,5	0,908150
15,525333	0,5	0,897700
15,533667	0,5	0,895050
15,542000	0,5	0,884950
15,550333	0,5	0,872350
15,558667	0,5	0,852800
15,567000	0,5	0,839700
15,575333	0,5	0,839800
15,583667	0,5	0,836800
15,592000	0,5	0,845850
15,600333	0,5	0,843000
15,608667	0,5	0,844250
15,617000	0,5	0,837000
15,625333	0,5	0,826550
15,633667	0,5	0,808900
15,642000	0,5	0,797700
15,650333	0,5	0,791800
15,658667	0,5	0,781100
15,667000	0,5	0,764400
15,675333	0,5	0,769200
15,683667	0,5	0,767650
15,692000	0,5	0,758600
15,700333	0,5	0,746650
15,708667	0,5	0,728350
15,717000	0,5	0,728700
15,725333	0,5	0,724300
15,733667	0,5	0,722850
15,742000	0,5	0,716100
15,750333	0,5	0,716100
15,758667	0,5	0,713250
15,767000	0,5	0,716250
15,775333	0,5	0,710450
15,783667	0,5	0,711500
15,792000	0,5	0,710000
15,800333	0,5	0,711250
15,808667	0,5	0,699050
15,817000	0,5	0,700900
15,825333	0,5	0,702400
15,833667	0,5	0,703850
15,842000	0,5	0,694850
15,850333	0,5	0,684200
15,858667	0,5	0,671500
15,867000	0,5	0,669600
15,875333	0,5	0,668600
15,883667	0,5	0,664650
15,892000	0,5	0,665850
15,900333	0,5	0,663650
15,908667	0,5	0,663250
15,917000	0,5	0,656450
15,925333	0,5	0,653250
15,933667	0,5	0,644200
15,942000	0,5	0,633450
15,950333	0,5	0,632300
15,958667	0,5	0,617450
15,967000	0,5	0,617350
15,975333	0,5	0,620500
15,983667	0,5	0,619100
15,992000	0,5	0,610400
16,000333	0,5	0,588550
16,008667	0,5	0,591750
16,017000	0,5	0,597350
16,025333	0,5	0,589100
16,033667	0,5	0,591250
16,042000	0,5	0,586450
16,050333	0,5	0,588700
16,058667	0,5	0,586300
16,067000	0,5	0,586300
16,075333	0,5	0,578400
16,083667	0,5	0,576100
16,092000	0,5	0,572450
16,100333	0,5	0,574800
16,108667	0,5	0,545800
16,117000	0,5	0,553400
16,125333	0,5	0,546400
16,133667	0,5	0,536300
16,142000	0,5	0,516550
16,150333	0,5	0,492450
16,158667	0,5	0,492100
16,167000	0,5	0,487700
16,175333	0,5	0,479900
16,183667	0,5	0,474400
16,192000	0,5	0,470000
16,200333	0,5	0,472900
16,208667	0,5	0,475200
16,217000	0,5	0,469400
16,225333	0,5	0,463450
16,233667	0,5	0,462750
16,242000	0,5	0,468400
16,250333	0,5	0,461600
16,258667	0,5	0,452850
16,267000	0,5	0,461200
16,275333	0,5	0,460450
16,283667	0,5	0,453600
16,292000	0,5	0,449250
16,300333	0,5	0,433150
16,308667	0,5	0,437900
16,317000	0,5	0,436100
16,325333	0,5	0,437800
16,333667	0,5	0,430050
16,342000	0,5	0,425700
16,350333	0,5	0,420200
16,358667	0,5	0,413600
16,367000	0,5	0,406800
16,375333	0,5	0,397500
16,383667	0,5	0,390550
16,392000	0,5	0,385650
16,400333	0,5	0,369400
16,408667	0,5	0,362700
16,417000	0,5	0,364200
16,425333	0,5	0,352600
16,433667	0,5	0,340250
16,442000	0,5	0,318550
16,450333	0,5	0,308150
16,458667	0,5	0,310100
16,467000	0,5	0,307050
16,475333	0,5	0,302700
16,483667	0,5	0,301900
16,492000	0,5	0,297250
16,500333	0,5	0,297750
16,508667	0,5	0,295000
16,517000	0,5	0,297650
16,525333	0,5	0,298800
16,533667	0,5	0,293950
16,542000	0,5	0,295350
16,550333	0,5	0,285500
16,558667	0,5	0,297850
16,567000	0,5	0,303950
16,575333	0,5	0,304250
16,583667	0,5	0,293750
16,592000	0,5	0,279200
16,600333	0,5	0,271000
16,608667	0,5	0,273100
16,617000	0,5	0,263900
16,625333	0,5	0,260500
16,633667	0,5	0,245100
16,642000	0,5	0,240850
16,650333	0,5	0,228400
16,658667	0,5	0,220450
16,667000	0,5	0,207700
16,675333	0,5	0,201750
16,683667	0,5	0,203650
16,692000	0,5	0,191700
16,700333	0,5	0,184600
16,708667	0,5	0,188550
16,717000	0,5	0,189600
16,725333	0,5	0,176000
16,733667	0,5	0,164500
16,742000	0,5	0,153350
16,750333	0,5	0,157800
16,758667	0,5	0,148350
16,767000	0,5	0,153650
16,775333	0,5	0,152300
16,783667	0,5	0,156250
16,792000	0,5	0,155500
16,800333	0,5	0,159050
16,808667	0,5	0,160550
16,817000	0,5	0,163100
16,825333	0,5	0,163850
16,833667	0,5	0,169850
16,842000	0,5	0,153850
16,850333	0,5	0,165150
16,858667	0,5	0,167650
16,867000	0,5	0,162000
16,875333	0,5	0,157000
16,883667	0,5	0,134300
16,892000	0,5	0,137150
16,900333	0,5	0,128400
16,908667	0,5	0,128850
16,917000	0,5	0,120000
16,925333	0,5	0,119200
16,933667	0,5	0,110150
16,942000	0,5	0,110200
16,950333	0,5	0,101750
16,958667	0,5	0,092950
16,967000	0,5	0,080000
16,975333	0,5	0,076250
16,983667	0,5	0,070500
16,992000	0,5	0,052950
17,000333	0,5	0,064250
17,008667	0,5	0,064850
17,017000	0,5	0,063050
17,025333	0,5	0,059850
17,033667	0,5	0,042400
17,042000	0,5	0,047750
17,050333	0,5	0,050250
17,058667	0,5	0,046350
17,067000	0,5	0,046350
17,075333	0,5	0,046050
17,083667	0,5	0,044400
17,092000	0,5	0,037900
17,100333	0,5	0,040550
17,108667	0,5	0,035600
17,117000	0,5	0,041800
17,125333	0,5	0,052450
17,133667	0,5	0,075100
17,142000	0,5	0,087850
17,150333	0,5	0,136250
17,158667	0,5	0,169500
17,167000	0,5	0,210350
17,175333	0,5	0,237050
17,183667	0,5	0,258100
17,192000	0,5	0,285450
17,200333	0,5	0,284650
17,208667	0,5	0,269100
17,217000	0,5	0,237400
17,225333	0,5	0,203800
17,233667	0,5	0,155850
17,242000	0,5	0,122600
17,250333	0,5	0,083850
17,258667	0,5	0,057250
17,267000	0,5	0,029650
17,275333	0,5	0,019400
17,283667	0,5	-0,002500
17,292000	0,5	-0,006900
17,300333	0,5	-0,005600
17,308667	0,5	-0,004150
17,317000	0,5	-0,011350
17,325333	0,5	-0,017100
17,333667	0,5	-0,015050
17,342000	0,5	0,005500
17,350333	0,5	0,014400
17,358667	0,5	0,033750
17,367000	0,5	0,054550
17,375333	0,5	0,074900
17,383667	0,5	0,094750
17,392000	0,5	0,108700
17,400333	0,5	0,126050
17,408667	0,5	0,136850
17,417000	0,5	0,161950
17,425333	0,5	0,180950
17,433667	0,5	0,183600
17,442000	0,5	0,200050
17,450333	0,5	0,219400
17,458667	0,5	0,222200
17,467000	0,5	0,220600
17,475333	0,5	0,206600
17,483667	0,5	0,208750
17,492000	0,5	0,206550
17,500333	0,5	0,208200
17,508667	0,5	0,196650
17,517000	0,5	0,191150
17,525333	0,5	0,181150
17,533667	0,5	0,177050
17,542000	0,5	0,169400
17,550333	0,5	0,164650
17,558667	0,5	0,161600
17,567000	0,5	0,163700
17,575333	0,5	0,157050
17,583667	0,5	0,152700
17,592000	0,5	0,161550
17,600333	0,5	0,165100
17,608667	0,5	0,168800
17,617000	0,5	0,161300
17,625333	0,5	0,161750
17,633667	0,5	0,167500
17,642000	0,5	0,176500
17,650333	0,5	0,168750
17,658667	0,5	0,167450
17,667000	0,5	0,156900
17,675333	0,5	0,153700
17,683667	0,5	0,147450
17,692000	0,5	0,141350
17,700333	0,5	0,141550
17,708667	0,5	0,145250
17,717000	0,5	0,151100
17,725333	0,5	0,148150
17,733667	0,5	0,158950
17,742000	0,5	0,183050
17,750333	0,5	0,203600
17,758667	0,5	0,237950
17,767000	0,5	0,289050
17,775333	0,5	0,379150
17,783667	0,5	0,527100
17,792000	0,5	0,698350
17,800333	0,5	0,907700
17,808667	0,5	1,110000
17,817000	0,5	1,286600
17,825333	0,5	1,383750
17,833667	0,5	1,393050
17,842000	0,5	1,304250
17,850333	0,5	1,138600
17,858667	0,5	0,939700
17,867000	0,5	0,727650
17,875333	0,5	0,506500
17,883667	0,5	0,348700
17,892000	0,5	0,223800
17,900333	0,5	0,121400
17,908667	0,5	0,051450
17,917000	0,5	-0,015150
17,925333	0,5	-0,040550
17,933667	0,5	-0,073100
17,942000	0,5	-0,084550
17,950333	0,5	-0,109150
17,958667	0,5	-0,116900
17,967000	0,5	-0,129600
17,975333	0,5	-0,134450
17,983667	0,5	-0,145850
17,992000	0,5	-0,152350
18,000333	0,5	-0,159350
18,008667	0,5	-0,155350
18,017000	0,5	-0,162350
18,025333	0,5	-0,169150
18,033667	0,5	-0,164900
18,042000	0,5	-0,167050
18,050333	0,5	-0,173100
18,058667	0,5	-0,189650
18,067000	0,5	-0,201850
18,075333	0,5	-0,204650
18,083667	0,5	-0,210400
18,092000	0,5	-0,227350
18,100333	0,5	-0,233450
18,108667	0,5	-0,246100
18,117000	0,5	-0,257600
18,125333	0,5	-0,269200
18,133667	0,5	-0,277050
18,142000	0,5	-0,291950
18,150333	0,5	-0,294750
18,158667	0,5	-0,301550
18,167000	0,5	-0,316700
18,175333	0,5	-0,326950
18,183667	0,5	-0,330850
18,192000	0,5	-0,341600
18,200333	0,5	-0,353350
18,208667	0,5	-0,379100
18,217000	0,5	-0,386850
18,225333	0,5	-0,381200
18,233667	0,5	-0,395750
18,242000	0,5	-0,400200
18,250333	0,5	-0,411150
18,258667	0,5	-0,412600
18,267000	0,5	-0,418700
18,275333	0,5	-0,422550
18,283667	0,5	-0,435300
18,292000	0,5	-0,437650
18,300333	0,5	-0,442750
18,308667	0,5	-0,444300
18,317000	0,5	-0,464950
18,325333	0,5	-0,463250
18,333667	0,5	-0,475550
18,342000	0,5	-0,481400
18,350333	0,5	-0,501800
18,358667	0,5	-0,524100
18,367000	0,5	-0,526800
18,375333	0,5	-0,532600
18,383667	0,5	-0,539050
18,392000	0,5	-0,546750
18,400333	0,5	-0,552500
18,408667	0,5	-0,561700
18,417000	0,5	-0,563450
18,425333	0,5	-0,570650
18,433667	0,5	-0,575400
18,442000	0,5	-0,578950
18,450333	0,5	-0,573250
18,458667	0,5	-0,581650
18,467000	0,5	-0,596000
18,475333	0,5	-0,597000
18,483667	0,5	-0,603000
18,492000	0,5	-0,614600
18,500333	0,5	-0,635850
18,508667	0,5	-0,651250
18,517000	0,5	-0,655500
18,525333	0,5	-0,664400
18,533667	0,5	-0,667700
18,542000	0,5	-0,675650
18,550333	0,5	-0,680950
18,558667	0,5	-0,690100
18,567000	0,5	-0,696050
18,575333	0,5	-0,696000
18,583667	0,5	-0,703500
18,592000	0,5	-0,692150
18,600333	0,5	-0,694350
18,608667	0,5	-0,702250
18,617000	0,5	-0,706100
18,625333	0,5	-0,696750
18,633667	0,5	-0,709500
18,642000	0,5	-0,712000
18,650333	0,5	-0,735600
18,658667	0,5	-0,747100
18,667000	0,5	-0,750150
18,675333	0,5	-0,747950
18,683667	0,5	-0,751900
18,692000	0,5	-0,752250
18,700333	0,5	-0,756350
18,708667	0,5	-0,750800
18,717000	0,5	-0,747850
18,725333	0,5	-0,751350
18,733667	0,5	-0,745500
18,742000	0,5	-0,729600
18,750333	0,5	-0,723000
18,758667	0,5	-0,728500
18,767000	0,5	-0,706950
18,775333	0,5	-0,695400
18,783667	0,5	-0,685550
18,792000	0,5	-0,683250
18,800333	0,5	-0,684950
18,808667	0,5	-0,667250
18,817000	0,5	-0,644500
18,825333	0,5	-0,634300
18,833667	0,5	-0,615350
18,842000	0,5	-0,606900
18,850333	0,5	-0,590700
18,858667	0,5	-0,577200
18,867000	0,5	-0,567100
18,875333	0,5	-0,562150
18,883667	0,5	-0,554950
18,892000	0,5	-0,538350
18,900333	0,5	-0,547250
18,908667	0,5	-0,553600
18,917000	0,5	-0,549150
18,925333	0,5	-0,556150
18,933667	0,5	-0,569350
18,942000	0,5	-0,589900
18,950333	0,5	-0,605950
18,958667	0,5	-0,607550
18,967000	0,5	-0,625600
18,975333	0,5	-0,633250
18,983667	0,5	-0,645900
18,992000	0,5	-0,653600
19,000333	0,5	-0,665450
19,008667	0,5	-0,669650
19,017000	0,5	-0,677850
19,025333	0,5	-0,691700
19,033667	0,5	-0,697650
19,042000	0,5	-0,704950
19,050333	0,5	-0,739000
19,058667	0,5	-0,737000
19,067000	0,5	-0,744800
19,075333	0,5	-0,755900
19,083667	0,5	-0,777050
19,092000	0,5	-0,812500
19,100333	0,5	-0,814550
19,108667	0,5	-0,826350
19,117000	0,5	-0,834800
19,125333	0,5	-0,852100
19,133667	0,5	-0,859950
19,142000	0,5	-0,874050
19,150333	0,5	-0,885350
19,158667	0,5	-0,898850
19,167000	0,5	-0,910850
19,175333	0,5	-0,919150
19,183667	0,5	-0,921950
19,192000	0,5	-0,923300
19,200333	0,5	-0,939800
19,208667	0,5	-0,926250
19,217000	0,5	-0,928450
19,225333	0,5	-0,925950
19,233667	0,5	-0,927550
19,242000	0,5	-0,932300
19,250333	0,5	-0,909350
19,258667	0,5	-0,887650
19,267000	0,5	-0,884800
19,275333	0,5	-0,875500
19,283667	0,5	-0,872000
19,292000	0,5	-0,867900
19,300333	0,5	-0,882500
19,308667	0,5	-0,890400
19,317000	0,5	-0,908750
19,325333	0,5	-0,924200
19,333667	0,5	-0,924900
19,342000	0,5	-0,940650
19,350333	0,5	-0,958150
19,358667	0,5	-0,945700
19,367000	0,5	-0,949250
19,375333	0,5	-0,947550
19,383667	0,5	-0,953450
19,392000	0,5	-0,962300
19,400333	0,5	-0,955500
19,408667	0,5	-0,961100
19,417000	0,5	-0,959100
19,425333	0,5	-0,967750
19,433667	0,5	-0,968100
19,442000	0,5	-0,977850
19,450333	0,5	-0,982350
19,458667	0,5	-0,997350
19,467000	0,5	-1,009650
19,475333	0,5	-1,014750
19,483667	0,5	-1,031750
19,492000	0,5	-1,063950
19,500333	0,5	-1,082950
19,508667	0,5	-1,101850
19,517000	0,5	-1,127000
19,525333	0,5	-1,156550
19,533667	0,5	-1,187950
19,542000	0,5	-1,197700
19,550333	0,5	-1,204750
19,558667	0,5	-1,206950
19,567000	0,5	-1,217650
19,575333	0,5	-1,217950
19,583667	0,5	-1,222500
19,592000	0,5	-1,220950
19,600333	0,5	-1,226050
19,608667	0,5	-1,225600
19,617000	0,5	-1,228150
19,625333	0,5	-1,213950
19,633667	0,5	-1,219750
19,642000	0,5	-1,224100
19,650333	0,5	-1,220400
19,658667	0,5	-1,214400
19,667000	0,5	-1,214150
19,675333	0,5	-1,225350
19,683667	0,5	-1,229700
19,692000	0,5	-1,226200
19,700333	0,5	-1,217050
19,708667	0,5	-1,213350
19,717000	0,5	-1,196950
19,725333	0,5	-1,182250
19,733667	0,5	-1,167450
19,742000	0,5	-1,162900
19,750333	0,5	-1,171650
19,758667	0,5	-1,201700
19,767000	0,5	-1,224600
19,775333	0,5	-1,253250
19,783667	0,5	-1,296700
19,792000	0,5	-1,320800
19,800333	0,5	-1,332200
19,808667	0,5	-1,348250
19,817000	0,5	-1,364450
19,825333	0,5	-1,394300
19,833667	0,5	-1,397800
19,842000	0,5	-1,396800
19,850333	0,5	-1,399550
19,858667	0,5	-1,405150
19,867000	0,5	-1,408000
19,875333	0,5	-1,408650
19,883667	0,5	-1,413000
19,892000	0,5	-1,412450
19,900333	0,5	-1,421300
19,908667	0,5	-1,413600
19,917000	0,5	-1,394200
19,925333	0,5	-1,381100
19,933667	0,5	-1,390900
19,942000	0,5	-1,361550
19,950333	0,5	-1,351100
19,958667	0,5	-1,347250
19,967000	0,5	-1,363650
19,975333	0,5	-1,394850
19,983667	0,5	-1,409600
19,992000	0,5	-1,428650
20,000333	0,5	-1,455200
20,008667	0,5	-1,472850
20,017000	0,5	-1,488550
20,025333	0,5	-1,500500
20,033667	0,5	-1,506000
20,042000	0,5	-1,520950
20,050333	0,5	-1,529050
20,058667	0,5	-1,539100
20,067000	0,5	-1,535600
20,075333	0,5	-1,543950
20,083667	0,5	-1,554950
20,092000	0,5	-1,553000
20,100333	0,5	-1,554500
20,108667	0,5	-1,566050
20,117000	0,5	-1,579050
20,125333	0,5	-1,595500
20,133667	0,5	-1,584150
20,142000	0,5	-1,579800
20,150333	0,5	-1,564550
20,158667	0,5	-1,551000
20,167000	0,5	-1,530450
20,175333	0,5	-1,508100
20,183667	0,5	-1,486250
20,192000	0,5	-1,463150
20,200333	0,5	-1,444200
20,208667	0,5	-1,415200
20,217000	0,5	-1,399200
20,225333	0,5	-1,412600
20,233667	0,5	-1,431750
20,242000	0,5	-1,453450
20,250333	0,5	-1,482350
20,258667	0,5	-1,513150
20,267000	0,5	-1,538550
20,275333	0,5	-1,534800
20,283667	0,5	-1,529700
20,292000	0,5	-1,519650
20,300333	0,5	-1,525050
20,308667	0,5	-1,522000
20,317000	0,5	-1,530350
20,325333	0,5	-1,539050
20,333667	0,5	-1,547400
20,342000	0,5	-1,558450
20,350333	0,5	-1,559000
20,358667	0,5	-1,557250
20,367000	0,5	-1,551400
20,375333	0,5	-1,562150
20,383667	0,5	-1,544700
20,392000	0,5	-1,548550
20,400333	0,5	-1,559600
20,408667	0,5	-1,589300
20,417000	0,5	-1,620600
20,425333	0,5	-1,632050
20,433667	0,5	-1,633200
20,442000	0,5	-1,640400
20,450333	0,5	-1,633600
20,458667	0,5	-1,629200
20,467000	0,5	-1,617150
20,475333	0,5	-1,610000
20,483667	0,5	-1,603950
20,492000	0,5	-1,596050
20,500333	0,5	-1,585400
20,508667	0,5	-1,561700
20,517000	0,5	-1,552850
20,525333	0,5	-1,555450
20,533667	0,5	-1,548750
20,542000	0,5	-1,554100
20,550333	0,5	-1,551850
20,558667	0,5	-1,551150
20,567000	0,5	-1,541750
20,575333	0,5	-1,507150
20,583667	0,5	-1,485300
20,592000	0,5	-1,465900
20,600333	0,5	-1,467000
20,608667	0,5	-1,476500
20,617000	0,5	-1,502450
20,625333	0,5	-1,524750
20,633667	0,5	-1,546200
20,642000	0,5	-1,571450
20,650333	0,5	-1,562950
20,658667	0,5	-1,564550
20,667000	0,5	-1,582600
20,675333	0,5	-1,587550
20,683667	0,5	-1,585200
20,692000	0,5	-1,598250
20,700333	0,5	-1,606500
20,708667	0,5	-1,624100
20,717000	0,5	-1,622150
20,725333	0,5	-1,632050
20,733667	0,5	-1,624800
20,742000	0,5	-1,636000
20,750333	0,5	-1,632250
20,758667	0,5	-1,639400
20,767000	0,5	-1,639350
20,775333	0,5	-1,647700
20,783667	0,5	-1,656000
20,792000	0,5	-1,654100
20,800333	0,5	-1,634350
20,808667	0,5	-1,631850
20,817000	0,5	-1,639850
20,825333	0,5	-1,638750
20,833667	0,5	-1,636000
20,842000	0,5	-1,641100
20,850333	0,5	-1,658000
20,858667	0,5	-1,653000
20,867000	0,5	-1,655800
20,875333	0,5	-1,652200
20,883667	0,5	-1,666550
20,892000	0,5	-1,663300
20,900333	0,5	-1,667750
20,908667	0,5	-1,660650
20,917000	0,5	-1,659700
20,925333	0,5	-1,663250
20,933667	0,5	-1,665300
20,942000	0,5	-1,651250
20,950333	0,5	-1,637050
20,958667	0,5	-1,636700
20,967000	0,5	-1,639550
20,975333	0,5	-1,639450
20,983667	0,5	-1,645250
20,992000	0,5	-1,647900
21,000333	0,5	-1,663300
21,008667	0,5	-1,656300
21,017000	0,5	-1,647300
21,025333	0,5	-1,653700
21,033667	0,5	-1,645500
21,042000	0,5	-1,650300
21,050333	0,5	-1,645200
21,058667	0,5	-1,645950
21,067000	0,5	-1,646950
21,075333	0,5	-1,644300
21,083667	0,5	-1,641000
21,092000	0,5	-1,607200
21,100333	0,5	-1,591950
21,108667	0,5	-1,598800
21,117000	0,5	-1,594700
21,125333	0,5	-1,597200
21,133667	0,5	-1,612200
21,142000	0,5	-1,624350
21,150333	0,5	-1,642700
21,158667	0,5	-1,626800
21,167000	0,5	-1,636900
21,175333	0,5	-1,629200
21,183667	0,5	-1,632400
21,192000	0,5	-1,623650
21,200333	0,5	-1,620900
21,208667	0,5	-1,614850
21,217000	0,5	-1,605200
21,225333	0,5	-1,600900
21,233667	0,5	-1,577350
21,242000	0,5	-1,544750
21,250333	0,5	-1,535050
21,258667	0,5	-1,538650
21,267000	0,5	-1,538100
21,275333	0,5	-1,545050
21,283667	0,5	-1,557400
21,292000	0,5	-1,572900
21,300333	0,5	-1,566250
21,308667	0,5	-1,561200
21,317000	0,5	-1,551500
21,325333	0,5	-1,548800
21,333667	0,5	-1,536100
21,342000	0,5	-1,533000
21,350333	0,5	-1,521100
21,358667	0,5	-1,513800
21,367000	0,5	-1,506750
21,375333	0,5	-1,499550
21,383667	0,5	-1,470700
21,392000	0,5	-1,456000
21,400333	0,5	-1,453650
21,408667	0,5	-1,451800
21,417000	0,5	-1,453300
21,425333	0,5	-1,452750
21,433667	0,5	-1,460750
21,442000	0,5	-1,456200
21,450333	0,5	-1,443200
21,458667	0,5	-1,417150
21,467000	0,5	-1,407800
21,475333	0,5	-1,396750
21,483667	0,5	-1,400150
21,492000	0,5	-1,396350
21,500333	0,5	-1,400200
21,508667	0,5	-1,396300
21,517000	0,5	-1,389550
21,525333	0,5	-1,376050
21,533667	0,5	-1,342600
21,542000	0,5	-1,320250
21,550333	0,5	-1,314150
21,558667	0,5	-1,297900
21,567000	0,5	-1,285650
21,575333	0,5	-1,270650
21,583667	0,5	-1,236700
21,592000	0,5	-1,187150
21,600333	0,5	-1,113900
21,608667	0,5	-1,054200
21,617000	0,5	-1,006800
21,625333	0,5	-0,997000
21,633667	0,5	-1,005900
21,642000	0,5	-1,042100
21,650333	0,5	-1,072650
21,658667	0,5	-1,094950
21,667000	0,5	-1,103800
21,675333	0,5	-1,076600
21,683667	0,5	-1,057850
21,692000	0,5	-1,061500
21,700333	0,5	-1,064500
21,708667	0,5	-1,065850
21,717000	0,5	-1,079550
21,725333	0,5	-1,089000
21,733667	0,5	-1,099050
21,742000	0,5	-1,083000
21,750333	0,5	-1,076350
21,758667	0,5	-1,053800
21,767000	0,5	-1,039800
21,775333	0,5	-1,012950
21,783667	0,5	-0,993300
21,792000	0,5	-0,959950
21,800333	0,5	-0,932950
21,808667	0,5	-0,907850
21,817000	0,5	-0,878050
21,825333	0,5	-0,836500
21,833667	0,5	-0,815700
21,842000	0,5	-0,802050
21,850333	0,5	-0,782300
21,858667	0,5	-0,759050
21,867000	0,5	-0,730850
21,875333	0,5	-0,726450
21,883667	0,5	-0,702250
21,892000	0,5	-0,696450
21,900333	0,5	-0,682150
21,908667	0,5	-0,672900
21,917000	0,5	-0,655900
21,925333	0,5	-0,645250
21,933667	0,5	-0,627900
21,942000	0,5	-0,611900
21,950333	0,5	-0,593650
21,958667	0,5	-0,573350
21,967000	0,5	-0,541000
21,975333	0,5	-0,508000
21,983667	0,5	-0,504750
21,992000	0,5	-0,473350
22,000333	0,5	-0,450350
22,008667	0,5	-0,426600
22,017000	0,5	-0,405300
22,025333	0,5	-0,388850
22,033667	0,5	-0,347450
22,042000	0,5	-0,311650
22,050333	0,5	-0,288450
22,058667	0,5	-0,258850
22,067000	0,5	-0,236850
22,075333	0,5	-0,207650
22,083667	0,5	-0,180950
22,092000	0,5	-0,144700
22,100333	0,5	-0,115350
22,108667	0,5	-0,076600
22,117000	0,5	-0,014150
22,125333	0,5	0,029650
22,133667	0,5	0,076000
22,142000	0,5	0,122550
22,150333	0,5	0,162200
22,158667	0,5	0,174850
22,167000	0,5	0,203150
22,175333	0,5	0,232350
22,183667	0,5	0,285600
22,192000	0,5	0,325050
22,200333	0,5	0,368000
22,208667	0,5	0,407350
22,217000	0,5	0,457850
22,225333	0,5	0,501550
22,233667	0,5	0,555250
22,242000	0,5	0,599700
22,250333	0,5	0,640700
22,258667	0,5	0,681650
22,267000	0,5	0,725550
22,275333	0,5	0,776600
22,283667	0,5	0,848450
22,292000	0,5	0,911750
22,300333	0,5	0,970000
22,308667	0,5	1,009700
22,317000	0,5	1,026400
22,325333	0,5	1,070400
22,333667	0,5	1,105200
22,342000	0,5	1,154200
22,350333	0,5	1,194800
22,358667	0,5	1,246250
22,367000	0,5	1,294650
22,375333	0,5	1,348100
22,383667	0,5	1,401250
22,392000	0,5	1,454200
22,400333	0,5	1,507350
22,408667	0,5	1,539750
22,417000	0,5	1,602450
22,425333	0,5	1,667200
22,433667	0,5	1,748500
22,442000	0,5	1,812700
22,450333	0,5	1,887800
22,458667	0,5	1,953800
22,467000	0,5	2,027800
22,475333	0,5	2,101250
22,483667	0,5	2,176250
22,492000	0,5	2,234450
22,500333	0,5	2,306450
22,508667	0,5	2,369550
22,517000	0,5	2,441450
22,525333	0,5	2,509850
22,533667	0,5	2,582700
22,542000	0,5	2,652500
22,550333	0,5	2,706350
22,558667	0,5	2,765400
22,567000	0,5	2,832500
22,575333	0,5	2,912900
22,583667	0,5	2,978800
22,592000	0,5	3,026650
22,600333	0,5	3,069350
22,608667	0,5	3,106950
22,617000	0,5	3,146450
22,625333	0,5	3,195800
22,633667	0,5	3,235550
22,642000	0,5	3,278800
22,650333	0,5	3,306350
22,658667	0,5	3,343350
22,667000	0,5	3,362050
22,675333	0,5	3,375100
22,683667	0,5	3,372650
22,692000	0,5	3,359450
22,700333	0,5	3,307500
22,708667	0,5	3,282100
22,717000	0,5	3,262100
22,725333	0,5	3,223100
22,733667	0,5	3,166150
22,742000	0,5	3,096750
22,750333	0,5	3,017600
22,758667	0,5	2,930150
22,767000	0,5	2,856900
22,775333	0,5	2,756500
22,783667	0,5	2,651650
22,792000	0,5	2,531800
22,800333	0,5	2,409700
22,808667	0,5	2,281250
22,817000	0,5	2,153150
22,825333	0,5	2,013450
22,833667	0,5	1,862900
22,842000	0,5	1,701550
22,850333	0,5	1,518100
22,858667	0,5	1,363450
22,867000	0,5	1,231900
22,875333	0,5	1,060050
22,883667	0,5	0,888750
22,892000	0,5	0,716950
22,900333	0,5	0,556450
22,908667	0,5	0,381500
22,917000	0,5	0,216400
22,925333	0,5	0,053250
22,933667	0,5	-0,100800
22,942000	0,5	-0,256950
22,950333	0,5	-0,404050
22,958667	0,5	-0,554950
22,967000	0,5	-0,696900
22,975333	0,5	-0,842100
22,983667	0,5	-0,984500
22,992000	0,5	-1,100250
23,000333	0,5	-1,236600
23,008667	0,5	-1,373400
23,017000	0,5	-1,530550
23,025333	0,5	-1,648550
23,033667	0,5	-1,761550
23,042000	0,5	-1,864000
23,050333	0,5	-1,952150
23,058667	0,5	-2,051100
23,067000	0,5	-2,139150
23,075333	0,5	-2,208850
23,083667	0,5	-2,278200
23,092000	0,5	-2,335850
23,100333	0,5	-2,398850
23,108667	0,5	-2,453050
23,117000	0,5	-2,516450
23,125333	0,5	-2,565500
23,133667	0,5	-2,602000
23,142000	0,5	-2,650150
23,150333	0,5	-2,681300
23,158667	0,5	-2,739500
23,167000	0,5	-2,811500
23,175333	0,5	-2,837200
23,183667	0,5	-2,860300
23,192000	0,5	-2,874850
23,200333	0,5	-2,884400
23,208667	0,5	-2,902050
23,217000	0,5	-2,899750
23,225333	0,5	-2,896700
23,233667	0,5	-2,884650
23,242000	0,5	-2,876550
23,250333	0,5	-2,862100
23,258667	0,5	-2,858900
23,267000	0,5	-2,840600
23,275333	0,5	-2,837400
23,283667	0,5	-2,811000
23,292000	0,5	-2,812400
23,300333	0,5	-2,782850
23,308667	0,5	-2,789850
23,317000	0,5	-2,804900
23,325333	0,5	-2,796700
23,333667	0,5	-2,777300
23,342000	0,5	-2,748750
23,350333	0,5	-2,731000
23,358667	0,5	-2,707050
23,367000	0,5	-2,678650
23,375333	0,5	-2,647350
23,383667	0,5	-2,613050
23,392000	0,5	-2,580300
23,400333	0,5	-2,545350
23,408667	0,5	-2,507750
23,417000	0,5	-2,476700
23,425333	0,5	-2,441200
23,433667	0,5	-2,450050
23,442000	0,5	-2,415000
23,450333	0,5	-2,346850
23,458667	0,5	-2,330700
23,467000	0,5	-2,327900
23,475333	0,5	-2,311150
23,483667	0,5	-2,290950
23,492000	0,5	-2,266250
23,500333	0,5	-2,247100
23,508667	0,5	-2,227000
23,517000	0,5	-2,207050
23,525333	0,5	-2,182500
23,533667	0,5	-2,161700
23,542000	0,5	-2,136250
23,550333	0,5	-2,114400
23,558667	0,5	-2,093350
23,567000	0,5	-2,064450
23,575333	0,5	-2,050400
23,583667	0,5	-2,116050
23,592000	0,5	-2,064050
23,600333	0,5	-1,999750
23,608667	0,5	-1,969500
23,617000	0,5	-1,960550
23,625333	0,5	-1,950400
23,633667	0,5	-1,936450
23,642000	0,5	-1,926050
23,650333	0,5	-1,912450
23,658667	0,5	-1,899350
23,667000	0,5	-1,886100
23,675333	0,5	-1,874900
23,683667	0,5	-1,860400
23,692000	0,5	-1,852250
23,700333	0,5	-1,838750
23,708667	0,5	-1,831600
23,717000	0,5	-1,824450
23,725333	0,5	-1,900050
23,733667	0,5	-1,907350
23,742000	0,5	-1,892200
23,750333	0,5	-1,826700
23,758667	0,5	-1,806200
23,767000	0,5	-1,799100
23,775333	0,5	-1,797000
23,783667	0,5	-1,798300
23,792000	0,5	-1,786450
23,800333	0,5	-1,773850
23,808667	0,5	-1,762950
23,817000	0,5	-1,750700
23,825333	0,5	-1,736850
23,833667	0,5	-1,723400
23,842000	0,5	-1,707900
23,850333	0,5	-1,692950
23,858667	0,5	-1,677900
23,867000	0,5	-1,674700
23,875333	0,5	-1,795950
23,883667	0,5	-1,764350
23,892000	0,5	-1,740400
23,900333	0,5	-1,672650
23,908667	0,5	-1,654150
23,917000	0,5	-1,648950
23,925333	0,5	-1,646150
23,933667	0,5	-1,661500
23,942000	0,5	-1,637450
23,950333	0,5	-1,634550
23,958667	0,5	-1,622300
23,967000	0,5	-1,614050
23,975333	0,5	-1,599450
23,983667	0,5	-1,589750
23,992000	0,5	-1,576300
24,000333	0,5	-1,557650
24,008667	0,5	-1,547600
24,017000	0,5	-1,576500
24,025333	0,5	-1,658450
24,033667	0,5	-1,611850
24,042000	0,5	-1,568100
24,050333	0,5	-1,509750
24,058667	0,5	-1,491700
24,067000	0,5	-1,475800
24,075333	0,5	-1,474250
24,083667	0,5	-1,465550
24,092000	0,5	-1,449150
24,100333	0,5	-1,424700
24,108667	0,5	-1,412800
24,117000	0,5	-1,394950
24,125333	0,5	-1,381050
24,133667	0,5	-1,365150
24,142000	0,5	-1,349450
24,150333	0,5	-1,327700
24,158667	0,5	-1,318850
24,167000	0,5	-1,402550
24,175333	0,5	-1,405050
24,183667	0,5	-1,367450
24,192000	0,5	-1,328900
24,200333	0,5	-1,288600
24,208667	0,5	-1,276100
24,217000	0,5	-1,264650
24,225333	0,5	-1,262600
24,233667	0,5	-1,264900
24,242000	0,5	-1,238900
24,250333	0,5	-1,222500
24,258667	0,5	-1,200800
24,267000	0,5	-1,185300
24,275333	0,5	-1,163700
24,283667	0,5	-1,144250
24,292000	0,5	-1,120100
24,300333	0,5	-1,105950
24,308667	0,5	-1,088550
24,317000	0,5	-1,165800
24,325333	0,5	-1,127550
24,333667	0,5	-1,109100
24,342000	0,5	-1,057750
24,350333	0,5	-1,033950
24,358667	0,5	-1,018100
24,367000	0,5	-1,017750
24,375333	0,5	-1,022800
24,383667	0,5	-1,012550
24,392000	0,5	-0,998600
24,400333	0,5	-0,981850
24,408667	0,5	-0,969350
24,417000	0,5	-0,955050
24,425333	0,5	-0,944550
24,433667	0,5	-0,924200
24,442000	0,5	-0,911250
24,450333	0,5	-0,895750
24,458667	0,5	-0,905000
24,467000	0,5	-0,939900
24,475333	0,5	-0,922750
24,483667	0,5	-0,886300
24,492000	0,5	-0,853950
24,500333	0,5	-0,832450
24,508667	0,5	-0,820150
24,517000	0,5	-0,813200
24,525333	0,5	-0,809600
24,533667	0,5	-0,793900
24,542000	0,5	-0,781400
24,550333	0,5	-0,768150
24,558667	0,5	-0,753500
24,567000	0,5	-0,738750
24,575333	0,5	-0,726300
24,583667	0,5	-0,713850
24,592000	0,5	-0,699600
24,600333	0,5	-0,689750
24,608667	0,5	-0,713300
24,617000	0,5	-0,725750
24,625333	0,5	-0,710250
24,633667	0,5	-0,684500
24,642000	0,5	-0,660000
24,650333	0,5	-0,650900
24,658667	0,5	-0,645250
24,667000	0,5	-0,657100
24,675333	0,5	-0,645400
24,683667	0,5	-0,633500
24,692000	0,5	-0,622450
24,700333	0,5	-0,614800
24,708667	0,5	-0,597650
24,717000	0,5	-0,588750
24,725333	0,5	-0,574050
24,733667	0,5	-0,561900
24,742000	0,5	-0,551800
24,750333	0,5	-0,540450
24,758667	0,5	-0,566950
24,767000	0,5	-0,546050
24,775333	0,5	-0,540950
24,783667	0,5	-0,519150
24,792000	0,5	-0,503800
24,800333	0,5	-0,497300
24,808667	0,5	-0,493000
24,817000	0,5	-0,494150
24,825333	0,5	-0,488350
24,833667	0,5	-0,475650
24,842000	0,5	-0,473100
24,850333	0,5	-0,465000
24,858667	0,5	-0,464300
24,867000	0,5	-0,455550
24,875333	0,5	-0,447800
24,883667	0,5	-0,439000
24,892000	0,5	-0,430900
24,900333	0,5	-0,433750
24,908667	0,5	-0,441300
24,917000	0,5	-0,429350
24,925333	0,5	-0,418800
24,933667	0,5	-0,402200
24,942000	0,5	-0,392850
24,950333	0,5	-0,385550
24,958667	0,5	-0,382550
24,967000	0,5	-0,381700
24,975333	0,5	-0,369550
24,983667	0,5	-0,362300
24,992000	0,5	-0,357700
25,000333	0,5	-0,352900
25,008667	0,5	-0,343250
25,017000	0,5	-0,340900
25,025333	0,5	-0,333850
25,033667	0,5	-0,326750
25,042000	0,5	-0,322400
25,050333	0,5	-0,329400
25,058667	0,5	-0,324250
25,067000	0,5	-0,323800
25,075333	0,5	-0,314400
25,083667	0,5	-0,309050
25,092000	0,5	-0,304250
25,100333	0,5	-0,302050
25,108667	0,5	-0,301100
25,117000	0,5	-0,296850
25,125333	0,5	-0,292950
25,133667	0,5	-0,289850
25,142000	0,5	-0,281950
25,150333	0,5	-0,276550
25,158667	0,5	-0,269500
25,167000	0,5	-0,265550
25,175333	0,5	-0,258700
25,183667	0,5	-0,251300
25,192000	0,5	-0,248150
25,200333	0,5	-0,246700
25,208667	0,5	-0,242150
25,217000	0,5	-0,235900
25,225333	0,5	-0,231850
25,233667	0,5	-0,228300
25,242000	0,5	-0,226600
25,250333	0,5	-0,225850
25,258667	0,5	-0,227950
25,267000	0,5	-0,226000
25,275333	0,5	-0,226750
25,283667	0,5	-0,222100
25,292000	0,5	-0,220250
25,300333	0,5	-0,220750
25,308667	0,5	-0,217400
25,317000	0,5	-0,216100
25,325333	0,5	-0,213300
25,333667	0,5	-0,207850
25,342000	0,5	-0,201550
25,350333	0,5	-0,198800
25,358667	0,5	-0,197750
25,367000	0,5	-0,196100
25,375333	0,5	-0,192350
25,383667	0,5	-0,187700
25,392000	0,5	-0,183450
25,400333	0,5	-0,182800
25,408667	0,5	-0,179600
25,417000	0,5	-0,178100
25,425333	0,5	-0,177600
25,433667	0,5	-0,175500
25,442000	0,5	-0,174150
25,450333	0,5	-0,174300
25,458667	0,5	-0,172150
25,467000	0,5	-0,171600
25,475333	0,5	-0,171300
25,483667	0,5	-0,169850
25,492000	0,5	-0,167700
25,500333	0,5	-0,167200
25,508667	0,5	-0,162600
25,517000	0,5	-0,165450
25,525333	0,5	-0,165850
25,533667	0,5	-0,160050
25,542000	0,5	-0,160450
25,550333	0,5	-0,160100
25,558667	0,5	-0,153800
25,567000	0,5	-0,153400
25,575333	0,5	-0,151150
25,583667	0,5	-0,149000
25,592000	0,5	-0,144950
25,600333	0,5	-0,145450
25,608667	0,5	-0,141200
25,617000	0,5	-0,138800
25,625333	0,5	-0,140450
25,633667	0,5	-0,137400
25,642000	0,5	-0,133100
25,650333	0,5	-0,133600
25,658667	0,5	-0,129200
25,667000	0,5	-0,132700
25,675333	0,5	-0,134500
25,683667	0,5	-0,133150
25,692000	0,5	-0,134250
25,700333	0,5	-0,127700
25,708667	0,5	-0,128550
25,717000	0,5	-0,127350
25,725333	0,5	-0,129100
25,733667	0,5	-0,125250
25,742000	0,5	-0,125200
25,750333	0,5	-0,124600
25,758667	0,5	-0,120650
25,767000	0,5	-0,120850
25,775333	0,5	-0,118100
25,783667	0,5	-0,118350
25,792000	0,5	-0,114050
25,800333	0,5	-0,115250
25,808667	0,5	-0,105000
25,817000	0,5	-0,112200
25,825333	0,5	-0,114350
25,833667	0,5	-0,110450
25,842000	0,5	-0,106600
25,850333	0,5	-0,100800
25,858667	0,5	-0,103300
25,867000	0,5	-0,107100
25,875333	0,5	-0,105650
25,883667	0,5	-0,106400
25,892000	0,5	-0,102850
25,900333	0,5	-0,104600
25,908667	0,5	-0,103250
25,917000	0,5	-0,103000
25,925333	0,5	-0,101950
25,933667	0,5	-0,097750
25,942000	0,5	-0,097900
25,950333	0,5	-0,094300
25,958667	0,5	-0,083650
25,967000	0,5	-0,092550
25,975333	0,5	-0,091700
25,983667	0,5	-0,088700
25,992000	0,5	-0,082250
26,000333	0,5	-0,068200
