File Path	chrom://chromeleon01/ikbm_chromeleon/2022/ICS-5000/ED1/Esteban/20220612_Cell_7_4_eg.seq/333.smp/ED_1.channel/ED_1.chm
Channel	ED_1

Injection Information:
Data Vault	ikbm_chromeleon
Injection	4_04h-EGS_2
Injection Number	89
Position	GD6
Comment	
Processing Method	Stop sequence after Cell Death
Instrument Method	ICS5000_PA200_FullNative_Ox_26min_ED1
Type	Unknown
Status	Finished
Injection Date	14.06.2022
Injection Time	10:00:29
Injection Volume (µl)	5,0
Dilution Factor	1,0000
Weight	1,0000

Chromatogram Data Information:
Time Min. (min)	0,000167
Time Max. (min)	26,000167
Data Points	3121
Detector	EDet1
Generating Data System	Chromeleon 7.2.9.11323
Exporting Data System	Chromeleon 7.2.9.0
Operator	Instrument Controller
Signal Quantity	
Signal Unit	nC
Signal Min.	-2,523750
Signal Max.	2 338,352685
Channel	ED_1
Driver Name	DC-5000
Channel Type	Evaluation
Min. Step (s)	0,5
Max. Step (s)	0,5
Average Step (s)	0,5

Signal Parameter Information:
Signal Info	

Chromatogram Data:
Time (min)	Step (s)	Value (nC)
0,000167	n.a.	-0,016500
0,008500	0,5	-0,055650
0,016833	0,5	-0,050550
0,025167	0,5	-0,039850
0,033500	0,5	-0,012650
0,041833	0,5	0,018850
0,050167	0,5	0,010650
0,058500	0,5	0,017550
0,066833	0,5	0,010900
0,075167	0,5	0,012000
0,083500	0,5	0,007450
0,091833	0,5	0,000750
0,100167	0,5	-0,000050
0,108500	0,5	-0,013200
0,116833	0,5	-0,001700
0,125167	0,5	-0,032450
0,133500	0,5	-0,034600
0,141833	0,5	-0,008500
0,150167	0,5	-0,021400
0,158500	0,5	-0,043050
0,166833	0,5	-0,032750
0,175167	0,5	-0,028000
0,183500	0,5	0,005850
0,191833	0,5	0,002500
0,200167	0,5	0,002300
0,208500	0,5	-0,013700
0,216833	0,5	-0,009450
0,225167	0,5	-0,019750
0,233500	0,5	-0,018600
0,241833	0,5	-0,028350
0,250167	0,5	-0,030950
0,258500	0,5	-0,034350
0,266833	0,5	-0,043100
0,275167	0,5	-0,056850
0,283500	0,5	-0,050650
0,291833	0,5	-0,013400
0,300167	0,5	0,003050
0,308500	0,5	-0,011050
0,316833	0,5	-0,046300
0,325167	0,5	-0,065200
0,333500	0,5	-0,073300
0,341833	0,5	-0,071100
0,350167	0,5	-0,076000
0,358500	0,5	-0,064800
0,366833	0,5	-0,067750
0,375167	0,5	-0,063550
0,383500	0,5	-0,078500
0,391833	0,5	-0,076100
0,400167	0,5	-0,081450
0,408500	0,5	-0,083400
0,416833	0,5	-0,073400
0,425167	0,5	-0,092350
0,433500	0,5	-0,078350
0,441833	0,5	-0,077950
0,450167	0,5	-0,099150
0,458500	0,5	-0,108400
0,466833	0,5	-0,102650
0,475167	0,5	-0,080850
0,483500	0,5	-0,069800
0,491833	0,5	-0,087100
0,500167	0,5	-0,084100
0,508500	0,5	-0,094200
0,516833	0,5	-0,089550
0,525167	0,5	-0,096300
0,533500	0,5	-0,088900
0,541833	0,5	-0,101600
0,550167	0,5	-0,094650
0,558500	0,5	-0,099150
0,566833	0,5	-0,103400
0,575167	0,5	-0,124100
0,583500	0,5	-0,087800
0,591833	0,5	-0,109950
0,600167	0,5	-0,112150
0,608500	0,5	-0,113550
0,616833	0,5	-0,101050
0,625167	0,5	-0,074400
0,633500	0,5	-0,085000
0,641833	0,5	-0,088600
0,650167	0,5	-0,088150
0,658500	0,5	-0,077200
0,666833	0,5	-0,084750
0,675167	0,5	-0,079500
0,683500	0,5	-0,090450
0,691833	0,5	-0,089250
0,700167	0,5	-0,099700
0,708500	0,5	-0,089550
0,716833	0,5	-0,109550
0,725167	0,5	-0,112350
0,733500	0,5	-0,086100
0,741833	0,5	-0,105150
0,750167	0,5	-0,112000
0,758500	0,5	-0,109850
0,766833	0,5	-0,094900
0,775167	0,5	-0,057400
0,783500	0,5	-0,065500
0,791833	0,5	-0,070150
0,800167	0,5	-0,072550
0,808500	0,5	-0,068250
0,816833	0,5	-0,073400
0,825167	0,5	-0,073650
0,833500	0,5	-0,076350
0,841833	0,5	-0,082750
0,850167	0,5	-0,073800
0,858500	0,5	-0,080700
0,866833	0,5	-0,081550
0,875167	0,5	-0,089050
0,883500	0,5	-0,067950
0,891833	0,5	-0,095600
0,900167	0,5	-0,089250
0,908500	0,5	-0,089750
0,916833	0,5	-0,068850
0,925167	0,5	-0,047000
0,933500	0,5	-0,051450
0,941833	0,5	-0,059850
0,950167	0,5	-0,057150
0,958500	0,5	-0,060800
0,966833	0,5	-0,056100
0,975167	0,5	-0,058100
0,983500	0,5	-0,065550
0,991833	0,5	-0,063800
1,000167	0,5	-0,068000
1,008500	0,5	-0,062900
1,016833	0,5	-0,073400
1,025167	0,5	-0,059700
1,033500	0,5	-0,057800
1,041833	0,5	-0,079200
1,050167	0,5	-0,076250
1,058500	0,5	-0,065150
1,066833	0,5	-0,050150
1,075167	0,5	-0,025800
1,083500	0,5	-0,041800
1,091833	0,5	-0,031450
1,100167	0,5	-0,040650
1,108500	0,5	-0,036200
1,116833	0,5	-0,050400
1,125167	0,5	-0,048200
1,133500	0,5	-0,051000
1,141833	0,5	-0,051000
1,150167	0,5	-0,050700
1,158500	0,5	-0,063550
1,166833	0,5	-0,062900
1,175167	0,5	-0,040150
1,183500	0,5	-0,055150
1,191833	0,5	-0,068650
1,200167	0,5	-0,063600
1,208500	0,5	-0,054800
1,216833	0,5	-0,026350
1,225167	0,5	-0,022900
1,233500	0,5	-0,020350
1,241833	0,5	-0,032700
1,250167	0,5	-0,025900
1,258500	0,5	-0,033550
1,266833	0,5	-0,027250
1,275167	0,5	-0,036850
1,283500	0,5	-0,037100
1,291833	0,5	-0,036700
1,300167	0,5	-0,036600
1,308500	0,5	-0,052800
1,316833	0,5	-0,041250
1,325167	0,5	-0,027600
1,333500	0,5	-0,043000
1,341833	0,5	-0,050000
1,350167	0,5	-0,043600
1,358500	0,5	-0,032550
1,366833	0,5	-0,015500
1,375167	0,5	-0,013500
1,383500	0,5	-0,018850
1,391833	0,5	-0,012200
1,400167	0,5	-0,019050
1,408500	0,5	-0,015700
1,416833	0,5	-0,024150
1,425167	0,5	-0,019600
1,433500	0,5	-0,033550
1,441833	0,5	-0,025800
1,450167	0,5	-0,028550
1,458500	0,5	-0,029300
1,466833	0,5	-0,020900
1,475167	0,5	-0,013750
1,483500	0,5	-0,036500
1,491833	0,5	-0,044350
1,500167	0,5	-0,039400
1,508500	0,5	-0,016300
1,516833	0,5	-0,011000
1,525167	0,5	-0,028150
1,533500	0,5	-0,026400
1,541833	0,5	-0,022700
1,550167	0,5	-0,008900
1,558500	0,5	0,039100
1,566833	0,5	0,218300
1,575167	0,5	0,700850
1,583500	0,5	2,879550
1,591833	0,5	15,381650
1,600167	0,5	71,125551
1,608500	0,5	270,473304
1,616833	0,5	831,452462
1,625167	0,5	1 558,144373
1,633500	0,5	2 338,352685
1,641833	0,5	2 330,719435
1,650167	0,5	2 269,342484
1,658500	0,5	2 244,960983
1,666833	0,5	2 117,667132
1,675167	0,5	1 721,802226
1,683500	0,5	1 215,181668
1,691833	0,5	821,762512
1,700167	0,5	582,820959
1,708500	0,5	443,046007
1,716833	0,5	358,160755
1,725167	0,5	298,439404
1,733500	0,5	253,367754
1,741833	0,5	217,716803
1,750167	0,5	189,201253
1,758500	0,5	165,635702
1,766833	0,5	146,397702
1,775167	0,5	132,423502
1,783500	0,5	124,715852
1,791833	0,5	122,447152
1,800167	0,5	123,251702
1,808500	0,5	124,808502
1,816833	0,5	125,215752
1,825167	0,5	123,104552
1,833500	0,5	117,935402
1,841833	0,5	110,658502
1,850167	0,5	102,823502
1,858500	0,5	95,683801
1,866833	0,5	89,499451
1,875167	0,5	84,107451
1,883500	0,5	79,382101
1,891833	0,5	75,491201
1,900167	0,5	72,578401
1,908500	0,5	70,478551
1,916833	0,5	68,840251
1,925167	0,5	67,256151
1,933500	0,5	65,929901
1,941833	0,5	65,336701
1,950167	0,5	65,496001
1,958500	0,5	64,997201
1,966833	0,5	62,536201
1,975167	0,5	58,766301
1,983500	0,5	55,355101
1,991833	0,5	53,232701
2,000167	0,5	52,776301
2,008500	0,5	54,660301
2,016833	0,5	60,803451
2,025167	0,5	72,871501
2,033500	0,5	88,043751
2,041833	0,5	98,767401
2,050167	0,5	102,240152
2,058500	0,5	104,272352
2,066833	0,5	109,293152
2,075167	0,5	113,571852
2,083500	0,5	110,894402
2,091833	0,5	100,046501
2,100167	0,5	85,444851
2,108500	0,5	71,806451
2,116833	0,5	61,210451
2,125167	0,5	54,148951
2,133500	0,5	50,726901
2,141833	0,5	50,746101
2,150167	0,5	52,488551
2,158500	0,5	53,143551
2,166833	0,5	51,088451
2,175167	0,5	47,111201
2,183500	0,5	42,876651
2,191833	0,5	39,450201
2,200167	0,5	36,865151
2,208500	0,5	34,876801
2,216833	0,5	33,245300
2,225167	0,5	31,989950
2,233500	0,5	31,092850
2,241833	0,5	30,653600
2,250167	0,5	30,647850
2,258500	0,5	30,738900
2,266833	0,5	30,666700
2,275167	0,5	30,540900
2,283500	0,5	30,584950
2,291833	0,5	30,588950
2,300167	0,5	30,139700
2,308500	0,5	29,204100
2,316833	0,5	28,239000
2,325167	0,5	27,549650
2,333500	0,5	27,223850
2,341833	0,5	27,187050
2,350167	0,5	27,507950
2,358500	0,5	28,178050
2,366833	0,5	29,031700
2,375167	0,5	29,892550
2,383500	0,5	30,621650
2,391833	0,5	31,129350
2,400167	0,5	31,461650
2,408500	0,5	31,513100
2,416833	0,5	31,306700
2,425167	0,5	31,039400
2,433500	0,5	31,577800
2,441833	0,5	32,300150
2,450167	0,5	31,039550
2,458500	0,5	28,510550
2,466833	0,5	26,621150
2,475167	0,5	25,522400
2,483500	0,5	24,849050
2,491833	0,5	24,375800
2,500167	0,5	24,023950
2,508500	0,5	23,760200
2,516833	0,5	23,518300
2,525167	0,5	23,342900
2,533500	0,5	23,193050
2,541833	0,5	23,068300
2,550167	0,5	22,916450
2,558500	0,5	22,721700
2,566833	0,5	22,526850
2,575167	0,5	22,364850
2,583500	0,5	22,272000
2,591833	0,5	22,295900
2,600167	0,5	22,503100
2,608500	0,5	22,995350
2,616833	0,5	23,858650
2,625167	0,5	25,054100
2,633500	0,5	26,420400
2,641833	0,5	27,653350
2,650167	0,5	28,647000
2,658500	0,5	29,254900
2,666833	0,5	29,567800
2,675167	0,5	29,792900
2,683500	0,5	30,316650
2,691833	0,5	31,655650
2,700167	0,5	34,536801
2,708500	0,5	40,251051
2,716833	0,5	51,132351
2,725167	0,5	70,286701
2,733500	0,5	99,769751
2,741833	0,5	136,334802
2,750167	0,5	169,777053
2,758500	0,5	187,746203
2,766833	0,5	184,443853
2,775167	0,5	163,829702
2,783500	0,5	135,639702
2,791833	0,5	108,798402
2,800167	0,5	87,674601
2,808500	0,5	72,338901
2,816833	0,5	61,283201
2,825167	0,5	53,067001
2,833500	0,5	46,888201
2,841833	0,5	42,414001
2,850167	0,5	39,507151
2,858500	0,5	38,395301
2,866833	0,5	39,406001
2,875167	0,5	42,704101
2,883500	0,5	47,673401
2,891833	0,5	52,873001
2,900167	0,5	56,421901
2,908500	0,5	56,989201
2,916833	0,5	54,293651
2,925167	0,5	49,157051
2,933500	0,5	42,910401
2,941833	0,5	36,812101
2,950167	0,5	31,627600
2,958500	0,5	27,586750
2,966833	0,5	24,657550
2,975167	0,5	22,590550
2,983500	0,5	21,147250
2,991833	0,5	20,114750
3,000167	0,5	19,328550
3,008500	0,5	18,701200
3,016833	0,5	18,201600
3,025167	0,5	17,790500
3,033500	0,5	17,478500
3,041833	0,5	17,267400
3,050167	0,5	17,210050
3,058500	0,5	17,309000
3,066833	0,5	17,545600
3,075167	0,5	17,782100
3,083500	0,5	17,900850
3,091833	0,5	17,788900
3,100167	0,5	17,415500
3,108500	0,5	16,828650
3,116833	0,5	16,197700
3,125167	0,5	15,603000
3,133500	0,5	15,116000
3,141833	0,5	14,715450
3,150167	0,5	14,391650
3,158500	0,5	14,148650
3,166833	0,5	13,967100
3,175167	0,5	13,843800
3,183500	0,5	13,773400
3,191833	0,5	13,754400
3,200167	0,5	13,778150
3,208500	0,5	13,881350
3,216833	0,5	14,096300
3,225167	0,5	14,509850
3,233500	0,5	15,185500
3,241833	0,5	16,146800
3,250167	0,5	17,143050
3,258500	0,5	17,931550
3,266833	0,5	18,232350
3,275167	0,5	17,934650
3,283500	0,5	17,134750
3,291833	0,5	16,038600
3,300167	0,5	14,929550
3,308500	0,5	14,010800
3,316833	0,5	13,362450
3,325167	0,5	12,984900
3,333500	0,5	12,827100
3,341833	0,5	12,841250
3,350167	0,5	12,985050
3,358500	0,5	13,188950
3,366833	0,5	13,401900
3,375167	0,5	13,520850
3,383500	0,5	13,543650
3,391833	0,5	13,456550
3,400167	0,5	13,229450
3,408500	0,5	12,948550
3,416833	0,5	12,680200
3,425167	0,5	12,432750
3,433500	0,5	12,258250
3,441833	0,5	12,086350
3,450167	0,5	11,967750
3,458500	0,5	11,848600
3,466833	0,5	11,740950
3,475167	0,5	11,612800
3,483500	0,5	11,489550
3,491833	0,5	11,359150
3,500167	0,5	11,250350
3,508500	0,5	11,163650
3,516833	0,5	11,162850
3,525167	0,5	11,001250
3,533500	0,5	10,955500
3,541833	0,5	10,916650
3,550167	0,5	10,853700
3,558500	0,5	10,812650
3,566833	0,5	10,778350
3,575167	0,5	10,764550
3,583500	0,5	10,756550
3,591833	0,5	10,752750
3,600167	0,5	10,774500
3,608500	0,5	10,832400
3,616833	0,5	10,882450
3,625167	0,5	10,929400
3,633500	0,5	10,933950
3,641833	0,5	10,909500
3,650167	0,5	10,844200
3,658500	0,5	10,763200
3,666833	0,5	10,686000
3,675167	0,5	10,593000
3,683500	0,5	10,524600
3,691833	0,5	10,461200
3,700167	0,5	10,400300
3,708500	0,5	10,362050
3,716833	0,5	10,343500
3,725167	0,5	10,346450
3,733500	0,5	10,347250
3,741833	0,5	10,325150
3,750167	0,5	10,324500
3,758500	0,5	10,315650
3,766833	0,5	10,325550
3,775167	0,5	10,340150
3,783500	0,5	10,387500
3,791833	0,5	10,460200
3,800167	0,5	10,571750
3,808500	0,5	10,695350
3,816833	0,5	10,808350
3,825167	0,5	10,872500
3,833500	0,5	10,909550
3,841833	0,5	10,841150
3,850167	0,5	10,726650
3,858500	0,5	10,593900
3,866833	0,5	10,482850
3,875167	0,5	10,409900
3,883500	0,5	10,358550
3,891833	0,5	10,338000
3,900167	0,5	10,319450
3,908500	0,5	10,294900
3,916833	0,5	10,240750
3,925167	0,5	10,157500
3,933500	0,5	10,047350
3,941833	0,5	9,932000
3,950167	0,5	9,812800
3,958500	0,5	9,705950
3,966833	0,5	9,589800
3,975167	0,5	9,513500
3,983500	0,5	9,446750
3,991833	0,5	9,374300
4,000167	0,5	9,315900
4,008500	0,5	9,274000
4,016833	0,5	9,245350
4,025167	0,5	9,230050
4,033500	0,5	9,197550
4,041833	0,5	9,169500
4,050167	0,5	9,137600
4,058500	0,5	9,113650
4,066833	0,5	9,094150
4,075167	0,5	9,077900
4,083500	0,5	9,061400
4,091833	0,5	9,040350
4,100167	0,5	9,026650
4,108500	0,5	8,993850
4,116833	0,5	8,970500
4,125167	0,5	8,963150
4,133500	0,5	8,951050
4,141833	0,5	8,917000
4,150167	0,5	8,904350
4,158500	0,5	8,885650
4,166833	0,5	8,896500
4,175167	0,5	8,889050
4,183500	0,5	8,871100
4,191833	0,5	8,855500
4,200167	0,5	8,852800
4,208500	0,5	8,848350
4,216833	0,5	8,859300
4,225167	0,5	8,878300
4,233500	0,5	8,929650
4,241833	0,5	9,004600
4,250167	0,5	9,108000
4,258500	0,5	9,252700
4,266833	0,5	9,408550
4,275167	0,5	9,621650
4,283500	0,5	9,808950
4,291833	0,5	9,988100
4,300167	0,5	10,155500
4,308500	0,5	10,306200
4,316833	0,5	10,440700
4,325167	0,5	10,543850
4,333500	0,5	10,629850
4,341833	0,5	10,746750
4,350167	0,5	10,891600
4,358500	0,5	11,098450
4,366833	0,5	11,335650
4,375167	0,5	11,617600
4,383500	0,5	11,891800
4,391833	0,5	12,136050
4,400167	0,5	12,308750
4,408500	0,5	12,356250
4,416833	0,5	12,286300
4,425167	0,5	12,113050
4,433500	0,5	11,784900
4,441833	0,5	11,382700
4,450167	0,5	10,946300
4,458500	0,5	10,511100
4,466833	0,5	10,125650
4,475167	0,5	9,749400
4,483500	0,5	9,460400
4,491833	0,5	9,217700
4,500167	0,5	9,043450
4,508500	0,5	8,904950
4,516833	0,5	8,813950
4,525167	0,5	8,735600
4,533500	0,5	8,691600
4,541833	0,5	8,664500
4,550167	0,5	8,662350
4,558500	0,5	8,657400
4,566833	0,5	8,678150
4,575167	0,5	8,702200
4,583500	0,5	8,707000
4,591833	0,5	8,719050
4,600167	0,5	8,734400
4,608500	0,5	8,757100
4,616833	0,5	8,785800
4,625167	0,5	8,795350
4,633500	0,5	8,811650
4,641833	0,5	8,856600
4,650167	0,5	8,908550
4,658500	0,5	8,975050
4,666833	0,5	9,032950
4,675167	0,5	9,097500
4,683500	0,5	9,145400
4,691833	0,5	9,187700
4,700167	0,5	9,212000
4,708500	0,5	9,212450
4,716833	0,5	9,205600
4,725167	0,5	9,182350
4,733500	0,5	9,127050
4,741833	0,5	9,077350
4,750167	0,5	9,015750
4,758500	0,5	8,950750
4,766833	0,5	8,868350
4,775167	0,5	8,766800
4,783500	0,5	8,673400
4,791833	0,5	8,587900
4,800167	0,5	8,510600
4,808500	0,5	8,446300
4,816833	0,5	8,391950
4,825167	0,5	8,341450
4,833500	0,5	8,303800
4,841833	0,5	8,274500
4,850167	0,5	8,258450
4,858500	0,5	8,230850
4,866833	0,5	8,239600
4,875167	0,5	8,219100
4,883500	0,5	8,214550
4,891833	0,5	8,213350
4,900167	0,5	8,226050
4,908500	0,5	8,237200
4,916833	0,5	8,239600
4,925167	0,5	8,230050
4,933500	0,5	8,221700
4,941833	0,5	8,211500
4,950167	0,5	8,194150
4,958500	0,5	8,178300
4,966833	0,5	8,162850
4,975167	0,5	8,146700
4,983500	0,5	8,136000
4,991833	0,5	8,124350
5,000167	0,5	8,102950
5,008500	0,5	8,100900
5,016833	0,5	8,095450
5,025167	0,5	8,074200
5,033500	0,5	8,053300
5,041833	0,5	8,044750
5,050167	0,5	8,039200
5,058500	0,5	8,046200
5,066833	0,5	8,028700
5,075167	0,5	8,016150
5,083500	0,5	7,991550
5,091833	0,5	7,975300
5,100167	0,5	7,948850
5,108500	0,5	7,928000
5,116833	0,5	7,889500
5,125167	0,5	7,855400
5,133500	0,5	7,803500
5,141833	0,5	7,736250
5,150167	0,5	7,660950
5,158500	0,5	7,601050
5,166833	0,5	7,536500
5,175167	0,5	7,473500
5,183500	0,5	7,432850
5,191833	0,5	7,402550
5,200167	0,5	7,396500
5,208500	0,5	7,378750
5,216833	0,5	7,365150
5,225167	0,5	7,341800
5,233500	0,5	7,328150
5,241833	0,5	7,296300
5,250167	0,5	7,276300
5,258500	0,5	7,236150
5,266833	0,5	7,203850
5,275167	0,5	7,163750
5,283500	0,5	7,131450
5,291833	0,5	7,101000
5,300167	0,5	7,065600
5,308500	0,5	7,051250
5,316833	0,5	7,012300
5,325167	0,5	6,976200
5,333500	0,5	6,955450
5,341833	0,5	6,935350
5,350167	0,5	6,936750
5,358500	0,5	6,923850
5,366833	0,5	6,905600
5,375167	0,5	6,900750
5,383500	0,5	6,892650
5,391833	0,5	6,899950
5,400167	0,5	6,903850
5,408500	0,5	6,935200
5,416833	0,5	6,964050
5,425167	0,5	7,013900
5,433500	0,5	7,058100
5,441833	0,5	7,099950
5,450167	0,5	7,122200
5,458500	0,5	7,154800
5,466833	0,5	7,128550
5,475167	0,5	7,095600
5,483500	0,5	7,047150
5,491833	0,5	7,002250
5,500167	0,5	6,967650
5,508500	0,5	6,914500
5,516833	0,5	6,881650
5,525167	0,5	6,863350
5,533500	0,5	6,860200
5,541833	0,5	6,861950
5,550167	0,5	6,880550
5,558500	0,5	6,886650
5,566833	0,5	6,898200
5,575167	0,5	6,900200
5,583500	0,5	6,897400
5,591833	0,5	6,867950
5,600167	0,5	6,845300
5,608500	0,5	6,824050
5,616833	0,5	6,775050
5,625167	0,5	6,727750
5,633500	0,5	6,693750
5,641833	0,5	6,660250
5,650167	0,5	6,647500
5,658500	0,5	6,610750
5,666833	0,5	6,585600
5,675167	0,5	6,563450
5,683500	0,5	6,544100
5,691833	0,5	6,525700
5,700167	0,5	6,504000
5,708500	0,5	6,484150
5,716833	0,5	6,463950
5,725167	0,5	6,449050
5,733500	0,5	6,432300
5,741833	0,5	6,409750
5,750167	0,5	6,395300
5,758500	0,5	6,388300
5,766833	0,5	6,371900
5,775167	0,5	6,385450
5,783500	0,5	6,417800
5,791833	0,5	6,483550
5,800167	0,5	6,572400
5,808500	0,5	6,675400
5,816833	0,5	6,791000
5,825167	0,5	6,919700
5,833500	0,5	7,027500
5,841833	0,5	7,120550
5,850167	0,5	7,181700
5,858500	0,5	7,224150
5,866833	0,5	7,258700
5,875167	0,5	7,303250
5,883500	0,5	7,374600
5,891833	0,5	7,484200
5,900167	0,5	7,669700
5,908500	0,5	7,933250
5,916833	0,5	8,334550
5,925167	0,5	8,938250
5,933500	0,5	9,819900
5,941833	0,5	11,031400
5,950167	0,5	12,611400
5,958500	0,5	14,528150
5,966833	0,5	16,705650
5,975167	0,5	18,946300
5,983500	0,5	21,014050
5,991833	0,5	22,647300
6,000167	0,5	23,655050
6,008500	0,5	23,921400
6,016833	0,5	23,459100
6,025167	0,5	22,365000
6,033500	0,5	20,795850
6,041833	0,5	18,959850
6,050167	0,5	17,043150
6,058500	0,5	15,167450
6,066833	0,5	13,462650
6,075167	0,5	11,987750
6,083500	0,5	10,761350
6,091833	0,5	9,775150
6,100167	0,5	8,978950
6,108500	0,5	8,362800
6,116833	0,5	7,872800
6,125167	0,5	7,504450
6,133500	0,5	7,211450
6,141833	0,5	6,991600
6,150167	0,5	6,817300
6,158500	0,5	6,680600
6,166833	0,5	6,573600
6,175167	0,5	6,479000
6,183500	0,5	6,393100
6,191833	0,5	6,336050
6,200167	0,5	6,267700
6,208500	0,5	6,200850
6,216833	0,5	6,140850
6,225167	0,5	6,087850
6,233500	0,5	6,053850
6,241833	0,5	6,011050
6,250167	0,5	5,970550
6,258500	0,5	5,932500
6,266833	0,5	5,897250
6,275167	0,5	5,863500
6,283500	0,5	5,832050
6,291833	0,5	5,801900
6,300167	0,5	5,780650
6,308500	0,5	5,758550
6,316833	0,5	5,749150
6,325167	0,5	5,734800
6,333500	0,5	5,721300
6,341833	0,5	5,723750
6,350167	0,5	5,712150
6,358500	0,5	5,695200
6,366833	0,5	5,686150
6,375167	0,5	5,677650
6,383500	0,5	5,688450
6,391833	0,5	5,679200
6,400167	0,5	5,667600
6,408500	0,5	5,656850
6,416833	0,5	5,641550
6,425167	0,5	5,630850
6,433500	0,5	5,614000
6,441833	0,5	5,600800
6,450167	0,5	5,588650
6,458500	0,5	5,580650
6,466833	0,5	5,573400
6,475167	0,5	5,569000
6,483500	0,5	5,553050
6,491833	0,5	5,562050
6,500167	0,5	5,545600
6,508500	0,5	5,538550
6,516833	0,5	5,534950
6,525167	0,5	5,539550
6,533500	0,5	5,553400
6,541833	0,5	5,544300
6,550167	0,5	5,537950
6,558500	0,5	5,533500
6,566833	0,5	5,517500
6,575167	0,5	5,503200
6,583500	0,5	5,482550
6,591833	0,5	5,461300
6,600167	0,5	5,443500
6,608500	0,5	5,423450
6,616833	0,5	5,413900
6,625167	0,5	5,391550
6,633500	0,5	5,382050
6,641833	0,5	5,379150
6,650167	0,5	5,357700
6,658500	0,5	5,344850
6,666833	0,5	5,337150
6,675167	0,5	5,334450
6,683500	0,5	5,342450
6,691833	0,5	5,334650
6,700167	0,5	5,333000
6,708500	0,5	5,327900
6,716833	0,5	5,329450
6,725167	0,5	5,322100
6,733500	0,5	5,320400
6,741833	0,5	5,314050
6,750167	0,5	5,314250
6,758500	0,5	5,325300
6,766833	0,5	5,335350
6,775167	0,5	5,360000
6,783500	0,5	5,411450
6,791833	0,5	5,480350
6,800167	0,5	5,553500
6,808500	0,5	5,646950
6,816833	0,5	5,740250
6,825167	0,5	5,833500
6,833500	0,5	5,893850
6,841833	0,5	5,914650
6,850167	0,5	5,892600
6,858500	0,5	5,848400
6,866833	0,5	5,779350
6,875167	0,5	5,713050
6,883500	0,5	5,652200
6,891833	0,5	5,614400
6,900167	0,5	5,594800
6,908500	0,5	5,589000
6,916833	0,5	5,585050
6,925167	0,5	5,574700
6,933500	0,5	5,556500
6,941833	0,5	5,521800
6,950167	0,5	5,471800
6,958500	0,5	5,436300
6,966833	0,5	5,419050
6,975167	0,5	5,417750
6,983500	0,5	5,435500
6,991833	0,5	5,461500
7,000167	0,5	5,514750
7,008500	0,5	5,577750
7,016833	0,5	5,675400
7,025167	0,5	5,795100
7,033500	0,5	5,966650
7,041833	0,5	6,184950
7,050167	0,5	6,471450
7,058500	0,5	6,837200
7,066833	0,5	7,282250
7,075167	0,5	7,803650
7,083500	0,5	8,405400
7,091833	0,5	9,031100
7,100167	0,5	9,684450
7,108500	0,5	10,317150
7,116833	0,5	10,884200
7,125167	0,5	11,342600
7,133500	0,5	11,625250
7,141833	0,5	11,721900
7,150167	0,5	11,603300
7,158500	0,5	11,283900
7,166833	0,5	10,789100
7,175167	0,5	10,168300
7,183500	0,5	9,473050
7,191833	0,5	8,772550
7,200167	0,5	8,109050
7,208500	0,5	7,535350
7,216833	0,5	7,065650
7,225167	0,5	6,726600
7,233500	0,5	6,488550
7,241833	0,5	6,318350
7,250167	0,5	6,194100
7,258500	0,5	6,093300
7,266833	0,5	5,989950
7,275167	0,5	5,869250
7,283500	0,5	5,740300
7,291833	0,5	5,618850
7,300167	0,5	5,512200
7,308500	0,5	5,434250
7,316833	0,5	5,380850
7,325167	0,5	5,363200
7,333500	0,5	5,388450
7,341833	0,5	5,461700
7,350167	0,5	5,598550
7,358500	0,5	5,792950
7,366833	0,5	6,058450
7,375167	0,5	6,387850
7,383500	0,5	6,758750
7,391833	0,5	7,177800
7,400167	0,5	7,658550
7,408500	0,5	8,220750
7,416833	0,5	8,945100
7,425167	0,5	9,947800
7,433500	0,5	11,506250
7,441833	0,5	14,067250
7,450167	0,5	18,235000
7,458500	0,5	24,536450
7,466833	0,5	33,067400
7,475167	0,5	43,009401
7,483500	0,5	52,664351
7,491833	0,5	59,903801
7,500167	0,5	63,082001
7,508500	0,5	61,697251
7,516833	0,5	56,344801
7,525167	0,5	48,421901
7,533500	0,5	39,419501
7,541833	0,5	30,722450
7,550167	0,5	23,275900
7,558500	0,5	17,504900
7,566833	0,5	13,392850
7,575167	0,5	10,638950
7,583500	0,5	8,891550
7,591833	0,5	7,825500
7,600167	0,5	7,192500
7,608500	0,5	6,828650
7,616833	0,5	6,610950
7,625167	0,5	6,463050
7,633500	0,5	6,323450
7,641833	0,5	6,161850
7,650167	0,5	5,980700
7,658500	0,5	5,796250
7,666833	0,5	5,627650
7,675167	0,5	5,504750
7,683500	0,5	5,405950
7,691833	0,5	5,335950
7,700167	0,5	5,287600
7,708500	0,5	5,254800
7,716833	0,5	5,233000
7,725167	0,5	5,214450
7,733500	0,5	5,222450
7,741833	0,5	5,244750
7,750167	0,5	5,287900
7,758500	0,5	5,319550
7,766833	0,5	5,324300
7,775167	0,5	5,289700
7,783500	0,5	5,233400
7,791833	0,5	5,163500
7,800167	0,5	5,094950
7,808500	0,5	5,032050
7,816833	0,5	4,974600
7,825167	0,5	4,923700
7,833500	0,5	4,874250
7,841833	0,5	4,841500
7,850167	0,5	4,825850
7,858500	0,5	4,827000
7,866833	0,5	4,851600
7,875167	0,5	4,881800
7,883500	0,5	4,910150
7,891833	0,5	4,915100
7,900167	0,5	4,892450
7,908500	0,5	4,848800
7,916833	0,5	4,787100
7,925167	0,5	4,731600
7,933500	0,5	4,678750
7,941833	0,5	4,643300
7,950167	0,5	4,624100
7,958500	0,5	4,619200
7,966833	0,5	4,619450
7,975167	0,5	4,611000
7,983500	0,5	4,585600
7,991833	0,5	4,563500
8,000167	0,5	4,548150
8,008500	0,5	4,554600
8,016833	0,5	4,583950
8,025167	0,5	4,647150
8,033500	0,5	4,753200
8,041833	0,5	4,882400
8,050167	0,5	4,991050
8,058500	0,5	5,031400
8,066833	0,5	4,988150
8,075167	0,5	4,877000
8,083500	0,5	4,740000
8,091833	0,5	4,610650
8,100167	0,5	4,512550
8,108500	0,5	4,449600
8,116833	0,5	4,417900
8,125167	0,5	4,399150
8,133500	0,5	4,388200
8,141833	0,5	4,372200
8,150167	0,5	4,342050
8,158500	0,5	4,306000
8,166833	0,5	4,262450
8,175167	0,5	4,223300
8,183500	0,5	4,199550
8,191833	0,5	4,185350
8,200167	0,5	4,180150
8,208500	0,5	4,182300
8,216833	0,5	4,183600
8,225167	0,5	4,186400
8,233500	0,5	4,182900
8,241833	0,5	4,182450
8,250167	0,5	4,174150
8,258500	0,5	4,171000
8,266833	0,5	4,161600
8,275167	0,5	4,152300
8,283500	0,5	4,142100
8,291833	0,5	4,134400
8,300167	0,5	4,129100
8,308500	0,5	4,117950
8,316833	0,5	4,106000
8,325167	0,5	4,104000
8,333500	0,5	4,101900
8,341833	0,5	4,112400
8,350167	0,5	4,120250
8,358500	0,5	4,126800
8,366833	0,5	4,123500
8,375167	0,5	4,123150
8,383500	0,5	4,123300
8,391833	0,5	4,136000
8,400167	0,5	4,151400
8,408500	0,5	4,198400
8,416833	0,5	4,264300
8,425167	0,5	4,357250
8,433500	0,5	4,448900
8,441833	0,5	4,504150
8,450167	0,5	4,513050
8,458500	0,5	4,475850
8,466833	0,5	4,426700
8,475167	0,5	4,391450
8,483500	0,5	4,394750
8,491833	0,5	4,450950
8,500167	0,5	4,584450
8,508500	0,5	4,804750
8,516833	0,5	5,127100
8,525167	0,5	5,532900
8,533500	0,5	5,992350
8,541833	0,5	6,469750
8,550167	0,5	6,963750
8,558500	0,5	7,519050
8,566833	0,5	8,245600
8,575167	0,5	9,446900
8,583500	0,5	11,682250
8,591833	0,5	15,825100
8,600167	0,5	22,706050
8,608500	0,5	32,331050
8,616833	0,5	43,287301
8,625167	0,5	52,901651
8,633500	0,5	58,355601
8,641833	0,5	58,168151
8,650167	0,5	52,755801
8,658500	0,5	44,061451
8,666833	0,5	34,413151
8,675167	0,5	25,650000
8,683500	0,5	18,734550
8,691833	0,5	13,822600
8,700167	0,5	10,606400
8,708500	0,5	8,621550
8,716833	0,5	7,422650
8,725167	0,5	6,702600
8,733500	0,5	6,266150
8,741833	0,5	6,011200
8,750167	0,5	5,879000
8,758500	0,5	5,831150
8,766833	0,5	5,829750
8,775167	0,5	5,828900
8,783500	0,5	5,795800
8,791833	0,5	5,721850
8,800167	0,5	5,627200
8,808500	0,5	5,522500
8,816833	0,5	5,427000
8,825167	0,5	5,346800
8,833500	0,5	5,277300
8,841833	0,5	5,222450
8,850167	0,5	5,184600
8,858500	0,5	5,158950
8,866833	0,5	5,131750
8,875167	0,5	5,100050
8,883500	0,5	5,066950
8,891833	0,5	5,019550
8,900167	0,5	4,969650
8,908500	0,5	4,922800
8,916833	0,5	4,891850
8,925167	0,5	4,889050
8,933500	0,5	4,904850
8,941833	0,5	4,924450
8,950167	0,5	4,959300
8,958500	0,5	5,011100
8,966833	0,5	5,116950
8,975167	0,5	5,316250
8,983500	0,5	5,678250
8,991833	0,5	6,283750
9,000167	0,5	7,218000
9,008500	0,5	8,602500
9,016833	0,5	10,668100
9,025167	0,5	13,505850
9,033500	0,5	16,607650
9,041833	0,5	18,972950
9,050167	0,5	19,684550
9,058500	0,5	18,664150
9,066833	0,5	16,521550
9,075167	0,5	13,984850
9,083500	0,5	11,591150
9,091833	0,5	9,614250
9,100167	0,5	8,136450
9,108500	0,5	7,126100
9,116833	0,5	6,500500
9,125167	0,5	6,165400
9,133500	0,5	6,022150
9,141833	0,5	6,001400
9,150167	0,5	6,037600
9,158500	0,5	6,086750
9,166833	0,5	6,106000
9,175167	0,5	6,074450
9,183500	0,5	5,993650
9,191833	0,5	5,868300
9,200167	0,5	5,707400
9,208500	0,5	5,530650
9,216833	0,5	5,352700
9,225167	0,5	5,189550
9,233500	0,5	5,046900
9,241833	0,5	4,929300
9,250167	0,5	4,839650
9,258500	0,5	4,777650
9,266833	0,5	4,730400
9,275167	0,5	4,707850
9,283500	0,5	4,685600
9,291833	0,5	4,663500
9,300167	0,5	4,630750
9,308500	0,5	4,586450
9,316833	0,5	4,540400
9,325167	0,5	4,503250
9,333500	0,5	4,489750
9,341833	0,5	4,492850
9,350167	0,5	4,493300
9,358500	0,5	4,477900
9,366833	0,5	4,438650
9,375167	0,5	4,381150
9,383500	0,5	4,318900
9,391833	0,5	4,268150
9,400167	0,5	4,228950
9,408500	0,5	4,199600
9,416833	0,5	4,183950
9,425167	0,5	4,161100
9,433500	0,5	4,135900
9,441833	0,5	4,118100
9,450167	0,5	4,097800
9,458500	0,5	4,072600
9,466833	0,5	4,046600
9,475167	0,5	4,027200
9,483500	0,5	4,014050
9,491833	0,5	4,013900
9,500167	0,5	4,026250
9,508500	0,5	4,040250
9,516833	0,5	4,062750
9,525167	0,5	4,072350
9,533500	0,5	4,076100
9,541833	0,5	4,068250
9,550167	0,5	4,058150
9,558500	0,5	4,047950
9,566833	0,5	4,054400
9,575167	0,5	4,084250
9,583500	0,5	4,135250
9,591833	0,5	4,217450
9,600167	0,5	4,330300
9,608500	0,5	4,452600
9,616833	0,5	4,586550
9,625167	0,5	4,732700
9,633500	0,5	4,908700
9,641833	0,5	5,115200
9,650167	0,5	5,366550
9,658500	0,5	5,665700
9,666833	0,5	6,017750
9,675167	0,5	6,392800
9,683500	0,5	6,786550
9,691833	0,5	7,169850
9,700167	0,5	7,533150
9,708500	0,5	7,866150
9,716833	0,5	8,170650
9,725167	0,5	8,447050
9,733500	0,5	8,687100
9,741833	0,5	8,891300
9,750167	0,5	9,025900
9,758500	0,5	9,057700
9,766833	0,5	8,944100
9,775167	0,5	8,645350
9,783500	0,5	8,146100
9,791833	0,5	7,470700
9,800167	0,5	6,701350
9,808500	0,5	5,951200
9,816833	0,5	5,300100
9,825167	0,5	4,798900
9,833500	0,5	4,450000
9,841833	0,5	4,218000
9,850167	0,5	4,075350
9,858500	0,5	3,987000
9,866833	0,5	3,932600
9,875167	0,5	3,900400
9,883500	0,5	3,879050
9,891833	0,5	3,870300
9,900167	0,5	3,869200
9,908500	0,5	3,856350
9,916833	0,5	3,837600
9,925167	0,5	3,807800
9,933500	0,5	3,769050
9,941833	0,5	3,727750
9,950167	0,5	3,692100
9,958500	0,5	3,671850
9,966833	0,5	3,671550
9,975167	0,5	3,687800
9,983500	0,5	3,729600
9,991833	0,5	3,789500
10,000167	0,5	3,860000
10,008500	0,5	3,927750
10,016833	0,5	3,980050
10,025167	0,5	4,001600
10,033500	0,5	3,996700
10,041833	0,5	3,971850
10,050167	0,5	3,940350
10,058500	0,5	3,907100
10,066833	0,5	3,884900
10,075167	0,5	3,861800
10,083500	0,5	3,838050
10,091833	0,5	3,808750
10,100167	0,5	3,771050
10,108500	0,5	3,718900
10,116833	0,5	3,661550
10,125167	0,5	3,598350
10,133500	0,5	3,536750
10,141833	0,5	3,479450
10,150167	0,5	3,426200
10,158500	0,5	3,388900
10,166833	0,5	3,363800
10,175167	0,5	3,345400
10,183500	0,5	3,339850
10,191833	0,5	3,347600
10,200167	0,5	3,356750
10,208500	0,5	3,374350
10,216833	0,5	3,384100
10,225167	0,5	3,385050
10,233500	0,5	3,381200
10,241833	0,5	3,362550
10,250167	0,5	3,336050
10,258500	0,5	3,311000
10,266833	0,5	3,300700
10,275167	0,5	3,313200
10,283500	0,5	3,356000
10,291833	0,5	3,415800
10,300167	0,5	3,494000
10,308500	0,5	3,560800
10,316833	0,5	3,600950
10,325167	0,5	3,591050
10,333500	0,5	3,547350
10,341833	0,5	3,479100
10,350167	0,5	3,398050
10,358500	0,5	3,325750
10,366833	0,5	3,260650
10,375167	0,5	3,212300
10,383500	0,5	3,172150
10,391833	0,5	3,138000
10,400167	0,5	3,108000
10,408500	0,5	3,089700
10,416833	0,5	3,075250
10,425167	0,5	3,068400
10,433500	0,5	3,064850
10,441833	0,5	3,060600
10,450167	0,5	3,065900
10,458500	0,5	3,069400
10,466833	0,5	3,080600
10,475167	0,5	3,090800
10,483500	0,5	3,113700
10,491833	0,5	3,132250
10,500167	0,5	3,150100
10,508500	0,5	3,159850
10,516833	0,5	3,156650
10,525167	0,5	3,158800
10,533500	0,5	3,162450
10,541833	0,5	3,181800
10,550167	0,5	3,215650
10,558500	0,5	3,268800
10,566833	0,5	3,322300
10,575167	0,5	3,362450
10,583500	0,5	3,373400
10,591833	0,5	3,350400
10,600167	0,5	3,296950
10,608500	0,5	3,228000
10,616833	0,5	3,150700
10,625167	0,5	3,075400
10,633500	0,5	3,014450
10,641833	0,5	2,963850
10,650167	0,5	2,925100
10,658500	0,5	2,896750
10,666833	0,5	2,877350
10,675167	0,5	2,864350
10,683500	0,5	2,846350
10,691833	0,5	2,816650
10,700167	0,5	2,777900
10,708500	0,5	2,736500
10,716833	0,5	2,697450
10,725167	0,5	2,666350
10,733500	0,5	2,650450
10,741833	0,5	2,650450
10,750167	0,5	2,669350
10,758500	0,5	2,703200
10,766833	0,5	2,752400
10,775167	0,5	2,823150
10,783500	0,5	2,907600
10,791833	0,5	2,986700
10,800167	0,5	3,059750
10,808500	0,5	3,102450
10,816833	0,5	3,121650
10,825167	0,5	3,103750
10,833500	0,5	3,059750
10,841833	0,5	2,995350
10,850167	0,5	2,925200
10,858500	0,5	2,855550
10,866833	0,5	2,789400
10,875167	0,5	2,732650
10,883500	0,5	2,691800
10,891833	0,5	2,661250
10,900167	0,5	2,641100
10,908500	0,5	2,635400
10,916833	0,5	2,639450
10,925167	0,5	2,660000
10,933500	0,5	2,698900
10,941833	0,5	2,743800
10,950167	0,5	2,802700
10,958500	0,5	2,870600
10,966833	0,5	2,946250
10,975167	0,5	3,021750
10,983500	0,5	3,086400
10,991833	0,5	3,139100
11,000167	0,5	3,169900
11,008500	0,5	3,174000
11,016833	0,5	3,149850
11,025167	0,5	3,108350
11,033500	0,5	3,048600
11,041833	0,5	2,976250
11,050167	0,5	2,903850
11,058500	0,5	2,822600
11,066833	0,5	2,746650
11,075167	0,5	2,686300
11,083500	0,5	2,638050
11,091833	0,5	2,604750
11,100167	0,5	2,590900
11,108500	0,5	2,585550
11,116833	0,5	2,606000
11,125167	0,5	2,631800
11,133500	0,5	2,672550
11,141833	0,5	2,722700
11,150167	0,5	2,789550
11,158500	0,5	2,862300
11,166833	0,5	2,942700
11,175167	0,5	3,015050
11,183500	0,5	3,067200
11,191833	0,5	3,091050
11,200167	0,5	3,083800
11,208500	0,5	3,040400
11,216833	0,5	2,977550
11,225167	0,5	2,906550
11,233500	0,5	2,832400
11,241833	0,5	2,759050
11,250167	0,5	2,687500
11,258500	0,5	2,636650
11,266833	0,5	2,599700
11,275167	0,5	2,580050
11,283500	0,5	2,574250
11,291833	0,5	2,583600
11,300167	0,5	2,610700
11,308500	0,5	2,662500
11,316833	0,5	2,734950
11,325167	0,5	2,843250
11,333500	0,5	2,977750
11,341833	0,5	3,139400
11,350167	0,5	3,328250
11,358500	0,5	3,549600
11,366833	0,5	3,833250
11,375167	0,5	4,195550
11,383500	0,5	4,599250
11,391833	0,5	5,013000
11,400167	0,5	5,368150
11,408500	0,5	5,600850
11,416833	0,5	5,681500
11,425167	0,5	5,598550
11,433500	0,5	5,385600
11,441833	0,5	5,088200
11,450167	0,5	4,747500
11,458500	0,5	4,406750
11,466833	0,5	4,099950
11,475167	0,5	3,848050
11,483500	0,5	3,658900
11,491833	0,5	3,532950
11,500167	0,5	3,461150
11,508500	0,5	3,411150
11,516833	0,5	3,395550
11,525167	0,5	3,383850
11,533500	0,5	3,375550
11,541833	0,5	3,362200
11,550167	0,5	3,341600
11,558500	0,5	3,315650
11,566833	0,5	3,278900
11,575167	0,5	3,229750
11,583500	0,5	3,171150
11,591833	0,5	3,115550
11,600167	0,5	3,064750
11,608500	0,5	3,023850
11,616833	0,5	2,988050
11,625167	0,5	2,953250
11,633500	0,5	2,922800
11,641833	0,5	2,885100
11,650167	0,5	2,837900
11,658500	0,5	2,787250
11,666833	0,5	2,747650
11,675167	0,5	2,717850
11,683500	0,5	2,705700
11,691833	0,5	2,719850
11,700167	0,5	2,754050
11,708500	0,5	2,823400
11,716833	0,5	2,911500
11,725167	0,5	3,023550
11,733500	0,5	3,139000
11,741833	0,5	3,265750
11,750167	0,5	3,384200
11,758500	0,5	3,481950
11,766833	0,5	3,551300
11,775167	0,5	3,577750
11,783500	0,5	3,563900
11,791833	0,5	3,511100
11,800167	0,5	3,424950
11,808500	0,5	3,320350
11,816833	0,5	3,211250
11,825167	0,5	3,099100
11,833500	0,5	2,995100
11,841833	0,5	2,895500
11,850167	0,5	2,817700
11,858500	0,5	2,744900
11,866833	0,5	2,686800
11,875167	0,5	2,629050
11,883500	0,5	2,583850
11,891833	0,5	2,539400
11,900167	0,5	2,506150
11,908500	0,5	2,472850
11,916833	0,5	2,449150
11,925167	0,5	2,433450
11,933500	0,5	2,427650
11,941833	0,5	2,429950
11,950167	0,5	2,430300
11,958500	0,5	2,450450
11,966833	0,5	2,472700
11,975167	0,5	2,494800
11,983500	0,5	2,523650
11,991833	0,5	2,552150
12,000167	0,5	2,578600
12,008500	0,5	2,600400
12,016833	0,5	2,601150
12,025167	0,5	2,588250
12,033500	0,5	2,558900
12,041833	0,5	2,524900
12,050167	0,5	2,478650
12,058500	0,5	2,435750
12,066833	0,5	2,393250
12,075167	0,5	2,363800
12,083500	0,5	2,340050
12,091833	0,5	2,322300
12,100167	0,5	2,302200
12,108500	0,5	2,300900
12,116833	0,5	2,300250
12,125167	0,5	2,294850
12,133500	0,5	2,292800
12,141833	0,5	2,291550
12,150167	0,5	2,305600
12,158500	0,5	2,313600
12,166833	0,5	2,327050
12,175167	0,5	2,337450
12,183500	0,5	2,349100
12,191833	0,5	2,352000
12,200167	0,5	2,353450
12,208500	0,5	2,343200
12,216833	0,5	2,336000
12,225167	0,5	2,319450
12,233500	0,5	2,312850
12,241833	0,5	2,297900
12,250167	0,5	2,295250
12,258500	0,5	2,303850
12,266833	0,5	2,318550
12,275167	0,5	2,331150
12,283500	0,5	2,342600
12,291833	0,5	2,350750
12,300167	0,5	2,365200
12,308500	0,5	2,374100
12,316833	0,5	2,384050
12,325167	0,5	2,399050
12,333500	0,5	2,420900
12,341833	0,5	2,448150
12,350167	0,5	2,475850
12,358500	0,5	2,506350
12,366833	0,5	2,554250
12,375167	0,5	2,607350
12,383500	0,5	2,660300
12,391833	0,5	2,708600
12,400167	0,5	2,772300
12,408500	0,5	2,860200
12,416833	0,5	2,974200
12,425167	0,5	3,182750
12,433500	0,5	3,405350
12,441833	0,5	3,479400
12,450167	0,5	3,532850
12,458500	0,5	3,540300
12,466833	0,5	3,319400
12,475167	0,5	2,936100
12,483500	0,5	2,523600
12,491833	0,5	2,116750
12,500167	0,5	1,868850
12,508500	0,5	1,715900
12,516833	0,5	1,605200
12,525167	0,5	1,507900
12,533500	0,5	1,423450
12,541833	0,5	1,336400
12,550167	0,5	1,288800
12,558500	0,5	1,245450
12,566833	0,5	1,218900
12,575167	0,5	1,202600
12,583500	0,5	1,187350
12,591833	0,5	1,183100
12,600167	0,5	1,183950
12,608500	0,5	1,176100
12,616833	0,5	1,164850
12,625167	0,5	1,150850
12,633500	0,5	1,132200
12,641833	0,5	1,109700
12,650167	0,5	1,083900
12,658500	0,5	1,056350
12,666833	0,5	1,030500
12,675167	0,5	1,013200
12,683500	0,5	0,991500
12,691833	0,5	0,968850
12,700167	0,5	0,964650
12,708500	0,5	0,955050
12,716833	0,5	0,947700
12,725167	0,5	0,944250
12,733500	0,5	0,936950
12,741833	0,5	0,945350
12,750167	0,5	0,946650
12,758500	0,5	0,951950
12,766833	0,5	0,953000
12,775167	0,5	0,955500
12,783500	0,5	0,951550
12,791833	0,5	0,951450
12,800167	0,5	0,951350
12,808500	0,5	0,948150
12,816833	0,5	0,951600
12,825167	0,5	0,955250
12,833500	0,5	0,953150
12,841833	0,5	0,959600
12,850167	0,5	0,969100
12,858500	0,5	0,975650
12,866833	0,5	0,978600
12,875167	0,5	0,975800
12,883500	0,5	0,980050
12,891833	0,5	0,981500
12,900167	0,5	0,987950
12,908500	0,5	0,985850
12,916833	0,5	0,990950
12,925167	0,5	0,992050
12,933500	0,5	0,998700
12,941833	0,5	1,003800
12,950167	0,5	1,014000
12,958500	0,5	1,027800
12,966833	0,5	1,051950
12,975167	0,5	1,079000
12,983500	0,5	1,122100
12,991833	0,5	1,177900
13,000167	0,5	1,257150
13,008500	0,5	1,344900
13,016833	0,5	1,456300
13,025167	0,5	1,590000
13,033500	0,5	1,755100
13,041833	0,5	1,940850
13,050167	0,5	2,138050
13,058500	0,5	2,343350
13,066833	0,5	2,545300
13,075167	0,5	2,737550
13,083500	0,5	2,907350
13,091833	0,5	3,050700
13,100167	0,5	3,162850
13,108500	0,5	3,247350
13,116833	0,5	3,300450
13,125167	0,5	3,326400
13,133500	0,5	3,324300
13,141833	0,5	3,325500
13,150167	0,5	3,307600
13,158500	0,5	3,280750
13,166833	0,5	3,256300
13,175167	0,5	3,236150
13,183500	0,5	3,229850
13,191833	0,5	3,229700
13,200167	0,5	3,236200
13,208500	0,5	3,253500
13,216833	0,5	3,279800
13,225167	0,5	3,311850
13,233500	0,5	3,349350
13,241833	0,5	3,381650
13,250167	0,5	3,410750
13,258500	0,5	3,421750
13,266833	0,5	3,427950
13,275167	0,5	3,401800
13,283500	0,5	3,378550
13,291833	0,5	3,348600
13,300167	0,5	3,313700
13,308500	0,5	3,271850
13,316833	0,5	3,232700
13,325167	0,5	3,205450
13,333500	0,5	3,189800
13,341833	0,5	3,177850
13,350167	0,5	3,173850
13,358500	0,5	3,177000
13,366833	0,5	3,192500
13,375167	0,5	3,215050
13,383500	0,5	3,245750
13,391833	0,5	3,276200
13,400167	0,5	3,303100
13,408500	0,5	3,328150
13,416833	0,5	3,352650
13,425167	0,5	3,358500
13,433500	0,5	3,368700
13,441833	0,5	3,367650
13,450167	0,5	3,349450
13,458500	0,5	3,322650
13,466833	0,5	3,282000
13,475167	0,5	3,255300
13,483500	0,5	3,230050
13,491833	0,5	3,213300
13,500167	0,5	3,200850
13,508500	0,5	3,198200
13,516833	0,5	3,194400
13,525167	0,5	3,191900
13,533500	0,5	3,188100
13,541833	0,5	3,189650
13,550167	0,5	3,190750
13,558500	0,5	3,187450
13,566833	0,5	3,194050
13,575167	0,5	3,181550
13,583500	0,5	3,188550
13,591833	0,5	3,181300
13,600167	0,5	3,177600
13,608500	0,5	3,171000
13,616833	0,5	3,170200
13,625167	0,5	3,179600
13,633500	0,5	3,189450
13,641833	0,5	3,199050
13,650167	0,5	3,212350
13,658500	0,5	3,224900
13,666833	0,5	3,230450
13,675167	0,5	3,228800
13,683500	0,5	3,220200
13,691833	0,5	3,201800
13,700167	0,5	3,175500
13,708500	0,5	3,149550
13,716833	0,5	3,124350
13,725167	0,5	3,097750
13,733500	0,5	3,087750
13,741833	0,5	3,070500
13,750167	0,5	3,050150
13,758500	0,5	3,029850
13,766833	0,5	3,008700
13,775167	0,5	3,001200
13,783500	0,5	2,993550
13,791833	0,5	2,995050
13,800167	0,5	2,985900
13,808500	0,5	2,985700
13,816833	0,5	2,976250
13,825167	0,5	2,972650
13,833500	0,5	2,963200
13,841833	0,5	2,957800
13,850167	0,5	2,955950
13,858500	0,5	2,952200
13,866833	0,5	2,943400
13,875167	0,5	2,945250
13,883500	0,5	2,943500
13,891833	0,5	2,940800
13,900167	0,5	2,934050
13,908500	0,5	2,921900
13,916833	0,5	2,920250
13,925167	0,5	2,917100
13,933500	0,5	2,917750
13,941833	0,5	2,916950
13,950167	0,5	2,922950
13,958500	0,5	2,922200
13,966833	0,5	2,930950
13,975167	0,5	2,929650
13,983500	0,5	2,930750
13,991833	0,5	2,928900
14,000167	0,5	2,930100
14,008500	0,5	2,930300
14,016833	0,5	2,928750
14,025167	0,5	2,930450
14,033500	0,5	2,937200
14,041833	0,5	2,934450
14,050167	0,5	2,932300
14,058500	0,5	2,924950
14,066833	0,5	2,929950
14,075167	0,5	2,935850
14,083500	0,5	2,936800
14,091833	0,5	2,946200
14,100167	0,5	2,948500
14,108500	0,5	2,953050
14,116833	0,5	2,952700
14,125167	0,5	2,956800
14,133500	0,5	2,957800
14,141833	0,5	2,960900
14,150167	0,5	2,966650
14,158500	0,5	2,968850
14,166833	0,5	2,970750
14,175167	0,5	2,987550
14,183500	0,5	2,994000
14,191833	0,5	3,000450
14,200167	0,5	2,993800
14,208500	0,5	2,997350
14,216833	0,5	3,009400
14,225167	0,5	3,018800
14,233500	0,5	3,026700
14,241833	0,5	3,037000
14,250167	0,5	3,051050
14,258500	0,5	3,059450
14,266833	0,5	3,073250
14,275167	0,5	3,083050
14,283500	0,5	3,092600
14,291833	0,5	3,103850
14,300167	0,5	3,122400
14,308500	0,5	3,116400
14,316833	0,5	3,134650
14,325167	0,5	3,143000
14,333500	0,5	3,154450
14,341833	0,5	3,154350
14,350167	0,5	3,157500
14,358500	0,5	3,165150
14,366833	0,5	3,183000
14,375167	0,5	3,189400
14,383500	0,5	3,202050
14,391833	0,5	3,202350
14,400167	0,5	3,207900
14,408500	0,5	3,206500
14,416833	0,5	3,208300
14,425167	0,5	3,210600
14,433500	0,5	3,208250
14,441833	0,5	3,211850
14,450167	0,5	3,218000
14,458500	0,5	3,202950
14,466833	0,5	3,208050
14,475167	0,5	3,201250
14,483500	0,5	3,186750
14,491833	0,5	3,172750
14,500167	0,5	3,145700
14,508500	0,5	3,146800
14,516833	0,5	3,137150
14,525167	0,5	3,131300
14,533500	0,5	3,123200
14,541833	0,5	3,116100
14,550167	0,5	3,107200
14,558500	0,5	3,102200
14,566833	0,5	3,092900
14,575167	0,5	3,085650
14,583500	0,5	3,080850
14,591833	0,5	3,071200
14,600167	0,5	3,064950
14,608500	0,5	3,045500
14,616833	0,5	3,050750
14,625167	0,5	3,039750
14,633500	0,5	3,028600
14,641833	0,5	3,010500
14,650167	0,5	2,997850
14,658500	0,5	2,989800
14,666833	0,5	2,990650
14,675167	0,5	2,976500
14,683500	0,5	2,968100
14,691833	0,5	2,956950
14,700167	0,5	2,950750
14,708500	0,5	2,943250
14,716833	0,5	2,939150
14,725167	0,5	2,927750
14,733500	0,5	2,915700
14,741833	0,5	2,911650
14,750167	0,5	2,899400
14,758500	0,5	2,894700
14,766833	0,5	2,900300
14,775167	0,5	2,890700
14,783500	0,5	2,885550
14,791833	0,5	2,872100
14,800167	0,5	2,861450
14,808500	0,5	2,868350
14,816833	0,5	2,869550
14,825167	0,5	2,875600
14,833500	0,5	2,878450
14,841833	0,5	2,887450
14,850167	0,5	2,891300
14,858500	0,5	2,894100
14,866833	0,5	2,889400
14,875167	0,5	2,878800
14,883500	0,5	2,876600
14,891833	0,5	2,862550
14,900167	0,5	2,840000
14,908500	0,5	2,838200
14,916833	0,5	2,836550
14,925167	0,5	2,828200
14,933500	0,5	2,828400
14,941833	0,5	2,817150
14,950167	0,5	2,826450
14,958500	0,5	2,846500
14,966833	0,5	2,860750
14,975167	0,5	2,869250
14,983500	0,5	2,871150
14,991833	0,5	2,858300
15,000167	0,5	2,837900
15,008500	0,5	2,811400
15,016833	0,5	2,795450
15,025167	0,5	2,790600
15,033500	0,5	2,813500
15,041833	0,5	2,836250
15,050167	0,5	2,871550
15,058500	0,5	2,903600
15,066833	0,5	2,907800
15,075167	0,5	2,883800
15,083500	0,5	2,834200
15,091833	0,5	2,779150
15,100167	0,5	2,734050
15,108500	0,5	2,699850
15,116833	0,5	2,680550
15,125167	0,5	2,669500
15,133500	0,5	2,659600
15,141833	0,5	2,651850
15,150167	0,5	2,627550
15,158500	0,5	2,599200
15,166833	0,5	2,558850
15,175167	0,5	2,530700
15,183500	0,5	2,502650
15,191833	0,5	2,475200
15,200167	0,5	2,461550
15,208500	0,5	2,453100
15,216833	0,5	2,438800
15,225167	0,5	2,423650
15,233500	0,5	2,393650
15,241833	0,5	2,385000
15,250167	0,5	2,379800
15,258500	0,5	2,367600
15,266833	0,5	2,361950
15,275167	0,5	2,361550
15,283500	0,5	2,360300
15,291833	0,5	2,356500
15,300167	0,5	2,351750
15,308500	0,5	2,340350
15,316833	0,5	2,331350
15,325167	0,5	2,315150
15,333500	0,5	2,313800
15,341833	0,5	2,290450
15,350167	0,5	2,296400
15,358500	0,5	2,289300
15,366833	0,5	2,284350
15,375167	0,5	2,273700
15,383500	0,5	2,256550
15,391833	0,5	2,253600
15,400167	0,5	2,250500
15,408500	0,5	2,233200
15,416833	0,5	2,228050
15,425167	0,5	2,219900
15,433500	0,5	2,212050
15,441833	0,5	2,203550
15,450167	0,5	2,195500
15,458500	0,5	2,186800
15,466833	0,5	2,176550
15,475167	0,5	2,177800
15,483500	0,5	2,166550
15,491833	0,5	2,145050
15,500167	0,5	2,147200
15,508500	0,5	2,140050
15,516833	0,5	2,129150
15,525167	0,5	2,113250
15,533500	0,5	2,086950
15,541833	0,5	2,089450
15,550167	0,5	2,081300
15,558500	0,5	2,075000
15,566833	0,5	2,066850
15,575167	0,5	2,067000
15,583500	0,5	2,059900
15,591833	0,5	2,055300
15,600167	0,5	2,048350
15,608500	0,5	2,044850
15,616833	0,5	2,043150
15,625167	0,5	2,037650
15,633500	0,5	2,039550
15,641833	0,5	2,035800
15,650167	0,5	2,043550
15,658500	0,5	2,037800
15,666833	0,5	2,034200
15,675167	0,5	2,022750
15,683500	0,5	2,014650
15,691833	0,5	2,011200
15,700167	0,5	2,010700
15,708500	0,5	1,994600
15,716833	0,5	1,987600
15,725167	0,5	1,966350
15,733500	0,5	1,955050
15,741833	0,5	1,937950
15,750167	0,5	1,930750
15,758500	0,5	1,919650
15,766833	0,5	1,909100
15,775167	0,5	1,901800
15,783500	0,5	1,891150
15,791833	0,5	1,890800
15,800167	0,5	1,896800
15,808500	0,5	1,889100
15,816833	0,5	1,876000
15,825167	0,5	1,856450
15,833500	0,5	1,832850
15,841833	0,5	1,829250
15,850167	0,5	1,807900
15,858500	0,5	1,802150
15,866833	0,5	1,787250
15,875167	0,5	1,784650
15,883500	0,5	1,774750
15,891833	0,5	1,765250
15,900167	0,5	1,756700
15,908500	0,5	1,747100
15,916833	0,5	1,746050
15,925167	0,5	1,738450
15,933500	0,5	1,719600
15,941833	0,5	1,722650
15,950167	0,5	1,718150
15,958500	0,5	1,707500
15,966833	0,5	1,693700
15,975167	0,5	1,679600
15,983500	0,5	1,677500
15,991833	0,5	1,675900
16,000167	0,5	1,674350
16,008500	0,5	1,667400
16,016833	0,5	1,663300
16,025167	0,5	1,657200
16,033500	0,5	1,652850
16,041833	0,5	1,648150
16,050167	0,5	1,644550
16,058500	0,5	1,641300
16,066833	0,5	1,647600
16,075167	0,5	1,625350
16,083500	0,5	1,627300
16,091833	0,5	1,621200
16,100167	0,5	1,618600
16,108500	0,5	1,612400
16,116833	0,5	1,592450
16,125167	0,5	1,586200
16,133500	0,5	1,579700
16,141833	0,5	1,573200
16,150167	0,5	1,564300
16,158500	0,5	1,560900
16,166833	0,5	1,550500
16,175167	0,5	1,541050
16,183500	0,5	1,530800
16,191833	0,5	1,525650
16,200167	0,5	1,510700
16,208500	0,5	1,508250
16,216833	0,5	1,501200
16,225167	0,5	1,483250
16,233500	0,5	1,487750
16,241833	0,5	1,488550
16,250167	0,5	1,483150
16,258500	0,5	1,472600
16,266833	0,5	1,451700
16,275167	0,5	1,453500
16,283500	0,5	1,447000
16,291833	0,5	1,443150
16,300167	0,5	1,429850
16,308500	0,5	1,424650
16,316833	0,5	1,410650
16,325167	0,5	1,404000
16,333500	0,5	1,392250
16,341833	0,5	1,380100
16,350167	0,5	1,372600
16,358500	0,5	1,363750
16,366833	0,5	1,362000
16,375167	0,5	1,336300
16,383500	0,5	1,346450
16,391833	0,5	1,336000
16,400167	0,5	1,329400
16,408500	0,5	1,319350
16,416833	0,5	1,298350
16,425167	0,5	1,301750
16,433500	0,5	1,301050
16,441833	0,5	1,292550
16,450167	0,5	1,294200
16,458500	0,5	1,286600
16,466833	0,5	1,284300
16,475167	0,5	1,288150
16,483500	0,5	1,288900
16,491833	0,5	1,284750
16,500167	0,5	1,279300
16,508500	0,5	1,282250
16,516833	0,5	1,273800
16,525167	0,5	1,261800
16,533500	0,5	1,260650
16,541833	0,5	1,245350
16,550167	0,5	1,230050
16,558500	0,5	1,209950
16,566833	0,5	1,190100
16,575167	0,5	1,188250
16,583500	0,5	1,174950
16,591833	0,5	1,172650
16,600167	0,5	1,164650
16,608500	0,5	1,165950
16,616833	0,5	1,152550
16,625167	0,5	1,149650
16,633500	0,5	1,142600
16,641833	0,5	1,135050
16,650167	0,5	1,136350
16,658500	0,5	1,129150
16,666833	0,5	1,114900
16,675167	0,5	1,102550
16,683500	0,5	1,102750
16,691833	0,5	1,089400
16,700167	0,5	1,074450
16,708500	0,5	1,052850
16,716833	0,5	1,047750
16,725167	0,5	1,042600
16,733500	0,5	1,041400
16,741833	0,5	1,031150
16,750167	0,5	1,029100
16,758500	0,5	1,021500
16,766833	0,5	1,021700
16,775167	0,5	1,017300
16,783500	0,5	1,013850
16,791833	0,5	1,007250
16,800167	0,5	1,009350
16,808500	0,5	1,004800
16,816833	0,5	0,992000
16,825167	0,5	0,993300
16,833500	0,5	0,992150
16,841833	0,5	0,984200
16,850167	0,5	0,968100
16,858500	0,5	0,954750
16,866833	0,5	0,945550
16,875167	0,5	0,946300
16,883500	0,5	0,939650
16,891833	0,5	0,940750
16,900167	0,5	0,933650
16,908500	0,5	0,940200
16,916833	0,5	0,936400
16,925167	0,5	0,942600
16,933500	0,5	0,940700
16,941833	0,5	0,946900
16,950167	0,5	0,955300
16,958500	0,5	0,953200
16,966833	0,5	0,954250
16,975167	0,5	0,974400
16,983500	0,5	0,979300
16,991833	0,5	0,980000
17,000167	0,5	0,966600
17,008500	0,5	0,969800
17,016833	0,5	0,980650
17,025167	0,5	0,984800
17,033500	0,5	0,992850
17,041833	0,5	0,994150
17,050167	0,5	1,007900
17,058500	0,5	1,010100
17,066833	0,5	1,022750
17,075167	0,5	1,030650
17,083500	0,5	1,053350
17,091833	0,5	1,073100
17,100167	0,5	1,092900
17,108500	0,5	1,089950
17,116833	0,5	1,117900
17,125167	0,5	1,132000
17,133500	0,5	1,132850
17,141833	0,5	1,126950
17,150167	0,5	1,100900
17,158500	0,5	1,099300
17,166833	0,5	1,092550
17,175167	0,5	1,086750
17,183500	0,5	1,080850
17,191833	0,5	1,082450
17,200167	0,5	1,081600
17,208500	0,5	1,082850
17,216833	0,5	1,079150
17,225167	0,5	1,074550
17,233500	0,5	1,068550
17,241833	0,5	1,075750
17,250167	0,5	1,071200
17,258500	0,5	1,059750
17,266833	0,5	1,067600
17,275167	0,5	1,073300
17,283500	0,5	1,068950
17,291833	0,5	1,068300
17,300167	0,5	1,051350
17,308500	0,5	1,062600
17,316833	0,5	1,066900
17,325167	0,5	1,066350
17,333500	0,5	1,063300
17,341833	0,5	1,058350
17,350167	0,5	1,050300
17,358500	0,5	1,044600
17,366833	0,5	1,039550
17,375167	0,5	1,029050
17,383500	0,5	1,022300
17,391833	0,5	1,024750
17,400167	0,5	1,014400
17,408500	0,5	0,997250
17,416833	0,5	1,005400
17,425167	0,5	0,996700
17,433500	0,5	0,990500
17,441833	0,5	0,977950
17,450167	0,5	0,967550
17,458500	0,5	0,972400
17,466833	0,5	0,972100
17,475167	0,5	0,965550
17,483500	0,5	0,962450
17,491833	0,5	0,956400
17,500167	0,5	0,951150
17,508500	0,5	0,945200
17,516833	0,5	0,934150
17,525167	0,5	0,924550
17,533500	0,5	0,915200
17,541833	0,5	0,910400
17,550167	0,5	0,884850
17,558500	0,5	0,873250
17,566833	0,5	0,861900
17,575167	0,5	0,845800
17,583500	0,5	0,823950
17,591833	0,5	0,797400
17,600167	0,5	0,778650
17,608500	0,5	0,772200
17,616833	0,5	0,759950
17,625167	0,5	0,754000
17,633500	0,5	0,743350
17,641833	0,5	0,743900
17,650167	0,5	0,739450
17,658500	0,5	0,742850
17,666833	0,5	0,743650
17,675167	0,5	0,754250
17,683500	0,5	0,782800
17,691833	0,5	0,798800
17,700167	0,5	0,810900
17,708500	0,5	0,832100
17,716833	0,5	0,849700
17,725167	0,5	0,852000
17,733500	0,5	0,842150
17,741833	0,5	0,821400
17,750167	0,5	0,802900
17,758500	0,5	0,772500
17,766833	0,5	0,745600
17,775167	0,5	0,704750
17,783500	0,5	0,671900
17,791833	0,5	0,631700
17,800167	0,5	0,605950
17,808500	0,5	0,576350
17,816833	0,5	0,554800
17,825167	0,5	0,538700
17,833500	0,5	0,531900
17,841833	0,5	0,508150
17,850167	0,5	0,493000
17,858500	0,5	0,486950
17,866833	0,5	0,474050
17,875167	0,5	0,463850
17,883500	0,5	0,436150
17,891833	0,5	0,423600
17,900167	0,5	0,411500
17,908500	0,5	0,406550
17,916833	0,5	0,402350
17,925167	0,5	0,400750
17,933500	0,5	0,394550
17,941833	0,5	0,392750
17,950167	0,5	0,388100
17,958500	0,5	0,379950
17,966833	0,5	0,370050
17,975167	0,5	0,372000
17,983500	0,5	0,364200
17,991833	0,5	0,343100
18,000167	0,5	0,342550
18,008500	0,5	0,341500
18,016833	0,5	0,329550
18,025167	0,5	0,314050
18,033500	0,5	0,286600
18,041833	0,5	0,281450
18,050167	0,5	0,284850
18,058500	0,5	0,271750
18,066833	0,5	0,266600
18,075167	0,5	0,255350
18,083500	0,5	0,251050
18,091833	0,5	0,239750
18,100167	0,5	0,238200
18,108500	0,5	0,225200
18,116833	0,5	0,217900
18,125167	0,5	0,215700
18,133500	0,5	0,209600
18,141833	0,5	0,183200
18,150167	0,5	0,189300
18,158500	0,5	0,181050
18,166833	0,5	0,165450
18,175167	0,5	0,154350
18,183500	0,5	0,131200
18,191833	0,5	0,140250
18,200167	0,5	0,127200
18,208500	0,5	0,118650
18,216833	0,5	0,108100
18,225167	0,5	0,104900
18,233500	0,5	0,093650
18,241833	0,5	0,091450
18,250167	0,5	0,082150
18,258500	0,5	0,072700
18,266833	0,5	0,062900
18,275167	0,5	0,066950
18,283500	0,5	0,047550
18,291833	0,5	0,032500
18,300167	0,5	0,031900
18,308500	0,5	0,028300
18,316833	0,5	0,010900
18,325167	0,5	-0,011100
18,333500	0,5	-0,022400
18,341833	0,5	-0,023900
18,350167	0,5	-0,029200
18,358500	0,5	-0,039650
18,366833	0,5	-0,043850
18,375167	0,5	-0,051750
18,383500	0,5	-0,053750
18,391833	0,5	-0,061600
18,400167	0,5	-0,068700
18,408500	0,5	-0,078750
18,416833	0,5	-0,079350
18,425167	0,5	-0,079850
18,433500	0,5	-0,091500
18,441833	0,5	-0,094300
18,450167	0,5	-0,095550
18,458500	0,5	-0,103700
18,466833	0,5	-0,110350
18,475167	0,5	-0,136050
18,483500	0,5	-0,136800
18,491833	0,5	-0,131650
18,500167	0,5	-0,135500
18,508500	0,5	-0,142850
18,516833	0,5	-0,144700
18,525167	0,5	-0,150650
18,533500	0,5	-0,149500
18,541833	0,5	-0,151300
18,550167	0,5	-0,159550
18,558500	0,5	-0,160100
18,566833	0,5	-0,164600
18,575167	0,5	-0,161200
18,583500	0,5	-0,179050
18,591833	0,5	-0,163600
18,600167	0,5	-0,171400
18,608500	0,5	-0,170000
18,616833	0,5	-0,186150
18,625167	0,5	-0,200850
18,633500	0,5	-0,202800
18,641833	0,5	-0,197000
18,650167	0,5	-0,200150
18,658500	0,5	-0,190800
18,666833	0,5	-0,189700
18,675167	0,5	-0,185300
18,683500	0,5	-0,181000
18,691833	0,5	-0,177000
18,700167	0,5	-0,170550
18,708500	0,5	-0,163650
18,716833	0,5	-0,149900
18,725167	0,5	-0,150850
18,733500	0,5	-0,151100
18,741833	0,5	-0,138600
18,750167	0,5	-0,145050
18,758500	0,5	-0,152800
18,766833	0,5	-0,164000
18,775167	0,5	-0,178750
18,783500	0,5	-0,175400
18,791833	0,5	-0,184000
18,800167	0,5	-0,187950
18,808500	0,5	-0,197250
18,816833	0,5	-0,200450
18,825167	0,5	-0,213900
18,833500	0,5	-0,219250
18,841833	0,5	-0,224650
18,850167	0,5	-0,237550
18,858500	0,5	-0,235300
18,866833	0,5	-0,242850
18,875167	0,5	-0,268350
18,883500	0,5	-0,269800
18,891833	0,5	-0,273050
18,900167	0,5	-0,286900
18,908500	0,5	-0,296750
18,916833	0,5	-0,325200
18,925167	0,5	-0,332000
18,933500	0,5	-0,343800
18,941833	0,5	-0,343950
18,950167	0,5	-0,359000
18,958500	0,5	-0,358300
18,966833	0,5	-0,367650
18,975167	0,5	-0,369950
18,983500	0,5	-0,376350
18,991833	0,5	-0,386600
19,000167	0,5	-0,388150
19,008500	0,5	-0,387400
19,016833	0,5	-0,397200
19,025167	0,5	-0,410250
19,033500	0,5	-0,401650
19,041833	0,5	-0,402150
19,050167	0,5	-0,406750
19,058500	0,5	-0,417350
19,066833	0,5	-0,427500
19,075167	0,5	-0,431100
19,083500	0,5	-0,423650
19,091833	0,5	-0,433150
19,100167	0,5	-0,438550
19,108500	0,5	-0,446000
19,116833	0,5	-0,448550
19,125167	0,5	-0,458150
19,133500	0,5	-0,460550
19,141833	0,5	-0,467850
19,150167	0,5	-0,476350
19,158500	0,5	-0,474900
19,166833	0,5	-0,499100
19,175167	0,5	-0,503850
19,183500	0,5	-0,507050
19,191833	0,5	-0,516600
19,200167	0,5	-0,536150
19,208500	0,5	-0,554250
19,216833	0,5	-0,565600
19,225167	0,5	-0,562100
19,233500	0,5	-0,578450
19,241833	0,5	-0,579750
19,250167	0,5	-0,595150
19,258500	0,5	-0,594800
19,266833	0,5	-0,605100
19,275167	0,5	-0,606650
19,283500	0,5	-0,610350
19,291833	0,5	-0,618250
19,300167	0,5	-0,620800
19,308500	0,5	-0,623600
19,316833	0,5	-0,651800
19,325167	0,5	-0,641400
19,333500	0,5	-0,646400
19,341833	0,5	-0,648950
19,350167	0,5	-0,660950
19,358500	0,5	-0,683400
19,366833	0,5	-0,676600
19,375167	0,5	-0,681350
19,383500	0,5	-0,671400
19,391833	0,5	-0,673250
19,400167	0,5	-0,661950
19,408500	0,5	-0,657900
19,416833	0,5	-0,640350
19,425167	0,5	-0,637850
19,433500	0,5	-0,632900
19,441833	0,5	-0,636350
19,450167	0,5	-0,642500
19,458500	0,5	-0,663600
19,466833	0,5	-0,697600
19,475167	0,5	-0,710450
19,483500	0,5	-0,733350
19,491833	0,5	-0,754700
19,500167	0,5	-0,778750
19,508500	0,5	-0,803700
19,516833	0,5	-0,806900
19,525167	0,5	-0,811800
19,533500	0,5	-0,820200
19,541833	0,5	-0,825100
19,550167	0,5	-0,836550
19,558500	0,5	-0,839200
19,566833	0,5	-0,845700
19,575167	0,5	-0,847900
19,583500	0,5	-0,856350
19,591833	0,5	-0,856250
19,600167	0,5	-0,859400
19,608500	0,5	-0,869350
19,616833	0,5	-0,874900
19,625167	0,5	-0,868000
19,633500	0,5	-0,878350
19,641833	0,5	-0,890100
19,650167	0,5	-0,912250
19,658500	0,5	-0,922750
19,666833	0,5	-0,915450
19,675167	0,5	-0,922400
19,683500	0,5	-0,918300
19,691833	0,5	-0,914900
19,700167	0,5	-0,903350
19,708500	0,5	-0,897000
19,716833	0,5	-0,885500
19,725167	0,5	-0,879150
19,733500	0,5	-0,870250
19,741833	0,5	-0,853050
19,750167	0,5	-0,836050
19,758500	0,5	-0,834850
19,766833	0,5	-0,811400
19,775167	0,5	-0,801250
19,783500	0,5	-0,805550
19,791833	0,5	-0,828250
19,800167	0,5	-0,864550
19,808500	0,5	-0,891550
19,816833	0,5	-0,922350
19,825167	0,5	-0,948650
19,833500	0,5	-0,973250
19,841833	0,5	-0,987800
19,850167	0,5	-1,004700
19,858500	0,5	-1,009100
19,866833	0,5	-1,013050
19,875167	0,5	-1,013850
19,883500	0,5	-1,022250
19,891833	0,5	-1,008200
19,900167	0,5	-1,020450
19,908500	0,5	-1,019600
19,916833	0,5	-1,015800
19,925167	0,5	-1,013350
19,933500	0,5	-1,019000
19,941833	0,5	-1,032100
19,950167	0,5	-1,030950
19,958500	0,5	-1,025650
19,966833	0,5	-1,018150
19,975167	0,5	-1,003350
19,983500	0,5	-0,990100
19,991833	0,5	-0,983350
20,000167	0,5	-0,985950
20,008500	0,5	-1,000800
20,016833	0,5	-1,021350
20,025167	0,5	-1,049900
20,033500	0,5	-1,064900
20,041833	0,5	-1,081900
20,050167	0,5	-1,115150
20,058500	0,5	-1,119150
20,066833	0,5	-1,128150
20,075167	0,5	-1,141200
20,083500	0,5	-1,151350
20,091833	0,5	-1,182350
20,100167	0,5	-1,179250
20,108500	0,5	-1,180200
20,116833	0,5	-1,180700
20,125167	0,5	-1,182900
20,133500	0,5	-1,183300
20,141833	0,5	-1,181850
20,150167	0,5	-1,177050
20,158500	0,5	-1,170450
20,166833	0,5	-1,170350
20,175167	0,5	-1,154000
20,183500	0,5	-1,132250
20,191833	0,5	-1,112250
20,200167	0,5	-1,111750
20,208500	0,5	-1,076600
20,216833	0,5	-1,063250
20,225167	0,5	-1,046300
20,233500	0,5	-1,044150
20,241833	0,5	-1,036300
20,250167	0,5	-1,023150
20,258500	0,5	-1,031100
20,266833	0,5	-1,066550
20,275167	0,5	-1,107950
20,283500	0,5	-1,138450
20,291833	0,5	-1,173900
20,300167	0,5	-1,189300
20,308500	0,5	-1,204650
20,316833	0,5	-1,208200
20,325167	0,5	-1,209050
20,333500	0,5	-1,198100
20,341833	0,5	-1,203350
20,350167	0,5	-1,204450
20,358500	0,5	-1,197700
20,366833	0,5	-1,196250
20,375167	0,5	-1,206550
20,383500	0,5	-1,212900
20,391833	0,5	-1,208800
20,400167	0,5	-1,192400
20,408500	0,5	-1,188700
20,416833	0,5	-1,181800
20,425167	0,5	-1,187000
20,433500	0,5	-1,193600
20,441833	0,5	-1,208150
20,450167	0,5	-1,215000
20,458500	0,5	-1,223100
20,466833	0,5	-1,228800
20,475167	0,5	-1,212950
20,483500	0,5	-1,205750
20,491833	0,5	-1,217000
20,500167	0,5	-1,215400
20,508500	0,5	-1,210650
20,516833	0,5	-1,211650
20,525167	0,5	-1,216850
20,533500	0,5	-1,230100
20,541833	0,5	-1,220650
20,550167	0,5	-1,216500
20,558500	0,5	-1,214550
20,566833	0,5	-1,221250
20,575167	0,5	-1,212850
20,583500	0,5	-1,213300
20,591833	0,5	-1,202100
20,600167	0,5	-1,189050
20,608500	0,5	-1,177400
20,616833	0,5	-1,165950
20,625167	0,5	-1,159300
20,633500	0,5	-1,174600
20,641833	0,5	-1,199200
20,650167	0,5	-1,208250
20,658500	0,5	-1,227950
20,666833	0,5	-1,239550
20,675167	0,5	-1,270700
20,683500	0,5	-1,284550
20,691833	0,5	-1,291600
20,700167	0,5	-1,282200
20,708500	0,5	-1,286100
20,716833	0,5	-1,285000
20,725167	0,5	-1,292500
20,733500	0,5	-1,293100
20,741833	0,5	-1,298500
20,750167	0,5	-1,304350
20,758500	0,5	-1,308800
20,766833	0,5	-1,294450
20,775167	0,5	-1,285100
20,783500	0,5	-1,289000
20,791833	0,5	-1,290950
20,800167	0,5	-1,290350
20,808500	0,5	-1,301300
20,816833	0,5	-1,312000
20,825167	0,5	-1,326650
20,833500	0,5	-1,328900
20,841833	0,5	-1,321300
20,850167	0,5	-1,322150
20,858500	0,5	-1,310100
20,866833	0,5	-1,307300
20,875167	0,5	-1,297150
20,883500	0,5	-1,295750
20,891833	0,5	-1,290450
20,900167	0,5	-1,296850
20,908500	0,5	-1,300900
20,916833	0,5	-1,279250
20,925167	0,5	-1,265600
20,933500	0,5	-1,277100
20,941833	0,5	-1,279950
20,950167	0,5	-1,278150
20,958500	0,5	-1,292350
20,966833	0,5	-1,299450
20,975167	0,5	-1,313050
20,983500	0,5	-1,300350
20,991833	0,5	-1,307800
21,000167	0,5	-1,301750
21,008500	0,5	-1,307200
21,016833	0,5	-1,299250
21,025167	0,5	-1,298650
21,033500	0,5	-1,289750
21,041833	0,5	-1,286900
21,050167	0,5	-1,282600
21,058500	0,5	-1,260300
21,066833	0,5	-1,233950
21,075167	0,5	-1,234650
21,083500	0,5	-1,241750
21,091833	0,5	-1,244800
21,100167	0,5	-1,251650
21,108500	0,5	-1,261850
21,116833	0,5	-1,286400
21,125167	0,5	-1,278900
21,133500	0,5	-1,278650
21,141833	0,5	-1,270750
21,150167	0,5	-1,275800
21,158500	0,5	-1,264500
21,166833	0,5	-1,266200
21,175167	0,5	-1,257150
21,183500	0,5	-1,256400
21,191833	0,5	-1,246550
21,200167	0,5	-1,239600
21,208500	0,5	-1,210700
21,216833	0,5	-1,195100
21,225167	0,5	-1,199000
21,233500	0,5	-1,198000
21,241833	0,5	-1,206550
21,250167	0,5	-1,214500
21,258500	0,5	-1,225150
21,266833	0,5	-1,233100
21,275167	0,5	-1,229650
21,283500	0,5	-1,214500
21,291833	0,5	-1,221800
21,300167	0,5	-1,213500
21,308500	0,5	-1,212400
21,316833	0,5	-1,206500
21,325167	0,5	-1,203450
21,333500	0,5	-1,194600
21,341833	0,5	-1,189500
21,350167	0,5	-1,181150
21,358500	0,5	-1,152000
21,366833	0,5	-1,134650
21,375167	0,5	-1,143050
21,383500	0,5	-1,143400
21,391833	0,5	-1,141900
21,400167	0,5	-1,156500
21,408500	0,5	-1,167000
21,416833	0,5	-1,163850
21,425167	0,5	-1,150550
21,433500	0,5	-1,150350
21,441833	0,5	-1,138750
21,450167	0,5	-1,139850
21,458500	0,5	-1,128350
21,466833	0,5	-1,128950
21,475167	0,5	-1,117450
21,483500	0,5	-1,109350
21,491833	0,5	-1,104450
21,500167	0,5	-1,067850
21,508500	0,5	-1,042450
21,516833	0,5	-1,032600
21,525167	0,5	-1,023300
21,533500	0,5	-1,010800
21,541833	0,5	-0,997150
21,550167	0,5	-0,977900
21,558500	0,5	-0,958750
21,566833	0,5	-0,916900
21,575167	0,5	-0,881050
21,583500	0,5	-0,859000
21,591833	0,5	-0,860750
21,600167	0,5	-0,867250
21,608500	0,5	-0,882050
21,616833	0,5	-0,885850
21,625167	0,5	-0,890900
21,633500	0,5	-0,887400
21,641833	0,5	-0,879400
21,650167	0,5	-0,848650
21,658500	0,5	-0,839350
21,666833	0,5	-0,840100
21,675167	0,5	-0,832300
21,683500	0,5	-0,833150
21,691833	0,5	-0,831650
21,700167	0,5	-0,838750
21,708500	0,5	-0,827600
21,716833	0,5	-0,816250
21,725167	0,5	-0,792900
21,733500	0,5	-0,781150
21,741833	0,5	-0,752500
21,750167	0,5	-0,737050
21,758500	0,5	-0,707250
21,766833	0,5	-0,687450
21,775167	0,5	-0,658750
21,783500	0,5	-0,640000
21,791833	0,5	-0,603350
21,800167	0,5	-0,577350
21,808500	0,5	-0,567750
21,816833	0,5	-0,556150
21,825167	0,5	-0,535450
21,833500	0,5	-0,526350
21,841833	0,5	-0,519550
21,850167	0,5	-0,511400
21,858500	0,5	-0,497100
21,866833	0,5	-0,477750
21,875167	0,5	-0,466500
21,883500	0,5	-0,444450
21,891833	0,5	-0,432550
21,900167	0,5	-0,408750
21,908500	0,5	-0,390550
21,916833	0,5	-0,365350
21,925167	0,5	-0,349150
21,933500	0,5	-0,329100
21,941833	0,5	-0,291350
21,950167	0,5	-0,271150
21,958500	0,5	-0,258350
21,966833	0,5	-0,232250
21,975167	0,5	-0,208800
21,983500	0,5	-0,191950
21,991833	0,5	-0,177750
22,000167	0,5	-0,158900
22,008500	0,5	-0,129700
22,016833	0,5	-0,111450
22,025167	0,5	-0,085700
22,033500	0,5	-0,069300
22,041833	0,5	-0,041600
22,050167	0,5	-0,018750
22,058500	0,5	0,016050
22,066833	0,5	0,036800
22,075167	0,5	0,066750
22,083500	0,5	0,096750
22,091833	0,5	0,140300
22,100167	0,5	0,156150
22,108500	0,5	0,209850
22,116833	0,5	0,251100
22,125167	0,5	0,287750
22,133500	0,5	0,325550
22,141833	0,5	0,346000
22,150167	0,5	0,398300
22,158500	0,5	0,424850
22,166833	0,5	0,471700
22,175167	0,5	0,499450
22,183500	0,5	0,542450
22,191833	0,5	0,571800
22,200167	0,5	0,614450
22,208500	0,5	0,656950
22,216833	0,5	0,698450
22,225167	0,5	0,740150
22,233500	0,5	0,773600
22,241833	0,5	0,816950
22,250167	0,5	0,860700
22,258500	0,5	0,921100
22,266833	0,5	0,964700
22,275167	0,5	1,008400
22,283500	0,5	1,042550
22,291833	0,5	1,078800
22,300167	0,5	1,126000
22,308500	0,5	1,177300
22,316833	0,5	1,216500
22,325167	0,5	1,266850
22,333500	0,5	1,314250
22,341833	0,5	1,371100
22,350167	0,5	1,420550
22,358500	0,5	1,473050
22,366833	0,5	1,522900
22,375167	0,5	1,557000
22,383500	0,5	1,610750
22,391833	0,5	1,656300
22,400167	0,5	1,727450
22,408500	0,5	1,795750
22,416833	0,5	1,857850
22,425167	0,5	1,911400
22,433500	0,5	1,962450
22,441833	0,5	2,023050
22,450167	0,5	2,100900
22,458500	0,5	2,159100
22,466833	0,5	2,229250
22,475167	0,5	2,291700
22,483500	0,5	2,362300
22,491833	0,5	2,425500
22,500167	0,5	2,491000
22,508500	0,5	2,549200
22,516833	0,5	2,606750
22,525167	0,5	2,640000
22,533500	0,5	2,710150
22,541833	0,5	2,775200
22,550167	0,5	2,848300
22,558500	0,5	2,900800
22,566833	0,5	2,948400
22,575167	0,5	2,978850
22,583500	0,5	3,013300
22,591833	0,5	3,056150
22,600167	0,5	3,088750
22,608500	0,5	3,120700
22,616833	0,5	3,138700
22,625167	0,5	3,163350
22,633500	0,5	3,170850
22,641833	0,5	3,187200
22,650167	0,5	3,185600
22,658500	0,5	3,181300
22,666833	0,5	3,155100
22,675167	0,5	3,104900
22,683500	0,5	3,074900
22,691833	0,5	3,057900
22,700167	0,5	3,018700
22,708500	0,5	2,954550
22,716833	0,5	2,881400
22,725167	0,5	2,788100
22,733500	0,5	2,703950
22,741833	0,5	2,611900
22,750167	0,5	2,527650
22,758500	0,5	2,428300
22,766833	0,5	2,337450
22,775167	0,5	2,239750
22,783500	0,5	2,136600
22,791833	0,5	2,023050
22,800167	0,5	1,907200
22,808500	0,5	1,774950
22,816833	0,5	1,609950
22,825167	0,5	1,454750
22,833500	0,5	1,321550
22,841833	0,5	1,179050
22,850167	0,5	1,016200
22,858500	0,5	0,853500
22,866833	0,5	0,699850
22,875167	0,5	0,542150
22,883500	0,5	0,387000
22,891833	0,5	0,232850
22,900167	0,5	0,093050
22,908500	0,5	-0,047200
22,916833	0,5	-0,177150
22,925167	0,5	-0,312800
22,933500	0,5	-0,442350
22,941833	0,5	-0,578500
22,950167	0,5	-0,699550
22,958500	0,5	-0,820300
22,966833	0,5	-0,938650
22,975167	0,5	-1,054750
22,983500	0,5	-1,186000
22,991833	0,5	-1,323750
23,000167	0,5	-1,427800
23,008500	0,5	-1,521200
23,016833	0,5	-1,606750
23,025167	0,5	-1,692950
23,033500	0,5	-1,780050
23,041833	0,5	-1,844300
23,050167	0,5	-1,912250
23,058500	0,5	-1,969900
23,066833	0,5	-2,027400
23,075167	0,5	-2,073700
23,083500	0,5	-2,135350
23,091833	0,5	-2,179500
23,100167	0,5	-2,229600
23,108500	0,5	-2,244050
23,116833	0,5	-2,289550
23,125167	0,5	-2,330500
23,133500	0,5	-2,395350
23,141833	0,5	-2,444150
23,150167	0,5	-2,478800
23,158500	0,5	-2,488750
23,166833	0,5	-2,495000
23,175167	0,5	-2,513550
23,183500	0,5	-2,521950
23,191833	0,5	-2,523750
23,200167	0,5	-2,514950
23,208500	0,5	-2,510150
23,216833	0,5	-2,498200
23,225167	0,5	-2,492950
23,233500	0,5	-2,477950
23,241833	0,5	-2,471450
23,250167	0,5	-2,461550
23,258500	0,5	-2,465400
23,266833	0,5	-2,441300
23,275167	0,5	-2,423650
23,283500	0,5	-2,444150
23,291833	0,5	-2,449400
23,300167	0,5	-2,440200
23,308500	0,5	-2,425800
23,316833	0,5	-2,397350
23,325167	0,5	-2,388350
23,333500	0,5	-2,363600
23,341833	0,5	-2,341100
23,350167	0,5	-2,305800
23,358500	0,5	-2,278150
23,366833	0,5	-2,244450
23,375167	0,5	-2,212300
23,383500	0,5	-2,186300
23,391833	0,5	-2,153500
23,400167	0,5	-2,120150
23,408500	0,5	-2,154800
23,416833	0,5	-2,080900
23,425167	0,5	-2,039500
23,433500	0,5	-2,033400
23,441833	0,5	-2,022200
23,450167	0,5	-2,009800
23,458500	0,5	-1,987500
23,466833	0,5	-1,965650
23,475167	0,5	-1,946600
23,483500	0,5	-1,931850
23,491833	0,5	-1,907550
23,500167	0,5	-1,885450
23,508500	0,5	-1,859300
23,516833	0,5	-1,840000
23,525167	0,5	-1,811550
23,533500	0,5	-1,789500
23,541833	0,5	-1,764150
23,550167	0,5	-1,794050
23,558500	0,5	-1,798450
23,566833	0,5	-1,748450
23,575167	0,5	-1,688200
23,583500	0,5	-1,663500
23,591833	0,5	-1,654000
23,600167	0,5	-1,637650
23,608500	0,5	-1,622100
23,616833	0,5	-1,608700
23,625167	0,5	-1,592850
23,633500	0,5	-1,571700
23,641833	0,5	-1,557300
23,650167	0,5	-1,539650
23,658500	0,5	-1,523600
23,666833	0,5	-1,510700
23,675167	0,5	-1,497000
23,683500	0,5	-1,480850
23,691833	0,5	-1,473700
23,700167	0,5	-1,576450
23,708500	0,5	-1,546750
23,716833	0,5	-1,506000
23,725167	0,5	-1,450500
23,733500	0,5	-1,426800
23,741833	0,5	-1,421350
23,750167	0,5	-1,411250
23,758500	0,5	-1,405150
23,766833	0,5	-1,388100
23,775167	0,5	-1,375050
23,783500	0,5	-1,352000
23,791833	0,5	-1,338100
23,800167	0,5	-1,315600
23,808500	0,5	-1,298350
23,816833	0,5	-1,277200
23,825167	0,5	-1,260350
23,833500	0,5	-1,245650
23,841833	0,5	-1,264500
23,850167	0,5	-1,352650
23,858500	0,5	-1,322950
23,866833	0,5	-1,260900
23,875167	0,5	-1,215100
23,883500	0,5	-1,193600
23,891833	0,5	-1,185100
23,900167	0,5	-1,188300
23,908500	0,5	-1,176000
23,916833	0,5	-1,166500
23,925167	0,5	-1,149600
23,933500	0,5	-1,138400
23,941833	0,5	-1,120500
23,950167	0,5	-1,107150
23,958500	0,5	-1,089500
23,966833	0,5	-1,073150
23,975167	0,5	-1,057850
23,983500	0,5	-1,040750
23,991833	0,5	-1,130250
24,000167	0,5	-1,126100
24,008500	0,5	-1,096800
24,016833	0,5	-1,035100
24,025167	0,5	-0,991250
24,033500	0,5	-0,970900
24,041833	0,5	-0,950750
24,050167	0,5	-0,954800
24,058500	0,5	-0,934950
24,066833	0,5	-0,907750
24,075167	0,5	-0,896700
24,083500	0,5	-0,881250
24,091833	0,5	-0,866550
24,100167	0,5	-0,852650
24,108500	0,5	-0,833250
24,116833	0,5	-0,811800
24,125167	0,5	-0,802750
24,133500	0,5	-0,792100
24,141833	0,5	-0,896350
24,150167	0,5	-0,848300
24,158500	0,5	-0,842700
24,166833	0,5	-0,782750
24,175167	0,5	-0,758350
24,183500	0,5	-0,733300
24,191833	0,5	-0,729250
24,200167	0,5	-0,738100
24,208500	0,5	-0,709750
24,216833	0,5	-0,687300
24,225167	0,5	-0,667450
24,233500	0,5	-0,650950
24,241833	0,5	-0,630450
24,250167	0,5	-0,610200
24,258500	0,5	-0,590250
24,266833	0,5	-0,571400
24,275167	0,5	-0,553350
24,283500	0,5	-0,578300
24,291833	0,5	-0,619100
24,300167	0,5	-0,587300
24,308500	0,5	-0,554150
24,316833	0,5	-0,510300
24,325167	0,5	-0,491400
24,333500	0,5	-0,482100
24,341833	0,5	-0,476000
24,350167	0,5	-0,480600
24,358500	0,5	-0,459850
24,366833	0,5	-0,447500
24,375167	0,5	-0,435450
24,383500	0,5	-0,424950
24,391833	0,5	-0,406800
24,400167	0,5	-0,395400
24,408500	0,5	-0,377550
24,416833	0,5	-0,364850
24,425167	0,5	-0,348950
24,433500	0,5	-0,386800
24,441833	0,5	-0,394200
24,450167	0,5	-0,361800
24,458500	0,5	-0,332700
24,466833	0,5	-0,297800
24,475167	0,5	-0,285050
24,483500	0,5	-0,271500
24,491833	0,5	-0,272450
24,500167	0,5	-0,267000
24,508500	0,5	-0,256050
24,516833	0,5	-0,235750
24,525167	0,5	-0,231950
24,533500	0,5	-0,211050
24,541833	0,5	-0,202800
24,550167	0,5	-0,188100
24,558500	0,5	-0,177400
24,566833	0,5	-0,168200
24,575167	0,5	-0,159950
24,583500	0,5	-0,208250
24,591833	0,5	-0,187850
24,600167	0,5	-0,172850
24,608500	0,5	-0,148200
24,616833	0,5	-0,126550
24,625167	0,5	-0,119200
24,633500	0,5	-0,115050
24,641833	0,5	-0,115050
24,650167	0,5	-0,112400
24,658500	0,5	-0,094700
24,666833	0,5	-0,087000
24,675167	0,5	-0,074150
24,683500	0,5	-0,063850
24,691833	0,5	-0,049500
24,700167	0,5	-0,040650
24,708500	0,5	-0,027750
24,716833	0,5	-0,015500
24,725167	0,5	-0,019100
24,733500	0,5	-0,032550
24,741833	0,5	-0,024700
24,750167	0,5	-0,011050
24,758500	0,5	0,008000
24,766833	0,5	0,019850
24,775167	0,5	0,022550
24,783500	0,5	0,022000
24,791833	0,5	0,019100
24,800167	0,5	0,031500
24,808500	0,5	0,034150
24,816833	0,5	0,042900
24,825167	0,5	0,046200
24,833500	0,5	0,056650
24,841833	0,5	0,061500
24,850167	0,5	0,071750
24,858500	0,5	0,081000
24,866833	0,5	0,087150
24,875167	0,5	0,078950
24,883500	0,5	0,082300
24,891833	0,5	0,087400
24,900167	0,5	0,104650
24,908500	0,5	0,116650
24,916833	0,5	0,126250
24,925167	0,5	0,130950
24,933500	0,5	0,129200
24,941833	0,5	0,134550
24,950167	0,5	0,139900
24,958500	0,5	0,147600
24,966833	0,5	0,150950
24,975167	0,5	0,154150
24,983500	0,5	0,158250
24,991833	0,5	0,162900
25,000167	0,5	0,165900
25,008500	0,5	0,173150
25,016833	0,5	0,173350
25,025167	0,5	0,163450
25,033500	0,5	0,173150
25,041833	0,5	0,173400
25,050167	0,5	0,182550
25,058500	0,5	0,190100
25,066833	0,5	0,194100
25,075167	0,5	0,199200
25,083500	0,5	0,197250
25,091833	0,5	0,201750
25,100167	0,5	0,207850
25,108500	0,5	0,212150
25,116833	0,5	0,214450
25,125167	0,5	0,220650
25,133500	0,5	0,227450
25,141833	0,5	0,228950
25,150167	0,5	0,234250
25,158500	0,5	0,237050
25,166833	0,5	0,236750
25,175167	0,5	0,233750
25,183500	0,5	0,239500
25,191833	0,5	0,239400
25,200167	0,5	0,242100
25,208500	0,5	0,244750
25,216833	0,5	0,245300
25,225167	0,5	0,246400
25,233500	0,5	0,245250
25,241833	0,5	0,246450
25,250167	0,5	0,248650
25,258500	0,5	0,247400
25,266833	0,5	0,253800
25,275167	0,5	0,255400
25,283500	0,5	0,260350
25,291833	0,5	0,262500
25,300167	0,5	0,265000
25,308500	0,5	0,267850
25,316833	0,5	0,271850
25,325167	0,5	0,272350
25,333500	0,5	0,275850
25,341833	0,5	0,280350
25,350167	0,5	0,277450
25,358500	0,5	0,279600
25,366833	0,5	0,278650
25,375167	0,5	0,281550
25,383500	0,5	0,283250
25,391833	0,5	0,281050
25,400167	0,5	0,281150
25,408500	0,5	0,281450
25,416833	0,5	0,281100
25,425167	0,5	0,280150
25,433500	0,5	0,278200
25,441833	0,5	0,279950
25,450167	0,5	0,283400
25,458500	0,5	0,283800
25,466833	0,5	0,286750
25,475167	0,5	0,289550
25,483500	0,5	0,294650
25,491833	0,5	0,295000
25,500167	0,5	0,292900
25,508500	0,5	0,294100
25,516833	0,5	0,296600
25,525167	0,5	0,294850
25,533500	0,5	0,298650
25,541833	0,5	0,299250
25,550167	0,5	0,299350
25,558500	0,5	0,304750
25,566833	0,5	0,298400
25,575167	0,5	0,300300
25,583500	0,5	0,298350
25,591833	0,5	0,296050
25,600167	0,5	0,299400
25,608500	0,5	0,295850
25,616833	0,5	0,300350
25,625167	0,5	0,301200
25,633500	0,5	0,302800
25,641833	0,5	0,297650
25,650167	0,5	0,297200
25,658500	0,5	0,298400
25,666833	0,5	0,300250
25,675167	0,5	0,303550
25,683500	0,5	0,306950
25,691833	0,5	0,306700
25,700167	0,5	0,307450
25,708500	0,5	0,307050
25,716833	0,5	0,309350
25,725167	0,5	0,308700
25,733500	0,5	0,310950
25,741833	0,5	0,309350
25,750167	0,5	0,311250
25,758500	0,5	0,311650
25,766833	0,5	0,311200
25,775167	0,5	0,316750
25,783500	0,5	0,318750
25,791833	0,5	0,312300
25,800167	0,5	0,311550
25,808500	0,5	0,312600
25,816833	0,5	0,317600
25,825167	0,5	0,323400
25,833500	0,5	0,321450
25,841833	0,5	0,322250
25,850167	0,5	0,321350
25,858500	0,5	0,325950
25,866833	0,5	0,325200
25,875167	0,5	0,326700
25,883500	0,5	0,325050
25,891833	0,5	0,329050
25,900167	0,5	0,326450
25,908500	0,5	0,331900
25,916833	0,5	0,326250
25,925167	0,5	0,339550
25,933500	0,5	0,330550
25,941833	0,5	0,327850
25,950167	0,5	0,327550
25,958500	0,5	0,330500
25,966833	0,5	0,338050
25,975167	0,5	0,335900
25,983500	0,5	0,337250
25,991833	0,5	0,333500
26,000167	0,5	0,333600
