File Path	chrom://chromeleon01/ikbm_chromeleon/2022/ICS-5000/ED1/Esteban/20220612_Cell_7_4_eg.seq/735.smp/ED_1.channel/ED_1.chm
Channel	ED_1

Injection Information:
Data Vault	ikbm_chromeleon
Injection	4_04h-EGS_1
Injection Number	88
Position	GD5
Comment	
Processing Method	Stop sequence after Cell Death
Instrument Method	ICS5000_PA200_FullNative_Ox_26min_ED1
Type	Unknown
Status	Finished
Injection Date	14.06.2022
Injection Time	09:31:43
Injection Volume (µl)	5,0
Dilution Factor	1,0000
Weight	1,0000

Chromatogram Data Information:
Time Min. (min)	0,000333
Time Max. (min)	26,000333
Data Points	3121
Detector	EDet1
Generating Data System	Chromeleon 7.2.9.11323
Exporting Data System	Chromeleon 7.2.9.0
Operator	Instrument Controller
Signal Quantity	
Signal Unit	nC
Signal Min.	-2,502050
Signal Max.	2 313,684934
Channel	ED_1
Driver Name	DC-5000
Channel Type	Evaluation
Min. Step (s)	0,5
Max. Step (s)	0,5
Average Step (s)	0,5

Signal Parameter Information:
Signal Info	

Chromatogram Data:
Time (min)	Step (s)	Value (nC)
0,000333	n.a.	-0,048550
0,008667	0,5	-0,057200
0,017000	0,5	-0,033550
0,025333	0,5	-0,046700
0,033667	0,5	-0,044800
0,042000	0,5	-0,039200
0,050333	0,5	-0,023900
0,058667	0,5	0,006450
0,067000	0,5	-0,016100
0,075333	0,5	-0,014100
0,083667	0,5	-0,011700
0,092000	0,5	-0,009450
0,100333	0,5	-0,013950
0,108667	0,5	-0,015400
0,117000	0,5	-0,027200
0,125333	0,5	-0,028900
0,133667	0,5	-0,031550
0,142000	0,5	-0,014000
0,150333	0,5	-0,034100
0,158667	0,5	-0,028500
0,167000	0,5	-0,016900
0,175333	0,5	-0,050150
0,183667	0,5	-0,054000
0,192000	0,5	-0,049600
0,200333	0,5	-0,037800
0,208667	0,5	-0,009750
0,217000	0,5	-0,024400
0,225333	0,5	-0,026400
0,233667	0,5	-0,035750
0,242000	0,5	-0,033450
0,250333	0,5	-0,042500
0,258667	0,5	-0,044650
0,267000	0,5	-0,050250
0,275333	0,5	-0,055550
0,283667	0,5	-0,045700
0,292000	0,5	-0,015300
0,300333	0,5	0,009800
0,308667	0,5	-0,006650
0,317000	0,5	-0,052300
0,325333	0,5	-0,097550
0,333667	0,5	-0,101000
0,342000	0,5	-0,099050
0,350333	0,5	-0,077350
0,358667	0,5	-0,062900
0,367000	0,5	-0,062900
0,375333	0,5	-0,073400
0,383667	0,5	-0,068750
0,392000	0,5	-0,077100
0,400333	0,5	-0,076300
0,408667	0,5	-0,087750
0,417000	0,5	-0,090500
0,425333	0,5	-0,092600
0,433667	0,5	-0,097650
0,442000	0,5	-0,092350
0,450333	0,5	-0,097800
0,458667	0,5	-0,084250
0,467000	0,5	-0,106250
0,475333	0,5	-0,119850
0,483667	0,5	-0,122200
0,492000	0,5	-0,107200
0,500333	0,5	-0,088800
0,508667	0,5	-0,080900
0,517000	0,5	-0,093100
0,525333	0,5	-0,083800
0,533667	0,5	-0,096300
0,542000	0,5	-0,094250
0,550333	0,5	-0,105300
0,558667	0,5	-0,102200
0,567000	0,5	-0,111800
0,575333	0,5	-0,103450
0,583667	0,5	-0,108050
0,592000	0,5	-0,127000
0,600333	0,5	-0,118950
0,608667	0,5	-0,102950
0,617000	0,5	-0,127600
0,625333	0,5	-0,128000
0,633667	0,5	-0,124600
0,642000	0,5	-0,103600
0,650333	0,5	-0,084200
0,658667	0,5	-0,097850
0,667000	0,5	-0,091700
0,675333	0,5	-0,102500
0,683667	0,5	-0,090900
0,692000	0,5	-0,104200
0,700333	0,5	-0,098900
0,708667	0,5	-0,109200
0,717000	0,5	-0,107200
0,725333	0,5	-0,113050
0,733667	0,5	-0,112450
0,742000	0,5	-0,127450
0,750333	0,5	-0,097750
0,758667	0,5	-0,110400
0,767000	0,5	-0,118900
0,775333	0,5	-0,124050
0,783667	0,5	-0,119450
0,792000	0,5	-0,089450
0,800333	0,5	-0,086800
0,808667	0,5	-0,086900
0,817000	0,5	-0,093500
0,825333	0,5	-0,086700
0,833667	0,5	-0,090650
0,842000	0,5	-0,087550
0,850333	0,5	-0,095500
0,858667	0,5	-0,094500
0,867000	0,5	-0,096100
0,875333	0,5	-0,091700
0,883667	0,5	-0,099100
0,892000	0,5	-0,102050
0,900333	0,5	-0,073800
0,908667	0,5	-0,089000
0,917000	0,5	-0,105700
0,925333	0,5	-0,098800
0,933667	0,5	-0,097000
0,942000	0,5	-0,054450
0,950333	0,5	-0,066550
0,958667	0,5	-0,074300
0,967000	0,5	-0,074900
0,975333	0,5	-0,068550
0,983667	0,5	-0,072150
0,992000	0,5	-0,074350
1,000333	0,5	-0,076400
1,008667	0,5	-0,076700
1,017000	0,5	-0,072750
1,025333	0,5	-0,076550
1,033667	0,5	-0,064700
1,042000	0,5	-0,087150
1,050333	0,5	-0,047750
1,058667	0,5	-0,083600
1,067000	0,5	-0,081150
1,075333	0,5	-0,082500
1,083667	0,5	-0,070500
1,092000	0,5	-0,043400
1,100333	0,5	-0,055250
1,108667	0,5	-0,066700
1,117000	0,5	-0,059000
1,125333	0,5	-0,060000
1,133667	0,5	-0,053050
1,142000	0,5	-0,057650
1,150333	0,5	-0,057150
1,158667	0,5	-0,064700
1,167000	0,5	-0,064950
1,175333	0,5	-0,055200
1,183667	0,5	-0,064150
1,192000	0,5	-0,061250
1,200333	0,5	-0,044900
1,208667	0,5	-0,076500
1,217000	0,5	-0,075700
1,225333	0,5	-0,071550
1,233667	0,5	-0,057900
1,242000	0,5	-0,026950
1,250333	0,5	-0,036850
1,258667	0,5	-0,030250
1,267000	0,5	-0,041350
1,275333	0,5	-0,032400
1,283667	0,5	-0,047250
1,292000	0,5	-0,039050
1,300333	0,5	-0,048450
1,308667	0,5	-0,044950
1,317000	0,5	-0,044750
1,325333	0,5	-0,055400
1,333667	0,5	-0,060850
1,342000	0,5	-0,047050
1,350333	0,5	-0,044650
1,358667	0,5	-0,061150
1,367000	0,5	-0,056450
1,375333	0,5	-0,052800
1,383667	0,5	-0,026450
1,392000	0,5	-0,016750
1,400333	0,5	-0,021750
1,408667	0,5	-0,029700
1,417000	0,5	-0,021600
1,425333	0,5	-0,030300
1,433667	0,5	-0,027900
1,442000	0,5	-0,035600
1,450333	0,5	-0,031650
1,458667	0,5	-0,037400
1,467000	0,5	-0,031850
1,475333	0,5	-0,042350
1,483667	0,5	-0,040200
1,492000	0,5	-0,028350
1,500333	0,5	-0,038300
1,508667	0,5	-0,057100
1,517000	0,5	-0,051900
1,525333	0,5	-0,046600
1,533667	0,5	-0,023450
1,542000	0,5	-0,007350
1,550333	0,5	0,008100
1,558667	0,5	0,102450
1,567000	0,5	0,355950
1,575333	0,5	1,110350
1,583667	0,5	5,130550
1,592000	0,5	25,714150
1,600333	0,5	107,064452
1,608667	0,5	373,734906
1,617000	0,5	1 016,283465
1,625333	0,5	1 556,089823
1,633667	0,5	2 296,805234
1,642000	0,5	2 313,684934
1,650333	0,5	2 256,745934
1,658667	0,5	2 103,744431
1,667000	0,5	1 708,640925
1,675333	0,5	1 199,228218
1,683667	0,5	798,973062
1,692000	0,5	556,281508
1,700333	0,5	413,357306
1,708667	0,5	325,492055
1,717000	0,5	264,710804
1,725333	0,5	221,348903
1,733667	0,5	188,733103
1,742000	0,5	163,790902
1,750333	0,5	143,902852
1,758667	0,5	127,099852
1,767000	0,5	112,841852
1,775333	0,5	101,333002
1,783667	0,5	93,067101
1,792000	0,5	88,284901
1,800333	0,5	87,170801
1,808667	0,5	88,933901
1,817000	0,5	90,956551
1,825333	0,5	90,089701
1,833667	0,5	85,235551
1,842000	0,5	77,929901
1,850333	0,5	70,827401
1,858667	0,5	65,432551
1,867000	0,5	61,620001
1,875333	0,5	58,509901
1,883667	0,5	55,932751
1,892000	0,5	54,247051
1,900333	0,5	53,412451
1,908667	0,5	52,836901
1,917000	0,5	52,033251
1,925333	0,5	51,303451
1,933667	0,5	51,675351
1,942000	0,5	53,749201
1,950333	0,5	56,244651
1,958667	0,5	56,454901
1,967000	0,5	53,794601
1,975333	0,5	50,424851
1,983667	0,5	48,165801
1,992000	0,5	47,507251
2,000333	0,5	48,269751
2,008667	0,5	50,453251
2,017000	0,5	54,231701
2,025333	0,5	59,958801
2,033667	0,5	67,874101
2,042000	0,5	78,568901
2,050333	0,5	92,880901
2,058667	0,5	110,154052
2,067000	0,5	125,636752
2,075333	0,5	131,617852
2,083667	0,5	124,461252
2,092000	0,5	108,261902
2,100333	0,5	90,650251
2,108667	0,5	76,047851
2,117000	0,5	65,472201
2,125333	0,5	58,624551
2,133667	0,5	55,176351
2,142000	0,5	55,178651
2,150333	0,5	58,070851
2,158667	0,5	60,861351
2,167000	0,5	60,180301
2,175333	0,5	56,413751
2,183667	0,5	52,396101
2,192000	0,5	48,881951
2,200333	0,5	44,944151
2,208667	0,5	40,579551
2,217000	0,5	36,712301
2,225333	0,5	33,869751
2,233667	0,5	32,028850
2,242000	0,5	30,913150
2,250333	0,5	30,524350
2,258667	0,5	30,750750
2,267000	0,5	31,540700
2,275333	0,5	32,656450
2,283667	0,5	33,412650
2,292000	0,5	33,141850
2,300333	0,5	31,828250
2,308667	0,5	30,256050
2,317000	0,5	29,031100
2,325333	0,5	28,331050
2,333667	0,5	28,064100
2,342000	0,5	28,192200
2,350333	0,5	28,652150
2,358667	0,5	29,448600
2,367000	0,5	30,654650
2,375333	0,5	32,092050
2,383667	0,5	33,141550
2,392000	0,5	33,468100
2,400333	0,5	33,149400
2,408667	0,5	32,430100
2,417000	0,5	31,657450
2,425333	0,5	31,426600
2,433667	0,5	32,568400
2,442000	0,5	33,031350
2,450333	0,5	31,048050
2,458667	0,5	28,531000
2,467000	0,5	26,921800
2,475333	0,5	25,946250
2,483667	0,5	25,190900
2,492000	0,5	24,523000
2,500333	0,5	23,990600
2,508667	0,5	23,601050
2,517000	0,5	23,392400
2,525333	0,5	23,327550
2,533667	0,5	23,308500
2,542000	0,5	23,285000
2,550333	0,5	23,233000
2,558667	0,5	23,097750
2,567000	0,5	22,951350
2,575333	0,5	22,793000
2,583667	0,5	22,681500
2,592000	0,5	22,639600
2,600333	0,5	22,706700
2,608667	0,5	22,895750
2,617000	0,5	23,217650
2,625333	0,5	23,622050
2,633667	0,5	24,024500
2,642000	0,5	24,357450
2,650333	0,5	24,583300
2,658667	0,5	24,756000
2,667000	0,5	24,974050
2,675333	0,5	25,448750
2,683667	0,5	26,378750
2,692000	0,5	28,155000
2,700333	0,5	31,282550
2,708667	0,5	36,882251
2,717000	0,5	47,141101
2,725333	0,5	65,386751
2,733667	0,5	94,064751
2,742000	0,5	130,357152
2,750333	0,5	163,698252
2,758667	0,5	181,281303
2,767000	0,5	177,014403
2,775333	0,5	155,247302
2,783667	0,5	126,220602
2,792000	0,5	99,121351
2,800333	0,5	78,357401
2,808667	0,5	63,972001
2,817000	0,5	54,270551
2,825333	0,5	47,536901
2,833667	0,5	42,752601
2,842000	0,5	39,476551
2,850333	0,5	37,577251
2,858667	0,5	37,191901
2,867000	0,5	38,599251
2,875333	0,5	41,689051
2,883667	0,5	45,697201
2,892000	0,5	49,081051
2,900333	0,5	50,424201
2,908667	0,5	49,010051
2,917000	0,5	45,222151
2,925333	0,5	40,085801
2,933667	0,5	34,750751
2,942000	0,5	30,021600
2,950333	0,5	26,239650
2,958667	0,5	23,424100
2,967000	0,5	21,453800
2,975333	0,5	20,040850
2,983667	0,5	19,030850
2,992000	0,5	18,276600
3,000333	0,5	17,686400
3,008667	0,5	17,204000
3,017000	0,5	16,747500
3,025333	0,5	16,350500
3,033667	0,5	16,023850
3,042000	0,5	15,816250
3,050333	0,5	15,739050
3,058667	0,5	15,849900
3,067000	0,5	16,091700
3,075333	0,5	16,392200
3,083667	0,5	16,583600
3,092000	0,5	16,553400
3,100333	0,5	16,248100
3,108667	0,5	15,726800
3,117000	0,5	15,128950
3,125333	0,5	14,513500
3,133667	0,5	13,994100
3,142000	0,5	13,586850
3,150333	0,5	13,288900
3,158667	0,5	13,081550
3,167000	0,5	12,925150
3,175333	0,5	12,814550
3,183667	0,5	12,780400
3,192000	0,5	12,787850
3,200333	0,5	12,857650
3,208667	0,5	13,008900
3,217000	0,5	13,307550
3,225333	0,5	13,820800
3,233667	0,5	14,584750
3,242000	0,5	15,478250
3,250333	0,5	16,275150
3,258667	0,5	16,678400
3,267000	0,5	16,569550
3,275333	0,5	15,887750
3,283667	0,5	14,903350
3,292000	0,5	13,836500
3,300333	0,5	12,917100
3,308667	0,5	12,236050
3,317000	0,5	11,763850
3,325333	0,5	11,482600
3,333667	0,5	11,341700
3,342000	0,5	11,280000
3,350333	0,5	11,274050
3,358667	0,5	11,303200
3,367000	0,5	11,348800
3,375333	0,5	11,398550
3,383667	0,5	11,422700
3,392000	0,5	11,408300
3,400333	0,5	11,338250
3,408667	0,5	11,255400
3,417000	0,5	11,130900
3,425333	0,5	10,993650
3,433667	0,5	10,879600
3,442000	0,5	10,791950
3,450333	0,5	10,731550
3,458667	0,5	10,678650
3,467000	0,5	10,635600
3,475333	0,5	10,637700
3,483667	0,5	10,686750
3,492000	0,5	10,817200
3,500333	0,5	11,004050
3,508667	0,5	11,232050
3,517000	0,5	11,427400
3,525333	0,5	11,544200
3,533667	0,5	11,589700
3,542000	0,5	11,577150
3,550333	0,5	11,556900
3,558667	0,5	11,556650
3,567000	0,5	11,549950
3,575333	0,5	11,571900
3,583667	0,5	11,663800
3,592000	0,5	11,812800
3,600333	0,5	12,117750
3,608667	0,5	12,678200
3,617000	0,5	13,866800
3,625333	0,5	16,012950
3,633667	0,5	19,057550
3,642000	0,5	22,212350
3,650333	0,5	24,576600
3,658667	0,5	25,610250
3,667000	0,5	25,404300
3,675333	0,5	24,356300
3,683667	0,5	22,929400
3,692000	0,5	21,459550
3,700333	0,5	20,112100
3,708667	0,5	18,942650
3,717000	0,5	17,900300
3,725333	0,5	16,994800
3,733667	0,5	16,211750
3,742000	0,5	15,530000
3,750333	0,5	14,937600
3,758667	0,5	14,401700
3,767000	0,5	13,920200
3,775333	0,5	13,513400
3,783667	0,5	13,143850
3,792000	0,5	12,823150
3,800333	0,5	12,527600
3,808667	0,5	12,267200
3,817000	0,5	12,020550
3,825333	0,5	11,815350
3,833667	0,5	11,647650
3,842000	0,5	11,510600
3,850333	0,5	11,443100
3,858667	0,5	11,441250
3,867000	0,5	11,452300
3,875333	0,5	11,509750
3,883667	0,5	11,564950
3,892000	0,5	11,580250
3,900333	0,5	11,525650
3,908667	0,5	11,357300
3,917000	0,5	11,142200
3,925333	0,5	10,866600
3,933667	0,5	10,584200
3,942000	0,5	10,300750
3,950333	0,5	10,053050
3,958667	0,5	9,830500
3,967000	0,5	9,655800
3,975333	0,5	9,506850
3,983667	0,5	9,384000
3,992000	0,5	9,268050
4,000333	0,5	9,204450
4,008667	0,5	9,119700
4,017000	0,5	9,049750
4,025333	0,5	8,987850
4,033667	0,5	8,954150
4,042000	0,5	8,942650
4,050333	0,5	8,914900
4,058667	0,5	8,893850
4,067000	0,5	8,878500
4,075333	0,5	8,872500
4,083667	0,5	8,858600
4,092000	0,5	8,839750
4,100333	0,5	8,806300
4,108667	0,5	8,769850
4,117000	0,5	8,724700
4,125333	0,5	8,677700
4,133667	0,5	8,616850
4,142000	0,5	8,566050
4,150333	0,5	8,538200
4,158667	0,5	8,495500
4,167000	0,5	8,459850
4,175333	0,5	8,442050
4,183667	0,5	8,429750
4,192000	0,5	8,438600
4,200333	0,5	8,433700
4,208667	0,5	8,434600
4,217000	0,5	8,445800
4,225333	0,5	8,481800
4,233667	0,5	8,526900
4,242000	0,5	8,597350
4,250333	0,5	8,678400
4,258667	0,5	8,780700
4,267000	0,5	8,912100
4,275333	0,5	9,062200
4,283667	0,5	9,236250
4,292000	0,5	9,426600
4,300333	0,5	9,643850
4,308667	0,5	9,832650
4,317000	0,5	10,043500
4,325333	0,5	10,248400
4,333667	0,5	10,462350
4,342000	0,5	10,667950
4,350333	0,5	10,845300
4,358667	0,5	10,975350
4,367000	0,5	11,069800
4,375333	0,5	11,086850
4,383667	0,5	11,036850
4,392000	0,5	10,913150
4,400333	0,5	10,727000
4,408667	0,5	10,501950
4,417000	0,5	10,249850
4,425333	0,5	9,985200
4,433667	0,5	9,712000
4,442000	0,5	9,464300
4,450333	0,5	9,213250
4,458667	0,5	8,968200
4,467000	0,5	8,764600
4,475333	0,5	8,591750
4,483667	0,5	8,465450
4,492000	0,5	8,360500
4,500333	0,5	8,263200
4,508667	0,5	8,204500
4,517000	0,5	8,159900
4,525333	0,5	8,149000
4,533667	0,5	8,148750
4,542000	0,5	8,172350
4,550333	0,5	8,203100
4,558667	0,5	8,254000
4,567000	0,5	8,312200
4,575333	0,5	8,353350
4,583667	0,5	8,392550
4,592000	0,5	8,444950
4,600333	0,5	8,445250
4,608667	0,5	8,425050
4,617000	0,5	8,399400
4,625333	0,5	8,358800
4,633667	0,5	8,339250
4,642000	0,5	8,299400
4,650333	0,5	8,274000
4,658667	0,5	8,252900
4,667000	0,5	8,262000
4,675333	0,5	8,274100
4,683667	0,5	8,312550
4,692000	0,5	8,345750
4,700333	0,5	8,394000
4,708667	0,5	8,434650
4,717000	0,5	8,476300
4,725333	0,5	8,486650
4,733667	0,5	8,496250
4,742000	0,5	8,491050
4,750333	0,5	8,438350
4,758667	0,5	8,373050
4,767000	0,5	8,317000
4,775333	0,5	8,257350
4,783667	0,5	8,205050
4,792000	0,5	8,136650
4,800333	0,5	8,071300
4,808667	0,5	8,025250
4,817000	0,5	7,980600
4,825333	0,5	7,941900
4,833667	0,5	7,908350
4,842000	0,5	7,885650
4,850333	0,5	7,857750
4,858667	0,5	7,851250
4,867000	0,5	7,841100
4,875333	0,5	7,830950
4,883667	0,5	7,828400
4,892000	0,5	7,835750
4,900333	0,5	7,813650
4,908667	0,5	7,807950
4,917000	0,5	7,796800
4,925333	0,5	7,796950
4,933667	0,5	7,793400
4,942000	0,5	7,767900
4,950333	0,5	7,747700
4,958667	0,5	7,738200
4,967000	0,5	7,723950
4,975333	0,5	7,711050
4,983667	0,5	7,699500
4,992000	0,5	7,686750
5,000333	0,5	7,679050
5,008667	0,5	7,670700
5,017000	0,5	7,671550
5,025333	0,5	7,653650
5,033667	0,5	7,655800
5,042000	0,5	7,646650
5,050333	0,5	7,631900
5,058667	0,5	7,621400
5,067000	0,5	7,631600
5,075333	0,5	7,644350
5,083667	0,5	7,660200
5,092000	0,5	7,658000
5,100333	0,5	7,675200
5,108667	0,5	7,683300
5,117000	0,5	7,692250
5,125333	0,5	7,698700
5,133667	0,5	7,707800
5,142000	0,5	7,708300
5,150333	0,5	7,711150
5,158667	0,5	7,714950
5,167000	0,5	7,703350
5,175333	0,5	7,695700
5,183667	0,5	7,704300
5,192000	0,5	7,690150
5,200333	0,5	7,679600
5,208667	0,5	7,671750
5,217000	0,5	7,663050
5,225333	0,5	7,650350
5,233667	0,5	7,601000
5,242000	0,5	7,536500
5,250333	0,5	7,439200
5,258667	0,5	7,334300
5,267000	0,5	7,210200
5,275333	0,5	7,090800
5,283667	0,5	6,970200
5,292000	0,5	6,856750
5,300333	0,5	6,761750
5,308667	0,5	6,681100
5,317000	0,5	6,617500
5,325333	0,5	6,569550
5,333667	0,5	6,539250
5,342000	0,5	6,499000
5,350333	0,5	6,483300
5,358667	0,5	6,482850
5,367000	0,5	6,508000
5,375333	0,5	6,550950
5,383667	0,5	6,608200
5,392000	0,5	6,674350
5,400333	0,5	6,769950
5,408667	0,5	6,879750
5,417000	0,5	7,009600
5,425333	0,5	7,130100
5,433667	0,5	7,232750
5,442000	0,5	7,296400
5,450333	0,5	7,319550
5,458667	0,5	7,286550
5,467000	0,5	7,199850
5,475333	0,5	7,081500
5,483667	0,5	6,943800
5,492000	0,5	6,785750
5,500333	0,5	6,651400
5,508667	0,5	6,535400
5,517000	0,5	6,460400
5,525333	0,5	6,404350
5,533667	0,5	6,358850
5,542000	0,5	6,335100
5,550333	0,5	6,328550
5,558667	0,5	6,344100
5,567000	0,5	6,363850
5,575333	0,5	6,395000
5,583667	0,5	6,412350
5,592000	0,5	6,422850
5,600333	0,5	6,412000
5,608667	0,5	6,377050
5,617000	0,5	6,322700
5,625333	0,5	6,289350
5,633667	0,5	6,223950
5,642000	0,5	6,172700
5,650333	0,5	6,143000
5,658667	0,5	6,142200
5,667000	0,5	6,162800
5,675333	0,5	6,177850
5,683667	0,5	6,188600
5,692000	0,5	6,195150
5,700333	0,5	6,179350
5,708667	0,5	6,150000
5,717000	0,5	6,104050
5,725333	0,5	6,042250
5,733667	0,5	5,981250
5,742000	0,5	5,915500
5,750333	0,5	5,864400
5,758667	0,5	5,813400
5,767000	0,5	5,785200
5,775333	0,5	5,791400
5,783667	0,5	5,800900
5,792000	0,5	5,843950
5,800333	0,5	5,928250
5,808667	0,5	6,034350
5,817000	0,5	6,170400
5,825333	0,5	6,276650
5,833667	0,5	6,373050
5,842000	0,5	6,439600
5,850333	0,5	6,477150
5,858667	0,5	6,490100
5,867000	0,5	6,502400
5,875333	0,5	6,524450
5,883667	0,5	6,581050
5,892000	0,5	6,693650
5,900333	0,5	6,873550
5,908667	0,5	7,145850
5,917000	0,5	7,560700
5,925333	0,5	8,165050
5,933667	0,5	8,977500
5,942000	0,5	10,046750
5,950333	0,5	11,349600
5,958667	0,5	12,835450
5,967000	0,5	14,368550
5,975333	0,5	15,776350
5,983667	0,5	16,900700
5,992000	0,5	17,603800
6,000333	0,5	17,792300
6,008667	0,5	17,475400
6,017000	0,5	16,700350
6,025333	0,5	15,590150
6,033667	0,5	14,284250
6,042000	0,5	12,915200
6,050333	0,5	11,599900
6,058667	0,5	10,392600
6,067000	0,5	9,367150
6,075333	0,5	8,517950
6,083667	0,5	7,822350
6,092000	0,5	7,282850
6,100333	0,5	6,873000
6,108667	0,5	6,568700
6,117000	0,5	6,341550
6,125333	0,5	6,152050
6,133667	0,5	6,018700
6,142000	0,5	5,904250
6,150333	0,5	5,820800
6,158667	0,5	5,739250
6,167000	0,5	5,675850
6,175333	0,5	5,613600
6,183667	0,5	5,559650
6,192000	0,5	5,508950
6,200333	0,5	5,455950
6,208667	0,5	5,409300
6,217000	0,5	5,386050
6,225333	0,5	5,350150
6,233667	0,5	5,325550
6,242000	0,5	5,302550
6,250333	0,5	5,291400
6,258667	0,5	5,282000
6,267000	0,5	5,262100
6,275333	0,5	5,246800
6,283667	0,5	5,224800
6,292000	0,5	5,220850
6,300333	0,5	5,213550
6,308667	0,5	5,214000
6,317000	0,5	5,212550
6,325333	0,5	5,213700
6,333667	0,5	5,219700
6,342000	0,5	5,227650
6,350333	0,5	5,225750
6,358667	0,5	5,232100
6,367000	0,5	5,237100
6,375333	0,5	5,230800
6,383667	0,5	5,219900
6,392000	0,5	5,208100
6,400333	0,5	5,194700
6,408667	0,5	5,180650
6,417000	0,5	5,160100
6,425333	0,5	5,126700
6,433667	0,5	5,095950
6,442000	0,5	5,062900
6,450333	0,5	5,032900
6,458667	0,5	5,001650
6,467000	0,5	4,978350
6,475333	0,5	4,953700
6,483667	0,5	4,935350
6,492000	0,5	4,919800
6,500333	0,5	4,908250
6,508667	0,5	4,903350
6,517000	0,5	4,903600
6,525333	0,5	4,890350
6,533667	0,5	4,887050
6,542000	0,5	4,877850
6,550333	0,5	4,885350
6,558667	0,5	4,874650
6,567000	0,5	4,854700
6,575333	0,5	4,836750
6,583667	0,5	4,817800
6,592000	0,5	4,798600
6,600333	0,5	4,782750
6,608667	0,5	4,767550
6,617000	0,5	4,751450
6,625333	0,5	4,743900
6,633667	0,5	4,727950
6,642000	0,5	4,717200
6,650333	0,5	4,704200
6,658667	0,5	4,716550
6,667000	0,5	4,707250
6,675333	0,5	4,703300
6,683667	0,5	4,702850
6,692000	0,5	4,708700
6,700333	0,5	4,724300
6,708667	0,5	4,720000
6,717000	0,5	4,721100
6,725333	0,5	4,724000
6,733667	0,5	4,722800
6,742000	0,5	4,730450
6,750333	0,5	4,733850
6,758667	0,5	4,744650
6,767000	0,5	4,757800
6,775333	0,5	4,781500
6,783667	0,5	4,811800
6,792000	0,5	4,831000
6,800333	0,5	4,859200
6,808667	0,5	4,900050
6,817000	0,5	4,910800
6,825333	0,5	4,918550
6,833667	0,5	4,923050
6,842000	0,5	4,923250
6,850333	0,5	4,930000
6,858667	0,5	4,916400
6,867000	0,5	4,920800
6,875333	0,5	4,937750
6,883667	0,5	4,973400
6,892000	0,5	5,007400
6,900333	0,5	5,059250
6,908667	0,5	5,095350
6,917000	0,5	5,113350
6,925333	0,5	5,114750
6,933667	0,5	5,092650
6,942000	0,5	5,066200
6,950333	0,5	5,048700
6,958667	0,5	5,053500
6,967000	0,5	5,070900
6,975333	0,5	5,122400
6,983667	0,5	5,209700
6,992000	0,5	5,338700
7,000333	0,5	5,517500
7,008667	0,5	5,737900
7,017000	0,5	6,028900
7,025333	0,5	6,410950
7,033667	0,5	6,880850
7,042000	0,5	7,468900
7,050333	0,5	8,155950
7,058667	0,5	8,947000
7,067000	0,5	9,800900
7,075333	0,5	10,696000
7,083667	0,5	11,570800
7,092000	0,5	12,357500
7,100333	0,5	12,997800
7,108667	0,5	13,433050
7,117000	0,5	13,595150
7,125333	0,5	13,487350
7,133667	0,5	13,103950
7,142000	0,5	12,493400
7,150333	0,5	11,696750
7,158667	0,5	10,764050
7,167000	0,5	9,805600
7,175333	0,5	8,874600
7,183667	0,5	8,035350
7,192000	0,5	7,314350
7,200333	0,5	6,740300
7,208667	0,5	6,315450
7,217000	0,5	6,026500
7,225333	0,5	5,836300
7,233667	0,5	5,714150
7,242000	0,5	5,619750
7,250333	0,5	5,542200
7,258667	0,5	5,448350
7,267000	0,5	5,344850
7,275333	0,5	5,246500
7,283667	0,5	5,170350
7,292000	0,5	5,109350
7,300333	0,5	5,066850
7,308667	0,5	5,049850
7,317000	0,5	5,070200
7,325333	0,5	5,128050
7,333667	0,5	5,241650
7,342000	0,5	5,414350
7,350333	0,5	5,652050
7,358667	0,5	5,949950
7,367000	0,5	6,305250
7,375333	0,5	6,712700
7,383667	0,5	7,175900
7,392000	0,5	7,716000
7,400333	0,5	8,383700
7,408667	0,5	9,267550
7,417000	0,5	10,593150
7,425333	0,5	12,740300
7,433667	0,5	16,269700
7,442000	0,5	21,803150
7,450333	0,5	29,645300
7,458667	0,5	39,416251
7,467000	0,5	49,720051
7,475333	0,5	58,512351
7,483667	0,5	63,777101
7,492000	0,5	64,441251
7,500333	0,5	60,678901
7,508667	0,5	53,592051
7,517000	0,5	44,731801
7,525333	0,5	35,559101
7,533667	0,5	27,234700
7,542000	0,5	20,456250
7,550333	0,5	15,402650
7,558667	0,5	11,886050
7,567000	0,5	9,584500
7,575333	0,5	8,130100
7,583667	0,5	7,241250
7,592000	0,5	6,693700
7,600333	0,5	6,360250
7,608667	0,5	6,157650
7,617000	0,5	6,030700
7,625333	0,5	5,920450
7,633667	0,5	5,803100
7,642000	0,5	5,646850
7,650333	0,5	5,478700
7,658667	0,5	5,320750
7,667000	0,5	5,188350
7,675333	0,5	5,095950
7,683667	0,5	5,026650
7,692000	0,5	4,990250
7,700333	0,5	4,958600
7,708667	0,5	4,930800
7,717000	0,5	4,913000
7,725333	0,5	4,908900
7,733667	0,5	4,936050
7,742000	0,5	4,974650
7,750333	0,5	5,018100
7,758667	0,5	5,057500
7,767000	0,5	5,082250
7,775333	0,5	5,104150
7,783667	0,5	5,133200
7,792000	0,5	5,185750
7,800333	0,5	5,242700
7,808667	0,5	5,270800
7,817000	0,5	5,244300
7,825333	0,5	5,151450
7,833667	0,5	5,014700
7,842000	0,5	4,881300
7,850333	0,5	4,762000
7,858667	0,5	4,687400
7,867000	0,5	4,655950
7,875333	0,5	4,662550
7,883667	0,5	4,685100
7,892000	0,5	4,690850
7,900333	0,5	4,674350
7,908667	0,5	4,642550
7,917000	0,5	4,601400
7,925333	0,5	4,558900
7,933667	0,5	4,524000
7,942000	0,5	4,505550
7,950333	0,5	4,501000
7,958667	0,5	4,509050
7,967000	0,5	4,522050
7,975333	0,5	4,523500
7,983667	0,5	4,519800
7,992000	0,5	4,515850
8,000333	0,5	4,509200
8,008667	0,5	4,510550
8,017000	0,5	4,533300
8,025333	0,5	4,578000
8,033667	0,5	4,656650
8,042000	0,5	4,761550
8,050333	0,5	4,879850
8,058667	0,5	4,985200
8,067000	0,5	5,033900
8,075333	0,5	5,000650
8,083667	0,5	4,908400
8,092000	0,5	4,794450
8,100333	0,5	4,689050
8,108667	0,5	4,612500
8,117000	0,5	4,556050
8,125333	0,5	4,511050
8,133667	0,5	4,472950
8,142000	0,5	4,436300
8,150333	0,5	4,386550
8,158667	0,5	4,340800
8,167000	0,5	4,298750
8,175333	0,5	4,269050
8,183667	0,5	4,245200
8,192000	0,5	4,230250
8,200333	0,5	4,216150
8,208667	0,5	4,208400
8,217000	0,5	4,196700
8,225333	0,5	4,188600
8,233667	0,5	4,172350
8,242000	0,5	4,150750
8,250333	0,5	4,119550
8,258667	0,5	4,083400
8,267000	0,5	4,040400
8,275333	0,5	3,996850
8,283667	0,5	3,960450
8,292000	0,5	3,926700
8,300333	0,5	3,894650
8,308667	0,5	3,865800
8,317000	0,5	3,845850
8,325333	0,5	3,831400
8,333667	0,5	3,825150
8,342000	0,5	3,823300
8,350333	0,5	3,820900
8,358667	0,5	3,817750
8,367000	0,5	3,816650
8,375333	0,5	3,812150
8,383667	0,5	3,811400
8,392000	0,5	3,810900
8,400333	0,5	3,813400
8,408667	0,5	3,822150
8,417000	0,5	3,835800
8,425333	0,5	3,869150
8,433667	0,5	3,942050
8,442000	0,5	4,039150
8,450333	0,5	4,140000
8,458667	0,5	4,229600
8,467000	0,5	4,272650
8,475333	0,5	4,280950
8,483667	0,5	4,260600
8,492000	0,5	4,255550
8,500333	0,5	4,285250
8,508667	0,5	4,379500
8,517000	0,5	4,545450
8,525333	0,5	4,781850
8,533667	0,5	5,075450
8,542000	0,5	5,406550
8,550333	0,5	5,758200
8,558667	0,5	6,135500
8,567000	0,5	6,565800
8,575333	0,5	7,144350
8,583667	0,5	8,045150
8,592000	0,5	9,633050
8,600333	0,5	12,451500
8,608667	0,5	17,066450
8,617000	0,5	23,643350
8,625333	0,5	31,461200
8,633667	0,5	38,899801
8,642000	0,5	44,010951
8,650333	0,5	45,398601
8,658667	0,5	42,833701
8,667000	0,5	37,278801
8,675333	0,5	30,292100
8,683667	0,5	23,382850
8,692000	0,5	17,530550
8,700333	0,5	13,123250
8,708667	0,5	10,088450
8,717000	0,5	8,137850
8,725333	0,5	6,934900
8,733667	0,5	6,211650
8,742000	0,5	5,768300
8,750333	0,5	5,500350
8,758667	0,5	5,348700
8,767000	0,5	5,291300
8,775333	0,5	5,311000
8,783667	0,5	5,372800
8,792000	0,5	5,447000
8,800333	0,5	5,483000
8,808667	0,5	5,456000
8,817000	0,5	5,380100
8,825333	0,5	5,295850
8,833667	0,5	5,233700
8,842000	0,5	5,211950
8,850333	0,5	5,240600
8,858667	0,5	5,286750
8,867000	0,5	5,337400
8,875333	0,5	5,370900
8,883667	0,5	5,369950
8,892000	0,5	5,346600
8,900333	0,5	5,333850
8,908667	0,5	5,369350
8,917000	0,5	5,469850
8,925333	0,5	5,603950
8,933667	0,5	5,754550
8,942000	0,5	5,912950
8,950333	0,5	6,100300
8,958667	0,5	6,380550
8,967000	0,5	6,841050
8,975333	0,5	7,626950
8,983667	0,5	8,914550
8,992000	0,5	10,964900
9,000333	0,5	14,256750
9,008667	0,5	19,407100
9,017000	0,5	26,477550
9,025333	0,5	34,141901
9,033667	0,5	39,906551
9,042000	0,5	41,745701
9,050333	0,5	39,517451
9,058667	0,5	34,531451
9,067000	0,5	28,472900
9,075333	0,5	22,629450
9,083667	0,5	17,730600
9,092000	0,5	13,999450
9,100333	0,5	11,349350
9,108667	0,5	9,558050
9,117000	0,5	8,404800
9,125333	0,5	7,690200
9,133667	0,5	7,280950
9,142000	0,5	7,062800
9,150333	0,5	6,943300
9,158667	0,5	6,857100
9,167000	0,5	6,758950
9,175333	0,5	6,630050
9,183667	0,5	6,470200
9,192000	0,5	6,290050
9,200333	0,5	6,107350
9,208667	0,5	5,931250
9,217000	0,5	5,773950
9,225333	0,5	5,622200
9,233667	0,5	5,478050
9,242000	0,5	5,341850
9,250333	0,5	5,214250
9,258667	0,5	5,098150
9,267000	0,5	4,995600
9,275333	0,5	4,911550
9,283667	0,5	4,841400
9,292000	0,5	4,779150
9,300333	0,5	4,722100
9,308667	0,5	4,658350
9,317000	0,5	4,586300
9,325333	0,5	4,510300
9,333667	0,5	4,436200
9,342000	0,5	4,375050
9,350333	0,5	4,335400
9,358667	0,5	4,319000
9,367000	0,5	4,322850
9,375333	0,5	4,319050
9,383667	0,5	4,295550
9,392000	0,5	4,248400
9,400333	0,5	4,183850
9,408667	0,5	4,119000
9,417000	0,5	4,060150
9,425333	0,5	4,014000
9,433667	0,5	3,983900
9,442000	0,5	3,959450
9,450333	0,5	3,932800
9,458667	0,5	3,905900
9,467000	0,5	3,876200
9,475333	0,5	3,847250
9,483667	0,5	3,816100
9,492000	0,5	3,791700
9,500333	0,5	3,786300
9,508667	0,5	3,798400
9,517000	0,5	3,822800
9,525333	0,5	3,857400
9,533667	0,5	3,890050
9,542000	0,5	3,910750
9,550333	0,5	3,926800
9,558667	0,5	3,930100
9,567000	0,5	3,933750
9,575333	0,5	3,932700
9,583667	0,5	3,935300
9,592000	0,5	3,948600
9,600333	0,5	3,967050
9,608667	0,5	3,999100
9,617000	0,5	4,056600
9,625333	0,5	4,123850
9,633667	0,5	4,199000
9,642000	0,5	4,283100
9,650333	0,5	4,378150
9,658667	0,5	4,484250
9,667000	0,5	4,622050
9,675333	0,5	4,779550
9,683667	0,5	4,949600
9,692000	0,5	5,118400
9,700333	0,5	5,251150
9,708667	0,5	5,318700
9,717000	0,5	5,304050
9,725333	0,5	5,196150
9,733667	0,5	5,021100
9,742000	0,5	4,793500
9,750333	0,5	4,542900
9,758667	0,5	4,298850
9,767000	0,5	4,084450
9,775333	0,5	3,907200
9,783667	0,5	3,774050
9,792000	0,5	3,675600
9,800333	0,5	3,611150
9,808667	0,5	3,569200
9,817000	0,5	3,546050
9,825333	0,5	3,533400
9,833667	0,5	3,531500
9,842000	0,5	3,537850
9,850333	0,5	3,559950
9,858667	0,5	3,592100
9,867000	0,5	3,627000
9,875333	0,5	3,659750
9,883667	0,5	3,683050
9,892000	0,5	3,707650
9,900333	0,5	3,727900
9,908667	0,5	3,740250
9,917000	0,5	3,750750
9,925333	0,5	3,757800
9,933667	0,5	3,749800
9,942000	0,5	3,726500
9,950333	0,5	3,692600
9,958667	0,5	3,652250
9,967000	0,5	3,614550
9,975333	0,5	3,583750
9,983667	0,5	3,568000
9,992000	0,5	3,585850
10,000333	0,5	3,637700
10,008667	0,5	3,717150
10,017000	0,5	3,821300
10,025333	0,5	3,937500
10,033667	0,5	4,040600
10,042000	0,5	4,111350
10,050333	0,5	4,132450
10,058667	0,5	4,111350
10,067000	0,5	4,065600
10,075333	0,5	3,995900
10,083667	0,5	3,918450
10,092000	0,5	3,838150
10,100333	0,5	3,755550
10,108667	0,5	3,677000
10,117000	0,5	3,595700
10,125333	0,5	3,521450
10,133667	0,5	3,449750
10,142000	0,5	3,390500
10,150333	0,5	3,334050
10,158667	0,5	3,297050
10,167000	0,5	3,267550
10,175333	0,5	3,250850
10,183667	0,5	3,244950
10,192000	0,5	3,246600
10,200333	0,5	3,252100
10,208667	0,5	3,265350
10,217000	0,5	3,280300
10,225333	0,5	3,290600
10,233667	0,5	3,296200
10,242000	0,5	3,297300
10,250333	0,5	3,287400
10,258667	0,5	3,273100
10,267000	0,5	3,247350
10,275333	0,5	3,220850
10,283667	0,5	3,206050
10,292000	0,5	3,210000
10,300333	0,5	3,244000
10,308667	0,5	3,304850
10,317000	0,5	3,383700
10,325333	0,5	3,455800
10,333667	0,5	3,507600
10,342000	0,5	3,518850
10,350333	0,5	3,487000
10,358667	0,5	3,428950
10,367000	0,5	3,356450
10,375333	0,5	3,282400
10,383667	0,5	3,216700
10,392000	0,5	3,163800
10,400333	0,5	3,125450
10,408667	0,5	3,097400
10,417000	0,5	3,070350
10,425333	0,5	3,049300
10,433667	0,5	3,033000
10,442000	0,5	3,020450
10,450333	0,5	3,012350
10,458667	0,5	3,010450
10,467000	0,5	3,013000
10,475333	0,5	3,014200
10,483667	0,5	3,020100
10,492000	0,5	3,031000
10,500333	0,5	3,041750
10,508667	0,5	3,066500
10,517000	0,5	3,086850
10,525333	0,5	3,096650
10,533667	0,5	3,103550
10,542000	0,5	3,112100
10,550333	0,5	3,126650
10,558667	0,5	3,151700
10,567000	0,5	3,204900
10,575333	0,5	3,268250
10,583667	0,5	3,340800
10,592000	0,5	3,395300
10,600333	0,5	3,423600
10,608667	0,5	3,411700
10,617000	0,5	3,361650
10,625333	0,5	3,281650
10,633667	0,5	3,190900
10,642000	0,5	3,092400
10,650333	0,5	3,002800
10,658667	0,5	2,918900
10,667000	0,5	2,842450
10,675333	0,5	2,762400
10,683667	0,5	2,683800
10,692000	0,5	2,609450
10,700333	0,5	2,545450
10,708667	0,5	2,491950
10,717000	0,5	2,458750
10,725333	0,5	2,450800
10,733667	0,5	2,464950
10,742000	0,5	2,505000
10,750333	0,5	2,557300
10,758667	0,5	2,621150
10,767000	0,5	2,685700
10,775333	0,5	2,744000
10,783667	0,5	2,798250
10,792000	0,5	2,845400
10,800333	0,5	2,901550
10,808667	0,5	2,956300
10,817000	0,5	3,005650
10,825333	0,5	3,046750
10,833667	0,5	3,070950
10,842000	0,5	3,083050
10,850333	0,5	3,076350
10,858667	0,5	3,054900
10,867000	0,5	3,019300
10,875333	0,5	2,973800
10,883667	0,5	2,926600
10,892000	0,5	2,879100
10,900333	0,5	2,832600
10,908667	0,5	2,793450
10,917000	0,5	2,767100
10,925333	0,5	2,756700
10,933667	0,5	2,768950
10,942000	0,5	2,794850
10,950333	0,5	2,846850
10,958667	0,5	2,911450
10,967000	0,5	2,980950
10,975333	0,5	3,046000
10,983667	0,5	3,098350
10,992000	0,5	3,142600
11,000333	0,5	3,174650
11,008667	0,5	3,191150
11,017000	0,5	3,204950
11,025333	0,5	3,211900
11,033667	0,5	3,207600
11,042000	0,5	3,193000
11,050333	0,5	3,160450
11,058667	0,5	3,112100
11,067000	0,5	3,049550
11,075333	0,5	2,981200
11,083667	0,5	2,907950
11,092000	0,5	2,835200
11,100333	0,5	2,772350
11,108667	0,5	2,716850
11,117000	0,5	2,680550
11,125333	0,5	2,654350
11,133667	0,5	2,643350
11,142000	0,5	2,652250
11,150333	0,5	2,665500
11,158667	0,5	2,690650
11,167000	0,5	2,726800
11,175333	0,5	2,776800
11,183667	0,5	2,838850
11,192000	0,5	2,915400
11,200333	0,5	2,989200
11,208667	0,5	3,052550
11,217000	0,5	3,085350
11,225333	0,5	3,087400
11,233667	0,5	3,059550
11,242000	0,5	3,013250
11,250333	0,5	2,954400
11,258667	0,5	2,898250
11,267000	0,5	2,842000
11,275333	0,5	2,785850
11,283667	0,5	2,747850
11,292000	0,5	2,718900
11,300333	0,5	2,699500
11,308667	0,5	2,696800
11,317000	0,5	2,719050
11,325333	0,5	2,771850
11,333667	0,5	2,865550
11,342000	0,5	3,019400
11,350333	0,5	3,247800
11,358667	0,5	3,569000
11,367000	0,5	3,971700
11,375333	0,5	4,409600
11,383667	0,5	4,825900
11,392000	0,5	5,168550
11,400333	0,5	5,378700
11,408667	0,5	5,427050
11,417000	0,5	5,333150
11,425333	0,5	5,128250
11,433667	0,5	4,847650
11,442000	0,5	4,536700
11,450333	0,5	4,220900
11,458667	0,5	3,936150
11,467000	0,5	3,704050
11,475333	0,5	3,540350
11,483667	0,5	3,453500
11,492000	0,5	3,451800
11,500333	0,5	3,514700
11,508667	0,5	3,639200
11,517000	0,5	3,786600
11,525333	0,5	3,925600
11,533667	0,5	4,041150
11,542000	0,5	4,111750
11,550333	0,5	4,131850
11,558667	0,5	4,112800
11,567000	0,5	4,056800
11,575333	0,5	3,984300
11,583667	0,5	3,898900
11,592000	0,5	3,802200
11,600333	0,5	3,700500
11,608667	0,5	3,605100
11,617000	0,5	3,513450
11,625333	0,5	3,442050
11,633667	0,5	3,387100
11,642000	0,5	3,341000
11,650333	0,5	3,309900
11,658667	0,5	3,284300
11,667000	0,5	3,261900
11,675333	0,5	3,231150
11,683667	0,5	3,214300
11,692000	0,5	3,210950
11,700333	0,5	3,228350
11,708667	0,5	3,258200
11,717000	0,5	3,318950
11,725333	0,5	3,409400
11,733667	0,5	3,525150
11,742000	0,5	3,642300
11,750333	0,5	3,763950
11,758667	0,5	3,860350
11,767000	0,5	3,933700
11,775333	0,5	3,960850
11,783667	0,5	3,947850
11,792000	0,5	3,896800
11,800333	0,5	3,812150
11,808667	0,5	3,718150
11,817000	0,5	3,617700
11,825333	0,5	3,514600
11,833667	0,5	3,428550
11,842000	0,5	3,354800
11,850333	0,5	3,293300
11,858667	0,5	3,235400
11,867000	0,5	3,182450
11,875333	0,5	3,144800
11,883667	0,5	3,107300
11,892000	0,5	3,077150
11,900333	0,5	3,039950
11,908667	0,5	3,010400
11,917000	0,5	2,977100
11,925333	0,5	2,954750
11,933667	0,5	2,932350
11,942000	0,5	2,919200
11,950333	0,5	2,913700
11,958667	0,5	2,914550
11,967000	0,5	2,923550
11,975333	0,5	2,932800
11,983667	0,5	2,957200
11,992000	0,5	2,983150
12,000333	0,5	2,996650
12,008667	0,5	3,007400
12,017000	0,5	3,005050
12,025333	0,5	2,985050
12,033667	0,5	2,955200
12,042000	0,5	2,895800
12,050333	0,5	2,842000
12,058667	0,5	2,778550
12,067000	0,5	2,724950
12,075333	0,5	2,675650
12,083667	0,5	2,641400
12,092000	0,5	2,611050
12,100333	0,5	2,593550
12,108667	0,5	2,582100
12,117000	0,5	2,570850
12,125333	0,5	2,567000
12,133667	0,5	2,572950
12,142000	0,5	2,575150
12,150333	0,5	2,577950
12,158667	0,5	2,590300
12,167000	0,5	2,604550
12,175333	0,5	2,626900
12,183667	0,5	2,635800
12,192000	0,5	2,641850
12,200333	0,5	2,628800
12,208667	0,5	2,603050
12,217000	0,5	2,562050
12,225333	0,5	2,520850
12,233667	0,5	2,469250
12,242000	0,5	2,424850
12,250333	0,5	2,393000
12,258667	0,5	2,366250
12,267000	0,5	2,350050
12,275333	0,5	2,351450
12,283667	0,5	2,356950
12,292000	0,5	2,359950
12,300333	0,5	2,361900
12,308667	0,5	2,357700
12,317000	0,5	2,368300
12,325333	0,5	2,380100
12,333667	0,5	2,403500
12,342000	0,5	2,437000
12,350333	0,5	2,483750
12,358667	0,5	2,543750
12,367000	0,5	2,633350
12,375333	0,5	2,732050
12,383667	0,5	2,823550
12,392000	0,5	2,903250
12,400333	0,5	2,985300
12,408667	0,5	3,047050
12,417000	0,5	3,130000
12,425333	0,5	3,283700
12,433667	0,5	3,634700
12,442000	0,5	3,962200
12,450333	0,5	4,163950
12,458667	0,5	4,198450
12,467000	0,5	3,967650
12,475333	0,5	3,471600
12,483667	0,5	2,980150
12,492000	0,5	2,380200
12,500333	0,5	1,865450
12,508667	0,5	1,539100
12,517000	0,5	1,330950
12,525333	0,5	1,190250
12,533667	0,5	1,079250
12,542000	0,5	0,983050
12,550333	0,5	0,898500
12,558667	0,5	0,818450
12,567000	0,5	0,750500
12,575333	0,5	0,703250
12,583667	0,5	0,661550
12,592000	0,5	0,628000
12,600333	0,5	0,598350
12,608667	0,5	0,579950
12,617000	0,5	0,570450
12,625333	0,5	0,557750
12,633667	0,5	0,547900
12,642000	0,5	0,536600
12,650333	0,5	0,524650
12,658667	0,5	0,514350
12,667000	0,5	0,502250
12,675333	0,5	0,487650
12,683667	0,5	0,473950
12,692000	0,5	0,463450
12,700333	0,5	0,453450
12,708667	0,5	0,428250
12,717000	0,5	0,422250
12,725333	0,5	0,412950
12,733667	0,5	0,404350
12,742000	0,5	0,389050
12,750333	0,5	0,368650
12,758667	0,5	0,360000
12,767000	0,5	0,357300
12,775333	0,5	0,342350
12,783667	0,5	0,333400
12,792000	0,5	0,326550
12,800333	0,5	0,322000
12,808667	0,5	0,314500
12,817000	0,5	0,309700
12,825333	0,5	0,305900
12,833667	0,5	0,305450
12,842000	0,5	0,310900
12,850333	0,5	0,311000
12,858667	0,5	0,303850
12,867000	0,5	0,314550
12,875333	0,5	0,312450
12,883667	0,5	0,315500
12,892000	0,5	0,310900
12,900333	0,5	0,302200
12,908667	0,5	0,302900
12,917000	0,5	0,300300
12,925333	0,5	0,298850
12,933667	0,5	0,292000
12,942000	0,5	0,289550
12,950333	0,5	0,286000
12,958667	0,5	0,286850
12,967000	0,5	0,285150
12,975333	0,5	0,280200
12,983667	0,5	0,281750
12,992000	0,5	0,285450
13,000333	0,5	0,286600
13,008667	0,5	0,282900
13,017000	0,5	0,290800
13,025333	0,5	0,289950
13,033667	0,5	0,294050
13,042000	0,5	0,291700
13,050333	0,5	0,298050
13,058667	0,5	0,306050
13,067000	0,5	0,314000
13,075333	0,5	0,318650
13,083667	0,5	0,323300
13,092000	0,5	0,324900
13,100333	0,5	0,322450
13,108667	0,5	0,315850
13,117000	0,5	0,307100
13,125333	0,5	0,294300
13,133667	0,5	0,281750
13,142000	0,5	0,266750
13,150333	0,5	0,251200
13,158667	0,5	0,235800
13,167000	0,5	0,231450
13,175333	0,5	0,216500
13,183667	0,5	0,206950
13,192000	0,5	0,196500
13,200333	0,5	0,185650
13,208667	0,5	0,190100
13,217000	0,5	0,194800
13,225333	0,5	0,196800
13,233667	0,5	0,207500
13,242000	0,5	0,221750
13,250333	0,5	0,243000
13,258667	0,5	0,277600
13,267000	0,5	0,310550
13,275333	0,5	0,347550
13,283667	0,5	0,388500
13,292000	0,5	0,421900
13,300333	0,5	0,437650
13,308667	0,5	0,451150
13,317000	0,5	0,445650
13,325333	0,5	0,419800
13,333667	0,5	0,384850
13,342000	0,5	0,342800
13,350333	0,5	0,304850
13,358667	0,5	0,271200
13,367000	0,5	0,245850
13,375333	0,5	0,226250
13,383667	0,5	0,215000
13,392000	0,5	0,215650
13,400333	0,5	0,228100
13,408667	0,5	0,245150
13,417000	0,5	0,273150
13,425333	0,5	0,294150
13,433667	0,5	0,325250
13,442000	0,5	0,342150
13,450333	0,5	0,353550
13,458667	0,5	0,374150
13,467000	0,5	0,384850
13,475333	0,5	0,382900
13,483667	0,5	0,376400
13,492000	0,5	0,352650
13,500333	0,5	0,339000
13,508667	0,5	0,317450
13,517000	0,5	0,307450
13,525333	0,5	0,295050
13,533667	0,5	0,293800
13,542000	0,5	0,289150
13,550333	0,5	0,286050
13,558667	0,5	0,286000
13,567000	0,5	0,279750
13,575333	0,5	0,284550
13,583667	0,5	0,291300
13,592000	0,5	0,286000
13,600333	0,5	0,287350
13,608667	0,5	0,289800
13,617000	0,5	0,285950
13,625333	0,5	0,283250
13,633667	0,5	0,274500
13,642000	0,5	0,279700
13,650333	0,5	0,289950
13,658667	0,5	0,304950
13,667000	0,5	0,319450
13,675333	0,5	0,335400
13,683667	0,5	0,348250
13,692000	0,5	0,364200
13,700333	0,5	0,372900
13,708667	0,5	0,374150
13,717000	0,5	0,371150
13,725333	0,5	0,357650
13,733667	0,5	0,351950
13,742000	0,5	0,329500
13,750333	0,5	0,326950
13,758667	0,5	0,322550
13,767000	0,5	0,313950
13,775333	0,5	0,300950
13,783667	0,5	0,285800
13,792000	0,5	0,282850
13,800333	0,5	0,282550
13,808667	0,5	0,280800
13,817000	0,5	0,284800
13,825333	0,5	0,286900
13,833667	0,5	0,288600
13,842000	0,5	0,288650
13,850333	0,5	0,284400
13,858667	0,5	0,280400
13,867000	0,5	0,280500
13,875333	0,5	0,283400
13,883667	0,5	0,287300
13,892000	0,5	0,277900
13,900333	0,5	0,292400
13,908667	0,5	0,294550
13,917000	0,5	0,295750
13,925333	0,5	0,292550
13,933667	0,5	0,288300
13,942000	0,5	0,298550
13,950333	0,5	0,298800
13,958667	0,5	0,308150
13,967000	0,5	0,310450
13,975333	0,5	0,323200
13,983667	0,5	0,328800
13,992000	0,5	0,343100
14,000333	0,5	0,349750
14,008667	0,5	0,361050
14,017000	0,5	0,369150
14,025333	0,5	0,380550
14,033667	0,5	0,384000
14,042000	0,5	0,386700
14,050333	0,5	0,403250
14,058667	0,5	0,407500
14,067000	0,5	0,414550
14,075333	0,5	0,415650
14,083667	0,5	0,419300
14,092000	0,5	0,432200
14,100333	0,5	0,447300
14,108667	0,5	0,457900
14,117000	0,5	0,469500
14,125333	0,5	0,479450
14,133667	0,5	0,488050
14,142000	0,5	0,495600
14,150333	0,5	0,509250
14,158667	0,5	0,512750
14,167000	0,5	0,531750
14,175333	0,5	0,540650
14,183667	0,5	0,551800
14,192000	0,5	0,564350
14,200333	0,5	0,582250
14,208667	0,5	0,591800
14,217000	0,5	0,599500
14,225333	0,5	0,607200
14,233667	0,5	0,620850
14,242000	0,5	0,638700
14,250333	0,5	0,656400
14,258667	0,5	0,673450
14,267000	0,5	0,690250
14,275333	0,5	0,706850
14,283667	0,5	0,721800
14,292000	0,5	0,744150
14,300333	0,5	0,757100
14,308667	0,5	0,774750
14,317000	0,5	0,793850
14,325333	0,5	0,808650
14,333667	0,5	0,809150
14,342000	0,5	0,831700
14,350333	0,5	0,842700
14,358667	0,5	0,854850
14,367000	0,5	0,857200
14,375333	0,5	0,865450
14,383667	0,5	0,879300
14,392000	0,5	0,892950
14,400333	0,5	0,895900
14,408667	0,5	0,905100
14,417000	0,5	0,907400
14,425333	0,5	0,907850
14,433667	0,5	0,910700
14,442000	0,5	0,909750
14,450333	0,5	0,916950
14,458667	0,5	0,918450
14,467000	0,5	0,924900
14,475333	0,5	0,915450
14,483667	0,5	0,903400
14,492000	0,5	0,904700
14,500333	0,5	0,899450
14,508667	0,5	0,889000
14,517000	0,5	0,879650
14,525333	0,5	0,871900
14,533667	0,5	0,872600
14,542000	0,5	0,867100
14,550333	0,5	0,872000
14,558667	0,5	0,866050
14,567000	0,5	0,868100
14,575333	0,5	0,863350
14,583667	0,5	0,862300
14,592000	0,5	0,858000
14,600333	0,5	0,852650
14,608667	0,5	0,858500
14,617000	0,5	0,854900
14,625333	0,5	0,841350
14,633667	0,5	0,841650
14,642000	0,5	0,842500
14,650333	0,5	0,836150
14,658667	0,5	0,828800
14,667000	0,5	0,811250
14,675333	0,5	0,816500
14,683667	0,5	0,808250
14,692000	0,5	0,807300
14,700333	0,5	0,800750
14,708667	0,5	0,798850
14,717000	0,5	0,795000
14,725333	0,5	0,793350
14,733667	0,5	0,790000
14,742000	0,5	0,788050
14,750333	0,5	0,786450
14,758667	0,5	0,783350
14,767000	0,5	0,787500
14,775333	0,5	0,771300
14,783667	0,5	0,783700
14,792000	0,5	0,783350
14,800333	0,5	0,782500
14,808667	0,5	0,773700
14,817000	0,5	0,768000
14,825333	0,5	0,774400
14,833667	0,5	0,787550
14,842000	0,5	0,787450
14,850333	0,5	0,796750
14,858667	0,5	0,799150
14,867000	0,5	0,805250
14,875333	0,5	0,805300
14,883667	0,5	0,803500
14,892000	0,5	0,799250
14,900333	0,5	0,789900
14,908667	0,5	0,790250
14,917000	0,5	0,786250
14,925333	0,5	0,775700
14,933667	0,5	0,783150
14,942000	0,5	0,787050
14,950333	0,5	0,787200
14,958667	0,5	0,794100
14,967000	0,5	0,794600
14,975333	0,5	0,819500
14,983667	0,5	0,832500
14,992000	0,5	0,839050
15,000333	0,5	0,829400
15,008667	0,5	0,818900
15,017000	0,5	0,796550
15,025333	0,5	0,790850
15,033667	0,5	0,789500
15,042000	0,5	0,811350
15,050333	0,5	0,847000
15,058667	0,5	0,886950
15,067000	0,5	0,910450
15,075333	0,5	0,925550
15,083667	0,5	0,925050
15,092000	0,5	0,895950
15,100333	0,5	0,858700
15,108667	0,5	0,811200
15,117000	0,5	0,777950
15,125333	0,5	0,760900
15,133667	0,5	0,754050
15,142000	0,5	0,751400
15,150333	0,5	0,754050
15,158667	0,5	0,747250
15,167000	0,5	0,736500
15,175333	0,5	0,716350
15,183667	0,5	0,695850
15,192000	0,5	0,675650
15,200333	0,5	0,663850
15,208667	0,5	0,650550
15,217000	0,5	0,635650
15,225333	0,5	0,629600
15,233667	0,5	0,629650
15,242000	0,5	0,617500
15,250333	0,5	0,601800
15,258667	0,5	0,584350
15,267000	0,5	0,572000
15,275333	0,5	0,568300
15,283667	0,5	0,570900
15,292000	0,5	0,568850
15,300333	0,5	0,573500
15,308667	0,5	0,574950
15,317000	0,5	0,574800
15,325333	0,5	0,572050
15,333667	0,5	0,561750
15,342000	0,5	0,559350
15,350333	0,5	0,558050
15,358667	0,5	0,552050
15,367000	0,5	0,539150
15,375333	0,5	0,545650
15,383667	0,5	0,539950
15,392000	0,5	0,539200
15,400333	0,5	0,524850
15,408667	0,5	0,519350
15,417000	0,5	0,515250
15,425333	0,5	0,509850
15,433667	0,5	0,499800
15,442000	0,5	0,494600
15,450333	0,5	0,486550
15,458667	0,5	0,480750
15,467000	0,5	0,477650
15,475333	0,5	0,475750
15,483667	0,5	0,470400
15,492000	0,5	0,463900
15,500333	0,5	0,465900
15,508667	0,5	0,445950
15,517000	0,5	0,449550
15,525333	0,5	0,444800
15,533667	0,5	0,441200
15,542000	0,5	0,431600
15,550333	0,5	0,411500
15,558667	0,5	0,407750
15,567000	0,5	0,407350
15,575333	0,5	0,402150
15,583667	0,5	0,403800
15,592000	0,5	0,397050
15,600333	0,5	0,397550
15,608667	0,5	0,392650
15,617000	0,5	0,391550
15,625333	0,5	0,391600
15,633667	0,5	0,396350
15,642000	0,5	0,405050
15,650333	0,5	0,414000
15,658667	0,5	0,403650
15,667000	0,5	0,419100
15,675333	0,5	0,425850
15,683667	0,5	0,425000
15,692000	0,5	0,426800
15,700333	0,5	0,409600
15,708667	0,5	0,417800
15,717000	0,5	0,412900
15,725333	0,5	0,410300
15,733667	0,5	0,394550
15,742000	0,5	0,389000
15,750333	0,5	0,371650
15,758667	0,5	0,370200
15,767000	0,5	0,361400
15,775333	0,5	0,357050
15,783667	0,5	0,352100
15,792000	0,5	0,352700
15,800333	0,5	0,356350
15,808667	0,5	0,343850
15,817000	0,5	0,350800
15,825333	0,5	0,345650
15,833667	0,5	0,338550
15,842000	0,5	0,318850
15,850333	0,5	0,295000
15,858667	0,5	0,287800
15,867000	0,5	0,287700
15,875333	0,5	0,273750
15,883667	0,5	0,271450
15,892000	0,5	0,262950
15,900333	0,5	0,264200
15,908667	0,5	0,262450
15,917000	0,5	0,259450
15,925333	0,5	0,254200
15,933667	0,5	0,251850
15,942000	0,5	0,254800
15,950333	0,5	0,251650
15,958667	0,5	0,241450
15,967000	0,5	0,254400
15,975333	0,5	0,250750
15,983667	0,5	0,242550
15,992000	0,5	0,234000
16,000333	0,5	0,221200
16,008667	0,5	0,226150
16,017000	0,5	0,216900
16,025333	0,5	0,219950
16,033667	0,5	0,212350
16,042000	0,5	0,221800
16,050333	0,5	0,214800
16,058667	0,5	0,220350
16,067000	0,5	0,218550
16,075333	0,5	0,219500
16,083667	0,5	0,226600
16,092000	0,5	0,227550
16,100333	0,5	0,213150
16,108667	0,5	0,212950
16,117000	0,5	0,211650
16,125333	0,5	0,202500
16,133667	0,5	0,190450
16,142000	0,5	0,175900
16,150333	0,5	0,170000
16,158667	0,5	0,162700
16,167000	0,5	0,164350
16,175333	0,5	0,159750
16,183667	0,5	0,158850
16,192000	0,5	0,157300
16,200333	0,5	0,160800
16,208667	0,5	0,158450
16,217000	0,5	0,162450
16,225333	0,5	0,160200
16,233667	0,5	0,176400
16,242000	0,5	0,170500
16,250333	0,5	0,172600
16,258667	0,5	0,174800
16,267000	0,5	0,183100
16,275333	0,5	0,174300
16,283667	0,5	0,163900
16,292000	0,5	0,146450
16,300333	0,5	0,140950
16,308667	0,5	0,132650
16,317000	0,5	0,125250
16,325333	0,5	0,116850
16,333667	0,5	0,102400
16,342000	0,5	0,095200
16,350333	0,5	0,087050
16,358667	0,5	0,082600
16,367000	0,5	0,069200
16,375333	0,5	0,070200
16,383667	0,5	0,070550
16,392000	0,5	0,059900
16,400333	0,5	0,053900
16,408667	0,5	0,056350
16,417000	0,5	0,056650
16,425333	0,5	0,052550
16,433667	0,5	0,036550
16,442000	0,5	0,039850
16,450333	0,5	0,043050
16,458667	0,5	0,046300
16,467000	0,5	0,038150
16,475333	0,5	0,041650
16,483667	0,5	0,043600
16,492000	0,5	0,043000
16,500333	0,5	0,044200
16,508667	0,5	0,041350
16,517000	0,5	0,042650
16,525333	0,5	0,039850
16,533667	0,5	0,046550
16,542000	0,5	0,022600
16,550333	0,5	0,033350
16,558667	0,5	0,034850
16,567000	0,5	0,033950
16,575333	0,5	0,025700
16,583667	0,5	0,004800
16,592000	0,5	0,004450
16,600333	0,5	0,010250
16,608667	0,5	0,000000
16,617000	0,5	-0,001150
16,625333	0,5	-0,005650
16,633667	0,5	-0,006500
16,642000	0,5	-0,009450
16,650333	0,5	-0,014900
16,658667	0,5	-0,019500
16,667000	0,5	-0,023300
16,675333	0,5	-0,019200
16,683667	0,5	-0,021150
16,692000	0,5	-0,039600
16,700333	0,5	-0,031900
16,708667	0,5	-0,034550
16,717000	0,5	-0,037800
16,725333	0,5	-0,046000
16,733667	0,5	-0,066600
16,742000	0,5	-0,057100
16,750333	0,5	-0,062100
16,758667	0,5	-0,062150
16,767000	0,5	-0,069450
16,775333	0,5	-0,071850
16,783667	0,5	-0,079400
16,792000	0,5	-0,079800
16,800333	0,5	-0,082000
16,808667	0,5	-0,084700
16,817000	0,5	-0,087600
16,825333	0,5	-0,084400
16,833667	0,5	-0,090350
16,842000	0,5	-0,104800
16,850333	0,5	-0,094500
16,858667	0,5	-0,097150
16,867000	0,5	-0,102800
16,875333	0,5	-0,118100
16,883667	0,5	-0,126950
16,892000	0,5	-0,121900
16,900333	0,5	-0,115600
16,908667	0,5	-0,115650
16,917000	0,5	-0,103300
16,925333	0,5	-0,101050
16,933667	0,5	-0,091100
16,942000	0,5	-0,086250
16,950333	0,5	-0,075700
16,958667	0,5	-0,071900
16,967000	0,5	-0,057400
16,975333	0,5	-0,045200
16,983667	0,5	-0,034550
16,992000	0,5	-0,012000
17,000333	0,5	0,011150
17,008667	0,5	0,030050
17,017000	0,5	0,035700
17,025333	0,5	0,034450
17,033667	0,5	0,033650
17,042000	0,5	0,041450
17,050333	0,5	0,041000
17,058667	0,5	0,045350
17,067000	0,5	0,061900
17,075333	0,5	0,081650
17,083667	0,5	0,107100
17,092000	0,5	0,145800
17,100333	0,5	0,174250
17,108667	0,5	0,203100
17,117000	0,5	0,221250
17,125333	0,5	0,221550
17,133667	0,5	0,197250
17,142000	0,5	0,197150
17,150333	0,5	0,176300
17,158667	0,5	0,158300
17,167000	0,5	0,141350
17,175333	0,5	0,131450
17,183667	0,5	0,132400
17,192000	0,5	0,132850
17,200333	0,5	0,130900
17,208667	0,5	0,130200
17,217000	0,5	0,136050
17,225333	0,5	0,135300
17,233667	0,5	0,151050
17,242000	0,5	0,157550
17,250333	0,5	0,179400
17,258667	0,5	0,201650
17,267000	0,5	0,233900
17,275333	0,5	0,246550
17,283667	0,5	0,265300
17,292000	0,5	0,290900
17,300333	0,5	0,301100
17,308667	0,5	0,300150
17,317000	0,5	0,279450
17,325333	0,5	0,266000
17,333667	0,5	0,247750
17,342000	0,5	0,231250
17,350333	0,5	0,212700
17,358667	0,5	0,193300
17,367000	0,5	0,179350
17,375333	0,5	0,169850
17,383667	0,5	0,156000
17,392000	0,5	0,146850
17,400333	0,5	0,130350
17,408667	0,5	0,133750
17,417000	0,5	0,126850
17,425333	0,5	0,104600
17,433667	0,5	0,104100
17,442000	0,5	0,106600
17,450333	0,5	0,092400
17,458667	0,5	0,083800
17,467000	0,5	0,056950
17,475333	0,5	0,061700
17,483667	0,5	0,063100
17,492000	0,5	0,063550
17,500333	0,5	0,060050
17,508667	0,5	0,061950
17,517000	0,5	0,056900
17,525333	0,5	0,057550
17,533667	0,5	0,051800
17,542000	0,5	0,037500
17,550333	0,5	0,033850
17,558667	0,5	0,022550
17,567000	0,5	0,014500
17,575333	0,5	-0,013750
17,583667	0,5	-0,011050
17,592000	0,5	-0,015750
17,600333	0,5	-0,022000
17,608667	0,5	-0,034100
17,617000	0,5	-0,047050
17,625333	0,5	-0,033600
17,633667	0,5	-0,013650
17,642000	0,5	-0,003300
17,650333	0,5	0,034450
17,658667	0,5	0,076050
17,667000	0,5	0,143050
17,675333	0,5	0,225750
17,683667	0,5	0,323550
17,692000	0,5	0,434950
17,700333	0,5	0,550850
17,708667	0,5	0,677400
17,717000	0,5	0,751450
17,725333	0,5	0,775450
17,733667	0,5	0,761050
17,742000	0,5	0,681600
17,750333	0,5	0,547250
17,758667	0,5	0,399450
17,767000	0,5	0,242400
17,775333	0,5	0,125300
17,783667	0,5	0,012400
17,792000	0,5	-0,064800
17,800333	0,5	-0,128500
17,808667	0,5	-0,167000
17,817000	0,5	-0,198050
17,825333	0,5	-0,219900
17,833667	0,5	-0,237400
17,842000	0,5	-0,253300
17,850333	0,5	-0,252000
17,858667	0,5	-0,251100
17,867000	0,5	-0,271750
17,875333	0,5	-0,274650
17,883667	0,5	-0,272250
17,892000	0,5	-0,277050
17,900333	0,5	-0,278800
17,908667	0,5	-0,301050
17,917000	0,5	-0,301800
17,925333	0,5	-0,307150
17,933667	0,5	-0,311250
17,942000	0,5	-0,325100
17,950333	0,5	-0,325550
17,958667	0,5	-0,333050
17,967000	0,5	-0,337150
17,975333	0,5	-0,345750
17,983667	0,5	-0,355350
17,992000	0,5	-0,362100
18,000333	0,5	-0,360700
18,008667	0,5	-0,370000
18,017000	0,5	-0,385000
18,025333	0,5	-0,384800
18,033667	0,5	-0,390900
18,042000	0,5	-0,399550
18,050333	0,5	-0,419400
18,058667	0,5	-0,437850
18,067000	0,5	-0,449450
18,075333	0,5	-0,448550
18,083667	0,5	-0,456450
18,092000	0,5	-0,459950
18,100333	0,5	-0,469350
18,108667	0,5	-0,473950
18,117000	0,5	-0,481850
18,125333	0,5	-0,481200
18,133667	0,5	-0,488950
18,142000	0,5	-0,491250
18,150333	0,5	-0,491250
18,158667	0,5	-0,499650
18,167000	0,5	-0,514750
18,175333	0,5	-0,505800
18,183667	0,5	-0,513200
18,192000	0,5	-0,520150
18,200333	0,5	-0,537400
18,208667	0,5	-0,549700
18,217000	0,5	-0,548300
18,225333	0,5	-0,557350
18,233667	0,5	-0,557850
18,242000	0,5	-0,567150
18,250333	0,5	-0,572250
18,258667	0,5	-0,577950
18,267000	0,5	-0,579550
18,275333	0,5	-0,589650
18,283667	0,5	-0,590100
18,292000	0,5	-0,586300
18,300333	0,5	-0,586900
18,308667	0,5	-0,609950
18,317000	0,5	-0,609000
18,325333	0,5	-0,608800
18,333667	0,5	-0,613950
18,342000	0,5	-0,626050
18,350333	0,5	-0,648550
18,358667	0,5	-0,651000
18,367000	0,5	-0,656500
18,375333	0,5	-0,661450
18,383667	0,5	-0,665300
18,392000	0,5	-0,665800
18,400333	0,5	-0,673850
18,408667	0,5	-0,676600
18,417000	0,5	-0,680300
18,425333	0,5	-0,679300
18,433667	0,5	-0,688600
18,442000	0,5	-0,677350
18,450333	0,5	-0,680300
18,458667	0,5	-0,695850
18,467000	0,5	-0,691100
18,475333	0,5	-0,689500
18,483667	0,5	-0,697900
18,492000	0,5	-0,706000
18,500333	0,5	-0,720050
18,508667	0,5	-0,714350
18,517000	0,5	-0,711650
18,525333	0,5	-0,712250
18,533667	0,5	-0,713800
18,542000	0,5	-0,716100
18,550333	0,5	-0,712900
18,558667	0,5	-0,713300
18,567000	0,5	-0,709500
18,575333	0,5	-0,709500
18,583667	0,5	-0,699800
18,592000	0,5	-0,688450
18,600333	0,5	-0,692200
18,608667	0,5	-0,693000
18,617000	0,5	-0,669050
18,625333	0,5	-0,661400
18,633667	0,5	-0,654250
18,642000	0,5	-0,655700
18,650333	0,5	-0,644150
18,658667	0,5	-0,623600
18,667000	0,5	-0,607550
18,675333	0,5	-0,594350
18,683667	0,5	-0,581400
18,692000	0,5	-0,566050
18,700333	0,5	-0,551450
18,708667	0,5	-0,534500
18,717000	0,5	-0,524150
18,725333	0,5	-0,513200
18,733667	0,5	-0,499400
18,742000	0,5	-0,485500
18,750333	0,5	-0,496400
18,758667	0,5	-0,486450
18,767000	0,5	-0,486800
18,775333	0,5	-0,489450
18,783667	0,5	-0,507300
18,792000	0,5	-0,528700
18,800333	0,5	-0,533050
18,808667	0,5	-0,536250
18,817000	0,5	-0,547400
18,825333	0,5	-0,557350
18,833667	0,5	-0,571600
18,842000	0,5	-0,579100
18,850333	0,5	-0,588450
18,858667	0,5	-0,602900
18,867000	0,5	-0,610950
18,875333	0,5	-0,620600
18,883667	0,5	-0,614700
18,892000	0,5	-0,627350
18,900333	0,5	-0,648800
18,908667	0,5	-0,649250
18,917000	0,5	-0,658850
18,925333	0,5	-0,666950
18,933667	0,5	-0,682050
18,942000	0,5	-0,707550
18,950333	0,5	-0,708050
18,958667	0,5	-0,717600
18,967000	0,5	-0,722900
18,975333	0,5	-0,727350
18,983667	0,5	-0,731850
18,992000	0,5	-0,736800
19,000333	0,5	-0,737300
19,008667	0,5	-0,735700
19,017000	0,5	-0,743700
19,025333	0,5	-0,736250
19,033667	0,5	-0,731600
19,042000	0,5	-0,734350
19,050333	0,5	-0,737450
19,058667	0,5	-0,721600
19,067000	0,5	-0,718750
19,075333	0,5	-0,716100
19,083667	0,5	-0,729650
19,092000	0,5	-0,727450
19,100333	0,5	-0,730850
19,108667	0,5	-0,727250
19,117000	0,5	-0,737700
19,125333	0,5	-0,737200
19,133667	0,5	-0,753350
19,142000	0,5	-0,762000
19,150333	0,5	-0,776100
19,158667	0,5	-0,790450
19,167000	0,5	-0,808350
19,175333	0,5	-0,812100
19,183667	0,5	-0,825700
19,192000	0,5	-0,849350
19,200333	0,5	-0,857600
19,208667	0,5	-0,864200
19,217000	0,5	-0,875250
19,225333	0,5	-0,889400
19,233667	0,5	-0,907400
19,242000	0,5	-0,906500
19,250333	0,5	-0,898800
19,258667	0,5	-0,901850
19,267000	0,5	-0,895400
19,275333	0,5	-0,901250
19,283667	0,5	-0,890250
19,292000	0,5	-0,886150
19,300333	0,5	-0,874200
19,308667	0,5	-0,871550
19,317000	0,5	-0,857950
19,325333	0,5	-0,839500
19,333667	0,5	-0,835050
19,342000	0,5	-0,843850
19,350333	0,5	-0,834450
19,358667	0,5	-0,839850
19,367000	0,5	-0,853650
19,375333	0,5	-0,876900
19,383667	0,5	-0,901700
19,392000	0,5	-0,907300
19,400333	0,5	-0,922950
19,408667	0,5	-0,926650
19,417000	0,5	-0,933300
19,425333	0,5	-0,930000
19,433667	0,5	-0,934900
19,442000	0,5	-0,934750
19,450333	0,5	-0,951100
19,458667	0,5	-0,962300
19,467000	0,5	-0,980050
19,475333	0,5	-0,988000
19,483667	0,5	-1,023450
19,492000	0,5	-1,032000
19,500333	0,5	-1,040650
19,508667	0,5	-1,052300
19,517000	0,5	-1,068550
19,525333	0,5	-1,094200
19,533667	0,5	-1,096500
19,542000	0,5	-1,102450
19,550333	0,5	-1,106400
19,558667	0,5	-1,117850
19,567000	0,5	-1,119200
19,575333	0,5	-1,129200
19,583667	0,5	-1,129450
19,592000	0,5	-1,140150
19,600333	0,5	-1,140100
19,608667	0,5	-1,146600
19,617000	0,5	-1,139250
19,625333	0,5	-1,137100
19,633667	0,5	-1,161500
19,642000	0,5	-1,155200
19,650333	0,5	-1,153350
19,658667	0,5	-1,164050
19,667000	0,5	-1,169150
19,675333	0,5	-1,188850
19,683667	0,5	-1,179700
19,692000	0,5	-1,167500
19,700333	0,5	-1,161900
19,708667	0,5	-1,157650
19,717000	0,5	-1,152700
19,725333	0,5	-1,139400
19,733667	0,5	-1,131750
19,742000	0,5	-1,118250
19,750333	0,5	-1,113000
19,758667	0,5	-1,098600
19,767000	0,5	-1,086950
19,775333	0,5	-1,084400
19,783667	0,5	-1,098150
19,792000	0,5	-1,094150
19,800333	0,5	-1,116350
19,808667	0,5	-1,149500
19,817000	0,5	-1,194200
19,825333	0,5	-1,232850
19,833667	0,5	-1,246350
19,842000	0,5	-1,259900
19,850333	0,5	-1,272400
19,858667	0,5	-1,280450
19,867000	0,5	-1,282550
19,875333	0,5	-1,286150
19,883667	0,5	-1,283650
19,892000	0,5	-1,287050
19,900333	0,5	-1,277750
19,908667	0,5	-1,275350
19,917000	0,5	-1,259950
19,925333	0,5	-1,266900
19,933667	0,5	-1,266650
19,942000	0,5	-1,260200
19,950333	0,5	-1,258350
19,958667	0,5	-1,267650
19,967000	0,5	-1,270800
19,975333	0,5	-1,265400
19,983667	0,5	-1,251700
19,992000	0,5	-1,254650
20,000333	0,5	-1,260750
20,008667	0,5	-1,275700
20,017000	0,5	-1,301050
20,025333	0,5	-1,321350
20,033667	0,5	-1,338500
20,042000	0,5	-1,350600
20,050333	0,5	-1,362800
20,058667	0,5	-1,351450
20,067000	0,5	-1,359100
20,075333	0,5	-1,367000
20,083667	0,5	-1,361500
20,092000	0,5	-1,356750
20,100333	0,5	-1,359200
20,108667	0,5	-1,368400
20,117000	0,5	-1,386250
20,125333	0,5	-1,380250
20,133667	0,5	-1,373550
20,142000	0,5	-1,362450
20,150333	0,5	-1,355050
20,158667	0,5	-1,332300
20,167000	0,5	-1,314600
20,175333	0,5	-1,292550
20,183667	0,5	-1,265750
20,192000	0,5	-1,253150
20,200333	0,5	-1,221200
20,208667	0,5	-1,204650
20,217000	0,5	-1,199100
20,225333	0,5	-1,190400
20,233667	0,5	-1,177150
20,242000	0,5	-1,181150
20,250333	0,5	-1,192700
20,258667	0,5	-1,237800
20,267000	0,5	-1,274150
20,275333	0,5	-1,316950
20,283667	0,5	-1,346550
20,292000	0,5	-1,375750
20,300333	0,5	-1,386200
20,308667	0,5	-1,390500
20,317000	0,5	-1,391000
20,325333	0,5	-1,388400
20,333667	0,5	-1,382800
20,342000	0,5	-1,366700
20,350333	0,5	-1,355650
20,358667	0,5	-1,345150
20,367000	0,5	-1,360800
20,375333	0,5	-1,350100
20,383667	0,5	-1,346250
20,392000	0,5	-1,344150
20,400333	0,5	-1,347000
20,408667	0,5	-1,357400
20,417000	0,5	-1,348150
20,425333	0,5	-1,344650
20,433667	0,5	-1,367250
20,442000	0,5	-1,368750
20,450333	0,5	-1,376250
20,458667	0,5	-1,376100
20,467000	0,5	-1,374550
20,475333	0,5	-1,376350
20,483667	0,5	-1,371650
20,492000	0,5	-1,367300
20,500333	0,5	-1,334150
20,508667	0,5	-1,320750
20,517000	0,5	-1,326850
20,525333	0,5	-1,316350
20,533667	0,5	-1,307900
20,542000	0,5	-1,322550
20,550333	0,5	-1,337650
20,558667	0,5	-1,357400
20,567000	0,5	-1,353550
20,575333	0,5	-1,357400
20,583667	0,5	-1,353100
20,592000	0,5	-1,350550
20,600333	0,5	-1,336850
20,608667	0,5	-1,332300
20,617000	0,5	-1,324900
20,625333	0,5	-1,327100
20,633667	0,5	-1,337100
20,642000	0,5	-1,336000
20,650333	0,5	-1,327700
20,658667	0,5	-1,338450
20,667000	0,5	-1,343650
20,675333	0,5	-1,355400
20,683667	0,5	-1,361550
20,692000	0,5	-1,379750
20,700333	0,5	-1,403900
20,708667	0,5	-1,398850
20,717000	0,5	-1,402050
20,725333	0,5	-1,402050
20,733667	0,5	-1,417050
20,742000	0,5	-1,417500
20,750333	0,5	-1,425550
20,758667	0,5	-1,424750
20,767000	0,5	-1,423050
20,775333	0,5	-1,426300
20,783667	0,5	-1,420500
20,792000	0,5	-1,399300
20,800333	0,5	-1,385350
20,808667	0,5	-1,391400
20,817000	0,5	-1,387550
20,825333	0,5	-1,389250
20,833667	0,5	-1,387800
20,842000	0,5	-1,399950
20,850333	0,5	-1,404100
20,858667	0,5	-1,393700
20,867000	0,5	-1,377450
20,875333	0,5	-1,380900
20,883667	0,5	-1,373050
20,892000	0,5	-1,379350
20,900333	0,5	-1,380450
20,908667	0,5	-1,389000
20,917000	0,5	-1,393400
20,925333	0,5	-1,390750
20,933667	0,5	-1,383900
20,942000	0,5	-1,362250
20,950333	0,5	-1,351200
20,958667	0,5	-1,358350
20,967000	0,5	-1,356900
20,975333	0,5	-1,366600
20,983667	0,5	-1,379350
20,992000	0,5	-1,389650
21,000333	0,5	-1,401800
21,008667	0,5	-1,394550
21,017000	0,5	-1,395700
21,025333	0,5	-1,389050
21,033667	0,5	-1,390300
21,042000	0,5	-1,378800
21,050333	0,5	-1,370350
21,058667	0,5	-1,360000
21,067000	0,5	-1,352150
21,075333	0,5	-1,350500
21,083667	0,5	-1,326100
21,092000	0,5	-1,311050
21,100333	0,5	-1,319100
21,108667	0,5	-1,319900
21,117000	0,5	-1,322850
21,125333	0,5	-1,331950
21,133667	0,5	-1,345000
21,142000	0,5	-1,358400
21,150333	0,5	-1,352850
21,158667	0,5	-1,357550
21,167000	0,5	-1,347850
21,175333	0,5	-1,348050
21,183667	0,5	-1,332150
21,192000	0,5	-1,331400
21,200333	0,5	-1,320250
21,208667	0,5	-1,313050
21,217000	0,5	-1,307250
21,225333	0,5	-1,301750
21,233667	0,5	-1,275150
21,242000	0,5	-1,268950
21,250333	0,5	-1,269450
21,258667	0,5	-1,274050
21,267000	0,5	-1,279350
21,275333	0,5	-1,279900
21,283667	0,5	-1,296650
21,292000	0,5	-1,290550
21,300333	0,5	-1,288350
21,308667	0,5	-1,276400
21,317000	0,5	-1,275900
21,325333	0,5	-1,267000
21,333667	0,5	-1,265300
21,342000	0,5	-1,257400
21,350333	0,5	-1,250050
21,358667	0,5	-1,243800
21,367000	0,5	-1,238850
21,375333	0,5	-1,213650
21,383667	0,5	-1,192150
21,392000	0,5	-1,181800
21,400333	0,5	-1,174250
21,408667	0,5	-1,158400
21,417000	0,5	-1,151900
21,425333	0,5	-1,154300
21,433667	0,5	-1,171000
21,442000	0,5	-1,170700
21,450333	0,5	-1,169100
21,458667	0,5	-1,177850
21,467000	0,5	-1,164800
21,475333	0,5	-1,166350
21,483667	0,5	-1,150000
21,492000	0,5	-1,137200
21,500333	0,5	-1,118250
21,508667	0,5	-1,104600
21,517000	0,5	-1,082500
21,525333	0,5	-1,034250
21,533667	0,5	-0,992600
21,542000	0,5	-0,971650
21,550333	0,5	-0,923600
21,558667	0,5	-0,876700
21,567000	0,5	-0,841650
21,575333	0,5	-0,814400
21,583667	0,5	-0,828050
21,592000	0,5	-0,835400
21,600333	0,5	-0,864600
21,608667	0,5	-0,878600
21,617000	0,5	-0,890150
21,625333	0,5	-0,883050
21,633667	0,5	-0,882800
21,642000	0,5	-0,872050
21,650333	0,5	-0,870300
21,658667	0,5	-0,867600
21,667000	0,5	-0,855550
21,675333	0,5	-0,843450
21,683667	0,5	-0,843150
21,692000	0,5	-0,841650
21,700333	0,5	-0,837200
21,708667	0,5	-0,831350
21,717000	0,5	-0,826150
21,725333	0,5	-0,830950
21,733667	0,5	-0,802000
21,742000	0,5	-0,782550
21,750333	0,5	-0,753950
21,758667	0,5	-0,736350
21,767000	0,5	-0,708650
21,775333	0,5	-0,692900
21,783667	0,5	-0,664300
21,792000	0,5	-0,638500
21,800333	0,5	-0,622500
21,808667	0,5	-0,601200
21,817000	0,5	-0,559450
21,825333	0,5	-0,534050
21,833667	0,5	-0,517650
21,842000	0,5	-0,486100
21,850333	0,5	-0,480450
21,858667	0,5	-0,474650
21,867000	0,5	-0,481150
21,875333	0,5	-0,488600
21,883667	0,5	-0,478550
21,892000	0,5	-0,455450
21,900333	0,5	-0,445600
21,908667	0,5	-0,421550
21,917000	0,5	-0,409200
21,925333	0,5	-0,384650
21,933667	0,5	-0,367450
21,942000	0,5	-0,337550
21,950333	0,5	-0,319600
21,958667	0,5	-0,291200
21,967000	0,5	-0,255950
21,975333	0,5	-0,238650
21,983667	0,5	-0,212950
21,992000	0,5	-0,182050
22,000333	0,5	-0,158850
22,008667	0,5	-0,141100
22,017000	0,5	-0,121950
22,025333	0,5	-0,101100
22,033667	0,5	-0,069400
22,042000	0,5	-0,051500
22,050333	0,5	-0,022100
22,058667	0,5	-0,003600
22,067000	0,5	0,030250
22,075333	0,5	0,060600
22,083667	0,5	0,108100
22,092000	0,5	0,156050
22,100333	0,5	0,198300
22,108667	0,5	0,245700
22,117000	0,5	0,273050
22,125333	0,5	0,302400
22,133667	0,5	0,340400
22,142000	0,5	0,376400
22,150333	0,5	0,407400
22,158667	0,5	0,432550
22,167000	0,5	0,454050
22,175333	0,5	0,492150
22,183667	0,5	0,530900
22,192000	0,5	0,565950
22,200333	0,5	0,604700
22,208667	0,5	0,650150
22,217000	0,5	0,691650
22,225333	0,5	0,741850
22,233667	0,5	0,780350
22,242000	0,5	0,827300
22,250333	0,5	0,873800
22,258667	0,5	0,920600
22,267000	0,5	0,970850
22,275333	0,5	1,036200
22,283667	0,5	1,088300
22,292000	0,5	1,115400
22,300333	0,5	1,152150
22,308667	0,5	1,174050
22,317000	0,5	1,227500
22,325333	0,5	1,275200
22,333667	0,5	1,335150
22,342000	0,5	1,381700
22,350333	0,5	1,440050
22,358667	0,5	1,486650
22,367000	0,5	1,546650
22,375333	0,5	1,600300
22,383667	0,5	1,655800
22,392000	0,5	1,705700
22,400333	0,5	1,734550
22,408667	0,5	1,796050
22,417000	0,5	1,863400
22,425333	0,5	1,951000
22,433667	0,5	2,020100
22,442000	0,5	2,085650
22,450333	0,5	2,146200
22,458667	0,5	2,211500
22,467000	0,5	2,284000
22,475333	0,5	2,348750
22,483667	0,5	2,406550
22,492000	0,5	2,473550
22,500333	0,5	2,531350
22,508667	0,5	2,600050
22,517000	0,5	2,663250
22,525333	0,5	2,730400
22,533667	0,5	2,791500
22,542000	0,5	2,843050
22,550333	0,5	2,872000
22,558667	0,5	2,935350
22,567000	0,5	3,014400
22,575333	0,5	3,072650
22,583667	0,5	3,123550
22,592000	0,5	3,156650
22,600333	0,5	3,188450
22,608667	0,5	3,223850
22,617000	0,5	3,276650
22,625333	0,5	3,305650
22,633667	0,5	3,339100
22,642000	0,5	3,362300
22,650333	0,5	3,388150
22,658667	0,5	3,401400
22,667000	0,5	3,408200
22,675333	0,5	3,398900
22,683667	0,5	3,389150
22,692000	0,5	3,320500
22,700333	0,5	3,301850
22,708667	0,5	3,278100
22,717000	0,5	3,251750
22,725333	0,5	3,195150
22,733667	0,5	3,121050
22,742000	0,5	3,036350
22,750333	0,5	2,935100
22,758667	0,5	2,860350
22,767000	0,5	2,763900
22,775333	0,5	2,669100
22,783667	0,5	2,566500
22,792000	0,5	2,456350
22,800333	0,5	2,340750
22,808667	0,5	2,223200
22,817000	0,5	2,094650
22,825333	0,5	1,960950
22,833667	0,5	1,818750
22,842000	0,5	1,610350
22,850333	0,5	1,493450
22,858667	0,5	1,361150
22,867000	0,5	1,208600
22,875333	0,5	1,053400
22,883667	0,5	0,885050
22,892000	0,5	0,731700
22,900333	0,5	0,569900
22,908667	0,5	0,416200
22,917000	0,5	0,259350
22,925333	0,5	0,117000
22,933667	0,5	-0,031950
22,942000	0,5	-0,167700
22,950333	0,5	-0,303400
22,958667	0,5	-0,435400
22,967000	0,5	-0,569000
22,975333	0,5	-0,694900
22,983667	0,5	-0,799000
22,992000	0,5	-0,943750
23,000333	0,5	-1,049650
23,008667	0,5	-1,192250
23,017000	0,5	-1,321200
23,025333	0,5	-1,424300
23,033667	0,5	-1,511250
23,042000	0,5	-1,602250
23,050333	0,5	-1,683750
23,058667	0,5	-1,773050
23,067000	0,5	-1,840750
23,075333	0,5	-1,903450
23,083667	0,5	-1,957600
23,092000	0,5	-2,017750
23,100333	0,5	-2,068000
23,108667	0,5	-2,123750
23,117000	0,5	-2,168950
23,125333	0,5	-2,217700
23,133667	0,5	-2,248250
23,142000	0,5	-2,287050
23,150333	0,5	-2,323750
23,158667	0,5	-2,395500
23,167000	0,5	-2,434850
23,175333	0,5	-2,460350
23,183667	0,5	-2,472450
23,192000	0,5	-2,483050
23,200333	0,5	-2,498500
23,208667	0,5	-2,499800
23,217000	0,5	-2,502050
23,225333	0,5	-2,493750
23,233667	0,5	-2,485000
23,242000	0,5	-2,472700
23,250333	0,5	-2,470600
23,258667	0,5	-2,458700
23,267000	0,5	-2,456300
23,275333	0,5	-2,429800
23,283667	0,5	-2,458950
23,292000	0,5	-2,432650
23,300333	0,5	-2,404600
23,308667	0,5	-2,426600
23,317000	0,5	-2,435000
23,325333	0,5	-2,419150
23,333667	0,5	-2,397600
23,342000	0,5	-2,381450
23,350333	0,5	-2,366650
23,358667	0,5	-2,340950
23,367000	0,5	-2,311250
23,375333	0,5	-2,282950
23,383667	0,5	-2,250500
23,392000	0,5	-2,218350
23,400333	0,5	-2,184250
23,408667	0,5	-2,158200
23,417000	0,5	-2,127700
23,425333	0,5	-2,137650
23,433667	0,5	-2,122850
23,442000	0,5	-2,069800
23,450333	0,5	-2,019250
23,458667	0,5	-2,012600
23,467000	0,5	-2,002200
23,475333	0,5	-1,986600
23,483667	0,5	-1,961550
23,492000	0,5	-1,948400
23,500333	0,5	-1,929000
23,508667	0,5	-1,910650
23,517000	0,5	-1,884300
23,525333	0,5	-1,858600
23,533667	0,5	-1,833100
23,542000	0,5	-1,810050
23,550333	0,5	-1,788700
23,558667	0,5	-1,763200
23,567000	0,5	-1,742550
23,575333	0,5	-1,831600
23,583667	0,5	-1,760850
23,592000	0,5	-1,721700
23,600333	0,5	-1,660400
23,608667	0,5	-1,646800
23,617000	0,5	-1,633050
23,625333	0,5	-1,615100
23,633667	0,5	-1,599750
23,642000	0,5	-1,583400
23,650333	0,5	-1,568950
23,658667	0,5	-1,548650
23,667000	0,5	-1,533700
23,675333	0,5	-1,516900
23,683667	0,5	-1,501850
23,692000	0,5	-1,483450
23,700333	0,5	-1,471850
23,708667	0,5	-1,460700
23,717000	0,5	-1,508300
23,725333	0,5	-1,575200
23,733667	0,5	-1,526000
23,742000	0,5	-1,473850
23,750333	0,5	-1,425600
23,758667	0,5	-1,410800
23,767000	0,5	-1,400900
23,775333	0,5	-1,391500
23,783667	0,5	-1,385100
23,792000	0,5	-1,363250
23,800333	0,5	-1,347150
23,808667	0,5	-1,323550
23,817000	0,5	-1,307250
23,825333	0,5	-1,289750
23,833667	0,5	-1,271150
23,842000	0,5	-1,251050
23,850333	0,5	-1,234800
23,858667	0,5	-1,225100
23,867000	0,5	-1,345350
23,875333	0,5	-1,341300
23,883667	0,5	-1,296800
23,892000	0,5	-1,228850
23,900333	0,5	-1,190550
23,908667	0,5	-1,178650
23,917000	0,5	-1,171550
23,925333	0,5	-1,173300
23,933667	0,5	-1,164150
23,942000	0,5	-1,156800
23,950333	0,5	-1,133800
23,958667	0,5	-1,119900
23,967000	0,5	-1,105200
23,975333	0,5	-1,086750
23,983667	0,5	-1,062300
23,992000	0,5	-1,047100
24,000333	0,5	-1,032100
24,008667	0,5	-1,024100
24,017000	0,5	-1,150450
24,025333	0,5	-1,106350
24,033667	0,5	-1,049050
24,042000	0,5	-0,994550
24,050333	0,5	-0,959050
24,058667	0,5	-0,939200
24,067000	0,5	-0,934200
24,075333	0,5	-0,924700
24,083667	0,5	-0,912900
24,092000	0,5	-0,885350
24,100333	0,5	-0,868100
24,108667	0,5	-0,848150
24,117000	0,5	-0,832150
24,125333	0,5	-0,811300
24,133667	0,5	-0,798150
24,142000	0,5	-0,778000
24,150333	0,5	-0,765300
24,158667	0,5	-0,817300
24,167000	0,5	-0,870000
24,175333	0,5	-0,838550
24,183667	0,5	-0,789200
24,192000	0,5	-0,738350
24,200333	0,5	-0,716050
24,208667	0,5	-0,697600
24,217000	0,5	-0,691900
24,225333	0,5	-0,684250
24,233667	0,5	-0,660050
24,242000	0,5	-0,643950
24,250333	0,5	-0,625400
24,258667	0,5	-0,605600
24,267000	0,5	-0,579700
24,275333	0,5	-0,564250
24,283667	0,5	-0,537350
24,292000	0,5	-0,522300
24,300333	0,5	-0,507300
24,308667	0,5	-0,594750
24,317000	0,5	-0,570350
24,325333	0,5	-0,551100
24,333667	0,5	-0,499200
24,342000	0,5	-0,467400
24,350333	0,5	-0,448400
24,358667	0,5	-0,442250
24,367000	0,5	-0,445350
24,375333	0,5	-0,427550
24,383667	0,5	-0,411350
24,392000	0,5	-0,397050
24,400333	0,5	-0,385550
24,408667	0,5	-0,373350
24,417000	0,5	-0,359550
24,425333	0,5	-0,341700
24,433667	0,5	-0,327900
24,442000	0,5	-0,310650
24,450333	0,5	-0,313550
24,458667	0,5	-0,372900
24,467000	0,5	-0,343600
24,475333	0,5	-0,319550
24,483667	0,5	-0,278650
24,492000	0,5	-0,256500
24,500333	0,5	-0,244450
24,508667	0,5	-0,230750
24,517000	0,5	-0,229850
24,525333	0,5	-0,212150
24,533667	0,5	-0,197900
24,542000	0,5	-0,185450
24,550333	0,5	-0,176950
24,558667	0,5	-0,165850
24,567000	0,5	-0,152350
24,575333	0,5	-0,137750
24,583667	0,5	-0,129700
24,592000	0,5	-0,122400
24,600333	0,5	-0,149150
24,608667	0,5	-0,172450
24,617000	0,5	-0,145950
24,625333	0,5	-0,126750
24,633667	0,5	-0,098550
24,642000	0,5	-0,086200
24,650333	0,5	-0,074350
24,658667	0,5	-0,075750
24,667000	0,5	-0,072050
24,675333	0,5	-0,056200
24,683667	0,5	-0,046950
24,692000	0,5	-0,037100
24,700333	0,5	-0,024650
24,708667	0,5	-0,011950
24,717000	0,5	-0,002000
24,725333	0,5	0,007900
24,733667	0,5	0,020000
24,742000	0,5	0,027400
24,750333	0,5	-0,008150
24,758667	0,5	0,003850
24,767000	0,5	0,017800
24,775333	0,5	0,032950
24,783667	0,5	0,050000
24,792000	0,5	0,061450
24,800333	0,5	0,064000
24,808667	0,5	0,063500
24,817000	0,5	0,066750
24,825333	0,5	0,074550
24,833667	0,5	0,080300
24,842000	0,5	0,088000
24,850333	0,5	0,091300
24,858667	0,5	0,099450
24,867000	0,5	0,104250
24,875333	0,5	0,116100
24,883667	0,5	0,122950
24,892000	0,5	0,126900
24,900333	0,5	0,106800
24,908667	0,5	0,118650
24,917000	0,5	0,133300
24,925333	0,5	0,147550
24,933667	0,5	0,158150
24,942000	0,5	0,163000
24,950333	0,5	0,166800
24,958667	0,5	0,165250
24,967000	0,5	0,172200
24,975333	0,5	0,176250
24,983667	0,5	0,183450
24,992000	0,5	0,187200
25,000333	0,5	0,192400
25,008667	0,5	0,192900
25,017000	0,5	0,200350
25,025333	0,5	0,204600
25,033667	0,5	0,210350
25,042000	0,5	0,204650
25,050333	0,5	0,201550
25,058667	0,5	0,208400
25,067000	0,5	0,214500
25,075333	0,5	0,223850
25,083667	0,5	0,230000
25,092000	0,5	0,235300
25,100333	0,5	0,232700
25,108667	0,5	0,234150
25,117000	0,5	0,243150
25,125333	0,5	0,245400
25,133667	0,5	0,249850
25,142000	0,5	0,253400
25,150333	0,5	0,258550
25,158667	0,5	0,260200
25,167000	0,5	0,266450
25,175333	0,5	0,269600
25,183667	0,5	0,272800
25,192000	0,5	0,270100
25,200333	0,5	0,274000
25,208667	0,5	0,277200
25,217000	0,5	0,278500
25,225333	0,5	0,283500
25,233667	0,5	0,283400
25,242000	0,5	0,284000
25,250333	0,5	0,285050
25,258667	0,5	0,285900
25,267000	0,5	0,287450
25,275333	0,5	0,290100
25,283667	0,5	0,292500
25,292000	0,5	0,293950
25,300333	0,5	0,296650
25,308667	0,5	0,301500
25,317000	0,5	0,303150
25,325333	0,5	0,309450
25,333667	0,5	0,312700
25,342000	0,5	0,312600
25,350333	0,5	0,315600
25,358667	0,5	0,321000
25,367000	0,5	0,321800
25,375333	0,5	0,320050
25,383667	0,5	0,321650
25,392000	0,5	0,321100
25,400333	0,5	0,320500
25,408667	0,5	0,319000
25,417000	0,5	0,319750
25,425333	0,5	0,320900
25,433667	0,5	0,319100
25,442000	0,5	0,318800
25,450333	0,5	0,320350
25,458667	0,5	0,319700
25,467000	0,5	0,323200
25,475333	0,5	0,324350
25,483667	0,5	0,328550
25,492000	0,5	0,334950
25,500333	0,5	0,336250
25,508667	0,5	0,336150
25,517000	0,5	0,334300
25,525333	0,5	0,333250
25,533667	0,5	0,338600
25,542000	0,5	0,337800
25,550333	0,5	0,339200
25,558667	0,5	0,339850
25,567000	0,5	0,339750
25,575333	0,5	0,338150
25,583667	0,5	0,341150
25,592000	0,5	0,337550
25,600333	0,5	0,340300
25,608667	0,5	0,337950
25,617000	0,5	0,337450
25,625333	0,5	0,340550
25,633667	0,5	0,344100
25,642000	0,5	0,348050
25,650333	0,5	0,347150
25,658667	0,5	0,344950
25,667000	0,5	0,352450
25,675333	0,5	0,345300
25,683667	0,5	0,344150
25,692000	0,5	0,350350
25,700333	0,5	0,352300
25,708667	0,5	0,355050
25,717000	0,5	0,353450
25,725333	0,5	0,348150
25,733667	0,5	0,349100
25,742000	0,5	0,350150
25,750333	0,5	0,351050
25,758667	0,5	0,351300
25,767000	0,5	0,352000
25,775333	0,5	0,351100
25,783667	0,5	0,366500
25,792000	0,5	0,362900
25,800333	0,5	0,362500
25,808667	0,5	0,354700
25,817000	0,5	0,356200
25,825333	0,5	0,356750
25,833667	0,5	0,360250
25,842000	0,5	0,365300
25,850333	0,5	0,367000
25,858667	0,5	0,362750
25,867000	0,5	0,368050
25,875333	0,5	0,366850
25,883667	0,5	0,366950
25,892000	0,5	0,368150
25,900333	0,5	0,368300
25,908667	0,5	0,370600
25,917000	0,5	0,371650
25,925333	0,5	0,373800
25,933667	0,5	0,381450
25,942000	0,5	0,382250
25,950333	0,5	0,382850
25,958667	0,5	0,371800
25,967000	0,5	0,371500
25,975333	0,5	0,374950
25,983667	0,5	0,378200
25,992000	0,5	0,384950
26,000333	0,5	0,383550
