File Path	chrom://chromeleon01/ikbm_chromeleon/2022/ICS-5000/ED1/Esteban/20220612_Cell_7_4_eg.seq/263.smp/ED_1.channel/ED_1.chm
Channel	ED_1

Injection Information:
Data Vault	ikbm_chromeleon
Injection	4_04h-EGS_3
Injection Number	90
Position	GD7
Comment	
Processing Method	Stop sequence after Cell Death
Instrument Method	ICS5000_PA200_FullNative_Ox_26min_ED1
Type	Unknown
Status	Finished
Injection Date	14.06.2022
Injection Time	10:29:14
Injection Volume (µl)	5,0
Dilution Factor	1,0000
Weight	1,0000

Chromatogram Data Information:
Time Min. (min)	0,000333
Time Max. (min)	26,000333
Data Points	3121
Detector	EDet1
Generating Data System	Chromeleon 7.2.9.11323
Exporting Data System	Chromeleon 7.2.9.0
Operator	Instrument Controller
Signal Quantity	
Signal Unit	nC
Signal Min.	-2,763900
Signal Max.	2 275,069084
Channel	ED_1
Driver Name	DC-5000
Channel Type	Evaluation
Min. Step (s)	0,5
Max. Step (s)	0,5
Average Step (s)	0,5

Signal Parameter Information:
Signal Info	

Chromatogram Data:
Time (min)	Step (s)	Value (nC)
0,000333	n.a.	-0,056900
0,008667	0,5	-0,052500
0,017000	0,5	-0,028600
0,025333	0,5	-0,018200
0,033667	0,5	-0,000700
0,042000	0,5	-0,009400
0,050333	0,5	0,004250
0,058667	0,5	-0,006400
0,067000	0,5	0,000850
0,075333	0,5	-0,012700
0,083667	0,5	-0,009700
0,092000	0,5	-0,011800
0,100333	0,5	-0,013150
0,108667	0,5	-0,035350
0,117000	0,5	-0,028450
0,125333	0,5	-0,007650
0,133667	0,5	-0,034950
0,142000	0,5	-0,045150
0,150333	0,5	-0,036350
0,158667	0,5	-0,022800
0,167000	0,5	-0,003550
0,175333	0,5	-0,018950
0,183667	0,5	-0,033200
0,192000	0,5	-0,021600
0,200333	0,5	-0,026950
0,208667	0,5	-0,026100
0,217000	0,5	-0,038200
0,225333	0,5	-0,038900
0,233667	0,5	-0,048000
0,242000	0,5	-0,049600
0,250333	0,5	-0,045650
0,258667	0,5	-0,062150
0,267000	0,5	-0,054550
0,275333	0,5	-0,046200
0,283667	0,5	-0,061550
0,292000	0,5	-0,022250
0,300333	0,5	0,005950
0,308667	0,5	-0,004150
0,317000	0,5	-0,040800
0,325333	0,5	-0,080900
0,333667	0,5	-0,081850
0,342000	0,5	-0,080750
0,350333	0,5	-0,075350
0,358667	0,5	-0,080650
0,367000	0,5	-0,076700
0,375333	0,5	-0,087150
0,383667	0,5	-0,080000
0,392000	0,5	-0,086650
0,400333	0,5	-0,087050
0,408667	0,5	-0,107500
0,417000	0,5	-0,079550
0,425333	0,5	-0,106450
0,433667	0,5	-0,109100
0,442000	0,5	-0,113650
0,450333	0,5	-0,098450
0,458667	0,5	-0,074100
0,467000	0,5	-0,072700
0,475333	0,5	-0,082850
0,483667	0,5	-0,084100
0,492000	0,5	-0,086300
0,500333	0,5	-0,088750
0,508667	0,5	-0,088000
0,517000	0,5	-0,099000
0,525333	0,5	-0,097500
0,533667	0,5	-0,104650
0,542000	0,5	-0,099450
0,550333	0,5	-0,123400
0,558667	0,5	-0,122900
0,567000	0,5	-0,103650
0,575333	0,5	-0,113800
0,583667	0,5	-0,121000
0,592000	0,5	-0,119750
0,600333	0,5	-0,109200
0,608667	0,5	-0,075600
0,617000	0,5	-0,076850
0,625333	0,5	-0,075950
0,633667	0,5	-0,086900
0,642000	0,5	-0,078000
0,650333	0,5	-0,086450
0,658667	0,5	-0,087000
0,667000	0,5	-0,094650
0,675333	0,5	-0,096650
0,683667	0,5	-0,092950
0,692000	0,5	-0,098850
0,700333	0,5	-0,105450
0,708667	0,5	-0,099300
0,717000	0,5	-0,089950
0,725333	0,5	-0,115250
0,733667	0,5	-0,112900
0,742000	0,5	-0,109900
0,750333	0,5	-0,079550
0,758667	0,5	-0,066550
0,767000	0,5	-0,061350
0,775333	0,5	-0,077600
0,783667	0,5	-0,073700
0,792000	0,5	-0,078600
0,800333	0,5	-0,073500
0,808667	0,5	-0,077750
0,817000	0,5	-0,077350
0,825333	0,5	-0,080300
0,833667	0,5	-0,081650
0,842000	0,5	-0,085950
0,850333	0,5	-0,093100
0,858667	0,5	-0,068950
0,867000	0,5	-0,075900
0,875333	0,5	-0,097150
0,883667	0,5	-0,091350
0,892000	0,5	-0,085300
0,900333	0,5	-0,060550
0,908667	0,5	-0,052100
0,917000	0,5	-0,068250
0,925333	0,5	-0,058550
0,933667	0,5	-0,064800
0,942000	0,5	-0,059200
0,950333	0,5	-0,067450
0,958667	0,5	-0,064500
0,967000	0,5	-0,076900
0,975333	0,5	-0,069350
0,983667	0,5	-0,069800
0,992000	0,5	-0,080600
1,000333	0,5	-0,089150
1,008667	0,5	-0,050900
1,017000	0,5	-0,075550
1,025333	0,5	-0,082300
1,033667	0,5	-0,078950
1,042000	0,5	-0,070800
1,050333	0,5	-0,035350
1,058667	0,5	-0,052150
1,067000	0,5	-0,047850
1,075333	0,5	-0,052100
1,083667	0,5	-0,050200
1,092000	0,5	-0,052050
1,100333	0,5	-0,050450
1,108667	0,5	-0,058100
1,117000	0,5	-0,056350
1,125333	0,5	-0,063400
1,133667	0,5	-0,055350
1,142000	0,5	-0,069250
1,150333	0,5	-0,060700
1,158667	0,5	-0,046650
1,167000	0,5	-0,065500
1,175333	0,5	-0,071300
1,183667	0,5	-0,061500
1,192000	0,5	-0,050500
1,200333	0,5	-0,021100
1,208667	0,5	-0,036050
1,217000	0,5	-0,041450
1,225333	0,5	-0,038150
1,233667	0,5	-0,036050
1,242000	0,5	-0,034700
1,250333	0,5	-0,038950
1,258667	0,5	-0,041700
1,267000	0,5	-0,047150
1,275333	0,5	-0,040600
1,283667	0,5	-0,037600
1,292000	0,5	-0,034300
1,300333	0,5	-0,032950
1,308667	0,5	-0,020900
1,317000	0,5	-0,049400
1,325333	0,5	-0,051600
1,333667	0,5	-0,047550
1,342000	0,5	-0,029800
1,350333	0,5	-0,010850
1,358667	0,5	-0,025650
1,367000	0,5	-0,029800
1,375333	0,5	-0,020950
1,383667	0,5	-0,022700
1,392000	0,5	-0,024000
1,400333	0,5	-0,029800
1,408667	0,5	-0,034950
1,417000	0,5	-0,026100
1,425333	0,5	-0,033100
1,433667	0,5	-0,020150
1,442000	0,5	-0,041700
1,450333	0,5	-0,027700
1,458667	0,5	-0,036650
1,467000	0,5	-0,044800
1,475333	0,5	-0,049850
1,483667	0,5	-0,037750
1,492000	0,5	-0,023050
1,500333	0,5	-0,015950
1,508667	0,5	-0,032750
1,517000	0,5	-0,025800
1,525333	0,5	-0,040100
1,533667	0,5	-0,034100
1,542000	0,5	-0,029050
1,550333	0,5	0,002350
1,558667	0,5	0,121400
1,567000	0,5	0,441850
1,575333	0,5	1,426850
1,583667	0,5	6,719250
1,592000	0,5	32,391400
1,600333	0,5	129,932352
1,608667	0,5	436,430157
1,617000	0,5	1 115,618117
1,625333	0,5	1 554,497123
1,633667	0,5	2 268,872734
1,642000	0,5	2 275,069084
1,650333	0,5	2 203,557383
1,658667	0,5	1 988,263630
1,667000	0,5	1 545,909973
1,675333	0,5	1 054,977516
1,683667	0,5	702,498360
1,692000	0,5	494,741407
1,700333	0,5	372,540506
1,708667	0,5	293,629604
1,717000	0,5	240,871304
1,725333	0,5	202,571853
1,733667	0,5	173,731503
1,742000	0,5	151,691802
1,750333	0,5	133,865802
1,758667	0,5	118,563652
1,767000	0,5	105,542202
1,775333	0,5	95,166351
1,783667	0,5	87,857701
1,792000	0,5	83,950901
1,800333	0,5	83,624001
1,808667	0,5	85,879951
1,817000	0,5	87,941551
1,825333	0,5	86,787101
1,833667	0,5	81,763801
1,842000	0,5	74,630501
1,850333	0,5	67,866501
1,858667	0,5	62,787151
1,867000	0,5	59,162901
1,875333	0,5	56,192301
1,883667	0,5	53,757201
1,892000	0,5	52,217901
1,900333	0,5	51,472601
1,908667	0,5	50,923051
1,917000	0,5	50,152551
1,925333	0,5	49,367551
1,933667	0,5	49,515751
1,942000	0,5	51,421851
1,950333	0,5	54,202301
1,958667	0,5	55,167501
1,967000	0,5	53,059301
1,975333	0,5	49,667251
1,983667	0,5	47,120101
1,992000	0,5	46,101101
2,000333	0,5	46,438801
2,008667	0,5	48,063901
2,017000	0,5	51,094051
2,025333	0,5	55,826001
2,033667	0,5	62,466751
2,042000	0,5	71,539101
2,050333	0,5	83,708301
2,058667	0,5	99,282901
2,067000	0,5	115,286602
2,075333	0,5	125,260252
2,083667	0,5	123,539102
2,092000	0,5	110,922152
2,100333	0,5	94,028451
2,108667	0,5	78,654651
2,117000	0,5	66,940901
2,125333	0,5	58,946351
2,133667	0,5	54,349901
2,142000	0,5	53,135201
2,150333	0,5	55,216651
2,158667	0,5	58,664351
2,167000	0,5	59,709451
2,175333	0,5	56,875651
2,183667	0,5	52,691301
2,192000	0,5	49,134501
2,200333	0,5	45,543901
2,208667	0,5	41,384901
2,217000	0,5	37,346301
2,225333	0,5	34,169151
2,233667	0,5	32,007050
2,242000	0,5	30,591950
2,250333	0,5	29,878400
2,258667	0,5	29,757250
2,267000	0,5	30,191800
2,275333	0,5	31,071250
2,283667	0,5	32,151400
2,292000	0,5	32,724950
2,300333	0,5	32,194150
2,308667	0,5	30,790100
2,317000	0,5	29,301450
2,325333	0,5	28,270650
2,333667	0,5	27,800750
2,342000	0,5	27,834650
2,350333	0,5	28,269050
2,358667	0,5	29,129100
2,367000	0,5	30,349000
2,375333	0,5	31,666850
2,383667	0,5	32,600700
2,392000	0,5	32,889500
2,400333	0,5	32,573350
2,408667	0,5	31,855000
2,417000	0,5	30,946000
2,425333	0,5	30,278050
2,433667	0,5	30,791700
2,442000	0,5	32,119750
2,450333	0,5	31,385050
2,458667	0,5	28,824000
2,467000	0,5	26,808500
2,475333	0,5	25,621350
2,483667	0,5	24,827850
2,492000	0,5	24,150500
2,500333	0,5	23,581750
2,508667	0,5	23,181400
2,517000	0,5	22,961950
2,525333	0,5	22,888700
2,533667	0,5	22,936700
2,542000	0,5	22,997150
2,550333	0,5	23,048050
2,558667	0,5	22,997450
2,567000	0,5	22,848850
2,575333	0,5	22,611350
2,583667	0,5	22,369800
2,592000	0,5	22,161800
2,600333	0,5	22,056600
2,608667	0,5	22,084700
2,617000	0,5	22,257150
2,625333	0,5	22,574850
2,633667	0,5	22,986200
2,642000	0,5	23,344300
2,650333	0,5	23,646400
2,658667	0,5	23,910650
2,667000	0,5	24,211400
2,675333	0,5	24,660900
2,683667	0,5	25,395200
2,692000	0,5	26,684600
2,700333	0,5	28,901450
2,708667	0,5	32,821100
2,717000	0,5	40,031101
2,725333	0,5	53,417451
2,733667	0,5	76,299651
2,742000	0,5	109,416402
2,750333	0,5	146,642902
2,758667	0,5	175,659203
2,767000	0,5	185,379803
2,775333	0,5	173,857253
2,783667	0,5	147,999352
2,792000	0,5	118,244052
2,800333	0,5	92,540351
2,808667	0,5	73,853951
2,817000	0,5	61,354951
2,825333	0,5	52,935651
2,833667	0,5	46,925351
2,842000	0,5	42,459001
2,850333	0,5	39,170001
2,858667	0,5	36,947501
2,867000	0,5	35,964601
2,875333	0,5	36,568701
2,883667	0,5	38,961951
2,892000	0,5	42,674801
2,900333	0,5	46,513051
2,908667	0,5	48,943001
2,917000	0,5	48,933851
2,925333	0,5	46,372701
2,933667	0,5	41,948001
2,942000	0,5	36,743401
2,950333	0,5	31,769000
2,958667	0,5	27,580350
2,967000	0,5	24,379000
2,975333	0,5	22,026500
2,983667	0,5	20,359600
2,992000	0,5	19,181300
3,000333	0,5	18,328700
3,008667	0,5	17,669600
3,017000	0,5	17,127700
3,025333	0,5	16,657100
3,033667	0,5	16,250550
3,042000	0,5	15,917300
3,050333	0,5	15,688700
3,058667	0,5	15,607200
3,067000	0,5	15,664350
3,075333	0,5	15,914700
3,083667	0,5	16,162200
3,092000	0,5	16,351150
3,100333	0,5	16,337800
3,108667	0,5	16,091450
3,117000	0,5	15,652450
3,125333	0,5	15,076750
3,133667	0,5	14,483700
3,142000	0,5	13,969900
3,150333	0,5	13,536050
3,158667	0,5	13,207500
3,167000	0,5	12,948700
3,175333	0,5	12,762900
3,183667	0,5	12,628050
3,192000	0,5	12,546300
3,200333	0,5	12,512600
3,208667	0,5	12,498400
3,217000	0,5	12,545600
3,225333	0,5	12,700750
3,233667	0,5	12,950350
3,242000	0,5	13,428550
3,250333	0,5	14,136450
3,258667	0,5	14,986300
3,267000	0,5	15,772450
3,275333	0,5	16,176450
3,283667	0,5	16,103500
3,292000	0,5	15,530550
3,300333	0,5	14,644900
3,308667	0,5	13,655350
3,317000	0,5	12,782450
3,325333	0,5	12,112350
3,333667	0,5	11,682200
3,342000	0,5	11,430150
3,350333	0,5	11,310150
3,358667	0,5	11,261250
3,367000	0,5	11,266800
3,375333	0,5	11,292700
3,383667	0,5	11,292950
3,392000	0,5	11,293050
3,400333	0,5	11,273750
3,408667	0,5	11,226050
3,417000	0,5	11,145800
3,425333	0,5	11,009350
3,433667	0,5	10,858150
3,442000	0,5	10,716300
3,450333	0,5	10,580700
3,458667	0,5	10,471050
3,467000	0,5	10,374250
3,475333	0,5	10,311300
3,483667	0,5	10,257950
3,492000	0,5	10,245750
3,500333	0,5	10,269500
3,508667	0,5	10,336750
3,517000	0,5	10,454200
3,525333	0,5	10,591850
3,533667	0,5	10,719350
3,542000	0,5	10,850600
3,550333	0,5	10,945250
3,558667	0,5	11,015500
3,567000	0,5	11,058700
3,575333	0,5	11,073900
3,583667	0,5	11,109000
3,592000	0,5	11,159600
3,600333	0,5	11,243450
3,608667	0,5	11,366400
3,617000	0,5	11,553150
3,625333	0,5	11,852800
3,633667	0,5	12,459650
3,642000	0,5	13,660900
3,650333	0,5	15,739000
3,658667	0,5	18,476850
3,667000	0,5	21,169300
3,675333	0,5	22,997900
3,683667	0,5	23,673000
3,692000	0,5	23,335700
3,700333	0,5	22,373900
3,708667	0,5	21,149100
3,717000	0,5	19,901100
3,725333	0,5	18,752650
3,733667	0,5	17,748100
3,742000	0,5	16,862200
3,750333	0,5	16,085200
3,758667	0,5	15,395950
3,767000	0,5	14,782850
3,775333	0,5	14,246250
3,783667	0,5	13,772700
3,792000	0,5	13,358700
3,800333	0,5	12,970500
3,808667	0,5	12,652250
3,817000	0,5	12,367750
3,825333	0,5	12,090500
3,833667	0,5	11,837600
3,842000	0,5	11,620100
3,850333	0,5	11,434300
3,858667	0,5	11,276100
3,867000	0,5	11,126250
3,875333	0,5	11,025000
3,883667	0,5	10,965150
3,892000	0,5	10,967600
3,900333	0,5	11,011800
3,908667	0,5	11,097050
3,917000	0,5	11,183700
3,925333	0,5	11,236150
3,933667	0,5	11,222600
3,942000	0,5	11,115750
3,950333	0,5	10,926450
3,958667	0,5	10,701300
3,967000	0,5	10,423700
3,975333	0,5	10,137200
3,983667	0,5	9,877950
3,992000	0,5	9,656050
4,000333	0,5	9,495900
4,008667	0,5	9,338800
4,017000	0,5	9,213900
4,025333	0,5	9,105200
4,033667	0,5	9,029100
4,042000	0,5	8,955800
4,050333	0,5	8,901550
4,058667	0,5	8,842850
4,067000	0,5	8,800400
4,075333	0,5	8,766750
4,083667	0,5	8,740800
4,092000	0,5	8,729450
4,100333	0,5	8,712300
4,108667	0,5	8,723050
4,117000	0,5	8,697900
4,125333	0,5	8,671400
4,133667	0,5	8,637350
4,142000	0,5	8,604800
4,150333	0,5	8,579250
4,158667	0,5	8,536350
4,167000	0,5	8,476150
4,175333	0,5	8,445100
4,183667	0,5	8,402900
4,192000	0,5	8,379750
4,200333	0,5	8,351500
4,208667	0,5	8,332850
4,217000	0,5	8,311600
4,225333	0,5	8,306150
4,233667	0,5	8,307050
4,242000	0,5	8,316950
4,250333	0,5	8,335150
4,258667	0,5	8,405650
4,267000	0,5	8,449550
4,275333	0,5	8,536350
4,283667	0,5	8,647150
4,292000	0,5	8,797650
4,300333	0,5	8,983900
4,308667	0,5	9,141150
4,317000	0,5	9,323600
4,325333	0,5	9,507700
4,333667	0,5	9,689550
4,342000	0,5	9,856400
4,350333	0,5	10,023750
4,358667	0,5	10,183100
4,367000	0,5	10,357500
4,375333	0,5	10,533900
4,383667	0,5	10,716200
4,392000	0,5	10,868600
4,400333	0,5	11,002250
4,408667	0,5	11,086100
4,417000	0,5	11,059800
4,425333	0,5	10,965750
4,433667	0,5	10,802050
4,442000	0,5	10,581300
4,450333	0,5	10,325400
4,458667	0,5	10,021450
4,467000	0,5	9,714300
4,475333	0,5	9,413700
4,483667	0,5	9,134100
4,492000	0,5	8,881050
4,500333	0,5	8,659600
4,508667	0,5	8,475800
4,517000	0,5	8,320550
4,525333	0,5	8,212200
4,533667	0,5	8,115300
4,542000	0,5	8,054400
4,550333	0,5	8,020300
4,558667	0,5	8,003550
4,567000	0,5	7,987750
4,575333	0,5	8,006400
4,583667	0,5	8,042600
4,592000	0,5	8,104900
4,600333	0,5	8,166700
4,608667	0,5	8,227550
4,617000	0,5	8,278700
4,625333	0,5	8,333500
4,633667	0,5	8,370750
4,642000	0,5	8,400500
4,650333	0,5	8,417850
4,658667	0,5	8,420900
4,667000	0,5	8,425150
4,675333	0,5	8,422550
4,683667	0,5	8,424850
4,692000	0,5	8,433050
4,700333	0,5	8,466700
4,708667	0,5	8,482250
4,717000	0,5	8,498750
4,725333	0,5	8,520600
4,733667	0,5	8,548200
4,742000	0,5	8,564350
4,750333	0,5	8,557200
4,758667	0,5	8,517350
4,767000	0,5	8,479000
4,775333	0,5	8,408300
4,783667	0,5	8,335200
4,792000	0,5	8,243850
4,800333	0,5	8,154150
4,808667	0,5	8,066950
4,817000	0,5	7,989050
4,825333	0,5	7,922850
4,833667	0,5	7,849900
4,842000	0,5	7,805300
4,850333	0,5	7,779000
4,858667	0,5	7,733300
4,867000	0,5	7,699900
4,875333	0,5	7,683250
4,883667	0,5	7,676050
4,892000	0,5	7,685450
4,900333	0,5	7,667250
4,908667	0,5	7,674100
4,917000	0,5	7,668650
4,925333	0,5	7,674300
4,933667	0,5	7,670600
4,942000	0,5	7,673800
4,950333	0,5	7,667200
4,958667	0,5	7,663700
4,967000	0,5	7,654550
4,975333	0,5	7,637050
4,983667	0,5	7,610000
4,992000	0,5	7,608150
5,000333	0,5	7,592200
5,008667	0,5	7,575450
5,017000	0,5	7,560100
5,025333	0,5	7,561150
5,033667	0,5	7,570650
5,042000	0,5	7,564000
5,050333	0,5	7,557600
5,058667	0,5	7,547500
5,067000	0,5	7,547700
5,075333	0,5	7,540550
5,083667	0,5	7,540550
5,092000	0,5	7,538400
5,100333	0,5	7,541500
5,108667	0,5	7,536350
5,117000	0,5	7,544300
5,125333	0,5	7,548150
5,133667	0,5	7,552150
5,142000	0,5	7,574050
5,150333	0,5	7,579800
5,158667	0,5	7,583600
5,167000	0,5	7,591100
5,175333	0,5	7,601950
5,183667	0,5	7,625550
5,192000	0,5	7,627600
5,200333	0,5	7,623000
5,208667	0,5	7,626200
5,217000	0,5	7,635400
5,225333	0,5	7,638150
5,233667	0,5	7,638450
5,242000	0,5	7,637750
5,250333	0,5	7,625350
5,258667	0,5	7,618600
5,267000	0,5	7,587800
5,275333	0,5	7,538150
5,283667	0,5	7,472000
5,292000	0,5	7,412700
5,300333	0,5	7,302200
5,308667	0,5	7,188250
5,317000	0,5	7,068500
5,325333	0,5	6,961300
5,333667	0,5	6,868700
5,342000	0,5	6,760950
5,350333	0,5	6,671250
5,358667	0,5	6,601750
5,367000	0,5	6,545250
5,375333	0,5	6,505700
5,383667	0,5	6,476500
5,392000	0,5	6,457550
5,400333	0,5	6,459350
5,408667	0,5	6,476550
5,417000	0,5	6,508950
5,425333	0,5	6,555600
5,433667	0,5	6,642950
5,442000	0,5	6,759350
5,450333	0,5	6,875700
5,458667	0,5	6,998400
5,467000	0,5	7,112250
5,475333	0,5	7,198950
5,483667	0,5	7,245700
5,492000	0,5	7,222450
5,500333	0,5	7,152600
5,508667	0,5	7,034700
5,517000	0,5	6,901450
5,525333	0,5	6,749650
5,533667	0,5	6,616450
5,542000	0,5	6,490250
5,550333	0,5	6,389750
5,558667	0,5	6,316650
5,567000	0,5	6,253800
5,575333	0,5	6,216100
5,583667	0,5	6,207450
5,592000	0,5	6,209850
5,600333	0,5	6,212750
5,608667	0,5	6,234100
5,617000	0,5	6,260450
5,625333	0,5	6,291500
5,633667	0,5	6,293350
5,642000	0,5	6,276700
5,650333	0,5	6,230250
5,658667	0,5	6,180550
5,667000	0,5	6,121800
5,675333	0,5	6,081500
5,683667	0,5	6,048450
5,692000	0,5	6,041100
5,700333	0,5	6,044850
5,708667	0,5	6,060650
5,717000	0,5	6,069550
5,725333	0,5	6,073200
5,733667	0,5	6,070400
5,742000	0,5	6,045150
5,750333	0,5	5,994250
5,758667	0,5	5,941550
5,767000	0,5	5,887050
5,775333	0,5	5,843050
5,783667	0,5	5,797550
5,792000	0,5	5,754450
5,800333	0,5	5,735750
5,808667	0,5	5,734400
5,817000	0,5	5,766500
5,825333	0,5	5,818600
5,833667	0,5	5,896750
5,842000	0,5	5,986250
5,850333	0,5	6,087050
5,858667	0,5	6,169350
5,867000	0,5	6,223950
5,875333	0,5	6,257550
5,883667	0,5	6,286250
5,892000	0,5	6,283350
5,900333	0,5	6,295850
5,908667	0,5	6,332200
5,917000	0,5	6,411600
5,925333	0,5	6,542500
5,933667	0,5	6,730100
5,942000	0,5	7,014200
5,950333	0,5	7,430600
5,958667	0,5	8,022500
5,967000	0,5	8,830350
5,975333	0,5	9,897900
5,983667	0,5	11,208600
5,992000	0,5	12,713600
6,000333	0,5	14,283300
6,008667	0,5	15,774700
6,017000	0,5	16,978700
6,025333	0,5	17,787900
6,033667	0,5	18,067250
6,042000	0,5	17,802600
6,050333	0,5	17,065800
6,058667	0,5	15,976800
6,067000	0,5	14,671150
6,075333	0,5	13,283050
6,083667	0,5	11,911150
6,092000	0,5	10,661700
6,100333	0,5	9,570650
6,108667	0,5	8,664350
6,117000	0,5	7,929050
6,125333	0,5	7,345550
6,133667	0,5	6,892450
6,142000	0,5	6,539900
6,150333	0,5	6,274250
6,158667	0,5	6,064300
6,167000	0,5	5,913000
6,175333	0,5	5,802150
6,183667	0,5	5,718850
6,192000	0,5	5,653350
6,200333	0,5	5,602800
6,208667	0,5	5,561100
6,217000	0,5	5,532000
6,225333	0,5	5,491500
6,233667	0,5	5,447550
6,242000	0,5	5,399450
6,250333	0,5	5,364250
6,258667	0,5	5,324600
6,267000	0,5	5,292950
6,275333	0,5	5,259450
6,283667	0,5	5,229400
6,292000	0,5	5,200250
6,300333	0,5	5,176150
6,308667	0,5	5,159350
6,317000	0,5	5,131400
6,325333	0,5	5,125900
6,333667	0,5	5,107450
6,342000	0,5	5,097500
6,350333	0,5	5,099200
6,358667	0,5	5,108000
6,367000	0,5	5,122600
6,375333	0,5	5,129450
6,383667	0,5	5,129600
6,392000	0,5	5,139800
6,400333	0,5	5,143050
6,408667	0,5	5,148800
6,417000	0,5	5,149350
6,425333	0,5	5,147600
6,433667	0,5	5,135800
6,442000	0,5	5,124500
6,450333	0,5	5,107700
6,458667	0,5	5,087300
6,467000	0,5	5,063350
6,475333	0,5	5,047050
6,483667	0,5	5,008850
6,492000	0,5	4,979650
6,500333	0,5	4,955300
6,508667	0,5	4,940900
6,517000	0,5	4,929200
6,525333	0,5	4,904750
6,533667	0,5	4,888650
6,542000	0,5	4,874900
6,550333	0,5	4,868900
6,558667	0,5	4,861200
6,567000	0,5	4,856700
6,575333	0,5	4,843250
6,583667	0,5	4,834100
6,592000	0,5	4,820450
6,600333	0,5	4,802350
6,608667	0,5	4,777900
6,617000	0,5	4,768000
6,625333	0,5	4,746250
6,633667	0,5	4,724350
6,642000	0,5	4,708650
6,650333	0,5	4,697700
6,658667	0,5	4,696150
6,667000	0,5	4,690950
6,675333	0,5	4,687100
6,683667	0,5	4,678450
6,692000	0,5	4,677150
6,700333	0,5	4,667150
6,708667	0,5	4,665000
6,717000	0,5	4,662850
6,725333	0,5	4,660000
6,733667	0,5	4,655900
6,742000	0,5	4,655250
6,750333	0,5	4,644000
6,758667	0,5	4,645050
6,767000	0,5	4,651350
6,775333	0,5	4,651750
6,783667	0,5	4,652200
6,792000	0,5	4,672700
6,800333	0,5	4,698500
6,808667	0,5	4,744100
6,817000	0,5	4,784100
6,825333	0,5	4,828600
6,833667	0,5	4,877300
6,842000	0,5	4,923550
6,850333	0,5	4,957100
6,858667	0,5	4,977750
6,867000	0,5	4,985100
6,875333	0,5	4,976650
6,883667	0,5	4,970000
6,892000	0,5	4,959500
6,900333	0,5	4,957350
6,908667	0,5	4,961700
6,917000	0,5	4,976500
6,925333	0,5	4,975600
6,933667	0,5	4,963800
6,942000	0,5	4,938650
6,950333	0,5	4,908400
6,958667	0,5	4,877150
6,967000	0,5	4,833400
6,975333	0,5	4,804800
6,983667	0,5	4,793450
6,992000	0,5	4,797650
7,000333	0,5	4,814300
7,008667	0,5	4,849400
7,017000	0,5	4,891050
7,025333	0,5	4,955300
7,033667	0,5	5,038400
7,042000	0,5	5,159550
7,050333	0,5	5,309150
7,058667	0,5	5,522400
7,067000	0,5	5,805900
7,075333	0,5	6,157250
7,083667	0,5	6,607700
7,092000	0,5	7,166450
7,100333	0,5	7,837000
7,108667	0,5	8,607300
7,117000	0,5	9,437350
7,125333	0,5	10,311700
7,133667	0,5	11,165600
7,142000	0,5	11,945200
7,150333	0,5	12,567700
7,158667	0,5	12,980650
7,167000	0,5	13,134950
7,175333	0,5	13,012200
7,183667	0,5	12,620000
7,192000	0,5	11,989100
7,200333	0,5	11,178300
7,208667	0,5	10,284150
7,217000	0,5	9,367000
7,225333	0,5	8,496450
7,233667	0,5	7,739550
7,242000	0,5	7,122900
7,250333	0,5	6,648200
7,258667	0,5	6,283450
7,267000	0,5	5,996050
7,275333	0,5	5,765500
7,283667	0,5	5,571900
7,292000	0,5	5,403200
7,300333	0,5	5,256650
7,308667	0,5	5,137050
7,317000	0,5	5,045850
7,325333	0,5	4,986250
7,333667	0,5	4,963950
7,342000	0,5	4,975000
7,350333	0,5	5,025800
7,358667	0,5	5,139950
7,367000	0,5	5,304350
7,375333	0,5	5,535550
7,383667	0,5	5,832300
7,392000	0,5	6,195350
7,400333	0,5	6,617250
7,408667	0,5	7,080450
7,417000	0,5	7,590700
7,425333	0,5	8,198200
7,433667	0,5	8,986550
7,442000	0,5	10,164800
7,450333	0,5	12,086600
7,458667	0,5	15,326450
7,467000	0,5	20,525000
7,475333	0,5	28,135600
7,483667	0,5	37,885651
7,492000	0,5	48,520501
7,500333	0,5	57,912801
7,508667	0,5	63,931801
7,517000	0,5	65,202101
7,525333	0,5	61,805751
7,533667	0,5	54,826101
7,542000	0,5	45,874601
7,550333	0,5	36,508301
7,558667	0,5	27,936450
7,567000	0,5	20,921300
7,575333	0,5	15,671850
7,583667	0,5	12,038550
7,592000	0,5	9,669250
7,600333	0,5	8,203600
7,608667	0,5	7,320400
7,617000	0,5	6,803400
7,625333	0,5	6,483650
7,633667	0,5	6,244600
7,642000	0,5	6,025150
7,650333	0,5	5,811100
7,658667	0,5	5,591350
7,667000	0,5	5,390600
7,675333	0,5	5,224450
7,683667	0,5	5,102650
7,692000	0,5	5,020200
7,700333	0,5	4,968300
7,708667	0,5	4,924350
7,717000	0,5	4,905400
7,725333	0,5	4,890950
7,733667	0,5	4,896950
7,742000	0,5	4,928900
7,750333	0,5	4,989150
7,758667	0,5	5,068000
7,767000	0,5	5,160400
7,775333	0,5	5,252750
7,783667	0,5	5,332650
7,792000	0,5	5,381000
7,800333	0,5	5,381550
7,808667	0,5	5,304000
7,817000	0,5	5,158000
7,825333	0,5	4,975400
7,833667	0,5	4,794350
7,842000	0,5	4,657550
7,850333	0,5	4,549850
7,858667	0,5	4,496350
7,867000	0,5	4,478500
7,875333	0,5	4,503550
7,883667	0,5	4,537150
7,892000	0,5	4,566300
7,900333	0,5	4,568400
7,908667	0,5	4,540500
7,917000	0,5	4,498800
7,925333	0,5	4,454050
7,933667	0,5	4,412300
7,942000	0,5	4,383500
7,950333	0,5	4,375950
7,958667	0,5	4,377150
7,967000	0,5	4,383500
7,975333	0,5	4,385550
7,983667	0,5	4,384350
7,992000	0,5	4,378450
8,000333	0,5	4,370050
8,008667	0,5	4,366150
8,017000	0,5	4,387600
8,025333	0,5	4,445150
8,033667	0,5	4,544900
8,042000	0,5	4,679050
8,050333	0,5	4,802400
8,058667	0,5	4,801850
8,067000	0,5	4,866750
8,075333	0,5	4,795350
8,083667	0,5	4,685800
8,092000	0,5	4,575550
8,100333	0,5	4,488100
8,108667	0,5	4,410200
8,117000	0,5	4,367850
8,125333	0,5	4,345050
8,133667	0,5	4,344650
8,142000	0,5	4,345450
8,150333	0,5	4,331650
8,158667	0,5	4,302850
8,167000	0,5	4,255100
8,175333	0,5	4,206900
8,183667	0,5	4,159250
8,192000	0,5	4,122450
8,200333	0,5	4,102000
8,208667	0,5	4,089600
8,217000	0,5	4,085900
8,225333	0,5	4,084500
8,233667	0,5	4,077100
8,242000	0,5	4,070950
8,250333	0,5	4,053850
8,258667	0,5	4,026450
8,267000	0,5	3,991250
8,275333	0,5	3,950700
8,283667	0,5	3,917000
8,292000	0,5	3,888300
8,300333	0,5	3,863200
8,308667	0,5	3,841400
8,317000	0,5	3,822200
8,325333	0,5	3,805100
8,333667	0,5	3,793600
8,342000	0,5	3,780150
8,350333	0,5	3,772200
8,358667	0,5	3,767100
8,367000	0,5	3,763650
8,375333	0,5	3,758550
8,383667	0,5	3,763300
8,392000	0,5	3,774400
8,400333	0,5	3,795350
8,408667	0,5	3,829200
8,417000	0,5	3,902250
8,425333	0,5	3,976150
8,433667	0,5	4,051800
8,442000	0,5	4,079000
8,450333	0,5	4,054700
8,458667	0,5	4,008850
8,467000	0,5	3,974500
8,475333	0,5	3,964800
8,483667	0,5	4,003950
8,492000	0,5	4,075250
8,500333	0,5	4,189900
8,508667	0,5	4,369450
8,517000	0,5	4,631150
8,525333	0,5	4,980350
8,533667	0,5	5,392450
8,542000	0,5	5,832150
8,550333	0,5	6,261200
8,558667	0,5	6,696500
8,567000	0,5	7,181900
8,575333	0,5	7,871000
8,583667	0,5	9,078600
8,592000	0,5	11,400300
8,600333	0,5	15,648900
8,608667	0,5	22,465550
8,617000	0,5	31,548550
8,625333	0,5	41,207851
8,633667	0,5	48,745701
8,642000	0,5	51,774001
8,650333	0,5	49,490351
8,658667	0,5	42,964651
8,667000	0,5	34,375651
8,675333	0,5	25,862500
8,683667	0,5	18,804500
8,692000	0,5	13,652250
8,700333	0,5	10,234500
8,708667	0,5	8,116350
8,717000	0,5	6,857300
8,725333	0,5	6,124800
8,733667	0,5	5,700000
8,742000	0,5	5,467000
8,750333	0,5	5,355450
8,758667	0,5	5,297950
8,767000	0,5	5,255400
8,775333	0,5	5,203000
8,783667	0,5	5,133100
8,792000	0,5	5,064550
8,800333	0,5	5,008750
8,808667	0,5	4,971650
8,817000	0,5	4,938600
8,825333	0,5	4,904550
8,833667	0,5	4,872800
8,842000	0,5	4,840100
8,850333	0,5	4,815950
8,858667	0,5	4,811350
8,867000	0,5	4,834150
8,875333	0,5	4,889350
8,883667	0,5	4,967300
8,892000	0,5	5,050200
8,900333	0,5	5,111700
8,908667	0,5	5,139550
8,917000	0,5	5,119750
8,925333	0,5	5,062950
8,933667	0,5	5,004950
8,942000	0,5	4,989900
8,950333	0,5	5,043100
8,958667	0,5	5,141700
8,967000	0,5	5,263350
8,975333	0,5	5,419750
8,983667	0,5	5,633350
8,992000	0,5	5,951250
9,000333	0,5	6,457850
9,008667	0,5	7,279800
9,017000	0,5	8,578100
9,025333	0,5	10,634650
9,033667	0,5	14,070200
9,042000	0,5	19,873200
9,050333	0,5	28,265150
9,058667	0,5	37,459451
9,067000	0,5	44,135001
9,075333	0,5	45,705201
9,083667	0,5	42,316501
9,092000	0,5	35,959801
9,100333	0,5	28,789900
9,108667	0,5	22,269200
9,117000	0,5	17,062200
9,125333	0,5	13,267700
9,133667	0,5	10,683250
9,142000	0,5	9,014600
9,150333	0,5	7,982600
9,158667	0,5	7,383800
9,167000	0,5	7,053650
9,175333	0,5	6,873600
9,183667	0,5	6,758000
9,192000	0,5	6,655600
9,200333	0,5	6,534150
9,208667	0,5	6,390100
9,217000	0,5	6,227700
9,225333	0,5	6,058650
9,233667	0,5	5,887400
9,242000	0,5	5,724600
9,250333	0,5	5,581700
9,258667	0,5	5,451700
9,267000	0,5	5,337600
9,275333	0,5	5,240150
9,283667	0,5	5,151450
9,292000	0,5	5,058650
9,300333	0,5	4,961750
9,308667	0,5	4,859150
9,317000	0,5	4,768800
9,325333	0,5	4,692950
9,333667	0,5	4,627650
9,342000	0,5	4,572250
9,350333	0,5	4,510350
9,358667	0,5	4,428250
9,367000	0,5	4,339100
9,375333	0,5	4,243800
9,383667	0,5	4,161500
9,392000	0,5	4,095700
9,400333	0,5	4,040650
9,408667	0,5	4,002250
9,417000	0,5	3,961700
9,425333	0,5	3,923550
9,433667	0,5	3,882150
9,442000	0,5	3,843500
9,450333	0,5	3,803750
9,458667	0,5	3,768050
9,467000	0,5	3,740150
9,475333	0,5	3,713750
9,483667	0,5	3,695000
9,492000	0,5	3,684200
9,500333	0,5	3,681800
9,508667	0,5	3,687000
9,517000	0,5	3,705550
9,525333	0,5	3,720250
9,533667	0,5	3,730900
9,542000	0,5	3,729250
9,550333	0,5	3,723300
9,558667	0,5	3,716100
9,567000	0,5	3,717550
9,575333	0,5	3,738600
9,583667	0,5	3,780250
9,592000	0,5	3,838100
9,600333	0,5	3,901300
9,608667	0,5	3,958950
9,617000	0,5	4,001750
9,625333	0,5	4,027400
9,633667	0,5	4,043800
9,642000	0,5	4,050950
9,650333	0,5	4,073050
9,658667	0,5	4,123850
9,667000	0,5	4,202000
9,675333	0,5	4,312800
9,683667	0,5	4,457500
9,692000	0,5	4,613750
9,700333	0,5	4,768950
9,708667	0,5	4,904300
9,717000	0,5	5,016550
9,725333	0,5	5,092500
9,733667	0,5	5,125800
9,742000	0,5	5,100700
9,750333	0,5	5,017300
9,758667	0,5	4,881800
9,767000	0,5	4,694550
9,775333	0,5	4,480300
9,783667	0,5	4,257250
9,792000	0,5	4,047900
9,800333	0,5	3,867000
9,808667	0,5	3,720500
9,817000	0,5	3,615600
9,825333	0,5	3,547000
9,833667	0,5	3,504350
9,842000	0,5	3,481800
9,850333	0,5	3,472300
9,858667	0,5	3,480800
9,867000	0,5	3,492200
9,875333	0,5	3,517700
9,883667	0,5	3,541850
9,892000	0,5	3,569000
9,900333	0,5	3,593400
9,908667	0,5	3,609750
9,917000	0,5	3,622000
9,925333	0,5	3,611300
9,933667	0,5	3,585250
9,942000	0,5	3,548200
9,950333	0,5	3,514800
9,958667	0,5	3,496250
9,967000	0,5	3,495900
9,975333	0,5	3,512600
9,983667	0,5	3,551450
9,992000	0,5	3,600150
10,000333	0,5	3,657450
10,008667	0,5	3,713300
10,017000	0,5	3,759350
10,025333	0,5	3,779800
10,033667	0,5	3,776500
10,042000	0,5	3,751100
10,050333	0,5	3,715950
10,058667	0,5	3,690500
10,067000	0,5	3,681600
10,075333	0,5	3,690450
10,083667	0,5	3,707000
10,092000	0,5	3,729300
10,100333	0,5	3,741500
10,108667	0,5	3,736750
10,117000	0,5	3,708900
10,125333	0,5	3,658050
10,133667	0,5	3,580950
10,142000	0,5	3,502950
10,150333	0,5	3,416950
10,158667	0,5	3,337500
10,167000	0,5	3,274700
10,175333	0,5	3,231150
10,183667	0,5	3,200650
10,192000	0,5	3,184550
10,200333	0,5	3,187450
10,208667	0,5	3,205250
10,217000	0,5	3,229000
10,225333	0,5	3,244600
10,233667	0,5	3,253900
10,242000	0,5	3,245400
10,250333	0,5	3,227600
10,258667	0,5	3,203450
10,267000	0,5	3,181300
10,275333	0,5	3,173350
10,283667	0,5	3,190850
10,292000	0,5	3,225850
10,300333	0,5	3,290550
10,308667	0,5	3,346500
10,317000	0,5	3,391150
10,325333	0,5	3,397750
10,333667	0,5	3,364600
10,342000	0,5	3,307350
10,350333	0,5	3,236650
10,358667	0,5	3,174200
10,367000	0,5	3,119750
10,375333	0,5	3,080200
10,383667	0,5	3,046600
10,392000	0,5	3,017250
10,400333	0,5	2,991650
10,408667	0,5	2,973650
10,417000	0,5	2,955450
10,425333	0,5	2,946000
10,433667	0,5	2,934950
10,442000	0,5	2,927800
10,450333	0,5	2,918200
10,458667	0,5	2,909900
10,467000	0,5	2,907900
10,475333	0,5	2,910450
10,483667	0,5	2,916400
10,492000	0,5	2,922350
10,500333	0,5	2,930750
10,508667	0,5	2,937150
10,517000	0,5	2,937200
10,525333	0,5	2,942050
10,533667	0,5	2,946250
10,542000	0,5	2,969500
10,550333	0,5	3,009500
10,558667	0,5	3,066550
10,567000	0,5	3,130150
10,575333	0,5	3,178400
10,583667	0,5	3,207600
10,592000	0,5	3,205150
10,600333	0,5	3,175500
10,608667	0,5	3,136400
10,617000	0,5	3,092100
10,625333	0,5	3,045950
10,633667	0,5	2,999000
10,642000	0,5	2,946950
10,650333	0,5	2,894600
10,658667	0,5	2,841450
10,667000	0,5	2,786800
10,675333	0,5	2,737450
10,683667	0,5	2,695250
10,692000	0,5	2,658850
10,700333	0,5	2,635900
10,708667	0,5	2,615200
10,717000	0,5	2,595450
10,725333	0,5	2,571000
10,733667	0,5	2,538300
10,742000	0,5	2,505150
10,750333	0,5	2,470800
10,758667	0,5	2,452550
10,767000	0,5	2,457550
10,775333	0,5	2,483400
10,783667	0,5	2,543050
10,792000	0,5	2,616150
10,800333	0,5	2,699450
10,808667	0,5	2,770450
10,817000	0,5	2,809750
10,825333	0,5	2,818000
10,833667	0,5	2,793600
10,842000	0,5	2,750250
10,850333	0,5	2,698350
10,858667	0,5	2,649000
10,867000	0,5	2,602050
10,875333	0,5	2,565900
10,883667	0,5	2,543750
10,892000	0,5	2,530750
10,900333	0,5	2,522950
10,908667	0,5	2,539050
10,917000	0,5	2,554600
10,925333	0,5	2,575900
10,933667	0,5	2,601950
10,942000	0,5	2,629400
10,950333	0,5	2,673250
10,958667	0,5	2,728550
10,967000	0,5	2,796300
10,975333	0,5	2,878400
10,983667	0,5	2,969900
10,992000	0,5	3,066250
11,000333	0,5	3,149500
11,008667	0,5	3,201550
11,017000	0,5	3,222400
11,025333	0,5	3,205850
11,033667	0,5	3,154850
11,042000	0,5	3,076500
11,050333	0,5	2,984750
11,058667	0,5	2,897900
11,067000	0,5	2,812600
11,075333	0,5	2,736550
11,083667	0,5	2,676750
11,092000	0,5	2,621100
11,100333	0,5	2,586450
11,108667	0,5	2,561900
11,117000	0,5	2,543250
11,125333	0,5	2,535500
11,133667	0,5	2,535300
11,142000	0,5	2,549550
11,150333	0,5	2,581150
11,158667	0,5	2,631150
11,167000	0,5	2,691700
11,175333	0,5	2,766800
11,183667	0,5	2,838200
11,192000	0,5	2,893750
11,200333	0,5	2,927950
11,208667	0,5	2,941250
11,217000	0,5	2,919500
11,225333	0,5	2,872950
11,233667	0,5	2,804150
11,242000	0,5	2,734200
11,250333	0,5	2,661700
11,258667	0,5	2,592800
11,267000	0,5	2,528500
11,275333	0,5	2,483700
11,283667	0,5	2,452700
11,292000	0,5	2,434850
11,300333	0,5	2,429800
11,308667	0,5	2,442250
11,317000	0,5	2,470800
11,325333	0,5	2,519250
11,333667	0,5	2,587550
11,342000	0,5	2,664800
11,350333	0,5	2,758250
11,358667	0,5	2,843400
11,367000	0,5	2,908900
11,375333	0,5	2,964700
11,383667	0,5	3,027150
11,392000	0,5	3,124200
11,400333	0,5	3,273450
11,408667	0,5	3,497450
11,417000	0,5	3,794700
11,425333	0,5	4,133800
11,433667	0,5	4,469900
11,442000	0,5	4,743800
11,450333	0,5	4,907400
11,458667	0,5	4,950150
11,467000	0,5	4,872850
11,475333	0,5	4,713950
11,483667	0,5	4,498950
11,492000	0,5	4,267400
11,500333	0,5	4,057600
11,508667	0,5	3,870900
11,517000	0,5	3,716450
11,525333	0,5	3,603750
11,533667	0,5	3,539750
11,542000	0,5	3,524400
11,550333	0,5	3,544500
11,558667	0,5	3,588350
11,567000	0,5	3,641600
11,575333	0,5	3,690550
11,583667	0,5	3,728750
11,592000	0,5	3,750650
11,600333	0,5	3,757900
11,608667	0,5	3,761950
11,617000	0,5	3,762800
11,625333	0,5	3,752550
11,633667	0,5	3,729750
11,642000	0,5	3,695300
11,650333	0,5	3,640800
11,658667	0,5	3,562800
11,667000	0,5	3,463900
11,675333	0,5	3,352800
11,683667	0,5	3,250650
11,692000	0,5	3,163200
11,700333	0,5	3,099350
11,708667	0,5	3,055950
11,717000	0,5	3,040800
11,725333	0,5	3,045550
11,733667	0,5	3,083800
11,742000	0,5	3,135550
11,750333	0,5	3,209300
11,758667	0,5	3,289200
11,767000	0,5	3,384800
11,775333	0,5	3,477850
11,783667	0,5	3,571150
11,792000	0,5	3,663100
11,800333	0,5	3,743750
11,808667	0,5	3,797550
11,817000	0,5	3,821700
11,825333	0,5	3,813600
11,833667	0,5	3,781250
11,842000	0,5	3,724400
11,850333	0,5	3,649700
11,858667	0,5	3,563750
11,867000	0,5	3,475200
11,875333	0,5	3,389500
11,883667	0,5	3,301750
11,892000	0,5	3,222000
11,900333	0,5	3,142650
11,908667	0,5	3,074050
11,917000	0,5	3,009600
11,925333	0,5	2,960650
11,933667	0,5	2,910750
11,942000	0,5	2,888150
11,950333	0,5	2,863250
11,958667	0,5	2,845500
11,967000	0,5	2,836600
11,975333	0,5	2,835800
11,983667	0,5	2,851000
11,992000	0,5	2,868150
12,000333	0,5	2,892100
12,008667	0,5	2,922650
12,017000	0,5	2,948000
12,025333	0,5	2,965900
12,033667	0,5	2,967200
12,042000	0,5	2,948150
12,050333	0,5	2,911150
12,058667	0,5	2,860450
12,067000	0,5	2,800550
12,075333	0,5	2,731650
12,083667	0,5	2,667350
12,092000	0,5	2,621750
12,100333	0,5	2,576200
12,108667	0,5	2,538300
12,117000	0,5	2,507550
12,125333	0,5	2,483500
12,133667	0,5	2,474100
12,142000	0,5	2,462500
12,150333	0,5	2,459900
12,158667	0,5	2,457650
12,167000	0,5	2,464900
12,175333	0,5	2,477250
12,183667	0,5	2,492300
12,192000	0,5	2,511900
12,200333	0,5	2,526600
12,208667	0,5	2,537750
12,217000	0,5	2,538000
12,225333	0,5	2,524150
12,233667	0,5	2,502150
12,242000	0,5	2,472750
12,250333	0,5	2,428100
12,258667	0,5	2,384600
12,267000	0,5	2,339450
12,275333	0,5	2,307650
12,283667	0,5	2,285750
12,292000	0,5	2,272200
12,300333	0,5	2,263000
12,308667	0,5	2,260800
12,317000	0,5	2,260350
12,325333	0,5	2,264550
12,333667	0,5	2,276900
12,342000	0,5	2,283550
12,350333	0,5	2,298650
12,358667	0,5	2,308200
12,367000	0,5	2,337400
12,375333	0,5	2,363300
12,383667	0,5	2,410550
12,392000	0,5	2,480750
12,400333	0,5	2,580350
12,408667	0,5	2,691500
12,417000	0,5	2,790550
12,425333	0,5	2,879000
12,433667	0,5	2,968900
12,442000	0,5	3,079900
12,450333	0,5	3,257950
12,458667	0,5	3,591500
12,467000	0,5	3,863600
12,475333	0,5	3,985500
12,483667	0,5	4,115550
12,492000	0,5	4,023300
12,500333	0,5	3,595600
12,508667	0,5	3,099850
12,517000	0,5	2,516250
12,525333	0,5	1,946900
12,533667	0,5	1,575700
12,542000	0,5	1,330650
12,550333	0,5	1,153700
12,558667	0,5	1,012100
12,567000	0,5	0,893550
12,575333	0,5	0,800600
12,583667	0,5	0,720850
12,592000	0,5	0,656350
12,600333	0,5	0,606650
12,608667	0,5	0,570650
12,617000	0,5	0,538550
12,625333	0,5	0,515900
12,633667	0,5	0,494700
12,642000	0,5	0,478700
12,650333	0,5	0,461500
12,658667	0,5	0,446350
12,667000	0,5	0,421550
12,675333	0,5	0,406700
12,683667	0,5	0,396000
12,692000	0,5	0,379750
12,700333	0,5	0,363200
12,708667	0,5	0,344350
12,717000	0,5	0,336300
12,725333	0,5	0,332700
12,733667	0,5	0,328200
12,742000	0,5	0,327350
12,750333	0,5	0,325750
12,758667	0,5	0,319050
12,767000	0,5	0,319150
12,775333	0,5	0,315000
12,783667	0,5	0,310300
12,792000	0,5	0,308650
12,800333	0,5	0,303850
12,808667	0,5	0,301450
12,817000	0,5	0,292300
12,825333	0,5	0,297800
12,833667	0,5	0,297450
12,842000	0,5	0,295350
12,850333	0,5	0,294100
12,858667	0,5	0,288000
12,867000	0,5	0,295600
12,875333	0,5	0,301100
12,883667	0,5	0,298850
12,892000	0,5	0,302550
12,900333	0,5	0,301200
12,908667	0,5	0,299700
12,917000	0,5	0,291800
12,925333	0,5	0,289500
12,933667	0,5	0,277700
12,942000	0,5	0,267200
12,950333	0,5	0,253000
12,958667	0,5	0,245150
12,967000	0,5	0,225350
12,975333	0,5	0,219150
12,983667	0,5	0,206800
12,992000	0,5	0,188100
13,000333	0,5	0,171050
13,008667	0,5	0,152350
13,017000	0,5	0,147700
13,025333	0,5	0,134300
13,033667	0,5	0,123400
13,042000	0,5	0,115400
13,050333	0,5	0,104950
13,058667	0,5	0,100600
13,067000	0,5	0,098800
13,075333	0,5	0,096300
13,083667	0,5	0,094750
13,092000	0,5	0,078200
13,100333	0,5	0,093550
13,108667	0,5	0,093400
13,117000	0,5	0,100500
13,125333	0,5	0,110000
13,133667	0,5	0,120400
13,142000	0,5	0,127400
13,150333	0,5	0,144400
13,158667	0,5	0,160900
13,167000	0,5	0,191500
13,175333	0,5	0,219600
13,183667	0,5	0,252650
13,192000	0,5	0,280600
13,200333	0,5	0,302950
13,208667	0,5	0,316850
13,217000	0,5	0,315700
13,225333	0,5	0,304050
13,233667	0,5	0,276850
13,242000	0,5	0,252350
13,250333	0,5	0,216650
13,258667	0,5	0,178200
13,267000	0,5	0,152200
13,275333	0,5	0,129750
13,283667	0,5	0,112350
13,292000	0,5	0,092150
13,300333	0,5	0,076400
13,308667	0,5	0,077550
13,317000	0,5	0,085000
13,325333	0,5	0,100650
13,333667	0,5	0,119700
13,342000	0,5	0,152000
13,350333	0,5	0,180900
13,358667	0,5	0,211650
13,367000	0,5	0,233250
13,375333	0,5	0,258400
13,383667	0,5	0,274300
13,392000	0,5	0,282900
13,400333	0,5	0,284300
13,408667	0,5	0,267400
13,417000	0,5	0,260450
13,425333	0,5	0,237550
13,433667	0,5	0,210600
13,442000	0,5	0,181900
13,450333	0,5	0,163500
13,458667	0,5	0,156050
13,467000	0,5	0,156150
13,475333	0,5	0,155700
13,483667	0,5	0,160100
13,492000	0,5	0,162400
13,500333	0,5	0,170250
13,508667	0,5	0,175650
13,517000	0,5	0,185650
13,525333	0,5	0,187250
13,533667	0,5	0,192650
13,542000	0,5	0,192400
13,550333	0,5	0,188750
13,558667	0,5	0,182050
13,567000	0,5	0,189300
13,575333	0,5	0,188000
13,583667	0,5	0,187900
13,592000	0,5	0,185800
13,600333	0,5	0,191050
13,608667	0,5	0,206350
13,617000	0,5	0,219750
13,625333	0,5	0,234200
13,633667	0,5	0,242200
13,642000	0,5	0,249150
13,650333	0,5	0,245950
13,658667	0,5	0,243050
13,667000	0,5	0,231200
13,675333	0,5	0,215950
13,683667	0,5	0,202650
13,692000	0,5	0,193000
13,700333	0,5	0,169400
13,708667	0,5	0,168900
13,717000	0,5	0,166050
13,725333	0,5	0,155200
13,733667	0,5	0,143600
13,742000	0,5	0,130600
13,750333	0,5	0,130600
13,758667	0,5	0,129300
13,767000	0,5	0,131100
13,775333	0,5	0,129300
13,783667	0,5	0,130350
13,792000	0,5	0,127350
13,800333	0,5	0,123800
13,808667	0,5	0,121550
13,817000	0,5	0,120100
13,825333	0,5	0,121200
13,833667	0,5	0,127200
13,842000	0,5	0,122850
13,850333	0,5	0,113850
13,858667	0,5	0,124000
13,867000	0,5	0,128300
13,875333	0,5	0,123650
13,883667	0,5	0,123700
13,892000	0,5	0,114400
13,900333	0,5	0,124600
13,908667	0,5	0,127650
13,917000	0,5	0,130400
13,925333	0,5	0,133750
13,933667	0,5	0,143000
13,942000	0,5	0,153200
13,950333	0,5	0,157600
13,958667	0,5	0,167550
13,967000	0,5	0,166800
13,975333	0,5	0,171500
13,983667	0,5	0,173150
13,992000	0,5	0,182450
14,000333	0,5	0,180750
14,008667	0,5	0,201650
14,017000	0,5	0,208650
14,025333	0,5	0,211250
14,033667	0,5	0,212450
14,042000	0,5	0,212650
14,050333	0,5	0,226600
14,058667	0,5	0,237550
14,067000	0,5	0,245550
14,075333	0,5	0,256700
14,083667	0,5	0,262100
14,092000	0,5	0,270800
14,100333	0,5	0,278850
14,108667	0,5	0,286350
14,117000	0,5	0,292700
14,125333	0,5	0,300750
14,133667	0,5	0,317100
14,142000	0,5	0,323300
14,150333	0,5	0,339250
14,158667	0,5	0,355800
14,167000	0,5	0,365350
14,175333	0,5	0,370250
14,183667	0,5	0,375650
14,192000	0,5	0,383100
14,200333	0,5	0,402050
14,208667	0,5	0,415200
14,217000	0,5	0,434250
14,225333	0,5	0,447250
14,233667	0,5	0,466600
14,242000	0,5	0,478700
14,250333	0,5	0,501650
14,258667	0,5	0,517600
14,267000	0,5	0,533000
14,275333	0,5	0,553900
14,283667	0,5	0,568900
14,292000	0,5	0,575150
14,300333	0,5	0,597350
14,308667	0,5	0,612450
14,317000	0,5	0,623300
14,325333	0,5	0,634650
14,333667	0,5	0,641350
14,342000	0,5	0,664200
14,350333	0,5	0,682750
14,358667	0,5	0,704000
14,367000	0,5	0,713150
14,375333	0,5	0,730400
14,383667	0,5	0,739800
14,392000	0,5	0,749250
14,400333	0,5	0,756850
14,408667	0,5	0,770700
14,417000	0,5	0,785200
14,425333	0,5	0,798600
14,433667	0,5	0,801000
14,442000	0,5	0,805750
14,450333	0,5	0,816050
14,458667	0,5	0,814850
14,467000	0,5	0,813050
14,475333	0,5	0,802300
14,483667	0,5	0,797600
14,492000	0,5	0,791800
14,500333	0,5	0,800250
14,508667	0,5	0,799750
14,517000	0,5	0,802800
14,525333	0,5	0,795300
14,533667	0,5	0,800750
14,542000	0,5	0,798400
14,550333	0,5	0,799950
14,558667	0,5	0,795950
14,567000	0,5	0,795350
14,575333	0,5	0,793100
14,583667	0,5	0,779800
14,592000	0,5	0,781250
14,600333	0,5	0,786600
14,608667	0,5	0,783700
14,617000	0,5	0,775300
14,625333	0,5	0,760500
14,633667	0,5	0,754750
14,642000	0,5	0,756500
14,650333	0,5	0,749250
14,658667	0,5	0,747050
14,667000	0,5	0,744000
14,675333	0,5	0,745150
14,683667	0,5	0,741250
14,692000	0,5	0,738950
14,700333	0,5	0,732950
14,708667	0,5	0,729850
14,717000	0,5	0,733550
14,725333	0,5	0,731100
14,733667	0,5	0,714200
14,742000	0,5	0,724000
14,750333	0,5	0,729750
14,758667	0,5	0,725950
14,767000	0,5	0,721200
14,775333	0,5	0,711750
14,783667	0,5	0,719900
14,792000	0,5	0,729200
14,800333	0,5	0,734550
14,808667	0,5	0,745900
14,817000	0,5	0,749050
14,825333	0,5	0,753550
14,833667	0,5	0,761550
14,842000	0,5	0,756850
14,850333	0,5	0,752750
14,858667	0,5	0,742600
14,867000	0,5	0,741600
14,875333	0,5	0,731500
14,883667	0,5	0,719150
14,892000	0,5	0,721600
14,900333	0,5	0,726200
14,908667	0,5	0,720500
14,917000	0,5	0,721750
14,925333	0,5	0,721650
14,933667	0,5	0,743750
14,942000	0,5	0,756200
14,950333	0,5	0,762700
14,958667	0,5	0,766300
14,967000	0,5	0,762950
14,975333	0,5	0,744050
14,983667	0,5	0,728300
14,992000	0,5	0,721400
15,000333	0,5	0,723600
15,008667	0,5	0,747700
15,017000	0,5	0,783600
15,025333	0,5	0,812400
15,033667	0,5	0,829100
15,042000	0,5	0,851300
15,050333	0,5	0,840500
15,058667	0,5	0,807450
15,067000	0,5	0,762100
15,075333	0,5	0,728950
15,083667	0,5	0,707950
15,092000	0,5	0,692450
15,100333	0,5	0,684200
15,108667	0,5	0,685900
15,117000	0,5	0,681350
15,125333	0,5	0,676300
15,133667	0,5	0,660000
15,142000	0,5	0,636150
15,150333	0,5	0,616650
15,158667	0,5	0,592800
15,167000	0,5	0,587200
15,175333	0,5	0,562850
15,183667	0,5	0,562500
15,192000	0,5	0,559550
15,200333	0,5	0,550550
15,208667	0,5	0,531900
15,217000	0,5	0,515900
15,225333	0,5	0,505050
15,233667	0,5	0,507100
15,242000	0,5	0,499750
15,250333	0,5	0,503150
15,258667	0,5	0,501850
15,267000	0,5	0,507900
15,275333	0,5	0,507350
15,283667	0,5	0,504850
15,292000	0,5	0,501300
15,300333	0,5	0,493300
15,308667	0,5	0,492350
15,317000	0,5	0,484350
15,325333	0,5	0,467050
15,333667	0,5	0,475450
15,342000	0,5	0,473650
15,350333	0,5	0,470700
15,358667	0,5	0,458850
15,367000	0,5	0,445800
15,375333	0,5	0,447700
15,383667	0,5	0,438400
15,392000	0,5	0,439550
15,400333	0,5	0,430300
15,408667	0,5	0,429850
15,417000	0,5	0,420550
15,425333	0,5	0,418650
15,433667	0,5	0,411450
15,442000	0,5	0,406100
15,450333	0,5	0,403400
15,458667	0,5	0,404500
15,467000	0,5	0,387550
15,475333	0,5	0,385500
15,483667	0,5	0,389800
15,492000	0,5	0,382650
15,500333	0,5	0,373050
15,508667	0,5	0,354750
15,517000	0,5	0,344800
15,525333	0,5	0,339700
15,533667	0,5	0,340200
15,542000	0,5	0,335900
15,550333	0,5	0,336550
15,558667	0,5	0,328250
15,567000	0,5	0,328550
15,575333	0,5	0,328850
15,583667	0,5	0,326100
15,592000	0,5	0,322150
15,600333	0,5	0,332050
15,608667	0,5	0,325850
15,617000	0,5	0,316800
15,625333	0,5	0,329900
15,633667	0,5	0,339550
15,642000	0,5	0,333850
15,650333	0,5	0,336550
15,658667	0,5	0,323000
15,667000	0,5	0,326500
15,675333	0,5	0,329500
15,683667	0,5	0,329450
15,692000	0,5	0,318700
15,700333	0,5	0,310450
15,708667	0,5	0,305450
15,717000	0,5	0,299450
15,725333	0,5	0,296150
15,733667	0,5	0,283700
15,742000	0,5	0,282350
15,750333	0,5	0,272600
15,758667	0,5	0,274700
15,767000	0,5	0,261950
15,775333	0,5	0,274550
15,783667	0,5	0,278850
15,792000	0,5	0,274600
15,800333	0,5	0,259400
15,808667	0,5	0,239950
15,817000	0,5	0,237000
15,825333	0,5	0,224300
15,833667	0,5	0,215300
15,842000	0,5	0,205000
15,850333	0,5	0,197500
15,858667	0,5	0,189950
15,867000	0,5	0,188900
15,875333	0,5	0,183450
15,883667	0,5	0,183450
15,892000	0,5	0,171250
15,900333	0,5	0,183450
15,908667	0,5	0,167000
15,917000	0,5	0,162250
15,925333	0,5	0,166750
15,933667	0,5	0,166750
15,942000	0,5	0,153650
15,950333	0,5	0,144600
15,958667	0,5	0,139900
15,967000	0,5	0,146200
15,975333	0,5	0,138850
15,983667	0,5	0,135650
15,992000	0,5	0,135450
16,000333	0,5	0,136350
16,008667	0,5	0,137450
16,017000	0,5	0,140800
16,025333	0,5	0,137450
16,033667	0,5	0,130750
16,042000	0,5	0,128800
16,050333	0,5	0,133550
16,058667	0,5	0,112650
16,067000	0,5	0,114200
16,075333	0,5	0,117300
16,083667	0,5	0,114550
16,092000	0,5	0,107000
16,100333	0,5	0,087800
16,108667	0,5	0,096200
16,117000	0,5	0,092650
16,125333	0,5	0,093600
16,133667	0,5	0,084600
16,142000	0,5	0,081150
16,150333	0,5	0,076050
16,158667	0,5	0,073150
16,167000	0,5	0,063700
16,175333	0,5	0,056150
16,183667	0,5	0,052650
16,192000	0,5	0,048450
16,200333	0,5	0,048900
16,208667	0,5	0,042700
16,217000	0,5	0,051650
16,225333	0,5	0,051700
16,233667	0,5	0,055050
16,242000	0,5	0,042550
16,250333	0,5	0,037350
16,258667	0,5	0,039150
16,267000	0,5	0,045650
16,275333	0,5	0,038750
16,283667	0,5	0,040600
16,292000	0,5	0,033650
16,300333	0,5	0,031850
16,308667	0,5	0,027950
16,317000	0,5	0,019250
16,325333	0,5	0,010200
16,333667	0,5	0,001250
16,342000	0,5	-0,004700
16,350333	0,5	-0,015750
16,358667	0,5	-0,031050
16,367000	0,5	-0,026450
16,375333	0,5	-0,036050
16,383667	0,5	-0,045400
16,392000	0,5	-0,063300
16,400333	0,5	-0,076550
16,408667	0,5	-0,076450
16,417000	0,5	-0,080850
16,425333	0,5	-0,081350
16,433667	0,5	-0,086700
16,442000	0,5	-0,081150
16,450333	0,5	-0,082650
16,458667	0,5	-0,080600
16,467000	0,5	-0,081700
16,475333	0,5	-0,081900
16,483667	0,5	-0,066350
16,492000	0,5	-0,058950
16,500333	0,5	-0,074700
16,508667	0,5	-0,067150
16,517000	0,5	-0,060500
16,525333	0,5	-0,066250
16,533667	0,5	-0,071500
16,542000	0,5	-0,090050
16,550333	0,5	-0,088300
16,558667	0,5	-0,096200
16,567000	0,5	-0,089700
16,575333	0,5	-0,097350
16,583667	0,5	-0,095050
16,592000	0,5	-0,101100
16,600333	0,5	-0,099250
16,608667	0,5	-0,105300
16,617000	0,5	-0,110000
16,625333	0,5	-0,116500
16,633667	0,5	-0,111200
16,642000	0,5	-0,121950
16,650333	0,5	-0,140750
16,658667	0,5	-0,141100
16,667000	0,5	-0,142800
16,675333	0,5	-0,154200
16,683667	0,5	-0,164650
16,692000	0,5	-0,179050
16,700333	0,5	-0,181650
16,708667	0,5	-0,184550
16,717000	0,5	-0,184300
16,725333	0,5	-0,188550
16,733667	0,5	-0,189100
16,742000	0,5	-0,187300
16,750333	0,5	-0,191300
16,758667	0,5	-0,190200
16,767000	0,5	-0,199050
16,775333	0,5	-0,198850
16,783667	0,5	-0,200000
16,792000	0,5	-0,210300
16,800333	0,5	-0,219850
16,808667	0,5	-0,212250
16,817000	0,5	-0,213850
16,825333	0,5	-0,220400
16,833667	0,5	-0,239000
16,842000	0,5	-0,242750
16,850333	0,5	-0,239900
16,858667	0,5	-0,238900
16,867000	0,5	-0,245650
16,875333	0,5	-0,247550
16,883667	0,5	-0,246600
16,892000	0,5	-0,248750
16,900333	0,5	-0,245850
16,908667	0,5	-0,251250
16,917000	0,5	-0,246350
16,925333	0,5	-0,243350
16,933667	0,5	-0,224550
16,942000	0,5	-0,236600
16,950333	0,5	-0,219050
16,958667	0,5	-0,209750
16,967000	0,5	-0,199850
16,975333	0,5	-0,199450
16,983667	0,5	-0,205100
16,992000	0,5	-0,197450
17,000333	0,5	-0,186100
17,008667	0,5	-0,183550
17,017000	0,5	-0,175850
17,025333	0,5	-0,161600
17,033667	0,5	-0,144450
17,042000	0,5	-0,123150
17,050333	0,5	-0,109850
17,058667	0,5	-0,091700
17,067000	0,5	-0,083400
17,075333	0,5	-0,058700
17,083667	0,5	-0,042950
17,092000	0,5	-0,035100
17,100333	0,5	-0,003150
17,108667	0,5	0,027250
17,117000	0,5	0,054750
17,125333	0,5	0,074850
17,133667	0,5	0,072450
17,142000	0,5	0,087400
17,150333	0,5	0,077300
17,158667	0,5	0,067850
17,167000	0,5	0,047750
17,175333	0,5	0,036800
17,183667	0,5	0,026100
17,192000	0,5	0,015400
17,200333	0,5	0,011500
17,208667	0,5	0,003950
17,217000	0,5	-0,001000
17,225333	0,5	-0,002100
17,233667	0,5	-0,005750
17,242000	0,5	-0,014550
17,250333	0,5	-0,000850
17,258667	0,5	0,002100
17,267000	0,5	0,012550
17,275333	0,5	0,013400
17,283667	0,5	0,022000
17,292000	0,5	0,045500
17,300333	0,5	0,073950
17,308667	0,5	0,092500
17,317000	0,5	0,109850
17,325333	0,5	0,116500
17,333667	0,5	0,125850
17,342000	0,5	0,114150
17,350333	0,5	0,105350
17,358667	0,5	0,091750
17,367000	0,5	0,074900
17,375333	0,5	0,062800
17,383667	0,5	0,034550
17,392000	0,5	0,017450
17,400333	0,5	0,012250
17,408667	0,5	-0,004350
17,417000	0,5	-0,026150
17,425333	0,5	-0,046700
17,433667	0,5	-0,063400
17,442000	0,5	-0,065800
17,450333	0,5	-0,077950
17,458667	0,5	-0,080950
17,467000	0,5	-0,093800
17,475333	0,5	-0,094800
17,483667	0,5	-0,102500
17,492000	0,5	-0,099600
17,500333	0,5	-0,104650
17,508667	0,5	-0,109750
17,517000	0,5	-0,098450
17,525333	0,5	-0,097600
17,533667	0,5	-0,109300
17,542000	0,5	-0,106150
17,550333	0,5	-0,104700
17,558667	0,5	-0,118250
17,567000	0,5	-0,131100
17,575333	0,5	-0,155350
17,583667	0,5	-0,156200
17,592000	0,5	-0,170050
17,600333	0,5	-0,177400
17,608667	0,5	-0,186150
17,617000	0,5	-0,185400
17,625333	0,5	-0,196350
17,633667	0,5	-0,193900
17,642000	0,5	-0,192950
17,650333	0,5	-0,187450
17,658667	0,5	-0,170250
17,667000	0,5	-0,145450
17,675333	0,5	-0,127150
17,683667	0,5	-0,081550
17,692000	0,5	-0,014800
17,700333	0,5	0,073950
17,708667	0,5	0,172100
17,717000	0,5	0,283600
17,725333	0,5	0,416800
17,733667	0,5	0,546600
17,742000	0,5	0,641700
17,750333	0,5	0,682950
17,758667	0,5	0,666950
17,767000	0,5	0,585250
17,775333	0,5	0,459600
17,783667	0,5	0,306950
17,792000	0,5	0,150150
17,800333	0,5	-0,000600
17,808667	0,5	-0,112900
17,817000	0,5	-0,198950
17,825333	0,5	-0,280700
17,833667	0,5	-0,322800
17,842000	0,5	-0,350800
17,850333	0,5	-0,379850
17,858667	0,5	-0,402700
17,867000	0,5	-0,436800
17,875333	0,5	-0,443700
17,883667	0,5	-0,448450
17,892000	0,5	-0,458650
17,900333	0,5	-0,462150
17,908667	0,5	-0,470500
17,917000	0,5	-0,469200
17,925333	0,5	-0,474900
17,933667	0,5	-0,469900
17,942000	0,5	-0,476200
17,950333	0,5	-0,481350
17,958667	0,5	-0,478100
17,967000	0,5	-0,482500
17,975333	0,5	-0,509700
17,983667	0,5	-0,508000
17,992000	0,5	-0,521550
18,000333	0,5	-0,528050
18,008667	0,5	-0,552300
18,017000	0,5	-0,573150
18,025333	0,5	-0,570550
18,033667	0,5	-0,576000
18,042000	0,5	-0,590350
18,050333	0,5	-0,593700
18,058667	0,5	-0,601000
18,067000	0,5	-0,609950
18,075333	0,5	-0,613850
18,083667	0,5	-0,622750
18,092000	0,5	-0,624000
18,100333	0,5	-0,630900
18,108667	0,5	-0,625800
18,117000	0,5	-0,640800
18,125333	0,5	-0,654650
18,133667	0,5	-0,655700
18,142000	0,5	-0,658700
18,150333	0,5	-0,673550
18,158667	0,5	-0,685900
18,167000	0,5	-0,708300
18,175333	0,5	-0,703200
18,183667	0,5	-0,708950
18,192000	0,5	-0,711500
18,200333	0,5	-0,717950
18,208667	0,5	-0,715300
18,217000	0,5	-0,720450
18,225333	0,5	-0,725050
18,233667	0,5	-0,729500
18,242000	0,5	-0,738850
18,250333	0,5	-0,732950
18,258667	0,5	-0,734800
18,267000	0,5	-0,748900
18,275333	0,5	-0,758300
18,283667	0,5	-0,754900
18,292000	0,5	-0,771250
18,300333	0,5	-0,782200
18,308667	0,5	-0,804450
18,317000	0,5	-0,813200
18,325333	0,5	-0,816050
18,333667	0,5	-0,812650
18,342000	0,5	-0,818800
18,350333	0,5	-0,821100
18,358667	0,5	-0,826650
18,367000	0,5	-0,831350
18,375333	0,5	-0,832300
18,383667	0,5	-0,840200
18,392000	0,5	-0,843850
18,400333	0,5	-0,839200
18,408667	0,5	-0,850750
18,417000	0,5	-0,863950
18,425333	0,5	-0,859900
18,433667	0,5	-0,867250
18,442000	0,5	-0,874550
18,450333	0,5	-0,894700
18,458667	0,5	-0,903750
18,467000	0,5	-0,910250
18,475333	0,5	-0,909500
18,483667	0,5	-0,916650
18,492000	0,5	-0,915100
18,500333	0,5	-0,918700
18,508667	0,5	-0,915300
18,517000	0,5	-0,919800
18,525333	0,5	-0,918250
18,533667	0,5	-0,925650
18,542000	0,5	-0,928000
18,550333	0,5	-0,919650
18,558667	0,5	-0,931200
18,567000	0,5	-0,933200
18,575333	0,5	-0,927200
18,583667	0,5	-0,925600
18,592000	0,5	-0,929250
18,600333	0,5	-0,944600
18,608667	0,5	-0,949950
18,617000	0,5	-0,935300
18,625333	0,5	-0,932600
18,633667	0,5	-0,923200
18,642000	0,5	-0,919100
18,650333	0,5	-0,907500
18,658667	0,5	-0,896450
18,667000	0,5	-0,879850
18,675333	0,5	-0,869900
18,683667	0,5	-0,854750
18,692000	0,5	-0,833300
18,700333	0,5	-0,811300
18,708667	0,5	-0,817550
18,717000	0,5	-0,795200
18,725333	0,5	-0,781000
18,733667	0,5	-0,773050
18,742000	0,5	-0,765050
18,750333	0,5	-0,773150
18,758667	0,5	-0,757750
18,767000	0,5	-0,751900
18,775333	0,5	-0,750100
18,783667	0,5	-0,753900
18,792000	0,5	-0,751900
18,800333	0,5	-0,756450
18,808667	0,5	-0,758600
18,817000	0,5	-0,767100
18,825333	0,5	-0,772200
18,833667	0,5	-0,784950
18,842000	0,5	-0,790400
18,850333	0,5	-0,804900
18,858667	0,5	-0,832700
18,867000	0,5	-0,827350
18,875333	0,5	-0,839700
18,883667	0,5	-0,855250
18,892000	0,5	-0,876700
18,900333	0,5	-0,903650
18,908667	0,5	-0,908650
18,917000	0,5	-0,914350
18,925333	0,5	-0,928000
18,933667	0,5	-0,935950
18,942000	0,5	-0,944800
18,950333	0,5	-0,952250
18,958667	0,5	-0,963600
18,967000	0,5	-0,969750
18,975333	0,5	-0,980750
18,983667	0,5	-0,987450
18,992000	0,5	-0,991100
19,000333	0,5	-0,999150
19,008667	0,5	-1,012400
19,017000	0,5	-1,000850
19,025333	0,5	-1,004200
19,033667	0,5	-1,014350
19,042000	0,5	-1,028300
19,050333	0,5	-1,039250
19,058667	0,5	-1,028850
19,067000	0,5	-1,032600
19,075333	0,5	-1,033700
19,083667	0,5	-1,035650
19,092000	0,5	-1,029550
19,100333	0,5	-1,034300
19,108667	0,5	-1,028300
19,117000	0,5	-1,029900
19,125333	0,5	-1,025350
19,133667	0,5	-1,022100
19,142000	0,5	-1,014700
19,150333	0,5	-1,033300
19,158667	0,5	-1,033650
19,167000	0,5	-1,042550
19,175333	0,5	-1,058400
19,183667	0,5	-1,082500
19,192000	0,5	-1,117250
19,200333	0,5	-1,138850
19,208667	0,5	-1,145350
19,217000	0,5	-1,157850
19,225333	0,5	-1,165150
19,233667	0,5	-1,169650
19,242000	0,5	-1,174450
19,250333	0,5	-1,173900
19,258667	0,5	-1,178450
19,267000	0,5	-1,180650
19,275333	0,5	-1,185250
19,283667	0,5	-1,172600
19,292000	0,5	-1,179750
19,300333	0,5	-1,182250
19,308667	0,5	-1,171750
19,317000	0,5	-1,163950
19,325333	0,5	-1,160650
19,333667	0,5	-1,163500
19,342000	0,5	-1,164800
19,350333	0,5	-1,155300
19,358667	0,5	-1,149150
19,367000	0,5	-1,145750
19,375333	0,5	-1,147050
19,383667	0,5	-1,152600
19,392000	0,5	-1,154400
19,400333	0,5	-1,162100
19,408667	0,5	-1,162600
19,417000	0,5	-1,171200
19,425333	0,5	-1,169550
19,433667	0,5	-1,181000
19,442000	0,5	-1,207250
19,450333	0,5	-1,230450
19,458667	0,5	-1,243150
19,467000	0,5	-1,265950
19,475333	0,5	-1,286750
19,483667	0,5	-1,322750
19,492000	0,5	-1,333500
19,500333	0,5	-1,345650
19,508667	0,5	-1,345450
19,517000	0,5	-1,356850
19,525333	0,5	-1,360100
19,533667	0,5	-1,367100
19,542000	0,5	-1,372850
19,550333	0,5	-1,375200
19,558667	0,5	-1,385400
19,567000	0,5	-1,389750
19,575333	0,5	-1,389950
19,583667	0,5	-1,390550
19,592000	0,5	-1,414150
19,600333	0,5	-1,405550
19,608667	0,5	-1,401150
19,617000	0,5	-1,409900
19,625333	0,5	-1,428250
19,633667	0,5	-1,438850
19,642000	0,5	-1,438350
19,650333	0,5	-1,436150
19,658667	0,5	-1,440400
19,667000	0,5	-1,437150
19,675333	0,5	-1,433950
19,683667	0,5	-1,431250
19,692000	0,5	-1,421950
19,700333	0,5	-1,411850
19,708667	0,5	-1,402450
19,717000	0,5	-1,395900
19,725333	0,5	-1,372250
19,733667	0,5	-1,366950
19,742000	0,5	-1,366950
19,750333	0,5	-1,349650
19,758667	0,5	-1,332100
19,767000	0,5	-1,340050
19,775333	0,5	-1,347700
19,783667	0,5	-1,367800
19,792000	0,5	-1,374150
19,800333	0,5	-1,416850
19,808667	0,5	-1,441000
19,817000	0,5	-1,469000
19,825333	0,5	-1,488500
19,833667	0,5	-1,507250
19,842000	0,5	-1,514350
19,850333	0,5	-1,524700
19,858667	0,5	-1,529350
19,867000	0,5	-1,527200
19,875333	0,5	-1,518400
19,883667	0,5	-1,535700
19,892000	0,5	-1,528350
19,900333	0,5	-1,523350
19,908667	0,5	-1,526550
19,917000	0,5	-1,528650
19,925333	0,5	-1,549850
19,933667	0,5	-1,540650
19,942000	0,5	-1,535850
19,950333	0,5	-1,526150
19,958667	0,5	-1,522650
19,967000	0,5	-1,510800
19,975333	0,5	-1,506200
19,983667	0,5	-1,498250
19,992000	0,5	-1,505900
20,000333	0,5	-1,520800
20,008667	0,5	-1,542600
20,017000	0,5	-1,558150
20,025333	0,5	-1,576950
20,033667	0,5	-1,604900
20,042000	0,5	-1,606850
20,050333	0,5	-1,621000
20,058667	0,5	-1,627750
20,067000	0,5	-1,646600
20,075333	0,5	-1,663500
20,083667	0,5	-1,661050
20,092000	0,5	-1,650800
20,100333	0,5	-1,658050
20,108667	0,5	-1,651700
20,117000	0,5	-1,652900
20,125333	0,5	-1,645650
20,133667	0,5	-1,644400
20,142000	0,5	-1,633850
20,150333	0,5	-1,624700
20,158667	0,5	-1,612600
20,167000	0,5	-1,585450
20,175333	0,5	-1,567100
20,183667	0,5	-1,551400
20,192000	0,5	-1,514700
20,200333	0,5	-1,490450
20,208667	0,5	-1,472100
20,217000	0,5	-1,468100
20,225333	0,5	-1,462050
20,233667	0,5	-1,442950
20,242000	0,5	-1,444300
20,250333	0,5	-1,446850
20,258667	0,5	-1,479800
20,267000	0,5	-1,513900
20,275333	0,5	-1,557500
20,283667	0,5	-1,585150
20,292000	0,5	-1,613900
20,300333	0,5	-1,634050
20,308667	0,5	-1,627600
20,317000	0,5	-1,624300
20,325333	0,5	-1,637850
20,333667	0,5	-1,631650
20,342000	0,5	-1,620200
20,350333	0,5	-1,621250
20,358667	0,5	-1,620300
20,367000	0,5	-1,627900
20,375333	0,5	-1,618250
20,383667	0,5	-1,611200
20,392000	0,5	-1,592050
20,400333	0,5	-1,589350
20,408667	0,5	-1,582150
20,417000	0,5	-1,585600
20,425333	0,5	-1,587400
20,433667	0,5	-1,603350
20,442000	0,5	-1,607850
20,450333	0,5	-1,609700
20,458667	0,5	-1,594050
20,467000	0,5	-1,598000
20,475333	0,5	-1,607950
20,483667	0,5	-1,609350
20,492000	0,5	-1,604150
20,500333	0,5	-1,600950
20,508667	0,5	-1,602950
20,517000	0,5	-1,590950
20,525333	0,5	-1,574550
20,533667	0,5	-1,562500
20,542000	0,5	-1,553850
20,550333	0,5	-1,551300
20,558667	0,5	-1,560900
20,567000	0,5	-1,564800
20,575333	0,5	-1,575800
20,583667	0,5	-1,567600
20,592000	0,5	-1,571050
20,600333	0,5	-1,548100
20,608667	0,5	-1,526300
20,617000	0,5	-1,532600
20,625333	0,5	-1,549450
20,633667	0,5	-1,561100
20,642000	0,5	-1,578850
20,650333	0,5	-1,596200
20,658667	0,5	-1,624950
20,667000	0,5	-1,622650
20,675333	0,5	-1,620100
20,683667	0,5	-1,626950
20,692000	0,5	-1,628750
20,700333	0,5	-1,638350
20,708667	0,5	-1,635550
20,717000	0,5	-1,647500
20,725333	0,5	-1,646750
20,733667	0,5	-1,658250
20,742000	0,5	-1,664000
20,750333	0,5	-1,649850
20,758667	0,5	-1,635150
20,767000	0,5	-1,651100
20,775333	0,5	-1,651750
20,783667	0,5	-1,653200
20,792000	0,5	-1,662900
20,800333	0,5	-1,671550
20,808667	0,5	-1,685250
20,817000	0,5	-1,674350
20,825333	0,5	-1,675050
20,833667	0,5	-1,671650
20,842000	0,5	-1,664550
20,850333	0,5	-1,651250
20,858667	0,5	-1,641750
20,867000	0,5	-1,629300
20,875333	0,5	-1,625950
20,883667	0,5	-1,624850
20,892000	0,5	-1,627550
20,900333	0,5	-1,611000
20,908667	0,5	-1,613950
20,917000	0,5	-1,632200
20,925333	0,5	-1,630450
20,933667	0,5	-1,637050
20,942000	0,5	-1,652100
20,950333	0,5	-1,658050
20,958667	0,5	-1,666800
20,967000	0,5	-1,663350
20,975333	0,5	-1,659500
20,983667	0,5	-1,658750
20,992000	0,5	-1,653600
21,000333	0,5	-1,656100
21,008667	0,5	-1,651900
21,017000	0,5	-1,648950
21,025333	0,5	-1,641150
21,033667	0,5	-1,644650
21,042000	0,5	-1,615800
21,050333	0,5	-1,597250
21,058667	0,5	-1,587150
21,067000	0,5	-1,587900
21,075333	0,5	-1,588100
21,083667	0,5	-1,596400
21,092000	0,5	-1,605950
21,100333	0,5	-1,617750
21,108667	0,5	-1,616550
21,117000	0,5	-1,613500
21,125333	0,5	-1,612000
21,133667	0,5	-1,609250
21,142000	0,5	-1,610200
21,150333	0,5	-1,602000
21,158667	0,5	-1,599450
21,167000	0,5	-1,590550
21,175333	0,5	-1,585800
21,183667	0,5	-1,570200
21,192000	0,5	-1,535250
21,200333	0,5	-1,517300
21,208667	0,5	-1,522250
21,217000	0,5	-1,513650
21,225333	0,5	-1,524550
21,233667	0,5	-1,524550
21,242000	0,5	-1,543200
21,250333	0,5	-1,546050
21,258667	0,5	-1,540600
21,267000	0,5	-1,536700
21,275333	0,5	-1,528100
21,283667	0,5	-1,523850
21,292000	0,5	-1,514900
21,300333	0,5	-1,504150
21,308667	0,5	-1,496400
21,317000	0,5	-1,493150
21,325333	0,5	-1,483650
21,333667	0,5	-1,465000
21,342000	0,5	-1,437350
21,350333	0,5	-1,434150
21,358667	0,5	-1,437300
21,367000	0,5	-1,434750
21,375333	0,5	-1,438050
21,383667	0,5	-1,443850
21,392000	0,5	-1,454000
21,400333	0,5	-1,446100
21,408667	0,5	-1,430200
21,417000	0,5	-1,412000
21,425333	0,5	-1,396900
21,433667	0,5	-1,389750
21,442000	0,5	-1,388500
21,450333	0,5	-1,388800
21,458667	0,5	-1,394550
21,467000	0,5	-1,388450
21,475333	0,5	-1,382400
21,483667	0,5	-1,350100
21,492000	0,5	-1,326550
21,500333	0,5	-1,321750
21,508667	0,5	-1,313200
21,517000	0,5	-1,302900
21,525333	0,5	-1,298800
21,533667	0,5	-1,286650
21,542000	0,5	-1,257750
21,550333	0,5	-1,218500
21,558667	0,5	-1,166150
21,567000	0,5	-1,112250
21,575333	0,5	-1,063450
21,583667	0,5	-1,043800
21,592000	0,5	-1,043950
21,600333	0,5	-1,064350
21,608667	0,5	-1,080800
21,617000	0,5	-1,098650
21,625333	0,5	-1,090150
21,633667	0,5	-1,079150
21,642000	0,5	-1,073400
21,650333	0,5	-1,073850
21,658667	0,5	-1,070450
21,667000	0,5	-1,082150
21,675333	0,5	-1,086100
21,683667	0,5	-1,104800
21,692000	0,5	-1,094500
21,700333	0,5	-1,083050
21,708667	0,5	-1,072300
21,717000	0,5	-1,061450
21,725333	0,5	-1,045150
21,733667	0,5	-1,026300
21,742000	0,5	-1,009400
21,750333	0,5	-0,980750
21,758667	0,5	-0,965700
21,767000	0,5	-0,936950
21,775333	0,5	-0,893450
21,783667	0,5	-0,862200
21,792000	0,5	-0,852500
21,800333	0,5	-0,828500
21,808667	0,5	-0,817450
21,817000	0,5	-0,801700
21,825333	0,5	-0,791300
21,833667	0,5	-0,780150
21,842000	0,5	-0,737100
21,850333	0,5	-0,715500
21,858667	0,5	-0,706350
21,867000	0,5	-0,700800
21,875333	0,5	-0,689700
21,883667	0,5	-0,683900
21,892000	0,5	-0,664900
21,900333	0,5	-0,655600
21,908667	0,5	-0,634600
21,917000	0,5	-0,616300
21,925333	0,5	-0,576000
21,933667	0,5	-0,564650
21,942000	0,5	-0,548300
21,950333	0,5	-0,524600
21,958667	0,5	-0,501850
21,967000	0,5	-0,488450
21,975333	0,5	-0,477000
21,983667	0,5	-0,451850
21,992000	0,5	-0,415150
22,000333	0,5	-0,384700
22,008667	0,5	-0,357800
22,017000	0,5	-0,328050
22,025333	0,5	-0,300550
22,033667	0,5	-0,273100
22,042000	0,5	-0,249750
22,050333	0,5	-0,225550
22,058667	0,5	-0,201600
22,067000	0,5	-0,165750
22,075333	0,5	-0,133250
22,083667	0,5	-0,101200
22,092000	0,5	-0,049550
22,100333	0,5	-0,000800
22,108667	0,5	0,033500
22,117000	0,5	0,067100
22,125333	0,5	0,082050
22,133667	0,5	0,117750
22,142000	0,5	0,158400
22,150333	0,5	0,197800
22,158667	0,5	0,232400
22,167000	0,5	0,268650
22,175333	0,5	0,305750
22,183667	0,5	0,350600
22,192000	0,5	0,384850
22,200333	0,5	0,420750
22,208667	0,5	0,464100
22,217000	0,5	0,501000
22,225333	0,5	0,542250
22,233667	0,5	0,588450
22,242000	0,5	0,647800
22,250333	0,5	0,686350
22,258667	0,5	0,740350
22,267000	0,5	0,784100
22,275333	0,5	0,832500
22,283667	0,5	0,886400
22,292000	0,5	0,923550
22,300333	0,5	0,960750
22,308667	0,5	1,004600
22,317000	0,5	1,047750
22,325333	0,5	1,097400
22,333667	0,5	1,156700
22,342000	0,5	1,202500
22,350333	0,5	1,258650
22,358667	0,5	1,299700
22,367000	0,5	1,353850
22,375333	0,5	1,402550
22,383667	0,5	1,475200
22,392000	0,5	1,533850
22,400333	0,5	1,584550
22,408667	0,5	1,632500
22,417000	0,5	1,687150
22,425333	0,5	1,753600
22,433667	0,5	1,828450
22,442000	0,5	1,891050
22,450333	0,5	1,967950
22,458667	0,5	2,038750
22,467000	0,5	2,103200
22,475333	0,5	2,168850
22,483667	0,5	2,230100
22,492000	0,5	2,291450
22,500333	0,5	2,340800
22,508667	0,5	2,385000
22,517000	0,5	2,427600
22,525333	0,5	2,506550
22,533667	0,5	2,568650
22,542000	0,5	2,624950
22,550333	0,5	2,660900
22,558667	0,5	2,690150
22,567000	0,5	2,724950
22,575333	0,5	2,765700
22,583667	0,5	2,793450
22,592000	0,5	2,818350
22,600333	0,5	2,844500
22,608667	0,5	2,860400
22,617000	0,5	2,874300
22,625333	0,5	2,888350
22,633667	0,5	2,893800
22,642000	0,5	2,878250
22,650333	0,5	2,839050
22,658667	0,5	2,803750
22,667000	0,5	2,771250
22,675333	0,5	2,750800
22,683667	0,5	2,694700
22,692000	0,5	2,621600
22,700333	0,5	2,540250
22,708667	0,5	2,436700
22,717000	0,5	2,365450
22,725333	0,5	2,273450
22,733667	0,5	2,178000
22,742000	0,5	2,078150
22,750333	0,5	1,983400
22,758667	0,5	1,878300
22,767000	0,5	1,774100
22,775333	0,5	1,661200
22,783667	0,5	1,544600
22,792000	0,5	1,423200
22,800333	0,5	1,244250
22,808667	0,5	1,133250
22,817000	0,5	0,989100
22,825333	0,5	0,847150
22,833667	0,5	0,692900
22,842000	0,5	0,532000
22,850333	0,5	0,378150
22,858667	0,5	0,221550
22,867000	0,5	0,063900
22,875333	0,5	-0,083250
22,883667	0,5	-0,223550
22,892000	0,5	-0,360500
22,900333	0,5	-0,496500
22,908667	0,5	-0,625000
22,917000	0,5	-0,756450
22,925333	0,5	-0,884350
22,933667	0,5	-1,014850
22,942000	0,5	-1,116700
22,950333	0,5	-1,242800
22,958667	0,5	-1,363000
22,967000	0,5	-1,500200
22,975333	0,5	-1,621100
22,983667	0,5	-1,723400
22,992000	0,5	-1,809800
23,000333	0,5	-1,896450
23,008667	0,5	-1,978100
23,017000	0,5	-2,061800
23,025333	0,5	-2,127400
23,033667	0,5	-2,191950
23,042000	0,5	-2,242350
23,050333	0,5	-2,298900
23,058667	0,5	-2,352500
23,067000	0,5	-2,398600
23,075333	0,5	-2,448400
23,083667	0,5	-2,488400
23,092000	0,5	-2,511050
23,100333	0,5	-2,554950
23,108667	0,5	-2,597400
23,117000	0,5	-2,667600
23,125333	0,5	-2,706850
23,133667	0,5	-2,726750
23,142000	0,5	-2,744750
23,150333	0,5	-2,748900
23,158667	0,5	-2,759800
23,167000	0,5	-2,759300
23,175333	0,5	-2,763900
23,183667	0,5	-2,753700
23,192000	0,5	-2,747050
23,200333	0,5	-2,731400
23,208667	0,5	-2,725000
23,217000	0,5	-2,716100
23,225333	0,5	-2,703650
23,233667	0,5	-2,692050
23,242000	0,5	-2,691050
23,250333	0,5	-2,664350
23,258667	0,5	-2,656700
23,267000	0,5	-2,675850
23,275333	0,5	-2,672750
23,283667	0,5	-2,666550
23,292000	0,5	-2,640450
23,300333	0,5	-2,621400
23,308667	0,5	-2,600000
23,317000	0,5	-2,579700
23,325333	0,5	-2,548950
23,333667	0,5	-2,520050
23,342000	0,5	-2,485800
23,350333	0,5	-2,457550
23,358667	0,5	-2,422550
23,367000	0,5	-2,393900
23,375333	0,5	-2,360550
23,383667	0,5	-2,339600
23,392000	0,5	-2,340250
23,400333	0,5	-2,295850
23,408667	0,5	-2,245350
23,417000	0,5	-2,246350
23,425333	0,5	-2,237050
23,433667	0,5	-2,220150
23,442000	0,5	-2,191250
23,450333	0,5	-2,174650
23,458667	0,5	-2,155200
23,467000	0,5	-2,133000
23,475333	0,5	-2,112300
23,483667	0,5	-2,089000
23,492000	0,5	-2,067850
23,500333	0,5	-2,041200
23,508667	0,5	-2,019300
23,517000	0,5	-1,991900
23,525333	0,5	-1,972100
23,533667	0,5	-2,028500
23,542000	0,5	-1,981150
23,550333	0,5	-1,951150
23,558667	0,5	-1,885050
23,567000	0,5	-1,873300
23,575333	0,5	-1,861700
23,583667	0,5	-1,847950
23,592000	0,5	-1,834000
23,600333	0,5	-1,812950
23,608667	0,5	-1,800550
23,617000	0,5	-1,783500
23,625333	0,5	-1,767550
23,633667	0,5	-1,749700
23,642000	0,5	-1,737450
23,650333	0,5	-1,719800
23,658667	0,5	-1,709150
23,667000	0,5	-1,696050
23,675333	0,5	-1,700550
23,683667	0,5	-1,793100
23,692000	0,5	-1,754450
23,700333	0,5	-1,709650
23,708667	0,5	-1,657150
23,717000	0,5	-1,646400
23,725333	0,5	-1,637950
23,733667	0,5	-1,629350
23,742000	0,5	-1,626000
23,750333	0,5	-1,605800
23,758667	0,5	-1,589150
23,767000	0,5	-1,573150
23,775333	0,5	-1,553600
23,783667	0,5	-1,536500
23,792000	0,5	-1,517150
23,800333	0,5	-1,500350
23,808667	0,5	-1,483550
23,817000	0,5	-1,473700
23,825333	0,5	-1,537200
23,833667	0,5	-1,566800
23,842000	0,5	-1,520150
23,850333	0,5	-1,477900
23,858667	0,5	-1,428600
23,867000	0,5	-1,421750
23,875333	0,5	-1,413000
23,883667	0,5	-1,414550
23,892000	0,5	-1,411550
23,900333	0,5	-1,394550
23,908667	0,5	-1,380100
23,917000	0,5	-1,367400
23,925333	0,5	-1,351300
23,933667	0,5	-1,336750
23,942000	0,5	-1,317450
23,950333	0,5	-1,300650
23,958667	0,5	-1,287700
23,967000	0,5	-1,269550
23,975333	0,5	-1,384100
23,983667	0,5	-1,341050
23,992000	0,5	-1,314350
24,000333	0,5	-1,250250
24,008667	0,5	-1,216600
24,017000	0,5	-1,197050
24,025333	0,5	-1,191100
24,033667	0,5	-1,182650
24,042000	0,5	-1,174250
24,050333	0,5	-1,146500
24,058667	0,5	-1,132700
24,067000	0,5	-1,111900
24,075333	0,5	-1,097450
24,083667	0,5	-1,078050
24,092000	0,5	-1,057900
24,100333	0,5	-1,041650
24,108667	0,5	-1,029600
24,117000	0,5	-1,038200
24,125333	0,5	-1,112400
24,133667	0,5	-1,085150
24,142000	0,5	-1,043250
24,150333	0,5	-0,996150
24,158667	0,5	-0,969200
24,167000	0,5	-0,957250
24,175333	0,5	-0,954450
24,183667	0,5	-0,956350
24,192000	0,5	-0,933800
24,200333	0,5	-0,918700
24,208667	0,5	-0,892600
24,217000	0,5	-0,872400
24,225333	0,5	-0,852450
24,233667	0,5	-0,834550
24,242000	0,5	-0,809900
24,250333	0,5	-0,794100
24,258667	0,5	-0,776100
24,267000	0,5	-0,799000
24,275333	0,5	-0,818000
24,283667	0,5	-0,801350
24,292000	0,5	-0,759200
24,300333	0,5	-0,718750
24,308667	0,5	-0,705950
24,317000	0,5	-0,694850
24,325333	0,5	-0,699900
24,333667	0,5	-0,689650
24,342000	0,5	-0,678200
24,350333	0,5	-0,657950
24,358667	0,5	-0,650150
24,367000	0,5	-0,634550
24,375333	0,5	-0,624100
24,383667	0,5	-0,603700
24,392000	0,5	-0,591050
24,400333	0,5	-0,571250
24,408667	0,5	-0,562750
24,417000	0,5	-0,610950
24,425333	0,5	-0,593250
24,433667	0,5	-0,575200
24,442000	0,5	-0,534450
24,450333	0,5	-0,505250
24,458667	0,5	-0,492800
24,467000	0,5	-0,477650
24,475333	0,5	-0,484650
24,483667	0,5	-0,466500
24,492000	0,5	-0,451750
24,500333	0,5	-0,440800
24,508667	0,5	-0,428600
24,517000	0,5	-0,417300
24,525333	0,5	-0,403200
24,533667	0,5	-0,398300
24,542000	0,5	-0,383350
24,550333	0,5	-0,373500
24,558667	0,5	-0,370200
24,567000	0,5	-0,403150
24,575333	0,5	-0,382350
24,583667	0,5	-0,376600
24,592000	0,5	-0,346250
24,600333	0,5	-0,329900
24,608667	0,5	-0,321450
24,617000	0,5	-0,320400
24,625333	0,5	-0,322800
24,633667	0,5	-0,303600
24,642000	0,5	-0,292050
24,650333	0,5	-0,283500
24,658667	0,5	-0,274850
24,667000	0,5	-0,261150
24,675333	0,5	-0,254600
24,683667	0,5	-0,237050
24,692000	0,5	-0,225550
24,700333	0,5	-0,216150
24,708667	0,5	-0,216400
24,717000	0,5	-0,232000
24,725333	0,5	-0,221000
24,733667	0,5	-0,208950
24,742000	0,5	-0,189100
24,750333	0,5	-0,178950
24,758667	0,5	-0,175050
24,767000	0,5	-0,175500
24,775333	0,5	-0,179400
24,783667	0,5	-0,167850
24,792000	0,5	-0,160550
24,800333	0,5	-0,154400
24,808667	0,5	-0,150100
24,817000	0,5	-0,141900
24,825333	0,5	-0,134800
24,833667	0,5	-0,126350
24,842000	0,5	-0,118950
24,850333	0,5	-0,114100
24,858667	0,5	-0,125650
24,867000	0,5	-0,116350
24,875333	0,5	-0,106250
24,883667	0,5	-0,095300
24,892000	0,5	-0,081400
24,900333	0,5	-0,074450
24,908667	0,5	-0,070700
24,917000	0,5	-0,071950
24,925333	0,5	-0,068900
24,933667	0,5	-0,061550
24,942000	0,5	-0,054000
24,950333	0,5	-0,049550
24,958667	0,5	-0,043050
24,967000	0,5	-0,041800
24,975333	0,5	-0,035600
24,983667	0,5	-0,031500
24,992000	0,5	-0,023950
25,000333	0,5	-0,022450
25,008667	0,5	-0,032050
25,017000	0,5	-0,023050
25,025333	0,5	-0,021050
25,033667	0,5	-0,012700
25,042000	0,5	-0,005900
25,050333	0,5	-0,000900
25,058667	0,5	0,000900
25,067000	0,5	0,001000
25,075333	0,5	0,004750
25,083667	0,5	0,010850
25,092000	0,5	0,016800
25,100333	0,5	0,021900
25,108667	0,5	0,024950
25,117000	0,5	0,029150
25,125333	0,5	0,035200
25,133667	0,5	0,041100
25,142000	0,5	0,042900
25,150333	0,5	0,042200
25,158667	0,5	0,045800
25,167000	0,5	0,047700
25,175333	0,5	0,050200
25,183667	0,5	0,051300
25,192000	0,5	0,055050
25,200333	0,5	0,055750
25,208667	0,5	0,053950
25,217000	0,5	0,049750
25,225333	0,5	0,055250
25,233667	0,5	0,056450
25,242000	0,5	0,058350
25,250333	0,5	0,061150
25,258667	0,5	0,064100
25,267000	0,5	0,066700
25,275333	0,5	0,072750
25,283667	0,5	0,072650
25,292000	0,5	0,077650
25,300333	0,5	0,077600
25,308667	0,5	0,081900
25,317000	0,5	0,086350
25,325333	0,5	0,086650
25,333667	0,5	0,087950
25,342000	0,5	0,091300
25,350333	0,5	0,090100
25,358667	0,5	0,090800
25,367000	0,5	0,090850
25,375333	0,5	0,092650
25,383667	0,5	0,091350
25,392000	0,5	0,092600
25,400333	0,5	0,090200
25,408667	0,5	0,094450
25,417000	0,5	0,092000
25,425333	0,5	0,095000
25,433667	0,5	0,095750
25,442000	0,5	0,096500
25,450333	0,5	0,099450
25,458667	0,5	0,101550
25,467000	0,5	0,107350
25,475333	0,5	0,103850
25,483667	0,5	0,102650
25,492000	0,5	0,107350
25,500333	0,5	0,109850
25,508667	0,5	0,114050
25,517000	0,5	0,112550
25,525333	0,5	0,115350
25,533667	0,5	0,111550
25,542000	0,5	0,113400
25,550333	0,5	0,115300
25,558667	0,5	0,114900
25,567000	0,5	0,115700
25,575333	0,5	0,115450
25,583667	0,5	0,118150
25,592000	0,5	0,119650
25,600333	0,5	0,119350
25,608667	0,5	0,118350
25,617000	0,5	0,121300
25,625333	0,5	0,116900
25,633667	0,5	0,116200
25,642000	0,5	0,116800
25,650333	0,5	0,122600
25,658667	0,5	0,126200
25,667000	0,5	0,121000
25,675333	0,5	0,122550
25,683667	0,5	0,125050
25,692000	0,5	0,126450
25,700333	0,5	0,126400
25,708667	0,5	0,128400
25,717000	0,5	0,127600
25,725333	0,5	0,130700
25,733667	0,5	0,128050
25,742000	0,5	0,137200
25,750333	0,5	0,131500
25,758667	0,5	0,138050
25,767000	0,5	0,136750
25,775333	0,5	0,133900
25,783667	0,5	0,135150
25,792000	0,5	0,138150
25,800333	0,5	0,143350
25,808667	0,5	0,148350
25,817000	0,5	0,143150
25,825333	0,5	0,149150
25,833667	0,5	0,147250
25,842000	0,5	0,149200
25,850333	0,5	0,146650
25,858667	0,5	0,148100
25,867000	0,5	0,149250
25,875333	0,5	0,150150
25,883667	0,5	0,154550
25,892000	0,5	0,150000
25,900333	0,5	0,151500
25,908667	0,5	0,158150
25,917000	0,5	0,153000
25,925333	0,5	0,149750
25,933667	0,5	0,150950
25,942000	0,5	0,156500
25,950333	0,5	0,166750
25,958667	0,5	0,165650
25,967000	0,5	0,170650
25,975333	0,5	0,163350
25,983667	0,5	0,163700
25,992000	0,5	0,160750
26,000333	0,5	0,165050
