File Path	chrom://chromeleon01/ikbm_chromeleon/2022/ICS-5000/ED1/Esteban/20220612_Cell_7_4_eg.seq/654.smp/ED_1.channel/ED_1.chm
Channel	ED_1

Injection Information:
Data Vault	ikbm_chromeleon
Injection	4_06h-EGS_2
Injection Number	79
Position	GC5
Comment	
Processing Method	Stop sequence after Cell Death
Instrument Method	ICS5000_PA200_FullNative_Ox_26min_ED1
Type	Unknown
Status	Finished
Injection Date	14.06.2022
Injection Time	05:14:43
Injection Volume (µl)	5,0
Dilution Factor	1,0000
Weight	1,0000

Chromatogram Data Information:
Time Min. (min)	0,000167
Time Max. (min)	26,000167
Data Points	3121
Detector	EDet1
Generating Data System	Chromeleon 7.2.9.11323
Exporting Data System	Chromeleon 7.2.9.0
Operator	Instrument Controller
Signal Quantity	
Signal Unit	nC
Signal Min.	-2,372600
Signal Max.	2 478,846187
Channel	ED_1
Driver Name	DC-5000
Channel Type	Evaluation
Min. Step (s)	0,5
Max. Step (s)	0,5
Average Step (s)	0,5

Signal Parameter Information:
Signal Info	

Chromatogram Data:
Time (min)	Step (s)	Value (nC)
0,000167	n.a.	-0,044550
0,008500	0,5	-0,059000
0,016833	0,5	-0,058950
0,025167	0,5	-0,041800
0,033500	0,5	-0,051800
0,041833	0,5	-0,050000
0,050167	0,5	-0,048250
0,058500	0,5	-0,031900
0,066833	0,5	-0,001200
0,075167	0,5	-0,003450
0,083500	0,5	-0,019550
0,091833	0,5	-0,010350
0,100167	0,5	-0,021200
0,108500	0,5	-0,016700
0,116833	0,5	-0,027800
0,125167	0,5	-0,027000
0,133500	0,5	-0,036450
0,141833	0,5	-0,034850
0,150167	0,5	-0,033450
0,158500	0,5	-0,027900
0,166833	0,5	-0,038500
0,175167	0,5	-0,019100
0,183500	0,5	-0,063200
0,191833	0,5	-0,053250
0,200167	0,5	-0,059850
0,208500	0,5	-0,043700
0,216833	0,5	-0,021750
0,225167	0,5	-0,032000
0,233500	0,5	-0,032200
0,241833	0,5	-0,039950
0,250167	0,5	-0,038650
0,258500	0,5	-0,047200
0,266833	0,5	-0,048550
0,275167	0,5	-0,059300
0,283500	0,5	-0,054350
0,291833	0,5	-0,037100
0,300167	0,5	-0,001600
0,308500	0,5	-0,022050
0,316833	0,5	-0,044800
0,325167	0,5	-0,085050
0,333500	0,5	-0,106950
0,341833	0,5	-0,106500
0,350167	0,5	-0,101500
0,358500	0,5	-0,084700
0,366833	0,5	-0,070950
0,375167	0,5	-0,072350
0,383500	0,5	-0,072150
0,391833	0,5	-0,077650
0,400167	0,5	-0,084100
0,408500	0,5	-0,086600
0,416833	0,5	-0,093450
0,425167	0,5	-0,097550
0,433500	0,5	-0,105000
0,441833	0,5	-0,100100
0,450167	0,5	-0,109700
0,458500	0,5	-0,108600
0,466833	0,5	-0,089600
0,475167	0,5	-0,104850
0,483500	0,5	-0,127050
0,491833	0,5	-0,124300
0,500167	0,5	-0,126250
0,508500	0,5	-0,093200
0,516833	0,5	-0,099000
0,525167	0,5	-0,096950
0,533500	0,5	-0,105600
0,541833	0,5	-0,105000
0,550167	0,5	-0,110150
0,558500	0,5	-0,113300
0,566833	0,5	-0,116350
0,575167	0,5	-0,120050
0,583500	0,5	-0,119150
0,591833	0,5	-0,120400
0,600167	0,5	-0,115550
0,608500	0,5	-0,118750
0,616833	0,5	-0,098100
0,625167	0,5	-0,129550
0,633500	0,5	-0,135100
0,641833	0,5	-0,136950
0,650167	0,5	-0,125400
0,658500	0,5	-0,111200
0,666833	0,5	-0,115500
0,675167	0,5	-0,127900
0,683500	0,5	-0,115600
0,691833	0,5	-0,124400
0,700167	0,5	-0,121250
0,708500	0,5	-0,124100
0,716833	0,5	-0,124000
0,725167	0,5	-0,128550
0,733500	0,5	-0,131550
0,741833	0,5	-0,123800
0,750167	0,5	-0,137400
0,758500	0,5	-0,118050
0,766833	0,5	-0,109600
0,775167	0,5	-0,137600
0,783500	0,5	-0,144900
0,791833	0,5	-0,133050
0,800167	0,5	-0,119400
0,808500	0,5	-0,104000
0,816833	0,5	-0,121200
0,825167	0,5	-0,112650
0,833500	0,5	-0,119250
0,841833	0,5	-0,109550
0,850167	0,5	-0,119950
0,858500	0,5	-0,116700
0,866833	0,5	-0,130300
0,875167	0,5	-0,126500
0,883500	0,5	-0,118750
0,891833	0,5	-0,115250
0,900167	0,5	-0,132900
0,908500	0,5	-0,106250
0,916833	0,5	-0,120650
0,925167	0,5	-0,130050
0,933500	0,5	-0,135800
0,941833	0,5	-0,125750
0,950167	0,5	-0,099600
0,958500	0,5	-0,097650
0,966833	0,5	-0,099600
0,975167	0,5	-0,112050
0,983500	0,5	-0,106250
0,991833	0,5	-0,113550
1,000167	0,5	-0,108100
1,008500	0,5	-0,111350
1,016833	0,5	-0,109950
1,025167	0,5	-0,115650
1,033500	0,5	-0,109700
1,041833	0,5	-0,109650
1,050167	0,5	-0,111700
1,058500	0,5	-0,102300
1,066833	0,5	-0,117150
1,075167	0,5	-0,122600
1,083500	0,5	-0,120900
1,091833	0,5	-0,110900
1,100167	0,5	-0,088100
1,108500	0,5	-0,090700
1,116833	0,5	-0,097050
1,125167	0,5	-0,098000
1,133500	0,5	-0,094950
1,141833	0,5	-0,095700
1,150167	0,5	-0,100100
1,158500	0,5	-0,103000
1,166833	0,5	-0,113250
1,175167	0,5	-0,106650
1,183500	0,5	-0,108550
1,191833	0,5	-0,083400
1,200167	0,5	-0,093450
1,208500	0,5	-0,082000
1,216833	0,5	-0,111400
1,225167	0,5	-0,112650
1,233500	0,5	-0,117400
1,241833	0,5	-0,095550
1,250167	0,5	-0,081300
1,258500	0,5	-0,075150
1,266833	0,5	-0,083450
1,275167	0,5	-0,082850
1,283500	0,5	-0,088400
1,291833	0,5	-0,090550
1,300167	0,5	-0,095150
1,308500	0,5	-0,101000
1,316833	0,5	-0,092400
1,325167	0,5	-0,092150
1,333500	0,5	-0,086850
1,341833	0,5	-0,099200
1,350167	0,5	-0,081700
1,358500	0,5	-0,093050
1,366833	0,5	-0,106750
1,375167	0,5	-0,103850
1,383500	0,5	-0,099200
1,391833	0,5	-0,084550
1,400167	0,5	-0,073000
1,408500	0,5	-0,080400
1,416833	0,5	-0,076000
1,425167	0,5	-0,088500
1,433500	0,5	-0,083550
1,441833	0,5	-0,084650
1,450167	0,5	-0,086300
1,458500	0,5	-0,094350
1,466833	0,5	-0,100300
1,475167	0,5	-0,098400
1,483500	0,5	-0,111450
1,491833	0,5	-0,114550
1,500167	0,5	-0,092950
1,508500	0,5	-0,111800
1,516833	0,5	-0,126450
1,525167	0,5	-0,123100
1,533500	0,5	-0,122500
1,541833	0,5	-0,095900
1,550167	0,5	-0,090850
1,558500	0,5	-0,022000
1,566833	0,5	0,199450
1,575167	0,5	0,904400
1,583500	0,5	4,475250
1,591833	0,5	23,367750
1,600167	0,5	101,328202
1,608500	0,5	367,951205
1,616833	0,5	1 062,767516
1,625167	0,5	1 557,442373
1,633500	0,5	2 478,846187
1,641833	0,5	2 412,996736
1,650167	0,5	2 364,740835
1,658500	0,5	2 334,294035
1,666833	0,5	2 120,681132
1,675167	0,5	1 628,848074
1,683500	0,5	1 112,965067
1,691833	0,5	757,898061
1,700167	0,5	549,669058
1,708500	0,5	423,889656
1,716833	0,5	340,069355
1,725167	0,5	281,633904
1,733500	0,5	239,007304
1,741833	0,5	207,265003
1,750167	0,5	181,941903
1,758500	0,5	159,924302
1,766833	0,5	140,645002
1,775167	0,5	124,671802
1,783500	0,5	112,366202
1,791833	0,5	103,668002
1,800167	0,5	98,061901
1,808500	0,5	94,244101
1,816833	0,5	90,640201
1,825167	0,5	85,926601
1,833500	0,5	80,098301
1,841833	0,5	74,153551
1,850167	0,5	69,008551
1,858500	0,5	64,943801
1,866833	0,5	61,622701
1,875167	0,5	58,905001
1,883500	0,5	56,926651
1,891833	0,5	55,716851
1,900167	0,5	54,922851
1,908500	0,5	54,296101
1,916833	0,5	54,049801
1,925167	0,5	54,430451
1,933500	0,5	54,486351
1,941833	0,5	52,868251
1,950167	0,5	49,566851
1,958500	0,5	46,187301
1,966833	0,5	43,999801
1,975167	0,5	43,481701
1,983500	0,5	44,754501
1,991833	0,5	47,676251
2,000167	0,5	51,993501
2,008500	0,5	57,580151
2,016833	0,5	64,748901
2,025167	0,5	74,525801
2,033500	0,5	87,080351
2,041833	0,5	98,998701
2,050167	0,5	104,110102
2,058500	0,5	99,629701
2,066833	0,5	89,203851
2,075167	0,5	78,228851
2,083500	0,5	69,532251
2,091833	0,5	63,541801
2,100167	0,5	59,869301
2,108500	0,5	57,767101
2,116833	0,5	56,495051
2,125167	0,5	55,704751
2,133500	0,5	54,884851
2,141833	0,5	53,476401
2,150167	0,5	51,719851
2,158500	0,5	50,091751
2,166833	0,5	48,666701
2,175167	0,5	47,308201
2,183500	0,5	46,089501
2,191833	0,5	45,102101
2,200167	0,5	44,390401
2,208500	0,5	43,990551
2,216833	0,5	43,942601
2,225167	0,5	44,340801
2,233500	0,5	45,148151
2,241833	0,5	45,847501
2,250167	0,5	45,703451
2,258500	0,5	44,740701
2,266833	0,5	43,553501
2,275167	0,5	42,666401
2,283500	0,5	42,127001
2,291833	0,5	41,821151
2,300167	0,5	41,665351
2,308500	0,5	41,670701
2,316833	0,5	41,740351
2,325167	0,5	41,800851
2,333500	0,5	41,801901
2,341833	0,5	41,873851
2,350167	0,5	42,191701
2,358500	0,5	42,882801
2,366833	0,5	44,059051
2,375167	0,5	45,852651
2,383500	0,5	48,402801
2,391833	0,5	49,744401
2,400167	0,5	48,113901
2,408500	0,5	45,388401
2,416833	0,5	43,430151
2,425167	0,5	42,224951
2,433500	0,5	41,378801
2,441833	0,5	40,693601
2,450167	0,5	40,127751
2,458500	0,5	39,626301
2,466833	0,5	39,203901
2,475167	0,5	38,808451
2,483500	0,5	38,438151
2,491833	0,5	38,038601
2,500167	0,5	37,627951
2,508500	0,5	37,218901
2,516833	0,5	36,848801
2,525167	0,5	36,597451
2,533500	0,5	36,580001
2,541833	0,5	36,813301
2,550167	0,5	37,424551
2,558500	0,5	38,364401
2,566833	0,5	39,433301
2,575167	0,5	40,400651
2,583500	0,5	41,025901
2,591833	0,5	41,262851
2,600167	0,5	41,165351
2,608500	0,5	41,067251
2,616833	0,5	41,440251
2,625167	0,5	42,867251
2,633500	0,5	45,925551
2,641833	0,5	51,462551
2,650167	0,5	61,173301
2,658500	0,5	78,397101
2,666833	0,5	106,691852
2,675167	0,5	144,779552
2,683500	0,5	181,963753
2,691833	0,5	202,756453
2,700167	0,5	199,049903
2,708500	0,5	175,398203
2,716833	0,5	143,624102
2,725167	0,5	114,328702
2,733500	0,5	92,195801
2,741833	0,5	77,125901
2,750167	0,5	67,174001
2,758500	0,5	60,637551
2,766833	0,5	56,737751
2,775167	0,5	55,492201
2,783500	0,5	57,291401
2,791833	0,5	62,182251
2,800167	0,5	69,093901
2,808500	0,5	75,602101
2,816833	0,5	78,974401
2,825167	0,5	77,657501
2,833500	0,5	72,082551
2,841833	0,5	63,991201
2,850167	0,5	55,530151
2,858500	0,5	48,127051
2,866833	0,5	42,364651
2,875167	0,5	38,195301
2,883500	0,5	35,250951
2,891833	0,5	33,193550
2,900167	0,5	31,711100
2,908500	0,5	30,591350
2,916833	0,5	29,695100
2,925167	0,5	28,943050
2,933500	0,5	28,297300
2,941833	0,5	27,764550
2,950167	0,5	27,360900
2,958500	0,5	27,144650
2,966833	0,5	27,109550
2,975167	0,5	27,277100
2,983500	0,5	27,474450
2,991833	0,5	27,530700
3,000167	0,5	27,315950
3,008500	0,5	26,806800
3,016833	0,5	26,086850
3,025167	0,5	25,300200
3,033500	0,5	24,555100
3,041833	0,5	23,940050
3,050167	0,5	23,446250
3,058500	0,5	23,072450
3,066833	0,5	22,801000
3,075167	0,5	22,627550
3,083500	0,5	22,544350
3,091833	0,5	22,560050
3,100167	0,5	22,712050
3,108500	0,5	23,056050
3,116833	0,5	23,719750
3,125167	0,5	24,737200
3,133500	0,5	25,878550
3,141833	0,5	26,776400
3,150167	0,5	27,052950
3,158500	0,5	26,578550
3,166833	0,5	25,509950
3,175167	0,5	24,140100
3,183500	0,5	22,786650
3,191833	0,5	21,665200
3,200167	0,5	20,848900
3,208500	0,5	20,299350
3,216833	0,5	19,972700
3,225167	0,5	19,794100
3,233500	0,5	19,741050
3,241833	0,5	19,747350
3,250167	0,5	19,761000
3,258500	0,5	19,704850
3,266833	0,5	19,551200
3,275167	0,5	19,287050
3,283500	0,5	18,929700
3,291833	0,5	18,570050
3,300167	0,5	18,253800
3,308500	0,5	18,012150
3,316833	0,5	17,838650
3,325167	0,5	17,698750
3,333500	0,5	17,583250
3,341833	0,5	17,512150
3,350167	0,5	17,459850
3,358500	0,5	17,442150
3,366833	0,5	17,444900
3,375167	0,5	17,456000
3,383500	0,5	17,457050
3,391833	0,5	17,445350
3,400167	0,5	17,402800
3,408500	0,5	17,329150
3,416833	0,5	17,242250
3,425167	0,5	17,124950
3,433500	0,5	16,974550
3,441833	0,5	16,844850
3,450167	0,5	16,721100
3,458500	0,5	16,633600
3,466833	0,5	16,550150
3,475167	0,5	16,474750
3,483500	0,5	16,419100
3,491833	0,5	16,364350
3,500167	0,5	16,317050
3,508500	0,5	16,258800
3,516833	0,5	16,215450
3,525167	0,5	16,164250
3,533500	0,5	16,142250
3,541833	0,5	16,124050
3,550167	0,5	16,123750
3,558500	0,5	16,167100
3,566833	0,5	16,333250
3,575167	0,5	16,530150
3,583500	0,5	16,746000
3,591833	0,5	16,888100
3,600167	0,5	16,941200
3,608500	0,5	16,940100
3,616833	0,5	16,879350
3,625167	0,5	16,809450
3,633500	0,5	16,746200
3,641833	0,5	16,686700
3,650167	0,5	16,634050
3,658500	0,5	16,592550
3,666833	0,5	16,545350
3,675167	0,5	16,489500
3,683500	0,5	16,397100
3,691833	0,5	16,274500
3,700167	0,5	16,075650
3,708500	0,5	15,852350
3,716833	0,5	15,624750
3,725167	0,5	15,354500
3,733500	0,5	15,104200
3,741833	0,5	14,888050
3,750167	0,5	14,691700
3,758500	0,5	14,551350
3,766833	0,5	14,385050
3,775167	0,5	14,249950
3,783500	0,5	14,122900
3,791833	0,5	14,011300
3,800167	0,5	13,899800
3,808500	0,5	13,803350
3,816833	0,5	13,705450
3,825167	0,5	13,611450
3,833500	0,5	13,524450
3,841833	0,5	13,437150
3,850167	0,5	13,347900
3,858500	0,5	13,269850
3,866833	0,5	13,210050
3,875167	0,5	13,116100
3,883500	0,5	13,053700
3,891833	0,5	12,991500
3,900167	0,5	12,943550
3,908500	0,5	12,895700
3,916833	0,5	12,826650
3,925167	0,5	12,765700
3,933500	0,5	12,715900
3,941833	0,5	12,663800
3,950167	0,5	12,618150
3,958500	0,5	12,561650
3,966833	0,5	12,508450
3,975167	0,5	12,459900
3,983500	0,5	12,412850
3,991833	0,5	12,366250
4,000167	0,5	12,310300
4,008500	0,5	12,275950
4,016833	0,5	12,245150
4,025167	0,5	12,203300
4,033500	0,5	12,185150
4,041833	0,5	12,190850
4,050167	0,5	12,224400
4,058500	0,5	12,288550
4,066833	0,5	12,361700
4,075167	0,5	12,493750
4,083500	0,5	12,651600
4,091833	0,5	12,851750
4,100167	0,5	13,069250
4,108500	0,5	13,299550
4,116833	0,5	13,525350
4,125167	0,5	13,732400
4,133500	0,5	13,903350
4,141833	0,5	14,018900
4,150167	0,5	14,091100
4,158500	0,5	14,144500
4,166833	0,5	14,135100
4,175167	0,5	14,101300
4,183500	0,5	14,065500
4,191833	0,5	14,030550
4,200167	0,5	13,998950
4,208500	0,5	13,926150
4,216833	0,5	13,815600
4,225167	0,5	13,649100
4,233500	0,5	13,435700
4,241833	0,5	13,160950
4,250167	0,5	12,855050
4,258500	0,5	12,535000
4,266833	0,5	12,235500
4,275167	0,5	11,963900
4,283500	0,5	11,731050
4,291833	0,5	11,535050
4,300167	0,5	11,404550
4,308500	0,5	11,309650
4,316833	0,5	11,221500
4,325167	0,5	11,166700
4,333500	0,5	11,131600
4,341833	0,5	11,118650
4,350167	0,5	11,118800
4,358500	0,5	11,109450
4,366833	0,5	11,088500
4,375167	0,5	11,065300
4,383500	0,5	11,042200
4,391833	0,5	11,012800
4,400167	0,5	10,972100
4,408500	0,5	10,933600
4,416833	0,5	10,894750
4,425167	0,5	10,872250
4,433500	0,5	10,852000
4,441833	0,5	10,840100
4,450167	0,5	10,850050
4,458500	0,5	10,849300
4,466833	0,5	10,834250
4,475167	0,5	10,829250
4,483500	0,5	10,818750
4,491833	0,5	10,825250
4,500167	0,5	10,805100
4,508500	0,5	10,776850
4,516833	0,5	10,744750
4,525167	0,5	10,706100
4,533500	0,5	10,661450
4,541833	0,5	10,615200
4,550167	0,5	10,564600
4,558500	0,5	10,508200
4,566833	0,5	10,459600
4,575167	0,5	10,414750
4,583500	0,5	10,382850
4,591833	0,5	10,346900
4,600167	0,5	10,355150
4,608500	0,5	10,340800
4,616833	0,5	10,338000
4,625167	0,5	10,346750
4,633500	0,5	10,368550
4,641833	0,5	10,407950
4,650167	0,5	10,414500
4,658500	0,5	10,415800
4,666833	0,5	10,423400
4,675167	0,5	10,412200
4,683500	0,5	10,404400
4,691833	0,5	10,373900
4,700167	0,5	10,348050
4,708500	0,5	10,320000
4,716833	0,5	10,283550
4,725167	0,5	10,259050
4,733500	0,5	10,219900
4,741833	0,5	10,184300
4,750167	0,5	10,175800
4,758500	0,5	10,130900
4,766833	0,5	10,100400
4,775167	0,5	10,074950
4,783500	0,5	10,049050
4,791833	0,5	10,044100
4,800167	0,5	10,004950
4,808500	0,5	9,983250
4,816833	0,5	9,953900
4,825167	0,5	9,938450
4,833500	0,5	9,907750
4,841833	0,5	9,887900
4,850167	0,5	9,864200
4,858500	0,5	9,841550
4,866833	0,5	9,822500
4,875167	0,5	9,798950
4,883500	0,5	9,774750
4,891833	0,5	9,761500
4,900167	0,5	9,750950
4,908500	0,5	9,724400
4,916833	0,5	9,701700
4,925167	0,5	9,676500
4,933500	0,5	9,643250
4,941833	0,5	9,591850
4,950167	0,5	9,499550
4,958500	0,5	9,380900
4,966833	0,5	9,259000
4,975167	0,5	9,126650
4,983500	0,5	9,016500
4,991833	0,5	8,912200
5,000167	0,5	8,826850
5,008500	0,5	8,748650
5,016833	0,5	8,682500
5,025167	0,5	8,621950
5,033500	0,5	8,561450
5,041833	0,5	8,512650
5,050167	0,5	8,467600
5,058500	0,5	8,403450
5,066833	0,5	8,358750
5,075167	0,5	8,324550
5,083500	0,5	8,300000
5,091833	0,5	8,276150
5,100167	0,5	8,237900
5,108500	0,5	8,214850
5,116833	0,5	8,191400
5,125167	0,5	8,171700
5,133500	0,5	8,151350
5,141833	0,5	8,136650
5,150167	0,5	8,124750
5,158500	0,5	8,121650
5,166833	0,5	8,122000
5,175167	0,5	8,125300
5,183500	0,5	8,142950
5,191833	0,5	8,184250
5,200167	0,5	8,212900
5,208500	0,5	8,238850
5,216833	0,5	8,262900
5,225167	0,5	8,281100
5,233500	0,5	8,283950
5,241833	0,5	8,254800
5,250167	0,5	8,209350
5,258500	0,5	8,138750
5,266833	0,5	8,069750
5,275167	0,5	8,001650
5,283500	0,5	7,937700
5,291833	0,5	7,881400
5,300167	0,5	7,833600
5,308500	0,5	7,796850
5,316833	0,5	7,761400
5,325167	0,5	7,715850
5,333500	0,5	7,690450
5,341833	0,5	7,669750
5,350167	0,5	7,634150
5,358500	0,5	7,599800
5,366833	0,5	7,574100
5,375167	0,5	7,551450
5,383500	0,5	7,540300
5,391833	0,5	7,513000
5,400167	0,5	7,492400
5,408500	0,5	7,463800
5,416833	0,5	7,443100
5,425167	0,5	7,417400
5,433500	0,5	7,395400
5,441833	0,5	7,375250
5,450167	0,5	7,356900
5,458500	0,5	7,339000
5,466833	0,5	7,311400
5,475167	0,5	7,286650
5,483500	0,5	7,274950
5,491833	0,5	7,257300
5,500167	0,5	7,223600
5,508500	0,5	7,202450
5,516833	0,5	7,181200
5,525167	0,5	7,177950
5,533500	0,5	7,160400
5,541833	0,5	7,145800
5,550167	0,5	7,122450
5,558500	0,5	7,112650
5,566833	0,5	7,107200
5,575167	0,5	7,113550
5,583500	0,5	7,127950
5,591833	0,5	7,161450
5,600167	0,5	7,217250
5,608500	0,5	7,297700
5,616833	0,5	7,406000
5,625167	0,5	7,537550
5,633500	0,5	7,717600
5,641833	0,5	7,895750
5,650167	0,5	8,098450
5,658500	0,5	8,306350
5,666833	0,5	8,517700
5,675167	0,5	8,742600
5,683500	0,5	8,967600
5,691833	0,5	9,227600
5,700167	0,5	9,593100
5,708500	0,5	10,113650
5,716833	0,5	10,895850
5,725167	0,5	12,019650
5,733500	0,5	13,580250
5,741833	0,5	15,607100
5,750167	0,5	18,070950
5,758500	0,5	20,814000
5,766833	0,5	23,569250
5,775167	0,5	26,021200
5,783500	0,5	27,906750
5,791833	0,5	28,930700
5,800167	0,5	29,049250
5,808500	0,5	28,302400
5,816833	0,5	26,837900
5,825167	0,5	24,868700
5,833500	0,5	22,586900
5,841833	0,5	20,238400
5,850167	0,5	17,965000
5,858500	0,5	15,900050
5,866833	0,5	14,088800
5,875167	0,5	12,576700
5,883500	0,5	11,333100
5,891833	0,5	10,345850
5,900167	0,5	9,567500
5,908500	0,5	8,963050
5,916833	0,5	8,480600
5,925167	0,5	8,116200
5,933500	0,5	7,834500
5,941833	0,5	7,596850
5,950167	0,5	7,406350
5,958500	0,5	7,257000
5,966833	0,5	7,137200
5,975167	0,5	7,042650
5,983500	0,5	6,949600
5,991833	0,5	6,867450
6,000167	0,5	6,795300
6,008500	0,5	6,730050
6,016833	0,5	6,673750
6,025167	0,5	6,613200
6,033500	0,5	6,564200
6,041833	0,5	6,513800
6,050167	0,5	6,471250
6,058500	0,5	6,429700
6,066833	0,5	6,388450
6,075167	0,5	6,349500
6,083500	0,5	6,320000
6,091833	0,5	6,269400
6,100167	0,5	6,229700
6,108500	0,5	6,194000
6,116833	0,5	6,169450
6,125167	0,5	6,144200
6,133500	0,5	6,111900
6,141833	0,5	6,081900
6,150167	0,5	6,059000
6,158500	0,5	6,039800
6,166833	0,5	6,026300
6,175167	0,5	6,012600
6,183500	0,5	5,999400
6,191833	0,5	5,990250
6,200167	0,5	5,979500
6,208500	0,5	5,967400
6,216833	0,5	5,953000
6,225167	0,5	5,948200
6,233500	0,5	5,932000
6,241833	0,5	5,931850
6,250167	0,5	5,900150
6,258500	0,5	5,891650
6,266833	0,5	5,887100
6,275167	0,5	5,878250
6,283500	0,5	5,862200
6,291833	0,5	5,853050
6,300167	0,5	5,836150
6,308500	0,5	5,821250
6,316833	0,5	5,804900
6,325167	0,5	5,792550
6,333500	0,5	5,774000
6,341833	0,5	5,755200
6,350167	0,5	5,735950
6,358500	0,5	5,709550
6,366833	0,5	5,693900
6,375167	0,5	5,683100
6,383500	0,5	5,663500
6,391833	0,5	5,642400
6,400167	0,5	5,628250
6,408500	0,5	5,619450
6,416833	0,5	5,608450
6,425167	0,5	5,587700
6,433500	0,5	5,564700
6,441833	0,5	5,538250
6,450167	0,5	5,517700
6,458500	0,5	5,494250
6,466833	0,5	5,478150
6,475167	0,5	5,454850
6,483500	0,5	5,440700
6,491833	0,5	5,429200
6,500167	0,5	5,419250
6,508500	0,5	5,407650
6,516833	0,5	5,411650
6,525167	0,5	5,407650
6,533500	0,5	5,405850
6,541833	0,5	5,407250
6,550167	0,5	5,415750
6,558500	0,5	5,435250
6,566833	0,5	5,451550
6,575167	0,5	5,461600
6,583500	0,5	5,468200
6,591833	0,5	5,480050
6,600167	0,5	5,486200
6,608500	0,5	5,500050
6,616833	0,5	5,507850
6,625167	0,5	5,518950
6,633500	0,5	5,533850
6,641833	0,5	5,550000
6,650167	0,5	5,569050
6,658500	0,5	5,578250
6,666833	0,5	5,597750
6,675167	0,5	5,608150
6,683500	0,5	5,617750
6,691833	0,5	5,640750
6,700167	0,5	5,666600
6,708500	0,5	5,718650
6,716833	0,5	5,770900
6,725167	0,5	5,848050
6,733500	0,5	5,963100
6,741833	0,5	6,119800
6,750167	0,5	6,329600
6,758500	0,5	6,594900
6,766833	0,5	6,934300
6,775167	0,5	7,338850
6,783500	0,5	7,818900
6,791833	0,5	8,353250
6,800167	0,5	8,920100
6,808500	0,5	9,482350
6,816833	0,5	10,029900
6,825167	0,5	10,481850
6,833500	0,5	10,833950
6,841833	0,5	11,055450
6,850167	0,5	11,143000
6,858500	0,5	11,082900
6,866833	0,5	10,859000
6,875167	0,5	10,503850
6,883500	0,5	10,039400
6,891833	0,5	9,498900
6,900167	0,5	8,907100
6,908500	0,5	8,309600
6,916833	0,5	7,728850
6,925167	0,5	7,204250
6,933500	0,5	6,743950
6,941833	0,5	6,359000
6,950167	0,5	6,043850
6,958500	0,5	5,806000
6,966833	0,5	5,643700
6,975167	0,5	5,515450
6,983500	0,5	5,436300
6,991833	0,5	5,390350
7,000167	0,5	5,369400
7,008500	0,5	5,372550
7,016833	0,5	5,366050
7,025167	0,5	5,368350
7,033500	0,5	5,370100
7,041833	0,5	5,376800
7,050167	0,5	5,381500
7,058500	0,5	5,393800
7,066833	0,5	5,420950
7,075167	0,5	5,458900
7,083500	0,5	5,510200
7,091833	0,5	5,559350
7,100167	0,5	5,595450
7,108500	0,5	5,605800
7,116833	0,5	5,582650
7,125167	0,5	5,519900
7,133500	0,5	5,443150
7,141833	0,5	5,361000
7,150167	0,5	5,311650
7,158500	0,5	5,287200
7,166833	0,5	5,320300
7,175167	0,5	5,399750
7,183500	0,5	5,568200
7,191833	0,5	5,789550
7,200167	0,5	6,075350
7,208500	0,5	6,409400
7,216833	0,5	6,788000
7,225167	0,5	7,199100
7,233500	0,5	7,659250
7,241833	0,5	8,179850
7,250167	0,5	8,820150
7,258500	0,5	9,678700
7,266833	0,5	10,940100
7,275167	0,5	12,934750
7,283500	0,5	16,140450
7,291833	0,5	21,089900
7,300167	0,5	28,135350
7,308500	0,5	37,065201
7,316833	0,5	46,868601
7,325167	0,5	55,904701
7,333500	0,5	62,338901
7,341833	0,5	64,925201
7,350167	0,5	63,373301
7,358500	0,5	58,310251
7,366833	0,5	50,849551
7,375167	0,5	42,268451
7,383500	0,5	33,681901
7,391833	0,5	25,999700
7,400167	0,5	19,755650
7,408500	0,5	15,082500
7,416833	0,5	11,789850
7,425167	0,5	9,589700
7,433500	0,5	8,173300
7,441833	0,5	7,268100
7,450167	0,5	6,690150
7,458500	0,5	6,307200
7,466833	0,5	6,059000
7,475167	0,5	5,890500
7,483500	0,5	5,789150
7,491833	0,5	5,717350
7,500167	0,5	5,673400
7,508500	0,5	5,624800
7,516833	0,5	5,571400
7,525167	0,5	5,506400
7,533500	0,5	5,433550
7,541833	0,5	5,356750
7,550167	0,5	5,298650
7,558500	0,5	5,266000
7,566833	0,5	5,261900
7,575167	0,5	5,290550
7,583500	0,5	5,327950
7,591833	0,5	5,356600
7,600167	0,5	5,340500
7,608500	0,5	5,273200
7,616833	0,5	5,179150
7,625167	0,5	5,079600
7,633500	0,5	4,994750
7,641833	0,5	4,929250
7,650167	0,5	4,884650
7,658500	0,5	4,863250
7,666833	0,5	4,859250
7,675167	0,5	4,879850
7,683500	0,5	4,912350
7,691833	0,5	4,954500
7,700167	0,5	4,998300
7,708500	0,5	5,022000
7,716833	0,5	5,007050
7,725167	0,5	4,974900
7,733500	0,5	4,927650
7,741833	0,5	4,877100
7,750167	0,5	4,824200
7,758500	0,5	4,782800
7,766833	0,5	4,767250
7,775167	0,5	4,783100
7,783500	0,5	4,838850
7,791833	0,5	4,936450
7,800167	0,5	5,048350
7,808500	0,5	5,145550
7,816833	0,5	5,187350
7,825167	0,5	5,157250
7,833500	0,5	5,064700
7,841833	0,5	4,927500
7,850167	0,5	4,793300
7,858500	0,5	4,651300
7,866833	0,5	4,532000
7,875167	0,5	4,433700
7,883500	0,5	4,361000
7,891833	0,5	4,316300
7,900167	0,5	4,290200
7,908500	0,5	4,282900
7,916833	0,5	4,301450
7,925167	0,5	4,333900
7,933500	0,5	4,369450
7,941833	0,5	4,396000
7,950167	0,5	4,417350
7,958500	0,5	4,420950
7,966833	0,5	4,411950
7,975167	0,5	4,392750
7,983500	0,5	4,360450
7,991833	0,5	4,315250
8,000167	0,5	4,280050
8,008500	0,5	4,243950
8,016833	0,5	4,224250
8,025167	0,5	4,231100
8,033500	0,5	4,256900
8,041833	0,5	4,309350
8,050167	0,5	4,369500
8,058500	0,5	4,425700
8,066833	0,5	4,442450
8,075167	0,5	4,413000
8,083500	0,5	4,335450
8,091833	0,5	4,243400
8,100167	0,5	4,152200
8,108500	0,5	4,088850
8,116833	0,5	4,043850
8,125167	0,5	4,009550
8,133500	0,5	3,989900
8,141833	0,5	3,979700
8,150167	0,5	3,976000
8,158500	0,5	3,970150
8,166833	0,5	3,971500
8,175167	0,5	3,968400
8,183500	0,5	3,976050
8,191833	0,5	3,974750
8,200167	0,5	3,971800
8,208500	0,5	3,964200
8,216833	0,5	3,957650
8,225167	0,5	3,943150
8,233500	0,5	3,927950
8,241833	0,5	3,911850
8,250167	0,5	3,897100
8,258500	0,5	3,881100
8,266833	0,5	3,873350
8,275167	0,5	3,861150
8,283500	0,5	3,854700
8,291833	0,5	3,850750
8,300167	0,5	3,850900
8,308500	0,5	3,851100
8,316833	0,5	3,859900
8,325167	0,5	3,875300
8,333500	0,5	3,897200
8,341833	0,5	3,920250
8,350167	0,5	3,938950
8,358500	0,5	3,954700
8,366833	0,5	3,961350
8,375167	0,5	3,968800
8,383500	0,5	3,980700
8,391833	0,5	3,996350
8,400167	0,5	4,019950
8,408500	0,5	4,041950
8,416833	0,5	4,062950
8,425167	0,5	4,073150
8,433500	0,5	4,068100
8,441833	0,5	4,064550
8,450167	0,5	4,058350
8,458500	0,5	4,071800
8,466833	0,5	4,126550
8,475167	0,5	4,237800
8,483500	0,5	4,423150
8,491833	0,5	4,653050
8,500167	0,5	4,921600
8,508500	0,5	5,200050
8,516833	0,5	5,492750
8,525167	0,5	5,834350
8,533500	0,5	6,275650
8,541833	0,5	6,899600
8,550167	0,5	7,841750
8,558500	0,5	9,333950
8,566833	0,5	11,717450
8,575167	0,5	15,372600
8,583500	0,5	20,574400
8,591833	0,5	27,186550
8,600167	0,5	34,517801
8,608500	0,5	41,380001
8,616833	0,5	46,434551
8,625167	0,5	48,580051
8,633500	0,5	47,427351
8,641833	0,5	43,335401
8,650167	0,5	37,313601
8,658500	0,5	30,560900
8,666833	0,5	24,135250
8,675167	0,5	18,727900
8,683500	0,5	14,603350
8,691833	0,5	11,729750
8,700167	0,5	9,888850
8,708500	0,5	8,870400
8,716833	0,5	8,541400
8,725167	0,5	8,858600
8,733500	0,5	9,727750
8,741833	0,5	10,868800
8,750167	0,5	11,906250
8,758500	0,5	12,638500
8,766833	0,5	13,160750
8,775167	0,5	13,628550
8,783500	0,5	13,977550
8,791833	0,5	14,054300
8,800167	0,5	13,775650
8,808500	0,5	13,151250
8,816833	0,5	12,271000
8,825167	0,5	11,251800
8,833500	0,5	10,207200
8,841833	0,5	9,244150
8,850167	0,5	8,415300
8,858500	0,5	7,731000
8,866833	0,5	7,178400
8,875167	0,5	6,711350
8,883500	0,5	6,304800
8,891833	0,5	5,942750
8,900167	0,5	5,642250
8,908500	0,5	5,405200
8,916833	0,5	5,243900
8,925167	0,5	5,161700
8,933500	0,5	5,153550
8,941833	0,5	5,224050
8,950167	0,5	5,359900
8,958500	0,5	5,547950
8,966833	0,5	5,748600
8,975167	0,5	5,932600
8,983500	0,5	6,055000
8,991833	0,5	6,082200
9,000167	0,5	6,020650
9,008500	0,5	5,875750
9,016833	0,5	5,675550
9,025167	0,5	5,442700
9,033500	0,5	5,218400
9,041833	0,5	5,008850
9,050167	0,5	4,826600
9,058500	0,5	4,675800
9,066833	0,5	4,550800
9,075167	0,5	4,445500
9,083500	0,5	4,351800
9,091833	0,5	4,268000
9,100167	0,5	4,190350
9,108500	0,5	4,123050
9,116833	0,5	4,064250
9,125167	0,5	4,018450
9,133500	0,5	3,979450
9,141833	0,5	3,953450
9,150167	0,5	3,943350
9,158500	0,5	3,962650
9,166833	0,5	4,000750
9,175167	0,5	4,061750
9,183500	0,5	4,114900
9,191833	0,5	4,135000
9,200167	0,5	4,108600
9,208500	0,5	4,049850
9,216833	0,5	3,977700
9,225167	0,5	3,920000
9,233500	0,5	3,893550
9,241833	0,5	3,906000
9,250167	0,5	3,936850
9,258500	0,5	3,982550
9,266833	0,5	4,027550
9,275167	0,5	4,060900
9,283500	0,5	4,079600
9,291833	0,5	4,088400
9,300167	0,5	4,089550
9,308500	0,5	4,085950
9,316833	0,5	4,078700
9,325167	0,5	4,072900
9,333500	0,5	4,062950
9,341833	0,5	4,053150
9,350167	0,5	4,036400
9,358500	0,5	4,022500
9,366833	0,5	4,021950
9,375167	0,5	4,031800
9,383500	0,5	4,052700
9,391833	0,5	4,089300
9,400167	0,5	4,145350
9,408500	0,5	4,219150
9,416833	0,5	4,316750
9,425167	0,5	4,441050
9,433500	0,5	4,605750
9,441833	0,5	4,812250
9,450167	0,5	5,073250
9,458500	0,5	5,389650
9,466833	0,5	5,743350
9,475167	0,5	6,118750
9,483500	0,5	6,494950
9,491833	0,5	6,856700
9,500167	0,5	7,210350
9,508500	0,5	7,552950
9,516833	0,5	7,888900
9,525167	0,5	8,203900
9,533500	0,5	8,503250
9,541833	0,5	8,767950
9,550167	0,5	8,989150
9,558500	0,5	9,128650
9,566833	0,5	9,139850
9,575167	0,5	8,959050
9,583500	0,5	8,553100
9,591833	0,5	7,912550
9,600167	0,5	7,110350
9,608500	0,5	6,254050
9,616833	0,5	5,472900
9,625167	0,5	4,842200
9,633500	0,5	4,392500
9,641833	0,5	4,099950
9,650167	0,5	3,938450
9,658500	0,5	3,862550
9,666833	0,5	3,835200
9,675167	0,5	3,829500
9,683500	0,5	3,811650
9,691833	0,5	3,778800
9,700167	0,5	3,730400
9,708500	0,5	3,678400
9,716833	0,5	3,625800
9,725167	0,5	3,575800
9,733500	0,5	3,525250
9,741833	0,5	3,470050
9,750167	0,5	3,410950
9,758500	0,5	3,351650
9,766833	0,5	3,309300
9,775167	0,5	3,282800
9,783500	0,5	3,274550
9,791833	0,5	3,274950
9,800167	0,5	3,291150
9,808500	0,5	3,309900
9,816833	0,5	3,336450
9,825167	0,5	3,353100
9,833500	0,5	3,360800
9,841833	0,5	3,356350
9,850167	0,5	3,344550
9,858500	0,5	3,318200
9,866833	0,5	3,290750
9,875167	0,5	3,263400
9,883500	0,5	3,241600
9,891833	0,5	3,226850
9,900167	0,5	3,218200
9,908500	0,5	3,203450
9,916833	0,5	3,187550
9,925167	0,5	3,160350
9,933500	0,5	3,130250
9,941833	0,5	3,106300
9,950167	0,5	3,084250
9,958500	0,5	3,082800
9,966833	0,5	3,089100
9,975167	0,5	3,104600
9,983500	0,5	3,124500
9,991833	0,5	3,152100
10,000167	0,5	3,192050
10,008500	0,5	3,241800
10,016833	0,5	3,298000
10,025167	0,5	3,354100
10,033500	0,5	3,392650
10,041833	0,5	3,410350
10,050167	0,5	3,401850
10,058500	0,5	3,374950
10,066833	0,5	3,328750
10,075167	0,5	3,274600
10,083500	0,5	3,208100
10,091833	0,5	3,133550
10,100167	0,5	3,059050
10,108500	0,5	2,989650
10,116833	0,5	2,931750
10,125167	0,5	2,880600
10,133500	0,5	2,848000
10,141833	0,5	2,819750
10,150167	0,5	2,804400
10,158500	0,5	2,794400
10,166833	0,5	2,793950
10,175167	0,5	2,798850
10,183500	0,5	2,810450
10,191833	0,5	2,826700
10,200167	0,5	2,850950
10,208500	0,5	2,871600
10,216833	0,5	2,889850
10,225167	0,5	2,907250
10,233500	0,5	2,916800
10,241833	0,5	2,920000
10,250167	0,5	2,917600
10,258500	0,5	2,915050
10,266833	0,5	2,908500
10,275167	0,5	2,910750
10,283500	0,5	2,919550
10,291833	0,5	2,953750
10,300167	0,5	3,003550
10,308500	0,5	3,082000
10,316833	0,5	3,173300
10,325167	0,5	3,272250
10,333500	0,5	3,361600
10,341833	0,5	3,423100
10,350167	0,5	3,449850
10,358500	0,5	3,441600
10,366833	0,5	3,410900
10,375167	0,5	3,354700
10,383500	0,5	3,271900
10,391833	0,5	3,169800
10,400167	0,5	3,048500
10,408500	0,5	2,921300
10,416833	0,5	2,797050
10,425167	0,5	2,687250
10,433500	0,5	2,597900
10,441833	0,5	2,543000
10,450167	0,5	2,496800
10,458500	0,5	2,471800
10,466833	0,5	2,458500
10,475167	0,5	2,457500
10,483500	0,5	2,461850
10,491833	0,5	2,479050
10,500167	0,5	2,493900
10,508500	0,5	2,516550
10,516833	0,5	2,539700
10,525167	0,5	2,560850
10,533500	0,5	2,572400
10,541833	0,5	2,575800
10,550167	0,5	2,575100
10,558500	0,5	2,583500
10,566833	0,5	2,600000
10,575167	0,5	2,631650
10,583500	0,5	2,686700
10,591833	0,5	2,739400
10,600167	0,5	2,785000
10,608500	0,5	2,811850
10,616833	0,5	2,812850
10,625167	0,5	2,791700
10,633500	0,5	2,760450
10,641833	0,5	2,735050
10,650167	0,5	2,710050
10,658500	0,5	2,696050
10,666833	0,5	2,680350
10,675167	0,5	2,656450
10,683500	0,5	2,620400
10,691833	0,5	2,579500
10,700167	0,5	2,538350
10,708500	0,5	2,500850
10,716833	0,5	2,469050
10,725167	0,5	2,446500
10,733500	0,5	2,438700
10,741833	0,5	2,440550
10,750167	0,5	2,459100
10,758500	0,5	2,492900
10,766833	0,5	2,540900
10,775167	0,5	2,602700
10,783500	0,5	2,671600
10,791833	0,5	2,747550
10,800167	0,5	2,817550
10,808500	0,5	2,899800
10,816833	0,5	2,962350
10,825167	0,5	3,009950
10,833500	0,5	3,026000
10,841833	0,5	3,001650
10,850167	0,5	2,955050
10,858500	0,5	2,876600
10,866833	0,5	2,786200
10,875167	0,5	2,696250
10,883500	0,5	2,627500
10,891833	0,5	2,573450
10,900167	0,5	2,538750
10,908500	0,5	2,507400
10,916833	0,5	2,482500
10,925167	0,5	2,448150
10,933500	0,5	2,414550
10,941833	0,5	2,378650
10,950167	0,5	2,350000
10,958500	0,5	2,338950
10,966833	0,5	2,339600
10,975167	0,5	2,350700
10,983500	0,5	2,378300
10,991833	0,5	2,417750
11,000167	0,5	2,468450
11,008500	0,5	2,526750
11,016833	0,5	2,592700
11,025167	0,5	2,668350
11,033500	0,5	2,747900
11,041833	0,5	2,827300
11,050167	0,5	2,891650
11,058500	0,5	2,941700
11,066833	0,5	2,975150
11,075167	0,5	3,023950
11,083500	0,5	3,108550
11,091833	0,5	3,260700
11,100167	0,5	3,514850
11,108500	0,5	3,887300
11,116833	0,5	4,333800
11,125167	0,5	4,807850
11,133500	0,5	5,220850
11,141833	0,5	5,511050
11,150167	0,5	5,637650
11,158500	0,5	5,599200
11,166833	0,5	5,422500
11,175167	0,5	5,154950
11,183500	0,5	4,844450
11,191833	0,5	4,531000
11,200167	0,5	4,249650
11,208500	0,5	4,014050
11,216833	0,5	3,841500
11,225167	0,5	3,714700
11,233500	0,5	3,635950
11,241833	0,5	3,571750
11,250167	0,5	3,521000
11,258500	0,5	3,458900
11,266833	0,5	3,373700
11,275167	0,5	3,277750
11,283500	0,5	3,170550
11,291833	0,5	3,070050
11,300167	0,5	2,971000
11,308500	0,5	2,876000
11,316833	0,5	2,782250
11,325167	0,5	2,697650
11,333500	0,5	2,628900
11,341833	0,5	2,571650
11,350167	0,5	2,540500
11,358500	0,5	2,537450
11,366833	0,5	2,560750
11,375167	0,5	2,620450
11,383500	0,5	2,682750
11,391833	0,5	2,752600
11,400167	0,5	2,808150
11,408500	0,5	2,835000
11,416833	0,5	2,824400
11,425167	0,5	2,789200
11,433500	0,5	2,737050
11,441833	0,5	2,692600
11,450167	0,5	2,660900
11,458500	0,5	2,659550
11,466833	0,5	2,699400
11,475167	0,5	2,769850
11,483500	0,5	2,870250
11,491833	0,5	2,997600
11,500167	0,5	3,138700
11,508500	0,5	3,280400
11,516833	0,5	3,401150
11,525167	0,5	3,488100
11,533500	0,5	3,524300
11,541833	0,5	3,500800
11,550167	0,5	3,428650
11,558500	0,5	3,307550
11,566833	0,5	3,155500
11,575167	0,5	2,994700
11,583500	0,5	2,849650
11,591833	0,5	2,715700
11,600167	0,5	2,607950
11,608500	0,5	2,513000
11,616833	0,5	2,446600
11,625167	0,5	2,391650
11,633500	0,5	2,361750
11,641833	0,5	2,341900
11,650167	0,5	2,334700
11,658500	0,5	2,336200
11,666833	0,5	2,336100
11,675167	0,5	2,336950
11,683500	0,5	2,325100
11,691833	0,5	2,316300
11,700167	0,5	2,304150
11,708500	0,5	2,287800
11,716833	0,5	2,266750
11,725167	0,5	2,248350
11,733500	0,5	2,237700
11,741833	0,5	2,231350
11,750167	0,5	2,221750
11,758500	0,5	2,224750
11,766833	0,5	2,229500
11,775167	0,5	2,236650
11,783500	0,5	2,241000
11,791833	0,5	2,243150
11,800167	0,5	2,239200
11,808500	0,5	2,235450
11,816833	0,5	2,229650
11,825167	0,5	2,228750
11,833500	0,5	2,215300
11,841833	0,5	2,218900
11,850167	0,5	2,217850
11,858500	0,5	2,213600
11,866833	0,5	2,200650
11,875167	0,5	2,183000
11,883500	0,5	2,175000
11,891833	0,5	2,150700
11,900167	0,5	2,129200
11,908500	0,5	2,113800
11,916833	0,5	2,104450
11,925167	0,5	2,102650
11,933500	0,5	2,105500
11,941833	0,5	2,110950
11,950167	0,5	2,123400
11,958500	0,5	2,128600
11,966833	0,5	2,145800
11,975167	0,5	2,152550
11,983500	0,5	2,160800
11,991833	0,5	2,169000
12,000167	0,5	2,172700
12,008500	0,5	2,181550
12,016833	0,5	2,173450
12,025167	0,5	2,159450
12,033500	0,5	2,160800
12,041833	0,5	2,196950
12,050167	0,5	2,317500
12,058500	0,5	2,547700
12,066833	0,5	2,873950
12,075167	0,5	3,218050
12,083500	0,5	3,370200
12,091833	0,5	3,407050
12,100167	0,5	3,273500
12,108500	0,5	2,946250
12,116833	0,5	2,467350
12,125167	0,5	2,074250
12,133500	0,5	1,651600
12,141833	0,5	1,310550
12,150167	0,5	1,127750
12,158500	0,5	1,077100
12,166833	0,5	1,115600
12,175167	0,5	1,232550
12,183500	0,5	1,415850
12,191833	0,5	1,641150
12,200167	0,5	1,882100
12,208500	0,5	2,126300
12,216833	0,5	2,347250
12,225167	0,5	2,532150
12,233500	0,5	2,672350
12,241833	0,5	2,763100
12,250167	0,5	2,812750
12,258500	0,5	2,825100
12,266833	0,5	2,822800
12,275167	0,5	2,804400
12,283500	0,5	2,803750
12,291833	0,5	2,801550
12,300167	0,5	2,800450
12,308500	0,5	2,801650
12,316833	0,5	2,804850
12,325167	0,5	2,811900
12,333500	0,5	2,823000
12,341833	0,5	2,826150
12,350167	0,5	2,838500
12,358500	0,5	2,844300
12,366833	0,5	2,849650
12,375167	0,5	2,853900
12,383500	0,5	2,859350
12,391833	0,5	2,862650
12,400167	0,5	2,861600
12,408500	0,5	2,866650
12,416833	0,5	2,864500
12,425167	0,5	2,859100
12,433500	0,5	2,859950
12,441833	0,5	2,860700
12,450167	0,5	2,854050
12,458500	0,5	2,849400
12,466833	0,5	2,836750
12,475167	0,5	2,834600
12,483500	0,5	2,827600
12,491833	0,5	2,820050
12,500167	0,5	2,814050
12,508500	0,5	2,807200
12,516833	0,5	2,800500
12,525167	0,5	2,797650
12,533500	0,5	2,790250
12,541833	0,5	2,782150
12,550167	0,5	2,777650
12,558500	0,5	2,778200
12,566833	0,5	2,766350
12,575167	0,5	2,763450
12,583500	0,5	2,765700
12,591833	0,5	2,758600
12,600167	0,5	2,754450
12,608500	0,5	2,745150
12,616833	0,5	2,745300
12,625167	0,5	2,746900
12,633500	0,5	2,749350
12,641833	0,5	2,752050
12,650167	0,5	2,752600
12,658500	0,5	2,751150
12,666833	0,5	2,759050
12,675167	0,5	2,755550
12,683500	0,5	2,761450
12,691833	0,5	2,761500
12,700167	0,5	2,761950
12,708500	0,5	2,762950
12,716833	0,5	2,756300
12,725167	0,5	2,756450
12,733500	0,5	2,755000
12,741833	0,5	2,750350
12,750167	0,5	2,740700
12,758500	0,5	2,728700
12,766833	0,5	2,719900
12,775167	0,5	2,713300
12,783500	0,5	2,700350
12,791833	0,5	2,690300
12,800167	0,5	2,679500
12,808500	0,5	2,669100
12,816833	0,5	2,654000
12,825167	0,5	2,645100
12,833500	0,5	2,630250
12,841833	0,5	2,622750
12,850167	0,5	2,607900
12,858500	0,5	2,602300
12,866833	0,5	2,585150
12,875167	0,5	2,585050
12,883500	0,5	2,573100
12,891833	0,5	2,565150
12,900167	0,5	2,554700
12,908500	0,5	2,544600
12,916833	0,5	2,542350
12,925167	0,5	2,538950
12,933500	0,5	2,534100
12,941833	0,5	2,527250
12,950167	0,5	2,527350
12,958500	0,5	2,516250
12,966833	0,5	2,514250
12,975167	0,5	2,512400
12,983500	0,5	2,499650
12,991833	0,5	2,494300
13,000167	0,5	2,494450
13,008500	0,5	2,485550
13,016833	0,5	2,472200
13,025167	0,5	2,474250
13,033500	0,5	2,465750
13,041833	0,5	2,458600
13,050167	0,5	2,450950
13,058500	0,5	2,437750
13,066833	0,5	2,433300
13,075167	0,5	2,429850
13,083500	0,5	2,427400
13,091833	0,5	2,422750
13,100167	0,5	2,422600
13,108500	0,5	2,422550
13,116833	0,5	2,423450
13,125167	0,5	2,430150
13,133500	0,5	2,432450
13,141833	0,5	2,438950
13,150167	0,5	2,441900
13,158500	0,5	2,442000
13,166833	0,5	2,440850
13,175167	0,5	2,444350
13,183500	0,5	2,435150
13,191833	0,5	2,422450
13,200167	0,5	2,405550
13,208500	0,5	2,393750
13,216833	0,5	2,379900
13,225167	0,5	2,368450
13,233500	0,5	2,354750
13,241833	0,5	2,344550
13,250167	0,5	2,332800
13,258500	0,5	2,322400
13,266833	0,5	2,313850
13,275167	0,5	2,304050
13,283500	0,5	2,299600
13,291833	0,5	2,298450
13,300167	0,5	2,295300
13,308500	0,5	2,293200
13,316833	0,5	2,307400
13,325167	0,5	2,322650
13,333500	0,5	2,337500
13,341833	0,5	2,355900
13,350167	0,5	2,385850
13,358500	0,5	2,423350
13,366833	0,5	2,466600
13,375167	0,5	2,498350
13,383500	0,5	2,525950
13,391833	0,5	2,536100
13,400167	0,5	2,537000
13,408500	0,5	2,523900
13,416833	0,5	2,503050
13,425167	0,5	2,475350
13,433500	0,5	2,446750
13,441833	0,5	2,418650
13,450167	0,5	2,391150
13,458500	0,5	2,365500
13,466833	0,5	2,355600
13,475167	0,5	2,352400
13,483500	0,5	2,350050
13,491833	0,5	2,356550
13,500167	0,5	2,381000
13,508500	0,5	2,425100
13,516833	0,5	2,458900
13,525167	0,5	2,500300
13,533500	0,5	2,525500
13,541833	0,5	2,543000
13,550167	0,5	2,534950
13,558500	0,5	2,521800
13,566833	0,5	2,491550
13,575167	0,5	2,463500
13,583500	0,5	2,430600
13,591833	0,5	2,410250
13,600167	0,5	2,389350
13,608500	0,5	2,402850
13,616833	0,5	2,417250
13,625167	0,5	2,442700
13,633500	0,5	2,470750
13,641833	0,5	2,487450
13,650167	0,5	2,508750
13,658500	0,5	2,521100
13,666833	0,5	2,524250
13,675167	0,5	2,514750
13,683500	0,5	2,500000
13,691833	0,5	2,480500
13,700167	0,5	2,460000
13,708500	0,5	2,442650
13,716833	0,5	2,432250
13,725167	0,5	2,427650
13,733500	0,5	2,432600
13,741833	0,5	2,432650
13,750167	0,5	2,420600
13,758500	0,5	2,428400
13,766833	0,5	2,425400
13,775167	0,5	2,416750
13,783500	0,5	2,407350
13,791833	0,5	2,389950
13,800167	0,5	2,391600
13,808500	0,5	2,388400
13,816833	0,5	2,387300
13,825167	0,5	2,390100
13,833500	0,5	2,397450
13,841833	0,5	2,411000
13,850167	0,5	2,424900
13,858500	0,5	2,445000
13,866833	0,5	2,456600
13,875167	0,5	2,468350
13,883500	0,5	2,470400
13,891833	0,5	2,472200
13,900167	0,5	2,452850
13,908500	0,5	2,446150
13,916833	0,5	2,428350
13,925167	0,5	2,415300
13,933500	0,5	2,399750
13,941833	0,5	2,393550
13,950167	0,5	2,396300
13,958500	0,5	2,398250
13,966833	0,5	2,401200
13,975167	0,5	2,407150
13,983500	0,5	2,410250
13,991833	0,5	2,426450
14,000167	0,5	2,441800
14,008500	0,5	2,453750
14,016833	0,5	2,463350
14,025167	0,5	2,468200
14,033500	0,5	2,477600
14,041833	0,5	2,470000
14,050167	0,5	2,469100
14,058500	0,5	2,474750
14,066833	0,5	2,469550
14,075167	0,5	2,465050
14,083500	0,5	2,456850
14,091833	0,5	2,451250
14,100167	0,5	2,447500
14,108500	0,5	2,448850
14,116833	0,5	2,449450
14,125167	0,5	2,444850
14,133500	0,5	2,444550
14,141833	0,5	2,443650
14,150167	0,5	2,444650
14,158500	0,5	2,449850
14,166833	0,5	2,447750
14,175167	0,5	2,456750
14,183500	0,5	2,454200
14,191833	0,5	2,448850
14,200167	0,5	2,450750
14,208500	0,5	2,455550
14,216833	0,5	2,450200
14,225167	0,5	2,441350
14,233500	0,5	2,425650
14,241833	0,5	2,419600
14,250167	0,5	2,414650
14,258500	0,5	2,419000
14,266833	0,5	2,416150
14,275167	0,5	2,416200
14,283500	0,5	2,412900
14,291833	0,5	2,413100
14,300167	0,5	2,407600
14,308500	0,5	2,399400
14,316833	0,5	2,392350
14,325167	0,5	2,391550
14,333500	0,5	2,383050
14,341833	0,5	2,377550
14,350167	0,5	2,379700
14,358500	0,5	2,378600
14,366833	0,5	2,371150
14,375167	0,5	2,356100
14,383500	0,5	2,347300
14,391833	0,5	2,343550
14,400167	0,5	2,347950
14,408500	0,5	2,347800
14,416833	0,5	2,345650
14,425167	0,5	2,340450
14,433500	0,5	2,333350
14,441833	0,5	2,327600
14,450167	0,5	2,325000
14,458500	0,5	2,316400
14,466833	0,5	2,316250
14,475167	0,5	2,314700
14,483500	0,5	2,302500
14,491833	0,5	2,299400
14,500167	0,5	2,302400
14,508500	0,5	2,296300
14,516833	0,5	2,283250
14,525167	0,5	2,260950
14,533500	0,5	2,249100
14,541833	0,5	2,243150
14,550167	0,5	2,227900
14,558500	0,5	2,219650
14,566833	0,5	2,211000
14,575167	0,5	2,208650
14,583500	0,5	2,197250
14,591833	0,5	2,190700
14,600167	0,5	2,174700
14,608500	0,5	2,163850
14,616833	0,5	2,152100
14,625167	0,5	2,149350
14,633500	0,5	2,122400
14,641833	0,5	2,122050
14,650167	0,5	2,113250
14,658500	0,5	2,105700
14,666833	0,5	2,092250
14,675167	0,5	2,070550
14,683500	0,5	2,071400
14,691833	0,5	2,069650
14,700167	0,5	2,060400
14,708500	0,5	2,048700
14,716833	0,5	2,044900
14,725167	0,5	2,033850
14,733500	0,5	2,031800
14,741833	0,5	2,024300
14,750167	0,5	2,020000
14,758500	0,5	2,008300
14,766833	0,5	2,008050
14,775167	0,5	1,999350
14,783500	0,5	1,981500
14,791833	0,5	1,983200
14,800167	0,5	1,974650
14,808500	0,5	1,959000
14,816833	0,5	1,949850
14,825167	0,5	1,931400
14,833500	0,5	1,934850
14,841833	0,5	1,931650
14,850167	0,5	1,926650
14,858500	0,5	1,921800
14,866833	0,5	1,915000
14,875167	0,5	1,915050
14,883500	0,5	1,908800
14,891833	0,5	1,910850
14,900167	0,5	1,905650
14,908500	0,5	1,902500
14,916833	0,5	1,903050
14,925167	0,5	1,898100
14,933500	0,5	1,891250
14,941833	0,5	1,906100
14,950167	0,5	1,908100
14,958500	0,5	1,910250
14,966833	0,5	1,901550
14,975167	0,5	1,892850
14,983500	0,5	1,901600
14,991833	0,5	1,906750
15,000167	0,5	1,902000
15,008500	0,5	1,902200
15,016833	0,5	1,896200
15,025167	0,5	1,892000
15,033500	0,5	1,889100
15,041833	0,5	1,880050
15,050167	0,5	1,879550
15,058500	0,5	1,883400
15,066833	0,5	1,894350
15,075167	0,5	1,889900
15,083500	0,5	1,899600
15,091833	0,5	1,911550
15,100167	0,5	1,908000
15,108500	0,5	1,898350
15,116833	0,5	1,878400
15,125167	0,5	1,864300
15,133500	0,5	1,860400
15,141833	0,5	1,856450
15,150167	0,5	1,865500
15,158500	0,5	1,876700
15,166833	0,5	1,894900
15,175167	0,5	1,915700
15,183500	0,5	1,931050
15,191833	0,5	1,928950
15,200167	0,5	1,910100
15,208500	0,5	1,890250
15,216833	0,5	1,860000
15,225167	0,5	1,826250
15,233500	0,5	1,813850
15,241833	0,5	1,802750
15,250167	0,5	1,783600
15,258500	0,5	1,759400
15,266833	0,5	1,723100
15,275167	0,5	1,701350
15,283500	0,5	1,680050
15,291833	0,5	1,664450
15,300167	0,5	1,650750
15,308500	0,5	1,642250
15,316833	0,5	1,624000
15,325167	0,5	1,613150
15,333500	0,5	1,599050
15,341833	0,5	1,586450
15,350167	0,5	1,576500
15,358500	0,5	1,566950
15,366833	0,5	1,545450
15,375167	0,5	1,535350
15,383500	0,5	1,531300
15,391833	0,5	1,520700
15,400167	0,5	1,510350
15,408500	0,5	1,496650
15,416833	0,5	1,498400
15,425167	0,5	1,496050
15,433500	0,5	1,505300
15,441833	0,5	1,500600
15,450167	0,5	1,498550
15,458500	0,5	1,489500
15,466833	0,5	1,481700
15,475167	0,5	1,474250
15,483500	0,5	1,470050
15,491833	0,5	1,466500
15,500167	0,5	1,459200
15,508500	0,5	1,457850
15,516833	0,5	1,434250
15,525167	0,5	1,434600
15,533500	0,5	1,431700
15,541833	0,5	1,419600
15,550167	0,5	1,402350
15,558500	0,5	1,376850
15,566833	0,5	1,370200
15,575167	0,5	1,364950
15,583500	0,5	1,352450
15,591833	0,5	1,342900
15,600167	0,5	1,333050
15,608500	0,5	1,331450
15,616833	0,5	1,323000
15,625167	0,5	1,317600
15,633500	0,5	1,306150
15,641833	0,5	1,299600
15,650167	0,5	1,300700
15,658500	0,5	1,297300
15,666833	0,5	1,270250
15,675167	0,5	1,283400
15,683500	0,5	1,272450
15,691833	0,5	1,263250
15,700167	0,5	1,252450
15,708500	0,5	1,234000
15,716833	0,5	1,240350
15,725167	0,5	1,235100
15,733500	0,5	1,227850
15,741833	0,5	1,225900
15,750167	0,5	1,224150
15,758500	0,5	1,218250
15,766833	0,5	1,226300
15,775167	0,5	1,227150
15,783500	0,5	1,234300
15,791833	0,5	1,231300
15,800167	0,5	1,241850
15,808500	0,5	1,234200
15,816833	0,5	1,218850
15,825167	0,5	1,218750
15,833500	0,5	1,206100
15,841833	0,5	1,190150
15,850167	0,5	1,176600
15,858500	0,5	1,157650
15,866833	0,5	1,157450
15,875167	0,5	1,152200
15,883500	0,5	1,148650
15,891833	0,5	1,145500
15,900167	0,5	1,146150
15,908500	0,5	1,145950
15,916833	0,5	1,142900
15,925167	0,5	1,138650
15,933500	0,5	1,125050
15,941833	0,5	1,116950
15,950167	0,5	1,106400
15,958500	0,5	1,086750
15,966833	0,5	1,070250
15,975167	0,5	1,071600
15,983500	0,5	1,059150
15,991833	0,5	1,050150
16,000167	0,5	1,028900
16,008500	0,5	1,021550
16,016833	0,5	1,020300
16,025167	0,5	1,024000
16,033500	0,5	1,016050
16,041833	0,5	1,014850
16,050167	0,5	1,007750
16,058500	0,5	1,004700
16,066833	0,5	1,003700
16,075167	0,5	0,991600
16,083500	0,5	0,988800
16,091833	0,5	0,983650
16,100167	0,5	0,981450
16,108500	0,5	0,969400
16,116833	0,5	0,971750
16,125167	0,5	0,971950
16,133500	0,5	0,967300
16,141833	0,5	0,953050
16,150167	0,5	0,945100
16,158500	0,5	0,940850
16,166833	0,5	0,949700
16,175167	0,5	0,942900
16,183500	0,5	0,946600
16,191833	0,5	0,942150
16,200167	0,5	0,940350
16,208500	0,5	0,934650
16,216833	0,5	0,931850
16,225167	0,5	0,927450
16,233500	0,5	0,920450
16,241833	0,5	0,923250
16,250167	0,5	0,914550
16,258500	0,5	0,901100
16,266833	0,5	0,903450
16,275167	0,5	0,900700
16,283500	0,5	0,889100
16,291833	0,5	0,870700
16,300167	0,5	0,858450
16,308500	0,5	0,858450
16,316833	0,5	0,848950
16,325167	0,5	0,849800
16,333500	0,5	0,844400
16,341833	0,5	0,844000
16,350167	0,5	0,838450
16,358500	0,5	0,840000
16,366833	0,5	0,834150
16,375167	0,5	0,824400
16,383500	0,5	0,825550
16,391833	0,5	0,820850
16,400167	0,5	0,793500
16,408500	0,5	0,790600
16,416833	0,5	0,785000
16,425167	0,5	0,770550
16,433500	0,5	0,761850
16,441833	0,5	0,732350
16,450167	0,5	0,729100
16,458500	0,5	0,721800
16,466833	0,5	0,720550
16,475167	0,5	0,711450
16,483500	0,5	0,708850
16,491833	0,5	0,698850
16,500167	0,5	0,697100
16,508500	0,5	0,689000
16,516833	0,5	0,686300
16,525167	0,5	0,681800
16,533500	0,5	0,682750
16,541833	0,5	0,679900
16,550167	0,5	0,662850
16,558500	0,5	0,667150
16,566833	0,5	0,668350
16,575167	0,5	0,660200
16,583500	0,5	0,652950
16,591833	0,5	0,639050
16,600167	0,5	0,639450
16,608500	0,5	0,641900
16,616833	0,5	0,635450
16,625167	0,5	0,632650
16,633500	0,5	0,629350
16,641833	0,5	0,633850
16,650167	0,5	0,627800
16,658500	0,5	0,630800
16,666833	0,5	0,625850
16,675167	0,5	0,625700
16,683500	0,5	0,623250
16,691833	0,5	0,626850
16,700167	0,5	0,611400
16,708500	0,5	0,629050
16,716833	0,5	0,625600
16,725167	0,5	0,622300
16,733500	0,5	0,609150
16,741833	0,5	0,598400
16,750167	0,5	0,607350
16,758500	0,5	0,603800
16,766833	0,5	0,601850
16,775167	0,5	0,596100
16,783500	0,5	0,599800
16,791833	0,5	0,596150
16,800167	0,5	0,603300
16,808500	0,5	0,602500
16,816833	0,5	0,613300
16,825167	0,5	0,615850
16,833500	0,5	0,638400
16,841833	0,5	0,636200
16,850167	0,5	0,650900
16,858500	0,5	0,673350
16,866833	0,5	0,687550
16,875167	0,5	0,695000
16,883500	0,5	0,700900
16,891833	0,5	0,708400
16,900167	0,5	0,719350
16,908500	0,5	0,725950
16,916833	0,5	0,728300
16,925167	0,5	0,726500
16,933500	0,5	0,730650
16,941833	0,5	0,734900
16,950167	0,5	0,739300
16,958500	0,5	0,752150
16,966833	0,5	0,756550
16,975167	0,5	0,772850
16,983500	0,5	0,787750
16,991833	0,5	0,795150
17,000167	0,5	0,817850
17,008500	0,5	0,829950
17,016833	0,5	0,827800
17,025167	0,5	0,817400
17,033500	0,5	0,794100
17,041833	0,5	0,787800
17,050167	0,5	0,783800
17,058500	0,5	0,785000
17,066833	0,5	0,777500
17,075167	0,5	0,779950
17,083500	0,5	0,782750
17,091833	0,5	0,786350
17,100167	0,5	0,791050
17,108500	0,5	0,790450
17,116833	0,5	0,788850
17,125167	0,5	0,787600
17,133500	0,5	0,780300
17,141833	0,5	0,776150
17,150167	0,5	0,783750
17,158500	0,5	0,776100
17,166833	0,5	0,761400
17,175167	0,5	0,742950
17,183500	0,5	0,728900
17,191833	0,5	0,715100
17,200167	0,5	0,712100
17,208500	0,5	0,695350
17,216833	0,5	0,687650
17,225167	0,5	0,674500
17,233500	0,5	0,669600
17,241833	0,5	0,660250
17,250167	0,5	0,648050
17,258500	0,5	0,641400
17,266833	0,5	0,635450
17,275167	0,5	0,631100
17,283500	0,5	0,611450
17,291833	0,5	0,610700
17,300167	0,5	0,610850
17,308500	0,5	0,604200
17,316833	0,5	0,596050
17,325167	0,5	0,577750
17,333500	0,5	0,571600
17,341833	0,5	0,579400
17,350167	0,5	0,572550
17,358500	0,5	0,578050
17,366833	0,5	0,570300
17,375167	0,5	0,575850
17,383500	0,5	0,575900
17,391833	0,5	0,573950
17,400167	0,5	0,566050
17,408500	0,5	0,553600
17,416833	0,5	0,553100
17,425167	0,5	0,540550
17,433500	0,5	0,512850
17,441833	0,5	0,510550
17,450167	0,5	0,497650
17,458500	0,5	0,476250
17,466833	0,5	0,459300
17,475167	0,5	0,431950
17,483500	0,5	0,425100
17,491833	0,5	0,414150
17,500167	0,5	0,407800
17,508500	0,5	0,398050
17,516833	0,5	0,399100
17,525167	0,5	0,393900
17,533500	0,5	0,403700
17,541833	0,5	0,409350
17,550167	0,5	0,424550
17,558500	0,5	0,438200
17,566833	0,5	0,457900
17,575167	0,5	0,458000
17,583500	0,5	0,460400
17,591833	0,5	0,471750
17,600167	0,5	0,467950
17,608500	0,5	0,463750
17,616833	0,5	0,444050
17,625167	0,5	0,429400
17,633500	0,5	0,414650
17,641833	0,5	0,393900
17,650167	0,5	0,359400
17,658500	0,5	0,327550
17,666833	0,5	0,293500
17,675167	0,5	0,268450
17,683500	0,5	0,239150
17,691833	0,5	0,220550
17,700167	0,5	0,198350
17,708500	0,5	0,184850
17,716833	0,5	0,181500
17,725167	0,5	0,159450
17,733500	0,5	0,155500
17,741833	0,5	0,157150
17,750167	0,5	0,146500
17,758500	0,5	0,135400
17,766833	0,5	0,115850
17,775167	0,5	0,106150
17,783500	0,5	0,108350
17,791833	0,5	0,100600
17,800167	0,5	0,096750
17,808500	0,5	0,087400
17,816833	0,5	0,084400
17,825167	0,5	0,075350
17,833500	0,5	0,077500
17,841833	0,5	0,064700
17,850167	0,5	0,058650
17,858500	0,5	0,058650
17,866833	0,5	0,057100
17,875167	0,5	0,036300
17,883500	0,5	0,042750
17,891833	0,5	0,036600
17,900167	0,5	0,030650
17,908500	0,5	0,018050
17,916833	0,5	-0,001350
17,925167	0,5	0,005150
17,933500	0,5	0,004050
17,941833	0,5	0,000700
17,950167	0,5	-0,003650
17,958500	0,5	-0,006450
17,966833	0,5	-0,013850
17,975167	0,5	-0,018050
17,983500	0,5	-0,030300
17,991833	0,5	-0,037850
18,000167	0,5	-0,047900
18,008500	0,5	-0,049100
18,016833	0,5	-0,063350
18,025167	0,5	-0,077200
18,033500	0,5	-0,073000
18,041833	0,5	-0,084150
18,050167	0,5	-0,096800
18,058500	0,5	-0,115650
18,066833	0,5	-0,138950
18,075167	0,5	-0,138000
18,083500	0,5	-0,141150
18,091833	0,5	-0,149750
18,100167	0,5	-0,160000
18,108500	0,5	-0,163250
18,116833	0,5	-0,168000
18,125167	0,5	-0,175200
18,133500	0,5	-0,180800
18,141833	0,5	-0,193700
18,150167	0,5	-0,190150
18,158500	0,5	-0,195400
18,166833	0,5	-0,207250
18,175167	0,5	-0,218600
18,183500	0,5	-0,216300
18,191833	0,5	-0,227400
18,200167	0,5	-0,237500
18,208500	0,5	-0,260500
18,216833	0,5	-0,272100
18,225167	0,5	-0,274000
18,233500	0,5	-0,274300
18,241833	0,5	-0,282800
18,250167	0,5	-0,291100
18,258500	0,5	-0,295400
18,266833	0,5	-0,303600
18,275167	0,5	-0,299700
18,283500	0,5	-0,312350
18,291833	0,5	-0,317100
18,300167	0,5	-0,315550
18,308500	0,5	-0,325650
18,316833	0,5	-0,342000
18,325167	0,5	-0,335000
18,333500	0,5	-0,339150
18,341833	0,5	-0,348850
18,350167	0,5	-0,360850
18,358500	0,5	-0,375700
18,366833	0,5	-0,379850
18,375167	0,5	-0,379300
18,383500	0,5	-0,388750
18,391833	0,5	-0,383600
18,400167	0,5	-0,389950
18,408500	0,5	-0,387950
18,416833	0,5	-0,388700
18,425167	0,5	-0,392250
18,433500	0,5	-0,395500
18,441833	0,5	-0,399200
18,450167	0,5	-0,393000
18,458500	0,5	-0,403350
18,466833	0,5	-0,406650
18,475167	0,5	-0,396050
18,483500	0,5	-0,392800
18,491833	0,5	-0,400450
18,500167	0,5	-0,404700
18,508500	0,5	-0,407650
18,516833	0,5	-0,392650
18,525167	0,5	-0,389000
18,533500	0,5	-0,379050
18,541833	0,5	-0,379550
18,550167	0,5	-0,366550
18,558500	0,5	-0,359450
18,566833	0,5	-0,349800
18,575167	0,5	-0,339300
18,583500	0,5	-0,332650
18,591833	0,5	-0,322450
18,600167	0,5	-0,307850
18,608500	0,5	-0,319800
18,616833	0,5	-0,305350
18,625167	0,5	-0,295200
18,633500	0,5	-0,293450
18,641833	0,5	-0,300700
18,650167	0,5	-0,323850
18,658500	0,5	-0,314300
18,666833	0,5	-0,321300
18,675167	0,5	-0,324450
18,683500	0,5	-0,335650
18,691833	0,5	-0,342000
18,700167	0,5	-0,352950
18,708500	0,5	-0,353800
18,716833	0,5	-0,363150
18,725167	0,5	-0,368600
18,733500	0,5	-0,381550
18,741833	0,5	-0,396650
18,750167	0,5	-0,400150
18,758500	0,5	-0,426700
18,766833	0,5	-0,420900
18,775167	0,5	-0,432500
18,783500	0,5	-0,442600
18,791833	0,5	-0,465950
18,800167	0,5	-0,486950
18,808500	0,5	-0,493550
18,816833	0,5	-0,495250
18,825167	0,5	-0,508550
18,833500	0,5	-0,506200
18,841833	0,5	-0,518400
18,850167	0,5	-0,519050
18,858500	0,5	-0,528200
18,866833	0,5	-0,528000
18,875167	0,5	-0,538850
18,883500	0,5	-0,537950
18,891833	0,5	-0,538150
18,900167	0,5	-0,540350
18,908500	0,5	-0,540850
18,916833	0,5	-0,527300
18,925167	0,5	-0,525750
18,933500	0,5	-0,527800
18,941833	0,5	-0,540150
18,950167	0,5	-0,550500
18,958500	0,5	-0,540050
18,966833	0,5	-0,544900
18,975167	0,5	-0,547050
18,983500	0,5	-0,558750
18,991833	0,5	-0,560500
19,000167	0,5	-0,568200
19,008500	0,5	-0,579250
19,016833	0,5	-0,592350
19,025167	0,5	-0,601100
19,033500	0,5	-0,604900
19,041833	0,5	-0,608000
19,050167	0,5	-0,626450
19,058500	0,5	-0,631550
19,066833	0,5	-0,634550
19,075167	0,5	-0,642500
19,083500	0,5	-0,656950
19,091833	0,5	-0,681350
19,100167	0,5	-0,692550
19,108500	0,5	-0,699150
19,116833	0,5	-0,701350
19,125167	0,5	-0,707500
19,133500	0,5	-0,708200
19,141833	0,5	-0,714500
19,150167	0,5	-0,712100
19,158500	0,5	-0,717450
19,166833	0,5	-0,713900
19,175167	0,5	-0,724200
19,183500	0,5	-0,712550
19,191833	0,5	-0,722750
19,200167	0,5	-0,726550
19,208500	0,5	-0,725000
19,216833	0,5	-0,723650
19,225167	0,5	-0,728250
19,233500	0,5	-0,739550
19,241833	0,5	-0,750250
19,250167	0,5	-0,753400
19,258500	0,5	-0,756400
19,266833	0,5	-0,764400
19,275167	0,5	-0,777500
19,283500	0,5	-0,786650
19,291833	0,5	-0,796650
19,300167	0,5	-0,812200
19,308500	0,5	-0,814850
19,316833	0,5	-0,820550
19,325167	0,5	-0,822100
19,333500	0,5	-0,825650
19,341833	0,5	-0,843200
19,350167	0,5	-0,844200
19,358500	0,5	-0,832800
19,366833	0,5	-0,837250
19,375167	0,5	-0,841050
19,383500	0,5	-0,856250
19,391833	0,5	-0,854900
19,400167	0,5	-0,849250
19,408500	0,5	-0,842800
19,416833	0,5	-0,835450
19,425167	0,5	-0,822050
19,433500	0,5	-0,811700
19,441833	0,5	-0,802250
19,450167	0,5	-0,803250
19,458500	0,5	-0,821400
19,466833	0,5	-0,842000
19,475167	0,5	-0,864900
19,483500	0,5	-0,880650
19,491833	0,5	-0,921800
19,500167	0,5	-0,921050
19,508500	0,5	-0,930450
19,516833	0,5	-0,940900
19,525167	0,5	-0,957450
19,533500	0,5	-0,978900
19,541833	0,5	-0,979150
19,550167	0,5	-0,981700
19,558500	0,5	-0,991150
19,566833	0,5	-0,995250
19,575167	0,5	-1,001100
19,583500	0,5	-1,006200
19,591833	0,5	-1,009950
19,600167	0,5	-1,017750
19,608500	0,5	-1,018450
19,616833	0,5	-1,028650
19,625167	0,5	-1,018550
19,633500	0,5	-1,028600
19,641833	0,5	-1,045400
19,650167	0,5	-1,035700
19,658500	0,5	-1,037950
19,666833	0,5	-1,050050
19,675167	0,5	-1,054050
19,683500	0,5	-1,064100
19,691833	0,5	-1,048900
19,700167	0,5	-1,047450
19,708500	0,5	-1,037550
19,716833	0,5	-1,025950
19,725167	0,5	-1,011300
19,733500	0,5	-1,000850
19,741833	0,5	-0,988750
19,750167	0,5	-0,980250
19,758500	0,5	-0,975100
19,766833	0,5	-0,965950
19,775167	0,5	-0,953050
19,783500	0,5	-0,963100
19,791833	0,5	-0,964200
19,800167	0,5	-0,973150
19,808500	0,5	-0,993200
19,816833	0,5	-1,030300
19,825167	0,5	-1,078250
19,833500	0,5	-1,103300
19,841833	0,5	-1,120550
19,850167	0,5	-1,129000
19,858500	0,5	-1,143450
19,866833	0,5	-1,146550
19,875167	0,5	-1,152800
19,883500	0,5	-1,154000
19,891833	0,5	-1,155150
19,900167	0,5	-1,158650
19,908500	0,5	-1,159150
19,916833	0,5	-1,158300
19,925167	0,5	-1,151300
19,933500	0,5	-1,159450
19,941833	0,5	-1,147700
19,950167	0,5	-1,143050
19,958500	0,5	-1,141300
19,966833	0,5	-1,149350
19,975167	0,5	-1,150000
19,983500	0,5	-1,141050
19,991833	0,5	-1,121550
20,000167	0,5	-1,121550
20,008500	0,5	-1,117600
20,016833	0,5	-1,135500
20,025167	0,5	-1,151950
20,033500	0,5	-1,169100
20,041833	0,5	-1,182700
20,050167	0,5	-1,190050
20,058500	0,5	-1,195750
20,066833	0,5	-1,193900
20,075167	0,5	-1,200400
20,083500	0,5	-1,207450
20,091833	0,5	-1,200400
20,100167	0,5	-1,205950
20,108500	0,5	-1,213600
20,116833	0,5	-1,227350
20,125167	0,5	-1,236000
20,133500	0,5	-1,232000
20,141833	0,5	-1,237150
20,150167	0,5	-1,232850
20,158500	0,5	-1,235200
20,166833	0,5	-1,224300
20,175167	0,5	-1,226550
20,183500	0,5	-1,215500
20,191833	0,5	-1,209650
20,200167	0,5	-1,198200
20,208500	0,5	-1,170550
20,216833	0,5	-1,150800
20,225167	0,5	-1,152100
20,233500	0,5	-1,130350
20,241833	0,5	-1,106800
20,250167	0,5	-1,095750
20,258500	0,5	-1,086050
20,266833	0,5	-1,110400
20,275167	0,5	-1,125700
20,283500	0,5	-1,153900
20,291833	0,5	-1,185450
20,300167	0,5	-1,221350
20,308500	0,5	-1,235000
20,316833	0,5	-1,251400
20,325167	0,5	-1,252750
20,333500	0,5	-1,254550
20,341833	0,5	-1,251150
20,350167	0,5	-1,247150
20,358500	0,5	-1,228550
20,366833	0,5	-1,220600
20,375167	0,5	-1,222650
20,383500	0,5	-1,208700
20,391833	0,5	-1,195750
20,400167	0,5	-1,186550
20,408500	0,5	-1,176850
20,416833	0,5	-1,161950
20,425167	0,5	-1,144750
20,433500	0,5	-1,125300
20,441833	0,5	-1,132750
20,450167	0,5	-1,135450
20,458500	0,5	-1,151900
20,466833	0,5	-1,160600
20,475167	0,5	-1,176700
20,483500	0,5	-1,184850
20,491833	0,5	-1,206350
20,500167	0,5	-1,210500
20,508500	0,5	-1,206800
20,516833	0,5	-1,224150
20,525167	0,5	-1,235900
20,533500	0,5	-1,234200
20,541833	0,5	-1,232950
20,550167	0,5	-1,239600
20,558500	0,5	-1,258000
20,566833	0,5	-1,256850
20,575167	0,5	-1,248300
20,583500	0,5	-1,253050
20,591833	0,5	-1,246800
20,600167	0,5	-1,243600
20,608500	0,5	-1,226950
20,616833	0,5	-1,217850
20,625167	0,5	-1,207150
20,633500	0,5	-1,205600
20,641833	0,5	-1,215300
20,650167	0,5	-1,215250
20,658500	0,5	-1,224650
20,666833	0,5	-1,253250
20,675167	0,5	-1,253250
20,683500	0,5	-1,266150
20,691833	0,5	-1,274800
20,700167	0,5	-1,292350
20,708500	0,5	-1,306300
20,716833	0,5	-1,284100
20,725167	0,5	-1,284550
20,733500	0,5	-1,276450
20,741833	0,5	-1,280600
20,750167	0,5	-1,276400
20,758500	0,5	-1,290400
20,766833	0,5	-1,285000
20,775167	0,5	-1,292300
20,783500	0,5	-1,294050
20,791833	0,5	-1,288150
20,800167	0,5	-1,264300
20,808500	0,5	-1,255500
20,816833	0,5	-1,261100
20,825167	0,5	-1,256750
20,833500	0,5	-1,259400
20,841833	0,5	-1,267650
20,850167	0,5	-1,283300
20,858500	0,5	-1,292800
20,866833	0,5	-1,290950
20,875167	0,5	-1,281200
20,883500	0,5	-1,277600
20,891833	0,5	-1,268200
20,900167	0,5	-1,265400
20,908500	0,5	-1,258750
20,916833	0,5	-1,265050
20,925167	0,5	-1,267800
20,933500	0,5	-1,277500
20,941833	0,5	-1,259000
20,950167	0,5	-1,250450
20,958500	0,5	-1,250550
20,966833	0,5	-1,262000
20,975167	0,5	-1,260600
20,983500	0,5	-1,273800
20,991833	0,5	-1,282900
21,000167	0,5	-1,298950
21,008500	0,5	-1,303700
21,016833	0,5	-1,294400
21,025167	0,5	-1,294000
21,033500	0,5	-1,288250
21,041833	0,5	-1,286550
21,050167	0,5	-1,277650
21,058500	0,5	-1,277400
21,066833	0,5	-1,268100
21,075167	0,5	-1,267350
21,083500	0,5	-1,256300
21,091833	0,5	-1,239050
21,100167	0,5	-1,232200
21,108500	0,5	-1,241850
21,116833	0,5	-1,243150
21,125167	0,5	-1,251550
21,133500	0,5	-1,254550
21,141833	0,5	-1,274200
21,150167	0,5	-1,277400
21,158500	0,5	-1,272800
21,166833	0,5	-1,270750
21,175167	0,5	-1,262450
21,183500	0,5	-1,260150
21,191833	0,5	-1,247600
21,200167	0,5	-1,247650
21,208500	0,5	-1,236000
21,216833	0,5	-1,233450
21,225167	0,5	-1,226450
21,233500	0,5	-1,210200
21,241833	0,5	-1,191500
21,250167	0,5	-1,193550
21,258500	0,5	-1,197950
21,266833	0,5	-1,198900
21,275167	0,5	-1,208100
21,283500	0,5	-1,215400
21,291833	0,5	-1,228100
21,300167	0,5	-1,225000
21,308500	0,5	-1,218900
21,316833	0,5	-1,212050
21,325167	0,5	-1,204650
21,333500	0,5	-1,198250
21,341833	0,5	-1,195100
21,350167	0,5	-1,181400
21,358500	0,5	-1,178050
21,366833	0,5	-1,166450
21,375167	0,5	-1,159550
21,383500	0,5	-1,126200
21,391833	0,5	-1,108650
21,400167	0,5	-1,116900
21,408500	0,5	-1,118300
21,416833	0,5	-1,116800
21,425167	0,5	-1,122850
21,433500	0,5	-1,129150
21,441833	0,5	-1,125100
21,450167	0,5	-1,116350
21,458500	0,5	-1,108100
21,466833	0,5	-1,102550
21,475167	0,5	-1,091400
21,483500	0,5	-1,075500
21,491833	0,5	-1,056550
21,500167	0,5	-1,042200
21,508500	0,5	-1,016150
21,516833	0,5	-0,993400
21,525167	0,5	-0,948800
21,533500	0,5	-0,894400
21,541833	0,5	-0,861900
21,550167	0,5	-0,855600
21,558500	0,5	-0,856150
21,566833	0,5	-0,874250
21,575167	0,5	-0,895400
21,583500	0,5	-0,923350
21,591833	0,5	-0,918800
21,600167	0,5	-0,907650
21,608500	0,5	-0,900850
21,616833	0,5	-0,889350
21,625167	0,5	-0,880450
21,633500	0,5	-0,874700
21,641833	0,5	-0,869300
21,650167	0,5	-0,862700
21,658500	0,5	-0,862900
21,666833	0,5	-0,846000
21,675167	0,5	-0,816500
21,683500	0,5	-0,792500
21,691833	0,5	-0,789600
21,700167	0,5	-0,770900
21,708500	0,5	-0,764650
21,716833	0,5	-0,757250
21,725167	0,5	-0,749250
21,733500	0,5	-0,747850
21,741833	0,5	-0,716300
21,750167	0,5	-0,699650
21,758500	0,5	-0,682800
21,766833	0,5	-0,662050
21,775167	0,5	-0,638100
21,783500	0,5	-0,617700
21,791833	0,5	-0,589200
21,800167	0,5	-0,568250
21,808500	0,5	-0,536300
21,816833	0,5	-0,509050
21,825167	0,5	-0,471750
21,833500	0,5	-0,467850
21,841833	0,5	-0,472450
21,850167	0,5	-0,467250
21,858500	0,5	-0,469650
21,866833	0,5	-0,469350
21,875167	0,5	-0,463550
21,883500	0,5	-0,450950
21,891833	0,5	-0,427500
21,900167	0,5	-0,403700
21,908500	0,5	-0,380650
21,916833	0,5	-0,361050
21,925167	0,5	-0,336750
21,933500	0,5	-0,310750
21,941833	0,5	-0,293750
21,950167	0,5	-0,272550
21,958500	0,5	-0,252350
21,966833	0,5	-0,213200
21,975167	0,5	-0,187600
21,983500	0,5	-0,172100
21,991833	0,5	-0,150050
22,000167	0,5	-0,126300
22,008500	0,5	-0,103900
22,016833	0,5	-0,094800
22,025167	0,5	-0,078200
22,033500	0,5	-0,055250
22,041833	0,5	-0,021450
22,050167	0,5	0,008050
22,058500	0,5	0,037000
22,066833	0,5	0,071200
22,075167	0,5	0,111700
22,083500	0,5	0,149350
22,091833	0,5	0,188300
22,100167	0,5	0,219300
22,108500	0,5	0,259800
22,116833	0,5	0,295150
22,125167	0,5	0,318050
22,133500	0,5	0,346800
22,141833	0,5	0,385000
22,150167	0,5	0,407700
22,158500	0,5	0,434500
22,166833	0,5	0,451800
22,175167	0,5	0,479900
22,183500	0,5	0,524300
22,191833	0,5	0,561800
22,200167	0,5	0,606350
22,208500	0,5	0,651050
22,216833	0,5	0,694550
22,225167	0,5	0,735650
22,233500	0,5	0,786500
22,241833	0,5	0,830800
22,250167	0,5	0,880900
22,258500	0,5	0,922100
22,266833	0,5	0,962900
22,275167	0,5	0,984800
22,283500	0,5	1,036300
22,291833	0,5	1,074300
22,300167	0,5	1,112550
22,308500	0,5	1,150500
22,316833	0,5	1,191950
22,325167	0,5	1,252250
22,333500	0,5	1,305100
22,341833	0,5	1,364500
22,350167	0,5	1,418750
22,358500	0,5	1,481750
22,366833	0,5	1,531200
22,375167	0,5	1,585400
22,383500	0,5	1,635700
22,391833	0,5	1,693650
22,400167	0,5	1,742600
22,408500	0,5	1,790250
22,416833	0,5	1,835550
22,425167	0,5	1,921850
22,433500	0,5	1,988250
22,441833	0,5	2,056500
22,450167	0,5	2,118800
22,458500	0,5	2,171800
22,466833	0,5	2,243650
22,475167	0,5	2,311200
22,483500	0,5	2,376750
22,491833	0,5	2,433750
22,500167	0,5	2,494750
22,508500	0,5	2,552550
22,516833	0,5	2,627600
22,525167	0,5	2,692700
22,533500	0,5	2,763300
22,541833	0,5	2,832700
22,550167	0,5	2,877750
22,558500	0,5	2,939100
22,566833	0,5	3,001200
22,575167	0,5	3,081850
22,583500	0,5	3,136600
22,591833	0,5	3,178400
22,600167	0,5	3,216600
22,608500	0,5	3,240900
22,616833	0,5	3,286700
22,625167	0,5	3,325200
22,633500	0,5	3,351200
22,641833	0,5	3,375400
22,650167	0,5	3,396550
22,658500	0,5	3,409450
22,666833	0,5	3,417350
22,675167	0,5	3,429100
22,683500	0,5	3,419900
22,691833	0,5	3,414850
22,700167	0,5	3,345950
22,708500	0,5	3,343500
22,716833	0,5	3,310450
22,725167	0,5	3,278900
22,733500	0,5	3,211450
22,741833	0,5	3,134150
22,750167	0,5	3,043300
22,758500	0,5	2,949000
22,766833	0,5	2,872250
22,775167	0,5	2,783350
22,783500	0,5	2,683500
22,791833	0,5	2,582100
22,800167	0,5	2,475350
22,808500	0,5	2,364900
22,816833	0,5	2,245350
22,825167	0,5	2,115850
22,833500	0,5	1,978750
22,841833	0,5	1,821000
22,850167	0,5	1,654300
22,858500	0,5	1,508650
22,866833	0,5	1,372900
22,875167	0,5	1,214850
22,883500	0,5	1,051500
22,891833	0,5	1,049850
22,900167	0,5	0,732050
22,908500	0,5	0,577350
22,916833	0,5	0,425050
22,925167	0,5	0,278250
22,933500	0,5	0,137950
22,941833	0,5	0,001950
22,950167	0,5	-0,130150
22,958500	0,5	-0,264150
22,966833	0,5	-0,392250
22,975167	0,5	-0,521750
22,983500	0,5	-0,641400
22,991833	0,5	-0,753400
23,000167	0,5	-0,874500
23,008500	0,5	-0,999400
23,016833	0,5	-1,141400
23,025167	0,5	-1,247150
23,033500	0,5	-1,348850
23,041833	0,5	-1,435300
23,050167	0,5	-1,516200
23,058500	0,5	-1,601150
23,066833	0,5	-1,672800
23,075167	0,5	-1,741150
23,083500	0,5	-1,803900
23,091833	0,5	-1,857550
23,100167	0,5	-1,910400
23,108500	0,5	-1,959200
23,116833	0,5	-2,009700
23,125167	0,5	-2,052500
23,133500	0,5	-2,082500
23,141833	0,5	-2,129650
23,150167	0,5	-2,156400
23,158500	0,5	-2,219700
23,166833	0,5	-2,286600
23,175167	0,5	-2,308350
23,183500	0,5	-2,334450
23,191833	0,5	-2,339100
23,200167	0,5	-2,357550
23,208500	0,5	-2,365250
23,216833	0,5	-2,372600
23,225167	0,5	-2,367100
23,233500	0,5	-2,365500
23,241833	0,5	-2,354500
23,250167	0,5	-2,348500
23,258500	0,5	-2,341500
23,266833	0,5	-2,335600
23,275167	0,5	-2,331000
23,283500	0,5	-2,310500
23,291833	0,5	-2,317100
23,300167	0,5	-2,294900
23,308500	0,5	-2,305900
23,316833	0,5	-2,324350
23,325167	0,5	-2,320750
23,333500	0,5	-2,306050
23,341833	0,5	-2,289950
23,350167	0,5	-2,273500
23,358500	0,5	-2,259000
23,366833	0,5	-2,229550
23,375167	0,5	-2,208550
23,383500	0,5	-2,178050
23,391833	0,5	-2,149300
23,400167	0,5	-2,118700
23,408500	0,5	-2,092550
23,416833	0,5	-2,062500
23,425167	0,5	-2,032500
23,433500	0,5	-2,049800
23,441833	0,5	-2,009550
23,450167	0,5	-1,956200
23,458500	0,5	-1,934450
23,466833	0,5	-1,938800
23,475167	0,5	-1,920150
23,483500	0,5	-1,907250
23,491833	0,5	-1,882600
23,500167	0,5	-1,870850
23,508500	0,5	-1,851150
23,516833	0,5	-1,831600
23,525167	0,5	-1,802350
23,533500	0,5	-1,785650
23,541833	0,5	-1,755900
23,550167	0,5	-1,736500
23,558500	0,5	-1,709600
23,566833	0,5	-1,686700
23,575167	0,5	-1,678700
23,583500	0,5	-1,726500
23,591833	0,5	-1,674100
23,600167	0,5	-1,611650
23,608500	0,5	-1,576350
23,616833	0,5	-1,561300
23,625167	0,5	-1,547900
23,633500	0,5	-1,530250
23,641833	0,5	-1,514200
23,650167	0,5	-1,497900
23,658500	0,5	-1,480100
23,666833	0,5	-1,460450
23,675167	0,5	-1,441300
23,683500	0,5	-1,423900
23,691833	0,5	-1,408150
23,700167	0,5	-1,390450
23,708500	0,5	-1,375950
23,716833	0,5	-1,363950
23,725167	0,5	-1,464150
23,733500	0,5	-1,438350
23,741833	0,5	-1,398450
23,750167	0,5	-1,335850
23,758500	0,5	-1,306250
23,766833	0,5	-1,294550
23,775167	0,5	-1,285150
23,783500	0,5	-1,275900
23,791833	0,5	-1,259400
23,800167	0,5	-1,235950
23,808500	0,5	-1,217550
23,816833	0,5	-1,196650
23,825167	0,5	-1,179100
23,833500	0,5	-1,158400
23,841833	0,5	-1,138150
23,850167	0,5	-1,115950
23,858500	0,5	-1,102700
23,866833	0,5	-1,094050
23,875167	0,5	-1,225100
23,883500	0,5	-1,167100
23,891833	0,5	-1,140200
23,900167	0,5	-1,066900
23,908500	0,5	-1,048750
23,916833	0,5	-1,033200
23,925167	0,5	-1,027600
23,933500	0,5	-1,027950
23,941833	0,5	-1,010900
23,950167	0,5	-0,996750
23,958500	0,5	-0,978150
23,966833	0,5	-0,962250
23,975167	0,5	-0,942300
23,983500	0,5	-0,924700
23,991833	0,5	-0,903150
24,000167	0,5	-0,887000
24,008500	0,5	-0,867100
24,016833	0,5	-0,909500
24,025167	0,5	-0,968150
24,033500	0,5	-0,928050
24,041833	0,5	-0,862350
24,050167	0,5	-0,813700
24,058500	0,5	-0,788750
24,066833	0,5	-0,775050
24,075167	0,5	-0,767350
24,083500	0,5	-0,761950
24,091833	0,5	-0,741700
24,100167	0,5	-0,723100
24,108500	0,5	-0,702300
24,116833	0,5	-0,683850
24,125167	0,5	-0,668750
24,133500	0,5	-0,649900
24,141833	0,5	-0,636300
24,150167	0,5	-0,616350
24,158500	0,5	-0,608150
24,166833	0,5	-0,686400
24,175167	0,5	-0,686800
24,183500	0,5	-0,651950
24,191833	0,5	-0,605200
24,200167	0,5	-0,565350
24,208500	0,5	-0,548950
24,216833	0,5	-0,532600
24,225167	0,5	-0,535950
24,233500	0,5	-0,513750
24,241833	0,5	-0,495500
24,250167	0,5	-0,471750
24,258500	0,5	-0,457400
24,266833	0,5	-0,434950
24,275167	0,5	-0,418500
24,283500	0,5	-0,397700
24,291833	0,5	-0,375900
24,300167	0,5	-0,362850
24,308500	0,5	-0,355400
24,316833	0,5	-0,436150
24,325167	0,5	-0,402500
24,333500	0,5	-0,378100
24,341833	0,5	-0,331600
24,350167	0,5	-0,307550
24,358500	0,5	-0,296100
24,366833	0,5	-0,294950
24,375167	0,5	-0,296800
24,383500	0,5	-0,279000
24,391833	0,5	-0,259050
24,400167	0,5	-0,255300
24,408500	0,5	-0,239100
24,416833	0,5	-0,225950
24,425167	0,5	-0,209150
24,433500	0,5	-0,195450
24,441833	0,5	-0,180300
24,450167	0,5	-0,167850
24,458500	0,5	-0,194800
24,466833	0,5	-0,212150
24,475167	0,5	-0,193050
24,483500	0,5	-0,162600
24,491833	0,5	-0,130500
24,500167	0,5	-0,111850
24,508500	0,5	-0,104550
24,516833	0,5	-0,099350
24,525167	0,5	-0,095500
24,533500	0,5	-0,077100
24,541833	0,5	-0,071850
24,550167	0,5	-0,060250
24,558500	0,5	-0,052850
24,566833	0,5	-0,039700
24,575167	0,5	-0,033850
24,583500	0,5	-0,019200
24,591833	0,5	-0,013900
24,600167	0,5	-0,004800
24,608500	0,5	-0,050700
24,616833	0,5	-0,036950
24,625167	0,5	-0,030550
24,633500	0,5	-0,002350
24,641833	0,5	0,016100
24,650167	0,5	0,033050
24,658500	0,5	0,037250
24,666833	0,5	0,034200
24,675167	0,5	0,044400
24,683500	0,5	0,055450
24,691833	0,5	0,070050
24,700167	0,5	0,076000
24,708500	0,5	0,086450
24,716833	0,5	0,091700
24,725167	0,5	0,106250
24,733500	0,5	0,109650
24,741833	0,5	0,119000
24,750167	0,5	0,121250
24,758500	0,5	0,087200
24,766833	0,5	0,104000
24,775167	0,5	0,113400
24,783500	0,5	0,133100
24,791833	0,5	0,144600
24,800167	0,5	0,147800
24,808500	0,5	0,150750
24,816833	0,5	0,143100
24,825167	0,5	0,150550
24,833500	0,5	0,155650
24,841833	0,5	0,165400
24,850167	0,5	0,171000
24,858500	0,5	0,174450
24,866833	0,5	0,183850
24,875167	0,5	0,188750
24,883500	0,5	0,200100
24,891833	0,5	0,203000
24,900167	0,5	0,200300
24,908500	0,5	0,190350
24,916833	0,5	0,205350
24,925167	0,5	0,212100
24,933500	0,5	0,228500
24,941833	0,5	0,234500
24,950167	0,5	0,238950
24,958500	0,5	0,236000
24,966833	0,5	0,236400
24,975167	0,5	0,239500
24,983500	0,5	0,245350
24,991833	0,5	0,245150
25,000167	0,5	0,247550
25,008500	0,5	0,252150
25,016833	0,5	0,256200
25,025167	0,5	0,264450
25,033500	0,5	0,267400
25,041833	0,5	0,267100
25,050167	0,5	0,257800
25,058500	0,5	0,264500
25,066833	0,5	0,267600
25,075167	0,5	0,277650
25,083500	0,5	0,285300
25,091833	0,5	0,292250
25,100167	0,5	0,290900
25,108500	0,5	0,293050
25,116833	0,5	0,292850
25,125167	0,5	0,295800
25,133500	0,5	0,302100
25,141833	0,5	0,302450
25,150167	0,5	0,307800
25,158500	0,5	0,308200
25,166833	0,5	0,313700
25,175167	0,5	0,311800
25,183500	0,5	0,316850
25,191833	0,5	0,318500
25,200167	0,5	0,312750
25,208500	0,5	0,313900
25,216833	0,5	0,317050
25,225167	0,5	0,319200
25,233500	0,5	0,324450
25,241833	0,5	0,325800
25,250167	0,5	0,326150
25,258500	0,5	0,324300
25,266833	0,5	0,326950
25,275167	0,5	0,326450
25,283500	0,5	0,332300
25,291833	0,5	0,333700
25,300167	0,5	0,336150
25,308500	0,5	0,334700
25,316833	0,5	0,339200
25,325167	0,5	0,342300
25,333500	0,5	0,344450
25,341833	0,5	0,345750
25,350167	0,5	0,346050
25,358500	0,5	0,347800
25,366833	0,5	0,350350
25,375167	0,5	0,349100
25,383500	0,5	0,348000
25,391833	0,5	0,347350
25,400167	0,5	0,345950
25,408500	0,5	0,347500
25,416833	0,5	0,345200
25,425167	0,5	0,345450
25,433500	0,5	0,347400
25,441833	0,5	0,347150
25,450167	0,5	0,347950
25,458500	0,5	0,348450
25,466833	0,5	0,348350
25,475167	0,5	0,351500
25,483500	0,5	0,353500
25,491833	0,5	0,355300
25,500167	0,5	0,357800
25,508500	0,5	0,362900
25,516833	0,5	0,358600
25,525167	0,5	0,356150
25,533500	0,5	0,359550
25,541833	0,5	0,357100
25,550167	0,5	0,360050
25,558500	0,5	0,358550
25,566833	0,5	0,356700
25,575167	0,5	0,357500
25,583500	0,5	0,355400
25,591833	0,5	0,355750
25,600167	0,5	0,354650
25,608500	0,5	0,356750
25,616833	0,5	0,355350
25,625167	0,5	0,354400
25,633500	0,5	0,355250
25,641833	0,5	0,360000
25,650167	0,5	0,358750
25,658500	0,5	0,368400
25,666833	0,5	0,358650
25,675167	0,5	0,357850
25,683500	0,5	0,356850
25,691833	0,5	0,355250
25,700167	0,5	0,364600
25,708500	0,5	0,360350
25,716833	0,5	0,361000
25,725167	0,5	0,357150
25,733500	0,5	0,360800
25,741833	0,5	0,356800
25,750167	0,5	0,359500
25,758500	0,5	0,355350
25,766833	0,5	0,356400
25,775167	0,5	0,356500
25,783500	0,5	0,356200
25,791833	0,5	0,356600
25,800167	0,5	0,357600
25,808500	0,5	0,358800
25,816833	0,5	0,352600
25,825167	0,5	0,354800
25,833500	0,5	0,352300
25,841833	0,5	0,356400
25,850167	0,5	0,364000
25,858500	0,5	0,364750
25,866833	0,5	0,361450
25,875167	0,5	0,361600
25,883500	0,5	0,364150
25,891833	0,5	0,365600
25,900167	0,5	0,363450
25,908500	0,5	0,364400
25,916833	0,5	0,365000
25,925167	0,5	0,365700
25,933500	0,5	0,367150
25,941833	0,5	0,372450
25,950167	0,5	0,370400
25,958500	0,5	0,373700
25,966833	0,5	0,361000
25,975167	0,5	0,364100
25,983500	0,5	0,365500
25,991833	0,5	0,368550
26,000167	0,5	0,377550
