File Path	chrom://chromeleon01/ikbm_chromeleon/2022/ICS-5000/ED1/Esteban/20220612_Cell_7_4_eg.seq/177.smp/ED_1.channel/ED_1.chm
Channel	ED_1

Injection Information:
Data Vault	ikbm_chromeleon
Injection	4_06h-EGS_1
Injection Number	78
Position	GC4
Comment	
Processing Method	Stop sequence after Cell Death
Instrument Method	ICS5000_PA200_FullNative_Ox_26min_ED1
Type	Unknown
Status	Finished
Injection Date	14.06.2022
Injection Time	04:45:57
Injection Volume (µl)	5,0
Dilution Factor	1,0000
Weight	1,0000

Chromatogram Data Information:
Time Min. (min)	0,000333
Time Max. (min)	26,000333
Data Points	3121
Detector	EDet1
Generating Data System	Chromeleon 7.2.9.11323
Exporting Data System	Chromeleon 7.2.9.0
Operator	Instrument Controller
Signal Quantity	
Signal Unit	nC
Signal Min.	-2,322800
Signal Max.	2 413,041836
Channel	ED_1
Driver Name	DC-5000
Channel Type	Evaluation
Min. Step (s)	0,5
Max. Step (s)	0,5
Average Step (s)	0,5

Signal Parameter Information:
Signal Info	

Chromatogram Data:
Time (min)	Step (s)	Value (nC)
0,000333	n.a.	-0,063350
0,008667	0,5	-0,072450
0,017000	0,5	-0,066350
0,025333	0,5	-0,053950
0,033667	0,5	-0,037650
0,042000	0,5	-0,023450
0,050333	0,5	-0,023950
0,058667	0,5	-0,020700
0,067000	0,5	-0,052400
0,075333	0,5	-0,050500
0,083667	0,5	-0,054400
0,092000	0,5	-0,030250
0,100333	0,5	-0,008300
0,108667	0,5	-0,008450
0,117000	0,5	-0,025700
0,125333	0,5	-0,023450
0,133667	0,5	-0,030600
0,142000	0,5	-0,028950
0,150333	0,5	-0,039300
0,158667	0,5	-0,035450
0,167000	0,5	-0,045600
0,175333	0,5	-0,037650
0,183667	0,5	-0,051000
0,192000	0,5	-0,053000
0,200333	0,5	-0,048950
0,208667	0,5	-0,046450
0,217000	0,5	-0,073350
0,225333	0,5	-0,071950
0,233667	0,5	-0,070900
0,242000	0,5	-0,051700
0,250333	0,5	-0,029750
0,258667	0,5	-0,035850
0,267000	0,5	-0,042500
0,275333	0,5	-0,050600
0,283667	0,5	-0,042050
0,292000	0,5	-0,021450
0,300333	0,5	0,004200
0,308667	0,5	-0,024000
0,317000	0,5	-0,058000
0,325333	0,5	-0,080000
0,333667	0,5	-0,092400
0,342000	0,5	-0,104900
0,350333	0,5	-0,078050
0,358667	0,5	-0,093400
0,367000	0,5	-0,100950
0,375333	0,5	-0,101450
0,383667	0,5	-0,096750
0,392000	0,5	-0,069950
0,400333	0,5	-0,063900
0,408667	0,5	-0,068150
0,417000	0,5	-0,069800
0,425333	0,5	-0,074600
0,433667	0,5	-0,073300
0,442000	0,5	-0,078750
0,450333	0,5	-0,084100
0,458667	0,5	-0,083550
0,467000	0,5	-0,088800
0,475333	0,5	-0,087850
0,483667	0,5	-0,110350
0,492000	0,5	-0,112200
0,500333	0,5	-0,093100
0,508667	0,5	-0,106500
0,517000	0,5	-0,118300
0,525333	0,5	-0,107050
0,533667	0,5	-0,103800
0,542000	0,5	-0,073750
0,550333	0,5	-0,094950
0,558667	0,5	-0,079150
0,567000	0,5	-0,086600
0,575333	0,5	-0,078600
0,583667	0,5	-0,087300
0,592000	0,5	-0,083150
0,600333	0,5	-0,090600
0,608667	0,5	-0,096700
0,617000	0,5	-0,092600
0,625333	0,5	-0,100650
0,633667	0,5	-0,109350
0,642000	0,5	-0,100050
0,650333	0,5	-0,081650
0,658667	0,5	-0,107100
0,667000	0,5	-0,110300
0,675333	0,5	-0,109950
0,683667	0,5	-0,084400
0,692000	0,5	-0,069750
0,700333	0,5	-0,077100
0,708667	0,5	-0,086550
0,717000	0,5	-0,074950
0,725333	0,5	-0,081200
0,733667	0,5	-0,075950
0,742000	0,5	-0,086250
0,750333	0,5	-0,085700
0,758667	0,5	-0,089950
0,767000	0,5	-0,084050
0,775333	0,5	-0,079100
0,783667	0,5	-0,095800
0,792000	0,5	-0,081750
0,800333	0,5	-0,079700
0,808667	0,5	-0,096450
0,817000	0,5	-0,099850
0,825333	0,5	-0,089700
0,833667	0,5	-0,074500
0,842000	0,5	-0,060200
0,850333	0,5	-0,079350
0,858667	0,5	-0,071550
0,867000	0,5	-0,071300
0,875333	0,5	-0,059400
0,883667	0,5	-0,069200
0,892000	0,5	-0,064700
0,900333	0,5	-0,073650
0,908667	0,5	-0,072400
0,917000	0,5	-0,072650
0,925333	0,5	-0,078600
0,933667	0,5	-0,091450
0,942000	0,5	-0,060750
0,950333	0,5	-0,078300
0,958667	0,5	-0,085650
0,967000	0,5	-0,086050
0,975333	0,5	-0,074400
0,983667	0,5	-0,050500
0,992000	0,5	-0,050150
1,000333	0,5	-0,048950
1,008667	0,5	-0,052750
1,017000	0,5	-0,046950
1,025333	0,5	-0,051800
1,033667	0,5	-0,052550
1,042000	0,5	-0,062300
1,050333	0,5	-0,059600
1,058667	0,5	-0,062450
1,067000	0,5	-0,061300
1,075333	0,5	-0,078950
1,083667	0,5	-0,074600
1,092000	0,5	-0,065900
1,100333	0,5	-0,074700
1,108667	0,5	-0,083050
1,117000	0,5	-0,074350
1,125333	0,5	-0,057750
1,133667	0,5	-0,030900
1,142000	0,5	-0,034200
1,150333	0,5	-0,036100
1,158667	0,5	-0,043950
1,167000	0,5	-0,045250
1,175333	0,5	-0,037100
1,183667	0,5	-0,041700
1,192000	0,5	-0,042150
1,200333	0,5	-0,049700
1,208667	0,5	-0,044300
1,217000	0,5	-0,059550
1,225333	0,5	-0,061250
1,233667	0,5	-0,054250
1,242000	0,5	-0,048450
1,250333	0,5	-0,063100
1,258667	0,5	-0,060550
1,267000	0,5	-0,064800
1,275333	0,5	-0,039650
1,283667	0,5	-0,031850
1,292000	0,5	-0,031200
1,300333	0,5	-0,034200
1,308667	0,5	-0,033100
1,317000	0,5	-0,038650
1,325333	0,5	-0,035500
1,333667	0,5	-0,042200
1,342000	0,5	-0,051050
1,350333	0,5	-0,049900
1,358667	0,5	-0,052900
1,367000	0,5	-0,055450
1,375333	0,5	-0,068850
1,383667	0,5	-0,045600
1,392000	0,5	-0,058500
1,400333	0,5	-0,071550
1,408667	0,5	-0,074150
1,417000	0,5	-0,069650
1,425333	0,5	-0,047100
1,433667	0,5	-0,044800
1,442000	0,5	-0,059600
1,450333	0,5	-0,053900
1,458667	0,5	-0,068800
1,467000	0,5	-0,063150
1,475333	0,5	-0,076300
1,483667	0,5	-0,072150
1,492000	0,5	-0,082700
1,500333	0,5	-0,083700
1,508667	0,5	-0,087500
1,517000	0,5	-0,112800
1,525333	0,5	-0,120000
1,533667	0,5	-0,096600
1,542000	0,5	-0,116400
1,550333	0,5	-0,108350
1,558667	0,5	-0,041500
1,567000	0,5	0,159950
1,575333	0,5	0,808900
1,583667	0,5	4,276600
1,592000	0,5	22,808750
1,600333	0,5	97,675151
1,608667	0,5	347,255805
1,617000	0,5	968,026514
1,625333	0,5	1 557,406573
1,633667	0,5	2 360,099885
1,642000	0,5	2 413,041836
1,650333	0,5	2 351,231085
1,658667	0,5	2 167,390732
1,667000	0,5	1 739,479776
1,675333	0,5	1 217,406518
1,683667	0,5	814,871262
1,692000	0,5	571,934059
1,700333	0,5	429,463756
1,708667	0,5	429,389356
1,717000	0,5	282,457504
1,725333	0,5	239,923254
1,733667	0,5	205,059103
1,742000	0,5	176,856653
1,750333	0,5	154,278802
1,758667	0,5	137,291902
1,767000	0,5	127,469852
1,775333	0,5	125,959102
1,783667	0,5	131,330652
1,792000	0,5	139,957852
1,800333	0,5	148,614202
1,808667	0,5	154,308602
1,817000	0,5	153,989902
1,825333	0,5	146,953302
1,833667	0,5	135,907202
1,842000	0,5	124,443402
1,850333	0,5	114,785852
1,858667	0,5	107,001852
1,867000	0,5	100,579951
1,875333	0,5	95,519501
1,883667	0,5	92,102501
1,892000	0,5	90,062951
1,900333	0,5	88,614201
1,908667	0,5	87,821151
1,917000	0,5	88,603301
1,925333	0,5	90,568301
1,933667	0,5	90,671851
1,942000	0,5	87,065201
1,950333	0,5	81,768301
1,958667	0,5	77,960301
1,967000	0,5	77,186351
1,975333	0,5	80,472451
1,983667	0,5	89,517751
1,992000	0,5	106,729552
2,000333	0,5	130,539252
2,008667	0,5	152,876602
2,017000	0,5	167,989553
2,025333	0,5	179,874853
2,033667	0,5	191,655053
2,042000	0,5	196,008003
2,050333	0,5	184,896203
2,058667	0,5	161,741852
2,067000	0,5	136,572152
2,075333	0,5	116,041102
2,083667	0,5	101,869502
2,092000	0,5	94,025251
2,100333	0,5	91,876101
2,108667	0,5	93,420301
2,117000	0,5	96,024351
2,125333	0,5	96,428501
2,133667	0,5	92,298351
2,142000	0,5	85,461901
2,150333	0,5	79,124401
2,158667	0,5	73,689401
2,167000	0,5	68,286451
2,175333	0,5	63,225251
2,183667	0,5	59,592351
2,192000	0,5	57,830351
2,200333	0,5	57,272701
2,208667	0,5	56,637851
2,217000	0,5	55,585651
2,225333	0,5	54,620251
2,233667	0,5	53,844551
2,242000	0,5	52,617901
2,250333	0,5	50,672001
2,258667	0,5	48,550751
2,267000	0,5	46,838601
2,275333	0,5	45,619951
2,283667	0,5	44,783651
2,292000	0,5	44,308501
2,300333	0,5	44,127601
2,308667	0,5	44,094551
2,317000	0,5	43,930401
2,325333	0,5	43,535151
2,333667	0,5	43,011101
2,342000	0,5	42,810001
2,350333	0,5	43,387351
2,358667	0,5	44,730001
2,367000	0,5	46,336401
2,375333	0,5	48,455701
2,383667	0,5	50,243901
2,392000	0,5	49,210951
2,400333	0,5	46,341501
2,408667	0,5	44,124201
2,417000	0,5	42,776401
2,425333	0,5	41,690201
2,433667	0,5	40,667701
2,442000	0,5	39,758051
2,450333	0,5	39,016501
2,458667	0,5	38,467901
2,467000	0,5	38,038201
2,475333	0,5	37,658651
2,483667	0,5	37,286901
2,492000	0,5	36,871301
2,500333	0,5	36,441651
2,508667	0,5	36,026801
2,517000	0,5	35,727101
2,525333	0,5	35,585051
2,533667	0,5	35,712651
2,542000	0,5	36,126601
2,550333	0,5	36,748201
2,558667	0,5	37,395501
2,567000	0,5	37,904501
2,575333	0,5	38,067601
2,583667	0,5	37,985551
2,592000	0,5	37,787151
2,600333	0,5	37,751451
2,608667	0,5	38,291451
2,617000	0,5	39,804901
2,625333	0,5	42,827251
2,633667	0,5	48,086901
2,642000	0,5	57,274001
2,650333	0,5	73,835951
2,658667	0,5	102,076552
2,667000	0,5	141,957852
2,675333	0,5	183,508753
2,683667	0,5	210,011603
2,692000	0,5	210,723603
2,700333	0,5	188,520703
2,708667	0,5	155,687602
2,717000	0,5	123,947202
2,725333	0,5	99,058801
2,733667	0,5	81,605151
2,742000	0,5	69,832601
2,750333	0,5	61,895201
2,758667	0,5	56,700751
2,767000	0,5	53,741351
2,775333	0,5	52,958651
2,783667	0,5	54,171701
2,792000	0,5	56,711401
2,800333	0,5	59,278201
2,808667	0,5	60,422551
2,817000	0,5	59,207201
2,825333	0,5	55,634151
2,833667	0,5	50,563751
2,842000	0,5	45,088851
2,850333	0,5	40,110151
2,858667	0,5	36,082401
2,867000	0,5	33,073050
2,875333	0,5	30,872800
2,883667	0,5	29,308850
2,892000	0,5	28,151500
2,900333	0,5	27,280350
2,908667	0,5	26,566800
2,917000	0,5	25,933900
2,925333	0,5	25,373600
2,933667	0,5	24,897000
2,942000	0,5	24,517350
2,950333	0,5	24,298850
2,958667	0,5	24,267250
2,967000	0,5	24,450850
2,975333	0,5	24,760350
2,983667	0,5	25,016350
2,992000	0,5	25,033300
3,000333	0,5	24,695750
3,008667	0,5	24,066100
3,017000	0,5	23,238900
3,025333	0,5	22,402700
3,033667	0,5	21,672850
3,042000	0,5	21,100250
3,050333	0,5	20,669300
3,058667	0,5	20,356250
3,067000	0,5	20,122500
3,075333	0,5	20,005500
3,083667	0,5	19,973500
3,092000	0,5	20,067150
3,100333	0,5	20,332100
3,108667	0,5	20,858150
3,117000	0,5	21,663150
3,125333	0,5	22,635500
3,133667	0,5	23,452900
3,142000	0,5	23,767100
3,150333	0,5	23,434000
3,158667	0,5	22,548850
3,167000	0,5	21,318900
3,175333	0,5	20,071950
3,183667	0,5	19,016900
3,192000	0,5	18,225100
3,200333	0,5	17,684350
3,208667	0,5	17,295600
3,217000	0,5	17,025650
3,225333	0,5	16,822750
3,233667	0,5	16,680250
3,242000	0,5	16,557350
3,250333	0,5	16,454450
3,258667	0,5	16,320700
3,267000	0,5	16,162600
3,275333	0,5	15,963800
3,283667	0,5	15,760850
3,292000	0,5	15,567300
3,300333	0,5	15,426000
3,308667	0,5	15,305000
3,317000	0,5	15,196250
3,325333	0,5	15,119700
3,333667	0,5	15,080450
3,342000	0,5	15,095850
3,350333	0,5	15,143250
3,358667	0,5	15,244500
3,367000	0,5	15,363200
3,375333	0,5	15,480550
3,383667	0,5	15,549650
3,392000	0,5	15,557100
3,400333	0,5	15,490600
3,408667	0,5	15,383800
3,417000	0,5	15,254550
3,425333	0,5	15,143350
3,433667	0,5	15,057750
3,442000	0,5	15,027800
3,450333	0,5	15,073400
3,458667	0,5	15,140650
3,467000	0,5	15,212250
3,475333	0,5	15,264700
3,483667	0,5	15,263350
3,492000	0,5	15,215750
3,500333	0,5	15,101950
3,508667	0,5	14,978500
3,517000	0,5	14,911600
3,525333	0,5	14,982950
3,533667	0,5	15,271650
3,542000	0,5	15,745800
3,550333	0,5	16,237650
3,558667	0,5	16,555400
3,567000	0,5	16,663450
3,575333	0,5	16,580050
3,583667	0,5	16,397000
3,592000	0,5	16,185200
3,600333	0,5	16,040750
3,608667	0,5	15,915000
3,617000	0,5	15,893850
3,625333	0,5	15,967800
3,633667	0,5	16,146700
3,642000	0,5	16,404800
3,650333	0,5	16,642500
3,658667	0,5	16,823250
3,667000	0,5	16,900800
3,675333	0,5	16,813250
3,683667	0,5	16,551400
3,692000	0,5	16,136700
3,700333	0,5	15,625600
3,708667	0,5	15,080200
3,717000	0,5	14,549850
3,725333	0,5	14,082400
3,733667	0,5	13,658800
3,742000	0,5	13,325750
3,750333	0,5	13,080100
3,758667	0,5	12,844050
3,767000	0,5	12,661200
3,775333	0,5	12,517050
3,783667	0,5	12,390350
3,792000	0,5	12,291200
3,800333	0,5	12,168900
3,808667	0,5	12,062650
3,817000	0,5	11,948850
3,825333	0,5	11,851600
3,833667	0,5	11,746300
3,842000	0,5	11,658650
3,850333	0,5	11,572100
3,858667	0,5	11,503350
3,867000	0,5	11,447400
3,875333	0,5	11,392400
3,883667	0,5	11,339550
3,892000	0,5	11,285000
3,900333	0,5	11,231650
3,908667	0,5	11,147400
3,917000	0,5	11,076900
3,925333	0,5	11,010900
3,933667	0,5	10,958150
3,942000	0,5	10,903850
3,950333	0,5	10,843850
3,958667	0,5	10,785450
3,967000	0,5	10,745400
3,975333	0,5	10,693850
3,983667	0,5	10,659300
3,992000	0,5	10,609000
4,000333	0,5	10,572050
4,008667	0,5	10,533950
4,017000	0,5	10,504000
4,025333	0,5	10,480050
4,033667	0,5	10,470450
4,042000	0,5	10,485950
4,050333	0,5	10,508650
4,058667	0,5	10,549500
4,067000	0,5	10,632150
4,075333	0,5	10,761100
4,083667	0,5	10,939350
4,092000	0,5	11,153950
4,100333	0,5	11,382850
4,108667	0,5	11,659450
4,117000	0,5	11,948200
4,125333	0,5	12,247500
4,133667	0,5	12,526350
4,142000	0,5	12,775950
4,150333	0,5	12,965000
4,158667	0,5	13,104350
4,167000	0,5	13,170350
4,175333	0,5	13,180600
4,183667	0,5	13,163500
4,192000	0,5	13,168900
4,200333	0,5	13,139200
4,208667	0,5	13,117000
4,217000	0,5	13,079700
4,225333	0,5	13,010450
4,233667	0,5	12,880650
4,242000	0,5	12,667500
4,250333	0,5	12,398500
4,258667	0,5	12,099750
4,267000	0,5	11,811150
4,275333	0,5	11,546250
4,283667	0,5	11,323100
4,292000	0,5	11,130200
4,300333	0,5	10,980700
4,308667	0,5	10,845150
4,317000	0,5	10,722600
4,325333	0,5	10,594050
4,333667	0,5	10,495250
4,342000	0,5	10,386150
4,350333	0,5	10,284450
4,358667	0,5	10,195700
4,367000	0,5	10,124150
4,375333	0,5	10,069900
4,383667	0,5	10,016750
4,392000	0,5	9,962650
4,400333	0,5	9,913750
4,408667	0,5	9,879400
4,417000	0,5	9,866250
4,425333	0,5	9,883050
4,433667	0,5	9,927650
4,442000	0,5	9,999300
4,450333	0,5	10,095250
4,458667	0,5	10,210100
4,467000	0,5	10,315450
4,475333	0,5	10,404400
4,483667	0,5	10,480900
4,492000	0,5	10,496900
4,500333	0,5	10,465900
4,508667	0,5	10,413450
4,517000	0,5	10,332000
4,525333	0,5	10,251150
4,533667	0,5	10,129100
4,542000	0,5	9,987900
4,550333	0,5	9,831700
4,558667	0,5	9,682600
4,567000	0,5	9,525450
4,575333	0,5	9,383750
4,583667	0,5	9,252650
4,592000	0,5	9,142300
4,600333	0,5	9,056200
4,608667	0,5	8,986300
4,617000	0,5	8,953350
4,625333	0,5	8,908450
4,633667	0,5	8,908200
4,642000	0,5	8,886550
4,650333	0,5	8,881100
4,658667	0,5	8,883700
4,667000	0,5	8,900850
4,675333	0,5	8,926050
4,683667	0,5	8,926950
4,692000	0,5	8,921150
4,700333	0,5	8,928600
4,708667	0,5	8,922300
4,717000	0,5	8,922450
4,725333	0,5	8,910850
4,733667	0,5	8,900350
4,742000	0,5	8,883150
4,750333	0,5	8,873150
4,758667	0,5	8,863000
4,767000	0,5	8,848500
4,775333	0,5	8,828100
4,783667	0,5	8,825900
4,792000	0,5	8,782150
4,800333	0,5	8,758700
4,808667	0,5	8,736250
4,817000	0,5	8,720300
4,825333	0,5	8,714400
4,833667	0,5	8,679050
4,842000	0,5	8,659250
4,850333	0,5	8,632450
4,858667	0,5	8,619250
4,867000	0,5	8,599450
4,875333	0,5	8,593500
4,883667	0,5	8,583400
4,892000	0,5	8,580550
4,900333	0,5	8,585200
4,908667	0,5	8,588650
4,917000	0,5	8,585200
4,925333	0,5	8,591600
4,933667	0,5	8,589600
4,942000	0,5	8,565150
4,950333	0,5	8,553250
4,958667	0,5	8,534050
4,967000	0,5	8,515300
4,975333	0,5	8,499750
4,983667	0,5	8,447350
4,992000	0,5	8,376300
5,000333	0,5	8,290650
5,008667	0,5	8,185900
5,017000	0,5	8,073000
5,025333	0,5	7,947000
5,033667	0,5	7,823150
5,042000	0,5	7,705900
5,050333	0,5	7,602150
5,058667	0,5	7,509000
5,067000	0,5	7,431000
5,075333	0,5	7,362900
5,083667	0,5	7,307350
5,092000	0,5	7,243150
5,100333	0,5	7,206700
5,108667	0,5	7,173450
5,117000	0,5	7,161750
5,125333	0,5	7,146600
5,133667	0,5	7,135600
5,142000	0,5	7,132350
5,150333	0,5	7,137850
5,158667	0,5	7,163650
5,167000	0,5	7,197050
5,175333	0,5	7,258250
5,183667	0,5	7,334800
5,192000	0,5	7,445250
5,200333	0,5	7,577950
5,208667	0,5	7,718750
5,217000	0,5	7,854650
5,225333	0,5	7,975600
5,233667	0,5	8,027550
5,242000	0,5	8,038050
5,250333	0,5	7,990000
5,258667	0,5	7,902500
5,267000	0,5	7,779700
5,275333	0,5	7,628300
5,283667	0,5	7,466550
5,292000	0,5	7,323350
5,300333	0,5	7,197200
5,308667	0,5	7,101050
5,317000	0,5	7,034550
5,325333	0,5	6,993500
5,333667	0,5	6,980750
5,342000	0,5	6,988700
5,350333	0,5	7,013350
5,358667	0,5	7,038700
5,367000	0,5	7,074650
5,375333	0,5	7,094300
5,383667	0,5	7,079400
5,392000	0,5	7,048000
5,400333	0,5	7,002650
5,408667	0,5	6,946800
5,417000	0,5	6,881050
5,425333	0,5	6,806400
5,433667	0,5	6,753450
5,442000	0,5	6,707500
5,450333	0,5	6,684500
5,458667	0,5	6,662450
5,467000	0,5	6,653100
5,475333	0,5	6,641050
5,483667	0,5	6,628450
5,492000	0,5	6,607150
5,500333	0,5	6,572850
5,508667	0,5	6,521750
5,517000	0,5	6,484950
5,525333	0,5	6,430350
5,533667	0,5	6,365650
5,542000	0,5	6,313000
5,550333	0,5	6,266800
5,558667	0,5	6,244550
5,567000	0,5	6,211350
5,575333	0,5	6,184250
5,583667	0,5	6,162000
5,592000	0,5	6,157950
5,600333	0,5	6,158650
5,608667	0,5	6,176350
5,617000	0,5	6,202200
5,625333	0,5	6,250450
5,633667	0,5	6,316950
5,642000	0,5	6,407650
5,650333	0,5	6,524950
5,658667	0,5	6,660600
5,667000	0,5	6,827200
5,675333	0,5	6,985250
5,683667	0,5	7,155500
5,692000	0,5	7,318750
5,700333	0,5	7,496850
5,708667	0,5	7,706800
5,717000	0,5	7,961950
5,725333	0,5	8,324150
5,733667	0,5	8,881100
5,742000	0,5	9,679800
5,750333	0,5	10,759600
5,758667	0,5	12,123250
5,767000	0,5	13,707050
5,775333	0,5	15,368900
5,783667	0,5	16,949600
5,792000	0,5	18,245200
5,800333	0,5	19,099750
5,808667	0,5	19,395350
5,817000	0,5	19,159000
5,825333	0,5	18,393250
5,833667	0,5	17,260200
5,842000	0,5	15,891700
5,850333	0,5	14,432350
5,858667	0,5	13,003600
5,867000	0,5	11,658800
5,875333	0,5	10,483100
5,883667	0,5	9,487850
5,892000	0,5	8,676600
5,900333	0,5	8,018450
5,908667	0,5	7,507200
5,917000	0,5	7,104650
5,925333	0,5	6,801300
5,933667	0,5	6,563200
5,942000	0,5	6,384600
5,950333	0,5	6,238250
5,958667	0,5	6,127800
5,967000	0,5	6,044450
5,975333	0,5	5,967900
5,983667	0,5	5,912600
5,992000	0,5	5,872650
6,000333	0,5	5,840000
6,008667	0,5	5,823350
6,017000	0,5	5,787350
6,025333	0,5	5,756500
6,033667	0,5	5,723900
6,042000	0,5	5,694950
6,050333	0,5	5,664400
6,058667	0,5	5,634050
6,067000	0,5	5,606450
6,075333	0,5	5,578250
6,083667	0,5	5,555000
6,092000	0,5	5,524300
6,100333	0,5	5,502950
6,108667	0,5	5,487250
6,117000	0,5	5,460550
6,125333	0,5	5,438300
6,133667	0,5	5,425400
6,142000	0,5	5,410500
6,150333	0,5	5,412600
6,158667	0,5	5,403700
6,167000	0,5	5,397200
6,175333	0,5	5,382750
6,183667	0,5	5,374300
6,192000	0,5	5,358650
6,200333	0,5	5,346600
6,208667	0,5	5,325900
6,217000	0,5	5,305350
6,225333	0,5	5,288800
6,233667	0,5	5,268850
6,242000	0,5	5,249100
6,250333	0,5	5,228100
6,258667	0,5	5,215100
6,267000	0,5	5,178850
6,275333	0,5	5,147050
6,283667	0,5	5,116050
6,292000	0,5	5,093750
6,300333	0,5	5,073250
6,308667	0,5	5,050650
6,317000	0,5	5,021400
6,325333	0,5	5,000150
6,333667	0,5	4,978350
6,342000	0,5	4,964950
6,350333	0,5	4,947850
6,358667	0,5	4,933650
6,367000	0,5	4,921000
6,375333	0,5	4,908800
6,383667	0,5	4,898300
6,392000	0,5	4,876200
6,400333	0,5	4,866850
6,408667	0,5	4,859600
6,417000	0,5	4,841000
6,425333	0,5	4,824300
6,433667	0,5	4,813100
6,442000	0,5	4,805150
6,450333	0,5	4,793950
6,458667	0,5	4,778600
6,467000	0,5	4,763750
6,475333	0,5	4,750800
6,483667	0,5	4,749700
6,492000	0,5	4,740500
6,500333	0,5	4,740200
6,508667	0,5	4,734050
6,517000	0,5	4,741000
6,525333	0,5	4,745500
6,533667	0,5	4,751150
6,542000	0,5	4,758450
6,550333	0,5	4,785200
6,558667	0,5	4,806100
6,567000	0,5	4,821450
6,575333	0,5	4,854100
6,583667	0,5	4,895600
6,592000	0,5	4,960150
6,600333	0,5	5,034350
6,608667	0,5	5,126550
6,617000	0,5	5,242500
6,625333	0,5	5,377000
6,633667	0,5	5,516250
6,642000	0,5	5,646000
6,650333	0,5	5,742950
6,658667	0,5	5,803050
6,667000	0,5	5,814900
6,675333	0,5	5,785750
6,683667	0,5	5,719900
6,692000	0,5	5,648700
6,700333	0,5	5,595900
6,708667	0,5	5,551250
6,717000	0,5	5,536750
6,725333	0,5	5,578050
6,733667	0,5	5,673850
6,742000	0,5	5,839700
6,750333	0,5	6,054250
6,758667	0,5	6,342250
6,767000	0,5	6,711350
6,775333	0,5	7,167100
6,783667	0,5	7,703200
6,792000	0,5	8,307300
6,800333	0,5	8,967800
6,808667	0,5	9,645900
6,817000	0,5	10,317050
6,825333	0,5	10,916650
6,833667	0,5	11,406350
6,842000	0,5	11,725100
6,850333	0,5	11,877350
6,858667	0,5	11,796300
6,867000	0,5	11,537000
6,875333	0,5	11,101400
6,883667	0,5	10,541300
6,892000	0,5	9,890850
6,900333	0,5	9,174250
6,908667	0,5	8,460500
6,917000	0,5	7,780750
6,925333	0,5	7,157750
6,933667	0,5	6,626800
6,942000	0,5	6,177800
6,950333	0,5	5,826350
6,958667	0,5	5,565950
6,967000	0,5	5,378750
6,975333	0,5	5,261400
6,983667	0,5	5,184300
6,992000	0,5	5,148100
7,000333	0,5	5,139300
7,008667	0,5	5,134000
7,017000	0,5	5,141600
7,025333	0,5	5,161500
7,033667	0,5	5,182600
7,042000	0,5	5,208800
7,050333	0,5	5,213650
7,058667	0,5	5,221300
7,067000	0,5	5,222150
7,075333	0,5	5,228450
7,083667	0,5	5,238900
7,092000	0,5	5,263550
7,100333	0,5	5,291950
7,108667	0,5	5,324650
7,117000	0,5	5,335750
7,125333	0,5	5,307950
7,133667	0,5	5,250200
7,142000	0,5	5,171950
7,150333	0,5	5,070650
7,158667	0,5	4,977000
7,167000	0,5	4,915600
7,175333	0,5	4,894950
7,183667	0,5	4,937900
7,192000	0,5	5,036750
7,200333	0,5	5,190800
7,208667	0,5	5,400250
7,217000	0,5	5,661100
7,225333	0,5	5,966050
7,233667	0,5	6,318050
7,242000	0,5	6,713250
7,250333	0,5	7,181850
7,258667	0,5	7,753050
7,267000	0,5	8,512400
7,275333	0,5	9,604300
7,283667	0,5	11,301250
7,292000	0,5	13,988600
7,300333	0,5	18,113800
7,308667	0,5	23,983950
7,317000	0,5	31,483100
7,325333	0,5	39,814551
7,333667	0,5	47,603201
7,342000	0,5	53,275101
7,350333	0,5	55,738801
7,358667	0,5	54,674501
7,367000	0,5	50,458451
7,375333	0,5	44,002601
7,383667	0,5	36,426151
7,392000	0,5	28,865200
7,400333	0,5	22,163950
7,408667	0,5	16,794300
7,417000	0,5	12,829700
7,425333	0,5	10,081750
7,433667	0,5	8,270750
7,442000	0,5	7,117200
7,450333	0,5	6,368850
7,458667	0,5	5,891000
7,467000	0,5	5,578800
7,475333	0,5	5,379900
7,483667	0,5	5,254650
7,492000	0,5	5,163150
7,500333	0,5	5,116300
7,508667	0,5	5,083100
7,517000	0,5	5,055700
7,525333	0,5	5,013850
7,533667	0,5	4,966100
7,542000	0,5	4,895600
7,550333	0,5	4,826150
7,558667	0,5	4,764800
7,567000	0,5	4,728400
7,575333	0,5	4,720600
7,583667	0,5	4,759850
7,592000	0,5	4,818250
7,600333	0,5	4,862450
7,608667	0,5	4,869200
7,617000	0,5	4,827700
7,625333	0,5	4,752500
7,633667	0,5	4,660950
7,642000	0,5	4,574600
7,650333	0,5	4,513050
7,658667	0,5	4,473450
7,667000	0,5	4,454850
7,675333	0,5	4,456250
7,683667	0,5	4,474550
7,692000	0,5	4,514900
7,700333	0,5	4,569350
7,708667	0,5	4,622450
7,717000	0,5	4,652150
7,725333	0,5	4,651000
7,733667	0,5	4,630350
7,742000	0,5	4,587800
7,750333	0,5	4,531600
7,758667	0,5	4,479250
7,767000	0,5	4,430150
7,775333	0,5	4,393050
7,783667	0,5	4,351250
7,792000	0,5	4,316100
7,800333	0,5	4,285500
7,808667	0,5	4,267000
7,817000	0,5	4,267750
7,825333	0,5	4,285500
7,833667	0,5	4,314450
7,842000	0,5	4,339450
7,850333	0,5	4,349900
7,858667	0,5	4,337650
7,867000	0,5	4,302250
7,875333	0,5	4,258300
7,883667	0,5	4,205750
7,892000	0,5	4,153750
7,900333	0,5	4,107900
7,908667	0,5	4,080550
7,917000	0,5	4,077750
7,925333	0,5	4,094100
7,933667	0,5	4,126100
7,942000	0,5	4,169050
7,950333	0,5	4,216650
7,958667	0,5	4,244700
7,967000	0,5	4,257200
7,975333	0,5	4,243200
7,983667	0,5	4,208300
7,992000	0,5	4,158250
8,000333	0,5	4,101400
8,008667	0,5	4,044800
8,017000	0,5	4,002300
8,025333	0,5	3,977850
8,033667	0,5	3,980200
8,042000	0,5	4,001600
8,050333	0,5	4,046600
8,058667	0,5	4,113450
8,067000	0,5	4,193100
8,075333	0,5	4,261800
8,083667	0,5	4,279250
8,092000	0,5	4,240750
8,100333	0,5	4,152300
8,108667	0,5	4,049150
8,117000	0,5	3,951150
8,125333	0,5	3,880350
8,133667	0,5	3,824600
8,142000	0,5	3,789900
8,150333	0,5	3,763600
8,158667	0,5	3,737550
8,167000	0,5	3,714400
8,175333	0,5	3,701950
8,183667	0,5	3,688100
8,192000	0,5	3,677600
8,200333	0,5	3,667600
8,208667	0,5	3,655500
8,217000	0,5	3,648800
8,225333	0,5	3,640200
8,233667	0,5	3,630100
8,242000	0,5	3,618800
8,250333	0,5	3,608450
8,258667	0,5	3,600250
8,267000	0,5	3,586450
8,275333	0,5	3,577600
8,283667	0,5	3,567650
8,292000	0,5	3,560050
8,300333	0,5	3,546900
8,308667	0,5	3,538600
8,317000	0,5	3,540150
8,325333	0,5	3,549500
8,333667	0,5	3,560250
8,342000	0,5	3,580400
8,350333	0,5	3,604950
8,358667	0,5	3,631900
8,367000	0,5	3,660350
8,375333	0,5	3,675850
8,383667	0,5	3,685850
8,392000	0,5	3,695900
8,400333	0,5	3,708150
8,408667	0,5	3,724400
8,417000	0,5	3,738700
8,425333	0,5	3,762700
8,433667	0,5	3,779900
8,442000	0,5	3,792800
8,450333	0,5	3,790250
8,458667	0,5	3,784900
8,467000	0,5	3,786850
8,475333	0,5	3,817500
8,483667	0,5	3,882900
8,492000	0,5	4,007200
8,500333	0,5	4,189900
8,508667	0,5	4,426150
8,517000	0,5	4,689750
8,525333	0,5	4,962850
8,533667	0,5	5,252150
8,542000	0,5	5,596050
8,550333	0,5	6,032200
8,558667	0,5	6,626000
8,567000	0,5	7,467050
8,575333	0,5	8,756600
8,583667	0,5	10,831050
8,592000	0,5	14,159800
8,600333	0,5	19,200850
8,608667	0,5	26,078000
8,617000	0,5	34,325701
8,625333	0,5	42,700951
8,633667	0,5	49,489101
8,642000	0,5	53,178201
8,650333	0,5	53,006751
8,658667	0,5	49,186251
8,667000	0,5	42,783501
8,675333	0,5	35,246351
8,683667	0,5	27,917200
8,692000	0,5	21,697150
8,700333	0,5	16,997400
8,708667	0,5	13,845950
8,717000	0,5	12,130850
8,725333	0,5	11,730950
8,733667	0,5	12,510050
8,742000	0,5	14,151850
8,750333	0,5	16,205250
8,758667	0,5	18,368550
8,767000	0,5	20,616900
8,775333	0,5	22,988300
8,783667	0,5	25,249900
8,792000	0,5	26,994000
8,800333	0,5	27,873500
8,808667	0,5	27,749550
8,817000	0,5	26,650050
8,825333	0,5	24,792900
8,833667	0,5	22,448450
8,842000	0,5	19,909500
8,850333	0,5	17,414450
8,858667	0,5	15,131050
8,867000	0,5	13,170850
8,875333	0,5	11,552200
8,883667	0,5	10,242150
8,892000	0,5	9,184500
8,900333	0,5	8,315400
8,908667	0,5	7,605650
8,917000	0,5	7,039250
8,925333	0,5	6,620750
8,933667	0,5	6,316300
8,942000	0,5	6,133700
8,950333	0,5	6,045750
8,958667	0,5	6,030800
8,967000	0,5	6,049400
8,975333	0,5	6,068200
8,983667	0,5	6,058800
8,992000	0,5	6,009550
9,000333	0,5	5,920650
9,008667	0,5	5,793400
9,017000	0,5	5,650700
9,025333	0,5	5,504900
9,033667	0,5	5,367200
9,042000	0,5	5,239050
9,050333	0,5	5,115350
9,058667	0,5	5,000200
9,067000	0,5	4,879350
9,075333	0,5	4,756950
9,083667	0,5	4,627150
9,092000	0,5	4,496800
9,100333	0,5	4,364950
9,108667	0,5	4,244750
9,117000	0,5	4,137250
9,125333	0,5	4,039250
9,133667	0,5	3,953600
9,142000	0,5	3,882300
9,150333	0,5	3,828900
9,158667	0,5	3,787000
9,167000	0,5	3,765300
9,175333	0,5	3,767700
9,183667	0,5	3,788950
9,192000	0,5	3,829300
9,200333	0,5	3,867500
9,208667	0,5	3,891800
9,217000	0,5	3,888050
9,225333	0,5	3,849450
9,233667	0,5	3,799550
9,242000	0,5	3,751450
9,250333	0,5	3,726100
9,258667	0,5	3,726800
9,267000	0,5	3,738900
9,275333	0,5	3,752550
9,283667	0,5	3,759550
9,292000	0,5	3,749300
9,300333	0,5	3,718500
9,308667	0,5	3,677650
9,317000	0,5	3,635500
9,325333	0,5	3,594950
9,333667	0,5	3,565400
9,342000	0,5	3,544450
9,350333	0,5	3,535250
9,358667	0,5	3,538400
9,367000	0,5	3,550750
9,375333	0,5	3,567300
9,383667	0,5	3,593900
9,392000	0,5	3,628050
9,400333	0,5	3,677400
9,408667	0,5	3,727950
9,417000	0,5	3,789150
9,425333	0,5	3,858250
9,433667	0,5	3,935000
9,442000	0,5	4,029850
9,450333	0,5	4,145600
9,458667	0,5	4,288450
9,467000	0,5	4,466850
9,475333	0,5	4,688500
9,483667	0,5	4,937550
9,492000	0,5	5,194100
9,500333	0,5	5,420350
9,508667	0,5	5,569500
9,517000	0,5	5,616150
9,525333	0,5	5,527800
9,533667	0,5	5,325950
9,542000	0,5	5,044950
9,550333	0,5	4,714550
9,558667	0,5	4,376600
9,567000	0,5	4,076950
9,575333	0,5	3,831500
9,583667	0,5	3,637350
9,592000	0,5	3,501500
9,600333	0,5	3,413400
9,608667	0,5	3,359900
9,617000	0,5	3,330200
9,625333	0,5	3,317950
9,633667	0,5	3,320300
9,642000	0,5	3,335050
9,650333	0,5	3,354000
9,658667	0,5	3,390300
9,667000	0,5	3,434400
9,675333	0,5	3,488900
9,683667	0,5	3,553650
9,692000	0,5	3,605700
9,700333	0,5	3,636750
9,708667	0,5	3,640100
9,717000	0,5	3,608550
9,725333	0,5	3,564650
9,733667	0,5	3,507500
9,742000	0,5	3,457500
9,750333	0,5	3,419350
9,758667	0,5	3,381900
9,767000	0,5	3,353250
9,775333	0,5	3,328700
9,783667	0,5	3,307750
9,792000	0,5	3,296150
9,800333	0,5	3,285350
9,808667	0,5	3,288050
9,817000	0,5	3,286600
9,825333	0,5	3,280100
9,833667	0,5	3,269300
9,842000	0,5	3,249650
9,850333	0,5	3,224650
9,858667	0,5	3,198450
9,867000	0,5	3,165150
9,875333	0,5	3,134550
9,883667	0,5	3,107000
9,892000	0,5	3,089600
9,900333	0,5	3,084100
9,908667	0,5	3,085100
9,917000	0,5	3,090000
9,925333	0,5	3,097750
9,933667	0,5	3,094850
9,942000	0,5	3,086850
9,950333	0,5	3,070800
9,958667	0,5	3,051750
9,967000	0,5	3,035350
9,975333	0,5	3,030550
9,983667	0,5	3,031250
9,992000	0,5	3,044750
10,000333	0,5	3,068050
10,008667	0,5	3,095750
10,017000	0,5	3,134750
10,025333	0,5	3,180000
10,033667	0,5	3,239250
10,042000	0,5	3,296400
10,050333	0,5	3,353750
10,058667	0,5	3,394300
10,067000	0,5	3,411800
10,075333	0,5	3,410900
10,083667	0,5	3,383450
10,092000	0,5	3,342350
10,100333	0,5	3,285700
10,108667	0,5	3,211100
10,117000	0,5	3,122600
10,125333	0,5	3,035650
10,133667	0,5	2,950050
10,142000	0,5	2,880050
10,150333	0,5	2,826350
10,158667	0,5	2,789250
10,167000	0,5	2,763400
10,175333	0,5	2,748750
10,183667	0,5	2,741450
10,192000	0,5	2,737150
10,200333	0,5	2,743100
10,208667	0,5	2,751050
10,217000	0,5	2,764500
10,225333	0,5	2,783200
10,233667	0,5	2,802900
10,242000	0,5	2,821900
10,250333	0,5	2,841650
10,258667	0,5	2,852250
10,267000	0,5	2,863500
10,275333	0,5	2,871550
10,283667	0,5	2,871300
10,292000	0,5	2,871900
10,300333	0,5	2,880250
10,308667	0,5	2,890600
10,317000	0,5	2,918250
10,325333	0,5	2,960000
10,333667	0,5	3,021850
10,342000	0,5	3,098500
10,350333	0,5	3,165100
10,358667	0,5	3,211550
10,367000	0,5	3,219300
10,375333	0,5	3,190550
10,383667	0,5	3,115450
10,392000	0,5	3,024450
10,400333	0,5	2,928050
10,408667	0,5	2,845950
10,417000	0,5	2,768800
10,425333	0,5	2,709600
10,433667	0,5	2,662250
10,442000	0,5	2,619350
10,450333	0,5	2,581650
10,458667	0,5	2,553250
10,467000	0,5	2,532700
10,475333	0,5	2,517800
10,483667	0,5	2,507350
10,492000	0,5	2,503900
10,500333	0,5	2,499800
10,508667	0,5	2,499150
10,517000	0,5	2,500600
10,525333	0,5	2,507650
10,533667	0,5	2,516600
10,542000	0,5	2,536900
10,550333	0,5	2,556550
10,558667	0,5	2,580550
10,567000	0,5	2,597750
10,575333	0,5	2,611100
10,583667	0,5	2,622550
10,592000	0,5	2,635950
10,600333	0,5	2,657250
10,608667	0,5	2,690750
10,617000	0,5	2,737000
10,625333	0,5	2,792850
10,633667	0,5	2,845750
10,642000	0,5	2,881800
10,650333	0,5	2,896400
10,658667	0,5	2,884450
10,667000	0,5	2,865200
10,675333	0,5	2,845050
10,683667	0,5	2,825050
10,692000	0,5	2,813700
10,700333	0,5	2,798450
10,708667	0,5	2,778200
10,717000	0,5	2,742650
10,725333	0,5	2,696950
10,733667	0,5	2,648150
10,742000	0,5	2,603600
10,750333	0,5	2,567250
10,758667	0,5	2,543650
10,767000	0,5	2,538450
10,775333	0,5	2,552150
10,783667	0,5	2,585950
10,792000	0,5	2,647100
10,800333	0,5	2,716350
10,808667	0,5	2,794750
10,817000	0,5	2,868100
10,825333	0,5	2,924650
10,833667	0,5	2,953100
10,842000	0,5	2,970400
10,850333	0,5	2,968000
10,858667	0,5	2,958350
10,867000	0,5	2,946650
10,875333	0,5	2,927350
10,883667	0,5	2,907550
10,892000	0,5	2,868950
10,900333	0,5	2,810300
10,908667	0,5	2,747350
10,917000	0,5	2,686250
10,925333	0,5	2,630150
10,933667	0,5	2,593500
10,942000	0,5	2,564350
10,950333	0,5	2,547400
10,958667	0,5	2,529950
10,967000	0,5	2,510750
10,975333	0,5	2,486000
10,983667	0,5	2,466400
10,992000	0,5	2,456300
11,000333	0,5	2,452050
11,008667	0,5	2,458550
11,017000	0,5	2,480900
11,025333	0,5	2,515800
11,033667	0,5	2,562150
11,042000	0,5	2,616450
11,050333	0,5	2,682300
11,058667	0,5	2,756100
11,067000	0,5	2,850950
11,075333	0,5	2,972700
11,083667	0,5	3,126800
11,092000	0,5	3,313900
11,100333	0,5	3,548350
11,108667	0,5	3,838700
11,117000	0,5	4,184150
11,125333	0,5	4,569500
11,133667	0,5	4,947450
11,142000	0,5	5,258700
11,150333	0,5	5,441900
11,158667	0,5	5,481950
11,167000	0,5	5,379650
11,175333	0,5	5,165400
11,183667	0,5	4,883450
11,192000	0,5	4,565000
11,200333	0,5	4,265400
11,208667	0,5	4,007400
11,217000	0,5	3,822350
11,225333	0,5	3,723550
11,233667	0,5	3,701050
11,242000	0,5	3,745050
11,250333	0,5	3,834750
11,258667	0,5	3,944600
11,267000	0,5	4,045000
11,275333	0,5	4,106100
11,283667	0,5	4,121250
11,292000	0,5	4,065450
11,300333	0,5	3,948650
11,308667	0,5	3,788150
11,317000	0,5	3,606650
11,325333	0,5	3,431250
11,333667	0,5	3,277050
11,342000	0,5	3,148300
11,350333	0,5	3,054100
11,358667	0,5	2,981050
11,367000	0,5	2,939950
11,375333	0,5	2,919200
11,383667	0,5	2,915500
11,392000	0,5	2,938900
11,400333	0,5	2,985000
11,408667	0,5	3,057550
11,417000	0,5	3,144050
11,425333	0,5	3,234350
11,433667	0,5	3,318450
11,442000	0,5	3,377900
11,450333	0,5	3,407700
11,458667	0,5	3,414700
11,467000	0,5	3,418900
11,475333	0,5	3,439200
11,483667	0,5	3,479800
11,492000	0,5	3,548850
11,500333	0,5	3,639750
11,508667	0,5	3,745850
11,517000	0,5	3,843500
11,525333	0,5	3,916250
11,533667	0,5	3,954050
11,542000	0,5	3,954700
11,550333	0,5	3,924700
11,558667	0,5	3,878750
11,567000	0,5	3,816500
11,575333	0,5	3,766600
11,583667	0,5	3,697800
11,592000	0,5	3,628600
11,600333	0,5	3,551600
11,608667	0,5	3,459800
11,617000	0,5	3,369650
11,625333	0,5	3,275150
11,633667	0,5	3,180750
11,642000	0,5	3,092450
11,650333	0,5	3,013550
11,658667	0,5	2,947950
11,667000	0,5	2,905900
11,675333	0,5	2,874200
11,683667	0,5	2,856350
11,692000	0,5	2,844700
11,700333	0,5	2,836450
11,708667	0,5	2,833050
11,717000	0,5	2,821950
11,725333	0,5	2,812700
11,733667	0,5	2,785250
11,742000	0,5	2,762450
11,750333	0,5	2,734450
11,758667	0,5	2,707000
11,767000	0,5	2,690900
11,775333	0,5	2,673550
11,783667	0,5	2,663200
11,792000	0,5	2,656950
11,800333	0,5	2,650800
11,808667	0,5	2,650650
11,817000	0,5	2,638100
11,825333	0,5	2,629450
11,833667	0,5	2,608200
11,842000	0,5	2,590650
11,850333	0,5	2,570650
11,858667	0,5	2,564600
11,867000	0,5	2,555250
11,875333	0,5	2,558100
11,883667	0,5	2,556600
11,892000	0,5	2,551550
11,900333	0,5	2,539150
11,908667	0,5	2,521750
11,917000	0,5	2,512300
11,925333	0,5	2,499000
11,933667	0,5	2,486550
11,942000	0,5	2,482350
11,950333	0,5	2,483000
11,958667	0,5	2,477850
11,967000	0,5	2,473900
11,975333	0,5	2,469200
11,983667	0,5	2,459000
11,992000	0,5	2,448050
12,000333	0,5	2,443000
12,008667	0,5	2,433700
12,017000	0,5	2,433200
12,025333	0,5	2,436400
12,033667	0,5	2,443350
12,042000	0,5	2,451150
12,050333	0,5	2,447300
12,058667	0,5	2,434850
12,067000	0,5	2,449600
12,075333	0,5	2,505850
12,083667	0,5	2,684800
12,092000	0,5	2,979200
12,100333	0,5	3,401750
12,108667	0,5	3,849250
12,117000	0,5	4,078300
12,125333	0,5	4,194150
12,133667	0,5	4,076300
12,142000	0,5	3,689500
12,150333	0,5	3,069750
12,158667	0,5	2,376950
12,167000	0,5	1,761500
12,175333	0,5	1,346300
12,183667	0,5	1,061450
12,192000	0,5	0,868800
12,200333	0,5	0,725200
12,208667	0,5	0,623600
12,217000	0,5	0,550600
12,225333	0,5	0,494900
12,233667	0,5	0,445150
12,242000	0,5	0,412400
12,250333	0,5	0,381200
12,258667	0,5	0,358200
12,267000	0,5	0,341700
12,275333	0,5	0,327600
12,283667	0,5	0,311350
12,292000	0,5	0,299300
12,300333	0,5	0,285250
12,308667	0,5	0,266400
12,317000	0,5	0,260450
12,325333	0,5	0,249400
12,333667	0,5	0,233300
12,342000	0,5	0,217950
12,350333	0,5	0,203500
12,358667	0,5	0,194900
12,367000	0,5	0,185800
12,375333	0,5	0,176700
12,383667	0,5	0,172250
12,392000	0,5	0,166250
12,400333	0,5	0,160350
12,408667	0,5	0,157600
12,417000	0,5	0,162700
12,425333	0,5	0,162950
12,433667	0,5	0,165450
12,442000	0,5	0,168400
12,450333	0,5	0,171400
12,458667	0,5	0,171750
12,467000	0,5	0,178300
12,475333	0,5	0,178300
12,483667	0,5	0,173950
12,492000	0,5	0,170050
12,500333	0,5	0,160450
12,508667	0,5	0,157850
12,517000	0,5	0,146500
12,525333	0,5	0,138000
12,533667	0,5	0,126200
12,542000	0,5	0,116650
12,550333	0,5	0,107100
12,558667	0,5	0,100300
12,567000	0,5	0,091700
12,575333	0,5	0,088450
12,583667	0,5	0,085450
12,592000	0,5	0,087750
12,600333	0,5	0,076900
12,608667	0,5	0,082500
12,617000	0,5	0,082000
12,625333	0,5	0,079900
12,633667	0,5	0,074100
12,642000	0,5	0,068700
12,650333	0,5	0,070900
12,658667	0,5	0,072600
12,667000	0,5	0,072450
12,675333	0,5	0,069000
12,683667	0,5	0,073750
12,692000	0,5	0,068000
12,700333	0,5	0,070450
12,708667	0,5	0,072300
12,717000	0,5	0,075950
12,725333	0,5	0,077950
12,733667	0,5	0,087600
12,742000	0,5	0,096600
12,750333	0,5	0,103650
12,758667	0,5	0,125250
12,767000	0,5	0,145050
12,775333	0,5	0,167900
12,783667	0,5	0,191800
12,792000	0,5	0,211550
12,800333	0,5	0,244550
12,808667	0,5	0,273200
12,817000	0,5	0,302600
12,825333	0,5	0,327000
12,833667	0,5	0,344700
12,842000	0,5	0,363100
12,850333	0,5	0,370850
12,858667	0,5	0,379300
12,867000	0,5	0,378450
12,875333	0,5	0,377200
12,883667	0,5	0,368950
12,892000	0,5	0,367050
12,900333	0,5	0,356100
12,908667	0,5	0,355250
12,917000	0,5	0,351050
12,925333	0,5	0,345250
12,933667	0,5	0,337300
12,942000	0,5	0,332200
12,950333	0,5	0,332600
12,958667	0,5	0,336750
12,967000	0,5	0,337450
12,975333	0,5	0,342050
12,983667	0,5	0,339200
12,992000	0,5	0,339250
13,000333	0,5	0,343650
13,008667	0,5	0,344600
13,017000	0,5	0,344550
13,025333	0,5	0,344500
13,033667	0,5	0,348750
13,042000	0,5	0,344050
13,050333	0,5	0,346150
13,058667	0,5	0,352350
13,067000	0,5	0,351050
13,075333	0,5	0,344700
13,083667	0,5	0,344200
13,092000	0,5	0,341200
13,100333	0,5	0,346000
13,108667	0,5	0,349050
13,117000	0,5	0,353300
13,125333	0,5	0,352000
13,133667	0,5	0,355450
13,142000	0,5	0,358900
13,150333	0,5	0,358700
13,158667	0,5	0,360650
13,167000	0,5	0,363200
13,175333	0,5	0,370950
13,183667	0,5	0,376250
13,192000	0,5	0,377300
13,200333	0,5	0,389900
13,208667	0,5	0,400000
13,217000	0,5	0,403950
13,225333	0,5	0,407250
13,233667	0,5	0,402900
13,242000	0,5	0,403050
13,250333	0,5	0,396400
13,258667	0,5	0,393850
13,267000	0,5	0,373100
13,275333	0,5	0,362300
13,283667	0,5	0,352550
13,292000	0,5	0,342450
13,300333	0,5	0,330600
13,308667	0,5	0,321800
13,317000	0,5	0,317950
13,325333	0,5	0,315300
13,333667	0,5	0,308950
13,342000	0,5	0,307700
13,350333	0,5	0,314650
13,358667	0,5	0,329900
13,367000	0,5	0,341300
13,375333	0,5	0,361100
13,383667	0,5	0,389050
13,392000	0,5	0,429800
13,400333	0,5	0,475650
13,408667	0,5	0,515900
13,417000	0,5	0,549100
13,425333	0,5	0,565100
13,433667	0,5	0,571650
13,442000	0,5	0,564200
13,450333	0,5	0,549500
13,458667	0,5	0,529450
13,467000	0,5	0,502100
13,475333	0,5	0,485850
13,483667	0,5	0,468150
13,492000	0,5	0,462850
13,500333	0,5	0,468750
13,508667	0,5	0,479000
13,517000	0,5	0,496100
13,525333	0,5	0,515000
13,533667	0,5	0,548550
13,542000	0,5	0,600100
13,550333	0,5	0,629650
13,558667	0,5	0,656250
13,567000	0,5	0,663800
13,575333	0,5	0,667800
13,583667	0,5	0,659900
13,592000	0,5	0,641750
13,600333	0,5	0,618750
13,608667	0,5	0,597250
13,617000	0,5	0,584600
13,625333	0,5	0,583950
13,633667	0,5	0,582200
13,642000	0,5	0,616400
13,650333	0,5	0,646550
13,658667	0,5	0,677550
13,667000	0,5	0,702700
13,675333	0,5	0,714750
13,683667	0,5	0,731900
13,692000	0,5	0,738800
13,700333	0,5	0,738950
13,708667	0,5	0,724600
13,717000	0,5	0,715100
13,725333	0,5	0,701600
13,733667	0,5	0,696800
13,742000	0,5	0,690900
13,750333	0,5	0,695000
13,758667	0,5	0,697250
13,767000	0,5	0,707450
13,775333	0,5	0,709750
13,783667	0,5	0,703050
13,792000	0,5	0,712300
13,800333	0,5	0,715850
13,808667	0,5	0,711950
13,817000	0,5	0,706900
13,825333	0,5	0,695850
13,833667	0,5	0,702600
13,842000	0,5	0,710050
13,850333	0,5	0,717400
13,858667	0,5	0,727850
13,867000	0,5	0,743000
13,875333	0,5	0,761100
13,883667	0,5	0,780700
13,892000	0,5	0,798250
13,900333	0,5	0,812300
13,908667	0,5	0,818950
13,917000	0,5	0,819100
13,925333	0,5	0,814950
13,933667	0,5	0,795650
13,942000	0,5	0,799200
13,950333	0,5	0,790750
13,958667	0,5	0,792850
13,967000	0,5	0,787100
13,975333	0,5	0,783650
13,983667	0,5	0,789900
13,992000	0,5	0,793600
14,000333	0,5	0,796800
14,008667	0,5	0,810350
14,017000	0,5	0,820750
14,025333	0,5	0,835900
14,033667	0,5	0,847200
14,042000	0,5	0,858600
14,050333	0,5	0,865050
14,058667	0,5	0,870800
14,067000	0,5	0,880350
14,075333	0,5	0,881650
14,083667	0,5	0,900600
14,092000	0,5	0,915450
14,100333	0,5	0,923750
14,108667	0,5	0,930100
14,117000	0,5	0,936850
14,125333	0,5	0,938700
14,133667	0,5	0,951500
14,142000	0,5	0,950750
14,150333	0,5	0,956650
14,158667	0,5	0,957850
14,167000	0,5	0,958500
14,175333	0,5	0,954450
14,183667	0,5	0,954600
14,192000	0,5	0,952400
14,200333	0,5	0,949100
14,208667	0,5	0,955850
14,217000	0,5	0,953450
14,225333	0,5	0,942650
14,233667	0,5	0,947050
14,242000	0,5	0,948200
14,250333	0,5	0,937750
14,258667	0,5	0,926850
14,267000	0,5	0,917250
14,275333	0,5	0,916050
14,283667	0,5	0,914250
14,292000	0,5	0,919850
14,300333	0,5	0,918600
14,308667	0,5	0,922950
14,317000	0,5	0,919350
14,325333	0,5	0,921650
14,333667	0,5	0,914050
14,342000	0,5	0,909550
14,350333	0,5	0,907900
14,358667	0,5	0,914200
14,367000	0,5	0,902550
14,375333	0,5	0,906800
14,383667	0,5	0,908400
14,392000	0,5	0,906250
14,400333	0,5	0,901250
14,408667	0,5	0,885550
14,417000	0,5	0,886550
14,425333	0,5	0,889350
14,433667	0,5	0,891350
14,442000	0,5	0,888800
14,450333	0,5	0,886850
14,458667	0,5	0,883950
14,467000	0,5	0,880700
14,475333	0,5	0,876100
14,483667	0,5	0,875650
14,492000	0,5	0,873450
14,500333	0,5	0,873900
14,508667	0,5	0,872200
14,517000	0,5	0,860650
14,525333	0,5	0,861950
14,533667	0,5	0,862900
14,542000	0,5	0,858300
14,550333	0,5	0,847650
14,558667	0,5	0,826750
14,567000	0,5	0,820500
14,575333	0,5	0,819850
14,583667	0,5	0,817050
14,592000	0,5	0,812100
14,600333	0,5	0,804200
14,608667	0,5	0,804150
14,617000	0,5	0,792500
14,625333	0,5	0,788750
14,633667	0,5	0,775250
14,642000	0,5	0,767800
14,650333	0,5	0,762250
14,658667	0,5	0,766100
14,667000	0,5	0,743950
14,675333	0,5	0,754550
14,683667	0,5	0,748700
14,692000	0,5	0,743450
14,700333	0,5	0,731950
14,708667	0,5	0,713850
14,717000	0,5	0,715850
14,725333	0,5	0,711650
14,733667	0,5	0,710550
14,742000	0,5	0,704600
14,750333	0,5	0,702200
14,758667	0,5	0,697000
14,767000	0,5	0,693350
14,775333	0,5	0,688650
14,783667	0,5	0,687100
14,792000	0,5	0,681100
14,800333	0,5	0,689150
14,808667	0,5	0,678750
14,817000	0,5	0,663600
14,825333	0,5	0,668800
14,833667	0,5	0,662900
14,842000	0,5	0,655850
14,850333	0,5	0,643950
14,858667	0,5	0,632050
14,867000	0,5	0,640350
14,875333	0,5	0,637550
14,883667	0,5	0,636200
14,892000	0,5	0,631050
14,900333	0,5	0,634050
14,908667	0,5	0,635250
14,917000	0,5	0,636900
14,925333	0,5	0,633600
14,933667	0,5	0,630750
14,942000	0,5	0,636450
14,950333	0,5	0,641250
14,958667	0,5	0,637950
14,967000	0,5	0,638350
14,975333	0,5	0,655400
14,983667	0,5	0,653350
14,992000	0,5	0,656000
15,000333	0,5	0,646600
15,008667	0,5	0,645200
15,017000	0,5	0,648800
15,025333	0,5	0,656350
15,033667	0,5	0,650150
15,042000	0,5	0,652550
15,050333	0,5	0,653600
15,058667	0,5	0,654800
15,067000	0,5	0,656550
15,075333	0,5	0,662250
15,083667	0,5	0,671700
15,092000	0,5	0,679450
15,100333	0,5	0,688800
15,108667	0,5	0,685450
15,117000	0,5	0,694600
15,125333	0,5	0,694000
15,133667	0,5	0,682800
15,142000	0,5	0,668100
15,150333	0,5	0,661050
15,158667	0,5	0,660600
15,167000	0,5	0,680850
15,175333	0,5	0,695600
15,183667	0,5	0,716000
15,192000	0,5	0,727500
15,200333	0,5	0,737350
15,208667	0,5	0,722050
15,217000	0,5	0,706700
15,225333	0,5	0,684350
15,233667	0,5	0,665600
15,242000	0,5	0,654600
15,250333	0,5	0,646350
15,258667	0,5	0,625500
15,267000	0,5	0,616600
15,275333	0,5	0,600950
15,283667	0,5	0,575600
15,292000	0,5	0,550000
15,300333	0,5	0,535750
15,308667	0,5	0,530900
15,317000	0,5	0,519950
15,325333	0,5	0,516650
15,333667	0,5	0,501000
15,342000	0,5	0,501200
15,350333	0,5	0,485550
15,358667	0,5	0,484350
15,367000	0,5	0,475300
15,375333	0,5	0,467200
15,383667	0,5	0,464900
15,392000	0,5	0,461450
15,400333	0,5	0,441850
15,408667	0,5	0,441600
15,417000	0,5	0,445800
15,425333	0,5	0,441450
15,433667	0,5	0,444850
15,442000	0,5	0,431800
15,450333	0,5	0,434750
15,458667	0,5	0,434400
15,467000	0,5	0,434800
15,475333	0,5	0,427750
15,483667	0,5	0,427500
15,492000	0,5	0,417200
15,500333	0,5	0,417100
15,508667	0,5	0,417700
15,517000	0,5	0,415400
15,525333	0,5	0,412100
15,533667	0,5	0,413700
15,542000	0,5	0,412750
15,550333	0,5	0,393600
15,558667	0,5	0,393550
15,567000	0,5	0,393250
15,575333	0,5	0,383800
15,583667	0,5	0,374350
15,592000	0,5	0,356800
15,600333	0,5	0,357100
15,608667	0,5	0,355900
15,617000	0,5	0,347450
15,625333	0,5	0,342200
15,633667	0,5	0,332200
15,642000	0,5	0,328600
15,650333	0,5	0,322050
15,658667	0,5	0,320100
15,667000	0,5	0,313350
15,675333	0,5	0,306400
15,683667	0,5	0,303800
15,692000	0,5	0,305850
15,700333	0,5	0,287950
15,708667	0,5	0,299950
15,717000	0,5	0,299300
15,725333	0,5	0,293700
15,733667	0,5	0,281700
15,742000	0,5	0,271900
15,750333	0,5	0,275650
15,758667	0,5	0,280650
15,767000	0,5	0,278900
15,775333	0,5	0,279850
15,783667	0,5	0,287200
15,792000	0,5	0,295250
15,800333	0,5	0,297400
15,808667	0,5	0,295350
15,817000	0,5	0,293250
15,825333	0,5	0,291400
15,833667	0,5	0,297300
15,842000	0,5	0,283500
15,850333	0,5	0,274600
15,858667	0,5	0,273050
15,867000	0,5	0,270050
15,875333	0,5	0,257000
15,883667	0,5	0,249350
15,892000	0,5	0,241350
15,900333	0,5	0,247450
15,908667	0,5	0,247050
15,917000	0,5	0,244750
15,925333	0,5	0,232000
15,933667	0,5	0,223500
15,942000	0,5	0,209950
15,950333	0,5	0,203050
15,958667	0,5	0,194850
15,967000	0,5	0,181350
15,975333	0,5	0,180250
15,983667	0,5	0,175650
15,992000	0,5	0,164200
16,000333	0,5	0,164350
16,008667	0,5	0,173000
16,017000	0,5	0,165750
16,025333	0,5	0,160100
16,033667	0,5	0,143950
16,042000	0,5	0,143250
16,050333	0,5	0,144000
16,058667	0,5	0,144050
16,067000	0,5	0,136800
16,075333	0,5	0,141600
16,083667	0,5	0,139850
16,092000	0,5	0,144100
16,100333	0,5	0,147000
16,108667	0,5	0,145300
16,117000	0,5	0,153800
16,125333	0,5	0,149900
16,133667	0,5	0,150800
16,142000	0,5	0,151450
16,150333	0,5	0,163250
16,158667	0,5	0,165150
16,167000	0,5	0,163700
16,175333	0,5	0,150050
16,183667	0,5	0,141250
16,192000	0,5	0,134800
16,200333	0,5	0,137700
16,208667	0,5	0,126750
16,217000	0,5	0,129650
16,225333	0,5	0,121850
16,233667	0,5	0,117100
16,242000	0,5	0,109600
16,250333	0,5	0,108350
16,258667	0,5	0,104700
16,267000	0,5	0,096050
16,275333	0,5	0,095950
16,283667	0,5	0,081800
16,292000	0,5	0,083450
16,300333	0,5	0,090050
16,308667	0,5	0,089800
16,317000	0,5	0,084550
16,325333	0,5	0,075650
16,333667	0,5	0,066650
16,342000	0,5	0,069900
16,350333	0,5	0,067350
16,358667	0,5	0,067250
16,367000	0,5	0,060150
16,375333	0,5	0,064900
16,383667	0,5	0,053900
16,392000	0,5	0,047750
16,400333	0,5	0,039450
16,408667	0,5	0,024650
16,417000	0,5	0,025200
16,425333	0,5	0,017550
16,433667	0,5	-0,003200
16,442000	0,5	0,005550
16,450333	0,5	0,003550
16,458667	0,5	-0,000700
16,467000	0,5	-0,011950
16,475333	0,5	-0,029750
16,483667	0,5	-0,025400
16,492000	0,5	-0,030450
16,500333	0,5	-0,029250
16,508667	0,5	-0,035750
16,517000	0,5	-0,036900
16,525333	0,5	-0,040000
16,533667	0,5	-0,044800
16,542000	0,5	-0,047150
16,550333	0,5	-0,051450
16,558667	0,5	-0,061900
16,567000	0,5	-0,061450
16,575333	0,5	-0,067850
16,583667	0,5	-0,076950
16,592000	0,5	-0,067600
16,600333	0,5	-0,064900
16,608667	0,5	-0,072800
16,617000	0,5	-0,085300
16,625333	0,5	-0,095150
16,633667	0,5	-0,086300
16,642000	0,5	-0,085850
16,650333	0,5	-0,089750
16,658667	0,5	-0,082800
16,667000	0,5	-0,088100
16,675333	0,5	-0,079750
16,683667	0,5	-0,078650
16,692000	0,5	-0,075650
16,700333	0,5	-0,078150
16,708667	0,5	-0,078200
16,717000	0,5	-0,074200
16,725333	0,5	-0,075100
16,733667	0,5	-0,077300
16,742000	0,5	-0,061350
16,750333	0,5	-0,061950
16,758667	0,5	-0,068600
16,767000	0,5	-0,079650
16,775333	0,5	-0,079150
16,783667	0,5	-0,067200
16,792000	0,5	-0,062850
16,800333	0,5	-0,052050
16,808667	0,5	-0,042000
16,817000	0,5	-0,022600
16,825333	0,5	-0,000550
16,833667	0,5	0,025850
16,842000	0,5	0,055000
16,850333	0,5	0,087850
16,858667	0,5	0,113400
16,867000	0,5	0,144500
16,875333	0,5	0,139950
16,883667	0,5	0,158250
16,892000	0,5	0,153850
16,900333	0,5	0,142150
16,908667	0,5	0,122800
16,917000	0,5	0,104850
16,925333	0,5	0,104100
16,933667	0,5	0,113350
16,942000	0,5	0,129500
16,950333	0,5	0,156650
16,958667	0,5	0,191500
16,967000	0,5	0,232300
16,975333	0,5	0,274750
16,983667	0,5	0,309850
16,992000	0,5	0,343250
17,000333	0,5	0,354000
17,008667	0,5	0,354550
17,017000	0,5	0,333250
17,025333	0,5	0,298950
17,033667	0,5	0,282700
17,042000	0,5	0,261050
17,050333	0,5	0,240100
17,058667	0,5	0,222650
17,067000	0,5	0,207800
17,075333	0,5	0,218750
17,083667	0,5	0,228500
17,092000	0,5	0,246150
17,100333	0,5	0,261050
17,108667	0,5	0,278750
17,117000	0,5	0,296100
17,125333	0,5	0,314150
17,133667	0,5	0,322400
17,142000	0,5	0,324000
17,150333	0,5	0,332650
17,158667	0,5	0,324900
17,167000	0,5	0,311900
17,175333	0,5	0,291800
17,183667	0,5	0,287150
17,192000	0,5	0,261700
17,200333	0,5	0,237450
17,208667	0,5	0,199750
17,217000	0,5	0,179150
17,225333	0,5	0,161400
17,233667	0,5	0,148000
17,242000	0,5	0,135050
17,250333	0,5	0,122200
17,258667	0,5	0,110750
17,267000	0,5	0,107200
17,275333	0,5	0,097200
17,283667	0,5	0,090500
17,292000	0,5	0,083150
17,300333	0,5	0,074750
17,308667	0,5	0,073100
17,317000	0,5	0,050100
17,325333	0,5	0,058100
17,333667	0,5	0,060150
17,342000	0,5	0,055850
17,350333	0,5	0,048650
17,358667	0,5	0,035950
17,367000	0,5	0,032250
17,375333	0,5	0,034200
17,383667	0,5	0,023650
17,392000	0,5	0,020850
17,400333	0,5	0,014850
17,408667	0,5	0,013500
17,417000	0,5	0,001500
17,425333	0,5	-0,003300
17,433667	0,5	-0,014750
17,442000	0,5	-0,024350
17,450333	0,5	-0,022100
17,458667	0,5	-0,035500
17,467000	0,5	-0,052900
17,475333	0,5	-0,038550
17,483667	0,5	-0,036450
17,492000	0,5	-0,040850
17,500333	0,5	-0,041500
17,508667	0,5	-0,041600
17,517000	0,5	-0,011250
17,525333	0,5	0,010750
17,533667	0,5	0,046650
17,542000	0,5	0,080400
17,550333	0,5	0,131900
17,558667	0,5	0,174100
17,567000	0,5	0,235400
17,575333	0,5	0,288850
17,583667	0,5	0,356800
17,592000	0,5	0,407750
17,600333	0,5	0,453450
17,608667	0,5	0,446900
17,617000	0,5	0,424100
17,625333	0,5	0,364550
17,633667	0,5	0,278200
17,642000	0,5	0,170050
17,650333	0,5	0,060600
17,658667	0,5	-0,026950
17,667000	0,5	-0,097350
17,675333	0,5	-0,143700
17,683667	0,5	-0,186550
17,692000	0,5	-0,212750
17,700333	0,5	-0,233350
17,708667	0,5	-0,245300
17,717000	0,5	-0,252500
17,725333	0,5	-0,253850
17,733667	0,5	-0,263150
17,742000	0,5	-0,274350
17,750333	0,5	-0,267950
17,758667	0,5	-0,282150
17,767000	0,5	-0,273650
17,775333	0,5	-0,273700
17,783667	0,5	-0,282350
17,792000	0,5	-0,293300
17,800333	0,5	-0,318150
17,808667	0,5	-0,321850
17,817000	0,5	-0,325050
17,825333	0,5	-0,334400
17,833667	0,5	-0,339500
17,842000	0,5	-0,345050
17,850333	0,5	-0,348900
17,858667	0,5	-0,361300
17,867000	0,5	-0,365800
17,875333	0,5	-0,378300
17,883667	0,5	-0,385800
17,892000	0,5	-0,391300
17,900333	0,5	-0,397900
17,908667	0,5	-0,419950
17,917000	0,5	-0,409400
17,925333	0,5	-0,416850
17,933667	0,5	-0,422950
17,942000	0,5	-0,446200
17,950333	0,5	-0,463000
17,958667	0,5	-0,457900
17,967000	0,5	-0,459600
17,975333	0,5	-0,465000
17,983667	0,5	-0,468300
17,992000	0,5	-0,473350
18,000333	0,5	-0,474100
18,008667	0,5	-0,479400
18,017000	0,5	-0,486400
18,025333	0,5	-0,485150
18,033667	0,5	-0,490400
18,042000	0,5	-0,487250
18,050333	0,5	-0,498650
18,058667	0,5	-0,506750
18,067000	0,5	-0,502100
18,075333	0,5	-0,507700
18,083667	0,5	-0,520900
18,092000	0,5	-0,530250
18,100333	0,5	-0,545800
18,108667	0,5	-0,544500
18,117000	0,5	-0,546150
18,125333	0,5	-0,549150
18,133667	0,5	-0,556600
18,142000	0,5	-0,560300
18,150333	0,5	-0,564150
18,158667	0,5	-0,569350
18,167000	0,5	-0,572100
18,175333	0,5	-0,579700
18,183667	0,5	-0,578600
18,192000	0,5	-0,583900
18,200333	0,5	-0,596650
18,208667	0,5	-0,595950
18,217000	0,5	-0,594650
18,225333	0,5	-0,608100
18,233667	0,5	-0,618600
18,242000	0,5	-0,636900
18,250333	0,5	-0,637950
18,258667	0,5	-0,644500
18,267000	0,5	-0,643500
18,275333	0,5	-0,647650
18,283667	0,5	-0,652800
18,292000	0,5	-0,659500
18,300333	0,5	-0,662650
18,308667	0,5	-0,658800
18,317000	0,5	-0,668650
18,325333	0,5	-0,667000
18,333667	0,5	-0,668450
18,342000	0,5	-0,676400
18,350333	0,5	-0,686500
18,358667	0,5	-0,686350
18,367000	0,5	-0,679750
18,375333	0,5	-0,681850
18,383667	0,5	-0,696800
18,392000	0,5	-0,698000
18,400333	0,5	-0,703000
18,408667	0,5	-0,696450
18,417000	0,5	-0,704550
18,425333	0,5	-0,702800
18,433667	0,5	-0,704300
18,442000	0,5	-0,696700
18,450333	0,5	-0,690300
18,458667	0,5	-0,685800
18,467000	0,5	-0,684350
18,475333	0,5	-0,679950
18,483667	0,5	-0,660100
18,492000	0,5	-0,676000
18,500333	0,5	-0,654200
18,508667	0,5	-0,634600
18,517000	0,5	-0,615350
18,525333	0,5	-0,609950
18,533667	0,5	-0,612550
18,542000	0,5	-0,600150
18,550333	0,5	-0,575850
18,558667	0,5	-0,574300
18,567000	0,5	-0,557350
18,575333	0,5	-0,547050
18,583667	0,5	-0,526800
18,592000	0,5	-0,520950
18,600333	0,5	-0,508400
18,608667	0,5	-0,505850
18,617000	0,5	-0,500650
18,625333	0,5	-0,492950
18,633667	0,5	-0,489900
18,642000	0,5	-0,508350
18,650333	0,5	-0,498100
18,658667	0,5	-0,495550
18,667000	0,5	-0,510300
18,675333	0,5	-0,517300
18,683667	0,5	-0,544650
18,692000	0,5	-0,539200
18,700333	0,5	-0,556950
18,708667	0,5	-0,561600
18,717000	0,5	-0,572450
18,725333	0,5	-0,576000
18,733667	0,5	-0,589050
18,742000	0,5	-0,594550
18,750333	0,5	-0,604650
18,758667	0,5	-0,611750
18,767000	0,5	-0,628000
18,775333	0,5	-0,634550
18,783667	0,5	-0,640700
18,792000	0,5	-0,657700
18,800333	0,5	-0,650400
18,808667	0,5	-0,660100
18,817000	0,5	-0,670550
18,825333	0,5	-0,683300
18,833667	0,5	-0,704750
18,842000	0,5	-0,706250
18,850333	0,5	-0,699650
18,858667	0,5	-0,711950
18,867000	0,5	-0,710500
18,875333	0,5	-0,711050
18,883667	0,5	-0,708600
18,892000	0,5	-0,707350
18,900333	0,5	-0,704800
18,908667	0,5	-0,704650
18,917000	0,5	-0,705600
18,925333	0,5	-0,698450
18,933667	0,5	-0,700350
18,942000	0,5	-0,700800
18,950333	0,5	-0,694600
18,958667	0,5	-0,704600
18,967000	0,5	-0,718050
18,975333	0,5	-0,739750
18,983667	0,5	-0,756950
18,992000	0,5	-0,752300
19,000333	0,5	-0,763850
19,008667	0,5	-0,766150
19,017000	0,5	-0,778900
19,025333	0,5	-0,780750
19,033667	0,5	-0,783900
19,042000	0,5	-0,789700
19,050333	0,5	-0,790150
19,058667	0,5	-0,790300
19,067000	0,5	-0,787300
19,075333	0,5	-0,793700
19,083667	0,5	-0,813600
19,092000	0,5	-0,802300
19,100333	0,5	-0,808050
19,108667	0,5	-0,816850
19,117000	0,5	-0,827800
19,125333	0,5	-0,843950
19,133667	0,5	-0,843150
19,142000	0,5	-0,844350
19,150333	0,5	-0,836600
19,158667	0,5	-0,835300
19,167000	0,5	-0,824300
19,175333	0,5	-0,820500
19,183667	0,5	-0,811550
19,192000	0,5	-0,800350
19,200333	0,5	-0,791850
19,208667	0,5	-0,781400
19,217000	0,5	-0,769400
19,225333	0,5	-0,778000
19,233667	0,5	-0,772700
19,242000	0,5	-0,770150
19,250333	0,5	-0,779800
19,258667	0,5	-0,795300
19,267000	0,5	-0,827900
19,275333	0,5	-0,848200
19,283667	0,5	-0,865950
19,292000	0,5	-0,878300
19,300333	0,5	-0,893100
19,308667	0,5	-0,910750
19,317000	0,5	-0,925050
19,325333	0,5	-0,934200
19,333667	0,5	-0,943150
19,342000	0,5	-0,943150
19,350333	0,5	-0,952950
19,358667	0,5	-0,949550
19,367000	0,5	-0,957800
19,375333	0,5	-0,970050
19,383667	0,5	-0,964500
19,392000	0,5	-0,955900
19,400333	0,5	-0,961100
19,408667	0,5	-0,957250
19,417000	0,5	-0,966500
19,425333	0,5	-0,954650
19,433667	0,5	-0,946650
19,442000	0,5	-0,942900
19,450333	0,5	-0,953100
19,458667	0,5	-0,958150
19,467000	0,5	-0,974800
19,475333	0,5	-0,989250
19,483667	0,5	-1,005750
19,492000	0,5	-1,019750
19,500333	0,5	-1,033700
19,508667	0,5	-1,045650
19,517000	0,5	-1,052750
19,525333	0,5	-1,078600
19,533667	0,5	-1,066950
19,542000	0,5	-1,069000
19,550333	0,5	-1,074300
19,558667	0,5	-1,087650
19,567000	0,5	-1,106000
19,575333	0,5	-1,098750
19,583667	0,5	-1,107950
19,592000	0,5	-1,117150
19,600333	0,5	-1,119300
19,608667	0,5	-1,125500
19,617000	0,5	-1,126650
19,625333	0,5	-1,126600
19,633667	0,5	-1,134000
19,642000	0,5	-1,134700
19,650333	0,5	-1,141300
19,658667	0,5	-1,130700
19,667000	0,5	-1,143750
19,675333	0,5	-1,136700
19,683667	0,5	-1,126350
19,692000	0,5	-1,120350
19,700333	0,5	-1,120150
19,708667	0,5	-1,124050
19,717000	0,5	-1,122100
19,725333	0,5	-1,097650
19,733667	0,5	-1,087050
19,742000	0,5	-1,073400
19,750333	0,5	-1,074150
19,758667	0,5	-1,065250
19,767000	0,5	-1,064050
19,775333	0,5	-1,057150
19,783667	0,5	-1,059800
19,792000	0,5	-1,066250
19,800333	0,5	-1,072000
19,808667	0,5	-1,084850
19,817000	0,5	-1,122300
19,825333	0,5	-1,132000
19,833667	0,5	-1,150500
19,842000	0,5	-1,170100
19,850333	0,5	-1,194500
19,858667	0,5	-1,221300
19,867000	0,5	-1,224150
19,875333	0,5	-1,228600
19,883667	0,5	-1,229650
19,892000	0,5	-1,239700
19,900333	0,5	-1,240750
19,908667	0,5	-1,246150
19,917000	0,5	-1,247500
19,925333	0,5	-1,249350
19,933667	0,5	-1,253050
19,942000	0,5	-1,251050
19,950333	0,5	-1,247400
19,958667	0,5	-1,239200
19,967000	0,5	-1,241650
19,975333	0,5	-1,217850
19,983667	0,5	-1,203050
19,992000	0,5	-1,194250
20,000333	0,5	-1,197300
20,008667	0,5	-1,197050
20,017000	0,5	-1,200000
20,025333	0,5	-1,205450
20,033667	0,5	-1,223250
20,042000	0,5	-1,231300
20,050333	0,5	-1,242950
20,058667	0,5	-1,245900
20,067000	0,5	-1,249200
20,075333	0,5	-1,246850
20,083667	0,5	-1,243050
20,092000	0,5	-1,237450
20,100333	0,5	-1,229650
20,108667	0,5	-1,236800
20,117000	0,5	-1,242700
20,125333	0,5	-1,238850
20,133667	0,5	-1,245900
20,142000	0,5	-1,257300
20,150333	0,5	-1,273050
20,158667	0,5	-1,284700
20,167000	0,5	-1,279950
20,175333	0,5	-1,278900
20,183667	0,5	-1,266600
20,192000	0,5	-1,267650
20,200333	0,5	-1,247250
20,208667	0,5	-1,230600
20,217000	0,5	-1,209850
20,225333	0,5	-1,199750
20,233667	0,5	-1,184050
20,242000	0,5	-1,157600
20,250333	0,5	-1,143650
20,258667	0,5	-1,152700
20,267000	0,5	-1,144000
20,275333	0,5	-1,149400
20,283667	0,5	-1,177550
20,292000	0,5	-1,222300
20,300333	0,5	-1,265000
20,308667	0,5	-1,282400
20,317000	0,5	-1,298050
20,325333	0,5	-1,307350
20,333667	0,5	-1,312350
20,342000	0,5	-1,305000
20,350333	0,5	-1,308150
20,358667	0,5	-1,304850
20,367000	0,5	-1,296450
20,375333	0,5	-1,289500
20,383667	0,5	-1,275550
20,392000	0,5	-1,256350
20,400333	0,5	-1,253200
20,408667	0,5	-1,248000
20,417000	0,5	-1,231450
20,425333	0,5	-1,225200
20,433667	0,5	-1,227300
20,442000	0,5	-1,244550
20,450333	0,5	-1,251200
20,458667	0,5	-1,269550
20,467000	0,5	-1,280800
20,475333	0,5	-1,297000
20,483667	0,5	-1,300600
20,492000	0,5	-1,306850
20,500333	0,5	-1,306950
20,508667	0,5	-1,312700
20,517000	0,5	-1,312500
20,525333	0,5	-1,317250
20,533667	0,5	-1,301900
20,542000	0,5	-1,287150
20,550333	0,5	-1,295000
20,558667	0,5	-1,289650
20,567000	0,5	-1,282150
20,575333	0,5	-1,278150
20,583667	0,5	-1,278750
20,592000	0,5	-1,296100
20,600333	0,5	-1,279450
20,608667	0,5	-1,259950
20,617000	0,5	-1,255500
20,625333	0,5	-1,243150
20,633667	0,5	-1,243100
20,642000	0,5	-1,241500
20,650333	0,5	-1,254900
20,658667	0,5	-1,270800
20,667000	0,5	-1,290000
20,675333	0,5	-1,291400
20,683667	0,5	-1,274200
20,692000	0,5	-1,271750
20,700333	0,5	-1,286950
20,708667	0,5	-1,281150
20,717000	0,5	-1,286750
20,725333	0,5	-1,294200
20,733667	0,5	-1,303850
20,742000	0,5	-1,312750
20,750333	0,5	-1,302900
20,758667	0,5	-1,311350
20,767000	0,5	-1,312900
20,775333	0,5	-1,320150
20,783667	0,5	-1,317200
20,792000	0,5	-1,320100
20,800333	0,5	-1,313300
20,808667	0,5	-1,312250
20,817000	0,5	-1,309750
20,825333	0,5	-1,292750
20,833667	0,5	-1,273750
20,842000	0,5	-1,273150
20,850333	0,5	-1,279600
20,858667	0,5	-1,280950
20,867000	0,5	-1,282250
20,875333	0,5	-1,290400
20,883667	0,5	-1,297100
20,892000	0,5	-1,284450
20,900333	0,5	-1,279800
20,908667	0,5	-1,274400
20,917000	0,5	-1,273450
20,925333	0,5	-1,278350
20,933667	0,5	-1,289100
20,942000	0,5	-1,284200
20,950333	0,5	-1,288100
20,958667	0,5	-1,285200
20,967000	0,5	-1,290950
20,975333	0,5	-1,266400
20,983667	0,5	-1,255300
20,992000	0,5	-1,257100
21,000333	0,5	-1,259300
21,008667	0,5	-1,261000
21,017000	0,5	-1,263750
21,025333	0,5	-1,271250
21,033667	0,5	-1,284600
21,042000	0,5	-1,280950
21,050333	0,5	-1,270300
21,058667	0,5	-1,268300
21,067000	0,5	-1,262150
21,075333	0,5	-1,258350
21,083667	0,5	-1,244400
21,092000	0,5	-1,238700
21,100333	0,5	-1,233850
21,108667	0,5	-1,236600
21,117000	0,5	-1,223700
21,125333	0,5	-1,205050
21,133667	0,5	-1,197850
21,142000	0,5	-1,204050
21,150333	0,5	-1,198950
21,158667	0,5	-1,205350
21,167000	0,5	-1,210050
21,175333	0,5	-1,219500
21,183667	0,5	-1,219000
21,192000	0,5	-1,215800
21,200333	0,5	-1,211400
21,208667	0,5	-1,203800
21,217000	0,5	-1,197150
21,225333	0,5	-1,191000
21,233667	0,5	-1,188900
21,242000	0,5	-1,182100
21,250333	0,5	-1,180050
21,258667	0,5	-1,171550
21,267000	0,5	-1,152700
21,275333	0,5	-1,134450
21,283667	0,5	-1,134300
21,292000	0,5	-1,135550
21,300333	0,5	-1,131700
21,308667	0,5	-1,139550
21,317000	0,5	-1,151400
21,325333	0,5	-1,153550
21,333667	0,5	-1,150000
21,342000	0,5	-1,147050
21,350333	0,5	-1,137100
21,358667	0,5	-1,123500
21,367000	0,5	-1,106050
21,375333	0,5	-1,096950
21,383667	0,5	-1,081600
21,392000	0,5	-1,082450
21,400333	0,5	-1,077900
21,408667	0,5	-1,074900
21,417000	0,5	-1,048400
21,425333	0,5	-1,033950
21,433667	0,5	-1,037600
21,442000	0,5	-1,034350
21,450333	0,5	-1,027450
21,458667	0,5	-1,025750
21,467000	0,5	-1,028450
21,475333	0,5	-1,013450
21,483667	0,5	-0,994350
21,492000	0,5	-0,973750
21,500333	0,5	-0,954050
21,508667	0,5	-0,924450
21,517000	0,5	-0,889950
21,525333	0,5	-0,843800
21,533667	0,5	-0,806100
21,542000	0,5	-0,776750
21,550333	0,5	-0,773800
21,558667	0,5	-0,764950
21,567000	0,5	-0,772350
21,575333	0,5	-0,791350
21,583667	0,5	-0,809300
21,592000	0,5	-0,815900
21,600333	0,5	-0,828150
21,608667	0,5	-0,825200
21,617000	0,5	-0,835700
21,625333	0,5	-0,819150
21,633667	0,5	-0,815050
21,642000	0,5	-0,812600
21,650333	0,5	-0,805150
21,658667	0,5	-0,799000
21,667000	0,5	-0,787300
21,675333	0,5	-0,774100
21,683667	0,5	-0,754650
21,692000	0,5	-0,745500
21,700333	0,5	-0,724800
21,708667	0,5	-0,683200
21,717000	0,5	-0,652250
21,725333	0,5	-0,650400
21,733667	0,5	-0,633300
21,742000	0,5	-0,625700
21,750333	0,5	-0,616450
21,758667	0,5	-0,609100
21,767000	0,5	-0,605700
21,775333	0,5	-0,575050
21,783667	0,5	-0,556950
21,792000	0,5	-0,534800
21,800333	0,5	-0,525000
21,808667	0,5	-0,502300
21,817000	0,5	-0,488650
21,825333	0,5	-0,465650
21,833667	0,5	-0,458200
21,842000	0,5	-0,448400
21,850333	0,5	-0,430300
21,858667	0,5	-0,407200
21,867000	0,5	-0,399750
21,875333	0,5	-0,382100
21,883667	0,5	-0,368100
21,892000	0,5	-0,351100
21,900333	0,5	-0,341700
21,908667	0,5	-0,334050
21,917000	0,5	-0,307950
21,925333	0,5	-0,286100
21,933667	0,5	-0,259600
21,942000	0,5	-0,239350
21,950333	0,5	-0,213200
21,958667	0,5	-0,190550
21,967000	0,5	-0,160150
21,975333	0,5	-0,134150
21,983667	0,5	-0,105900
21,992000	0,5	-0,078950
22,000333	0,5	-0,038350
22,008667	0,5	-0,017150
22,017000	0,5	0,001800
22,025333	0,5	0,025900
22,033667	0,5	0,048350
22,042000	0,5	0,071450
22,050333	0,5	0,086900
22,058667	0,5	0,113850
22,067000	0,5	0,152900
22,075333	0,5	0,203100
22,083667	0,5	0,242550
22,092000	0,5	0,282150
22,100333	0,5	0,310400
22,108667	0,5	0,346050
22,117000	0,5	0,371000
22,125333	0,5	0,400200
22,133667	0,5	0,423500
22,142000	0,5	0,452600
22,150333	0,5	0,482550
22,158667	0,5	0,507700
22,167000	0,5	0,538000
22,175333	0,5	0,580200
22,183667	0,5	0,600800
22,192000	0,5	0,631500
22,200333	0,5	0,657100
22,208667	0,5	0,697500
22,217000	0,5	0,745850
22,225333	0,5	0,786800
22,233667	0,5	0,836600
22,242000	0,5	0,882300
22,250333	0,5	0,933900
22,258667	0,5	0,974550
22,267000	0,5	1,015550
22,275333	0,5	1,046550
22,283667	0,5	1,085300
22,292000	0,5	1,115200
22,300333	0,5	1,157600
22,308667	0,5	1,204050
22,317000	0,5	1,265650
22,325333	0,5	1,314750
22,333667	0,5	1,368900
22,342000	0,5	1,412200
22,350333	0,5	1,462950
22,358667	0,5	1,521950
22,367000	0,5	1,573350
22,375333	0,5	1,627300
22,383667	0,5	1,679800
22,392000	0,5	1,733450
22,400333	0,5	1,784300
22,408667	0,5	1,844500
22,417000	0,5	1,900500
22,425333	0,5	1,954900
22,433667	0,5	2,007700
22,442000	0,5	2,063950
22,450333	0,5	2,102850
22,458667	0,5	2,187900
22,467000	0,5	2,247100
22,475333	0,5	2,306350
22,483667	0,5	2,352550
22,492000	0,5	2,403300
22,500333	0,5	2,469200
22,508667	0,5	2,530150
22,517000	0,5	2,599150
22,525333	0,5	2,657450
22,533667	0,5	2,725350
22,542000	0,5	2,783450
22,550333	0,5	2,845200
22,558667	0,5	2,899650
22,567000	0,5	2,955500
22,575333	0,5	3,007000
22,583667	0,5	3,027150
22,592000	0,5	3,074950
22,600333	0,5	3,126150
22,608667	0,5	3,184850
22,617000	0,5	3,228550
22,625333	0,5	3,256200
22,633667	0,5	3,280550
22,642000	0,5	3,288250
22,650333	0,5	3,310850
22,658667	0,5	3,328150
22,667000	0,5	3,330400
22,675333	0,5	3,336650
22,683667	0,5	3,337500
22,692000	0,5	3,332100
22,700333	0,5	3,315150
22,708667	0,5	3,293850
22,717000	0,5	3,256750
22,725333	0,5	3,211750
22,733667	0,5	3,129700
22,742000	0,5	3,094050
22,750333	0,5	3,038450
22,758667	0,5	2,978050
22,767000	0,5	2,892500
22,775333	0,5	2,803000
22,783667	0,5	2,698600
22,792000	0,5	2,593200
22,800333	0,5	2,500200
22,808667	0,5	2,395000
22,817000	0,5	2,285450
22,825333	0,5	2,170400
22,833667	0,5	2,053250
22,842000	0,5	1,931700
22,850333	0,5	1,805650
22,858667	0,5	1,674250
22,867000	0,5	1,538250
22,875333	0,5	1,370200
22,883667	0,5	1,230250
22,892000	0,5	1,091300
22,900333	0,5	0,953600
22,908667	0,5	0,799350
22,917000	0,5	0,645600
22,925333	0,5	0,502950
22,933667	0,5	0,359450
22,942000	0,5	0,216750
22,950333	0,5	0,078450
22,958667	0,5	-0,049000
22,967000	0,5	-0,172700
22,975333	0,5	-0,297800
22,983667	0,5	-0,413150
22,992000	0,5	-0,537850
23,000333	0,5	-0,648250
23,008667	0,5	-0,761400
23,017000	0,5	-0,866100
23,025333	0,5	-0,963400
23,033667	0,5	-1,070800
23,042000	0,5	-1,190900
23,050333	0,5	-1,314100
23,058667	0,5	-1,409900
23,067000	0,5	-1,490400
23,075333	0,5	-1,561900
23,083667	0,5	-1,633900
23,092000	0,5	-1,703700
23,100333	0,5	-1,766350
23,108667	0,5	-1,820300
23,117000	0,5	-1,868550
23,125333	0,5	-1,913500
23,133667	0,5	-1,957400
23,142000	0,5	-1,996600
23,150333	0,5	-2,039250
23,158667	0,5	-2,073550
23,167000	0,5	-2,090400
23,175333	0,5	-2,135650
23,183667	0,5	-2,160150
23,192000	0,5	-2,219550
23,200333	0,5	-2,270800
23,208667	0,5	-2,286750
23,217000	0,5	-2,304300
23,225333	0,5	-2,301500
23,233667	0,5	-2,314500
23,242000	0,5	-2,319250
23,250333	0,5	-2,322800
23,258667	0,5	-2,311250
23,267000	0,5	-2,300600
23,275333	0,5	-2,290450
23,283667	0,5	-2,283650
23,292000	0,5	-2,270500
23,300333	0,5	-2,256550
23,308667	0,5	-2,252850
23,317000	0,5	-2,238450
23,325333	0,5	-2,223450
23,333667	0,5	-2,198550
23,342000	0,5	-2,219450
23,350333	0,5	-2,227350
23,358667	0,5	-2,218600
23,367000	0,5	-2,201700
23,375333	0,5	-2,179550
23,383667	0,5	-2,168900
23,392000	0,5	-2,149400
23,400333	0,5	-2,120750
23,408667	0,5	-2,096350
23,417000	0,5	-2,062150
23,425333	0,5	-2,040100
23,433667	0,5	-2,005600
23,442000	0,5	-1,977450
23,450333	0,5	-1,949300
23,458667	0,5	-1,918100
23,467000	0,5	-1,939750
23,475333	0,5	-1,892350
23,483667	0,5	-1,839650
23,492000	0,5	-1,825250
23,500333	0,5	-1,822250
23,508667	0,5	-1,806850
23,517000	0,5	-1,784450
23,525333	0,5	-1,766350
23,533667	0,5	-1,753350
23,542000	0,5	-1,732050
23,550333	0,5	-1,712000
23,558667	0,5	-1,685800
23,567000	0,5	-1,665100
23,575333	0,5	-1,641750
23,583667	0,5	-1,620450
23,592000	0,5	-1,592250
23,600333	0,5	-1,569800
23,608667	0,5	-1,593150
23,617000	0,5	-1,602050
23,625333	0,5	-1,563500
23,633667	0,5	-1,488950
23,642000	0,5	-1,466750
23,650333	0,5	-1,451950
23,658667	0,5	-1,437400
23,667000	0,5	-1,421000
23,675333	0,5	-1,405050
23,683667	0,5	-1,389050
23,692000	0,5	-1,366950
23,700333	0,5	-1,351550
23,708667	0,5	-1,335400
23,717000	0,5	-1,314450
23,725333	0,5	-1,300250
23,733667	0,5	-1,282450
23,742000	0,5	-1,269750
23,750333	0,5	-1,258400
23,758667	0,5	-1,372150
23,767000	0,5	-1,325350
23,775333	0,5	-1,287300
23,783667	0,5	-1,224950
23,792000	0,5	-1,201300
23,800333	0,5	-1,191650
23,808667	0,5	-1,181300
23,817000	0,5	-1,177500
23,825333	0,5	-1,156300
23,833667	0,5	-1,136950
23,842000	0,5	-1,117350
23,850333	0,5	-1,095850
23,858667	0,5	-1,075300
23,867000	0,5	-1,056000
23,875333	0,5	-1,040200
23,883667	0,5	-1,016500
23,892000	0,5	-1,002550
23,900333	0,5	-1,006300
23,908667	0,5	-1,114600
23,917000	0,5	-1,053850
23,925333	0,5	-1,018050
23,933667	0,5	-0,954450
23,942000	0,5	-0,943200
23,950333	0,5	-0,928300
23,958667	0,5	-0,926800
23,967000	0,5	-0,923950
23,975333	0,5	-0,907100
23,983667	0,5	-0,889250
23,992000	0,5	-0,875250
24,000333	0,5	-0,860000
24,008667	0,5	-0,841350
24,017000	0,5	-0,827850
24,025333	0,5	-0,801650
24,033667	0,5	-0,783950
24,042000	0,5	-0,765900
24,050333	0,5	-0,837050
24,058667	0,5	-0,845400
24,067000	0,5	-0,821450
24,075333	0,5	-0,760700
24,083667	0,5	-0,711600
24,092000	0,5	-0,684200
24,100333	0,5	-0,673350
24,108667	0,5	-0,666250
24,117000	0,5	-0,663750
24,125333	0,5	-0,637050
24,133667	0,5	-0,622450
24,142000	0,5	-0,601050
24,150333	0,5	-0,582600
24,158667	0,5	-0,564700
24,167000	0,5	-0,547450
24,175333	0,5	-0,530450
24,183667	0,5	-0,516350
24,192000	0,5	-0,507700
24,200333	0,5	-0,593300
24,208667	0,5	-0,579050
24,217000	0,5	-0,540800
24,225333	0,5	-0,493800
24,233667	0,5	-0,454650
24,242000	0,5	-0,448350
24,250333	0,5	-0,428100
24,258667	0,5	-0,434500
24,267000	0,5	-0,412300
24,275333	0,5	-0,398900
24,283667	0,5	-0,371750
24,292000	0,5	-0,359350
24,300333	0,5	-0,336250
24,308667	0,5	-0,316100
24,317000	0,5	-0,297100
24,325333	0,5	-0,280100
24,333667	0,5	-0,264450
24,342000	0,5	-0,262600
24,350333	0,5	-0,322950
24,358667	0,5	-0,298150
24,367000	0,5	-0,267000
24,375333	0,5	-0,224100
24,383667	0,5	-0,203850
24,392000	0,5	-0,193000
24,400333	0,5	-0,190350
24,408667	0,5	-0,188050
24,417000	0,5	-0,175950
24,425333	0,5	-0,157600
24,433667	0,5	-0,149700
24,442000	0,5	-0,132900
24,450333	0,5	-0,127150
24,458667	0,5	-0,109000
24,467000	0,5	-0,093150
24,475333	0,5	-0,077150
24,483667	0,5	-0,068250
24,492000	0,5	-0,105550
24,500333	0,5	-0,099550
24,508667	0,5	-0,082900
24,517000	0,5	-0,053000
24,525333	0,5	-0,023650
24,533667	0,5	-0,004800
24,542000	0,5	-0,000250
24,550333	0,5	0,004200
24,558667	0,5	0,014800
24,567000	0,5	0,030900
24,575333	0,5	0,038900
24,583667	0,5	0,047250
24,592000	0,5	0,053650
24,600333	0,5	0,065600
24,608667	0,5	0,072950
24,617000	0,5	0,087200
24,625333	0,5	0,095250
24,633667	0,5	0,101400
24,642000	0,5	0,057700
24,650333	0,5	0,077900
24,658667	0,5	0,081500
24,667000	0,5	0,112500
24,675333	0,5	0,128950
24,683667	0,5	0,139350
24,692000	0,5	0,147350
24,700333	0,5	0,144700
24,708667	0,5	0,155000
24,717000	0,5	0,162950
24,725333	0,5	0,174650
24,733667	0,5	0,182550
24,742000	0,5	0,196250
24,750333	0,5	0,204950
24,758667	0,5	0,218000
24,767000	0,5	0,225850
24,775333	0,5	0,236250
24,783667	0,5	0,231600
24,792000	0,5	0,208600
24,800333	0,5	0,222050
24,808667	0,5	0,230800
24,817000	0,5	0,250950
24,825333	0,5	0,261350
24,833667	0,5	0,268000
24,842000	0,5	0,265650
24,850333	0,5	0,261900
24,858667	0,5	0,267100
24,867000	0,5	0,277750
24,875333	0,5	0,285000
24,883667	0,5	0,289650
24,892000	0,5	0,297650
24,900333	0,5	0,297900
24,908667	0,5	0,307200
24,917000	0,5	0,318500
24,925333	0,5	0,323250
24,933667	0,5	0,312950
24,942000	0,5	0,309300
24,950333	0,5	0,323950
24,958667	0,5	0,330700
24,967000	0,5	0,347250
24,975333	0,5	0,351950
24,983667	0,5	0,354800
24,992000	0,5	0,352000
25,000333	0,5	0,351450
25,008667	0,5	0,359350
25,017000	0,5	0,363850
25,025333	0,5	0,367050
25,033667	0,5	0,367350
25,042000	0,5	0,370450
25,050333	0,5	0,374550
25,058667	0,5	0,381700
25,067000	0,5	0,384250
25,075333	0,5	0,388350
25,083667	0,5	0,378050
25,092000	0,5	0,383050
25,100333	0,5	0,386600
25,108667	0,5	0,395050
25,117000	0,5	0,404050
25,125333	0,5	0,408450
25,133667	0,5	0,409050
25,142000	0,5	0,408100
25,150333	0,5	0,409950
25,158667	0,5	0,412700
25,167000	0,5	0,416200
25,175333	0,5	0,421650
25,183667	0,5	0,425050
25,192000	0,5	0,427450
25,200333	0,5	0,430900
25,208667	0,5	0,434700
25,217000	0,5	0,435650
25,225333	0,5	0,434050
25,233667	0,5	0,429850
25,242000	0,5	0,431400
25,250333	0,5	0,434300
25,258667	0,5	0,439750
25,267000	0,5	0,440750
25,275333	0,5	0,440400
25,283667	0,5	0,437800
25,292000	0,5	0,440650
25,300333	0,5	0,443700
25,308667	0,5	0,442950
25,317000	0,5	0,447600
25,325333	0,5	0,447550
25,333667	0,5	0,452100
25,342000	0,5	0,453650
25,350333	0,5	0,455850
25,358667	0,5	0,458450
25,367000	0,5	0,461450
25,375333	0,5	0,461450
25,383667	0,5	0,462200
25,392000	0,5	0,465400
25,400333	0,5	0,464300
25,408667	0,5	0,464200
25,417000	0,5	0,464850
25,425333	0,5	0,464150
25,433667	0,5	0,463650
25,442000	0,5	0,463250
25,450333	0,5	0,461350
25,458667	0,5	0,463550
25,467000	0,5	0,460550
25,475333	0,5	0,463950
25,483667	0,5	0,466150
25,492000	0,5	0,463050
25,500333	0,5	0,464900
25,508667	0,5	0,470000
25,517000	0,5	0,470550
25,525333	0,5	0,474500
25,533667	0,5	0,475950
25,542000	0,5	0,477950
25,550333	0,5	0,475800
25,558667	0,5	0,473900
25,567000	0,5	0,476300
25,575333	0,5	0,476250
25,583667	0,5	0,478750
25,592000	0,5	0,478200
25,600333	0,5	0,472700
25,608667	0,5	0,475300
25,617000	0,5	0,472600
25,625333	0,5	0,474500
25,633667	0,5	0,473950
25,642000	0,5	0,471600
25,650333	0,5	0,472400
25,658667	0,5	0,473400
25,667000	0,5	0,473100
25,675333	0,5	0,478800
25,683667	0,5	0,470400
25,692000	0,5	0,481550
25,700333	0,5	0,474400
25,708667	0,5	0,473750
25,717000	0,5	0,474350
25,725333	0,5	0,476300
25,733667	0,5	0,482300
25,742000	0,5	0,477100
25,750333	0,5	0,480150
25,758667	0,5	0,476300
25,767000	0,5	0,477850
25,775333	0,5	0,477000
25,783667	0,5	0,476350
25,792000	0,5	0,471900
25,800333	0,5	0,476650
25,808667	0,5	0,475250
25,817000	0,5	0,474650
25,825333	0,5	0,476950
25,833667	0,5	0,477200
25,842000	0,5	0,476050
25,850333	0,5	0,470600
25,858667	0,5	0,471800
25,867000	0,5	0,473150
25,875333	0,5	0,474600
25,883667	0,5	0,484550
25,892000	0,5	0,487600
25,900333	0,5	0,484450
25,908667	0,5	0,483150
25,917000	0,5	0,483250
25,925333	0,5	0,485150
25,933667	0,5	0,486450
25,942000	0,5	0,487300
25,950333	0,5	0,485250
25,958667	0,5	0,485600
25,967000	0,5	0,484650
25,975333	0,5	0,489250
25,983667	0,5	0,486500
25,992000	0,5	0,490350
26,000333	0,5	0,482650
