File Path	chrom://chromeleon01/ikbm_chromeleon/2022/ICS-5000/ED1/Esteban/20220612_Cell_7_4_eg.seq/130.smp/ED_1.channel/ED_1.chm
Channel	ED_1

Injection Information:
Data Vault	ikbm_chromeleon
Injection	4_06h-EGS_3
Injection Number	80
Position	GC6
Comment	
Processing Method	Stop sequence after Cell Death
Instrument Method	ICS5000_PA200_FullNative_Ox_26min_ED1
Type	Unknown
Status	Finished
Injection Date	14.06.2022
Injection Time	05:43:29
Injection Volume (µl)	5,0
Dilution Factor	1,0000
Weight	1,0000

Chromatogram Data Information:
Time Min. (min)	0,000333
Time Max. (min)	26,000333
Data Points	3121
Detector	EDet1
Generating Data System	Chromeleon 7.2.9.11323
Exporting Data System	Chromeleon 7.2.9.0
Operator	Instrument Controller
Signal Quantity	
Signal Unit	nC
Signal Min.	-2,661250
Signal Max.	2 384,756486
Channel	ED_1
Driver Name	DC-5000
Channel Type	Evaluation
Min. Step (s)	0,5
Max. Step (s)	0,5
Average Step (s)	0,5

Signal Parameter Information:
Signal Info	

Chromatogram Data:
Time (min)	Step (s)	Value (nC)
0,000333	n.a.	0,004700
0,008667	0,5	-0,063000
0,017000	0,5	-0,059650
0,025333	0,5	-0,058550
0,033667	0,5	-0,043850
0,042000	0,5	-0,020350
0,050333	0,5	-0,003950
0,058667	0,5	-0,018800
0,067000	0,5	-0,003050
0,075333	0,5	-0,010950
0,083667	0,5	-0,006150
0,092000	0,5	-0,023350
0,100333	0,5	-0,020550
0,108667	0,5	-0,032650
0,117000	0,5	-0,021250
0,125333	0,5	-0,027150
0,133667	0,5	-0,033500
0,142000	0,5	-0,037650
0,150333	0,5	-0,011600
0,158667	0,5	-0,044400
0,167000	0,5	-0,051250
0,175333	0,5	-0,054500
0,183667	0,5	-0,034200
0,192000	0,5	-0,010250
0,200333	0,5	-0,015500
0,208667	0,5	-0,015100
0,217000	0,5	-0,026350
0,225333	0,5	-0,024900
0,233667	0,5	-0,037800
0,242000	0,5	-0,034700
0,250333	0,5	-0,049600
0,258667	0,5	-0,046550
0,267000	0,5	-0,051050
0,275333	0,5	-0,058400
0,283667	0,5	-0,073100
0,292000	0,5	-0,046150
0,300333	0,5	-0,011400
0,308667	0,5	-0,007700
0,317000	0,5	-0,039300
0,325333	0,5	-0,073900
0,333667	0,5	-0,084750
0,342000	0,5	-0,079650
0,350333	0,5	-0,074950
0,358667	0,5	-0,070800
0,367000	0,5	-0,072300
0,375333	0,5	-0,074750
0,383667	0,5	-0,076800
0,392000	0,5	-0,083150
0,400333	0,5	-0,085450
0,408667	0,5	-0,096550
0,417000	0,5	-0,091900
0,425333	0,5	-0,104400
0,433667	0,5	-0,104000
0,442000	0,5	-0,085350
0,450333	0,5	-0,096800
0,458667	0,5	-0,121800
0,467000	0,5	-0,117550
0,475333	0,5	-0,121050
0,483667	0,5	-0,086300
0,492000	0,5	-0,091400
0,500333	0,5	-0,093050
0,508667	0,5	-0,097950
0,517000	0,5	-0,098900
0,525333	0,5	-0,104000
0,533667	0,5	-0,109250
0,542000	0,5	-0,113050
0,550333	0,5	-0,119000
0,558667	0,5	-0,113650
0,567000	0,5	-0,118950
0,575333	0,5	-0,118400
0,583667	0,5	-0,131250
0,592000	0,5	-0,099550
0,600333	0,5	-0,125800
0,608667	0,5	-0,133950
0,617000	0,5	-0,133950
0,625333	0,5	-0,120050
0,633667	0,5	-0,095550
0,642000	0,5	-0,105650
0,650333	0,5	-0,118350
0,658667	0,5	-0,109600
0,667000	0,5	-0,116850
0,675333	0,5	-0,108750
0,683667	0,5	-0,115200
0,692000	0,5	-0,117200
0,700333	0,5	-0,123250
0,708667	0,5	-0,123700
0,717000	0,5	-0,113800
0,725333	0,5	-0,129100
0,733667	0,5	-0,122600
0,742000	0,5	-0,104850
0,750333	0,5	-0,130450
0,758667	0,5	-0,136150
0,767000	0,5	-0,128800
0,775333	0,5	-0,118800
0,783667	0,5	-0,094100
0,792000	0,5	-0,117350
0,800333	0,5	-0,107150
0,808667	0,5	-0,114350
0,817000	0,5	-0,104450
0,825333	0,5	-0,115700
0,833667	0,5	-0,109200
0,842000	0,5	-0,117900
0,850333	0,5	-0,112100
0,858667	0,5	-0,113450
0,867000	0,5	-0,116550
0,875333	0,5	-0,130950
0,883667	0,5	-0,114100
0,892000	0,5	-0,115000
0,900333	0,5	-0,131050
0,908667	0,5	-0,130200
0,917000	0,5	-0,121250
0,925333	0,5	-0,102800
0,933667	0,5	-0,089850
0,942000	0,5	-0,094650
0,950333	0,5	-0,103750
0,958667	0,5	-0,097550
0,967000	0,5	-0,102450
0,975333	0,5	-0,096200
0,983667	0,5	-0,108650
0,992000	0,5	-0,102050
1,000333	0,5	-0,108650
1,008667	0,5	-0,104250
1,017000	0,5	-0,105500
1,025333	0,5	-0,106700
1,033667	0,5	-0,097900
1,042000	0,5	-0,100500
1,050333	0,5	-0,116750
1,058667	0,5	-0,112050
1,067000	0,5	-0,107300
1,075333	0,5	-0,082200
1,083667	0,5	-0,075050
1,092000	0,5	-0,086400
1,100333	0,5	-0,083650
1,108667	0,5	-0,084250
1,117000	0,5	-0,085300
1,125333	0,5	-0,093000
1,133667	0,5	-0,091650
1,142000	0,5	-0,101000
1,150333	0,5	-0,096450
1,158667	0,5	-0,092700
1,167000	0,5	-0,091100
1,175333	0,5	-0,099150
1,183667	0,5	-0,080200
1,192000	0,5	-0,106950
1,200333	0,5	-0,107600
1,208667	0,5	-0,110400
1,217000	0,5	-0,088800
1,225333	0,5	-0,074100
1,233667	0,5	-0,070550
1,242000	0,5	-0,073650
1,250333	0,5	-0,072600
1,258667	0,5	-0,076000
1,267000	0,5	-0,082950
1,275333	0,5	-0,084100
1,283667	0,5	-0,088450
1,292000	0,5	-0,083250
1,300333	0,5	-0,086250
1,308667	0,5	-0,085000
1,317000	0,5	-0,099550
1,325333	0,5	-0,082100
1,333667	0,5	-0,081100
1,342000	0,5	-0,096350
1,350333	0,5	-0,101100
1,358667	0,5	-0,095850
1,367000	0,5	-0,077550
1,375333	0,5	-0,065200
1,383667	0,5	-0,073950
1,392000	0,5	-0,069050
1,400333	0,5	-0,073000
1,408667	0,5	-0,069350
1,417000	0,5	-0,077450
1,425333	0,5	-0,077750
1,433667	0,5	-0,084000
1,442000	0,5	-0,084900
1,450333	0,5	-0,083850
1,458667	0,5	-0,087300
1,467000	0,5	-0,092550
1,475333	0,5	-0,070500
1,483667	0,5	-0,085450
1,492000	0,5	-0,105500
1,500333	0,5	-0,109850
1,508667	0,5	-0,114050
1,517000	0,5	-0,086900
1,525333	0,5	-0,090600
1,533667	0,5	-0,088200
1,542000	0,5	-0,097550
1,550333	0,5	-0,090800
1,558667	0,5	-0,064050
1,567000	0,5	0,054750
1,575333	0,5	0,377900
1,583667	0,5	1,576450
1,592000	0,5	8,159700
1,600333	0,5	38,648601
1,608667	0,5	151,360552
1,617000	0,5	496,516457
1,625333	0,5	1 232,132518
1,633667	0,5	1 554,691873
1,642000	0,5	2 384,756486
1,650333	0,5	2 375,269835
1,658667	0,5	2 281,146484
1,667000	0,5	1 992,016780
1,675333	0,5	1 484,436722
1,683667	0,5	991,907615
1,692000	0,5	667,357860
1,700333	0,5	479,114857
1,708667	0,5	366,166755
1,717000	0,5	291,645604
1,725333	0,5	240,701354
1,733667	0,5	203,097003
1,742000	0,5	174,596753
1,750333	0,5	152,402452
1,758667	0,5	134,092902
1,767000	0,5	118,463802
1,775333	0,5	105,672102
1,783667	0,5	95,994901
1,792000	0,5	89,988751
1,800333	0,5	87,907301
1,808667	0,5	89,130501
1,817000	0,5	91,090401
1,825333	0,5	90,154801
1,833667	0,5	85,003901
1,842000	0,5	77,457701
1,850333	0,5	70,405851
1,858667	0,5	65,168251
1,867000	0,5	61,363201
1,875333	0,5	58,225151
1,883667	0,5	55,863651
1,892000	0,5	54,572851
1,900333	0,5	54,113501
1,908667	0,5	53,824701
1,917000	0,5	53,868201
1,925333	0,5	55,155601
1,933667	0,5	57,766051
1,942000	0,5	59,462151
1,950333	0,5	57,904901
1,958667	0,5	54,113301
1,967000	0,5	50,755751
1,975333	0,5	49,121801
1,983667	0,5	49,349901
1,992000	0,5	51,396801
2,000333	0,5	55,513501
2,008667	0,5	62,045751
2,017000	0,5	71,273851
2,025333	0,5	83,685701
2,033667	0,5	99,952301
2,042000	0,5	118,464352
2,050333	0,5	132,001802
2,058667	0,5	132,299452
2,067000	0,5	119,188952
2,075333	0,5	100,418801
2,083667	0,5	83,204351
2,092000	0,5	70,294851
2,100333	0,5	61,737501
2,108667	0,5	57,025351
2,117000	0,5	55,768701
2,125333	0,5	57,806301
2,133667	0,5	61,148201
2,142000	0,5	61,803351
2,150333	0,5	58,541401
2,158667	0,5	54,146801
2,167000	0,5	50,268801
2,175333	0,5	46,126001
2,183667	0,5	41,507101
2,192000	0,5	37,336751
2,200333	0,5	34,282401
2,208667	0,5	32,346900
2,217000	0,5	31,370100
2,225333	0,5	31,210500
2,233667	0,5	31,884600
2,242000	0,5	33,091450
2,250333	0,5	33,944851
2,258667	0,5	33,503400
2,267000	0,5	31,926700
2,275333	0,5	30,153050
2,283667	0,5	28,853800
2,292000	0,5	28,044200
2,300333	0,5	27,611600
2,308667	0,5	27,450650
2,317000	0,5	27,495350
2,325333	0,5	27,596050
2,333667	0,5	27,626400
2,342000	0,5	27,634300
2,350333	0,5	27,942200
2,358667	0,5	29,026250
2,367000	0,5	30,634450
2,375333	0,5	32,112300
2,383667	0,5	33,558851
2,392000	0,5	35,620401
2,400333	0,5	36,234201
2,408667	0,5	33,915201
2,417000	0,5	31,043150
2,425333	0,5	29,223250
2,433667	0,5	28,089150
2,442000	0,5	27,213500
2,450333	0,5	26,440000
2,458667	0,5	25,824300
2,467000	0,5	25,358000
2,475333	0,5	25,058550
2,483667	0,5	24,860300
2,492000	0,5	24,686350
2,500333	0,5	24,466200
2,508667	0,5	24,216400
2,517000	0,5	23,887700
2,525333	0,5	23,590450
2,533667	0,5	23,399550
2,542000	0,5	23,361350
2,550333	0,5	23,557150
2,558667	0,5	23,944600
2,567000	0,5	24,498950
2,575333	0,5	25,076500
2,583667	0,5	25,560350
2,592000	0,5	25,872600
2,600333	0,5	26,047200
2,608667	0,5	26,163650
2,617000	0,5	26,458700
2,625333	0,5	27,251350
2,633667	0,5	28,954250
2,642000	0,5	32,079050
2,650333	0,5	37,546551
2,658667	0,5	47,441251
2,667000	0,5	65,387701
2,675333	0,5	95,186351
2,683667	0,5	135,293952
2,692000	0,5	174,467503
2,700333	0,5	196,985853
2,708667	0,5	194,141103
2,717000	0,5	170,407403
2,725333	0,5	137,911102
2,733667	0,5	107,582152
2,742000	0,5	84,530701
2,750333	0,5	68,757301
2,758667	0,5	58,255201
2,767000	0,5	51,173601
2,775333	0,5	46,523451
2,783667	0,5	43,943651
2,792000	0,5	43,496801
2,800333	0,5	45,241601
2,808667	0,5	48,750451
2,817000	0,5	52,601201
2,825333	0,5	55,132101
2,833667	0,5	54,937851
2,842000	0,5	51,783401
2,850333	0,5	46,497251
2,858667	0,5	40,378101
2,867000	0,5	34,639651
2,875333	0,5	29,923000
2,883667	0,5	26,383150
2,892000	0,5	23,863900
2,900333	0,5	22,097950
2,908667	0,5	20,839150
2,917000	0,5	19,907400
2,925333	0,5	19,168650
2,933667	0,5	18,549050
2,942000	0,5	17,995850
2,950333	0,5	17,546800
2,958667	0,5	17,197550
2,967000	0,5	16,973700
2,975333	0,5	16,958050
2,983667	0,5	17,150300
2,992000	0,5	17,457200
3,000333	0,5	17,733050
3,008667	0,5	17,765500
3,017000	0,5	17,506000
3,025333	0,5	16,955800
3,033667	0,5	16,268100
3,042000	0,5	15,557950
3,050333	0,5	14,951450
3,058667	0,5	14,458100
3,067000	0,5	14,094050
3,075333	0,5	13,836000
3,083667	0,5	13,653300
3,092000	0,5	13,568900
3,100333	0,5	13,580150
3,108667	0,5	13,666950
3,117000	0,5	13,876350
3,125333	0,5	14,315600
3,133667	0,5	15,057750
3,142000	0,5	16,104600
3,150333	0,5	17,205400
3,158667	0,5	18,011650
3,167000	0,5	18,179050
3,175333	0,5	17,652250
3,183667	0,5	16,582100
3,192000	0,5	15,301100
3,200333	0,5	14,083400
3,208667	0,5	13,119200
3,217000	0,5	12,430050
3,225333	0,5	11,966750
3,233667	0,5	11,653500
3,242000	0,5	11,447700
3,250333	0,5	11,312500
3,258667	0,5	11,196850
3,267000	0,5	11,105750
3,275333	0,5	11,024150
3,283667	0,5	10,936450
3,292000	0,5	10,829100
3,300333	0,5	10,696450
3,308667	0,5	10,548000
3,317000	0,5	10,433450
3,325333	0,5	10,338450
3,333667	0,5	10,289350
3,342000	0,5	10,261600
3,350333	0,5	10,277800
3,358667	0,5	10,332350
3,367000	0,5	10,446300
3,375333	0,5	10,604400
3,383667	0,5	10,790450
3,392000	0,5	10,998450
3,400333	0,5	11,166250
3,408667	0,5	11,248300
3,417000	0,5	11,281850
3,425333	0,5	11,295950
3,433667	0,5	11,313550
3,442000	0,5	11,326300
3,450333	0,5	11,323850
3,458667	0,5	11,349650
3,467000	0,5	11,384700
3,475333	0,5	11,461850
3,483667	0,5	11,581000
3,492000	0,5	11,822500
3,500333	0,5	12,350100
3,508667	0,5	13,520100
3,517000	0,5	15,503800
3,525333	0,5	17,968950
3,533667	0,5	20,130650
3,542000	0,5	21,434550
3,550333	0,5	21,657900
3,558667	0,5	21,104500
3,567000	0,5	20,140750
3,575333	0,5	19,056000
3,583667	0,5	18,023850
3,592000	0,5	17,059250
3,600333	0,5	16,197450
3,608667	0,5	15,445900
3,617000	0,5	14,805500
3,625333	0,5	14,269550
3,633667	0,5	13,828500
3,642000	0,5	13,472150
3,650333	0,5	13,187150
3,658667	0,5	12,964850
3,667000	0,5	12,809950
3,675333	0,5	12,708800
3,683667	0,5	12,660700
3,692000	0,5	12,685050
3,700333	0,5	12,685050
3,708667	0,5	12,654900
3,717000	0,5	12,557350
3,725333	0,5	12,353450
3,733667	0,5	12,071950
3,742000	0,5	11,679750
3,750333	0,5	11,259200
3,758667	0,5	10,845300
3,767000	0,5	10,482900
3,775333	0,5	10,171700
3,783667	0,5	9,920000
3,792000	0,5	9,715250
3,800333	0,5	9,543750
3,808667	0,5	9,404450
3,817000	0,5	9,281300
3,825333	0,5	9,180800
3,833667	0,5	9,067950
3,842000	0,5	8,988650
3,850333	0,5	8,875700
3,858667	0,5	8,794950
3,867000	0,5	8,719350
3,875333	0,5	8,665150
3,883667	0,5	8,621950
3,892000	0,5	8,572600
3,900333	0,5	8,532450
3,908667	0,5	8,510550
3,917000	0,5	8,477100
3,925333	0,5	8,448000
3,933667	0,5	8,405600
3,942000	0,5	8,359850
3,950333	0,5	8,303800
3,958667	0,5	8,254200
3,967000	0,5	8,207550
3,975333	0,5	8,151300
3,983667	0,5	8,112350
3,992000	0,5	8,083050
4,000333	0,5	8,028150
4,008667	0,5	7,997400
4,017000	0,5	7,976200
4,025333	0,5	7,963000
4,033667	0,5	7,962550
4,042000	0,5	7,937700
4,050333	0,5	7,935500
4,058667	0,5	7,932950
4,067000	0,5	7,956700
4,075333	0,5	7,994350
4,083667	0,5	8,067900
4,092000	0,5	8,160500
4,100333	0,5	8,297000
4,108667	0,5	8,468100
4,117000	0,5	8,672250
4,125333	0,5	8,903650
4,133667	0,5	9,181450
4,142000	0,5	9,454650
4,150333	0,5	9,734800
4,158667	0,5	10,019000
4,167000	0,5	10,288750
4,175333	0,5	10,533850
4,183667	0,5	10,713850
4,192000	0,5	10,815700
4,200333	0,5	10,828000
4,208667	0,5	10,770200
4,217000	0,5	10,642300
4,225333	0,5	10,479200
4,233667	0,5	10,279600
4,242000	0,5	10,071700
4,250333	0,5	9,850150
4,258667	0,5	9,619500
4,267000	0,5	9,364850
4,275333	0,5	9,114900
4,283667	0,5	8,864150
4,292000	0,5	8,599600
4,300333	0,5	8,367100
4,308667	0,5	8,190400
4,317000	0,5	8,060000
4,325333	0,5	7,974550
4,333667	0,5	7,914700
4,342000	0,5	7,871850
4,350333	0,5	7,843650
4,358667	0,5	7,821550
4,367000	0,5	7,801150
4,375333	0,5	7,774150
4,383667	0,5	7,749200
4,392000	0,5	7,718000
4,400333	0,5	7,684600
4,408667	0,5	7,645550
4,417000	0,5	7,606150
4,425333	0,5	7,567050
4,433667	0,5	7,530800
4,442000	0,5	7,475050
4,450333	0,5	7,437100
4,458667	0,5	7,419050
4,467000	0,5	7,421500
4,475333	0,5	7,421550
4,483667	0,5	7,424200
4,492000	0,5	7,429950
4,500333	0,5	7,447700
4,508667	0,5	7,466000
4,517000	0,5	7,481450
4,525333	0,5	7,498550
4,533667	0,5	7,503450
4,542000	0,5	7,517750
4,550333	0,5	7,517550
4,558667	0,5	7,511650
4,567000	0,5	7,480550
4,575333	0,5	7,472800
4,583667	0,5	7,421250
4,592000	0,5	7,372250
4,600333	0,5	7,318750
4,608667	0,5	7,285550
4,617000	0,5	7,263050
4,625333	0,5	7,244700
4,633667	0,5	7,228200
4,642000	0,5	7,235700
4,650333	0,5	7,238500
4,658667	0,5	7,258550
4,667000	0,5	7,274800
4,675333	0,5	7,293450
4,683667	0,5	7,310450
4,692000	0,5	7,327250
4,700333	0,5	7,336850
4,708667	0,5	7,333000
4,717000	0,5	7,318450
4,725333	0,5	7,325000
4,733667	0,5	7,293800
4,742000	0,5	7,269500
4,750333	0,5	7,248600
4,758667	0,5	7,223200
4,767000	0,5	7,224650
4,775333	0,5	7,191100
4,783667	0,5	7,168050
4,792000	0,5	7,145700
4,800333	0,5	7,134100
4,808667	0,5	7,111850
4,817000	0,5	7,098900
4,825333	0,5	7,080100
4,833667	0,5	7,068600
4,842000	0,5	7,055900
4,850333	0,5	7,042350
4,858667	0,5	7,029000
4,867000	0,5	7,015350
4,875333	0,5	7,023050
4,883667	0,5	7,000300
4,892000	0,5	6,995050
4,900333	0,5	6,995250
4,908667	0,5	7,013050
4,917000	0,5	7,032400
4,925333	0,5	7,043250
4,933667	0,5	7,052600
4,942000	0,5	7,074650
4,950333	0,5	7,092550
4,958667	0,5	7,113000
4,967000	0,5	7,124850
4,975333	0,5	7,131600
4,983667	0,5	7,134550
4,992000	0,5	7,139850
5,000333	0,5	7,142300
5,008667	0,5	7,140650
5,017000	0,5	7,129350
5,025333	0,5	7,118600
5,033667	0,5	7,077800
5,042000	0,5	7,042650
5,050333	0,5	6,996550
5,058667	0,5	6,944650
5,067000	0,5	6,886000
5,075333	0,5	6,784100
5,083667	0,5	6,673050
5,092000	0,5	6,546850
5,100333	0,5	6,423900
5,108667	0,5	6,302100
5,117000	0,5	6,195550
5,125333	0,5	6,089450
5,133667	0,5	6,010250
5,142000	0,5	5,936700
5,150333	0,5	5,883750
5,158667	0,5	5,839500
5,167000	0,5	5,827600
5,175333	0,5	5,806050
5,183667	0,5	5,797850
5,192000	0,5	5,812700
5,200333	0,5	5,855050
5,208667	0,5	5,927100
5,217000	0,5	6,019000
5,225333	0,5	6,125800
5,233667	0,5	6,253500
5,242000	0,5	6,391150
5,250333	0,5	6,520750
5,258667	0,5	6,628150
5,267000	0,5	6,686200
5,275333	0,5	6,692900
5,283667	0,5	6,637150
5,292000	0,5	6,538400
5,300333	0,5	6,395550
5,308667	0,5	6,247600
5,317000	0,5	6,110550
5,325333	0,5	5,972000
5,333667	0,5	5,850350
5,342000	0,5	5,768600
5,350333	0,5	5,718150
5,358667	0,5	5,703900
5,367000	0,5	5,695200
5,375333	0,5	5,704100
5,383667	0,5	5,717100
5,392000	0,5	5,744600
5,400333	0,5	5,764300
5,408667	0,5	5,770900
5,417000	0,5	5,756550
5,425333	0,5	5,730350
5,433667	0,5	5,689100
5,442000	0,5	5,629650
5,450333	0,5	5,567100
5,458667	0,5	5,520700
5,467000	0,5	5,483500
5,475333	0,5	5,450050
5,483667	0,5	5,435550
5,492000	0,5	5,439550
5,500333	0,5	5,459350
5,508667	0,5	5,471650
5,517000	0,5	5,472300
5,525333	0,5	5,448100
5,533667	0,5	5,424250
5,542000	0,5	5,382050
5,550333	0,5	5,333500
5,558667	0,5	5,275250
5,567000	0,5	5,221750
5,575333	0,5	5,166050
5,583667	0,5	5,119400
5,592000	0,5	5,086000
5,600333	0,5	5,046350
5,608667	0,5	5,037500
5,617000	0,5	5,023600
5,625333	0,5	5,014500
5,633667	0,5	5,029500
5,642000	0,5	5,069050
5,650333	0,5	5,138650
5,658667	0,5	5,216450
5,667000	0,5	5,309000
5,675333	0,5	5,443600
5,683667	0,5	5,588100
5,692000	0,5	5,750550
5,700333	0,5	5,906100
5,708667	0,5	6,063450
5,717000	0,5	6,197750
5,725333	0,5	6,343850
5,733667	0,5	6,504050
5,742000	0,5	6,714850
5,750333	0,5	7,022400
5,758667	0,5	7,515200
5,767000	0,5	8,192300
5,775333	0,5	9,153350
5,783667	0,5	10,403450
5,792000	0,5	11,925600
5,800333	0,5	13,628500
5,808667	0,5	15,326050
5,817000	0,5	16,855450
5,825333	0,5	18,021400
5,833667	0,5	18,694900
5,842000	0,5	18,789950
5,850333	0,5	18,345450
5,858667	0,5	17,425850
5,867000	0,5	16,175250
5,875333	0,5	14,730150
5,883667	0,5	13,229400
5,892000	0,5	11,770000
5,900333	0,5	10,440650
5,908667	0,5	9,290700
5,917000	0,5	8,312900
5,925333	0,5	7,517750
5,933667	0,5	6,893900
5,942000	0,5	6,409650
5,950333	0,5	6,043950
5,958667	0,5	5,749450
5,967000	0,5	5,520050
5,975333	0,5	5,345850
5,983667	0,5	5,209550
5,992000	0,5	5,099550
6,000333	0,5	5,008500
6,008667	0,5	4,937350
6,017000	0,5	4,874900
6,025333	0,5	4,829600
6,033667	0,5	4,784850
6,042000	0,5	4,747750
6,050333	0,5	4,716750
6,058667	0,5	4,694150
6,067000	0,5	4,656650
6,075333	0,5	4,634150
6,083667	0,5	4,611950
6,092000	0,5	4,608250
6,100333	0,5	4,600700
6,108667	0,5	4,584650
6,117000	0,5	4,569950
6,125333	0,5	4,555700
6,133667	0,5	4,537100
6,142000	0,5	4,516550
6,150333	0,5	4,496750
6,158667	0,5	4,480250
6,167000	0,5	4,469100
6,175333	0,5	4,458550
6,183667	0,5	4,451350
6,192000	0,5	4,444650
6,200333	0,5	4,456850
6,208667	0,5	4,459200
6,217000	0,5	4,457750
6,225333	0,5	4,456700
6,233667	0,5	4,455000
6,242000	0,5	4,451000
6,250333	0,5	4,438450
6,258667	0,5	4,406600
6,267000	0,5	4,378100
6,275333	0,5	4,343350
6,283667	0,5	4,311500
6,292000	0,5	4,275800
6,300333	0,5	4,242200
6,308667	0,5	4,209550
6,317000	0,5	4,182550
6,325333	0,5	4,158000
6,333667	0,5	4,126350
6,342000	0,5	4,108900
6,350333	0,5	4,105850
6,358667	0,5	4,086450
6,367000	0,5	4,069100
6,375333	0,5	4,063050
6,383667	0,5	4,055150
6,392000	0,5	4,055650
6,400333	0,5	4,049350
6,408667	0,5	4,038700
6,417000	0,5	4,028150
6,425333	0,5	4,020850
6,433667	0,5	4,004550
6,442000	0,5	3,993850
6,450333	0,5	3,978250
6,458667	0,5	3,966050
6,467000	0,5	3,951850
6,475333	0,5	3,933550
6,483667	0,5	3,913850
6,492000	0,5	3,907850
6,500333	0,5	3,902600
6,508667	0,5	3,888700
6,517000	0,5	3,876950
6,525333	0,5	3,877550
6,533667	0,5	3,883200
6,542000	0,5	3,890800
6,550333	0,5	3,890200
6,558667	0,5	3,893850
6,567000	0,5	3,900950
6,575333	0,5	3,907550
6,583667	0,5	3,922150
6,592000	0,5	3,931300
6,600333	0,5	3,947700
6,608667	0,5	3,962250
6,617000	0,5	3,977950
6,625333	0,5	3,986750
6,633667	0,5	3,989600
6,642000	0,5	4,004900
6,650333	0,5	4,014150
6,658667	0,5	4,016500
6,667000	0,5	4,021600
6,675333	0,5	4,033350
6,683667	0,5	4,055800
6,692000	0,5	4,074900
6,700333	0,5	4,084900
6,708667	0,5	4,104450
6,717000	0,5	4,127100
6,725333	0,5	4,154550
6,733667	0,5	4,181450
6,742000	0,5	4,219250
6,750333	0,5	4,258350
6,758667	0,5	4,319150
6,767000	0,5	4,397650
6,775333	0,5	4,503350
6,783667	0,5	4,645200
6,792000	0,5	4,855850
6,800333	0,5	5,111350
6,808667	0,5	5,439800
6,817000	0,5	5,845350
6,825333	0,5	6,334350
6,833667	0,5	6,890850
6,842000	0,5	7,478850
6,850333	0,5	8,084950
6,858667	0,5	8,679700
6,867000	0,5	9,232200
6,875333	0,5	9,716800
6,883667	0,5	10,096700
6,892000	0,5	10,338850
6,900333	0,5	10,435900
6,908667	0,5	10,355350
6,917000	0,5	10,112700
6,925333	0,5	9,701050
6,933667	0,5	9,167150
6,942000	0,5	8,557300
6,950333	0,5	7,886250
6,958667	0,5	7,213750
6,967000	0,5	6,584450
6,975333	0,5	6,023150
6,983667	0,5	5,552000
6,992000	0,5	5,155350
7,000333	0,5	4,844150
7,008667	0,5	4,618400
7,017000	0,5	4,462800
7,025333	0,5	4,358950
7,033667	0,5	4,296950
7,042000	0,5	4,258850
7,050333	0,5	4,238750
7,058667	0,5	4,230800
7,067000	0,5	4,225600
7,075333	0,5	4,222450
7,083667	0,5	4,229600
7,092000	0,5	4,253700
7,100333	0,5	4,276800
7,108667	0,5	4,328050
7,117000	0,5	4,382950
7,125333	0,5	4,455150
7,133667	0,5	4,505650
7,142000	0,5	4,517150
7,150333	0,5	4,487100
7,158667	0,5	4,420300
7,167000	0,5	4,331400
7,175333	0,5	4,239850
7,183667	0,5	4,158400
7,192000	0,5	4,120850
7,200333	0,5	4,126200
7,208667	0,5	4,194850
7,217000	0,5	4,326800
7,225333	0,5	4,523750
7,233667	0,5	4,786750
7,242000	0,5	5,096600
7,250333	0,5	5,451600
7,258667	0,5	5,856800
7,267000	0,5	6,312650
7,275333	0,5	6,851700
7,283667	0,5	7,507450
7,292000	0,5	8,373500
7,300333	0,5	9,647400
7,308667	0,5	11,658200
7,317000	0,5	14,903050
7,325333	0,5	19,905650
7,333667	0,5	27,017600
7,342000	0,5	36,001201
7,350333	0,5	45,837851
7,358667	0,5	54,785701
7,367000	0,5	61,013301
7,375333	0,5	63,317001
7,383667	0,5	61,500101
7,392000	0,5	56,170401
7,400333	0,5	48,521701
7,408667	0,5	39,874851
7,417000	0,5	31,359750
7,425333	0,5	23,858100
7,433667	0,5	17,827950
7,442000	0,5	13,356750
7,450333	0,5	10,251300
7,458667	0,5	8,196150
7,467000	0,5	6,872750
7,475333	0,5	6,032400
7,483667	0,5	5,488800
7,492000	0,5	5,146000
7,500333	0,5	4,922750
7,508667	0,5	4,785950
7,517000	0,5	4,688600
7,525333	0,5	4,633700
7,533667	0,5	4,583350
7,542000	0,5	4,522200
7,550333	0,5	4,452050
7,558667	0,5	4,384700
7,567000	0,5	4,323600
7,575333	0,5	4,281500
7,583667	0,5	4,266300
7,592000	0,5	4,274850
7,600333	0,5	4,307150
7,608667	0,5	4,327900
7,617000	0,5	4,313350
7,625333	0,5	4,257050
7,633667	0,5	4,167350
7,642000	0,5	4,067100
7,650333	0,5	3,980650
7,658667	0,5	3,911900
7,667000	0,5	3,863100
7,675333	0,5	3,844600
7,683667	0,5	3,837700
7,692000	0,5	3,848000
7,700333	0,5	3,889600
7,708667	0,5	3,944950
7,717000	0,5	4,012700
7,725333	0,5	4,056650
7,733667	0,5	4,078050
7,742000	0,5	4,063000
7,750333	0,5	4,032400
7,758667	0,5	3,986050
7,767000	0,5	3,946200
7,775333	0,5	3,918400
7,783667	0,5	3,926000
7,792000	0,5	3,968750
7,800333	0,5	4,065850
7,808667	0,5	4,198050
7,817000	0,5	4,330700
7,825333	0,5	4,436500
7,833667	0,5	4,459450
7,842000	0,5	4,410150
7,850333	0,5	4,302000
7,858667	0,5	4,182250
7,867000	0,5	4,066300
7,875333	0,5	3,958050
7,883667	0,5	3,868750
7,892000	0,5	3,795750
7,900333	0,5	3,736900
7,908667	0,5	3,698450
7,917000	0,5	3,663600
7,925333	0,5	3,648700
7,933667	0,5	3,651000
7,942000	0,5	3,666100
7,950333	0,5	3,685850
7,958667	0,5	3,693400
7,967000	0,5	3,697650
7,975333	0,5	3,704100
7,983667	0,5	3,701300
7,992000	0,5	3,694300
8,000333	0,5	3,679150
8,008667	0,5	3,651850
8,017000	0,5	3,619250
8,025333	0,5	3,578650
8,033667	0,5	3,546750
8,042000	0,5	3,529550
8,050333	0,5	3,543950
8,058667	0,5	3,581000
8,067000	0,5	3,627650
8,075333	0,5	3,653300
8,083667	0,5	3,638050
8,092000	0,5	3,579350
8,100333	0,5	3,498700
8,108667	0,5	3,417850
8,117000	0,5	3,346700
8,125333	0,5	3,297650
8,133667	0,5	3,253200
8,142000	0,5	3,216900
8,150333	0,5	3,183300
8,158667	0,5	3,158850
8,167000	0,5	3,145350
8,175333	0,5	3,132100
8,183667	0,5	3,122100
8,192000	0,5	3,116050
8,200333	0,5	3,109000
8,208667	0,5	3,102900
8,217000	0,5	3,102200
8,225333	0,5	3,098550
8,233667	0,5	3,092700
8,242000	0,5	3,083400
8,250333	0,5	3,071900
8,258667	0,5	3,052900
8,267000	0,5	3,041300
8,275333	0,5	3,023600
8,283667	0,5	3,010850
8,292000	0,5	3,002600
8,300333	0,5	2,998050
8,308667	0,5	3,004100
8,317000	0,5	3,006900
8,325333	0,5	3,012450
8,333667	0,5	3,021600
8,342000	0,5	3,036350
8,350333	0,5	3,052900
8,358667	0,5	3,079700
8,367000	0,5	3,097500
8,375333	0,5	3,116000
8,383667	0,5	3,134300
8,392000	0,5	3,145050
8,400333	0,5	3,154100
8,408667	0,5	3,169850
8,417000	0,5	3,200750
8,425333	0,5	3,236200
8,433667	0,5	3,272300
8,442000	0,5	3,305600
8,450333	0,5	3,320100
8,458667	0,5	3,331900
8,467000	0,5	3,339850
8,475333	0,5	3,368600
8,483667	0,5	3,446000
8,492000	0,5	3,568450
8,500333	0,5	3,738200
8,508667	0,5	3,916500
8,517000	0,5	4,094300
8,525333	0,5	4,272750
8,533667	0,5	4,487950
8,542000	0,5	4,777350
8,550333	0,5	5,169700
8,558667	0,5	5,729400
8,567000	0,5	6,553800
8,575333	0,5	7,817700
8,583667	0,5	9,830650
8,592000	0,5	12,961550
8,600333	0,5	17,489300
8,608667	0,5	23,368700
8,617000	0,5	29,994650
8,625333	0,5	36,320051
8,633667	0,5	41,052901
8,642000	0,5	43,163951
8,650333	0,5	42,244251
8,658667	0,5	38,638401
8,667000	0,5	33,253600
8,675333	0,5	27,202650
8,683667	0,5	21,464950
8,692000	0,5	16,650450
8,700333	0,5	13,002400
8,708667	0,5	10,465350
8,717000	0,5	8,825800
8,725333	0,5	7,841900
8,733667	0,5	7,304000
8,742000	0,5	7,082500
8,750333	0,5	7,118400
8,758667	0,5	7,480250
8,767000	0,5	8,334150
8,775333	0,5	9,920150
8,783667	0,5	12,334800
8,792000	0,5	15,388150
8,800333	0,5	18,723800
8,808667	0,5	22,007000
8,817000	0,5	25,057550
8,825333	0,5	27,522650
8,833667	0,5	28,964750
8,842000	0,5	29,126100
8,850333	0,5	28,032650
8,858667	0,5	25,960850
8,867000	0,5	23,265050
8,875333	0,5	20,303000
8,883667	0,5	17,394500
8,892000	0,5	14,749050
8,900333	0,5	12,484950
8,908667	0,5	10,626450
8,917000	0,5	9,149550
8,925333	0,5	7,994250
8,933667	0,5	7,106600
8,942000	0,5	6,429850
8,950333	0,5	5,930350
8,958667	0,5	5,577650
8,967000	0,5	5,348100
8,975333	0,5	5,234450
8,983667	0,5	5,217200
8,992000	0,5	5,270950
9,000333	0,5	5,361600
9,008667	0,5	5,455600
9,017000	0,5	5,510050
9,025333	0,5	5,505550
9,033667	0,5	5,431550
9,042000	0,5	5,306050
9,050333	0,5	5,154300
9,058667	0,5	4,984450
9,067000	0,5	4,829050
9,075333	0,5	4,688600
9,083667	0,5	4,565150
9,092000	0,5	4,449750
9,100333	0,5	4,337950
9,108667	0,5	4,229050
9,117000	0,5	4,116150
9,125333	0,5	4,002700
9,133667	0,5	3,895550
9,142000	0,5	3,791400
9,150333	0,5	3,713700
9,158667	0,5	3,668800
9,167000	0,5	3,648800
9,175333	0,5	3,646700
9,183667	0,5	3,642000
9,192000	0,5	3,606150
9,200333	0,5	3,535500
9,208667	0,5	3,441100
9,217000	0,5	3,340250
9,225333	0,5	3,256250
9,233667	0,5	3,199300
9,242000	0,5	3,176400
9,250333	0,5	3,181900
9,258667	0,5	3,206100
9,267000	0,5	3,242800
9,275333	0,5	3,281050
9,283667	0,5	3,312050
9,292000	0,5	3,323100
9,300333	0,5	3,321900
9,308667	0,5	3,314150
9,317000	0,5	3,309750
9,325333	0,5	3,306700
9,333667	0,5	3,316250
9,342000	0,5	3,338000
9,350333	0,5	3,364450
9,358667	0,5	3,392400
9,367000	0,5	3,413550
9,375333	0,5	3,425550
9,383667	0,5	3,425250
9,392000	0,5	3,416300
9,400333	0,5	3,397600
9,408667	0,5	3,375600
9,417000	0,5	3,353900
9,425333	0,5	3,341850
9,433667	0,5	3,340200
9,442000	0,5	3,361600
9,450333	0,5	3,405050
9,458667	0,5	3,468400
9,467000	0,5	3,547500
9,475333	0,5	3,631100
9,483667	0,5	3,725050
9,492000	0,5	3,829100
9,500333	0,5	3,959250
9,508667	0,5	4,109400
9,517000	0,5	4,273850
9,525333	0,5	4,435550
9,533667	0,5	4,577050
9,542000	0,5	4,672250
9,550333	0,5	4,711500
9,558667	0,5	4,671650
9,567000	0,5	4,556350
9,575333	0,5	4,366250
9,583667	0,5	4,121700
9,592000	0,5	3,854950
9,600333	0,5	3,598000
9,608667	0,5	3,374850
9,617000	0,5	3,200650
9,625333	0,5	3,076150
9,633667	0,5	3,001850
9,642000	0,5	2,973550
9,650333	0,5	2,977750
9,658667	0,5	3,004400
9,667000	0,5	3,054800
9,675333	0,5	3,116300
9,683667	0,5	3,173850
9,692000	0,5	3,211250
9,700333	0,5	3,229650
9,708667	0,5	3,217250
9,717000	0,5	3,191500
9,725333	0,5	3,148600
9,733667	0,5	3,096550
9,742000	0,5	3,030800
9,750333	0,5	2,966100
9,758667	0,5	2,903050
9,767000	0,5	2,847300
9,775333	0,5	2,806750
9,783667	0,5	2,772450
9,792000	0,5	2,755700
9,800333	0,5	2,741750
9,808667	0,5	2,741200
9,817000	0,5	2,748050
9,825333	0,5	2,765550
9,833667	0,5	2,793650
9,842000	0,5	2,828050
9,850333	0,5	2,863050
9,858667	0,5	2,894600
9,867000	0,5	2,912450
9,875333	0,5	2,913800
9,883667	0,5	2,905400
9,892000	0,5	2,884050
9,900333	0,5	2,855750
9,908667	0,5	2,828550
9,917000	0,5	2,793800
9,925333	0,5	2,753950
9,933667	0,5	2,710700
9,942000	0,5	2,672350
9,950333	0,5	2,638900
9,958667	0,5	2,607250
9,967000	0,5	2,588250
9,975333	0,5	2,581100
9,983667	0,5	2,581800
9,992000	0,5	2,587850
10,000333	0,5	2,610550
10,008667	0,5	2,649000
10,017000	0,5	2,702950
10,025333	0,5	2,774400
10,033667	0,5	2,844200
10,042000	0,5	2,903950
10,050333	0,5	2,941250
10,058667	0,5	2,941650
10,067000	0,5	2,921700
10,075333	0,5	2,876500
10,083667	0,5	2,821800
10,092000	0,5	2,765400
10,100333	0,5	2,704500
10,108667	0,5	2,634600
10,117000	0,5	2,571050
10,125333	0,5	2,513400
10,133667	0,5	2,458750
10,142000	0,5	2,414250
10,150333	0,5	2,377900
10,158667	0,5	2,352900
10,167000	0,5	2,333350
10,175333	0,5	2,325000
10,183667	0,5	2,315900
10,192000	0,5	2,321450
10,200333	0,5	2,330550
10,208667	0,5	2,340200
10,217000	0,5	2,351900
10,225333	0,5	2,365350
10,233667	0,5	2,378700
10,242000	0,5	2,393600
10,250333	0,5	2,403750
10,258667	0,5	2,404400
10,267000	0,5	2,404200
10,275333	0,5	2,394300
10,283667	0,5	2,384100
10,292000	0,5	2,378250
10,300333	0,5	2,388900
10,308667	0,5	2,417100
10,317000	0,5	2,472400
10,325333	0,5	2,538000
10,333667	0,5	2,617200
10,342000	0,5	2,698800
10,350333	0,5	2,762800
10,358667	0,5	2,801250
10,367000	0,5	2,818300
10,375333	0,5	2,817150
10,383667	0,5	2,808450
10,392000	0,5	2,793600
10,400333	0,5	2,765650
10,408667	0,5	2,718350
10,417000	0,5	2,651400
10,425333	0,5	2,564550
10,433667	0,5	2,461800
10,442000	0,5	2,358200
10,450333	0,5	2,251550
10,458667	0,5	2,161400
10,467000	0,5	2,087600
10,475333	0,5	2,027350
10,483667	0,5	1,981800
10,492000	0,5	1,965750
10,500333	0,5	1,957850
10,508667	0,5	1,964500
10,517000	0,5	1,981850
10,525333	0,5	2,005950
10,533667	0,5	2,040400
10,542000	0,5	2,067650
10,550333	0,5	2,085400
10,558667	0,5	2,102550
10,567000	0,5	2,113650
10,575333	0,5	2,127550
10,583667	0,5	2,149800
10,592000	0,5	2,187550
10,600333	0,5	2,235950
10,608667	0,5	2,292900
10,617000	0,5	2,348250
10,625333	0,5	2,382150
10,633667	0,5	2,400800
10,642000	0,5	2,395850
10,650333	0,5	2,380900
10,658667	0,5	2,363250
10,667000	0,5	2,345400
10,675333	0,5	2,332400
10,683667	0,5	2,321550
10,692000	0,5	2,300250
10,700333	0,5	2,274650
10,708667	0,5	2,246900
10,717000	0,5	2,216300
10,725333	0,5	2,187350
10,733667	0,5	2,159050
10,742000	0,5	2,134650
10,750333	0,5	2,117200
10,758667	0,5	2,110600
10,767000	0,5	2,111300
10,775333	0,5	2,122550
10,783667	0,5	2,123200
10,792000	0,5	2,195100
10,800333	0,5	2,244450
10,808667	0,5	2,309750
10,817000	0,5	2,387300
10,825333	0,5	2,484200
10,833667	0,5	2,591100
10,842000	0,5	2,687250
10,850333	0,5	2,757350
10,858667	0,5	2,797000
10,867000	0,5	2,779100
10,875333	0,5	2,720250
10,883667	0,5	2,623500
10,892000	0,5	2,518300
10,900333	0,5	2,413950
10,908667	0,5	2,329000
10,917000	0,5	2,266200
10,925333	0,5	2,207350
10,933667	0,5	2,164550
10,942000	0,5	2,117250
10,950333	0,5	2,075800
10,958667	0,5	2,034800
10,967000	0,5	2,005800
10,975333	0,5	1,988750
10,983667	0,5	1,986350
10,992000	0,5	1,995800
11,000333	0,5	2,017450
11,008667	0,5	2,048950
11,017000	0,5	2,090700
11,025333	0,5	2,139750
11,033667	0,5	2,201300
11,042000	0,5	2,268600
11,050333	0,5	2,342200
11,058667	0,5	2,412100
11,067000	0,5	2,468700
11,075333	0,5	2,500850
11,083667	0,5	2,521850
11,092000	0,5	2,511750
11,100333	0,5	2,504350
11,108667	0,5	2,504200
11,117000	0,5	2,540050
11,125333	0,5	2,613950
11,133667	0,5	2,737350
11,142000	0,5	2,921950
11,150333	0,5	3,171350
11,158667	0,5	3,481950
11,167000	0,5	3,847200
11,175333	0,5	4,218350
11,183667	0,5	4,542600
11,192000	0,5	4,765550
11,200333	0,5	4,864800
11,208667	0,5	4,843850
11,217000	0,5	4,712300
11,225333	0,5	4,519850
11,233667	0,5	4,295750
11,242000	0,5	4,063800
11,250333	0,5	3,848650
11,258667	0,5	3,666600
11,267000	0,5	3,515050
11,275333	0,5	3,406500
11,283667	0,5	3,338200
11,292000	0,5	3,304000
11,300333	0,5	3,296100
11,308667	0,5	3,311200
11,317000	0,5	3,316450
11,325333	0,5	3,309150
11,333667	0,5	3,275950
11,342000	0,5	3,219500
11,350333	0,5	3,142900
11,358667	0,5	3,047100
11,367000	0,5	2,950600
11,375333	0,5	2,875600
11,383667	0,5	2,826250
11,392000	0,5	2,800950
11,400333	0,5	2,805200
11,408667	0,5	2,825500
11,417000	0,5	2,857250
11,425333	0,5	2,878600
11,433667	0,5	2,883800
11,442000	0,5	2,864900
11,450333	0,5	2,831850
11,458667	0,5	2,789950
11,467000	0,5	2,747750
11,475333	0,5	2,714900
11,483667	0,5	2,701400
11,492000	0,5	2,711450
11,500333	0,5	2,748000
11,508667	0,5	2,810450
11,517000	0,5	2,896950
11,525333	0,5	3,012750
11,533667	0,5	3,146450
11,542000	0,5	3,284750
11,550333	0,5	3,412850
11,558667	0,5	3,516650
11,567000	0,5	3,578850
11,575333	0,5	3,586800
11,583667	0,5	3,535700
11,592000	0,5	3,453350
11,600333	0,5	3,331450
11,608667	0,5	3,201350
11,617000	0,5	3,069700
11,625333	0,5	2,949850
11,633667	0,5	2,844100
11,642000	0,5	2,756000
11,650333	0,5	2,691900
11,658667	0,5	2,645450
11,667000	0,5	2,611050
11,675333	0,5	2,592400
11,683667	0,5	2,574650
11,692000	0,5	2,550700
11,700333	0,5	2,522800
11,708667	0,5	2,495300
11,717000	0,5	2,467450
11,725333	0,5	2,435400
11,733667	0,5	2,409600
11,742000	0,5	2,391850
11,750333	0,5	2,373000
11,758667	0,5	2,353300
11,767000	0,5	2,339550
11,775333	0,5	2,322500
11,783667	0,5	2,308000
11,792000	0,5	2,298700
11,800333	0,5	2,290650
11,808667	0,5	2,268600
11,817000	0,5	2,264450
11,825333	0,5	2,256450
11,833667	0,5	2,256150
11,842000	0,5	2,247700
11,850333	0,5	2,244550
11,858667	0,5	2,247250
11,867000	0,5	2,248100
11,875333	0,5	2,247600
11,883667	0,5	2,243250
11,892000	0,5	2,242250
11,900333	0,5	2,227300
11,908667	0,5	2,211700
11,917000	0,5	2,187900
11,925333	0,5	2,158100
11,933667	0,5	2,129750
11,942000	0,5	2,105400
11,950333	0,5	2,087850
11,958667	0,5	2,073700
11,967000	0,5	2,079350
11,975333	0,5	2,091200
11,983667	0,5	2,097500
11,992000	0,5	2,107650
12,000333	0,5	2,108500
12,008667	0,5	2,109800
12,017000	0,5	2,104800
12,025333	0,5	2,088400
12,033667	0,5	2,065750
12,042000	0,5	2,043650
12,050333	0,5	2,024550
12,058667	0,5	2,012600
12,067000	0,5	2,019450
12,075333	0,5	2,030750
12,083667	0,5	2,039200
12,092000	0,5	2,058550
12,100333	0,5	2,116900
12,108667	0,5	2,283350
12,117000	0,5	2,594450
12,125333	0,5	3,012500
12,133667	0,5	3,501150
12,142000	0,5	3,748900
12,150333	0,5	3,851150
12,158667	0,5	3,765300
12,167000	0,5	3,415150
12,175333	0,5	2,822050
12,183667	0,5	2,293550
12,192000	0,5	1,707250
12,200333	0,5	1,186950
12,208667	0,5	0,853250
12,217000	0,5	0,645550
12,225333	0,5	0,513600
12,233667	0,5	0,432450
12,242000	0,5	0,385250
12,250333	0,5	0,350850
12,258667	0,5	0,333550
12,267000	0,5	0,322000
12,275333	0,5	0,308300
12,283667	0,5	0,285400
12,292000	0,5	0,268100
12,300333	0,5	0,254550
12,308667	0,5	0,234250
12,317000	0,5	0,215550
12,325333	0,5	0,200750
12,333667	0,5	0,183950
12,342000	0,5	0,175850
12,350333	0,5	0,165800
12,358667	0,5	0,156650
12,367000	0,5	0,147250
12,375333	0,5	0,136300
12,383667	0,5	0,132600
12,392000	0,5	0,125050
12,400333	0,5	0,112700
12,408667	0,5	0,114000
12,417000	0,5	0,111400
12,425333	0,5	0,103400
12,433667	0,5	0,095250
12,442000	0,5	0,085050
12,450333	0,5	0,086000
12,458667	0,5	0,082150
12,467000	0,5	0,077800
12,475333	0,5	0,072100
12,483667	0,5	0,065350
12,492000	0,5	0,057550
12,500333	0,5	0,052150
12,508667	0,5	0,044150
12,517000	0,5	0,033750
12,525333	0,5	0,025150
12,533667	0,5	0,024000
12,542000	0,5	0,010200
12,550333	0,5	0,000550
12,558667	0,5	-0,001800
12,567000	0,5	-0,003550
12,575333	0,5	-0,010150
12,583667	0,5	-0,016050
12,592000	0,5	-0,015950
12,600333	0,5	-0,013550
12,608667	0,5	-0,009700
12,617000	0,5	-0,015000
12,625333	0,5	-0,008500
12,633667	0,5	-0,007750
12,642000	0,5	-0,007300
12,650333	0,5	-0,007750
12,658667	0,5	-0,009250
12,667000	0,5	-0,014100
12,675333	0,5	-0,014050
12,683667	0,5	-0,016000
12,692000	0,5	-0,020450
12,700333	0,5	-0,021900
12,708667	0,5	-0,021950
12,717000	0,5	-0,024200
12,725333	0,5	-0,031400
12,733667	0,5	-0,042950
12,742000	0,5	-0,050350
12,750333	0,5	-0,047800
12,758667	0,5	-0,057050
12,767000	0,5	-0,058000
12,775333	0,5	-0,065100
12,783667	0,5	-0,068950
12,792000	0,5	-0,071700
12,800333	0,5	-0,074900
12,808667	0,5	-0,080400
12,817000	0,5	-0,083000
12,825333	0,5	-0,085600
12,833667	0,5	-0,083150
12,842000	0,5	-0,092700
12,850333	0,5	-0,091300
12,858667	0,5	-0,094550
12,867000	0,5	-0,099750
12,875333	0,5	-0,109650
12,883667	0,5	-0,108600
12,892000	0,5	-0,112650
12,900333	0,5	-0,110400
12,908667	0,5	-0,111200
12,917000	0,5	-0,111350
12,925333	0,5	-0,111700
12,933667	0,5	-0,111100
12,942000	0,5	-0,112000
12,950333	0,5	-0,110450
12,958667	0,5	-0,111300
12,967000	0,5	-0,107800
12,975333	0,5	-0,106900
12,983667	0,5	-0,109150
12,992000	0,5	-0,113050
13,000333	0,5	-0,111150
13,008667	0,5	-0,111550
13,017000	0,5	-0,113150
13,025333	0,5	-0,118800
13,033667	0,5	-0,126700
13,042000	0,5	-0,124250
13,050333	0,5	-0,126700
13,058667	0,5	-0,121650
13,067000	0,5	-0,121400
13,075333	0,5	-0,116950
13,083667	0,5	-0,113000
13,092000	0,5	-0,106450
13,100333	0,5	-0,103650
13,108667	0,5	-0,098500
13,117000	0,5	-0,089050
13,125333	0,5	-0,084500
13,133667	0,5	-0,085350
13,142000	0,5	-0,083300
13,150333	0,5	-0,081950
13,158667	0,5	-0,089600
13,167000	0,5	-0,100250
13,175333	0,5	-0,114500
13,183667	0,5	-0,123700
13,192000	0,5	-0,133300
13,200333	0,5	-0,137800
13,208667	0,5	-0,145050
13,217000	0,5	-0,151550
13,225333	0,5	-0,157400
13,233667	0,5	-0,160150
13,242000	0,5	-0,164650
13,250333	0,5	-0,163300
13,258667	0,5	-0,163400
13,267000	0,5	-0,161950
13,275333	0,5	-0,156900
13,283667	0,5	-0,159300
13,292000	0,5	-0,148300
13,300333	0,5	-0,130700
13,308667	0,5	-0,118000
13,317000	0,5	-0,098350
13,325333	0,5	-0,075850
13,333667	0,5	-0,043150
13,342000	0,5	0,001500
13,350333	0,5	0,036300
13,358667	0,5	0,070250
13,367000	0,5	0,093300
13,375333	0,5	0,108500
13,383667	0,5	0,109850
13,392000	0,5	0,099050
13,400333	0,5	0,077250
13,408667	0,5	0,050350
13,417000	0,5	0,027150
13,425333	0,5	0,003250
13,433667	0,5	-0,024900
13,442000	0,5	-0,032650
13,450333	0,5	-0,043100
13,458667	0,5	-0,050850
13,467000	0,5	-0,049700
13,475333	0,5	-0,038250
13,483667	0,5	-0,008200
13,492000	0,5	0,028150
13,500333	0,5	0,068900
13,508667	0,5	0,109850
13,517000	0,5	0,146350
13,525333	0,5	0,165000
13,533667	0,5	0,173200
13,542000	0,5	0,161350
13,550333	0,5	0,145900
13,558667	0,5	0,123550
13,567000	0,5	0,106650
13,575333	0,5	0,077950
13,583667	0,5	0,066150
13,592000	0,5	0,068500
13,600333	0,5	0,085950
13,608667	0,5	0,104700
13,617000	0,5	0,125450
13,625333	0,5	0,151200
13,633667	0,5	0,175450
13,642000	0,5	0,193800
13,650333	0,5	0,200250
13,658667	0,5	0,201100
13,667000	0,5	0,197000
13,675333	0,5	0,186400
13,683667	0,5	0,170800
13,692000	0,5	0,164300
13,700333	0,5	0,154550
13,708667	0,5	0,154750
13,717000	0,5	0,158250
13,725333	0,5	0,154500
13,733667	0,5	0,158850
13,742000	0,5	0,160650
13,750333	0,5	0,161000
13,758667	0,5	0,160200
13,767000	0,5	0,146100
13,775333	0,5	0,151500
13,783667	0,5	0,151150
13,792000	0,5	0,150250
13,800333	0,5	0,149300
13,808667	0,5	0,157100
13,817000	0,5	0,164900
13,825333	0,5	0,178500
13,833667	0,5	0,196250
13,842000	0,5	0,207050
13,850333	0,5	0,228350
13,858667	0,5	0,247000
13,867000	0,5	0,261800
13,875333	0,5	0,258300
13,883667	0,5	0,267350
13,892000	0,5	0,257750
13,900333	0,5	0,247200
13,908667	0,5	0,234200
13,917000	0,5	0,222450
13,925333	0,5	0,227150
13,933667	0,5	0,235200
13,942000	0,5	0,235100
13,950333	0,5	0,242850
13,958667	0,5	0,248000
13,967000	0,5	0,256950
13,975333	0,5	0,271700
13,983667	0,5	0,287550
13,992000	0,5	0,300000
14,000333	0,5	0,312800
14,008667	0,5	0,326900
14,017000	0,5	0,328700
14,025333	0,5	0,328450
14,033667	0,5	0,337100
14,042000	0,5	0,340750
14,050333	0,5	0,344150
14,058667	0,5	0,341450
14,067000	0,5	0,341450
14,075333	0,5	0,352350
14,083667	0,5	0,357100
14,092000	0,5	0,368050
14,100333	0,5	0,374250
14,108667	0,5	0,382000
14,117000	0,5	0,390750
14,125333	0,5	0,400900
14,133667	0,5	0,410350
14,142000	0,5	0,414150
14,150333	0,5	0,429400
14,158667	0,5	0,436400
14,167000	0,5	0,441950
14,175333	0,5	0,450500
14,183667	0,5	0,466050
14,192000	0,5	0,471600
14,200333	0,5	0,475850
14,208667	0,5	0,474600
14,217000	0,5	0,480700
14,225333	0,5	0,482050
14,233667	0,5	0,494550
14,242000	0,5	0,493100
14,250333	0,5	0,498300
14,258667	0,5	0,500450
14,267000	0,5	0,504650
14,275333	0,5	0,507800
14,283667	0,5	0,512350
14,292000	0,5	0,516750
14,300333	0,5	0,518700
14,308667	0,5	0,515400
14,317000	0,5	0,505000
14,325333	0,5	0,510150
14,333667	0,5	0,514650
14,342000	0,5	0,513350
14,350333	0,5	0,505700
14,358667	0,5	0,502400
14,367000	0,5	0,502650
14,375333	0,5	0,505450
14,383667	0,5	0,501900
14,392000	0,5	0,505000
14,400333	0,5	0,505350
14,408667	0,5	0,508400
14,417000	0,5	0,510400
14,425333	0,5	0,510100
14,433667	0,5	0,504650
14,442000	0,5	0,503500
14,450333	0,5	0,501450
14,458667	0,5	0,493350
14,467000	0,5	0,487000
14,475333	0,5	0,495150
14,483667	0,5	0,498350
14,492000	0,5	0,496400
14,500333	0,5	0,489000
14,508667	0,5	0,477750
14,517000	0,5	0,483450
14,525333	0,5	0,473400
14,533667	0,5	0,467050
14,542000	0,5	0,458000
14,550333	0,5	0,459700
14,558667	0,5	0,449750
14,567000	0,5	0,451500
14,575333	0,5	0,449350
14,583667	0,5	0,443600
14,592000	0,5	0,433700
14,600333	0,5	0,434800
14,608667	0,5	0,411950
14,617000	0,5	0,410750
14,625333	0,5	0,406000
14,633667	0,5	0,400450
14,642000	0,5	0,389450
14,650333	0,5	0,371950
14,658667	0,5	0,371450
14,667000	0,5	0,371700
14,675333	0,5	0,367550
14,683667	0,5	0,361750
14,692000	0,5	0,355950
14,700333	0,5	0,351950
14,708667	0,5	0,352950
14,717000	0,5	0,348600
14,725333	0,5	0,344800
14,733667	0,5	0,337100
14,742000	0,5	0,334950
14,750333	0,5	0,330600
14,758667	0,5	0,315750
14,767000	0,5	0,323600
14,775333	0,5	0,319900
14,783667	0,5	0,313950
14,792000	0,5	0,306100
14,800333	0,5	0,287000
14,808667	0,5	0,288750
14,817000	0,5	0,287900
14,825333	0,5	0,286400
14,833667	0,5	0,280800
14,842000	0,5	0,280850
14,850333	0,5	0,278900
14,858667	0,5	0,277850
14,867000	0,5	0,282000
14,875333	0,5	0,275650
14,883667	0,5	0,275600
14,892000	0,5	0,267850
14,900333	0,5	0,273350
14,908667	0,5	0,265250
14,917000	0,5	0,280850
14,925333	0,5	0,275900
14,933667	0,5	0,278150
14,942000	0,5	0,278650
14,950333	0,5	0,272150
14,958667	0,5	0,278050
14,967000	0,5	0,287400
14,975333	0,5	0,291650
14,983667	0,5	0,295700
14,992000	0,5	0,298100
15,000333	0,5	0,300000
15,008667	0,5	0,301100
15,017000	0,5	0,297750
15,025333	0,5	0,296100
15,033667	0,5	0,290400
15,042000	0,5	0,297050
15,050333	0,5	0,296850
15,058667	0,5	0,302500
15,067000	0,5	0,319350
15,075333	0,5	0,325150
15,083667	0,5	0,332600
15,092000	0,5	0,330000
15,100333	0,5	0,324350
15,108667	0,5	0,326950
15,117000	0,5	0,317500
15,125333	0,5	0,317750
15,133667	0,5	0,311850
15,142000	0,5	0,321200
15,150333	0,5	0,329000
15,158667	0,5	0,353300
15,167000	0,5	0,372900
15,175333	0,5	0,390900
15,183667	0,5	0,406250
15,192000	0,5	0,397350
15,200333	0,5	0,369000
15,208667	0,5	0,351100
15,217000	0,5	0,332150
15,225333	0,5	0,313050
15,233667	0,5	0,297000
15,242000	0,5	0,274750
15,250333	0,5	0,265950
15,258667	0,5	0,250550
15,267000	0,5	0,238050
15,275333	0,5	0,219650
15,283667	0,5	0,208750
15,292000	0,5	0,192150
15,300333	0,5	0,187300
15,308667	0,5	0,176600
15,317000	0,5	0,165700
15,325333	0,5	0,153550
15,333667	0,5	0,149350
15,342000	0,5	0,136600
15,350333	0,5	0,121500
15,358667	0,5	0,121250
15,367000	0,5	0,114300
15,375333	0,5	0,102450
15,383667	0,5	0,087950
15,392000	0,5	0,082250
15,400333	0,5	0,083450
15,408667	0,5	0,085150
15,417000	0,5	0,088600
15,425333	0,5	0,096300
15,433667	0,5	0,094600
15,442000	0,5	0,099950
15,450333	0,5	0,091850
15,458667	0,5	0,091000
15,467000	0,5	0,081950
15,475333	0,5	0,075650
15,483667	0,5	0,076900
15,492000	0,5	0,063800
15,500333	0,5	0,062250
15,508667	0,5	0,068650
15,517000	0,5	0,063250
15,525333	0,5	0,051000
15,533667	0,5	0,031800
15,542000	0,5	0,024550
15,550333	0,5	0,023900
15,558667	0,5	0,014700
15,567000	0,5	0,009300
15,575333	0,5	0,005500
15,583667	0,5	0,002450
15,592000	0,5	-0,000800
15,600333	0,5	0,003450
15,608667	0,5	-0,000800
15,617000	0,5	-0,004600
15,625333	0,5	-0,012700
15,633667	0,5	-0,003950
15,642000	0,5	-0,025350
15,650333	0,5	-0,015850
15,658667	0,5	-0,019250
15,667000	0,5	-0,019250
15,675333	0,5	-0,033650
15,683667	0,5	-0,048300
15,692000	0,5	-0,041650
15,700333	0,5	-0,042650
15,708667	0,5	-0,045100
15,717000	0,5	-0,052900
15,725333	0,5	-0,052700
15,733667	0,5	-0,054300
15,742000	0,5	-0,051800
15,750333	0,5	-0,052500
15,758667	0,5	-0,047400
15,767000	0,5	-0,047600
15,775333	0,5	-0,034600
15,783667	0,5	-0,035350
15,792000	0,5	-0,039150
15,800333	0,5	-0,031650
15,808667	0,5	-0,034750
15,817000	0,5	-0,048050
15,825333	0,5	-0,059150
15,833667	0,5	-0,081400
15,842000	0,5	-0,082550
15,850333	0,5	-0,085000
15,858667	0,5	-0,085500
15,867000	0,5	-0,090550
15,875333	0,5	-0,087850
15,883667	0,5	-0,085650
15,892000	0,5	-0,079800
15,900333	0,5	-0,074900
15,908667	0,5	-0,076600
15,917000	0,5	-0,076800
15,925333	0,5	-0,079050
15,933667	0,5	-0,089850
15,942000	0,5	-0,107200
15,950333	0,5	-0,109300
15,958667	0,5	-0,125200
15,967000	0,5	-0,135600
15,975333	0,5	-0,154900
15,983667	0,5	-0,165200
15,992000	0,5	-0,167100
16,000333	0,5	-0,167800
16,008667	0,5	-0,174500
16,017000	0,5	-0,172000
16,025333	0,5	-0,173700
16,033667	0,5	-0,175950
16,042000	0,5	-0,176400
16,050333	0,5	-0,179900
16,058667	0,5	-0,180900
16,067000	0,5	-0,185850
16,075333	0,5	-0,185050
16,083667	0,5	-0,197700
16,092000	0,5	-0,194850
16,100333	0,5	-0,190250
16,108667	0,5	-0,196350
16,117000	0,5	-0,202800
16,125333	0,5	-0,210050
16,133667	0,5	-0,214050
16,142000	0,5	-0,204550
16,150333	0,5	-0,203300
16,158667	0,5	-0,195100
16,167000	0,5	-0,196150
16,175333	0,5	-0,188350
16,183667	0,5	-0,178400
16,192000	0,5	-0,176450
16,200333	0,5	-0,180300
16,208667	0,5	-0,181450
16,217000	0,5	-0,176850
16,225333	0,5	-0,189150
16,233667	0,5	-0,202500
16,242000	0,5	-0,197200
16,250333	0,5	-0,201500
16,258667	0,5	-0,215600
16,267000	0,5	-0,228900
16,275333	0,5	-0,247900
16,283667	0,5	-0,250100
16,292000	0,5	-0,257850
16,300333	0,5	-0,256400
16,308667	0,5	-0,260350
16,317000	0,5	-0,262400
16,325333	0,5	-0,268950
16,333667	0,5	-0,264500
16,342000	0,5	-0,268150
16,350333	0,5	-0,267000
16,358667	0,5	-0,267100
16,367000	0,5	-0,259650
16,375333	0,5	-0,273800
16,383667	0,5	-0,269800
16,392000	0,5	-0,270650
16,400333	0,5	-0,272550
16,408667	0,5	-0,279750
16,417000	0,5	-0,301650
16,425333	0,5	-0,307300
16,433667	0,5	-0,316200
16,442000	0,5	-0,317300
16,450333	0,5	-0,329350
16,458667	0,5	-0,329750
16,467000	0,5	-0,334650
16,475333	0,5	-0,333150
16,483667	0,5	-0,338500
16,492000	0,5	-0,337750
16,500333	0,5	-0,342500
16,508667	0,5	-0,343900
16,517000	0,5	-0,340000
16,525333	0,5	-0,353400
16,533667	0,5	-0,347500
16,542000	0,5	-0,340250
16,550333	0,5	-0,346550
16,558667	0,5	-0,353800
16,567000	0,5	-0,375500
16,575333	0,5	-0,375250
16,583667	0,5	-0,372650
16,592000	0,5	-0,377800
16,600333	0,5	-0,378400
16,608667	0,5	-0,385100
16,617000	0,5	-0,379300
16,625333	0,5	-0,383750
16,633667	0,5	-0,381050
16,642000	0,5	-0,386200
16,650333	0,5	-0,384650
16,658667	0,5	-0,381350
16,667000	0,5	-0,378800
16,675333	0,5	-0,398900
16,683667	0,5	-0,383700
16,692000	0,5	-0,387400
16,700333	0,5	-0,387550
16,708667	0,5	-0,394550
16,717000	0,5	-0,407700
16,725333	0,5	-0,399850
16,733667	0,5	-0,398600
16,742000	0,5	-0,399300
16,750333	0,5	-0,405500
16,758667	0,5	-0,405650
16,767000	0,5	-0,413100
16,775333	0,5	-0,413050
16,783667	0,5	-0,417350
16,792000	0,5	-0,415050
16,800333	0,5	-0,418300
16,808667	0,5	-0,405550
16,817000	0,5	-0,412400
16,825333	0,5	-0,408800
16,833667	0,5	-0,388800
16,842000	0,5	-0,378300
16,850333	0,5	-0,373200
16,858667	0,5	-0,365450
16,867000	0,5	-0,353700
16,875333	0,5	-0,324100
16,883667	0,5	-0,300900
16,892000	0,5	-0,272600
16,900333	0,5	-0,245800
16,908667	0,5	-0,221900
16,917000	0,5	-0,204600
16,925333	0,5	-0,196550
16,933667	0,5	-0,190850
16,942000	0,5	-0,197150
16,950333	0,5	-0,186600
16,958667	0,5	-0,186150
16,967000	0,5	-0,181500
16,975333	0,5	-0,159400
16,983667	0,5	-0,125500
16,992000	0,5	-0,101000
17,000333	0,5	-0,069900
17,008667	0,5	-0,052450
17,017000	0,5	-0,025500
17,025333	0,5	-0,006800
17,033667	0,5	0,005750
17,042000	0,5	-0,001150
17,050333	0,5	-0,013050
17,058667	0,5	-0,034500
17,067000	0,5	-0,052450
17,075333	0,5	-0,069250
17,083667	0,5	-0,085450
17,092000	0,5	-0,087850
17,100333	0,5	-0,085950
17,108667	0,5	-0,083350
17,117000	0,5	-0,084650
17,125333	0,5	-0,062250
17,133667	0,5	-0,050800
17,142000	0,5	-0,040100
17,150333	0,5	-0,041500
17,158667	0,5	-0,034600
17,167000	0,5	-0,029750
17,175333	0,5	-0,014650
17,183667	0,5	-0,012900
17,192000	0,5	-0,008000
17,200333	0,5	-0,016550
17,208667	0,5	-0,024850
17,217000	0,5	-0,039850
17,225333	0,5	-0,055150
17,233667	0,5	-0,080850
17,242000	0,5	-0,103700
17,250333	0,5	-0,120050
17,258667	0,5	-0,152000
17,267000	0,5	-0,170350
17,275333	0,5	-0,181700
17,283667	0,5	-0,193150
17,292000	0,5	-0,214600
17,300333	0,5	-0,241050
17,308667	0,5	-0,254050
17,317000	0,5	-0,253500
17,325333	0,5	-0,271700
17,333667	0,5	-0,268250
17,342000	0,5	-0,280100
17,350333	0,5	-0,281750
17,358667	0,5	-0,294100
17,367000	0,5	-0,293000
17,375333	0,5	-0,300300
17,383667	0,5	-0,305800
17,392000	0,5	-0,300250
17,400333	0,5	-0,301550
17,408667	0,5	-0,317500
17,417000	0,5	-0,306250
17,425333	0,5	-0,308600
17,433667	0,5	-0,319650
17,442000	0,5	-0,329350
17,450333	0,5	-0,356200
17,458667	0,5	-0,355150
17,467000	0,5	-0,364700
17,475333	0,5	-0,369700
17,483667	0,5	-0,388200
17,492000	0,5	-0,390550
17,500333	0,5	-0,400900
17,508667	0,5	-0,399250
17,517000	0,5	-0,404950
17,525333	0,5	-0,400700
17,533667	0,5	-0,397950
17,542000	0,5	-0,386850
17,550333	0,5	-0,367500
17,558667	0,5	-0,359500
17,567000	0,5	-0,314300
17,575333	0,5	-0,270550
17,583667	0,5	-0,229100
17,592000	0,5	-0,178200
17,600333	0,5	-0,124150
17,608667	0,5	-0,042000
17,617000	0,5	0,047700
17,625333	0,5	0,127800
17,633667	0,5	0,197500
17,642000	0,5	0,230450
17,650333	0,5	0,231050
17,658667	0,5	0,178700
17,667000	0,5	0,092700
17,675333	0,5	-0,023100
17,683667	0,5	-0,144050
17,692000	0,5	-0,247050
17,700333	0,5	-0,344000
17,708667	0,5	-0,427600
17,717000	0,5	-0,470600
17,725333	0,5	-0,509800
17,733667	0,5	-0,545250
17,742000	0,5	-0,574300
17,750333	0,5	-0,597550
17,758667	0,5	-0,597300
17,767000	0,5	-0,607600
17,775333	0,5	-0,609950
17,783667	0,5	-0,615650
17,792000	0,5	-0,616900
17,800333	0,5	-0,622950
17,808667	0,5	-0,624800
17,817000	0,5	-0,629650
17,825333	0,5	-0,635100
17,833667	0,5	-0,636050
17,842000	0,5	-0,637050
17,850333	0,5	-0,659350
17,858667	0,5	-0,661450
17,867000	0,5	-0,665800
17,875333	0,5	-0,675450
17,883667	0,5	-0,690400
17,892000	0,5	-0,710950
17,900333	0,5	-0,716400
17,908667	0,5	-0,725700
17,917000	0,5	-0,729050
17,925333	0,5	-0,736800
17,933667	0,5	-0,739500
17,942000	0,5	-0,745100
17,950333	0,5	-0,745350
17,958667	0,5	-0,750700
17,967000	0,5	-0,758800
17,975333	0,5	-0,767050
17,983667	0,5	-0,765950
17,992000	0,5	-0,771500
18,000333	0,5	-0,785500
18,008667	0,5	-0,784400
18,017000	0,5	-0,789050
18,025333	0,5	-0,797900
18,033667	0,5	-0,815950
18,042000	0,5	-0,830850
18,050333	0,5	-0,837500
18,058667	0,5	-0,837900
18,067000	0,5	-0,840950
18,075333	0,5	-0,843050
18,083667	0,5	-0,847600
18,092000	0,5	-0,853050
18,100333	0,5	-0,855300
18,108667	0,5	-0,856150
18,117000	0,5	-0,862300
18,125333	0,5	-0,860100
18,133667	0,5	-0,864150
18,142000	0,5	-0,869550
18,150333	0,5	-0,879650
18,158667	0,5	-0,873950
18,167000	0,5	-0,883250
18,175333	0,5	-0,888900
18,183667	0,5	-0,910550
18,192000	0,5	-0,919200
18,200333	0,5	-0,922600
18,208667	0,5	-0,921900
18,217000	0,5	-0,931900
18,225333	0,5	-0,934350
18,233667	0,5	-0,937650
18,242000	0,5	-0,941250
18,250333	0,5	-0,945200
18,258667	0,5	-0,950300
18,267000	0,5	-0,954900
18,275333	0,5	-0,957150
18,283667	0,5	-0,955050
18,292000	0,5	-0,982700
18,300333	0,5	-0,973500
18,308667	0,5	-0,971850
18,317000	0,5	-0,981600
18,325333	0,5	-0,992350
18,333667	0,5	-1,013950
18,342000	0,5	-1,016550
18,350333	0,5	-1,013800
18,358667	0,5	-1,023950
18,367000	0,5	-1,024600
18,375333	0,5	-1,031200
18,383667	0,5	-1,030550
18,392000	0,5	-1,031850
18,400333	0,5	-1,035500
18,408667	0,5	-1,038300
18,417000	0,5	-1,044350
18,425333	0,5	-1,029500
18,433667	0,5	-1,034550
18,442000	0,5	-1,044500
18,450333	0,5	-1,038650
18,458667	0,5	-1,034500
18,467000	0,5	-1,044200
18,475333	0,5	-1,050300
18,483667	0,5	-1,055450
18,492000	0,5	-1,048900
18,500333	0,5	-1,047500
18,508667	0,5	-1,032850
18,517000	0,5	-1,035400
18,525333	0,5	-1,018750
18,533667	0,5	-1,013350
18,542000	0,5	-0,995800
18,550333	0,5	-0,985200
18,558667	0,5	-0,967250
18,567000	0,5	-0,951950
18,575333	0,5	-0,934300
18,583667	0,5	-0,933650
18,592000	0,5	-0,912500
18,600333	0,5	-0,893650
18,608667	0,5	-0,881600
18,617000	0,5	-0,869800
18,625333	0,5	-0,875050
18,633667	0,5	-0,866400
18,642000	0,5	-0,857100
18,650333	0,5	-0,846500
18,658667	0,5	-0,850400
18,667000	0,5	-0,848050
18,675333	0,5	-0,852550
18,683667	0,5	-0,846250
18,692000	0,5	-0,855350
18,700333	0,5	-0,862900
18,708667	0,5	-0,871000
18,717000	0,5	-0,879250
18,725333	0,5	-0,880550
18,733667	0,5	-0,906450
18,742000	0,5	-0,905300
18,750333	0,5	-0,914300
18,758667	0,5	-0,929950
18,767000	0,5	-0,951000
18,775333	0,5	-0,977050
18,783667	0,5	-0,989150
18,792000	0,5	-0,994750
18,800333	0,5	-1,007100
18,808667	0,5	-1,014600
18,817000	0,5	-1,028750
18,825333	0,5	-1,032100
18,833667	0,5	-1,043350
18,842000	0,5	-1,042500
18,850333	0,5	-1,055350
18,858667	0,5	-1,062000
18,867000	0,5	-1,063500
18,875333	0,5	-1,069750
18,883667	0,5	-1,086250
18,892000	0,5	-1,078000
18,900333	0,5	-1,083550
18,908667	0,5	-1,088200
18,917000	0,5	-1,100250
18,925333	0,5	-1,111750
18,933667	0,5	-1,099150
18,942000	0,5	-1,093000
18,950333	0,5	-1,082600
18,958667	0,5	-1,080500
18,967000	0,5	-1,067850
18,975333	0,5	-1,065850
18,983667	0,5	-1,056250
18,992000	0,5	-1,062100
19,000333	0,5	-1,068400
19,008667	0,5	-1,070650
19,017000	0,5	-1,073550
19,025333	0,5	-1,099000
19,033667	0,5	-1,113900
19,042000	0,5	-1,120100
19,050333	0,5	-1,133850
19,058667	0,5	-1,154700
19,067000	0,5	-1,174050
19,075333	0,5	-1,189500
19,083667	0,5	-1,195050
19,092000	0,5	-1,195150
19,100333	0,5	-1,200000
19,108667	0,5	-1,210550
19,117000	0,5	-1,217700
19,125333	0,5	-1,222150
19,133667	0,5	-1,231200
19,142000	0,5	-1,230950
19,150333	0,5	-1,238100
19,158667	0,5	-1,227950
19,167000	0,5	-1,228650
19,175333	0,5	-1,237000
19,183667	0,5	-1,231050
19,192000	0,5	-1,223500
19,200333	0,5	-1,225400
19,208667	0,5	-1,227500
19,217000	0,5	-1,234200
19,225333	0,5	-1,222400
19,233667	0,5	-1,203600
19,242000	0,5	-1,197400
19,250333	0,5	-1,189650
19,258667	0,5	-1,186050
19,267000	0,5	-1,182100
19,275333	0,5	-1,189350
19,283667	0,5	-1,194400
19,292000	0,5	-1,212600
19,300333	0,5	-1,227100
19,308667	0,5	-1,234200
19,317000	0,5	-1,257500
19,325333	0,5	-1,285300
19,333667	0,5	-1,288550
19,342000	0,5	-1,302000
19,350333	0,5	-1,315200
19,358667	0,5	-1,338950
19,367000	0,5	-1,353350
19,375333	0,5	-1,347900
19,383667	0,5	-1,352150
19,392000	0,5	-1,353100
19,400333	0,5	-1,350150
19,408667	0,5	-1,346450
19,417000	0,5	-1,344600
19,425333	0,5	-1,339450
19,433667	0,5	-1,330200
19,442000	0,5	-1,319100
19,450333	0,5	-1,311300
19,458667	0,5	-1,306550
19,467000	0,5	-1,332250
19,475333	0,5	-1,342050
19,483667	0,5	-1,360450
19,492000	0,5	-1,372900
19,500333	0,5	-1,404700
19,508667	0,5	-1,435300
19,517000	0,5	-1,442150
19,525333	0,5	-1,437250
19,533667	0,5	-1,451750
19,542000	0,5	-1,455450
19,550333	0,5	-1,462100
19,558667	0,5	-1,465900
19,567000	0,5	-1,466150
19,575333	0,5	-1,471150
19,583667	0,5	-1,475450
19,592000	0,5	-1,480300
19,600333	0,5	-1,470150
19,608667	0,5	-1,474550
19,617000	0,5	-1,493550
19,625333	0,5	-1,491750
19,633667	0,5	-1,491900
19,642000	0,5	-1,505300
19,650333	0,5	-1,510150
19,658667	0,5	-1,535100
19,667000	0,5	-1,524050
19,675333	0,5	-1,526950
19,683667	0,5	-1,524250
19,692000	0,5	-1,524100
19,700333	0,5	-1,515050
19,708667	0,5	-1,507200
19,717000	0,5	-1,494700
19,725333	0,5	-1,480650
19,733667	0,5	-1,471550
19,742000	0,5	-1,452800
19,750333	0,5	-1,433950
19,758667	0,5	-1,425550
19,767000	0,5	-1,428900
19,775333	0,5	-1,411150
19,783667	0,5	-1,410250
19,792000	0,5	-1,414200
19,800333	0,5	-1,438100
19,808667	0,5	-1,460150
19,817000	0,5	-1,480250
19,825333	0,5	-1,500800
19,833667	0,5	-1,528550
19,842000	0,5	-1,543550
19,850333	0,5	-1,561100
19,858667	0,5	-1,570700
19,867000	0,5	-1,578150
19,875333	0,5	-1,581350
19,883667	0,5	-1,580900
19,892000	0,5	-1,578700
19,900333	0,5	-1,577900
19,908667	0,5	-1,588450
19,917000	0,5	-1,590800
19,925333	0,5	-1,587250
19,933667	0,5	-1,591250
19,942000	0,5	-1,605050
19,950333	0,5	-1,619100
19,958667	0,5	-1,623000
19,967000	0,5	-1,608650
19,975333	0,5	-1,604800
19,983667	0,5	-1,587900
19,992000	0,5	-1,583300
20,000333	0,5	-1,563650
20,008667	0,5	-1,561600
20,017000	0,5	-1,558000
20,025333	0,5	-1,566800
20,033667	0,5	-1,585350
20,042000	0,5	-1,583200
20,050333	0,5	-1,592350
20,058667	0,5	-1,609100
20,067000	0,5	-1,606600
20,075333	0,5	-1,600300
20,083667	0,5	-1,603450
20,092000	0,5	-1,610900
20,100333	0,5	-1,614700
20,108667	0,5	-1,602050
20,117000	0,5	-1,598900
20,125333	0,5	-1,583300
20,133667	0,5	-1,583350
20,142000	0,5	-1,576950
20,150333	0,5	-1,585600
20,158667	0,5	-1,583850
20,167000	0,5	-1,586300
20,175333	0,5	-1,591850
20,183667	0,5	-1,588150
20,192000	0,5	-1,577250
20,200333	0,5	-1,585350
20,208667	0,5	-1,576500
20,217000	0,5	-1,556250
20,225333	0,5	-1,550550
20,233667	0,5	-1,536150
20,242000	0,5	-1,537900
20,250333	0,5	-1,514800
20,258667	0,5	-1,503200
20,267000	0,5	-1,491450
20,275333	0,5	-1,506700
20,283667	0,5	-1,529400
20,292000	0,5	-1,563050
20,300333	0,5	-1,591300
20,308667	0,5	-1,613450
20,317000	0,5	-1,631150
20,325333	0,5	-1,639950
20,333667	0,5	-1,633950
20,342000	0,5	-1,630050
20,350333	0,5	-1,643000
20,358667	0,5	-1,630050
20,367000	0,5	-1,617050
20,375333	0,5	-1,619050
20,383667	0,5	-1,621850
20,392000	0,5	-1,629100
20,400333	0,5	-1,613800
20,408667	0,5	-1,592750
20,417000	0,5	-1,577750
20,425333	0,5	-1,551700
20,433667	0,5	-1,538150
20,442000	0,5	-1,528350
20,450333	0,5	-1,529050
20,458667	0,5	-1,526250
20,467000	0,5	-1,535000
20,475333	0,5	-1,537750
20,483667	0,5	-1,527150
20,492000	0,5	-1,536150
20,500333	0,5	-1,561750
20,508667	0,5	-1,570100
20,517000	0,5	-1,584850
20,525333	0,5	-1,601500
20,533667	0,5	-1,624700
20,542000	0,5	-1,629600
20,550333	0,5	-1,615000
20,558667	0,5	-1,620300
20,567000	0,5	-1,615750
20,575333	0,5	-1,617600
20,583667	0,5	-1,609000
20,592000	0,5	-1,611250
20,600333	0,5	-1,592200
20,608667	0,5	-1,584600
20,617000	0,5	-1,563900
20,625333	0,5	-1,538500
20,633667	0,5	-1,523200
20,642000	0,5	-1,536450
20,650333	0,5	-1,553300
20,658667	0,5	-1,578750
20,667000	0,5	-1,596150
20,675333	0,5	-1,618300
20,683667	0,5	-1,642450
20,692000	0,5	-1,647750
20,700333	0,5	-1,655250
20,708667	0,5	-1,654650
20,717000	0,5	-1,657250
20,725333	0,5	-1,653100
20,733667	0,5	-1,653800
20,742000	0,5	-1,646000
20,750333	0,5	-1,651450
20,758667	0,5	-1,651100
20,767000	0,5	-1,656700
20,775333	0,5	-1,636450
20,783667	0,5	-1,626200
20,792000	0,5	-1,636750
20,800333	0,5	-1,632750
20,808667	0,5	-1,625900
20,817000	0,5	-1,626100
20,825333	0,5	-1,633200
20,833667	0,5	-1,644350
20,842000	0,5	-1,637800
20,850333	0,5	-1,632800
20,858667	0,5	-1,633550
20,867000	0,5	-1,627550
20,875333	0,5	-1,627550
20,883667	0,5	-1,619900
20,892000	0,5	-1,613800
20,900333	0,5	-1,606900
20,908667	0,5	-1,609800
20,917000	0,5	-1,596700
20,925333	0,5	-1,583000
20,933667	0,5	-1,580650
20,942000	0,5	-1,594450
20,950333	0,5	-1,591100
20,958667	0,5	-1,609150
20,967000	0,5	-1,616850
20,975333	0,5	-1,633900
20,983667	0,5	-1,643950
20,992000	0,5	-1,638000
21,000333	0,5	-1,635500
21,008667	0,5	-1,631350
21,017000	0,5	-1,628550
21,025333	0,5	-1,621350
21,033667	0,5	-1,618650
21,042000	0,5	-1,604200
21,050333	0,5	-1,603450
21,058667	0,5	-1,599650
21,067000	0,5	-1,569850
21,075333	0,5	-1,554900
21,083667	0,5	-1,552000
21,092000	0,5	-1,549550
21,100333	0,5	-1,551300
21,108667	0,5	-1,556850
21,117000	0,5	-1,577250
21,125333	0,5	-1,587000
21,133667	0,5	-1,585600
21,142000	0,5	-1,590150
21,150333	0,5	-1,583900
21,158667	0,5	-1,579650
21,167000	0,5	-1,571000
21,175333	0,5	-1,564100
21,183667	0,5	-1,552100
21,192000	0,5	-1,548800
21,200333	0,5	-1,543550
21,208667	0,5	-1,533550
21,217000	0,5	-1,506350
21,225333	0,5	-1,492750
21,233667	0,5	-1,498950
21,242000	0,5	-1,499850
21,250333	0,5	-1,503400
21,258667	0,5	-1,514750
21,267000	0,5	-1,531100
21,275333	0,5	-1,527850
21,283667	0,5	-1,525000
21,292000	0,5	-1,518400
21,300333	0,5	-1,517400
21,308667	0,5	-1,515400
21,317000	0,5	-1,510100
21,325333	0,5	-1,502200
21,333667	0,5	-1,491650
21,342000	0,5	-1,485850
21,350333	0,5	-1,482150
21,358667	0,5	-1,450250
21,367000	0,5	-1,426200
21,375333	0,5	-1,416450
21,383667	0,5	-1,405250
21,392000	0,5	-1,390800
21,400333	0,5	-1,396650
21,408667	0,5	-1,399350
21,417000	0,5	-1,419550
21,425333	0,5	-1,415250
21,433667	0,5	-1,413550
21,442000	0,5	-1,411800
21,450333	0,5	-1,407800
21,458667	0,5	-1,395200
21,467000	0,5	-1,381950
21,475333	0,5	-1,365050
21,483667	0,5	-1,345700
21,492000	0,5	-1,327900
21,500333	0,5	-1,303150
21,508667	0,5	-1,259250
21,517000	0,5	-1,218400
21,525333	0,5	-1,201800
21,533667	0,5	-1,155300
21,542000	0,5	-1,115000
21,550333	0,5	-1,085200
21,558667	0,5	-1,083650
21,567000	0,5	-1,092800
21,575333	0,5	-1,105650
21,583667	0,5	-1,132600
21,592000	0,5	-1,148500
21,600333	0,5	-1,152900
21,608667	0,5	-1,147600
21,617000	0,5	-1,136150
21,625333	0,5	-1,117900
21,633667	0,5	-1,112300
21,642000	0,5	-1,105250
21,650333	0,5	-1,095900
21,658667	0,5	-1,085000
21,667000	0,5	-1,086900
21,675333	0,5	-1,087750
21,683667	0,5	-1,086850
21,692000	0,5	-1,074700
21,700333	0,5	-1,071250
21,708667	0,5	-1,065250
21,717000	0,5	-1,045650
21,725333	0,5	-1,021650
21,733667	0,5	-1,002550
21,742000	0,5	-0,988100
21,750333	0,5	-0,969150
21,758667	0,5	-0,951150
21,767000	0,5	-0,930050
21,775333	0,5	-0,909500
21,783667	0,5	-0,884700
21,792000	0,5	-0,862150
21,800333	0,5	-0,815200
21,808667	0,5	-0,783600
21,817000	0,5	-0,763950
21,825333	0,5	-0,730700
21,833667	0,5	-0,715450
21,842000	0,5	-0,720350
21,850333	0,5	-0,732650
21,858667	0,5	-0,739050
21,867000	0,5	-0,736550
21,875333	0,5	-0,717050
21,883667	0,5	-0,701750
21,892000	0,5	-0,683900
21,900333	0,5	-0,663950
21,908667	0,5	-0,641150
21,917000	0,5	-0,618550
21,925333	0,5	-0,592900
21,933667	0,5	-0,574000
21,942000	0,5	-0,541000
21,950333	0,5	-0,509850
21,958667	0,5	-0,491000
21,967000	0,5	-0,472500
21,975333	0,5	-0,435900
21,983667	0,5	-0,422250
21,992000	0,5	-0,401200
22,000333	0,5	-0,385700
22,008667	0,5	-0,361300
22,017000	0,5	-0,331750
22,025333	0,5	-0,305100
22,033667	0,5	-0,284100
22,042000	0,5	-0,261600
22,050333	0,5	-0,234400
22,058667	0,5	-0,201600
22,067000	0,5	-0,164600
22,075333	0,5	-0,122600
22,083667	0,5	-0,077550
22,092000	0,5	-0,030500
22,100333	0,5	0,002500
22,108667	0,5	0,022850
22,117000	0,5	0,070000
22,125333	0,5	0,093750
22,133667	0,5	0,124350
22,142000	0,5	0,136400
22,150333	0,5	0,160150
22,158667	0,5	0,192800
22,167000	0,5	0,224800
22,175333	0,5	0,261150
22,183667	0,5	0,289950
22,192000	0,5	0,330700
22,200333	0,5	0,369450
22,208667	0,5	0,419900
22,217000	0,5	0,458200
22,225333	0,5	0,503850
22,233667	0,5	0,549900
22,242000	0,5	0,601550
22,250333	0,5	0,644750
22,258667	0,5	0,718850
22,267000	0,5	0,765450
22,275333	0,5	0,797500
22,283667	0,5	0,821750
22,292000	0,5	0,839250
22,300333	0,5	0,881000
22,308667	0,5	0,927950
22,317000	0,5	0,978600
22,325333	0,5	1,030750
22,333667	0,5	1,084450
22,342000	0,5	1,140250
22,350333	0,5	1,195850
22,358667	0,5	1,253600
22,367000	0,5	1,314650
22,375333	0,5	1,363250
22,383667	0,5	1,392500
22,392000	0,5	1,438500
22,400333	0,5	1,505350
22,408667	0,5	1,573550
22,417000	0,5	1,639750
22,425333	0,5	1,691150
22,433667	0,5	1,749900
22,442000	0,5	1,806850
22,450333	0,5	1,874250
22,458667	0,5	1,941050
22,467000	0,5	2,006000
22,475333	0,5	2,070450
22,483667	0,5	2,137300
22,492000	0,5	2,197400
22,500333	0,5	2,253100
22,508667	0,5	2,313400
22,517000	0,5	2,364350
22,525333	0,5	2,410700
22,533667	0,5	2,443150
22,542000	0,5	2,507750
22,550333	0,5	2,577500
22,558667	0,5	2,636550
22,567000	0,5	2,681400
22,575333	0,5	2,716000
22,583667	0,5	2,739600
22,592000	0,5	2,781550
22,600333	0,5	2,821100
22,608667	0,5	2,856500
22,617000	0,5	2,882850
22,625333	0,5	2,906200
22,633667	0,5	2,926950
22,642000	0,5	2,942550
22,650333	0,5	2,955300
22,658667	0,5	2,949500
22,667000	0,5	2,939450
22,675333	0,5	2,859800
22,683667	0,5	2,858850
22,692000	0,5	2,821650
22,700333	0,5	2,803850
22,708667	0,5	2,742050
22,717000	0,5	2,679550
22,725333	0,5	2,596450
22,733667	0,5	2,504500
22,742000	0,5	2,422450
22,750333	0,5	2,330650
22,758667	0,5	2,232000
22,767000	0,5	2,138800
22,775333	0,5	2,039550
22,783667	0,5	1,939650
22,792000	0,5	1,834350
22,800333	0,5	1,724400
22,808667	0,5	1,603950
22,817000	0,5	1,474250
22,825333	0,5	1,288100
22,833667	0,5	1,163450
22,842000	0,5	1,036000
22,850333	0,5	0,887000
22,858667	0,5	0,728150
22,867000	0,5	0,577400
22,875333	0,5	0,422300
22,883667	0,5	0,276500
22,892000	0,5	0,119900
22,900333	0,5	-0,021550
22,908667	0,5	-0,162200
22,917000	0,5	-0,295200
22,925333	0,5	-0,426550
22,933667	0,5	-0,553850
22,942000	0,5	-0,684450
22,950333	0,5	-0,812100
22,958667	0,5	-0,938300
22,967000	0,5	-1,035000
22,975333	0,5	-1,174350
22,983667	0,5	-1,273650
22,992000	0,5	-1,413550
23,000333	0,5	-1,538400
23,008667	0,5	-1,631000
23,017000	0,5	-1,722150
23,025333	0,5	-1,802750
23,033667	0,5	-1,881700
23,042000	0,5	-1,960150
23,050333	0,5	-2,029950
23,058667	0,5	-2,083700
23,067000	0,5	-2,142350
23,075333	0,5	-2,195000
23,083667	0,5	-2,246700
23,092000	0,5	-2,298500
23,100333	0,5	-2,337700
23,108667	0,5	-2,386550
23,117000	0,5	-2,415100
23,125333	0,5	-2,445300
23,133667	0,5	-2,487900
23,142000	0,5	-2,560050
23,150333	0,5	-2,596150
23,158667	0,5	-2,626650
23,167000	0,5	-2,631300
23,175333	0,5	-2,645650
23,183667	0,5	-2,654600
23,192000	0,5	-2,661250
23,200333	0,5	-2,653100
23,208667	0,5	-2,652100
23,217000	0,5	-2,641550
23,225333	0,5	-2,638150
23,233667	0,5	-2,626800
23,242000	0,5	-2,617450
23,250333	0,5	-2,612000
23,258667	0,5	-2,589150
23,267000	0,5	-2,608150
23,275333	0,5	-2,591850
23,283667	0,5	-2,567900
23,292000	0,5	-2,594600
23,300333	0,5	-2,596300
23,308667	0,5	-2,584800
23,317000	0,5	-2,564100
23,325333	0,5	-2,550500
23,333667	0,5	-2,540250
23,342000	0,5	-2,510800
23,350333	0,5	-2,487350
23,358667	0,5	-2,455150
23,367000	0,5	-2,430200
23,375333	0,5	-2,395550
23,383667	0,5	-2,368500
23,392000	0,5	-2,338550
23,400333	0,5	-2,310550
23,408667	0,5	-2,316900
23,417000	0,5	-2,292850
23,425333	0,5	-2,255850
23,433667	0,5	-2,203150
23,442000	0,5	-2,203950
23,450333	0,5	-2,191850
23,458667	0,5	-2,176100
23,467000	0,5	-2,153550
23,475333	0,5	-2,136450
23,483667	0,5	-2,117550
23,492000	0,5	-2,104400
23,500333	0,5	-2,075200
23,508667	0,5	-2,055850
23,517000	0,5	-2,028450
23,525333	0,5	-2,006700
23,533667	0,5	-1,981900
23,542000	0,5	-1,954100
23,550333	0,5	-1,934450
23,558667	0,5	-2,010650
23,567000	0,5	-1,951150
23,575333	0,5	-1,892400
23,583667	0,5	-1,845600
23,592000	0,5	-1,830100
23,600333	0,5	-1,814900
23,608667	0,5	-1,798350
23,617000	0,5	-1,782100
23,625333	0,5	-1,765900
23,633667	0,5	-1,745700
23,642000	0,5	-1,727700
23,650333	0,5	-1,706700
23,658667	0,5	-1,691850
23,667000	0,5	-1,672400
23,675333	0,5	-1,657850
23,683667	0,5	-1,638850
23,692000	0,5	-1,625400
23,700333	0,5	-1,670650
23,708667	0,5	-1,725700
23,717000	0,5	-1,667750
23,725333	0,5	-1,626400
23,733667	0,5	-1,576050
23,742000	0,5	-1,563650
23,750333	0,5	-1,547900
23,758667	0,5	-1,538450
23,767000	0,5	-1,525150
23,775333	0,5	-1,502000
23,783667	0,5	-1,484450
23,792000	0,5	-1,465700
23,800333	0,5	-1,445250
23,808667	0,5	-1,426100
23,817000	0,5	-1,405950
23,825333	0,5	-1,383400
23,833667	0,5	-1,364550
23,842000	0,5	-1,350050
23,850333	0,5	-1,476750
23,858667	0,5	-1,445750
23,867000	0,5	-1,415900
23,875333	0,5	-1,345800
23,883667	0,5	-1,311950
23,892000	0,5	-1,293450
23,900333	0,5	-1,291750
23,908667	0,5	-1,287800
23,917000	0,5	-1,281500
23,925333	0,5	-1,263600
23,933667	0,5	-1,245150
23,942000	0,5	-1,227550
23,950333	0,5	-1,209550
23,958667	0,5	-1,191500
23,967000	0,5	-1,169250
23,975333	0,5	-1,150850
23,983667	0,5	-1,131050
23,992000	0,5	-1,132400
24,000333	0,5	-1,236000
24,008667	0,5	-1,203650
24,017000	0,5	-1,146400
24,025333	0,5	-1,089550
24,033667	0,5	-1,056150
24,042000	0,5	-1,039000
24,050333	0,5	-1,027750
24,058667	0,5	-1,022300
24,067000	0,5	-1,004600
24,075333	0,5	-0,985250
24,083667	0,5	-0,965350
24,092000	0,5	-0,948850
24,100333	0,5	-0,929950
24,108667	0,5	-0,914500
24,117000	0,5	-0,897950
24,125333	0,5	-0,875250
24,133667	0,5	-0,866650
24,142000	0,5	-0,908900
24,150333	0,5	-0,964150
24,158667	0,5	-0,926900
24,167000	0,5	-0,876850
24,175333	0,5	-0,834450
24,183667	0,5	-0,811850
24,192000	0,5	-0,794100
24,200333	0,5	-0,794200
24,208667	0,5	-0,778700
24,217000	0,5	-0,764250
24,225333	0,5	-0,739150
24,233667	0,5	-0,725200
24,242000	0,5	-0,703850
24,250333	0,5	-0,684500
24,258667	0,5	-0,660150
24,267000	0,5	-0,641650
24,275333	0,5	-0,627400
24,283667	0,5	-0,610600
24,292000	0,5	-0,694550
24,300333	0,5	-0,665900
24,308667	0,5	-0,650000
24,317000	0,5	-0,602900
24,325333	0,5	-0,575400
24,333667	0,5	-0,559000
24,342000	0,5	-0,551500
24,350333	0,5	-0,556950
24,358667	0,5	-0,539300
24,367000	0,5	-0,519450
24,375333	0,5	-0,513500
24,383667	0,5	-0,494000
24,392000	0,5	-0,489200
24,400333	0,5	-0,470100
24,408667	0,5	-0,457500
24,417000	0,5	-0,441600
24,425333	0,5	-0,429150
24,433667	0,5	-0,426900
24,442000	0,5	-0,480850
24,450333	0,5	-0,453000
24,458667	0,5	-0,430400
24,467000	0,5	-0,391250
24,475333	0,5	-0,369300
24,483667	0,5	-0,358250
24,492000	0,5	-0,351350
24,500333	0,5	-0,351600
24,508667	0,5	-0,329750
24,517000	0,5	-0,321550
24,525333	0,5	-0,311400
24,533667	0,5	-0,307400
24,542000	0,5	-0,291900
24,550333	0,5	-0,287750
24,558667	0,5	-0,271000
24,567000	0,5	-0,262950
24,575333	0,5	-0,255700
24,583667	0,5	-0,285150
24,592000	0,5	-0,299650
24,600333	0,5	-0,280250
24,608667	0,5	-0,259400
24,617000	0,5	-0,233700
24,625333	0,5	-0,217650
24,633667	0,5	-0,216300
24,642000	0,5	-0,211200
24,650333	0,5	-0,207050
24,658667	0,5	-0,193100
24,667000	0,5	-0,181250
24,675333	0,5	-0,172850
24,683667	0,5	-0,161950
24,692000	0,5	-0,152350
24,700333	0,5	-0,138850
24,708667	0,5	-0,133750
24,717000	0,5	-0,119500
24,725333	0,5	-0,119600
24,733667	0,5	-0,152050
24,742000	0,5	-0,141050
24,750333	0,5	-0,127650
24,758667	0,5	-0,113550
24,767000	0,5	-0,098050
24,775333	0,5	-0,091550
24,783667	0,5	-0,086500
24,792000	0,5	-0,089400
24,800333	0,5	-0,088750
24,808667	0,5	-0,079750
24,817000	0,5	-0,074800
24,825333	0,5	-0,065100
24,833667	0,5	-0,063950
24,842000	0,5	-0,052150
24,850333	0,5	-0,047750
24,858667	0,5	-0,037700
24,867000	0,5	-0,032400
24,875333	0,5	-0,027450
24,883667	0,5	-0,049850
24,892000	0,5	-0,033350
24,900333	0,5	-0,024450
24,908667	0,5	-0,010300
24,917000	0,5	-0,001550
24,925333	0,5	0,004650
24,933667	0,5	0,002750
24,942000	0,5	0,000600
24,950333	0,5	0,004900
24,958667	0,5	0,010050
24,967000	0,5	0,013400
24,975333	0,5	0,016700
24,983667	0,5	0,018450
24,992000	0,5	0,024750
25,000333	0,5	0,030600
25,008667	0,5	0,031700
25,017000	0,5	0,038950
25,025333	0,5	0,034300
25,033667	0,5	0,028750
25,042000	0,5	0,036800
25,050333	0,5	0,047000
25,058667	0,5	0,054300
25,067000	0,5	0,061000
25,075333	0,5	0,064400
25,083667	0,5	0,063600
25,092000	0,5	0,064600
25,100333	0,5	0,068750
25,108667	0,5	0,074000
25,117000	0,5	0,078150
25,125333	0,5	0,077100
25,133667	0,5	0,080650
25,142000	0,5	0,082750
25,150333	0,5	0,086600
25,158667	0,5	0,089100
25,167000	0,5	0,089950
25,175333	0,5	0,084950
25,183667	0,5	0,087850
25,192000	0,5	0,089650
25,200333	0,5	0,092550
25,208667	0,5	0,094200
25,217000	0,5	0,098600
25,225333	0,5	0,098900
25,233667	0,5	0,098750
25,242000	0,5	0,099750
25,250333	0,5	0,099050
25,258667	0,5	0,104850
25,267000	0,5	0,106000
25,275333	0,5	0,108950
25,283667	0,5	0,110200
25,292000	0,5	0,113900
25,300333	0,5	0,115150
25,308667	0,5	0,119000
25,317000	0,5	0,120600
25,325333	0,5	0,122250
25,333667	0,5	0,122700
25,342000	0,5	0,122350
25,350333	0,5	0,123200
25,358667	0,5	0,126800
25,367000	0,5	0,123050
25,375333	0,5	0,121850
25,383667	0,5	0,120900
25,392000	0,5	0,120700
25,400333	0,5	0,122400
25,408667	0,5	0,119750
25,417000	0,5	0,120600
25,425333	0,5	0,120350
25,433667	0,5	0,121450
25,442000	0,5	0,124450
25,450333	0,5	0,127950
25,458667	0,5	0,126200
25,467000	0,5	0,131250
25,475333	0,5	0,136350
25,483667	0,5	0,136250
25,492000	0,5	0,137900
25,500333	0,5	0,135200
25,508667	0,5	0,135350
25,517000	0,5	0,136650
25,525333	0,5	0,138150
25,533667	0,5	0,135650
25,542000	0,5	0,132500
25,550333	0,5	0,135800
25,558667	0,5	0,135800
25,567000	0,5	0,133650
25,575333	0,5	0,132950
25,583667	0,5	0,133350
25,592000	0,5	0,131100
25,600333	0,5	0,132200
25,608667	0,5	0,131200
25,617000	0,5	0,141350
25,625333	0,5	0,139450
25,633667	0,5	0,142750
25,642000	0,5	0,138850
25,650333	0,5	0,136400
25,658667	0,5	0,133800
25,667000	0,5	0,137900
25,675333	0,5	0,140900
25,683667	0,5	0,141450
25,692000	0,5	0,139100
25,700333	0,5	0,138200
25,708667	0,5	0,139850
25,717000	0,5	0,137350
25,725333	0,5	0,136750
25,733667	0,5	0,134300
25,742000	0,5	0,135300
25,750333	0,5	0,134050
25,758667	0,5	0,134600
25,767000	0,5	0,141800
25,775333	0,5	0,142650
25,783667	0,5	0,145450
25,792000	0,5	0,138800
25,800333	0,5	0,132700
25,808667	0,5	0,137950
25,817000	0,5	0,140950
25,825333	0,5	0,145900
25,833667	0,5	0,147400
25,842000	0,5	0,146750
25,850333	0,5	0,149150
25,858667	0,5	0,149650
25,867000	0,5	0,150150
25,875333	0,5	0,150200
25,883667	0,5	0,151550
25,892000	0,5	0,149550
25,900333	0,5	0,147750
25,908667	0,5	0,150950
25,917000	0,5	0,159050
25,925333	0,5	0,156100
25,933667	0,5	0,161450
25,942000	0,5	0,146200
25,950333	0,5	0,150000
25,958667	0,5	0,148700
25,967000	0,5	0,152250
25,975333	0,5	0,160250
25,983667	0,5	0,163350
25,992000	0,5	0,156300
26,000333	0,5	0,161550
