File Path	chrom://chromeleon01/ikbm_chromeleon/2022/ICS-5000/ED1/Esteban/20220612_Cell_7_4_eg.seq/255.smp/ED_1.channel/ED_1.chm
Channel	ED_1

Injection Information:
Data Vault	ikbm_chromeleon
Injection	4_24h-EGI_3
Injection Number	62
Position	GB2
Comment	
Processing Method	Stop sequence after Cell Death
Instrument Method	ICS5000_PA200_FullNative_Ox_26min_ED1
Type	Unknown
Status	Finished
Injection Date	13.06.2022
Injection Time	21:06:26
Injection Volume (µl)	5,0
Dilution Factor	1,0000
Weight	1,0000

Chromatogram Data Information:
Time Min. (min)	0,000167
Time Max. (min)	26,000167
Data Points	3121
Detector	EDet1
Generating Data System	Chromeleon 7.2.9.11323
Exporting Data System	Chromeleon 7.2.9.0
Operator	Instrument Controller
Signal Quantity	
Signal Unit	nC
Signal Min.	-2,114000
Signal Max.	2 236,039383
Channel	ED_1
Driver Name	DC-5000
Channel Type	Evaluation
Min. Step (s)	0,5
Max. Step (s)	0,5
Average Step (s)	0,5

Signal Parameter Information:
Signal Info	

Chromatogram Data:
Time (min)	Step (s)	Value (nC)
0,000167	n.a.	-0,068700
0,008500	0,5	-0,060400
0,016833	0,5	-0,055050
0,025167	0,5	-0,042050
0,033500	0,5	-0,039050
0,041833	0,5	-0,033500
0,050167	0,5	-0,031450
0,058500	0,5	-0,017600
0,066833	0,5	-0,036200
0,075167	0,5	-0,052350
0,083500	0,5	-0,048050
0,091833	0,5	-0,036300
0,100167	0,5	-0,017250
0,108500	0,5	-0,010650
0,116833	0,5	-0,017250
0,125167	0,5	-0,012300
0,133500	0,5	-0,018300
0,141833	0,5	-0,015450
0,150167	0,5	-0,024200
0,158500	0,5	-0,024900
0,166833	0,5	-0,034950
0,175167	0,5	-0,033600
0,183500	0,5	-0,035950
0,191833	0,5	-0,047350
0,200167	0,5	-0,044100
0,208500	0,5	-0,028400
0,216833	0,5	-0,044450
0,225167	0,5	-0,054600
0,233500	0,5	-0,055100
0,241833	0,5	-0,043700
0,250167	0,5	-0,025300
0,258500	0,5	-0,035800
0,266833	0,5	-0,030000
0,275167	0,5	-0,037300
0,283500	0,5	-0,024100
0,291833	0,5	-0,001900
0,300167	0,5	0,011900
0,308500	0,5	-0,023550
0,316833	0,5	-0,048850
0,325167	0,5	-0,063450
0,333500	0,5	-0,065250
0,341833	0,5	-0,079600
0,350167	0,5	-0,065650
0,358500	0,5	-0,066250
0,366833	0,5	-0,075050
0,375167	0,5	-0,077250
0,383500	0,5	-0,070300
0,391833	0,5	-0,055350
0,400167	0,5	-0,045550
0,408500	0,5	-0,051850
0,416833	0,5	-0,051700
0,425167	0,5	-0,051750
0,433500	0,5	-0,054350
0,441833	0,5	-0,056500
0,450167	0,5	-0,062550
0,458500	0,5	-0,059150
0,466833	0,5	-0,066550
0,475167	0,5	-0,061800
0,483500	0,5	-0,074300
0,491833	0,5	-0,080200
0,500167	0,5	-0,062000
0,508500	0,5	-0,065800
0,516833	0,5	-0,082950
0,525167	0,5	-0,079700
0,533500	0,5	-0,077950
0,541833	0,5	-0,046200
0,550167	0,5	-0,048150
0,558500	0,5	-0,052050
0,566833	0,5	-0,056500
0,575167	0,5	-0,047950
0,583500	0,5	-0,054300
0,591833	0,5	-0,056450
0,600167	0,5	-0,057150
0,608500	0,5	-0,060000
0,616833	0,5	-0,054500
0,625167	0,5	-0,061850
0,633500	0,5	-0,052200
0,641833	0,5	-0,068300
0,650167	0,5	-0,042050
0,658500	0,5	-0,070850
0,666833	0,5	-0,068300
0,675167	0,5	-0,071600
0,683500	0,5	-0,059650
0,691833	0,5	-0,041250
0,700167	0,5	-0,031750
0,708500	0,5	-0,045100
0,716833	0,5	-0,042500
0,725167	0,5	-0,049300
0,733500	0,5	-0,043600
0,741833	0,5	-0,048200
0,750167	0,5	-0,049450
0,758500	0,5	-0,050850
0,766833	0,5	-0,053050
0,775167	0,5	-0,046250
0,783500	0,5	-0,060000
0,791833	0,5	-0,055150
0,800167	0,5	-0,039600
0,808500	0,5	-0,061100
0,816833	0,5	-0,060150
0,825167	0,5	-0,055650
0,833500	0,5	-0,051300
0,841833	0,5	-0,022750
0,850167	0,5	-0,030500
0,858500	0,5	-0,021400
0,866833	0,5	-0,033700
0,875167	0,5	-0,026950
0,883500	0,5	-0,035100
0,891833	0,5	-0,029300
0,900167	0,5	-0,033100
0,908500	0,5	-0,036350
0,916833	0,5	-0,034250
0,925167	0,5	-0,045750
0,933500	0,5	-0,050800
0,941833	0,5	-0,036750
0,950167	0,5	-0,040350
0,958500	0,5	-0,052550
0,966833	0,5	-0,050350
0,975167	0,5	-0,048050
0,983500	0,5	-0,020550
0,991833	0,5	-0,007450
1,000167	0,5	-0,004900
1,008500	0,5	-0,018000
1,016833	0,5	-0,014750
1,025167	0,5	-0,023250
1,033500	0,5	-0,022050
1,041833	0,5	-0,025550
1,050167	0,5	-0,022150
1,058500	0,5	-0,023600
1,066833	0,5	-0,019450
1,075167	0,5	-0,033600
1,083500	0,5	-0,028800
1,091833	0,5	-0,016500
1,100167	0,5	-0,026700
1,108500	0,5	-0,038950
1,116833	0,5	-0,033900
1,125167	0,5	-0,028650
1,133500	0,5	-0,009500
1,141833	0,5	-0,002700
1,150167	0,5	-0,006500
1,158500	0,5	-0,006050
1,166833	0,5	-0,010700
1,175167	0,5	-0,005900
1,183500	0,5	-0,002900
1,191833	0,5	-0,003750
1,200167	0,5	-0,014800
1,208500	0,5	-0,012800
1,216833	0,5	-0,016250
1,225167	0,5	-0,017550
1,233500	0,5	-0,015300
1,241833	0,5	-0,001000
1,250167	0,5	-0,023450
1,258500	0,5	-0,027050
1,266833	0,5	-0,025900
1,275167	0,5	-0,011550
1,283500	0,5	0,008400
1,291833	0,5	-0,004650
1,300167	0,5	-0,005600
1,308500	0,5	-0,005200
1,316833	0,5	-0,004700
1,325167	0,5	-0,009250
1,333500	0,5	-0,016000
1,341833	0,5	-0,017300
1,350167	0,5	-0,017250
1,358500	0,5	-0,021250
1,366833	0,5	-0,022350
1,375167	0,5	-0,037750
1,383500	0,5	-0,021950
1,391833	0,5	-0,031400
1,400167	0,5	-0,041550
1,408500	0,5	-0,050350
1,416833	0,5	-0,047350
1,425167	0,5	-0,035500
1,433500	0,5	-0,027750
1,441833	0,5	-0,040750
1,450167	0,5	-0,042250
1,458500	0,5	-0,049250
1,466833	0,5	-0,045800
1,475167	0,5	-0,047200
1,483500	0,5	-0,057250
1,491833	0,5	-0,065000
1,500167	0,5	-0,074800
1,508500	0,5	-0,076900
1,516833	0,5	-0,092600
1,525167	0,5	-0,104400
1,533500	0,5	-0,093750
1,541833	0,5	-0,099600
1,550167	0,5	-0,093200
1,558500	0,5	-0,022350
1,566833	0,5	0,179450
1,575167	0,5	0,920650
1,583500	0,5	5,322850
1,591833	0,5	26,967900
1,600167	0,5	108,801152
1,608500	0,5	365,678205
1,616833	0,5	943,714614
1,625167	0,5	1 555,629273
1,633500	0,5	2 159,674832
1,641833	0,5	2 236,039383
1,650167	0,5	2 039,865780
1,658500	0,5	1 618,360024
1,666833	0,5	1 126,313917
1,675167	0,5	753,564861
1,683500	0,5	530,405358
1,691833	0,5	403,856556
1,700167	0,5	333,507955
1,708500	0,5	295,329954
1,716833	0,5	264,148704
1,725167	0,5	228,531453
1,733500	0,5	191,643203
1,741833	0,5	160,692702
1,750167	0,5	140,682852
1,758500	0,5	134,395302
1,766833	0,5	141,648952
1,775167	0,5	157,587502
1,783500	0,5	176,020803
1,791833	0,5	192,433603
1,800167	0,5	202,352653
1,808500	0,5	201,076603
1,816833	0,5	189,195203
1,825167	0,5	172,873503
1,833500	0,5	157,373402
1,841833	0,5	144,121752
1,850167	0,5	133,454752
1,858500	0,5	125,941002
1,866833	0,5	122,633552
1,875167	0,5	125,479902
1,883500	0,5	136,971752
1,891833	0,5	153,200352
1,900167	0,5	160,190302
1,908500	0,5	150,599452
1,916833	0,5	134,279802
1,925167	0,5	125,772952
1,933500	0,5	135,738752
1,941833	0,5	181,447953
1,950167	0,5	293,238304
1,958500	0,5	466,352757
1,966833	0,5	597,854059
1,975167	0,5	592,499959
1,983500	0,5	484,830757
1,991833	0,5	363,639255
2,000167	0,5	271,133154
2,008500	0,5	208,297403
2,016833	0,5	168,737903
2,025167	0,5	149,696052
2,033500	0,5	151,645752
2,041833	0,5	166,591152
2,050167	0,5	174,319853
2,058500	0,5	164,767452
2,066833	0,5	144,932202
2,075167	0,5	124,120002
2,083500	0,5	105,994402
2,091833	0,5	91,714901
2,100167	0,5	81,824101
2,108500	0,5	75,863651
2,116833	0,5	73,727251
2,125167	0,5	74,764901
2,133500	0,5	75,374951
2,141833	0,5	72,245351
2,150167	0,5	66,645501
2,158500	0,5	61,380851
2,166833	0,5	57,091051
2,175167	0,5	53,120301
2,183500	0,5	49,540601
2,191833	0,5	46,718951
2,200167	0,5	44,666201
2,208500	0,5	43,201501
2,216833	0,5	42,312051
2,225167	0,5	42,052651
2,233500	0,5	42,132751
2,241833	0,5	42,270951
2,250167	0,5	43,224851
2,258500	0,5	46,302151
2,266833	0,5	50,299151
2,275167	0,5	54,085451
2,283500	0,5	59,375751
2,291833	0,5	69,772251
2,300167	0,5	76,415451
2,308500	0,5	68,035151
2,316833	0,5	55,334551
2,325167	0,5	47,800151
2,333500	0,5	44,172451
2,341833	0,5	42,550751
2,350167	0,5	42,329251
2,358500	0,5	43,517851
2,366833	0,5	45,985701
2,375167	0,5	49,140251
2,383500	0,5	52,012801
2,391833	0,5	53,763251
2,400167	0,5	54,103601
2,408500	0,5	53,302601
2,416833	0,5	52,008451
2,425167	0,5	50,765201
2,433500	0,5	49,951101
2,441833	0,5	49,591101
2,450167	0,5	49,417651
2,458500	0,5	49,435501
2,466833	0,5	50,763101
2,475167	0,5	56,241201
2,483500	0,5	69,642101
2,491833	0,5	93,253451
2,500167	0,5	129,692152
2,508500	0,5	188,843203
2,516833	0,5	316,320755
2,525167	0,5	629,000659
2,533500	0,5	1 107,697517
2,541833	0,5	1 469,336672
2,550167	0,5	1 599,749674
2,558500	0,5	1 544,418623
2,566833	0,5	1 377,309371
2,575167	0,5	1 161,481717
2,583500	0,5	949,175814
2,591833	0,5	763,402861
2,600167	0,5	614,445659
2,608500	0,5	501,097607
2,616833	0,5	415,472206
2,625167	0,5	347,787955
2,633500	0,5	299,723504
2,641833	0,5	273,525254
2,650167	0,5	270,325104
2,658500	0,5	283,934004
2,666833	0,5	299,073554
2,675167	0,5	299,810854
2,683500	0,5	279,594004
2,691833	0,5	243,485104
2,700167	0,5	201,856303
2,708500	0,5	163,520052
2,716833	0,5	132,726852
2,725167	0,5	109,789252
2,733500	0,5	93,321851
2,741833	0,5	81,543701
2,750167	0,5	72,970251
2,758500	0,5	66,530301
2,766833	0,5	61,482751
2,775167	0,5	57,419651
2,783500	0,5	54,136101
2,791833	0,5	51,534651
2,800167	0,5	49,613951
2,808500	0,5	48,337901
2,816833	0,5	47,607951
2,825167	0,5	47,110251
2,833500	0,5	46,413351
2,841833	0,5	45,071351
2,850167	0,5	42,933401
2,858500	0,5	40,198551
2,866833	0,5	37,297351
2,875167	0,5	34,553751
2,883500	0,5	32,236350
2,891833	0,5	30,378000
2,900167	0,5	28,998600
2,908500	0,5	28,051400
2,916833	0,5	27,571300
2,925167	0,5	27,728600
2,933500	0,5	28,774850
2,941833	0,5	30,849600
2,950167	0,5	33,550450
2,958500	0,5	35,842951
2,966833	0,5	36,630001
2,975167	0,5	35,530651
2,983500	0,5	32,930600
2,991833	0,5	29,646000
3,000167	0,5	26,453850
3,008500	0,5	23,867450
3,016833	0,5	21,960500
3,025167	0,5	20,598500
3,033500	0,5	19,614550
3,041833	0,5	18,842450
3,050167	0,5	18,205550
3,058500	0,5	17,647950
3,066833	0,5	17,150350
3,075167	0,5	16,732800
3,083500	0,5	16,384250
3,091833	0,5	16,106150
3,100167	0,5	15,878500
3,108500	0,5	15,667500
3,116833	0,5	15,444400
3,125167	0,5	15,178600
3,133500	0,5	14,900550
3,141833	0,5	14,595950
3,150167	0,5	14,343450
3,158500	0,5	14,139350
3,166833	0,5	13,948900
3,175167	0,5	13,779200
3,183500	0,5	13,635300
3,191833	0,5	13,513050
3,200167	0,5	13,464350
3,208500	0,5	13,452700
3,216833	0,5	13,484850
3,225167	0,5	13,497850
3,233500	0,5	13,470100
3,241833	0,5	13,389400
3,250167	0,5	13,277450
3,258500	0,5	13,127400
3,266833	0,5	12,949850
3,275167	0,5	12,761250
3,283500	0,5	12,570950
3,291833	0,5	12,417650
3,300167	0,5	12,384050
3,308500	0,5	12,557850
3,316833	0,5	12,924850
3,325167	0,5	13,429800
3,333500	0,5	13,941700
3,341833	0,5	14,391600
3,350167	0,5	14,786400
3,358500	0,5	15,160050
3,366833	0,5	15,586600
3,375167	0,5	16,103800
3,383500	0,5	16,672300
3,391833	0,5	17,230000
3,400167	0,5	17,623950
3,408500	0,5	17,733650
3,416833	0,5	17,465550
3,425167	0,5	16,883550
3,433500	0,5	16,105900
3,441833	0,5	15,265200
3,450167	0,5	14,505900
3,458500	0,5	13,853500
3,466833	0,5	13,302000
3,475167	0,5	12,834800
3,483500	0,5	12,421600
3,491833	0,5	12,034000
3,500167	0,5	11,673800
3,508500	0,5	11,320150
3,516833	0,5	11,016200
3,525167	0,5	10,745000
3,533500	0,5	10,517200
3,541833	0,5	10,306050
3,550167	0,5	10,124050
3,558500	0,5	9,951450
3,566833	0,5	9,807800
3,575167	0,5	9,680900
3,583500	0,5	9,572200
3,591833	0,5	9,488150
3,600167	0,5	9,462000
3,608500	0,5	9,443350
3,616833	0,5	9,468750
3,625167	0,5	9,532700
3,633500	0,5	9,642250
3,641833	0,5	9,781550
3,650167	0,5	9,916550
3,658500	0,5	10,045600
3,666833	0,5	10,153600
3,675167	0,5	10,236750
3,683500	0,5	10,279650
3,691833	0,5	10,285650
3,700167	0,5	10,241050
3,708500	0,5	10,162900
3,716833	0,5	10,047450
3,725167	0,5	9,918450
3,733500	0,5	9,770600
3,741833	0,5	9,642200
3,750167	0,5	9,558850
3,758500	0,5	9,509950
3,766833	0,5	9,554600
3,775167	0,5	9,718200
3,783500	0,5	10,030550
3,791833	0,5	10,518600
3,800167	0,5	11,170050
3,808500	0,5	11,950300
3,816833	0,5	12,822350
3,825167	0,5	13,709700
3,833500	0,5	14,573250
3,841833	0,5	15,432750
3,850167	0,5	16,402000
3,858500	0,5	17,649750
3,866833	0,5	19,357400
3,875167	0,5	21,560950
3,883500	0,5	24,152350
3,891833	0,5	26,792700
3,900167	0,5	29,046250
3,908500	0,5	30,427500
3,916833	0,5	30,721950
3,925167	0,5	29,832000
3,933500	0,5	27,959150
3,941833	0,5	25,389300
3,950167	0,5	22,495900
3,958500	0,5	19,616000
3,966833	0,5	17,025750
3,975167	0,5	14,855550
3,983500	0,5	13,183700
3,991833	0,5	11,991650
4,000167	0,5	11,227900
4,008500	0,5	10,798750
4,016833	0,5	10,591800
4,025167	0,5	10,504450
4,033500	0,5	10,427650
4,041833	0,5	10,333450
4,050167	0,5	10,152550
4,058500	0,5	9,905450
4,066833	0,5	9,647300
4,075167	0,5	9,422350
4,083500	0,5	9,301400
4,091833	0,5	9,305600
4,100167	0,5	9,419200
4,108500	0,5	9,639900
4,116833	0,5	9,901900
4,125167	0,5	10,146800
4,133500	0,5	10,281800
4,141833	0,5	10,278950
4,150167	0,5	10,106350
4,158500	0,5	9,794500
4,166833	0,5	9,400100
4,175167	0,5	8,975400
4,183500	0,5	8,608100
4,191833	0,5	8,358200
4,200167	0,5	8,190250
4,208500	0,5	8,128800
4,216833	0,5	8,140650
4,225167	0,5	8,160200
4,233500	0,5	8,165000
4,241833	0,5	8,083150
4,250167	0,5	7,934700
4,258500	0,5	7,723900
4,266833	0,5	7,486850
4,275167	0,5	7,229600
4,283500	0,5	6,995800
4,291833	0,5	6,778500
4,300167	0,5	6,586200
4,308500	0,5	6,422650
4,316833	0,5	6,282850
4,325167	0,5	6,157350
4,333500	0,5	6,060950
4,341833	0,5	5,979000
4,350167	0,5	5,894500
4,358500	0,5	5,831000
4,366833	0,5	5,790000
4,375167	0,5	5,766300
4,383500	0,5	5,761850
4,391833	0,5	5,757400
4,400167	0,5	5,755600
4,408500	0,5	5,766500
4,416833	0,5	5,775150
4,425167	0,5	5,783500
4,433500	0,5	5,774800
4,441833	0,5	5,760750
4,450167	0,5	5,736100
4,458500	0,5	5,701700
4,466833	0,5	5,661600
4,475167	0,5	5,604300
4,483500	0,5	5,556500
4,491833	0,5	5,514050
4,500167	0,5	5,449550
4,508500	0,5	5,412400
4,516833	0,5	5,390450
4,525167	0,5	5,388350
4,533500	0,5	5,406950
4,541833	0,5	5,426900
4,550167	0,5	5,471550
4,558500	0,5	5,534150
4,566833	0,5	5,615000
4,575167	0,5	5,704300
4,583500	0,5	5,807750
4,591833	0,5	5,900150
4,600167	0,5	5,990300
4,608500	0,5	6,064550
4,616833	0,5	6,127450
4,625167	0,5	6,154350
4,633500	0,5	6,182650
4,641833	0,5	6,166150
4,650167	0,5	6,142400
4,658500	0,5	6,103150
4,666833	0,5	6,071300
4,675167	0,5	6,043900
4,683500	0,5	6,016950
4,691833	0,5	5,985100
4,700167	0,5	5,963850
4,708500	0,5	5,946000
4,716833	0,5	5,924400
4,725167	0,5	5,903700
4,733500	0,5	5,879400
4,741833	0,5	5,860200
4,750167	0,5	5,845150
4,758500	0,5	5,842900
4,766833	0,5	5,848750
4,775167	0,5	5,885050
4,783500	0,5	5,956550
4,791833	0,5	6,036650
4,800167	0,5	6,155300
4,808500	0,5	6,300650
4,816833	0,5	6,482950
4,825167	0,5	6,680450
4,833500	0,5	6,861500
4,841833	0,5	7,018700
4,850167	0,5	7,127700
4,858500	0,5	7,189150
4,866833	0,5	7,176900
4,875167	0,5	7,107250
4,883500	0,5	6,974800
4,891833	0,5	6,788850
4,900167	0,5	6,568550
4,908500	0,5	6,315850
4,916833	0,5	6,052050
4,925167	0,5	5,801500
4,933500	0,5	5,566350
4,941833	0,5	5,343600
4,950167	0,5	5,158300
4,958500	0,5	4,996900
4,966833	0,5	4,872000
4,975167	0,5	4,759550
4,983500	0,5	4,663450
4,991833	0,5	4,571150
5,000167	0,5	4,493300
5,008500	0,5	4,421650
5,016833	0,5	4,363700
5,025167	0,5	4,311450
5,033500	0,5	4,268100
5,041833	0,5	4,230200
5,050167	0,5	4,202550
5,058500	0,5	4,181550
5,066833	0,5	4,161900
5,075167	0,5	4,160650
5,083500	0,5	4,147100
5,091833	0,5	4,131050
5,100167	0,5	4,122800
5,108500	0,5	4,116500
5,116833	0,5	4,124200
5,125167	0,5	4,120550
5,133500	0,5	4,112200
5,141833	0,5	4,115050
5,150167	0,5	4,117900
5,158500	0,5	4,132600
5,166833	0,5	4,148400
5,175167	0,5	4,184200
5,183500	0,5	4,212200
5,191833	0,5	4,237050
5,200167	0,5	4,250700
5,208500	0,5	4,239300
5,216833	0,5	4,206700
5,225167	0,5	4,177100
5,233500	0,5	4,108500
5,241833	0,5	4,043400
5,250167	0,5	3,986400
5,258500	0,5	3,949150
5,266833	0,5	3,937700
5,275167	0,5	3,929500
5,283500	0,5	3,935200
5,291833	0,5	3,955550
5,300167	0,5	3,993650
5,308500	0,5	4,045350
5,316833	0,5	4,116850
5,325167	0,5	4,204600
5,333500	0,5	4,317450
5,341833	0,5	4,447550
5,350167	0,5	4,592750
5,358500	0,5	4,743000
5,366833	0,5	4,915900
5,375167	0,5	5,115350
5,383500	0,5	5,332600
5,391833	0,5	5,613950
5,400167	0,5	6,001550
5,408500	0,5	6,518100
5,416833	0,5	7,186000
5,425167	0,5	7,968250
5,433500	0,5	8,848150
5,441833	0,5	9,744450
5,450167	0,5	10,562050
5,458500	0,5	11,212000
5,466833	0,5	11,614000
5,475167	0,5	11,744650
5,483500	0,5	11,590450
5,491833	0,5	11,201900
5,500167	0,5	10,623450
5,508500	0,5	9,915550
5,516833	0,5	9,146650
5,525167	0,5	8,359250
5,533500	0,5	7,588250
5,541833	0,5	6,874150
5,550167	0,5	6,245200
5,558500	0,5	5,712100
5,566833	0,5	5,272250
5,575167	0,5	4,917650
5,583500	0,5	4,643650
5,591833	0,5	4,441050
5,600167	0,5	4,298050
5,608500	0,5	4,202850
5,616833	0,5	4,150300
5,625167	0,5	4,138200
5,633500	0,5	4,160850
5,641833	0,5	4,214850
5,650167	0,5	4,295200
5,658500	0,5	4,381050
5,666833	0,5	4,495550
5,675167	0,5	4,584900
5,683500	0,5	4,656900
5,691833	0,5	4,697500
5,700167	0,5	4,716400
5,708500	0,5	4,706300
5,716833	0,5	4,664000
5,725167	0,5	4,591800
5,733500	0,5	4,522950
5,741833	0,5	4,444800
5,750167	0,5	4,370850
5,758500	0,5	4,302600
5,766833	0,5	4,241000
5,775167	0,5	4,190000
5,783500	0,5	4,142150
5,791833	0,5	4,101000
5,800167	0,5	4,054650
5,808500	0,5	4,022550
5,816833	0,5	4,002600
5,825167	0,5	3,975950
5,833500	0,5	3,953700
5,841833	0,5	3,938900
5,850167	0,5	3,929200
5,858500	0,5	3,930350
5,866833	0,5	3,924850
5,875167	0,5	3,921350
5,883500	0,5	3,917750
5,891833	0,5	3,933400
5,900167	0,5	3,944850
5,908500	0,5	3,977950
5,916833	0,5	4,002450
5,925167	0,5	4,020650
5,933500	0,5	4,029650
5,941833	0,5	4,015000
5,950167	0,5	3,982500
5,958500	0,5	3,941100
5,966833	0,5	3,885550
5,975167	0,5	3,817550
5,983500	0,5	3,758200
5,991833	0,5	3,697000
6,000167	0,5	3,660550
6,008500	0,5	3,628950
6,016833	0,5	3,612850
6,025167	0,5	3,602200
6,033500	0,5	3,619200
6,041833	0,5	3,654100
6,050167	0,5	3,712750
6,058500	0,5	3,788700
6,066833	0,5	3,875700
6,075167	0,5	3,963850
6,083500	0,5	4,038650
6,091833	0,5	4,084550
6,100167	0,5	4,100100
6,108500	0,5	4,087900
6,116833	0,5	4,034250
6,125167	0,5	3,947850
6,133500	0,5	3,852600
6,141833	0,5	3,756350
6,150167	0,5	3,679900
6,158500	0,5	3,607050
6,166833	0,5	3,555600
6,175167	0,5	3,526000
6,183500	0,5	3,510650
6,191833	0,5	3,517900
6,200167	0,5	3,536450
6,208500	0,5	3,585800
6,216833	0,5	3,651950
6,225167	0,5	3,752950
6,233500	0,5	3,883750
6,241833	0,5	4,053950
6,250167	0,5	4,237350
6,258500	0,5	4,448700
6,266833	0,5	4,611700
6,275167	0,5	4,742150
6,283500	0,5	4,808950
6,291833	0,5	4,812250
6,300167	0,5	4,767050
6,308500	0,5	4,665000
6,316833	0,5	4,543700
6,325167	0,5	4,419850
6,333500	0,5	4,301700
6,341833	0,5	4,189500
6,350167	0,5	4,084200
6,358500	0,5	3,978450
6,366833	0,5	3,872350
6,375167	0,5	3,764550
6,383500	0,5	3,662550
6,391833	0,5	3,561150
6,400167	0,5	3,477750
6,408500	0,5	3,414800
6,416833	0,5	3,355150
6,425167	0,5	3,310850
6,433500	0,5	3,281200
6,441833	0,5	3,260550
6,450167	0,5	3,255100
6,458500	0,5	3,235150
6,466833	0,5	3,228750
6,475167	0,5	3,218000
6,483500	0,5	3,206600
6,491833	0,5	3,195700
6,500167	0,5	3,188200
6,508500	0,5	3,181400
6,516833	0,5	3,180350
6,525167	0,5	3,194000
6,533500	0,5	3,217800
6,541833	0,5	3,250650
6,550167	0,5	3,307000
6,558500	0,5	3,374900
6,566833	0,5	3,448250
6,575167	0,5	3,528450
6,583500	0,5	3,604450
6,591833	0,5	3,672150
6,600167	0,5	3,713850
6,608500	0,5	3,717250
6,616833	0,5	3,695050
6,625167	0,5	3,654050
6,633500	0,5	3,597700
6,641833	0,5	3,539750
6,650167	0,5	3,486800
6,658500	0,5	3,448850
6,666833	0,5	3,428100
6,675167	0,5	3,419850
6,683500	0,5	3,437400
6,691833	0,5	3,466350
6,700167	0,5	3,521400
6,708500	0,5	3,593350
6,716833	0,5	3,695900
6,725167	0,5	3,846750
6,733500	0,5	4,061600
6,741833	0,5	4,355350
6,750167	0,5	4,741500
6,758500	0,5	5,221600
6,766833	0,5	5,804200
6,775167	0,5	6,430400
6,783500	0,5	7,062450
6,791833	0,5	7,612050
6,800167	0,5	8,009800
6,808500	0,5	8,194500
6,816833	0,5	8,149100
6,825167	0,5	7,912850
6,833500	0,5	7,547600
6,841833	0,5	7,136800
6,850167	0,5	6,766650
6,858500	0,5	6,483750
6,866833	0,5	6,334900
6,875167	0,5	6,317500
6,883500	0,5	6,427900
6,891833	0,5	6,646100
6,900167	0,5	6,948000
6,908500	0,5	7,338000
6,916833	0,5	7,838300
6,925167	0,5	8,526100
6,933500	0,5	9,541800
6,941833	0,5	11,145400
6,950167	0,5	13,665500
6,958500	0,5	17,501200
6,966833	0,5	22,931350
6,975167	0,5	29,925900
6,983500	0,5	37,958551
6,991833	0,5	46,067101
7,000167	0,5	52,957701
7,008500	0,5	57,557351
7,016833	0,5	59,315051
7,025167	0,5	58,199701
7,033500	0,5	54,562801
7,041833	0,5	48,959351
7,050167	0,5	42,119401
7,058500	0,5	34,826101
7,066833	0,5	27,849600
7,075167	0,5	21,741800
7,083500	0,5	16,791650
7,091833	0,5	13,025600
7,100167	0,5	10,309450
7,108500	0,5	8,412450
7,116833	0,5	7,108950
7,125167	0,5	6,197800
7,133500	0,5	5,544300
7,141833	0,5	5,061900
7,150167	0,5	4,686900
7,158500	0,5	4,392700
7,166833	0,5	4,177200
7,175167	0,5	4,016650
7,183500	0,5	3,908250
7,191833	0,5	3,823250
7,200167	0,5	3,749850
7,208500	0,5	3,684050
7,216833	0,5	3,622600
7,225167	0,5	3,565550
7,233500	0,5	3,514550
7,241833	0,5	3,470100
7,250167	0,5	3,435450
7,258500	0,5	3,410900
7,266833	0,5	3,392850
7,275167	0,5	3,381550
7,283500	0,5	3,373000
7,291833	0,5	3,382300
7,300167	0,5	3,376850
7,308500	0,5	3,383900
7,316833	0,5	3,379300
7,325167	0,5	3,367350
7,333500	0,5	3,338250
7,341833	0,5	3,290000
7,350167	0,5	3,234950
7,358500	0,5	3,176000
7,366833	0,5	3,122950
7,375167	0,5	3,087200
7,383500	0,5	3,053450
7,391833	0,5	3,031350
7,400167	0,5	3,015500
7,408500	0,5	3,008200
7,416833	0,5	3,012300
7,425167	0,5	3,017200
7,433500	0,5	3,034950
7,441833	0,5	3,068850
7,450167	0,5	3,122550
7,458500	0,5	3,198600
7,466833	0,5	3,297350
7,475167	0,5	3,386350
7,483500	0,5	3,447500
7,491833	0,5	3,448150
7,500167	0,5	3,413700
7,508500	0,5	3,369650
7,516833	0,5	3,340150
7,525167	0,5	3,343450
7,533500	0,5	3,381950
7,541833	0,5	3,435350
7,550167	0,5	3,480200
7,558500	0,5	3,496150
7,566833	0,5	3,468800
7,575167	0,5	3,397150
7,583500	0,5	3,316250
7,591833	0,5	3,231650
7,600167	0,5	3,159500
7,608500	0,5	3,105500
7,616833	0,5	3,072050
7,625167	0,5	3,054000
7,633500	0,5	3,031700
7,641833	0,5	2,998250
7,650167	0,5	2,954800
7,658500	0,5	2,915350
7,666833	0,5	2,875250
7,675167	0,5	2,858100
7,683500	0,5	2,854850
7,691833	0,5	2,864200
7,700167	0,5	2,881800
7,708500	0,5	2,902400
7,716833	0,5	2,909950
7,725167	0,5	2,912000
7,733500	0,5	2,922300
7,741833	0,5	2,936500
7,750167	0,5	2,965000
7,758500	0,5	3,017350
7,766833	0,5	3,080950
7,775167	0,5	3,145000
7,783500	0,5	3,195300
7,791833	0,5	3,229200
7,800167	0,5	3,250350
7,808500	0,5	3,267600
7,816833	0,5	3,293350
7,825167	0,5	3,327750
7,833500	0,5	3,365550
7,841833	0,5	3,395350
7,850167	0,5	3,411550
7,858500	0,5	3,420250
7,866833	0,5	3,439250
7,875167	0,5	3,501200
7,883500	0,5	3,634100
7,891833	0,5	3,815100
7,900167	0,5	4,004400
7,908500	0,5	4,139200
7,916833	0,5	4,171600
7,925167	0,5	4,088550
7,933500	0,5	3,915300
7,941833	0,5	3,705850
7,950167	0,5	3,504700
7,958500	0,5	3,355250
7,966833	0,5	3,254650
7,975167	0,5	3,188600
7,983500	0,5	3,143600
7,991833	0,5	3,097850
8,000167	0,5	3,049950
8,008500	0,5	2,991450
8,016833	0,5	2,932050
8,025167	0,5	2,897750
8,033500	0,5	2,892700
8,041833	0,5	2,927000
8,050167	0,5	2,994350
8,058500	0,5	3,090450
8,066833	0,5	3,196700
8,075167	0,5	3,289800
8,083500	0,5	3,362950
8,091833	0,5	3,431450
8,100167	0,5	3,497300
8,108500	0,5	3,565850
8,116833	0,5	3,624500
8,125167	0,5	3,654800
8,133500	0,5	3,659750
8,141833	0,5	3,641300
8,150167	0,5	3,600000
8,158500	0,5	3,538950
8,166833	0,5	3,464300
8,175167	0,5	3,406500
8,183500	0,5	3,395100
8,191833	0,5	3,441500
8,200167	0,5	3,560850
8,208500	0,5	3,734400
8,216833	0,5	3,962200
8,225167	0,5	4,230850
8,233500	0,5	4,541800
8,241833	0,5	4,908350
8,250167	0,5	5,336450
8,258500	0,5	5,845550
8,266833	0,5	6,451150
8,275167	0,5	7,172550
8,283500	0,5	8,019000
8,291833	0,5	9,000550
8,300167	0,5	10,106050
8,308500	0,5	11,330650
8,316833	0,5	12,636350
8,325167	0,5	14,002850
8,333500	0,5	15,364600
8,341833	0,5	16,676200
8,350167	0,5	17,884150
8,358500	0,5	18,933050
8,366833	0,5	19,775750
8,375167	0,5	20,368800
8,383500	0,5	20,686950
8,391833	0,5	20,735150
8,400167	0,5	20,527200
8,408500	0,5	20,093850
8,416833	0,5	19,478950
8,425167	0,5	18,728500
8,433500	0,5	17,892650
8,441833	0,5	17,020400
8,450167	0,5	16,166400
8,458500	0,5	15,392900
8,466833	0,5	14,821950
8,475167	0,5	14,667000
8,483500	0,5	15,279100
8,491833	0,5	17,282600
8,500167	0,5	21,432200
8,508500	0,5	28,379600
8,516833	0,5	38,157451
8,525167	0,5	49,742001
8,533500	0,5	61,155201
8,541833	0,5	69,971551
8,550167	0,5	74,257351
8,558500	0,5	73,212401
8,566833	0,5	67,376101
8,575167	0,5	58,213851
8,583500	0,5	47,575151
8,591833	0,5	37,115051
8,600167	0,5	27,970000
8,608500	0,5	20,679150
8,616833	0,5	15,304700
8,625167	0,5	11,579900
8,633500	0,5	9,126250
8,641833	0,5	7,567450
8,650167	0,5	6,603200
8,658500	0,5	6,008450
8,666833	0,5	5,660350
8,675167	0,5	5,461350
8,683500	0,5	5,365850
8,691833	0,5	5,322900
8,700167	0,5	5,282800
8,708500	0,5	5,192550
8,716833	0,5	5,035150
8,725167	0,5	4,809500
8,733500	0,5	4,544550
8,741833	0,5	4,284200
8,750167	0,5	4,052300
8,758500	0,5	3,869550
8,766833	0,5	3,747900
8,775167	0,5	3,677900
8,783500	0,5	3,650150
8,791833	0,5	3,649400
8,800167	0,5	3,650400
8,808500	0,5	3,627750
8,816833	0,5	3,571550
8,825167	0,5	3,476200
8,833500	0,5	3,365600
8,841833	0,5	3,249750
8,850167	0,5	3,150300
8,858500	0,5	3,059000
8,866833	0,5	2,977700
8,875167	0,5	2,907950
8,883500	0,5	2,848150
8,891833	0,5	2,801000
8,900167	0,5	2,766350
8,908500	0,5	2,745200
8,916833	0,5	2,749250
8,925167	0,5	2,759650
8,933500	0,5	2,783350
8,941833	0,5	2,806750
8,950167	0,5	2,813600
8,958500	0,5	2,796000
8,966833	0,5	2,757550
8,975167	0,5	2,709000
8,983500	0,5	2,658900
8,991833	0,5	2,622100
9,000167	0,5	2,597250
9,008500	0,5	2,586300
9,016833	0,5	2,591300
9,025167	0,5	2,602100
9,033500	0,5	2,622350
9,041833	0,5	2,641950
9,050167	0,5	2,658900
9,058500	0,5	2,665450
9,066833	0,5	2,667350
9,075167	0,5	2,655300
9,083500	0,5	2,639000
9,091833	0,5	2,624350
9,100167	0,5	2,621000
9,108500	0,5	2,634400
9,116833	0,5	2,658450
9,125167	0,5	2,686100
9,133500	0,5	2,714300
9,141833	0,5	2,732350
9,150167	0,5	2,726900
9,158500	0,5	2,707450
9,166833	0,5	2,663300
9,175167	0,5	2,613050
9,183500	0,5	2,565400
9,191833	0,5	2,514450
9,200167	0,5	2,472950
9,208500	0,5	2,443250
9,216833	0,5	2,423350
9,225167	0,5	2,414150
9,233500	0,5	2,407650
9,241833	0,5	2,413050
9,250167	0,5	2,434100
9,258500	0,5	2,463750
9,266833	0,5	2,505300
9,275167	0,5	2,545200
9,283500	0,5	2,576750
9,291833	0,5	2,591500
9,300167	0,5	2,582600
9,308500	0,5	2,555550
9,316833	0,5	2,521350
9,325167	0,5	2,490150
9,333500	0,5	2,466450
9,341833	0,5	2,464150
9,350167	0,5	2,469950
9,358500	0,5	2,489200
9,366833	0,5	2,511100
9,375167	0,5	2,524900
9,383500	0,5	2,532300
9,391833	0,5	2,526400
9,400167	0,5	2,516300
9,408500	0,5	2,499350
9,416833	0,5	2,481900
9,425167	0,5	2,460550
9,433500	0,5	2,439850
9,441833	0,5	2,414750
9,450167	0,5	2,385100
9,458500	0,5	2,369600
9,466833	0,5	2,353700
9,475167	0,5	2,343950
9,483500	0,5	2,337750
9,491833	0,5	2,339500
9,500167	0,5	2,334700
9,508500	0,5	2,329700
9,516833	0,5	2,321000
9,525167	0,5	2,316800
9,533500	0,5	2,322800
9,541833	0,5	2,349200
9,550167	0,5	2,397050
9,558500	0,5	2,465450
9,566833	0,5	2,540850
9,575167	0,5	2,599300
9,583500	0,5	2,624950
9,591833	0,5	2,611900
9,600167	0,5	2,562950
9,608500	0,5	2,496250
9,616833	0,5	2,423550
9,625167	0,5	2,355800
9,633500	0,5	2,305550
9,641833	0,5	2,269250
9,650167	0,5	2,241550
9,658500	0,5	2,229500
9,666833	0,5	2,217100
9,675167	0,5	2,208450
9,683500	0,5	2,205300
9,691833	0,5	2,209050
9,700167	0,5	2,224400
9,708500	0,5	2,252100
9,716833	0,5	2,289100
9,725167	0,5	2,332750
9,733500	0,5	2,375550
9,741833	0,5	2,409150
9,750167	0,5	2,424600
9,758500	0,5	2,410600
9,766833	0,5	2,377800
9,775167	0,5	2,328100
9,783500	0,5	2,273300
9,791833	0,5	2,216500
9,800167	0,5	2,165250
9,808500	0,5	2,134050
9,816833	0,5	2,102200
9,825167	0,5	2,084650
9,833500	0,5	2,082400
9,841833	0,5	2,093000
9,850167	0,5	2,114850
9,858500	0,5	2,153600
9,866833	0,5	2,195850
9,875167	0,5	2,248750
9,883500	0,5	2,315550
9,891833	0,5	2,386950
9,900167	0,5	2,462900
9,908500	0,5	2,538400
9,916833	0,5	2,609550
9,925167	0,5	2,663050
9,933500	0,5	2,695250
9,941833	0,5	2,701850
9,950167	0,5	2,684450
9,958500	0,5	2,644750
9,966833	0,5	2,583250
9,975167	0,5	2,518250
9,983500	0,5	2,463000
9,991833	0,5	2,428400
10,000167	0,5	2,409550
10,008500	0,5	2,390700
10,016833	0,5	2,369750
10,025167	0,5	2,351400
10,033500	0,5	2,318300
10,041833	0,5	2,278500
10,050167	0,5	2,236800
10,058500	0,5	2,190600
10,066833	0,5	2,147250
10,075167	0,5	2,107350
10,083500	0,5	2,071650
10,091833	0,5	2,043650
10,100167	0,5	2,029650
10,108500	0,5	2,023000
10,116833	0,5	2,018350
10,125167	0,5	2,023450
10,133500	0,5	2,026700
10,141833	0,5	2,040550
10,150167	0,5	2,050800
10,158500	0,5	2,063150
10,166833	0,5	2,073850
10,175167	0,5	2,081050
10,183500	0,5	2,091550
10,191833	0,5	2,103850
10,200167	0,5	2,124000
10,208500	0,5	2,148650
10,216833	0,5	2,182000
10,225167	0,5	2,223450
10,233500	0,5	2,259300
10,241833	0,5	2,294400
10,250167	0,5	2,335150
10,258500	0,5	2,367050
10,266833	0,5	2,384250
10,275167	0,5	2,384400
10,283500	0,5	2,353750
10,291833	0,5	2,307300
10,300167	0,5	2,248650
10,308500	0,5	2,185150
10,316833	0,5	2,125600
10,325167	0,5	2,080250
10,333500	0,5	2,044550
10,341833	0,5	2,011700
10,350167	0,5	1,985000
10,358500	0,5	1,971550
10,366833	0,5	1,966800
10,375167	0,5	1,981350
10,383500	0,5	2,013150
10,391833	0,5	2,065500
10,400167	0,5	2,138350
10,408500	0,5	2,219850
10,416833	0,5	2,306750
10,425167	0,5	2,386950
10,433500	0,5	2,459050
10,441833	0,5	2,511250
10,450167	0,5	2,535050
10,458500	0,5	2,523550
10,466833	0,5	2,491450
10,475167	0,5	2,430400
10,483500	0,5	2,362650
10,491833	0,5	2,296350
10,500167	0,5	2,240750
10,508500	0,5	2,211150
10,516833	0,5	2,204550
10,525167	0,5	2,235550
10,533500	0,5	2,293350
10,541833	0,5	2,376050
10,550167	0,5	2,477600
10,558500	0,5	2,595150
10,566833	0,5	2,735550
10,575167	0,5	2,913650
10,583500	0,5	3,139550
10,591833	0,5	3,416900
10,600167	0,5	3,713900
10,608500	0,5	4,004450
10,616833	0,5	4,235650
10,625167	0,5	4,386750
10,633500	0,5	4,442200
10,641833	0,5	4,428850
10,650167	0,5	4,372400
10,658500	0,5	4,371550
10,666833	0,5	4,235100
10,675167	0,5	4,180150
10,683500	0,5	4,113000
10,691833	0,5	4,037000
10,700167	0,5	3,920750
10,708500	0,5	3,765900
10,716833	0,5	3,579250
10,725167	0,5	3,372850
10,733500	0,5	3,167250
10,741833	0,5	2,971250
10,750167	0,5	2,804700
10,758500	0,5	2,678350
10,766833	0,5	2,594600
10,775167	0,5	2,550600
10,783500	0,5	2,531100
10,791833	0,5	2,527550
10,800167	0,5	2,532100
10,808500	0,5	2,530450
10,816833	0,5	2,529500
10,825167	0,5	2,518700
10,833500	0,5	2,501300
10,841833	0,5	2,468400
10,850167	0,5	2,423100
10,858500	0,5	2,365600
10,866833	0,5	2,298850
10,875167	0,5	2,240100
10,883500	0,5	2,195350
10,891833	0,5	2,169550
10,900167	0,5	2,160000
10,908500	0,5	2,171100
10,916833	0,5	2,187850
10,925167	0,5	2,206150
10,933500	0,5	2,217900
10,941833	0,5	2,229350
10,950167	0,5	2,237050
10,958500	0,5	2,251250
10,966833	0,5	2,267450
10,975167	0,5	2,276650
10,983500	0,5	2,286350
10,991833	0,5	2,277250
11,000167	0,5	2,248000
11,008500	0,5	2,210050
11,016833	0,5	2,163950
11,025167	0,5	2,128800
11,033500	0,5	2,104200
11,041833	0,5	2,096700
11,050167	0,5	2,098600
11,058500	0,5	2,114500
11,066833	0,5	2,135150
11,075167	0,5	2,162100
11,083500	0,5	2,179200
11,091833	0,5	2,193050
11,100167	0,5	2,199600
11,108500	0,5	2,211350
11,116833	0,5	2,217000
11,125167	0,5	2,232700
11,133500	0,5	2,266450
11,141833	0,5	2,300400
11,150167	0,5	2,338950
11,158500	0,5	2,382350
11,166833	0,5	2,437700
11,175167	0,5	2,506050
11,183500	0,5	2,585750
11,191833	0,5	2,643750
11,200167	0,5	2,684900
11,208500	0,5	2,671250
11,216833	0,5	2,619000
11,225167	0,5	2,526450
11,233500	0,5	2,421450
11,241833	0,5	2,313850
11,250167	0,5	2,226550
11,258500	0,5	2,165900
11,266833	0,5	2,127150
11,275167	0,5	2,112200
11,283500	0,5	2,128900
11,291833	0,5	2,178750
11,300167	0,5	2,246350
11,308500	0,5	2,340350
11,316833	0,5	2,421950
11,325167	0,5	2,488800
11,333500	0,5	2,528050
11,341833	0,5	2,560300
11,350167	0,5	2,596150
11,358500	0,5	2,657400
11,366833	0,5	2,790400
11,375167	0,5	3,192400
11,383500	0,5	4,003850
11,391833	0,5	5,032050
11,400167	0,5	5,723900
11,408500	0,5	5,937650
11,416833	0,5	5,634850
11,425167	0,5	5,077200
11,433500	0,5	4,148550
11,441833	0,5	3,141300
11,450167	0,5	2,208700
11,458500	0,5	1,572250
11,466833	0,5	1,193450
11,475167	0,5	0,949700
11,483500	0,5	0,780600
11,491833	0,5	0,651400
11,500167	0,5	0,558950
11,508500	0,5	0,481450
11,516833	0,5	0,427500
11,525167	0,5	0,381050
11,533500	0,5	0,345750
11,541833	0,5	0,308850
11,550167	0,5	0,280550
11,558500	0,5	0,257050
11,566833	0,5	0,225850
11,575167	0,5	0,200750
11,583500	0,5	0,174050
11,591833	0,5	0,141900
11,600167	0,5	0,111200
11,608500	0,5	0,079700
11,616833	0,5	0,055150
11,625167	0,5	0,035850
11,633500	0,5	0,017500
11,641833	0,5	-0,007100
11,650167	0,5	-0,022750
11,658500	0,5	-0,033650
11,666833	0,5	-0,047300
11,675167	0,5	-0,066900
11,683500	0,5	-0,080950
11,691833	0,5	-0,093200
11,700167	0,5	-0,108900
11,708500	0,5	-0,118250
11,716833	0,5	-0,136750
11,725167	0,5	-0,138450
11,733500	0,5	-0,149600
11,741833	0,5	-0,154550
11,750167	0,5	-0,160150
11,758500	0,5	-0,156150
11,766833	0,5	-0,147350
11,775167	0,5	-0,132600
11,783500	0,5	-0,116750
11,791833	0,5	-0,094850
11,800167	0,5	-0,070800
11,808500	0,5	-0,043550
11,816833	0,5	-0,010700
11,825167	0,5	0,017350
11,833500	0,5	0,050000
11,841833	0,5	0,077400
11,850167	0,5	0,110100
11,858500	0,5	0,127900
11,866833	0,5	0,144450
11,875167	0,5	0,161150
11,883500	0,5	0,168100
11,891833	0,5	0,167500
11,900167	0,5	0,155850
11,908500	0,5	0,145250
11,916833	0,5	0,134500
11,925167	0,5	0,123500
11,933500	0,5	0,111300
11,941833	0,5	0,089550
11,950167	0,5	0,075900
11,958500	0,5	0,062700
11,966833	0,5	0,051300
11,975167	0,5	0,042350
11,983500	0,5	0,033200
11,991833	0,5	0,029350
12,000167	0,5	0,025800
12,008500	0,5	0,015950
12,016833	0,5	0,016700
12,025167	0,5	0,018500
12,033500	0,5	0,014850
12,041833	0,5	0,011700
12,050167	0,5	0,006250
12,058500	0,5	0,013050
12,066833	0,5	0,016700
12,075167	0,5	0,021650
12,083500	0,5	0,026150
12,091833	0,5	0,031850
12,100167	0,5	0,036250
12,108500	0,5	0,047600
12,116833	0,5	0,059100
12,125167	0,5	0,068550
12,133500	0,5	0,080500
12,141833	0,5	0,098200
12,150167	0,5	0,120150
12,158500	0,5	0,135850
12,166833	0,5	0,167850
12,175167	0,5	0,196650
12,183500	0,5	0,227550
12,191833	0,5	0,258450
12,200167	0,5	0,294500
12,208500	0,5	0,334700
12,216833	0,5	0,380250
12,225167	0,5	0,417300
12,233500	0,5	0,458050
12,241833	0,5	0,493650
12,250167	0,5	0,532050
12,258500	0,5	0,563900
12,266833	0,5	0,595000
12,275167	0,5	0,624000
12,283500	0,5	0,648000
12,291833	0,5	0,671800
12,300167	0,5	0,689950
12,308500	0,5	0,705200
12,316833	0,5	0,726050
12,325167	0,5	0,740300
12,333500	0,5	0,750350
12,341833	0,5	0,760450
12,350167	0,5	0,768150
12,358500	0,5	0,788900
12,366833	0,5	0,798950
12,375167	0,5	0,810250
12,383500	0,5	0,817850
12,391833	0,5	0,829050
12,400167	0,5	0,837250
12,408500	0,5	0,846550
12,416833	0,5	0,853200
12,425167	0,5	0,862100
12,433500	0,5	0,866050
12,441833	0,5	0,873950
12,450167	0,5	0,874500
12,458500	0,5	0,883000
12,466833	0,5	0,890500
12,475167	0,5	0,895200
12,483500	0,5	0,896350
12,491833	0,5	0,894100
12,500167	0,5	0,896850
12,508500	0,5	0,904200
12,516833	0,5	0,909350
12,525167	0,5	0,914350
12,533500	0,5	0,920050
12,541833	0,5	0,919700
12,550167	0,5	0,927950
12,558500	0,5	0,925800
12,566833	0,5	0,928050
12,575167	0,5	0,928550
12,583500	0,5	0,933050
12,591833	0,5	0,931400
12,600167	0,5	0,927450
12,608500	0,5	0,931400
12,616833	0,5	0,932750
12,625167	0,5	0,925950
12,633500	0,5	0,921950
12,641833	0,5	0,917450
12,650167	0,5	0,917600
12,658500	0,5	0,924600
12,666833	0,5	0,926150
12,675167	0,5	0,925300
12,683500	0,5	0,924750
12,691833	0,5	0,929350
12,700167	0,5	0,924100
12,708500	0,5	0,930700
12,716833	0,5	0,925950
12,725167	0,5	0,927050
12,733500	0,5	0,925550
12,741833	0,5	0,923900
12,750167	0,5	0,920200
12,758500	0,5	0,927850
12,766833	0,5	0,921900
12,775167	0,5	0,918350
12,783500	0,5	0,915450
12,791833	0,5	0,909150
12,800167	0,5	0,909800
12,808500	0,5	0,914050
12,816833	0,5	0,913450
12,825167	0,5	0,916350
12,833500	0,5	0,913700
12,841833	0,5	0,913800
12,850167	0,5	0,919100
12,858500	0,5	0,919100
12,866833	0,5	0,922100
12,875167	0,5	0,922300
12,883500	0,5	0,922250
12,891833	0,5	0,918750
12,900167	0,5	0,924200
12,908500	0,5	0,926600
12,916833	0,5	0,925600
12,925167	0,5	0,924550
12,933500	0,5	0,916200
12,941833	0,5	0,916950
12,950167	0,5	0,923600
12,958500	0,5	0,925000
12,966833	0,5	0,931450
12,975167	0,5	0,930150
12,983500	0,5	0,936450
12,991833	0,5	0,937950
13,000167	0,5	0,938000
13,008500	0,5	0,942700
13,016833	0,5	0,943050
13,025167	0,5	0,945650
13,033500	0,5	0,948450
13,041833	0,5	0,938050
13,050167	0,5	0,948400
13,058500	0,5	0,951700
13,066833	0,5	0,951250
13,075167	0,5	0,948750
13,083500	0,5	0,944100
13,091833	0,5	0,947250
13,100167	0,5	0,951500
13,108500	0,5	0,957050
13,116833	0,5	0,963700
13,125167	0,5	0,970600
13,133500	0,5	0,970950
13,141833	0,5	0,978800
13,150167	0,5	0,985650
13,158500	0,5	0,987500
13,166833	0,5	0,992550
13,175167	0,5	0,997450
13,183500	0,5	0,998350
13,191833	0,5	1,002150
13,200167	0,5	1,013850
13,208500	0,5	1,021950
13,216833	0,5	1,026850
13,225167	0,5	1,031950
13,233500	0,5	1,032650
13,241833	0,5	1,038450
13,250167	0,5	1,047750
13,258500	0,5	1,046900
13,266833	0,5	1,054250
13,275167	0,5	1,051450
13,283500	0,5	1,056200
13,291833	0,5	1,063350
13,300167	0,5	1,072550
13,308500	0,5	1,080450
13,316833	0,5	1,090400
13,325167	0,5	1,102900
13,333500	0,5	1,106800
13,341833	0,5	1,115050
13,350167	0,5	1,125650
13,358500	0,5	1,122550
13,366833	0,5	1,115600
13,375167	0,5	1,108150
13,383500	0,5	1,104500
13,391833	0,5	1,111200
13,400167	0,5	1,112450
13,408500	0,5	1,118750
13,416833	0,5	1,125350
13,425167	0,5	1,141000
13,433500	0,5	1,149750
13,441833	0,5	1,171550
13,450167	0,5	1,185450
13,458500	0,5	1,205150
13,466833	0,5	1,225350
13,475167	0,5	1,253200
13,483500	0,5	1,268100
13,491833	0,5	1,298750
13,500167	0,5	1,323000
13,508500	0,5	1,336700
13,516833	0,5	1,338900
13,525167	0,5	1,324400
13,533500	0,5	1,303700
13,541833	0,5	1,286650
13,550167	0,5	1,275150
13,558500	0,5	1,260850
13,566833	0,5	1,254000
13,575167	0,5	1,251700
13,583500	0,5	1,257050
13,591833	0,5	1,266600
13,600167	0,5	1,285700
13,608500	0,5	1,308600
13,616833	0,5	1,346150
13,625167	0,5	1,383800
13,633500	0,5	1,419250
13,641833	0,5	1,460700
13,650167	0,5	1,485700
13,658500	0,5	1,494800
13,666833	0,5	1,483500
13,675167	0,5	1,459300
13,683500	0,5	1,433600
13,691833	0,5	1,403350
13,700167	0,5	1,375250
13,708500	0,5	1,353450
13,716833	0,5	1,340350
13,725167	0,5	1,338900
13,733500	0,5	1,347150
13,741833	0,5	1,371750
13,750167	0,5	1,400900
13,758500	0,5	1,427500
13,766833	0,5	1,447250
13,775167	0,5	1,458250
13,783500	0,5	1,455300
13,791833	0,5	1,457200
13,800167	0,5	1,435800
13,808500	0,5	1,413600
13,816833	0,5	1,379400
13,825167	0,5	1,349650
13,833500	0,5	1,334100
13,841833	0,5	1,325400
13,850167	0,5	1,324200
13,858500	0,5	1,328650
13,866833	0,5	1,333050
13,875167	0,5	1,341400
13,883500	0,5	1,340650
13,891833	0,5	1,337600
13,900167	0,5	1,332400
13,908500	0,5	1,326150
13,916833	0,5	1,314850
13,925167	0,5	1,292850
13,933500	0,5	1,282700
13,941833	0,5	1,273250
13,950167	0,5	1,259450
13,958500	0,5	1,247900
13,966833	0,5	1,228150
13,975167	0,5	1,219450
13,983500	0,5	1,216500
13,991833	0,5	1,205550
14,000167	0,5	1,202950
14,008500	0,5	1,197650
14,016833	0,5	1,187550
14,025167	0,5	1,179050
14,033500	0,5	1,170050
14,041833	0,5	1,164600
14,050167	0,5	1,158300
14,058500	0,5	1,158050
14,066833	0,5	1,147650
14,075167	0,5	1,137200
14,083500	0,5	1,138050
14,091833	0,5	1,131750
14,100167	0,5	1,119500
14,108500	0,5	1,108850
14,116833	0,5	1,090350
14,125167	0,5	1,087050
14,133500	0,5	1,070800
14,141833	0,5	1,070750
14,150167	0,5	1,060300
14,158500	0,5	1,058750
14,166833	0,5	1,048450
14,175167	0,5	1,042750
14,183500	0,5	1,037400
14,191833	0,5	1,031700
14,200167	0,5	1,031150
14,208500	0,5	1,034150
14,216833	0,5	1,024550
14,225167	0,5	1,020600
14,233500	0,5	1,020750
14,241833	0,5	1,016750
14,250167	0,5	1,008250
14,258500	0,5	0,992950
14,266833	0,5	0,988350
14,275167	0,5	0,987850
14,283500	0,5	0,987250
14,291833	0,5	0,983300
14,300167	0,5	0,981200
14,308500	0,5	0,977350
14,316833	0,5	0,974300
14,325167	0,5	0,966450
14,333500	0,5	0,958350
14,341833	0,5	0,950250
14,350167	0,5	0,942350
14,358500	0,5	0,942000
14,366833	0,5	0,928850
14,375167	0,5	0,931300
14,383500	0,5	0,929250
14,391833	0,5	0,930050
14,400167	0,5	0,923850
14,408500	0,5	0,913300
14,416833	0,5	0,908850
14,425167	0,5	0,911700
14,433500	0,5	0,896550
14,441833	0,5	0,891650
14,450167	0,5	0,882950
14,458500	0,5	0,879100
14,466833	0,5	0,874900
14,475167	0,5	0,878700
14,483500	0,5	0,868650
14,491833	0,5	0,866900
14,500167	0,5	0,860100
14,508500	0,5	0,860750
14,516833	0,5	0,841650
14,525167	0,5	0,849500
14,533500	0,5	0,837650
14,541833	0,5	0,837750
14,550167	0,5	0,829550
14,558500	0,5	0,817900
14,566833	0,5	0,825750
14,575167	0,5	0,823650
14,583500	0,5	0,817350
14,591833	0,5	0,809950
14,600167	0,5	0,808650
14,608500	0,5	0,802700
14,616833	0,5	0,800750
14,625167	0,5	0,793750
14,633500	0,5	0,786700
14,641833	0,5	0,780550
14,650167	0,5	0,779950
14,658500	0,5	0,771050
14,666833	0,5	0,761050
14,675167	0,5	0,762500
14,683500	0,5	0,757400
14,691833	0,5	0,746350
14,700167	0,5	0,737300
14,708500	0,5	0,726200
14,716833	0,5	0,722200
14,725167	0,5	0,722050
14,733500	0,5	0,715900
14,741833	0,5	0,718200
14,750167	0,5	0,713100
14,758500	0,5	0,711850
14,766833	0,5	0,703000
14,775167	0,5	0,700950
14,783500	0,5	0,688750
14,791833	0,5	0,687250
14,800167	0,5	0,679100
14,808500	0,5	0,670650
14,816833	0,5	0,666250
14,825167	0,5	0,669950
14,833500	0,5	0,658350
14,841833	0,5	0,659050
14,850167	0,5	0,644400
14,858500	0,5	0,636700
14,866833	0,5	0,638250
14,875167	0,5	0,639050
14,883500	0,5	0,637250
14,891833	0,5	0,632700
14,900167	0,5	0,632400
14,908500	0,5	0,629200
14,916833	0,5	0,629050
14,925167	0,5	0,622950
14,933500	0,5	0,619050
14,941833	0,5	0,616000
14,950167	0,5	0,616900
14,958500	0,5	0,603800
14,966833	0,5	0,612750
14,975167	0,5	0,609700
14,983500	0,5	0,603150
14,991833	0,5	0,593000
15,000167	0,5	0,584350
15,008500	0,5	0,576950
15,016833	0,5	0,578850
15,025167	0,5	0,574950
15,033500	0,5	0,572700
15,041833	0,5	0,571950
15,050167	0,5	0,572800
15,058500	0,5	0,568800
15,066833	0,5	0,568000
15,075167	0,5	0,566500
15,083500	0,5	0,565800
15,091833	0,5	0,569750
15,100167	0,5	0,563300
15,108500	0,5	0,558650
15,116833	0,5	0,564550
15,125167	0,5	0,561200
15,133500	0,5	0,549350
15,141833	0,5	0,541900
15,150167	0,5	0,535150
15,158500	0,5	0,540250
15,166833	0,5	0,535200
15,175167	0,5	0,534300
15,183500	0,5	0,527050
15,191833	0,5	0,526000
15,200167	0,5	0,526050
15,208500	0,5	0,523050
15,216833	0,5	0,516150
15,225167	0,5	0,508150
15,233500	0,5	0,508350
15,241833	0,5	0,510250
15,250167	0,5	0,496100
15,258500	0,5	0,506750
15,266833	0,5	0,506850
15,275167	0,5	0,506250
15,283500	0,5	0,498350
15,291833	0,5	0,481100
15,300167	0,5	0,483500
15,308500	0,5	0,480400
15,316833	0,5	0,480650
15,325167	0,5	0,469700
15,333500	0,5	0,469650
15,341833	0,5	0,465050
15,350167	0,5	0,466250
15,358500	0,5	0,462200
15,366833	0,5	0,454850
15,375167	0,5	0,457350
15,383500	0,5	0,449250
15,391833	0,5	0,449850
15,400167	0,5	0,439650
15,408500	0,5	0,443500
15,416833	0,5	0,437650
15,425167	0,5	0,428350
15,433500	0,5	0,411550
15,441833	0,5	0,396800
15,450167	0,5	0,395500
15,458500	0,5	0,396600
15,466833	0,5	0,386100
15,475167	0,5	0,381450
15,483500	0,5	0,375600
15,491833	0,5	0,370800
15,500167	0,5	0,362550
15,508500	0,5	0,362250
15,516833	0,5	0,355800
15,525167	0,5	0,349550
15,533500	0,5	0,350050
15,541833	0,5	0,347650
15,550167	0,5	0,342250
15,558500	0,5	0,350750
15,566833	0,5	0,346850
15,575167	0,5	0,341150
15,583500	0,5	0,335800
15,591833	0,5	0,321150
15,600167	0,5	0,326800
15,608500	0,5	0,324850
15,616833	0,5	0,326950
15,625167	0,5	0,323500
15,633500	0,5	0,332150
15,641833	0,5	0,333850
15,650167	0,5	0,340200
15,658500	0,5	0,336750
15,666833	0,5	0,342100
15,675167	0,5	0,342550
15,683500	0,5	0,349200
15,691833	0,5	0,338000
15,700167	0,5	0,338150
15,708500	0,5	0,338650
15,716833	0,5	0,333600
15,725167	0,5	0,315800
15,733500	0,5	0,304700
15,741833	0,5	0,298650
15,750167	0,5	0,297100
15,758500	0,5	0,297950
15,766833	0,5	0,295400
15,775167	0,5	0,288950
15,783500	0,5	0,283100
15,791833	0,5	0,284450
15,800167	0,5	0,275850
15,808500	0,5	0,271600
15,816833	0,5	0,264050
15,825167	0,5	0,262350
15,833500	0,5	0,255800
15,841833	0,5	0,251350
15,850167	0,5	0,254500
15,858500	0,5	0,257600
15,866833	0,5	0,249150
15,875167	0,5	0,242050
15,883500	0,5	0,223650
15,891833	0,5	0,213300
15,900167	0,5	0,208450
15,908500	0,5	0,207800
15,916833	0,5	0,200350
15,925167	0,5	0,190250
15,933500	0,5	0,187200
15,941833	0,5	0,185750
15,950167	0,5	0,183500
15,958500	0,5	0,177050
15,966833	0,5	0,176500
15,975167	0,5	0,170500
15,983500	0,5	0,158450
15,991833	0,5	0,151700
16,000167	0,5	0,157750
16,008500	0,5	0,153600
16,016833	0,5	0,150850
16,025167	0,5	0,129250
16,033500	0,5	0,129200
16,041833	0,5	0,131400
16,050167	0,5	0,132700
16,058500	0,5	0,128250
16,066833	0,5	0,126550
16,075167	0,5	0,120850
16,083500	0,5	0,112950
16,091833	0,5	0,109150
16,100167	0,5	0,101350
16,108500	0,5	0,099000
16,116833	0,5	0,093700
16,125167	0,5	0,095900
16,133500	0,5	0,077650
16,141833	0,5	0,083000
16,150167	0,5	0,081800
16,158500	0,5	0,076650
16,166833	0,5	0,069950
16,175167	0,5	0,054650
16,183500	0,5	0,052100
16,191833	0,5	0,054500
16,200167	0,5	0,045600
16,208500	0,5	0,047200
16,216833	0,5	0,040900
16,225167	0,5	0,035750
16,233500	0,5	0,039350
16,241833	0,5	0,038800
16,250167	0,5	0,037500
16,258500	0,5	0,033350
16,266833	0,5	0,040650
16,275167	0,5	0,042450
16,283500	0,5	0,029250
16,291833	0,5	0,044450
16,300167	0,5	0,047400
16,308500	0,5	0,045100
16,316833	0,5	0,048100
16,325167	0,5	0,032450
16,333500	0,5	0,049450
16,341833	0,5	0,049100
16,350167	0,5	0,056200
16,358500	0,5	0,053150
16,366833	0,5	0,053050
16,375167	0,5	0,047300
16,383500	0,5	0,049200
16,391833	0,5	0,044200
16,400167	0,5	0,041850
16,408500	0,5	0,045150
16,416833	0,5	0,048950
16,425167	0,5	0,042650
16,433500	0,5	0,041850
16,441833	0,5	0,056600
16,450167	0,5	0,058650
16,458500	0,5	0,055350
16,466833	0,5	0,049750
16,475167	0,5	0,043750
16,483500	0,5	0,050600
16,491833	0,5	0,063100
16,500167	0,5	0,068350
16,508500	0,5	0,080650
16,516833	0,5	0,092600
16,525167	0,5	0,110200
16,533500	0,5	0,125700
16,541833	0,5	0,142550
16,550167	0,5	0,149850
16,558500	0,5	0,158950
16,566833	0,5	0,167050
16,575167	0,5	0,167800
16,583500	0,5	0,171450
16,591833	0,5	0,180750
16,600167	0,5	0,178300
16,608500	0,5	0,177950
16,616833	0,5	0,166400
16,625167	0,5	0,153400
16,633500	0,5	0,162450
16,641833	0,5	0,159200
16,650167	0,5	0,157050
16,658500	0,5	0,152450
16,666833	0,5	0,157250
16,675167	0,5	0,155850
16,683500	0,5	0,162500
16,691833	0,5	0,164950
16,700167	0,5	0,175600
16,708500	0,5	0,191150
16,716833	0,5	0,201600
16,725167	0,5	0,202200
16,733500	0,5	0,223750
16,741833	0,5	0,232350
16,750167	0,5	0,233000
16,758500	0,5	0,225950
16,766833	0,5	0,214700
16,775167	0,5	0,217000
16,783500	0,5	0,213950
16,791833	0,5	0,216350
16,800167	0,5	0,211400
16,808500	0,5	0,209650
16,816833	0,5	0,201750
16,825167	0,5	0,204200
16,833500	0,5	0,203450
16,841833	0,5	0,214850
16,850167	0,5	0,228200
16,858500	0,5	0,252850
16,866833	0,5	0,281100
16,875167	0,5	0,322600
16,883500	0,5	0,372600
16,891833	0,5	0,422450
16,900167	0,5	0,456950
16,908500	0,5	0,476650
16,916833	0,5	0,481100
16,925167	0,5	0,474400
16,933500	0,5	0,461250
16,941833	0,5	0,442400
16,950167	0,5	0,415650
16,958500	0,5	0,387750
16,966833	0,5	0,364150
16,975167	0,5	0,332950
16,983500	0,5	0,299750
16,991833	0,5	0,253000
17,000167	0,5	0,218650
17,008500	0,5	0,178050
17,016833	0,5	0,128850
17,025167	0,5	0,105550
17,033500	0,5	0,096500
17,041833	0,5	0,079900
17,050167	0,5	0,069300
17,058500	0,5	0,047500
17,066833	0,5	0,044950
17,075167	0,5	0,041300
17,083500	0,5	0,036850
17,091833	0,5	0,030500
17,100167	0,5	0,017850
17,108500	0,5	0,015250
17,116833	0,5	-0,000900
17,125167	0,5	-0,003700
17,133500	0,5	-0,013250
17,141833	0,5	-0,022650
17,150167	0,5	-0,027450
17,158500	0,5	-0,029250
17,166833	0,5	-0,049300
17,175167	0,5	-0,038950
17,183500	0,5	-0,045600
17,191833	0,5	-0,052550
17,200167	0,5	-0,061050
17,208500	0,5	-0,073850
17,216833	0,5	-0,068000
17,225167	0,5	-0,063650
17,233500	0,5	-0,057750
17,241833	0,5	-0,050650
17,250167	0,5	-0,044000
17,258500	0,5	-0,035900
17,266833	0,5	-0,031300
17,275167	0,5	-0,028950
17,283500	0,5	-0,021100
17,291833	0,5	-0,017150
17,300167	0,5	-0,001400
17,308500	0,5	0,008100
17,316833	0,5	0,015750
17,325167	0,5	0,035800
17,333500	0,5	0,046600
17,341833	0,5	0,035350
17,350167	0,5	0,014100
17,358500	0,5	-0,022650
17,366833	0,5	-0,047750
17,375167	0,5	-0,080900
17,383500	0,5	-0,113100
17,391833	0,5	-0,141550
17,400167	0,5	-0,160800
17,408500	0,5	-0,179700
17,416833	0,5	-0,194000
17,425167	0,5	-0,204650
17,433500	0,5	-0,213350
17,441833	0,5	-0,214400
17,450167	0,5	-0,218650
17,458500	0,5	-0,232550
17,466833	0,5	-0,237750
17,475167	0,5	-0,239200
17,483500	0,5	-0,245350
17,491833	0,5	-0,258550
17,500167	0,5	-0,279150
17,508500	0,5	-0,281900
17,516833	0,5	-0,291150
17,525167	0,5	-0,290450
17,533500	0,5	-0,292500
17,541833	0,5	-0,299450
17,550167	0,5	-0,304550
17,558500	0,5	-0,310700
17,566833	0,5	-0,314600
17,575167	0,5	-0,318600
17,583500	0,5	-0,324950
17,591833	0,5	-0,331750
17,600167	0,5	-0,336900
17,608500	0,5	-0,348750
17,616833	0,5	-0,348450
17,625167	0,5	-0,351950
17,633500	0,5	-0,358300
17,641833	0,5	-0,371500
17,650167	0,5	-0,384850
17,658500	0,5	-0,390350
17,666833	0,5	-0,386650
17,675167	0,5	-0,392500
17,683500	0,5	-0,393250
17,691833	0,5	-0,399050
17,700167	0,5	-0,396200
17,708500	0,5	-0,399500
17,716833	0,5	-0,403900
17,725167	0,5	-0,408100
17,733500	0,5	-0,406350
17,741833	0,5	-0,402650
17,750167	0,5	-0,409750
17,758500	0,5	-0,414900
17,766833	0,5	-0,411500
17,775167	0,5	-0,417350
17,783500	0,5	-0,422000
17,791833	0,5	-0,436000
17,800167	0,5	-0,446600
17,808500	0,5	-0,437600
17,816833	0,5	-0,443200
17,825167	0,5	-0,432950
17,833500	0,5	-0,428550
17,841833	0,5	-0,418850
17,850167	0,5	-0,418800
17,858500	0,5	-0,409250
17,866833	0,5	-0,416500
17,875167	0,5	-0,422250
17,883500	0,5	-0,429050
17,891833	0,5	-0,434900
17,900167	0,5	-0,459550
17,908500	0,5	-0,469900
17,916833	0,5	-0,483950
17,925167	0,5	-0,503550
17,933500	0,5	-0,518500
17,941833	0,5	-0,537750
17,950167	0,5	-0,548200
17,958500	0,5	-0,552100
17,966833	0,5	-0,557600
17,975167	0,5	-0,566550
17,983500	0,5	-0,563950
17,991833	0,5	-0,571550
18,000167	0,5	-0,571000
18,008500	0,5	-0,571650
18,016833	0,5	-0,575450
18,025167	0,5	-0,582850
18,033500	0,5	-0,574950
18,041833	0,5	-0,584700
18,050167	0,5	-0,590900
18,058500	0,5	-0,581850
18,066833	0,5	-0,585400
18,075167	0,5	-0,596100
18,083500	0,5	-0,607650
18,091833	0,5	-0,622500
18,100167	0,5	-0,628850
18,108500	0,5	-0,632650
18,116833	0,5	-0,643900
18,125167	0,5	-0,643000
18,133500	0,5	-0,643700
18,141833	0,5	-0,641650
18,150167	0,5	-0,651100
18,158500	0,5	-0,648100
18,166833	0,5	-0,658700
18,175167	0,5	-0,659950
18,183500	0,5	-0,658850
18,191833	0,5	-0,667900
18,200167	0,5	-0,670600
18,208500	0,5	-0,663950
18,216833	0,5	-0,669550
18,225167	0,5	-0,674750
18,233500	0,5	-0,693450
18,241833	0,5	-0,694400
18,250167	0,5	-0,691100
18,258500	0,5	-0,696700
18,266833	0,5	-0,698450
18,275167	0,5	-0,705350
18,283500	0,5	-0,703250
18,291833	0,5	-0,705900
18,300167	0,5	-0,702450
18,308500	0,5	-0,708900
18,316833	0,5	-0,707750
18,325167	0,5	-0,711100
18,333500	0,5	-0,700250
18,341833	0,5	-0,715100
18,350167	0,5	-0,703750
18,358500	0,5	-0,703350
18,366833	0,5	-0,703800
18,375167	0,5	-0,708900
18,383500	0,5	-0,725850
18,391833	0,5	-0,723200
18,400167	0,5	-0,721400
18,408500	0,5	-0,729600
18,416833	0,5	-0,729500
18,425167	0,5	-0,729250
18,433500	0,5	-0,729050
18,441833	0,5	-0,725950
18,450167	0,5	-0,728250
18,458500	0,5	-0,725700
18,466833	0,5	-0,729250
18,475167	0,5	-0,716550
18,483500	0,5	-0,718800
18,491833	0,5	-0,726750
18,500167	0,5	-0,713700
18,508500	0,5	-0,715550
18,516833	0,5	-0,721250
18,525167	0,5	-0,727800
18,533500	0,5	-0,744600
18,541833	0,5	-0,731650
18,550167	0,5	-0,732650
18,558500	0,5	-0,729100
18,566833	0,5	-0,726150
18,575167	0,5	-0,721600
18,583500	0,5	-0,721950
18,591833	0,5	-0,713950
18,600167	0,5	-0,711250
18,608500	0,5	-0,712100
18,616833	0,5	-0,705050
18,625167	0,5	-0,699150
18,633500	0,5	-0,702150
18,641833	0,5	-0,707050
18,650167	0,5	-0,700000
18,658500	0,5	-0,705500
18,666833	0,5	-0,711550
18,675167	0,5	-0,724650
18,683500	0,5	-0,736150
18,691833	0,5	-0,734550
18,700167	0,5	-0,727200
18,708500	0,5	-0,732100
18,716833	0,5	-0,726150
18,725167	0,5	-0,731350
18,733500	0,5	-0,729600
18,741833	0,5	-0,732050
18,750167	0,5	-0,735800
18,758500	0,5	-0,739050
18,766833	0,5	-0,742950
18,775167	0,5	-0,744750
18,783500	0,5	-0,757000
18,791833	0,5	-0,750800
18,800167	0,5	-0,750250
18,808500	0,5	-0,761100
18,816833	0,5	-0,773900
18,825167	0,5	-0,783450
18,833500	0,5	-0,791900
18,841833	0,5	-0,787800
18,850167	0,5	-0,790900
18,858500	0,5	-0,787550
18,866833	0,5	-0,791050
18,875167	0,5	-0,790200
18,883500	0,5	-0,789800
18,891833	0,5	-0,787600
18,900167	0,5	-0,785250
18,908500	0,5	-0,791950
18,916833	0,5	-0,780350
18,925167	0,5	-0,784150
18,933500	0,5	-0,787050
18,941833	0,5	-0,782500
18,950167	0,5	-0,783550
18,958500	0,5	-0,790900
18,966833	0,5	-0,801600
18,975167	0,5	-0,816100
18,983500	0,5	-0,808700
18,991833	0,5	-0,816600
19,000167	0,5	-0,816850
19,008500	0,5	-0,825650
19,016833	0,5	-0,822500
19,025167	0,5	-0,823250
19,033500	0,5	-0,821450
19,041833	0,5	-0,824150
19,050167	0,5	-0,827000
19,058500	0,5	-0,825550
19,066833	0,5	-0,818700
19,075167	0,5	-0,840700
19,083500	0,5	-0,835800
19,091833	0,5	-0,834800
19,100167	0,5	-0,840850
19,108500	0,5	-0,849250
19,116833	0,5	-0,872300
19,125167	0,5	-0,869250
19,133500	0,5	-0,871250
19,141833	0,5	-0,868400
19,150167	0,5	-0,879650
19,158500	0,5	-0,876250
19,166833	0,5	-0,886450
19,175167	0,5	-0,887800
19,183500	0,5	-0,893850
19,191833	0,5	-0,900350
19,200167	0,5	-0,905950
19,208500	0,5	-0,912450
19,216833	0,5	-0,916400
19,225167	0,5	-0,928750
19,233500	0,5	-0,924550
19,241833	0,5	-0,926450
19,250167	0,5	-0,929500
19,258500	0,5	-0,933600
19,266833	0,5	-0,942300
19,275167	0,5	-0,939950
19,283500	0,5	-0,922700
19,291833	0,5	-0,927850
19,300167	0,5	-0,927250
19,308500	0,5	-0,946000
19,316833	0,5	-0,951350
19,325167	0,5	-0,962850
19,333500	0,5	-0,970300
19,341833	0,5	-0,971100
19,350167	0,5	-0,975000
19,358500	0,5	-0,968500
19,366833	0,5	-0,971350
19,375167	0,5	-0,984200
19,383500	0,5	-0,972050
19,391833	0,5	-0,970600
19,400167	0,5	-0,970850
19,408500	0,5	-0,972200
19,416833	0,5	-0,965950
19,425167	0,5	-0,935000
19,433500	0,5	-0,922850
19,441833	0,5	-0,912000
19,450167	0,5	-0,922250
19,458500	0,5	-0,931850
19,466833	0,5	-0,957050
19,475167	0,5	-0,977950
19,483500	0,5	-1,000350
19,491833	0,5	-1,012150
19,500167	0,5	-1,015700
19,508500	0,5	-1,013000
19,516833	0,5	-1,028150
19,525167	0,5	-1,026000
19,533500	0,5	-1,027300
19,541833	0,5	-1,031000
19,550167	0,5	-1,041800
19,558500	0,5	-1,054450
19,566833	0,5	-1,058000
19,575167	0,5	-1,052750
19,583500	0,5	-1,046350
19,591833	0,5	-1,047050
19,600167	0,5	-1,043000
19,608500	0,5	-1,049150
19,616833	0,5	-1,044400
19,625167	0,5	-1,046400
19,633500	0,5	-1,048750
19,641833	0,5	-1,050600
19,650167	0,5	-1,034650
19,658500	0,5	-1,033600
19,666833	0,5	-1,031550
19,675167	0,5	-1,009250
19,683500	0,5	-0,990000
19,691833	0,5	-0,971100
19,700167	0,5	-0,962450
19,708500	0,5	-0,966100
19,716833	0,5	-0,962800
19,725167	0,5	-0,964050
19,733500	0,5	-0,975450
19,741833	0,5	-0,988050
19,750167	0,5	-0,996750
19,758500	0,5	-1,001650
19,766833	0,5	-1,003850
19,775167	0,5	-0,997000
19,783500	0,5	-0,996750
19,791833	0,5	-0,994800
19,800167	0,5	-0,997050
19,808500	0,5	-1,018250
19,816833	0,5	-1,040300
19,825167	0,5	-1,041600
19,833500	0,5	-1,062900
19,841833	0,5	-1,078700
19,850167	0,5	-1,107900
19,858500	0,5	-1,118500
19,866833	0,5	-1,120750
19,875167	0,5	-1,120850
19,883500	0,5	-1,121700
19,891833	0,5	-1,121550
19,900167	0,5	-1,122900
19,908500	0,5	-1,122700
19,916833	0,5	-1,116750
19,925167	0,5	-1,118000
19,933500	0,5	-1,110550
19,941833	0,5	-1,094950
19,950167	0,5	-1,087150
19,958500	0,5	-1,092050
19,966833	0,5	-1,078850
19,975167	0,5	-1,068950
19,983500	0,5	-1,065550
19,991833	0,5	-1,070450
20,000167	0,5	-1,084900
20,008500	0,5	-1,088950
20,016833	0,5	-1,093550
20,025167	0,5	-1,107350
20,033500	0,5	-1,124450
20,041833	0,5	-1,132950
20,050167	0,5	-1,141300
20,058500	0,5	-1,146700
20,066833	0,5	-1,148800
20,075167	0,5	-1,151150
20,083500	0,5	-1,154450
20,091833	0,5	-1,140600
20,100167	0,5	-1,154200
20,108500	0,5	-1,156500
20,116833	0,5	-1,147850
20,125167	0,5	-1,142600
20,133500	0,5	-1,145950
20,141833	0,5	-1,146400
20,150167	0,5	-1,149850
20,158500	0,5	-1,137350
20,166833	0,5	-1,135550
20,175167	0,5	-1,121600
20,183500	0,5	-1,116000
20,191833	0,5	-1,104750
20,200167	0,5	-1,101300
20,208500	0,5	-1,093600
20,216833	0,5	-1,079450
20,225167	0,5	-1,074950
20,233500	0,5	-1,058800
20,241833	0,5	-1,042750
20,250167	0,5	-1,037550
20,258500	0,5	-1,023300
20,266833	0,5	-1,008300
20,275167	0,5	-1,011850
20,283500	0,5	-1,031250
20,291833	0,5	-1,068500
20,300167	0,5	-1,090550
20,308500	0,5	-1,103900
20,316833	0,5	-1,115300
20,325167	0,5	-1,124800
20,333500	0,5	-1,131550
20,341833	0,5	-1,136250
20,350167	0,5	-1,140200
20,358500	0,5	-1,141450
20,366833	0,5	-1,142950
20,375167	0,5	-1,137150
20,383500	0,5	-1,126750
20,391833	0,5	-1,118450
20,400167	0,5	-1,133850
20,408500	0,5	-1,118300
20,416833	0,5	-1,114350
20,425167	0,5	-1,111050
20,433500	0,5	-1,115050
20,441833	0,5	-1,131200
20,450167	0,5	-1,133000
20,458500	0,5	-1,135950
20,466833	0,5	-1,150100
20,475167	0,5	-1,155600
20,483500	0,5	-1,158500
20,491833	0,5	-1,160950
20,500167	0,5	-1,161850
20,508500	0,5	-1,160350
20,516833	0,5	-1,161400
20,525167	0,5	-1,155500
20,533500	0,5	-1,139700
20,541833	0,5	-1,131050
20,550167	0,5	-1,132550
20,558500	0,5	-1,119250
20,566833	0,5	-1,117550
20,575167	0,5	-1,119550
20,583500	0,5	-1,123700
20,591833	0,5	-1,131200
20,600167	0,5	-1,123900
20,608500	0,5	-1,110700
20,616833	0,5	-1,088950
20,625167	0,5	-1,075600
20,633500	0,5	-1,056250
20,641833	0,5	-1,046700
20,650167	0,5	-1,043650
20,658500	0,5	-1,047500
20,666833	0,5	-1,056700
20,675167	0,5	-1,045950
20,683500	0,5	-1,041100
20,691833	0,5	-1,044450
20,700167	0,5	-1,048350
20,708500	0,5	-1,040750
20,716833	0,5	-1,044850
20,725167	0,5	-1,053200
20,733500	0,5	-1,061550
20,741833	0,5	-1,063450
20,750167	0,5	-1,069850
20,758500	0,5	-1,072350
20,766833	0,5	-1,081450
20,775167	0,5	-1,081450
20,783500	0,5	-1,089300
20,791833	0,5	-1,088750
20,800167	0,5	-1,091250
20,808500	0,5	-1,087150
20,816833	0,5	-1,077900
20,825167	0,5	-1,058050
20,833500	0,5	-1,047750
20,841833	0,5	-1,052500
20,850167	0,5	-1,050850
20,858500	0,5	-1,052150
20,866833	0,5	-1,054700
20,875167	0,5	-1,075550
20,883500	0,5	-1,077550
20,891833	0,5	-1,081950
20,900167	0,5	-1,074250
20,908500	0,5	-1,067050
20,916833	0,5	-1,063650
20,925167	0,5	-1,059900
20,933500	0,5	-1,055850
20,941833	0,5	-1,053900
20,950167	0,5	-1,048950
20,958500	0,5	-1,046850
20,966833	0,5	-1,028950
20,975167	0,5	-1,014600
20,983500	0,5	-1,013400
20,991833	0,5	-1,021800
21,000167	0,5	-1,032850
21,008500	0,5	-1,037600
21,016833	0,5	-1,048050
21,025167	0,5	-1,055550
21,033500	0,5	-1,052150
21,041833	0,5	-1,044800
21,050167	0,5	-1,044900
21,058500	0,5	-1,038400
21,066833	0,5	-1,033650
21,075167	0,5	-1,023050
21,083500	0,5	-1,019750
21,091833	0,5	-1,007200
21,100167	0,5	-1,010000
21,108500	0,5	-1,007750
21,116833	0,5	-0,982550
21,125167	0,5	-0,965600
21,133500	0,5	-0,976850
21,141833	0,5	-0,977650
21,150167	0,5	-0,975650
21,158500	0,5	-0,990500
21,166833	0,5	-0,993650
21,175167	0,5	-1,013000
21,183500	0,5	-0,994500
21,191833	0,5	-0,995200
21,200167	0,5	-0,994000
21,208500	0,5	-0,991650
21,216833	0,5	-0,976950
21,225167	0,5	-0,969350
21,233500	0,5	-0,960350
21,241833	0,5	-0,957350
21,250167	0,5	-0,954950
21,258500	0,5	-0,934050
21,266833	0,5	-0,918050
21,275167	0,5	-0,906100
21,283500	0,5	-0,906800
21,291833	0,5	-0,905850
21,300167	0,5	-0,912500
21,308500	0,5	-0,913500
21,316833	0,5	-0,927100
21,325167	0,5	-0,915750
21,333500	0,5	-0,909050
21,341833	0,5	-0,898450
21,350167	0,5	-0,888650
21,358500	0,5	-0,879050
21,366833	0,5	-0,872450
21,375167	0,5	-0,855100
21,383500	0,5	-0,841150
21,391833	0,5	-0,824150
21,400167	0,5	-0,814050
21,408500	0,5	-0,774500
21,416833	0,5	-0,745450
21,425167	0,5	-0,730350
21,433500	0,5	-0,709950
21,441833	0,5	-0,695200
21,450167	0,5	-0,678800
21,458500	0,5	-0,674700
21,466833	0,5	-0,672950
21,475167	0,5	-0,669700
21,483500	0,5	-0,667200
21,491833	0,5	-0,674550
21,500167	0,5	-0,679600
21,508500	0,5	-0,678900
21,516833	0,5	-0,669450
21,525167	0,5	-0,667950
21,533500	0,5	-0,661550
21,541833	0,5	-0,658050
21,550167	0,5	-0,648100
21,558500	0,5	-0,625450
21,566833	0,5	-0,606800
21,575167	0,5	-0,609650
21,583500	0,5	-0,600400
21,591833	0,5	-0,599900
21,600167	0,5	-0,609200
21,608500	0,5	-0,604250
21,616833	0,5	-0,601400
21,625167	0,5	-0,585250
21,633500	0,5	-0,575950
21,641833	0,5	-0,553400
21,650167	0,5	-0,541900
21,658500	0,5	-0,523800
21,666833	0,5	-0,508550
21,675167	0,5	-0,488450
21,683500	0,5	-0,476400
21,691833	0,5	-0,461650
21,700167	0,5	-0,425650
21,708500	0,5	-0,399050
21,716833	0,5	-0,386350
21,725167	0,5	-0,376500
21,733500	0,5	-0,364550
21,741833	0,5	-0,360050
21,750167	0,5	-0,352400
21,758500	0,5	-0,346650
21,766833	0,5	-0,325200
21,775167	0,5	-0,314450
21,783500	0,5	-0,292250
21,791833	0,5	-0,285600
21,800167	0,5	-0,269350
21,808500	0,5	-0,249850
21,816833	0,5	-0,227150
21,825167	0,5	-0,204600
21,833500	0,5	-0,182200
21,841833	0,5	-0,156800
21,850167	0,5	-0,118650
21,858500	0,5	-0,100350
21,866833	0,5	-0,084750
21,875167	0,5	-0,066300
21,883500	0,5	-0,050350
21,891833	0,5	-0,036400
21,900167	0,5	-0,037800
21,908500	0,5	-0,005450
21,916833	0,5	0,018000
21,925167	0,5	0,050650
21,933500	0,5	0,081000
21,941833	0,5	0,112200
21,950167	0,5	0,136300
21,958500	0,5	0,167450
21,966833	0,5	0,192300
21,975167	0,5	0,224850
21,983500	0,5	0,255550
21,991833	0,5	0,292700
22,000167	0,5	0,336100
22,008500	0,5	0,354650
22,016833	0,5	0,389600
22,025167	0,5	0,415800
22,033500	0,5	0,434900
22,041833	0,5	0,447750
22,050167	0,5	0,459450
22,058500	0,5	0,482550
22,066833	0,5	0,510250
22,075167	0,5	0,526700
22,083500	0,5	0,550550
22,091833	0,5	0,567300
22,100167	0,5	0,598150
22,108500	0,5	0,621350
22,116833	0,5	0,655050
22,125167	0,5	0,687250
22,133500	0,5	0,716100
22,141833	0,5	0,760850
22,150167	0,5	0,786650
22,158500	0,5	0,824850
22,166833	0,5	0,861750
22,175167	0,5	0,903550
22,183500	0,5	0,932400
22,191833	0,5	0,953050
22,200167	0,5	0,993500
22,208500	0,5	1,047100
22,216833	0,5	1,084300
22,225167	0,5	1,133100
22,233500	0,5	1,174600
22,241833	0,5	1,216700
22,250167	0,5	1,253700
22,258500	0,5	1,303900
22,266833	0,5	1,347100
22,275167	0,5	1,391400
22,283500	0,5	1,436800
22,291833	0,5	1,489800
22,300167	0,5	1,535650
22,308500	0,5	1,612500
22,316833	0,5	1,671300
22,325167	0,5	1,721700
22,333500	0,5	1,770500
22,341833	0,5	1,796650
22,350167	0,5	1,853450
22,358500	0,5	1,896250
22,366833	0,5	1,947450
22,375167	0,5	1,988000
22,383500	0,5	2,038250
22,391833	0,5	2,081600
22,400167	0,5	2,138750
22,408500	0,5	2,184200
22,416833	0,5	2,238650
22,425167	0,5	2,285050
22,433500	0,5	2,311450
22,441833	0,5	2,371650
22,450167	0,5	2,435250
22,458500	0,5	2,504550
22,466833	0,5	2,561750
22,475167	0,5	2,619550
22,483500	0,5	2,669600
22,491833	0,5	2,721300
22,500167	0,5	2,788950
22,508500	0,5	2,858500
22,516833	0,5	2,912600
22,525167	0,5	2,975500
22,533500	0,5	3,033500
22,541833	0,5	3,096550
22,550167	0,5	3,154200
22,558500	0,5	3,212200
22,566833	0,5	3,268750
22,575167	0,5	3,297350
22,583500	0,5	3,346100
22,591833	0,5	3,405200
22,600167	0,5	3,472400
22,608500	0,5	3,524200
22,616833	0,5	3,560400
22,625167	0,5	3,586700
22,633500	0,5	3,608550
22,641833	0,5	3,629750
22,650167	0,5	3,668850
22,658500	0,5	3,688050
22,666833	0,5	3,715500
22,675167	0,5	3,728550
22,683500	0,5	3,729650
22,691833	0,5	3,722750
22,700167	0,5	3,717200
22,708500	0,5	3,696900
22,716833	0,5	3,670100
22,725167	0,5	3,584950
22,733500	0,5	3,558400
22,741833	0,5	3,527550
22,750167	0,5	3,474950
22,758500	0,5	3,393550
22,766833	0,5	3,306650
22,775167	0,5	3,203050
22,783500	0,5	3,095400
22,791833	0,5	2,993650
22,800167	0,5	2,888400
22,808500	0,5	2,780150
22,816833	0,5	2,662400
22,825167	0,5	2,548550
22,833500	0,5	2,426450
22,841833	0,5	2,300350
22,850167	0,5	2,170850
22,858500	0,5	2,038500
22,866833	0,5	1,895400
22,875167	0,5	1,709450
22,883500	0,5	1,582350
22,891833	0,5	1,452850
22,900167	0,5	1,292750
22,908500	0,5	1,140650
22,916833	0,5	0,985400
22,925167	0,5	0,839600
22,933500	0,5	0,688200
22,941833	0,5	0,544200
22,950167	0,5	0,400950
22,958500	0,5	0,274950
22,966833	0,5	0,138300
22,975167	0,5	0,020550
22,983500	0,5	-0,113950
22,991833	0,5	-0,229650
23,000167	0,5	-0,350200
23,008500	0,5	-0,468200
23,016833	0,5	-0,556200
23,025167	0,5	-0,673950
23,033500	0,5	-0,787600
23,041833	0,5	-0,927450
23,050167	0,5	-1,030000
23,058500	0,5	-1,124950
23,066833	0,5	-1,198100
23,075167	0,5	-1,282750
23,083500	0,5	-1,364050
23,091833	0,5	-1,437300
23,100167	0,5	-1,493400
23,108500	0,5	-1,554150
23,116833	0,5	-1,603800
23,125167	0,5	-1,653900
23,133500	0,5	-1,697500
23,141833	0,5	-1,746050
23,150167	0,5	-1,788700
23,158500	0,5	-1,814150
23,166833	0,5	-1,859850
23,175167	0,5	-1,884050
23,183500	0,5	-1,938050
23,191833	0,5	-2,000750
23,200167	0,5	-2,038900
23,208500	0,5	-2,055200
23,216833	0,5	-2,072450
23,225167	0,5	-2,086500
23,233500	0,5	-2,106500
23,241833	0,5	-2,107450
23,250167	0,5	-2,114000
23,258500	0,5	-2,105000
23,266833	0,5	-2,104000
23,275167	0,5	-2,091600
23,283500	0,5	-2,094400
23,291833	0,5	-2,082250
23,300167	0,5	-2,078450
23,308500	0,5	-2,063050
23,316833	0,5	-2,066700
23,325167	0,5	-2,048000
23,333500	0,5	-2,056950
23,341833	0,5	-2,076250
23,350167	0,5	-2,079700
23,358500	0,5	-2,063750
23,366833	0,5	-2,045850
23,375167	0,5	-2,040300
23,383500	0,5	-2,029350
23,391833	0,5	-2,013150
23,400167	0,5	-1,988850
23,408500	0,5	-1,965750
23,416833	0,5	-1,936200
23,425167	0,5	-1,911950
23,433500	0,5	-1,884100
23,441833	0,5	-1,857800
23,450167	0,5	-1,826850
23,458500	0,5	-1,863300
23,466833	0,5	-1,808000
23,475167	0,5	-1,752500
23,483500	0,5	-1,737950
23,491833	0,5	-1,732950
23,500167	0,5	-1,724550
23,508500	0,5	-1,708450
23,516833	0,5	-1,686300
23,525167	0,5	-1,668900
23,533500	0,5	-1,656400
23,541833	0,5	-1,634400
23,550167	0,5	-1,611800
23,558500	0,5	-1,586700
23,566833	0,5	-1,565800
23,575167	0,5	-1,540350
23,583500	0,5	-1,520400
23,591833	0,5	-1,492800
23,600167	0,5	-1,484850
23,608500	0,5	-1,536250
23,616833	0,5	-1,467700
23,625167	0,5	-1,413200
23,633500	0,5	-1,376550
23,641833	0,5	-1,365500
23,650167	0,5	-1,350400
23,658500	0,5	-1,332900
23,666833	0,5	-1,311500
23,675167	0,5	-1,294200
23,683500	0,5	-1,276600
23,691833	0,5	-1,255050
23,700167	0,5	-1,235850
23,708500	0,5	-1,216450
23,716833	0,5	-1,200850
23,725167	0,5	-1,178450
23,733500	0,5	-1,165650
23,741833	0,5	-1,146450
23,750167	0,5	-1,226950
23,758500	0,5	-1,217150
23,766833	0,5	-1,177550
23,775167	0,5	-1,109150
23,783500	0,5	-1,077850
23,791833	0,5	-1,064800
23,800167	0,5	-1,049850
23,808500	0,5	-1,036600
23,816833	0,5	-1,020350
23,825167	0,5	-1,000000
23,833500	0,5	-0,979700
23,841833	0,5	-0,956350
23,850167	0,5	-0,937050
23,858500	0,5	-0,917950
23,866833	0,5	-0,896700
23,875167	0,5	-0,875250
23,883500	0,5	-0,855450
23,891833	0,5	-0,847300
23,900167	0,5	-0,949100
23,908500	0,5	-0,920750
23,916833	0,5	-0,865200
23,925167	0,5	-0,815500
23,933500	0,5	-0,782650
23,941833	0,5	-0,772200
23,950167	0,5	-0,766050
23,958500	0,5	-0,767250
23,966833	0,5	-0,744650
23,975167	0,5	-0,733500
23,983500	0,5	-0,712850
23,991833	0,5	-0,699000
24,000167	0,5	-0,676150
24,008500	0,5	-0,660900
24,016833	0,5	-0,640400
24,025167	0,5	-0,622450
24,033500	0,5	-0,603750
24,041833	0,5	-0,651450
24,050167	0,5	-0,703950
24,058500	0,5	-0,661600
24,066833	0,5	-0,599650
24,075167	0,5	-0,554050
24,083500	0,5	-0,526850
24,091833	0,5	-0,514250
24,100167	0,5	-0,511850
24,108500	0,5	-0,496700
24,116833	0,5	-0,482550
24,125167	0,5	-0,459850
24,133500	0,5	-0,449400
24,141833	0,5	-0,429550
24,150167	0,5	-0,429600
24,158500	0,5	-0,407550
24,166833	0,5	-0,392200
24,175167	0,5	-0,377850
24,183500	0,5	-0,366650
24,191833	0,5	-0,460950
24,200167	0,5	-0,437500
24,208500	0,5	-0,418050
24,216833	0,5	-0,364050
24,225167	0,5	-0,328950
24,233500	0,5	-0,309200
24,241833	0,5	-0,299150
24,250167	0,5	-0,310750
24,258500	0,5	-0,290450
24,266833	0,5	-0,260900
24,275167	0,5	-0,252500
24,283500	0,5	-0,233100
24,291833	0,5	-0,220200
24,300167	0,5	-0,199800
24,308500	0,5	-0,185300
24,316833	0,5	-0,167200
24,325167	0,5	-0,157950
24,333500	0,5	-0,156450
24,341833	0,5	-0,238600
24,350167	0,5	-0,204100
24,358500	0,5	-0,186800
24,366833	0,5	-0,139650
24,375167	0,5	-0,126350
24,383500	0,5	-0,110550
24,391833	0,5	-0,109650
24,400167	0,5	-0,119200
24,408500	0,5	-0,100750
24,416833	0,5	-0,090900
24,425167	0,5	-0,076950
24,433500	0,5	-0,066450
24,441833	0,5	-0,054450
24,450167	0,5	-0,051650
24,458500	0,5	-0,030850
24,466833	0,5	-0,019250
24,475167	0,5	-0,007150
24,483500	0,5	-0,041700
24,491833	0,5	-0,059150
24,500167	0,5	-0,033150
24,508500	0,5	-0,005800
24,516833	0,5	0,022300
24,525167	0,5	0,035950
24,533500	0,5	0,044550
24,541833	0,5	0,040400
24,550167	0,5	0,037850
24,558500	0,5	0,048250
24,566833	0,5	0,057000
24,575167	0,5	0,064400
24,583500	0,5	0,072250
24,591833	0,5	0,079950
24,600167	0,5	0,089000
24,608500	0,5	0,094750
24,616833	0,5	0,105650
24,625167	0,5	0,107800
24,633500	0,5	0,068900
24,641833	0,5	0,070250
24,650167	0,5	0,088950
24,658500	0,5	0,110900
24,666833	0,5	0,134400
24,675167	0,5	0,141950
24,683500	0,5	0,148400
24,691833	0,5	0,142650
24,700167	0,5	0,143850
24,708500	0,5	0,155000
24,716833	0,5	0,164500
24,725167	0,5	0,168950
24,733500	0,5	0,176350
24,741833	0,5	0,179850
24,750167	0,5	0,187700
24,758500	0,5	0,197600
24,766833	0,5	0,196050
24,775167	0,5	0,200250
24,783500	0,5	0,165400
24,791833	0,5	0,182900
24,800167	0,5	0,191850
24,808500	0,5	0,206050
24,816833	0,5	0,216000
24,825167	0,5	0,219000
24,833500	0,5	0,219150
24,841833	0,5	0,211150
24,850167	0,5	0,217900
24,858500	0,5	0,225850
24,866833	0,5	0,229950
24,875167	0,5	0,234600
24,883500	0,5	0,239950
24,891833	0,5	0,245950
24,900167	0,5	0,252300
24,908500	0,5	0,255900
24,916833	0,5	0,262450
24,925167	0,5	0,250700
24,933500	0,5	0,243950
24,941833	0,5	0,245800
24,950167	0,5	0,258800
24,958500	0,5	0,267400
24,966833	0,5	0,273250
24,975167	0,5	0,270400
24,983500	0,5	0,269050
24,991833	0,5	0,265150
25,000167	0,5	0,269050
25,008500	0,5	0,270100
25,016833	0,5	0,274500
25,025167	0,5	0,272150
25,033500	0,5	0,277950
25,041833	0,5	0,276550
25,050167	0,5	0,283750
25,058500	0,5	0,287400
25,066833	0,5	0,286450
25,075167	0,5	0,277350
25,083500	0,5	0,284100
25,091833	0,5	0,287750
25,100167	0,5	0,294250
25,108500	0,5	0,301600
25,116833	0,5	0,302850
25,125167	0,5	0,304500
25,133500	0,5	0,297250
25,141833	0,5	0,299800
25,150167	0,5	0,298850
25,158500	0,5	0,301400
25,166833	0,5	0,298750
25,175167	0,5	0,300850
25,183500	0,5	0,300450
25,191833	0,5	0,299550
25,200167	0,5	0,302500
25,208500	0,5	0,303500
25,216833	0,5	0,301250
25,225167	0,5	0,297400
25,233500	0,5	0,300250
25,241833	0,5	0,301450
25,250167	0,5	0,307650
25,258500	0,5	0,305950
25,266833	0,5	0,309850
25,275167	0,5	0,308100
25,283500	0,5	0,307400
25,291833	0,5	0,308550
25,300167	0,5	0,309000
25,308500	0,5	0,310450
25,316833	0,5	0,310000
25,325167	0,5	0,310100
25,333500	0,5	0,308300
25,341833	0,5	0,307000
25,350167	0,5	0,307900
25,358500	0,5	0,307150
25,366833	0,5	0,303100
25,375167	0,5	0,307400
25,383500	0,5	0,301850
25,391833	0,5	0,303950
25,400167	0,5	0,300050
25,408500	0,5	0,301350
25,416833	0,5	0,302700
25,425167	0,5	0,301800
25,433500	0,5	0,298800
25,441833	0,5	0,300000
25,450167	0,5	0,300500
25,458500	0,5	0,299150
25,466833	0,5	0,299750
25,475167	0,5	0,299950
25,483500	0,5	0,297950
25,491833	0,5	0,298400
25,500167	0,5	0,298000
25,508500	0,5	0,297300
25,516833	0,5	0,297000
25,525167	0,5	0,297600
25,533500	0,5	0,299350
25,541833	0,5	0,294900
25,550167	0,5	0,292600
25,558500	0,5	0,293100
25,566833	0,5	0,290150
25,575167	0,5	0,287900
25,583500	0,5	0,287750
25,591833	0,5	0,289800
25,600167	0,5	0,285450
25,608500	0,5	0,289850
25,616833	0,5	0,286350
25,625167	0,5	0,285250
25,633500	0,5	0,284850
25,641833	0,5	0,286850
25,650167	0,5	0,284000
25,658500	0,5	0,285000
25,666833	0,5	0,286900
25,675167	0,5	0,289350
25,683500	0,5	0,287900
25,691833	0,5	0,281200
25,700167	0,5	0,279400
25,708500	0,5	0,278300
25,716833	0,5	0,279500
25,725167	0,5	0,278750
25,733500	0,5	0,279050
25,741833	0,5	0,275850
25,750167	0,5	0,275750
25,758500	0,5	0,273300
25,766833	0,5	0,269900
25,775167	0,5	0,269700
25,783500	0,5	0,267550
25,791833	0,5	0,269900
25,800167	0,5	0,266650
25,808500	0,5	0,267600
25,816833	0,5	0,270550
25,825167	0,5	0,273300
25,833500	0,5	0,272050
25,841833	0,5	0,263600
25,850167	0,5	0,261450
25,858500	0,5	0,261600
25,866833	0,5	0,259650
25,875167	0,5	0,263050
25,883500	0,5	0,261550
25,891833	0,5	0,259050
25,900167	0,5	0,259450
25,908500	0,5	0,258550
25,916833	0,5	0,257150
25,925167	0,5	0,257550
25,933500	0,5	0,255700
25,941833	0,5	0,254400
25,950167	0,5	0,248600
25,958500	0,5	0,257600
25,966833	0,5	0,251550
25,975167	0,5	0,262800
25,983500	0,5	0,249900
25,991833	0,5	0,249400
26,000167	0,5	0,246000
