File Path	chrom://chromeleon01/ikbm_chromeleon/2022/ICS-5000/ED1/Esteban/20220612_Cell_7_4_eg.seq/247.smp/ED_1.channel/ED_1.chm
Channel	ED_1

Injection Information:
Data Vault	ikbm_chromeleon
Injection	4_24h-EGS_NA
Injection Number	31
Position	RD1
Comment	
Processing Method	Stop sequence after Cell Death
Instrument Method	ICS5000_PA200_FullNative_Ox_26min_ED1
Type	Unknown
Status	Finished
Injection Date	13.06.2022
Injection Time	06:20:02
Injection Volume (µl)	5,0
Dilution Factor	1,0000
Weight	1,0000

Chromatogram Data Information:
Time Min. (min)	0,000167
Time Max. (min)	26,000167
Data Points	3121
Detector	EDet1
Generating Data System	Chromeleon 7.2.9.11323
Exporting Data System	Chromeleon 7.2.9.0
Operator	Instrument Controller
Signal Quantity	
Signal Unit	nC
Signal Min.	-1,791100
Signal Max.	3 014,468245
Channel	ED_1
Driver Name	DC-5000
Channel Type	Evaluation
Min. Step (s)	0,5
Max. Step (s)	0,5
Average Step (s)	0,5

Signal Parameter Information:
Signal Info	

Chromatogram Data:
Time (min)	Step (s)	Value (nC)
0,000167	n.a.	-0,027100
0,008500	0,5	-0,021700
0,016833	0,5	-0,019950
0,025167	0,5	-0,011800
0,033500	0,5	-0,000700
0,041833	0,5	0,006700
0,050167	0,5	0,002550
0,058500	0,5	0,002750
0,066833	0,5	0,000650
0,075167	0,5	-0,001150
0,083500	0,5	0,002700
0,091833	0,5	0,002500
0,100167	0,5	0,019450
0,108500	0,5	0,004800
0,116833	0,5	0,028450
0,125167	0,5	0,005700
0,133500	0,5	0,006750
0,141833	0,5	-0,000650
0,150167	0,5	0,004700
0,158500	0,5	0,025000
0,166833	0,5	0,023300
0,175167	0,5	0,012200
0,183500	0,5	0,022700
0,191833	0,5	0,019150
0,200167	0,5	0,023150
0,208500	0,5	0,013900
0,216833	0,5	0,012400
0,225167	0,5	0,013700
0,233500	0,5	0,019250
0,241833	0,5	0,021950
0,250167	0,5	0,015150
0,258500	0,5	0,011000
0,266833	0,5	0,022850
0,275167	0,5	0,001050
0,283500	0,5	0,001600
0,291833	0,5	0,021450
0,300167	0,5	0,056050
0,308500	0,5	0,060550
0,316833	0,5	0,034800
0,325167	0,5	0,019700
0,333500	0,5	0,005750
0,341833	0,5	0,008000
0,350167	0,5	0,005300
0,358500	0,5	0,010150
0,366833	0,5	0,004500
0,375167	0,5	0,007250
0,383500	0,5	0,006350
0,391833	0,5	0,004200
0,400167	0,5	-0,002350
0,408500	0,5	0,012850
0,416833	0,5	0,011500
0,425167	0,5	-0,001550
0,433500	0,5	-0,000900
0,441833	0,5	0,004450
0,450167	0,5	0,023050
0,458500	0,5	0,026700
0,466833	0,5	0,023000
0,475167	0,5	0,019400
0,483500	0,5	0,021700
0,491833	0,5	0,017200
0,500167	0,5	0,016450
0,508500	0,5	0,008800
0,516833	0,5	0,017850
0,525167	0,5	0,010800
0,533500	0,5	0,017450
0,541833	0,5	0,010050
0,550167	0,5	0,016750
0,558500	0,5	0,021750
0,566833	0,5	0,012350
0,575167	0,5	0,003700
0,583500	0,5	0,005250
0,591833	0,5	0,013300
0,600167	0,5	0,028550
0,608500	0,5	0,036650
0,616833	0,5	0,039800
0,625167	0,5	0,034450
0,633500	0,5	0,031600
0,641833	0,5	0,029700
0,650167	0,5	0,025650
0,658500	0,5	0,028550
0,666833	0,5	0,021100
0,675167	0,5	0,030850
0,683500	0,5	0,027950
0,691833	0,5	0,030250
0,700167	0,5	0,029750
0,708500	0,5	0,041300
0,716833	0,5	0,022950
0,725167	0,5	0,024500
0,733500	0,5	0,021850
0,741833	0,5	0,037900
0,750167	0,5	0,043300
0,758500	0,5	0,047300
0,766833	0,5	0,039450
0,775167	0,5	0,043200
0,783500	0,5	0,041300
0,791833	0,5	0,046900
0,800167	0,5	0,043600
0,808500	0,5	0,048500
0,816833	0,5	0,048900
0,825167	0,5	0,042700
0,833500	0,5	0,052400
0,841833	0,5	0,041100
0,850167	0,5	0,060150
0,858500	0,5	0,052100
0,866833	0,5	0,040050
0,875167	0,5	0,039250
0,883500	0,5	0,045750
0,891833	0,5	0,056000
0,900167	0,5	0,068250
0,908500	0,5	0,059950
0,916833	0,5	0,066250
0,925167	0,5	0,062150
0,933500	0,5	0,068850
0,941833	0,5	0,062400
0,950167	0,5	0,064250
0,958500	0,5	0,063250
0,966833	0,5	0,065350
0,975167	0,5	0,066250
0,983500	0,5	0,062750
0,991833	0,5	0,057650
1,000167	0,5	0,084800
1,008500	0,5	0,062750
1,016833	0,5	0,060300
1,025167	0,5	0,064550
1,033500	0,5	0,065000
1,041833	0,5	0,092650
1,050167	0,5	0,085100
1,058500	0,5	0,086500
1,066833	0,5	0,080600
1,075167	0,5	0,084800
1,083500	0,5	0,088000
1,091833	0,5	0,090850
1,100167	0,5	0,086500
1,108500	0,5	0,085150
1,116833	0,5	0,082050
1,125167	0,5	0,087000
1,133500	0,5	0,090400
1,141833	0,5	0,084950
1,150167	0,5	0,101150
1,158500	0,5	0,081900
1,166833	0,5	0,081000
1,175167	0,5	0,082350
1,183500	0,5	0,087700
1,191833	0,5	0,108750
1,200167	0,5	0,105500
1,208500	0,5	0,094250
1,216833	0,5	0,101450
1,225167	0,5	0,097400
1,233500	0,5	0,098950
1,241833	0,5	0,094250
1,250167	0,5	0,095700
1,258500	0,5	0,088950
1,266833	0,5	0,089600
1,275167	0,5	0,091750
1,283500	0,5	0,091350
1,291833	0,5	0,087350
1,300167	0,5	0,096850
1,308500	0,5	0,074100
1,316833	0,5	0,075200
1,325167	0,5	0,078650
1,333500	0,5	0,089950
1,341833	0,5	0,105800
1,350167	0,5	0,092200
1,358500	0,5	0,091950
1,366833	0,5	0,087550
1,375167	0,5	0,090900
1,383500	0,5	0,086200
1,391833	0,5	0,084550
1,400167	0,5	0,073850
1,408500	0,5	0,074600
1,416833	0,5	0,069000
1,425167	0,5	0,063900
1,433500	0,5	0,052150
1,441833	0,5	0,060250
1,450167	0,5	0,051150
1,458500	0,5	0,041700
1,466833	0,5	0,043850
1,475167	0,5	0,050450
1,483500	0,5	0,060050
1,491833	0,5	0,061400
1,500167	0,5	0,051350
1,508500	0,5	0,046550
1,516833	0,5	0,041350
1,525167	0,5	0,037250
1,533500	0,5	0,033300
1,541833	0,5	0,027900
1,550167	0,5	0,033700
1,558500	0,5	0,065750
1,566833	0,5	0,259700
1,575167	0,5	1,321900
1,583500	0,5	8,291550
1,591833	0,5	43,279851
1,600167	0,5	179,711103
1,608500	0,5	620,028559
1,616833	0,5	1 554,553423
1,625167	0,5	2 787,243792
1,633500	0,5	3 014,468245
1,641833	0,5	2 943,431144
1,650167	0,5	2 925,039994
1,658500	0,5	2 910,236743
1,666833	0,5	2 668,383390
1,675167	0,5	2 050,788331
1,683500	0,5	1 373,131020
1,691833	0,5	917,266814
1,700167	0,5	652,108310
1,708500	0,5	487,541957
1,716833	0,5	379,672656
1,725167	0,5	302,861655
1,733500	0,5	247,569904
1,741833	0,5	206,537003
1,750167	0,5	175,273653
1,758500	0,5	151,020602
1,766833	0,5	131,984252
1,775167	0,5	117,020702
1,783500	0,5	105,204602
1,791833	0,5	95,814001
1,800167	0,5	88,203201
1,808500	0,5	81,869201
1,816833	0,5	76,304801
1,825167	0,5	71,236151
1,833500	0,5	66,488151
1,841833	0,5	62,063751
1,850167	0,5	57,990401
1,858500	0,5	54,251351
1,866833	0,5	50,805051
1,875167	0,5	47,606401
1,883500	0,5	44,726951
1,891833	0,5	42,124951
1,900167	0,5	39,847051
1,908500	0,5	37,977751
1,916833	0,5	36,587951
1,925167	0,5	35,585151
1,933500	0,5	34,449401
1,941833	0,5	32,674650
1,950167	0,5	30,405900
1,958500	0,5	28,118150
1,966833	0,5	26,192750
1,975167	0,5	24,680450
1,983500	0,5	23,530750
1,991833	0,5	22,648250
2,000167	0,5	21,971200
2,008500	0,5	21,419850
2,016833	0,5	20,916050
2,025167	0,5	20,433000
2,033500	0,5	19,982550
2,041833	0,5	19,463600
2,050167	0,5	18,925750
2,058500	0,5	18,400650
2,066833	0,5	17,934500
2,075167	0,5	17,558300
2,083500	0,5	17,189600
2,091833	0,5	16,852600
2,100167	0,5	16,540250
2,108500	0,5	16,266300
2,116833	0,5	15,978900
2,125167	0,5	15,675750
2,133500	0,5	15,348350
2,141833	0,5	15,037400
2,150167	0,5	14,754650
2,158500	0,5	14,539650
2,166833	0,5	14,380350
2,175167	0,5	14,301400
2,183500	0,5	14,290950
2,191833	0,5	14,352850
2,200167	0,5	14,704950
2,208500	0,5	15,734500
2,216833	0,5	16,672750
2,225167	0,5	16,082550
2,233500	0,5	14,760950
2,241833	0,5	13,956700
2,250167	0,5	13,603650
2,258500	0,5	13,448550
2,266833	0,5	13,382600
2,275167	0,5	13,359150
2,283500	0,5	13,356100
2,291833	0,5	13,360550
2,300167	0,5	13,370850
2,308500	0,5	13,374700
2,316833	0,5	13,401450
2,325167	0,5	13,444700
2,333500	0,5	13,517350
2,341833	0,5	13,588900
2,350167	0,5	13,749000
2,358500	0,5	14,044600
2,366833	0,5	14,606500
2,375167	0,5	15,524550
2,383500	0,5	16,834200
2,391833	0,5	18,550250
2,400167	0,5	20,808900
2,408500	0,5	24,087450
2,416833	0,5	28,965400
2,425167	0,5	34,973051
2,433500	0,5	39,802551
2,441833	0,5	40,890901
2,450167	0,5	37,845901
2,458500	0,5	32,650150
2,466833	0,5	27,535600
2,475167	0,5	23,589850
2,483500	0,5	20,818150
2,491833	0,5	18,941150
2,500167	0,5	17,668750
2,508500	0,5	16,791350
2,516833	0,5	16,176450
2,525167	0,5	15,724400
2,533500	0,5	15,351650
2,541833	0,5	15,038150
2,550167	0,5	14,730650
2,558500	0,5	14,439000
2,566833	0,5	14,149000
2,575167	0,5	13,885250
2,583500	0,5	13,664650
2,591833	0,5	13,500600
2,600167	0,5	13,411850
2,608500	0,5	13,421550
2,616833	0,5	13,653400
2,625167	0,5	14,175100
2,633500	0,5	14,927850
2,641833	0,5	15,666350
2,650167	0,5	16,023550
2,658500	0,5	15,769350
2,666833	0,5	15,028350
2,675167	0,5	14,082150
2,683500	0,5	13,229650
2,691833	0,5	12,579800
2,700167	0,5	12,136800
2,708500	0,5	11,830300
2,716833	0,5	11,617400
2,725167	0,5	11,446100
2,733500	0,5	11,310550
2,741833	0,5	11,182600
2,750167	0,5	11,047300
2,758500	0,5	10,900850
2,766833	0,5	10,762100
2,775167	0,5	10,598250
2,783500	0,5	10,417050
2,791833	0,5	10,235550
2,800167	0,5	10,054900
2,808500	0,5	9,897150
2,816833	0,5	9,729950
2,825167	0,5	9,562950
2,833500	0,5	9,402200
2,841833	0,5	9,254850
2,850167	0,5	9,110400
2,858500	0,5	8,975050
2,866833	0,5	8,837500
2,875167	0,5	8,709250
2,883500	0,5	8,572950
2,891833	0,5	8,446400
2,900167	0,5	8,327250
2,908500	0,5	8,193350
2,916833	0,5	8,075850
2,925167	0,5	7,942400
2,933500	0,5	7,807250
2,941833	0,5	7,678750
2,950167	0,5	7,560900
2,958500	0,5	7,452900
2,966833	0,5	7,347050
2,975167	0,5	7,239250
2,983500	0,5	7,150250
2,991833	0,5	7,063150
3,000167	0,5	6,985300
3,008500	0,5	6,889750
3,016833	0,5	6,800650
3,025167	0,5	6,695800
3,033500	0,5	6,591150
3,041833	0,5	6,479650
3,050167	0,5	6,375800
3,058500	0,5	6,266850
3,066833	0,5	6,189500
3,075167	0,5	6,082950
3,083500	0,5	6,003750
3,091833	0,5	5,917800
3,100167	0,5	5,842550
3,108500	0,5	5,771900
3,116833	0,5	5,681850
3,125167	0,5	5,592900
3,133500	0,5	5,512750
3,141833	0,5	5,433050
3,150167	0,5	5,356750
3,158500	0,5	5,279500
3,166833	0,5	5,201150
3,175167	0,5	5,140400
3,183500	0,5	5,072650
3,191833	0,5	5,015700
3,200167	0,5	4,946550
3,208500	0,5	4,888050
3,216833	0,5	4,839150
3,225167	0,5	4,772900
3,233500	0,5	4,719500
3,241833	0,5	4,665200
3,250167	0,5	4,609700
3,258500	0,5	4,569950
3,266833	0,5	4,513600
3,275167	0,5	4,460750
3,283500	0,5	4,407650
3,291833	0,5	4,366800
3,300167	0,5	4,325100
3,308500	0,5	4,284750
3,316833	0,5	4,252700
3,325167	0,5	4,222050
3,333500	0,5	4,209850
3,341833	0,5	4,202650
3,350167	0,5	4,205300
3,358500	0,5	4,224950
3,366833	0,5	4,257250
3,375167	0,5	4,293400
3,383500	0,5	4,365500
3,391833	0,5	4,467350
3,400167	0,5	4,631900
3,408500	0,5	4,854750
3,416833	0,5	5,144600
3,425167	0,5	5,495600
3,433500	0,5	5,875800
3,441833	0,5	6,212850
3,450167	0,5	6,447050
3,458500	0,5	6,516800
3,466833	0,5	6,415350
3,475167	0,5	6,167350
3,483500	0,5	5,829750
3,491833	0,5	5,464900
3,500167	0,5	5,120550
3,508500	0,5	4,838400
3,516833	0,5	4,597400
3,525167	0,5	4,393800
3,533500	0,5	4,227500
3,541833	0,5	4,088950
3,550167	0,5	3,969250
3,558500	0,5	3,867950
3,566833	0,5	3,771450
3,575167	0,5	3,704350
3,583500	0,5	3,653950
3,591833	0,5	3,624400
3,600167	0,5	3,602600
3,608500	0,5	3,592500
3,616833	0,5	3,581200
3,625167	0,5	3,578050
3,633500	0,5	3,574600
3,641833	0,5	3,557950
3,650167	0,5	3,548400
3,658500	0,5	3,542200
3,666833	0,5	3,522100
3,675167	0,5	3,504650
3,683500	0,5	3,490200
3,691833	0,5	3,470650
3,700167	0,5	3,461950
3,708500	0,5	3,439100
3,716833	0,5	3,415000
3,725167	0,5	3,382450
3,733500	0,5	3,356250
3,741833	0,5	3,314950
3,750167	0,5	3,280300
3,758500	0,5	3,238100
3,766833	0,5	3,201900
3,775167	0,5	3,166850
3,783500	0,5	3,131450
3,791833	0,5	3,084800
3,800167	0,5	3,064350
3,808500	0,5	3,033300
3,816833	0,5	3,003750
3,825167	0,5	2,979650
3,833500	0,5	2,958600
3,841833	0,5	2,954750
3,850167	0,5	2,939000
3,858500	0,5	2,922700
3,866833	0,5	2,906600
3,875167	0,5	2,888950
3,883500	0,5	2,865750
3,891833	0,5	2,849200
3,900167	0,5	2,822550
3,908500	0,5	2,806100
3,916833	0,5	2,783850
3,925167	0,5	2,770050
3,933500	0,5	2,750950
3,941833	0,5	2,734700
3,950167	0,5	2,730450
3,958500	0,5	2,714400
3,966833	0,5	2,695900
3,975167	0,5	2,683950
3,983500	0,5	2,671450
3,991833	0,5	2,669500
4,000167	0,5	2,653500
4,008500	0,5	2,639350
4,016833	0,5	2,624700
4,025167	0,5	2,614700
4,033500	0,5	2,605100
4,041833	0,5	2,595850
4,050167	0,5	2,587500
4,058500	0,5	2,578550
4,066833	0,5	2,579500
4,075167	0,5	2,571700
4,083500	0,5	2,562800
4,091833	0,5	2,551450
4,100167	0,5	2,555650
4,108500	0,5	2,542200
4,116833	0,5	2,538900
4,125167	0,5	2,538050
4,133500	0,5	2,551000
4,141833	0,5	2,573800
4,150167	0,5	2,587450
4,158500	0,5	2,610000
4,166833	0,5	2,649500
4,175167	0,5	2,687750
4,183500	0,5	2,728750
4,191833	0,5	2,754600
4,200167	0,5	2,770150
4,208500	0,5	2,773800
4,216833	0,5	2,757400
4,225167	0,5	2,728550
4,233500	0,5	2,675350
4,241833	0,5	2,626550
4,250167	0,5	2,590150
4,258500	0,5	2,539550
4,266833	0,5	2,505600
4,275167	0,5	2,479850
4,283500	0,5	2,464500
4,291833	0,5	2,461550
4,300167	0,5	2,450700
4,308500	0,5	2,448200
4,316833	0,5	2,442000
4,325167	0,5	2,436250
4,333500	0,5	2,425650
4,341833	0,5	2,420750
4,350167	0,5	2,409450
4,358500	0,5	2,395850
4,366833	0,5	2,384750
4,375167	0,5	2,364800
4,383500	0,5	2,350350
4,391833	0,5	2,342300
4,400167	0,5	2,329800
4,408500	0,5	2,309950
4,416833	0,5	2,298400
4,425167	0,5	2,289650
4,433500	0,5	2,294550
4,441833	0,5	2,292900
4,450167	0,5	2,293100
4,458500	0,5	2,288150
4,466833	0,5	2,292550
4,475167	0,5	2,282750
4,483500	0,5	2,287350
4,491833	0,5	2,282700
4,500167	0,5	2,283800
4,508500	0,5	2,283250
4,516833	0,5	2,281000
4,525167	0,5	2,273600
4,533500	0,5	2,268550
4,541833	0,5	2,270100
4,550167	0,5	2,257450
4,558500	0,5	2,246250
4,566833	0,5	2,241400
4,575167	0,5	2,235750
4,583500	0,5	2,229550
4,591833	0,5	2,230950
4,600167	0,5	2,212850
4,608500	0,5	2,202250
4,616833	0,5	2,184100
4,625167	0,5	2,180050
4,633500	0,5	2,159800
4,641833	0,5	2,153100
4,650167	0,5	2,139600
4,658500	0,5	2,134400
4,666833	0,5	2,128900
4,675167	0,5	2,118800
4,683500	0,5	2,114400
4,691833	0,5	2,119000
4,700167	0,5	2,104650
4,708500	0,5	2,097650
4,716833	0,5	2,093500
4,725167	0,5	2,094800
4,733500	0,5	2,096500
4,741833	0,5	2,091000
4,750167	0,5	2,090650
4,758500	0,5	2,092750
4,766833	0,5	2,097650
4,775167	0,5	2,103250
4,783500	0,5	2,119400
4,791833	0,5	2,140700
4,800167	0,5	2,179500
4,808500	0,5	2,224650
4,816833	0,5	2,279000
4,825167	0,5	2,325450
4,833500	0,5	2,396000
4,841833	0,5	2,441450
4,850167	0,5	2,476950
4,858500	0,5	2,491350
4,866833	0,5	2,489100
4,875167	0,5	2,471050
4,883500	0,5	2,435500
4,891833	0,5	2,371150
4,900167	0,5	2,306550
4,908500	0,5	2,239800
4,916833	0,5	2,182300
4,925167	0,5	2,129200
4,933500	0,5	2,084450
4,941833	0,5	2,049750
4,950167	0,5	2,025050
4,958500	0,5	2,012850
4,966833	0,5	2,001500
4,975167	0,5	1,988450
4,983500	0,5	1,989550
4,991833	0,5	1,978750
5,000167	0,5	1,967450
5,008500	0,5	1,959850
5,016833	0,5	1,954400
5,025167	0,5	1,955700
5,033500	0,5	1,944550
5,041833	0,5	1,932950
5,050167	0,5	1,924350
5,058500	0,5	1,921200
5,066833	0,5	1,909450
5,075167	0,5	1,898500
5,083500	0,5	1,892750
5,091833	0,5	1,884450
5,100167	0,5	1,879200
5,108500	0,5	1,874400
5,116833	0,5	1,868700
5,125167	0,5	1,860450
5,133500	0,5	1,863750
5,141833	0,5	1,851150
5,150167	0,5	1,845850
5,158500	0,5	1,841000
5,166833	0,5	1,845200
5,175167	0,5	1,844950
5,183500	0,5	1,844100
5,191833	0,5	1,836450
5,200167	0,5	1,836550
5,208500	0,5	1,830800
5,216833	0,5	1,829150
5,225167	0,5	1,823950
5,233500	0,5	1,822400
5,241833	0,5	1,817350
5,250167	0,5	1,819000
5,258500	0,5	1,821800
5,266833	0,5	1,811000
5,275167	0,5	1,809900
5,283500	0,5	1,814700
5,291833	0,5	1,807050
5,300167	0,5	1,806300
5,308500	0,5	1,810150
5,316833	0,5	1,817900
5,325167	0,5	1,834300
5,333500	0,5	1,834900
5,341833	0,5	1,841350
5,350167	0,5	1,840600
5,358500	0,5	1,844850
5,366833	0,5	1,837300
5,375167	0,5	1,830700
5,383500	0,5	1,818250
5,391833	0,5	1,811550
5,400167	0,5	1,804950
5,408500	0,5	1,792000
5,416833	0,5	1,786850
5,425167	0,5	1,789100
5,433500	0,5	1,792150
5,441833	0,5	1,784200
5,450167	0,5	1,784050
5,458500	0,5	1,784250
5,466833	0,5	1,791350
5,475167	0,5	1,788550
5,483500	0,5	1,781400
5,491833	0,5	1,773300
5,500167	0,5	1,759850
5,508500	0,5	1,744200
5,516833	0,5	1,731000
5,525167	0,5	1,716600
5,533500	0,5	1,708250
5,541833	0,5	1,693750
5,550167	0,5	1,687450
5,558500	0,5	1,671150
5,566833	0,5	1,663200
5,575167	0,5	1,656500
5,583500	0,5	1,646300
5,591833	0,5	1,629850
5,600167	0,5	1,624050
5,608500	0,5	1,619300
5,616833	0,5	1,621000
5,625167	0,5	1,616900
5,633500	0,5	1,606050
5,641833	0,5	1,600050
5,650167	0,5	1,598500
5,658500	0,5	1,595950
5,666833	0,5	1,592250
5,675167	0,5	1,585600
5,683500	0,5	1,578600
5,691833	0,5	1,572550
5,700167	0,5	1,568400
5,708500	0,5	1,559100
5,716833	0,5	1,552650
5,725167	0,5	1,553500
5,733500	0,5	1,542000
5,741833	0,5	1,536700
5,750167	0,5	1,531900
5,758500	0,5	1,537100
5,766833	0,5	1,538950
5,775167	0,5	1,537400
5,783500	0,5	1,533700
5,791833	0,5	1,528600
5,800167	0,5	1,526800
5,808500	0,5	1,519150
5,816833	0,5	1,511750
5,825167	0,5	1,506400
5,833500	0,5	1,505950
5,841833	0,5	1,498900
5,850167	0,5	1,492050
5,858500	0,5	1,484900
5,866833	0,5	1,486500
5,875167	0,5	1,482200
5,883500	0,5	1,473700
5,891833	0,5	1,466200
5,900167	0,5	1,462200
5,908500	0,5	1,457650
5,916833	0,5	1,453850
5,925167	0,5	1,443200
5,933500	0,5	1,435700
5,941833	0,5	1,426450
5,950167	0,5	1,421400
5,958500	0,5	1,417700
5,966833	0,5	1,416800
5,975167	0,5	1,407700
5,983500	0,5	1,405950
5,991833	0,5	1,404100
6,000167	0,5	1,397700
6,008500	0,5	1,390150
6,016833	0,5	1,391500
6,025167	0,5	1,386650
6,033500	0,5	1,383700
6,041833	0,5	1,376500
6,050167	0,5	1,372400
6,058500	0,5	1,378850
6,066833	0,5	1,375650
6,075167	0,5	1,370600
6,083500	0,5	1,367250
6,091833	0,5	1,370200
6,100167	0,5	1,364550
6,108500	0,5	1,361750
6,116833	0,5	1,363900
6,125167	0,5	1,359100
6,133500	0,5	1,357900
6,141833	0,5	1,355100
6,150167	0,5	1,354400
6,158500	0,5	1,352250
6,166833	0,5	1,357700
6,175167	0,5	1,349600
6,183500	0,5	1,348600
6,191833	0,5	1,351900
6,200167	0,5	1,358850
6,208500	0,5	1,374750
6,216833	0,5	1,387600
6,225167	0,5	1,400850
6,233500	0,5	1,430150
6,241833	0,5	1,457750
6,250167	0,5	1,497300
6,258500	0,5	1,536800
6,266833	0,5	1,575850
6,275167	0,5	1,606750
6,283500	0,5	1,625250
6,291833	0,5	1,633800
6,300167	0,5	1,618300
6,308500	0,5	1,590250
6,316833	0,5	1,553550
6,325167	0,5	1,509650
6,333500	0,5	1,468050
6,341833	0,5	1,436100
6,350167	0,5	1,414800
6,358500	0,5	1,411750
6,366833	0,5	1,405050
6,375167	0,5	1,404850
6,383500	0,5	1,412650
6,391833	0,5	1,419250
6,400167	0,5	1,426750
6,408500	0,5	1,432450
6,416833	0,5	1,427750
6,425167	0,5	1,424900
6,433500	0,5	1,414950
6,441833	0,5	1,406350
6,450167	0,5	1,397300
6,458500	0,5	1,393700
6,466833	0,5	1,392300
6,475167	0,5	1,387750
6,483500	0,5	1,391650
6,491833	0,5	1,406000
6,500167	0,5	1,440050
6,508500	0,5	1,480750
6,516833	0,5	1,534950
6,525167	0,5	1,603100
6,533500	0,5	1,677250
6,541833	0,5	1,759600
6,550167	0,5	1,841150
6,558500	0,5	1,905200
6,566833	0,5	1,953100
6,575167	0,5	1,965950
6,583500	0,5	1,954800
6,591833	0,5	1,907550
6,600167	0,5	1,841300
6,608500	0,5	1,770000
6,616833	0,5	1,684500
6,625167	0,5	1,599100
6,633500	0,5	1,530900
6,641833	0,5	1,477400
6,650167	0,5	1,443600
6,658500	0,5	1,415750
6,666833	0,5	1,394950
6,675167	0,5	1,377400
6,683500	0,5	1,368650
6,691833	0,5	1,358100
6,700167	0,5	1,354850
6,708500	0,5	1,353150
6,716833	0,5	1,343150
6,725167	0,5	1,343600
6,733500	0,5	1,338250
6,741833	0,5	1,338150
6,750167	0,5	1,336500
6,758500	0,5	1,339600
6,766833	0,5	1,338200
6,775167	0,5	1,338950
6,783500	0,5	1,342000
6,791833	0,5	1,348550
6,800167	0,5	1,351500
6,808500	0,5	1,352500
6,816833	0,5	1,349600
6,825167	0,5	1,347600
6,833500	0,5	1,341000
6,841833	0,5	1,335250
6,850167	0,5	1,329150
6,858500	0,5	1,323100
6,866833	0,5	1,315450
6,875167	0,5	1,310800
6,883500	0,5	1,308250
6,891833	0,5	1,298300
6,900167	0,5	1,298800
6,908500	0,5	1,296150
6,916833	0,5	1,293300
6,925167	0,5	1,291500
6,933500	0,5	1,294100
6,941833	0,5	1,301500
6,950167	0,5	1,304450
6,958500	0,5	1,306050
6,966833	0,5	1,306800
6,975167	0,5	1,308500
6,983500	0,5	1,312200
6,991833	0,5	1,310900
7,000167	0,5	1,310600
7,008500	0,5	1,306800
7,016833	0,5	1,307600
7,025167	0,5	1,309550
7,033500	0,5	1,307500
7,041833	0,5	1,298800
7,050167	0,5	1,303450
7,058500	0,5	1,299450
7,066833	0,5	1,295050
7,075167	0,5	1,289650
7,083500	0,5	1,291050
7,091833	0,5	1,295000
7,100167	0,5	1,293750
7,108500	0,5	1,297450
7,116833	0,5	1,299050
7,125167	0,5	1,306250
7,133500	0,5	1,313800
7,141833	0,5	1,320750
7,150167	0,5	1,326550
7,158500	0,5	1,332250
7,166833	0,5	1,331050
7,175167	0,5	1,331250
7,183500	0,5	1,322100
7,191833	0,5	1,319700
7,200167	0,5	1,320050
7,208500	0,5	1,314450
7,216833	0,5	1,312950
7,225167	0,5	1,318800
7,233500	0,5	1,330400
7,241833	0,5	1,345550
7,250167	0,5	1,357650
7,258500	0,5	1,363750
7,266833	0,5	1,373700
7,275167	0,5	1,385700
7,283500	0,5	1,406800
7,291833	0,5	1,433150
7,300167	0,5	1,471650
7,308500	0,5	1,517650
7,316833	0,5	1,558950
7,325167	0,5	1,595800
7,333500	0,5	1,614800
7,341833	0,5	1,612500
7,350167	0,5	1,597600
7,358500	0,5	1,555750
7,366833	0,5	1,515850
7,375167	0,5	1,472250
7,383500	0,5	1,440800
7,391833	0,5	1,415450
7,400167	0,5	1,397150
7,408500	0,5	1,383050
7,416833	0,5	1,373200
7,425167	0,5	1,369200
7,433500	0,5	1,363800
7,441833	0,5	1,361750
7,450167	0,5	1,356400
7,458500	0,5	1,352300
7,466833	0,5	1,348700
7,475167	0,5	1,345650
7,483500	0,5	1,340900
7,491833	0,5	1,341750
7,500167	0,5	1,338750
7,508500	0,5	1,335350
7,516833	0,5	1,328850
7,525167	0,5	1,326300
7,533500	0,5	1,326150
7,541833	0,5	1,323900
7,550167	0,5	1,323400
7,558500	0,5	1,322300
7,566833	0,5	1,320500
7,575167	0,5	1,321400
7,583500	0,5	1,318300
7,591833	0,5	1,316700
7,600167	0,5	1,320900
7,608500	0,5	1,321050
7,616833	0,5	1,322950
7,625167	0,5	1,321200
7,633500	0,5	1,320150
7,641833	0,5	1,326700
7,650167	0,5	1,323600
7,658500	0,5	1,320050
7,666833	0,5	1,323450
7,675167	0,5	1,326350
7,683500	0,5	1,334800
7,691833	0,5	1,337900
7,700167	0,5	1,339200
7,708500	0,5	1,343350
7,716833	0,5	1,350200
7,725167	0,5	1,358450
7,733500	0,5	1,372700
7,741833	0,5	1,386000
7,750167	0,5	1,403600
7,758500	0,5	1,417350
7,766833	0,5	1,432550
7,775167	0,5	1,441900
7,783500	0,5	1,451700
7,791833	0,5	1,454250
7,800167	0,5	1,450000
7,808500	0,5	1,441450
7,816833	0,5	1,432900
7,825167	0,5	1,430900
7,833500	0,5	1,425550
7,841833	0,5	1,421950
7,850167	0,5	1,414000
7,858500	0,5	1,412400
7,866833	0,5	1,406100
7,875167	0,5	1,409650
7,883500	0,5	1,403200
7,891833	0,5	1,405250
7,900167	0,5	1,402650
7,908500	0,5	1,409050
7,916833	0,5	1,409500
7,925167	0,5	1,412750
7,933500	0,5	1,424900
7,941833	0,5	1,436900
7,950167	0,5	1,455500
7,958500	0,5	1,480450
7,966833	0,5	1,512900
7,975167	0,5	1,557400
7,983500	0,5	1,604550
7,991833	0,5	1,640350
8,000167	0,5	1,664850
8,008500	0,5	1,670600
8,016833	0,5	1,666800
8,025167	0,5	1,646300
8,033500	0,5	1,618750
8,041833	0,5	1,593600
8,050167	0,5	1,565100
8,058500	0,5	1,542900
8,066833	0,5	1,526350
8,075167	0,5	1,518150
8,083500	0,5	1,532550
8,091833	0,5	1,565100
8,100167	0,5	1,613950
8,108500	0,5	1,671100
8,116833	0,5	1,723350
8,125167	0,5	1,746350
8,133500	0,5	1,739150
8,141833	0,5	1,692250
8,150167	0,5	1,626050
8,158500	0,5	1,561450
8,166833	0,5	1,503050
8,175167	0,5	1,460350
8,183500	0,5	1,432300
8,191833	0,5	1,409900
8,200167	0,5	1,401750
8,208500	0,5	1,394100
8,216833	0,5	1,388750
8,225167	0,5	1,387400
8,233500	0,5	1,388400
8,241833	0,5	1,392500
8,250167	0,5	1,393050
8,258500	0,5	1,404850
8,266833	0,5	1,422650
8,275167	0,5	1,448650
8,283500	0,5	1,478250
8,291833	0,5	1,506450
8,300167	0,5	1,532800
8,308500	0,5	1,555000
8,316833	0,5	1,557450
8,325167	0,5	1,559050
8,333500	0,5	1,553450
8,341833	0,5	1,555400
8,350167	0,5	1,570900
8,358500	0,5	1,614050
8,366833	0,5	1,682800
8,375167	0,5	1,787050
8,383500	0,5	1,913100
8,391833	0,5	2,034850
8,400167	0,5	2,130900
8,408500	0,5	2,181450
8,416833	0,5	2,174150
8,425167	0,5	2,116050
8,433500	0,5	2,021350
8,441833	0,5	1,902550
8,450167	0,5	1,785350
8,458500	0,5	1,680200
8,466833	0,5	1,596750
8,475167	0,5	1,532550
8,483500	0,5	1,494050
8,491833	0,5	1,467100
8,500167	0,5	1,453750
8,508500	0,5	1,448850
8,516833	0,5	1,442700
8,525167	0,5	1,441100
8,533500	0,5	1,444450
8,541833	0,5	1,444750
8,550167	0,5	1,447750
8,558500	0,5	1,459900
8,566833	0,5	1,480400
8,575167	0,5	1,507050
8,583500	0,5	1,543850
8,591833	0,5	1,588250
8,600167	0,5	1,643650
8,608500	0,5	1,708550
8,616833	0,5	1,772950
8,625167	0,5	1,826550
8,633500	0,5	1,843900
8,641833	0,5	1,820700
8,650167	0,5	1,757650
8,658500	0,5	1,676850
8,666833	0,5	1,590700
8,675167	0,5	1,525250
8,683500	0,5	1,474650
8,691833	0,5	1,440300
8,700167	0,5	1,415000
8,708500	0,5	1,403100
8,716833	0,5	1,397800
8,725167	0,5	1,388150
8,733500	0,5	1,384800
8,741833	0,5	1,377800
8,750167	0,5	1,374050
8,758500	0,5	1,370400
8,766833	0,5	1,370250
8,775167	0,5	1,367800
8,783500	0,5	1,367750
8,791833	0,5	1,372250
8,800167	0,5	1,372600
8,808500	0,5	1,374400
8,816833	0,5	1,371600
8,825167	0,5	1,376500
8,833500	0,5	1,376950
8,841833	0,5	1,380600
8,850167	0,5	1,383550
8,858500	0,5	1,390750
8,866833	0,5	1,408100
8,875167	0,5	1,424150
8,883500	0,5	1,454650
8,891833	0,5	1,500650
8,900167	0,5	1,563750
8,908500	0,5	1,646250
8,916833	0,5	1,750300
8,925167	0,5	1,860550
8,933500	0,5	1,959300
8,941833	0,5	2,027700
8,950167	0,5	2,055150
8,958500	0,5	2,039850
8,966833	0,5	1,990550
8,975167	0,5	1,921550
8,983500	0,5	1,842450
8,991833	0,5	1,777500
9,000167	0,5	1,739750
9,008500	0,5	1,735050
9,016833	0,5	1,757500
9,025167	0,5	1,776050
9,033500	0,5	1,775950
9,041833	0,5	1,752250
9,050167	0,5	1,704050
9,058500	0,5	1,657700
9,066833	0,5	1,616150
9,075167	0,5	1,588350
9,083500	0,5	1,567400
9,091833	0,5	1,551000
9,100167	0,5	1,533000
9,108500	0,5	1,513900
9,116833	0,5	1,502050
9,125167	0,5	1,497550
9,133500	0,5	1,499900
9,141833	0,5	1,513200
9,150167	0,5	1,532900
9,158500	0,5	1,561350
9,166833	0,5	1,594600
9,175167	0,5	1,622900
9,183500	0,5	1,640000
9,191833	0,5	1,637350
9,200167	0,5	1,618150
9,208500	0,5	1,581100
9,216833	0,5	1,538200
9,225167	0,5	1,491850
9,233500	0,5	1,451250
9,241833	0,5	1,423050
9,250167	0,5	1,398900
9,258500	0,5	1,380150
9,266833	0,5	1,372200
9,275167	0,5	1,363500
9,283500	0,5	1,355450
9,291833	0,5	1,348150
9,300167	0,5	1,343350
9,308500	0,5	1,341450
9,316833	0,5	1,352250
9,325167	0,5	1,364050
9,333500	0,5	1,397100
9,341833	0,5	1,443500
9,350167	0,5	1,505350
9,358500	0,5	1,562250
9,366833	0,5	1,610600
9,375167	0,5	1,641450
9,383500	0,5	1,657950
9,391833	0,5	1,672200
9,400167	0,5	1,688400
9,408500	0,5	1,703150
9,416833	0,5	1,718400
9,425167	0,5	1,715650
9,433500	0,5	1,683900
9,441833	0,5	1,638750
9,450167	0,5	1,580150
9,458500	0,5	1,521850
9,466833	0,5	1,462950
9,475167	0,5	1,414050
9,483500	0,5	1,372850
9,491833	0,5	1,340250
9,500167	0,5	1,318500
9,508500	0,5	1,303350
9,516833	0,5	1,291400
9,525167	0,5	1,287050
9,533500	0,5	1,285500
9,541833	0,5	1,289050
9,550167	0,5	1,300650
9,558500	0,5	1,309850
9,566833	0,5	1,330450
9,575167	0,5	1,342350
9,583500	0,5	1,357700
9,591833	0,5	1,373950
9,600167	0,5	1,395700
9,608500	0,5	1,417550
9,616833	0,5	1,441950
9,625167	0,5	1,462100
9,633500	0,5	1,480450
9,641833	0,5	1,487900
9,650167	0,5	1,495200
9,658500	0,5	1,489150
9,666833	0,5	1,474700
9,675167	0,5	1,441600
9,683500	0,5	1,400900
9,691833	0,5	1,350100
9,700167	0,5	1,303000
9,708500	0,5	1,268000
9,716833	0,5	1,244450
9,725167	0,5	1,230150
9,733500	0,5	1,222500
9,741833	0,5	1,227150
9,750167	0,5	1,244000
9,758500	0,5	1,285550
9,766833	0,5	1,341300
9,775167	0,5	1,412400
9,783500	0,5	1,488900
9,791833	0,5	1,549500
9,800167	0,5	1,586150
9,808500	0,5	1,582350
9,816833	0,5	1,549100
9,825167	0,5	1,495500
9,833500	0,5	1,430550
9,841833	0,5	1,367900
9,850167	0,5	1,312150
9,858500	0,5	1,266100
9,866833	0,5	1,229400
9,875167	0,5	1,204800
9,883500	0,5	1,186200
9,891833	0,5	1,182150
9,900167	0,5	1,196850
9,908500	0,5	1,218150
9,916833	0,5	1,255750
9,925167	0,5	1,287450
9,933500	0,5	1,317700
9,941833	0,5	1,336100
9,950167	0,5	1,344650
9,958500	0,5	1,345350
9,966833	0,5	1,353150
9,975167	0,5	1,356650
9,983500	0,5	1,357900
9,991833	0,5	1,347900
10,000167	0,5	1,323500
10,008500	0,5	1,289000
10,016833	0,5	1,246100
10,025167	0,5	1,207000
10,033500	0,5	1,172000
10,041833	0,5	1,148850
10,050167	0,5	1,140400
10,058500	0,5	1,160350
10,066833	0,5	1,197800
10,075167	0,5	1,260000
10,083500	0,5	1,340850
10,091833	0,5	1,424250
10,100167	0,5	1,495850
10,108500	0,5	1,539800
10,116833	0,5	1,549500
10,125167	0,5	1,523800
10,133500	0,5	1,480550
10,141833	0,5	1,423800
10,150167	0,5	1,358650
10,158500	0,5	1,304900
10,166833	0,5	1,245600
10,175167	0,5	1,200150
10,183500	0,5	1,154500
10,191833	0,5	1,128900
10,200167	0,5	1,121900
10,208500	0,5	1,129500
10,216833	0,5	1,144100
10,225167	0,5	1,167250
10,233500	0,5	1,198250
10,241833	0,5	1,226600
10,250167	0,5	1,251850
10,258500	0,5	1,268350
10,266833	0,5	1,276300
10,275167	0,5	1,276650
10,283500	0,5	1,276400
10,291833	0,5	1,282700
10,300167	0,5	1,318750
10,308500	0,5	1,387300
10,316833	0,5	1,468000
10,325167	0,5	1,552350
10,333500	0,5	1,608300
10,341833	0,5	1,620550
10,350167	0,5	1,589350
10,358500	0,5	1,523850
10,366833	0,5	1,444050
10,375167	0,5	1,372700
10,383500	0,5	1,330450
10,391833	0,5	1,318100
10,400167	0,5	1,334700
10,408500	0,5	1,363900
10,416833	0,5	1,407200
10,425167	0,5	1,473850
10,433500	0,5	1,557750
10,441833	0,5	1,677400
10,450167	0,5	1,827400
10,458500	0,5	1,998800
10,466833	0,5	2,262250
10,475167	0,5	2,662450
10,483500	0,5	3,007900
10,491833	0,5	3,219750
10,500167	0,5	3,159800
10,508500	0,5	2,860200
10,516833	0,5	2,172300
10,525167	0,5	1,406000
10,533500	0,5	0,844350
10,541833	0,5	0,538850
10,550167	0,5	0,377550
10,558500	0,5	0,287250
10,566833	0,5	0,235700
10,575167	0,5	0,200950
10,583500	0,5	0,171550
10,591833	0,5	0,145650
10,600167	0,5	0,131200
10,608500	0,5	0,117800
10,616833	0,5	0,096700
10,625167	0,5	0,077500
10,633500	0,5	0,062350
10,641833	0,5	0,046350
10,650167	0,5	0,032400
10,658500	0,5	0,021950
10,666833	0,5	0,012400
10,675167	0,5	0,000750
10,683500	0,5	-0,009900
10,691833	0,5	-0,014750
10,700167	0,5	-0,019600
10,708500	0,5	-0,025550
10,716833	0,5	-0,028300
10,725167	0,5	-0,023700
10,733500	0,5	-0,025000
10,741833	0,5	-0,023150
10,750167	0,5	-0,019700
10,758500	0,5	-0,019450
10,766833	0,5	-0,027100
10,775167	0,5	-0,041200
10,783500	0,5	-0,051700
10,791833	0,5	-0,067150
10,800167	0,5	-0,089200
10,808500	0,5	-0,109150
10,816833	0,5	-0,130200
10,825167	0,5	-0,155600
10,833500	0,5	-0,173100
10,841833	0,5	-0,191900
10,850167	0,5	-0,208350
10,858500	0,5	-0,219850
10,866833	0,5	-0,235900
10,875167	0,5	-0,243950
10,883500	0,5	-0,257650
10,891833	0,5	-0,266800
10,900167	0,5	-0,271600
10,908500	0,5	-0,276900
10,916833	0,5	-0,290650
10,925167	0,5	-0,296500
10,933500	0,5	-0,297100
10,941833	0,5	-0,302250
10,950167	0,5	-0,306600
10,958500	0,5	-0,306500
10,966833	0,5	-0,308050
10,975167	0,5	-0,308900
10,983500	0,5	-0,312050
10,991833	0,5	-0,311100
11,000167	0,5	-0,312000
11,008500	0,5	-0,317150
11,016833	0,5	-0,312900
11,025167	0,5	-0,312850
11,033500	0,5	-0,319400
11,041833	0,5	-0,313350
11,050167	0,5	-0,310250
11,058500	0,5	-0,306750
11,066833	0,5	-0,303450
11,075167	0,5	-0,306100
11,083500	0,5	-0,295750
11,091833	0,5	-0,290950
11,100167	0,5	-0,280950
11,108500	0,5	-0,276850
11,116833	0,5	-0,268000
11,125167	0,5	-0,260650
11,133500	0,5	-0,258000
11,141833	0,5	-0,253050
11,150167	0,5	-0,246250
11,158500	0,5	-0,240550
11,166833	0,5	-0,238650
11,175167	0,5	-0,232750
11,183500	0,5	-0,231100
11,191833	0,5	-0,221300
11,200167	0,5	-0,224850
11,208500	0,5	-0,216150
11,216833	0,5	-0,215200
11,225167	0,5	-0,214950
11,233500	0,5	-0,211100
11,241833	0,5	-0,203450
11,250167	0,5	-0,205850
11,258500	0,5	-0,203750
11,266833	0,5	-0,204150
11,275167	0,5	-0,202900
11,283500	0,5	-0,205050
11,291833	0,5	-0,208550
11,300167	0,5	-0,210600
11,308500	0,5	-0,214850
11,316833	0,5	-0,217300
11,325167	0,5	-0,225700
11,333500	0,5	-0,227650
11,341833	0,5	-0,231750
11,350167	0,5	-0,239550
11,358500	0,5	-0,246450
11,366833	0,5	-0,253350
11,375167	0,5	-0,260700
11,383500	0,5	-0,258000
11,391833	0,5	-0,262750
11,400167	0,5	-0,262250
11,408500	0,5	-0,262900
11,416833	0,5	-0,263700
11,425167	0,5	-0,267800
11,433500	0,5	-0,271900
11,441833	0,5	-0,270700
11,450167	0,5	-0,273600
11,458500	0,5	-0,275350
11,466833	0,5	-0,276250
11,475167	0,5	-0,282400
11,483500	0,5	-0,283650
11,491833	0,5	-0,282700
11,500167	0,5	-0,286950
11,508500	0,5	-0,291950
11,516833	0,5	-0,290900
11,525167	0,5	-0,287200
11,533500	0,5	-0,288800
11,541833	0,5	-0,280900
11,550167	0,5	-0,281900
11,558500	0,5	-0,277000
11,566833	0,5	-0,276000
11,575167	0,5	-0,271200
11,583500	0,5	-0,269700
11,591833	0,5	-0,267150
11,600167	0,5	-0,265150
11,608500	0,5	-0,258750
11,616833	0,5	-0,259350
11,625167	0,5	-0,257300
11,633500	0,5	-0,255850
11,641833	0,5	-0,253800
11,650167	0,5	-0,247750
11,658500	0,5	-0,247750
11,666833	0,5	-0,243050
11,675167	0,5	-0,239600
11,683500	0,5	-0,235650
11,691833	0,5	-0,231500
11,700167	0,5	-0,228700
11,708500	0,5	-0,226850
11,716833	0,5	-0,222500
11,725167	0,5	-0,219000
11,733500	0,5	-0,221900
11,741833	0,5	-0,221200
11,750167	0,5	-0,221100
11,758500	0,5	-0,218650
11,766833	0,5	-0,223000
11,775167	0,5	-0,223500
11,783500	0,5	-0,220000
11,791833	0,5	-0,222700
11,800167	0,5	-0,225700
11,808500	0,5	-0,229550
11,816833	0,5	-0,229350
11,825167	0,5	-0,231500
11,833500	0,5	-0,231350
11,841833	0,5	-0,233200
11,850167	0,5	-0,232900
11,858500	0,5	-0,232200
11,866833	0,5	-0,234050
11,875167	0,5	-0,232500
11,883500	0,5	-0,232150
11,891833	0,5	-0,233000
11,900167	0,5	-0,233750
11,908500	0,5	-0,229650
11,916833	0,5	-0,232200
11,925167	0,5	-0,223650
11,933500	0,5	-0,226350
11,941833	0,5	-0,222900
11,950167	0,5	-0,224150
11,958500	0,5	-0,223750
11,966833	0,5	-0,220400
11,975167	0,5	-0,213450
11,983500	0,5	-0,209400
11,991833	0,5	-0,204200
12,000167	0,5	-0,202450
12,008500	0,5	-0,199850
12,016833	0,5	-0,195200
12,025167	0,5	-0,195550
12,033500	0,5	-0,189850
12,041833	0,5	-0,185900
12,050167	0,5	-0,176050
12,058500	0,5	-0,172650
12,066833	0,5	-0,170400
12,075167	0,5	-0,154750
12,083500	0,5	-0,145050
12,091833	0,5	-0,132950
12,100167	0,5	-0,120050
12,108500	0,5	-0,109750
12,116833	0,5	-0,085550
12,125167	0,5	-0,067750
12,133500	0,5	-0,048000
12,141833	0,5	-0,033450
12,150167	0,5	-0,015950
12,158500	0,5	-0,008700
12,166833	0,5	-0,004250
12,175167	0,5	-0,000300
12,183500	0,5	-0,004500
12,191833	0,5	-0,008850
12,200167	0,5	-0,019600
12,208500	0,5	-0,030800
12,216833	0,5	-0,042850
12,225167	0,5	-0,047550
12,233500	0,5	-0,060650
12,241833	0,5	-0,067800
12,250167	0,5	-0,079350
12,258500	0,5	-0,087450
12,266833	0,5	-0,085250
12,275167	0,5	-0,084650
12,283500	0,5	-0,085350
12,291833	0,5	-0,087600
12,300167	0,5	-0,089800
12,308500	0,5	-0,084350
12,316833	0,5	-0,084400
12,325167	0,5	-0,079300
12,333500	0,5	-0,079750
12,341833	0,5	-0,072850
12,350167	0,5	-0,066450
12,358500	0,5	-0,064300
12,366833	0,5	-0,052700
12,375167	0,5	-0,043400
12,383500	0,5	-0,039550
12,391833	0,5	-0,033950
12,400167	0,5	-0,024350
12,408500	0,5	-0,022350
12,416833	0,5	-0,010750
12,425167	0,5	-0,006850
12,433500	0,5	0,001500
12,441833	0,5	0,011400
12,450167	0,5	0,017750
12,458500	0,5	0,022800
12,466833	0,5	0,031000
12,475167	0,5	0,031350
12,483500	0,5	0,036000
12,491833	0,5	0,040900
12,500167	0,5	0,042250
12,508500	0,5	0,047500
12,516833	0,5	0,060900
12,525167	0,5	0,074950
12,533500	0,5	0,090950
12,541833	0,5	0,104550
12,550167	0,5	0,121750
12,558500	0,5	0,139850
12,566833	0,5	0,151600
12,575167	0,5	0,157400
12,583500	0,5	0,154100
12,591833	0,5	0,151250
12,600167	0,5	0,144050
12,608500	0,5	0,134950
12,616833	0,5	0,131650
12,625167	0,5	0,123150
12,633500	0,5	0,116650
12,641833	0,5	0,119000
12,650167	0,5	0,112250
12,658500	0,5	0,111850
12,666833	0,5	0,122000
12,675167	0,5	0,123100
12,683500	0,5	0,125550
12,691833	0,5	0,125550
12,700167	0,5	0,131200
12,708500	0,5	0,140600
12,716833	0,5	0,151050
12,725167	0,5	0,157650
12,733500	0,5	0,166800
12,741833	0,5	0,178350
12,750167	0,5	0,181750
12,758500	0,5	0,184750
12,766833	0,5	0,186950
12,775167	0,5	0,186550
12,783500	0,5	0,188300
12,791833	0,5	0,191450
12,800167	0,5	0,199250
12,808500	0,5	0,206900
12,816833	0,5	0,222350
12,825167	0,5	0,223700
12,833500	0,5	0,224900
12,841833	0,5	0,219050
12,850167	0,5	0,217150
12,858500	0,5	0,212500
12,866833	0,5	0,205850
12,875167	0,5	0,194450
12,883500	0,5	0,191000
12,891833	0,5	0,186800
12,900167	0,5	0,182600
12,908500	0,5	0,182500
12,916833	0,5	0,179600
12,925167	0,5	0,177350
12,933500	0,5	0,175000
12,941833	0,5	0,182200
12,950167	0,5	0,173150
12,958500	0,5	0,185250
12,966833	0,5	0,184700
12,975167	0,5	0,189500
12,983500	0,5	0,186700
12,991833	0,5	0,181800
13,000167	0,5	0,191000
13,008500	0,5	0,197250
13,016833	0,5	0,201800
13,025167	0,5	0,205950
13,033500	0,5	0,218350
13,041833	0,5	0,225800
13,050167	0,5	0,230600
13,058500	0,5	0,234800
13,066833	0,5	0,233450
13,075167	0,5	0,230650
13,083500	0,5	0,225650
13,091833	0,5	0,219800
13,100167	0,5	0,208800
13,108500	0,5	0,208200
13,116833	0,5	0,207100
13,125167	0,5	0,198050
13,133500	0,5	0,193150
13,141833	0,5	0,186850
13,150167	0,5	0,191700
13,158500	0,5	0,190900
13,166833	0,5	0,192150
13,175167	0,5	0,192600
13,183500	0,5	0,196550
13,191833	0,5	0,196250
13,200167	0,5	0,199650
13,208500	0,5	0,199300
13,216833	0,5	0,196400
13,225167	0,5	0,200150
13,233500	0,5	0,201600
13,241833	0,5	0,197200
13,250167	0,5	0,192800
13,258500	0,5	0,195400
13,266833	0,5	0,189850
13,275167	0,5	0,190450
13,283500	0,5	0,185650
13,291833	0,5	0,187950
13,300167	0,5	0,192150
13,308500	0,5	0,198850
13,316833	0,5	0,197200
13,325167	0,5	0,195600
13,333500	0,5	0,197300
13,341833	0,5	0,198000
13,350167	0,5	0,200600
13,358500	0,5	0,198000
13,366833	0,5	0,202150
13,375167	0,5	0,203650
13,383500	0,5	0,200500
13,391833	0,5	0,196100
13,400167	0,5	0,199900
13,408500	0,5	0,201650
13,416833	0,5	0,201550
13,425167	0,5	0,195150
13,433500	0,5	0,197300
13,441833	0,5	0,198850
13,450167	0,5	0,206900
13,458500	0,5	0,204200
13,466833	0,5	0,210750
13,475167	0,5	0,210250
13,483500	0,5	0,212800
13,491833	0,5	0,210100
13,500167	0,5	0,205550
13,508500	0,5	0,198450
13,516833	0,5	0,195300
13,525167	0,5	0,194200
13,533500	0,5	0,194300
13,541833	0,5	0,196200
13,550167	0,5	0,210800
13,558500	0,5	0,221350
13,566833	0,5	0,229300
13,575167	0,5	0,231800
13,583500	0,5	0,230850
13,591833	0,5	0,231950
13,600167	0,5	0,222850
13,608500	0,5	0,215500
13,616833	0,5	0,205550
13,625167	0,5	0,201700
13,633500	0,5	0,203100
13,641833	0,5	0,207600
13,650167	0,5	0,206250
13,658500	0,5	0,207600
13,666833	0,5	0,206550
13,675167	0,5	0,206150
13,683500	0,5	0,189600
13,691833	0,5	0,188900
13,700167	0,5	0,187450
13,708500	0,5	0,188300
13,716833	0,5	0,197450
13,725167	0,5	0,217200
13,733500	0,5	0,253450
13,741833	0,5	0,281050
13,750167	0,5	0,297400
13,758500	0,5	0,299000
13,766833	0,5	0,285650
13,775167	0,5	0,260150
13,783500	0,5	0,233850
13,791833	0,5	0,215200
13,800167	0,5	0,203100
13,808500	0,5	0,196950
13,816833	0,5	0,205300
13,825167	0,5	0,224800
13,833500	0,5	0,229100
13,841833	0,5	0,255100
13,850167	0,5	0,266950
13,858500	0,5	0,280200
13,866833	0,5	0,295250
13,875167	0,5	0,317000
13,883500	0,5	0,365150
13,891833	0,5	0,416400
13,900167	0,5	0,455800
13,908500	0,5	0,473850
13,916833	0,5	0,458650
13,925167	0,5	0,424300
13,933500	0,5	0,374300
13,941833	0,5	0,322450
13,950167	0,5	0,272150
13,958500	0,5	0,235900
13,966833	0,5	0,224500
13,975167	0,5	0,227800
13,983500	0,5	0,234550
13,991833	0,5	0,267100
14,000167	0,5	0,293750
14,008500	0,5	0,325600
14,016833	0,5	0,355150
14,025167	0,5	0,392050
14,033500	0,5	0,437450
14,041833	0,5	0,464250
14,050167	0,5	0,463350
14,058500	0,5	0,439750
14,066833	0,5	0,394000
14,075167	0,5	0,336000
14,083500	0,5	0,280150
14,091833	0,5	0,236800
14,100167	0,5	0,208950
14,108500	0,5	0,204000
14,116833	0,5	0,215550
14,125167	0,5	0,240850
14,133500	0,5	0,280350
14,141833	0,5	0,327500
14,150167	0,5	0,364950
14,158500	0,5	0,385900
14,166833	0,5	0,391300
14,175167	0,5	0,380350
14,183500	0,5	0,361400
14,191833	0,5	0,320800
14,200167	0,5	0,281500
14,208500	0,5	0,238550
14,216833	0,5	0,197750
14,225167	0,5	0,172950
14,233500	0,5	0,163800
14,241833	0,5	0,166750
14,250167	0,5	0,180700
14,258500	0,5	0,209900
14,266833	0,5	0,233600
14,275167	0,5	0,245400
14,283500	0,5	0,259200
14,291833	0,5	0,259450
14,300167	0,5	0,241800
14,308500	0,5	0,210900
14,316833	0,5	0,167150
14,325167	0,5	0,138400
14,333500	0,5	0,119150
14,341833	0,5	0,112050
14,350167	0,5	0,110650
14,358500	0,5	0,128650
14,366833	0,5	0,146400
14,375167	0,5	0,175750
14,383500	0,5	0,196400
14,391833	0,5	0,209400
14,400167	0,5	0,211950
14,408500	0,5	0,211300
14,416833	0,5	0,184250
14,425167	0,5	0,153000
14,433500	0,5	0,133200
14,441833	0,5	0,108950
14,450167	0,5	0,087900
14,458500	0,5	0,067500
14,466833	0,5	0,062150
14,475167	0,5	0,061350
14,483500	0,5	0,072000
14,491833	0,5	0,072050
14,500167	0,5	0,077250
14,508500	0,5	0,072150
14,516833	0,5	0,066800
14,525167	0,5	0,061550
14,533500	0,5	0,054400
14,541833	0,5	0,042050
14,550167	0,5	0,039000
14,558500	0,5	0,035000
14,566833	0,5	0,025350
14,575167	0,5	0,025100
14,583500	0,5	0,033700
14,591833	0,5	0,029400
14,600167	0,5	0,029700
14,608500	0,5	0,016150
14,616833	0,5	0,013600
14,625167	0,5	0,013650
14,633500	0,5	0,012750
14,641833	0,5	0,011400
14,650167	0,5	0,003800
14,658500	0,5	0,000650
14,666833	0,5	-0,007850
14,675167	0,5	-0,011550
14,683500	0,5	-0,019350
14,691833	0,5	-0,018750
14,700167	0,5	-0,016350
14,708500	0,5	-0,010900
14,716833	0,5	-0,024550
14,725167	0,5	-0,010800
14,733500	0,5	-0,006600
14,741833	0,5	-0,006900
14,750167	0,5	-0,012850
14,758500	0,5	-0,027200
14,766833	0,5	-0,026400
14,775167	0,5	-0,029950
14,783500	0,5	-0,038250
14,791833	0,5	-0,042200
14,800167	0,5	-0,041750
14,808500	0,5	-0,042000
14,816833	0,5	-0,034250
14,825167	0,5	-0,027600
14,833500	0,5	-0,018350
14,841833	0,5	-0,017750
14,850167	0,5	-0,016000
14,858500	0,5	-0,021850
14,866833	0,5	-0,037250
14,875167	0,5	-0,036900
14,883500	0,5	-0,041850
14,891833	0,5	-0,050850
14,900167	0,5	-0,052650
14,908500	0,5	-0,063950
14,916833	0,5	-0,053800
14,925167	0,5	-0,050750
14,933500	0,5	-0,048650
14,941833	0,5	-0,053000
14,950167	0,5	-0,055350
14,958500	0,5	-0,060200
14,966833	0,5	-0,068600
14,975167	0,5	-0,067850
14,983500	0,5	-0,071850
14,991833	0,5	-0,072600
15,000167	0,5	-0,067300
15,008500	0,5	-0,067300
15,016833	0,5	-0,069700
15,025167	0,5	-0,061950
15,033500	0,5	-0,068600
15,041833	0,5	-0,071700
15,050167	0,5	-0,086650
15,058500	0,5	-0,088400
15,066833	0,5	-0,092250
15,075167	0,5	-0,093250
15,083500	0,5	-0,101550
15,091833	0,5	-0,105600
15,100167	0,5	-0,109750
15,108500	0,5	-0,121350
15,116833	0,5	-0,121500
15,125167	0,5	-0,123050
15,133500	0,5	-0,122100
15,141833	0,5	-0,129800
15,150167	0,5	-0,126950
15,158500	0,5	-0,136100
15,166833	0,5	-0,132100
15,175167	0,5	-0,127750
15,183500	0,5	-0,128250
15,191833	0,5	-0,132900
15,200167	0,5	-0,137500
15,208500	0,5	-0,150200
15,216833	0,5	-0,143300
15,225167	0,5	-0,146800
15,233500	0,5	-0,144050
15,241833	0,5	-0,146800
15,250167	0,5	-0,142550
15,258500	0,5	-0,141250
15,266833	0,5	-0,139950
15,275167	0,5	-0,144100
15,283500	0,5	-0,143300
15,291833	0,5	-0,138800
15,300167	0,5	-0,145050
15,308500	0,5	-0,151800
15,316833	0,5	-0,141900
15,325167	0,5	-0,140550
15,333500	0,5	-0,143300
15,341833	0,5	-0,141550
15,350167	0,5	-0,146100
15,358500	0,5	-0,135850
15,366833	0,5	-0,132700
15,375167	0,5	-0,123400
15,383500	0,5	-0,120850
15,391833	0,5	-0,116150
15,400167	0,5	-0,112500
15,408500	0,5	-0,106900
15,416833	0,5	-0,104400
15,425167	0,5	-0,100150
15,433500	0,5	-0,094000
15,441833	0,5	-0,090900
15,450167	0,5	-0,100650
15,458500	0,5	-0,090650
15,466833	0,5	-0,084900
15,475167	0,5	-0,084500
15,483500	0,5	-0,085850
15,491833	0,5	-0,099400
15,500167	0,5	-0,101800
15,508500	0,5	-0,096650
15,516833	0,5	-0,088400
15,525167	0,5	-0,087400
15,533500	0,5	-0,076450
15,541833	0,5	-0,071950
15,550167	0,5	-0,061050
15,558500	0,5	-0,052750
15,566833	0,5	-0,050250
15,575167	0,5	-0,045400
15,583500	0,5	-0,042350
15,591833	0,5	-0,041250
15,600167	0,5	-0,044850
15,608500	0,5	-0,029350
15,616833	0,5	-0,015800
15,625167	0,5	-0,007550
15,633500	0,5	-0,005550
15,641833	0,5	-0,016000
15,650167	0,5	-0,023450
15,658500	0,5	-0,030900
15,666833	0,5	-0,051850
15,675167	0,5	-0,067700
15,683500	0,5	-0,084450
15,691833	0,5	-0,095250
15,700167	0,5	-0,111850
15,708500	0,5	-0,118000
15,716833	0,5	-0,124150
15,725167	0,5	-0,126600
15,733500	0,5	-0,125850
15,741833	0,5	-0,127050
15,750167	0,5	-0,141550
15,758500	0,5	-0,134550
15,766833	0,5	-0,140550
15,775167	0,5	-0,143600
15,783500	0,5	-0,156200
15,791833	0,5	-0,169350
15,800167	0,5	-0,161950
15,808500	0,5	-0,167600
15,816833	0,5	-0,169100
15,825167	0,5	-0,167400
15,833500	0,5	-0,161150
15,841833	0,5	-0,164100
15,850167	0,5	-0,165300
15,858500	0,5	-0,167450
15,866833	0,5	-0,166050
15,875167	0,5	-0,169350
15,883500	0,5	-0,159900
15,891833	0,5	-0,171350
15,900167	0,5	-0,172650
15,908500	0,5	-0,168300
15,916833	0,5	-0,163400
15,925167	0,5	-0,166000
15,933500	0,5	-0,172400
15,941833	0,5	-0,172900
15,950167	0,5	-0,168800
15,958500	0,5	-0,169450
15,966833	0,5	-0,165600
15,975167	0,5	-0,162500
15,983500	0,5	-0,159100
15,991833	0,5	-0,156800
16,000167	0,5	-0,158850
16,008500	0,5	-0,157600
16,016833	0,5	-0,161300
16,025167	0,5	-0,161550
16,033500	0,5	-0,159550
16,041833	0,5	-0,171050
16,050167	0,5	-0,165000
16,058500	0,5	-0,160150
16,066833	0,5	-0,162850
16,075167	0,5	-0,167550
16,083500	0,5	-0,178700
16,091833	0,5	-0,173350
16,100167	0,5	-0,174600
16,108500	0,5	-0,168800
16,116833	0,5	-0,168550
16,125167	0,5	-0,166850
16,133500	0,5	-0,163500
16,141833	0,5	-0,161100
16,150167	0,5	-0,161700
16,158500	0,5	-0,158650
16,166833	0,5	-0,149600
16,175167	0,5	-0,148650
16,183500	0,5	-0,143500
16,191833	0,5	-0,139400
16,200167	0,5	-0,122600
16,208500	0,5	-0,116000
16,216833	0,5	-0,111500
16,225167	0,5	-0,119200
16,233500	0,5	-0,122150
16,241833	0,5	-0,123600
16,250167	0,5	-0,114050
16,258500	0,5	-0,112900
16,266833	0,5	-0,105900
16,275167	0,5	-0,100600
16,283500	0,5	-0,088650
16,291833	0,5	-0,080450
16,300167	0,5	-0,073800
16,308500	0,5	-0,071100
16,316833	0,5	-0,066950
16,325167	0,5	-0,068500
16,333500	0,5	-0,078700
16,341833	0,5	-0,079250
16,350167	0,5	-0,071700
16,358500	0,5	-0,072650
16,366833	0,5	-0,079550
16,375167	0,5	-0,083800
16,383500	0,5	-0,084350
16,391833	0,5	-0,077950
16,400167	0,5	-0,082350
16,408500	0,5	-0,073800
16,416833	0,5	-0,070500
16,425167	0,5	-0,065200
16,433500	0,5	-0,067650
16,441833	0,5	-0,059450
16,450167	0,5	-0,059150
16,458500	0,5	-0,056500
16,466833	0,5	-0,049800
16,475167	0,5	-0,046850
16,483500	0,5	-0,055000
16,491833	0,5	-0,047850
16,500167	0,5	-0,046650
16,508500	0,5	-0,051450
16,516833	0,5	-0,047850
16,525167	0,5	-0,062350
16,533500	0,5	-0,054000
16,541833	0,5	-0,054900
16,550167	0,5	-0,050500
16,558500	0,5	-0,054850
16,566833	0,5	-0,046500
16,575167	0,5	-0,050650
16,583500	0,5	-0,044600
16,591833	0,5	-0,048250
16,600167	0,5	-0,048800
16,608500	0,5	-0,045000
16,616833	0,5	-0,036900
16,625167	0,5	-0,041550
16,633500	0,5	-0,042100
16,641833	0,5	-0,036850
16,650167	0,5	-0,036350
16,658500	0,5	-0,037800
16,666833	0,5	-0,036100
16,675167	0,5	-0,039900
16,683500	0,5	-0,032300
16,691833	0,5	-0,027100
16,700167	0,5	-0,032050
16,708500	0,5	-0,025550
16,716833	0,5	-0,029600
16,725167	0,5	-0,029100
16,733500	0,5	-0,031550
16,741833	0,5	-0,031050
16,750167	0,5	-0,033450
16,758500	0,5	-0,034100
16,766833	0,5	-0,027100
16,775167	0,5	-0,030250
16,783500	0,5	-0,028450
16,791833	0,5	-0,023250
16,800167	0,5	-0,029250
16,808500	0,5	-0,034550
16,816833	0,5	-0,050600
16,825167	0,5	-0,059700
16,833500	0,5	-0,054100
16,841833	0,5	-0,057700
16,850167	0,5	-0,060800
16,858500	0,5	-0,069400
16,866833	0,5	-0,063900
16,875167	0,5	-0,069950
16,883500	0,5	-0,066300
16,891833	0,5	-0,077900
16,900167	0,5	-0,075650
16,908500	0,5	-0,078550
16,916833	0,5	-0,078100
16,925167	0,5	-0,094350
16,933500	0,5	-0,088200
16,941833	0,5	-0,086800
16,950167	0,5	-0,089850
16,958500	0,5	-0,100500
16,966833	0,5	-0,112300
16,975167	0,5	-0,114050
16,983500	0,5	-0,113500
16,991833	0,5	-0,119200
17,000167	0,5	-0,121350
17,008500	0,5	-0,121150
17,016833	0,5	-0,122500
17,025167	0,5	-0,117700
17,033500	0,5	-0,124250
17,041833	0,5	-0,129300
17,050167	0,5	-0,133300
17,058500	0,5	-0,126800
17,066833	0,5	-0,127800
17,075167	0,5	-0,138150
17,083500	0,5	-0,131800
17,091833	0,5	-0,140300
17,100167	0,5	-0,145250
17,108500	0,5	-0,153350
17,116833	0,5	-0,163800
17,125167	0,5	-0,161900
17,133500	0,5	-0,166050
17,141833	0,5	-0,166500
17,150167	0,5	-0,169250
17,158500	0,5	-0,171300
17,166833	0,5	-0,172100
17,175167	0,5	-0,174750
17,183500	0,5	-0,174700
17,191833	0,5	-0,187100
17,200167	0,5	-0,182350
17,208500	0,5	-0,175900
17,216833	0,5	-0,191450
17,225167	0,5	-0,193550
17,233500	0,5	-0,188250
17,241833	0,5	-0,198800
17,250167	0,5	-0,199550
17,258500	0,5	-0,214550
17,266833	0,5	-0,219900
17,275167	0,5	-0,220150
17,283500	0,5	-0,217500
17,291833	0,5	-0,231150
17,300167	0,5	-0,225100
17,308500	0,5	-0,225450
17,316833	0,5	-0,225050
17,325167	0,5	-0,230050
17,333500	0,5	-0,234750
17,341833	0,5	-0,234700
17,350167	0,5	-0,230400
17,358500	0,5	-0,233750
17,366833	0,5	-0,242650
17,375167	0,5	-0,239850
17,383500	0,5	-0,236900
17,391833	0,5	-0,243250
17,400167	0,5	-0,252500
17,408500	0,5	-0,262850
17,416833	0,5	-0,271250
17,425167	0,5	-0,267900
17,433500	0,5	-0,273300
17,441833	0,5	-0,273600
17,450167	0,5	-0,278350
17,458500	0,5	-0,280350
17,466833	0,5	-0,280050
17,475167	0,5	-0,279500
17,483500	0,5	-0,283000
17,491833	0,5	-0,289250
17,500167	0,5	-0,281200
17,508500	0,5	-0,290400
17,516833	0,5	-0,293050
17,525167	0,5	-0,287800
17,533500	0,5	-0,287450
17,541833	0,5	-0,297750
17,550167	0,5	-0,308000
17,558500	0,5	-0,315200
17,566833	0,5	-0,307350
17,575167	0,5	-0,313450
17,583500	0,5	-0,317400
17,591833	0,5	-0,320800
17,600167	0,5	-0,317400
17,608500	0,5	-0,325900
17,616833	0,5	-0,322900
17,625167	0,5	-0,322150
17,633500	0,5	-0,326250
17,641833	0,5	-0,325300
17,650167	0,5	-0,317500
17,658500	0,5	-0,337650
17,666833	0,5	-0,331200
17,675167	0,5	-0,326900
17,683500	0,5	-0,330150
17,691833	0,5	-0,336850
17,700167	0,5	-0,352500
17,708500	0,5	-0,342500
17,716833	0,5	-0,347050
17,725167	0,5	-0,342600
17,733500	0,5	-0,346350
17,741833	0,5	-0,345150
17,750167	0,5	-0,347600
17,758500	0,5	-0,344400
17,766833	0,5	-0,350600
17,775167	0,5	-0,351450
17,783500	0,5	-0,354800
17,791833	0,5	-0,355050
17,800167	0,5	-0,350700
17,808500	0,5	-0,365000
17,816833	0,5	-0,352300
17,825167	0,5	-0,353750
17,833500	0,5	-0,356900
17,841833	0,5	-0,366300
17,850167	0,5	-0,377750
17,858500	0,5	-0,373200
17,866833	0,5	-0,369350
17,875167	0,5	-0,374400
17,883500	0,5	-0,376400
17,891833	0,5	-0,381100
17,900167	0,5	-0,377100
17,908500	0,5	-0,379000
17,916833	0,5	-0,375650
17,925167	0,5	-0,381750
17,933500	0,5	-0,381500
17,941833	0,5	-0,377400
17,950167	0,5	-0,378700
17,958500	0,5	-0,389200
17,966833	0,5	-0,382000
17,975167	0,5	-0,385100
17,983500	0,5	-0,393800
17,991833	0,5	-0,404450
18,000167	0,5	-0,413900
18,008500	0,5	-0,410200
18,016833	0,5	-0,413350
18,025167	0,5	-0,413100
18,033500	0,5	-0,415750
18,041833	0,5	-0,418200
18,050167	0,5	-0,420600
18,058500	0,5	-0,414000
18,066833	0,5	-0,420650
18,075167	0,5	-0,421950
18,083500	0,5	-0,419250
18,091833	0,5	-0,414300
18,100167	0,5	-0,424900
18,108500	0,5	-0,421700
18,116833	0,5	-0,419350
18,125167	0,5	-0,424650
18,133500	0,5	-0,433900
18,141833	0,5	-0,440950
18,150167	0,5	-0,449750
18,158500	0,5	-0,446750
18,166833	0,5	-0,446700
18,175167	0,5	-0,448500
18,183500	0,5	-0,448850
18,191833	0,5	-0,447900
18,200167	0,5	-0,445900
18,208500	0,5	-0,447250
18,216833	0,5	-0,443600
18,225167	0,5	-0,445650
18,233500	0,5	-0,437500
18,241833	0,5	-0,439950
18,250167	0,5	-0,444350
18,258500	0,5	-0,442250
18,266833	0,5	-0,444800
18,275167	0,5	-0,444300
18,283500	0,5	-0,458200
18,291833	0,5	-0,463450
18,300167	0,5	-0,459200
18,308500	0,5	-0,458150
18,316833	0,5	-0,454250
18,325167	0,5	-0,452550
18,333500	0,5	-0,454400
18,341833	0,5	-0,452300
18,350167	0,5	-0,447800
18,358500	0,5	-0,448000
18,366833	0,5	-0,450100
18,375167	0,5	-0,445300
18,383500	0,5	-0,444850
18,391833	0,5	-0,449750
18,400167	0,5	-0,446850
18,408500	0,5	-0,440400
18,416833	0,5	-0,440450
18,425167	0,5	-0,440900
18,433500	0,5	-0,454900
18,441833	0,5	-0,453250
18,450167	0,5	-0,451300
18,458500	0,5	-0,443950
18,466833	0,5	-0,445950
18,475167	0,5	-0,443250
18,483500	0,5	-0,446000
18,491833	0,5	-0,444950
18,500167	0,5	-0,439650
18,508500	0,5	-0,435550
18,516833	0,5	-0,433550
18,525167	0,5	-0,430500
18,533500	0,5	-0,424550
18,541833	0,5	-0,441350
18,550167	0,5	-0,427350
18,558500	0,5	-0,423600
18,566833	0,5	-0,422000
18,575167	0,5	-0,429900
18,583500	0,5	-0,447150
18,591833	0,5	-0,434550
18,600167	0,5	-0,427700
18,608500	0,5	-0,431300
18,616833	0,5	-0,431600
18,625167	0,5	-0,429650
18,633500	0,5	-0,429150
18,641833	0,5	-0,430900
18,650167	0,5	-0,427700
18,658500	0,5	-0,428800
18,666833	0,5	-0,433050
18,675167	0,5	-0,421150
18,683500	0,5	-0,423150
18,691833	0,5	-0,435300
18,700167	0,5	-0,423950
18,708500	0,5	-0,424850
18,716833	0,5	-0,428250
18,725167	0,5	-0,435050
18,733500	0,5	-0,448450
18,741833	0,5	-0,437400
18,750167	0,5	-0,440000
18,758500	0,5	-0,436800
18,766833	0,5	-0,441500
18,775167	0,5	-0,439800
18,783500	0,5	-0,447000
18,791833	0,5	-0,440700
18,800167	0,5	-0,445050
18,808500	0,5	-0,446600
18,816833	0,5	-0,444100
18,825167	0,5	-0,440950
18,833500	0,5	-0,449100
18,841833	0,5	-0,447350
18,850167	0,5	-0,442900
18,858500	0,5	-0,446900
18,866833	0,5	-0,455850
18,875167	0,5	-0,471450
18,883500	0,5	-0,474850
18,891833	0,5	-0,469150
18,900167	0,5	-0,462150
18,908500	0,5	-0,467650
18,916833	0,5	-0,463650
18,925167	0,5	-0,471700
18,933500	0,5	-0,465550
18,941833	0,5	-0,468700
18,950167	0,5	-0,466750
18,958500	0,5	-0,467450
18,966833	0,5	-0,465250
18,975167	0,5	-0,463300
18,983500	0,5	-0,470850
18,991833	0,5	-0,465350
19,000167	0,5	-0,460900
19,008500	0,5	-0,459400
19,016833	0,5	-0,465100
19,025167	0,5	-0,471650
19,033500	0,5	-0,476600
19,041833	0,5	-0,470800
19,050167	0,5	-0,472700
19,058500	0,5	-0,469900
19,066833	0,5	-0,475450
19,075167	0,5	-0,478500
19,083500	0,5	-0,482450
19,091833	0,5	-0,476850
19,100167	0,5	-0,481550
19,108500	0,5	-0,481750
19,116833	0,5	-0,472450
19,125167	0,5	-0,474200
19,133500	0,5	-0,486150
19,141833	0,5	-0,480650
19,150167	0,5	-0,482950
19,158500	0,5	-0,487650
19,166833	0,5	-0,497550
19,175167	0,5	-0,515000
19,183500	0,5	-0,507950
19,191833	0,5	-0,507750
19,200167	0,5	-0,501100
19,208500	0,5	-0,499500
19,216833	0,5	-0,493450
19,225167	0,5	-0,497000
19,233500	0,5	-0,495200
19,241833	0,5	-0,495700
19,250167	0,5	-0,494350
19,258500	0,5	-0,488800
19,266833	0,5	-0,482350
19,275167	0,5	-0,498400
19,283500	0,5	-0,492750
19,291833	0,5	-0,485550
19,300167	0,5	-0,487050
19,308500	0,5	-0,494200
19,316833	0,5	-0,504900
19,325167	0,5	-0,500150
19,333500	0,5	-0,504850
19,341833	0,5	-0,495550
19,350167	0,5	-0,494750
19,358500	0,5	-0,485750
19,366833	0,5	-0,486750
19,375167	0,5	-0,477500
19,383500	0,5	-0,476550
19,391833	0,5	-0,459350
19,400167	0,5	-0,454350
19,408500	0,5	-0,444000
19,416833	0,5	-0,436450
19,425167	0,5	-0,444650
19,433500	0,5	-0,440200
19,441833	0,5	-0,440850
19,450167	0,5	-0,451300
19,458500	0,5	-0,463300
19,466833	0,5	-0,484300
19,475167	0,5	-0,490450
19,483500	0,5	-0,493150
19,491833	0,5	-0,490950
19,500167	0,5	-0,486800
19,508500	0,5	-0,489700
19,516833	0,5	-0,484750
19,525167	0,5	-0,488300
19,533500	0,5	-0,484550
19,541833	0,5	-0,488800
19,550167	0,5	-0,481750
19,558500	0,5	-0,477800
19,566833	0,5	-0,480400
19,575167	0,5	-0,490600
19,583500	0,5	-0,476000
19,591833	0,5	-0,476300
19,600167	0,5	-0,478950
19,608500	0,5	-0,490500
19,616833	0,5	-0,495000
19,625167	0,5	-0,485300
19,633500	0,5	-0,483650
19,641833	0,5	-0,484600
19,650167	0,5	-0,483050
19,658500	0,5	-0,479000
19,666833	0,5	-0,479350
19,675167	0,5	-0,471250
19,683500	0,5	-0,467200
19,691833	0,5	-0,454350
19,700167	0,5	-0,445300
19,708500	0,5	-0,426200
19,716833	0,5	-0,437350
19,725167	0,5	-0,422900
19,733500	0,5	-0,417550
19,741833	0,5	-0,415400
19,750167	0,5	-0,418800
19,758500	0,5	-0,425250
19,766833	0,5	-0,417500
19,775167	0,5	-0,414200
19,783500	0,5	-0,406900
19,791833	0,5	-0,406650
19,800167	0,5	-0,411350
19,808500	0,5	-0,423350
19,816833	0,5	-0,427750
19,825167	0,5	-0,443200
19,833500	0,5	-0,449000
19,841833	0,5	-0,456000
19,850167	0,5	-0,446400
19,858500	0,5	-0,451500
19,866833	0,5	-0,458750
19,875167	0,5	-0,451150
19,883500	0,5	-0,446100
19,891833	0,5	-0,448450
19,900167	0,5	-0,455100
19,908500	0,5	-0,463500
19,916833	0,5	-0,454150
19,925167	0,5	-0,448000
19,933500	0,5	-0,439000
19,941833	0,5	-0,433800
19,950167	0,5	-0,423650
19,958500	0,5	-0,410850
19,966833	0,5	-0,397950
19,975167	0,5	-0,378700
19,983500	0,5	-0,360400
19,991833	0,5	-0,335650
20,000167	0,5	-0,316800
20,008500	0,5	-0,312200
20,016833	0,5	-0,314100
20,025167	0,5	-0,311950
20,033500	0,5	-0,329150
20,041833	0,5	-0,343800
20,050167	0,5	-0,371450
20,058500	0,5	-0,388100
20,066833	0,5	-0,396650
20,075167	0,5	-0,394950
20,083500	0,5	-0,398100
20,091833	0,5	-0,400250
20,100167	0,5	-0,398150
20,108500	0,5	-0,398100
20,116833	0,5	-0,395650
20,125167	0,5	-0,401450
20,133500	0,5	-0,399750
20,141833	0,5	-0,393300
20,150167	0,5	-0,392800
20,158500	0,5	-0,396450
20,166833	0,5	-0,395650
20,175167	0,5	-0,387950
20,183500	0,5	-0,381000
20,191833	0,5	-0,383850
20,200167	0,5	-0,383850
20,208500	0,5	-0,381050
20,216833	0,5	-0,364750
20,225167	0,5	-0,359200
20,233500	0,5	-0,348800
20,241833	0,5	-0,347500
20,250167	0,5	-0,338450
20,258500	0,5	-0,330000
20,266833	0,5	-0,326800
20,275167	0,5	-0,315950
20,283500	0,5	-0,315950
20,291833	0,5	-0,316200
20,300167	0,5	-0,340900
20,308500	0,5	-0,361000
20,316833	0,5	-0,375200
20,325167	0,5	-0,391800
20,333500	0,5	-0,403850
20,341833	0,5	-0,417850
20,350167	0,5	-0,424700
20,358500	0,5	-0,417250
20,366833	0,5	-0,426750
20,375167	0,5	-0,421000
20,383500	0,5	-0,415950
20,391833	0,5	-0,407600
20,400167	0,5	-0,399550
20,408500	0,5	-0,391550
20,416833	0,5	-0,380500
20,425167	0,5	-0,369300
20,433500	0,5	-0,350200
20,441833	0,5	-0,335850
20,450167	0,5	-0,343750
20,458500	0,5	-0,341900
20,466833	0,5	-0,350250
20,475167	0,5	-0,370000
20,483500	0,5	-0,381150
20,491833	0,5	-0,409400
20,500167	0,5	-0,401600
20,508500	0,5	-0,406900
20,516833	0,5	-0,402900
20,525167	0,5	-0,403300
20,533500	0,5	-0,396400
20,541833	0,5	-0,396550
20,550167	0,5	-0,388600
20,558500	0,5	-0,381250
20,566833	0,5	-0,383550
20,575167	0,5	-0,371850
20,583500	0,5	-0,352500
20,591833	0,5	-0,346650
20,600167	0,5	-0,354150
20,608500	0,5	-0,343950
20,616833	0,5	-0,345750
20,625167	0,5	-0,342200
20,633500	0,5	-0,346700
20,641833	0,5	-0,338400
20,650167	0,5	-0,322700
20,658500	0,5	-0,307300
20,666833	0,5	-0,315850
20,675167	0,5	-0,315650
20,683500	0,5	-0,326350
20,691833	0,5	-0,330350
20,700167	0,5	-0,335350
20,708500	0,5	-0,333950
20,716833	0,5	-0,330650
20,725167	0,5	-0,314000
20,733500	0,5	-0,296850
20,741833	0,5	-0,291450
20,750167	0,5	-0,292050
20,758500	0,5	-0,288200
20,766833	0,5	-0,289250
20,775167	0,5	-0,298300
20,783500	0,5	-0,312250
20,791833	0,5	-0,316550
20,800167	0,5	-0,309400
20,808500	0,5	-0,311600
20,816833	0,5	-0,300750
20,825167	0,5	-0,292900
20,833500	0,5	-0,283950
20,841833	0,5	-0,276200
20,850167	0,5	-0,265900
20,858500	0,5	-0,266750
20,866833	0,5	-0,265150
20,875167	0,5	-0,236900
20,883500	0,5	-0,222200
20,891833	0,5	-0,227650
20,900167	0,5	-0,220150
20,908500	0,5	-0,218450
20,916833	0,5	-0,214900
20,925167	0,5	-0,217750
20,933500	0,5	-0,225350
20,941833	0,5	-0,218100
20,950167	0,5	-0,213850
20,958500	0,5	-0,204450
20,966833	0,5	-0,203650
20,975167	0,5	-0,195300
20,983500	0,5	-0,193450
20,991833	0,5	-0,186850
21,000167	0,5	-0,184900
21,008500	0,5	-0,181500
21,016833	0,5	-0,163550
21,025167	0,5	-0,142550
21,033500	0,5	-0,136600
21,041833	0,5	-0,135100
21,050167	0,5	-0,130400
21,058500	0,5	-0,143050
21,066833	0,5	-0,141600
21,075167	0,5	-0,150400
21,083500	0,5	-0,144800
21,091833	0,5	-0,142300
21,100167	0,5	-0,127750
21,108500	0,5	-0,120900
21,116833	0,5	-0,103400
21,125167	0,5	-0,100400
21,133500	0,5	-0,084200
21,141833	0,5	-0,082650
21,150167	0,5	-0,076800
21,158500	0,5	-0,079450
21,166833	0,5	-0,059000
21,175167	0,5	-0,047900
21,183500	0,5	-0,044500
21,191833	0,5	-0,045450
21,200167	0,5	-0,037800
21,208500	0,5	-0,037100
21,216833	0,5	-0,047000
21,225167	0,5	-0,044350
21,233500	0,5	-0,038300
21,241833	0,5	-0,024500
21,250167	0,5	-0,015350
21,258500	0,5	0,002950
21,266833	0,5	0,014400
21,275167	0,5	0,040650
21,283500	0,5	0,066500
21,291833	0,5	0,094400
21,300167	0,5	0,115650
21,308500	0,5	0,140250
21,316833	0,5	0,166250
21,325167	0,5	0,184300
21,333500	0,5	0,176550
21,341833	0,5	0,164350
21,350167	0,5	0,157400
21,358500	0,5	0,140850
21,366833	0,5	0,129850
21,375167	0,5	0,133350
21,383500	0,5	0,148100
21,391833	0,5	0,153900
21,400167	0,5	0,170250
21,408500	0,5	0,178100
21,416833	0,5	0,196350
21,425167	0,5	0,202300
21,433500	0,5	0,218300
21,441833	0,5	0,223850
21,450167	0,5	0,230000
21,458500	0,5	0,248600
21,466833	0,5	0,274200
21,475167	0,5	0,275550
21,483500	0,5	0,285600
21,491833	0,5	0,289350
21,500167	0,5	0,294300
21,508500	0,5	0,306600
21,516833	0,5	0,307850
21,525167	0,5	0,327200
21,533500	0,5	0,335850
21,541833	0,5	0,348700
21,550167	0,5	0,358050
21,558500	0,5	0,374400
21,566833	0,5	0,380200
21,575167	0,5	0,396350
21,583500	0,5	0,403400
21,591833	0,5	0,420100
21,600167	0,5	0,439100
21,608500	0,5	0,473200
21,616833	0,5	0,492850
21,625167	0,5	0,505350
21,633500	0,5	0,520550
21,641833	0,5	0,528900
21,650167	0,5	0,534950
21,658500	0,5	0,529050
21,666833	0,5	0,546900
21,675167	0,5	0,563400
21,683500	0,5	0,588050
21,691833	0,5	0,595650
21,700167	0,5	0,614450
21,708500	0,5	0,630650
21,716833	0,5	0,649350
21,725167	0,5	0,666050
21,733500	0,5	0,682750
21,741833	0,5	0,703050
21,750167	0,5	0,726100
21,758500	0,5	0,751000
21,766833	0,5	0,767350
21,775167	0,5	0,785350
21,783500	0,5	0,806200
21,791833	0,5	0,829100
21,800167	0,5	0,842200
21,808500	0,5	0,858200
21,816833	0,5	0,882700
21,825167	0,5	0,922450
21,833500	0,5	0,954500
21,841833	0,5	0,987700
21,850167	0,5	1,017750
21,858500	0,5	1,052400
21,866833	0,5	1,083450
21,875167	0,5	1,113100
21,883500	0,5	1,136200
21,891833	0,5	1,154500
21,900167	0,5	1,186250
21,908500	0,5	1,204850
21,916833	0,5	1,212150
21,925167	0,5	1,231900
21,933500	0,5	1,240600
21,941833	0,5	1,246950
21,950167	0,5	1,251650
21,958500	0,5	1,258200
21,966833	0,5	1,289000
21,975167	0,5	1,310000
21,983500	0,5	1,343900
21,991833	0,5	1,367550
22,000167	0,5	1,398100
22,008500	0,5	1,422700
22,016833	0,5	1,449900
22,025167	0,5	1,473900
22,033500	0,5	1,505500
22,041833	0,5	1,539300
22,050167	0,5	1,562550
22,058500	0,5	1,590750
22,066833	0,5	1,632750
22,075167	0,5	1,675250
22,083500	0,5	1,705750
22,091833	0,5	1,737150
22,100167	0,5	1,768100
22,108500	0,5	1,803450
22,116833	0,5	1,830600
22,125167	0,5	1,864900
22,133500	0,5	1,880050
22,141833	0,5	1,909900
22,150167	0,5	1,927950
22,158500	0,5	1,963200
22,166833	0,5	1,996750
22,175167	0,5	2,029650
22,183500	0,5	2,062050
22,191833	0,5	2,089650
22,200167	0,5	2,123350
22,208500	0,5	2,163100
22,216833	0,5	2,211150
22,225167	0,5	2,245300
22,233500	0,5	2,279950
22,241833	0,5	2,303250
22,250167	0,5	2,342400
22,258500	0,5	2,388500
22,266833	0,5	2,450800
22,275167	0,5	2,496150
22,283500	0,5	2,551900
22,291833	0,5	2,594050
22,300167	0,5	2,646000
22,308500	0,5	2,689850
22,316833	0,5	2,733850
22,325167	0,5	2,770050
22,333500	0,5	2,797800
22,341833	0,5	2,829100
22,350167	0,5	2,864550
22,358500	0,5	2,930400
22,366833	0,5	2,977400
22,375167	0,5	3,020000
22,383500	0,5	3,057900
22,391833	0,5	3,093600
22,400167	0,5	3,148100
22,408500	0,5	3,209900
22,416833	0,5	3,259400
22,425167	0,5	3,316550
22,433500	0,5	3,366450
22,441833	0,5	3,424550
22,450167	0,5	3,482700
22,458500	0,5	3,545700
22,466833	0,5	3,595300
22,475167	0,5	3,654000
22,483500	0,5	3,677850
22,491833	0,5	3,735400
22,500167	0,5	3,799450
22,508500	0,5	3,865050
22,516833	0,5	3,918800
22,525167	0,5	3,955200
22,533500	0,5	3,994000
22,541833	0,5	4,008600
22,550167	0,5	4,056250
22,558500	0,5	4,081800
22,566833	0,5	4,111550
22,575167	0,5	4,129600
22,583500	0,5	4,155700
22,591833	0,5	4,170700
22,600167	0,5	4,191050
22,608500	0,5	4,197500
22,616833	0,5	4,195100
22,625167	0,5	4,166450
22,633500	0,5	4,136000
22,641833	0,5	4,122250
22,650167	0,5	4,115500
22,658500	0,5	4,077750
22,666833	0,5	4,032000
22,675167	0,5	3,969750
22,683500	0,5	3,896250
22,691833	0,5	3,823800
22,700167	0,5	3,752150
22,708500	0,5	3,681300
22,716833	0,5	3,590200
22,725167	0,5	3,503550
22,733500	0,5	3,406800
22,741833	0,5	3,318100
22,750167	0,5	3,220250
22,758500	0,5	3,120450
22,766833	0,5	3,003950
22,775167	0,5	2,843350
22,783500	0,5	2,742800
22,791833	0,5	2,635250
22,800167	0,5	2,516650
22,808500	0,5	2,383950
22,816833	0,5	2,239850
22,825167	0,5	2,102150
22,833500	0,5	1,960850
22,841833	0,5	1,819750
22,850167	0,5	1,679100
22,858500	0,5	1,546600
22,866833	0,5	1,414250
22,875167	0,5	1,287700
22,883500	0,5	1,155700
22,891833	0,5	1,036150
22,900167	0,5	0,913000
22,908500	0,5	0,796850
22,916833	0,5	0,691400
22,925167	0,5	0,547750
22,933500	0,5	0,457100
22,941833	0,5	0,330300
22,950167	0,5	0,194050
22,958500	0,5	0,086500
22,966833	0,5	-0,015800
22,975167	0,5	-0,118200
22,983500	0,5	-0,207050
22,991833	0,5	-0,312950
23,000167	0,5	-0,402350
23,008500	0,5	-0,491000
23,016833	0,5	-0,565950
23,025167	0,5	-0,641650
23,033500	0,5	-0,713000
23,041833	0,5	-0,791150
23,050167	0,5	-0,853550
23,058500	0,5	-0,920100
23,066833	0,5	-0,949550
23,075167	0,5	-1,019750
23,083500	0,5	-1,079050
23,091833	0,5	-1,168100
23,100167	0,5	-1,232850
23,108500	0,5	-1,278950
23,116833	0,5	-1,319750
23,125167	0,5	-1,356250
23,133500	0,5	-1,402550
23,141833	0,5	-1,442700
23,150167	0,5	-1,481500
23,158500	0,5	-1,505450
23,166833	0,5	-1,535250
23,175167	0,5	-1,549650
23,183500	0,5	-1,583400
23,191833	0,5	-1,599950
23,200167	0,5	-1,623000
23,208500	0,5	-1,628900
23,216833	0,5	-1,665800
23,225167	0,5	-1,668450
23,233500	0,5	-1,657800
23,241833	0,5	-1,704850
23,250167	0,5	-1,737900
23,258500	0,5	-1,750550
23,266833	0,5	-1,749850
23,275167	0,5	-1,760850
23,283500	0,5	-1,769500
23,291833	0,5	-1,780500
23,300167	0,5	-1,778750
23,308500	0,5	-1,781300
23,316833	0,5	-1,776250
23,325167	0,5	-1,778950
23,333500	0,5	-1,774300
23,341833	0,5	-1,775050
23,350167	0,5	-1,763950
23,358500	0,5	-1,757750
23,366833	0,5	-1,791100
23,375167	0,5	-1,757200
23,383500	0,5	-1,732650
23,391833	0,5	-1,746800
23,400167	0,5	-1,752900
23,408500	0,5	-1,749550
23,416833	0,5	-1,738850
23,425167	0,5	-1,739550
23,433500	0,5	-1,742200
23,441833	0,5	-1,736200
23,450167	0,5	-1,725650
23,458500	0,5	-1,716750
23,466833	0,5	-1,707600
23,475167	0,5	-1,697250
23,483500	0,5	-1,691000
23,491833	0,5	-1,678400
23,500167	0,5	-1,670750
23,508500	0,5	-1,739700
23,516833	0,5	-1,696650
23,525167	0,5	-1,671950
23,533500	0,5	-1,622750
23,541833	0,5	-1,616700
23,550167	0,5	-1,614300
23,558500	0,5	-1,604300
23,566833	0,5	-1,598750
23,575167	0,5	-1,588700
23,583500	0,5	-1,583200
23,591833	0,5	-1,571700
23,600167	0,5	-1,562400
23,608500	0,5	-1,551250
23,616833	0,5	-1,543800
23,625167	0,5	-1,534600
23,633500	0,5	-1,523850
23,641833	0,5	-1,512950
23,650167	0,5	-1,516300
23,658500	0,5	-1,601150
23,666833	0,5	-1,553150
23,675167	0,5	-1,504750
23,683500	0,5	-1,461500
23,691833	0,5	-1,450100
23,700167	0,5	-1,439750
23,708500	0,5	-1,433600
23,716833	0,5	-1,427650
23,725167	0,5	-1,405900
23,733500	0,5	-1,394800
23,741833	0,5	-1,380250
23,750167	0,5	-1,366650
23,758500	0,5	-1,353100
23,766833	0,5	-1,338000
23,775167	0,5	-1,325350
23,783500	0,5	-1,313150
23,791833	0,5	-1,299500
23,800167	0,5	-1,353950
23,808500	0,5	-1,396400
23,816833	0,5	-1,345500
23,825167	0,5	-1,291800
23,833500	0,5	-1,255300
23,841833	0,5	-1,242850
23,850167	0,5	-1,229200
23,858500	0,5	-1,225200
23,866833	0,5	-1,214900
23,875167	0,5	-1,202500
23,883500	0,5	-1,186000
23,891833	0,5	-1,174350
23,900167	0,5	-1,156000
23,908500	0,5	-1,143000
23,916833	0,5	-1,125350
23,925167	0,5	-1,105600
23,933500	0,5	-1,092750
23,941833	0,5	-1,078850
23,950167	0,5	-1,186950
23,958500	0,5	-1,148000
23,966833	0,5	-1,106950
23,975167	0,5	-1,055400
23,983500	0,5	-1,023300
23,991833	0,5	-1,007450
24,000167	0,5	-1,002150
24,008500	0,5	-0,998700
24,016833	0,5	-0,990150
24,025167	0,5	-0,967650
24,033500	0,5	-0,959250
24,041833	0,5	-0,939950
24,050167	0,5	-0,926800
24,058500	0,5	-0,912950
24,066833	0,5	-0,897100
24,075167	0,5	-0,879800
24,083500	0,5	-0,869300
24,091833	0,5	-0,874900
24,100167	0,5	-0,951250
24,108500	0,5	-0,920100
24,116833	0,5	-0,876200
24,125167	0,5	-0,831750
24,133500	0,5	-0,806900
24,141833	0,5	-0,791700
24,150167	0,5	-0,789100
24,158500	0,5	-0,785650
24,166833	0,5	-0,759250
24,175167	0,5	-0,744800
24,183500	0,5	-0,730750
24,191833	0,5	-0,721650
24,200167	0,5	-0,707350
24,208500	0,5	-0,698000
24,216833	0,5	-0,680050
24,225167	0,5	-0,671450
24,233500	0,5	-0,655100
24,241833	0,5	-0,713450
24,250167	0,5	-0,714050
24,258500	0,5	-0,702550
24,266833	0,5	-0,655800
24,275167	0,5	-0,626150
24,283500	0,5	-0,605350
24,291833	0,5	-0,598850
24,300167	0,5	-0,606750
24,308500	0,5	-0,593900
24,316833	0,5	-0,578750
24,325167	0,5	-0,565600
24,333500	0,5	-0,556950
24,341833	0,5	-0,542250
24,350167	0,5	-0,528200
24,358500	0,5	-0,517000
24,366833	0,5	-0,505100
24,375167	0,5	-0,491650
24,383500	0,5	-0,489100
24,391833	0,5	-0,555850
24,400167	0,5	-0,530500
24,408500	0,5	-0,507400
24,416833	0,5	-0,476000
24,425167	0,5	-0,455900
24,433500	0,5	-0,445250
24,441833	0,5	-0,441850
24,450167	0,5	-0,447900
24,458500	0,5	-0,435000
24,466833	0,5	-0,423500
24,475167	0,5	-0,412550
24,483500	0,5	-0,410150
24,491833	0,5	-0,406350
24,500167	0,5	-0,397950
24,508500	0,5	-0,386050
24,516833	0,5	-0,373850
24,525167	0,5	-0,371650
24,533500	0,5	-0,378000
24,541833	0,5	-0,412700
24,550167	0,5	-0,383700
24,558500	0,5	-0,372800
24,566833	0,5	-0,343000
24,575167	0,5	-0,333700
24,583500	0,5	-0,326300
24,591833	0,5	-0,330050
24,600167	0,5	-0,331850
24,608500	0,5	-0,320750
24,616833	0,5	-0,314050
24,625167	0,5	-0,309150
24,633500	0,5	-0,304450
24,641833	0,5	-0,296150
24,650167	0,5	-0,289300
24,658500	0,5	-0,281950
24,666833	0,5	-0,278800
24,675167	0,5	-0,269650
24,683500	0,5	-0,307000
24,691833	0,5	-0,299850
24,700167	0,5	-0,289050
24,708500	0,5	-0,268950
24,716833	0,5	-0,252250
24,725167	0,5	-0,247200
24,733500	0,5	-0,241300
24,741833	0,5	-0,247650
24,750167	0,5	-0,246550
24,758500	0,5	-0,236100
24,766833	0,5	-0,232900
24,775167	0,5	-0,226100
24,783500	0,5	-0,224700
24,791833	0,5	-0,222600
24,800167	0,5	-0,216650
24,808500	0,5	-0,211350
24,816833	0,5	-0,206800
24,825167	0,5	-0,208450
24,833500	0,5	-0,229350
24,841833	0,5	-0,221500
24,850167	0,5	-0,212600
24,858500	0,5	-0,200050
24,866833	0,5	-0,190400
24,875167	0,5	-0,190250
24,883500	0,5	-0,190950
24,891833	0,5	-0,193050
24,900167	0,5	-0,189200
24,908500	0,5	-0,184450
24,916833	0,5	-0,179600
24,925167	0,5	-0,178750
24,933500	0,5	-0,171600
24,941833	0,5	-0,171050
24,950167	0,5	-0,162450
24,958500	0,5	-0,160050
24,966833	0,5	-0,157200
24,975167	0,5	-0,156300
24,983500	0,5	-0,173600
24,991833	0,5	-0,164350
25,000167	0,5	-0,155650
25,008500	0,5	-0,150750
25,016833	0,5	-0,145650
25,025167	0,5	-0,143900
25,033500	0,5	-0,144200
25,041833	0,5	-0,143850
25,050167	0,5	-0,144450
25,058500	0,5	-0,140900
25,066833	0,5	-0,141400
25,075167	0,5	-0,136350
25,083500	0,5	-0,137750
25,091833	0,5	-0,134050
25,100167	0,5	-0,130850
25,108500	0,5	-0,127900
25,116833	0,5	-0,126900
25,125167	0,5	-0,132900
25,133500	0,5	-0,128000
25,141833	0,5	-0,126800
25,150167	0,5	-0,121750
25,158500	0,5	-0,118050
25,166833	0,5	-0,116400
25,175167	0,5	-0,118050
25,183500	0,5	-0,119400
25,191833	0,5	-0,121700
25,200167	0,5	-0,118850
25,208500	0,5	-0,117000
25,216833	0,5	-0,117050
25,225167	0,5	-0,117350
25,233500	0,5	-0,114900
25,241833	0,5	-0,113450
25,250167	0,5	-0,115650
25,258500	0,5	-0,110550
25,266833	0,5	-0,112350
25,275167	0,5	-0,115400
25,283500	0,5	-0,110450
25,291833	0,5	-0,105250
25,300167	0,5	-0,106000
25,308500	0,5	-0,103600
25,316833	0,5	-0,100600
25,325167	0,5	-0,102000
25,333500	0,5	-0,101250
25,341833	0,5	-0,104000
25,350167	0,5	-0,101200
25,358500	0,5	-0,102500
25,366833	0,5	-0,100800
25,375167	0,5	-0,099700
25,383500	0,5	-0,100700
25,391833	0,5	-0,101350
25,400167	0,5	-0,101700
25,408500	0,5	-0,098300
25,416833	0,5	-0,096700
25,425167	0,5	-0,097650
25,433500	0,5	-0,095800
25,441833	0,5	-0,092650
25,450167	0,5	-0,095800
25,458500	0,5	-0,094850
25,466833	0,5	-0,094400
25,475167	0,5	-0,094500
25,483500	0,5	-0,092750
25,491833	0,5	-0,091900
25,500167	0,5	-0,094100
25,508500	0,5	-0,092850
25,516833	0,5	-0,093050
25,525167	0,5	-0,091850
25,533500	0,5	-0,093300
25,541833	0,5	-0,093950
25,550167	0,5	-0,093700
25,558500	0,5	-0,091450
25,566833	0,5	-0,090350
25,575167	0,5	-0,088550
25,583500	0,5	-0,090400
25,591833	0,5	-0,088300
25,600167	0,5	-0,092700
25,608500	0,5	-0,091400
25,616833	0,5	-0,089300
25,625167	0,5	-0,088350
25,633500	0,5	-0,087400
25,641833	0,5	-0,087350
25,650167	0,5	-0,089050
25,658500	0,5	-0,087750
25,666833	0,5	-0,086000
25,675167	0,5	-0,086400
25,683500	0,5	-0,085250
25,691833	0,5	-0,089700
25,700167	0,5	-0,087550
25,708500	0,5	-0,086700
25,716833	0,5	-0,082100
25,725167	0,5	-0,083250
25,733500	0,5	-0,080250
25,741833	0,5	-0,084950
25,750167	0,5	-0,084600
25,758500	0,5	-0,086450
25,766833	0,5	-0,083350
25,775167	0,5	-0,082400
25,783500	0,5	-0,078450
25,791833	0,5	-0,080200
25,800167	0,5	-0,078150
25,808500	0,5	-0,077550
25,816833	0,5	-0,079500
25,825167	0,5	-0,076200
25,833500	0,5	-0,077000
25,841833	0,5	-0,077700
25,850167	0,5	-0,077700
25,858500	0,5	-0,073250
25,866833	0,5	-0,072950
25,875167	0,5	-0,071800
25,883500	0,5	-0,069200
25,891833	0,5	-0,075350
25,900167	0,5	-0,077900
25,908500	0,5	-0,076150
25,916833	0,5	-0,069500
25,925167	0,5	-0,065450
25,933500	0,5	-0,065600
25,941833	0,5	-0,059800
25,950167	0,5	-0,058850
25,958500	0,5	-0,058400
25,966833	0,5	-0,059200
25,975167	0,5	-0,057050
25,983500	0,5	-0,059300
25,991833	0,5	-0,057350
26,000167	0,5	-0,057700
