File Path	chrom://chromeleon01/ikbm_chromeleon/2022/ICS-5000/ED1/Esteban/20220612_Cell_7_4_eg.seq/240.smp/ED_1.channel/ED_1.chm
Channel	ED_1

Injection Information:
Data Vault	ikbm_chromeleon
Injection	4_24h-EGS_1
Injection Number	28
Position	RC6
Comment	
Processing Method	Stop sequence after Cell Death
Instrument Method	ICS5000_PA200_FullNative_Ox_26min_ED1
Type	Unknown
Status	Finished
Injection Date	13.06.2022
Injection Time	04:53:46
Injection Volume (µl)	5,0
Dilution Factor	1,0000
Weight	1,0000

Chromatogram Data Information:
Time Min. (min)	0,000167
Time Max. (min)	26,000167
Data Points	3121
Detector	EDet1
Generating Data System	Chromeleon 7.2.9.11323
Exporting Data System	Chromeleon 7.2.9.0
Operator	Instrument Controller
Signal Quantity	
Signal Unit	nC
Signal Min.	-1,555350
Signal Max.	2 706,694190
Channel	ED_1
Driver Name	DC-5000
Channel Type	Evaluation
Min. Step (s)	0,5
Max. Step (s)	0,5
Average Step (s)	0,5

Signal Parameter Information:
Signal Info	

Chromatogram Data:
Time (min)	Step (s)	Value (nC)
0,000167	n.a.	-0,032200
0,008500	0,5	-0,044750
0,016833	0,5	-0,034800
0,025167	0,5	-0,028150
0,033500	0,5	-0,017200
0,041833	0,5	-0,008500
0,050167	0,5	-0,011100
0,058500	0,5	-0,007950
0,066833	0,5	-0,009000
0,075167	0,5	-0,000200
0,083500	0,5	-0,011650
0,091833	0,5	-0,004900
0,100167	0,5	0,008050
0,108500	0,5	-0,010850
0,116833	0,5	-0,014600
0,125167	0,5	-0,007100
0,133500	0,5	0,001550
0,141833	0,5	0,023100
0,150167	0,5	0,007800
0,158500	0,5	0,009600
0,166833	0,5	0,008700
0,175167	0,5	0,014300
0,183500	0,5	0,007750
0,191833	0,5	0,010250
0,200167	0,5	0,004600
0,208500	0,5	0,005500
0,216833	0,5	0,006300
0,225167	0,5	0,001450
0,233500	0,5	-0,004900
0,241833	0,5	0,003750
0,250167	0,5	-0,000550
0,258500	0,5	-0,011600
0,266833	0,5	-0,007600
0,275167	0,5	-0,001300
0,283500	0,5	0,016600
0,291833	0,5	0,036900
0,300167	0,5	0,054050
0,308500	0,5	0,042750
0,316833	0,5	0,024750
0,325167	0,5	0,003900
0,333500	0,5	0,002950
0,341833	0,5	-0,000400
0,350167	0,5	-0,001400
0,358500	0,5	0,002050
0,366833	0,5	0,004850
0,375167	0,5	-0,000600
0,383500	0,5	-0,001450
0,391833	0,5	0,004500
0,400167	0,5	-0,000250
0,408500	0,5	-0,007150
0,416833	0,5	-0,006900
0,425167	0,5	0,007100
0,433500	0,5	0,018000
0,441833	0,5	0,027800
0,450167	0,5	0,016500
0,458500	0,5	0,021900
0,466833	0,5	0,016050
0,475167	0,5	0,019500
0,483500	0,5	0,009800
0,491833	0,5	0,011950
0,500167	0,5	0,004950
0,508500	0,5	0,011150
0,516833	0,5	0,013900
0,525167	0,5	0,012400
0,533500	0,5	0,008300
0,541833	0,5	0,020250
0,550167	0,5	0,000850
0,558500	0,5	0,002400
0,566833	0,5	0,002750
0,575167	0,5	0,013900
0,583500	0,5	0,028450
0,591833	0,5	0,029550
0,600167	0,5	0,029050
0,608500	0,5	0,025900
0,616833	0,5	0,031400
0,625167	0,5	0,025600
0,633500	0,5	0,027100
0,641833	0,5	0,021850
0,650167	0,5	0,027750
0,658500	0,5	0,025250
0,666833	0,5	0,021600
0,675167	0,5	0,012400
0,683500	0,5	0,030850
0,691833	0,5	0,027250
0,700167	0,5	0,018950
0,708500	0,5	0,018150
0,716833	0,5	0,025750
0,725167	0,5	0,041850
0,733500	0,5	0,053000
0,741833	0,5	0,049250
0,750167	0,5	0,043750
0,758500	0,5	0,041100
0,766833	0,5	0,047500
0,775167	0,5	0,044950
0,783500	0,5	0,046500
0,791833	0,5	0,042500
0,800167	0,5	0,040450
0,808500	0,5	0,052350
0,816833	0,5	0,046600
0,825167	0,5	0,042250
0,833500	0,5	0,061900
0,841833	0,5	0,050750
0,850167	0,5	0,042150
0,858500	0,5	0,045900
0,866833	0,5	0,041900
0,875167	0,5	0,068000
0,883500	0,5	0,060250
0,891833	0,5	0,061050
0,900167	0,5	0,059450
0,908500	0,5	0,068850
0,916833	0,5	0,067400
0,925167	0,5	0,069800
0,933500	0,5	0,064500
0,941833	0,5	0,065550
0,950167	0,5	0,071900
0,958500	0,5	0,071850
0,966833	0,5	0,078300
0,975167	0,5	0,068500
0,983500	0,5	0,092200
0,991833	0,5	0,066900
1,000167	0,5	0,067200
1,008500	0,5	0,073950
1,016833	0,5	0,081650
1,025167	0,5	0,098150
1,033500	0,5	0,091650
1,041833	0,5	0,079550
1,050167	0,5	0,089200
1,058500	0,5	0,092200
1,066833	0,5	0,097100
1,075167	0,5	0,090600
1,083500	0,5	0,091750
1,091833	0,5	0,093850
1,100167	0,5	0,095250
1,108500	0,5	0,105200
1,116833	0,5	0,095450
1,125167	0,5	0,093400
1,133500	0,5	0,105450
1,141833	0,5	0,092000
1,150167	0,5	0,087700
1,158500	0,5	0,093150
1,166833	0,5	0,100600
1,175167	0,5	0,116200
1,183500	0,5	0,106550
1,191833	0,5	0,115000
1,200167	0,5	0,106300
1,208500	0,5	0,110800
1,216833	0,5	0,108450
1,225167	0,5	0,109100
1,233500	0,5	0,102700
1,241833	0,5	0,103750
1,250167	0,5	0,103700
1,258500	0,5	0,103900
1,266833	0,5	0,094750
1,275167	0,5	0,103350
1,283500	0,5	0,097900
1,291833	0,5	0,092350
1,300167	0,5	0,085750
1,308500	0,5	0,092250
1,316833	0,5	0,100500
1,325167	0,5	0,109400
1,333500	0,5	0,103450
1,341833	0,5	0,100050
1,350167	0,5	0,099650
1,358500	0,5	0,091200
1,366833	0,5	0,089050
1,375167	0,5	0,084800
1,383500	0,5	0,087050
1,391833	0,5	0,083500
1,400167	0,5	0,080200
1,408500	0,5	0,075100
1,416833	0,5	0,072700
1,425167	0,5	0,074850
1,433500	0,5	0,066100
1,441833	0,5	0,056000
1,450167	0,5	0,056850
1,458500	0,5	0,059350
1,466833	0,5	0,072350
1,475167	0,5	0,075550
1,483500	0,5	0,074050
1,491833	0,5	0,063650
1,500167	0,5	0,059550
1,508500	0,5	0,056300
1,516833	0,5	0,049450
1,525167	0,5	0,044450
1,533500	0,5	0,033450
1,541833	0,5	0,033900
1,550167	0,5	0,039400
1,558500	0,5	0,069300
1,566833	0,5	0,169050
1,575167	0,5	0,658850
1,583500	0,5	3,715600
1,591833	0,5	19,495200
1,600167	0,5	81,543151
1,608500	0,5	286,823054
1,616833	0,5	814,850312
1,625167	0,5	1 562,355723
1,633500	0,5	2 438,728486
1,641833	0,5	2 706,694190
1,650167	0,5	2 637,432489
1,658500	0,5	2 285,637834
1,666833	0,5	1 699,099175
1,675167	0,5	1 121,542717
1,683500	0,5	749,095961
1,691833	0,5	530,558358
1,700167	0,5	400,473806
1,708500	0,5	317,374055
1,716833	0,5	262,382404
1,725167	0,5	222,400453
1,733500	0,5	191,002303
1,741833	0,5	165,114852
1,750167	0,5	143,987452
1,758500	0,5	128,374352
1,766833	0,5	118,918552
1,775167	0,5	114,988202
1,783500	0,5	113,694752
1,791833	0,5	110,333552
1,800167	0,5	102,886202
1,808500	0,5	93,726301
1,816833	0,5	85,890451
1,825167	0,5	80,647601
1,833500	0,5	78,789551
1,841833	0,5	81,126601
1,850167	0,5	86,865501
1,858500	0,5	91,673551
1,866833	0,5	90,763101
1,875167	0,5	84,956551
1,883500	0,5	79,691351
1,891833	0,5	78,834101
1,900167	0,5	84,031751
1,908500	0,5	96,724751
1,916833	0,5	117,478902
1,925167	0,5	142,521752
1,933500	0,5	161,641902
1,941833	0,5	165,170952
1,950167	0,5	151,626052
1,958500	0,5	128,216902
1,966833	0,5	104,640402
1,975167	0,5	86,859201
1,983500	0,5	75,694901
1,991833	0,5	70,679951
2,000167	0,5	71,457251
2,008500	0,5	74,253901
2,016833	0,5	73,386501
2,025167	0,5	68,168651
2,033500	0,5	61,397801
2,041833	0,5	54,161901
2,050167	0,5	47,195101
2,058500	0,5	41,891701
2,066833	0,5	38,879251
2,075167	0,5	37,429451
2,083500	0,5	36,143951
2,091833	0,5	34,305051
2,100167	0,5	32,288350
2,108500	0,5	30,542950
2,116833	0,5	29,277400
2,125167	0,5	28,552100
2,133500	0,5	28,219350
2,141833	0,5	27,804500
2,150167	0,5	26,958200
2,158500	0,5	25,812300
2,166833	0,5	24,727950
2,175167	0,5	23,887200
2,183500	0,5	23,528750
2,191833	0,5	23,820500
2,200167	0,5	25,064000
2,208500	0,5	26,851900
2,216833	0,5	27,083300
2,225167	0,5	26,090850
2,233500	0,5	25,551600
2,241833	0,5	25,430700
2,250167	0,5	25,361550
2,258500	0,5	25,392700
2,266833	0,5	25,606600
2,275167	0,5	25,994700
2,283500	0,5	26,480500
2,291833	0,5	27,189950
2,300167	0,5	28,446450
2,308500	0,5	30,496750
2,316833	0,5	32,929250
2,325167	0,5	34,882551
2,333500	0,5	35,675151
2,341833	0,5	35,399001
2,350167	0,5	34,914151
2,358500	0,5	35,506201
2,366833	0,5	38,384551
2,375167	0,5	44,250651
2,383500	0,5	53,847501
2,391833	0,5	70,429251
2,400167	0,5	101,236852
2,408500	0,5	151,095952
2,416833	0,5	208,127903
2,425167	0,5	244,303454
2,433500	0,5	241,136054
2,441833	0,5	206,161953
2,450167	0,5	161,056102
2,458500	0,5	122,424202
2,466833	0,5	96,317051
2,475167	0,5	82,487551
2,483500	0,5	78,589301
2,491833	0,5	81,540251
2,500167	0,5	87,708001
2,508500	0,5	92,642051
2,516833	0,5	92,080051
2,525167	0,5	84,473901
2,533500	0,5	72,095051
2,541833	0,5	58,843051
2,550167	0,5	47,605851
2,558500	0,5	39,348201
2,566833	0,5	33,727701
2,575167	0,5	29,983350
2,583500	0,5	27,444500
2,591833	0,5	25,684100
2,600167	0,5	24,523000
2,608500	0,5	23,898250
2,616833	0,5	23,755750
2,625167	0,5	23,950050
2,633500	0,5	24,121200
2,641833	0,5	23,922650
2,650167	0,5	23,182150
2,658500	0,5	22,050000
2,666833	0,5	20,853550
2,675167	0,5	19,891350
2,683500	0,5	19,259300
2,691833	0,5	18,974150
2,700167	0,5	19,042400
2,708500	0,5	19,631400
2,716833	0,5	21,042400
2,725167	0,5	23,560000
2,733500	0,5	26,869250
2,741833	0,5	29,772600
2,750167	0,5	30,941700
2,758500	0,5	29,795600
2,766833	0,5	26,930500
2,775167	0,5	23,500200
2,783500	0,5	20,468400
2,791833	0,5	18,229900
2,800167	0,5	16,697750
2,808500	0,5	15,661100
2,816833	0,5	14,953600
2,825167	0,5	14,428750
2,833500	0,5	14,020050
2,841833	0,5	13,656250
2,850167	0,5	13,324000
2,858500	0,5	12,995050
2,866833	0,5	12,689300
2,875167	0,5	12,423950
2,883500	0,5	12,209750
2,891833	0,5	12,087900
2,900167	0,5	12,093000
2,908500	0,5	12,126050
2,916833	0,5	12,163350
2,925167	0,5	12,129850
2,933500	0,5	12,052900
2,941833	0,5	12,035300
2,950167	0,5	12,112450
2,958500	0,5	12,308300
2,966833	0,5	12,506800
2,975167	0,5	12,591050
2,983500	0,5	12,501850
2,991833	0,5	12,277700
3,000167	0,5	11,989300
3,008500	0,5	11,783800
3,016833	0,5	11,882950
3,025167	0,5	12,613750
3,033500	0,5	13,918450
3,041833	0,5	15,252850
3,050167	0,5	16,052400
3,058500	0,5	16,119750
3,066833	0,5	15,654750
3,075167	0,5	14,922750
3,083500	0,5	14,116350
3,091833	0,5	13,343600
3,100167	0,5	12,606150
3,108500	0,5	11,931200
3,116833	0,5	11,325500
3,125167	0,5	10,774600
3,133500	0,5	10,284000
3,141833	0,5	9,853300
3,150167	0,5	9,476000
3,158500	0,5	9,144750
3,166833	0,5	8,866050
3,175167	0,5	8,621600
3,183500	0,5	8,408150
3,191833	0,5	8,225250
3,200167	0,5	8,075950
3,208500	0,5	7,918300
3,216833	0,5	7,789950
3,225167	0,5	7,668750
3,233500	0,5	7,563000
3,241833	0,5	7,460500
3,250167	0,5	7,360400
3,258500	0,5	7,271700
3,266833	0,5	7,209800
3,275167	0,5	7,175750
3,283500	0,5	7,155850
3,291833	0,5	7,150050
3,300167	0,5	7,133950
3,308500	0,5	7,108000
3,316833	0,5	7,057400
3,325167	0,5	7,000450
3,333500	0,5	6,947300
3,341833	0,5	6,933450
3,350167	0,5	6,947550
3,358500	0,5	7,030900
3,366833	0,5	7,215850
3,375167	0,5	7,544350
3,383500	0,5	8,047900
3,391833	0,5	8,720050
3,400167	0,5	9,500800
3,408500	0,5	10,283150
3,416833	0,5	10,908600
3,425167	0,5	11,276300
3,433500	0,5	11,344700
3,441833	0,5	11,190550
3,450167	0,5	10,949000
3,458500	0,5	10,762200
3,466833	0,5	10,705500
3,475167	0,5	10,765550
3,483500	0,5	10,865900
3,491833	0,5	10,868750
3,500167	0,5	10,655700
3,508500	0,5	10,210900
3,516833	0,5	9,594350
3,525167	0,5	8,890550
3,533500	0,5	8,226250
3,541833	0,5	7,646550
3,550167	0,5	7,215350
3,558500	0,5	6,923300
3,566833	0,5	6,755700
3,575167	0,5	6,662500
3,583500	0,5	6,618350
3,591833	0,5	6,594350
3,600167	0,5	6,578050
3,608500	0,5	6,575150
3,616833	0,5	6,593000
3,625167	0,5	6,645100
3,633500	0,5	6,750100
3,641833	0,5	6,890650
3,650167	0,5	7,035850
3,658500	0,5	7,172500
3,666833	0,5	7,260150
3,675167	0,5	7,292200
3,683500	0,5	7,241900
3,691833	0,5	7,126250
3,700167	0,5	6,954450
3,708500	0,5	6,782950
3,716833	0,5	6,607050
3,725167	0,5	6,454450
3,733500	0,5	6,317500
3,741833	0,5	6,205150
3,750167	0,5	6,111800
3,758500	0,5	6,040250
3,766833	0,5	5,983850
3,775167	0,5	5,942850
3,783500	0,5	5,944650
3,791833	0,5	5,948550
3,800167	0,5	5,976200
3,808500	0,5	6,034850
3,816833	0,5	6,099700
3,825167	0,5	6,172900
3,833500	0,5	6,203600
3,841833	0,5	6,194150
3,850167	0,5	6,147500
3,858500	0,5	6,058800
3,866833	0,5	5,947950
3,875167	0,5	5,827650
3,883500	0,5	5,719450
3,891833	0,5	5,617950
3,900167	0,5	5,545550
3,908500	0,5	5,486800
3,916833	0,5	5,447950
3,925167	0,5	5,418350
3,933500	0,5	5,418900
3,941833	0,5	5,392000
3,950167	0,5	5,383200
3,958500	0,5	5,372850
3,966833	0,5	5,372150
3,975167	0,5	5,380900
3,983500	0,5	5,375150
3,991833	0,5	5,370600
4,000167	0,5	5,375050
4,008500	0,5	5,382550
4,016833	0,5	5,386900
4,025167	0,5	5,397250
4,033500	0,5	5,395800
4,041833	0,5	5,396600
4,050167	0,5	5,387200
4,058500	0,5	5,375350
4,066833	0,5	5,343400
4,075167	0,5	5,321450
4,083500	0,5	5,304100
4,091833	0,5	5,263050
4,100167	0,5	5,235750
4,108500	0,5	5,218150
4,116833	0,5	5,206800
4,125167	0,5	5,204850
4,133500	0,5	5,172200
4,141833	0,5	5,106350
4,150167	0,5	5,019250
4,158500	0,5	4,904800
4,166833	0,5	4,785100
4,175167	0,5	4,659300
4,183500	0,5	4,530200
4,191833	0,5	4,395350
4,200167	0,5	4,275850
4,208500	0,5	4,161500
4,216833	0,5	4,066800
4,225167	0,5	3,994800
4,233500	0,5	3,948100
4,241833	0,5	3,913000
4,250167	0,5	3,912700
4,258500	0,5	3,927950
4,266833	0,5	3,963650
4,275167	0,5	4,000700
4,283500	0,5	4,026650
4,291833	0,5	4,022850
4,300167	0,5	4,023450
4,308500	0,5	3,996700
4,316833	0,5	3,965700
4,325167	0,5	3,932400
4,333500	0,5	3,904150
4,341833	0,5	3,896600
4,350167	0,5	3,909050
4,358500	0,5	3,954200
4,366833	0,5	4,032400
4,375167	0,5	4,161850
4,383500	0,5	4,309150
4,391833	0,5	4,482150
4,400167	0,5	4,662350
4,408500	0,5	4,821500
4,416833	0,5	4,938100
4,425167	0,5	4,981250
4,433500	0,5	4,936750
4,441833	0,5	4,833500
4,450167	0,5	4,672900
4,458500	0,5	4,500550
4,466833	0,5	4,313900
4,475167	0,5	4,151650
4,483500	0,5	4,009350
4,491833	0,5	3,895800
4,500167	0,5	3,813100
4,508500	0,5	3,738900
4,516833	0,5	3,696200
4,525167	0,5	3,667250
4,533500	0,5	3,638750
4,541833	0,5	3,624750
4,550167	0,5	3,623750
4,558500	0,5	3,632400
4,566833	0,5	3,651250
4,575167	0,5	3,652700
4,583500	0,5	3,651450
4,591833	0,5	3,630550
4,600167	0,5	3,608700
4,608500	0,5	3,563450
4,616833	0,5	3,516350
4,625167	0,5	3,455350
4,633500	0,5	3,398300
4,641833	0,5	3,342200
4,650167	0,5	3,291100
4,658500	0,5	3,245250
4,666833	0,5	3,217000
4,675167	0,5	3,184950
4,683500	0,5	3,155800
4,691833	0,5	3,132750
4,700167	0,5	3,113450
4,708500	0,5	3,106250
4,716833	0,5	3,096750
4,725167	0,5	3,089850
4,733500	0,5	3,084700
4,741833	0,5	3,094550
4,750167	0,5	3,112450
4,758500	0,5	3,155550
4,766833	0,5	3,204900
4,775167	0,5	3,281850
4,783500	0,5	3,372200
4,791833	0,5	3,486100
4,800167	0,5	3,599600
4,808500	0,5	3,717700
4,816833	0,5	3,841400
4,825167	0,5	3,938450
4,833500	0,5	4,025900
4,841833	0,5	4,107150
4,850167	0,5	4,186200
4,858500	0,5	4,288850
4,866833	0,5	4,395600
4,875167	0,5	4,530350
4,883500	0,5	4,724800
4,891833	0,5	5,003000
4,900167	0,5	5,411100
4,908500	0,5	6,006450
4,916833	0,5	6,865000
4,925167	0,5	8,052150
4,933500	0,5	9,630300
4,941833	0,5	11,582700
4,950167	0,5	13,831100
4,958500	0,5	16,185950
4,966833	0,5	18,450100
4,975167	0,5	20,294650
4,983500	0,5	21,545450
4,991833	0,5	22,063750
5,000167	0,5	21,834500
5,008500	0,5	20,941100
5,016833	0,5	19,503950
5,025167	0,5	17,720500
5,033500	0,5	15,780850
5,041833	0,5	13,838100
5,050167	0,5	12,012550
5,058500	0,5	10,371850
5,066833	0,5	8,957700
5,075167	0,5	7,778950
5,083500	0,5	6,819650
5,091833	0,5	6,056250
5,100167	0,5	5,445600
5,108500	0,5	4,973750
5,116833	0,5	4,614050
5,125167	0,5	4,316750
5,133500	0,5	4,090500
5,141833	0,5	3,917900
5,150167	0,5	3,787150
5,158500	0,5	3,688500
5,166833	0,5	3,596950
5,175167	0,5	3,536100
5,183500	0,5	3,483500
5,191833	0,5	3,450600
5,200167	0,5	3,422950
5,208500	0,5	3,414250
5,216833	0,5	3,400600
5,225167	0,5	3,394200
5,233500	0,5	3,385400
5,241833	0,5	3,371500
5,250167	0,5	3,359300
5,258500	0,5	3,347200
5,266833	0,5	3,330450
5,275167	0,5	3,300600
5,283500	0,5	3,285400
5,291833	0,5	3,265850
5,300167	0,5	3,258100
5,308500	0,5	3,249500
5,316833	0,5	3,243600
5,325167	0,5	3,239750
5,333500	0,5	3,254850
5,341833	0,5	3,273850
5,350167	0,5	3,312150
5,358500	0,5	3,359000
5,366833	0,5	3,425900
5,375167	0,5	3,513500
5,383500	0,5	3,618100
5,391833	0,5	3,745300
5,400167	0,5	3,895950
5,408500	0,5	4,080750
5,416833	0,5	4,275700
5,425167	0,5	4,489150
5,433500	0,5	4,721600
5,441833	0,5	4,958200
5,450167	0,5	5,193000
5,458500	0,5	5,409150
5,466833	0,5	5,582150
5,475167	0,5	5,714050
5,483500	0,5	5,782350
5,491833	0,5	5,792650
5,500167	0,5	5,731350
5,508500	0,5	5,607400
5,516833	0,5	5,422800
5,525167	0,5	5,195350
5,533500	0,5	4,930250
5,541833	0,5	4,641450
5,550167	0,5	4,351150
5,558500	0,5	4,071100
5,566833	0,5	3,799750
5,575167	0,5	3,560300
5,583500	0,5	3,354250
5,591833	0,5	3,189000
5,600167	0,5	3,057800
5,608500	0,5	2,950650
5,616833	0,5	2,871650
5,625167	0,5	2,812550
5,633500	0,5	2,776150
5,641833	0,5	2,749050
5,650167	0,5	2,742800
5,658500	0,5	2,742700
5,666833	0,5	2,761850
5,675167	0,5	2,796950
5,683500	0,5	2,847550
5,691833	0,5	2,909050
5,700167	0,5	3,001100
5,708500	0,5	3,091400
5,716833	0,5	3,185400
5,725167	0,5	3,258800
5,733500	0,5	3,317200
5,741833	0,5	3,351800
5,750167	0,5	3,347450
5,758500	0,5	3,306250
5,766833	0,5	3,242850
5,775167	0,5	3,161650
5,783500	0,5	3,072250
5,791833	0,5	2,985400
5,800167	0,5	2,903700
5,808500	0,5	2,835350
5,816833	0,5	2,773900
5,825167	0,5	2,728700
5,833500	0,5	2,686750
5,841833	0,5	2,651800
5,850167	0,5	2,624300
5,858500	0,5	2,586150
5,866833	0,5	2,550950
5,875167	0,5	2,511750
5,883500	0,5	2,478100
5,891833	0,5	2,453350
5,900167	0,5	2,423000
5,908500	0,5	2,395400
5,916833	0,5	2,371100
5,925167	0,5	2,351900
5,933500	0,5	2,335250
5,941833	0,5	2,321100
5,950167	0,5	2,314800
5,958500	0,5	2,299550
5,966833	0,5	2,291450
5,975167	0,5	2,284500
5,983500	0,5	2,287100
5,991833	0,5	2,282050
6,000167	0,5	2,295400
6,008500	0,5	2,293650
6,016833	0,5	2,301950
6,025167	0,5	2,310400
6,033500	0,5	2,321750
6,041833	0,5	2,335850
6,050167	0,5	2,335700
6,058500	0,5	2,324650
6,066833	0,5	2,315500
6,075167	0,5	2,297700
6,083500	0,5	2,280650
6,091833	0,5	2,259050
6,100167	0,5	2,242250
6,108500	0,5	2,225250
6,116833	0,5	2,213650
6,125167	0,5	2,204800
6,133500	0,5	2,203650
6,141833	0,5	2,204300
6,150167	0,5	2,211500
6,158500	0,5	2,212500
6,166833	0,5	2,218450
6,175167	0,5	2,230100
6,183500	0,5	2,246550
6,191833	0,5	2,274150
6,200167	0,5	2,295750
6,208500	0,5	2,323150
6,216833	0,5	2,355850
6,225167	0,5	2,396950
6,233500	0,5	2,435450
6,241833	0,5	2,475400
6,250167	0,5	2,505550
6,258500	0,5	2,527750
6,266833	0,5	2,531400
6,275167	0,5	2,532600
6,283500	0,5	2,521350
6,291833	0,5	2,525000
6,300167	0,5	2,540050
6,308500	0,5	2,581450
6,316833	0,5	2,660400
6,325167	0,5	2,779850
6,333500	0,5	2,943050
6,341833	0,5	3,136850
6,350167	0,5	3,350850
6,358500	0,5	3,568450
6,366833	0,5	3,796050
6,375167	0,5	4,014800
6,383500	0,5	4,237600
6,391833	0,5	4,459550
6,400167	0,5	4,712400
6,408500	0,5	5,025300
6,416833	0,5	5,448100
6,425167	0,5	6,053200
6,433500	0,5	6,947550
6,441833	0,5	8,274650
6,450167	0,5	10,207600
6,458500	0,5	12,909150
6,466833	0,5	16,501500
6,475167	0,5	20,949850
6,483500	0,5	26,039600
6,491833	0,5	31,339400
6,500167	0,5	36,289301
6,508500	0,5	40,303101
6,516833	0,5	42,887601
6,525167	0,5	43,726151
6,533500	0,5	42,734601
6,541833	0,5	40,118651
6,550167	0,5	36,230251
6,558500	0,5	31,577850
6,566833	0,5	26,644550
6,575167	0,5	21,860850
6,583500	0,5	17,542550
6,591833	0,5	13,867250
6,600167	0,5	10,881500
6,608500	0,5	8,591350
6,616833	0,5	6,888200
6,625167	0,5	5,686700
6,633500	0,5	4,847850
6,641833	0,5	4,272650
6,650167	0,5	3,885750
6,658500	0,5	3,620700
6,666833	0,5	3,430950
6,675167	0,5	3,287250
6,683500	0,5	3,167000
6,691833	0,5	3,060500
6,700167	0,5	2,965750
6,708500	0,5	2,882100
6,716833	0,5	2,809750
6,725167	0,5	2,733000
6,733500	0,5	2,682550
6,741833	0,5	2,626400
6,750167	0,5	2,583700
6,758500	0,5	2,545450
6,766833	0,5	2,515200
6,775167	0,5	2,490250
6,783500	0,5	2,470350
6,791833	0,5	2,444400
6,800167	0,5	2,419100
6,808500	0,5	2,387050
6,816833	0,5	2,364150
6,825167	0,5	2,339100
6,833500	0,5	2,313000
6,841833	0,5	2,292150
6,850167	0,5	2,273800
6,858500	0,5	2,263700
6,866833	0,5	2,251250
6,875167	0,5	2,244100
6,883500	0,5	2,244750
6,891833	0,5	2,236600
6,900167	0,5	2,239750
6,908500	0,5	2,244900
6,916833	0,5	2,250950
6,925167	0,5	2,268350
6,933500	0,5	2,276300
6,941833	0,5	2,289050
6,950167	0,5	2,296100
6,958500	0,5	2,316150
6,966833	0,5	2,332750
6,975167	0,5	2,356100
6,983500	0,5	2,385600
6,991833	0,5	2,413800
7,000167	0,5	2,431850
7,008500	0,5	2,439550
7,016833	0,5	2,426200
7,025167	0,5	2,392550
7,033500	0,5	2,354900
7,041833	0,5	2,297650
7,050167	0,5	2,245850
7,058500	0,5	2,196400
7,066833	0,5	2,161850
7,075167	0,5	2,139450
7,083500	0,5	2,124850
7,091833	0,5	2,117950
7,100167	0,5	2,109850
7,108500	0,5	2,113250
7,116833	0,5	2,116600
7,125167	0,5	2,115950
7,133500	0,5	2,116150
7,141833	0,5	2,111600
7,150167	0,5	2,113250
7,158500	0,5	2,119400
7,166833	0,5	2,138550
7,175167	0,5	2,170100
7,183500	0,5	2,218200
7,191833	0,5	2,277700
7,200167	0,5	2,351350
7,208500	0,5	2,436600
7,216833	0,5	2,517500
7,225167	0,5	2,584150
7,233500	0,5	2,612800
7,241833	0,5	2,613750
7,250167	0,5	2,584150
7,258500	0,5	2,551850
7,266833	0,5	2,530650
7,275167	0,5	2,532550
7,283500	0,5	2,554250
7,291833	0,5	2,599200
7,300167	0,5	2,653900
7,308500	0,5	2,708950
7,316833	0,5	2,744850
7,325167	0,5	2,761250
7,333500	0,5	2,738450
7,341833	0,5	2,683300
7,350167	0,5	2,611300
7,358500	0,5	2,530050
7,366833	0,5	2,455300
7,375167	0,5	2,386350
7,383500	0,5	2,327450
7,391833	0,5	2,277450
7,400167	0,5	2,239050
7,408500	0,5	2,207750
7,416833	0,5	2,184950
7,425167	0,5	2,163600
7,433500	0,5	2,150050
7,441833	0,5	2,136300
7,450167	0,5	2,131650
7,458500	0,5	2,129700
7,466833	0,5	2,137400
7,475167	0,5	2,164500
7,483500	0,5	2,186650
7,491833	0,5	2,224150
7,500167	0,5	2,271150
7,508500	0,5	2,328200
7,516833	0,5	2,403350
7,525167	0,5	2,492000
7,533500	0,5	2,592100
7,541833	0,5	2,710600
7,550167	0,5	2,855250
7,558500	0,5	3,024500
7,566833	0,5	3,236400
7,575167	0,5	3,492750
7,583500	0,5	3,809950
7,591833	0,5	4,215000
7,600167	0,5	4,737450
7,608500	0,5	5,408050
7,616833	0,5	6,279600
7,625167	0,5	7,407500
7,633500	0,5	8,822550
7,641833	0,5	10,577150
7,650167	0,5	12,671900
7,658500	0,5	15,050950
7,666833	0,5	17,585000
7,675167	0,5	20,066300
7,683500	0,5	22,246550
7,691833	0,5	23,872050
7,700167	0,5	24,712900
7,708500	0,5	24,647900
7,716833	0,5	23,670350
7,725167	0,5	21,902150
7,733500	0,5	19,562750
7,741833	0,5	16,914050
7,750167	0,5	14,224300
7,758500	0,5	11,702100
7,766833	0,5	9,505500
7,775167	0,5	7,691150
7,783500	0,5	6,273150
7,791833	0,5	5,215000
7,800167	0,5	4,463250
7,808500	0,5	3,954450
7,816833	0,5	3,639000
7,825167	0,5	3,463400
7,833500	0,5	3,404650
7,841833	0,5	3,442750
7,850167	0,5	3,561700
7,858500	0,5	3,739400
7,866833	0,5	3,954000
7,875167	0,5	4,171600
7,883500	0,5	4,364000
7,891833	0,5	4,491150
7,900167	0,5	4,549700
7,908500	0,5	4,527150
7,916833	0,5	4,452050
7,925167	0,5	4,327050
7,933500	0,5	4,176400
7,941833	0,5	4,026950
7,950167	0,5	3,886550
7,958500	0,5	3,773350
7,966833	0,5	3,680400
7,975167	0,5	3,603250
7,983500	0,5	3,528450
7,991833	0,5	3,450450
8,000167	0,5	3,351650
8,008500	0,5	3,242550
8,016833	0,5	3,124850
8,025167	0,5	3,013600
8,033500	0,5	2,920700
8,041833	0,5	2,852700
8,050167	0,5	2,812100
8,058500	0,5	2,800450
8,066833	0,5	2,818000
8,075167	0,5	2,858050
8,083500	0,5	2,918650
8,091833	0,5	2,990600
8,100167	0,5	3,052900
8,108500	0,5	3,103150
8,116833	0,5	3,116200
8,125167	0,5	3,091500
8,133500	0,5	3,042200
8,141833	0,5	2,985800
8,150167	0,5	2,932900
8,158500	0,5	2,893150
8,166833	0,5	2,871550
8,175167	0,5	2,861450
8,183500	0,5	2,866550
8,191833	0,5	2,883900
8,200167	0,5	2,907900
8,208500	0,5	2,942350
8,216833	0,5	2,985900
8,225167	0,5	3,038450
8,233500	0,5	3,113050
8,241833	0,5	3,210200
8,250167	0,5	3,341350
8,258500	0,5	3,510900
8,266833	0,5	3,715200
8,275167	0,5	3,952000
8,283500	0,5	4,234250
8,291833	0,5	4,596300
8,300167	0,5	5,121200
8,308500	0,5	5,963400
8,316833	0,5	7,394950
8,325167	0,5	9,787250
8,333500	0,5	13,518450
8,341833	0,5	18,786350
8,350167	0,5	25,352100
8,358500	0,5	32,425650
8,366833	0,5	38,740651
8,375167	0,5	43,026251
8,383500	0,5	44,421451
8,391833	0,5	42,762651
8,400167	0,5	38,558501
8,408500	0,5	32,766550
8,416833	0,5	26,444200
8,425167	0,5	20,467000
8,433500	0,5	15,391550
8,441833	0,5	11,422850
8,450167	0,5	8,535600
8,458500	0,5	6,547400
8,466833	0,5	5,239000
8,475167	0,5	4,407200
8,483500	0,5	3,886200
8,491833	0,5	3,564600
8,500167	0,5	3,360750
8,508500	0,5	3,235650
8,516833	0,5	3,153700
8,525167	0,5	3,092050
8,533500	0,5	3,050900
8,541833	0,5	3,011900
8,550167	0,5	2,983900
8,558500	0,5	2,948500
8,566833	0,5	2,916200
8,575167	0,5	2,891150
8,583500	0,5	2,874900
8,591833	0,5	2,893200
8,600167	0,5	2,940600
8,608500	0,5	3,013350
8,616833	0,5	3,092600
8,625167	0,5	3,139500
8,633500	0,5	3,130850
8,641833	0,5	3,057350
8,650167	0,5	2,940300
8,658500	0,5	2,806300
8,666833	0,5	2,669800
8,675167	0,5	2,550500
8,683500	0,5	2,467250
8,691833	0,5	2,419550
8,700167	0,5	2,397450
8,708500	0,5	2,384350
8,716833	0,5	2,375450
8,725167	0,5	2,352950
8,733500	0,5	2,320550
8,741833	0,5	2,286400
8,750167	0,5	2,254300
8,758500	0,5	2,233000
8,766833	0,5	2,230750
8,775167	0,5	2,241200
8,783500	0,5	2,256600
8,791833	0,5	2,267300
8,800167	0,5	2,271150
8,808500	0,5	2,268600
8,816833	0,5	2,256700
8,825167	0,5	2,241500
8,833500	0,5	2,238550
8,841833	0,5	2,252250
8,850167	0,5	2,291650
8,858500	0,5	2,339150
8,866833	0,5	2,388150
8,875167	0,5	2,436300
8,883500	0,5	2,468350
8,891833	0,5	2,480700
8,900167	0,5	2,473600
8,908500	0,5	2,455500
8,916833	0,5	2,418550
8,925167	0,5	2,369750
8,933500	0,5	2,312950
8,941833	0,5	2,245650
8,950167	0,5	2,182950
8,958500	0,5	2,122650
8,966833	0,5	2,066850
8,975167	0,5	2,022600
8,983500	0,5	2,000300
8,991833	0,5	1,998900
9,000167	0,5	2,031050
9,008500	0,5	2,085150
9,016833	0,5	2,154500
9,025167	0,5	2,213150
9,033500	0,5	2,252400
9,041833	0,5	2,257750
9,050167	0,5	2,240250
9,058500	0,5	2,203450
9,066833	0,5	2,169950
9,075167	0,5	2,143950
9,083500	0,5	2,127150
9,091833	0,5	2,114350
9,100167	0,5	2,111300
9,108500	0,5	2,112400
9,116833	0,5	2,118400
9,125167	0,5	2,129900
9,133500	0,5	2,139950
9,141833	0,5	2,155750
9,150167	0,5	2,174850
9,158500	0,5	2,186450
9,166833	0,5	2,195650
9,175167	0,5	2,191700
9,183500	0,5	2,169950
9,191833	0,5	2,137600
9,200167	0,5	2,093650
9,208500	0,5	2,044300
9,216833	0,5	1,996050
9,225167	0,5	1,956450
9,233500	0,5	1,919950
9,241833	0,5	1,892150
9,250167	0,5	1,873050
9,258500	0,5	1,858750
9,266833	0,5	1,846650
9,275167	0,5	1,838050
9,283500	0,5	1,826100
9,291833	0,5	1,817400
9,300167	0,5	1,814700
9,308500	0,5	1,804750
9,316833	0,5	1,799250
9,325167	0,5	1,804050
9,333500	0,5	1,821750
9,341833	0,5	1,860950
9,350167	0,5	1,924250
9,358500	0,5	2,007900
9,366833	0,5	2,107250
9,375167	0,5	2,204700
9,383500	0,5	2,289750
9,391833	0,5	2,358900
9,400167	0,5	2,406750
9,408500	0,5	2,431350
9,416833	0,5	2,433350
9,425167	0,5	2,413900
9,433500	0,5	2,375150
9,441833	0,5	2,321400
9,450167	0,5	2,262500
9,458500	0,5	2,195050
9,466833	0,5	2,131100
9,475167	0,5	2,072000
9,483500	0,5	2,015600
9,491833	0,5	1,965350
9,500167	0,5	1,920550
9,508500	0,5	1,884950
9,516833	0,5	1,853000
9,525167	0,5	1,833850
9,533500	0,5	1,822100
9,541833	0,5	1,817600
9,550167	0,5	1,817900
9,558500	0,5	1,824700
9,566833	0,5	1,834850
9,575167	0,5	1,847200
9,583500	0,5	1,871050
9,591833	0,5	1,903500
9,600167	0,5	1,938850
9,608500	0,5	1,982250
9,616833	0,5	2,018650
9,625167	0,5	2,051750
9,633500	0,5	2,067200
9,641833	0,5	2,063750
9,650167	0,5	2,058550
9,658500	0,5	2,043900
9,666833	0,5	2,028700
9,675167	0,5	2,014650
9,683500	0,5	1,991100
9,691833	0,5	1,966900
9,700167	0,5	1,936100
9,708500	0,5	1,898800
9,716833	0,5	1,875000
9,725167	0,5	1,861850
9,733500	0,5	1,865600
9,741833	0,5	1,890850
9,750167	0,5	1,932300
9,758500	0,5	1,990600
9,766833	0,5	2,070150
9,775167	0,5	2,176400
9,783500	0,5	2,301800
9,791833	0,5	2,444450
9,800167	0,5	2,588250
9,808500	0,5	2,738150
9,816833	0,5	2,919600
9,825167	0,5	3,148850
9,833500	0,5	3,447550
9,841833	0,5	3,823500
9,850167	0,5	4,252800
9,858500	0,5	4,669650
9,866833	0,5	5,020500
9,875167	0,5	5,262600
9,883500	0,5	5,375400
9,891833	0,5	5,361900
9,900167	0,5	5,244500
9,908500	0,5	5,047150
9,916833	0,5	4,795750
9,925167	0,5	4,514750
9,933500	0,5	4,214250
9,941833	0,5	3,907850
9,950167	0,5	3,612100
9,958500	0,5	3,333650
9,966833	0,5	3,079000
9,975167	0,5	2,873350
9,983500	0,5	2,710400
9,991833	0,5	2,588900
10,000167	0,5	2,500300
10,008500	0,5	2,421950
10,016833	0,5	2,355350
10,025167	0,5	2,293350
10,033500	0,5	2,242900
10,041833	0,5	2,192100
10,050167	0,5	2,151400
10,058500	0,5	2,127200
10,066833	0,5	2,120950
10,075167	0,5	2,140100
10,083500	0,5	2,183750
10,091833	0,5	2,249250
10,100167	0,5	2,324550
10,108500	0,5	2,390200
10,116833	0,5	2,435500
10,125167	0,5	2,455550
10,133500	0,5	2,455500
10,141833	0,5	2,446050
10,150167	0,5	2,429550
10,158500	0,5	2,419950
10,166833	0,5	2,413050
10,175167	0,5	2,402900
10,183500	0,5	2,399250
10,191833	0,5	2,388650
10,200167	0,5	2,375700
10,208500	0,5	2,364950
10,216833	0,5	2,356250
10,225167	0,5	2,353950
10,233500	0,5	2,362100
10,241833	0,5	2,380650
10,250167	0,5	2,410350
10,258500	0,5	2,459200
10,266833	0,5	2,511050
10,275167	0,5	2,564400
10,283500	0,5	2,621650
10,291833	0,5	2,681700
10,300167	0,5	2,738200
10,308500	0,5	2,810500
10,316833	0,5	2,898350
10,325167	0,5	2,991100
10,333500	0,5	3,069450
10,341833	0,5	3,119100
10,350167	0,5	3,134000
10,358500	0,5	3,138200
10,366833	0,5	3,144400
10,375167	0,5	3,139400
10,383500	0,5	3,111800
10,391833	0,5	3,091500
10,400167	0,5	3,093850
10,408500	0,5	3,129850
10,416833	0,5	3,208150
10,425167	0,5	3,362700
10,433500	0,5	3,637750
10,441833	0,5	4,133300
10,450167	0,5	5,218550
10,458500	0,5	6,843850
10,466833	0,5	8,123250
10,475167	0,5	8,469250
10,483500	0,5	8,204400
10,491833	0,5	7,207900
10,500167	0,5	5,355950
10,508500	0,5	3,475350
10,516833	0,5	2,302100
10,525167	0,5	1,688550
10,533500	0,5	1,354600
10,541833	0,5	1,153950
10,550167	0,5	1,028650
10,558500	0,5	0,943650
10,566833	0,5	0,877850
10,575167	0,5	0,827700
10,583500	0,5	0,786950
10,591833	0,5	0,745950
10,600167	0,5	0,701250
10,608500	0,5	0,661400
10,616833	0,5	0,623300
10,625167	0,5	0,586300
10,633500	0,5	0,551600
10,641833	0,5	0,518350
10,650167	0,5	0,487900
10,658500	0,5	0,461100
10,666833	0,5	0,436650
10,675167	0,5	0,416000
10,683500	0,5	0,400900
10,691833	0,5	0,385400
10,700167	0,5	0,376950
10,708500	0,5	0,371850
10,716833	0,5	0,360850
10,725167	0,5	0,363350
10,733500	0,5	0,361950
10,741833	0,5	0,359050
10,750167	0,5	0,355400
10,758500	0,5	0,342750
10,766833	0,5	0,340050
10,775167	0,5	0,328850
10,783500	0,5	0,319000
10,791833	0,5	0,302600
10,800167	0,5	0,291850
10,808500	0,5	0,273950
10,816833	0,5	0,260200
10,825167	0,5	0,246900
10,833500	0,5	0,236150
10,841833	0,5	0,228250
10,850167	0,5	0,218800
10,858500	0,5	0,206500
10,866833	0,5	0,195800
10,875167	0,5	0,188900
10,883500	0,5	0,180700
10,891833	0,5	0,169550
10,900167	0,5	0,157900
10,908500	0,5	0,150500
10,916833	0,5	0,145050
10,925167	0,5	0,139350
10,933500	0,5	0,133150
10,941833	0,5	0,123950
10,950167	0,5	0,118650
10,958500	0,5	0,112850
10,966833	0,5	0,104500
10,975167	0,5	0,098300
10,983500	0,5	0,091400
10,991833	0,5	0,083200
11,000167	0,5	0,081000
11,008500	0,5	0,071650
11,016833	0,5	0,065200
11,025167	0,5	0,064500
11,033500	0,5	0,054300
11,041833	0,5	0,050550
11,050167	0,5	0,046550
11,058500	0,5	0,040650
11,066833	0,5	0,041100
11,075167	0,5	0,044700
11,083500	0,5	0,045050
11,091833	0,5	0,045800
11,100167	0,5	0,046650
11,108500	0,5	0,045800
11,116833	0,5	0,045050
11,125167	0,5	0,045400
11,133500	0,5	0,041350
11,141833	0,5	0,040550
11,150167	0,5	0,037400
11,158500	0,5	0,029400
11,166833	0,5	0,029500
11,175167	0,5	0,026300
11,183500	0,5	0,019450
11,191833	0,5	0,014200
11,200167	0,5	0,010900
11,208500	0,5	0,007950
11,216833	0,5	0,009550
11,225167	0,5	0,008350
11,233500	0,5	0,008200
11,241833	0,5	0,007300
11,250167	0,5	0,007850
11,258500	0,5	0,003950
11,266833	0,5	0,006000
11,275167	0,5	0,006050
11,283500	0,5	0,009550
11,291833	0,5	0,012150
11,300167	0,5	0,008700
11,308500	0,5	0,008200
11,316833	0,5	0,011600
11,325167	0,5	0,013850
11,333500	0,5	0,015100
11,341833	0,5	0,017450
11,350167	0,5	0,016850
11,358500	0,5	0,022650
11,366833	0,5	0,029200
11,375167	0,5	0,038250
11,383500	0,5	0,044500
11,391833	0,5	0,052300
11,400167	0,5	0,061900
11,408500	0,5	0,071850
11,416833	0,5	0,078550
11,425167	0,5	0,086450
11,433500	0,5	0,096450
11,441833	0,5	0,106850
11,450167	0,5	0,114100
11,458500	0,5	0,120400
11,466833	0,5	0,130700
11,475167	0,5	0,135000
11,483500	0,5	0,140750
11,491833	0,5	0,137800
11,500167	0,5	0,140950
11,508500	0,5	0,147800
11,516833	0,5	0,150350
11,525167	0,5	0,146350
11,533500	0,5	0,145650
11,541833	0,5	0,143400
11,550167	0,5	0,136300
11,558500	0,5	0,130600
11,566833	0,5	0,128300
11,575167	0,5	0,119600
11,583500	0,5	0,113750
11,591833	0,5	0,109600
11,600167	0,5	0,098200
11,608500	0,5	0,097400
11,616833	0,5	0,091050
11,625167	0,5	0,084200
11,633500	0,5	0,077100
11,641833	0,5	0,066850
11,650167	0,5	0,066050
11,658500	0,5	0,062200
11,666833	0,5	0,057000
11,675167	0,5	0,051500
11,683500	0,5	0,048100
11,691833	0,5	0,045750
11,700167	0,5	0,040900
11,708500	0,5	0,042300
11,716833	0,5	0,039050
11,725167	0,5	0,034750
11,733500	0,5	0,035600
11,741833	0,5	0,033000
11,750167	0,5	0,027650
11,758500	0,5	0,031100
11,766833	0,5	0,032850
11,775167	0,5	0,031050
11,783500	0,5	0,028700
11,791833	0,5	0,024950
11,800167	0,5	0,034750
11,808500	0,5	0,035600
11,816833	0,5	0,041150
11,825167	0,5	0,044750
11,833500	0,5	0,050950
11,841833	0,5	0,051400
11,850167	0,5	0,059200
11,858500	0,5	0,062850
11,866833	0,5	0,066500
11,875167	0,5	0,077050
11,883500	0,5	0,087700
11,891833	0,5	0,090950
11,900167	0,5	0,097050
11,908500	0,5	0,105100
11,916833	0,5	0,108300
11,925167	0,5	0,112700
11,933500	0,5	0,116750
11,941833	0,5	0,116850
11,950167	0,5	0,125050
11,958500	0,5	0,128650
11,966833	0,5	0,134100
11,975167	0,5	0,134750
11,983500	0,5	0,137250
11,991833	0,5	0,143550
12,000167	0,5	0,140550
12,008500	0,5	0,141650
12,016833	0,5	0,138150
12,025167	0,5	0,140600
12,033500	0,5	0,140650
12,041833	0,5	0,140750
12,050167	0,5	0,135900
12,058500	0,5	0,142450
12,066833	0,5	0,137400
12,075167	0,5	0,137500
12,083500	0,5	0,131900
12,091833	0,5	0,133250
12,100167	0,5	0,138900
12,108500	0,5	0,144800
12,116833	0,5	0,146100
12,125167	0,5	0,149350
12,133500	0,5	0,157300
12,141833	0,5	0,164050
12,150167	0,5	0,170650
12,158500	0,5	0,177200
12,166833	0,5	0,192450
12,175167	0,5	0,207850
12,183500	0,5	0,226300
12,191833	0,5	0,243150
12,200167	0,5	0,272800
12,208500	0,5	0,296700
12,216833	0,5	0,319000
12,225167	0,5	0,336950
12,233500	0,5	0,353700
12,241833	0,5	0,366550
12,250167	0,5	0,378050
12,258500	0,5	0,382500
12,266833	0,5	0,383500
12,275167	0,5	0,378850
12,283500	0,5	0,372500
12,291833	0,5	0,360900
12,300167	0,5	0,355050
12,308500	0,5	0,345450
12,316833	0,5	0,340300
12,325167	0,5	0,341600
12,333500	0,5	0,330100
12,341833	0,5	0,327550
12,350167	0,5	0,330900
12,358500	0,5	0,331250
12,366833	0,5	0,330800
12,375167	0,5	0,330300
12,383500	0,5	0,331550
12,391833	0,5	0,340050
12,400167	0,5	0,342600
12,408500	0,5	0,351500
12,416833	0,5	0,358700
12,425167	0,5	0,371250
12,433500	0,5	0,376850
12,441833	0,5	0,388900
12,450167	0,5	0,397200
12,458500	0,5	0,406400
12,466833	0,5	0,414500
12,475167	0,5	0,420650
12,483500	0,5	0,422200
12,491833	0,5	0,433650
12,500167	0,5	0,442850
12,508500	0,5	0,449050
12,516833	0,5	0,453600
12,525167	0,5	0,456750
12,533500	0,5	0,468700
12,541833	0,5	0,481950
12,550167	0,5	0,495550
12,558500	0,5	0,515650
12,566833	0,5	0,539150
12,575167	0,5	0,559550
12,583500	0,5	0,585000
12,591833	0,5	0,601850
12,600167	0,5	0,618500
12,608500	0,5	0,627950
12,616833	0,5	0,631750
12,625167	0,5	0,635400
12,633500	0,5	0,627100
12,641833	0,5	0,629350
12,650167	0,5	0,626750
12,658500	0,5	0,623300
12,666833	0,5	0,618400
12,675167	0,5	0,616750
12,683500	0,5	0,620450
12,691833	0,5	0,626600
12,700167	0,5	0,628300
12,708500	0,5	0,635850
12,716833	0,5	0,640400
12,725167	0,5	0,649750
12,733500	0,5	0,661700
12,741833	0,5	0,671300
12,750167	0,5	0,685200
12,758500	0,5	0,695900
12,766833	0,5	0,706300
12,775167	0,5	0,719500
12,783500	0,5	0,718900
12,791833	0,5	0,730650
12,800167	0,5	0,738000
12,808500	0,5	0,740050
12,816833	0,5	0,745950
12,825167	0,5	0,752450
12,833500	0,5	0,771500
12,841833	0,5	0,780800
12,850167	0,5	0,794950
12,858500	0,5	0,801000
12,866833	0,5	0,802250
12,875167	0,5	0,797100
12,883500	0,5	0,796650
12,891833	0,5	0,784300
12,900167	0,5	0,780450
12,908500	0,5	0,772850
12,916833	0,5	0,774700
12,925167	0,5	0,767800
12,933500	0,5	0,765000
12,941833	0,5	0,766300
12,950167	0,5	0,764350
12,958500	0,5	0,764450
12,966833	0,5	0,759800
12,975167	0,5	0,760900
12,983500	0,5	0,770850
12,991833	0,5	0,775100
13,000167	0,5	0,775900
13,008500	0,5	0,777600
13,016833	0,5	0,780250
13,025167	0,5	0,784400
13,033500	0,5	0,785700
13,041833	0,5	0,790800
13,050167	0,5	0,796050
13,058500	0,5	0,807050
13,066833	0,5	0,809200
13,075167	0,5	0,808000
13,083500	0,5	0,812050
13,091833	0,5	0,809600
13,100167	0,5	0,802050
13,108500	0,5	0,795200
13,116833	0,5	0,784350
13,125167	0,5	0,780500
13,133500	0,5	0,778650
13,141833	0,5	0,777100
13,150167	0,5	0,781050
13,158500	0,5	0,782100
13,166833	0,5	0,783550
13,175167	0,5	0,784100
13,183500	0,5	0,784450
13,191833	0,5	0,784150
13,200167	0,5	0,782900
13,208500	0,5	0,787200
13,216833	0,5	0,793550
13,225167	0,5	0,790250
13,233500	0,5	0,792850
13,241833	0,5	0,795400
13,250167	0,5	0,796000
13,258500	0,5	0,790500
13,266833	0,5	0,790100
13,275167	0,5	0,791800
13,283500	0,5	0,798450
13,291833	0,5	0,800100
13,300167	0,5	0,806300
13,308500	0,5	0,809100
13,316833	0,5	0,814800
13,325167	0,5	0,817350
13,333500	0,5	0,819950
13,341833	0,5	0,820300
13,350167	0,5	0,823850
13,358500	0,5	0,829350
13,366833	0,5	0,820250
13,375167	0,5	0,823150
13,383500	0,5	0,822750
13,391833	0,5	0,822000
13,400167	0,5	0,815500
13,408500	0,5	0,816350
13,416833	0,5	0,820150
13,425167	0,5	0,830150
13,433500	0,5	0,830750
13,441833	0,5	0,841900
13,450167	0,5	0,851200
13,458500	0,5	0,859600
13,466833	0,5	0,864700
13,475167	0,5	0,871150
13,483500	0,5	0,872300
13,491833	0,5	0,876300
13,500167	0,5	0,882950
13,508500	0,5	0,879200
13,516833	0,5	0,864600
13,525167	0,5	0,863600
13,533500	0,5	0,859750
13,541833	0,5	0,858400
13,550167	0,5	0,851150
13,558500	0,5	0,840800
13,566833	0,5	0,851200
13,575167	0,5	0,856250
13,583500	0,5	0,862750
13,591833	0,5	0,858350
13,600167	0,5	0,852000
13,608500	0,5	0,846300
13,616833	0,5	0,840350
13,625167	0,5	0,829900
13,633500	0,5	0,818400
13,641833	0,5	0,818200
13,650167	0,5	0,820650
13,658500	0,5	0,817750
13,666833	0,5	0,811300
13,675167	0,5	0,816250
13,683500	0,5	0,808000
13,691833	0,5	0,798650
13,700167	0,5	0,787850
13,708500	0,5	0,780900
13,716833	0,5	0,781100
13,725167	0,5	0,794250
13,733500	0,5	0,804900
13,741833	0,5	0,831900
13,750167	0,5	0,856100
13,758500	0,5	0,876450
13,766833	0,5	0,878550
13,775167	0,5	0,869600
13,783500	0,5	0,850550
13,791833	0,5	0,823850
13,800167	0,5	0,804350
13,808500	0,5	0,794400
13,816833	0,5	0,785450
13,825167	0,5	0,797150
13,833500	0,5	0,804250
13,841833	0,5	0,817250
13,850167	0,5	0,828500
13,858500	0,5	0,830650
13,866833	0,5	0,846450
13,875167	0,5	0,853000
13,883500	0,5	0,871200
13,891833	0,5	0,895300
13,900167	0,5	0,934250
13,908500	0,5	0,971350
13,916833	0,5	0,997650
13,925167	0,5	0,995150
13,933500	0,5	0,974850
13,941833	0,5	0,935200
13,950167	0,5	0,894000
13,958500	0,5	0,839500
13,966833	0,5	0,811150
13,975167	0,5	0,789500
13,983500	0,5	0,784050
13,991833	0,5	0,787100
14,000167	0,5	0,806600
14,008500	0,5	0,833550
14,016833	0,5	0,870650
14,025167	0,5	0,906050
14,033500	0,5	0,942350
14,041833	0,5	0,981200
14,050167	0,5	1,011450
14,058500	0,5	1,025300
14,066833	0,5	1,017950
14,075167	0,5	0,981500
14,083500	0,5	0,928400
14,091833	0,5	0,876750
14,100167	0,5	0,821250
14,108500	0,5	0,780300
14,116833	0,5	0,761100
14,125167	0,5	0,761000
14,133500	0,5	0,774850
14,141833	0,5	0,801800
14,150167	0,5	0,840300
14,158500	0,5	0,885250
14,166833	0,5	0,923450
14,175167	0,5	0,948900
14,183500	0,5	0,949000
14,191833	0,5	0,937900
14,200167	0,5	0,905500
14,208500	0,5	0,862350
14,216833	0,5	0,815400
14,225167	0,5	0,765050
14,233500	0,5	0,735800
14,241833	0,5	0,719000
14,250167	0,5	0,708500
14,258500	0,5	0,716450
14,266833	0,5	0,742700
14,275167	0,5	0,764900
14,283500	0,5	0,783500
14,291833	0,5	0,790100
14,300167	0,5	0,792200
14,308500	0,5	0,782700
14,316833	0,5	0,767200
14,325167	0,5	0,727750
14,333500	0,5	0,701750
14,341833	0,5	0,677850
14,350167	0,5	0,664200
14,358500	0,5	0,668850
14,366833	0,5	0,686900
14,375167	0,5	0,718600
14,383500	0,5	0,746850
14,391833	0,5	0,782900
14,400167	0,5	0,788000
14,408500	0,5	0,800300
14,416833	0,5	0,789000
14,425167	0,5	0,766400
14,433500	0,5	0,731950
14,441833	0,5	0,693900
14,450167	0,5	0,671700
14,458500	0,5	0,654500
14,466833	0,5	0,635950
14,475167	0,5	0,626650
14,483500	0,5	0,622800
14,491833	0,5	0,624350
14,500167	0,5	0,614450
14,508500	0,5	0,610650
14,516833	0,5	0,597450
14,525167	0,5	0,579750
14,533500	0,5	0,574950
14,541833	0,5	0,561550
14,550167	0,5	0,536900
14,558500	0,5	0,542150
14,566833	0,5	0,538450
14,575167	0,5	0,527800
14,583500	0,5	0,525600
14,591833	0,5	0,515200
14,600167	0,5	0,530400
14,608500	0,5	0,525200
14,616833	0,5	0,527000
14,625167	0,5	0,522600
14,633500	0,5	0,525350
14,641833	0,5	0,521650
14,650167	0,5	0,520650
14,658500	0,5	0,516650
14,666833	0,5	0,511800
14,675167	0,5	0,508250
14,683500	0,5	0,512800
14,691833	0,5	0,506200
14,700167	0,5	0,510000
14,708500	0,5	0,516400
14,716833	0,5	0,517150
14,725167	0,5	0,511900
14,733500	0,5	0,513800
14,741833	0,5	0,513350
14,750167	0,5	0,511750
14,758500	0,5	0,510600
14,766833	0,5	0,502250
14,775167	0,5	0,491150
14,783500	0,5	0,485150
14,791833	0,5	0,480100
14,800167	0,5	0,474500
14,808500	0,5	0,471250
14,816833	0,5	0,465200
14,825167	0,5	0,467450
14,833500	0,5	0,476200
14,841833	0,5	0,475650
14,850167	0,5	0,478450
14,858500	0,5	0,479950
14,866833	0,5	0,475100
14,875167	0,5	0,464450
14,883500	0,5	0,451200
14,891833	0,5	0,445950
14,900167	0,5	0,450700
14,908500	0,5	0,451550
14,916833	0,5	0,448500
14,925167	0,5	0,450150
14,933500	0,5	0,457750
14,941833	0,5	0,452500
14,950167	0,5	0,455950
14,958500	0,5	0,445550
14,966833	0,5	0,438150
14,975167	0,5	0,435500
14,983500	0,5	0,430450
14,991833	0,5	0,427050
15,000167	0,5	0,430050
15,008500	0,5	0,433700
15,016833	0,5	0,434100
15,025167	0,5	0,431000
15,033500	0,5	0,433350
15,041833	0,5	0,440800
15,050167	0,5	0,444700
15,058500	0,5	0,447400
15,066833	0,5	0,446500
15,075167	0,5	0,445250
15,083500	0,5	0,439250
15,091833	0,5	0,433600
15,100167	0,5	0,423200
15,108500	0,5	0,411850
15,116833	0,5	0,404200
15,125167	0,5	0,405300
15,133500	0,5	0,392350
15,141833	0,5	0,383800
15,150167	0,5	0,381450
15,158500	0,5	0,381050
15,166833	0,5	0,373100
15,175167	0,5	0,362650
15,183500	0,5	0,354800
15,191833	0,5	0,363400
15,200167	0,5	0,364500
15,208500	0,5	0,363750
15,216833	0,5	0,362650
15,225167	0,5	0,365850
15,233500	0,5	0,364450
15,241833	0,5	0,365300
15,250167	0,5	0,363300
15,258500	0,5	0,360350
15,266833	0,5	0,361500
15,275167	0,5	0,363950
15,283500	0,5	0,351850
15,291833	0,5	0,358200
15,300167	0,5	0,362850
15,308500	0,5	0,356150
15,316833	0,5	0,349850
15,325167	0,5	0,337250
15,333500	0,5	0,342250
15,341833	0,5	0,345600
15,350167	0,5	0,355300
15,358500	0,5	0,355100
15,366833	0,5	0,363200
15,375167	0,5	0,365000
15,383500	0,5	0,372050
15,391833	0,5	0,373600
15,400167	0,5	0,371150
15,408500	0,5	0,375350
15,416833	0,5	0,384350
15,425167	0,5	0,390200
15,433500	0,5	0,383050
15,441833	0,5	0,399800
15,450167	0,5	0,406800
15,458500	0,5	0,404400
15,466833	0,5	0,400150
15,475167	0,5	0,397400
15,483500	0,5	0,408550
15,491833	0,5	0,417100
15,500167	0,5	0,415950
15,508500	0,5	0,417750
15,516833	0,5	0,422750
15,525167	0,5	0,428300
15,533500	0,5	0,432200
15,541833	0,5	0,441250
15,550167	0,5	0,447300
15,558500	0,5	0,450400
15,566833	0,5	0,466100
15,575167	0,5	0,466000
15,583500	0,5	0,467350
15,591833	0,5	0,477250
15,600167	0,5	0,474450
15,608500	0,5	0,465000
15,616833	0,5	0,459700
15,625167	0,5	0,450250
15,633500	0,5	0,464650
15,641833	0,5	0,464550
15,650167	0,5	0,463450
15,658500	0,5	0,456100
15,666833	0,5	0,445250
15,675167	0,5	0,428950
15,683500	0,5	0,410000
15,691833	0,5	0,386950
15,700167	0,5	0,370200
15,708500	0,5	0,363300
15,716833	0,5	0,362850
15,725167	0,5	0,348400
15,733500	0,5	0,348450
15,741833	0,5	0,346500
15,750167	0,5	0,346250
15,758500	0,5	0,344350
15,766833	0,5	0,335450
15,775167	0,5	0,341750
15,783500	0,5	0,347600
15,791833	0,5	0,353150
15,800167	0,5	0,351100
15,808500	0,5	0,353850
15,816833	0,5	0,353450
15,825167	0,5	0,363450
15,833500	0,5	0,365250
15,841833	0,5	0,370150
15,850167	0,5	0,372400
15,858500	0,5	0,379000
15,866833	0,5	0,382450
15,875167	0,5	0,380850
15,883500	0,5	0,391400
15,891833	0,5	0,390800
15,900167	0,5	0,385150
15,908500	0,5	0,375550
15,916833	0,5	0,360450
15,925167	0,5	0,358000
15,933500	0,5	0,361700
15,941833	0,5	0,355650
15,950167	0,5	0,351300
15,958500	0,5	0,346400
15,966833	0,5	0,347700
15,975167	0,5	0,347350
15,983500	0,5	0,353350
15,991833	0,5	0,350700
16,000167	0,5	0,363150
16,008500	0,5	0,376200
16,016833	0,5	0,391800
16,025167	0,5	0,405300
16,033500	0,5	0,425350
16,041833	0,5	0,425150
16,050167	0,5	0,417450
16,058500	0,5	0,392250
16,066833	0,5	0,374450
16,075167	0,5	0,360000
16,083500	0,5	0,346550
16,091833	0,5	0,333650
16,100167	0,5	0,313750
16,108500	0,5	0,316050
16,116833	0,5	0,312850
16,125167	0,5	0,314750
16,133500	0,5	0,310750
16,141833	0,5	0,311650
16,150167	0,5	0,319300
16,158500	0,5	0,320950
16,166833	0,5	0,310850
16,175167	0,5	0,320600
16,183500	0,5	0,325350
16,191833	0,5	0,327650
16,200167	0,5	0,328650
16,208500	0,5	0,331900
16,216833	0,5	0,344950
16,225167	0,5	0,363700
16,233500	0,5	0,378000
16,241833	0,5	0,395300
16,250167	0,5	0,415250
16,258500	0,5	0,436250
16,266833	0,5	0,461550
16,275167	0,5	0,490250
16,283500	0,5	0,514800
16,291833	0,5	0,538000
16,300167	0,5	0,558900
16,308500	0,5	0,565600
16,316833	0,5	0,561450
16,325167	0,5	0,558450
16,333500	0,5	0,547400
16,341833	0,5	0,524900
16,350167	0,5	0,501350
16,358500	0,5	0,471700
16,366833	0,5	0,458500
16,375167	0,5	0,447150
16,383500	0,5	0,441000
16,391833	0,5	0,429850
16,400167	0,5	0,418200
16,408500	0,5	0,414300
16,416833	0,5	0,412250
16,425167	0,5	0,411600
16,433500	0,5	0,409200
16,441833	0,5	0,408650
16,450167	0,5	0,410050
16,458500	0,5	0,402950
16,466833	0,5	0,399300
16,475167	0,5	0,401250
16,483500	0,5	0,394000
16,491833	0,5	0,386250
16,500167	0,5	0,371700
16,508500	0,5	0,369800
16,516833	0,5	0,374650
16,525167	0,5	0,376900
16,533500	0,5	0,370900
16,541833	0,5	0,375950
16,550167	0,5	0,375450
16,558500	0,5	0,377050
16,566833	0,5	0,383900
16,575167	0,5	0,389250
16,583500	0,5	0,393500
16,591833	0,5	0,394900
16,600167	0,5	0,409450
16,608500	0,5	0,396800
16,616833	0,5	0,405200
16,625167	0,5	0,408550
16,633500	0,5	0,405000
16,641833	0,5	0,397400
16,650167	0,5	0,383250
16,658500	0,5	0,382550
16,666833	0,5	0,394550
16,675167	0,5	0,392200
16,683500	0,5	0,400350
16,691833	0,5	0,402450
16,700167	0,5	0,419950
16,708500	0,5	0,430650
16,716833	0,5	0,446000
16,725167	0,5	0,460550
16,733500	0,5	0,469900
16,741833	0,5	0,489900
16,750167	0,5	0,509000
16,758500	0,5	0,513200
16,766833	0,5	0,535100
16,775167	0,5	0,547650
16,783500	0,5	0,555000
16,791833	0,5	0,551500
16,800167	0,5	0,539800
16,808500	0,5	0,548250
16,816833	0,5	0,541750
16,825167	0,5	0,543050
16,833500	0,5	0,544950
16,841833	0,5	0,566950
16,850167	0,5	0,581500
16,858500	0,5	0,612900
16,866833	0,5	0,642100
16,875167	0,5	0,664550
16,883500	0,5	0,672500
16,891833	0,5	0,667200
16,900167	0,5	0,633600
16,908500	0,5	0,596650
16,916833	0,5	0,557150
16,925167	0,5	0,511050
16,933500	0,5	0,473850
16,941833	0,5	0,428000
16,950167	0,5	0,397050
16,958500	0,5	0,380500
16,966833	0,5	0,377150
16,975167	0,5	0,359050
16,983500	0,5	0,352300
16,991833	0,5	0,336350
17,000167	0,5	0,332750
17,008500	0,5	0,326800
17,016833	0,5	0,323900
17,025167	0,5	0,319000
17,033500	0,5	0,323250
17,041833	0,5	0,320900
17,050167	0,5	0,312550
17,058500	0,5	0,306700
17,066833	0,5	0,307350
17,075167	0,5	0,292200
17,083500	0,5	0,280550
17,091833	0,5	0,260200
17,100167	0,5	0,254250
17,108500	0,5	0,253700
17,116833	0,5	0,246850
17,125167	0,5	0,251900
17,133500	0,5	0,238150
17,141833	0,5	0,237150
17,150167	0,5	0,229400
17,158500	0,5	0,229100
17,166833	0,5	0,222900
17,175167	0,5	0,217800
17,183500	0,5	0,214550
17,191833	0,5	0,208300
17,200167	0,5	0,200500
17,208500	0,5	0,206550
17,216833	0,5	0,203150
17,225167	0,5	0,197550
17,233500	0,5	0,188050
17,241833	0,5	0,174950
17,250167	0,5	0,174650
17,258500	0,5	0,168450
17,266833	0,5	0,168150
17,275167	0,5	0,162200
17,283500	0,5	0,158200
17,291833	0,5	0,155950
17,300167	0,5	0,156500
17,308500	0,5	0,151050
17,316833	0,5	0,148150
17,325167	0,5	0,145150
17,333500	0,5	0,149700
17,341833	0,5	0,135050
17,350167	0,5	0,138650
17,358500	0,5	0,142100
17,366833	0,5	0,141900
17,375167	0,5	0,134600
17,383500	0,5	0,113300
17,391833	0,5	0,117600
17,400167	0,5	0,120100
17,408500	0,5	0,120050
17,416833	0,5	0,119500
17,425167	0,5	0,119800
17,433500	0,5	0,114500
17,441833	0,5	0,113700
17,450167	0,5	0,113150
17,458500	0,5	0,109600
17,466833	0,5	0,104750
17,475167	0,5	0,108650
17,483500	0,5	0,104100
17,491833	0,5	0,088000
17,500167	0,5	0,094750
17,508500	0,5	0,096650
17,516833	0,5	0,088400
17,525167	0,5	0,076500
17,533500	0,5	0,062900
17,541833	0,5	0,068450
17,550167	0,5	0,067150
17,558500	0,5	0,069800
17,566833	0,5	0,060350
17,575167	0,5	0,063500
17,583500	0,5	0,054750
17,591833	0,5	0,060250
17,600167	0,5	0,061200
17,608500	0,5	0,054700
17,616833	0,5	0,057550
17,625167	0,5	0,057050
17,633500	0,5	0,061650
17,641833	0,5	0,049450
17,650167	0,5	0,049650
17,658500	0,5	0,059150
17,666833	0,5	0,061100
17,675167	0,5	0,055300
17,683500	0,5	0,040300
17,691833	0,5	0,054200
17,700167	0,5	0,058750
17,708500	0,5	0,057300
17,716833	0,5	0,069800
17,725167	0,5	0,070750
17,733500	0,5	0,078550
17,741833	0,5	0,087050
17,750167	0,5	0,089300
17,758500	0,5	0,098250
17,766833	0,5	0,101800
17,775167	0,5	0,116650
17,783500	0,5	0,115800
17,791833	0,5	0,125700
17,800167	0,5	0,142250
17,808500	0,5	0,149750
17,816833	0,5	0,150700
17,825167	0,5	0,150450
17,833500	0,5	0,146700
17,841833	0,5	0,164700
17,850167	0,5	0,171900
17,858500	0,5	0,176850
17,866833	0,5	0,179950
17,875167	0,5	0,180800
17,883500	0,5	0,180100
17,891833	0,5	0,184850
17,900167	0,5	0,184100
17,908500	0,5	0,181950
17,916833	0,5	0,193150
17,925167	0,5	0,187250
17,933500	0,5	0,181550
17,941833	0,5	0,183050
17,950167	0,5	0,184300
17,958500	0,5	0,177450
17,966833	0,5	0,170750
17,975167	0,5	0,152450
17,983500	0,5	0,150750
17,991833	0,5	0,151050
18,000167	0,5	0,149550
18,008500	0,5	0,139750
18,016833	0,5	0,137050
18,025167	0,5	0,128600
18,033500	0,5	0,124650
18,041833	0,5	0,115000
18,050167	0,5	0,105650
18,058500	0,5	0,098550
18,066833	0,5	0,094600
18,075167	0,5	0,075550
18,083500	0,5	0,068400
18,091833	0,5	0,068400
18,100167	0,5	0,062300
18,108500	0,5	0,051150
18,116833	0,5	0,035550
18,125167	0,5	0,026550
18,133500	0,5	0,022200
18,141833	0,5	0,023750
18,150167	0,5	0,015900
18,158500	0,5	0,013900
18,166833	0,5	0,009000
18,175167	0,5	0,006050
18,183500	0,5	0,000700
18,191833	0,5	0,000400
18,200167	0,5	-0,003250
18,208500	0,5	-0,005200
18,216833	0,5	-0,004350
18,225167	0,5	-0,018650
18,233500	0,5	-0,012250
18,241833	0,5	-0,010550
18,250167	0,5	-0,013650
18,258500	0,5	-0,017100
18,266833	0,5	-0,035200
18,275167	0,5	-0,039150
18,283500	0,5	-0,030800
18,291833	0,5	-0,036950
18,300167	0,5	-0,032800
18,308500	0,5	-0,034100
18,316833	0,5	-0,029800
18,325167	0,5	-0,033250
18,333500	0,5	-0,024800
18,341833	0,5	-0,028600
18,350167	0,5	-0,023550
18,358500	0,5	-0,016300
18,366833	0,5	-0,009700
18,375167	0,5	-0,033300
18,383500	0,5	-0,015650
18,391833	0,5	-0,012700
18,400167	0,5	-0,020150
18,408500	0,5	-0,019950
18,416833	0,5	-0,036000
18,425167	0,5	-0,025300
18,433500	0,5	-0,024800
18,441833	0,5	-0,021750
18,450167	0,5	-0,024300
18,458500	0,5	-0,020850
18,466833	0,5	-0,020950
18,475167	0,5	-0,022300
18,483500	0,5	-0,022500
18,491833	0,5	-0,019650
18,500167	0,5	-0,025700
18,508500	0,5	-0,013900
18,516833	0,5	-0,021900
18,525167	0,5	-0,025900
18,533500	0,5	-0,016800
18,541833	0,5	-0,015000
18,550167	0,5	-0,018200
18,558500	0,5	-0,021500
18,566833	0,5	-0,026450
18,575167	0,5	-0,015650
18,583500	0,5	-0,008700
18,591833	0,5	-0,004300
18,600167	0,5	0,000950
18,608500	0,5	0,009000
18,616833	0,5	0,015950
18,625167	0,5	0,016800
18,633500	0,5	0,022100
18,641833	0,5	0,022750
18,650167	0,5	0,026900
18,658500	0,5	0,023050
18,666833	0,5	0,014600
18,675167	0,5	0,008500
18,683500	0,5	0,009800
18,691833	0,5	0,002050
18,700167	0,5	-0,008800
18,708500	0,5	-0,028950
18,716833	0,5	-0,038050
18,725167	0,5	-0,035750
18,733500	0,5	-0,039900
18,741833	0,5	-0,043950
18,750167	0,5	-0,046600
18,758500	0,5	-0,048950
18,766833	0,5	-0,051700
18,775167	0,5	-0,050450
18,783500	0,5	-0,058450
18,791833	0,5	-0,058200
18,800167	0,5	-0,054900
18,808500	0,5	-0,052550
18,816833	0,5	-0,063200
18,825167	0,5	-0,058100
18,833500	0,5	-0,064000
18,841833	0,5	-0,066500
18,850167	0,5	-0,082150
18,858500	0,5	-0,097600
18,866833	0,5	-0,102600
18,875167	0,5	-0,100050
18,883500	0,5	-0,096150
18,891833	0,5	-0,094950
18,900167	0,5	-0,096150
18,908500	0,5	-0,093100
18,916833	0,5	-0,095250
18,925167	0,5	-0,098100
18,933500	0,5	-0,097000
18,941833	0,5	-0,100550
18,950167	0,5	-0,090750
18,958500	0,5	-0,102200
18,966833	0,5	-0,113000
18,975167	0,5	-0,105450
18,983500	0,5	-0,109650
18,991833	0,5	-0,110150
19,000167	0,5	-0,120450
19,008500	0,5	-0,127850
19,016833	0,5	-0,120650
19,025167	0,5	-0,119050
19,033500	0,5	-0,114900
19,041833	0,5	-0,118800
19,050167	0,5	-0,114000
19,058500	0,5	-0,121550
19,066833	0,5	-0,127850
19,075167	0,5	-0,128250
19,083500	0,5	-0,133450
19,091833	0,5	-0,123350
19,100167	0,5	-0,120600
19,108500	0,5	-0,134100
19,116833	0,5	-0,132650
19,125167	0,5	-0,126650
19,133500	0,5	-0,130800
19,141833	0,5	-0,137950
19,150167	0,5	-0,155850
19,158500	0,5	-0,156950
19,166833	0,5	-0,156900
19,175167	0,5	-0,152150
19,183500	0,5	-0,153650
19,191833	0,5	-0,149750
19,200167	0,5	-0,150250
19,208500	0,5	-0,144450
19,216833	0,5	-0,144200
19,225167	0,5	-0,146350
19,233500	0,5	-0,143050
19,241833	0,5	-0,132200
19,250167	0,5	-0,135800
19,258500	0,5	-0,140800
19,266833	0,5	-0,134550
19,275167	0,5	-0,131200
19,283500	0,5	-0,133850
19,291833	0,5	-0,136500
19,300167	0,5	-0,141600
19,308500	0,5	-0,135100
19,316833	0,5	-0,120100
19,325167	0,5	-0,121800
19,333500	0,5	-0,108800
19,341833	0,5	-0,095050
19,350167	0,5	-0,081300
19,358500	0,5	-0,076150
19,366833	0,5	-0,065450
19,375167	0,5	-0,059550
19,383500	0,5	-0,063400
19,391833	0,5	-0,048400
19,400167	0,5	-0,053350
19,408500	0,5	-0,042400
19,416833	0,5	-0,027250
19,425167	0,5	-0,013900
19,433500	0,5	-0,008850
19,441833	0,5	-0,016250
19,450167	0,5	-0,018150
19,458500	0,5	-0,019400
19,466833	0,5	-0,035150
19,475167	0,5	-0,037800
19,483500	0,5	-0,053400
19,491833	0,5	-0,055300
19,500167	0,5	-0,063300
19,508500	0,5	-0,059200
19,516833	0,5	-0,057200
19,525167	0,5	-0,057550
19,533500	0,5	-0,041800
19,541833	0,5	-0,029550
19,550167	0,5	-0,044850
19,558500	0,5	-0,040250
19,566833	0,5	-0,047450
19,575167	0,5	-0,048700
19,583500	0,5	-0,057300
19,591833	0,5	-0,079200
19,600167	0,5	-0,067300
19,608500	0,5	-0,065800
19,616833	0,5	-0,057850
19,625167	0,5	-0,061000
19,633500	0,5	-0,060000
19,641833	0,5	-0,071200
19,650167	0,5	-0,073250
19,658500	0,5	-0,084950
19,666833	0,5	-0,091050
19,675167	0,5	-0,088550
19,683500	0,5	-0,079800
19,691833	0,5	-0,082100
19,700167	0,5	-0,083100
19,708500	0,5	-0,075100
19,716833	0,5	-0,071600
19,725167	0,5	-0,075000
19,733500	0,5	-0,081800
19,741833	0,5	-0,087650
19,750167	0,5	-0,081500
19,758500	0,5	-0,073600
19,766833	0,5	-0,071550
19,775167	0,5	-0,056950
19,783500	0,5	-0,059850
19,791833	0,5	-0,057100
19,800167	0,5	-0,059300
19,808500	0,5	-0,067050
19,816833	0,5	-0,077850
19,825167	0,5	-0,080300
19,833500	0,5	-0,078250
19,841833	0,5	-0,086550
19,850167	0,5	-0,086750
19,858500	0,5	-0,081550
19,866833	0,5	-0,085250
19,875167	0,5	-0,089000
19,883500	0,5	-0,096100
19,891833	0,5	-0,100400
19,900167	0,5	-0,089900
19,908500	0,5	-0,086750
19,916833	0,5	-0,080800
19,925167	0,5	-0,080950
19,933500	0,5	-0,067450
19,941833	0,5	-0,066900
19,950167	0,5	-0,049500
19,958500	0,5	-0,040500
19,966833	0,5	-0,022400
19,975167	0,5	0,012500
19,983500	0,5	0,033750
19,991833	0,5	0,041000
20,000167	0,5	0,059650
20,008500	0,5	0,066200
20,016833	0,5	0,055500
20,025167	0,5	0,032200
20,033500	0,5	0,006900
20,041833	0,5	-0,005450
20,050167	0,5	-0,020500
20,058500	0,5	-0,028400
20,066833	0,5	-0,042400
20,075167	0,5	-0,036100
20,083500	0,5	-0,039700
20,091833	0,5	-0,030700
20,100167	0,5	-0,034350
20,108500	0,5	-0,032000
20,116833	0,5	-0,032450
20,125167	0,5	-0,017550
20,133500	0,5	-0,027350
20,141833	0,5	-0,020200
20,150167	0,5	-0,012350
20,158500	0,5	-0,006800
20,166833	0,5	-0,003000
20,175167	0,5	-0,007450
20,183500	0,5	0,006550
20,191833	0,5	0,010500
20,200167	0,5	0,018250
20,208500	0,5	0,017600
20,216833	0,5	0,024650
20,225167	0,5	0,022350
20,233500	0,5	0,027400
20,241833	0,5	0,024650
20,250167	0,5	0,028650
20,258500	0,5	0,028850
20,266833	0,5	0,051450
20,275167	0,5	0,056900
20,283500	0,5	0,049050
20,291833	0,5	0,045950
20,300167	0,5	0,034300
20,308500	0,5	0,008750
20,316833	0,5	-0,005200
20,325167	0,5	-0,028300
20,333500	0,5	-0,028500
20,341833	0,5	-0,027350
20,350167	0,5	-0,033850
20,358500	0,5	-0,039350
20,366833	0,5	-0,036350
20,375167	0,5	-0,032550
20,383500	0,5	-0,028250
20,391833	0,5	-0,019400
20,400167	0,5	-0,023900
20,408500	0,5	-0,010400
20,416833	0,5	0,009350
20,425167	0,5	0,022350
20,433500	0,5	0,018050
20,441833	0,5	0,031400
20,450167	0,5	0,029450
20,458500	0,5	0,020850
20,466833	0,5	0,010700
20,475167	0,5	-0,013800
20,483500	0,5	-0,010650
20,491833	0,5	-0,015850
20,500167	0,5	-0,020600
20,508500	0,5	-0,019150
20,516833	0,5	-0,013700
20,525167	0,5	-0,011550
20,533500	0,5	-0,001600
20,541833	0,5	0,002600
20,550167	0,5	0,004700
20,558500	0,5	0,020050
20,566833	0,5	0,035900
20,575167	0,5	0,036500
20,583500	0,5	0,039250
20,591833	0,5	0,040800
20,600167	0,5	0,035200
20,608500	0,5	0,027200
20,616833	0,5	0,020500
20,625167	0,5	0,025250
20,633500	0,5	0,034300
20,641833	0,5	0,043350
20,650167	0,5	0,045650
20,658500	0,5	0,058900
20,666833	0,5	0,060650
20,675167	0,5	0,062850
20,683500	0,5	0,059550
20,691833	0,5	0,059550
20,700167	0,5	0,055950
20,708500	0,5	0,073300
20,716833	0,5	0,085700
20,725167	0,5	0,084500
20,733500	0,5	0,090000
20,741833	0,5	0,093500
20,750167	0,5	0,087000
20,758500	0,5	0,085150
20,766833	0,5	0,076850
20,775167	0,5	0,078650
20,783500	0,5	0,084450
20,791833	0,5	0,087450
20,800167	0,5	0,084200
20,808500	0,5	0,094600
20,816833	0,5	0,103600
20,825167	0,5	0,113000
20,833500	0,5	0,120700
20,841833	0,5	0,125950
20,850167	0,5	0,140350
20,858500	0,5	0,161250
20,866833	0,5	0,167450
20,875167	0,5	0,166250
20,883500	0,5	0,174150
20,891833	0,5	0,176400
20,900167	0,5	0,178150
20,908500	0,5	0,169350
20,916833	0,5	0,174500
20,925167	0,5	0,186400
20,933500	0,5	0,201150
20,941833	0,5	0,210200
20,950167	0,5	0,213350
20,958500	0,5	0,219950
20,966833	0,5	0,233650
20,975167	0,5	0,244400
20,983500	0,5	0,249850
20,991833	0,5	0,253700
21,000167	0,5	0,278350
21,008500	0,5	0,289450
21,016833	0,5	0,291450
21,025167	0,5	0,294500
21,033500	0,5	0,298150
21,041833	0,5	0,294100
21,050167	0,5	0,273350
21,058500	0,5	0,271700
21,066833	0,5	0,278300
21,075167	0,5	0,288350
21,083500	0,5	0,294200
21,091833	0,5	0,311300
21,100167	0,5	0,319950
21,108500	0,5	0,334500
21,116833	0,5	0,346650
21,125167	0,5	0,359400
21,133500	0,5	0,366400
21,141833	0,5	0,375550
21,150167	0,5	0,400250
21,158500	0,5	0,405150
21,166833	0,5	0,399550
21,175167	0,5	0,402350
21,183500	0,5	0,404550
21,191833	0,5	0,391550
21,200167	0,5	0,382200
21,208500	0,5	0,392600
21,216833	0,5	0,405100
21,225167	0,5	0,417350
21,233500	0,5	0,430150
21,241833	0,5	0,444350
21,250167	0,5	0,463950
21,258500	0,5	0,492650
21,266833	0,5	0,519000
21,275167	0,5	0,557200
21,283500	0,5	0,588850
21,291833	0,5	0,636400
21,300167	0,5	0,661150
21,308500	0,5	0,657300
21,316833	0,5	0,641450
21,325167	0,5	0,627350
21,333500	0,5	0,601000
21,341833	0,5	0,584400
21,350167	0,5	0,562850
21,358500	0,5	0,577850
21,366833	0,5	0,589150
21,375167	0,5	0,600950
21,383500	0,5	0,610700
21,391833	0,5	0,620150
21,400167	0,5	0,629950
21,408500	0,5	0,638200
21,416833	0,5	0,648850
21,425167	0,5	0,649450
21,433500	0,5	0,660400
21,441833	0,5	0,686750
21,450167	0,5	0,708650
21,458500	0,5	0,704300
21,466833	0,5	0,716650
21,475167	0,5	0,721000
21,483500	0,5	0,729450
21,491833	0,5	0,728150
21,500167	0,5	0,738650
21,508500	0,5	0,758250
21,516833	0,5	0,778850
21,525167	0,5	0,790700
21,533500	0,5	0,805600
21,541833	0,5	0,810800
21,550167	0,5	0,824150
21,558500	0,5	0,840650
21,566833	0,5	0,847100
21,575167	0,5	0,859800
21,583500	0,5	0,881200
21,591833	0,5	0,903050
21,600167	0,5	0,921400
21,608500	0,5	0,932550
21,616833	0,5	0,939700
21,625167	0,5	0,944450
21,633500	0,5	0,945400
21,641833	0,5	0,949850
21,650167	0,5	0,969250
21,658500	0,5	0,991400
21,666833	0,5	1,001700
21,675167	0,5	1,009750
21,683500	0,5	1,021600
21,691833	0,5	1,036650
21,700167	0,5	1,051400
21,708500	0,5	1,066950
21,716833	0,5	1,084350
21,725167	0,5	1,096250
21,733500	0,5	1,131250
21,741833	0,5	1,154050
21,750167	0,5	1,161350
21,758500	0,5	1,173750
21,766833	0,5	1,187150
21,775167	0,5	1,202800
21,783500	0,5	1,220150
21,791833	0,5	1,230550
21,800167	0,5	1,259650
21,808500	0,5	1,292300
21,816833	0,5	1,323650
21,825167	0,5	1,348500
21,833500	0,5	1,379750
21,841833	0,5	1,403950
21,850167	0,5	1,437900
21,858500	0,5	1,461550
21,866833	0,5	1,479650
21,875167	0,5	1,517300
21,883500	0,5	1,549950
21,891833	0,5	1,566850
21,900167	0,5	1,586700
21,908500	0,5	1,605300
21,916833	0,5	1,610400
21,925167	0,5	1,616350
21,933500	0,5	1,616300
21,941833	0,5	1,618600
21,950167	0,5	1,639700
21,958500	0,5	1,662550
21,966833	0,5	1,683100
21,975167	0,5	1,712850
21,983500	0,5	1,735150
21,991833	0,5	1,763700
22,000167	0,5	1,791500
22,008500	0,5	1,816100
22,016833	0,5	1,853900
22,025167	0,5	1,892400
22,033500	0,5	1,920250
22,041833	0,5	1,938750
22,050167	0,5	1,978050
22,058500	0,5	2,007850
22,066833	0,5	2,038050
22,075167	0,5	2,060950
22,083500	0,5	2,097700
22,091833	0,5	2,144000
22,100167	0,5	2,186850
22,108500	0,5	2,210600
22,116833	0,5	2,229000
22,125167	0,5	2,244850
22,133500	0,5	2,266600
22,141833	0,5	2,292000
22,150167	0,5	2,318950
22,158500	0,5	2,352950
22,166833	0,5	2,384250
22,175167	0,5	2,425550
22,183500	0,5	2,442150
22,191833	0,5	2,486400
22,200167	0,5	2,526000
22,208500	0,5	2,561550
22,216833	0,5	2,593250
22,225167	0,5	2,619150
22,233500	0,5	2,660000
22,241833	0,5	2,707400
22,250167	0,5	2,751100
22,258500	0,5	2,798000
22,266833	0,5	2,843350
22,275167	0,5	2,884300
22,283500	0,5	2,931850
22,291833	0,5	2,981500
22,300167	0,5	3,032850
22,308500	0,5	3,084550
22,316833	0,5	3,129600
22,325167	0,5	3,171200
22,333500	0,5	3,217200
22,341833	0,5	3,271000
22,350167	0,5	3,313450
22,358500	0,5	3,344600
22,366833	0,5	3,380000
22,375167	0,5	3,411850
22,383500	0,5	3,464150
22,391833	0,5	3,510900
22,400167	0,5	3,558050
22,408500	0,5	3,604550
22,416833	0,5	3,653250
22,425167	0,5	3,705850
22,433500	0,5	3,761750
22,441833	0,5	3,820950
22,450167	0,5	3,882400
22,458500	0,5	3,932500
22,466833	0,5	3,979750
22,475167	0,5	4,044950
22,483500	0,5	4,112400
22,491833	0,5	4,175250
22,500167	0,5	4,224700
22,508500	0,5	4,275550
22,516833	0,5	4,313900
22,525167	0,5	4,356150
22,533500	0,5	4,402350
22,541833	0,5	4,445300
22,550167	0,5	4,474150
22,558500	0,5	4,509950
22,566833	0,5	4,539900
22,575167	0,5	4,571200
22,583500	0,5	4,597700
22,591833	0,5	4,622000
22,600167	0,5	4,645950
22,608500	0,5	4,629400
22,616833	0,5	4,663950
22,625167	0,5	4,662750
22,633500	0,5	4,684600
22,641833	0,5	4,673500
22,650167	0,5	4,655950
22,658500	0,5	4,628150
22,666833	0,5	4,598100
22,675167	0,5	4,577250
22,683500	0,5	4,554100
22,691833	0,5	4,516200
22,700167	0,5	4,476850
22,708500	0,5	4,427050
22,716833	0,5	4,378400
22,725167	0,5	4,322700
22,733500	0,5	4,265600
22,741833	0,5	4,201750
22,750167	0,5	4,117950
22,758500	0,5	4,016500
22,766833	0,5	3,940250
22,775167	0,5	3,869650
22,783500	0,5	3,772750
22,791833	0,5	3,661250
22,800167	0,5	3,550300
22,808500	0,5	3,432100
22,816833	0,5	3,303650
22,825167	0,5	3,186000
22,833500	0,5	3,068900
22,841833	0,5	2,945450
22,850167	0,5	2,823600
22,858500	0,5	2,702200
22,866833	0,5	2,577650
22,875167	0,5	2,457300
22,883500	0,5	2,332350
22,891833	0,5	2,210050
22,900167	0,5	2,073950
22,908500	0,5	1,929850
22,916833	0,5	1,817550
22,925167	0,5	1,679650
22,933500	0,5	1,530400
22,941833	0,5	1,404200
22,950167	0,5	1,273200
22,958500	0,5	1,147500
22,966833	0,5	1,013800
22,975167	0,5	0,891450
22,983500	0,5	0,768100
22,991833	0,5	0,656500
23,000167	0,5	0,544800
23,008500	0,5	0,441450
23,016833	0,5	0,339050
23,025167	0,5	0,238750
23,033500	0,5	0,143450
23,041833	0,5	0,054150
23,050167	0,5	-0,021700
23,058500	0,5	-0,111950
23,066833	0,5	-0,218100
23,075167	0,5	-0,327300
23,083500	0,5	-0,402250
23,091833	0,5	-0,478400
23,100167	0,5	-0,538000
23,108500	0,5	-0,614050
23,116833	0,5	-0,687150
23,125167	0,5	-0,754700
23,133500	0,5	-0,803950
23,141833	0,5	-0,864200
23,150167	0,5	-0,910200
23,158500	0,5	-0,955950
23,166833	0,5	-1,003100
23,175167	0,5	-1,041800
23,183500	0,5	-1,085550
23,191833	0,5	-1,098000
23,200167	0,5	-1,140800
23,208500	0,5	-1,175000
23,216833	0,5	-1,231000
23,225167	0,5	-1,281800
23,233500	0,5	-1,316700
23,241833	0,5	-1,335800
23,250167	0,5	-1,353400
23,258500	0,5	-1,382100
23,266833	0,5	-1,413100
23,275167	0,5	-1,424300
23,283500	0,5	-1,442800
23,291833	0,5	-1,453050
23,300167	0,5	-1,465950
23,308500	0,5	-1,472350
23,316833	0,5	-1,487900
23,325167	0,5	-1,490050
23,333500	0,5	-1,498050
23,341833	0,5	-1,522500
23,350167	0,5	-1,506900
23,358500	0,5	-1,495100
23,366833	0,5	-1,523500
23,375167	0,5	-1,540950
23,383500	0,5	-1,546400
23,391833	0,5	-1,550300
23,400167	0,5	-1,540200
23,408500	0,5	-1,552500
23,416833	0,5	-1,555350
23,425167	0,5	-1,554600
23,433500	0,5	-1,546850
23,441833	0,5	-1,545350
23,450167	0,5	-1,536200
23,458500	0,5	-1,532950
23,466833	0,5	-1,523450
23,475167	0,5	-1,518700
23,483500	0,5	-1,508500
23,491833	0,5	-1,555200
23,500167	0,5	-1,518050
23,508500	0,5	-1,477100
23,516833	0,5	-1,477400
23,525167	0,5	-1,480150
23,533500	0,5	-1,479250
23,541833	0,5	-1,471800
23,550167	0,5	-1,463550
23,558500	0,5	-1,460150
23,566833	0,5	-1,455750
23,575167	0,5	-1,450900
23,583500	0,5	-1,442550
23,591833	0,5	-1,432800
23,600167	0,5	-1,428400
23,608500	0,5	-1,415300
23,616833	0,5	-1,405850
23,625167	0,5	-1,396850
23,633500	0,5	-1,457150
23,641833	0,5	-1,448800
23,650167	0,5	-1,403400
23,658500	0,5	-1,358650
23,666833	0,5	-1,346950
23,675167	0,5	-1,341000
23,683500	0,5	-1,330350
23,691833	0,5	-1,323600
23,700167	0,5	-1,318200
23,708500	0,5	-1,303200
23,716833	0,5	-1,295900
23,725167	0,5	-1,285050
23,733500	0,5	-1,273300
23,741833	0,5	-1,262650
23,750167	0,5	-1,253500
23,758500	0,5	-1,241800
23,766833	0,5	-1,231550
23,775167	0,5	-1,224100
23,783500	0,5	-1,329650
23,791833	0,5	-1,289250
23,800167	0,5	-1,248600
23,808500	0,5	-1,195250
23,816833	0,5	-1,174250
23,825167	0,5	-1,164750
23,833500	0,5	-1,156800
23,841833	0,5	-1,150100
23,850167	0,5	-1,135150
23,858500	0,5	-1,120500
23,866833	0,5	-1,109150
23,875167	0,5	-1,092200
23,883500	0,5	-1,075400
23,891833	0,5	-1,065800
23,900167	0,5	-1,048950
23,908500	0,5	-1,036850
23,916833	0,5	-1,022300
23,925167	0,5	-1,063500
23,933500	0,5	-1,101200
23,941833	0,5	-1,078650
23,950167	0,5	-1,014150
23,958500	0,5	-0,980500
23,966833	0,5	-0,961400
23,975167	0,5	-0,950750
23,983500	0,5	-0,942300
23,991833	0,5	-0,945400
24,000167	0,5	-0,928950
24,008500	0,5	-0,912750
24,016833	0,5	-0,893550
24,025167	0,5	-0,882750
24,033500	0,5	-0,869100
24,041833	0,5	-0,852100
24,050167	0,5	-0,837500
24,058500	0,5	-0,821600
24,066833	0,5	-0,811100
24,075167	0,5	-0,895800
24,083500	0,5	-0,876450
24,091833	0,5	-0,851100
24,100167	0,5	-0,794750
24,108500	0,5	-0,761600
24,116833	0,5	-0,746000
24,125167	0,5	-0,732300
24,133500	0,5	-0,738050
24,141833	0,5	-0,715050
24,150167	0,5	-0,702200
24,158500	0,5	-0,685000
24,166833	0,5	-0,674800
24,175167	0,5	-0,662750
24,183500	0,5	-0,652150
24,191833	0,5	-0,645650
24,200167	0,5	-0,629550
24,208500	0,5	-0,615900
24,216833	0,5	-0,615700
24,225167	0,5	-0,697200
24,233500	0,5	-0,655350
24,241833	0,5	-0,630100
24,250167	0,5	-0,580700
24,258500	0,5	-0,559500
24,266833	0,5	-0,545300
24,275167	0,5	-0,536450
24,283500	0,5	-0,541200
24,291833	0,5	-0,525550
24,300167	0,5	-0,504250
24,308500	0,5	-0,499850
24,316833	0,5	-0,482900
24,325167	0,5	-0,472350
24,333500	0,5	-0,456300
24,341833	0,5	-0,448350
24,350167	0,5	-0,434350
24,358500	0,5	-0,424650
24,366833	0,5	-0,467600
24,375167	0,5	-0,478600
24,383500	0,5	-0,459100
24,391833	0,5	-0,429250
24,400167	0,5	-0,398200
24,408500	0,5	-0,385800
24,416833	0,5	-0,378150
24,425167	0,5	-0,375250
24,433500	0,5	-0,376900
24,441833	0,5	-0,358200
24,450167	0,5	-0,348550
24,458500	0,5	-0,336000
24,466833	0,5	-0,330500
24,475167	0,5	-0,319050
24,483500	0,5	-0,313400
24,491833	0,5	-0,300950
24,500167	0,5	-0,290900
24,508500	0,5	-0,281950
24,516833	0,5	-0,334200
24,525167	0,5	-0,313300
24,533500	0,5	-0,296700
24,541833	0,5	-0,269800
24,550167	0,5	-0,250850
24,558500	0,5	-0,243250
24,566833	0,5	-0,238750
24,575167	0,5	-0,243250
24,583500	0,5	-0,241900
24,591833	0,5	-0,235750
24,600167	0,5	-0,222400
24,608500	0,5	-0,218700
24,616833	0,5	-0,208750
24,625167	0,5	-0,205700
24,633500	0,5	-0,193700
24,641833	0,5	-0,189000
24,650167	0,5	-0,181850
24,658500	0,5	-0,177300
24,666833	0,5	-0,209450
24,675167	0,5	-0,200500
24,683500	0,5	-0,183550
24,691833	0,5	-0,162200
24,700167	0,5	-0,146500
24,708500	0,5	-0,141050
24,716833	0,5	-0,141150
24,725167	0,5	-0,143200
24,733500	0,5	-0,143100
24,741833	0,5	-0,129350
24,750167	0,5	-0,125300
24,758500	0,5	-0,119850
24,766833	0,5	-0,113850
24,775167	0,5	-0,113100
24,783500	0,5	-0,107400
24,791833	0,5	-0,100050
24,800167	0,5	-0,101300
24,808500	0,5	-0,108650
24,816833	0,5	-0,122900
24,825167	0,5	-0,111100
24,833500	0,5	-0,094700
24,841833	0,5	-0,082300
24,850167	0,5	-0,075150
24,858500	0,5	-0,072550
24,866833	0,5	-0,073150
24,875167	0,5	-0,077850
24,883500	0,5	-0,068100
24,891833	0,5	-0,062650
24,900167	0,5	-0,058100
24,908500	0,5	-0,051100
24,916833	0,5	-0,049700
24,925167	0,5	-0,046700
24,933500	0,5	-0,041600
24,941833	0,5	-0,036950
24,950167	0,5	-0,034650
24,958500	0,5	-0,054450
24,966833	0,5	-0,041250
24,975167	0,5	-0,045000
24,983500	0,5	-0,030300
24,991833	0,5	-0,026750
25,000167	0,5	-0,019450
25,008500	0,5	-0,023750
25,016833	0,5	-0,025450
25,025167	0,5	-0,018800
25,033500	0,5	-0,016400
25,041833	0,5	-0,015000
25,050167	0,5	-0,010700
25,058500	0,5	-0,008150
25,066833	0,5	-0,006000
25,075167	0,5	-0,001600
25,083500	0,5	-0,001200
25,091833	0,5	-0,000150
25,100167	0,5	0,000750
25,108500	0,5	-0,004000
25,116833	0,5	0,000600
25,125167	0,5	0,004500
25,133500	0,5	0,009350
25,141833	0,5	0,009800
25,150167	0,5	0,011950
25,158500	0,5	0,012800
25,166833	0,5	0,007200
25,175167	0,5	0,013550
25,183500	0,5	0,012150
25,191833	0,5	0,017900
25,200167	0,5	0,014700
25,208500	0,5	0,017600
25,216833	0,5	0,018000
25,225167	0,5	0,020050
25,233500	0,5	0,020750
25,241833	0,5	0,023000
25,250167	0,5	0,023650
25,258500	0,5	0,022900
25,266833	0,5	0,025900
25,275167	0,5	0,027200
25,283500	0,5	0,029750
25,291833	0,5	0,031000
25,300167	0,5	0,033150
25,308500	0,5	0,030000
25,316833	0,5	0,030650
25,325167	0,5	0,033300
25,333500	0,5	0,034050
25,341833	0,5	0,030600
25,350167	0,5	0,031050
25,358500	0,5	0,032950
25,366833	0,5	0,031350
25,375167	0,5	0,030600
25,383500	0,5	0,036350
25,391833	0,5	0,035300
25,400167	0,5	0,036550
25,408500	0,5	0,038000
25,416833	0,5	0,036600
25,425167	0,5	0,035750
25,433500	0,5	0,040550
25,441833	0,5	0,042000
25,450167	0,5	0,038550
25,458500	0,5	0,040300
25,466833	0,5	0,041050
25,475167	0,5	0,042300
25,483500	0,5	0,040500
25,491833	0,5	0,041150
25,500167	0,5	0,037950
25,508500	0,5	0,039500
25,516833	0,5	0,041700
25,525167	0,5	0,041150
25,533500	0,5	0,039200
25,541833	0,5	0,041750
25,550167	0,5	0,044450
25,558500	0,5	0,044300
25,566833	0,5	0,043450
25,575167	0,5	0,044600
25,583500	0,5	0,042200
25,591833	0,5	0,043600
25,600167	0,5	0,043800
25,608500	0,5	0,046500
25,616833	0,5	0,048300
25,625167	0,5	0,047800
25,633500	0,5	0,045750
25,641833	0,5	0,048300
25,650167	0,5	0,046400
25,658500	0,5	0,048900
25,666833	0,5	0,046900
25,675167	0,5	0,045350
25,683500	0,5	0,048100
25,691833	0,5	0,049500
25,700167	0,5	0,049600
25,708500	0,5	0,052400
25,716833	0,5	0,050450
25,725167	0,5	0,048650
25,733500	0,5	0,048900
25,741833	0,5	0,048700
25,750167	0,5	0,052750
25,758500	0,5	0,055750
25,766833	0,5	0,058100
25,775167	0,5	0,055200
25,783500	0,5	0,056850
25,791833	0,5	0,054100
25,800167	0,5	0,057700
25,808500	0,5	0,055350
25,816833	0,5	0,057300
25,825167	0,5	0,055500
25,833500	0,5	0,058250
25,841833	0,5	0,060000
25,850167	0,5	0,061600
25,858500	0,5	0,064450
25,866833	0,5	0,060500
25,875167	0,5	0,055050
25,883500	0,5	0,058900
25,891833	0,5	0,060050
25,900167	0,5	0,064850
25,908500	0,5	0,066550
25,916833	0,5	0,064450
25,925167	0,5	0,063600
25,933500	0,5	0,066800
25,941833	0,5	0,066450
25,950167	0,5	0,068250
25,958500	0,5	0,068350
25,966833	0,5	0,063400
25,975167	0,5	0,067850
25,983500	0,5	0,069200
25,991833	0,5	0,072700
26,000167	0,5	0,069750
