File Path	chrom://chromeleon01/ikbm_chromeleon/2022/ICS-5000/ED1/Esteban/20220612_Cell_7_4_eg.seq/357.smp/ED_1.channel/ED_1.chm
Channel	ED_1

Injection Information:
Data Vault	ikbm_chromeleon
Injection	4_24h-NT_2
Injection Number	43
Position	RE4
Comment	
Processing Method	Stop sequence after Cell Death
Instrument Method	ICS5000_PA200_FullNative_Ox_26min_ED1
Type	Unknown
Status	Finished
Injection Date	13.06.2022
Injection Time	12:03:21
Injection Volume (µl)	5,0
Dilution Factor	1,0000
Weight	1,0000

Chromatogram Data Information:
Time Min. (min)	0,000167
Time Max. (min)	26,000167
Data Points	3121
Detector	EDet1
Generating Data System	Chromeleon 7.2.9.11323
Exporting Data System	Chromeleon 7.2.9.0
Operator	Instrument Controller
Signal Quantity	
Signal Unit	nC
Signal Min.	-1,501500
Signal Max.	2 796,690292
Channel	ED_1
Driver Name	DC-5000
Channel Type	Evaluation
Min. Step (s)	0,5
Max. Step (s)	0,5
Average Step (s)	0,5

Signal Parameter Information:
Signal Info	

Chromatogram Data:
Time (min)	Step (s)	Value (nC)
0,000167	n.a.	0,003150
0,008500	0,5	-0,036700
0,016833	0,5	-0,034700
0,025167	0,5	-0,018750
0,033500	0,5	-0,011750
0,041833	0,5	-0,002600
0,050167	0,5	-0,010500
0,058500	0,5	-0,001150
0,066833	0,5	-0,004250
0,075167	0,5	-0,003000
0,083500	0,5	0,002650
0,091833	0,5	0,004250
0,100167	0,5	-0,004550
0,108500	0,5	0,019600
0,116833	0,5	-0,007800
0,125167	0,5	-0,012550
0,133500	0,5	-0,009250
0,141833	0,5	-0,002800
0,150167	0,5	0,025550
0,158500	0,5	0,008850
0,166833	0,5	0,011150
0,175167	0,5	0,001800
0,183500	0,5	0,012350
0,191833	0,5	0,012800
0,200167	0,5	0,017500
0,208500	0,5	0,001800
0,216833	0,5	0,006050
0,225167	0,5	0,006000
0,233500	0,5	0,003650
0,241833	0,5	-0,008550
0,250167	0,5	-0,009000
0,258500	0,5	0,003750
0,266833	0,5	-0,012850
0,275167	0,5	-0,013800
0,283500	0,5	-0,007550
0,291833	0,5	0,013600
0,300167	0,5	0,054550
0,308500	0,5	0,054650
0,316833	0,5	0,020800
0,325167	0,5	0,004300
0,333500	0,5	-0,006650
0,341833	0,5	-0,005100
0,350167	0,5	-0,008800
0,358500	0,5	-0,007200
0,366833	0,5	-0,009950
0,375167	0,5	-0,007300
0,383500	0,5	-0,005400
0,391833	0,5	-0,007300
0,400167	0,5	-0,004350
0,408500	0,5	-0,003600
0,416833	0,5	-0,022650
0,425167	0,5	-0,016950
0,433500	0,5	-0,015300
0,441833	0,5	0,000500
0,450167	0,5	0,014150
0,458500	0,5	0,003650
0,466833	0,5	0,002400
0,475167	0,5	0,003150
0,483500	0,5	0,003900
0,491833	0,5	-0,003100
0,500167	0,5	-0,001900
0,508500	0,5	-0,005450
0,516833	0,5	-0,002500
0,525167	0,5	-0,006350
0,533500	0,5	-0,014000
0,541833	0,5	-0,016900
0,550167	0,5	0,000700
0,558500	0,5	-0,012750
0,566833	0,5	-0,018250
0,575167	0,5	-0,014700
0,583500	0,5	-0,004050
0,591833	0,5	0,007600
0,600167	0,5	0,019150
0,608500	0,5	0,017350
0,616833	0,5	0,015800
0,625167	0,5	0,012300
0,633500	0,5	0,014400
0,641833	0,5	0,010850
0,650167	0,5	0,008150
0,658500	0,5	0,008600
0,666833	0,5	0,011250
0,675167	0,5	0,012100
0,683500	0,5	-0,008550
0,691833	0,5	0,000450
0,700167	0,5	0,006200
0,708500	0,5	-0,003100
0,716833	0,5	-0,005750
0,725167	0,5	-0,003300
0,733500	0,5	0,007500
0,741833	0,5	0,026600
0,750167	0,5	0,022850
0,758500	0,5	0,026900
0,766833	0,5	0,024000
0,775167	0,5	0,025650
0,783500	0,5	0,016300
0,791833	0,5	0,020300
0,800167	0,5	0,013550
0,808500	0,5	0,015750
0,816833	0,5	0,021900
0,825167	0,5	0,013400
0,833500	0,5	0,007350
0,841833	0,5	0,021550
0,850167	0,5	0,017650
0,858500	0,5	0,013050
0,866833	0,5	0,012200
0,875167	0,5	0,013800
0,883500	0,5	0,034300
0,891833	0,5	0,039000
0,900167	0,5	0,034300
0,908500	0,5	0,029050
0,916833	0,5	0,035050
0,925167	0,5	0,031300
0,933500	0,5	0,035250
0,941833	0,5	0,031000
0,950167	0,5	0,036400
0,958500	0,5	0,034200
0,966833	0,5	0,034850
0,975167	0,5	0,035150
0,983500	0,5	0,027400
0,991833	0,5	0,046800
1,000167	0,5	0,036750
1,008500	0,5	0,029450
1,016833	0,5	0,027950
1,025167	0,5	0,031850
1,033500	0,5	0,053550
1,041833	0,5	0,053450
1,050167	0,5	0,049200
1,058500	0,5	0,057450
1,066833	0,5	0,052900
1,075167	0,5	0,058250
1,083500	0,5	0,050450
1,091833	0,5	0,054100
1,100167	0,5	0,046400
1,108500	0,5	0,055550
1,116833	0,5	0,057200
1,125167	0,5	0,051650
1,133500	0,5	0,040100
1,141833	0,5	0,068000
1,150167	0,5	0,047600
1,158500	0,5	0,048500
1,166833	0,5	0,047900
1,175167	0,5	0,055550
1,183500	0,5	0,076850
1,191833	0,5	0,066100
1,200167	0,5	0,066150
1,208500	0,5	0,062800
1,216833	0,5	0,068550
1,225167	0,5	0,064800
1,233500	0,5	0,070850
1,241833	0,5	0,070950
1,250167	0,5	0,070300
1,258500	0,5	0,061700
1,266833	0,5	0,066200
1,275167	0,5	0,046700
1,283500	0,5	0,051450
1,291833	0,5	0,061200
1,300167	0,5	0,045400
1,308500	0,5	0,045250
1,316833	0,5	0,048650
1,325167	0,5	0,054350
1,333500	0,5	0,079600
1,341833	0,5	0,071250
1,350167	0,5	0,066050
1,358500	0,5	0,062800
1,366833	0,5	0,058900
1,375167	0,5	0,056600
1,383500	0,5	0,049400
1,391833	0,5	0,050550
1,400167	0,5	0,042850
1,408500	0,5	0,042400
1,416833	0,5	0,033900
1,425167	0,5	0,031100
1,433500	0,5	0,037700
1,441833	0,5	0,035250
1,450167	0,5	0,015350
1,458500	0,5	0,017500
1,466833	0,5	0,017550
1,475167	0,5	0,032700
1,483500	0,5	0,034450
1,491833	0,5	0,028150
1,500167	0,5	0,014900
1,508500	0,5	0,013850
1,516833	0,5	0,004350
1,525167	0,5	0,006900
1,533500	0,5	0,002050
1,541833	0,5	-0,007400
1,550167	0,5	-0,000150
1,558500	0,5	0,024500
1,566833	0,5	0,112000
1,575167	0,5	0,490000
1,583500	0,5	2,923600
1,591833	0,5	17,064950
1,600167	0,5	78,369451
1,608500	0,5	293,786604
1,616833	0,5	887,595963
1,625167	0,5	1 562,614823
1,633500	0,5	2 660,818090
1,641833	0,5	2 796,690292
1,650167	0,5	2 766,517291
1,658500	0,5	2 669,477140
1,666833	0,5	2 307,146134
1,675167	0,5	1 695,210025
1,683500	0,5	1 119,857067
1,691833	0,5	761,812661
1,700167	0,5	555,929458
1,708500	0,5	434,014056
1,716833	0,5	353,583305
1,725167	0,5	296,265004
1,733500	0,5	252,024504
1,741833	0,5	216,572203
1,750167	0,5	188,862303
1,758500	0,5	169,744953
1,766833	0,5	159,230652
1,775167	0,5	154,944452
1,783500	0,5	153,153352
1,791833	0,5	150,538602
1,800167	0,5	144,798702
1,808500	0,5	136,004152
1,816833	0,5	125,981602
1,825167	0,5	116,639152
1,833500	0,5	108,849052
1,841833	0,5	103,035702
1,850167	0,5	99,289751
1,858500	0,5	97,238301
1,866833	0,5	95,937251
1,875167	0,5	93,885701
1,883500	0,5	89,651101
1,891833	0,5	83,906301
1,900167	0,5	78,583801
1,908500	0,5	75,141801
1,916833	0,5	74,809201
1,925167	0,5	79,189551
1,933500	0,5	89,298151
1,941833	0,5	104,020602
1,950167	0,5	120,900802
1,958500	0,5	135,547002
1,966833	0,5	140,430502
1,975167	0,5	131,093352
1,983500	0,5	112,700102
1,991833	0,5	95,241551
2,000167	0,5	84,157451
2,008500	0,5	77,123451
2,016833	0,5	70,025851
2,025167	0,5	62,726801
2,033500	0,5	56,638301
2,041833	0,5	51,691551
2,050167	0,5	47,330951
2,058500	0,5	43,595701
2,066833	0,5	40,535701
2,075167	0,5	38,063701
2,083500	0,5	36,192051
2,091833	0,5	34,862501
2,100167	0,5	34,035751
2,108500	0,5	33,490250
2,116833	0,5	32,590850
2,125167	0,5	31,085150
2,133500	0,5	29,402050
2,141833	0,5	28,024500
2,150167	0,5	27,018750
2,158500	0,5	26,352050
2,166833	0,5	25,949600
2,175167	0,5	25,695600
2,183500	0,5	25,207350
2,191833	0,5	24,496150
2,200167	0,5	23,682000
2,208500	0,5	22,935650
2,216833	0,5	22,350750
2,225167	0,5	22,044750
2,233500	0,5	22,560950
2,241833	0,5	24,449950
2,250167	0,5	25,202850
2,258500	0,5	23,705050
2,266833	0,5	22,107900
2,275167	0,5	21,286100
2,283500	0,5	20,946750
2,291833	0,5	20,863700
2,300167	0,5	20,979750
2,308500	0,5	21,240100
2,316833	0,5	21,623500
2,325167	0,5	22,097500
2,333500	0,5	22,743650
2,341833	0,5	23,917400
2,350167	0,5	26,071250
2,358500	0,5	29,399100
2,366833	0,5	33,381150
2,375167	0,5	36,898251
2,383500	0,5	39,111301
2,391833	0,5	39,740101
2,400167	0,5	39,263451
2,408500	0,5	38,642951
2,416833	0,5	39,005601
2,425167	0,5	40,997051
2,433500	0,5	44,654251
2,441833	0,5	50,537201
2,450167	0,5	61,530751
2,458500	0,5	82,010451
2,466833	0,5	111,273902
2,475167	0,5	137,997552
2,483500	0,5	147,793152
2,491833	0,5	137,114552
2,500167	0,5	114,261852
2,508500	0,5	90,151951
2,516833	0,5	71,196201
2,525167	0,5	59,213651
2,533500	0,5	53,859951
2,541833	0,5	54,273751
2,550167	0,5	59,050351
2,558500	0,5	66,047701
2,566833	0,5	72,170201
2,575167	0,5	74,195951
2,583500	0,5	70,464451
2,591833	0,5	62,022651
2,600167	0,5	51,685951
2,608500	0,5	42,051101
2,616833	0,5	34,498451
2,625167	0,5	29,156000
2,633500	0,5	25,603300
2,641833	0,5	23,281150
2,650167	0,5	21,736050
2,658500	0,5	20,684850
2,666833	0,5	19,977600
2,675167	0,5	19,556000
2,683500	0,5	19,477250
2,691833	0,5	19,690350
2,700167	0,5	20,051300
2,708500	0,5	20,248600
2,716833	0,5	20,056050
2,725167	0,5	19,430050
2,733500	0,5	18,559050
2,741833	0,5	17,662300
2,750167	0,5	16,891950
2,758500	0,5	16,328800
2,766833	0,5	15,995300
2,775167	0,5	15,874900
2,783500	0,5	16,081050
2,791833	0,5	16,805150
2,800167	0,5	18,299000
2,808500	0,5	20,625750
2,816833	0,5	23,258550
2,825167	0,5	25,190450
2,833500	0,5	25,526550
2,841833	0,5	24,156800
2,850167	0,5	21,673350
2,858500	0,5	18,952600
2,866833	0,5	16,630550
2,875167	0,5	14,971500
2,883500	0,5	13,916350
2,891833	0,5	13,319600
2,900167	0,5	13,073000
2,908500	0,5	13,098600
2,916833	0,5	13,228900
2,925167	0,5	13,314800
2,933500	0,5	13,224950
2,941833	0,5	12,918150
2,950167	0,5	12,459800
2,958500	0,5	11,932200
2,966833	0,5	11,421050
2,975167	0,5	10,981500
2,983500	0,5	10,623550
2,991833	0,5	10,343250
3,000167	0,5	10,135050
3,008500	0,5	9,987300
3,016833	0,5	9,880550
3,025167	0,5	9,793150
3,033500	0,5	9,710100
3,041833	0,5	9,611650
3,050167	0,5	9,501400
3,058500	0,5	9,411200
3,066833	0,5	9,333050
3,075167	0,5	9,322900
3,083500	0,5	9,393000
3,091833	0,5	9,482750
3,100167	0,5	9,549600
3,108500	0,5	9,493950
3,116833	0,5	9,324600
3,125167	0,5	9,074600
3,133500	0,5	8,795400
3,141833	0,5	8,524900
3,150167	0,5	8,302150
3,158500	0,5	8,125050
3,166833	0,5	8,009850
3,175167	0,5	7,971750
3,183500	0,5	8,013900
3,191833	0,5	8,155050
3,200167	0,5	8,360200
3,208500	0,5	8,619200
3,216833	0,5	8,780900
3,225167	0,5	8,817400
3,233500	0,5	8,670800
3,241833	0,5	8,394150
3,250167	0,5	8,061500
3,258500	0,5	7,728500
3,266833	0,5	7,447450
3,275167	0,5	7,252000
3,283500	0,5	7,108450
3,291833	0,5	7,017300
3,300167	0,5	6,944150
3,308500	0,5	6,895700
3,316833	0,5	6,855750
3,325167	0,5	6,832150
3,333500	0,5	6,827500
3,341833	0,5	6,828700
3,350167	0,5	6,862150
3,358500	0,5	6,917000
3,366833	0,5	6,977400
3,375167	0,5	7,069050
3,383500	0,5	7,178450
3,391833	0,5	7,297800
3,400167	0,5	7,418950
3,408500	0,5	7,501200
3,416833	0,5	7,570750
3,425167	0,5	7,607150
3,433500	0,5	7,622300
3,441833	0,5	7,608500
3,450167	0,5	7,580250
3,458500	0,5	7,539050
3,466833	0,5	7,499200
3,475167	0,5	7,459950
3,483500	0,5	7,418650
3,491833	0,5	7,400900
3,500167	0,5	7,427850
3,508500	0,5	7,487150
3,516833	0,5	7,613700
3,525167	0,5	7,852250
3,533500	0,5	8,229850
3,541833	0,5	8,758600
3,550167	0,5	9,422000
3,558500	0,5	10,204000
3,566833	0,5	11,079100
3,575167	0,5	12,090300
3,583500	0,5	13,343150
3,591833	0,5	15,081600
3,600167	0,5	17,580350
3,608500	0,5	21,097850
3,616833	0,5	25,591350
3,625167	0,5	30,659250
3,633500	0,5	35,464301
3,641833	0,5	39,033001
3,650167	0,5	40,555901
3,658500	0,5	39,688401
3,666833	0,5	36,692651
3,675167	0,5	32,270200
3,683500	0,5	27,256650
3,691833	0,5	22,409950
3,700167	0,5	18,224850
3,708500	0,5	14,912300
3,716833	0,5	12,495100
3,725167	0,5	10,823150
3,733500	0,5	9,719750
3,741833	0,5	8,998900
3,750167	0,5	8,525800
3,758500	0,5	8,198600
3,766833	0,5	7,962250
3,775167	0,5	7,771000
3,783500	0,5	7,616350
3,791833	0,5	7,489600
3,800167	0,5	7,399400
3,808500	0,5	7,316650
3,816833	0,5	7,277650
3,825167	0,5	7,261100
3,833500	0,5	7,265000
3,841833	0,5	7,244800
3,850167	0,5	7,188150
3,858500	0,5	7,096200
3,866833	0,5	6,974450
3,875167	0,5	6,830450
3,883500	0,5	6,674150
3,891833	0,5	6,527550
3,900167	0,5	6,400650
3,908500	0,5	6,305100
3,916833	0,5	6,237400
3,925167	0,5	6,200150
3,933500	0,5	6,171600
3,941833	0,5	6,196300
3,950167	0,5	6,216000
3,958500	0,5	6,244850
3,966833	0,5	6,281850
3,975167	0,5	6,318450
3,983500	0,5	6,340250
3,991833	0,5	6,323200
4,000167	0,5	6,271500
4,008500	0,5	6,201100
4,016833	0,5	6,119650
4,025167	0,5	6,034850
4,033500	0,5	5,948350
4,041833	0,5	5,880000
4,050167	0,5	5,824650
4,058500	0,5	5,783650
4,066833	0,5	5,760700
4,075167	0,5	5,736350
4,083500	0,5	5,726050
4,091833	0,5	5,743050
4,100167	0,5	5,740450
4,108500	0,5	5,746000
4,116833	0,5	5,760050
4,125167	0,5	5,778100
4,133500	0,5	5,804250
4,141833	0,5	5,803200
4,150167	0,5	5,800600
4,158500	0,5	5,784250
4,166833	0,5	5,772000
4,175167	0,5	5,741150
4,183500	0,5	5,713450
4,191833	0,5	5,670600
4,200167	0,5	5,613650
4,208500	0,5	5,537500
4,216833	0,5	5,420350
4,225167	0,5	5,270400
4,233500	0,5	5,099350
4,241833	0,5	4,964150
4,250167	0,5	4,827900
4,258500	0,5	4,736000
4,266833	0,5	4,661400
4,275167	0,5	4,617900
4,283500	0,5	4,588500
4,291833	0,5	4,560600
4,300167	0,5	4,530700
4,308500	0,5	4,530600
4,316833	0,5	4,491500
4,325167	0,5	4,476150
4,333500	0,5	4,451750
4,341833	0,5	4,434750
4,350167	0,5	4,412750
4,358500	0,5	4,390350
4,366833	0,5	4,366100
4,375167	0,5	4,336550
4,383500	0,5	4,308450
4,391833	0,5	4,287200
4,400167	0,5	4,245300
4,408500	0,5	4,219800
4,416833	0,5	4,194600
4,425167	0,5	4,182750
4,433500	0,5	4,178850
4,441833	0,5	4,160000
4,450167	0,5	4,159950
4,458500	0,5	4,161250
4,466833	0,5	4,177100
4,475167	0,5	4,188200
4,483500	0,5	4,216900
4,491833	0,5	4,234950
4,500167	0,5	4,262900
4,508500	0,5	4,286350
4,516833	0,5	4,298400
4,525167	0,5	4,305650
4,533500	0,5	4,330650
4,541833	0,5	4,341500
4,550167	0,5	4,348200
4,558500	0,5	4,364550
4,566833	0,5	4,381700
4,575167	0,5	4,403950
4,583500	0,5	4,421500
4,591833	0,5	4,420750
4,600167	0,5	4,409050
4,608500	0,5	4,387600
4,616833	0,5	4,350150
4,625167	0,5	4,313150
4,633500	0,5	4,268700
4,641833	0,5	4,224500
4,650167	0,5	4,178200
4,658500	0,5	4,138050
4,666833	0,5	4,088800
4,675167	0,5	4,062200
4,683500	0,5	4,038450
4,691833	0,5	4,013950
4,700167	0,5	4,000600
4,708500	0,5	4,002700
4,716833	0,5	4,012350
4,725167	0,5	4,034150
4,733500	0,5	4,058150
4,741833	0,5	4,092450
4,750167	0,5	4,131050
4,758500	0,5	4,172700
4,766833	0,5	4,213600
4,775167	0,5	4,249300
4,783500	0,5	4,279900
4,791833	0,5	4,297450
4,800167	0,5	4,308250
4,808500	0,5	4,302050
4,816833	0,5	4,286750
4,825167	0,5	4,269500
4,833500	0,5	4,253150
4,841833	0,5	4,215100
4,850167	0,5	4,182350
4,858500	0,5	4,156050
4,866833	0,5	4,136050
4,875167	0,5	4,116650
4,883500	0,5	4,095650
4,891833	0,5	4,071950
4,900167	0,5	4,060550
4,908500	0,5	4,042550
4,916833	0,5	4,029150
4,925167	0,5	4,019250
4,933500	0,5	4,007450
4,941833	0,5	4,007650
4,950167	0,5	4,010500
4,958500	0,5	4,021250
4,966833	0,5	4,031950
4,975167	0,5	4,079500
4,983500	0,5	4,131650
4,991833	0,5	4,207150
5,000167	0,5	4,300850
5,008500	0,5	4,428200
5,016833	0,5	4,571900
5,025167	0,5	4,730400
5,033500	0,5	4,877550
5,041833	0,5	5,033700
5,050167	0,5	5,181350
5,058500	0,5	5,336350
5,066833	0,5	5,492650
5,075167	0,5	5,688250
5,083500	0,5	5,953900
5,091833	0,5	6,343650
5,100167	0,5	6,923900
5,108500	0,5	7,745250
5,116833	0,5	8,868200
5,125167	0,5	10,331450
5,133500	0,5	12,033800
5,141833	0,5	13,899350
5,150167	0,5	15,740050
5,158500	0,5	17,345450
5,166833	0,5	18,531250
5,175167	0,5	19,133900
5,183500	0,5	19,124800
5,191833	0,5	18,534200
5,200167	0,5	17,468300
5,208500	0,5	16,064250
5,216833	0,5	14,488350
5,225167	0,5	12,876750
5,233500	0,5	11,333950
5,241833	0,5	9,941250
5,250167	0,5	8,741250
5,258500	0,5	7,731800
5,266833	0,5	6,910350
5,275167	0,5	6,265450
5,283500	0,5	5,747650
5,291833	0,5	5,347900
5,300167	0,5	5,039200
5,308500	0,5	4,803050
5,316833	0,5	4,626250
5,325167	0,5	4,477550
5,333500	0,5	4,348350
5,341833	0,5	4,247750
5,350167	0,5	4,157350
5,358500	0,5	4,081300
5,366833	0,5	4,013850
5,375167	0,5	3,948450
5,383500	0,5	3,898200
5,391833	0,5	3,849550
5,400167	0,5	3,805400
5,408500	0,5	3,767400
5,416833	0,5	3,730450
5,425167	0,5	3,701000
5,433500	0,5	3,659850
5,441833	0,5	3,632850
5,450167	0,5	3,602700
5,458500	0,5	3,579700
5,466833	0,5	3,566500
5,475167	0,5	3,540750
5,483500	0,5	3,515550
5,491833	0,5	3,493100
5,500167	0,5	3,468350
5,508500	0,5	3,446050
5,516833	0,5	3,426600
5,525167	0,5	3,405650
5,533500	0,5	3,390500
5,541833	0,5	3,375050
5,550167	0,5	3,366600
5,558500	0,5	3,350950
5,566833	0,5	3,357550
5,575167	0,5	3,354850
5,583500	0,5	3,358750
5,591833	0,5	3,368000
5,600167	0,5	3,392800
5,608500	0,5	3,425250
5,616833	0,5	3,462800
5,625167	0,5	3,502850
5,633500	0,5	3,548250
5,641833	0,5	3,597200
5,650167	0,5	3,650100
5,658500	0,5	3,716700
5,666833	0,5	3,799000
5,675167	0,5	3,900750
5,683500	0,5	4,021650
5,691833	0,5	4,179650
5,700167	0,5	4,363100
5,708500	0,5	4,605800
5,716833	0,5	4,903900
5,725167	0,5	5,258500
5,733500	0,5	5,677850
5,741833	0,5	6,181850
5,750167	0,5	6,766450
5,758500	0,5	7,455200
5,766833	0,5	8,222550
5,775167	0,5	9,092850
5,783500	0,5	10,027950
5,791833	0,5	10,995350
5,800167	0,5	11,913400
5,808500	0,5	12,698000
5,816833	0,5	13,232700
5,825167	0,5	13,437150
5,833500	0,5	13,265900
5,841833	0,5	12,717250
5,850167	0,5	11,859650
5,858500	0,5	10,800950
5,866833	0,5	9,649750
5,875167	0,5	8,499550
5,883500	0,5	7,440300
5,891833	0,5	6,529900
5,900167	0,5	5,797400
5,908500	0,5	5,231800
5,916833	0,5	4,809300
5,925167	0,5	4,509050
5,933500	0,5	4,305200
5,941833	0,5	4,175250
5,950167	0,5	4,083400
5,958500	0,5	4,012250
5,966833	0,5	3,949000
5,975167	0,5	3,882300
5,983500	0,5	3,822850
5,991833	0,5	3,773650
6,000167	0,5	3,731950
6,008500	0,5	3,726150
6,016833	0,5	3,734800
6,025167	0,5	3,748750
6,033500	0,5	3,773600
6,041833	0,5	3,790050
6,050167	0,5	3,796500
6,058500	0,5	3,774950
6,066833	0,5	3,721250
6,075167	0,5	3,657950
6,083500	0,5	3,575200
6,091833	0,5	3,489700
6,100167	0,5	3,401800
6,108500	0,5	3,322500
6,116833	0,5	3,242000
6,125167	0,5	3,175350
6,133500	0,5	3,115800
6,141833	0,5	3,060700
6,150167	0,5	3,013650
6,158500	0,5	2,989450
6,166833	0,5	2,952750
6,175167	0,5	2,928950
6,183500	0,5	2,905000
6,191833	0,5	2,896000
6,200167	0,5	2,890500
6,208500	0,5	2,877950
6,216833	0,5	2,868650
6,225167	0,5	2,861700
6,233500	0,5	2,856150
6,241833	0,5	2,849850
6,250167	0,5	2,845850
6,258500	0,5	2,838500
6,266833	0,5	2,837500
6,275167	0,5	2,829950
6,283500	0,5	2,825000
6,291833	0,5	2,814700
6,300167	0,5	2,812550
6,308500	0,5	2,811700
6,316833	0,5	2,809050
6,325167	0,5	2,814800
6,333500	0,5	2,830100
6,341833	0,5	2,853750
6,350167	0,5	2,902050
6,358500	0,5	2,945500
6,366833	0,5	2,999100
6,375167	0,5	3,053500
6,383500	0,5	3,105000
6,391833	0,5	3,150050
6,400167	0,5	3,170900
6,408500	0,5	3,175500
6,416833	0,5	3,155250
6,425167	0,5	3,121600
6,433500	0,5	3,070300
6,441833	0,5	3,014250
6,450167	0,5	2,969650
6,458500	0,5	2,927750
6,466833	0,5	2,886800
6,475167	0,5	2,870750
6,483500	0,5	2,863550
6,491833	0,5	2,880550
6,500167	0,5	2,914700
6,508500	0,5	2,959650
6,516833	0,5	3,021650
6,525167	0,5	3,098550
6,533500	0,5	3,179350
6,541833	0,5	3,267600
6,550167	0,5	3,352800
6,558500	0,5	3,436000
6,566833	0,5	3,512650
6,575167	0,5	3,587650
6,583500	0,5	3,667600
6,591833	0,5	3,753050
6,600167	0,5	3,874450
6,608500	0,5	4,011150
6,616833	0,5	4,183400
6,625167	0,5	4,409650
6,633500	0,5	4,703850
6,641833	0,5	5,106200
6,650167	0,5	5,657150
6,658500	0,5	6,426500
6,666833	0,5	7,532200
6,675167	0,5	9,079150
6,683500	0,5	11,170750
6,691833	0,5	13,810250
6,700167	0,5	16,907950
6,708500	0,5	20,200200
6,716833	0,5	23,326800
6,725167	0,5	25,867100
6,733500	0,5	27,429850
6,741833	0,5	27,813650
6,750167	0,5	26,986950
6,758500	0,5	25,071450
6,766833	0,5	22,373150
6,775167	0,5	19,278350
6,783500	0,5	16,114850
6,791833	0,5	13,163650
6,800167	0,5	10,595150
6,808500	0,5	8,504100
6,816833	0,5	6,879300
6,825167	0,5	5,690200
6,833500	0,5	4,841650
6,841833	0,5	4,259200
6,850167	0,5	3,851350
6,858500	0,5	3,579450
6,866833	0,5	3,384600
6,875167	0,5	3,242450
6,883500	0,5	3,135150
6,891833	0,5	3,054050
6,900167	0,5	2,993200
6,908500	0,5	2,936750
6,916833	0,5	2,886350
6,925167	0,5	2,847300
6,933500	0,5	2,816850
6,941833	0,5	2,786150
6,950167	0,5	2,754750
6,958500	0,5	2,722950
6,966833	0,5	2,698050
6,975167	0,5	2,672250
6,983500	0,5	2,650050
6,991833	0,5	2,628100
7,000167	0,5	2,611500
7,008500	0,5	2,595850
7,016833	0,5	2,584700
7,025167	0,5	2,576900
7,033500	0,5	2,565050
7,041833	0,5	2,562450
7,050167	0,5	2,552050
7,058500	0,5	2,541050
7,066833	0,5	2,530600
7,075167	0,5	2,528050
7,083500	0,5	2,528850
7,091833	0,5	2,527700
7,100167	0,5	2,530550
7,108500	0,5	2,529700
7,116833	0,5	2,531300
7,125167	0,5	2,541900
7,133500	0,5	2,548050
7,141833	0,5	2,559500
7,150167	0,5	2,571850
7,158500	0,5	2,583250
7,166833	0,5	2,587950
7,175167	0,5	2,584450
7,183500	0,5	2,568500
7,191833	0,5	2,552800
7,200167	0,5	2,513350
7,208500	0,5	2,480500
7,216833	0,5	2,442100
7,225167	0,5	2,415350
7,233500	0,5	2,397700
7,241833	0,5	2,387350
7,250167	0,5	2,383350
7,258500	0,5	2,387850
7,266833	0,5	2,397650
7,275167	0,5	2,417850
7,283500	0,5	2,438450
7,291833	0,5	2,455450
7,300167	0,5	2,473900
7,308500	0,5	2,489100
7,316833	0,5	2,504400
7,325167	0,5	2,525400
7,333500	0,5	2,574150
7,341833	0,5	2,649450
7,350167	0,5	2,744550
7,358500	0,5	2,849900
7,366833	0,5	2,941450
7,375167	0,5	3,000550
7,383500	0,5	3,007900
7,391833	0,5	2,956100
7,400167	0,5	2,865150
7,408500	0,5	2,749750
7,416833	0,5	2,645500
7,425167	0,5	2,546700
7,433500	0,5	2,478050
7,441833	0,5	2,431650
7,450167	0,5	2,403000
7,458500	0,5	2,399650
7,466833	0,5	2,410650
7,475167	0,5	2,444950
7,483500	0,5	2,506900
7,491833	0,5	2,595600
7,500167	0,5	2,720450
7,508500	0,5	2,874250
7,516833	0,5	3,054350
7,525167	0,5	3,240800
7,533500	0,5	3,404850
7,541833	0,5	3,516050
7,550167	0,5	3,553350
7,558500	0,5	3,519200
7,566833	0,5	3,421950
7,575167	0,5	3,276150
7,583500	0,5	3,110500
7,591833	0,5	2,959650
7,600167	0,5	2,840650
7,608500	0,5	2,778050
7,616833	0,5	2,773050
7,625167	0,5	2,821250
7,633500	0,5	2,891100
7,641833	0,5	2,939300
7,650167	0,5	2,928200
7,658500	0,5	2,873350
7,666833	0,5	2,787400
7,675167	0,5	2,714800
7,683500	0,5	2,642050
7,691833	0,5	2,580000
7,700167	0,5	2,519050
7,708500	0,5	2,471150
7,716833	0,5	2,429700
7,725167	0,5	2,402200
7,733500	0,5	2,383400
7,741833	0,5	2,377300
7,750167	0,5	2,382100
7,758500	0,5	2,388950
7,766833	0,5	2,394250
7,775167	0,5	2,399700
7,783500	0,5	2,418200
7,791833	0,5	2,435800
7,800167	0,5	2,467900
7,808500	0,5	2,522500
7,816833	0,5	2,598600
7,825167	0,5	2,704950
7,833500	0,5	2,831000
7,841833	0,5	2,984350
7,850167	0,5	3,155900
7,858500	0,5	3,348200
7,866833	0,5	3,551050
7,875167	0,5	3,771200
7,883500	0,5	4,012750
7,891833	0,5	4,284000
7,900167	0,5	4,584850
7,908500	0,5	4,926050
7,916833	0,5	5,299500
7,925167	0,5	5,716300
7,933500	0,5	6,178200
7,941833	0,5	6,676700
7,950167	0,5	7,212500
7,958500	0,5	7,779700
7,966833	0,5	8,351550
7,975167	0,5	8,901150
7,983500	0,5	9,377700
7,991833	0,5	9,735450
8,000167	0,5	9,933650
8,008500	0,5	9,940400
8,016833	0,5	9,729100
8,025167	0,5	9,308450
8,033500	0,5	8,712100
8,041833	0,5	7,988050
8,050167	0,5	7,198950
8,058500	0,5	6,413900
8,066833	0,5	5,692850
8,075167	0,5	5,083100
8,083500	0,5	4,613000
8,091833	0,5	4,278300
8,100167	0,5	4,060900
8,108500	0,5	3,935800
8,116833	0,5	3,881950
8,125167	0,5	3,881450
8,133500	0,5	3,939250
8,141833	0,5	4,067400
8,150167	0,5	4,257900
8,158500	0,5	4,490900
8,166833	0,5	4,726550
8,175167	0,5	4,924400
8,183500	0,5	5,043850
8,191833	0,5	5,066550
8,200167	0,5	4,998700
8,208500	0,5	4,860400
8,216833	0,5	4,688550
8,225167	0,5	4,509650
8,233500	0,5	4,348900
8,241833	0,5	4,214650
8,250167	0,5	4,107950
8,258500	0,5	4,031950
8,266833	0,5	3,967000
8,275167	0,5	3,900700
8,283500	0,5	3,826350
8,291833	0,5	3,747550
8,300167	0,5	3,668950
8,308500	0,5	3,604400
8,316833	0,5	3,567900
8,325167	0,5	3,569500
8,333500	0,5	3,605600
8,341833	0,5	3,672050
8,350167	0,5	3,770950
8,358500	0,5	3,894050
8,366833	0,5	4,039200
8,375167	0,5	4,221800
8,383500	0,5	4,456350
8,391833	0,5	4,801950
8,400167	0,5	5,350400
8,408500	0,5	6,280950
8,416833	0,5	7,873950
8,425167	0,5	10,432750
8,433500	0,5	14,216600
8,441833	0,5	19,198250
8,450167	0,5	24,960050
8,458500	0,5	30,620500
8,466833	0,5	35,085801
8,475167	0,5	37,405751
8,483500	0,5	37,120451
8,491833	0,5	34,384501
8,500167	0,5	29,860700
8,508500	0,5	24,500550
8,516833	0,5	19,212200
8,525167	0,5	14,618250
8,533500	0,5	11,007600
8,541833	0,5	8,405950
8,550167	0,5	6,657700
8,558500	0,5	5,548050
8,566833	0,5	4,882250
8,575167	0,5	4,509950
8,583500	0,5	4,340800
8,591833	0,5	4,316950
8,600167	0,5	4,406200
8,608500	0,5	4,580850
8,616833	0,5	4,811500
8,625167	0,5	5,071100
8,633500	0,5	5,342450
8,641833	0,5	5,637050
8,650167	0,5	5,960000
8,658500	0,5	6,314200
8,666833	0,5	6,698400
8,675167	0,5	7,095200
8,683500	0,5	7,494350
8,691833	0,5	7,900800
8,700167	0,5	8,307850
8,708500	0,5	8,720750
8,716833	0,5	9,105250
8,725167	0,5	9,422500
8,733500	0,5	9,583500
8,741833	0,5	9,500350
8,750167	0,5	9,097700
8,758500	0,5	8,376300
8,766833	0,5	7,417900
8,775167	0,5	6,370500
8,783500	0,5	5,388100
8,791833	0,5	4,574950
8,800167	0,5	3,955400
8,808500	0,5	3,512200
8,816833	0,5	3,201650
8,825167	0,5	2,988500
8,833500	0,5	2,841500
8,841833	0,5	2,740900
8,850167	0,5	2,682200
8,858500	0,5	2,645400
8,866833	0,5	2,623800
8,875167	0,5	2,602950
8,883500	0,5	2,586150
8,891833	0,5	2,566750
8,900167	0,5	2,553750
8,908500	0,5	2,540100
8,916833	0,5	2,525600
8,925167	0,5	2,509200
8,933500	0,5	2,488100
8,941833	0,5	2,459800
8,950167	0,5	2,429150
8,958500	0,5	2,392800
8,966833	0,5	2,374700
8,975167	0,5	2,368100
8,983500	0,5	2,391150
8,991833	0,5	2,448650
9,000167	0,5	2,539550
9,008500	0,5	2,631850
9,016833	0,5	2,698500
9,025167	0,5	2,715150
9,033500	0,5	2,674500
9,041833	0,5	2,594650
9,050167	0,5	2,501200
9,058500	0,5	2,416400
9,066833	0,5	2,346950
9,075167	0,5	2,302450
9,083500	0,5	2,285650
9,091833	0,5	2,290100
9,100167	0,5	2,301950
9,108500	0,5	2,325300
9,116833	0,5	2,342150
9,125167	0,5	2,350100
9,133500	0,5	2,341300
9,141833	0,5	2,326250
9,150167	0,5	2,303100
9,158500	0,5	2,288550
9,166833	0,5	2,273700
9,175167	0,5	2,264950
9,183500	0,5	2,274150
9,191833	0,5	2,293600
9,200167	0,5	2,329800
9,208500	0,5	2,387100
9,216833	0,5	2,466900
9,225167	0,5	2,565750
9,233500	0,5	2,665200
9,241833	0,5	2,741650
9,250167	0,5	2,795350
9,258500	0,5	2,813650
9,266833	0,5	2,795450
9,275167	0,5	2,739650
9,283500	0,5	2,663200
9,291833	0,5	2,574300
9,300167	0,5	2,489200
9,308500	0,5	2,417250
9,316833	0,5	2,370400
9,325167	0,5	2,353750
9,333500	0,5	2,370500
9,341833	0,5	2,421550
9,350167	0,5	2,493150
9,358500	0,5	2,565250
9,366833	0,5	2,620000
9,375167	0,5	2,654700
9,383500	0,5	2,668300
9,391833	0,5	2,671600
9,400167	0,5	2,659150
9,408500	0,5	2,658000
9,416833	0,5	2,658800
9,425167	0,5	2,663300
9,433500	0,5	2,676900
9,441833	0,5	2,691500
9,450167	0,5	2,710100
9,458500	0,5	2,735900
9,466833	0,5	2,774350
9,475167	0,5	2,835650
9,483500	0,5	2,917950
9,491833	0,5	3,025400
9,500167	0,5	3,155000
9,508500	0,5	3,311800
9,516833	0,5	3,490500
9,525167	0,5	3,679800
9,533500	0,5	3,877850
9,541833	0,5	4,092400
9,550167	0,5	4,348050
9,558500	0,5	4,691450
9,566833	0,5	5,253450
9,575167	0,5	6,263050
9,583500	0,5	8,132800
9,591833	0,5	11,431850
9,600167	0,5	16,690400
9,608500	0,5	24,018350
9,616833	0,5	32,759850
9,625167	0,5	41,445101
9,633500	0,5	48,191751
9,641833	0,5	51,464301
9,650167	0,5	50,640401
9,658500	0,5	46,179501
9,666833	0,5	39,282701
9,675167	0,5	31,419200
9,683500	0,5	23,862450
9,691833	0,5	17,443000
9,700167	0,5	12,505150
9,708500	0,5	8,997750
9,716833	0,5	6,651100
9,725167	0,5	5,154200
9,733500	0,5	4,216750
9,741833	0,5	3,637900
9,750167	0,5	3,271550
9,758500	0,5	3,033650
9,766833	0,5	2,874850
9,775167	0,5	2,762900
9,783500	0,5	2,674150
9,791833	0,5	2,601900
9,800167	0,5	2,533800
9,808500	0,5	2,473000
9,816833	0,5	2,421700
9,825167	0,5	2,385850
9,833500	0,5	2,359650
9,841833	0,5	2,358300
9,850167	0,5	2,379500
9,858500	0,5	2,414650
9,866833	0,5	2,452550
9,875167	0,5	2,475250
9,883500	0,5	2,479050
9,891833	0,5	2,461050
9,900167	0,5	2,426650
9,908500	0,5	2,388450
9,916833	0,5	2,358050
9,925167	0,5	2,329900
9,933500	0,5	2,303850
9,941833	0,5	2,270250
9,950167	0,5	2,227450
9,958500	0,5	2,172600
9,966833	0,5	2,122650
9,975167	0,5	2,076750
9,983500	0,5	2,049450
9,991833	0,5	2,033300
10,000167	0,5	2,039650
10,008500	0,5	2,059850
10,016833	0,5	2,092050
10,025167	0,5	2,130600
10,033500	0,5	2,170950
10,041833	0,5	2,211350
10,050167	0,5	2,245400
10,058500	0,5	2,270850
10,066833	0,5	2,289950
10,075167	0,5	2,304900
10,083500	0,5	2,326300
10,091833	0,5	2,355250
10,100167	0,5	2,405400
10,108500	0,5	2,499700
10,116833	0,5	2,655500
10,125167	0,5	2,899000
10,133500	0,5	3,251150
10,141833	0,5	3,696650
10,150167	0,5	4,213550
10,158500	0,5	4,731450
10,166833	0,5	5,177450
10,175167	0,5	5,495900
10,183500	0,5	5,651200
10,191833	0,5	5,643200
10,200167	0,5	5,480900
10,208500	0,5	5,210450
10,216833	0,5	4,861450
10,225167	0,5	4,475550
10,233500	0,5	4,083400
10,241833	0,5	3,706950
10,250167	0,5	3,365750
10,258500	0,5	3,065800
10,266833	0,5	2,819850
10,275167	0,5	2,634600
10,283500	0,5	2,503550
10,291833	0,5	2,427100
10,300167	0,5	2,405800
10,308500	0,5	2,416300
10,316833	0,5	2,455850
10,325167	0,5	2,528250
10,333500	0,5	2,639800
10,341833	0,5	2,823250
10,350167	0,5	3,144250
10,358500	0,5	3,701050
10,366833	0,5	4,652750
10,375167	0,5	6,118500
10,383500	0,5	8,107950
10,391833	0,5	10,424350
10,400167	0,5	12,659500
10,408500	0,5	14,318800
10,416833	0,5	14,995600
10,425167	0,5	14,551500
10,433500	0,5	13,147500
10,441833	0,5	11,166300
10,450167	0,5	9,040650
10,458500	0,5	7,103250
10,466833	0,5	5,548450
10,475167	0,5	4,409000
10,483500	0,5	3,636950
10,491833	0,5	3,140800
10,500167	0,5	2,827600
10,508500	0,5	2,646250
10,516833	0,5	2,547950
10,525167	0,5	2,517450
10,533500	0,5	2,540100
10,541833	0,5	2,608100
10,550167	0,5	2,707950
10,558500	0,5	2,828200
10,566833	0,5	2,944800
10,575167	0,5	3,038100
10,583500	0,5	3,085600
10,591833	0,5	3,094850
10,600167	0,5	3,065700
10,608500	0,5	3,015250
10,616833	0,5	2,958450
10,625167	0,5	2,915650
10,633500	0,5	2,883000
10,641833	0,5	2,843700
10,650167	0,5	2,791600
10,658500	0,5	2,731850
10,666833	0,5	2,682300
10,675167	0,5	2,666100
10,683500	0,5	2,693500
10,691833	0,5	2,753500
10,700167	0,5	2,844850
10,708500	0,5	2,983750
10,716833	0,5	3,209000
10,725167	0,5	3,405200
10,733500	0,5	3,582500
10,741833	0,5	3,825400
10,750167	0,5	4,281250
10,758500	0,5	5,225900
10,766833	0,5	7,042550
10,775167	0,5	9,806450
10,783500	0,5	12,967550
10,791833	0,5	15,997250
10,800167	0,5	19,042100
10,808500	0,5	20,547400
10,816833	0,5	19,715500
10,825167	0,5	16,844100
10,833500	0,5	13,997650
10,841833	0,5	10,259750
10,850167	0,5	6,084200
10,858500	0,5	3,669100
10,866833	0,5	2,509900
10,875167	0,5	1,916150
10,883500	0,5	1,564700
10,891833	0,5	1,340000
10,900167	0,5	1,179000
10,908500	0,5	1,059700
10,916833	0,5	0,962450
10,925167	0,5	0,891700
10,933500	0,5	0,830900
10,941833	0,5	0,783200
10,950167	0,5	0,747850
10,958500	0,5	0,718500
10,966833	0,5	0,693550
10,975167	0,5	0,674150
10,983500	0,5	0,657250
10,991833	0,5	0,648800
11,000167	0,5	0,639600
11,008500	0,5	0,634050
11,016833	0,5	0,630100
11,025167	0,5	0,616200
11,033500	0,5	0,615200
11,041833	0,5	0,606050
11,050167	0,5	0,594700
11,058500	0,5	0,580200
11,066833	0,5	0,561100
11,075167	0,5	0,543250
11,083500	0,5	0,524800
11,091833	0,5	0,503750
11,100167	0,5	0,482300
11,108500	0,5	0,456250
11,116833	0,5	0,427950
11,125167	0,5	0,407300
11,133500	0,5	0,378300
11,141833	0,5	0,353050
11,150167	0,5	0,329950
11,158500	0,5	0,313000
11,166833	0,5	0,296100
11,175167	0,5	0,275500
11,183500	0,5	0,263350
11,191833	0,5	0,253200
11,200167	0,5	0,240800
11,208500	0,5	0,234150
11,216833	0,5	0,223200
11,225167	0,5	0,224300
11,233500	0,5	0,215500
11,241833	0,5	0,216700
11,250167	0,5	0,213750
11,258500	0,5	0,215450
11,266833	0,5	0,209350
11,275167	0,5	0,206600
11,283500	0,5	0,203550
11,291833	0,5	0,201150
11,300167	0,5	0,199400
11,308500	0,5	0,199750
11,316833	0,5	0,199000
11,325167	0,5	0,197150
11,333500	0,5	0,200350
11,341833	0,5	0,199800
11,350167	0,5	0,202650
11,358500	0,5	0,199000
11,366833	0,5	0,200850
11,375167	0,5	0,202750
11,383500	0,5	0,207700
11,391833	0,5	0,209550
11,400167	0,5	0,216450
11,408500	0,5	0,214500
11,416833	0,5	0,219500
11,425167	0,5	0,214600
11,433500	0,5	0,213550
11,441833	0,5	0,210200
11,450167	0,5	0,207450
11,458500	0,5	0,202300
11,466833	0,5	0,197450
11,475167	0,5	0,193000
11,483500	0,5	0,190600
11,491833	0,5	0,183450
11,500167	0,5	0,178200
11,508500	0,5	0,169150
11,516833	0,5	0,161650
11,525167	0,5	0,160400
11,533500	0,5	0,153550
11,541833	0,5	0,149450
11,550167	0,5	0,142400
11,558500	0,5	0,140850
11,566833	0,5	0,133550
11,575167	0,5	0,129050
11,583500	0,5	0,125000
11,591833	0,5	0,121100
11,600167	0,5	0,120250
11,608500	0,5	0,115900
11,616833	0,5	0,108950
11,625167	0,5	0,113750
11,633500	0,5	0,112850
11,641833	0,5	0,109750
11,650167	0,5	0,108150
11,658500	0,5	0,105000
11,666833	0,5	0,106850
11,675167	0,5	0,111800
11,683500	0,5	0,111800
11,691833	0,5	0,114950
11,700167	0,5	0,118950
11,708500	0,5	0,120200
11,716833	0,5	0,119200
11,725167	0,5	0,118600
11,733500	0,5	0,120600
11,741833	0,5	0,119800
11,750167	0,5	0,121850
11,758500	0,5	0,114750
11,766833	0,5	0,113150
11,775167	0,5	0,114150
11,783500	0,5	0,116400
11,791833	0,5	0,113050
11,800167	0,5	0,108450
11,808500	0,5	0,104750
11,816833	0,5	0,110950
11,825167	0,5	0,109600
11,833500	0,5	0,110550
11,841833	0,5	0,112350
11,850167	0,5	0,116950
11,858500	0,5	0,118750
11,866833	0,5	0,117750
11,875167	0,5	0,121200
11,883500	0,5	0,125150
11,891833	0,5	0,130400
11,900167	0,5	0,134800
11,908500	0,5	0,132800
11,916833	0,5	0,140950
11,925167	0,5	0,143150
11,933500	0,5	0,148500
11,941833	0,5	0,148850
11,950167	0,5	0,150650
11,958500	0,5	0,158600
11,966833	0,5	0,160900
11,975167	0,5	0,170100
11,983500	0,5	0,174100
11,991833	0,5	0,186450
12,000167	0,5	0,190850
12,008500	0,5	0,202500
12,016833	0,5	0,215600
12,025167	0,5	0,230550
12,033500	0,5	0,247000
12,041833	0,5	0,264800
12,050167	0,5	0,294600
12,058500	0,5	0,316450
12,066833	0,5	0,352950
12,075167	0,5	0,388650
12,083500	0,5	0,429500
12,091833	0,5	0,471500
12,100167	0,5	0,516950
12,108500	0,5	0,575400
12,116833	0,5	0,641300
12,125167	0,5	0,705050
12,133500	0,5	0,780300
12,141833	0,5	0,857350
12,150167	0,5	0,943400
12,158500	0,5	1,031250
12,166833	0,5	1,122000
12,175167	0,5	1,216600
12,183500	0,5	1,311700
12,191833	0,5	1,408650
12,200167	0,5	1,501750
12,208500	0,5	1,588450
12,216833	0,5	1,682300
12,225167	0,5	1,761750
12,233500	0,5	1,839650
12,241833	0,5	1,910550
12,250167	0,5	1,975800
12,258500	0,5	2,041700
12,266833	0,5	2,097300
12,275167	0,5	2,157000
12,283500	0,5	2,208500
12,291833	0,5	2,257650
12,300167	0,5	2,305450
12,308500	0,5	2,349350
12,316833	0,5	2,389800
12,325167	0,5	2,432400
12,333500	0,5	2,470350
12,341833	0,5	2,507550
12,350167	0,5	2,536300
12,358500	0,5	2,568050
12,366833	0,5	2,599700
12,375167	0,5	2,629350
12,383500	0,5	2,656800
12,391833	0,5	2,684750
12,400167	0,5	2,713700
12,408500	0,5	2,741500
12,416833	0,5	2,768700
12,425167	0,5	2,794500
12,433500	0,5	2,819150
12,441833	0,5	2,836300
12,450167	0,5	2,855150
12,458500	0,5	2,868550
12,466833	0,5	2,882900
12,475167	0,5	2,889750
12,483500	0,5	2,899000
12,491833	0,5	2,899750
12,500167	0,5	2,899300
12,508500	0,5	2,900300
12,516833	0,5	2,904000
12,525167	0,5	2,900800
12,533500	0,5	2,901450
12,541833	0,5	2,902400
12,550167	0,5	2,911900
12,558500	0,5	2,917400
12,566833	0,5	2,926000
12,575167	0,5	2,934500
12,583500	0,5	2,940150
12,591833	0,5	2,944450
12,600167	0,5	2,947050
12,608500	0,5	2,944100
12,616833	0,5	2,938700
12,625167	0,5	2,940750
12,633500	0,5	2,939850
12,641833	0,5	2,938350
12,650167	0,5	2,933600
12,658500	0,5	2,942150
12,666833	0,5	2,946250
12,675167	0,5	2,949050
12,683500	0,5	2,954700
12,691833	0,5	2,966150
12,700167	0,5	2,980250
12,708500	0,5	2,996100
12,716833	0,5	3,013650
12,725167	0,5	3,031300
12,733500	0,5	3,052000
12,741833	0,5	3,072950
12,750167	0,5	3,096750
12,758500	0,5	3,115800
12,766833	0,5	3,135750
12,775167	0,5	3,156900
12,783500	0,5	3,177050
12,791833	0,5	3,179850
12,800167	0,5	3,194150
12,808500	0,5	3,202750
12,816833	0,5	3,201700
12,825167	0,5	3,190200
12,833500	0,5	3,178500
12,841833	0,5	3,167450
12,850167	0,5	3,148100
12,858500	0,5	3,123900
12,866833	0,5	3,103150
12,875167	0,5	3,073300
12,883500	0,5	3,045550
12,891833	0,5	3,014100
12,900167	0,5	2,986400
12,908500	0,5	2,959850
12,916833	0,5	2,927050
12,925167	0,5	2,914100
12,933500	0,5	2,895150
12,941833	0,5	2,871200
12,950167	0,5	2,866050
12,958500	0,5	2,857650
12,966833	0,5	2,847650
12,975167	0,5	2,843650
12,983500	0,5	2,829100
12,991833	0,5	2,830150
13,000167	0,5	2,827250
13,008500	0,5	2,824350
13,016833	0,5	2,818350
13,025167	0,5	2,815950
13,033500	0,5	2,811050
13,041833	0,5	2,804950
13,050167	0,5	2,797800
13,058500	0,5	2,790800
13,066833	0,5	2,783700
13,075167	0,5	2,776350
13,083500	0,5	2,770950
13,091833	0,5	2,757600
13,100167	0,5	2,757100
13,108500	0,5	2,751300
13,116833	0,5	2,750400
13,125167	0,5	2,745550
13,133500	0,5	2,741100
13,141833	0,5	2,747100
13,150167	0,5	2,750450
13,158500	0,5	2,752900
13,166833	0,5	2,755900
13,175167	0,5	2,752900
13,183500	0,5	2,753300
13,191833	0,5	2,746950
13,200167	0,5	2,737150
13,208500	0,5	2,725750
13,216833	0,5	2,712300
13,225167	0,5	2,699500
13,233500	0,5	2,685200
13,241833	0,5	2,674300
13,250167	0,5	2,675300
13,258500	0,5	2,669000
13,266833	0,5	2,665900
13,275167	0,5	2,663950
13,283500	0,5	2,656450
13,291833	0,5	2,665350
13,300167	0,5	2,665250
13,308500	0,5	2,666350
13,316833	0,5	2,663000
13,325167	0,5	2,660100
13,333500	0,5	2,655900
13,341833	0,5	2,650050
13,350167	0,5	2,639650
13,358500	0,5	2,633200
13,366833	0,5	2,622150
13,375167	0,5	2,610650
13,383500	0,5	2,590750
13,391833	0,5	2,583500
13,400167	0,5	2,571700
13,408500	0,5	2,554500
13,416833	0,5	2,537000
13,425167	0,5	2,522800
13,433500	0,5	2,512200
13,441833	0,5	2,506350
13,450167	0,5	2,511250
13,458500	0,5	2,514800
13,466833	0,5	2,531400
13,475167	0,5	2,546250
13,483500	0,5	2,560200
13,491833	0,5	2,569050
13,500167	0,5	2,565600
13,508500	0,5	2,553800
13,516833	0,5	2,537450
13,525167	0,5	2,508050
13,533500	0,5	2,483950
13,541833	0,5	2,461850
13,550167	0,5	2,453250
13,558500	0,5	2,438300
13,566833	0,5	2,435750
13,575167	0,5	2,434300
13,583500	0,5	2,431350
13,591833	0,5	2,433600
13,600167	0,5	2,429600
13,608500	0,5	2,424450
13,616833	0,5	2,422800
13,625167	0,5	2,430900
13,633500	0,5	2,445000
13,641833	0,5	2,464250
13,650167	0,5	2,485000
13,658500	0,5	2,504550
13,666833	0,5	2,508400
13,675167	0,5	2,497350
13,683500	0,5	2,479800
13,691833	0,5	2,466100
13,700167	0,5	2,445900
13,708500	0,5	2,425950
13,716833	0,5	2,405050
13,725167	0,5	2,389600
13,733500	0,5	2,385400
13,741833	0,5	2,380650
13,750167	0,5	2,378000
13,758500	0,5	2,384200
13,766833	0,5	2,380250
13,775167	0,5	2,398050
13,783500	0,5	2,424550
13,791833	0,5	2,453900
13,800167	0,5	2,480900
13,808500	0,5	2,491550
13,816833	0,5	2,481750
13,825167	0,5	2,440950
13,833500	0,5	2,408250
13,841833	0,5	2,365950
13,850167	0,5	2,332100
13,858500	0,5	2,302600
13,866833	0,5	2,279800
13,875167	0,5	2,269950
13,883500	0,5	2,271150
13,891833	0,5	2,269850
13,900167	0,5	2,282650
13,908500	0,5	2,297350
13,916833	0,5	2,325950
13,925167	0,5	2,345200
13,933500	0,5	2,357600
13,941833	0,5	2,350950
13,950167	0,5	2,321000
13,958500	0,5	2,281950
13,966833	0,5	2,235050
13,975167	0,5	2,179200
13,983500	0,5	2,154900
13,991833	0,5	2,130050
14,000167	0,5	2,126400
14,008500	0,5	2,132100
14,016833	0,5	2,142700
14,025167	0,5	2,175250
14,033500	0,5	2,192550
14,041833	0,5	2,207650
14,050167	0,5	2,203450
14,058500	0,5	2,191500
14,066833	0,5	2,161800
14,075167	0,5	2,127900
14,083500	0,5	2,090350
14,091833	0,5	2,051250
14,100167	0,5	2,028350
14,108500	0,5	2,014850
14,116833	0,5	2,013350
14,125167	0,5	2,023350
14,133500	0,5	2,041650
14,141833	0,5	2,049000
14,150167	0,5	2,048250
14,158500	0,5	2,032800
14,166833	0,5	2,005300
14,175167	0,5	1,976200
14,183500	0,5	1,949900
14,191833	0,5	1,914850
14,200167	0,5	1,887100
14,208500	0,5	1,866850
14,216833	0,5	1,868750
14,225167	0,5	1,869700
14,233500	0,5	1,878950
14,241833	0,5	1,894950
14,250167	0,5	1,900500
14,258500	0,5	1,904650
14,266833	0,5	1,899000
14,275167	0,5	1,884000
14,283500	0,5	1,866400
14,291833	0,5	1,839850
14,300167	0,5	1,812050
14,308500	0,5	1,789850
14,316833	0,5	1,774400
14,325167	0,5	1,774250
14,333500	0,5	1,777150
14,341833	0,5	1,789500
14,350167	0,5	1,801050
14,358500	0,5	1,809050
14,366833	0,5	1,808100
14,375167	0,5	1,800650
14,383500	0,5	1,780100
14,391833	0,5	1,762350
14,400167	0,5	1,741400
14,408500	0,5	1,724200
14,416833	0,5	1,694150
14,425167	0,5	1,689450
14,433500	0,5	1,677200
14,441833	0,5	1,661750
14,450167	0,5	1,648100
14,458500	0,5	1,630050
14,466833	0,5	1,621250
14,475167	0,5	1,608100
14,483500	0,5	1,596900
14,491833	0,5	1,577500
14,500167	0,5	1,561100
14,508500	0,5	1,543350
14,516833	0,5	1,532450
14,525167	0,5	1,511800
14,533500	0,5	1,499550
14,541833	0,5	1,486000
14,550167	0,5	1,479900
14,558500	0,5	1,459050
14,566833	0,5	1,451250
14,575167	0,5	1,445350
14,583500	0,5	1,432800
14,591833	0,5	1,422800
14,600167	0,5	1,412300
14,608500	0,5	1,407300
14,616833	0,5	1,403400
14,625167	0,5	1,397400
14,633500	0,5	1,395600
14,641833	0,5	1,391000
14,650167	0,5	1,378500
14,658500	0,5	1,366100
14,666833	0,5	1,351150
14,675167	0,5	1,337300
14,683500	0,5	1,321250
14,691833	0,5	1,318550
14,700167	0,5	1,308650
14,708500	0,5	1,298150
14,716833	0,5	1,302100
14,725167	0,5	1,306900
14,733500	0,5	1,297350
14,741833	0,5	1,289800
14,750167	0,5	1,265200
14,758500	0,5	1,256050
14,766833	0,5	1,247700
14,775167	0,5	1,239300
14,783500	0,5	1,228450
14,791833	0,5	1,223950
14,800167	0,5	1,222400
14,808500	0,5	1,215600
14,816833	0,5	1,212600
14,825167	0,5	1,198700
14,833500	0,5	1,195650
14,841833	0,5	1,185200
14,850167	0,5	1,184400
14,858500	0,5	1,168750
14,866833	0,5	1,181150
14,875167	0,5	1,181550
14,883500	0,5	1,178250
14,891833	0,5	1,172950
14,900167	0,5	1,169150
14,908500	0,5	1,171500
14,916833	0,5	1,178750
14,925167	0,5	1,172550
14,933500	0,5	1,179050
14,941833	0,5	1,173550
14,950167	0,5	1,168850
14,958500	0,5	1,160450
14,966833	0,5	1,147850
14,975167	0,5	1,127800
14,983500	0,5	1,111700
14,991833	0,5	1,103750
15,000167	0,5	1,087150
15,008500	0,5	1,072350
15,016833	0,5	1,067750
15,025167	0,5	1,059400
15,033500	0,5	1,046150
15,041833	0,5	1,038400
15,050167	0,5	1,018800
15,058500	0,5	1,021950
15,066833	0,5	1,007250
15,075167	0,5	1,005150
15,083500	0,5	0,995900
15,091833	0,5	0,992400
15,100167	0,5	0,985050
15,108500	0,5	0,980600
15,116833	0,5	0,970250
15,125167	0,5	0,966150
15,133500	0,5	0,967650
15,141833	0,5	0,967900
15,150167	0,5	0,955500
15,158500	0,5	0,955500
15,166833	0,5	0,957750
15,175167	0,5	0,950200
15,183500	0,5	0,938750
15,191833	0,5	0,925850
15,200167	0,5	0,917950
15,208500	0,5	0,914850
15,216833	0,5	0,911250
15,225167	0,5	0,904600
15,233500	0,5	0,901600
15,241833	0,5	0,900900
15,250167	0,5	0,902050
15,258500	0,5	0,899000
15,266833	0,5	0,903000
15,275167	0,5	0,904950
15,283500	0,5	0,909150
15,291833	0,5	0,915150
15,300167	0,5	0,915000
15,308500	0,5	0,923200
15,316833	0,5	0,926550
15,325167	0,5	0,929750
15,333500	0,5	0,932350
15,341833	0,5	0,929250
15,350167	0,5	0,931250
15,358500	0,5	0,945650
15,366833	0,5	0,951800
15,375167	0,5	0,956000
15,383500	0,5	0,955200
15,391833	0,5	0,954400
15,400167	0,5	0,948150
15,408500	0,5	0,940200
15,416833	0,5	0,927650
15,425167	0,5	0,931200
15,433500	0,5	0,931400
15,441833	0,5	0,928300
15,450167	0,5	0,931300
15,458500	0,5	0,942400
15,466833	0,5	0,943000
15,475167	0,5	0,936450
15,483500	0,5	0,921650
15,491833	0,5	0,916950
15,500167	0,5	0,917600
15,508500	0,5	0,919750
15,516833	0,5	0,927300
15,525167	0,5	0,932850
15,533500	0,5	0,935250
15,541833	0,5	0,922200
15,550167	0,5	0,908000
15,558500	0,5	0,885500
15,566833	0,5	0,866350
15,575167	0,5	0,843100
15,583500	0,5	0,823400
15,591833	0,5	0,798500
15,600167	0,5	0,792350
15,608500	0,5	0,779950
15,616833	0,5	0,771000
15,625167	0,5	0,760800
15,633500	0,5	0,747700
15,641833	0,5	0,745350
15,650167	0,5	0,742400
15,658500	0,5	0,741350
15,666833	0,5	0,739200
15,675167	0,5	0,741100
15,683500	0,5	0,744900
15,691833	0,5	0,748050
15,700167	0,5	0,747000
15,708500	0,5	0,742250
15,716833	0,5	0,736500
15,725167	0,5	0,733550
15,733500	0,5	0,722300
15,741833	0,5	0,706050
15,750167	0,5	0,706250
15,758500	0,5	0,704050
15,766833	0,5	0,700450
15,775167	0,5	0,696900
15,783500	0,5	0,686600
15,791833	0,5	0,693350
15,800167	0,5	0,691500
15,808500	0,5	0,688950
15,816833	0,5	0,683350
15,825167	0,5	0,674350
15,833500	0,5	0,666000
15,841833	0,5	0,649550
15,850167	0,5	0,642450
15,858500	0,5	0,624150
15,866833	0,5	0,615450
15,875167	0,5	0,605950
15,883500	0,5	0,603850
15,891833	0,5	0,592200
15,900167	0,5	0,596750
15,908500	0,5	0,584200
15,916833	0,5	0,577950
15,925167	0,5	0,563100
15,933500	0,5	0,552700
15,941833	0,5	0,552800
15,950167	0,5	0,546650
15,958500	0,5	0,541250
15,966833	0,5	0,536600
15,975167	0,5	0,534850
15,983500	0,5	0,531100
15,991833	0,5	0,527250
16,000167	0,5	0,524800
16,008500	0,5	0,522000
16,016833	0,5	0,516050
16,025167	0,5	0,524600
16,033500	0,5	0,518800
16,041833	0,5	0,520250
16,050167	0,5	0,525350
16,058500	0,5	0,525150
16,066833	0,5	0,520100
16,075167	0,5	0,513500
16,083500	0,5	0,512050
16,091833	0,5	0,528600
16,100167	0,5	0,524850
16,108500	0,5	0,535650
16,116833	0,5	0,536250
16,125167	0,5	0,544700
16,133500	0,5	0,543150
16,141833	0,5	0,546100
16,150167	0,5	0,545050
16,158500	0,5	0,543500
16,166833	0,5	0,552300
16,175167	0,5	0,560900
16,183500	0,5	0,556750
16,191833	0,5	0,572000
16,200167	0,5	0,571350
16,208500	0,5	0,568250
16,216833	0,5	0,561150
16,225167	0,5	0,543500
16,233500	0,5	0,542550
16,241833	0,5	0,542200
16,250167	0,5	0,548100
16,258500	0,5	0,542350
16,266833	0,5	0,542450
16,275167	0,5	0,539950
16,283500	0,5	0,543750
16,291833	0,5	0,538200
16,300167	0,5	0,533400
16,308500	0,5	0,531800
16,316833	0,5	0,534550
16,325167	0,5	0,525600
16,333500	0,5	0,529700
16,341833	0,5	0,537650
16,350167	0,5	0,541000
16,358500	0,5	0,546900
16,366833	0,5	0,540100
16,375167	0,5	0,545000
16,383500	0,5	0,547300
16,391833	0,5	0,551000
16,400167	0,5	0,553800
16,408500	0,5	0,564200
16,416833	0,5	0,569000
16,425167	0,5	0,573550
16,433500	0,5	0,576100
16,441833	0,5	0,586550
16,450167	0,5	0,593350
16,458500	0,5	0,605250
16,466833	0,5	0,620000
16,475167	0,5	0,625750
16,483500	0,5	0,644450
16,491833	0,5	0,659000
16,500167	0,5	0,663550
16,508500	0,5	0,663450
16,516833	0,5	0,653850
16,525167	0,5	0,646700
16,533500	0,5	0,649250
16,541833	0,5	0,646950
16,550167	0,5	0,647800
16,558500	0,5	0,645350
16,566833	0,5	0,647200
16,575167	0,5	0,647500
16,583500	0,5	0,647700
16,591833	0,5	0,638850
16,600167	0,5	0,637300
16,608500	0,5	0,641150
16,616833	0,5	0,640600
16,625167	0,5	0,625300
16,633500	0,5	0,633850
16,641833	0,5	0,638650
16,650167	0,5	0,635750
16,658500	0,5	0,634450
16,666833	0,5	0,625000
16,675167	0,5	0,633000
16,683500	0,5	0,631200
16,691833	0,5	0,627950
16,700167	0,5	0,629700
16,708500	0,5	0,628750
16,716833	0,5	0,624400
16,725167	0,5	0,629000
16,733500	0,5	0,622900
16,741833	0,5	0,624600
16,750167	0,5	0,617300
16,758500	0,5	0,624600
16,766833	0,5	0,612900
16,775167	0,5	0,603900
16,783500	0,5	0,604000
16,791833	0,5	0,603650
16,800167	0,5	0,594400
16,808500	0,5	0,592700
16,816833	0,5	0,592800
16,825167	0,5	0,600800
16,833500	0,5	0,607500
16,841833	0,5	0,616800
16,850167	0,5	0,623700
16,858500	0,5	0,632650
16,866833	0,5	0,632600
16,875167	0,5	0,630850
16,883500	0,5	0,626050
16,891833	0,5	0,615400
16,900167	0,5	0,614750
16,908500	0,5	0,611050
16,916833	0,5	0,591900
16,925167	0,5	0,589950
16,933500	0,5	0,593800
16,941833	0,5	0,589800
16,950167	0,5	0,589800
16,958500	0,5	0,584150
16,966833	0,5	0,598750
16,975167	0,5	0,612850
16,983500	0,5	0,613250
16,991833	0,5	0,610100
17,000167	0,5	0,605800
17,008500	0,5	0,592900
17,016833	0,5	0,573000
17,025167	0,5	0,557850
17,033500	0,5	0,539400
17,041833	0,5	0,524500
17,050167	0,5	0,516100
17,058500	0,5	0,518100
17,066833	0,5	0,503850
17,075167	0,5	0,512950
17,083500	0,5	0,505600
17,091833	0,5	0,496850
17,100167	0,5	0,480750
17,108500	0,5	0,455100
17,116833	0,5	0,440500
17,125167	0,5	0,432150
17,133500	0,5	0,412750
17,141833	0,5	0,403500
17,150167	0,5	0,390950
17,158500	0,5	0,382700
17,166833	0,5	0,371200
17,175167	0,5	0,358050
17,183500	0,5	0,341400
17,191833	0,5	0,326850
17,200167	0,5	0,328550
17,208500	0,5	0,316550
17,216833	0,5	0,305050
17,225167	0,5	0,307250
17,233500	0,5	0,299250
17,241833	0,5	0,293350
17,250167	0,5	0,282550
17,258500	0,5	0,269950
17,266833	0,5	0,271150
17,275167	0,5	0,270100
17,283500	0,5	0,263900
17,291833	0,5	0,259200
17,300167	0,5	0,256450
17,308500	0,5	0,244700
17,316833	0,5	0,240850
17,325167	0,5	0,233400
17,333500	0,5	0,222900
17,341833	0,5	0,223800
17,350167	0,5	0,217550
17,358500	0,5	0,205650
17,366833	0,5	0,205100
17,375167	0,5	0,203950
17,383500	0,5	0,191200
17,391833	0,5	0,186100
17,400167	0,5	0,173850
17,408500	0,5	0,169400
17,416833	0,5	0,165350
17,425167	0,5	0,168050
17,433500	0,5	0,164700
17,441833	0,5	0,167700
17,450167	0,5	0,161000
17,458500	0,5	0,160250
17,466833	0,5	0,158450
17,475167	0,5	0,150800
17,483500	0,5	0,145850
17,491833	0,5	0,144700
17,500167	0,5	0,141050
17,508500	0,5	0,130300
17,516833	0,5	0,133500
17,525167	0,5	0,137700
17,533500	0,5	0,125900
17,541833	0,5	0,112300
17,550167	0,5	0,103600
17,558500	0,5	0,099500
17,566833	0,5	0,103200
17,575167	0,5	0,086350
17,583500	0,5	0,092500
17,591833	0,5	0,084900
17,600167	0,5	0,080500
17,608500	0,5	0,074500
17,616833	0,5	0,071750
17,625167	0,5	0,065700
17,633500	0,5	0,056550
17,641833	0,5	0,058050
17,650167	0,5	0,047650
17,658500	0,5	0,044700
17,666833	0,5	0,046700
17,675167	0,5	0,038300
17,683500	0,5	0,032350
17,691833	0,5	0,015950
17,700167	0,5	0,011500
17,708500	0,5	0,015750
17,716833	0,5	0,008900
17,725167	0,5	0,007650
17,733500	0,5	-0,002900
17,741833	0,5	-0,002300
17,750167	0,5	-0,006650
17,758500	0,5	-0,006300
17,766833	0,5	-0,011000
17,775167	0,5	-0,016550
17,783500	0,5	-0,018500
17,791833	0,5	-0,018200
17,800167	0,5	-0,038100
17,808500	0,5	-0,029350
17,816833	0,5	-0,032500
17,825167	0,5	-0,032450
17,833500	0,5	-0,040000
17,841833	0,5	-0,061400
17,850167	0,5	-0,060700
17,858500	0,5	-0,062200
17,866833	0,5	-0,062400
17,875167	0,5	-0,067300
17,883500	0,5	-0,064450
17,891833	0,5	-0,066550
17,900167	0,5	-0,065200
17,908500	0,5	-0,069200
17,916833	0,5	-0,064000
17,925167	0,5	-0,066400
17,933500	0,5	-0,061350
17,941833	0,5	-0,052700
17,950167	0,5	-0,057950
17,958500	0,5	-0,045100
17,966833	0,5	-0,043300
17,975167	0,5	-0,043800
17,983500	0,5	-0,039250
17,991833	0,5	-0,044350
18,000167	0,5	-0,036800
18,008500	0,5	-0,025600
18,016833	0,5	-0,019100
18,025167	0,5	-0,015800
18,033500	0,5	-0,012450
18,041833	0,5	-0,008150
18,050167	0,5	-0,005050
18,058500	0,5	0,000450
18,066833	0,5	-0,003900
18,075167	0,5	-0,002100
18,083500	0,5	-0,003400
18,091833	0,5	-0,004050
18,100167	0,5	-0,007550
18,108500	0,5	0,003250
18,116833	0,5	-0,003200
18,125167	0,5	-0,006400
18,133500	0,5	-0,021150
18,141833	0,5	-0,030450
18,150167	0,5	-0,032300
18,158500	0,5	-0,035050
18,166833	0,5	-0,052200
18,175167	0,5	-0,046100
18,183500	0,5	-0,048600
18,191833	0,5	-0,052650
18,200167	0,5	-0,055650
18,208500	0,5	-0,060550
18,216833	0,5	-0,062000
18,225167	0,5	-0,066550
18,233500	0,5	-0,056900
18,241833	0,5	-0,071900
18,250167	0,5	-0,064200
18,258500	0,5	-0,063600
18,266833	0,5	-0,070100
18,275167	0,5	-0,079950
18,283500	0,5	-0,094900
18,291833	0,5	-0,106700
18,300167	0,5	-0,109750
18,308500	0,5	-0,118000
18,316833	0,5	-0,120750
18,325167	0,5	-0,131050
18,333500	0,5	-0,138300
18,341833	0,5	-0,144000
18,350167	0,5	-0,150300
18,358500	0,5	-0,162100
18,366833	0,5	-0,168200
18,375167	0,5	-0,164050
18,383500	0,5	-0,173600
18,391833	0,5	-0,183350
18,400167	0,5	-0,178700
18,408500	0,5	-0,180150
18,416833	0,5	-0,188150
18,425167	0,5	-0,195650
18,433500	0,5	-0,209150
18,441833	0,5	-0,207550
18,450167	0,5	-0,214450
18,458500	0,5	-0,212750
18,466833	0,5	-0,217500
18,475167	0,5	-0,212350
18,483500	0,5	-0,214800
18,491833	0,5	-0,212350
18,500167	0,5	-0,211900
18,508500	0,5	-0,212800
18,516833	0,5	-0,209050
18,525167	0,5	-0,207450
18,533500	0,5	-0,222200
18,541833	0,5	-0,217350
18,550167	0,5	-0,210050
18,558500	0,5	-0,217300
18,566833	0,5	-0,215600
18,575167	0,5	-0,232850
18,583500	0,5	-0,228850
18,591833	0,5	-0,225350
18,600167	0,5	-0,217900
18,608500	0,5	-0,218900
18,616833	0,5	-0,210850
18,625167	0,5	-0,207450
18,633500	0,5	-0,201350
18,641833	0,5	-0,193200
18,650167	0,5	-0,191000
18,658500	0,5	-0,192500
18,666833	0,5	-0,188550
18,675167	0,5	-0,186350
18,683500	0,5	-0,204850
18,691833	0,5	-0,202550
18,700167	0,5	-0,204600
18,708500	0,5	-0,213500
18,716833	0,5	-0,225200
18,725167	0,5	-0,243600
18,733500	0,5	-0,241600
18,741833	0,5	-0,240250
18,750167	0,5	-0,255850
18,758500	0,5	-0,261100
18,766833	0,5	-0,264850
18,775167	0,5	-0,259450
18,783500	0,5	-0,262950
18,791833	0,5	-0,262350
18,800167	0,5	-0,266900
18,808500	0,5	-0,267550
18,816833	0,5	-0,259450
18,825167	0,5	-0,267850
18,833500	0,5	-0,281150
18,841833	0,5	-0,273700
18,850167	0,5	-0,275450
18,858500	0,5	-0,285500
18,866833	0,5	-0,288500
18,875167	0,5	-0,302800
18,883500	0,5	-0,293300
18,891833	0,5	-0,299550
18,900167	0,5	-0,296650
18,908500	0,5	-0,303350
18,916833	0,5	-0,299050
18,925167	0,5	-0,313200
18,933500	0,5	-0,310450
18,941833	0,5	-0,318150
18,950167	0,5	-0,317350
18,958500	0,5	-0,318050
18,966833	0,5	-0,304200
18,975167	0,5	-0,311950
18,983500	0,5	-0,305850
18,991833	0,5	-0,296150
19,000167	0,5	-0,294350
19,008500	0,5	-0,298500
19,016833	0,5	-0,314800
19,025167	0,5	-0,315150
19,033500	0,5	-0,312550
19,041833	0,5	-0,310950
19,050167	0,5	-0,328550
19,058500	0,5	-0,331650
19,066833	0,5	-0,341450
19,075167	0,5	-0,347600
19,083500	0,5	-0,358200
19,091833	0,5	-0,361550
19,100167	0,5	-0,372350
19,108500	0,5	-0,364300
19,116833	0,5	-0,369050
19,125167	0,5	-0,379700
19,133500	0,5	-0,374150
19,141833	0,5	-0,373500
19,150167	0,5	-0,383350
19,158500	0,5	-0,387650
19,166833	0,5	-0,403050
19,175167	0,5	-0,405300
19,183500	0,5	-0,401350
19,191833	0,5	-0,401150
19,200167	0,5	-0,400050
19,208500	0,5	-0,398450
19,216833	0,5	-0,391850
19,225167	0,5	-0,391800
19,233500	0,5	-0,381100
19,241833	0,5	-0,381700
19,250167	0,5	-0,371350
19,258500	0,5	-0,357600
19,266833	0,5	-0,348300
19,275167	0,5	-0,345600
19,283500	0,5	-0,333400
19,291833	0,5	-0,334350
19,300167	0,5	-0,343350
19,308500	0,5	-0,359250
19,316833	0,5	-0,376450
19,325167	0,5	-0,372500
19,333500	0,5	-0,370350
19,341833	0,5	-0,373000
19,350167	0,5	-0,376200
19,358500	0,5	-0,385950
19,366833	0,5	-0,395700
19,375167	0,5	-0,399650
19,383500	0,5	-0,404950
19,391833	0,5	-0,404000
19,400167	0,5	-0,394050
19,408500	0,5	-0,373850
19,416833	0,5	-0,374800
19,425167	0,5	-0,360600
19,433500	0,5	-0,344200
19,441833	0,5	-0,338400
19,450167	0,5	-0,341450
19,458500	0,5	-0,351950
19,466833	0,5	-0,363300
19,475167	0,5	-0,375250
19,483500	0,5	-0,392550
19,491833	0,5	-0,409800
19,500167	0,5	-0,420400
19,508500	0,5	-0,429250
19,516833	0,5	-0,434650
19,525167	0,5	-0,436750
19,533500	0,5	-0,441450
19,541833	0,5	-0,451250
19,550167	0,5	-0,435000
19,558500	0,5	-0,443050
19,566833	0,5	-0,450000
19,575167	0,5	-0,444900
19,583500	0,5	-0,447500
19,591833	0,5	-0,458800
19,600167	0,5	-0,469250
19,608500	0,5	-0,482400
19,616833	0,5	-0,478850
19,625167	0,5	-0,481250
19,633500	0,5	-0,476050
19,641833	0,5	-0,474500
19,650167	0,5	-0,464600
19,658500	0,5	-0,456800
19,666833	0,5	-0,449550
19,675167	0,5	-0,442300
19,683500	0,5	-0,442800
19,691833	0,5	-0,435900
19,700167	0,5	-0,426250
19,708500	0,5	-0,435400
19,716833	0,5	-0,432900
19,725167	0,5	-0,428950
19,733500	0,5	-0,432750
19,741833	0,5	-0,439550
19,750167	0,5	-0,455250
19,758500	0,5	-0,446550
19,766833	0,5	-0,444150
19,775167	0,5	-0,433950
19,783500	0,5	-0,431350
19,791833	0,5	-0,425950
19,800167	0,5	-0,430150
19,808500	0,5	-0,438450
19,816833	0,5	-0,443500
19,825167	0,5	-0,463900
19,833500	0,5	-0,473650
19,841833	0,5	-0,484750
19,850167	0,5	-0,480200
19,858500	0,5	-0,502800
19,866833	0,5	-0,491750
19,875167	0,5	-0,489100
19,883500	0,5	-0,490600
19,891833	0,5	-0,499300
19,900167	0,5	-0,513600
19,908500	0,5	-0,507850
19,916833	0,5	-0,499100
19,925167	0,5	-0,505850
19,933500	0,5	-0,504450
19,941833	0,5	-0,502900
19,950167	0,5	-0,490200
19,958500	0,5	-0,482600
19,966833	0,5	-0,474400
19,975167	0,5	-0,464150
19,983500	0,5	-0,452800
19,991833	0,5	-0,424850
20,000167	0,5	-0,410850
20,008500	0,5	-0,412700
20,016833	0,5	-0,402100
20,025167	0,5	-0,409650
20,033500	0,5	-0,433100
20,041833	0,5	-0,455950
20,050167	0,5	-0,483250
20,058500	0,5	-0,478400
20,066833	0,5	-0,484400
20,075167	0,5	-0,480050
20,083500	0,5	-0,489050
20,091833	0,5	-0,482100
20,100167	0,5	-0,483850
20,108500	0,5	-0,477800
20,116833	0,5	-0,475050
20,125167	0,5	-0,474250
20,133500	0,5	-0,470550
20,141833	0,5	-0,463250
20,150167	0,5	-0,468600
20,158500	0,5	-0,464450
20,166833	0,5	-0,465300
20,175167	0,5	-0,468250
20,183500	0,5	-0,468150
20,191833	0,5	-0,481750
20,200167	0,5	-0,479550
20,208500	0,5	-0,472750
20,216833	0,5	-0,458300
20,225167	0,5	-0,455700
20,233500	0,5	-0,439950
20,241833	0,5	-0,434150
20,250167	0,5	-0,419200
20,258500	0,5	-0,404900
20,266833	0,5	-0,393750
20,275167	0,5	-0,377250
20,283500	0,5	-0,368200
20,291833	0,5	-0,372500
20,300167	0,5	-0,395500
20,308500	0,5	-0,409700
20,316833	0,5	-0,430300
20,325167	0,5	-0,454900
20,333500	0,5	-0,479900
20,341833	0,5	-0,493350
20,350167	0,5	-0,502750
20,358500	0,5	-0,497350
20,366833	0,5	-0,504150
20,375167	0,5	-0,498600
20,383500	0,5	-0,496900
20,391833	0,5	-0,489350
20,400167	0,5	-0,488050
20,408500	0,5	-0,479400
20,416833	0,5	-0,472250
20,425167	0,5	-0,462800
20,433500	0,5	-0,443150
20,441833	0,5	-0,439500
20,450167	0,5	-0,437300
20,458500	0,5	-0,437850
20,466833	0,5	-0,450100
20,475167	0,5	-0,463600
20,483500	0,5	-0,489900
20,491833	0,5	-0,504900
20,500167	0,5	-0,503750
20,508500	0,5	-0,506600
20,516833	0,5	-0,501000
20,525167	0,5	-0,513250
20,533500	0,5	-0,509600
20,541833	0,5	-0,508650
20,550167	0,5	-0,498050
20,558500	0,5	-0,501500
20,566833	0,5	-0,494500
20,575167	0,5	-0,476550
20,583500	0,5	-0,463300
20,591833	0,5	-0,472700
20,600167	0,5	-0,462950
20,608500	0,5	-0,461150
20,616833	0,5	-0,461750
20,625167	0,5	-0,468800
20,633500	0,5	-0,472100
20,641833	0,5	-0,450300
20,650167	0,5	-0,439700
20,658500	0,5	-0,429400
20,666833	0,5	-0,428950
20,675167	0,5	-0,432700
20,683500	0,5	-0,445950
20,691833	0,5	-0,451700
20,700167	0,5	-0,461850
20,708500	0,5	-0,458700
20,716833	0,5	-0,455600
20,725167	0,5	-0,435850
20,733500	0,5	-0,428950
20,741833	0,5	-0,433450
20,750167	0,5	-0,428200
20,758500	0,5	-0,426200
20,766833	0,5	-0,435050
20,775167	0,5	-0,447800
20,783500	0,5	-0,453900
20,791833	0,5	-0,449250
20,800167	0,5	-0,444750
20,808500	0,5	-0,446750
20,816833	0,5	-0,438450
20,825167	0,5	-0,442750
20,833500	0,5	-0,425950
20,841833	0,5	-0,418850
20,850167	0,5	-0,412650
20,858500	0,5	-0,410150
20,866833	0,5	-0,391650
20,875167	0,5	-0,377950
20,883500	0,5	-0,369600
20,891833	0,5	-0,372400
20,900167	0,5	-0,366800
20,908500	0,5	-0,361000
20,916833	0,5	-0,368150
20,925167	0,5	-0,373400
20,933500	0,5	-0,363350
20,941833	0,5	-0,351000
20,950167	0,5	-0,350700
20,958500	0,5	-0,350650
20,966833	0,5	-0,347500
20,975167	0,5	-0,343500
20,983500	0,5	-0,341100
20,991833	0,5	-0,343800
21,000167	0,5	-0,341800
21,008500	0,5	-0,339500
21,016833	0,5	-0,322600
21,025167	0,5	-0,306700
21,033500	0,5	-0,316100
21,041833	0,5	-0,308650
21,050167	0,5	-0,311250
21,058500	0,5	-0,315000
21,066833	0,5	-0,319750
21,075167	0,5	-0,330150
21,083500	0,5	-0,318650
21,091833	0,5	-0,311550
21,100167	0,5	-0,295350
21,108500	0,5	-0,290300
21,116833	0,5	-0,284800
21,125167	0,5	-0,280600
21,133500	0,5	-0,268600
21,141833	0,5	-0,271800
21,150167	0,5	-0,262350
21,158500	0,5	-0,250400
21,166833	0,5	-0,233150
21,175167	0,5	-0,224400
21,183500	0,5	-0,227000
21,191833	0,5	-0,219900
21,200167	0,5	-0,222900
21,208500	0,5	-0,227950
21,216833	0,5	-0,242400
21,225167	0,5	-0,235400
21,233500	0,5	-0,230200
21,241833	0,5	-0,218600
21,250167	0,5	-0,217100
21,258500	0,5	-0,203150
21,266833	0,5	-0,197800
21,275167	0,5	-0,186050
21,283500	0,5	-0,185050
21,291833	0,5	-0,172300
21,300167	0,5	-0,165850
21,308500	0,5	-0,135600
21,316833	0,5	-0,118300
21,325167	0,5	-0,108850
21,333500	0,5	-0,097750
21,341833	0,5	-0,080950
21,350167	0,5	-0,069100
21,358500	0,5	-0,053800
21,366833	0,5	-0,036250
21,375167	0,5	-0,013850
21,383500	0,5	0,012500
21,391833	0,5	0,019100
21,400167	0,5	0,021450
21,408500	0,5	0,014000
21,416833	0,5	0,016400
21,425167	0,5	0,015550
21,433500	0,5	0,026200
21,441833	0,5	0,033150
21,450167	0,5	0,050650
21,458500	0,5	0,073850
21,466833	0,5	0,088150
21,475167	0,5	0,084650
21,483500	0,5	0,085750
21,491833	0,5	0,079150
21,500167	0,5	0,076600
21,508500	0,5	0,057600
21,516833	0,5	0,064600
21,525167	0,5	0,081050
21,533500	0,5	0,086000
21,541833	0,5	0,101250
21,550167	0,5	0,107550
21,558500	0,5	0,129750
21,566833	0,5	0,140400
21,575167	0,5	0,166550
21,583500	0,5	0,176900
21,591833	0,5	0,197200
21,600167	0,5	0,225050
21,608500	0,5	0,248850
21,616833	0,5	0,246650
21,625167	0,5	0,255400
21,633500	0,5	0,265850
21,641833	0,5	0,270200
21,650167	0,5	0,274150
21,658500	0,5	0,275600
21,666833	0,5	0,297150
21,675167	0,5	0,312750
21,683500	0,5	0,331700
21,691833	0,5	0,342100
21,700167	0,5	0,361250
21,708500	0,5	0,366300
21,716833	0,5	0,387150
21,725167	0,5	0,398500
21,733500	0,5	0,416250
21,741833	0,5	0,440250
21,750167	0,5	0,475300
21,758500	0,5	0,494800
21,766833	0,5	0,504050
21,775167	0,5	0,516150
21,783500	0,5	0,530800
21,791833	0,5	0,536300
21,800167	0,5	0,535500
21,808500	0,5	0,551550
21,816833	0,5	0,573500
21,825167	0,5	0,600250
21,833500	0,5	0,616250
21,841833	0,5	0,640350
21,850167	0,5	0,658850
21,858500	0,5	0,684400
21,866833	0,5	0,711700
21,875167	0,5	0,739200
21,883500	0,5	0,765700
21,891833	0,5	0,809050
21,900167	0,5	0,849850
21,908500	0,5	0,862100
21,916833	0,5	0,900600
21,925167	0,5	0,930850
21,933500	0,5	0,952450
21,941833	0,5	0,968400
21,950167	0,5	0,983000
21,958500	0,5	1,011400
21,966833	0,5	1,038300
21,975167	0,5	1,055400
21,983500	0,5	1,083000
21,991833	0,5	1,101400
22,000167	0,5	1,114650
22,008500	0,5	1,135300
22,016833	0,5	1,162500
22,025167	0,5	1,182900
22,033500	0,5	1,212650
22,041833	0,5	1,245550
22,050167	0,5	1,272800
22,058500	0,5	1,291100
22,066833	0,5	1,328250
22,075167	0,5	1,346050
22,083500	0,5	1,370200
22,091833	0,5	1,388350
22,100167	0,5	1,401200
22,108500	0,5	1,450300
22,116833	0,5	1,478950
22,125167	0,5	1,512450
22,133500	0,5	1,545850
22,141833	0,5	1,578350
22,150167	0,5	1,610850
22,158500	0,5	1,647800
22,166833	0,5	1,676000
22,175167	0,5	1,706650
22,183500	0,5	1,735150
22,191833	0,5	1,764650
22,200167	0,5	1,787400
22,208500	0,5	1,834650
22,216833	0,5	1,878650
22,225167	0,5	1,909450
22,233500	0,5	1,946550
22,241833	0,5	1,978900
22,250167	0,5	2,025700
22,258500	0,5	2,074450
22,266833	0,5	2,126400
22,275167	0,5	2,171850
22,283500	0,5	2,217400
22,291833	0,5	2,252100
22,300167	0,5	2,302900
22,308500	0,5	2,349250
22,316833	0,5	2,392500
22,325167	0,5	2,433150
22,333500	0,5	2,466900
22,341833	0,5	2,502950
22,350167	0,5	2,567700
22,358500	0,5	2,625100
22,366833	0,5	2,672150
22,375167	0,5	2,722600
22,383500	0,5	2,769100
22,391833	0,5	2,820700
22,400167	0,5	2,882600
22,408500	0,5	2,946850
22,416833	0,5	3,009750
22,425167	0,5	3,078200
22,433500	0,5	3,141400
22,441833	0,5	3,208950
22,450167	0,5	3,266400
22,458500	0,5	3,329550
22,466833	0,5	3,385250
22,475167	0,5	3,428600
22,483500	0,5	3,464900
22,491833	0,5	3,521700
22,500167	0,5	3,588200
22,508500	0,5	3,644750
22,516833	0,5	3,686050
22,525167	0,5	3,726550
22,533500	0,5	3,760750
22,541833	0,5	3,803950
22,550167	0,5	3,854100
22,558500	0,5	3,887700
22,566833	0,5	3,926150
22,575167	0,5	3,959800
22,583500	0,5	3,989400
22,591833	0,5	4,014450
22,600167	0,5	4,042750
22,608500	0,5	4,056000
22,616833	0,5	4,069900
22,625167	0,5	4,043050
22,633500	0,5	4,053500
22,641833	0,5	4,063200
22,650167	0,5	4,066100
22,658500	0,5	4,048500
22,666833	0,5	4,017350
22,675167	0,5	3,973900
22,683500	0,5	3,920650
22,691833	0,5	3,887150
22,700167	0,5	3,834650
22,708500	0,5	3,780850
22,716833	0,5	3,720200
22,725167	0,5	3,660050
22,733500	0,5	3,595500
22,741833	0,5	3,527350
22,750167	0,5	3,446400
22,758500	0,5	3,366400
22,766833	0,5	3,250650
22,775167	0,5	3,140900
22,783500	0,5	3,055750
22,791833	0,5	2,981300
22,800167	0,5	2,871850
22,808500	0,5	2,758450
22,816833	0,5	2,641550
22,825167	0,5	2,520750
22,833500	0,5	2,402750
22,841833	0,5	2,283050
22,850167	0,5	2,157950
22,858500	0,5	2,047750
22,866833	0,5	1,926300
22,875167	0,5	1,812400
22,883500	0,5	1,691950
22,891833	0,5	1,576800
22,900167	0,5	1,455800
22,908500	0,5	1,344450
22,916833	0,5	1,216750
22,925167	0,5	1,100400
22,933500	0,5	0,991700
22,941833	0,5	0,863300
22,950167	0,5	0,738000
22,958500	0,5	0,621250
22,966833	0,5	0,514500
22,975167	0,5	0,405900
22,983500	0,5	0,297200
22,991833	0,5	0,189900
23,000167	0,5	0,098000
23,008500	0,5	0,004750
23,016833	0,5	-0,074950
23,025167	0,5	-0,163050
23,033500	0,5	-0,245300
23,041833	0,5	-0,323100
23,050167	0,5	-0,394450
23,058500	0,5	-0,451400
23,066833	0,5	-0,535400
23,075167	0,5	-0,590350
23,083500	0,5	-0,682950
23,091833	0,5	-0,778750
23,100167	0,5	-0,836800
23,108500	0,5	-0,893050
23,116833	0,5	-0,942200
23,125167	0,5	-0,982800
23,133500	0,5	-1,042850
23,141833	0,5	-1,083250
23,150167	0,5	-1,122200
23,158500	0,5	-1,150100
23,166833	0,5	-1,179100
23,175167	0,5	-1,207800
23,183500	0,5	-1,239550
23,191833	0,5	-1,258550
23,200167	0,5	-1,285400
23,208500	0,5	-1,294550
23,216833	0,5	-1,322900
23,225167	0,5	-1,329050
23,233500	0,5	-1,382600
23,241833	0,5	-1,421550
23,250167	0,5	-1,442800
23,258500	0,5	-1,450900
23,266833	0,5	-1,462800
23,275167	0,5	-1,477650
23,283500	0,5	-1,484400
23,291833	0,5	-1,493550
23,300167	0,5	-1,495400
23,308500	0,5	-1,494750
23,316833	0,5	-1,491800
23,325167	0,5	-1,488750
23,333500	0,5	-1,484400
23,341833	0,5	-1,482050
23,350167	0,5	-1,469300
23,358500	0,5	-1,501500
23,366833	0,5	-1,483600
23,375167	0,5	-1,444200
23,383500	0,5	-1,465800
23,391833	0,5	-1,480050
23,400167	0,5	-1,481550
23,408500	0,5	-1,475200
23,416833	0,5	-1,473800
23,425167	0,5	-1,475200
23,433500	0,5	-1,469350
23,441833	0,5	-1,464100
23,450167	0,5	-1,453000
23,458500	0,5	-1,445900
23,466833	0,5	-1,431400
23,475167	0,5	-1,421050
23,483500	0,5	-1,408750
23,491833	0,5	-1,395350
23,500167	0,5	-1,395000
23,508500	0,5	-1,429100
23,516833	0,5	-1,389100
23,525167	0,5	-1,342400
23,533500	0,5	-1,342800
23,541833	0,5	-1,338200
23,550167	0,5	-1,335650
23,558500	0,5	-1,328500
23,566833	0,5	-1,326450
23,575167	0,5	-1,317850
23,583500	0,5	-1,312150
23,591833	0,5	-1,301650
23,600167	0,5	-1,294500
23,608500	0,5	-1,282250
23,616833	0,5	-1,273950
23,625167	0,5	-1,264900
23,633500	0,5	-1,251600
23,641833	0,5	-1,243850
23,650167	0,5	-1,332950
23,658500	0,5	-1,291400
23,666833	0,5	-1,263250
23,675167	0,5	-1,205350
23,683500	0,5	-1,191350
23,691833	0,5	-1,182250
23,700167	0,5	-1,172750
23,708500	0,5	-1,164650
23,716833	0,5	-1,149900
23,725167	0,5	-1,138350
23,733500	0,5	-1,124950
23,741833	0,5	-1,114700
23,750167	0,5	-1,103800
23,758500	0,5	-1,089650
23,766833	0,5	-1,075950
23,775167	0,5	-1,063550
23,783500	0,5	-1,052250
23,791833	0,5	-1,058850
23,800167	0,5	-1,155150
23,808500	0,5	-1,111200
23,816833	0,5	-1,072400
23,825167	0,5	-1,021000
23,833500	0,5	-1,005250
23,841833	0,5	-0,995350
23,850167	0,5	-0,987400
23,858500	0,5	-0,984050
23,866833	0,5	-0,960050
23,875167	0,5	-0,945350
23,883500	0,5	-0,930400
23,891833	0,5	-0,918800
23,900167	0,5	-0,899950
23,908500	0,5	-0,887350
23,916833	0,5	-0,866250
23,925167	0,5	-0,850250
23,933500	0,5	-0,837900
23,941833	0,5	-0,916950
23,950167	0,5	-0,927300
23,958500	0,5	-0,890550
23,966833	0,5	-0,836650
23,975167	0,5	-0,797100
23,983500	0,5	-0,774900
23,991833	0,5	-0,770100
24,000167	0,5	-0,761950
24,008500	0,5	-0,755850
24,016833	0,5	-0,739850
24,025167	0,5	-0,723150
24,033500	0,5	-0,715050
24,041833	0,5	-0,698000
24,050167	0,5	-0,686950
24,058500	0,5	-0,668050
24,066833	0,5	-0,656850
24,075167	0,5	-0,636200
24,083500	0,5	-0,626900
24,091833	0,5	-0,724800
24,100167	0,5	-0,700200
24,108500	0,5	-0,658250
24,116833	0,5	-0,606500
24,125167	0,5	-0,569500
24,133500	0,5	-0,563450
24,141833	0,5	-0,548900
24,150167	0,5	-0,549950
24,158500	0,5	-0,542150
24,166833	0,5	-0,520300
24,175167	0,5	-0,504750
24,183500	0,5	-0,490500
24,191833	0,5	-0,478600
24,200167	0,5	-0,462050
24,208500	0,5	-0,451550
24,216833	0,5	-0,436400
24,225167	0,5	-0,428800
24,233500	0,5	-0,442300
24,241833	0,5	-0,510050
24,250167	0,5	-0,474250
24,258500	0,5	-0,442100
24,266833	0,5	-0,399600
24,275167	0,5	-0,381100
24,283500	0,5	-0,368100
24,291833	0,5	-0,367550
24,300167	0,5	-0,363150
24,308500	0,5	-0,350050
24,316833	0,5	-0,333250
24,325167	0,5	-0,321400
24,333500	0,5	-0,314500
24,341833	0,5	-0,297400
24,350167	0,5	-0,286800
24,358500	0,5	-0,265000
24,366833	0,5	-0,257750
24,375167	0,5	-0,243750
24,383500	0,5	-0,289050
24,391833	0,5	-0,293550
24,400167	0,5	-0,285150
24,408500	0,5	-0,246500
24,416833	0,5	-0,223000
24,425167	0,5	-0,208000
24,433500	0,5	-0,206550
24,441833	0,5	-0,208850
24,450167	0,5	-0,205450
24,458500	0,5	-0,192150
24,466833	0,5	-0,182650
24,475167	0,5	-0,173100
24,483500	0,5	-0,165450
24,491833	0,5	-0,153400
24,500167	0,5	-0,144150
24,508500	0,5	-0,133000
24,516833	0,5	-0,125350
24,525167	0,5	-0,127150
24,533500	0,5	-0,174050
24,541833	0,5	-0,157750
24,550167	0,5	-0,143950
24,558500	0,5	-0,113100
24,566833	0,5	-0,095400
24,575167	0,5	-0,091500
24,583500	0,5	-0,084650
24,591833	0,5	-0,096750
24,600167	0,5	-0,081700
24,608500	0,5	-0,073800
24,616833	0,5	-0,064350
24,625167	0,5	-0,068000
24,633500	0,5	-0,060350
24,641833	0,5	-0,056050
24,650167	0,5	-0,048200
24,658500	0,5	-0,040800
24,666833	0,5	-0,039650
24,675167	0,5	-0,042500
24,683500	0,5	-0,076750
24,691833	0,5	-0,057150
24,700167	0,5	-0,044650
24,708500	0,5	-0,023550
24,716833	0,5	-0,015300
24,725167	0,5	-0,012000
24,733500	0,5	-0,012800
24,741833	0,5	-0,014700
24,750167	0,5	-0,007850
24,758500	0,5	0,002550
24,766833	0,5	0,003850
24,775167	0,5	0,013450
24,783500	0,5	0,014500
24,791833	0,5	0,019950
24,800167	0,5	0,022100
24,808500	0,5	0,027250
24,816833	0,5	0,024350
24,825167	0,5	-0,000950
24,833500	0,5	0,004300
24,841833	0,5	0,012250
24,850167	0,5	0,025100
24,858500	0,5	0,030350
24,866833	0,5	0,036500
24,875167	0,5	0,036900
24,883500	0,5	0,036950
24,891833	0,5	0,033000
24,900167	0,5	0,041550
24,908500	0,5	0,043950
24,916833	0,5	0,048200
24,925167	0,5	0,050250
24,933500	0,5	0,054400
24,941833	0,5	0,056600
24,950167	0,5	0,061050
24,958500	0,5	0,060800
24,966833	0,5	0,062800
24,975167	0,5	0,046500
24,983500	0,5	0,056100
24,991833	0,5	0,057350
25,000167	0,5	0,064500
25,008500	0,5	0,070200
25,016833	0,5	0,069150
25,025167	0,5	0,068700
25,033500	0,5	0,062600
25,041833	0,5	0,066700
25,050167	0,5	0,065500
25,058500	0,5	0,066600
25,066833	0,5	0,069900
25,075167	0,5	0,070850
25,083500	0,5	0,076600
25,091833	0,5	0,077100
25,100167	0,5	0,080650
25,108500	0,5	0,080400
25,116833	0,5	0,079700
25,125167	0,5	0,072900
25,133500	0,5	0,079100
25,141833	0,5	0,081950
25,150167	0,5	0,086000
25,158500	0,5	0,089750
25,166833	0,5	0,088700
25,175167	0,5	0,085950
25,183500	0,5	0,084900
25,191833	0,5	0,084200
25,200167	0,5	0,082600
25,208500	0,5	0,084950
25,216833	0,5	0,085650
25,225167	0,5	0,085550
25,233500	0,5	0,082400
25,241833	0,5	0,083250
25,250167	0,5	0,085600
25,258500	0,5	0,087200
25,266833	0,5	0,081150
25,275167	0,5	0,083850
25,283500	0,5	0,086800
25,291833	0,5	0,086900
25,300167	0,5	0,087900
25,308500	0,5	0,090300
25,316833	0,5	0,090200
25,325167	0,5	0,087650
25,333500	0,5	0,088400
25,341833	0,5	0,086200
25,350167	0,5	0,087350
25,358500	0,5	0,087650
25,366833	0,5	0,085700
25,375167	0,5	0,083650
25,383500	0,5	0,083950
25,391833	0,5	0,083500
25,400167	0,5	0,084200
25,408500	0,5	0,082050
25,416833	0,5	0,079950
25,425167	0,5	0,084900
25,433500	0,5	0,086350
25,441833	0,5	0,084200
25,450167	0,5	0,084400
25,458500	0,5	0,084500
25,466833	0,5	0,083050
25,475167	0,5	0,086950
25,483500	0,5	0,083900
25,491833	0,5	0,082650
25,500167	0,5	0,083550
25,508500	0,5	0,082150
25,516833	0,5	0,081150
25,525167	0,5	0,078200
25,533500	0,5	0,078550
25,541833	0,5	0,079550
25,550167	0,5	0,078100
25,558500	0,5	0,076600
25,566833	0,5	0,079150
25,575167	0,5	0,081250
25,583500	0,5	0,081300
25,591833	0,5	0,076250
25,600167	0,5	0,074850
25,608500	0,5	0,072450
25,616833	0,5	0,074300
25,625167	0,5	0,075000
25,633500	0,5	0,071450
25,641833	0,5	0,074000
25,650167	0,5	0,071050
25,658500	0,5	0,073100
25,666833	0,5	0,075600
25,675167	0,5	0,074450
25,683500	0,5	0,071600
25,691833	0,5	0,070800
25,700167	0,5	0,072300
25,708500	0,5	0,073950
25,716833	0,5	0,076300
25,725167	0,5	0,072800
25,733500	0,5	0,073500
25,741833	0,5	0,069350
25,750167	0,5	0,068200
25,758500	0,5	0,067750
25,766833	0,5	0,067150
25,775167	0,5	0,067550
25,783500	0,5	0,069950
25,791833	0,5	0,071050
25,800167	0,5	0,070250
25,808500	0,5	0,067850
25,816833	0,5	0,071600
25,825167	0,5	0,065550
25,833500	0,5	0,068850
25,841833	0,5	0,067300
25,850167	0,5	0,066050
25,858500	0,5	0,070950
25,866833	0,5	0,070300
25,875167	0,5	0,070450
25,883500	0,5	0,066000
25,891833	0,5	0,063500
25,900167	0,5	0,063000
25,908500	0,5	0,065000
25,916833	0,5	0,067650
25,925167	0,5	0,071500
25,933500	0,5	0,067650
25,941833	0,5	0,069500
25,950167	0,5	0,065750
25,958500	0,5	0,069650
25,966833	0,5	0,065150
25,975167	0,5	0,071150
25,983500	0,5	0,069750
25,991833	0,5	0,072600
26,000167	0,5	0,073750
