File Path	chrom://chromeleon01/ikbm_chromeleon/2022/ICS-5000/ED1/Esteban/20220612_Cell_7_4_eg.seq/947.smp/ED_1.channel/ED_1.chm
Channel	ED_1

Injection Information:
Data Vault	ikbm_chromeleon
Injection	4_24h-NT_NA
Injection Number	45
Position	RE6
Comment	
Processing Method	Stop sequence after Cell Death
Instrument Method	ICS5000_PA200_FullNative_Ox_26min_ED1
Type	Unknown
Status	Finished
Injection Date	13.06.2022
Injection Time	13:00:51
Injection Volume (µl)	5,0
Dilution Factor	1,0000
Weight	1,0000

Chromatogram Data Information:
Time Min. (min)	0,000333
Time Max. (min)	26,000333
Data Points	3121
Detector	EDet1
Generating Data System	Chromeleon 7.2.9.11323
Exporting Data System	Chromeleon 7.2.9.0
Operator	Instrument Controller
Signal Quantity	
Signal Unit	nC
Signal Min.	-1,855150
Signal Max.	2 857,509543
Channel	ED_1
Driver Name	DC-5000
Channel Type	Evaluation
Min. Step (s)	0,5
Max. Step (s)	0,5
Average Step (s)	0,5

Signal Parameter Information:
Signal Info	

Chromatogram Data:
Time (min)	Step (s)	Value (nC)
0,000333	n.a.	-0,005700
0,008667	0,5	-0,056350
0,017000	0,5	-0,048100
0,025333	0,5	-0,045600
0,033667	0,5	-0,036600
0,042000	0,5	-0,016300
0,050333	0,5	-0,034250
0,058667	0,5	-0,036150
0,067000	0,5	-0,035150
0,075333	0,5	-0,015300
0,083667	0,5	0,000500
0,092000	0,5	-0,001700
0,100333	0,5	0,000600
0,108667	0,5	-0,008100
0,117000	0,5	0,000850
0,125333	0,5	-0,009300
0,133667	0,5	-0,006250
0,142000	0,5	-0,011700
0,150333	0,5	-0,004950
0,158667	0,5	-0,008150
0,167000	0,5	-0,017100
0,175333	0,5	-0,028250
0,183667	0,5	-0,003100
0,192000	0,5	-0,018450
0,200333	0,5	-0,028200
0,208667	0,5	-0,030050
0,217000	0,5	-0,026450
0,225333	0,5	-0,005150
0,233667	0,5	0,000550
0,242000	0,5	0,001900
0,250333	0,5	-0,005000
0,258667	0,5	-0,007050
0,267000	0,5	-0,011950
0,275333	0,5	-0,013600
0,283667	0,5	-0,014050
0,292000	0,5	-0,012650
0,300333	0,5	0,011750
0,308667	0,5	0,031650
0,317000	0,5	0,001200
0,325333	0,5	-0,025550
0,333667	0,5	-0,019950
0,342000	0,5	-0,032000
0,350333	0,5	-0,039400
0,358667	0,5	-0,037100
0,367000	0,5	-0,038550
0,375333	0,5	-0,013350
0,383667	0,5	-0,021300
0,392000	0,5	-0,025700
0,400333	0,5	-0,026100
0,408667	0,5	-0,022000
0,417000	0,5	-0,023750
0,425333	0,5	-0,018900
0,433667	0,5	-0,022100
0,442000	0,5	-0,028500
0,450333	0,5	-0,028300
0,458667	0,5	-0,028800
0,467000	0,5	-0,024500
0,475333	0,5	-0,036750
0,483667	0,5	-0,014700
0,492000	0,5	-0,041600
0,500333	0,5	-0,045750
0,508667	0,5	-0,046350
0,517000	0,5	-0,035550
0,525333	0,5	-0,008300
0,533667	0,5	-0,015050
0,542000	0,5	-0,026000
0,550333	0,5	-0,022400
0,558667	0,5	-0,027500
0,567000	0,5	-0,027100
0,575333	0,5	-0,031100
0,583667	0,5	-0,032750
0,592000	0,5	-0,034850
0,600333	0,5	-0,032750
0,608667	0,5	-0,024250
0,617000	0,5	-0,032350
0,625333	0,5	-0,025150
0,633667	0,5	-0,023450
0,642000	0,5	-0,043000
0,650333	0,5	-0,041500
0,658667	0,5	-0,035450
0,667000	0,5	-0,026300
0,675333	0,5	-0,013250
0,683667	0,5	-0,026100
0,692000	0,5	-0,022300
0,700333	0,5	-0,028650
0,708667	0,5	-0,020000
0,717000	0,5	-0,024400
0,725333	0,5	-0,017300
0,733667	0,5	-0,028900
0,742000	0,5	-0,027700
0,750333	0,5	-0,027200
0,758667	0,5	-0,027850
0,767000	0,5	-0,035600
0,775333	0,5	-0,024900
0,783667	0,5	-0,028200
0,792000	0,5	-0,039100
0,800333	0,5	-0,035950
0,808667	0,5	-0,028150
0,817000	0,5	-0,013100
0,825333	0,5	-0,005850
0,833667	0,5	-0,003400
0,842000	0,5	-0,011650
0,850333	0,5	-0,005850
0,858667	0,5	-0,016000
0,867000	0,5	-0,011900
0,875333	0,5	-0,020950
0,883667	0,5	-0,016700
0,892000	0,5	-0,019100
0,900333	0,5	-0,013750
0,908667	0,5	-0,014650
0,917000	0,5	-0,015350
0,925333	0,5	-0,007100
0,933667	0,5	-0,018650
0,942000	0,5	-0,025000
0,950333	0,5	-0,020700
0,958667	0,5	-0,011200
0,967000	0,5	0,006100
0,975333	0,5	0,016750
0,983667	0,5	0,006850
0,992000	0,5	0,005450
1,000333	0,5	0,004950
1,008667	0,5	0,012100
1,017000	0,5	0,004150
1,025333	0,5	0,005500
1,033667	0,5	0,003400
1,042000	0,5	0,004550
1,050333	0,5	0,002300
1,058667	0,5	-0,001700
1,067000	0,5	0,008900
1,075333	0,5	0,017450
1,083667	0,5	-0,000250
1,092000	0,5	-0,001250
1,100333	0,5	-0,001850
1,108667	0,5	0,017000
1,117000	0,5	0,020450
1,125333	0,5	0,021950
1,133667	0,5	0,022850
1,142000	0,5	0,023050
1,150333	0,5	0,019300
1,158667	0,5	0,017600
1,167000	0,5	0,018950
1,175333	0,5	0,014650
1,183667	0,5	0,019000
1,192000	0,5	0,021100
1,200333	0,5	0,020100
1,208667	0,5	0,011400
1,217000	0,5	0,035650
1,225333	0,5	0,016750
1,233667	0,5	0,013700
1,242000	0,5	0,007500
1,250333	0,5	0,017150
1,258667	0,5	0,037300
1,267000	0,5	0,037100
1,275333	0,5	0,033450
1,283667	0,5	0,037300
1,292000	0,5	0,035950
1,300333	0,5	0,036150
1,308667	0,5	0,030650
1,317000	0,5	0,028250
1,325333	0,5	0,027600
1,333667	0,5	0,030650
1,342000	0,5	0,032850
1,350333	0,5	0,018750
1,358667	0,5	0,015600
1,367000	0,5	0,032300
1,375333	0,5	0,021750
1,383667	0,5	0,014700
1,392000	0,5	0,015600
1,400333	0,5	0,015600
1,408667	0,5	0,038450
1,417000	0,5	0,030100
1,425333	0,5	0,029150
1,433667	0,5	0,022750
1,442000	0,5	0,024000
1,450333	0,5	0,019950
1,458667	0,5	0,021500
1,467000	0,5	0,014250
1,475333	0,5	0,015850
1,483667	0,5	0,013300
1,492000	0,5	0,008000
1,500333	0,5	0,001300
1,508667	0,5	-0,007250
1,517000	0,5	0,004500
1,525333	0,5	-0,017000
1,533667	0,5	-0,021950
1,542000	0,5	-0,024450
1,550333	0,5	-0,014600
1,558667	0,5	0,015300
1,567000	0,5	0,072200
1,575333	0,5	0,314700
1,583667	0,5	1,784650
1,592000	0,5	11,110550
1,600333	0,5	56,220401
1,608667	0,5	227,628453
1,617000	0,5	758,967761
1,625333	0,5	1 565,188773
1,633667	0,5	2 794,673142
1,642000	0,5	2 857,509543
1,650333	0,5	2 802,759842
1,658667	0,5	2 794,096792
1,667000	0,5	2 750,128741
1,675333	0,5	2 401,071886
1,683667	0,5	1 772,648976
1,692000	0,5	1 184,598118
1,700333	0,5	815,501212
1,708667	0,5	599,623209
1,717000	0,5	464,204357
1,725333	0,5	372,078406
1,733667	0,5	300,869454
1,742000	0,5	245,705454
1,750333	0,5	203,230203
1,758667	0,5	171,039453
1,767000	0,5	146,652302
1,775333	0,5	128,100402
1,783667	0,5	113,813502
1,792000	0,5	102,614252
1,800333	0,5	93,620551
1,808667	0,5	86,239701
1,817000	0,5	79,906901
1,825333	0,5	74,292601
1,833667	0,5	69,208851
1,842000	0,5	64,543801
1,850333	0,5	60,259901
1,858667	0,5	56,338351
1,867000	0,5	52,723301
1,875333	0,5	49,427251
1,883667	0,5	46,407301
1,892000	0,5	43,646501
1,900333	0,5	41,134801
1,908667	0,5	38,865251
1,917000	0,5	36,890301
1,925333	0,5	35,285351
1,933667	0,5	34,134551
1,942000	0,5	33,405400
1,950333	0,5	33,038950
1,958667	0,5	32,713850
1,967000	0,5	31,864400
1,975333	0,5	30,086400
1,983667	0,5	27,691850
1,992000	0,5	25,398300
2,000333	0,5	23,667050
2,008667	0,5	22,453400
2,017000	0,5	21,575950
2,025333	0,5	20,828700
2,033667	0,5	20,161150
2,042000	0,5	19,564250
2,050333	0,5	19,036300
2,058667	0,5	18,524900
2,067000	0,5	18,040400
2,075333	0,5	17,582950
2,083667	0,5	17,117750
2,092000	0,5	16,663550
2,100333	0,5	16,256250
2,108667	0,5	15,894800
2,117000	0,5	15,559550
2,125333	0,5	15,267000
2,133667	0,5	14,992200
2,142000	0,5	14,768800
2,150333	0,5	14,575500
2,158667	0,5	14,392000
2,167000	0,5	14,182200
2,175333	0,5	13,956500
2,183667	0,5	13,720200
2,192000	0,5	13,515900
2,200333	0,5	13,347250
2,208667	0,5	13,226300
2,217000	0,5	13,163100
2,225333	0,5	13,161900
2,233667	0,5	13,213650
2,242000	0,5	13,379950
2,250333	0,5	14,085150
2,258667	0,5	15,471650
2,267000	0,5	15,779050
2,275333	0,5	14,647200
2,283667	0,5	13,652600
2,292000	0,5	13,208050
2,300333	0,5	13,044000
2,308667	0,5	12,983900
2,317000	0,5	12,995600
2,325333	0,5	13,031650
2,333667	0,5	13,093850
2,342000	0,5	13,142500
2,350333	0,5	13,224550
2,358667	0,5	13,352050
2,367000	0,5	13,628000
2,375333	0,5	14,122500
2,383667	0,5	14,879300
2,392000	0,5	15,842500
2,400333	0,5	16,884550
2,408667	0,5	17,727050
2,417000	0,5	18,278450
2,425333	0,5	18,502000
2,433667	0,5	18,454450
2,442000	0,5	18,284900
2,450333	0,5	18,076500
2,458667	0,5	18,053950
2,467000	0,5	18,513800
2,475333	0,5	19,921500
2,483667	0,5	22,506350
2,492000	0,5	25,683650
2,500333	0,5	27,894150
2,508667	0,5	27,864650
2,517000	0,5	25,707550
2,525333	0,5	22,674000
2,533667	0,5	19,868350
2,542000	0,5	17,762500
2,550333	0,5	16,315950
2,558667	0,5	15,305550
2,567000	0,5	14,608550
2,575333	0,5	14,113600
2,583667	0,5	13,749950
2,592000	0,5	13,474850
2,600333	0,5	13,219550
2,608667	0,5	12,977400
2,617000	0,5	12,766100
2,625333	0,5	12,564400
2,633667	0,5	12,384550
2,642000	0,5	12,226550
2,650333	0,5	12,102300
2,658667	0,5	11,999100
2,667000	0,5	11,934950
2,675333	0,5	11,889350
2,683667	0,5	11,885100
2,692000	0,5	11,971950
2,700333	0,5	12,247150
2,708667	0,5	12,749600
2,717000	0,5	13,472400
2,725333	0,5	14,159250
2,733667	0,5	14,511750
2,742000	0,5	14,335600
2,750333	0,5	13,690450
2,758667	0,5	12,841950
2,767000	0,5	12,007950
2,775333	0,5	11,316400
2,783667	0,5	10,788400
2,792000	0,5	10,401450
2,800333	0,5	10,116900
2,808667	0,5	9,913950
2,817000	0,5	9,742450
2,825333	0,5	9,595100
2,833667	0,5	9,456050
2,842000	0,5	9,334650
2,850333	0,5	9,191300
2,858667	0,5	9,033850
2,867000	0,5	8,874850
2,875333	0,5	8,720650
2,883667	0,5	8,583850
2,892000	0,5	8,451100
2,900333	0,5	8,319650
2,908667	0,5	8,197500
2,917000	0,5	8,073300
2,925333	0,5	7,949650
2,933667	0,5	7,829350
2,942000	0,5	7,712850
2,950333	0,5	7,601150
2,958667	0,5	7,489200
2,967000	0,5	7,385100
2,975333	0,5	7,261450
2,983667	0,5	7,157250
2,992000	0,5	7,057100
3,000333	0,5	6,947650
3,008667	0,5	6,830550
3,017000	0,5	6,732350
3,025333	0,5	6,633500
3,033667	0,5	6,550450
3,042000	0,5	6,452400
3,050333	0,5	6,360300
3,058667	0,5	6,259450
3,067000	0,5	6,175600
3,075333	0,5	6,088550
3,083667	0,5	6,016850
3,092000	0,5	5,948250
3,100333	0,5	5,891150
3,108667	0,5	5,835000
3,117000	0,5	5,771600
3,125333	0,5	5,699550
3,133667	0,5	5,631650
3,142000	0,5	5,554250
3,150333	0,5	5,459000
3,158667	0,5	5,379250
3,167000	0,5	5,299350
3,175333	0,5	5,238950
3,183667	0,5	5,172000
3,192000	0,5	5,110600
3,200333	0,5	5,044100
3,208667	0,5	4,988300
3,217000	0,5	4,929850
3,225333	0,5	4,885450
3,233667	0,5	4,835250
3,242000	0,5	4,787800
3,250333	0,5	4,733700
3,258667	0,5	4,672300
3,267000	0,5	4,612000
3,275333	0,5	4,535450
3,283667	0,5	4,485350
3,292000	0,5	4,419150
3,300333	0,5	4,350600
3,308667	0,5	4,297350
3,317000	0,5	4,256900
3,325333	0,5	4,227400
3,333667	0,5	4,194000
3,342000	0,5	4,153100
3,350333	0,5	4,133550
3,358667	0,5	4,115550
3,367000	0,5	4,107700
3,375333	0,5	4,101850
3,383667	0,5	4,117800
3,392000	0,5	4,126700
3,400333	0,5	4,142850
3,408667	0,5	4,157050
3,417000	0,5	4,160200
3,425333	0,5	4,152400
3,433667	0,5	4,162500
3,442000	0,5	4,131650
3,450333	0,5	4,105900
3,458667	0,5	4,073700
3,467000	0,5	4,046550
3,475333	0,5	4,032600
3,483667	0,5	3,999900
3,492000	0,5	3,971450
3,500333	0,5	3,943350
3,508667	0,5	3,923250
3,517000	0,5	3,906300
3,525333	0,5	3,905500
3,533667	0,5	3,912900
3,542000	0,5	3,956950
3,550333	0,5	4,044700
3,558667	0,5	4,191750
3,567000	0,5	4,404450
3,575333	0,5	4,706400
3,583667	0,5	5,077150
3,592000	0,5	5,450800
3,600333	0,5	5,812450
3,608667	0,5	6,130050
3,617000	0,5	6,389450
3,625333	0,5	6,621300
3,633667	0,5	6,860950
3,642000	0,5	7,182200
3,650333	0,5	7,610950
3,658667	0,5	8,104400
3,667000	0,5	8,563850
3,675333	0,5	8,853500
3,683667	0,5	8,867450
3,692000	0,5	8,557850
3,700333	0,5	7,978650
3,708667	0,5	7,213950
3,717000	0,5	6,403300
3,725333	0,5	5,656200
3,733667	0,5	5,032950
3,742000	0,5	4,538500
3,750333	0,5	4,193450
3,758667	0,5	3,956250
3,767000	0,5	3,816500
3,775333	0,5	3,722050
3,783667	0,5	3,650350
3,792000	0,5	3,587200
3,800333	0,5	3,542350
3,808667	0,5	3,493700
3,817000	0,5	3,444750
3,825333	0,5	3,391300
3,833667	0,5	3,339100
3,842000	0,5	3,288000
3,850333	0,5	3,236800
3,858667	0,5	3,195250
3,867000	0,5	3,153850
3,875333	0,5	3,129250
3,883667	0,5	3,089850
3,892000	0,5	3,055650
3,900333	0,5	3,028300
3,908667	0,5	3,008800
3,917000	0,5	2,991200
3,925333	0,5	2,980550
3,933667	0,5	2,953150
3,942000	0,5	2,933700
3,950333	0,5	2,909500
3,958667	0,5	2,896550
3,967000	0,5	2,882600
3,975333	0,5	2,865100
3,983667	0,5	2,849950
3,992000	0,5	2,840500
4,000333	0,5	2,831700
4,008667	0,5	2,811050
4,017000	0,5	2,802500
4,025333	0,5	2,799200
4,033667	0,5	2,774850
4,042000	0,5	2,754250
4,050333	0,5	2,738100
4,058667	0,5	2,728350
4,067000	0,5	2,725300
4,075333	0,5	2,711450
4,083667	0,5	2,696550
4,092000	0,5	2,677800
4,100333	0,5	2,664500
4,108667	0,5	2,650400
4,117000	0,5	2,642750
4,125333	0,5	2,628250
4,133667	0,5	2,615050
4,142000	0,5	2,606650
4,150333	0,5	2,597900
4,158667	0,5	2,584650
4,167000	0,5	2,588500
4,175333	0,5	2,577550
4,183667	0,5	2,561750
4,192000	0,5	2,556300
4,200333	0,5	2,549650
4,208667	0,5	2,553050
4,217000	0,5	2,550300
4,225333	0,5	2,546200
4,233667	0,5	2,539650
4,242000	0,5	2,537750
4,250333	0,5	2,534050
4,258667	0,5	2,537350
4,267000	0,5	2,530050
4,275333	0,5	2,534700
4,283667	0,5	2,535300
4,292000	0,5	2,552350
4,300333	0,5	2,569750
4,308667	0,5	2,597850
4,317000	0,5	2,652700
4,325333	0,5	2,702450
4,333667	0,5	2,764900
4,342000	0,5	2,840350
4,350333	0,5	2,919200
4,358667	0,5	3,004250
4,367000	0,5	3,050300
4,375333	0,5	3,063100
4,383667	0,5	3,054050
4,392000	0,5	3,011000
4,400333	0,5	2,946100
4,408667	0,5	2,867400
4,417000	0,5	2,786950
4,425333	0,5	2,702950
4,433667	0,5	2,634450
4,442000	0,5	2,571600
4,450333	0,5	2,524300
4,458667	0,5	2,474350
4,467000	0,5	2,455650
4,475333	0,5	2,418800
4,483667	0,5	2,401400
4,492000	0,5	2,385650
4,500333	0,5	2,383950
4,508667	0,5	2,390600
4,517000	0,5	2,384250
4,525333	0,5	2,382850
4,533667	0,5	2,384500
4,542000	0,5	2,383650
4,550333	0,5	2,389150
4,558667	0,5	2,391650
4,567000	0,5	2,386900
4,575333	0,5	2,383450
4,583667	0,5	2,376350
4,592000	0,5	2,371650
4,600333	0,5	2,361600
4,608667	0,5	2,352000
4,617000	0,5	2,350250
4,625333	0,5	2,328700
4,633667	0,5	2,314350
4,642000	0,5	2,303550
4,650333	0,5	2,299250
4,658667	0,5	2,300700
4,667000	0,5	2,285400
4,675333	0,5	2,274250
4,683667	0,5	2,258550
4,692000	0,5	2,247800
4,700333	0,5	2,236950
4,708667	0,5	2,224500
4,717000	0,5	2,208400
4,725333	0,5	2,199700
4,733667	0,5	2,194050
4,742000	0,5	2,179800
4,750333	0,5	2,171650
4,758667	0,5	2,167000
4,767000	0,5	2,155650
4,775333	0,5	2,138500
4,783667	0,5	2,133700
4,792000	0,5	2,128150
4,800333	0,5	2,131400
4,808667	0,5	2,130850
4,817000	0,5	2,128150
4,825333	0,5	2,113150
4,833667	0,5	2,111700
4,842000	0,5	2,104350
4,850333	0,5	2,104500
4,858667	0,5	2,093500
4,867000	0,5	2,085650
4,875333	0,5	2,081750
4,883667	0,5	2,079600
4,892000	0,5	2,076950
4,900333	0,5	2,072450
4,908667	0,5	2,075450
4,917000	0,5	2,073650
4,925333	0,5	2,066050
4,933667	0,5	2,063000
4,942000	0,5	2,068450
4,950333	0,5	2,074800
4,958667	0,5	2,078400
4,967000	0,5	2,073350
4,975333	0,5	2,073600
4,983667	0,5	2,072700
4,992000	0,5	2,074550
5,000333	0,5	2,079650
5,008667	0,5	2,096650
5,017000	0,5	2,119650
5,025333	0,5	2,155950
5,033667	0,5	2,204700
5,042000	0,5	2,258750
5,050333	0,5	2,320200
5,058667	0,5	2,387200
5,067000	0,5	2,427150
5,075333	0,5	2,456850
5,083667	0,5	2,470350
5,092000	0,5	2,464400
5,100333	0,5	2,441300
5,108667	0,5	2,387500
5,117000	0,5	2,328500
5,125333	0,5	2,255550
5,133667	0,5	2,191700
5,142000	0,5	2,130950
5,150333	0,5	2,083900
5,158667	0,5	2,042250
5,167000	0,5	2,016750
5,175333	0,5	1,992100
5,183667	0,5	1,975050
5,192000	0,5	1,956000
5,200333	0,5	1,950300
5,208667	0,5	1,942750
5,217000	0,5	1,929800
5,225333	0,5	1,917350
5,233667	0,5	1,912750
5,242000	0,5	1,911850
5,250333	0,5	1,903350
5,258667	0,5	1,891650
5,267000	0,5	1,886100
5,275333	0,5	1,879750
5,283667	0,5	1,868450
5,292000	0,5	1,865400
5,300333	0,5	1,855500
5,308667	0,5	1,851250
5,317000	0,5	1,840400
5,325333	0,5	1,836700
5,333667	0,5	1,831750
5,342000	0,5	1,826200
5,350333	0,5	1,831400
5,358667	0,5	1,818400
5,367000	0,5	1,809300
5,375333	0,5	1,803250
5,383667	0,5	1,795950
5,392000	0,5	1,801300
5,400333	0,5	1,793750
5,408667	0,5	1,788650
5,417000	0,5	1,780450
5,425333	0,5	1,776200
5,433667	0,5	1,771400
5,442000	0,5	1,766100
5,450333	0,5	1,757250
5,458667	0,5	1,754600
5,467000	0,5	1,750450
5,475333	0,5	1,747200
5,483667	0,5	1,747950
5,492000	0,5	1,735400
5,500333	0,5	1,740250
5,508667	0,5	1,726300
5,517000	0,5	1,722200
5,525333	0,5	1,717450
5,533667	0,5	1,718200
5,542000	0,5	1,723150
5,550333	0,5	1,717100
5,558667	0,5	1,708000
5,567000	0,5	1,704800
5,575333	0,5	1,696100
5,583667	0,5	1,694300
5,592000	0,5	1,686400
5,600333	0,5	1,682500
5,608667	0,5	1,680450
5,617000	0,5	1,679150
5,625333	0,5	1,685200
5,633667	0,5	1,687800
5,642000	0,5	1,690450
5,650333	0,5	1,706050
5,658667	0,5	1,708750
5,667000	0,5	1,716550
5,675333	0,5	1,724600
5,683667	0,5	1,738100
5,692000	0,5	1,756850
5,700333	0,5	1,754950
5,708667	0,5	1,754350
5,717000	0,5	1,744000
5,725333	0,5	1,739650
5,733667	0,5	1,720000
5,742000	0,5	1,704450
5,750333	0,5	1,685150
5,758667	0,5	1,668600
5,767000	0,5	1,661800
5,775333	0,5	1,655800
5,783667	0,5	1,661950
5,792000	0,5	1,679200
5,800333	0,5	1,709250
5,808667	0,5	1,746900
5,817000	0,5	1,805650
5,825333	0,5	1,872350
5,833667	0,5	1,948150
5,842000	0,5	2,010850
5,850333	0,5	2,046050
5,858667	0,5	2,048750
5,867000	0,5	2,024950
5,875333	0,5	1,976900
5,883667	0,5	1,910000
5,892000	0,5	1,832850
5,900333	0,5	1,755950
5,908667	0,5	1,681300
5,917000	0,5	1,622600
5,925333	0,5	1,577500
5,933667	0,5	1,540650
5,942000	0,5	1,518600
5,950333	0,5	1,496100
5,958667	0,5	1,479850
5,967000	0,5	1,470550
5,975333	0,5	1,463600
5,983667	0,5	1,464900
5,992000	0,5	1,463500
6,000333	0,5	1,457150
6,008667	0,5	1,450950
6,017000	0,5	1,444100
6,025333	0,5	1,440500
6,033667	0,5	1,430700
6,042000	0,5	1,426400
6,050333	0,5	1,419400
6,058667	0,5	1,421550
6,067000	0,5	1,420450
6,075333	0,5	1,422650
6,083667	0,5	1,425250
6,092000	0,5	1,434300
6,100333	0,5	1,430000
6,108667	0,5	1,431900
6,117000	0,5	1,432850
6,125333	0,5	1,445950
6,133667	0,5	1,454200
6,142000	0,5	1,452300
6,150333	0,5	1,450650
6,158667	0,5	1,442950
6,167000	0,5	1,438050
6,175333	0,5	1,426100
6,183667	0,5	1,413550
6,192000	0,5	1,400400
6,200333	0,5	1,389850
6,208667	0,5	1,380100
6,217000	0,5	1,373250
6,225333	0,5	1,359900
6,233667	0,5	1,358900
6,242000	0,5	1,350600
6,250333	0,5	1,346300
6,258667	0,5	1,341050
6,267000	0,5	1,337900
6,275333	0,5	1,346200
6,283667	0,5	1,346750
6,292000	0,5	1,342150
6,300333	0,5	1,342950
6,308667	0,5	1,344150
6,317000	0,5	1,345650
6,325333	0,5	1,346200
6,333667	0,5	1,351750
6,342000	0,5	1,357800
6,350333	0,5	1,365200
6,358667	0,5	1,388000
6,367000	0,5	1,408700
6,375333	0,5	1,445500
6,383667	0,5	1,494550
6,392000	0,5	1,538700
6,400333	0,5	1,579550
6,408667	0,5	1,606350
6,417000	0,5	1,628350
6,425333	0,5	1,637800
6,433667	0,5	1,618550
6,442000	0,5	1,581250
6,450333	0,5	1,536300
6,458667	0,5	1,493300
6,467000	0,5	1,451150
6,475333	0,5	1,416300
6,483667	0,5	1,383150
6,492000	0,5	1,364950
6,500333	0,5	1,352150
6,508667	0,5	1,343900
6,517000	0,5	1,344350
6,525333	0,5	1,339150
6,533667	0,5	1,348050
6,542000	0,5	1,346800
6,550333	0,5	1,351950
6,558667	0,5	1,357750
6,567000	0,5	1,371050
6,575333	0,5	1,384600
6,583667	0,5	1,386850
6,592000	0,5	1,381500
6,600333	0,5	1,382750
6,608667	0,5	1,375200
6,617000	0,5	1,372950
6,625333	0,5	1,360650
6,633667	0,5	1,353800
6,642000	0,5	1,346450
6,650333	0,5	1,342250
6,658667	0,5	1,338150
6,667000	0,5	1,337150
6,675333	0,5	1,332450
6,683667	0,5	1,337750
6,692000	0,5	1,334950
6,700333	0,5	1,339000
6,708667	0,5	1,348600
6,717000	0,5	1,365350
6,725333	0,5	1,389850
6,733667	0,5	1,410250
6,742000	0,5	1,437400
6,750333	0,5	1,460500
6,758667	0,5	1,484500
6,767000	0,5	1,499200
6,775333	0,5	1,511500
6,783667	0,5	1,503700
6,792000	0,5	1,492200
6,800333	0,5	1,475550
6,808667	0,5	1,444550
6,817000	0,5	1,416950
6,825333	0,5	1,392550
6,833667	0,5	1,367300
6,842000	0,5	1,343800
6,850333	0,5	1,324850
6,858667	0,5	1,315950
6,867000	0,5	1,312900
6,875333	0,5	1,312450
6,883667	0,5	1,305750
6,892000	0,5	1,300200
6,900333	0,5	1,297800
6,908667	0,5	1,298550
6,917000	0,5	1,296150
6,925333	0,5	1,294250
6,933667	0,5	1,292250
6,942000	0,5	1,288500
6,950333	0,5	1,289000
6,958667	0,5	1,281000
6,967000	0,5	1,279950
6,975333	0,5	1,277450
6,983667	0,5	1,275700
6,992000	0,5	1,270400
7,000333	0,5	1,271700
7,008667	0,5	1,275900
7,017000	0,5	1,279400
7,025333	0,5	1,279600
7,033667	0,5	1,280000
7,042000	0,5	1,280900
7,050333	0,5	1,281750
7,058667	0,5	1,282350
7,067000	0,5	1,287100
7,075333	0,5	1,286550
7,083667	0,5	1,285450
7,092000	0,5	1,289050
7,100333	0,5	1,286350
7,108667	0,5	1,281100
7,117000	0,5	1,282950
7,125333	0,5	1,277350
7,133667	0,5	1,269250
7,142000	0,5	1,261250
7,150333	0,5	1,254750
7,158667	0,5	1,255800
7,167000	0,5	1,260700
7,175333	0,5	1,258350
7,183667	0,5	1,258200
7,192000	0,5	1,255800
7,200333	0,5	1,255650
7,208667	0,5	1,253700
7,217000	0,5	1,248250
7,225333	0,5	1,242750
7,233667	0,5	1,240350
7,242000	0,5	1,234100
7,250333	0,5	1,234100
7,258667	0,5	1,224300
7,267000	0,5	1,224850
7,275333	0,5	1,227350
7,283667	0,5	1,228250
7,292000	0,5	1,231800
7,300333	0,5	1,237950
7,308667	0,5	1,250500
7,317000	0,5	1,266750
7,325333	0,5	1,273950
7,333667	0,5	1,293300
7,342000	0,5	1,320450
7,350333	0,5	1,360150
7,358667	0,5	1,414350
7,367000	0,5	1,479150
7,375333	0,5	1,535600
7,383667	0,5	1,578850
7,392000	0,5	1,584350
7,400333	0,5	1,554800
7,408667	0,5	1,495650
7,417000	0,5	1,436650
7,425333	0,5	1,372450
7,433667	0,5	1,320500
7,442000	0,5	1,282050
7,450333	0,5	1,260850
7,458667	0,5	1,250400
7,467000	0,5	1,241600
7,475333	0,5	1,236200
7,483667	0,5	1,237450
7,492000	0,5	1,242950
7,500333	0,5	1,250250
7,508667	0,5	1,261050
7,517000	0,5	1,275300
7,525333	0,5	1,298150
7,533667	0,5	1,321000
7,542000	0,5	1,343350
7,550333	0,5	1,362400
7,558667	0,5	1,381250
7,567000	0,5	1,399800
7,575333	0,5	1,407600
7,583667	0,5	1,409650
7,592000	0,5	1,401350
7,600333	0,5	1,385700
7,608667	0,5	1,372850
7,617000	0,5	1,344300
7,625333	0,5	1,319900
7,633667	0,5	1,294300
7,642000	0,5	1,275650
7,650333	0,5	1,260900
7,658667	0,5	1,253800
7,667000	0,5	1,249350
7,675333	0,5	1,243150
7,683667	0,5	1,239850
7,692000	0,5	1,238200
7,700333	0,5	1,238500
7,708667	0,5	1,232850
7,717000	0,5	1,233600
7,725333	0,5	1,224850
7,733667	0,5	1,225250
7,742000	0,5	1,222200
7,750333	0,5	1,226750
7,758667	0,5	1,233100
7,767000	0,5	1,237250
7,775333	0,5	1,237000
7,783667	0,5	1,238150
7,792000	0,5	1,243000
7,800333	0,5	1,241900
7,808667	0,5	1,244000
7,817000	0,5	1,248150
7,825333	0,5	1,252550
7,833667	0,5	1,257950
7,842000	0,5	1,259900
7,850333	0,5	1,264400
7,858667	0,5	1,273000
7,867000	0,5	1,282200
7,875333	0,5	1,288150
7,883667	0,5	1,300000
7,892000	0,5	1,317000
7,900333	0,5	1,336750
7,908667	0,5	1,360300
7,917000	0,5	1,379500
7,925333	0,5	1,394100
7,933667	0,5	1,408100
7,942000	0,5	1,413150
7,950333	0,5	1,415250
7,958667	0,5	1,410400
7,967000	0,5	1,409000
7,975333	0,5	1,397600
7,983667	0,5	1,391100
7,992000	0,5	1,380000
8,000333	0,5	1,379000
8,008667	0,5	1,379000
8,017000	0,5	1,377650
8,025333	0,5	1,371100
8,033667	0,5	1,372150
8,042000	0,5	1,375900
8,050333	0,5	1,383650
8,058667	0,5	1,392100
8,067000	0,5	1,412300
8,075333	0,5	1,445600
8,083667	0,5	1,499550
8,092000	0,5	1,569050
8,100333	0,5	1,640950
8,108667	0,5	1,694200
8,117000	0,5	1,714100
8,125333	0,5	1,691100
8,133667	0,5	1,638650
8,142000	0,5	1,571800
8,150333	0,5	1,512900
8,158667	0,5	1,465900
8,167000	0,5	1,438600
8,175333	0,5	1,416400
8,183667	0,5	1,405100
8,192000	0,5	1,399750
8,200333	0,5	1,407100
8,208667	0,5	1,404850
8,217000	0,5	1,409200
8,225333	0,5	1,412300
8,233667	0,5	1,418600
8,242000	0,5	1,433400
8,250333	0,5	1,442450
8,258667	0,5	1,461900
8,267000	0,5	1,478850
8,275333	0,5	1,496150
8,283667	0,5	1,507000
8,292000	0,5	1,504000
8,300333	0,5	1,501100
8,308667	0,5	1,492500
8,317000	0,5	1,476700
8,325333	0,5	1,466950
8,333667	0,5	1,459150
8,342000	0,5	1,461250
8,350333	0,5	1,468000
8,358667	0,5	1,478000
8,367000	0,5	1,490650
8,375333	0,5	1,505800
8,383667	0,5	1,520700
8,392000	0,5	1,538200
8,400333	0,5	1,552700
8,408667	0,5	1,572200
8,417000	0,5	1,597700
8,425333	0,5	1,625050
8,433667	0,5	1,659850
8,442000	0,5	1,704850
8,450333	0,5	1,771500
8,458667	0,5	1,855550
8,467000	0,5	1,953250
8,475333	0,5	2,051900
8,483667	0,5	2,132600
8,492000	0,5	2,177550
8,500333	0,5	2,170650
8,508667	0,5	2,117400
8,517000	0,5	2,029100
8,525333	0,5	1,930100
8,533667	0,5	1,832200
8,542000	0,5	1,751550
8,550333	0,5	1,691400
8,558667	0,5	1,649550
8,567000	0,5	1,627800
8,575333	0,5	1,625000
8,583667	0,5	1,641400
8,592000	0,5	1,682850
8,600333	0,5	1,751100
8,608667	0,5	1,818000
8,617000	0,5	1,865000
8,625333	0,5	1,871850
8,633667	0,5	1,840650
8,642000	0,5	1,779650
8,650333	0,5	1,710550
8,658667	0,5	1,648450
8,667000	0,5	1,609100
8,675333	0,5	1,586400
8,683667	0,5	1,580400
8,692000	0,5	1,593400
8,700333	0,5	1,609650
8,708667	0,5	1,628650
8,717000	0,5	1,645450
8,725333	0,5	1,656750
8,733667	0,5	1,658700
8,742000	0,5	1,648750
8,750333	0,5	1,633600
8,758667	0,5	1,607850
8,767000	0,5	1,582750
8,775333	0,5	1,557850
8,783667	0,5	1,535550
8,792000	0,5	1,525350
8,800333	0,5	1,516150
8,808667	0,5	1,510800
8,817000	0,5	1,509350
8,825333	0,5	1,505250
8,833667	0,5	1,502300
8,842000	0,5	1,497550
8,850333	0,5	1,496600
8,858667	0,5	1,495600
8,867000	0,5	1,492200
8,875333	0,5	1,492700
8,883667	0,5	1,488900
8,892000	0,5	1,485600
8,900333	0,5	1,485900
8,908667	0,5	1,481000
8,917000	0,5	1,477250
8,925333	0,5	1,474450
8,933667	0,5	1,475500
8,942000	0,5	1,478100
8,950333	0,5	1,481600
8,958667	0,5	1,482850
8,967000	0,5	1,492550
8,975333	0,5	1,507800
8,983667	0,5	1,537500
8,992000	0,5	1,595650
9,000333	0,5	1,674850
9,008667	0,5	1,770700
9,017000	0,5	1,855150
9,025333	0,5	1,912850
9,033667	0,5	1,927700
9,042000	0,5	1,903900
9,050333	0,5	1,855500
9,058667	0,5	1,795150
9,067000	0,5	1,734800
9,075333	0,5	1,684750
9,083667	0,5	1,639200
9,092000	0,5	1,607500
9,100333	0,5	1,589200
9,108667	0,5	1,581800
9,117000	0,5	1,579800
9,125333	0,5	1,583400
9,133667	0,5	1,591750
9,142000	0,5	1,591950
9,150333	0,5	1,586600
9,158667	0,5	1,585850
9,167000	0,5	1,583850
9,175333	0,5	1,580650
9,183667	0,5	1,578800
9,192000	0,5	1,582150
9,200333	0,5	1,581250
9,208667	0,5	1,574450
9,217000	0,5	1,569200
9,225333	0,5	1,567400
9,233667	0,5	1,579150
9,242000	0,5	1,601650
9,250333	0,5	1,646850
9,258667	0,5	1,710600
9,267000	0,5	1,802300
9,275333	0,5	1,914350
9,283667	0,5	2,024150
9,292000	0,5	2,117000
9,300333	0,5	2,178100
9,308667	0,5	2,198100
9,317000	0,5	2,182950
9,325333	0,5	2,146300
9,333667	0,5	2,103550
9,342000	0,5	2,066150
9,350333	0,5	2,031650
9,358667	0,5	1,990700
9,367000	0,5	1,940100
9,375333	0,5	1,874250
9,383667	0,5	1,806650
9,392000	0,5	1,741450
9,400333	0,5	1,687600
9,408667	0,5	1,654950
9,417000	0,5	1,629300
9,425333	0,5	1,616500
9,433667	0,5	1,605600
9,442000	0,5	1,597100
9,450333	0,5	1,594250
9,458667	0,5	1,594750
9,467000	0,5	1,601650
9,475333	0,5	1,619450
9,483667	0,5	1,648650
9,492000	0,5	1,697800
9,500333	0,5	1,750600
9,508667	0,5	1,798350
9,517000	0,5	1,831700
9,525333	0,5	1,848300
9,533667	0,5	1,841000
9,542000	0,5	1,810400
9,550333	0,5	1,772750
9,558667	0,5	1,726800
9,567000	0,5	1,682850
9,575333	0,5	1,648000
9,583667	0,5	1,620200
9,592000	0,5	1,603050
9,600333	0,5	1,605000
9,608667	0,5	1,629150
9,617000	0,5	1,690700
9,625333	0,5	1,793100
9,633667	0,5	1,953900
9,642000	0,5	2,159950
9,650333	0,5	2,388600
9,658667	0,5	2,592000
9,667000	0,5	2,724700
9,675333	0,5	2,746700
9,683667	0,5	2,657450
9,692000	0,5	2,483750
9,700333	0,5	2,272300
9,708667	0,5	2,069950
9,717000	0,5	1,906300
9,725333	0,5	1,790250
9,733667	0,5	1,712050
9,742000	0,5	1,659350
9,750333	0,5	1,616250
9,758667	0,5	1,575100
9,767000	0,5	1,534950
9,775333	0,5	1,492700
9,783667	0,5	1,462250
9,792000	0,5	1,437450
9,800333	0,5	1,421100
9,808667	0,5	1,409250
9,817000	0,5	1,403550
9,825333	0,5	1,398300
9,833667	0,5	1,399400
9,842000	0,5	1,402600
9,850333	0,5	1,412600
9,858667	0,5	1,430500
9,867000	0,5	1,464250
9,875333	0,5	1,519400
9,883667	0,5	1,587250
9,892000	0,5	1,651650
9,900333	0,5	1,704200
9,908667	0,5	1,725650
9,917000	0,5	1,725200
9,925333	0,5	1,698800
9,933667	0,5	1,661250
9,942000	0,5	1,620500
9,950333	0,5	1,575850
9,958667	0,5	1,526100
9,967000	0,5	1,476400
9,975333	0,5	1,423900
9,983667	0,5	1,384200
9,992000	0,5	1,351700
10,000333	0,5	1,327000
10,008667	0,5	1,314800
10,017000	0,5	1,306950
10,025333	0,5	1,310750
10,033667	0,5	1,322750
10,042000	0,5	1,336400
10,050333	0,5	1,352200
10,058667	0,5	1,369450
10,067000	0,5	1,376800
10,075333	0,5	1,380400
10,083667	0,5	1,388000
10,092000	0,5	1,389550
10,100333	0,5	1,386700
10,108667	0,5	1,379700
10,117000	0,5	1,366350
10,125333	0,5	1,345950
10,133667	0,5	1,328450
10,142000	0,5	1,303850
10,150333	0,5	1,282900
10,158667	0,5	1,274900
10,167000	0,5	1,275250
10,175333	0,5	1,289350
10,183667	0,5	1,323950
10,192000	0,5	1,373850
10,200333	0,5	1,439000
10,208667	0,5	1,512350
10,217000	0,5	1,578800
10,225333	0,5	1,630050
10,233667	0,5	1,656450
10,242000	0,5	1,641200
10,250333	0,5	1,598800
10,258667	0,5	1,533850
10,267000	0,5	1,467250
10,275333	0,5	1,404700
10,283667	0,5	1,347100
10,292000	0,5	1,296850
10,300333	0,5	1,259400
10,308667	0,5	1,225200
10,317000	0,5	1,202250
10,325333	0,5	1,186850
10,333667	0,5	1,179700
10,342000	0,5	1,179850
10,350333	0,5	1,189250
10,358667	0,5	1,200400
10,367000	0,5	1,214850
10,375333	0,5	1,240900
10,383667	0,5	1,265150
10,392000	0,5	1,290250
10,400333	0,5	1,309800
10,408667	0,5	1,319800
10,417000	0,5	1,327200
10,425333	0,5	1,323650
10,433667	0,5	1,322250
10,442000	0,5	1,324700
10,450333	0,5	1,340850
10,458667	0,5	1,379050
10,467000	0,5	1,424850
10,475333	0,5	1,488900
10,483667	0,5	1,543750
10,492000	0,5	1,588400
10,500333	0,5	1,603650
10,508667	0,5	1,582100
10,517000	0,5	1,526400
10,525333	0,5	1,456250
10,533667	0,5	1,379100
10,542000	0,5	1,301300
10,550333	0,5	1,239400
10,558667	0,5	1,187550
10,567000	0,5	1,160200
10,575333	0,5	1,144600
10,583667	0,5	1,143100
10,592000	0,5	1,153850
10,600333	0,5	1,168600
10,608667	0,5	1,183250
10,617000	0,5	1,202400
10,625333	0,5	1,218000
10,633667	0,5	1,229350
10,642000	0,5	1,237650
10,650333	0,5	1,242550
10,658667	0,5	1,250150
10,667000	0,5	1,273750
10,675333	0,5	1,322450
10,683667	0,5	1,390000
10,692000	0,5	1,461450
10,700333	0,5	1,515600
10,708667	0,5	1,538050
10,717000	0,5	1,521600
10,725333	0,5	1,474300
10,733667	0,5	1,410450
10,742000	0,5	1,342950
10,750333	0,5	1,287400
10,758667	0,5	1,251900
10,767000	0,5	1,232200
10,775333	0,5	1,238100
10,783667	0,5	1,256300
10,792000	0,5	1,291550
10,800333	0,5	1,343650
10,808667	0,5	1,414900
10,817000	0,5	1,512600
10,825333	0,5	1,622600
10,833667	0,5	1,716050
10,842000	0,5	1,770950
10,850333	0,5	1,764600
10,858667	0,5	1,727900
10,867000	0,5	1,678100
10,875333	0,5	1,657650
10,883667	0,5	1,686750
10,892000	0,5	1,804850
10,900333	0,5	2,008550
10,908667	0,5	2,314750
10,917000	0,5	2,644350
10,925333	0,5	2,774800
10,933667	0,5	2,642350
10,942000	0,5	2,329150
10,950333	0,5	1,901200
10,958667	0,5	1,395950
10,967000	0,5	0,891350
10,975333	0,5	0,574700
10,983667	0,5	0,397850
10,992000	0,5	0,291850
11,000333	0,5	0,214400
11,008667	0,5	0,160800
11,017000	0,5	0,119200
11,025333	0,5	0,081600
11,033667	0,5	0,049700
11,042000	0,5	0,021050
11,050333	0,5	0,002150
11,058667	0,5	-0,012350
11,067000	0,5	-0,022550
11,075333	0,5	-0,026550
11,083667	0,5	-0,024150
11,092000	0,5	-0,019550
11,100333	0,5	-0,020200
11,108667	0,5	-0,015350
11,117000	0,5	-0,010700
11,125333	0,5	-0,011350
11,133667	0,5	-0,017850
11,142000	0,5	-0,025100
11,150333	0,5	-0,036650
11,158667	0,5	-0,046300
11,167000	0,5	-0,061250
11,175333	0,5	-0,075200
11,183667	0,5	-0,093050
11,192000	0,5	-0,105450
11,200333	0,5	-0,119100
11,208667	0,5	-0,131300
11,217000	0,5	-0,143500
11,225333	0,5	-0,156600
11,233667	0,5	-0,163400
11,242000	0,5	-0,165900
11,250333	0,5	-0,180000
11,258667	0,5	-0,180250
11,267000	0,5	-0,185300
11,275333	0,5	-0,189650
11,283667	0,5	-0,197500
11,292000	0,5	-0,203600
11,300333	0,5	-0,199900
11,308667	0,5	-0,201500
11,317000	0,5	-0,194600
11,325333	0,5	-0,197300
11,333667	0,5	-0,195400
11,342000	0,5	-0,192200
11,350333	0,5	-0,190150
11,358667	0,5	-0,191200
11,367000	0,5	-0,186750
11,375333	0,5	-0,187950
11,383667	0,5	-0,189800
11,392000	0,5	-0,185650
11,400333	0,5	-0,187750
11,408667	0,5	-0,185900
11,417000	0,5	-0,189750
11,425333	0,5	-0,190550
11,433667	0,5	-0,193600
11,442000	0,5	-0,201100
11,450333	0,5	-0,197200
11,458667	0,5	-0,199900
11,467000	0,5	-0,203900
11,475333	0,5	-0,203650
11,483667	0,5	-0,206450
11,492000	0,5	-0,210950
11,500333	0,5	-0,213650
11,508667	0,5	-0,215300
11,517000	0,5	-0,223550
11,525333	0,5	-0,225350
11,533667	0,5	-0,231300
11,542000	0,5	-0,235300
11,550333	0,5	-0,243850
11,558667	0,5	-0,244950
11,567000	0,5	-0,250600
11,575333	0,5	-0,257850
11,583667	0,5	-0,266400
11,592000	0,5	-0,268950
11,600333	0,5	-0,265150
11,608667	0,5	-0,263300
11,617000	0,5	-0,265550
11,625333	0,5	-0,264000
11,633667	0,5	-0,263100
11,642000	0,5	-0,264550
11,650333	0,5	-0,261900
11,658667	0,5	-0,266400
11,667000	0,5	-0,266050
11,675333	0,5	-0,264050
11,683667	0,5	-0,262900
11,692000	0,5	-0,266550
11,700333	0,5	-0,269150
11,708667	0,5	-0,267700
11,717000	0,5	-0,267450
11,725333	0,5	-0,267600
11,733667	0,5	-0,269650
11,742000	0,5	-0,270850
11,750333	0,5	-0,267100
11,758667	0,5	-0,267600
11,767000	0,5	-0,259900
11,775333	0,5	-0,262400
11,783667	0,5	-0,260300
11,792000	0,5	-0,253000
11,800333	0,5	-0,250450
11,808667	0,5	-0,249900
11,817000	0,5	-0,246500
11,825333	0,5	-0,240800
11,833667	0,5	-0,241450
11,842000	0,5	-0,243900
11,850333	0,5	-0,242700
11,858667	0,5	-0,243750
11,867000	0,5	-0,243950
11,875333	0,5	-0,246450
11,883667	0,5	-0,251350
11,892000	0,5	-0,248850
11,900333	0,5	-0,247900
11,908667	0,5	-0,244550
11,917000	0,5	-0,246900
11,925333	0,5	-0,245250
11,933667	0,5	-0,245800
11,942000	0,5	-0,245550
11,950333	0,5	-0,249900
11,958667	0,5	-0,250750
11,967000	0,5	-0,248400
11,975333	0,5	-0,247250
11,983667	0,5	-0,250350
11,992000	0,5	-0,252050
12,000333	0,5	-0,245350
12,008667	0,5	-0,243800
12,017000	0,5	-0,244200
12,025333	0,5	-0,248300
12,033667	0,5	-0,246950
12,042000	0,5	-0,246300
12,050333	0,5	-0,242200
12,058667	0,5	-0,238500
12,067000	0,5	-0,232200
12,075333	0,5	-0,231450
12,083667	0,5	-0,228200
12,092000	0,5	-0,223800
12,100333	0,5	-0,219000
12,108667	0,5	-0,213400
12,117000	0,5	-0,206450
12,125333	0,5	-0,199800
12,133667	0,5	-0,193700
12,142000	0,5	-0,186600
12,150333	0,5	-0,179200
12,158667	0,5	-0,172100
12,167000	0,5	-0,167050
12,175333	0,5	-0,163850
12,183667	0,5	-0,157200
12,192000	0,5	-0,149650
12,200333	0,5	-0,150900
12,208667	0,5	-0,147700
12,217000	0,5	-0,151650
12,225333	0,5	-0,150550
12,233667	0,5	-0,157200
12,242000	0,5	-0,157050
12,250333	0,5	-0,162650
12,258667	0,5	-0,165100
12,267000	0,5	-0,166150
12,275333	0,5	-0,166650
12,283667	0,5	-0,176500
12,292000	0,5	-0,172400
12,300333	0,5	-0,173900
12,308667	0,5	-0,175650
12,317000	0,5	-0,178100
12,325333	0,5	-0,184750
12,333667	0,5	-0,179600
12,342000	0,5	-0,179250
12,350333	0,5	-0,183100
12,358667	0,5	-0,180300
12,367000	0,5	-0,178350
12,375333	0,5	-0,175500
12,383667	0,5	-0,172850
12,392000	0,5	-0,171300
12,400333	0,5	-0,165700
12,408667	0,5	-0,163050
12,417000	0,5	-0,152300
12,425333	0,5	-0,149600
12,433667	0,5	-0,148750
12,442000	0,5	-0,143350
12,450333	0,5	-0,142800
12,458667	0,5	-0,141800
12,467000	0,5	-0,142050
12,475333	0,5	-0,151150
12,483667	0,5	-0,145650
12,492000	0,5	-0,146050
12,500333	0,5	-0,144500
12,508667	0,5	-0,146950
12,517000	0,5	-0,140000
12,525333	0,5	-0,136250
12,533667	0,5	-0,128600
12,542000	0,5	-0,121400
12,550333	0,5	-0,119750
12,558667	0,5	-0,108200
12,567000	0,5	-0,101050
12,575333	0,5	-0,096200
12,583667	0,5	-0,100700
12,592000	0,5	-0,097400
12,600333	0,5	-0,101450
12,608667	0,5	-0,104750
12,617000	0,5	-0,112550
12,625333	0,5	-0,116250
12,633667	0,5	-0,111350
12,642000	0,5	-0,110100
12,650333	0,5	-0,112050
12,658667	0,5	-0,106050
12,667000	0,5	-0,104100
12,675333	0,5	-0,099500
12,683667	0,5	-0,098900
12,692000	0,5	-0,098400
12,700333	0,5	-0,098500
12,708667	0,5	-0,094500
12,717000	0,5	-0,092900
12,725333	0,5	-0,088500
12,733667	0,5	-0,083950
12,742000	0,5	-0,078350
12,750333	0,5	-0,076350
12,758667	0,5	-0,073250
12,767000	0,5	-0,068200
12,775333	0,5	-0,066000
12,783667	0,5	-0,056000
12,792000	0,5	-0,046750
12,800333	0,5	-0,037350
12,808667	0,5	-0,032200
12,817000	0,5	-0,025200
12,825333	0,5	-0,019650
12,833667	0,5	-0,013100
12,842000	0,5	-0,013100
12,850333	0,5	-0,006500
12,858667	0,5	0,003150
12,867000	0,5	0,003950
12,875333	0,5	0,000700
12,883667	0,5	0,002500
12,892000	0,5	0,004550
12,900333	0,5	-0,001500
12,908667	0,5	-0,005900
12,917000	0,5	-0,011450
12,925333	0,5	-0,004500
12,933667	0,5	-0,001800
12,942000	0,5	0,001600
12,950333	0,5	0,004000
12,958667	0,5	0,012100
12,967000	0,5	0,020850
12,975333	0,5	0,029400
12,983667	0,5	0,033100
12,992000	0,5	0,036500
13,000333	0,5	0,044400
13,008667	0,5	0,053300
13,017000	0,5	0,051700
13,025333	0,5	0,056900
13,033667	0,5	0,059200
13,042000	0,5	0,061050
13,050333	0,5	0,060950
13,058667	0,5	0,059650
13,067000	0,5	0,060700
13,075333	0,5	0,061300
13,083667	0,5	0,071300
13,092000	0,5	0,071600
13,100333	0,5	0,080850
13,108667	0,5	0,083500
13,117000	0,5	0,092650
13,125333	0,5	0,098450
13,133667	0,5	0,104450
13,142000	0,5	0,104400
13,150333	0,5	0,110000
13,158667	0,5	0,118350
13,167000	0,5	0,111100
13,175333	0,5	0,117300
13,183667	0,5	0,117300
13,192000	0,5	0,115150
13,200333	0,5	0,116400
13,208667	0,5	0,110300
13,217000	0,5	0,110050
13,225333	0,5	0,115450
13,233667	0,5	0,119150
13,242000	0,5	0,119600
13,250333	0,5	0,125350
13,258667	0,5	0,131600
13,267000	0,5	0,139150
13,275333	0,5	0,144700
13,283667	0,5	0,145700
13,292000	0,5	0,150450
13,300333	0,5	0,153400
13,308667	0,5	0,158700
13,317000	0,5	0,148450
13,325333	0,5	0,162100
13,333667	0,5	0,163550
13,342000	0,5	0,162600
13,350333	0,5	0,163950
13,358667	0,5	0,161650
13,367000	0,5	0,172250
13,375333	0,5	0,173050
13,383667	0,5	0,173500
13,392000	0,5	0,173200
13,400333	0,5	0,173200
13,408667	0,5	0,174250
13,417000	0,5	0,175200
13,425333	0,5	0,168200
13,433667	0,5	0,170100
13,442000	0,5	0,161750
13,450333	0,5	0,172150
13,458667	0,5	0,179700
13,467000	0,5	0,196250
13,475333	0,5	0,223900
13,483667	0,5	0,244400
13,492000	0,5	0,258050
13,500333	0,5	0,259250
13,508667	0,5	0,246100
13,517000	0,5	0,239400
13,525333	0,5	0,222650
13,533667	0,5	0,208400
13,542000	0,5	0,192800
13,550333	0,5	0,186800
13,558667	0,5	0,182200
13,567000	0,5	0,181250
13,575333	0,5	0,184800
13,583667	0,5	0,181800
13,592000	0,5	0,181800
13,600333	0,5	0,183150
13,608667	0,5	0,181250
13,617000	0,5	0,193600
13,625333	0,5	0,218300
13,633667	0,5	0,250350
13,642000	0,5	0,277450
13,650333	0,5	0,298200
13,658667	0,5	0,314400
13,667000	0,5	0,308300
13,675333	0,5	0,299400
13,683667	0,5	0,277650
13,692000	0,5	0,259750
13,700333	0,5	0,239800
13,708667	0,5	0,228800
13,717000	0,5	0,224300
13,725333	0,5	0,220550
13,733667	0,5	0,224850
13,742000	0,5	0,229900
13,750333	0,5	0,250150
13,758667	0,5	0,272250
13,767000	0,5	0,315150
13,775333	0,5	0,365150
13,783667	0,5	0,408550
13,792000	0,5	0,437800
13,800333	0,5	0,447900
13,808667	0,5	0,437050
13,817000	0,5	0,414100
13,825333	0,5	0,371200
13,833667	0,5	0,336150
13,842000	0,5	0,297700
13,850333	0,5	0,274800
13,858667	0,5	0,255950
13,867000	0,5	0,249400
13,875333	0,5	0,261250
13,883667	0,5	0,277150
13,892000	0,5	0,313450
13,900333	0,5	0,350550
13,908667	0,5	0,384400
13,917000	0,5	0,421150
13,925333	0,5	0,433750
13,933667	0,5	0,420950
13,942000	0,5	0,390350
13,950333	0,5	0,347000
13,958667	0,5	0,308450
13,967000	0,5	0,274750
13,975333	0,5	0,252650
13,983667	0,5	0,242100
13,992000	0,5	0,252400
14,000333	0,5	0,266200
14,008667	0,5	0,295750
14,017000	0,5	0,320000
14,025333	0,5	0,340850
14,033667	0,5	0,348000
14,042000	0,5	0,346400
14,050333	0,5	0,318800
14,058667	0,5	0,300500
14,067000	0,5	0,271300
14,075333	0,5	0,235500
14,083667	0,5	0,208200
14,092000	0,5	0,183300
14,100333	0,5	0,183550
14,108667	0,5	0,186650
14,117000	0,5	0,197300
14,125333	0,5	0,205800
14,133667	0,5	0,211300
14,142000	0,5	0,206450
14,150333	0,5	0,201300
14,158667	0,5	0,180700
14,167000	0,5	0,159750
14,175333	0,5	0,134500
14,183667	0,5	0,115500
14,192000	0,5	0,102550
14,200333	0,5	0,095000
14,208667	0,5	0,111550
14,217000	0,5	0,128450
14,225333	0,5	0,140800
14,233667	0,5	0,148850
14,242000	0,5	0,146350
14,250333	0,5	0,155400
14,258667	0,5	0,154300
14,267000	0,5	0,140450
14,275333	0,5	0,118600
14,283667	0,5	0,101550
14,292000	0,5	0,084750
14,300333	0,5	0,070500
14,308667	0,5	0,065100
14,317000	0,5	0,059900
14,325333	0,5	0,056200
14,333667	0,5	0,052250
14,342000	0,5	0,050200
14,350333	0,5	0,035550
14,358667	0,5	0,041200
14,367000	0,5	0,029950
14,375333	0,5	0,020450
14,383667	0,5	0,010250
14,392000	0,5	-0,001250
14,400333	0,5	0,004500
14,408667	0,5	0,003250
14,417000	0,5	0,003350
14,425333	0,5	0,000550
14,433667	0,5	-0,009150
14,442000	0,5	-0,015250
14,450333	0,5	-0,019000
14,458667	0,5	-0,026100
14,467000	0,5	-0,030750
14,475333	0,5	-0,042250
14,483667	0,5	-0,036200
14,492000	0,5	-0,046400
14,500333	0,5	-0,042850
14,508667	0,5	-0,038450
14,517000	0,5	-0,038700
14,525333	0,5	-0,046100
14,533667	0,5	-0,055100
14,542000	0,5	-0,062250
14,550333	0,5	-0,058050
14,558667	0,5	-0,065800
14,567000	0,5	-0,066450
14,575333	0,5	-0,070550
14,583667	0,5	-0,069750
14,592000	0,5	-0,071250
14,600333	0,5	-0,072100
14,608667	0,5	-0,066500
14,617000	0,5	-0,063950
14,625333	0,5	-0,058100
14,633667	0,5	-0,060500
14,642000	0,5	-0,069850
14,650333	0,5	-0,070850
14,658667	0,5	-0,075250
14,667000	0,5	-0,081800
14,675333	0,5	-0,089350
14,683667	0,5	-0,104100
14,692000	0,5	-0,098550
14,700333	0,5	-0,095950
14,708667	0,5	-0,085100
14,717000	0,5	-0,089100
14,725333	0,5	-0,084800
14,733667	0,5	-0,089300
14,742000	0,5	-0,090150
14,750333	0,5	-0,094350
14,758667	0,5	-0,103450
14,767000	0,5	-0,105000
14,775333	0,5	-0,103700
14,783667	0,5	-0,107550
14,792000	0,5	-0,105900
14,800333	0,5	-0,102050
14,808667	0,5	-0,102800
14,817000	0,5	-0,104250
14,825333	0,5	-0,121250
14,833667	0,5	-0,131650
14,842000	0,5	-0,133100
14,850333	0,5	-0,124450
14,858667	0,5	-0,125500
14,867000	0,5	-0,119900
14,875333	0,5	-0,117850
14,883667	0,5	-0,117550
14,892000	0,5	-0,116350
14,900333	0,5	-0,121200
14,908667	0,5	-0,122350
14,917000	0,5	-0,122500
14,925333	0,5	-0,124350
14,933667	0,5	-0,136950
14,942000	0,5	-0,132400
14,950333	0,5	-0,133900
14,958667	0,5	-0,143950
14,967000	0,5	-0,153000
14,975333	0,5	-0,170750
14,983667	0,5	-0,175000
14,992000	0,5	-0,171050
15,000333	0,5	-0,175050
15,008667	0,5	-0,173950
15,017000	0,5	-0,178350
15,025333	0,5	-0,178550
15,033667	0,5	-0,180850
15,042000	0,5	-0,178700
15,050333	0,5	-0,181250
15,058667	0,5	-0,183400
15,067000	0,5	-0,182000
15,075333	0,5	-0,184950
15,083667	0,5	-0,204200
15,092000	0,5	-0,192150
15,100333	0,5	-0,192450
15,108667	0,5	-0,196800
15,117000	0,5	-0,198850
15,125333	0,5	-0,218100
15,133667	0,5	-0,210900
15,142000	0,5	-0,211150
15,150333	0,5	-0,203350
15,158667	0,5	-0,211600
15,167000	0,5	-0,208550
15,175333	0,5	-0,209150
15,183667	0,5	-0,204100
15,192000	0,5	-0,208600
15,200333	0,5	-0,209600
15,208667	0,5	-0,211500
15,217000	0,5	-0,207200
15,225333	0,5	-0,216600
15,233667	0,5	-0,217200
15,242000	0,5	-0,205050
15,250333	0,5	-0,201850
15,258667	0,5	-0,203900
15,267000	0,5	-0,204150
15,275333	0,5	-0,205200
15,283667	0,5	-0,195900
15,292000	0,5	-0,190150
15,300333	0,5	-0,184050
15,308667	0,5	-0,179500
15,317000	0,5	-0,177900
15,325333	0,5	-0,178600
15,333667	0,5	-0,175900
15,342000	0,5	-0,167650
15,350333	0,5	-0,168050
15,358667	0,5	-0,165950
15,367000	0,5	-0,159350
15,375333	0,5	-0,159100
15,383667	0,5	-0,158250
15,392000	0,5	-0,148050
15,400333	0,5	-0,148900
15,408667	0,5	-0,151050
15,417000	0,5	-0,159150
15,425333	0,5	-0,162450
15,433667	0,5	-0,149850
15,442000	0,5	-0,140100
15,450333	0,5	-0,133100
15,458667	0,5	-0,130500
15,467000	0,5	-0,121250
15,475333	0,5	-0,122800
15,483667	0,5	-0,121100
15,492000	0,5	-0,124550
15,500333	0,5	-0,118050
15,508667	0,5	-0,113450
15,517000	0,5	-0,098500
15,525333	0,5	-0,114550
15,533667	0,5	-0,100850
15,542000	0,5	-0,109800
15,550333	0,5	-0,119600
15,558667	0,5	-0,147150
15,567000	0,5	-0,171150
15,575333	0,5	-0,188200
15,583667	0,5	-0,197400
15,592000	0,5	-0,206900
15,600333	0,5	-0,213250
15,608667	0,5	-0,217700
15,617000	0,5	-0,228100
15,625333	0,5	-0,237400
15,633667	0,5	-0,243800
15,642000	0,5	-0,245650
15,650333	0,5	-0,250650
15,658667	0,5	-0,247200
15,667000	0,5	-0,255350
15,675333	0,5	-0,260400
15,683667	0,5	-0,255300
15,692000	0,5	-0,260000
15,700333	0,5	-0,264750
15,708667	0,5	-0,275000
15,717000	0,5	-0,293100
15,725333	0,5	-0,289750
15,733667	0,5	-0,287900
15,742000	0,5	-0,283800
15,750333	0,5	-0,289200
15,758667	0,5	-0,284750
15,767000	0,5	-0,289600
15,775333	0,5	-0,285000
15,783667	0,5	-0,283900
15,792000	0,5	-0,283750
15,800333	0,5	-0,283000
15,808667	0,5	-0,278950
15,817000	0,5	-0,292300
15,825333	0,5	-0,290250
15,833667	0,5	-0,280750
15,842000	0,5	-0,283050
15,850333	0,5	-0,284950
15,858667	0,5	-0,296250
15,867000	0,5	-0,302050
15,875333	0,5	-0,306800
15,883667	0,5	-0,308100
15,892000	0,5	-0,311500
15,900333	0,5	-0,311950
15,908667	0,5	-0,315150
15,917000	0,5	-0,316450
15,925333	0,5	-0,319250
15,933667	0,5	-0,319700
15,942000	0,5	-0,324300
15,950333	0,5	-0,316400
15,958667	0,5	-0,316900
15,967000	0,5	-0,332000
15,975333	0,5	-0,323600
15,983667	0,5	-0,320950
15,992000	0,5	-0,328800
16,000333	0,5	-0,333000
16,008667	0,5	-0,343400
16,017000	0,5	-0,350500
16,025333	0,5	-0,343000
16,033667	0,5	-0,342800
16,042000	0,5	-0,341250
16,050333	0,5	-0,344750
16,058667	0,5	-0,335350
16,067000	0,5	-0,330000
16,075333	0,5	-0,321200
16,083667	0,5	-0,317850
16,092000	0,5	-0,311000
16,100333	0,5	-0,304100
16,108667	0,5	-0,308300
16,117000	0,5	-0,316350
16,125333	0,5	-0,310250
16,133667	0,5	-0,312050
16,142000	0,5	-0,313900
16,150333	0,5	-0,317950
16,158667	0,5	-0,323450
16,167000	0,5	-0,310750
16,175333	0,5	-0,303050
16,183667	0,5	-0,288400
16,192000	0,5	-0,284900
16,200333	0,5	-0,284200
16,208667	0,5	-0,283800
16,217000	0,5	-0,289350
16,225333	0,5	-0,296550
16,233667	0,5	-0,295500
16,242000	0,5	-0,303050
16,250333	0,5	-0,295700
16,258667	0,5	-0,304150
16,267000	0,5	-0,292700
16,275333	0,5	-0,284500
16,283667	0,5	-0,283700
16,292000	0,5	-0,285200
16,300333	0,5	-0,288150
16,308667	0,5	-0,286050
16,317000	0,5	-0,283000
16,325333	0,5	-0,276800
16,333667	0,5	-0,271200
16,342000	0,5	-0,258850
16,350333	0,5	-0,257700
16,358667	0,5	-0,251950
16,367000	0,5	-0,245600
16,375333	0,5	-0,237000
16,383667	0,5	-0,232200
16,392000	0,5	-0,225700
16,400333	0,5	-0,215650
16,408667	0,5	-0,215100
16,417000	0,5	-0,207050
16,425333	0,5	-0,199800
16,433667	0,5	-0,194850
16,442000	0,5	-0,194600
16,450333	0,5	-0,200650
16,458667	0,5	-0,187700
16,467000	0,5	-0,178700
16,475333	0,5	-0,170200
16,483667	0,5	-0,163750
16,492000	0,5	-0,157650
16,500333	0,5	-0,146950
16,508667	0,5	-0,142100
16,517000	0,5	-0,135150
16,525333	0,5	-0,130650
16,533667	0,5	-0,119550
16,542000	0,5	-0,110650
16,550333	0,5	-0,098100
16,558667	0,5	-0,099200
16,567000	0,5	-0,078050
16,575333	0,5	-0,077400
16,583667	0,5	-0,070750
16,592000	0,5	-0,078400
16,600333	0,5	-0,083550
16,608667	0,5	-0,085050
16,617000	0,5	-0,076250
16,625333	0,5	-0,075700
16,633667	0,5	-0,069050
16,642000	0,5	-0,066150
16,650333	0,5	-0,063700
16,658667	0,5	-0,057650
16,667000	0,5	-0,051650
16,675333	0,5	-0,047350
16,683667	0,5	-0,044650
16,692000	0,5	-0,039450
16,700333	0,5	-0,048200
16,708667	0,5	-0,050300
16,717000	0,5	-0,046250
16,725333	0,5	-0,053500
16,733667	0,5	-0,061050
16,742000	0,5	-0,071650
16,750333	0,5	-0,077700
16,758667	0,5	-0,074000
16,767000	0,5	-0,078600
16,775333	0,5	-0,077850
16,783667	0,5	-0,081850
16,792000	0,5	-0,079650
16,800333	0,5	-0,082150
16,808667	0,5	-0,091200
16,817000	0,5	-0,092150
16,825333	0,5	-0,091350
16,833667	0,5	-0,085650
16,842000	0,5	-0,089750
16,850333	0,5	-0,098950
16,858667	0,5	-0,095800
16,867000	0,5	-0,094100
16,875333	0,5	-0,104150
16,883667	0,5	-0,104200
16,892000	0,5	-0,116800
16,900333	0,5	-0,122250
16,908667	0,5	-0,127200
16,917000	0,5	-0,123000
16,925333	0,5	-0,125700
16,933667	0,5	-0,123200
16,942000	0,5	-0,126750
16,950333	0,5	-0,125600
16,958667	0,5	-0,123200
16,967000	0,5	-0,129700
16,975333	0,5	-0,129300
16,983667	0,5	-0,126650
16,992000	0,5	-0,132250
17,000333	0,5	-0,137650
17,008667	0,5	-0,136300
17,017000	0,5	-0,135450
17,025333	0,5	-0,142050
17,033667	0,5	-0,156150
17,042000	0,5	-0,166900
17,050333	0,5	-0,170700
17,058667	0,5	-0,170300
17,067000	0,5	-0,180400
17,075333	0,5	-0,179950
17,083667	0,5	-0,187400
17,092000	0,5	-0,187850
17,100333	0,5	-0,194800
17,108667	0,5	-0,202600
17,117000	0,5	-0,205550
17,125333	0,5	-0,210100
17,133667	0,5	-0,209350
17,142000	0,5	-0,225800
17,150333	0,5	-0,224000
17,158667	0,5	-0,222750
17,167000	0,5	-0,223250
17,175333	0,5	-0,231550
17,183667	0,5	-0,246250
17,192000	0,5	-0,254500
17,200333	0,5	-0,248400
17,208667	0,5	-0,268850
17,217000	0,5	-0,265700
17,225333	0,5	-0,273600
17,233667	0,5	-0,272600
17,242000	0,5	-0,280000
17,250333	0,5	-0,278450
17,258667	0,5	-0,282800
17,267000	0,5	-0,288650
17,275333	0,5	-0,285600
17,283667	0,5	-0,286250
17,292000	0,5	-0,307950
17,300333	0,5	-0,296900
17,308667	0,5	-0,304600
17,317000	0,5	-0,307050
17,325333	0,5	-0,315300
17,333667	0,5	-0,339150
17,342000	0,5	-0,331400
17,350333	0,5	-0,337050
17,358667	0,5	-0,338450
17,367000	0,5	-0,341900
17,375333	0,5	-0,343350
17,383667	0,5	-0,350350
17,392000	0,5	-0,349550
17,400333	0,5	-0,359800
17,408667	0,5	-0,364100
17,417000	0,5	-0,367600
17,425333	0,5	-0,366650
17,433667	0,5	-0,371000
17,442000	0,5	-0,382050
17,450333	0,5	-0,374600
17,458667	0,5	-0,380200
17,467000	0,5	-0,387050
17,475333	0,5	-0,399750
17,483667	0,5	-0,410450
17,492000	0,5	-0,413950
17,500333	0,5	-0,415000
17,508667	0,5	-0,420300
17,517000	0,5	-0,419000
17,525333	0,5	-0,419800
17,533667	0,5	-0,421950
17,542000	0,5	-0,425900
17,550333	0,5	-0,428300
17,558667	0,5	-0,433550
17,567000	0,5	-0,437050
17,575333	0,5	-0,442900
17,583667	0,5	-0,446250
17,592000	0,5	-0,449500
17,600333	0,5	-0,444250
17,608667	0,5	-0,449300
17,617000	0,5	-0,457350
17,625333	0,5	-0,467050
17,633667	0,5	-0,478350
17,642000	0,5	-0,475350
17,650333	0,5	-0,475850
17,658667	0,5	-0,480900
17,667000	0,5	-0,479200
17,675333	0,5	-0,484200
17,683667	0,5	-0,481000
17,692000	0,5	-0,481350
17,700333	0,5	-0,497300
17,708667	0,5	-0,493350
17,717000	0,5	-0,493150
17,725333	0,5	-0,491200
17,733667	0,5	-0,503150
17,742000	0,5	-0,494400
17,750333	0,5	-0,495900
17,758667	0,5	-0,502300
17,767000	0,5	-0,514350
17,775333	0,5	-0,527300
17,783667	0,5	-0,526250
17,792000	0,5	-0,526200
17,800333	0,5	-0,535850
17,808667	0,5	-0,531600
17,817000	0,5	-0,532000
17,825333	0,5	-0,534550
17,833667	0,5	-0,537550
17,842000	0,5	-0,538000
17,850333	0,5	-0,544100
17,858667	0,5	-0,545250
17,867000	0,5	-0,541500
17,875333	0,5	-0,553800
17,883667	0,5	-0,552450
17,892000	0,5	-0,552850
17,900333	0,5	-0,556750
17,908667	0,5	-0,563000
17,917000	0,5	-0,572900
17,925333	0,5	-0,579750
17,933667	0,5	-0,578250
17,942000	0,5	-0,579100
17,950333	0,5	-0,574450
17,958667	0,5	-0,580800
17,967000	0,5	-0,576550
17,975333	0,5	-0,580650
17,983667	0,5	-0,581750
17,992000	0,5	-0,582150
18,000333	0,5	-0,591700
18,008667	0,5	-0,585650
18,017000	0,5	-0,583950
18,025333	0,5	-0,594100
18,033667	0,5	-0,588650
18,042000	0,5	-0,586500
18,050333	0,5	-0,589600
18,058667	0,5	-0,594550
18,067000	0,5	-0,614350
18,075333	0,5	-0,610400
18,083667	0,5	-0,607950
18,092000	0,5	-0,609400
18,100333	0,5	-0,618750
18,108667	0,5	-0,611750
18,117000	0,5	-0,610750
18,125333	0,5	-0,614900
18,133667	0,5	-0,616650
18,142000	0,5	-0,618900
18,150333	0,5	-0,619350
18,158667	0,5	-0,618300
18,167000	0,5	-0,624650
18,175333	0,5	-0,634350
18,183667	0,5	-0,625000
18,192000	0,5	-0,628550
18,200333	0,5	-0,633200
18,208667	0,5	-0,636050
18,217000	0,5	-0,653850
18,225333	0,5	-0,649900
18,233667	0,5	-0,648550
18,242000	0,5	-0,653750
18,250333	0,5	-0,652400
18,258667	0,5	-0,660750
18,267000	0,5	-0,658400
18,275333	0,5	-0,660400
18,283667	0,5	-0,662200
18,292000	0,5	-0,669650
18,300333	0,5	-0,673450
18,308667	0,5	-0,661050
18,317000	0,5	-0,671950
18,325333	0,5	-0,675900
18,333667	0,5	-0,668300
18,342000	0,5	-0,671900
18,350333	0,5	-0,678550
18,358667	0,5	-0,687200
18,367000	0,5	-0,696600
18,375333	0,5	-0,688150
18,383667	0,5	-0,692200
18,392000	0,5	-0,696500
18,400333	0,5	-0,695050
18,408667	0,5	-0,690550
18,417000	0,5	-0,696450
18,425333	0,5	-0,693000
18,433667	0,5	-0,696300
18,442000	0,5	-0,694600
18,450333	0,5	-0,690600
18,458667	0,5	-0,683650
18,467000	0,5	-0,694000
18,475333	0,5	-0,692000
18,483667	0,5	-0,689350
18,492000	0,5	-0,695500
18,500333	0,5	-0,703600
18,508667	0,5	-0,714850
18,517000	0,5	-0,707550
18,525333	0,5	-0,709750
18,533667	0,5	-0,703550
18,542000	0,5	-0,707300
18,550333	0,5	-0,703500
18,558667	0,5	-0,705250
18,567000	0,5	-0,696550
18,575333	0,5	-0,699550
18,583667	0,5	-0,699200
18,592000	0,5	-0,701300
18,600333	0,5	-0,693700
18,608667	0,5	-0,693400
18,617000	0,5	-0,691800
18,625333	0,5	-0,684800
18,633667	0,5	-0,684650
18,642000	0,5	-0,682250
18,650333	0,5	-0,689200
18,658667	0,5	-0,696850
18,667000	0,5	-0,705800
18,675333	0,5	-0,691100
18,683667	0,5	-0,696200
18,692000	0,5	-0,695150
18,700333	0,5	-0,695350
18,708667	0,5	-0,689500
18,717000	0,5	-0,686050
18,725333	0,5	-0,684200
18,733667	0,5	-0,686400
18,742000	0,5	-0,683100
18,750333	0,5	-0,682300
18,758667	0,5	-0,684850
18,767000	0,5	-0,688300
18,775333	0,5	-0,678650
18,783667	0,5	-0,683850
18,792000	0,5	-0,690950
18,800333	0,5	-0,706550
18,808667	0,5	-0,707000
18,817000	0,5	-0,707200
18,825333	0,5	-0,704600
18,833667	0,5	-0,702650
18,842000	0,5	-0,702450
18,850333	0,5	-0,699900
18,858667	0,5	-0,700200
18,867000	0,5	-0,696250
18,875333	0,5	-0,699200
18,883667	0,5	-0,701650
18,892000	0,5	-0,701300
18,900333	0,5	-0,697950
18,908667	0,5	-0,711200
18,917000	0,5	-0,702550
18,925333	0,5	-0,701750
18,933667	0,5	-0,702950
18,942000	0,5	-0,711750
18,950333	0,5	-0,725900
18,958667	0,5	-0,729800
18,967000	0,5	-0,729050
18,975333	0,5	-0,730350
18,983667	0,5	-0,735950
18,992000	0,5	-0,736900
19,000333	0,5	-0,735450
19,008667	0,5	-0,729700
19,017000	0,5	-0,736600
19,025333	0,5	-0,733400
19,033667	0,5	-0,739150
19,042000	0,5	-0,733300
19,050333	0,5	-0,741950
19,058667	0,5	-0,746100
19,067000	0,5	-0,740700
19,075333	0,5	-0,743100
19,083667	0,5	-0,756700
19,092000	0,5	-0,771050
19,100333	0,5	-0,783700
19,108667	0,5	-0,780600
19,117000	0,5	-0,781750
19,125333	0,5	-0,785550
19,133667	0,5	-0,787800
19,142000	0,5	-0,789700
19,150333	0,5	-0,790400
19,158667	0,5	-0,795600
19,167000	0,5	-0,796100
19,175333	0,5	-0,804600
19,183667	0,5	-0,806650
19,192000	0,5	-0,806450
19,200333	0,5	-0,812500
19,208667	0,5	-0,808000
19,217000	0,5	-0,804700
19,225333	0,5	-0,810000
19,233667	0,5	-0,813750
19,242000	0,5	-0,830200
19,250333	0,5	-0,830050
19,258667	0,5	-0,827650
19,267000	0,5	-0,822950
19,275333	0,5	-0,830500
19,283667	0,5	-0,836200
19,292000	0,5	-0,839600
19,300333	0,5	-0,837000
19,308667	0,5	-0,835850
19,317000	0,5	-0,836600
19,325333	0,5	-0,835450
19,333667	0,5	-0,836900
19,342000	0,5	-0,823350
19,350333	0,5	-0,839500
19,358667	0,5	-0,823850
19,367000	0,5	-0,819800
19,375333	0,5	-0,815350
19,383667	0,5	-0,823900
19,392000	0,5	-0,833250
19,400333	0,5	-0,815400
19,408667	0,5	-0,804200
19,417000	0,5	-0,799050
19,425333	0,5	-0,797050
19,433667	0,5	-0,800650
19,442000	0,5	-0,798050
19,450333	0,5	-0,808800
19,458667	0,5	-0,820700
19,467000	0,5	-0,830800
19,475333	0,5	-0,837950
19,483667	0,5	-0,837150
19,492000	0,5	-0,842750
19,500333	0,5	-0,853450
19,508667	0,5	-0,844650
19,517000	0,5	-0,851150
19,525333	0,5	-0,853550
19,533667	0,5	-0,864100
19,542000	0,5	-0,880250
19,550333	0,5	-0,873200
19,558667	0,5	-0,874000
19,567000	0,5	-0,867450
19,575333	0,5	-0,876200
19,583667	0,5	-0,878250
19,592000	0,5	-0,877600
19,600333	0,5	-0,873400
19,608667	0,5	-0,871550
19,617000	0,5	-0,873750
19,625333	0,5	-0,864850
19,633667	0,5	-0,863750
19,642000	0,5	-0,869200
19,650333	0,5	-0,862300
19,658667	0,5	-0,854550
19,667000	0,5	-0,856400
19,675333	0,5	-0,857200
19,683667	0,5	-0,872900
19,692000	0,5	-0,864350
19,700333	0,5	-0,853900
19,708667	0,5	-0,837800
19,717000	0,5	-0,836200
19,725333	0,5	-0,823800
19,733667	0,5	-0,821650
19,742000	0,5	-0,815200
19,750333	0,5	-0,813250
19,758667	0,5	-0,805450
19,767000	0,5	-0,797950
19,775333	0,5	-0,782450
19,783667	0,5	-0,781550
19,792000	0,5	-0,784850
19,800333	0,5	-0,781000
19,808667	0,5	-0,792300
19,817000	0,5	-0,811600
19,825333	0,5	-0,838450
19,833667	0,5	-0,855750
19,842000	0,5	-0,868150
19,850333	0,5	-0,860250
19,858667	0,5	-0,866800
19,867000	0,5	-0,865000
19,875333	0,5	-0,870500
19,883667	0,5	-0,868450
19,892000	0,5	-0,864900
19,900333	0,5	-0,866350
19,908667	0,5	-0,865800
19,917000	0,5	-0,858650
19,925333	0,5	-0,848700
19,933667	0,5	-0,848850
19,942000	0,5	-0,841250
19,950333	0,5	-0,825150
19,958667	0,5	-0,814200
19,967000	0,5	-0,809200
19,975333	0,5	-0,810450
19,983667	0,5	-0,799300
19,992000	0,5	-0,775250
20,000333	0,5	-0,766350
20,008667	0,5	-0,754550
20,017000	0,5	-0,763800
20,025333	0,5	-0,767650
20,033667	0,5	-0,791600
20,042000	0,5	-0,795600
20,050333	0,5	-0,810750
20,058667	0,5	-0,818900
20,067000	0,5	-0,819650
20,075333	0,5	-0,823800
20,083667	0,5	-0,843350
20,092000	0,5	-0,824800
20,100333	0,5	-0,817050
20,108667	0,5	-0,821800
20,117000	0,5	-0,822300
20,125333	0,5	-0,840200
20,133667	0,5	-0,825100
20,142000	0,5	-0,827050
20,150333	0,5	-0,815800
20,158667	0,5	-0,818900
20,167000	0,5	-0,809550
20,175333	0,5	-0,814600
20,183667	0,5	-0,811950
20,192000	0,5	-0,811600
20,200333	0,5	-0,799900
20,208667	0,5	-0,795850
20,217000	0,5	-0,779400
20,225333	0,5	-0,779550
20,233667	0,5	-0,772700
20,242000	0,5	-0,750400
20,250333	0,5	-0,743350
20,258667	0,5	-0,732850
20,267000	0,5	-0,727750
20,275333	0,5	-0,731150
20,283667	0,5	-0,727850
20,292000	0,5	-0,736100
20,300333	0,5	-0,767900
20,308667	0,5	-0,792800
20,317000	0,5	-0,819650
20,325333	0,5	-0,831850
20,333667	0,5	-0,844000
20,342000	0,5	-0,846250
20,350333	0,5	-0,858250
20,358667	0,5	-0,856450
20,367000	0,5	-0,851200
20,375333	0,5	-0,863150
20,383667	0,5	-0,852950
20,392000	0,5	-0,838850
20,400333	0,5	-0,829200
20,408667	0,5	-0,827250
20,417000	0,5	-0,832000
20,425333	0,5	-0,830500
20,433667	0,5	-0,810750
20,442000	0,5	-0,809550
20,450333	0,5	-0,802700
20,458667	0,5	-0,813400
20,467000	0,5	-0,821200
20,475333	0,5	-0,847750
20,483667	0,5	-0,856150
20,492000	0,5	-0,867950
20,500333	0,5	-0,872800
20,508667	0,5	-0,860850
20,517000	0,5	-0,855000
20,525333	0,5	-0,871100
20,533667	0,5	-0,861650
20,542000	0,5	-0,865950
20,550333	0,5	-0,869350
20,558667	0,5	-0,874800
20,567000	0,5	-0,887200
20,575333	0,5	-0,879800
20,583667	0,5	-0,869950
20,592000	0,5	-0,860000
20,600333	0,5	-0,862850
20,608667	0,5	-0,850850
20,617000	0,5	-0,849450
20,625333	0,5	-0,837750
20,633667	0,5	-0,827600
20,642000	0,5	-0,811650
20,650333	0,5	-0,788450
20,658667	0,5	-0,771400
20,667000	0,5	-0,769900
20,675333	0,5	-0,788100
20,683667	0,5	-0,799900
20,692000	0,5	-0,812500
20,700333	0,5	-0,821400
20,708667	0,5	-0,842400
20,717000	0,5	-0,844050
20,725333	0,5	-0,842900
20,733667	0,5	-0,829350
20,742000	0,5	-0,829700
20,750333	0,5	-0,822200
20,758667	0,5	-0,818550
20,767000	0,5	-0,817650
20,775333	0,5	-0,818100
20,783667	0,5	-0,819600
20,792000	0,5	-0,825750
20,800333	0,5	-0,806650
20,808667	0,5	-0,798400
20,817000	0,5	-0,799000
20,825333	0,5	-0,800850
20,833667	0,5	-0,792700
20,842000	0,5	-0,795600
20,850333	0,5	-0,804500
20,858667	0,5	-0,810100
20,867000	0,5	-0,818300
20,875333	0,5	-0,807950
20,883667	0,5	-0,801050
20,892000	0,5	-0,789150
20,900333	0,5	-0,782250
20,908667	0,5	-0,771050
20,917000	0,5	-0,761600
20,925333	0,5	-0,748050
20,933667	0,5	-0,746500
20,942000	0,5	-0,735700
20,950333	0,5	-0,718800
20,958667	0,5	-0,706900
20,967000	0,5	-0,717250
20,975333	0,5	-0,714350
20,983667	0,5	-0,717700
20,992000	0,5	-0,724650
21,000333	0,5	-0,738450
21,008667	0,5	-0,739300
21,017000	0,5	-0,734800
21,025333	0,5	-0,735250
21,033667	0,5	-0,731900
21,042000	0,5	-0,730450
21,050333	0,5	-0,720700
21,058667	0,5	-0,718000
21,067000	0,5	-0,714600
21,075333	0,5	-0,714900
21,083667	0,5	-0,706200
21,092000	0,5	-0,681900
21,100333	0,5	-0,661350
21,108667	0,5	-0,659450
21,117000	0,5	-0,653050
21,125333	0,5	-0,650350
21,133667	0,5	-0,652300
21,142000	0,5	-0,658800
21,150333	0,5	-0,678000
21,158667	0,5	-0,667500
21,167000	0,5	-0,671700
21,175333	0,5	-0,668000
21,183667	0,5	-0,665800
21,192000	0,5	-0,657850
21,200333	0,5	-0,655150
21,208667	0,5	-0,640450
21,217000	0,5	-0,638400
21,225333	0,5	-0,630200
21,233667	0,5	-0,627850
21,242000	0,5	-0,598850
21,250333	0,5	-0,581700
21,258667	0,5	-0,582650
21,267000	0,5	-0,583000
21,275333	0,5	-0,581000
21,283667	0,5	-0,586700
21,292000	0,5	-0,590100
21,300333	0,5	-0,591500
21,308667	0,5	-0,576800
21,317000	0,5	-0,566700
21,325333	0,5	-0,560400
21,333667	0,5	-0,547950
21,342000	0,5	-0,531400
21,350333	0,5	-0,511400
21,358667	0,5	-0,489900
21,367000	0,5	-0,463350
21,375333	0,5	-0,437150
21,383667	0,5	-0,397750
21,392000	0,5	-0,364850
21,400333	0,5	-0,350650
21,408667	0,5	-0,355500
21,417000	0,5	-0,365250
21,425333	0,5	-0,377300
21,433667	0,5	-0,385600
21,442000	0,5	-0,397200
21,450333	0,5	-0,391900
21,458667	0,5	-0,379250
21,467000	0,5	-0,375500
21,475333	0,5	-0,364250
21,483667	0,5	-0,360900
21,492000	0,5	-0,354700
21,500333	0,5	-0,353800
21,508667	0,5	-0,344450
21,517000	0,5	-0,346700
21,525333	0,5	-0,336200
21,533667	0,5	-0,305400
21,542000	0,5	-0,290850
21,550333	0,5	-0,288450
21,558667	0,5	-0,280700
21,567000	0,5	-0,280500
21,575333	0,5	-0,267800
21,583667	0,5	-0,266200
21,592000	0,5	-0,259100
21,600333	0,5	-0,240200
21,608667	0,5	-0,230350
21,617000	0,5	-0,212150
21,625333	0,5	-0,201350
21,633667	0,5	-0,191150
21,642000	0,5	-0,176700
21,650333	0,5	-0,157700
21,658667	0,5	-0,150250
21,667000	0,5	-0,136250
21,675333	0,5	-0,109000
21,683667	0,5	-0,077150
21,692000	0,5	-0,064800
21,700333	0,5	-0,056450
21,708667	0,5	-0,046100
21,717000	0,5	-0,035600
21,725333	0,5	-0,028050
21,733667	0,5	-0,021900
21,742000	0,5	-0,009650
21,750333	0,5	0,008500
21,758667	0,5	0,022200
21,767000	0,5	0,037450
21,775333	0,5	0,061150
21,783667	0,5	0,072750
21,792000	0,5	0,092550
21,800333	0,5	0,110150
21,808667	0,5	0,130400
21,817000	0,5	0,145350
21,825333	0,5	0,179850
21,833667	0,5	0,205150
21,842000	0,5	0,215200
21,850333	0,5	0,238050
21,858667	0,5	0,257850
21,867000	0,5	0,276100
21,875333	0,5	0,291300
21,883667	0,5	0,313700
21,892000	0,5	0,341600
21,900333	0,5	0,374600
21,908667	0,5	0,405750
21,917000	0,5	0,434700
21,925333	0,5	0,467300
21,933667	0,5	0,499150
21,942000	0,5	0,524300
21,950333	0,5	0,550950
21,958667	0,5	0,570550
21,967000	0,5	0,606200
21,975333	0,5	0,638700
21,983667	0,5	0,652200
21,992000	0,5	0,665900
22,000333	0,5	0,694150
22,008667	0,5	0,701800
22,017000	0,5	0,716100
22,025333	0,5	0,726600
22,033667	0,5	0,753500
22,042000	0,5	0,780100
22,050333	0,5	0,808800
22,058667	0,5	0,828700
22,067000	0,5	0,856950
22,075333	0,5	0,889500
22,083667	0,5	0,918700
22,092000	0,5	0,950050
22,100333	0,5	0,975500
22,108667	0,5	1,009650
22,117000	0,5	1,045350
22,125333	0,5	1,079900
22,133667	0,5	1,098800
22,142000	0,5	1,145050
22,150333	0,5	1,169900
22,158667	0,5	1,201650
22,167000	0,5	1,230350
22,175333	0,5	1,252500
22,183667	0,5	1,300400
22,192000	0,5	1,328850
22,200333	0,5	1,363200
22,208667	0,5	1,399150
22,217000	0,5	1,438650
22,225333	0,5	1,474100
22,233667	0,5	1,520050
22,242000	0,5	1,559600
22,250333	0,5	1,603500
22,258667	0,5	1,642500
22,267000	0,5	1,689050
22,275333	0,5	1,727350
22,283667	0,5	1,787100
22,292000	0,5	1,832650
22,300333	0,5	1,875750
22,308667	0,5	1,909100
22,317000	0,5	1,939750
22,325333	0,5	1,981300
22,333667	0,5	2,027750
22,342000	0,5	2,072750
22,350333	0,5	2,115300
22,358667	0,5	2,164450
22,367000	0,5	2,216450
22,375333	0,5	2,268650
22,383667	0,5	2,319350
22,392000	0,5	2,378250
22,400333	0,5	2,430600
22,408667	0,5	2,463800
22,417000	0,5	2,521600
22,425333	0,5	2,590200
22,433667	0,5	2,664000
22,442000	0,5	2,723500
22,450333	0,5	2,780150
22,458667	0,5	2,835200
22,467000	0,5	2,882200
22,475333	0,5	2,944800
22,483667	0,5	3,009750
22,492000	0,5	3,071250
22,500333	0,5	3,134050
22,508667	0,5	3,197050
22,517000	0,5	3,258600
22,525333	0,5	3,320050
22,533667	0,5	3,382900
22,542000	0,5	3,436950
22,550333	0,5	3,499950
22,558667	0,5	3,532150
22,567000	0,5	3,615300
22,575333	0,5	3,692300
22,583667	0,5	3,761450
22,592000	0,5	3,813100
22,600333	0,5	3,865050
22,608667	0,5	3,901250
22,617000	0,5	3,940350
22,625333	0,5	3,989400
22,633667	0,5	4,031450
22,642000	0,5	4,060850
22,650333	0,5	4,089400
22,658667	0,5	4,117000
22,667000	0,5	4,129150
22,675333	0,5	4,141900
22,683667	0,5	4,139400
22,692000	0,5	4,140450
22,700333	0,5	4,078200
22,708667	0,5	4,064250
22,717000	0,5	4,048250
22,725333	0,5	4,030850
22,733667	0,5	3,979650
22,742000	0,5	3,910850
22,750333	0,5	3,834700
22,758667	0,5	3,744700
22,767000	0,5	3,662000
22,775333	0,5	3,573900
22,783667	0,5	3,483600
22,792000	0,5	3,387100
22,800333	0,5	3,284400
22,808667	0,5	3,183000
22,817000	0,5	3,079450
22,825333	0,5	2,975200
22,833667	0,5	2,863800
22,842000	0,5	2,747650
22,850333	0,5	2,577750
22,858667	0,5	2,455150
22,867000	0,5	2,352450
22,875333	0,5	2,209200
22,883667	0,5	2,055000
22,892000	0,5	1,892950
22,900333	0,5	1,741550
22,908667	0,5	1,579150
22,917000	0,5	1,421900
22,925333	0,5	1,270050
22,933667	0,5	1,123850
22,942000	0,5	0,977800
22,950333	0,5	0,840400
22,958667	0,5	0,707450
22,967000	0,5	0,576700
22,975333	0,5	0,442050
22,983667	0,5	0,321800
22,992000	0,5	0,219500
23,000333	0,5	0,081950
23,008667	0,5	-0,029450
23,017000	0,5	-0,176600
23,025333	0,5	-0,297100
23,033667	0,5	-0,405300
23,042000	0,5	-0,507900
23,050333	0,5	-0,592550
23,058667	0,5	-0,695950
23,067000	0,5	-0,783550
23,075333	0,5	-0,863700
23,083667	0,5	-0,936350
23,092000	0,5	-1,000050
23,100333	0,5	-1,068600
23,108667	0,5	-1,129150
23,117000	0,5	-1,188600
23,125333	0,5	-1,241600
23,133667	0,5	-1,299850
23,142000	0,5	-1,342350
23,150333	0,5	-1,377550
23,158667	0,5	-1,433750
23,167000	0,5	-1,520900
23,175333	0,5	-1,567350
23,183667	0,5	-1,605700
23,192000	0,5	-1,634900
23,200333	0,5	-1,661900
23,208667	0,5	-1,695200
23,217000	0,5	-1,713350
23,225333	0,5	-1,727550
23,233667	0,5	-1,750050
23,242000	0,5	-1,755400
23,250333	0,5	-1,767300
23,258667	0,5	-1,773850
23,267000	0,5	-1,777900
23,275333	0,5	-1,788650
23,283667	0,5	-1,781800
23,292000	0,5	-1,796550
23,300333	0,5	-1,807350
23,308667	0,5	-1,824200
23,317000	0,5	-1,841250
23,325333	0,5	-1,855150
23,333667	0,5	-1,853250
23,342000	0,5	-1,849950
23,350333	0,5	-1,847500
23,358667	0,5	-1,854950
23,367000	0,5	-1,847700
23,375333	0,5	-1,843450
23,383667	0,5	-1,830400
23,392000	0,5	-1,819550
23,400333	0,5	-1,803850
23,408667	0,5	-1,791800
23,417000	0,5	-1,778350
23,425333	0,5	-1,763250
23,433667	0,5	-1,746500
23,442000	0,5	-1,734550
23,450333	0,5	-1,726450
23,458667	0,5	-1,729400
23,467000	0,5	-1,727450
23,475333	0,5	-1,720350
23,483667	0,5	-1,713850
23,492000	0,5	-1,703050
23,500333	0,5	-1,695200
23,508667	0,5	-1,686100
23,517000	0,5	-1,679200
23,525333	0,5	-1,665750
23,533667	0,5	-1,656050
23,542000	0,5	-1,644700
23,550333	0,5	-1,630950
23,558667	0,5	-1,614750
23,567000	0,5	-1,596200
23,575333	0,5	-1,583650
23,583667	0,5	-1,570050
23,592000	0,5	-1,553400
23,600333	0,5	-1,539700
23,608667	0,5	-1,532000
23,617000	0,5	-1,519750
23,625333	0,5	-1,506850
23,633667	0,5	-1,495650
23,642000	0,5	-1,485850
23,650333	0,5	-1,475750
23,658667	0,5	-1,458250
23,667000	0,5	-1,447550
23,675333	0,5	-1,430800
23,683667	0,5	-1,419500
23,692000	0,5	-1,406350
23,700333	0,5	-1,390850
23,708667	0,5	-1,380350
23,717000	0,5	-1,366250
23,725333	0,5	-1,355800
23,733667	0,5	-1,346300
23,742000	0,5	-1,340950
23,750333	0,5	-1,324150
23,758667	0,5	-1,303750
23,767000	0,5	-1,294450
23,775333	0,5	-1,280700
23,783667	0,5	-1,271850
23,792000	0,5	-1,264600
23,800333	0,5	-1,250350
23,808667	0,5	-1,239800
23,817000	0,5	-1,211350
23,825333	0,5	-1,201700
23,833667	0,5	-1,180300
23,842000	0,5	-1,160950
23,850333	0,5	-1,140100
23,858667	0,5	-1,127500
23,867000	0,5	-1,112550
23,875333	0,5	-1,109650
23,883667	0,5	-1,088450
23,892000	0,5	-1,108650
23,900333	0,5	-1,065850
23,908667	0,5	-1,046750
23,917000	0,5	-1,040200
23,925333	0,5	-1,032150
23,933667	0,5	-1,041950
23,942000	0,5	-1,028300
23,950333	0,5	-1,014000
23,958667	0,5	-0,997450
23,967000	0,5	-0,982500
23,975333	0,5	-0,960650
23,983667	0,5	-0,948900
23,992000	0,5	-0,930050
24,000333	0,5	-0,921050
24,008667	0,5	-0,900550
24,017000	0,5	-0,889050
24,025333	0,5	-0,874850
24,033667	0,5	-0,865250
24,042000	0,5	-0,862300
24,050333	0,5	-0,825700
24,058667	0,5	-0,807800
24,067000	0,5	-0,801600
24,075333	0,5	-0,785650
24,083667	0,5	-0,805250
24,092000	0,5	-0,780400
24,100333	0,5	-0,767650
24,108667	0,5	-0,750050
24,117000	0,5	-0,741000
24,125333	0,5	-0,726550
24,133667	0,5	-0,715950
24,142000	0,5	-0,699200
24,150333	0,5	-0,686300
24,158667	0,5	-0,678950
24,167000	0,5	-0,671300
24,175333	0,5	-0,660000
24,183667	0,5	-0,646550
24,192000	0,5	-0,660800
24,200333	0,5	-0,614850
24,208667	0,5	-0,602550
24,217000	0,5	-0,592000
24,225333	0,5	-0,594200
24,233667	0,5	-0,603550
24,242000	0,5	-0,581750
24,250333	0,5	-0,557500
24,258667	0,5	-0,553400
24,267000	0,5	-0,535000
24,275333	0,5	-0,524500
24,283667	0,5	-0,507250
24,292000	0,5	-0,505700
24,300333	0,5	-0,491000
24,308667	0,5	-0,484400
24,317000	0,5	-0,487250
24,325333	0,5	-0,462100
24,333667	0,5	-0,460950
24,342000	0,5	-0,448700
24,350333	0,5	-0,431950
24,358667	0,5	-0,424300
24,367000	0,5	-0,430050
24,375333	0,5	-0,435900
24,383667	0,5	-0,444100
24,392000	0,5	-0,419550
24,400333	0,5	-0,409700
24,408667	0,5	-0,391100
24,417000	0,5	-0,388200
24,425333	0,5	-0,372100
24,433667	0,5	-0,368450
24,442000	0,5	-0,349400
24,450333	0,5	-0,342400
24,458667	0,5	-0,336050
24,467000	0,5	-0,322750
24,475333	0,5	-0,311300
24,483667	0,5	-0,325550
24,492000	0,5	-0,302400
24,500333	0,5	-0,294050
24,508667	0,5	-0,287600
24,517000	0,5	-0,293150
24,525333	0,5	-0,302400
24,533667	0,5	-0,297650
24,542000	0,5	-0,292700
24,550333	0,5	-0,282150
24,558667	0,5	-0,279900
24,567000	0,5	-0,266900
24,575333	0,5	-0,261150
24,583667	0,5	-0,253400
24,592000	0,5	-0,252600
24,600333	0,5	-0,239300
24,608667	0,5	-0,233250
24,617000	0,5	-0,218250
24,625333	0,5	-0,216550
24,633667	0,5	-0,216800
24,642000	0,5	-0,202700
24,650333	0,5	-0,192750
24,658667	0,5	-0,193400
24,667000	0,5	-0,197200
24,675333	0,5	-0,205550
24,683667	0,5	-0,204850
24,692000	0,5	-0,192000
24,700333	0,5	-0,183550
24,708667	0,5	-0,177750
24,717000	0,5	-0,175300
24,725333	0,5	-0,167300
24,733667	0,5	-0,164150
24,742000	0,5	-0,158150
24,750333	0,5	-0,159700
24,758667	0,5	-0,153650
24,767000	0,5	-0,144600
24,775333	0,5	-0,151900
24,783667	0,5	-0,147000
24,792000	0,5	-0,134350
24,800333	0,5	-0,134350
24,808667	0,5	-0,129500
24,817000	0,5	-0,137900
24,825333	0,5	-0,135350
24,833667	0,5	-0,131550
24,842000	0,5	-0,123000
24,850333	0,5	-0,121350
24,858667	0,5	-0,112900
24,867000	0,5	-0,109700
24,875333	0,5	-0,108550
24,883667	0,5	-0,101700
24,892000	0,5	-0,099000
24,900333	0,5	-0,096450
24,908667	0,5	-0,095700
24,917000	0,5	-0,091400
24,925333	0,5	-0,102100
24,933667	0,5	-0,092600
24,942000	0,5	-0,085600
24,950333	0,5	-0,081850
24,958667	0,5	-0,085150
24,967000	0,5	-0,091600
24,975333	0,5	-0,093200
24,983667	0,5	-0,086200
24,992000	0,5	-0,085700
25,000333	0,5	-0,080700
25,008667	0,5	-0,077450
25,017000	0,5	-0,072400
25,025333	0,5	-0,068050
25,033667	0,5	-0,065500
25,042000	0,5	-0,064900
25,050333	0,5	-0,061900
25,058667	0,5	-0,056850
25,067000	0,5	-0,055700
25,075333	0,5	-0,061400
25,083667	0,5	-0,055750
25,092000	0,5	-0,052800
25,100333	0,5	-0,052400
25,108667	0,5	-0,056600
25,117000	0,5	-0,061900
25,125333	0,5	-0,057350
25,133667	0,5	-0,057450
25,142000	0,5	-0,055250
25,150333	0,5	-0,056700
25,158667	0,5	-0,054900
25,167000	0,5	-0,055450
25,175333	0,5	-0,053200
25,183667	0,5	-0,050500
25,192000	0,5	-0,047550
25,200333	0,5	-0,047450
25,208667	0,5	-0,046250
25,217000	0,5	-0,044500
25,225333	0,5	-0,045200
25,233667	0,5	-0,041250
25,242000	0,5	-0,038950
25,250333	0,5	-0,042300
25,258667	0,5	-0,043000
25,267000	0,5	-0,047050
25,275333	0,5	-0,044900
25,283667	0,5	-0,045400
25,292000	0,5	-0,043700
25,300333	0,5	-0,042700
25,308667	0,5	-0,043550
25,317000	0,5	-0,042100
25,325333	0,5	-0,042650
25,333667	0,5	-0,042400
25,342000	0,5	-0,042550
25,350333	0,5	-0,044250
25,358667	0,5	-0,043750
25,367000	0,5	-0,041500
25,375333	0,5	-0,041950
25,383667	0,5	-0,039700
25,392000	0,5	-0,038850
25,400333	0,5	-0,041650
25,408667	0,5	-0,040650
25,417000	0,5	-0,041050
25,425333	0,5	-0,039450
25,433667	0,5	-0,039150
25,442000	0,5	-0,041850
25,450333	0,5	-0,040600
25,458667	0,5	-0,040300
25,467000	0,5	-0,042400
25,475333	0,5	-0,042500
25,483667	0,5	-0,043900
25,492000	0,5	-0,043050
25,500333	0,5	-0,045250
25,508667	0,5	-0,044250
25,517000	0,5	-0,046250
25,525333	0,5	-0,047050
25,533667	0,5	-0,046000
25,542000	0,5	-0,044400
25,550333	0,5	-0,045350
25,558667	0,5	-0,044600
25,567000	0,5	-0,042400
25,575333	0,5	-0,043300
25,583667	0,5	-0,043250
25,592000	0,5	-0,043300
25,600333	0,5	-0,041900
25,608667	0,5	-0,042150
25,617000	0,5	-0,043350
25,625333	0,5	-0,045550
25,633667	0,5	-0,047000
25,642000	0,5	-0,046100
25,650333	0,5	-0,047000
25,658667	0,5	-0,047550
25,667000	0,5	-0,049800
25,675333	0,5	-0,048750
25,683667	0,5	-0,049900
25,692000	0,5	-0,049600
25,700333	0,5	-0,047350
25,708667	0,5	-0,044700
25,717000	0,5	-0,043000
25,725333	0,5	-0,044350
25,733667	0,5	-0,041150
25,742000	0,5	-0,045250
25,750333	0,5	-0,043350
25,758667	0,5	-0,043150
25,767000	0,5	-0,042200
25,775333	0,5	-0,045450
25,783667	0,5	-0,043950
25,792000	0,5	-0,047150
25,800333	0,5	-0,047100
25,808667	0,5	-0,045100
25,817000	0,5	-0,045050
25,825333	0,5	-0,052000
25,833667	0,5	-0,048200
25,842000	0,5	-0,047100
25,850333	0,5	-0,042750
25,858667	0,5	-0,042850
25,867000	0,5	-0,041800
25,875333	0,5	-0,044600
25,883667	0,5	-0,041250
25,892000	0,5	-0,042300
25,900333	0,5	-0,041250
25,908667	0,5	-0,044000
25,917000	0,5	-0,045100
25,925333	0,5	-0,044900
25,933667	0,5	-0,043000
25,942000	0,5	-0,043250
25,950333	0,5	-0,044850
25,958667	0,5	-0,038750
25,967000	0,5	-0,043750
25,975333	0,5	-0,046600
25,983667	0,5	-0,046900
25,992000	0,5	-0,043850
26,000333	0,5	-0,036550
