File Path	chrom://chromeleon01/ikbm_chromeleon/2022/ICS-5000/ED1/Esteban/20220612_Cell_7_4_eg.seq/862.smp/ED_1.channel/ED_1.chm
Channel	ED_1

Injection Information:
Data Vault	ikbm_chromeleon
Injection	4_24h-NT_3
Injection Number	44
Position	RE5
Comment	
Processing Method	Stop sequence after Cell Death
Instrument Method	ICS5000_PA200_FullNative_Ox_26min_ED1
Type	Unknown
Status	Finished
Injection Date	13.06.2022
Injection Time	12:32:06
Injection Volume (µl)	5,0
Dilution Factor	1,0000
Weight	1,0000

Chromatogram Data Information:
Time Min. (min)	0,000333
Time Max. (min)	26,000333
Data Points	3121
Detector	EDet1
Generating Data System	Chromeleon 7.2.9.11323
Exporting Data System	Chromeleon 7.2.9.0
Operator	Instrument Controller
Signal Quantity	
Signal Unit	nC
Signal Min.	-1,627900
Signal Max.	2 611,319189
Channel	ED_1
Driver Name	DC-5000
Channel Type	Evaluation
Min. Step (s)	0,5
Max. Step (s)	0,5
Average Step (s)	0,5

Signal Parameter Information:
Signal Info	

Chromatogram Data:
Time (min)	Step (s)	Value (nC)
0,000333	n.a.	-0,060200
0,008667	0,5	-0,049950
0,017000	0,5	-0,044300
0,025333	0,5	-0,041000
0,033667	0,5	-0,028300
0,042000	0,5	-0,029850
0,050333	0,5	-0,021000
0,058667	0,5	-0,036100
0,067000	0,5	-0,014850
0,075333	0,5	-0,019400
0,083667	0,5	-0,036550
0,092000	0,5	-0,034100
0,100333	0,5	-0,021000
0,108667	0,5	-0,006900
0,117000	0,5	0,003650
0,125333	0,5	0,000500
0,133667	0,5	0,006250
0,142000	0,5	-0,006050
0,150333	0,5	-0,002150
0,158667	0,5	-0,005200
0,167000	0,5	-0,009500
0,175333	0,5	-0,014350
0,183667	0,5	-0,016800
0,192000	0,5	-0,013800
0,200333	0,5	-0,032300
0,208667	0,5	-0,027700
0,217000	0,5	-0,012950
0,225333	0,5	-0,018200
0,233667	0,5	-0,036150
0,242000	0,5	-0,032650
0,250333	0,5	-0,024900
0,258667	0,5	-0,002500
0,267000	0,5	0,001150
0,275333	0,5	0,001150
0,283667	0,5	-0,004950
0,292000	0,5	0,029600
0,300333	0,5	0,030550
0,308667	0,5	0,007150
0,317000	0,5	-0,015900
0,325333	0,5	-0,025300
0,333667	0,5	-0,028800
0,342000	0,5	-0,028750
0,350333	0,5	-0,037850
0,358667	0,5	-0,032150
0,367000	0,5	-0,028700
0,375333	0,5	-0,036450
0,383667	0,5	-0,039900
0,392000	0,5	-0,038550
0,400333	0,5	-0,024500
0,408667	0,5	-0,010650
0,417000	0,5	-0,003100
0,425333	0,5	-0,017750
0,433667	0,5	-0,012900
0,442000	0,5	-0,020100
0,450333	0,5	-0,014900
0,458667	0,5	-0,020800
0,467000	0,5	-0,021500
0,475333	0,5	-0,029000
0,483667	0,5	-0,025300
0,492000	0,5	-0,026000
0,500333	0,5	-0,035950
0,508667	0,5	-0,013000
0,517000	0,5	-0,016950
0,525333	0,5	-0,033700
0,533667	0,5	-0,034150
0,542000	0,5	-0,033800
0,550333	0,5	-0,015450
0,558667	0,5	-0,005700
0,567000	0,5	-0,012000
0,575333	0,5	-0,004000
0,583667	0,5	-0,012600
0,592000	0,5	-0,005500
0,600333	0,5	-0,014150
0,608667	0,5	-0,004500
0,617000	0,5	-0,018300
0,625333	0,5	-0,011000
0,633667	0,5	-0,011450
0,642000	0,5	-0,016400
0,650333	0,5	-0,027700
0,658667	0,5	0,001700
0,667000	0,5	-0,017750
0,675333	0,5	-0,022700
0,683667	0,5	-0,022250
0,692000	0,5	-0,014350
0,700333	0,5	0,009400
0,708667	0,5	0,007850
0,717000	0,5	0,001200
0,725333	0,5	0,002150
0,733667	0,5	0,007100
0,742000	0,5	0,002550
0,750333	0,5	0,007650
0,758667	0,5	0,001450
0,767000	0,5	0,001500
0,775333	0,5	0,000000
0,783667	0,5	0,003650
0,792000	0,5	-0,011200
0,800333	0,5	-0,009750
0,808667	0,5	0,009500
0,817000	0,5	-0,003750
0,825333	0,5	-0,004600
0,833667	0,5	-0,001850
0,842000	0,5	0,003150
0,850333	0,5	0,026600
0,858667	0,5	0,020350
0,867000	0,5	0,020850
0,875333	0,5	0,016450
0,883667	0,5	0,023850
0,892000	0,5	0,028100
0,900333	0,5	0,023300
0,908667	0,5	0,019650
0,917000	0,5	0,018100
0,925333	0,5	0,022000
0,933667	0,5	0,020950
0,942000	0,5	0,018000
0,950333	0,5	0,014200
0,958667	0,5	0,028250
0,967000	0,5	0,008850
0,975333	0,5	0,014000
0,983667	0,5	0,019600
0,992000	0,5	0,033600
1,000333	0,5	0,048150
1,008667	0,5	0,047400
1,017000	0,5	0,038350
1,025333	0,5	0,042450
1,033667	0,5	0,038500
1,042000	0,5	0,040700
1,050333	0,5	0,046950
1,058667	0,5	0,043350
1,067000	0,5	0,042850
1,075333	0,5	0,046000
1,083667	0,5	0,052650
1,092000	0,5	0,040900
1,100333	0,5	0,051600
1,108667	0,5	0,046900
1,117000	0,5	0,037350
1,125333	0,5	0,034600
1,133667	0,5	0,042750
1,142000	0,5	0,056650
1,150333	0,5	0,071450
1,158667	0,5	0,058950
1,167000	0,5	0,047550
1,175333	0,5	0,060500
1,183667	0,5	0,063600
1,192000	0,5	0,055150
1,200333	0,5	0,056450
1,208667	0,5	0,054200
1,217000	0,5	0,050850
1,225333	0,5	0,050900
1,233667	0,5	0,042400
1,242000	0,5	0,043100
1,250333	0,5	0,053250
1,258667	0,5	0,043250
1,267000	0,5	0,039550
1,275333	0,5	0,041050
1,283667	0,5	0,045450
1,292000	0,5	0,055550
1,300333	0,5	0,058000
1,308667	0,5	0,062250
1,317000	0,5	0,048750
1,325333	0,5	0,051300
1,333667	0,5	0,043400
1,342000	0,5	0,043500
1,350333	0,5	0,035350
1,358667	0,5	0,034650
1,367000	0,5	0,034800
1,375333	0,5	0,031000
1,383667	0,5	0,022550
1,392000	0,5	0,025100
1,400333	0,5	0,022050
1,408667	0,5	0,010100
1,417000	0,5	0,004350
1,425333	0,5	0,004000
1,433667	0,5	0,010700
1,442000	0,5	0,016500
1,450333	0,5	0,015350
1,458667	0,5	0,011950
1,467000	0,5	0,011300
1,475333	0,5	0,000450
1,483667	0,5	-0,010450
1,492000	0,5	-0,017400
1,500333	0,5	-0,015650
1,508667	0,5	-0,028200
1,517000	0,5	-0,031800
1,525333	0,5	-0,037650
1,533667	0,5	-0,041200
1,542000	0,5	-0,031350
1,550333	0,5	-0,012850
1,558667	0,5	0,024500
1,567000	0,5	0,205500
1,575333	0,5	1,295500
1,583667	0,5	8,440100
1,592000	0,5	41,855551
1,600333	0,5	165,067002
1,608667	0,5	535,543308
1,617000	0,5	1 301,652969
1,625333	0,5	2 150,581882
1,633667	0,5	2 570,268938
1,642000	0,5	2 611,319189
1,650333	0,5	2 418,889086
1,658667	0,5	1 968,011229
1,667000	0,5	1 386,010821
1,675333	0,5	913,346664
1,683667	0,5	627,740409
1,692000	0,5	458,927807
1,700333	0,5	357,564905
1,708667	0,5	290,480654
1,717000	0,5	243,029504
1,725333	0,5	206,237703
1,733667	0,5	177,165203
1,742000	0,5	155,743402
1,750333	0,5	143,563952
1,758667	0,5	141,182952
1,767000	0,5	145,850752
1,775333	0,5	153,214602
1,783667	0,5	158,847402
1,792000	0,5	158,699102
1,800333	0,5	151,526702
1,808667	0,5	140,273352
1,817000	0,5	128,856052
1,825333	0,5	119,137902
1,833667	0,5	111,726552
1,842000	0,5	107,002202
1,850333	0,5	104,885802
1,858667	0,5	104,987752
1,867000	0,5	105,568002
1,875333	0,5	103,856852
1,883667	0,5	99,308151
1,892000	0,5	94,473751
1,900333	0,5	92,393251
1,908667	0,5	94,859901
1,917000	0,5	103,788952
1,925333	0,5	120,982002
1,933667	0,5	146,348702
1,942000	0,5	175,365653
1,950333	0,5	198,283503
1,958667	0,5	204,063303
1,967000	0,5	189,739553
1,975333	0,5	163,119602
1,983667	0,5	135,584252
1,992000	0,5	114,820502
2,000333	0,5	102,056502
2,008667	0,5	94,384801
2,017000	0,5	90,101351
2,025333	0,5	89,224101
2,033667	0,5	88,351901
2,042000	0,5	83,786001
2,050333	0,5	76,872901
2,058667	0,5	69,994201
2,067000	0,5	63,511601
2,075333	0,5	57,831101
2,083667	0,5	53,230201
2,092000	0,5	49,524251
2,100333	0,5	46,729751
2,108667	0,5	44,540051
2,117000	0,5	42,201151
2,125333	0,5	39,547501
2,133667	0,5	37,086451
2,142000	0,5	35,143851
2,150333	0,5	33,718001
2,158667	0,5	32,797050
2,167000	0,5	32,270100
2,175333	0,5	31,786500
2,183667	0,5	30,939750
2,192000	0,5	29,679000
2,200333	0,5	28,355550
2,208667	0,5	27,244450
2,217000	0,5	26,506250
2,225333	0,5	26,263100
2,233667	0,5	26,949550
2,242000	0,5	28,855250
2,250333	0,5	29,656900
2,258667	0,5	28,517000
2,267000	0,5	27,492850
2,275333	0,5	27,080350
2,283667	0,5	26,776400
2,292000	0,5	26,392550
2,300333	0,5	26,128900
2,308667	0,5	26,068000
2,317000	0,5	26,165150
2,325333	0,5	26,340750
2,333667	0,5	26,609800
2,342000	0,5	27,158800
2,350333	0,5	28,256700
2,358667	0,5	30,038700
2,367000	0,5	32,212800
2,375333	0,5	34,197851
2,383667	0,5	35,481351
2,392000	0,5	35,901951
2,400333	0,5	35,687501
2,408667	0,5	35,398901
2,417000	0,5	35,706401
2,425333	0,5	37,232301
2,433667	0,5	40,255801
2,442000	0,5	45,419651
2,450333	0,5	54,845851
2,458667	0,5	71,964851
2,467000	0,5	97,475601
2,475333	0,5	123,903252
2,483667	0,5	138,234702
2,492000	0,5	133,712902
2,500333	0,5	115,169902
2,508667	0,5	92,695601
2,517000	0,5	73,648451
2,525333	0,5	60,641751
2,533667	0,5	53,602601
2,542000	0,5	51,531451
2,550333	0,5	52,926451
2,558667	0,5	55,765501
2,567000	0,5	57,957101
2,575333	0,5	57,860551
2,583667	0,5	54,696901
2,592000	0,5	48,971801
2,600333	0,5	42,157301
2,608667	0,5	35,748301
2,617000	0,5	30,654000
2,625333	0,5	27,006650
2,633667	0,5	24,551800
2,642000	0,5	22,906350
2,650333	0,5	21,777850
2,658667	0,5	20,944200
2,667000	0,5	20,327950
2,675333	0,5	19,908550
2,683667	0,5	19,739950
2,692000	0,5	19,887650
2,700333	0,5	20,295700
2,708667	0,5	20,765850
2,717000	0,5	20,954900
2,725333	0,5	20,710500
2,733667	0,5	19,973450
2,742000	0,5	19,007250
2,750333	0,5	18,052900
2,758667	0,5	17,282900
2,767000	0,5	16,745750
2,775333	0,5	16,443250
2,783667	0,5	16,409950
2,792000	0,5	16,772550
2,800333	0,5	17,696500
2,808667	0,5	19,380750
2,817000	0,5	21,629550
2,825333	0,5	23,712750
2,833667	0,5	24,700100
2,842000	0,5	24,130600
2,850333	0,5	22,262100
2,858667	0,5	19,797950
2,867000	0,5	17,482550
2,875333	0,5	15,710700
2,883667	0,5	14,474300
2,892000	0,5	13,691350
2,900333	0,5	13,198750
2,908667	0,5	12,881550
2,917000	0,5	12,645900
2,925333	0,5	12,386800
2,933667	0,5	12,110250
2,942000	0,5	11,799800
2,950333	0,5	11,502300
2,958667	0,5	11,206450
2,967000	0,5	10,944250
2,975333	0,5	10,700950
2,983667	0,5	10,506300
2,992000	0,5	10,364300
3,000333	0,5	10,284750
3,008667	0,5	10,258150
3,017000	0,5	10,254650
3,025333	0,5	10,218100
3,033667	0,5	10,098600
3,042000	0,5	9,928950
3,050333	0,5	9,724000
3,058667	0,5	9,533950
3,067000	0,5	9,411100
3,075333	0,5	9,396550
3,083667	0,5	9,529950
3,092000	0,5	9,816700
3,100333	0,5	10,176300
3,108667	0,5	10,518700
3,117000	0,5	10,722400
3,125333	0,5	10,731950
3,133667	0,5	10,549850
3,142000	0,5	10,260100
3,150333	0,5	9,929350
3,158667	0,5	9,649850
3,167000	0,5	9,502700
3,175333	0,5	9,546800
3,183667	0,5	9,736500
3,192000	0,5	9,997400
3,200333	0,5	10,233800
3,208667	0,5	10,412050
3,217000	0,5	10,480750
3,225333	0,5	10,388250
3,233667	0,5	10,121300
3,242000	0,5	9,709900
3,250333	0,5	9,228500
3,258667	0,5	8,749850
3,267000	0,5	8,335200
3,275333	0,5	7,986000
3,283667	0,5	7,713950
3,292000	0,5	7,491200
3,300333	0,5	7,315500
3,308667	0,5	7,170550
3,317000	0,5	7,070450
3,325333	0,5	6,969500
3,333667	0,5	6,904550
3,342000	0,5	6,874450
3,350333	0,5	6,877550
3,358667	0,5	6,910900
3,367000	0,5	6,952450
3,375333	0,5	6,983950
3,383667	0,5	7,009450
3,392000	0,5	7,028750
3,400333	0,5	7,040400
3,408667	0,5	7,043000
3,417000	0,5	7,037700
3,425333	0,5	7,024650
3,433667	0,5	7,003000
3,442000	0,5	6,974300
3,450333	0,5	6,926850
3,458667	0,5	6,905550
3,467000	0,5	6,876250
3,475333	0,5	6,846750
3,483667	0,5	6,834850
3,492000	0,5	6,856400
3,500333	0,5	6,898000
3,508667	0,5	6,955750
3,517000	0,5	7,028100
3,525333	0,5	7,155550
3,533667	0,5	7,349000
3,542000	0,5	7,656500
3,550333	0,5	8,100650
3,558667	0,5	8,705500
3,567000	0,5	9,442400
3,575333	0,5	10,305900
3,583667	0,5	11,295650
3,592000	0,5	12,500700
3,600333	0,5	14,097550
3,608667	0,5	16,398350
3,617000	0,5	19,626700
3,625333	0,5	23,870500
3,633667	0,5	28,862450
3,642000	0,5	33,885901
3,650333	0,5	38,001551
3,658667	0,5	40,257701
3,667000	0,5	40,168401
3,675333	0,5	37,800301
3,683667	0,5	33,738251
3,692000	0,5	28,769800
3,700333	0,5	23,728600
3,708667	0,5	19,203300
3,717000	0,5	15,538450
3,725333	0,5	12,799400
3,733667	0,5	10,894200
3,742000	0,5	9,657000
3,750333	0,5	8,877200
3,758667	0,5	8,432150
3,767000	0,5	8,135300
3,775333	0,5	7,941200
3,783667	0,5	7,784200
3,792000	0,5	7,637400
3,800333	0,5	7,502300
3,808667	0,5	7,368250
3,817000	0,5	7,247550
3,825333	0,5	7,175700
3,833667	0,5	7,126700
3,842000	0,5	7,104200
3,850333	0,5	7,070450
3,858667	0,5	7,011600
3,867000	0,5	6,902000
3,875333	0,5	6,752000
3,883667	0,5	6,566850
3,892000	0,5	6,368800
3,900333	0,5	6,157150
3,908667	0,5	5,983550
3,917000	0,5	5,817450
3,925333	0,5	5,704900
3,933667	0,5	5,627350
3,942000	0,5	5,596350
3,950333	0,5	5,606750
3,958667	0,5	5,620100
3,967000	0,5	5,664900
3,975333	0,5	5,717700
3,983667	0,5	5,767400
3,992000	0,5	5,789150
4,000333	0,5	5,781500
4,008667	0,5	5,730200
4,017000	0,5	5,650050
4,025333	0,5	5,551350
4,033667	0,5	5,443500
4,042000	0,5	5,338450
4,050333	0,5	5,256500
4,058667	0,5	5,179350
4,067000	0,5	5,112850
4,075333	0,5	5,072050
4,083667	0,5	5,051150
4,092000	0,5	5,046300
4,100333	0,5	5,055250
4,108667	0,5	5,062750
4,117000	0,5	5,073800
4,125333	0,5	5,092550
4,133667	0,5	5,112550
4,142000	0,5	5,139800
4,150333	0,5	5,157550
4,158667	0,5	5,177200
4,167000	0,5	5,186900
4,175333	0,5	5,194800
4,183667	0,5	5,185750
4,192000	0,5	5,177250
4,200333	0,5	5,171900
4,208667	0,5	5,157900
4,217000	0,5	5,142100
4,225333	0,5	5,138550
4,233667	0,5	5,138250
4,242000	0,5	5,149450
4,250333	0,5	5,148500
4,258667	0,5	5,142850
4,267000	0,5	5,128950
4,275333	0,5	5,120750
4,283667	0,5	5,102300
4,292000	0,5	5,061650
4,300333	0,5	4,990900
4,308667	0,5	4,878450
4,317000	0,5	4,744750
4,325333	0,5	4,593800
4,333667	0,5	4,447550
4,342000	0,5	4,310850
4,350333	0,5	4,202750
4,358667	0,5	4,083400
4,367000	0,5	3,981650
4,375333	0,5	3,894450
4,383667	0,5	3,828700
4,392000	0,5	3,769300
4,400333	0,5	3,720300
4,408667	0,5	3,668900
4,417000	0,5	3,637400
4,425333	0,5	3,601850
4,433667	0,5	3,581950
4,442000	0,5	3,563100
4,450333	0,5	3,549250
4,458667	0,5	3,548400
4,467000	0,5	3,555750
4,475333	0,5	3,573850
4,483667	0,5	3,592600
4,492000	0,5	3,635100
4,500333	0,5	3,683250
4,508667	0,5	3,718550
4,517000	0,5	3,758800
4,525333	0,5	3,810250
4,533667	0,5	3,859600
4,542000	0,5	3,915700
4,550333	0,5	3,960700
4,558667	0,5	4,027050
4,567000	0,5	4,104200
4,575333	0,5	4,204600
4,583667	0,5	4,309950
4,592000	0,5	4,428200
4,600333	0,5	4,535400
4,608667	0,5	4,625700
4,617000	0,5	4,690650
4,625333	0,5	4,715600
4,633667	0,5	4,699400
4,642000	0,5	4,668650
4,650333	0,5	4,587200
4,658667	0,5	4,477100
4,667000	0,5	4,344200
4,675333	0,5	4,203450
4,683667	0,5	4,070750
4,692000	0,5	3,928850
4,700333	0,5	3,800000
4,708667	0,5	3,684250
4,717000	0,5	3,598350
4,725333	0,5	3,530200
4,733667	0,5	3,483300
4,742000	0,5	3,448800
4,750333	0,5	3,435450
4,758667	0,5	3,436550
4,767000	0,5	3,452250
4,775333	0,5	3,470100
4,783667	0,5	3,495500
4,792000	0,5	3,525750
4,800333	0,5	3,532900
4,808667	0,5	3,531650
4,817000	0,5	3,518750
4,825333	0,5	3,494550
4,833667	0,5	3,463950
4,842000	0,5	3,410300
4,850333	0,5	3,348550
4,858667	0,5	3,294050
4,867000	0,5	3,240850
4,875333	0,5	3,197350
4,883667	0,5	3,159350
4,892000	0,5	3,128350
4,900333	0,5	3,097250
4,908667	0,5	3,082200
4,917000	0,5	3,068500
4,925333	0,5	3,054100
4,933667	0,5	3,035850
4,942000	0,5	3,040400
4,950333	0,5	3,017700
4,958667	0,5	3,013200
4,967000	0,5	3,009600
4,975333	0,5	3,023500
4,983667	0,5	3,044600
4,992000	0,5	3,066650
5,000333	0,5	3,098850
5,008667	0,5	3,155800
5,017000	0,5	3,228700
5,025333	0,5	3,317500
5,033667	0,5	3,427500
5,042000	0,5	3,543050
5,050333	0,5	3,670200
5,058667	0,5	3,785400
5,067000	0,5	3,901350
5,075333	0,5	4,000400
5,083667	0,5	4,107800
5,092000	0,5	4,219450
5,100333	0,5	4,358800
5,108667	0,5	4,570150
5,117000	0,5	4,887700
5,125333	0,5	5,360500
5,133667	0,5	6,026850
5,142000	0,5	6,884050
5,150333	0,5	7,933900
5,158667	0,5	9,110150
5,167000	0,5	10,326450
5,175333	0,5	11,444150
5,183667	0,5	12,334900
5,192000	0,5	12,883750
5,200333	0,5	13,036200
5,208667	0,5	12,793850
5,217000	0,5	12,191250
5,225333	0,5	11,330150
5,233667	0,5	10,317100
5,242000	0,5	9,233100
5,250333	0,5	8,166300
5,258667	0,5	7,197250
5,267000	0,5	6,347100
5,275333	0,5	5,644400
5,283667	0,5	5,057700
5,292000	0,5	4,589600
5,300333	0,5	4,213700
5,308667	0,5	3,934250
5,317000	0,5	3,704600
5,325333	0,5	3,529750
5,333667	0,5	3,393250
5,342000	0,5	3,283050
5,350333	0,5	3,197350
5,358667	0,5	3,124350
5,367000	0,5	3,061900
5,375333	0,5	3,014050
5,383667	0,5	2,975000
5,392000	0,5	2,928400
5,400333	0,5	2,890100
5,408667	0,5	2,862550
5,417000	0,5	2,842550
5,425333	0,5	2,825850
5,433667	0,5	2,808900
5,442000	0,5	2,785200
5,450333	0,5	2,770800
5,458667	0,5	2,756600
5,467000	0,5	2,747350
5,475333	0,5	2,736250
5,483667	0,5	2,725500
5,492000	0,5	2,718750
5,500333	0,5	2,712900
5,508667	0,5	2,704450
5,517000	0,5	2,689100
5,525333	0,5	2,678450
5,533667	0,5	2,670550
5,542000	0,5	2,652200
5,550333	0,5	2,638100
5,558667	0,5	2,632800
5,567000	0,5	2,631000
5,575333	0,5	2,630650
5,583667	0,5	2,621350
5,592000	0,5	2,621200
5,600333	0,5	2,620550
5,608667	0,5	2,624750
5,617000	0,5	2,627100
5,625333	0,5	2,634800
5,633667	0,5	2,649200
5,642000	0,5	2,668650
5,650333	0,5	2,692050
5,658667	0,5	2,721000
5,667000	0,5	2,749000
5,675333	0,5	2,804900
5,683667	0,5	2,852500
5,692000	0,5	2,913200
5,700333	0,5	2,990850
5,708667	0,5	3,090850
5,717000	0,5	3,215300
5,725333	0,5	3,360550
5,733667	0,5	3,544650
5,742000	0,5	3,774050
5,750333	0,5	4,066300
5,758667	0,5	4,430050
5,767000	0,5	4,881900
5,775333	0,5	5,440000
5,783667	0,5	6,126400
5,792000	0,5	6,941700
5,800333	0,5	7,891550
5,808667	0,5	8,921200
5,817000	0,5	9,967750
5,825333	0,5	10,940100
5,833667	0,5	11,699850
5,842000	0,5	12,152400
5,850333	0,5	12,232850
5,858667	0,5	11,930550
5,867000	0,5	11,296750
5,875333	0,5	10,396950
5,883667	0,5	9,350750
5,892000	0,5	8,269750
5,900333	0,5	7,247850
5,908667	0,5	6,334050
5,917000	0,5	5,573750
5,925333	0,5	4,965950
5,933667	0,5	4,518000
5,942000	0,5	4,201600
5,950333	0,5	3,997900
5,958667	0,5	3,867300
5,967000	0,5	3,780850
5,975333	0,5	3,725050
5,983667	0,5	3,649450
5,992000	0,5	3,575500
6,000333	0,5	3,496950
6,008667	0,5	3,428100
6,017000	0,5	3,382900
6,025333	0,5	3,357050
6,033667	0,5	3,354800
6,042000	0,5	3,386800
6,050333	0,5	3,423600
6,058667	0,5	3,458650
6,067000	0,5	3,466350
6,075333	0,5	3,444250
6,083667	0,5	3,392550
6,092000	0,5	3,310500
6,100333	0,5	3,211650
6,108667	0,5	3,096600
6,117000	0,5	2,988050
6,125333	0,5	2,879250
6,133667	0,5	2,770500
6,142000	0,5	2,680600
6,150333	0,5	2,593800
6,158667	0,5	2,525150
6,167000	0,5	2,466100
6,175333	0,5	2,410950
6,183667	0,5	2,366700
6,192000	0,5	2,323650
6,200333	0,5	2,289650
6,208667	0,5	2,256450
6,217000	0,5	2,232100
6,225333	0,5	2,209350
6,233667	0,5	2,195250
6,242000	0,5	2,180350
6,250333	0,5	2,162900
6,258667	0,5	2,156500
6,267000	0,5	2,150500
6,275333	0,5	2,144200
6,283667	0,5	2,133000
6,292000	0,5	2,128200
6,300333	0,5	2,128250
6,308667	0,5	2,132300
6,317000	0,5	2,134300
6,325333	0,5	2,137150
6,333667	0,5	2,139850
6,342000	0,5	2,150850
6,350333	0,5	2,170250
6,358667	0,5	2,197650
6,367000	0,5	2,232850
6,375333	0,5	2,283300
6,383667	0,5	2,342550
6,392000	0,5	2,407600
6,400333	0,5	2,462500
6,408667	0,5	2,516400
6,417000	0,5	2,552600
6,425333	0,5	2,558650
6,433667	0,5	2,545800
6,442000	0,5	2,516050
6,450333	0,5	2,475050
6,458667	0,5	2,431000
6,467000	0,5	2,383700
6,475333	0,5	2,334300
6,483667	0,5	2,298400
6,492000	0,5	2,271250
6,500333	0,5	2,257050
6,508667	0,5	2,253000
6,517000	0,5	2,268100
6,525333	0,5	2,298750
6,533667	0,5	2,348850
6,542000	0,5	2,415150
6,550333	0,5	2,482050
6,558667	0,5	2,558950
6,567000	0,5	2,635900
6,575333	0,5	2,694950
6,583667	0,5	2,749850
6,592000	0,5	2,800450
6,600333	0,5	2,858100
6,608667	0,5	2,910650
6,617000	0,5	2,971850
6,625333	0,5	3,054850
6,633667	0,5	3,161200
6,642000	0,5	3,308400
6,650333	0,5	3,495550
6,658667	0,5	3,748050
6,667000	0,5	4,085700
6,675333	0,5	4,573650
6,683667	0,5	5,264900
6,692000	0,5	6,261150
6,700333	0,5	7,633200
6,708667	0,5	9,485550
6,717000	0,5	11,759550
6,725333	0,5	14,367100
6,733667	0,5	17,066050
6,742000	0,5	19,548800
6,750333	0,5	21,465650
6,758667	0,5	22,513100
6,767000	0,5	22,538250
6,775333	0,5	21,571950
6,783667	0,5	19,772550
6,792000	0,5	17,413250
6,800333	0,5	14,798800
6,808667	0,5	12,211750
6,817000	0,5	9,866800
6,825333	0,5	7,884500
6,833667	0,5	6,312750
6,842000	0,5	5,126200
6,850333	0,5	4,268300
6,858667	0,5	3,675600
6,867000	0,5	3,262900
6,875333	0,5	2,983350
6,883667	0,5	2,791950
6,892000	0,5	2,664900
6,900333	0,5	2,576650
6,908667	0,5	2,507100
6,917000	0,5	2,454950
6,925333	0,5	2,410300
6,933667	0,5	2,376800
6,942000	0,5	2,340050
6,950333	0,5	2,312300
6,958667	0,5	2,283250
6,967000	0,5	2,258400
6,975333	0,5	2,232050
6,983667	0,5	2,209000
6,992000	0,5	2,181500
7,000333	0,5	2,164300
7,008667	0,5	2,148300
7,017000	0,5	2,125900
7,025333	0,5	2,113000
7,033667	0,5	2,105100
7,042000	0,5	2,107800
7,050333	0,5	2,106900
7,058667	0,5	2,106450
7,067000	0,5	2,104250
7,075333	0,5	2,107400
7,083667	0,5	2,107400
7,092000	0,5	2,109350
7,100333	0,5	2,106750
7,108667	0,5	2,107050
7,117000	0,5	2,111600
7,125333	0,5	2,109000
7,133667	0,5	2,111250
7,142000	0,5	2,115200
7,150333	0,5	2,124200
7,158667	0,5	2,133250
7,167000	0,5	2,139500
7,175333	0,5	2,152500
7,183667	0,5	2,158200
7,192000	0,5	2,159100
7,200333	0,5	2,154650
7,208667	0,5	2,132650
7,217000	0,5	2,105300
7,225333	0,5	2,074200
7,233667	0,5	2,046050
7,242000	0,5	2,015150
7,250333	0,5	1,993450
7,258667	0,5	1,977850
7,267000	0,5	1,970600
7,275333	0,5	1,974000
7,283667	0,5	1,976950
7,292000	0,5	1,987450
7,300333	0,5	2,009250
7,308667	0,5	2,018950
7,317000	0,5	2,027700
7,325333	0,5	2,035800
7,333667	0,5	2,049850
7,342000	0,5	2,071900
7,350333	0,5	2,112650
7,358667	0,5	2,175850
7,367000	0,5	2,261900
7,375333	0,5	2,358350
7,383667	0,5	2,441800
7,392000	0,5	2,493100
7,400333	0,5	2,490200
7,408667	0,5	2,442450
7,417000	0,5	2,366050
7,425333	0,5	2,269500
7,433667	0,5	2,170000
7,442000	0,5	2,088550
7,450333	0,5	2,026900
7,458667	0,5	1,981350
7,467000	0,5	1,959200
7,475333	0,5	1,957800
7,483667	0,5	1,979700
7,492000	0,5	2,030250
7,500333	0,5	2,099800
7,508667	0,5	2,204000
7,517000	0,5	2,338300
7,525333	0,5	2,508700
7,533667	0,5	2,695450
7,542000	0,5	2,883200
7,550333	0,5	3,037450
7,558667	0,5	3,150050
7,567000	0,5	3,190750
7,575333	0,5	3,151950
7,583667	0,5	3,045300
7,592000	0,5	2,893850
7,600333	0,5	2,719450
7,608667	0,5	2,546300
7,617000	0,5	2,404050
7,625333	0,5	2,299050
7,633667	0,5	2,237900
7,642000	0,5	2,217850
7,650333	0,5	2,237900
7,658667	0,5	2,300100
7,667000	0,5	2,395550
7,675333	0,5	2,500400
7,683667	0,5	2,573250
7,692000	0,5	2,583500
7,700333	0,5	2,519200
7,708667	0,5	2,411200
7,717000	0,5	2,295600
7,725333	0,5	2,202900
7,733667	0,5	2,131550
7,742000	0,5	2,094700
7,750333	0,5	2,067700
7,758667	0,5	2,057200
7,767000	0,5	2,052000
7,775333	0,5	2,055650
7,783667	0,5	2,059400
7,792000	0,5	2,072000
7,800333	0,5	2,087050
7,808667	0,5	2,122450
7,817000	0,5	2,177800
7,825333	0,5	2,266600
7,833667	0,5	2,384400
7,842000	0,5	2,540400
7,850333	0,5	2,729900
7,858667	0,5	2,945550
7,867000	0,5	3,183550
7,875333	0,5	3,426850
7,883667	0,5	3,676400
7,892000	0,5	3,938200
7,900333	0,5	4,212000
7,908667	0,5	4,524000
7,917000	0,5	4,885800
7,925333	0,5	5,324500
7,933667	0,5	5,866550
7,942000	0,5	6,527050
7,950333	0,5	7,334000
7,958667	0,5	8,299050
7,967000	0,5	9,435950
7,975333	0,5	10,732000
7,983667	0,5	12,159600
7,992000	0,5	13,665900
8,000333	0,5	15,175800
8,008667	0,5	16,590050
8,017000	0,5	17,799000
8,025333	0,5	18,678100
8,033667	0,5	19,132550
8,042000	0,5	19,080600
8,050333	0,5	18,494300
8,058667	0,5	17,418850
8,067000	0,5	15,950550
8,075333	0,5	14,227450
8,083667	0,5	12,405700
8,092000	0,5	10,623250
8,100333	0,5	8,989850
8,108667	0,5	7,572050
8,117000	0,5	6,389900
8,125333	0,5	5,447200
8,133667	0,5	4,725300
8,142000	0,5	4,212500
8,150333	0,5	3,888200
8,158667	0,5	3,724750
8,167000	0,5	3,690100
8,175333	0,5	3,752400
8,183667	0,5	3,863100
8,192000	0,5	3,991950
8,200333	0,5	4,100050
8,208667	0,5	4,170550
8,217000	0,5	4,198550
8,225333	0,5	4,190900
8,233667	0,5	4,164150
8,242000	0,5	4,127850
8,250333	0,5	4,095750
8,258667	0,5	4,069150
8,267000	0,5	4,032650
8,275333	0,5	3,975650
8,283667	0,5	3,891300
8,292000	0,5	3,779250
8,300333	0,5	3,647050
8,308667	0,5	3,514150
8,317000	0,5	3,406300
8,325333	0,5	3,341850
8,333667	0,5	3,322400
8,342000	0,5	3,348150
8,350333	0,5	3,420550
8,358667	0,5	3,528350
8,367000	0,5	3,664250
8,375333	0,5	3,831500
8,383667	0,5	4,033950
8,392000	0,5	4,300100
8,400333	0,5	4,700000
8,408667	0,5	5,359550
8,417000	0,5	6,509100
8,425333	0,5	8,428550
8,433667	0,5	11,417900
8,442000	0,5	15,613850
8,450333	0,5	20,803150
8,458667	0,5	26,335100
8,467000	0,5	31,208500
8,475333	0,5	34,446401
8,483667	0,5	35,354851
8,492000	0,5	33,788851
8,500333	0,5	30,199350
8,508667	0,5	25,407800
8,517000	0,5	20,288350
8,525333	0,5	15,570250
8,533667	0,5	11,679100
8,542000	0,5	8,751300
8,550333	0,5	6,704850
8,558667	0,5	5,356800
8,567000	0,5	4,509500
8,575333	0,5	4,000700
8,583667	0,5	3,709050
8,592000	0,5	3,564400
8,600333	0,5	3,501700
8,608667	0,5	3,486000
8,617000	0,5	3,480800
8,625333	0,5	3,481850
8,633667	0,5	3,492250
8,642000	0,5	3,532750
8,650333	0,5	3,611200
8,658667	0,5	3,729650
8,667000	0,5	3,877500
8,675333	0,5	4,037950
8,683667	0,5	4,191650
8,692000	0,5	4,332950
8,700333	0,5	4,443050
8,708667	0,5	4,514600
8,717000	0,5	4,530750
8,725333	0,5	4,476000
8,733667	0,5	4,329500
8,742000	0,5	4,105300
8,750333	0,5	3,826150
8,758667	0,5	3,520500
8,767000	0,5	3,237200
8,775333	0,5	3,004900
8,783667	0,5	2,830000
8,792000	0,5	2,703150
8,800333	0,5	2,606250
8,808667	0,5	2,526950
8,817000	0,5	2,455550
8,825333	0,5	2,396650
8,833667	0,5	2,353700
8,842000	0,5	2,331300
8,850333	0,5	2,331450
8,858667	0,5	2,326800
8,867000	0,5	2,330850
8,875333	0,5	2,331900
8,883667	0,5	2,320650
8,892000	0,5	2,303000
8,900333	0,5	2,288750
8,908667	0,5	2,266500
8,917000	0,5	2,258150
8,925333	0,5	2,252450
8,933667	0,5	2,248950
8,942000	0,5	2,245500
8,950333	0,5	2,243550
8,958667	0,5	2,243350
8,967000	0,5	2,252950
8,975333	0,5	2,278500
8,983667	0,5	2,331550
8,992000	0,5	2,400500
9,000333	0,5	2,479800
9,008667	0,5	2,538700
9,017000	0,5	2,556600
9,025333	0,5	2,531950
9,033667	0,5	2,472200
9,042000	0,5	2,393950
9,050333	0,5	2,321700
9,058667	0,5	2,262650
9,067000	0,5	2,217300
9,075333	0,5	2,189450
9,083667	0,5	2,183900
9,092000	0,5	2,192450
9,100333	0,5	2,211350
9,108667	0,5	2,231550
9,117000	0,5	2,250550
9,125333	0,5	2,254300
9,133667	0,5	2,236600
9,142000	0,5	2,205800
9,150333	0,5	2,168050
9,158667	0,5	2,135500
9,167000	0,5	2,107650
9,175333	0,5	2,088050
9,183667	0,5	2,071850
9,192000	0,5	2,065450
9,200333	0,5	2,065100
9,208667	0,5	2,071100
9,217000	0,5	2,092850
9,225333	0,5	2,138850
9,233667	0,5	2,201200
9,242000	0,5	2,285100
9,250333	0,5	2,385800
9,258667	0,5	2,485350
9,267000	0,5	2,562950
9,275333	0,5	2,611100
9,283667	0,5	2,626400
9,292000	0,5	2,596200
9,300333	0,5	2,543550
9,308667	0,5	2,484200
9,317000	0,5	2,427800
9,325333	0,5	2,395850
9,333667	0,5	2,383300
9,342000	0,5	2,396250
9,350333	0,5	2,414350
9,358667	0,5	2,429050
9,367000	0,5	2,443200
9,375333	0,5	2,454350
9,383667	0,5	2,466100
9,392000	0,5	2,481150
9,400333	0,5	2,493600
9,408667	0,5	2,514450
9,417000	0,5	2,535950
9,425333	0,5	2,557550
9,433667	0,5	2,576950
9,442000	0,5	2,589150
9,450333	0,5	2,598650
9,458667	0,5	2,612950
9,467000	0,5	2,634900
9,475333	0,5	2,677350
9,483667	0,5	2,739150
9,492000	0,5	2,830050
9,500333	0,5	2,943750
9,508667	0,5	3,074000
9,517000	0,5	3,229000
9,525333	0,5	3,394650
9,533667	0,5	3,571450
9,542000	0,5	3,758450
9,550333	0,5	3,971900
9,558667	0,5	4,233200
9,567000	0,5	4,602300
9,575333	0,5	5,204350
9,583667	0,5	6,278550
9,592000	0,5	8,244100
9,600333	0,5	11,616050
9,608667	0,5	16,844550
9,617000	0,5	23,934050
9,625333	0,5	32,151550
9,633667	0,5	40,036151
9,642000	0,5	45,866451
9,650333	0,5	48,306751
9,658667	0,5	46,957351
9,667000	0,5	42,339351
9,675333	0,5	35,635551
9,683667	0,5	28,241100
9,692000	0,5	21,296150
9,700333	0,5	15,505400
9,708667	0,5	11,112350
9,717000	0,5	8,021900
9,725333	0,5	5,979100
9,733667	0,5	4,682450
9,742000	0,5	3,874550
9,750333	0,5	3,374800
9,758667	0,5	3,063400
9,767000	0,5	2,858550
9,775333	0,5	2,726450
9,783667	0,5	2,634250
9,792000	0,5	2,562050
9,800333	0,5	2,502200
9,808667	0,5	2,448300
9,817000	0,5	2,395500
9,825333	0,5	2,346150
9,833667	0,5	2,308600
9,842000	0,5	2,279400
9,850333	0,5	2,273500
9,858667	0,5	2,287950
9,867000	0,5	2,318150
9,875333	0,5	2,349350
9,883667	0,5	2,384550
9,892000	0,5	2,389200
9,900333	0,5	2,382650
9,908667	0,5	2,359150
9,917000	0,5	2,329650
9,925333	0,5	2,300900
9,933667	0,5	2,276700
9,942000	0,5	2,248450
9,950333	0,5	2,206150
9,958667	0,5	2,152050
9,967000	0,5	2,098550
9,975333	0,5	2,041650
9,983667	0,5	1,992850
9,992000	0,5	1,954600
10,000333	0,5	1,933300
10,008667	0,5	1,933200
10,017000	0,5	1,943250
10,025333	0,5	1,967350
10,033667	0,5	1,995600
10,042000	0,5	2,034250
10,050333	0,5	2,069100
10,058667	0,5	2,100000
10,067000	0,5	2,119300
10,075333	0,5	2,140000
10,083667	0,5	2,154400
10,092000	0,5	2,167250
10,100333	0,5	2,179150
10,108667	0,5	2,201200
10,117000	0,5	2,233750
10,125333	0,5	2,287150
10,133667	0,5	2,378150
10,142000	0,5	2,515250
10,150333	0,5	2,728450
10,158667	0,5	3,020300
10,167000	0,5	3,406100
10,175333	0,5	3,872650
10,183667	0,5	4,384850
10,192000	0,5	4,873100
10,200333	0,5	5,276400
10,208667	0,5	5,538200
10,217000	0,5	5,634550
10,225333	0,5	5,558750
10,233667	0,5	5,364350
10,242000	0,5	5,066200
10,250333	0,5	4,710550
10,258667	0,5	4,341700
10,267000	0,5	3,969400
10,275333	0,5	3,616850
10,283667	0,5	3,301400
10,292000	0,5	3,035600
10,300333	0,5	2,828150
10,308667	0,5	2,678750
10,317000	0,5	2,588250
10,325333	0,5	2,544100
10,333667	0,5	2,543050
10,342000	0,5	2,576450
10,350333	0,5	2,646850
10,358667	0,5	2,760000
10,367000	0,5	2,944600
10,375333	0,5	3,264750
10,383667	0,5	3,820650
10,392000	0,5	4,755100
10,400333	0,5	6,191550
10,408667	0,5	8,152150
10,417000	0,5	10,454850
10,425333	0,5	12,711650
10,433667	0,5	14,436400
10,442000	0,5	15,223650
10,450333	0,5	14,898150
10,458667	0,5	13,596950
10,467000	0,5	11,672750
10,475333	0,5	9,558850
10,483667	0,5	7,598950
10,492000	0,5	5,994600
10,500333	0,5	4,811150
10,508667	0,5	3,997850
10,517000	0,5	3,468150
10,525333	0,5	3,135600
10,533667	0,5	2,935200
10,542000	0,5	2,811350
10,550333	0,5	2,744250
10,558667	0,5	2,716800
10,567000	0,5	2,714650
10,575333	0,5	2,745000
10,583667	0,5	2,798100
10,592000	0,5	2,867400
10,600333	0,5	2,954650
10,608667	0,5	3,030300
10,617000	0,5	3,083950
10,625333	0,5	3,114550
10,633667	0,5	3,117650
10,642000	0,5	3,108000
10,650333	0,5	3,089050
10,658667	0,5	3,077950
10,667000	0,5	3,070050
10,675333	0,5	3,059100
10,683667	0,5	3,029250
10,692000	0,5	2,970050
10,700333	0,5	2,900700
10,708667	0,5	2,819850
10,717000	0,5	2,744600
10,725333	0,5	2,696700
10,733667	0,5	2,691800
10,742000	0,5	2,739950
10,750333	0,5	2,818550
10,758667	0,5	2,919550
10,767000	0,5	3,026000
10,775333	0,5	3,151550
10,783667	0,5	3,302900
10,792000	0,5	3,553400
10,800333	0,5	3,879600
10,808667	0,5	4,206150
10,817000	0,5	4,676800
10,825333	0,5	5,615600
10,833667	0,5	7,252250
10,842000	0,5	9,494900
10,850333	0,5	11,815200
10,858667	0,5	13,500200
10,867000	0,5	14,179600
10,875333	0,5	14,446550
10,883667	0,5	15,722650
10,892000	0,5	17,283000
10,900333	0,5	17,140450
10,908667	0,5	15,704600
10,917000	0,5	14,095250
10,925333	0,5	10,589400
10,933667	0,5	6,306900
10,942000	0,5	3,814650
10,950333	0,5	2,625050
10,958667	0,5	2,008900
10,967000	0,5	1,646450
10,975333	0,5	1,396050
10,983667	0,5	1,225500
10,992000	0,5	1,091650
11,000333	0,5	0,987050
11,008667	0,5	0,896250
11,017000	0,5	0,822500
11,025333	0,5	0,757100
11,033667	0,5	0,707050
11,042000	0,5	0,671300
11,050333	0,5	0,642250
11,058667	0,5	0,612700
11,067000	0,5	0,593350
11,075333	0,5	0,565300
11,083667	0,5	0,546500
11,092000	0,5	0,527800
11,100333	0,5	0,501750
11,108667	0,5	0,481300
11,117000	0,5	0,461450
11,125333	0,5	0,443250
11,133667	0,5	0,415200
11,142000	0,5	0,394650
11,150333	0,5	0,373550
11,158667	0,5	0,350750
11,167000	0,5	0,327500
11,175333	0,5	0,303250
11,183667	0,5	0,289500
11,192000	0,5	0,276250
11,200333	0,5	0,261500
11,208667	0,5	0,242950
11,217000	0,5	0,234350
11,225333	0,5	0,220600
11,233667	0,5	0,206450
11,242000	0,5	0,197950
11,250333	0,5	0,177350
11,258667	0,5	0,168600
11,267000	0,5	0,159750
11,275333	0,5	0,146450
11,283667	0,5	0,137500
11,292000	0,5	0,130900
11,300333	0,5	0,125500
11,308667	0,5	0,117200
11,317000	0,5	0,107950
11,325333	0,5	0,104550
11,333667	0,5	0,104200
11,342000	0,5	0,103800
11,350333	0,5	0,107400
11,358667	0,5	0,103400
11,367000	0,5	0,107850
11,375333	0,5	0,108200
11,383667	0,5	0,112350
11,392000	0,5	0,114900
11,400333	0,5	0,117800
11,408667	0,5	0,121700
11,417000	0,5	0,128850
11,425333	0,5	0,126450
11,433667	0,5	0,129750
11,442000	0,5	0,138350
11,450333	0,5	0,136750
11,458667	0,5	0,134800
11,467000	0,5	0,132400
11,475333	0,5	0,132000
11,483667	0,5	0,128750
11,492000	0,5	0,124900
11,500333	0,5	0,118000
11,508667	0,5	0,113600
11,517000	0,5	0,102500
11,525333	0,5	0,096900
11,533667	0,5	0,086600
11,542000	0,5	0,076900
11,550333	0,5	0,068800
11,558667	0,5	0,061400
11,567000	0,5	0,057250
11,575333	0,5	0,048900
11,583667	0,5	0,046950
11,592000	0,5	0,040450
11,600333	0,5	0,037450
11,608667	0,5	0,032250
11,617000	0,5	0,026000
11,625333	0,5	0,026250
11,633667	0,5	0,028950
11,642000	0,5	0,026650
11,650333	0,5	0,027900
11,658667	0,5	0,026200
11,667000	0,5	0,030050
11,675333	0,5	0,026650
11,683667	0,5	0,030050
11,692000	0,5	0,027400
11,700333	0,5	0,027100
11,708667	0,5	0,030650
11,717000	0,5	0,034450
11,725333	0,5	0,028850
11,733667	0,5	0,037500
11,742000	0,5	0,037100
11,750333	0,5	0,041850
11,758667	0,5	0,039750
11,767000	0,5	0,035850
11,775333	0,5	0,046750
11,783667	0,5	0,047150
11,792000	0,5	0,051300
11,800333	0,5	0,051800
11,808667	0,5	0,054200
11,817000	0,5	0,056800
11,825333	0,5	0,056950
11,833667	0,5	0,054350
11,842000	0,5	0,058550
11,850333	0,5	0,056600
11,858667	0,5	0,063200
11,867000	0,5	0,060200
11,875333	0,5	0,059750
11,883667	0,5	0,063550
11,892000	0,5	0,063650
11,900333	0,5	0,059400
11,908667	0,5	0,057850
11,917000	0,5	0,056150
11,925333	0,5	0,059400
11,933667	0,5	0,064050
11,942000	0,5	0,065700
11,950333	0,5	0,063850
11,958667	0,5	0,062350
11,967000	0,5	0,060700
11,975333	0,5	0,058050
11,983667	0,5	0,058000
11,992000	0,5	0,058700
12,000333	0,5	0,054250
12,008667	0,5	0,057800
12,017000	0,5	0,058400
12,025333	0,5	0,058800
12,033667	0,5	0,062250
12,042000	0,5	0,061200
12,050333	0,5	0,057400
12,058667	0,5	0,061350
12,067000	0,5	0,061150
12,075333	0,5	0,067400
12,083667	0,5	0,072350
12,092000	0,5	0,080900
12,100333	0,5	0,085900
12,108667	0,5	0,094700
12,117000	0,5	0,102150
12,125333	0,5	0,116650
12,133667	0,5	0,132750
12,142000	0,5	0,146450
12,150333	0,5	0,162850
12,158667	0,5	0,181800
12,167000	0,5	0,196700
12,175333	0,5	0,217250
12,183667	0,5	0,238550
12,192000	0,5	0,250250
12,200333	0,5	0,261150
12,208667	0,5	0,271350
12,217000	0,5	0,284200
12,225333	0,5	0,294650
12,233667	0,5	0,303050
12,242000	0,5	0,312850
12,250333	0,5	0,314750
12,258667	0,5	0,320800
12,267000	0,5	0,324650
12,275333	0,5	0,331700
12,283667	0,5	0,339400
12,292000	0,5	0,344900
12,300333	0,5	0,357600
12,308667	0,5	0,361700
12,317000	0,5	0,366900
12,325333	0,5	0,378450
12,333667	0,5	0,387450
12,342000	0,5	0,393850
12,350333	0,5	0,396650
12,358667	0,5	0,403250
12,367000	0,5	0,414550
12,375333	0,5	0,417300
12,383667	0,5	0,427650
12,392000	0,5	0,430050
12,400333	0,5	0,434500
12,408667	0,5	0,438550
12,417000	0,5	0,441950
12,425333	0,5	0,446500
12,433667	0,5	0,442600
12,442000	0,5	0,442050
12,450333	0,5	0,441250
12,458667	0,5	0,431800
12,467000	0,5	0,433700
12,475333	0,5	0,433650
12,483667	0,5	0,425350
12,492000	0,5	0,419100
12,500333	0,5	0,409800
12,508667	0,5	0,411950
12,517000	0,5	0,415050
12,525333	0,5	0,421350
12,533667	0,5	0,425100
12,542000	0,5	0,432050
12,550333	0,5	0,439850
12,558667	0,5	0,445350
12,567000	0,5	0,445200
12,575333	0,5	0,447700
12,583667	0,5	0,444600
12,592000	0,5	0,439750
12,600333	0,5	0,439100
12,608667	0,5	0,431100
12,617000	0,5	0,439200
12,625333	0,5	0,438000
12,633667	0,5	0,438500
12,642000	0,5	0,440700
12,650333	0,5	0,438750
12,658667	0,5	0,449700
12,667000	0,5	0,463900
12,675333	0,5	0,476950
12,683667	0,5	0,491150
12,692000	0,5	0,507400
12,700333	0,5	0,532100
12,708667	0,5	0,558150
12,717000	0,5	0,587650
12,725333	0,5	0,621800
12,733667	0,5	0,652800
12,742000	0,5	0,693800
12,750333	0,5	0,732300
12,758667	0,5	0,768400
12,767000	0,5	0,814400
12,775333	0,5	0,849900
12,783667	0,5	0,881650
12,792000	0,5	0,904700
12,800333	0,5	0,924200
12,808667	0,5	0,945300
12,817000	0,5	0,952700
12,825333	0,5	0,955750
12,833667	0,5	0,946900
12,842000	0,5	0,936250
12,850333	0,5	0,909250
12,858667	0,5	0,882250
12,867000	0,5	0,845600
12,875333	0,5	0,805550
12,883667	0,5	0,766250
12,892000	0,5	0,727450
12,900333	0,5	0,687850
12,908667	0,5	0,660200
12,917000	0,5	0,641950
12,925333	0,5	0,621350
12,933667	0,5	0,605750
12,942000	0,5	0,592550
12,950333	0,5	0,586250
12,958667	0,5	0,584850
12,967000	0,5	0,586250
12,975333	0,5	0,588050
12,983667	0,5	0,584750
12,992000	0,5	0,582150
13,000333	0,5	0,582800
13,008667	0,5	0,581600
13,017000	0,5	0,582200
13,025333	0,5	0,580250
13,033667	0,5	0,583000
13,042000	0,5	0,579900
13,050333	0,5	0,577600
13,058667	0,5	0,578150
13,067000	0,5	0,580850
13,075333	0,5	0,579350
13,083667	0,5	0,581300
13,092000	0,5	0,583400
13,100333	0,5	0,591900
13,108667	0,5	0,605500
13,117000	0,5	0,621500
13,125333	0,5	0,629900
13,133667	0,5	0,640400
13,142000	0,5	0,645350
13,150333	0,5	0,647050
13,158667	0,5	0,650650
13,167000	0,5	0,645700
13,175333	0,5	0,637300
13,183667	0,5	0,624050
13,192000	0,5	0,614100
13,200333	0,5	0,607850
13,208667	0,5	0,607100
13,217000	0,5	0,604800
13,225333	0,5	0,603600
13,233667	0,5	0,602450
13,242000	0,5	0,604900
13,250333	0,5	0,613700
13,258667	0,5	0,627350
13,267000	0,5	0,636100
13,275333	0,5	0,648000
13,283667	0,5	0,652350
13,292000	0,5	0,661950
13,300333	0,5	0,669450
13,308667	0,5	0,676650
13,317000	0,5	0,681250
13,325333	0,5	0,680000
13,333667	0,5	0,688200
13,342000	0,5	0,683050
13,350333	0,5	0,683650
13,358667	0,5	0,685100
13,367000	0,5	0,681400
13,375333	0,5	0,672150
13,383667	0,5	0,657900
13,392000	0,5	0,650050
13,400333	0,5	0,650250
13,408667	0,5	0,647400
13,417000	0,5	0,647700
13,425333	0,5	0,649350
13,433667	0,5	0,665250
13,442000	0,5	0,682000
13,450333	0,5	0,705650
13,458667	0,5	0,727100
13,467000	0,5	0,746000
13,475333	0,5	0,752650
13,483667	0,5	0,748500
13,492000	0,5	0,726700
13,500333	0,5	0,719750
13,508667	0,5	0,705000
13,517000	0,5	0,687900
13,525333	0,5	0,679700
13,533667	0,5	0,666750
13,542000	0,5	0,673750
13,550333	0,5	0,682350
13,558667	0,5	0,693850
13,567000	0,5	0,701650
13,575333	0,5	0,705750
13,583667	0,5	0,708300
13,592000	0,5	0,719050
13,600333	0,5	0,731900
13,608667	0,5	0,753050
13,617000	0,5	0,777850
13,625333	0,5	0,809850
13,633667	0,5	0,826150
13,642000	0,5	0,829650
13,650333	0,5	0,836000
13,658667	0,5	0,825200
13,667000	0,5	0,809200
13,675333	0,5	0,786100
13,683667	0,5	0,759550
13,692000	0,5	0,753050
13,700333	0,5	0,752850
13,708667	0,5	0,752400
13,717000	0,5	0,756050
13,725333	0,5	0,758400
13,733667	0,5	0,769150
13,742000	0,5	0,780600
13,750333	0,5	0,799850
13,758667	0,5	0,821500
13,767000	0,5	0,846250
13,775333	0,5	0,865550
13,783667	0,5	0,877850
13,792000	0,5	0,864800
13,800333	0,5	0,853750
13,808667	0,5	0,816050
13,817000	0,5	0,782300
13,825333	0,5	0,754650
13,833667	0,5	0,726300
13,842000	0,5	0,715100
13,850333	0,5	0,713750
13,858667	0,5	0,719400
13,867000	0,5	0,732850
13,875333	0,5	0,750000
13,883667	0,5	0,775300
13,892000	0,5	0,807050
13,900333	0,5	0,829800
13,908667	0,5	0,846750
13,917000	0,5	0,846500
13,925333	0,5	0,832850
13,933667	0,5	0,793600
13,942000	0,5	0,753200
13,950333	0,5	0,720500
13,958667	0,5	0,688150
13,967000	0,5	0,663150
13,975333	0,5	0,653050
13,983667	0,5	0,662500
13,992000	0,5	0,686750
14,000333	0,5	0,717100
14,008667	0,5	0,744450
14,017000	0,5	0,764150
14,025333	0,5	0,769600
14,033667	0,5	0,766400
14,042000	0,5	0,750100
14,050333	0,5	0,726600
14,058667	0,5	0,695550
14,067000	0,5	0,669600
14,075333	0,5	0,638250
14,083667	0,5	0,623400
14,092000	0,5	0,632750
14,100333	0,5	0,646650
14,108667	0,5	0,664800
14,117000	0,5	0,682350
14,125333	0,5	0,688250
14,133667	0,5	0,693000
14,142000	0,5	0,685750
14,150333	0,5	0,670150
14,158667	0,5	0,645750
14,167000	0,5	0,618650
14,175333	0,5	0,595350
14,183667	0,5	0,579500
14,192000	0,5	0,583500
14,200333	0,5	0,585000
14,208667	0,5	0,606150
14,217000	0,5	0,622100
14,225333	0,5	0,631900
14,233667	0,5	0,634500
14,242000	0,5	0,641700
14,250333	0,5	0,629200
14,258667	0,5	0,618900
14,267000	0,5	0,584600
14,275333	0,5	0,558850
14,283667	0,5	0,542750
14,292000	0,5	0,532700
14,300333	0,5	0,521850
14,308667	0,5	0,519600
14,317000	0,5	0,515450
14,325333	0,5	0,516650
14,333667	0,5	0,522700
14,342000	0,5	0,520600
14,350333	0,5	0,526050
14,358667	0,5	0,516950
14,367000	0,5	0,513200
14,375333	0,5	0,496850
14,383667	0,5	0,499450
14,392000	0,5	0,493400
14,400333	0,5	0,484250
14,408667	0,5	0,473550
14,417000	0,5	0,461400
14,425333	0,5	0,460550
14,433667	0,5	0,461550
14,442000	0,5	0,453350
14,450333	0,5	0,449050
14,458667	0,5	0,439900
14,467000	0,5	0,431450
14,475333	0,5	0,423350
14,483667	0,5	0,418350
14,492000	0,5	0,408050
14,500333	0,5	0,402800
14,508667	0,5	0,396850
14,517000	0,5	0,393750
14,525333	0,5	0,377850
14,533667	0,5	0,384400
14,542000	0,5	0,380900
14,550333	0,5	0,375300
14,558667	0,5	0,371950
14,567000	0,5	0,351350
14,575333	0,5	0,359350
14,583667	0,5	0,358700
14,592000	0,5	0,362350
14,600333	0,5	0,364250
14,608667	0,5	0,369350
14,617000	0,5	0,366800
14,625333	0,5	0,366250
14,633667	0,5	0,360700
14,642000	0,5	0,346150
14,650333	0,5	0,334050
14,658667	0,5	0,328450
14,667000	0,5	0,308350
14,675333	0,5	0,296250
14,683667	0,5	0,298900
14,692000	0,5	0,292700
14,700333	0,5	0,290800
14,708667	0,5	0,284850
14,717000	0,5	0,278700
14,725333	0,5	0,281050
14,733667	0,5	0,278150
14,742000	0,5	0,271800
14,750333	0,5	0,262200
14,758667	0,5	0,252150
14,767000	0,5	0,245650
14,775333	0,5	0,243300
14,783667	0,5	0,243500
14,792000	0,5	0,245500
14,800333	0,5	0,241550
14,808667	0,5	0,240250
14,817000	0,5	0,235650
14,825333	0,5	0,233150
14,833667	0,5	0,237250
14,842000	0,5	0,233900
14,850333	0,5	0,229700
14,858667	0,5	0,221300
14,867000	0,5	0,221950
14,875333	0,5	0,234450
14,883667	0,5	0,234500
14,892000	0,5	0,237450
14,900333	0,5	0,242500
14,908667	0,5	0,245250
14,917000	0,5	0,251200
14,925333	0,5	0,253800
14,933667	0,5	0,253200
14,942000	0,5	0,250400
14,950333	0,5	0,249950
14,958667	0,5	0,241150
14,967000	0,5	0,221250
14,975333	0,5	0,228950
14,983667	0,5	0,220950
14,992000	0,5	0,214400
15,000333	0,5	0,201200
15,008667	0,5	0,190300
15,017000	0,5	0,185350
15,025333	0,5	0,189000
15,033667	0,5	0,190550
15,042000	0,5	0,189850
15,050333	0,5	0,185650
15,058667	0,5	0,181250
15,067000	0,5	0,177800
15,075333	0,5	0,173000
15,083667	0,5	0,170300
15,092000	0,5	0,169950
15,100333	0,5	0,178400
15,108667	0,5	0,165700
15,117000	0,5	0,162300
15,125333	0,5	0,167200
15,133667	0,5	0,165400
15,142000	0,5	0,161250
15,150333	0,5	0,153550
15,158667	0,5	0,144950
15,167000	0,5	0,143600
15,175333	0,5	0,147750
15,183667	0,5	0,151300
15,192000	0,5	0,148450
15,200333	0,5	0,147250
15,208667	0,5	0,151650
15,217000	0,5	0,148150
15,225333	0,5	0,151050
15,233667	0,5	0,147950
15,242000	0,5	0,151950
15,250333	0,5	0,154450
15,258667	0,5	0,142400
15,267000	0,5	0,153500
15,275333	0,5	0,166200
15,283667	0,5	0,166950
15,292000	0,5	0,174800
15,300333	0,5	0,166000
15,308667	0,5	0,173550
15,317000	0,5	0,178300
15,325333	0,5	0,183700
15,333667	0,5	0,187550
15,342000	0,5	0,195550
15,350333	0,5	0,201700
15,358667	0,5	0,206300
15,367000	0,5	0,210700
15,375333	0,5	0,215250
15,383667	0,5	0,213650
15,392000	0,5	0,212750
15,400333	0,5	0,212850
15,408667	0,5	0,201650
15,417000	0,5	0,209200
15,425333	0,5	0,212550
15,433667	0,5	0,211350
15,442000	0,5	0,214950
15,450333	0,5	0,213250
15,458667	0,5	0,219500
15,467000	0,5	0,229950
15,475333	0,5	0,228100
15,483667	0,5	0,229250
15,492000	0,5	0,231550
15,500333	0,5	0,239300
15,508667	0,5	0,247350
15,517000	0,5	0,260400
15,525333	0,5	0,262350
15,533667	0,5	0,264500
15,542000	0,5	0,269100
15,550333	0,5	0,248700
15,558667	0,5	0,220900
15,567000	0,5	0,210250
15,575333	0,5	0,193000
15,583667	0,5	0,176200
15,592000	0,5	0,161800
15,600333	0,5	0,143600
15,608667	0,5	0,143950
15,617000	0,5	0,134350
15,625333	0,5	0,133450
15,633667	0,5	0,130950
15,642000	0,5	0,135550
15,650333	0,5	0,128900
15,658667	0,5	0,136400
15,667000	0,5	0,142750
15,675333	0,5	0,151150
15,683667	0,5	0,160850
15,692000	0,5	0,167750
15,700333	0,5	0,158250
15,708667	0,5	0,160250
15,717000	0,5	0,155300
15,725333	0,5	0,149450
15,733667	0,5	0,136450
15,742000	0,5	0,120800
15,750333	0,5	0,109900
15,758667	0,5	0,105250
15,767000	0,5	0,110100
15,775333	0,5	0,106300
15,783667	0,5	0,109950
15,792000	0,5	0,105200
15,800333	0,5	0,112550
15,808667	0,5	0,106650
15,817000	0,5	0,108950
15,825333	0,5	0,099900
15,833667	0,5	0,102450
15,842000	0,5	0,086450
15,850333	0,5	0,067000
15,858667	0,5	0,067500
15,867000	0,5	0,063450
15,875333	0,5	0,057400
15,883667	0,5	0,042450
15,892000	0,5	0,031450
15,900333	0,5	0,026150
15,908667	0,5	0,026950
15,917000	0,5	0,022950
15,925333	0,5	0,019250
15,933667	0,5	0,016450
15,942000	0,5	0,015250
15,950333	0,5	0,000500
15,958667	0,5	0,003800
15,967000	0,5	-0,003450
15,975333	0,5	0,001600
15,983667	0,5	0,001650
15,992000	0,5	0,005250
16,000333	0,5	0,000000
16,008667	0,5	0,008550
16,017000	0,5	0,011700
16,025333	0,5	0,014500
16,033667	0,5	0,005200
16,042000	0,5	0,001550
16,050333	0,5	0,001250
16,058667	0,5	0,007000
16,067000	0,5	0,015550
16,075333	0,5	0,018700
16,083667	0,5	0,023900
16,092000	0,5	0,032350
16,100333	0,5	0,039600
16,108667	0,5	0,043500
16,117000	0,5	0,047150
16,125333	0,5	0,057300
16,133667	0,5	0,066600
16,142000	0,5	0,058600
16,150333	0,5	0,066350
16,158667	0,5	0,079400
16,167000	0,5	0,088750
16,175333	0,5	0,095750
16,183667	0,5	0,095700
16,192000	0,5	0,104400
16,200333	0,5	0,118250
16,208667	0,5	0,119700
16,217000	0,5	0,121900
16,225333	0,5	0,122750
16,233667	0,5	0,123650
16,242000	0,5	0,125550
16,250333	0,5	0,137900
16,258667	0,5	0,150300
16,267000	0,5	0,158350
16,275333	0,5	0,177700
16,283667	0,5	0,175650
16,292000	0,5	0,160950
16,300333	0,5	0,156650
16,308667	0,5	0,149650
16,317000	0,5	0,135400
16,325333	0,5	0,121300
16,333667	0,5	0,097850
16,342000	0,5	0,098650
16,350333	0,5	0,097200
16,358667	0,5	0,105800
16,367000	0,5	0,111050
16,375333	0,5	0,123150
16,383667	0,5	0,131100
16,392000	0,5	0,136850
16,400333	0,5	0,146250
16,408667	0,5	0,147700
16,417000	0,5	0,155050
16,425333	0,5	0,168200
16,433667	0,5	0,172050
16,442000	0,5	0,178550
16,450333	0,5	0,204550
16,458667	0,5	0,224750
16,467000	0,5	0,249800
16,475333	0,5	0,277200
16,483667	0,5	0,312200
16,492000	0,5	0,357700
16,500333	0,5	0,396100
16,508667	0,5	0,418750
16,517000	0,5	0,436150
16,525333	0,5	0,437100
16,533667	0,5	0,439050
16,542000	0,5	0,426100
16,550333	0,5	0,412750
16,558667	0,5	0,404650
16,567000	0,5	0,386650
16,575333	0,5	0,384500
16,583667	0,5	0,363650
16,592000	0,5	0,355600
16,600333	0,5	0,345100
16,608667	0,5	0,336850
16,617000	0,5	0,322800
16,625333	0,5	0,307600
16,633667	0,5	0,298100
16,642000	0,5	0,303350
16,650333	0,5	0,301300
16,658667	0,5	0,306200
16,667000	0,5	0,305000
16,675333	0,5	0,308450
16,683667	0,5	0,306700
16,692000	0,5	0,309300
16,700333	0,5	0,301700
16,708667	0,5	0,297950
16,717000	0,5	0,298300
16,725333	0,5	0,293750
16,733667	0,5	0,283850
16,742000	0,5	0,286950
16,750333	0,5	0,284000
16,758667	0,5	0,281050
16,767000	0,5	0,271550
16,775333	0,5	0,254000
16,783667	0,5	0,255450
16,792000	0,5	0,254900
16,800333	0,5	0,262450
16,808667	0,5	0,264900
16,817000	0,5	0,273250
16,825333	0,5	0,282850
16,833667	0,5	0,294300
16,842000	0,5	0,299400
16,850333	0,5	0,310050
16,858667	0,5	0,319700
16,867000	0,5	0,324100
16,875333	0,5	0,311050
16,883667	0,5	0,294550
16,892000	0,5	0,289800
16,900333	0,5	0,270600
16,908667	0,5	0,256100
16,917000	0,5	0,232100
16,925333	0,5	0,220000
16,933667	0,5	0,210800
16,942000	0,5	0,217500
16,950333	0,5	0,223950
16,958667	0,5	0,241000
16,967000	0,5	0,255750
16,975333	0,5	0,272900
16,983667	0,5	0,286650
16,992000	0,5	0,298550
17,000333	0,5	0,303950
17,008667	0,5	0,310000
17,017000	0,5	0,304850
17,025333	0,5	0,293550
17,033667	0,5	0,282300
17,042000	0,5	0,292950
17,050333	0,5	0,301750
17,058667	0,5	0,323450
17,067000	0,5	0,346750
17,075333	0,5	0,378900
17,083667	0,5	0,423850
17,092000	0,5	0,454300
17,100333	0,5	0,470750
17,108667	0,5	0,466400
17,117000	0,5	0,440050
17,125333	0,5	0,402750
17,133667	0,5	0,350600
17,142000	0,5	0,296200
17,150333	0,5	0,255400
17,158667	0,5	0,217500
17,167000	0,5	0,181350
17,175333	0,5	0,141850
17,183667	0,5	0,123850
17,192000	0,5	0,105800
17,200333	0,5	0,085050
17,208667	0,5	0,061750
17,217000	0,5	0,040000
17,225333	0,5	0,033050
17,233667	0,5	0,026800
17,242000	0,5	0,022750
17,250333	0,5	0,021150
17,258667	0,5	0,021250
17,267000	0,5	0,018100
17,275333	0,5	0,020000
17,283667	0,5	0,010800
17,292000	0,5	0,012050
17,300333	0,5	0,005850
17,308667	0,5	0,002250
17,317000	0,5	-0,014450
17,325333	0,5	-0,020000
17,333667	0,5	-0,028450
17,342000	0,5	-0,035900
17,350333	0,5	-0,046050
17,358667	0,5	-0,060100
17,367000	0,5	-0,070600
17,375333	0,5	-0,066750
17,383667	0,5	-0,075800
17,392000	0,5	-0,081600
17,400333	0,5	-0,086100
17,408667	0,5	-0,089100
17,417000	0,5	-0,088000
17,425333	0,5	-0,093200
17,433667	0,5	-0,104350
17,442000	0,5	-0,113300
17,450333	0,5	-0,108000
17,458667	0,5	-0,114400
17,467000	0,5	-0,126000
17,475333	0,5	-0,122300
17,483667	0,5	-0,125350
17,492000	0,5	-0,130250
17,500333	0,5	-0,138950
17,508667	0,5	-0,158700
17,517000	0,5	-0,152350
17,525333	0,5	-0,154550
17,533667	0,5	-0,158650
17,542000	0,5	-0,161500
17,550333	0,5	-0,164100
17,558667	0,5	-0,166550
17,567000	0,5	-0,166350
17,575333	0,5	-0,170750
17,583667	0,5	-0,176500
17,592000	0,5	-0,176250
17,600333	0,5	-0,180100
17,608667	0,5	-0,177600
17,617000	0,5	-0,193050
17,625333	0,5	-0,181650
17,633667	0,5	-0,189550
17,642000	0,5	-0,189350
17,650333	0,5	-0,199450
17,658667	0,5	-0,213600
17,667000	0,5	-0,210400
17,675333	0,5	-0,208700
17,683667	0,5	-0,216450
17,692000	0,5	-0,215150
17,700333	0,5	-0,224050
17,708667	0,5	-0,219650
17,717000	0,5	-0,222550
17,725333	0,5	-0,227300
17,733667	0,5	-0,234050
17,742000	0,5	-0,230500
17,750333	0,5	-0,229450
17,758667	0,5	-0,232900
17,767000	0,5	-0,240250
17,775333	0,5	-0,232800
17,783667	0,5	-0,237250
17,792000	0,5	-0,244350
17,800333	0,5	-0,255750
17,808667	0,5	-0,270600
17,817000	0,5	-0,265200
17,825333	0,5	-0,271350
17,833667	0,5	-0,268900
17,842000	0,5	-0,273300
17,850333	0,5	-0,269650
17,858667	0,5	-0,274400
17,867000	0,5	-0,272000
17,875333	0,5	-0,278550
17,883667	0,5	-0,278650
17,892000	0,5	-0,269900
17,900333	0,5	-0,263250
17,908667	0,5	-0,273500
17,917000	0,5	-0,270250
17,925333	0,5	-0,265000
17,933667	0,5	-0,268950
17,942000	0,5	-0,264600
17,950333	0,5	-0,272850
17,958667	0,5	-0,269800
17,967000	0,5	-0,266950
17,975333	0,5	-0,253300
17,983667	0,5	-0,252500
17,992000	0,5	-0,235400
18,000333	0,5	-0,230200
18,008667	0,5	-0,215100
18,017000	0,5	-0,208300
18,025333	0,5	-0,202100
18,033667	0,5	-0,195600
18,042000	0,5	-0,174400
18,050333	0,5	-0,175200
18,058667	0,5	-0,169150
18,067000	0,5	-0,163100
18,075333	0,5	-0,159350
18,083667	0,5	-0,158150
18,092000	0,5	-0,164350
18,100333	0,5	-0,171650
18,108667	0,5	-0,175000
18,117000	0,5	-0,165450
18,125333	0,5	-0,174400
18,133667	0,5	-0,175200
18,142000	0,5	-0,174450
18,150333	0,5	-0,174250
18,158667	0,5	-0,180250
18,167000	0,5	-0,179100
18,175333	0,5	-0,191400
18,183667	0,5	-0,191950
18,192000	0,5	-0,192150
18,200333	0,5	-0,202450
18,208667	0,5	-0,205700
18,217000	0,5	-0,203150
18,225333	0,5	-0,214650
18,233667	0,5	-0,216350
18,242000	0,5	-0,229350
18,250333	0,5	-0,232450
18,258667	0,5	-0,224800
18,267000	0,5	-0,231050
18,275333	0,5	-0,230800
18,283667	0,5	-0,237200
18,292000	0,5	-0,234300
18,300333	0,5	-0,246750
18,308667	0,5	-0,251300
18,317000	0,5	-0,263400
18,325333	0,5	-0,271950
18,333667	0,5	-0,278650
18,342000	0,5	-0,280500
18,350333	0,5	-0,306550
18,358667	0,5	-0,307000
18,367000	0,5	-0,311650
18,375333	0,5	-0,316450
18,383667	0,5	-0,330800
18,392000	0,5	-0,351300
18,400333	0,5	-0,349300
18,408667	0,5	-0,351400
18,417000	0,5	-0,358350
18,425333	0,5	-0,367100
18,433667	0,5	-0,366100
18,442000	0,5	-0,367050
18,450333	0,5	-0,364400
18,458667	0,5	-0,369200
18,467000	0,5	-0,371600
18,475333	0,5	-0,378200
18,483667	0,5	-0,368600
18,492000	0,5	-0,367050
18,500333	0,5	-0,376250
18,508667	0,5	-0,371900
18,517000	0,5	-0,373050
18,525333	0,5	-0,380850
18,533667	0,5	-0,387200
18,542000	0,5	-0,394000
18,550333	0,5	-0,389850
18,558667	0,5	-0,387450
18,567000	0,5	-0,387600
18,575333	0,5	-0,385750
18,583667	0,5	-0,386750
18,592000	0,5	-0,386400
18,600333	0,5	-0,380500
18,608667	0,5	-0,380550
18,617000	0,5	-0,380450
18,625333	0,5	-0,373600
18,633667	0,5	-0,363300
18,642000	0,5	-0,357700
18,650333	0,5	-0,358500
18,658667	0,5	-0,345250
18,667000	0,5	-0,346050
18,675333	0,5	-0,356100
18,683667	0,5	-0,369050
18,692000	0,5	-0,378500
18,700333	0,5	-0,377100
18,708667	0,5	-0,374550
18,717000	0,5	-0,382250
18,725333	0,5	-0,379150
18,733667	0,5	-0,375750
18,742000	0,5	-0,371150
18,750333	0,5	-0,368100
18,758667	0,5	-0,363400
18,767000	0,5	-0,355350
18,775333	0,5	-0,352350
18,783667	0,5	-0,337200
18,792000	0,5	-0,343200
18,800333	0,5	-0,329550
18,808667	0,5	-0,324100
18,817000	0,5	-0,330000
18,825333	0,5	-0,345100
18,833667	0,5	-0,355850
18,842000	0,5	-0,372200
18,850333	0,5	-0,375350
18,858667	0,5	-0,387400
18,867000	0,5	-0,395050
18,875333	0,5	-0,404000
18,883667	0,5	-0,407850
18,892000	0,5	-0,413600
18,900333	0,5	-0,417700
18,908667	0,5	-0,427500
18,917000	0,5	-0,436150
18,925333	0,5	-0,428000
18,933667	0,5	-0,434100
18,942000	0,5	-0,442400
18,950333	0,5	-0,437450
18,958667	0,5	-0,438400
18,967000	0,5	-0,447600
18,975333	0,5	-0,452250
18,983667	0,5	-0,462600
18,992000	0,5	-0,453750
19,000333	0,5	-0,456650
19,008667	0,5	-0,455600
19,017000	0,5	-0,457650
19,025333	0,5	-0,455400
19,033667	0,5	-0,459050
19,042000	0,5	-0,462300
19,050333	0,5	-0,466000
19,058667	0,5	-0,469750
19,067000	0,5	-0,477550
19,075333	0,5	-0,480400
19,083667	0,5	-0,498050
19,092000	0,5	-0,497150
19,100333	0,5	-0,493200
19,108667	0,5	-0,505550
19,117000	0,5	-0,503850
19,125333	0,5	-0,520500
19,133667	0,5	-0,518450
19,142000	0,5	-0,518600
19,150333	0,5	-0,517400
19,158667	0,5	-0,519100
19,167000	0,5	-0,515850
19,175333	0,5	-0,516450
19,183667	0,5	-0,516700
19,192000	0,5	-0,519950
19,200333	0,5	-0,516400
19,208667	0,5	-0,522450
19,217000	0,5	-0,517000
19,225333	0,5	-0,509200
19,233667	0,5	-0,518800
19,242000	0,5	-0,502700
19,250333	0,5	-0,497750
19,258667	0,5	-0,491050
19,267000	0,5	-0,492750
19,275333	0,5	-0,500950
19,283667	0,5	-0,498200
19,292000	0,5	-0,497200
19,300333	0,5	-0,505150
19,308667	0,5	-0,509700
19,317000	0,5	-0,513450
19,325333	0,5	-0,503350
19,333667	0,5	-0,504100
19,342000	0,5	-0,510350
19,350333	0,5	-0,521650
19,358667	0,5	-0,528350
19,367000	0,5	-0,529900
19,375333	0,5	-0,538400
19,383667	0,5	-0,549150
19,392000	0,5	-0,539800
19,400333	0,5	-0,533650
19,408667	0,5	-0,533200
19,417000	0,5	-0,529600
19,425333	0,5	-0,526100
19,433667	0,5	-0,507500
19,442000	0,5	-0,503050
19,450333	0,5	-0,498700
19,458667	0,5	-0,508450
19,467000	0,5	-0,520750
19,475333	0,5	-0,537700
19,483667	0,5	-0,546050
19,492000	0,5	-0,560600
19,500333	0,5	-0,566650
19,508667	0,5	-0,565850
19,517000	0,5	-0,559650
19,525333	0,5	-0,575950
19,533667	0,5	-0,568600
19,542000	0,5	-0,571300
19,550333	0,5	-0,575450
19,558667	0,5	-0,583400
19,567000	0,5	-0,598700
19,575333	0,5	-0,594350
19,583667	0,5	-0,594900
19,592000	0,5	-0,590350
19,600333	0,5	-0,593750
19,608667	0,5	-0,595950
19,617000	0,5	-0,593500
19,625333	0,5	-0,583950
19,633667	0,5	-0,582700
19,642000	0,5	-0,569700
19,650333	0,5	-0,558200
19,658667	0,5	-0,536600
19,667000	0,5	-0,525600
19,675333	0,5	-0,521600
19,683667	0,5	-0,509800
19,692000	0,5	-0,502400
19,700333	0,5	-0,499450
19,708667	0,5	-0,513800
19,717000	0,5	-0,522150
19,725333	0,5	-0,524100
19,733667	0,5	-0,517000
19,742000	0,5	-0,528850
19,750333	0,5	-0,528850
19,758667	0,5	-0,533150
19,767000	0,5	-0,526400
19,775333	0,5	-0,523650
19,783667	0,5	-0,522200
19,792000	0,5	-0,533200
19,800333	0,5	-0,536850
19,808667	0,5	-0,548150
19,817000	0,5	-0,560500
19,825333	0,5	-0,580100
19,833667	0,5	-0,580400
19,842000	0,5	-0,588100
19,850333	0,5	-0,597200
19,858667	0,5	-0,612800
19,867000	0,5	-0,624650
19,875333	0,5	-0,620850
19,883667	0,5	-0,618950
19,892000	0,5	-0,612500
19,900333	0,5	-0,616650
19,908667	0,5	-0,613900
19,917000	0,5	-0,612550
19,925333	0,5	-0,604100
19,933667	0,5	-0,604500
19,942000	0,5	-0,597000
19,950333	0,5	-0,584150
19,958667	0,5	-0,573350
19,967000	0,5	-0,574400
19,975333	0,5	-0,557050
19,983667	0,5	-0,540650
19,992000	0,5	-0,536050
20,000333	0,5	-0,540700
20,008667	0,5	-0,546400
20,017000	0,5	-0,549800
20,025333	0,5	-0,556600
20,033667	0,5	-0,564100
20,042000	0,5	-0,574200
20,050333	0,5	-0,577900
20,058667	0,5	-0,580200
20,067000	0,5	-0,574300
20,075333	0,5	-0,577750
20,083667	0,5	-0,573300
20,092000	0,5	-0,575200
20,100333	0,5	-0,565200
20,108667	0,5	-0,574350
20,117000	0,5	-0,572400
20,125333	0,5	-0,565950
20,133667	0,5	-0,560300
20,142000	0,5	-0,565650
20,150333	0,5	-0,572700
20,158667	0,5	-0,579150
20,167000	0,5	-0,574200
20,175333	0,5	-0,572000
20,183667	0,5	-0,567450
20,192000	0,5	-0,567050
20,200333	0,5	-0,565800
20,208667	0,5	-0,555550
20,217000	0,5	-0,544550
20,225333	0,5	-0,536950
20,233667	0,5	-0,530450
20,242000	0,5	-0,516450
20,250333	0,5	-0,502750
20,258667	0,5	-0,502600
20,267000	0,5	-0,482950
20,275333	0,5	-0,469750
20,283667	0,5	-0,475500
20,292000	0,5	-0,485950
20,300333	0,5	-0,524000
20,308667	0,5	-0,532400
20,317000	0,5	-0,538850
20,325333	0,5	-0,539750
20,333667	0,5	-0,548300
20,342000	0,5	-0,548550
20,350333	0,5	-0,558800
20,358667	0,5	-0,563950
20,367000	0,5	-0,564350
20,375333	0,5	-0,565300
20,383667	0,5	-0,563250
20,392000	0,5	-0,553250
20,400333	0,5	-0,547400
20,408667	0,5	-0,558650
20,417000	0,5	-0,535700
20,425333	0,5	-0,531600
20,433667	0,5	-0,526150
20,442000	0,5	-0,529800
20,450333	0,5	-0,544850
20,458667	0,5	-0,541250
20,467000	0,5	-0,551100
20,475333	0,5	-0,565050
20,483667	0,5	-0,571850
20,492000	0,5	-0,574850
20,500333	0,5	-0,578100
20,508667	0,5	-0,576350
20,517000	0,5	-0,573800
20,525333	0,5	-0,576650
20,533667	0,5	-0,574300
20,542000	0,5	-0,560650
20,550333	0,5	-0,558100
20,558667	0,5	-0,565750
20,567000	0,5	-0,559450
20,575333	0,5	-0,555200
20,583667	0,5	-0,560000
20,592000	0,5	-0,570250
20,600333	0,5	-0,579800
20,608667	0,5	-0,563500
20,617000	0,5	-0,557200
20,625333	0,5	-0,545450
20,633667	0,5	-0,541400
20,642000	0,5	-0,524600
20,650333	0,5	-0,515450
20,658667	0,5	-0,510000
20,667000	0,5	-0,516050
20,675333	0,5	-0,523850
20,683667	0,5	-0,518800
20,692000	0,5	-0,512500
20,700333	0,5	-0,525500
20,708667	0,5	-0,526500
20,717000	0,5	-0,522850
20,725333	0,5	-0,522400
20,733667	0,5	-0,534000
20,742000	0,5	-0,548750
20,750333	0,5	-0,547650
20,758667	0,5	-0,547100
20,767000	0,5	-0,537350
20,775333	0,5	-0,543100
20,783667	0,5	-0,541350
20,792000	0,5	-0,547500
20,800333	0,5	-0,542050
20,808667	0,5	-0,530450
20,817000	0,5	-0,527000
20,825333	0,5	-0,517700
20,833667	0,5	-0,492400
20,842000	0,5	-0,482500
20,850333	0,5	-0,484250
20,858667	0,5	-0,478900
20,867000	0,5	-0,481950
20,875333	0,5	-0,480600
20,883667	0,5	-0,491600
20,892000	0,5	-0,500650
20,900333	0,5	-0,492550
20,908667	0,5	-0,478400
20,917000	0,5	-0,470150
20,925333	0,5	-0,456850
20,933667	0,5	-0,453450
20,942000	0,5	-0,449600
20,950333	0,5	-0,447850
20,958667	0,5	-0,440700
20,967000	0,5	-0,435150
20,975333	0,5	-0,413850
20,983667	0,5	-0,396500
20,992000	0,5	-0,397350
21,000333	0,5	-0,404150
21,008667	0,5	-0,396650
21,017000	0,5	-0,403850
21,025333	0,5	-0,410600
21,033667	0,5	-0,419950
21,042000	0,5	-0,420100
21,050333	0,5	-0,412700
21,058667	0,5	-0,408950
21,067000	0,5	-0,402050
21,075333	0,5	-0,396450
21,083667	0,5	-0,390500
21,092000	0,5	-0,382050
21,100333	0,5	-0,374050
21,108667	0,5	-0,368650
21,117000	0,5	-0,364150
21,125333	0,5	-0,338150
21,133667	0,5	-0,321850
21,142000	0,5	-0,327600
21,150333	0,5	-0,327800
21,158667	0,5	-0,325700
21,167000	0,5	-0,333250
21,175333	0,5	-0,329700
21,183667	0,5	-0,328550
21,192000	0,5	-0,312800
21,200333	0,5	-0,304400
21,208667	0,5	-0,289800
21,217000	0,5	-0,283600
21,225333	0,5	-0,269250
21,233667	0,5	-0,270250
21,242000	0,5	-0,264550
21,250333	0,5	-0,258450
21,258667	0,5	-0,252000
21,267000	0,5	-0,235800
21,275333	0,5	-0,212000
21,283667	0,5	-0,201400
21,292000	0,5	-0,198900
21,300333	0,5	-0,195400
21,308667	0,5	-0,193950
21,317000	0,5	-0,184900
21,325333	0,5	-0,190300
21,333667	0,5	-0,162750
21,342000	0,5	-0,139350
21,350333	0,5	-0,106250
21,358667	0,5	-0,070400
21,367000	0,5	-0,034000
21,375333	0,5	-0,007400
21,383667	0,5	0,012300
21,392000	0,5	0,002000
21,400333	0,5	-0,003050
21,408667	0,5	-0,012000
21,417000	0,5	-0,002750
21,425333	0,5	0,005200
21,433667	0,5	0,001500
21,442000	0,5	0,005850
21,450333	0,5	0,005550
21,458667	0,5	0,009150
21,467000	0,5	0,003200
21,475333	0,5	-0,006100
21,483667	0,5	-0,001650
21,492000	0,5	-0,003850
21,500333	0,5	-0,004200
21,508667	0,5	0,001000
21,517000	0,5	0,004800
21,525333	0,5	0,014150
21,533667	0,5	0,021600
21,542000	0,5	0,034800
21,550333	0,5	0,042800
21,558667	0,5	0,066100
21,567000	0,5	0,096850
21,575333	0,5	0,122700
21,583667	0,5	0,132000
21,592000	0,5	0,134800
21,600333	0,5	0,145800
21,608667	0,5	0,147100
21,617000	0,5	0,148500
21,625333	0,5	0,154900
21,633667	0,5	0,177150
21,642000	0,5	0,190200
21,650333	0,5	0,206500
21,658667	0,5	0,222000
21,667000	0,5	0,239850
21,675333	0,5	0,255200
21,683667	0,5	0,273700
21,692000	0,5	0,283350
21,700333	0,5	0,297400
21,708667	0,5	0,329050
21,717000	0,5	0,354050
21,725333	0,5	0,361450
21,733667	0,5	0,376150
21,742000	0,5	0,387650
21,750333	0,5	0,395500
21,758667	0,5	0,400500
21,767000	0,5	0,407250
21,775333	0,5	0,431300
21,783667	0,5	0,442200
21,792000	0,5	0,466800
21,800333	0,5	0,481950
21,808667	0,5	0,509450
21,817000	0,5	0,529250
21,825333	0,5	0,558200
21,833667	0,5	0,578900
21,842000	0,5	0,600150
21,850333	0,5	0,632950
21,858667	0,5	0,673400
21,867000	0,5	0,705550
21,875333	0,5	0,722500
21,883667	0,5	0,750400
21,892000	0,5	0,768650
21,900333	0,5	0,799350
21,908667	0,5	0,808450
21,917000	0,5	0,836450
21,925333	0,5	0,865850
21,933667	0,5	0,908250
21,942000	0,5	0,931850
21,950333	0,5	0,966450
21,958667	0,5	0,990400
21,967000	0,5	1,017100
21,975333	0,5	1,034450
21,983667	0,5	1,045600
21,992000	0,5	1,059400
22,000333	0,5	1,083800
22,008667	0,5	1,106800
22,017000	0,5	1,115450
22,025333	0,5	1,142700
22,033667	0,5	1,169950
22,042000	0,5	1,189200
22,050333	0,5	1,201950
22,058667	0,5	1,221950
22,067000	0,5	1,247900
22,075333	0,5	1,278300
22,083667	0,5	1,297000
22,092000	0,5	1,331350
22,100333	0,5	1,359000
22,108667	0,5	1,392200
22,117000	0,5	1,422400
22,125333	0,5	1,455100
22,133667	0,5	1,489850
22,142000	0,5	1,525600
22,150333	0,5	1,572350
22,158667	0,5	1,590700
22,167000	0,5	1,626400
22,175333	0,5	1,657700
22,183667	0,5	1,686300
22,192000	0,5	1,706900
22,200333	0,5	1,736950
22,208667	0,5	1,774850
22,217000	0,5	1,820950
22,225333	0,5	1,858850
22,233667	0,5	1,906650
22,242000	0,5	1,948350
22,250333	0,5	1,998400
22,258667	0,5	2,041150
22,267000	0,5	2,085950
22,275333	0,5	2,125400
22,283667	0,5	2,162000
22,292000	0,5	2,207350
22,300333	0,5	2,251000
22,308667	0,5	2,288400
22,317000	0,5	2,345600
22,325333	0,5	2,388750
22,333667	0,5	2,426300
22,342000	0,5	2,467850
22,350333	0,5	2,498950
22,358667	0,5	2,563450
22,367000	0,5	2,613850
22,375333	0,5	2,669600
22,383667	0,5	2,720850
22,392000	0,5	2,782850
22,400333	0,5	2,832950
22,408667	0,5	2,889900
22,417000	0,5	2,948650
22,425333	0,5	3,003000
22,433667	0,5	3,058600
22,442000	0,5	3,094650
22,450333	0,5	3,154450
22,458667	0,5	3,222700
22,467000	0,5	3,291800
22,475333	0,5	3,340950
22,483667	0,5	3,395150
22,492000	0,5	3,439400
22,500333	0,5	3,498400
22,508667	0,5	3,557250
22,517000	0,5	3,621200
22,525333	0,5	3,672000
22,533667	0,5	3,735850
22,542000	0,5	3,789400
22,550333	0,5	3,846200
22,558667	0,5	3,899300
22,567000	0,5	3,947100
22,575333	0,5	3,987350
22,583667	0,5	4,003800
22,592000	0,5	4,049400
22,600333	0,5	4,091250
22,608667	0,5	4,147100
22,617000	0,5	4,174650
22,625333	0,5	4,197950
22,633667	0,5	4,209000
22,642000	0,5	4,212650
22,650333	0,5	4,217500
22,658667	0,5	4,239300
22,667000	0,5	4,227000
22,675333	0,5	4,222800
22,683667	0,5	4,212150
22,692000	0,5	4,198000
22,700333	0,5	4,180750
22,708667	0,5	4,155000
22,717000	0,5	4,123700
22,725333	0,5	4,081200
22,733667	0,5	3,986950
22,742000	0,5	3,949350
22,750333	0,5	3,902750
22,758667	0,5	3,841300
22,767000	0,5	3,752500
22,775333	0,5	3,661400
22,783667	0,5	3,562550
22,792000	0,5	3,451050
22,800333	0,5	3,356200
22,808667	0,5	3,248450
22,817000	0,5	3,145550
22,825333	0,5	3,031750
22,833667	0,5	2,923450
22,842000	0,5	2,812150
22,850333	0,5	2,699150
22,858667	0,5	2,582400
22,867000	0,5	2,460400
22,875333	0,5	2,321150
22,883667	0,5	2,156550
22,892000	0,5	2,035250
22,900333	0,5	1,913650
22,908667	0,5	1,759700
22,917000	0,5	1,617850
22,925333	0,5	1,469200
22,933667	0,5	1,339300
22,942000	0,5	1,191300
22,950333	0,5	1,063300
22,958667	0,5	0,925100
22,967000	0,5	0,804650
22,975333	0,5	0,676900
22,983667	0,5	0,567300
22,992000	0,5	0,444150
23,000333	0,5	0,335250
23,008667	0,5	0,224050
23,017000	0,5	0,117000
23,025333	0,5	0,033050
23,033667	0,5	-0,076600
23,042000	0,5	-0,183650
23,050333	0,5	-0,315650
23,058667	0,5	-0,409850
23,067000	0,5	-0,500000
23,075333	0,5	-0,575800
23,083667	0,5	-0,658300
23,092000	0,5	-0,733850
23,100333	0,5	-0,812100
23,108667	0,5	-0,871450
23,117000	0,5	-0,933450
23,125333	0,5	-0,978100
23,133667	0,5	-1,039100
23,142000	0,5	-1,081150
23,150333	0,5	-1,126750
23,158667	0,5	-1,174150
23,167000	0,5	-1,195150
23,175333	0,5	-1,253100
23,183667	0,5	-1,274850
23,192000	0,5	-1,330250
23,200333	0,5	-1,395850
23,208667	0,5	-1,436100
23,217000	0,5	-1,464250
23,225333	0,5	-1,480100
23,233667	0,5	-1,506850
23,242000	0,5	-1,533400
23,250333	0,5	-1,539450
23,258667	0,5	-1,558000
23,267000	0,5	-1,559900
23,275333	0,5	-1,572000
23,283667	0,5	-1,572150
23,292000	0,5	-1,579850
23,300333	0,5	-1,577200
23,308667	0,5	-1,583050
23,317000	0,5	-1,588600
23,325333	0,5	-1,585600
23,333667	0,5	-1,580450
23,342000	0,5	-1,592550
23,350333	0,5	-1,614250
23,358667	0,5	-1,626050
23,367000	0,5	-1,627900
23,375333	0,5	-1,619050
23,383667	0,5	-1,627150
23,392000	0,5	-1,620950
23,400333	0,5	-1,621100
23,408667	0,5	-1,608850
23,417000	0,5	-1,603250
23,425333	0,5	-1,586000
23,433667	0,5	-1,573900
23,442000	0,5	-1,558900
23,450333	0,5	-1,548350
23,458667	0,5	-1,529500
23,467000	0,5	-1,577750
23,475333	0,5	-1,534250
23,483667	0,5	-1,491700
23,492000	0,5	-1,483350
23,500333	0,5	-1,492050
23,508667	0,5	-1,482700
23,517000	0,5	-1,480150
23,525333	0,5	-1,468900
23,533667	0,5	-1,466500
23,542000	0,5	-1,456850
23,550333	0,5	-1,447000
23,558667	0,5	-1,436600
23,567000	0,5	-1,426900
23,575333	0,5	-1,415150
23,583667	0,5	-1,401450
23,592000	0,5	-1,388200
23,600333	0,5	-1,371400
23,608667	0,5	-1,383900
23,617000	0,5	-1,433400
23,625333	0,5	-1,375600
23,633667	0,5	-1,331650
23,642000	0,5	-1,304650
23,650333	0,5	-1,301300
23,658667	0,5	-1,289400
23,667000	0,5	-1,277900
23,675333	0,5	-1,267800
23,683667	0,5	-1,255200
23,692000	0,5	-1,243000
23,700333	0,5	-1,225650
23,708667	0,5	-1,212750
23,717000	0,5	-1,201850
23,725333	0,5	-1,191350
23,733667	0,5	-1,175400
23,742000	0,5	-1,163400
23,750333	0,5	-1,150300
23,758667	0,5	-1,256000
23,767000	0,5	-1,224250
23,775333	0,5	-1,179850
23,783667	0,5	-1,125550
23,792000	0,5	-1,101800
23,800333	0,5	-1,087750
23,808667	0,5	-1,081850
23,817000	0,5	-1,068400
23,825333	0,5	-1,056300
23,833667	0,5	-1,039800
23,842000	0,5	-1,026250
23,850333	0,5	-1,008400
23,858667	0,5	-0,991450
23,867000	0,5	-0,969950
23,875333	0,5	-0,956200
23,883667	0,5	-0,939050
23,892000	0,5	-0,924250
23,900333	0,5	-0,922300
23,908667	0,5	-1,022600
23,917000	0,5	-0,990450
23,925333	0,5	-0,936600
23,933667	0,5	-0,890500
23,942000	0,5	-0,862900
23,950333	0,5	-0,852550
23,958667	0,5	-0,840950
23,967000	0,5	-0,838450
23,975333	0,5	-0,824950
23,983667	0,5	-0,811950
23,992000	0,5	-0,795450
24,000333	0,5	-0,782050
24,008667	0,5	-0,765250
24,017000	0,5	-0,747050
24,025333	0,5	-0,728150
24,033667	0,5	-0,717000
24,042000	0,5	-0,703750
24,050333	0,5	-0,763250
24,058667	0,5	-0,788550
24,067000	0,5	-0,757850
24,075333	0,5	-0,695550
24,083667	0,5	-0,653350
24,092000	0,5	-0,633300
24,100333	0,5	-0,618550
24,108667	0,5	-0,618700
24,117000	0,5	-0,600550
24,125333	0,5	-0,587750
24,133667	0,5	-0,576100
24,142000	0,5	-0,563200
24,150333	0,5	-0,547950
24,158667	0,5	-0,536050
24,167000	0,5	-0,517600
24,175333	0,5	-0,507800
24,183667	0,5	-0,495100
24,192000	0,5	-0,485750
24,200333	0,5	-0,586850
24,208667	0,5	-0,551900
24,217000	0,5	-0,531200
24,225333	0,5	-0,476250
24,233667	0,5	-0,451500
24,242000	0,5	-0,437600
24,250333	0,5	-0,424400
24,258667	0,5	-0,421550
24,267000	0,5	-0,409000
24,275333	0,5	-0,386650
24,283667	0,5	-0,378350
24,292000	0,5	-0,362600
24,300333	0,5	-0,353400
24,308667	0,5	-0,336050
24,317000	0,5	-0,326650
24,325333	0,5	-0,314300
24,333667	0,5	-0,310750
24,342000	0,5	-0,317400
24,350333	0,5	-0,381750
24,358667	0,5	-0,346800
24,367000	0,5	-0,328600
24,375333	0,5	-0,287050
24,383667	0,5	-0,273850
24,392000	0,5	-0,261350
24,400333	0,5	-0,258100
24,408667	0,5	-0,264050
24,417000	0,5	-0,245500
24,425333	0,5	-0,242950
24,433667	0,5	-0,227200
24,442000	0,5	-0,218300
24,450333	0,5	-0,207550
24,458667	0,5	-0,199550
24,467000	0,5	-0,184050
24,475333	0,5	-0,179150
24,483667	0,5	-0,167850
24,492000	0,5	-0,215100
24,500333	0,5	-0,213850
24,508667	0,5	-0,194300
24,517000	0,5	-0,166900
24,525333	0,5	-0,146350
24,533667	0,5	-0,136950
24,542000	0,5	-0,130450
24,550333	0,5	-0,126900
24,558667	0,5	-0,130350
24,567000	0,5	-0,119400
24,575333	0,5	-0,109350
24,583667	0,5	-0,101600
24,592000	0,5	-0,098300
24,600333	0,5	-0,095000
24,608667	0,5	-0,084550
24,617000	0,5	-0,080350
24,625333	0,5	-0,075450
24,633667	0,5	-0,072450
24,642000	0,5	-0,116650
24,650333	0,5	-0,103100
24,658667	0,5	-0,084700
24,667000	0,5	-0,063500
24,675333	0,5	-0,048300
24,683667	0,5	-0,042600
24,692000	0,5	-0,036550
24,700333	0,5	-0,042300
24,708667	0,5	-0,039900
24,717000	0,5	-0,038500
24,725333	0,5	-0,029450
24,733667	0,5	-0,022750
24,742000	0,5	-0,015450
24,750333	0,5	-0,010150
24,758667	0,5	-0,005400
24,767000	0,5	-0,000500
24,775333	0,5	0,002500
24,783667	0,5	-0,000250
24,792000	0,5	-0,033450
24,800333	0,5	-0,016200
24,808667	0,5	-0,005250
24,817000	0,5	0,006850
24,825333	0,5	0,014300
24,833667	0,5	0,018950
24,842000	0,5	0,018600
24,850333	0,5	0,018500
24,858667	0,5	0,019300
24,867000	0,5	0,027450
24,875333	0,5	0,031500
24,883667	0,5	0,035500
24,892000	0,5	0,041550
24,900333	0,5	0,045450
24,908667	0,5	0,052000
24,917000	0,5	0,050650
24,925333	0,5	0,054300
24,933667	0,5	0,039150
24,942000	0,5	0,037950
24,950333	0,5	0,041900
24,958667	0,5	0,050050
24,967000	0,5	0,060250
24,975333	0,5	0,060650
24,983667	0,5	0,061100
24,992000	0,5	0,060000
25,000333	0,5	0,060800
25,008667	0,5	0,059250
25,017000	0,5	0,061200
25,025333	0,5	0,068300
25,033667	0,5	0,065600
25,042000	0,5	0,071650
25,050333	0,5	0,074000
25,058667	0,5	0,074800
25,067000	0,5	0,081600
25,075333	0,5	0,079600
25,083667	0,5	0,067750
25,092000	0,5	0,075550
25,100333	0,5	0,077650
25,108667	0,5	0,084100
25,117000	0,5	0,088250
25,125333	0,5	0,088500
25,133667	0,5	0,086950
25,142000	0,5	0,082900
25,150333	0,5	0,085050
25,158667	0,5	0,085750
25,167000	0,5	0,087600
25,175333	0,5	0,087000
25,183667	0,5	0,085850
25,192000	0,5	0,087250
25,200333	0,5	0,090050
25,208667	0,5	0,088500
25,217000	0,5	0,090800
25,225333	0,5	0,092850
25,233667	0,5	0,084750
25,242000	0,5	0,092600
25,250333	0,5	0,094100
25,258667	0,5	0,095550
25,267000	0,5	0,097200
25,275333	0,5	0,095650
25,283667	0,5	0,099150
25,292000	0,5	0,094150
25,300333	0,5	0,095100
25,308667	0,5	0,095600
25,317000	0,5	0,097650
25,325333	0,5	0,094650
25,333667	0,5	0,093600
25,342000	0,5	0,094400
25,350333	0,5	0,093300
25,358667	0,5	0,091700
25,367000	0,5	0,092100
25,375333	0,5	0,086650
25,383667	0,5	0,094300
25,392000	0,5	0,093550
25,400333	0,5	0,095800
25,408667	0,5	0,092100
25,417000	0,5	0,093750
25,425333	0,5	0,094350
25,433667	0,5	0,093200
25,442000	0,5	0,092050
25,450333	0,5	0,094500
25,458667	0,5	0,093700
25,467000	0,5	0,092100
25,475333	0,5	0,092650
25,483667	0,5	0,092050
25,492000	0,5	0,091050
25,500333	0,5	0,091050
25,508667	0,5	0,089250
25,517000	0,5	0,088550
25,525333	0,5	0,091300
25,533667	0,5	0,091300
25,542000	0,5	0,088400
25,550333	0,5	0,085850
25,558667	0,5	0,086500
25,567000	0,5	0,085850
25,575333	0,5	0,084300
25,583667	0,5	0,086400
25,592000	0,5	0,087100
25,600333	0,5	0,087300
25,608667	0,5	0,084000
25,617000	0,5	0,085150
25,625333	0,5	0,083300
25,633667	0,5	0,084400
25,642000	0,5	0,083350
25,650333	0,5	0,082250
25,658667	0,5	0,081700
25,667000	0,5	0,081700
25,675333	0,5	0,085150
25,683667	0,5	0,085850
25,692000	0,5	0,088550
25,700333	0,5	0,079900
25,708667	0,5	0,080100
25,717000	0,5	0,077200
25,725333	0,5	0,078800
25,733667	0,5	0,080200
25,742000	0,5	0,079450
25,750333	0,5	0,080900
25,758667	0,5	0,080550
25,767000	0,5	0,080300
25,775333	0,5	0,076900
25,783667	0,5	0,079050
25,792000	0,5	0,077100
25,800333	0,5	0,075750
25,808667	0,5	0,079250
25,817000	0,5	0,080550
25,825333	0,5	0,083500
25,833667	0,5	0,084600
25,842000	0,5	0,082000
25,850333	0,5	0,072100
25,858667	0,5	0,075950
25,867000	0,5	0,074450
25,875333	0,5	0,078250
25,883667	0,5	0,079000
25,892000	0,5	0,081550
25,900333	0,5	0,074800
25,908667	0,5	0,077950
25,917000	0,5	0,075350
25,925333	0,5	0,075450
25,933667	0,5	0,077800
25,942000	0,5	0,074450
25,950333	0,5	0,076050
25,958667	0,5	0,076200
25,967000	0,5	0,080000
25,975333	0,5	0,078850
25,983667	0,5	0,088500
25,992000	0,5	0,081050
26,000333	0,5	0,079400
