File Path	chrom://chromeleon01/ikbm_chromeleon/2022/ICS-5000/ED1/Esteban/20220612_Cell_7_4_eg.seq/733.smp/ED_1.channel/ED_1.chm
Channel	ED_1

Injection Information:
Data Vault	ikbm_chromeleon
Injection	4_24h-EGS_2
Injection Number	29
Position	RC7
Comment	
Processing Method	Stop sequence after Cell Death
Instrument Method	ICS5000_PA200_FullNative_Ox_26min_ED1
Type	Unknown
Status	Finished
Injection Date	13.06.2022
Injection Time	05:22:30
Injection Volume (µl)	5,0
Dilution Factor	1,0000
Weight	1,0000

Chromatogram Data Information:
Time Min. (min)	0,000167
Time Max. (min)	26,000167
Data Points	3121
Detector	EDet1
Generating Data System	Chromeleon 7.2.9.11323
Exporting Data System	Chromeleon 7.2.9.0
Operator	Instrument Controller
Signal Quantity	
Signal Unit	nC
Signal Min.	-1,618700
Signal Max.	2 885,085643
Channel	ED_1
Driver Name	DC-5000
Channel Type	Evaluation
Min. Step (s)	0,5
Max. Step (s)	0,5
Average Step (s)	0,5

Signal Parameter Information:
Signal Info	

Chromatogram Data:
Time (min)	Step (s)	Value (nC)
0,000167	n.a.	-0,048900
0,008500	0,5	-0,051200
0,016833	0,5	-0,046500
0,025167	0,5	-0,039750
0,033500	0,5	-0,029400
0,041833	0,5	-0,019100
0,050167	0,5	-0,029350
0,058500	0,5	-0,003100
0,066833	0,5	-0,015500
0,075167	0,5	-0,032450
0,083500	0,5	-0,034350
0,091833	0,5	-0,028000
0,100167	0,5	-0,008050
0,108500	0,5	-0,002300
0,116833	0,5	-0,010650
0,125167	0,5	0,003600
0,133500	0,5	-0,002200
0,141833	0,5	0,001300
0,150167	0,5	-0,013050
0,158500	0,5	-0,005900
0,166833	0,5	-0,013100
0,175167	0,5	-0,009200
0,183500	0,5	-0,013150
0,191833	0,5	-0,015800
0,200167	0,5	-0,025650
0,208500	0,5	-0,001750
0,216833	0,5	-0,021900
0,225167	0,5	-0,021650
0,233500	0,5	-0,024350
0,241833	0,5	-0,017350
0,250167	0,5	0,005550
0,258500	0,5	-0,005800
0,266833	0,5	-0,008950
0,275167	0,5	-0,011850
0,283500	0,5	-0,001450
0,291833	0,5	0,010750
0,300167	0,5	0,037400
0,308500	0,5	0,020350
0,316833	0,5	-0,001350
0,325167	0,5	-0,017300
0,333500	0,5	-0,020250
0,341833	0,5	-0,028550
0,350167	0,5	-0,026950
0,358500	0,5	-0,013950
0,366833	0,5	-0,025100
0,375167	0,5	-0,025150
0,383500	0,5	-0,022300
0,391833	0,5	-0,019850
0,400167	0,5	0,005850
0,408500	0,5	-0,000750
0,416833	0,5	-0,001350
0,425167	0,5	-0,003700
0,433500	0,5	-0,006700
0,441833	0,5	-0,003500
0,450167	0,5	-0,010250
0,458500	0,5	-0,008500
0,466833	0,5	-0,015500
0,475167	0,5	-0,009150
0,483500	0,5	-0,014350
0,491833	0,5	-0,018200
0,500167	0,5	-0,021350
0,508500	0,5	-0,002350
0,516833	0,5	-0,020550
0,525167	0,5	-0,017800
0,533500	0,5	-0,015750
0,541833	0,5	0,002200
0,550167	0,5	0,013150
0,558500	0,5	0,007150
0,566833	0,5	0,000600
0,575167	0,5	0,003350
0,583500	0,5	0,005450
0,591833	0,5	0,004100
0,600167	0,5	0,007000
0,608500	0,5	0,010850
0,616833	0,5	0,011400
0,625167	0,5	0,007300
0,633500	0,5	0,004600
0,641833	0,5	-0,007600
0,650167	0,5	0,006050
0,658500	0,5	0,003450
0,666833	0,5	-0,001700
0,675167	0,5	-0,004350
0,683500	0,5	0,006350
0,691833	0,5	0,019700
0,700167	0,5	0,035750
0,708500	0,5	0,027800
0,716833	0,5	0,029900
0,725167	0,5	0,025250
0,733500	0,5	0,031750
0,741833	0,5	0,027600
0,750167	0,5	0,026150
0,758500	0,5	0,025600
0,766833	0,5	0,025650
0,775167	0,5	0,026850
0,783500	0,5	0,008600
0,791833	0,5	0,011200
0,800167	0,5	0,027700
0,808500	0,5	0,019200
0,816833	0,5	0,012750
0,825167	0,5	0,013600
0,833500	0,5	0,027250
0,841833	0,5	0,043350
0,850167	0,5	0,048300
0,858500	0,5	0,052600
0,866833	0,5	0,042400
0,875167	0,5	0,049050
0,883500	0,5	0,043850
0,891833	0,5	0,052300
0,900167	0,5	0,046800
0,908500	0,5	0,047800
0,916833	0,5	0,050350
0,925167	0,5	0,045250
0,933500	0,5	0,034150
0,941833	0,5	0,043100
0,950167	0,5	0,047150
0,958500	0,5	0,038800
0,966833	0,5	0,040250
0,975167	0,5	0,042100
0,983500	0,5	0,058950
0,991833	0,5	0,072350
1,000167	0,5	0,075500
1,008500	0,5	0,066900
1,016833	0,5	0,073800
1,025167	0,5	0,070500
1,033500	0,5	0,072000
1,041833	0,5	0,069450
1,050167	0,5	0,068600
1,058500	0,5	0,067800
1,066833	0,5	0,067550
1,075167	0,5	0,062800
1,083500	0,5	0,063150
1,091833	0,5	0,077300
1,100167	0,5	0,074200
1,108500	0,5	0,060800
1,116833	0,5	0,058350
1,125167	0,5	0,065150
1,133500	0,5	0,080100
1,141833	0,5	0,089750
1,150167	0,5	0,078700
1,158500	0,5	0,080600
1,166833	0,5	0,079750
1,175167	0,5	0,084900
1,183500	0,5	0,082950
1,191833	0,5	0,083900
1,200167	0,5	0,078650
1,208500	0,5	0,078850
1,216833	0,5	0,078550
1,225167	0,5	0,073050
1,233500	0,5	0,063750
1,241833	0,5	0,080850
1,250167	0,5	0,064250
1,258500	0,5	0,060900
1,266833	0,5	0,061250
1,275167	0,5	0,066050
1,283500	0,5	0,086100
1,291833	0,5	0,077850
1,300167	0,5	0,069600
1,308500	0,5	0,067250
1,316833	0,5	0,065200
1,325167	0,5	0,067950
1,333500	0,5	0,065800
1,341833	0,5	0,060750
1,350167	0,5	0,057400
1,358500	0,5	0,053400
1,366833	0,5	0,054750
1,375167	0,5	0,038800
1,383500	0,5	0,034750
1,391833	0,5	0,047300
1,400167	0,5	0,028050
1,408500	0,5	0,024400
1,416833	0,5	0,025800
1,425167	0,5	0,025550
1,433500	0,5	0,043450
1,441833	0,5	0,032150
1,450167	0,5	0,028800
1,458500	0,5	0,023050
1,466833	0,5	0,028600
1,475167	0,5	0,025250
1,483500	0,5	0,023250
1,491833	0,5	0,013850
1,500167	0,5	0,006050
1,508500	0,5	0,004100
1,516833	0,5	-0,007200
1,525167	0,5	-0,016250
1,533500	0,5	-0,017550
1,541833	0,5	-0,013350
1,550167	0,5	-0,021450
1,558500	0,5	0,019150
1,566833	0,5	0,173300
1,575167	0,5	1,021150
1,583500	0,5	6,238150
1,591833	0,5	31,670400
1,600167	0,5	129,009502
1,608500	0,5	442,080257
1,616833	0,5	1 187,085618
1,625167	0,5	1 562,422923
1,633500	0,5	2 823,909242
1,641833	0,5	2 885,085643
1,650167	0,5	2 822,048092
1,658500	0,5	2 593,275239
1,666833	0,5	2 037,665080
1,675167	0,5	1 375,835821
1,683500	0,5	907,555114
1,691833	0,5	638,490710
1,700167	0,5	478,601207
1,708500	0,5	379,651156
1,716833	0,5	311,256105
1,725167	0,5	261,563154
1,733500	0,5	222,795203
1,741833	0,5	190,854803
1,750167	0,5	164,401102
1,758500	0,5	143,473102
1,766833	0,5	128,066652
1,775167	0,5	117,245452
1,783500	0,5	109,109102
1,791833	0,5	101,461602
1,800167	0,5	93,550651
1,808500	0,5	86,144451
1,816833	0,5	80,191151
1,825167	0,5	76,332901
1,833500	0,5	74,905451
1,841833	0,5	75,649251
1,850167	0,5	77,299951
1,858500	0,5	77,213301
1,866833	0,5	73,465751
1,875167	0,5	67,247851
1,883500	0,5	61,320201
1,891833	0,5	57,457951
1,900167	0,5	56,359751
1,908500	0,5	58,791601
1,916833	0,5	65,282351
1,925167	0,5	75,276301
1,933500	0,5	85,876451
1,941833	0,5	91,583001
1,950167	0,5	87,974101
1,958500	0,5	76,949851
1,966833	0,5	64,790301
1,975167	0,5	55,556351
1,983500	0,5	48,989951
1,991833	0,5	44,091751
2,000167	0,5	40,800251
2,008500	0,5	38,672301
2,016833	0,5	36,670351
2,025167	0,5	34,428151
2,033500	0,5	32,184050
2,041833	0,5	30,051300
2,050167	0,5	28,226700
2,058500	0,5	27,061500
2,066833	0,5	26,736700
2,075167	0,5	26,799200
2,083500	0,5	26,435050
2,091833	0,5	25,428100
2,100167	0,5	24,244100
2,108500	0,5	23,258350
2,116833	0,5	22,575900
2,125167	0,5	22,218200
2,133500	0,5	22,042950
2,141833	0,5	21,786150
2,150167	0,5	21,339450
2,158500	0,5	20,794700
2,166833	0,5	20,286450
2,175167	0,5	19,847850
2,183500	0,5	19,612400
2,191833	0,5	19,856150
2,200167	0,5	21,067050
2,208500	0,5	22,485650
2,216833	0,5	22,136000
2,225167	0,5	20,699700
2,233500	0,5	19,803950
2,241833	0,5	19,541000
2,250167	0,5	19,663400
2,258500	0,5	20,075000
2,266833	0,5	20,689550
2,275167	0,5	21,473450
2,283500	0,5	22,372150
2,291833	0,5	23,739550
2,300167	0,5	26,114750
2,308500	0,5	29,867550
2,316833	0,5	34,359751
2,325167	0,5	38,009351
2,333500	0,5	39,614751
2,341833	0,5	39,245301
2,350167	0,5	38,199101
2,358500	0,5	38,412901
2,366833	0,5	41,491651
2,375167	0,5	47,934251
2,383500	0,5	57,912701
2,391833	0,5	74,533351
2,400167	0,5	105,144552
2,408500	0,5	153,219452
2,416833	0,5	204,864253
2,425167	0,5	233,328053
2,433500	0,5	224,359703
2,441833	0,5	188,549253
2,450167	0,5	146,432502
2,458500	0,5	112,048552
2,466833	0,5	89,976651
2,475167	0,5	79,856501
2,483500	0,5	80,424751
2,491833	0,5	89,873951
2,500167	0,5	104,475952
2,508500	0,5	117,044202
2,516833	0,5	119,893852
2,525167	0,5	110,456852
2,533500	0,5	92,969601
2,541833	0,5	73,995201
2,550167	0,5	57,961551
2,558500	0,5	46,241601
2,566833	0,5	38,333601
2,575167	0,5	33,124300
2,583500	0,5	29,649400
2,591833	0,5	27,305700
2,600167	0,5	25,746650
2,608500	0,5	24,847950
2,616833	0,5	24,485950
2,625167	0,5	24,411650
2,633500	0,5	24,248550
2,641833	0,5	23,723350
2,650167	0,5	22,755500
2,658500	0,5	21,589250
2,666833	0,5	20,492350
2,675167	0,5	19,663950
2,683500	0,5	19,150350
2,691833	0,5	18,941100
2,700167	0,5	19,057550
2,708500	0,5	19,667600
2,716833	0,5	21,121400
2,725167	0,5	23,707050
2,733500	0,5	27,159250
2,741833	0,5	30,327850
2,750167	0,5	31,745250
2,758500	0,5	30,802200
2,766833	0,5	28,004050
2,775167	0,5	24,493950
2,783500	0,5	21,320450
2,791833	0,5	18,945850
2,800167	0,5	17,384850
2,808500	0,5	16,464900
2,816833	0,5	16,039400
2,825167	0,5	15,950450
2,833500	0,5	16,042750
2,841833	0,5	16,075100
2,850167	0,5	15,855600
2,858500	0,5	15,357450
2,866833	0,5	14,692000
2,875167	0,5	13,967500
2,883500	0,5	13,336250
2,891833	0,5	12,848100
2,900167	0,5	12,494200
2,908500	0,5	12,238550
2,916833	0,5	12,016400
2,925167	0,5	11,806150
2,933500	0,5	11,597750
2,941833	0,5	11,407000
2,950167	0,5	11,263350
2,958500	0,5	11,162900
2,966833	0,5	11,076500
2,975167	0,5	10,983200
2,983500	0,5	10,840250
2,991833	0,5	10,648400
3,000167	0,5	10,394800
3,008500	0,5	10,132700
3,016833	0,5	9,854300
3,025167	0,5	9,603450
3,033500	0,5	9,396550
3,041833	0,5	9,257900
3,050167	0,5	9,171950
3,058500	0,5	9,119550
3,066833	0,5	9,067650
3,075167	0,5	9,007350
3,083500	0,5	8,930250
3,091833	0,5	8,844950
3,100167	0,5	8,753200
3,108500	0,5	8,680000
3,116833	0,5	8,615400
3,125167	0,5	8,544400
3,133500	0,5	8,468450
3,141833	0,5	8,374000
3,150167	0,5	8,269400
3,158500	0,5	8,183750
3,166833	0,5	8,082550
3,175167	0,5	7,988000
3,183500	0,5	7,903400
3,191833	0,5	7,821950
3,200167	0,5	7,761300
3,208500	0,5	7,680550
3,216833	0,5	7,604150
3,225167	0,5	7,528850
3,233500	0,5	7,459400
3,241833	0,5	7,390950
3,250167	0,5	7,327500
3,258500	0,5	7,268350
3,266833	0,5	7,212350
3,275167	0,5	7,166100
3,283500	0,5	7,122700
3,291833	0,5	7,094350
3,300167	0,5	7,053350
3,308500	0,5	7,045800
3,316833	0,5	7,013050
3,325167	0,5	7,010850
3,333500	0,5	7,019250
3,341833	0,5	7,056000
3,350167	0,5	7,133700
3,358500	0,5	7,238950
3,366833	0,5	7,406300
3,375167	0,5	7,670100
3,383500	0,5	8,052000
3,391833	0,5	8,570600
3,400167	0,5	9,191900
3,408500	0,5	9,863750
3,416833	0,5	10,478400
3,425167	0,5	10,939900
3,433500	0,5	11,191050
3,441833	0,5	11,245250
3,450167	0,5	11,212450
3,458500	0,5	11,224550
3,466833	0,5	11,328000
3,475167	0,5	11,570350
3,483500	0,5	11,854850
3,491833	0,5	12,041250
3,500167	0,5	11,993750
3,508500	0,5	11,621100
3,516833	0,5	10,983050
3,525167	0,5	10,164900
3,533500	0,5	9,329700
3,541833	0,5	8,566850
3,550167	0,5	7,965700
3,558500	0,5	7,524900
3,566833	0,5	7,248850
3,575167	0,5	7,082200
3,583500	0,5	6,993150
3,591833	0,5	6,939300
3,600167	0,5	6,919600
3,608500	0,5	6,908000
3,616833	0,5	6,899650
3,625167	0,5	6,920750
3,633500	0,5	6,969400
3,641833	0,5	7,051000
3,650167	0,5	7,143350
3,658500	0,5	7,230550
3,666833	0,5	7,289600
3,675167	0,5	7,320950
3,683500	0,5	7,312400
3,691833	0,5	7,254400
3,700167	0,5	7,164200
3,708500	0,5	7,060250
3,716833	0,5	6,950400
3,725167	0,5	6,850000
3,733500	0,5	6,738400
3,741833	0,5	6,653800
3,750167	0,5	6,575450
3,758500	0,5	6,496250
3,766833	0,5	6,418700
3,775167	0,5	6,365900
3,783500	0,5	6,326000
3,791833	0,5	6,309100
3,800167	0,5	6,305200
3,808500	0,5	6,312950
3,816833	0,5	6,330250
3,825167	0,5	6,355550
3,833500	0,5	6,379000
3,841833	0,5	6,378600
3,850167	0,5	6,360650
3,858500	0,5	6,310650
3,866833	0,5	6,256200
3,875167	0,5	6,187800
3,883500	0,5	6,117300
3,891833	0,5	6,057150
3,900167	0,5	6,015250
3,908500	0,5	5,969150
3,916833	0,5	5,942150
3,925167	0,5	5,926400
3,933500	0,5	5,929250
3,941833	0,5	5,934550
3,950167	0,5	5,936600
3,958500	0,5	5,931650
3,966833	0,5	5,931750
3,975167	0,5	5,929500
3,983500	0,5	5,920950
3,991833	0,5	5,912450
4,000167	0,5	5,899850
4,008500	0,5	5,891000
4,016833	0,5	5,880850
4,025167	0,5	5,863950
4,033500	0,5	5,814050
4,041833	0,5	5,741400
4,050167	0,5	5,592800
4,058500	0,5	5,383250
4,066833	0,5	5,150700
4,075167	0,5	4,938950
4,083500	0,5	4,759750
4,091833	0,5	4,618550
4,100167	0,5	4,495100
4,108500	0,5	4,410850
4,116833	0,5	4,348400
4,125167	0,5	4,311350
4,133500	0,5	4,285850
4,141833	0,5	4,275000
4,150167	0,5	4,261500
4,158500	0,5	4,255900
4,166833	0,5	4,252800
4,175167	0,5	4,236300
4,183500	0,5	4,222550
4,191833	0,5	4,218800
4,200167	0,5	4,192200
4,208500	0,5	4,167600
4,216833	0,5	4,141650
4,225167	0,5	4,125200
4,233500	0,5	4,120000
4,241833	0,5	4,113750
4,250167	0,5	4,122550
4,258500	0,5	4,136350
4,266833	0,5	4,174300
4,275167	0,5	4,203200
4,283500	0,5	4,234950
4,291833	0,5	4,253600
4,300167	0,5	4,264700
4,308500	0,5	4,258700
4,316833	0,5	4,242900
4,325167	0,5	4,213050
4,333500	0,5	4,173050
4,341833	0,5	4,147250
4,350167	0,5	4,107050
4,358500	0,5	4,086500
4,366833	0,5	4,075150
4,375167	0,5	4,076700
4,383500	0,5	4,094500
4,391833	0,5	4,111250
4,400167	0,5	4,129750
4,408500	0,5	4,156000
4,416833	0,5	4,177100
4,425167	0,5	4,203550
4,433500	0,5	4,214650
4,441833	0,5	4,223700
4,450167	0,5	4,219900
4,458500	0,5	4,214500
4,466833	0,5	4,206950
4,475167	0,5	4,190300
4,483500	0,5	4,171400
4,491833	0,5	4,168650
4,500167	0,5	4,144700
4,508500	0,5	4,135100
4,516833	0,5	4,121700
4,525167	0,5	4,115200
4,533500	0,5	4,112150
4,541833	0,5	4,096350
4,550167	0,5	4,085400
4,558500	0,5	4,079800
4,566833	0,5	4,080950
4,575167	0,5	4,080300
4,583500	0,5	4,086750
4,591833	0,5	4,088200
4,600167	0,5	4,103700
4,608500	0,5	4,107050
4,616833	0,5	4,102600
4,625167	0,5	4,092150
4,633500	0,5	4,085750
4,641833	0,5	4,064300
4,650167	0,5	4,037200
4,658500	0,5	4,011300
4,666833	0,5	3,988150
4,675167	0,5	3,967950
4,683500	0,5	3,948300
4,691833	0,5	3,918150
4,700167	0,5	3,895100
4,708500	0,5	3,869500
4,716833	0,5	3,853050
4,725167	0,5	3,830550
4,733500	0,5	3,820350
4,741833	0,5	3,813050
4,750167	0,5	3,817000
4,758500	0,5	3,840300
4,766833	0,5	3,857100
4,775167	0,5	3,909000
4,783500	0,5	3,985850
4,791833	0,5	4,070850
4,800167	0,5	4,171650
4,808500	0,5	4,295700
4,816833	0,5	4,420800
4,825167	0,5	4,558900
4,833500	0,5	4,681100
4,841833	0,5	4,794750
4,850167	0,5	4,899300
4,858500	0,5	5,015700
4,866833	0,5	5,129100
4,875167	0,5	5,278200
4,883500	0,5	5,460050
4,891833	0,5	5,712800
4,900167	0,5	6,077250
4,908500	0,5	6,601750
4,916833	0,5	7,359300
4,925167	0,5	8,451850
4,933500	0,5	9,954050
4,941833	0,5	11,885700
4,950167	0,5	14,228400
4,958500	0,5	16,849400
4,966833	0,5	19,517400
4,975167	0,5	21,928350
4,983500	0,5	23,791150
4,991833	0,5	24,891100
5,000167	0,5	25,155400
5,008500	0,5	24,581200
5,016833	0,5	23,311300
5,025167	0,5	21,524700
5,033500	0,5	19,435350
5,041833	0,5	17,242350
5,050167	0,5	15,103400
5,058500	0,5	13,129650
5,066833	0,5	11,372950
5,075167	0,5	9,888750
5,083500	0,5	8,658800
5,091833	0,5	7,651450
5,100167	0,5	6,853550
5,108500	0,5	6,227600
5,116833	0,5	5,743600
5,125167	0,5	5,364700
5,133500	0,5	5,054000
5,141833	0,5	4,817550
5,150167	0,5	4,622050
5,158500	0,5	4,469850
5,166833	0,5	4,339250
5,175167	0,5	4,237100
5,183500	0,5	4,145200
5,191833	0,5	4,075250
5,200167	0,5	4,016000
5,208500	0,5	3,962650
5,216833	0,5	3,912550
5,225167	0,5	3,893550
5,233500	0,5	3,852400
5,241833	0,5	3,822050
5,250167	0,5	3,794950
5,258500	0,5	3,772150
5,266833	0,5	3,757950
5,275167	0,5	3,732350
5,283500	0,5	3,711150
5,291833	0,5	3,688950
5,300167	0,5	3,674650
5,308500	0,5	3,659500
5,316833	0,5	3,649800
5,325167	0,5	3,642500
5,333500	0,5	3,644600
5,341833	0,5	3,660950
5,350167	0,5	3,689000
5,358500	0,5	3,734800
5,366833	0,5	3,793600
5,375167	0,5	3,875350
5,383500	0,5	3,963650
5,391833	0,5	4,077000
5,400167	0,5	4,217250
5,408500	0,5	4,377750
5,416833	0,5	4,571500
5,425167	0,5	4,766900
5,433500	0,5	4,985750
5,441833	0,5	5,215850
5,450167	0,5	5,453700
5,458500	0,5	5,686650
5,466833	0,5	5,898750
5,475167	0,5	6,083700
5,483500	0,5	6,227950
5,491833	0,5	6,326600
5,500167	0,5	6,361350
5,508500	0,5	6,330800
5,516833	0,5	6,233850
5,525167	0,5	6,083800
5,533500	0,5	5,865200
5,541833	0,5	5,616400
5,550167	0,5	5,613050
5,558500	0,5	5,044000
5,566833	0,5	4,759000
5,575167	0,5	4,479850
5,583500	0,5	4,219800
5,591833	0,5	3,993600
5,600167	0,5	3,799200
5,608500	0,5	3,639000
5,616833	0,5	3,507850
5,625167	0,5	3,401350
5,633500	0,5	3,325950
5,641833	0,5	3,264300
5,650167	0,5	3,221100
5,658500	0,5	3,186900
5,666833	0,5	3,167450
5,675167	0,5	3,156650
5,683500	0,5	3,149000
5,691833	0,5	3,154600
5,700167	0,5	3,172900
5,708500	0,5	3,201400
5,716833	0,5	3,241350
5,725167	0,5	3,272050
5,733500	0,5	3,300300
5,741833	0,5	3,319500
5,750167	0,5	3,326350
5,758500	0,5	3,317550
5,766833	0,5	3,296500
5,775167	0,5	3,266900
5,783500	0,5	3,232650
5,791833	0,5	3,193600
5,800167	0,5	3,148250
5,808500	0,5	3,112100
5,816833	0,5	3,086450
5,825167	0,5	3,059200
5,833500	0,5	3,036800
5,841833	0,5	3,021900
5,850167	0,5	3,006400
5,858500	0,5	2,999050
5,866833	0,5	2,978400
5,875167	0,5	2,955850
5,883500	0,5	2,927950
5,891833	0,5	2,903500
5,900167	0,5	2,871050
5,908500	0,5	2,843700
5,916833	0,5	2,818400
5,925167	0,5	2,800250
5,933500	0,5	2,779200
5,941833	0,5	2,763650
5,950167	0,5	2,744500
5,958500	0,5	2,738050
5,966833	0,5	2,731600
5,975167	0,5	2,719600
5,983500	0,5	2,709600
5,991833	0,5	2,705900
6,000167	0,5	2,708050
6,008500	0,5	2,716050
6,016833	0,5	2,716250
6,025167	0,5	2,719400
6,033500	0,5	2,726650
6,041833	0,5	2,734550
6,050167	0,5	2,739400
6,058500	0,5	2,738050
6,066833	0,5	2,733900
6,075167	0,5	2,727850
6,083500	0,5	2,717100
6,091833	0,5	2,706300
6,100167	0,5	2,687350
6,108500	0,5	2,678150
6,116833	0,5	2,662550
6,125167	0,5	2,642300
6,133500	0,5	2,632300
6,141833	0,5	2,624350
6,150167	0,5	2,624650
6,158500	0,5	2,624450
6,166833	0,5	2,617700
6,175167	0,5	2,619050
6,183500	0,5	2,619350
6,191833	0,5	2,624450
6,200167	0,5	2,635300
6,208500	0,5	2,650400
6,216833	0,5	2,664450
6,225167	0,5	2,691350
6,233500	0,5	2,724350
6,241833	0,5	2,757850
6,250167	0,5	2,785000
6,258500	0,5	2,828350
6,266833	0,5	2,846500
6,275167	0,5	2,860750
6,283500	0,5	2,866650
6,291833	0,5	2,872200
6,300167	0,5	2,885600
6,308500	0,5	2,904650
6,316833	0,5	2,937400
6,325167	0,5	3,012850
6,333500	0,5	3,123550
6,341833	0,5	3,271500
6,350167	0,5	3,452200
6,358500	0,5	3,663750
6,366833	0,5	3,893250
6,375167	0,5	4,135650
6,383500	0,5	4,376000
6,391833	0,5	4,613700
6,400167	0,5	4,855400
6,408500	0,5	5,126250
6,416833	0,5	5,432850
6,425167	0,5	5,829400
6,433500	0,5	6,369350
6,441833	0,5	7,143200
6,450167	0,5	8,292500
6,458500	0,5	9,957500
6,466833	0,5	12,348200
6,475167	0,5	15,616050
6,483500	0,5	19,833600
6,491833	0,5	24,890300
6,500167	0,5	30,462150
6,508500	0,5	36,028551
6,516833	0,5	40,999501
6,525167	0,5	44,809801
6,533500	0,5	47,008051
6,541833	0,5	47,357001
6,550167	0,5	45,853201
6,558500	0,5	42,722751
6,566833	0,5	38,341651
6,575167	0,5	33,256300
6,583500	0,5	27,968800
6,591833	0,5	22,914300
6,600167	0,5	18,400250
6,608500	0,5	14,586300
6,616833	0,5	11,518350
6,625167	0,5	9,159200
6,633500	0,5	7,421050
6,641833	0,5	6,176150
6,650167	0,5	5,309300
6,658500	0,5	4,715000
6,666833	0,5	4,307500
6,675167	0,5	4,026700
6,683500	0,5	3,820600
6,691833	0,5	3,659900
6,700167	0,5	3,535050
6,708500	0,5	3,424100
6,716833	0,5	3,315800
6,725167	0,5	3,223450
6,733500	0,5	3,144200
6,741833	0,5	3,075950
6,750167	0,5	3,024950
6,758500	0,5	2,971300
6,766833	0,5	2,930600
6,775167	0,5	2,891200
6,783500	0,5	2,860900
6,791833	0,5	2,829650
6,800167	0,5	2,799750
6,808500	0,5	2,772950
6,816833	0,5	2,739350
6,825167	0,5	2,710050
6,833500	0,5	2,669200
6,841833	0,5	2,633550
6,850167	0,5	2,605100
6,858500	0,5	2,572000
6,866833	0,5	2,542800
6,875167	0,5	2,525100
6,883500	0,5	2,504800
6,891833	0,5	2,501250
6,900167	0,5	2,491900
6,908500	0,5	2,482750
6,916833	0,5	2,478900
6,925167	0,5	2,482250
6,933500	0,5	2,484050
6,941833	0,5	2,489000
6,950167	0,5	2,494100
6,958500	0,5	2,503400
6,966833	0,5	2,510900
6,975167	0,5	2,517400
6,983500	0,5	2,528350
6,991833	0,5	2,544700
7,000167	0,5	2,562000
7,008500	0,5	2,581250
7,016833	0,5	2,590400
7,025167	0,5	2,590300
7,033500	0,5	2,581150
7,041833	0,5	2,555700
7,050167	0,5	2,517350
7,058500	0,5	2,470850
7,066833	0,5	2,430450
7,075167	0,5	2,390350
7,083500	0,5	2,364250
7,091833	0,5	2,340050
7,100167	0,5	2,327000
7,108500	0,5	2,322650
7,116833	0,5	2,327250
7,125167	0,5	2,333650
7,133500	0,5	2,342450
7,141833	0,5	2,346600
7,150167	0,5	2,351850
7,158500	0,5	2,349500
7,166833	0,5	2,349000
7,175167	0,5	2,351450
7,183500	0,5	2,369150
7,191833	0,5	2,382750
7,200167	0,5	2,399400
7,208500	0,5	2,419450
7,216833	0,5	2,445500
7,225167	0,5	2,473350
7,233500	0,5	2,497150
7,241833	0,5	2,521300
7,250167	0,5	2,549000
7,258500	0,5	2,576100
7,266833	0,5	2,606950
7,275167	0,5	2,635050
7,283500	0,5	2,660750
7,291833	0,5	2,701750
7,300167	0,5	2,749000
7,308500	0,5	2,803550
7,316833	0,5	2,855800
7,325167	0,5	2,902750
7,333500	0,5	2,933550
7,341833	0,5	2,930450
7,350167	0,5	2,895550
7,358500	0,5	2,844550
7,366833	0,5	2,776900
7,375167	0,5	2,709750
7,383500	0,5	2,644050
7,391833	0,5	2,584450
7,400167	0,5	2,535500
7,408500	0,5	2,497400
7,416833	0,5	2,466750
7,425167	0,5	2,437050
7,433500	0,5	2,408250
7,441833	0,5	2,392250
7,450167	0,5	2,367650
7,458500	0,5	2,345350
7,466833	0,5	2,331750
7,475167	0,5	2,320800
7,483500	0,5	2,327400
7,491833	0,5	2,327600
7,500167	0,5	2,335150
7,508500	0,5	2,341600
7,516833	0,5	2,355450
7,525167	0,5	2,372300
7,533500	0,5	2,391700
7,541833	0,5	2,416950
7,550167	0,5	2,446150
7,558500	0,5	2,490050
7,566833	0,5	2,538450
7,575167	0,5	2,602350
7,583500	0,5	2,680350
7,591833	0,5	2,784200
7,600167	0,5	2,909800
7,608500	0,5	3,069100
7,616833	0,5	3,274400
7,625167	0,5	3,538350
7,633500	0,5	3,873750
7,641833	0,5	4,297800
7,650167	0,5	4,823250
7,658500	0,5	5,462550
7,666833	0,5	6,221500
7,675167	0,5	7,094100
7,683500	0,5	8,044250
7,691833	0,5	9,013050
7,700167	0,5	9,934750
7,708500	0,5	10,712900
7,716833	0,5	11,249000
7,725167	0,5	11,477000
7,733500	0,5	11,355650
7,741833	0,5	10,885750
7,750167	0,5	10,117100
7,758500	0,5	9,145150
7,766833	0,5	8,083400
7,775167	0,5	7,021350
7,783500	0,5	6,045700
7,791833	0,5	5,193450
7,800167	0,5	4,504800
7,808500	0,5	3,975700
7,816833	0,5	3,591050
7,825167	0,5	3,331900
7,833500	0,5	3,176300
7,841833	0,5	3,104900
7,850167	0,5	3,113600
7,858500	0,5	3,199600
7,866833	0,5	3,352400
7,875167	0,5	3,582450
7,883500	0,5	3,876000
7,891833	0,5	4,200500
7,900167	0,5	4,521900
7,908500	0,5	4,793350
7,916833	0,5	4,976900
7,925167	0,5	5,050150
7,933500	0,5	5,007850
7,941833	0,5	4,875350
7,950167	0,5	4,676900
7,958500	0,5	4,462750
7,966833	0,5	4,255950
7,975167	0,5	4,086450
7,983500	0,5	3,956500
7,991833	0,5	3,858950
8,000167	0,5	3,784250
8,008500	0,5	3,708800
8,016833	0,5	3,614650
8,025167	0,5	3,512800
8,033500	0,5	3,402400
8,041833	0,5	3,289300
8,050167	0,5	3,191900
8,058500	0,5	3,116600
8,066833	0,5	3,075100
8,075167	0,5	3,059150
8,083500	0,5	3,070650
8,091833	0,5	3,104200
8,100167	0,5	3,160800
8,108500	0,5	3,233950
8,116833	0,5	3,306500
8,125167	0,5	3,368900
8,133500	0,5	3,406700
8,141833	0,5	3,406250
8,150167	0,5	3,376850
8,158500	0,5	3,327900
8,166833	0,5	3,271550
8,175167	0,5	3,221550
8,183500	0,5	3,195150
8,191833	0,5	3,172350
8,200167	0,5	3,162950
8,208500	0,5	3,160050
8,216833	0,5	3,159250
8,225167	0,5	3,161900
8,233500	0,5	3,163550
8,241833	0,5	3,167700
8,250167	0,5	3,194750
8,258500	0,5	3,247500
8,266833	0,5	3,350000
8,275167	0,5	3,506600
8,283500	0,5	3,714300
8,291833	0,5	3,976500
8,300167	0,5	4,288250
8,308500	0,5	4,661300
8,316833	0,5	5,146500
8,325167	0,5	5,860500
8,333500	0,5	7,010000
8,341833	0,5	8,924600
8,350167	0,5	11,998650
8,358500	0,5	16,569050
8,366833	0,5	22,648600
8,375167	0,5	29,699250
8,383500	0,5	36,636751
8,391833	0,5	42,158201
8,400167	0,5	45,131751
8,408500	0,5	45,062101
8,416833	0,5	42,200901
8,425167	0,5	37,387051
8,433500	0,5	31,689650
8,441833	0,5	26,073350
8,450167	0,5	21,186200
8,458500	0,5	17,296850
8,466833	0,5	14,376400
8,475167	0,5	12,221300
8,483500	0,5	10,539750
8,491833	0,5	9,121450
8,500167	0,5	7,852950
8,508500	0,5	6,710050
8,516833	0,5	5,734950
8,525167	0,5	4,940500
8,533500	0,5	4,339750
8,541833	0,5	3,908100
8,550167	0,5	3,608950
8,558500	0,5	3,403450
8,566833	0,5	3,262600
8,575167	0,5	3,150700
8,583500	0,5	3,070850
8,591833	0,5	3,016250
8,600167	0,5	2,989350
8,608500	0,5	2,994100
8,616833	0,5	3,042250
8,625167	0,5	3,116350
8,633500	0,5	3,185850
8,641833	0,5	3,216750
8,650167	0,5	3,202550
8,658500	0,5	3,125550
8,666833	0,5	3,009250
8,675167	0,5	2,868750
8,683500	0,5	2,733400
8,691833	0,5	2,615850
8,700167	0,5	2,529950
8,708500	0,5	2,468150
8,716833	0,5	2,436600
8,725167	0,5	2,415650
8,733500	0,5	2,393850
8,741833	0,5	2,362700
8,750167	0,5	2,322750
8,758500	0,5	2,283350
8,766833	0,5	2,250150
8,775167	0,5	2,227000
8,783500	0,5	2,218550
8,791833	0,5	2,218300
8,800167	0,5	2,220000
8,808500	0,5	2,220300
8,816833	0,5	2,209900
8,825167	0,5	2,194550
8,833500	0,5	2,170200
8,841833	0,5	2,148650
8,850167	0,5	2,138850
8,858500	0,5	2,151600
8,866833	0,5	2,172800
8,875167	0,5	2,218600
8,883500	0,5	2,281700
8,891833	0,5	2,352600
8,900167	0,5	2,420450
8,908500	0,5	2,476650
8,916833	0,5	2,515750
8,925167	0,5	2,524450
8,933500	0,5	2,502900
8,941833	0,5	2,463400
8,950167	0,5	2,402900
8,958500	0,5	2,332250
8,966833	0,5	2,258300
8,975167	0,5	2,186700
8,983500	0,5	2,126100
8,991833	0,5	2,081550
9,000167	0,5	2,059850
9,008500	0,5	2,069050
9,016833	0,5	2,109350
9,025167	0,5	2,167300
9,033500	0,5	2,234400
9,041833	0,5	2,280600
9,050167	0,5	2,295400
9,058500	0,5	2,282550
9,066833	0,5	2,247100
9,075167	0,5	2,203750
9,083500	0,5	2,166550
9,091833	0,5	2,135200
9,100167	0,5	2,117600
9,108500	0,5	2,106000
9,116833	0,5	2,101450
9,125167	0,5	2,099050
9,133500	0,5	2,105300
9,141833	0,5	2,111200
9,150167	0,5	2,120600
9,158500	0,5	2,134300
9,166833	0,5	2,142050
9,175167	0,5	2,150750
9,183500	0,5	2,147900
9,191833	0,5	2,138550
9,200167	0,5	2,115200
9,208500	0,5	2,082100
9,216833	0,5	2,044150
9,225167	0,5	2,002250
9,233500	0,5	1,962850
9,241833	0,5	1,929500
9,250167	0,5	1,904650
9,258500	0,5	1,889700
9,266833	0,5	1,873150
9,275167	0,5	1,863100
9,283500	0,5	1,854600
9,291833	0,5	1,847250
9,300167	0,5	1,836800
9,308500	0,5	1,824850
9,316833	0,5	1,816950
9,325167	0,5	1,809950
9,333500	0,5	1,807250
9,341833	0,5	1,817050
9,350167	0,5	1,840700
9,358500	0,5	1,888550
9,366833	0,5	1,963900
9,375167	0,5	2,048850
9,383500	0,5	2,138800
9,391833	0,5	2,218200
9,400167	0,5	2,282800
9,408500	0,5	2,336050
9,416833	0,5	2,372100
9,425167	0,5	2,392700
9,433500	0,5	2,397850
9,441833	0,5	2,379650
9,450167	0,5	2,342650
9,458500	0,5	2,287950
9,466833	0,5	2,222250
9,475167	0,5	2,158350
9,483500	0,5	2,092150
9,491833	0,5	2,027650
9,500167	0,5	1,964850
9,508500	0,5	1,912750
9,516833	0,5	1,862700
9,525167	0,5	1,821450
9,533500	0,5	1,788650
9,541833	0,5	1,769250
9,550167	0,5	1,753350
9,558500	0,5	1,757000
9,566833	0,5	1,757300
9,575167	0,5	1,767150
9,583500	0,5	1,781750
9,591833	0,5	1,797650
9,600167	0,5	1,815150
9,608500	0,5	1,845200
9,616833	0,5	1,877800
9,625167	0,5	1,910150
9,633500	0,5	1,936850
9,641833	0,5	1,953700
9,650167	0,5	1,960500
9,658500	0,5	1,969750
9,666833	0,5	1,972600
9,675167	0,5	1,972950
9,683500	0,5	1,968000
9,691833	0,5	1,949750
9,700167	0,5	1,918300
9,708500	0,5	1,875900
9,716833	0,5	1,837600
9,725167	0,5	1,801550
9,733500	0,5	1,780450
9,741833	0,5	1,776500
9,750167	0,5	1,792850
9,758500	0,5	1,820150
9,766833	0,5	1,865550
9,775167	0,5	1,925400
9,783500	0,5	2,001900
9,791833	0,5	2,084750
9,800167	0,5	2,168450
9,808500	0,5	2,241950
9,816833	0,5	2,300700
9,825167	0,5	2,346350
9,833500	0,5	2,414950
9,841833	0,5	2,529450
9,850167	0,5	2,726800
9,858500	0,5	3,022700
9,866833	0,5	3,414350
9,875167	0,5	3,862150
9,883500	0,5	4,311600
9,891833	0,5	4,689750
9,900167	0,5	4,951050
9,908500	0,5	5,077100
9,916833	0,5	5,074250
9,925167	0,5	4,969000
9,933500	0,5	4,782350
9,941833	0,5	4,541100
9,950167	0,5	4,261800
9,958500	0,5	3,957900
9,966833	0,5	3,641550
9,975167	0,5	3,338050
9,983500	0,5	3,058950
9,991833	0,5	2,820400
10,000167	0,5	2,619600
10,008500	0,5	2,462050
10,016833	0,5	2,330050
10,025167	0,5	2,220200
10,033500	0,5	2,129350
10,041833	0,5	2,053450
10,050167	0,5	1,994150
10,058500	0,5	1,952600
10,066833	0,5	1,924150
10,075167	0,5	1,922450
10,083500	0,5	1,936050
10,091833	0,5	1,971850
10,100167	0,5	2,029550
10,108500	0,5	2,088850
10,116833	0,5	2,134850
10,125167	0,5	2,154100
10,133500	0,5	2,143250
10,141833	0,5	2,115650
10,150167	0,5	2,081850
10,158500	0,5	2,036900
10,166833	0,5	2,004250
10,175167	0,5	1,975450
10,183500	0,5	1,954600
10,191833	0,5	1,934300
10,200167	0,5	1,923400
10,208500	0,5	1,924850
10,216833	0,5	1,927350
10,225167	0,5	1,942250
10,233500	0,5	1,960750
10,241833	0,5	1,975800
10,250167	0,5	2,009400
10,258500	0,5	2,046450
10,266833	0,5	2,095550
10,275167	0,5	2,158300
10,283500	0,5	2,226100
10,291833	0,5	2,310500
10,300167	0,5	2,397300
10,308500	0,5	2,495450
10,316833	0,5	2,596300
10,325167	0,5	2,691100
10,333500	0,5	2,758500
10,341833	0,5	2,777150
10,350167	0,5	2,750600
10,358500	0,5	2,683100
10,366833	0,5	2,614300
10,375167	0,5	2,563950
10,383500	0,5	2,524900
10,391833	0,5	2,486350
10,400167	0,5	2,465500
10,408500	0,5	2,475450
10,416833	0,5	2,522100
10,425167	0,5	2,617850
10,433500	0,5	2,795750
10,441833	0,5	3,091600
10,450167	0,5	3,691450
10,458500	0,5	4,741250
10,466833	0,5	5,817800
10,475167	0,5	6,430650
10,483500	0,5	6,485300
10,491833	0,5	6,040450
10,500167	0,5	4,780850
10,508500	0,5	3,201550
10,516833	0,5	2,050350
10,525167	0,5	1,430950
10,533500	0,5	1,101850
10,541833	0,5	0,906300
10,550167	0,5	0,792150
10,558500	0,5	0,708650
10,566833	0,5	0,655550
10,575167	0,5	0,610950
10,583500	0,5	0,578500
10,591833	0,5	0,545050
10,600167	0,5	0,518400
10,608500	0,5	0,492000
10,616833	0,5	0,465800
10,625167	0,5	0,442100
10,633500	0,5	0,421450
10,641833	0,5	0,398900
10,650167	0,5	0,381650
10,658500	0,5	0,365400
10,666833	0,5	0,354900
10,675167	0,5	0,341300
10,683500	0,5	0,324300
10,691833	0,5	0,318050
10,700167	0,5	0,314700
10,708500	0,5	0,311600
10,716833	0,5	0,313050
10,725167	0,5	0,311250
10,733500	0,5	0,316650
10,741833	0,5	0,323650
10,750167	0,5	0,326300
10,758500	0,5	0,328000
10,766833	0,5	0,323050
10,775167	0,5	0,311500
10,783500	0,5	0,302000
10,791833	0,5	0,283950
10,800167	0,5	0,267350
10,808500	0,5	0,248400
10,816833	0,5	0,232100
10,825167	0,5	0,213400
10,833500	0,5	0,192650
10,841833	0,5	0,177450
10,850167	0,5	0,163700
10,858500	0,5	0,146250
10,866833	0,5	0,130250
10,875167	0,5	0,118300
10,883500	0,5	0,106700
10,891833	0,5	0,093900
10,900167	0,5	0,085450
10,908500	0,5	0,078000
10,916833	0,5	0,066200
10,925167	0,5	0,060050
10,933500	0,5	0,050150
10,941833	0,5	0,039250
10,950167	0,5	0,028850
10,958500	0,5	0,025150
10,966833	0,5	0,018650
10,975167	0,5	0,012300
10,983500	0,5	0,007050
10,991833	0,5	-0,000250
11,000167	0,5	-0,002400
11,008500	0,5	-0,011350
11,016833	0,5	-0,018950
11,025167	0,5	-0,019050
11,033500	0,5	-0,018650
11,041833	0,5	-0,016950
11,050167	0,5	-0,018650
11,058500	0,5	-0,014800
11,066833	0,5	-0,015950
11,075167	0,5	-0,013050
11,083500	0,5	-0,011950
11,091833	0,5	-0,010900
11,100167	0,5	-0,008400
11,108500	0,5	-0,007050
11,116833	0,5	-0,004100
11,125167	0,5	-0,008650
11,133500	0,5	-0,001650
11,141833	0,5	-0,004700
11,150167	0,5	-0,006700
11,158500	0,5	-0,014050
11,166833	0,5	-0,017750
11,175167	0,5	-0,017550
11,183500	0,5	-0,017300
11,191833	0,5	-0,022900
11,200167	0,5	-0,023050
11,208500	0,5	-0,025050
11,216833	0,5	-0,023800
11,225167	0,5	-0,026650
11,233500	0,5	-0,023900
11,241833	0,5	-0,025650
11,250167	0,5	-0,027050
11,258500	0,5	-0,022300
11,266833	0,5	-0,018400
11,275167	0,5	-0,019700
11,283500	0,5	-0,011700
11,291833	0,5	-0,012350
11,300167	0,5	-0,006800
11,308500	0,5	-0,003650
11,316833	0,5	-0,000250
11,325167	0,5	0,010250
11,333500	0,5	0,018800
11,341833	0,5	0,024450
11,350167	0,5	0,034200
11,358500	0,5	0,046950
11,366833	0,5	0,054750
11,375167	0,5	0,065450
11,383500	0,5	0,071450
11,391833	0,5	0,078650
11,400167	0,5	0,088200
11,408500	0,5	0,096200
11,416833	0,5	0,096700
11,425167	0,5	0,098600
11,433500	0,5	0,103250
11,441833	0,5	0,102750
11,450167	0,5	0,098750
11,458500	0,5	0,093600
11,466833	0,5	0,091050
11,475167	0,5	0,087050
11,483500	0,5	0,084450
11,491833	0,5	0,077100
11,500167	0,5	0,074200
11,508500	0,5	0,068900
11,516833	0,5	0,063700
11,525167	0,5	0,057150
11,533500	0,5	0,049800
11,541833	0,5	0,043850
11,550167	0,5	0,036800
11,558500	0,5	0,028150
11,566833	0,5	0,024200
11,575167	0,5	0,021450
11,583500	0,5	0,019000
11,591833	0,5	0,009350
11,600167	0,5	0,006400
11,608500	0,5	0,000750
11,616833	0,5	-0,005550
11,625167	0,5	-0,006000
11,633500	0,5	-0,009000
11,641833	0,5	-0,008650
11,650167	0,5	-0,013150
11,658500	0,5	-0,014050
11,666833	0,5	-0,018450
11,675167	0,5	-0,021200
11,683500	0,5	-0,020750
11,691833	0,5	-0,022900
11,700167	0,5	-0,024250
11,708500	0,5	-0,021350
11,716833	0,5	-0,024000
11,725167	0,5	-0,015600
11,733500	0,5	-0,013500
11,741833	0,5	-0,013400
11,750167	0,5	-0,010900
11,758500	0,5	-0,010750
11,766833	0,5	-0,004950
11,775167	0,5	0,001050
11,783500	0,5	0,005500
11,791833	0,5	0,013200
11,800167	0,5	0,020500
11,808500	0,5	0,025950
11,816833	0,5	0,034100
11,825167	0,5	0,037150
11,833500	0,5	0,044950
11,841833	0,5	0,046950
11,850167	0,5	0,056900
11,858500	0,5	0,053350
11,866833	0,5	0,057000
11,875167	0,5	0,060550
11,883500	0,5	0,062600
11,891833	0,5	0,060850
11,900167	0,5	0,059850
11,908500	0,5	0,060050
11,916833	0,5	0,063600
11,925167	0,5	0,065150
11,933500	0,5	0,066350
11,941833	0,5	0,063000
11,950167	0,5	0,066950
11,958500	0,5	0,065850
11,966833	0,5	0,064250
11,975167	0,5	0,066050
11,983500	0,5	0,063450
11,991833	0,5	0,066450
12,000167	0,5	0,074650
12,008500	0,5	0,071900
12,016833	0,5	0,080500
12,025167	0,5	0,087550
12,033500	0,5	0,092850
12,041833	0,5	0,092600
12,050167	0,5	0,095250
12,058500	0,5	0,107600
12,066833	0,5	0,115200
12,075167	0,5	0,127850
12,083500	0,5	0,133050
12,091833	0,5	0,144650
12,100167	0,5	0,163050
12,108500	0,5	0,178300
12,116833	0,5	0,198650
12,125167	0,5	0,219050
12,133500	0,5	0,239350
12,141833	0,5	0,267800
12,150167	0,5	0,303150
12,158500	0,5	0,332700
12,166833	0,5	0,374100
12,175167	0,5	0,404450
12,183500	0,5	0,435400
12,191833	0,5	0,461400
12,200167	0,5	0,481450
12,208500	0,5	0,502550
12,216833	0,5	0,516800
12,225167	0,5	0,525800
12,233500	0,5	0,531100
12,241833	0,5	0,527650
12,250167	0,5	0,532450
12,258500	0,5	0,529750
12,266833	0,5	0,526350
12,275167	0,5	0,530550
12,283500	0,5	0,525050
12,291833	0,5	0,529500
12,300167	0,5	0,536050
12,308500	0,5	0,538150
12,316833	0,5	0,549850
12,325167	0,5	0,552350
12,333500	0,5	0,560150
12,341833	0,5	0,565850
12,350167	0,5	0,572350
12,358500	0,5	0,588650
12,366833	0,5	0,600850
12,375167	0,5	0,614150
12,383500	0,5	0,625750
12,391833	0,5	0,646300
12,400167	0,5	0,661450
12,408500	0,5	0,680600
12,416833	0,5	0,694000
12,425167	0,5	0,708750
12,433500	0,5	0,724700
12,441833	0,5	0,743500
12,450167	0,5	0,754450
12,458500	0,5	0,775800
12,466833	0,5	0,795700
12,475167	0,5	0,813250
12,483500	0,5	0,828300
12,491833	0,5	0,850600
12,500167	0,5	0,880200
12,508500	0,5	0,912600
12,516833	0,5	0,951200
12,525167	0,5	0,997150
12,533500	0,5	1,046450
12,541833	0,5	1,099400
12,550167	0,5	1,159000
12,558500	0,5	1,215850
12,566833	0,5	1,275750
12,575167	0,5	1,327300
12,583500	0,5	1,380050
12,591833	0,5	1,425250
12,600167	0,5	1,471100
12,608500	0,5	1,519800
12,616833	0,5	1,565900
12,625167	0,5	1,609150
12,633500	0,5	1,652700
12,641833	0,5	1,702250
12,650167	0,5	1,752800
12,658500	0,5	1,806800
12,666833	0,5	1,860550
12,675167	0,5	1,912400
12,683500	0,5	1,966250
12,691833	0,5	2,018500
12,700167	0,5	2,065250
12,708500	0,5	2,117800
12,716833	0,5	2,168700
12,725167	0,5	2,217950
12,733500	0,5	2,265100
12,741833	0,5	2,309350
12,750167	0,5	2,351850
12,758500	0,5	2,396100
12,766833	0,5	2,428300
12,775167	0,5	2,462850
12,783500	0,5	2,489650
12,791833	0,5	2,526500
12,800167	0,5	2,566450
12,808500	0,5	2,605350
12,816833	0,5	2,643300
12,825167	0,5	2,677900
12,833500	0,5	2,707300
12,841833	0,5	2,726900
12,850167	0,5	2,741250
12,858500	0,5	2,753550
12,866833	0,5	2,766700
12,875167	0,5	2,775850
12,883500	0,5	2,783250
12,891833	0,5	2,783800
12,900167	0,5	2,802650
12,908500	0,5	2,816550
12,916833	0,5	2,827550
12,925167	0,5	2,834800
12,933500	0,5	2,841850
12,941833	0,5	2,856050
12,950167	0,5	2,871050
12,958500	0,5	2,883200
12,966833	0,5	2,893100
12,975167	0,5	2,904250
12,983500	0,5	2,910350
12,991833	0,5	2,922350
13,000167	0,5	2,931100
13,008500	0,5	2,944450
13,016833	0,5	2,951250
13,025167	0,5	2,969250
13,033500	0,5	2,984850
13,041833	0,5	2,986500
13,050167	0,5	3,002400
13,058500	0,5	3,009750
13,066833	0,5	3,005000
13,075167	0,5	3,005800
13,083500	0,5	2,990450
13,091833	0,5	3,000200
13,100167	0,5	2,998800
13,108500	0,5	3,000350
13,116833	0,5	3,002100
13,125167	0,5	3,006700
13,133500	0,5	3,007550
13,141833	0,5	3,008850
13,150167	0,5	3,013000
13,158500	0,5	3,015250
13,166833	0,5	3,017000
13,175167	0,5	3,017650
13,183500	0,5	3,023400
13,191833	0,5	3,022950
13,200167	0,5	3,033650
13,208500	0,5	3,035900
13,216833	0,5	3,034350
13,225167	0,5	3,028250
13,233500	0,5	3,029700
13,241833	0,5	3,033400
13,250167	0,5	3,039750
13,258500	0,5	3,036400
13,266833	0,5	3,043200
13,275167	0,5	3,039650
13,283500	0,5	3,045750
13,291833	0,5	3,046400
13,300167	0,5	3,050150
13,308500	0,5	3,049150
13,316833	0,5	3,042800
13,325167	0,5	3,045700
13,333500	0,5	3,044800
13,341833	0,5	3,041700
13,350167	0,5	3,044300
13,358500	0,5	3,041350
13,366833	0,5	3,037500
13,375167	0,5	3,025500
13,383500	0,5	3,020050
13,391833	0,5	3,029700
13,400167	0,5	3,033150
13,408500	0,5	3,036200
13,416833	0,5	3,042900
13,425167	0,5	3,045200
13,433500	0,5	3,052150
13,441833	0,5	3,053800
13,450167	0,5	3,056750
13,458500	0,5	3,056600
13,466833	0,5	3,055800
13,475167	0,5	3,053050
13,483500	0,5	3,039000
13,491833	0,5	3,040600
13,500167	0,5	3,034000
13,508500	0,5	3,023300
13,516833	0,5	3,008250
13,525167	0,5	2,998250
13,533500	0,5	2,996050
13,541833	0,5	2,999500
13,550167	0,5	3,004700
13,558500	0,5	3,011950
13,566833	0,5	3,015100
13,575167	0,5	3,011350
13,583500	0,5	3,002150
13,591833	0,5	2,997850
13,600167	0,5	2,984000
13,608500	0,5	2,977200
13,616833	0,5	2,971100
13,625167	0,5	2,955200
13,633500	0,5	2,953400
13,641833	0,5	2,954400
13,650167	0,5	2,949850
13,658500	0,5	2,938250
13,666833	0,5	2,923150
13,675167	0,5	2,909450
13,683500	0,5	2,897200
13,691833	0,5	2,894950
13,700167	0,5	2,890200
13,708500	0,5	2,895250
13,716833	0,5	2,904000
13,725167	0,5	2,926350
13,733500	0,5	2,945300
13,741833	0,5	2,961850
13,750167	0,5	2,961650
13,758500	0,5	2,954350
13,766833	0,5	2,930300
13,775167	0,5	2,896150
13,783500	0,5	2,876050
13,791833	0,5	2,862950
13,800167	0,5	2,851650
13,808500	0,5	2,846650
13,816833	0,5	2,842650
13,825167	0,5	2,854200
13,833500	0,5	2,864750
13,841833	0,5	2,873550
13,850167	0,5	2,873200
13,858500	0,5	2,879900
13,866833	0,5	2,885800
13,875167	0,5	2,899900
13,883500	0,5	2,933200
13,891833	0,5	2,965300
13,900167	0,5	2,993800
13,908500	0,5	3,000500
13,916833	0,5	2,987450
13,925167	0,5	2,936100
13,933500	0,5	2,895350
13,941833	0,5	2,838750
13,950167	0,5	2,792000
13,958500	0,5	2,758200
13,966833	0,5	2,732850
13,975167	0,5	2,731150
13,983500	0,5	2,753000
13,991833	0,5	2,769400
14,000167	0,5	2,798300
14,008500	0,5	2,820500
14,016833	0,5	2,853850
14,025167	0,5	2,885950
14,033500	0,5	2,913250
14,041833	0,5	2,930250
14,050167	0,5	2,928850
14,058500	0,5	2,907950
14,066833	0,5	2,858900
14,075167	0,5	2,786700
14,083500	0,5	2,735550
14,091833	0,5	2,685000
14,100167	0,5	2,640700
14,108500	0,5	2,623550
14,116833	0,5	2,615650
14,125167	0,5	2,644250
14,133500	0,5	2,673450
14,141833	0,5	2,720300
14,150167	0,5	2,751200
14,158500	0,5	2,781400
14,166833	0,5	2,792550
14,175167	0,5	2,787700
14,183500	0,5	2,760600
14,191833	0,5	2,720850
14,200167	0,5	2,669500
14,208500	0,5	2,618800
14,216833	0,5	2,568550
14,225167	0,5	2,533000
14,233500	0,5	2,514500
14,241833	0,5	2,503200
14,250167	0,5	2,502000
14,258500	0,5	2,517100
14,266833	0,5	2,536300
14,275167	0,5	2,552650
14,283500	0,5	2,572250
14,291833	0,5	2,568900
14,300167	0,5	2,561850
14,308500	0,5	2,531350
14,316833	0,5	2,498950
14,325167	0,5	2,461350
14,333500	0,5	2,435300
14,341833	0,5	2,414350
14,350167	0,5	2,413300
14,358500	0,5	2,432000
14,366833	0,5	2,454750
14,375167	0,5	2,495900
14,383500	0,5	2,533800
14,391833	0,5	2,552600
14,400167	0,5	2,559450
14,408500	0,5	2,539800
14,416833	0,5	2,509850
14,425167	0,5	2,482950
14,433500	0,5	2,439250
14,441833	0,5	2,405350
14,450167	0,5	2,371200
14,458500	0,5	2,352550
14,466833	0,5	2,337250
14,475167	0,5	2,324000
14,483500	0,5	2,314550
14,491833	0,5	2,304950
14,500167	0,5	2,294600
14,508500	0,5	2,273950
14,516833	0,5	2,252150
14,525167	0,5	2,231850
14,533500	0,5	2,212000
14,541833	0,5	2,191400
14,550167	0,5	2,168450
14,558500	0,5	2,148300
14,566833	0,5	2,139600
14,575167	0,5	2,127500
14,583500	0,5	2,126300
14,591833	0,5	2,118100
14,600167	0,5	2,111150
14,608500	0,5	2,108550
14,616833	0,5	2,102150
14,625167	0,5	2,090450
14,633500	0,5	2,081750
14,641833	0,5	2,073250
14,650167	0,5	2,066650
14,658500	0,5	2,043350
14,666833	0,5	2,034000
14,675167	0,5	2,023950
14,683500	0,5	2,016750
14,691833	0,5	2,010050
14,700167	0,5	1,994650
14,708500	0,5	1,991650
14,716833	0,5	1,993400
14,725167	0,5	1,994900
14,733500	0,5	1,989300
14,741833	0,5	1,983850
14,750167	0,5	1,972350
14,758500	0,5	1,964800
14,766833	0,5	1,948200
14,775167	0,5	1,936300
14,783500	0,5	1,927500
14,791833	0,5	1,924400
14,800167	0,5	1,920450
14,808500	0,5	1,909550
14,816833	0,5	1,915800
14,825167	0,5	1,918450
14,833500	0,5	1,910150
14,841833	0,5	1,904100
14,850167	0,5	1,884750
14,858500	0,5	1,879650
14,866833	0,5	1,866850
14,875167	0,5	1,854450
14,883500	0,5	1,847200
14,891833	0,5	1,847650
14,900167	0,5	1,841200
14,908500	0,5	1,840900
14,916833	0,5	1,844200
14,925167	0,5	1,839100
14,933500	0,5	1,841750
14,941833	0,5	1,831050
14,950167	0,5	1,829450
14,958500	0,5	1,811000
14,966833	0,5	1,812800
14,975167	0,5	1,801900
14,983500	0,5	1,799900
14,991833	0,5	1,789500
15,000167	0,5	1,782300
15,008500	0,5	1,784750
15,016833	0,5	1,793100
15,025167	0,5	1,787200
15,033500	0,5	1,784250
15,041833	0,5	1,779100
15,050167	0,5	1,776400
15,058500	0,5	1,769650
15,066833	0,5	1,758600
15,075167	0,5	1,745450
15,083500	0,5	1,732550
15,091833	0,5	1,728150
15,100167	0,5	1,712200
15,108500	0,5	1,698700
15,116833	0,5	1,693200
15,125167	0,5	1,683700
15,133500	0,5	1,667450
15,141833	0,5	1,652200
15,150167	0,5	1,637550
15,158500	0,5	1,639850
15,166833	0,5	1,628350
15,175167	0,5	1,625600
15,183500	0,5	1,620900
15,191833	0,5	1,620900
15,200167	0,5	1,609850
15,208500	0,5	1,609200
15,216833	0,5	1,603550
15,225167	0,5	1,596750
15,233500	0,5	1,592750
15,241833	0,5	1,590500
15,250167	0,5	1,580100
15,258500	0,5	1,573650
15,266833	0,5	1,577450
15,275167	0,5	1,566350
15,283500	0,5	1,552550
15,291833	0,5	1,536050
15,300167	0,5	1,535600
15,308500	0,5	1,528600
15,316833	0,5	1,532450
15,325167	0,5	1,525200
15,333500	0,5	1,526800
15,341833	0,5	1,526150
15,350167	0,5	1,529650
15,358500	0,5	1,527100
15,366833	0,5	1,527050
15,375167	0,5	1,524450
15,383500	0,5	1,524700
15,391833	0,5	1,522800
15,400167	0,5	1,524350
15,408500	0,5	1,529900
15,416833	0,5	1,529100
15,425167	0,5	1,524850
15,433500	0,5	1,514200
15,441833	0,5	1,507050
15,450167	0,5	1,504300
15,458500	0,5	1,510050
15,466833	0,5	1,508900
15,475167	0,5	1,509350
15,483500	0,5	1,506150
15,491833	0,5	1,508500
15,500167	0,5	1,506500
15,508500	0,5	1,512500
15,516833	0,5	1,513000
15,525167	0,5	1,523000
15,533500	0,5	1,533450
15,541833	0,5	1,536300
15,550167	0,5	1,539400
15,558500	0,5	1,554650
15,566833	0,5	1,554200
15,575167	0,5	1,550300
15,583500	0,5	1,541100
15,591833	0,5	1,539200
15,600167	0,5	1,548450
15,608500	0,5	1,547250
15,616833	0,5	1,549700
15,625167	0,5	1,548150
15,633500	0,5	1,539950
15,641833	0,5	1,521200
15,650167	0,5	1,501450
15,658500	0,5	1,477650
15,666833	0,5	1,456350
15,675167	0,5	1,430950
15,683500	0,5	1,416700
15,691833	0,5	1,385750
15,700167	0,5	1,383700
15,708500	0,5	1,374600
15,716833	0,5	1,360900
15,725167	0,5	1,349850
15,733500	0,5	1,335800
15,741833	0,5	1,340250
15,750167	0,5	1,335850
15,758500	0,5	1,331900
15,766833	0,5	1,326500
15,775167	0,5	1,317900
15,783500	0,5	1,309150
15,791833	0,5	1,309800
15,800167	0,5	1,304600
15,808500	0,5	1,305350
15,816833	0,5	1,302550
15,825167	0,5	1,307650
15,833500	0,5	1,304900
15,841833	0,5	1,299100
15,850167	0,5	1,307800
15,858500	0,5	1,309750
15,866833	0,5	1,307650
15,875167	0,5	1,300400
15,883500	0,5	1,283850
15,891833	0,5	1,288250
15,900167	0,5	1,289100
15,908500	0,5	1,285300
15,916833	0,5	1,280550
15,925167	0,5	1,274350
15,933500	0,5	1,271900
15,941833	0,5	1,260250
15,950167	0,5	1,255350
15,958500	0,5	1,245350
15,966833	0,5	1,239600
15,975167	0,5	1,237500
15,983500	0,5	1,223250
15,991833	0,5	1,225850
16,000167	0,5	1,232850
16,008500	0,5	1,231100
16,016833	0,5	1,229250
16,025167	0,5	1,220300
16,033500	0,5	1,213650
16,041833	0,5	1,212900
16,050167	0,5	1,209000
16,058500	0,5	1,196950
16,066833	0,5	1,189600
16,075167	0,5	1,178000
16,083500	0,5	1,166550
16,091833	0,5	1,159850
16,100167	0,5	1,151000
16,108500	0,5	1,151150
16,116833	0,5	1,142050
16,125167	0,5	1,148150
16,133500	0,5	1,134000
16,141833	0,5	1,137750
16,150167	0,5	1,136700
16,158500	0,5	1,136500
16,166833	0,5	1,130300
16,175167	0,5	1,123050
16,183500	0,5	1,117600
16,191833	0,5	1,131400
16,200167	0,5	1,134950
16,208500	0,5	1,143600
16,216833	0,5	1,144450
16,225167	0,5	1,149050
16,233500	0,5	1,148700
16,241833	0,5	1,147150
16,250167	0,5	1,148450
16,258500	0,5	1,146850
16,266833	0,5	1,160200
16,275167	0,5	1,165900
16,283500	0,5	1,166550
16,291833	0,5	1,181250
16,300167	0,5	1,184850
16,308500	0,5	1,184300
16,316833	0,5	1,174850
16,325167	0,5	1,157200
16,333500	0,5	1,156550
16,341833	0,5	1,150350
16,350167	0,5	1,153950
16,358500	0,5	1,140650
16,366833	0,5	1,143400
16,375167	0,5	1,136950
16,383500	0,5	1,138650
16,391833	0,5	1,129900
16,400167	0,5	1,127850
16,408500	0,5	1,133900
16,416833	0,5	1,135550
16,425167	0,5	1,127000
16,433500	0,5	1,126950
16,441833	0,5	1,133800
16,450167	0,5	1,127700
16,458500	0,5	1,123150
16,466833	0,5	1,111850
16,475167	0,5	1,106050
16,483500	0,5	1,098150
16,491833	0,5	1,095700
16,500167	0,5	1,087900
16,508500	0,5	1,090000
16,516833	0,5	1,081400
16,525167	0,5	1,089450
16,533500	0,5	1,084950
16,541833	0,5	1,083450
16,550167	0,5	1,081000
16,558500	0,5	1,085300
16,566833	0,5	1,084450
16,575167	0,5	1,075550
16,583500	0,5	1,086500
16,591833	0,5	1,088950
16,600167	0,5	1,085650
16,608500	0,5	1,080400
16,616833	0,5	1,071700
16,625167	0,5	1,073850
16,633500	0,5	1,077750
16,641833	0,5	1,074100
16,650167	0,5	1,075050
16,658500	0,5	1,072400
16,666833	0,5	1,081200
16,675167	0,5	1,086200
16,683500	0,5	1,102800
16,691833	0,5	1,106000
16,700167	0,5	1,117700
16,708500	0,5	1,134600
16,716833	0,5	1,142950
16,725167	0,5	1,144150
16,733500	0,5	1,159300
16,741833	0,5	1,171050
16,750167	0,5	1,174350
16,758500	0,5	1,181200
16,766833	0,5	1,183100
16,775167	0,5	1,200300
16,783500	0,5	1,208400
16,791833	0,5	1,202650
16,800167	0,5	1,193350
16,808500	0,5	1,179150
16,816833	0,5	1,152900
16,825167	0,5	1,130350
16,833500	0,5	1,102150
16,841833	0,5	1,085400
16,850167	0,5	1,069000
16,858500	0,5	1,068700
16,866833	0,5	1,053900
16,875167	0,5	1,060250
16,883500	0,5	1,060750
16,891833	0,5	1,050550
16,900167	0,5	1,031750
16,908500	0,5	1,012700
16,916833	0,5	0,997750
16,925167	0,5	0,984700
16,933500	0,5	0,967800
16,941833	0,5	0,956500
16,950167	0,5	0,948050
16,958500	0,5	0,932800
16,966833	0,5	0,925500
16,975167	0,5	0,914550
16,983500	0,5	0,907550
16,991833	0,5	0,890950
17,000167	0,5	0,888200
17,008500	0,5	0,888350
17,016833	0,5	0,877150
17,025167	0,5	0,884300
17,033500	0,5	0,884000
17,041833	0,5	0,876000
17,050167	0,5	0,860900
17,058500	0,5	0,837350
17,066833	0,5	0,834050
17,075167	0,5	0,830800
17,083500	0,5	0,818200
17,091833	0,5	0,804200
17,100167	0,5	0,797550
17,108500	0,5	0,793100
17,116833	0,5	0,788300
17,125167	0,5	0,785400
17,133500	0,5	0,776850
17,141833	0,5	0,773500
17,150167	0,5	0,768650
17,158500	0,5	0,764100
17,166833	0,5	0,749250
17,175167	0,5	0,755600
17,183500	0,5	0,747150
17,191833	0,5	0,742000
17,200167	0,5	0,722700
17,208500	0,5	0,714600
17,216833	0,5	0,712050
17,225167	0,5	0,715300
17,233500	0,5	0,708750
17,241833	0,5	0,707000
17,250167	0,5	0,704150
17,258500	0,5	0,702800
17,266833	0,5	0,698700
17,275167	0,5	0,693850
17,283500	0,5	0,694800
17,291833	0,5	0,692150
17,300167	0,5	0,691500
17,308500	0,5	0,681150
17,316833	0,5	0,680450
17,325167	0,5	0,685000
17,333500	0,5	0,676750
17,341833	0,5	0,661100
17,350167	0,5	0,653450
17,358500	0,5	0,644150
17,366833	0,5	0,647350
17,375167	0,5	0,643600
17,383500	0,5	0,644350
17,391833	0,5	0,638800
17,400167	0,5	0,634100
17,408500	0,5	0,630900
17,416833	0,5	0,627250
17,425167	0,5	0,623350
17,433500	0,5	0,615450
17,441833	0,5	0,615950
17,450167	0,5	0,610750
17,458500	0,5	0,594400
17,466833	0,5	0,593250
17,475167	0,5	0,590850
17,483500	0,5	0,579700
17,491833	0,5	0,570450
17,500167	0,5	0,545550
17,508500	0,5	0,547250
17,516833	0,5	0,539600
17,525167	0,5	0,538450
17,533500	0,5	0,532100
17,541833	0,5	0,527600
17,550167	0,5	0,522150
17,558500	0,5	0,521700
17,566833	0,5	0,514050
17,575167	0,5	0,510800
17,583500	0,5	0,508850
17,591833	0,5	0,510250
17,600167	0,5	0,493200
17,608500	0,5	0,493700
17,616833	0,5	0,497250
17,625167	0,5	0,497850
17,633500	0,5	0,491100
17,641833	0,5	0,477550
17,650167	0,5	0,471750
17,658500	0,5	0,472500
17,666833	0,5	0,476800
17,675167	0,5	0,474350
17,683500	0,5	0,476150
17,691833	0,5	0,473500
17,700167	0,5	0,471500
17,708500	0,5	0,474500
17,716833	0,5	0,479750
17,725167	0,5	0,477750
17,733500	0,5	0,484000
17,741833	0,5	0,492350
17,750167	0,5	0,484300
17,758500	0,5	0,495050
17,766833	0,5	0,503150
17,775167	0,5	0,504050
17,783500	0,5	0,502050
17,791833	0,5	0,492300
17,800167	0,5	0,489000
17,808500	0,5	0,496600
17,816833	0,5	0,498950
17,825167	0,5	0,507300
17,833500	0,5	0,506550
17,841833	0,5	0,511500
17,850167	0,5	0,513100
17,858500	0,5	0,522300
17,866833	0,5	0,516850
17,875167	0,5	0,521050
17,883500	0,5	0,521650
17,891833	0,5	0,532800
17,900167	0,5	0,509200
17,908500	0,5	0,521900
17,916833	0,5	0,517850
17,925167	0,5	0,515350
17,933500	0,5	0,505300
17,941833	0,5	0,488800
17,950167	0,5	0,497100
17,958500	0,5	0,493100
17,966833	0,5	0,488450
17,975167	0,5	0,483000
17,983500	0,5	0,485600
17,991833	0,5	0,477100
18,000167	0,5	0,468900
18,008500	0,5	0,462900
18,016833	0,5	0,464950
18,025167	0,5	0,456100
18,033500	0,5	0,456850
18,041833	0,5	0,448400
18,050167	0,5	0,432750
18,058500	0,5	0,429300
18,066833	0,5	0,417100
18,075167	0,5	0,404250
18,083500	0,5	0,390100
18,091833	0,5	0,368750
18,100167	0,5	0,365650
18,108500	0,5	0,360900
18,116833	0,5	0,358400
18,125167	0,5	0,351550
18,133500	0,5	0,344550
18,141833	0,5	0,341000
18,150167	0,5	0,334700
18,158500	0,5	0,331500
18,166833	0,5	0,321850
18,175167	0,5	0,325000
18,183500	0,5	0,321300
18,191833	0,5	0,311000
18,200167	0,5	0,307900
18,208500	0,5	0,307800
18,216833	0,5	0,298800
18,225167	0,5	0,296700
18,233500	0,5	0,278500
18,241833	0,5	0,270900
18,250167	0,5	0,272200
18,258500	0,5	0,270750
18,266833	0,5	0,265750
18,275167	0,5	0,266800
18,283500	0,5	0,264500
18,291833	0,5	0,261450
18,300167	0,5	0,257800
18,308500	0,5	0,249850
18,316833	0,5	0,253550
18,325167	0,5	0,256350
18,333500	0,5	0,255300
18,341833	0,5	0,245400
18,350167	0,5	0,252300
18,358500	0,5	0,253700
18,366833	0,5	0,250850
18,375167	0,5	0,233450
18,383500	0,5	0,226900
18,391833	0,5	0,228700
18,400167	0,5	0,232200
18,408500	0,5	0,226800
18,416833	0,5	0,227800
18,425167	0,5	0,228950
18,433500	0,5	0,227600
18,441833	0,5	0,230750
18,450167	0,5	0,227350
18,458500	0,5	0,229950
18,466833	0,5	0,230850
18,475167	0,5	0,234800
18,483500	0,5	0,227600
18,491833	0,5	0,226300
18,500167	0,5	0,226500
18,508500	0,5	0,224450
18,516833	0,5	0,217350
18,525167	0,5	0,208550
18,533500	0,5	0,199300
18,541833	0,5	0,204500
18,550167	0,5	0,202800
18,558500	0,5	0,206500
18,566833	0,5	0,203900
18,575167	0,5	0,206450
18,583500	0,5	0,204750
18,591833	0,5	0,210050
18,600167	0,5	0,216950
18,608500	0,5	0,203450
18,616833	0,5	0,217850
18,625167	0,5	0,218100
18,633500	0,5	0,201050
18,641833	0,5	0,216400
18,650167	0,5	0,220600
18,658500	0,5	0,220300
18,666833	0,5	0,215700
18,675167	0,5	0,202500
18,683500	0,5	0,204400
18,691833	0,5	0,195900
18,700167	0,5	0,195800
18,708500	0,5	0,185600
18,716833	0,5	0,181750
18,725167	0,5	0,174050
18,733500	0,5	0,169800
18,741833	0,5	0,168600
18,750167	0,5	0,162200
18,758500	0,5	0,160700
18,766833	0,5	0,159450
18,775167	0,5	0,157700
18,783500	0,5	0,144150
18,791833	0,5	0,151350
18,800167	0,5	0,148050
18,808500	0,5	0,139300
18,816833	0,5	0,122950
18,825167	0,5	0,113400
18,833500	0,5	0,117300
18,841833	0,5	0,122150
18,850167	0,5	0,110400
18,858500	0,5	0,110800
18,866833	0,5	0,107050
18,875167	0,5	0,106250
18,883500	0,5	0,104300
18,891833	0,5	0,107550
18,900167	0,5	0,105350
18,908500	0,5	0,101800
18,916833	0,5	0,109700
18,925167	0,5	0,105950
18,933500	0,5	0,098800
18,941833	0,5	0,100000
18,950167	0,5	0,093450
18,958500	0,5	0,087950
18,966833	0,5	0,075600
18,975167	0,5	0,060700
18,983500	0,5	0,072300
18,991833	0,5	0,063350
19,000167	0,5	0,068850
19,008500	0,5	0,059650
19,016833	0,5	0,071450
19,025167	0,5	0,069100
19,033500	0,5	0,074050
19,041833	0,5	0,071500
19,050167	0,5	0,071300
19,058500	0,5	0,078350
19,066833	0,5	0,075150
19,075167	0,5	0,064450
19,083500	0,5	0,061800
19,091833	0,5	0,063250
19,100167	0,5	0,056000
19,108500	0,5	0,042300
19,116833	0,5	0,026900
19,125167	0,5	0,030850
19,133500	0,5	0,033150
19,141833	0,5	0,033900
19,150167	0,5	0,030000
19,158500	0,5	0,030850
19,166833	0,5	0,021450
19,175167	0,5	0,024350
19,183500	0,5	0,023700
19,191833	0,5	0,019500
19,200167	0,5	0,024150
19,208500	0,5	0,027950
19,216833	0,5	0,021500
19,225167	0,5	0,021550
19,233500	0,5	0,026950
19,241833	0,5	0,024500
19,250167	0,5	0,023100
19,258500	0,5	0,007300
19,266833	0,5	0,007100
19,275167	0,5	0,004950
19,283500	0,5	0,016050
19,291833	0,5	0,010900
19,300167	0,5	0,017250
19,308500	0,5	0,012500
19,316833	0,5	0,026500
19,325167	0,5	0,033350
19,333500	0,5	0,047650
19,341833	0,5	0,057400
19,350167	0,5	0,080600
19,358500	0,5	0,093350
19,366833	0,5	0,092950
19,375167	0,5	0,095550
19,383500	0,5	0,101400
19,391833	0,5	0,097300
19,400167	0,5	0,096150
19,408500	0,5	0,080700
19,416833	0,5	0,082800
19,425167	0,5	0,098850
19,433500	0,5	0,100600
19,441833	0,5	0,105600
19,450167	0,5	0,100300
19,458500	0,5	0,089200
19,466833	0,5	0,075050
19,475167	0,5	0,062750
19,483500	0,5	0,044200
19,491833	0,5	0,036400
19,500167	0,5	0,036450
19,508500	0,5	0,058300
19,516833	0,5	0,052750
19,525167	0,5	0,048400
19,533500	0,5	0,039250
19,541833	0,5	0,029000
19,550167	0,5	0,015700
19,558500	0,5	0,008350
19,566833	0,5	0,009000
19,575167	0,5	0,006450
19,583500	0,5	0,011750
19,591833	0,5	0,007700
19,600167	0,5	0,010150
19,608500	0,5	0,012000
19,616833	0,5	0,022000
19,625167	0,5	0,026300
19,633500	0,5	0,030800
19,641833	0,5	0,039900
19,650167	0,5	0,053450
19,658500	0,5	0,066300
19,666833	0,5	0,044750
19,675167	0,5	0,033500
19,683500	0,5	0,026550
19,691833	0,5	0,007050
19,700167	0,5	-0,002100
19,708500	0,5	0,000600
19,716833	0,5	0,005250
19,725167	0,5	0,010900
19,733500	0,5	0,009950
19,741833	0,5	0,021200
19,750167	0,5	0,017350
19,758500	0,5	0,022350
19,766833	0,5	0,026650
19,775167	0,5	0,036450
19,783500	0,5	0,033650
19,791833	0,5	0,042800
19,800167	0,5	0,046500
19,808500	0,5	0,028600
19,816833	0,5	0,029000
19,825167	0,5	0,024950
19,833500	0,5	0,017050
19,841833	0,5	0,006900
19,850167	0,5	-0,009650
19,858500	0,5	-0,006050
19,866833	0,5	-0,000750
19,875167	0,5	0,000500
19,883500	0,5	-0,001350
19,891833	0,5	0,000050
19,900167	0,5	0,001550
19,908500	0,5	0,005800
19,916833	0,5	0,006900
19,925167	0,5	0,009100
19,933500	0,5	0,017050
19,941833	0,5	0,030500
19,950167	0,5	0,042950
19,958500	0,5	0,040450
19,966833	0,5	0,062650
19,975167	0,5	0,071650
19,983500	0,5	0,091650
19,991833	0,5	0,099250
20,000167	0,5	0,106250
20,008500	0,5	0,125700
20,016833	0,5	0,126150
20,025167	0,5	0,123550
20,033500	0,5	0,113550
20,041833	0,5	0,096550
20,050167	0,5	0,082600
20,058500	0,5	0,068400
20,066833	0,5	0,055900
20,075167	0,5	0,047650
20,083500	0,5	0,051000
20,091833	0,5	0,054800
20,100167	0,5	0,044300
20,108500	0,5	0,041250
20,116833	0,5	0,039200
20,125167	0,5	0,035200
20,133500	0,5	0,028750
20,141833	0,5	0,016600
20,150167	0,5	0,010850
20,158500	0,5	0,023000
20,166833	0,5	0,020150
20,175167	0,5	0,035050
20,183500	0,5	0,035750
20,191833	0,5	0,048050
20,200167	0,5	0,052300
20,208500	0,5	0,057500
20,216833	0,5	0,059050
20,225167	0,5	0,061000
20,233500	0,5	0,081350
20,241833	0,5	0,084900
20,250167	0,5	0,076700
20,258500	0,5	0,086650
20,266833	0,5	0,091350
20,275167	0,5	0,090300
20,283500	0,5	0,089450
20,291833	0,5	0,079100
20,300167	0,5	0,072450
20,308500	0,5	0,060550
20,316833	0,5	0,042450
20,325167	0,5	0,026600
20,333500	0,5	0,016550
20,341833	0,5	0,006100
20,350167	0,5	0,004750
20,358500	0,5	0,001500
20,366833	0,5	-0,002850
20,375167	0,5	0,003250
20,383500	0,5	0,015150
20,391833	0,5	0,014200
20,400167	0,5	0,013600
20,408500	0,5	0,023900
20,416833	0,5	0,023900
20,425167	0,5	0,029250
20,433500	0,5	0,023850
20,441833	0,5	0,033450
20,450167	0,5	0,040250
20,458500	0,5	0,054850
20,466833	0,5	0,050050
20,475167	0,5	0,045250
20,483500	0,5	0,032850
20,491833	0,5	0,024950
20,500167	0,5	0,019100
20,508500	0,5	0,011750
20,516833	0,5	0,006650
20,525167	0,5	0,023850
20,533500	0,5	0,035050
20,541833	0,5	0,029650
20,550167	0,5	0,037250
20,558500	0,5	0,040900
20,566833	0,5	0,043850
20,575167	0,5	0,040250
20,583500	0,5	0,031500
20,591833	0,5	0,037100
20,600167	0,5	0,046550
20,608500	0,5	0,040850
20,616833	0,5	0,042050
20,625167	0,5	0,043300
20,633500	0,5	0,055550
20,641833	0,5	0,061350
20,650167	0,5	0,076250
20,658500	0,5	0,083450
20,666833	0,5	0,093150
20,675167	0,5	0,112850
20,683500	0,5	0,121650
20,691833	0,5	0,100600
20,700167	0,5	0,095350
20,708500	0,5	0,092800
20,716833	0,5	0,077350
20,725167	0,5	0,077050
20,733500	0,5	0,074300
20,741833	0,5	0,089350
20,750167	0,5	0,088350
20,758500	0,5	0,100650
20,766833	0,5	0,103350
20,775167	0,5	0,106600
20,783500	0,5	0,100800
20,791833	0,5	0,109700
20,800167	0,5	0,107650
20,808500	0,5	0,111450
20,816833	0,5	0,121000
20,825167	0,5	0,141850
20,833500	0,5	0,154350
20,841833	0,5	0,155000
20,850167	0,5	0,162250
20,858500	0,5	0,162600
20,866833	0,5	0,156950
20,875167	0,5	0,147750
20,883500	0,5	0,152100
20,891833	0,5	0,159000
20,900167	0,5	0,166800
20,908500	0,5	0,172450
20,916833	0,5	0,174250
20,925167	0,5	0,183150
20,933500	0,5	0,196850
20,941833	0,5	0,201650
20,950167	0,5	0,208500
20,958500	0,5	0,216850
20,966833	0,5	0,238850
20,975167	0,5	0,254350
20,983500	0,5	0,249100
20,991833	0,5	0,253650
21,000167	0,5	0,251900
21,008500	0,5	0,255550
21,016833	0,5	0,240050
21,025167	0,5	0,237100
21,033500	0,5	0,243000
21,041833	0,5	0,255500
21,050167	0,5	0,258000
21,058500	0,5	0,268300
21,066833	0,5	0,265250
21,075167	0,5	0,273600
21,083500	0,5	0,278700
21,091833	0,5	0,287800
21,100167	0,5	0,293550
21,108500	0,5	0,308600
21,116833	0,5	0,330150
21,125167	0,5	0,347300
21,133500	0,5	0,347500
21,141833	0,5	0,355550
21,150167	0,5	0,349800
21,158500	0,5	0,345250
21,166833	0,5	0,333750
21,175167	0,5	0,326600
21,183500	0,5	0,341950
21,191833	0,5	0,343750
21,200167	0,5	0,355100
21,208500	0,5	0,360300
21,216833	0,5	0,367500
21,225167	0,5	0,374800
21,233500	0,5	0,388500
21,241833	0,5	0,403050
21,250167	0,5	0,418250
21,258500	0,5	0,452500
21,266833	0,5	0,483500
21,275167	0,5	0,506550
21,283500	0,5	0,525400
21,291833	0,5	0,552400
21,300167	0,5	0,566700
21,308500	0,5	0,570600
21,316833	0,5	0,563350
21,325167	0,5	0,567200
21,333500	0,5	0,562500
21,341833	0,5	0,561400
21,350167	0,5	0,551250
21,358500	0,5	0,555100
21,366833	0,5	0,557000
21,375167	0,5	0,565850
21,383500	0,5	0,572200
21,391833	0,5	0,585300
21,400167	0,5	0,605200
21,408500	0,5	0,635400
21,416833	0,5	0,658200
21,425167	0,5	0,659300
21,433500	0,5	0,661550
21,441833	0,5	0,670400
21,450167	0,5	0,669600
21,458500	0,5	0,659450
21,466833	0,5	0,667100
21,475167	0,5	0,676300
21,483500	0,5	0,698200
21,491833	0,5	0,704900
21,500167	0,5	0,723300
21,508500	0,5	0,735650
21,516833	0,5	0,747350
21,525167	0,5	0,758600
21,533500	0,5	0,778650
21,541833	0,5	0,787800
21,550167	0,5	0,821650
21,558500	0,5	0,844800
21,566833	0,5	0,858850
21,575167	0,5	0,862350
21,583500	0,5	0,864900
21,591833	0,5	0,866250
21,600167	0,5	0,875250
21,608500	0,5	0,877950
21,616833	0,5	0,894150
21,625167	0,5	0,919100
21,633500	0,5	0,931850
21,641833	0,5	0,952550
21,650167	0,5	0,974000
21,658500	0,5	0,992650
21,666833	0,5	1,003500
21,675167	0,5	1,013900
21,683500	0,5	1,017400
21,691833	0,5	1,033850
21,700167	0,5	1,065450
21,708500	0,5	1,094600
21,716833	0,5	1,094200
21,725167	0,5	1,107250
21,733500	0,5	1,113700
21,741833	0,5	1,119300
21,750167	0,5	1,126200
21,758500	0,5	1,135850
21,766833	0,5	1,168250
21,775167	0,5	1,181750
21,783500	0,5	1,208950
21,791833	0,5	1,226250
21,800167	0,5	1,257850
21,808500	0,5	1,279300
21,816833	0,5	1,305600
21,825167	0,5	1,332750
21,833500	0,5	1,363000
21,841833	0,5	1,413850
21,850167	0,5	1,452950
21,858500	0,5	1,479600
21,866833	0,5	1,506550
21,875167	0,5	1,527600
21,883500	0,5	1,542550
21,891833	0,5	1,556650
21,900167	0,5	1,557750
21,908500	0,5	1,587600
21,916833	0,5	1,601600
21,925167	0,5	1,622100
21,933500	0,5	1,627900
21,941833	0,5	1,647500
21,950167	0,5	1,660750
21,958500	0,5	1,685950
21,966833	0,5	1,704650
21,975167	0,5	1,728200
21,983500	0,5	1,755200
21,991833	0,5	1,794850
22,000167	0,5	1,823400
22,008500	0,5	1,845600
22,016833	0,5	1,876350
22,025167	0,5	1,897950
22,033500	0,5	1,927100
22,041833	0,5	1,943150
22,050167	0,5	1,969400
22,058500	0,5	2,003100
22,066833	0,5	2,045350
22,075167	0,5	2,078600
22,083500	0,5	2,118200
22,091833	0,5	2,157750
22,100167	0,5	2,196800
22,108500	0,5	2,232650
22,116833	0,5	2,253250
22,125167	0,5	2,273350
22,133500	0,5	2,303000
22,141833	0,5	2,336500
22,150167	0,5	2,349100
22,158500	0,5	2,387650
22,166833	0,5	2,420800
22,175167	0,5	2,447000
22,183500	0,5	2,471400
22,191833	0,5	2,500900
22,200167	0,5	2,501400
22,208500	0,5	2,579400
22,216833	0,5	2,608150
22,225167	0,5	2,654250
22,233500	0,5	2,689900
22,241833	0,5	2,733400
22,250167	0,5	2,775700
22,258500	0,5	2,822950
22,266833	0,5	2,867900
22,275167	0,5	2,913700
22,283500	0,5	2,963800
22,291833	0,5	3,005900
22,300167	0,5	3,064700
22,308500	0,5	3,121200
22,316833	0,5	3,169600
22,325167	0,5	3,213250
22,333500	0,5	3,249500
22,341833	0,5	3,291150
22,350167	0,5	3,344900
22,358500	0,5	3,387850
22,366833	0,5	3,439250
22,375167	0,5	3,482100
22,383500	0,5	3,537850
22,391833	0,5	3,589600
22,400167	0,5	3,648500
22,408500	0,5	3,701900
22,416833	0,5	3,747650
22,425167	0,5	3,795350
22,433500	0,5	3,849550
22,441833	0,5	3,904600
22,450167	0,5	3,989850
22,458500	0,5	4,055700
22,466833	0,5	4,114700
22,475167	0,5	4,171800
22,483500	0,5	4,217050
22,491833	0,5	4,294650
22,500167	0,5	4,356300
22,508500	0,5	4,431900
22,516833	0,5	4,487750
22,525167	0,5	4,553800
22,533500	0,5	4,608050
22,541833	0,5	4,669850
22,550167	0,5	4,720300
22,558500	0,5	4,772500
22,566833	0,5	4,828650
22,575167	0,5	4,850600
22,583500	0,5	4,913800
22,591833	0,5	4,981200
22,600167	0,5	5,040550
22,608500	0,5	5,082550
22,616833	0,5	5,119700
22,625167	0,5	5,149750
22,633500	0,5	5,176550
22,641833	0,5	5,210150
22,650167	0,5	5,239900
22,658500	0,5	5,253650
22,666833	0,5	5,272800
22,675167	0,5	5,279800
22,683500	0,5	5,292950
22,691833	0,5	5,292000
22,700167	0,5	5,291350
22,708500	0,5	5,275900
22,716833	0,5	5,236700
22,725167	0,5	5,212100
22,733500	0,5	5,179500
22,741833	0,5	5,152050
22,750167	0,5	5,090750
22,758500	0,5	5,011750
22,766833	0,5	4,922550
22,775167	0,5	4,814650
22,783500	0,5	4,704950
22,791833	0,5	4,606950
22,800167	0,5	4,492750
22,808500	0,5	4,376050
22,816833	0,5	4,259450
22,825167	0,5	4,141500
22,833500	0,5	4,022150
22,841833	0,5	3,896100
22,850167	0,5	3,769000
22,858500	0,5	3,632200
22,866833	0,5	3,446850
22,875167	0,5	3,319400
22,883500	0,5	3,182450
22,891833	0,5	3,036800
22,900167	0,5	2,868450
22,908500	0,5	2,703950
22,916833	0,5	2,532350
22,925167	0,5	2,365450
22,933500	0,5	2,193450
22,941833	0,5	2,030300
22,950167	0,5	1,860800
22,958500	0,5	1,710500
22,966833	0,5	1,555750
22,975167	0,5	1,411000
22,983500	0,5	1,256350
22,991833	0,5	1,116050
23,000167	0,5	0,978550
23,008500	0,5	0,860650
23,016833	0,5	0,721750
23,025167	0,5	0,598600
23,033500	0,5	0,449750
23,041833	0,5	0,303200
23,050167	0,5	0,199100
23,058500	0,5	0,084050
23,066833	0,5	-0,017000
23,075167	0,5	-0,122850
23,083500	0,5	-0,218650
23,091833	0,5	-0,317650
23,100167	0,5	-0,393900
23,108500	0,5	-0,484050
23,116833	0,5	-0,554750
23,125167	0,5	-0,636300
23,133500	0,5	-0,696900
23,141833	0,5	-0,768350
23,150167	0,5	-0,830650
23,158500	0,5	-0,861550
23,166833	0,5	-0,930100
23,175167	0,5	-0,985650
23,183500	0,5	-1,069700
23,191833	0,5	-1,134700
23,200167	0,5	-1,169750
23,208500	0,5	-1,213950
23,216833	0,5	-1,246350
23,225167	0,5	-1,286350
23,233500	0,5	-1,327750
23,241833	0,5	-1,353700
23,250167	0,5	-1,383950
23,258500	0,5	-1,400650
23,266833	0,5	-1,425700
23,275167	0,5	-1,443650
23,283500	0,5	-1,463950
23,291833	0,5	-1,479250
23,300167	0,5	-1,490700
23,308500	0,5	-1,521800
23,316833	0,5	-1,515950
23,325167	0,5	-1,514850
23,333500	0,5	-1,562800
23,341833	0,5	-1,585900
23,350167	0,5	-1,596200
23,358500	0,5	-1,595750
23,366833	0,5	-1,603900
23,375167	0,5	-1,617300
23,383500	0,5	-1,618700
23,391833	0,5	-1,614800
23,400167	0,5	-1,611050
23,408500	0,5	-1,610050
23,416833	0,5	-1,603000
23,425167	0,5	-1,605450
23,433500	0,5	-1,597950
23,441833	0,5	-1,594000
23,450167	0,5	-1,585650
23,458500	0,5	-1,608250
23,466833	0,5	-1,587900
23,475167	0,5	-1,548550
23,483500	0,5	-1,567050
23,491833	0,5	-1,570700
23,500167	0,5	-1,566550
23,508500	0,5	-1,558450
23,516833	0,5	-1,554150
23,525167	0,5	-1,555150
23,533500	0,5	-1,546850
23,541833	0,5	-1,538950
23,550167	0,5	-1,529450
23,558500	0,5	-1,520050
23,566833	0,5	-1,509000
23,575167	0,5	-1,498700
23,583500	0,5	-1,486650
23,591833	0,5	-1,477800
23,600167	0,5	-1,554200
23,608500	0,5	-1,512250
23,616833	0,5	-1,475100
23,625167	0,5	-1,430100
23,633500	0,5	-1,419850
23,641833	0,5	-1,415600
23,650167	0,5	-1,409250
23,658500	0,5	-1,399550
23,666833	0,5	-1,388300
23,675167	0,5	-1,381950
23,683500	0,5	-1,371650
23,691833	0,5	-1,359050
23,700167	0,5	-1,348600
23,708500	0,5	-1,336450
23,716833	0,5	-1,325600
23,725167	0,5	-1,314150
23,733500	0,5	-1,303600
23,741833	0,5	-1,301250
23,750167	0,5	-1,407900
23,758500	0,5	-1,344150
23,766833	0,5	-1,303550
23,775167	0,5	-1,251650
23,783500	0,5	-1,240700
23,791833	0,5	-1,232400
23,800167	0,5	-1,221100
23,808500	0,5	-1,211200
23,816833	0,5	-1,200700
23,825167	0,5	-1,183950
23,833500	0,5	-1,167400
23,841833	0,5	-1,148650
23,850167	0,5	-1,137500
23,858500	0,5	-1,121800
23,866833	0,5	-1,109650
23,875167	0,5	-1,093100
23,883500	0,5	-1,081550
23,891833	0,5	-1,169700
23,900167	0,5	-1,176550
23,908500	0,5	-1,132050
23,916833	0,5	-1,077850
23,925167	0,5	-1,040950
23,933500	0,5	-1,022600
23,941833	0,5	-1,014600
23,950167	0,5	-1,009000
23,958500	0,5	-1,005850
23,966833	0,5	-0,980050
23,975167	0,5	-0,968650
23,983500	0,5	-0,950250
23,991833	0,5	-0,943350
24,000167	0,5	-0,922850
24,008500	0,5	-0,908600
24,016833	0,5	-0,889000
24,025167	0,5	-0,876300
24,033500	0,5	-0,864100
24,041833	0,5	-0,966950
24,050167	0,5	-0,935150
24,058500	0,5	-0,892350
24,066833	0,5	-0,836100
24,075167	0,5	-0,806950
24,083500	0,5	-0,796350
24,091833	0,5	-0,788800
24,100167	0,5	-0,785400
24,108500	0,5	-0,767900
24,116833	0,5	-0,754750
24,125167	0,5	-0,738950
24,133500	0,5	-0,728200
24,141833	0,5	-0,712100
24,150167	0,5	-0,700750
24,158500	0,5	-0,684350
24,166833	0,5	-0,671850
24,175167	0,5	-0,658050
24,183500	0,5	-0,678550
24,191833	0,5	-0,746100
24,200167	0,5	-0,716300
24,208500	0,5	-0,667650
24,216833	0,5	-0,626000
24,225167	0,5	-0,597900
24,233500	0,5	-0,587200
24,241833	0,5	-0,583500
24,250167	0,5	-0,574700
24,258500	0,5	-0,563250
24,266833	0,5	-0,542300
24,275167	0,5	-0,533750
24,283500	0,5	-0,522750
24,291833	0,5	-0,513450
24,300167	0,5	-0,499450
24,308500	0,5	-0,486400
24,316833	0,5	-0,474600
24,325167	0,5	-0,468100
24,333500	0,5	-0,526550
24,341833	0,5	-0,525950
24,350167	0,5	-0,504350
24,358500	0,5	-0,467550
24,366833	0,5	-0,438750
24,375167	0,5	-0,425050
24,383500	0,5	-0,420050
24,391833	0,5	-0,426750
24,400167	0,5	-0,413050
24,408500	0,5	-0,393050
24,416833	0,5	-0,384250
24,425167	0,5	-0,374550
24,433500	0,5	-0,368200
24,441833	0,5	-0,356500
24,450167	0,5	-0,347950
24,458500	0,5	-0,333250
24,466833	0,5	-0,326850
24,475167	0,5	-0,317550
24,483500	0,5	-0,388900
24,491833	0,5	-0,355500
24,500167	0,5	-0,348950
24,508500	0,5	-0,308950
24,516833	0,5	-0,295950
24,525167	0,5	-0,282150
24,533500	0,5	-0,283050
24,541833	0,5	-0,289650
24,550167	0,5	-0,275650
24,558500	0,5	-0,268800
24,566833	0,5	-0,261400
24,575167	0,5	-0,257800
24,583500	0,5	-0,254000
24,591833	0,5	-0,244950
24,600167	0,5	-0,233900
24,608500	0,5	-0,228200
24,616833	0,5	-0,220450
24,625167	0,5	-0,238950
24,633500	0,5	-0,263400
24,641833	0,5	-0,245050
24,650167	0,5	-0,225600
24,658500	0,5	-0,202800
24,666833	0,5	-0,194450
24,675167	0,5	-0,193200
24,683500	0,5	-0,191250
24,691833	0,5	-0,197350
24,700167	0,5	-0,182750
24,708500	0,5	-0,178350
24,716833	0,5	-0,169650
24,725167	0,5	-0,169750
24,733500	0,5	-0,163400
24,741833	0,5	-0,159350
24,750167	0,5	-0,154650
24,758500	0,5	-0,148800
24,766833	0,5	-0,146850
24,775167	0,5	-0,177900
24,783500	0,5	-0,177850
24,791833	0,5	-0,156800
24,800167	0,5	-0,146350
24,808500	0,5	-0,130200
24,816833	0,5	-0,125650
24,825167	0,5	-0,123600
24,833500	0,5	-0,125200
24,841833	0,5	-0,127250
24,850167	0,5	-0,121900
24,858500	0,5	-0,113300
24,866833	0,5	-0,112350
24,875167	0,5	-0,107950
24,883500	0,5	-0,105150
24,891833	0,5	-0,098350
24,900167	0,5	-0,096100
24,908500	0,5	-0,092450
24,916833	0,5	-0,091250
24,925167	0,5	-0,117250
24,933500	0,5	-0,106800
24,941833	0,5	-0,099550
24,950167	0,5	-0,086400
24,958500	0,5	-0,079100
24,966833	0,5	-0,077950
24,975167	0,5	-0,078950
24,983500	0,5	-0,080700
24,991833	0,5	-0,079300
25,000167	0,5	-0,069750
25,008500	0,5	-0,069500
25,016833	0,5	-0,063100
25,025167	0,5	-0,062800
25,033500	0,5	-0,060400
25,041833	0,5	-0,058800
25,050167	0,5	-0,052100
25,058500	0,5	-0,052350
25,066833	0,5	-0,056100
25,075167	0,5	-0,065750
25,083500	0,5	-0,060900
25,091833	0,5	-0,051150
25,100167	0,5	-0,045450
25,108500	0,5	-0,043600
25,116833	0,5	-0,040650
25,125167	0,5	-0,042200
25,133500	0,5	-0,043300
25,141833	0,5	-0,041650
25,150167	0,5	-0,041600
25,158500	0,5	-0,037500
25,166833	0,5	-0,041600
25,175167	0,5	-0,038250
25,183500	0,5	-0,037500
25,191833	0,5	-0,032300
25,200167	0,5	-0,033450
25,208500	0,5	-0,030650
25,216833	0,5	-0,035800
25,225167	0,5	-0,032700
25,233500	0,5	-0,032750
25,241833	0,5	-0,026100
25,250167	0,5	-0,026250
25,258500	0,5	-0,020550
25,266833	0,5	-0,022750
25,275167	0,5	-0,027150
25,283500	0,5	-0,025550
25,291833	0,5	-0,027800
25,300167	0,5	-0,027300
25,308500	0,5	-0,024950
25,316833	0,5	-0,024600
25,325167	0,5	-0,025900
25,333500	0,5	-0,026250
25,341833	0,5	-0,023300
25,350167	0,5	-0,020600
25,358500	0,5	-0,019350
25,366833	0,5	-0,023300
25,375167	0,5	-0,019250
25,383500	0,5	-0,015000
25,391833	0,5	-0,016750
25,400167	0,5	-0,015850
25,408500	0,5	-0,016100
25,416833	0,5	-0,014400
25,425167	0,5	-0,017650
25,433500	0,5	-0,015300
25,441833	0,5	-0,015700
25,450167	0,5	-0,018150
25,458500	0,5	-0,015450
25,466833	0,5	-0,016100
25,475167	0,5	-0,016200
25,483500	0,5	-0,016600
25,491833	0,5	-0,014500
25,500167	0,5	-0,014800
25,508500	0,5	-0,016600
25,516833	0,5	-0,014650
25,525167	0,5	-0,012550
25,533500	0,5	-0,009950
25,541833	0,5	-0,012100
25,550167	0,5	-0,013150
25,558500	0,5	-0,011600
25,566833	0,5	-0,011050
25,575167	0,5	-0,008250
25,583500	0,5	-0,010550
25,591833	0,5	-0,009350
25,600167	0,5	-0,012000
25,608500	0,5	-0,008700
25,616833	0,5	-0,011750
25,625167	0,5	-0,010300
25,633500	0,5	-0,013150
25,641833	0,5	-0,012450
25,650167	0,5	-0,013300
25,658500	0,5	-0,011900
25,666833	0,5	-0,009700
25,675167	0,5	-0,010150
25,683500	0,5	-0,012500
25,691833	0,5	-0,012750
25,700167	0,5	-0,010900
25,708500	0,5	-0,012850
25,716833	0,5	-0,008650
25,725167	0,5	-0,007950
25,733500	0,5	-0,009550
25,741833	0,5	-0,008250
25,750167	0,5	-0,007750
25,758500	0,5	-0,006500
25,766833	0,5	-0,008650
25,775167	0,5	-0,008200
25,783500	0,5	-0,007500
25,791833	0,5	-0,009650
25,800167	0,5	-0,007500
25,808500	0,5	-0,005950
25,816833	0,5	-0,002050
25,825167	0,5	-0,002150
25,833500	0,5	-0,006450
25,841833	0,5	-0,008050
25,850167	0,5	-0,006100
25,858500	0,5	-0,004500
25,866833	0,5	-0,002500
25,875167	0,5	-0,001900
25,883500	0,5	-0,000700
25,891833	0,5	-0,001600
25,900167	0,5	0,003650
25,908500	0,5	-0,001300
25,916833	0,5	-0,001850
25,925167	0,5	-0,002700
25,933500	0,5	-0,001700
25,941833	0,5	0,001350
25,950167	0,5	-0,001300
25,958500	0,5	0,004250
25,966833	0,5	0,008450
25,975167	0,5	0,007950
25,983500	0,5	-0,000200
25,991833	0,5	0,004100
26,000167	0,5	-0,002700
