File Path	chrom://chromeleon01/ikbm_chromeleon/2022/ICS-5000/ED1/Esteban/20220612_Cell_7_4_eg.seq/680.smp/ED_1.channel/ED_1.chm
Channel	ED_1

Injection Information:
Data Vault	ikbm_chromeleon
Injection	4_24h-NT_1
Injection Number	42
Position	RE3
Comment	
Processing Method	Stop sequence after Cell Death
Instrument Method	ICS5000_PA200_FullNative_Ox_26min_ED1
Type	Unknown
Status	Finished
Injection Date	13.06.2022
Injection Time	11:34:35
Injection Volume (µl)	5,0
Dilution Factor	1,0000
Weight	1,0000

Chromatogram Data Information:
Time Min. (min)	0,000167
Time Max. (min)	26,000167
Data Points	3121
Detector	EDet1
Generating Data System	Chromeleon 7.2.9.11323
Exporting Data System	Chromeleon 7.2.9.0
Operator	Instrument Controller
Signal Quantity	
Signal Unit	nC
Signal Min.	-1,458800
Signal Max.	2 631,306239
Channel	ED_1
Driver Name	DC-5000
Channel Type	Evaluation
Min. Step (s)	0,5
Max. Step (s)	0,5
Average Step (s)	0,5

Signal Parameter Information:
Signal Info	

Chromatogram Data:
Time (min)	Step (s)	Value (nC)
0,000167	n.a.	-0,009650
0,008500	0,5	-0,052850
0,016833	0,5	-0,043250
0,025167	0,5	-0,038800
0,033500	0,5	-0,019800
0,041833	0,5	0,000050
0,050167	0,5	-0,003600
0,058500	0,5	0,009350
0,066833	0,5	0,001900
0,075167	0,5	0,007850
0,083500	0,5	-0,001400
0,091833	0,5	0,006300
0,100167	0,5	-0,005050
0,108500	0,5	-0,002950
0,116833	0,5	0,000650
0,125167	0,5	-0,009050
0,133500	0,5	-0,017650
0,141833	0,5	0,008350
0,150167	0,5	-0,007700
0,158500	0,5	-0,015700
0,166833	0,5	-0,016150
0,175167	0,5	-0,012700
0,183500	0,5	0,012750
0,191833	0,5	0,007850
0,200167	0,5	0,011250
0,208500	0,5	0,005050
0,216833	0,5	0,005500
0,225167	0,5	-0,003200
0,233500	0,5	0,002200
0,241833	0,5	-0,004600
0,250167	0,5	0,000600
0,258500	0,5	-0,002350
0,266833	0,5	-0,004550
0,275167	0,5	-0,009850
0,283500	0,5	-0,014250
0,291833	0,5	0,019050
0,300167	0,5	0,030450
0,308500	0,5	0,025150
0,316833	0,5	0,000250
0,325167	0,5	-0,015050
0,333500	0,5	-0,010550
0,341833	0,5	-0,014500
0,350167	0,5	-0,018500
0,358500	0,5	-0,011850
0,366833	0,5	-0,012100
0,375167	0,5	-0,009150
0,383500	0,5	-0,015200
0,391833	0,5	-0,008350
0,400167	0,5	-0,019150
0,408500	0,5	-0,013350
0,416833	0,5	-0,011450
0,425167	0,5	-0,011850
0,433500	0,5	-0,019900
0,441833	0,5	0,008950
0,450167	0,5	-0,023700
0,458500	0,5	-0,025900
0,466833	0,5	-0,023750
0,475167	0,5	-0,016150
0,483500	0,5	0,006550
0,491833	0,5	-0,005100
0,500167	0,5	-0,010200
0,508500	0,5	-0,009450
0,516833	0,5	-0,011100
0,525167	0,5	-0,014600
0,533500	0,5	-0,008750
0,541833	0,5	-0,013000
0,550167	0,5	-0,008900
0,558500	0,5	-0,014900
0,566833	0,5	-0,007300
0,575167	0,5	-0,021850
0,583500	0,5	-0,007350
0,591833	0,5	-0,015250
0,600167	0,5	-0,021150
0,608500	0,5	-0,024800
0,616833	0,5	-0,015750
0,625167	0,5	-0,004450
0,633500	0,5	0,014950
0,641833	0,5	0,003300
0,650167	0,5	0,000650
0,658500	0,5	-0,001500
0,666833	0,5	-0,000050
0,675167	0,5	-0,000900
0,683500	0,5	-0,000600
0,691833	0,5	-0,002400
0,700167	0,5	-0,002450
0,708500	0,5	-0,002800
0,716833	0,5	-0,009100
0,725167	0,5	-0,003350
0,733500	0,5	0,006300
0,741833	0,5	-0,000900
0,750167	0,5	-0,014100
0,758500	0,5	-0,009850
0,766833	0,5	-0,006600
0,775167	0,5	0,013750
0,783500	0,5	0,021700
0,791833	0,5	0,022000
0,800167	0,5	0,013650
0,808500	0,5	0,018750
0,816833	0,5	0,011700
0,825167	0,5	0,019200
0,833500	0,5	0,010650
0,841833	0,5	0,011900
0,850167	0,5	0,016750
0,858500	0,5	0,013350
0,866833	0,5	0,010750
0,875167	0,5	0,010000
0,883500	0,5	0,021650
0,891833	0,5	0,000750
0,900167	0,5	0,003650
0,908500	0,5	0,002500
0,916833	0,5	0,023500
0,925167	0,5	0,037350
0,933500	0,5	0,042700
0,941833	0,5	0,034450
0,950167	0,5	0,036100
0,958500	0,5	0,029850
0,966833	0,5	0,035450
0,975167	0,5	0,027700
0,983500	0,5	0,031500
0,991833	0,5	0,029250
1,000167	0,5	0,029800
1,008500	0,5	0,034400
1,016833	0,5	0,034800
1,025167	0,5	0,046000
1,033500	0,5	0,040950
1,041833	0,5	0,027200
1,050167	0,5	0,028300
1,058500	0,5	0,031000
1,066833	0,5	0,045000
1,075167	0,5	0,055750
1,083500	0,5	0,050000
1,091833	0,5	0,052250
1,100167	0,5	0,049000
1,108500	0,5	0,062750
1,116833	0,5	0,055150
1,125167	0,5	0,057150
1,133500	0,5	0,048500
1,141833	0,5	0,054650
1,150167	0,5	0,053850
1,158500	0,5	0,054500
1,166833	0,5	0,049100
1,175167	0,5	0,067000
1,183500	0,5	0,051450
1,191833	0,5	0,046500
1,200167	0,5	0,046200
1,208500	0,5	0,055200
1,216833	0,5	0,075250
1,225167	0,5	0,071850
1,233500	0,5	0,071650
1,241833	0,5	0,067900
1,250167	0,5	0,068250
1,258500	0,5	0,065050
1,266833	0,5	0,068850
1,275167	0,5	0,061250
1,283500	0,5	0,066200
1,291833	0,5	0,065000
1,300167	0,5	0,070600
1,308500	0,5	0,057550
1,316833	0,5	0,053200
1,325167	0,5	0,069250
1,333500	0,5	0,054700
1,341833	0,5	0,048750
1,350167	0,5	0,054550
1,358500	0,5	0,050000
1,366833	0,5	0,073000
1,375167	0,5	0,059550
1,383500	0,5	0,059500
1,391833	0,5	0,060200
1,400167	0,5	0,057450
1,408500	0,5	0,057050
1,416833	0,5	0,052150
1,425167	0,5	0,049250
1,433500	0,5	0,039550
1,441833	0,5	0,043550
1,450167	0,5	0,041550
1,458500	0,5	0,037950
1,466833	0,5	0,032400
1,475167	0,5	0,040800
1,483500	0,5	0,023250
1,491833	0,5	0,021750
1,500167	0,5	0,015450
1,508500	0,5	0,022350
1,516833	0,5	0,033600
1,525167	0,5	0,024100
1,533500	0,5	0,016400
1,541833	0,5	0,018800
1,550167	0,5	0,014050
1,558500	0,5	0,031750
1,566833	0,5	0,090150
1,575167	0,5	0,300550
1,583500	0,5	1,702400
1,591833	0,5	10,558200
1,600167	0,5	50,587651
1,608500	0,5	194,598053
1,616833	0,5	612,770209
1,625167	0,5	1 428,071171
1,633500	0,5	2 248,734934
1,641833	0,5	2 611,102339
1,650167	0,5	2 631,306239
1,658500	0,5	2 430,474236
1,666833	0,5	1 966,716929
1,675167	0,5	1 374,012820
1,683500	0,5	901,712763
1,691833	0,5	619,471209
1,700167	0,5	452,966357
1,708500	0,5	353,131955
1,716833	0,5	287,027754
1,725167	0,5	240,308954
1,733500	0,5	204,309303
1,741833	0,5	176,190853
1,750167	0,5	156,012252
1,758500	0,5	145,410652
1,766833	0,5	144,486802
1,775167	0,5	150,061252
1,783500	0,5	157,710852
1,791833	0,5	163,006852
1,800167	0,5	161,937002
1,808500	0,5	153,859802
1,816833	0,5	142,128502
1,825167	0,5	130,601352
1,833500	0,5	121,017202
1,841833	0,5	113,961602
1,850167	0,5	109,731502
1,858500	0,5	108,344802
1,866833	0,5	108,929552
1,875167	0,5	109,159252
1,883500	0,5	106,400952
1,891833	0,5	101,243102
1,900167	0,5	96,929801
1,908500	0,5	96,300101
1,916833	0,5	101,160952
1,925167	0,5	113,630152
1,933500	0,5	135,333902
1,941833	0,5	164,629002
1,950167	0,5	194,180453
1,958500	0,5	211,942603
1,966833	0,5	209,071203
1,975167	0,5	187,549403
1,983500	0,5	158,017302
1,991833	0,5	131,331252
2,000167	0,5	112,991452
2,008500	0,5	101,850452
2,016833	0,5	94,813001
2,025167	0,5	91,520551
2,033500	0,5	90,858101
2,041833	0,5	88,224501
2,050167	0,5	82,039101
2,058500	0,5	74,839551
2,066833	0,5	67,988051
2,075167	0,5	61,628251
2,083500	0,5	56,262301
2,091833	0,5	51,910451
2,100167	0,5	48,571651
2,108500	0,5	46,118901
2,116833	0,5	43,839551
2,125167	0,5	41,210501
2,133500	0,5	38,547701
2,141833	0,5	36,328201
2,150167	0,5	34,668701
2,158500	0,5	33,538950
2,166833	0,5	32,860250
2,175167	0,5	32,394950
2,183500	0,5	31,657850
2,191833	0,5	30,460600
2,200167	0,5	29,014000
2,208500	0,5	27,749250
2,216833	0,5	26,786750
2,225167	0,5	26,308850
2,233500	0,5	26,526750
2,241833	0,5	27,999950
2,250167	0,5	29,568200
2,258500	0,5	29,085400
2,266833	0,5	27,748300
2,275167	0,5	27,127650
2,283500	0,5	26,846850
2,291833	0,5	26,535800
2,300167	0,5	26,254000
2,308500	0,5	26,146950
2,316833	0,5	26,221450
2,325167	0,5	26,397900
2,333500	0,5	26,677250
2,341833	0,5	27,171250
2,350167	0,5	28,197350
2,358500	0,5	29,940250
2,366833	0,5	32,106250
2,375167	0,5	34,144851
2,383500	0,5	35,517251
2,391833	0,5	36,046751
2,400167	0,5	35,993901
2,408500	0,5	35,835901
2,416833	0,5	36,285401
2,425167	0,5	37,877051
2,433500	0,5	40,936951
2,441833	0,5	45,980101
2,450167	0,5	54,976301
2,458500	0,5	71,412601
2,466833	0,5	96,727901
2,475167	0,5	124,225452
2,483500	0,5	140,611202
2,491833	0,5	137,748002
2,500167	0,5	119,588002
2,508500	0,5	96,458101
2,516833	0,5	76,375851
2,525167	0,5	62,576401
2,533500	0,5	55,172801
2,541833	0,5	53,151051
2,550167	0,5	54,782701
2,558500	0,5	57,779651
2,566833	0,5	59,886051
2,575167	0,5	59,437301
2,583500	0,5	55,765401
2,591833	0,5	49,559151
2,600167	0,5	42,375051
2,608500	0,5	35,762001
2,616833	0,5	30,565800
2,625167	0,5	26,909550
2,633500	0,5	24,463100
2,641833	0,5	22,821000
2,650167	0,5	21,691050
2,658500	0,5	20,878300
2,666833	0,5	20,280700
2,675167	0,5	19,931200
2,683500	0,5	19,871750
2,691833	0,5	20,136350
2,700167	0,5	20,615250
2,708500	0,5	21,034150
2,716833	0,5	21,111450
2,725167	0,5	20,680650
2,733500	0,5	19,845050
2,741833	0,5	18,855900
2,750167	0,5	17,960950
2,758500	0,5	17,280800
2,766833	0,5	16,860050
2,775167	0,5	16,700000
2,783500	0,5	16,855100
2,791833	0,5	17,498300
2,800167	0,5	18,883100
2,808500	0,5	21,040150
2,816833	0,5	23,512450
2,825167	0,5	25,311550
2,833500	0,5	25,588850
2,841833	0,5	24,234950
2,850167	0,5	21,805500
2,858500	0,5	19,148900
2,866833	0,5	16,901450
2,875167	0,5	15,288750
2,883500	0,5	14,231750
2,891833	0,5	13,578250
2,900167	0,5	13,160450
2,908500	0,5	12,870750
2,916833	0,5	12,606800
2,925167	0,5	12,321150
2,933500	0,5	12,001100
2,941833	0,5	11,686800
2,950167	0,5	11,375150
2,958500	0,5	11,080350
2,966833	0,5	10,812800
2,975167	0,5	10,594300
2,983500	0,5	10,437050
2,991833	0,5	10,352450
3,000167	0,5	10,324500
3,008500	0,5	10,321450
3,016833	0,5	10,290400
3,025167	0,5	10,189700
3,033500	0,5	10,013700
3,041833	0,5	9,800400
3,050167	0,5	9,594800
3,058500	0,5	9,466300
3,066833	0,5	9,488450
3,075167	0,5	9,696150
3,083500	0,5	10,086950
3,091833	0,5	10,547900
3,100167	0,5	10,907700
3,108500	0,5	11,025150
3,116833	0,5	10,901400
3,125167	0,5	10,595400
3,133500	0,5	10,241100
3,141833	0,5	9,909900
3,150167	0,5	9,681250
3,158500	0,5	9,634550
3,166833	0,5	9,813150
3,175167	0,5	10,115450
3,183500	0,5	10,410100
3,191833	0,5	10,629250
3,200167	0,5	10,749750
3,208500	0,5	10,747450
3,216833	0,5	10,576100
3,225167	0,5	10,236300
3,233500	0,5	9,745450
3,241833	0,5	9,239800
3,250167	0,5	8,729050
3,258500	0,5	8,297450
3,266833	0,5	7,948150
3,275167	0,5	7,678300
3,283500	0,5	7,469750
3,291833	0,5	7,286950
3,300167	0,5	7,135850
3,308500	0,5	7,020650
3,316833	0,5	6,919300
3,325167	0,5	6,850200
3,333500	0,5	6,798050
3,341833	0,5	6,777700
3,350167	0,5	6,766050
3,358500	0,5	6,766850
3,366833	0,5	6,768650
3,375167	0,5	6,770850
3,383500	0,5	6,784200
3,391833	0,5	6,830250
3,400167	0,5	6,856950
3,408500	0,5	6,896200
3,416833	0,5	6,935600
3,425167	0,5	6,969250
3,433500	0,5	7,009200
3,441833	0,5	7,013500
3,450167	0,5	7,031650
3,458500	0,5	7,039150
3,466833	0,5	7,067750
3,475167	0,5	7,088100
3,483500	0,5	7,120100
3,491833	0,5	7,150450
3,500167	0,5	7,204700
3,508500	0,5	7,303450
3,516833	0,5	7,488250
3,525167	0,5	7,796650
3,533500	0,5	8,267600
3,541833	0,5	8,905200
3,550167	0,5	9,677450
3,558500	0,5	10,578050
3,566833	0,5	11,607400
3,575167	0,5	12,882550
3,583500	0,5	14,609950
3,591833	0,5	17,085750
3,600167	0,5	20,557050
3,608500	0,5	25,064050
3,616833	0,5	30,196100
3,625167	0,5	35,145001
3,633500	0,5	38,857801
3,641833	0,5	40,499601
3,650167	0,5	39,693651
3,658500	0,5	36,691951
3,666833	0,5	32,176150
3,675167	0,5	27,041350
3,683500	0,5	22,087850
3,691833	0,5	17,829750
3,700167	0,5	14,475750
3,708500	0,5	12,066150
3,716833	0,5	10,435150
3,725167	0,5	9,401350
3,733500	0,5	8,773050
3,741833	0,5	8,388900
3,750167	0,5	8,154150
3,758500	0,5	7,988750
3,766833	0,5	7,847600
3,775167	0,5	7,705700
3,783500	0,5	7,576950
3,791833	0,5	7,453900
3,800167	0,5	7,365450
3,808500	0,5	7,296500
3,816833	0,5	7,242200
3,825167	0,5	7,191700
3,833500	0,5	7,133350
3,841833	0,5	7,017450
3,850167	0,5	6,855500
3,858500	0,5	6,662850
3,866833	0,5	6,454700
3,875167	0,5	6,252400
3,883500	0,5	6,065550
3,891833	0,5	5,901200
3,900167	0,5	5,772850
3,908500	0,5	5,681150
3,916833	0,5	5,625800
3,925167	0,5	5,596750
3,933500	0,5	5,601700
3,941833	0,5	5,628150
3,950167	0,5	5,674100
3,958500	0,5	5,733250
3,966833	0,5	5,771800
3,975167	0,5	5,807250
3,983500	0,5	5,801700
3,991833	0,5	5,743050
4,000167	0,5	5,653200
4,008500	0,5	5,554450
4,016833	0,5	5,450050
4,025167	0,5	5,359650
4,033500	0,5	5,268250
4,041833	0,5	5,198300
4,050167	0,5	5,136050
4,058500	0,5	5,100650
4,066833	0,5	5,077550
4,075167	0,5	5,071050
4,083500	0,5	5,068250
4,091833	0,5	5,074550
4,100167	0,5	5,092100
4,108500	0,5	5,113050
4,116833	0,5	5,131600
4,125167	0,5	5,162800
4,133500	0,5	5,180250
4,141833	0,5	5,184350
4,150167	0,5	5,189800
4,158500	0,5	5,192350
4,166833	0,5	5,201100
4,175167	0,5	5,197300
4,183500	0,5	5,191850
4,191833	0,5	5,179150
4,200167	0,5	5,180250
4,208500	0,5	5,174150
4,216833	0,5	5,171650
4,225167	0,5	5,162050
4,233500	0,5	5,156800
4,241833	0,5	5,141350
4,250167	0,5	5,118450
4,258500	0,5	5,091800
4,266833	0,5	5,034000
4,275167	0,5	4,957300
4,283500	0,5	4,817800
4,291833	0,5	4,666300
4,300167	0,5	4,509650
4,308500	0,5	4,374100
4,316833	0,5	4,268550
4,325167	0,5	4,156900
4,333500	0,5	4,051500
4,341833	0,5	3,959600
4,350167	0,5	3,872200
4,358500	0,5	3,799000
4,366833	0,5	3,735350
4,375167	0,5	3,678500
4,383500	0,5	3,626000
4,391833	0,5	3,592250
4,400167	0,5	3,557550
4,408500	0,5	3,532000
4,416833	0,5	3,504200
4,425167	0,5	3,503900
4,433500	0,5	3,486850
4,441833	0,5	3,492000
4,450167	0,5	3,507850
4,458500	0,5	3,535300
4,466833	0,5	3,586100
4,475167	0,5	3,614250
4,483500	0,5	3,653800
4,491833	0,5	3,692450
4,500167	0,5	3,740050
4,508500	0,5	3,779350
4,516833	0,5	3,834450
4,525167	0,5	3,893000
4,533500	0,5	3,969650
4,541833	0,5	4,065050
4,550167	0,5	4,183850
4,558500	0,5	4,315700
4,566833	0,5	4,462650
4,575167	0,5	4,600600
4,583500	0,5	4,710100
4,591833	0,5	4,798400
4,600167	0,5	4,848850
4,608500	0,5	4,850700
4,616833	0,5	4,811550
4,625167	0,5	4,717350
4,633500	0,5	4,579650
4,641833	0,5	4,415800
4,650167	0,5	4,241500
4,658500	0,5	4,072050
4,666833	0,5	3,909600
4,675167	0,5	3,774000
4,683500	0,5	3,660200
4,691833	0,5	3,575800
4,700167	0,5	3,512450
4,708500	0,5	3,472900
4,716833	0,5	3,452450
4,725167	0,5	3,443150
4,733500	0,5	3,436300
4,741833	0,5	3,456700
4,750167	0,5	3,481700
4,758500	0,5	3,521750
4,766833	0,5	3,542800
4,775167	0,5	3,551450
4,783500	0,5	3,540200
4,791833	0,5	3,522500
4,800167	0,5	3,481000
4,808500	0,5	3,429750
4,816833	0,5	3,374850
4,825167	0,5	3,317450
4,833500	0,5	3,253550
4,841833	0,5	3,213350
4,850167	0,5	3,178550
4,858500	0,5	3,141100
4,866833	0,5	3,119150
4,875167	0,5	3,089650
4,883500	0,5	3,062050
4,891833	0,5	3,050100
4,900167	0,5	3,044600
4,908500	0,5	3,037100
4,916833	0,5	3,035000
4,925167	0,5	3,027500
4,933500	0,5	3,028800
4,941833	0,5	3,030200
4,950167	0,5	3,050400
4,958500	0,5	3,076750
4,966833	0,5	3,117550
4,975167	0,5	3,176050
4,983500	0,5	3,257800
4,991833	0,5	3,360000
5,000167	0,5	3,467600
5,008500	0,5	3,595450
5,016833	0,5	3,723900
5,025167	0,5	3,829650
5,033500	0,5	3,925550
5,041833	0,5	4,015650
5,050167	0,5	4,104900
5,058500	0,5	4,192200
5,066833	0,5	4,294900
5,075167	0,5	4,451800
5,083500	0,5	4,696050
5,091833	0,5	5,080500
5,100167	0,5	5,628450
5,108500	0,5	6,392050
5,116833	0,5	7,365150
5,125167	0,5	8,528650
5,133500	0,5	9,802650
5,141833	0,5	11,061500
5,150167	0,5	12,173650
5,158500	0,5	13,022850
5,166833	0,5	13,477700
5,175167	0,5	13,503750
5,183500	0,5	13,126900
5,191833	0,5	12,412850
5,200167	0,5	11,462550
5,208500	0,5	10,365300
5,216833	0,5	9,231050
5,225167	0,5	8,140950
5,233500	0,5	7,164500
5,241833	0,5	6,313150
5,250167	0,5	5,605100
5,258500	0,5	5,023150
5,266833	0,5	4,565900
5,275167	0,5	4,204300
5,283500	0,5	3,932300
5,291833	0,5	3,715100
5,300167	0,5	3,541850
5,308500	0,5	3,416300
5,316833	0,5	3,302850
5,325167	0,5	3,212350
5,333500	0,5	3,138500
5,341833	0,5	3,083050
5,350167	0,5	3,043900
5,358500	0,5	3,001150
5,366833	0,5	2,960300
5,375167	0,5	2,930700
5,383500	0,5	2,904400
5,391833	0,5	2,881700
5,400167	0,5	2,859100
5,408500	0,5	2,840400
5,416833	0,5	2,823400
5,425167	0,5	2,809950
5,433500	0,5	2,796550
5,441833	0,5	2,787500
5,450167	0,5	2,766950
5,458500	0,5	2,772050
5,466833	0,5	2,752050
5,475167	0,5	2,743350
5,483500	0,5	2,731700
5,491833	0,5	2,728750
5,500167	0,5	2,725500
5,508500	0,5	2,716400
5,516833	0,5	2,701500
5,525167	0,5	2,696250
5,533500	0,5	2,693150
5,541833	0,5	2,685600
5,550167	0,5	2,687250
5,558500	0,5	2,688700
5,566833	0,5	2,697050
5,575167	0,5	2,708600
5,583500	0,5	2,724100
5,591833	0,5	2,736750
5,600167	0,5	2,763950
5,608500	0,5	2,789350
5,616833	0,5	2,820050
5,625167	0,5	2,861150
5,633500	0,5	2,909350
5,641833	0,5	2,978000
5,650167	0,5	3,060850
5,658500	0,5	3,157200
5,666833	0,5	3,274300
5,675167	0,5	3,420800
5,683500	0,5	3,606350
5,691833	0,5	3,830050
5,700167	0,5	4,110000
5,708500	0,5	4,444850
5,716833	0,5	4,841250
5,725167	0,5	5,312650
5,733500	0,5	5,855950
5,741833	0,5	6,486000
5,750167	0,5	7,210800
5,758500	0,5	8,020350
5,766833	0,5	8,900850
5,775167	0,5	9,840200
5,783500	0,5	10,766300
5,791833	0,5	11,601200
5,800167	0,5	12,234300
5,808500	0,5	12,565650
5,816833	0,5	12,521700
5,825167	0,5	12,114150
5,833500	0,5	11,362200
5,841833	0,5	10,363800
5,850167	0,5	9,230400
5,858500	0,5	8,072100
5,866833	0,5	6,989850
5,875167	0,5	6,050000
5,883500	0,5	5,280450
5,891833	0,5	4,693200
5,900167	0,5	4,286750
5,908500	0,5	4,004550
5,916833	0,5	3,835950
5,925167	0,5	3,750650
5,933500	0,5	3,710600
5,941833	0,5	3,680800
5,950167	0,5	3,648600
5,958500	0,5	3,589900
5,966833	0,5	3,533600
5,975167	0,5	3,469000
5,983500	0,5	3,425900
5,991833	0,5	3,404000
6,000167	0,5	3,415200
6,008500	0,5	3,445950
6,016833	0,5	3,492550
6,025167	0,5	3,531250
6,033500	0,5	3,541550
6,041833	0,5	3,526150
6,050167	0,5	3,477350
6,058500	0,5	3,377700
6,066833	0,5	3,265700
6,075167	0,5	3,139000
6,083500	0,5	3,014250
6,091833	0,5	2,901050
6,100167	0,5	2,784900
6,108500	0,5	2,690800
6,116833	0,5	2,603850
6,125167	0,5	2,535600
6,133500	0,5	2,475850
6,141833	0,5	2,426200
6,150167	0,5	2,382750
6,158500	0,5	2,347400
6,166833	0,5	2,323450
6,175167	0,5	2,294100
6,183500	0,5	2,266950
6,191833	0,5	2,254150
6,200167	0,5	2,235850
6,208500	0,5	2,220000
6,216833	0,5	2,210900
6,225167	0,5	2,207750
6,233500	0,5	2,208250
6,241833	0,5	2,205400
6,250167	0,5	2,203600
6,258500	0,5	2,192650
6,266833	0,5	2,196550
6,275167	0,5	2,197500
6,283500	0,5	2,197850
6,291833	0,5	2,201300
6,300167	0,5	2,204450
6,308500	0,5	2,208450
6,316833	0,5	2,226950
6,325167	0,5	2,244400
6,333500	0,5	2,272650
6,341833	0,5	2,320400
6,350167	0,5	2,370600
6,358500	0,5	2,427500
6,366833	0,5	2,494450
6,375167	0,5	2,562400
6,383500	0,5	2,623300
6,391833	0,5	2,658050
6,400167	0,5	2,664300
6,408500	0,5	2,651950
6,416833	0,5	2,619400
6,425167	0,5	2,570100
6,433500	0,5	2,510300
6,441833	0,5	2,451700
6,450167	0,5	2,399900
6,458500	0,5	2,359800
6,466833	0,5	2,333100
6,475167	0,5	2,321800
6,483500	0,5	2,320600
6,491833	0,5	2,347000
6,500167	0,5	2,377950
6,508500	0,5	2,434650
6,516833	0,5	2,500700
6,525167	0,5	2,580500
6,533500	0,5	2,666900
6,541833	0,5	2,743050
6,550167	0,5	2,806450
6,558500	0,5	2,865650
6,566833	0,5	2,922400
6,575167	0,5	2,978300
6,583500	0,5	3,041250
6,591833	0,5	3,118350
6,600167	0,5	3,215000
6,608500	0,5	3,345350
6,616833	0,5	3,517350
6,625167	0,5	3,741800
6,633500	0,5	4,052250
6,641833	0,5	4,492500
6,650167	0,5	5,105450
6,658500	0,5	5,993800
6,666833	0,5	7,238100
6,675167	0,5	8,919950
6,683500	0,5	11,051600
6,691833	0,5	13,551000
6,700167	0,5	16,244350
6,708500	0,5	18,833350
6,716833	0,5	20,991850
6,725167	0,5	22,389950
6,733500	0,5	22,839300
6,741833	0,5	22,269850
6,750167	0,5	20,798700
6,758500	0,5	18,659500
6,766833	0,5	16,124300
6,775167	0,5	13,507550
6,783500	0,5	11,052200
6,791833	0,5	8,900800
6,800167	0,5	7,138550
6,808500	0,5	5,769750
6,816833	0,5	4,763650
6,825167	0,5	4,052900
6,833500	0,5	3,563350
6,841833	0,5	3,226700
6,850167	0,5	2,991850
6,858500	0,5	2,834500
6,866833	0,5	2,718700
6,875167	0,5	2,635700
6,883500	0,5	2,570100
6,891833	0,5	2,518850
6,900167	0,5	2,475950
6,908500	0,5	2,440750
6,916833	0,5	2,403550
6,925167	0,5	2,370650
6,933500	0,5	2,344550
6,941833	0,5	2,314950
6,950167	0,5	2,291600
6,958500	0,5	2,268000
6,966833	0,5	2,252450
6,975167	0,5	2,243500
6,983500	0,5	2,230800
6,991833	0,5	2,218500
7,000167	0,5	2,214400
7,008500	0,5	2,209350
7,016833	0,5	2,207550
7,025167	0,5	2,205650
7,033500	0,5	2,202800
7,041833	0,5	2,201600
7,050167	0,5	2,201500
7,058500	0,5	2,196900
7,066833	0,5	2,192350
7,075167	0,5	2,190300
7,083500	0,5	2,195450
7,091833	0,5	2,190550
7,100167	0,5	2,191500
7,108500	0,5	2,196450
7,116833	0,5	2,208950
7,125167	0,5	2,219100
7,133500	0,5	2,230000
7,141833	0,5	2,242300
7,150167	0,5	2,260050
7,158500	0,5	2,269250
7,166833	0,5	2,278400
7,175167	0,5	2,282550
7,183500	0,5	2,276950
7,191833	0,5	2,260750
7,200167	0,5	2,236350
7,208500	0,5	2,206550
7,216833	0,5	2,169800
7,225167	0,5	2,143400
7,233500	0,5	2,119350
7,241833	0,5	2,102100
7,250167	0,5	2,090450
7,258500	0,5	2,089550
7,266833	0,5	2,095950
7,275167	0,5	2,106850
7,283500	0,5	2,114950
7,291833	0,5	2,126800
7,300167	0,5	2,131300
7,308500	0,5	2,138150
7,316833	0,5	2,138800
7,325167	0,5	2,139900
7,333500	0,5	2,151850
7,341833	0,5	2,180700
7,350167	0,5	2,233000
7,358500	0,5	2,313550
7,366833	0,5	2,415050
7,375167	0,5	2,522600
7,383500	0,5	2,601400
7,391833	0,5	2,633450
7,400167	0,5	2,613750
7,408500	0,5	2,545000
7,416833	0,5	2,452000
7,425167	0,5	2,343050
7,433500	0,5	2,251050
7,441833	0,5	2,172750
7,450167	0,5	2,126900
7,458500	0,5	2,100550
7,466833	0,5	2,101650
7,475167	0,5	2,115300
7,483500	0,5	2,145700
7,491833	0,5	2,194750
7,500167	0,5	2,267100
7,508500	0,5	2,360600
7,516833	0,5	2,484700
7,525167	0,5	2,643900
7,533500	0,5	2,819150
7,541833	0,5	2,998450
7,550167	0,5	3,154400
7,558500	0,5	3,266300
7,566833	0,5	3,313500
7,575167	0,5	3,287100
7,583500	0,5	3,191700
7,591833	0,5	3,059800
7,600167	0,5	2,919400
7,608500	0,5	2,798350
7,616833	0,5	2,725400
7,625167	0,5	2,698850
7,633500	0,5	2,692250
7,641833	0,5	2,676200
7,650167	0,5	2,623900
7,658500	0,5	2,547800
7,666833	0,5	2,467550
7,675167	0,5	2,399200
7,683500	0,5	2,338450
7,691833	0,5	2,293600
7,700167	0,5	2,252200
7,708500	0,5	2,217250
7,716833	0,5	2,186950
7,725167	0,5	2,155450
7,733500	0,5	2,139750
7,741833	0,5	2,128350
7,750167	0,5	2,136300
7,758500	0,5	2,149150
7,766833	0,5	2,173100
7,775167	0,5	2,198650
7,783500	0,5	2,232400
7,791833	0,5	2,269700
7,800167	0,5	2,313950
7,808500	0,5	2,379950
7,816833	0,5	2,481850
7,825167	0,5	2,618100
7,833500	0,5	2,795550
7,841833	0,5	3,026400
7,850167	0,5	3,307450
7,858500	0,5	3,638900
7,866833	0,5	4,010350
7,875167	0,5	4,415150
7,883500	0,5	4,857050
7,891833	0,5	5,353600
7,900167	0,5	5,930400
7,908500	0,5	6,606450
7,916833	0,5	7,403050
7,925167	0,5	8,349300
7,933500	0,5	9,441300
7,941833	0,5	10,686950
7,950167	0,5	12,050350
7,958500	0,5	13,504600
7,966833	0,5	14,972950
7,975167	0,5	16,350950
7,983500	0,5	17,521400
7,991833	0,5	18,368200
8,000167	0,5	18,782750
8,008500	0,5	18,689800
8,016833	0,5	18,063900
8,025167	0,5	16,948600
8,033500	0,5	15,448450
8,041833	0,5	13,697150
8,050167	0,5	11,846300
8,058500	0,5	10,046600
8,066833	0,5	8,416600
8,075167	0,5	7,023250
8,083500	0,5	5,925200
8,091833	0,5	5,106400
8,100167	0,5	4,548100
8,108500	0,5	4,198300
8,116833	0,5	4,007750
8,125167	0,5	3,918300
8,133500	0,5	3,901850
8,141833	0,5	3,936550
8,150167	0,5	4,009350
8,158500	0,5	4,112250
8,166833	0,5	4,212300
8,175167	0,5	4,293050
8,183500	0,5	4,337900
8,191833	0,5	4,340200
8,200167	0,5	4,299250
8,208500	0,5	4,228500
8,216833	0,5	4,138350
8,225167	0,5	4,047750
8,233500	0,5	3,954350
8,241833	0,5	3,866300
8,250167	0,5	3,786150
8,258500	0,5	3,723900
8,266833	0,5	3,671650
8,275167	0,5	3,622700
8,283500	0,5	3,570000
8,291833	0,5	3,507050
8,300167	0,5	3,439450
8,308500	0,5	3,370100
8,316833	0,5	3,316750
8,325167	0,5	3,292050
8,333500	0,5	3,301350
8,341833	0,5	3,353250
8,350167	0,5	3,447500
8,358500	0,5	3,565500
8,366833	0,5	3,708450
8,375167	0,5	3,868000
8,383500	0,5	4,057450
8,391833	0,5	4,306000
8,400167	0,5	4,681400
8,408500	0,5	5,298450
8,416833	0,5	6,360400
8,425167	0,5	8,144800
8,433500	0,5	10,943000
8,441833	0,5	14,927150
8,450167	0,5	19,938200
8,458500	0,5	25,402200
8,466833	0,5	30,385500
8,475167	0,5	33,887201
8,483500	0,5	35,164051
8,491833	0,5	33,981451
8,500167	0,5	30,698050
8,508500	0,5	26,065700
8,516833	0,5	20,980550
8,525167	0,5	16,208650
8,533500	0,5	12,209250
8,541833	0,5	9,169900
8,550167	0,5	7,018800
8,558500	0,5	5,593600
8,566833	0,5	4,687750
8,575167	0,5	4,136700
8,583500	0,5	3,823050
8,591833	0,5	3,665150
8,600167	0,5	3,626850
8,608500	0,5	3,683850
8,616833	0,5	3,814950
8,625167	0,5	3,991300
8,633500	0,5	4,189750
8,641833	0,5	4,378450
8,650167	0,5	4,552350
8,658500	0,5	4,692700
8,666833	0,5	4,795500
8,675167	0,5	4,838150
8,683500	0,5	4,799250
8,691833	0,5	4,665400
8,700167	0,5	4,460550
8,708500	0,5	4,212550
8,716833	0,5	3,975050
8,725167	0,5	3,788450
8,733500	0,5	3,658200
8,741833	0,5	3,569050
8,750167	0,5	3,488100
8,758500	0,5	3,376650
8,766833	0,5	3,229400
8,775167	0,5	3,063900
8,783500	0,5	2,909300
8,791833	0,5	2,787700
8,800167	0,5	2,700550
8,808500	0,5	2,643550
8,816833	0,5	2,600900
8,825167	0,5	2,562450
8,833500	0,5	2,522900
8,841833	0,5	2,482350
8,850167	0,5	2,459000
8,858500	0,5	2,446700
8,866833	0,5	2,449850
8,875167	0,5	2,456400
8,883500	0,5	2,467200
8,891833	0,5	2,476400
8,900167	0,5	2,476850
8,908500	0,5	2,464250
8,916833	0,5	2,448950
8,925167	0,5	2,426450
8,933500	0,5	2,394400
8,941833	0,5	2,362900
8,950167	0,5	2,326700
8,958500	0,5	2,295500
8,966833	0,5	2,269900
8,975167	0,5	2,254450
8,983500	0,5	2,261200
8,991833	0,5	2,289400
9,000167	0,5	2,354150
9,008500	0,5	2,446550
9,016833	0,5	2,544900
9,025167	0,5	2,619050
9,033500	0,5	2,643800
9,041833	0,5	2,616750
9,050167	0,5	2,547850
9,058500	0,5	2,459550
9,066833	0,5	2,376700
9,075167	0,5	2,308600
9,083500	0,5	2,270900
9,091833	0,5	2,257250
9,100167	0,5	2,267500
9,108500	0,5	2,287100
9,116833	0,5	2,313100
9,125167	0,5	2,332500
9,133500	0,5	2,336700
9,141833	0,5	2,326550
9,150167	0,5	2,307350
9,158500	0,5	2,286250
9,166833	0,5	2,269800
9,175167	0,5	2,266450
9,183500	0,5	2,275850
9,191833	0,5	2,309600
9,200167	0,5	2,354600
9,208500	0,5	2,420750
9,216833	0,5	2,490350
9,225167	0,5	2,563300
9,233500	0,5	2,618350
9,241833	0,5	2,659000
9,250167	0,5	2,674800
9,258500	0,5	2,664300
9,266833	0,5	2,633750
9,275167	0,5	2,586350
9,283500	0,5	2,526950
9,291833	0,5	2,458550
9,300167	0,5	2,395850
9,308500	0,5	2,333350
9,316833	0,5	2,287550
9,325167	0,5	2,259950
9,333500	0,5	2,256950
9,341833	0,5	2,292250
9,350167	0,5	2,349550
9,358500	0,5	2,424550
9,366833	0,5	2,498400
9,375167	0,5	2,558400
9,383500	0,5	2,607600
9,391833	0,5	2,634000
9,400167	0,5	2,646700
9,408500	0,5	2,652250
9,416833	0,5	2,656900
9,425167	0,5	2,663600
9,433500	0,5	2,679150
9,441833	0,5	2,691150
9,450167	0,5	2,710950
9,458500	0,5	2,724950
9,466833	0,5	2,744150
9,475167	0,5	2,775100
9,483500	0,5	2,821000
9,491833	0,5	2,895100
9,500167	0,5	2,988650
9,508500	0,5	3,108150
9,516833	0,5	3,252700
9,525167	0,5	3,415550
9,533500	0,5	3,597100
9,541833	0,5	3,780100
9,550167	0,5	3,973200
9,558500	0,5	4,190800
9,566833	0,5	4,467600
9,575167	0,5	4,910150
9,583500	0,5	5,684500
9,591833	0,5	7,126550
9,600167	0,5	9,710750
9,608500	0,5	13,958550
9,616833	0,5	20,141500
9,625167	0,5	27,918400
9,633500	0,5	36,153001
9,641833	0,5	43,162151
9,650167	0,5	47,350601
9,658500	0,5	47,842301
9,666833	0,5	44,724301
9,675167	0,5	38,918751
9,683500	0,5	31,760350
9,691833	0,5	24,534100
9,700167	0,5	18,166650
9,708500	0,5	13,120250
9,716833	0,5	9,449950
9,725167	0,5	6,953950
9,733500	0,5	5,340850
9,741833	0,5	4,327150
9,750167	0,5	3,697050
9,758500	0,5	3,298850
9,766833	0,5	3,044400
9,775167	0,5	2,876600
9,783500	0,5	2,762000
9,791833	0,5	2,676700
9,800167	0,5	2,606000
9,808500	0,5	2,542250
9,816833	0,5	2,480300
9,825167	0,5	2,433850
9,833500	0,5	2,391600
9,841833	0,5	2,368400
9,850167	0,5	2,359800
9,858500	0,5	2,372650
9,866833	0,5	2,405150
9,875167	0,5	2,446350
9,883500	0,5	2,474450
9,891833	0,5	2,488300
9,900167	0,5	2,470600
9,908500	0,5	2,429250
9,916833	0,5	2,382950
9,925167	0,5	2,338750
9,933500	0,5	2,309700
9,941833	0,5	2,286000
9,950167	0,5	2,261400
9,958500	0,5	2,233850
9,966833	0,5	2,192750
9,975167	0,5	2,149650
9,983500	0,5	2,111800
9,991833	0,5	2,078300
10,000167	0,5	2,059400
10,008500	0,5	2,057450
10,016833	0,5	2,072600
10,025167	0,5	2,098900
10,033500	0,5	2,139200
10,041833	0,5	2,184950
10,050167	0,5	2,230350
10,058500	0,5	2,271500
10,066833	0,5	2,310400
10,075167	0,5	2,351900
10,083500	0,5	2,398550
10,091833	0,5	2,446350
10,100167	0,5	2,520200
10,108500	0,5	2,619100
10,116833	0,5	2,773600
10,125167	0,5	3,009500
10,133500	0,5	3,338300
10,141833	0,5	3,754550
10,150167	0,5	4,225600
10,158500	0,5	4,695000
10,166833	0,5	5,102750
10,175167	0,5	5,403500
10,183500	0,5	5,580100
10,191833	0,5	5,631150
10,200167	0,5	5,562500
10,208500	0,5	5,391600
10,216833	0,5	5,128950
10,225167	0,5	4,806600
10,233500	0,5	4,441700
10,241833	0,5	4,064600
10,250167	0,5	3,696950
10,258500	0,5	3,362350
10,266833	0,5	3,070800
10,275167	0,5	2,826900
10,283500	0,5	2,634700
10,291833	0,5	2,492200
10,300167	0,5	2,402450
10,308500	0,5	2,359600
10,316833	0,5	2,358650
10,325167	0,5	2,385950
10,333500	0,5	2,450300
10,341833	0,5	2,524600
10,350167	0,5	2,619950
10,358500	0,5	2,742000
10,366833	0,5	2,909750
10,375167	0,5	3,180900
10,383500	0,5	3,630950
10,391833	0,5	4,383200
10,400167	0,5	5,584000
10,408500	0,5	7,305150
10,416833	0,5	9,468550
10,425167	0,5	11,784200
10,433500	0,5	13,792900
10,441833	0,5	15,035250
10,450167	0,5	15,223400
10,458500	0,5	14,364100
10,466833	0,5	12,718300
10,475167	0,5	10,683050
10,483500	0,5	8,646900
10,491833	0,5	6,878150
10,500167	0,5	5,497850
10,508500	0,5	4,504250
10,516833	0,5	3,829600
10,525167	0,5	3,397200
10,533500	0,5	3,124950
10,541833	0,5	2,965700
10,550167	0,5	2,882250
10,558500	0,5	2,862600
10,566833	0,5	2,883550
10,575167	0,5	2,944200
10,583500	0,5	3,013800
10,591833	0,5	3,088900
10,600167	0,5	3,156650
10,608500	0,5	3,197500
10,616833	0,5	3,212300
10,625167	0,5	3,195600
10,633500	0,5	3,161300
10,641833	0,5	3,109400
10,650167	0,5	3,065400
10,658500	0,5	3,043200
10,666833	0,5	3,034650
10,675167	0,5	3,031400
10,683500	0,5	3,020050
10,691833	0,5	2,989250
10,700167	0,5	2,940550
10,708500	0,5	2,897050
10,716833	0,5	2,878200
10,725167	0,5	2,907200
10,733500	0,5	2,974100
10,741833	0,5	3,061550
10,750167	0,5	3,172550
10,758500	0,5	3,312650
10,766833	0,5	3,546000
10,775167	0,5	3,791350
10,783500	0,5	3,990150
10,791833	0,5	4,228300
10,800167	0,5	4,680500
10,808500	0,5	5,615200
10,816833	0,5	7,369000
10,825167	0,5	9,965700
10,833500	0,5	12,808150
10,841833	0,5	15,189900
10,850167	0,5	17,356400
10,858500	0,5	19,642450
10,866833	0,5	20,365100
10,875167	0,5	18,581400
10,883500	0,5	16,236700
10,891833	0,5	13,194350
10,900167	0,5	8,461550
10,908500	0,5	4,986250
10,916833	0,5	3,267100
10,925167	0,5	2,420700
10,933500	0,5	1,937450
10,941833	0,5	1,631350
10,950167	0,5	1,420300
10,958500	0,5	1,263550
10,966833	0,5	1,145850
10,975167	0,5	1,048800
10,983500	0,5	0,962900
10,991833	0,5	0,900400
11,000167	0,5	0,848250
11,008500	0,5	0,804500
11,016833	0,5	0,773350
11,025167	0,5	0,747050
11,033500	0,5	0,725600
11,041833	0,5	0,704100
11,050167	0,5	0,695300
11,058500	0,5	0,681650
11,066833	0,5	0,668500
11,075167	0,5	0,658450
11,083500	0,5	0,644550
11,091833	0,5	0,625400
11,100167	0,5	0,609950
11,108500	0,5	0,591450
11,116833	0,5	0,576200
11,125167	0,5	0,553850
11,133500	0,5	0,533850
11,141833	0,5	0,511750
11,150167	0,5	0,493150
11,158500	0,5	0,470700
11,166833	0,5	0,458200
11,175167	0,5	0,438850
11,183500	0,5	0,422000
11,191833	0,5	0,404100
11,200167	0,5	0,386400
11,208500	0,5	0,362200
11,216833	0,5	0,349250
11,225167	0,5	0,329150
11,233500	0,5	0,312550
11,241833	0,5	0,289200
11,250167	0,5	0,271500
11,258500	0,5	0,264650
11,266833	0,5	0,251450
11,275167	0,5	0,242050
11,283500	0,5	0,232150
11,291833	0,5	0,228900
11,300167	0,5	0,222450
11,308500	0,5	0,217100
11,316833	0,5	0,208250
11,325167	0,5	0,207050
11,333500	0,5	0,201800
11,341833	0,5	0,200700
11,350167	0,5	0,199900
11,358500	0,5	0,197900
11,366833	0,5	0,202650
11,375167	0,5	0,200600
11,383500	0,5	0,208700
11,391833	0,5	0,204500
11,400167	0,5	0,204150
11,408500	0,5	0,213850
11,416833	0,5	0,219700
11,425167	0,5	0,219800
11,433500	0,5	0,222000
11,441833	0,5	0,220650
11,450167	0,5	0,220800
11,458500	0,5	0,221250
11,466833	0,5	0,223050
11,475167	0,5	0,217350
11,483500	0,5	0,217200
11,491833	0,5	0,215200
11,500167	0,5	0,215150
11,508500	0,5	0,210300
11,516833	0,5	0,209700
11,525167	0,5	0,206900
11,533500	0,5	0,203250
11,541833	0,5	0,198900
11,550167	0,5	0,195750
11,558500	0,5	0,202050
11,566833	0,5	0,205250
11,575167	0,5	0,205700
11,583500	0,5	0,206850
11,591833	0,5	0,207900
11,600167	0,5	0,209500
11,608500	0,5	0,210850
11,616833	0,5	0,206850
11,625167	0,5	0,204500
11,633500	0,5	0,202700
11,641833	0,5	0,202950
11,650167	0,5	0,198000
11,658500	0,5	0,196150
11,666833	0,5	0,193250
11,675167	0,5	0,190300
11,683500	0,5	0,185300
11,691833	0,5	0,181250
11,700167	0,5	0,177100
11,708500	0,5	0,176050
11,716833	0,5	0,176550
11,725167	0,5	0,173050
11,733500	0,5	0,168300
11,741833	0,5	0,170250
11,750167	0,5	0,167650
11,758500	0,5	0,169500
11,766833	0,5	0,164450
11,775167	0,5	0,162900
11,783500	0,5	0,162400
11,791833	0,5	0,166050
11,800167	0,5	0,159200
11,808500	0,5	0,160900
11,816833	0,5	0,158300
11,825167	0,5	0,154600
11,833500	0,5	0,155150
11,841833	0,5	0,151450
11,850167	0,5	0,152400
11,858500	0,5	0,157050
11,866833	0,5	0,158400
11,875167	0,5	0,158950
11,883500	0,5	0,159700
11,891833	0,5	0,160950
11,900167	0,5	0,164300
11,908500	0,5	0,164600
11,916833	0,5	0,166000
11,925167	0,5	0,167800
11,933500	0,5	0,168500
11,941833	0,5	0,168100
11,950167	0,5	0,170300
11,958500	0,5	0,176650
11,966833	0,5	0,176600
11,975167	0,5	0,177450
11,983500	0,5	0,176150
11,991833	0,5	0,175950
12,000167	0,5	0,181800
12,008500	0,5	0,185000
12,016833	0,5	0,187800
12,025167	0,5	0,191450
12,033500	0,5	0,193950
12,041833	0,5	0,199800
12,050167	0,5	0,203450
12,058500	0,5	0,205850
12,066833	0,5	0,213150
12,075167	0,5	0,215950
12,083500	0,5	0,222900
12,091833	0,5	0,225300
12,100167	0,5	0,228200
12,108500	0,5	0,234150
12,116833	0,5	0,237800
12,125167	0,5	0,234150
12,133500	0,5	0,235600
12,141833	0,5	0,243600
12,150167	0,5	0,253250
12,158500	0,5	0,258400
12,166833	0,5	0,270850
12,175167	0,5	0,272550
12,183500	0,5	0,287150
12,191833	0,5	0,296500
12,200167	0,5	0,312600
12,208500	0,5	0,329700
12,216833	0,5	0,343150
12,225167	0,5	0,361500
12,233500	0,5	0,382600
12,241833	0,5	0,395900
12,250167	0,5	0,421200
12,258500	0,5	0,440650
12,266833	0,5	0,456500
12,275167	0,5	0,471900
12,283500	0,5	0,478300
12,291833	0,5	0,494100
12,300167	0,5	0,502450
12,308500	0,5	0,511450
12,316833	0,5	0,513650
12,325167	0,5	0,516250
12,333500	0,5	0,520550
12,341833	0,5	0,524450
12,350167	0,5	0,532950
12,358500	0,5	0,536800
12,366833	0,5	0,544000
12,375167	0,5	0,553800
12,383500	0,5	0,561600
12,391833	0,5	0,571600
12,400167	0,5	0,579400
12,408500	0,5	0,592100
12,416833	0,5	0,599650
12,425167	0,5	0,608400
12,433500	0,5	0,615450
12,441833	0,5	0,625150
12,450167	0,5	0,636800
12,458500	0,5	0,640850
12,466833	0,5	0,640500
12,475167	0,5	0,640550
12,483500	0,5	0,638900
12,491833	0,5	0,634700
12,500167	0,5	0,631500
12,508500	0,5	0,623800
12,516833	0,5	0,619100
12,525167	0,5	0,613450
12,533500	0,5	0,608800
12,541833	0,5	0,602150
12,550167	0,5	0,600350
12,558500	0,5	0,592300
12,566833	0,5	0,587550
12,575167	0,5	0,580900
12,583500	0,5	0,578000
12,591833	0,5	0,586050
12,600167	0,5	0,587550
12,608500	0,5	0,600250
12,616833	0,5	0,599400
12,625167	0,5	0,607500
12,633500	0,5	0,609400
12,641833	0,5	0,607450
12,650167	0,5	0,605950
12,658500	0,5	0,601000
12,666833	0,5	0,601100
12,675167	0,5	0,596550
12,683500	0,5	0,589300
12,691833	0,5	0,591250
12,700167	0,5	0,593700
12,708500	0,5	0,590300
12,716833	0,5	0,586450
12,725167	0,5	0,585400
12,733500	0,5	0,586150
12,741833	0,5	0,591750
12,750167	0,5	0,597450
12,758500	0,5	0,601400
12,766833	0,5	0,605350
12,775167	0,5	0,611300
12,783500	0,5	0,619750
12,791833	0,5	0,624150
12,800167	0,5	0,634300
12,808500	0,5	0,645650
12,816833	0,5	0,665650
12,825167	0,5	0,683850
12,833500	0,5	0,708200
12,841833	0,5	0,738600
12,850167	0,5	0,776600
12,858500	0,5	0,816100
12,866833	0,5	0,863150
12,875167	0,5	0,922350
12,883500	0,5	0,996500
12,891833	0,5	1,067900
12,900167	0,5	1,142350
12,908500	0,5	1,206450
12,916833	0,5	1,260350
12,925167	0,5	1,297850
12,933500	0,5	1,311250
12,941833	0,5	1,297350
12,950167	0,5	1,260850
12,958500	0,5	1,207050
12,966833	0,5	1,145050
12,975167	0,5	1,073250
12,983500	0,5	1,006250
12,991833	0,5	0,953200
13,000167	0,5	0,901950
13,008500	0,5	0,859000
13,016833	0,5	0,823100
13,025167	0,5	0,806050
13,033500	0,5	0,789800
13,041833	0,5	0,785750
13,050167	0,5	0,775650
13,058500	0,5	0,772100
13,066833	0,5	0,767000
13,075167	0,5	0,768400
13,083500	0,5	0,767500
13,091833	0,5	0,760950
13,100167	0,5	0,760450
13,108500	0,5	0,754750
13,116833	0,5	0,764450
13,125167	0,5	0,760400
13,133500	0,5	0,768550
13,141833	0,5	0,771500
13,150167	0,5	0,778750
13,158500	0,5	0,782000
13,166833	0,5	0,783300
13,175167	0,5	0,792250
13,183500	0,5	0,805500
13,191833	0,5	0,808950
13,200167	0,5	0,814800
13,208500	0,5	0,808250
13,216833	0,5	0,805400
13,225167	0,5	0,795850
13,233500	0,5	0,793300
13,241833	0,5	0,781700
13,250167	0,5	0,771300
13,258500	0,5	0,766300
13,266833	0,5	0,761750
13,275167	0,5	0,747950
13,283500	0,5	0,753850
13,291833	0,5	0,750950
13,300167	0,5	0,751050
13,308500	0,5	0,750050
13,316833	0,5	0,751750
13,325167	0,5	0,762650
13,333500	0,5	0,769750
13,341833	0,5	0,779400
13,350167	0,5	0,783950
13,358500	0,5	0,797700
13,366833	0,5	0,804500
13,375167	0,5	0,812750
13,383500	0,5	0,816550
13,391833	0,5	0,820850
13,400167	0,5	0,822750
13,408500	0,5	0,821700
13,416833	0,5	0,815200
13,425167	0,5	0,805100
13,433500	0,5	0,800550
13,441833	0,5	0,787200
13,450167	0,5	0,780700
13,458500	0,5	0,768700
13,466833	0,5	0,765700
13,475167	0,5	0,774150
13,483500	0,5	0,794000
13,491833	0,5	0,810600
13,500167	0,5	0,829950
13,508500	0,5	0,845450
13,516833	0,5	0,852600
13,525167	0,5	0,854700
13,533500	0,5	0,845500
13,541833	0,5	0,826300
13,550167	0,5	0,812650
13,558500	0,5	0,798350
13,566833	0,5	0,781850
13,575167	0,5	0,777000
13,583500	0,5	0,778300
13,591833	0,5	0,779750
13,600167	0,5	0,782400
13,608500	0,5	0,783600
13,616833	0,5	0,793650
13,625167	0,5	0,805300
13,633500	0,5	0,817900
13,641833	0,5	0,835250
13,650167	0,5	0,860650
13,658500	0,5	0,883400
13,666833	0,5	0,910900
13,675167	0,5	0,928100
13,683500	0,5	0,932650
13,691833	0,5	0,926800
13,700167	0,5	0,911250
13,708500	0,5	0,894150
13,716833	0,5	0,871800
13,725167	0,5	0,862400
13,733500	0,5	0,850500
13,741833	0,5	0,841150
13,750167	0,5	0,839800
13,758500	0,5	0,836950
13,766833	0,5	0,840950
13,775167	0,5	0,852200
13,783500	0,5	0,860600
13,791833	0,5	0,877700
13,800167	0,5	0,897100
13,808500	0,5	0,929600
13,816833	0,5	0,953500
13,825167	0,5	0,962050
13,833500	0,5	0,955800
13,841833	0,5	0,932500
13,850167	0,5	0,903750
13,858500	0,5	0,868450
13,866833	0,5	0,835900
13,875167	0,5	0,820050
13,883500	0,5	0,811800
13,891833	0,5	0,807200
13,900167	0,5	0,807950
13,908500	0,5	0,817400
13,916833	0,5	0,840600
13,925167	0,5	0,862150
13,933500	0,5	0,892150
13,941833	0,5	0,917150
13,950167	0,5	0,933550
13,958500	0,5	0,936650
13,966833	0,5	0,921050
13,975167	0,5	0,889850
13,983500	0,5	0,850200
13,991833	0,5	0,810900
14,000167	0,5	0,777350
14,008500	0,5	0,750050
14,016833	0,5	0,755450
14,025167	0,5	0,770150
14,033500	0,5	0,789050
14,041833	0,5	0,814300
14,050167	0,5	0,833300
14,058500	0,5	0,857850
14,066833	0,5	0,866950
14,075167	0,5	0,868950
14,083500	0,5	0,848600
14,091833	0,5	0,824900
14,100167	0,5	0,791650
14,108500	0,5	0,765150
14,116833	0,5	0,741050
14,125167	0,5	0,726300
14,133500	0,5	0,726450
14,141833	0,5	0,743400
14,150167	0,5	0,766250
14,158500	0,5	0,779400
14,166833	0,5	0,803000
14,175167	0,5	0,809750
14,183500	0,5	0,801050
14,191833	0,5	0,767850
14,200167	0,5	0,734050
14,208500	0,5	0,713800
14,216833	0,5	0,691800
14,225167	0,5	0,673800
14,233500	0,5	0,671350
14,241833	0,5	0,674750
14,250167	0,5	0,689000
14,258500	0,5	0,699800
14,266833	0,5	0,715750
14,275167	0,5	0,719250
14,283500	0,5	0,721450
14,291833	0,5	0,714400
14,300167	0,5	0,697100
14,308500	0,5	0,673150
14,316833	0,5	0,663700
14,325167	0,5	0,642300
14,333500	0,5	0,629800
14,341833	0,5	0,614550
14,350167	0,5	0,607050
14,358500	0,5	0,617600
14,366833	0,5	0,623600
14,375167	0,5	0,632000
14,383500	0,5	0,630250
14,391833	0,5	0,629800
14,400167	0,5	0,619300
14,408500	0,5	0,613200
14,416833	0,5	0,600200
14,425167	0,5	0,592250
14,433500	0,5	0,582550
14,441833	0,5	0,584100
14,450167	0,5	0,573300
14,458500	0,5	0,577350
14,466833	0,5	0,573950
14,475167	0,5	0,569350
14,483500	0,5	0,556450
14,491833	0,5	0,543150
14,500167	0,5	0,529000
14,508500	0,5	0,524000
14,516833	0,5	0,516250
14,525167	0,5	0,511800
14,533500	0,5	0,505050
14,541833	0,5	0,498200
14,550167	0,5	0,491100
14,558500	0,5	0,488650
14,566833	0,5	0,485750
14,575167	0,5	0,480750
14,583500	0,5	0,479600
14,591833	0,5	0,470350
14,600167	0,5	0,465350
14,608500	0,5	0,465900
14,616833	0,5	0,469450
14,625167	0,5	0,465650
14,633500	0,5	0,459450
14,641833	0,5	0,449500
14,650167	0,5	0,450850
14,658500	0,5	0,447150
14,666833	0,5	0,442650
14,675167	0,5	0,429700
14,683500	0,5	0,410900
14,691833	0,5	0,402900
14,700167	0,5	0,390900
14,708500	0,5	0,383100
14,716833	0,5	0,375000
14,725167	0,5	0,375900
14,733500	0,5	0,374850
14,741833	0,5	0,366850
14,750167	0,5	0,363450
14,758500	0,5	0,365450
14,766833	0,5	0,358350
14,775167	0,5	0,346750
14,783500	0,5	0,327950
14,791833	0,5	0,322650
14,800167	0,5	0,318700
14,808500	0,5	0,325300
14,816833	0,5	0,323900
14,825167	0,5	0,325200
14,833500	0,5	0,322600
14,841833	0,5	0,323950
14,850167	0,5	0,321650
14,858500	0,5	0,321500
14,866833	0,5	0,317900
14,875167	0,5	0,314550
14,883500	0,5	0,326450
14,891833	0,5	0,319300
14,900167	0,5	0,329850
14,908500	0,5	0,339400
14,916833	0,5	0,338300
14,925167	0,5	0,335000
14,933500	0,5	0,334700
14,941833	0,5	0,339450
14,950167	0,5	0,345100
14,958500	0,5	0,346750
14,966833	0,5	0,347750
14,975167	0,5	0,335950
14,983500	0,5	0,328450
14,991833	0,5	0,320550
15,000167	0,5	0,316550
15,008500	0,5	0,306350
15,016833	0,5	0,301900
15,025167	0,5	0,305150
15,033500	0,5	0,299500
15,041833	0,5	0,286050
15,050167	0,5	0,294850
15,058500	0,5	0,296950
15,066833	0,5	0,289100
15,075167	0,5	0,277100
15,083500	0,5	0,264150
15,091833	0,5	0,271100
15,100167	0,5	0,270400
15,108500	0,5	0,269400
15,116833	0,5	0,263350
15,125167	0,5	0,270450
15,133500	0,5	0,266500
15,141833	0,5	0,270500
15,150167	0,5	0,267900
15,158500	0,5	0,264500
15,166833	0,5	0,264100
15,175167	0,5	0,265550
15,183500	0,5	0,260750
15,191833	0,5	0,258700
15,200167	0,5	0,265250
15,208500	0,5	0,258750
15,216833	0,5	0,256000
15,225167	0,5	0,242550
15,233500	0,5	0,234800
15,241833	0,5	0,236450
15,250167	0,5	0,244300
15,258500	0,5	0,243300
15,266833	0,5	0,248500
15,275167	0,5	0,243650
15,283500	0,5	0,252350
15,291833	0,5	0,252450
15,300167	0,5	0,259350
15,308500	0,5	0,255850
15,316833	0,5	0,262600
15,325167	0,5	0,265900
15,333500	0,5	0,266450
15,341833	0,5	0,268250
15,350167	0,5	0,284450
15,358500	0,5	0,282450
15,366833	0,5	0,281500
15,375167	0,5	0,283550
15,383500	0,5	0,285450
15,391833	0,5	0,296850
15,400167	0,5	0,298800
15,408500	0,5	0,302650
15,416833	0,5	0,299400
15,425167	0,5	0,297850
15,433500	0,5	0,295350
15,441833	0,5	0,298650
15,450167	0,5	0,297650
15,458500	0,5	0,303350
15,466833	0,5	0,306700
15,475167	0,5	0,314250
15,483500	0,5	0,318650
15,491833	0,5	0,329900
15,500167	0,5	0,335400
15,508500	0,5	0,339600
15,516833	0,5	0,335950
15,525167	0,5	0,333650
15,533500	0,5	0,339650
15,541833	0,5	0,349250
15,550167	0,5	0,359000
15,558500	0,5	0,362900
15,566833	0,5	0,359450
15,575167	0,5	0,348250
15,583500	0,5	0,339450
15,591833	0,5	0,321000
15,600167	0,5	0,306300
15,608500	0,5	0,291900
15,616833	0,5	0,286800
15,625167	0,5	0,277400
15,633500	0,5	0,271650
15,641833	0,5	0,279450
15,650167	0,5	0,281450
15,658500	0,5	0,275600
15,666833	0,5	0,267100
15,675167	0,5	0,266700
15,683500	0,5	0,269300
15,691833	0,5	0,269650
15,700167	0,5	0,275650
15,708500	0,5	0,273300
15,716833	0,5	0,270850
15,725167	0,5	0,267250
15,733500	0,5	0,259900
15,741833	0,5	0,256350
15,750167	0,5	0,247650
15,758500	0,5	0,242350
15,766833	0,5	0,235250
15,775167	0,5	0,222850
15,783500	0,5	0,228300
15,791833	0,5	0,233500
15,800167	0,5	0,230800
15,808500	0,5	0,231250
15,816833	0,5	0,218700
15,825167	0,5	0,218300
15,833500	0,5	0,213200
15,841833	0,5	0,214950
15,850167	0,5	0,202500
15,858500	0,5	0,196400
15,866833	0,5	0,181950
15,875167	0,5	0,178600
15,883500	0,5	0,175650
15,891833	0,5	0,169350
15,900167	0,5	0,170600
15,908500	0,5	0,166300
15,916833	0,5	0,170450
15,925167	0,5	0,156200
15,933500	0,5	0,165550
15,941833	0,5	0,166100
15,950167	0,5	0,158350
15,958500	0,5	0,143350
15,966833	0,5	0,131400
15,975167	0,5	0,132650
15,983500	0,5	0,132550
15,991833	0,5	0,129850
16,000167	0,5	0,129250
16,008500	0,5	0,127200
16,016833	0,5	0,124700
16,025167	0,5	0,127800
16,033500	0,5	0,133150
16,041833	0,5	0,135750
16,050167	0,5	0,137150
16,058500	0,5	0,147200
16,066833	0,5	0,147500
16,075167	0,5	0,138800
16,083500	0,5	0,155800
16,091833	0,5	0,161400
16,100167	0,5	0,164200
16,108500	0,5	0,164350
16,116833	0,5	0,168050
16,125167	0,5	0,192600
16,133500	0,5	0,202450
16,141833	0,5	0,216600
16,150167	0,5	0,219750
16,158500	0,5	0,218400
16,166833	0,5	0,214400
16,175167	0,5	0,217700
16,183500	0,5	0,215050
16,191833	0,5	0,211200
16,200167	0,5	0,218700
16,208500	0,5	0,232850
16,216833	0,5	0,238450
16,225167	0,5	0,257300
16,233500	0,5	0,279150
16,241833	0,5	0,289900
16,250167	0,5	0,293300
16,258500	0,5	0,283050
16,266833	0,5	0,280800
16,275167	0,5	0,272200
16,283500	0,5	0,265000
16,291833	0,5	0,247250
16,300167	0,5	0,238400
16,308500	0,5	0,228550
16,316833	0,5	0,221800
16,325167	0,5	0,216450
16,333500	0,5	0,219150
16,341833	0,5	0,221100
16,350167	0,5	0,225700
16,358500	0,5	0,232950
16,366833	0,5	0,234050
16,375167	0,5	0,244650
16,383500	0,5	0,257250
16,391833	0,5	0,263800
16,400167	0,5	0,265250
16,408500	0,5	0,266550
16,416833	0,5	0,266800
16,425167	0,5	0,292950
16,433500	0,5	0,303550
16,441833	0,5	0,322700
16,450167	0,5	0,348900
16,458500	0,5	0,381200
16,466833	0,5	0,420550
16,475167	0,5	0,465750
16,483500	0,5	0,502050
16,491833	0,5	0,539350
16,500167	0,5	0,560650
16,508500	0,5	0,574550
16,516833	0,5	0,570150
16,525167	0,5	0,573050
16,533500	0,5	0,559850
16,541833	0,5	0,544400
16,550167	0,5	0,513950
16,558500	0,5	0,494900
16,566833	0,5	0,483550
16,575167	0,5	0,475600
16,583500	0,5	0,468300
16,591833	0,5	0,462700
16,600167	0,5	0,460550
16,608500	0,5	0,453000
16,616833	0,5	0,453100
16,625167	0,5	0,453150
16,633500	0,5	0,449900
16,641833	0,5	0,450200
16,650167	0,5	0,450000
16,658500	0,5	0,438300
16,666833	0,5	0,446050
16,675167	0,5	0,450650
16,683500	0,5	0,445950
16,691833	0,5	0,441250
16,700167	0,5	0,434750
16,708500	0,5	0,433200
16,716833	0,5	0,438350
16,725167	0,5	0,443150
16,733500	0,5	0,443700
16,741833	0,5	0,443950
16,750167	0,5	0,441550
16,758500	0,5	0,440050
16,766833	0,5	0,439150
16,775167	0,5	0,436550
16,783500	0,5	0,434350
16,791833	0,5	0,442200
16,800167	0,5	0,436700
16,808500	0,5	0,429350
16,816833	0,5	0,440050
16,825167	0,5	0,451350
16,833500	0,5	0,447550
16,841833	0,5	0,451950
16,850167	0,5	0,444300
16,858500	0,5	0,451050
16,866833	0,5	0,455900
16,875167	0,5	0,459100
16,883500	0,5	0,449200
16,891833	0,5	0,444350
16,900167	0,5	0,437350
16,908500	0,5	0,429150
16,916833	0,5	0,421050
16,925167	0,5	0,411450
16,933500	0,5	0,407800
16,941833	0,5	0,406400
16,950167	0,5	0,404550
16,958500	0,5	0,414000
16,966833	0,5	0,435650
16,975167	0,5	0,454350
16,983500	0,5	0,471400
16,991833	0,5	0,473150
17,000167	0,5	0,475350
17,008500	0,5	0,484150
17,016833	0,5	0,486100
17,025167	0,5	0,479400
17,033500	0,5	0,481000
17,041833	0,5	0,483700
17,050167	0,5	0,505100
17,058500	0,5	0,534250
17,066833	0,5	0,565000
17,075167	0,5	0,597150
17,083500	0,5	0,614000
17,091833	0,5	0,619400
17,100167	0,5	0,591600
17,108500	0,5	0,557650
17,116833	0,5	0,517350
17,125167	0,5	0,470400
17,133500	0,5	0,419050
17,141833	0,5	0,367400
17,150167	0,5	0,338850
17,158500	0,5	0,324250
17,166833	0,5	0,299950
17,175167	0,5	0,286950
17,183500	0,5	0,265400
17,191833	0,5	0,255400
17,200167	0,5	0,236650
17,208500	0,5	0,228550
17,216833	0,5	0,214800
17,225167	0,5	0,203750
17,233500	0,5	0,205000
17,241833	0,5	0,202600
17,250167	0,5	0,184050
17,258500	0,5	0,189650
17,266833	0,5	0,190900
17,275167	0,5	0,183350
17,283500	0,5	0,176250
17,291833	0,5	0,154350
17,300167	0,5	0,155950
17,308500	0,5	0,145650
17,316833	0,5	0,150450
17,325167	0,5	0,132650
17,333500	0,5	0,128000
17,341833	0,5	0,119100
17,350167	0,5	0,116050
17,358500	0,5	0,107700
17,366833	0,5	0,104700
17,375167	0,5	0,098000
17,383500	0,5	0,101050
17,391833	0,5	0,091400
17,400167	0,5	0,080750
17,408500	0,5	0,085650
17,416833	0,5	0,078000
17,425167	0,5	0,072550
17,433500	0,5	0,053800
17,441833	0,5	0,047350
17,450167	0,5	0,041400
17,458500	0,5	0,044450
17,466833	0,5	0,038350
17,475167	0,5	0,037000
17,483500	0,5	0,030200
17,491833	0,5	0,026500
17,500167	0,5	0,025000
17,508500	0,5	0,023350
17,516833	0,5	0,017650
17,525167	0,5	0,016900
17,533500	0,5	0,010500
17,541833	0,5	0,001350
17,550167	0,5	-0,002200
17,558500	0,5	0,004750
17,566833	0,5	-0,001750
17,575167	0,5	-0,008250
17,583500	0,5	-0,021950
17,591833	0,5	-0,032350
17,600167	0,5	-0,030750
17,608500	0,5	-0,033200
17,616833	0,5	-0,034950
17,625167	0,5	-0,038500
17,633500	0,5	-0,046000
17,641833	0,5	-0,046500
17,650167	0,5	-0,047250
17,658500	0,5	-0,051650
17,666833	0,5	-0,054550
17,675167	0,5	-0,049050
17,683500	0,5	-0,051850
17,691833	0,5	-0,065900
17,700167	0,5	-0,062700
17,708500	0,5	-0,062850
17,716833	0,5	-0,068250
17,725167	0,5	-0,079800
17,733500	0,5	-0,099500
17,741833	0,5	-0,093850
17,750167	0,5	-0,092350
17,758500	0,5	-0,092800
17,766833	0,5	-0,097750
17,775167	0,5	-0,097450
17,783500	0,5	-0,101450
17,791833	0,5	-0,100500
17,800167	0,5	-0,102750
17,808500	0,5	-0,106550
17,816833	0,5	-0,108100
17,825167	0,5	-0,102900
17,833500	0,5	-0,118400
17,841833	0,5	-0,115050
17,850167	0,5	-0,112450
17,858500	0,5	-0,113550
17,866833	0,5	-0,116850
17,875167	0,5	-0,125500
17,883500	0,5	-0,128400
17,891833	0,5	-0,123450
17,900167	0,5	-0,122100
17,908500	0,5	-0,120100
17,916833	0,5	-0,121200
17,925167	0,5	-0,124450
17,933500	0,5	-0,115050
17,941833	0,5	-0,108800
17,950167	0,5	-0,099400
17,958500	0,5	-0,096050
17,966833	0,5	-0,087500
17,975167	0,5	-0,077100
17,983500	0,5	-0,078450
17,991833	0,5	-0,066700
18,000167	0,5	-0,052350
18,008500	0,5	-0,043350
18,016833	0,5	-0,040200
18,025167	0,5	-0,055400
18,033500	0,5	-0,041600
18,041833	0,5	-0,030800
18,050167	0,5	-0,021850
18,058500	0,5	-0,019650
18,066833	0,5	-0,016050
18,075167	0,5	-0,013850
18,083500	0,5	-0,010500
18,091833	0,5	-0,013350
18,100167	0,5	-0,015550
18,108500	0,5	-0,013900
18,116833	0,5	-0,014850
18,125167	0,5	-0,013900
18,133500	0,5	-0,034750
18,141833	0,5	-0,020550
18,150167	0,5	-0,028550
18,158500	0,5	-0,030750
18,166833	0,5	-0,042500
18,175167	0,5	-0,058000
18,183500	0,5	-0,056500
18,191833	0,5	-0,052650
18,200167	0,5	-0,061250
18,208500	0,5	-0,058550
18,216833	0,5	-0,064600
18,225167	0,5	-0,066200
18,233500	0,5	-0,066700
18,241833	0,5	-0,069800
18,250167	0,5	-0,072050
18,258500	0,5	-0,076650
18,266833	0,5	-0,073350
18,275167	0,5	-0,084100
18,283500	0,5	-0,093750
18,291833	0,5	-0,096400
18,300167	0,5	-0,107350
18,308500	0,5	-0,123200
18,316833	0,5	-0,139100
18,325167	0,5	-0,163300
18,333500	0,5	-0,164650
18,341833	0,5	-0,175900
18,350167	0,5	-0,175400
18,358500	0,5	-0,182600
18,366833	0,5	-0,186250
18,375167	0,5	-0,193800
18,383500	0,5	-0,194500
18,391833	0,5	-0,202300
18,400167	0,5	-0,202350
18,408500	0,5	-0,198350
18,416833	0,5	-0,196550
18,425167	0,5	-0,208950
18,433500	0,5	-0,207500
18,441833	0,5	-0,204600
18,450167	0,5	-0,212650
18,458500	0,5	-0,220600
18,466833	0,5	-0,231700
18,475167	0,5	-0,230650
18,483500	0,5	-0,230650
18,491833	0,5	-0,224800
18,500167	0,5	-0,224550
18,508500	0,5	-0,221750
18,516833	0,5	-0,227800
18,525167	0,5	-0,222200
18,533500	0,5	-0,224050
18,541833	0,5	-0,220750
18,550167	0,5	-0,219550
18,558500	0,5	-0,208950
18,566833	0,5	-0,213550
18,575167	0,5	-0,217550
18,583500	0,5	-0,212800
18,591833	0,5	-0,209300
18,600167	0,5	-0,209300
18,608500	0,5	-0,218100
18,616833	0,5	-0,226900
18,625167	0,5	-0,227550
18,633500	0,5	-0,211050
18,641833	0,5	-0,208000
18,650167	0,5	-0,194000
18,658500	0,5	-0,195500
18,666833	0,5	-0,183500
18,675167	0,5	-0,183300
18,683500	0,5	-0,184150
18,691833	0,5	-0,188700
18,700167	0,5	-0,184550
18,708500	0,5	-0,181650
18,716833	0,5	-0,191450
18,725167	0,5	-0,189350
18,733500	0,5	-0,176750
18,741833	0,5	-0,173900
18,750167	0,5	-0,171050
18,758500	0,5	-0,179900
18,766833	0,5	-0,173850
18,775167	0,5	-0,161400
18,783500	0,5	-0,159400
18,791833	0,5	-0,149300
18,800167	0,5	-0,157100
18,808500	0,5	-0,154350
18,816833	0,5	-0,167050
18,825167	0,5	-0,169100
18,833500	0,5	-0,183300
18,841833	0,5	-0,189800
18,850167	0,5	-0,197150
18,858500	0,5	-0,203200
18,866833	0,5	-0,230450
18,875167	0,5	-0,229650
18,883500	0,5	-0,234900
18,891833	0,5	-0,240700
18,900167	0,5	-0,251700
18,908500	0,5	-0,278050
18,916833	0,5	-0,270800
18,925167	0,5	-0,276100
18,933500	0,5	-0,276150
18,941833	0,5	-0,286750
18,950167	0,5	-0,290300
18,958500	0,5	-0,292500
18,966833	0,5	-0,289350
18,975167	0,5	-0,289000
18,983500	0,5	-0,287450
18,991833	0,5	-0,284700
19,000167	0,5	-0,267350
19,008500	0,5	-0,274150
19,016833	0,5	-0,281600
19,025167	0,5	-0,270300
19,033500	0,5	-0,269700
19,041833	0,5	-0,279550
19,050167	0,5	-0,289300
19,058500	0,5	-0,310600
19,066833	0,5	-0,308300
19,075167	0,5	-0,313500
19,083500	0,5	-0,319850
19,091833	0,5	-0,326050
19,100167	0,5	-0,332800
19,108500	0,5	-0,335750
19,116833	0,5	-0,343400
19,125167	0,5	-0,339600
19,133500	0,5	-0,343400
19,141833	0,5	-0,342150
19,150167	0,5	-0,338800
19,158500	0,5	-0,341850
19,166833	0,5	-0,348500
19,175167	0,5	-0,342150
19,183500	0,5	-0,342900
19,191833	0,5	-0,350250
19,200167	0,5	-0,367450
19,208500	0,5	-0,370400
19,216833	0,5	-0,361550
19,225167	0,5	-0,359050
19,233500	0,5	-0,358900
19,241833	0,5	-0,357100
19,250167	0,5	-0,354350
19,258500	0,5	-0,353150
19,266833	0,5	-0,340900
19,275167	0,5	-0,336900
19,283500	0,5	-0,328500
19,291833	0,5	-0,322650
19,300167	0,5	-0,318450
19,308500	0,5	-0,337800
19,316833	0,5	-0,328100
19,325167	0,5	-0,329450
19,333500	0,5	-0,333150
19,341833	0,5	-0,342450
19,350167	0,5	-0,356050
19,358500	0,5	-0,364450
19,366833	0,5	-0,366050
19,375167	0,5	-0,377900
19,383500	0,5	-0,379200
19,391833	0,5	-0,385000
19,400167	0,5	-0,387850
19,408500	0,5	-0,381100
19,416833	0,5	-0,373800
19,425167	0,5	-0,361400
19,433500	0,5	-0,348950
19,441833	0,5	-0,325550
19,450167	0,5	-0,323150
19,458500	0,5	-0,333150
19,466833	0,5	-0,337400
19,475167	0,5	-0,349600
19,483500	0,5	-0,368250
19,491833	0,5	-0,387900
19,500167	0,5	-0,413850
19,508500	0,5	-0,418200
19,516833	0,5	-0,419450
19,525167	0,5	-0,416150
19,533500	0,5	-0,424500
19,541833	0,5	-0,419550
19,550167	0,5	-0,420750
19,558500	0,5	-0,419350
19,566833	0,5	-0,420100
19,575167	0,5	-0,424500
19,583500	0,5	-0,414200
19,591833	0,5	-0,409400
19,600167	0,5	-0,420700
19,608500	0,5	-0,418750
19,616833	0,5	-0,408250
19,625167	0,5	-0,412100
19,633500	0,5	-0,404650
19,641833	0,5	-0,411200
19,650167	0,5	-0,401150
19,658500	0,5	-0,391500
19,666833	0,5	-0,368750
19,675167	0,5	-0,362350
19,683500	0,5	-0,350350
19,691833	0,5	-0,352700
19,700167	0,5	-0,353850
19,708500	0,5	-0,349300
19,716833	0,5	-0,352200
19,725167	0,5	-0,351650
19,733500	0,5	-0,343000
19,741833	0,5	-0,346750
19,750167	0,5	-0,363600
19,758500	0,5	-0,358200
19,766833	0,5	-0,359250
19,775167	0,5	-0,359550
19,783500	0,5	-0,370050
19,791833	0,5	-0,380150
19,800167	0,5	-0,379200
19,808500	0,5	-0,377300
19,816833	0,5	-0,394150
19,825167	0,5	-0,398050
19,833500	0,5	-0,414200
19,841833	0,5	-0,424050
19,850167	0,5	-0,433800
19,858500	0,5	-0,435850
19,866833	0,5	-0,437400
19,875167	0,5	-0,437950
19,883500	0,5	-0,425850
19,891833	0,5	-0,437450
19,900167	0,5	-0,441700
19,908500	0,5	-0,429700
19,916833	0,5	-0,427600
19,925167	0,5	-0,432050
19,933500	0,5	-0,439300
19,941833	0,5	-0,437650
19,950167	0,5	-0,427050
19,958500	0,5	-0,427400
19,966833	0,5	-0,415950
19,975167	0,5	-0,413400
19,983500	0,5	-0,397200
19,991833	0,5	-0,391950
20,000167	0,5	-0,376350
20,008500	0,5	-0,367600
20,016833	0,5	-0,364500
20,025167	0,5	-0,357500
20,033500	0,5	-0,357400
20,041833	0,5	-0,388950
20,050167	0,5	-0,388150
20,058500	0,5	-0,394350
20,066833	0,5	-0,402800
20,075167	0,5	-0,407300
20,083500	0,5	-0,426600
20,091833	0,5	-0,425350
20,100167	0,5	-0,422300
20,108500	0,5	-0,415100
20,116833	0,5	-0,416700
20,125167	0,5	-0,411700
20,133500	0,5	-0,414950
20,141833	0,5	-0,411100
20,150167	0,5	-0,412850
20,158500	0,5	-0,413450
20,166833	0,5	-0,410800
20,175167	0,5	-0,406350
20,183500	0,5	-0,405350
20,191833	0,5	-0,415700
20,200167	0,5	-0,399100
20,208500	0,5	-0,397550
20,216833	0,5	-0,386350
20,225167	0,5	-0,390250
20,233500	0,5	-0,393750
20,241833	0,5	-0,380900
20,250167	0,5	-0,365150
20,258500	0,5	-0,360600
20,266833	0,5	-0,343650
20,275167	0,5	-0,334200
20,283500	0,5	-0,331050
20,291833	0,5	-0,332650
20,300167	0,5	-0,342850
20,308500	0,5	-0,357850
20,316833	0,5	-0,367950
20,325167	0,5	-0,375700
20,333500	0,5	-0,388850
20,341833	0,5	-0,400900
20,350167	0,5	-0,398950
20,358500	0,5	-0,409850
20,366833	0,5	-0,421500
20,375167	0,5	-0,435250
20,383500	0,5	-0,450700
20,391833	0,5	-0,438250
20,400167	0,5	-0,437150
20,408500	0,5	-0,421650
20,416833	0,5	-0,416200
20,425167	0,5	-0,404400
20,433500	0,5	-0,403650
20,441833	0,5	-0,392200
20,450167	0,5	-0,394100
20,458500	0,5	-0,396900
20,466833	0,5	-0,390100
20,475167	0,5	-0,395300
20,483500	0,5	-0,413700
20,491833	0,5	-0,412650
20,500167	0,5	-0,420800
20,508500	0,5	-0,428950
20,516833	0,5	-0,441850
20,525167	0,5	-0,453150
20,533500	0,5	-0,452550
20,541833	0,5	-0,453650
20,550167	0,5	-0,442400
20,558500	0,5	-0,443850
20,566833	0,5	-0,436500
20,575167	0,5	-0,432200
20,583500	0,5	-0,425700
20,591833	0,5	-0,427300
20,600167	0,5	-0,418200
20,608500	0,5	-0,407750
20,616833	0,5	-0,390350
20,625167	0,5	-0,387300
20,633500	0,5	-0,380550
20,641833	0,5	-0,369850
20,650167	0,5	-0,363850
20,658500	0,5	-0,364750
20,666833	0,5	-0,378850
20,675167	0,5	-0,389750
20,683500	0,5	-0,403750
20,691833	0,5	-0,401450
20,700167	0,5	-0,408200
20,708500	0,5	-0,402750
20,716833	0,5	-0,404450
20,725167	0,5	-0,397950
20,733500	0,5	-0,400250
20,741833	0,5	-0,397950
20,750167	0,5	-0,397500
20,758500	0,5	-0,376450
20,766833	0,5	-0,365350
20,775167	0,5	-0,369450
20,783500	0,5	-0,374850
20,791833	0,5	-0,372600
20,800167	0,5	-0,379550
20,808500	0,5	-0,378550
20,816833	0,5	-0,383900
20,825167	0,5	-0,370300
20,833500	0,5	-0,360150
20,841833	0,5	-0,354150
20,850167	0,5	-0,340750
20,858500	0,5	-0,339500
20,866833	0,5	-0,330800
20,875167	0,5	-0,331750
20,883500	0,5	-0,325350
20,891833	0,5	-0,320850
20,900167	0,5	-0,306050
20,908500	0,5	-0,281550
20,916833	0,5	-0,260900
20,925167	0,5	-0,267300
20,933500	0,5	-0,261250
20,941833	0,5	-0,265500
20,950167	0,5	-0,265600
20,958500	0,5	-0,277750
20,966833	0,5	-0,280350
20,975167	0,5	-0,268200
20,983500	0,5	-0,274200
20,991833	0,5	-0,270550
21,000167	0,5	-0,269150
21,008500	0,5	-0,267200
21,016833	0,5	-0,269950
21,025167	0,5	-0,261200
21,033500	0,5	-0,261300
21,041833	0,5	-0,255150
21,050167	0,5	-0,240500
21,058500	0,5	-0,222600
21,066833	0,5	-0,216750
21,075167	0,5	-0,220300
21,083500	0,5	-0,223350
21,091833	0,5	-0,215700
21,100167	0,5	-0,220850
21,108500	0,5	-0,233150
21,116833	0,5	-0,221950
21,125167	0,5	-0,214750
21,133500	0,5	-0,206350
21,141833	0,5	-0,206000
21,150167	0,5	-0,199250
21,158500	0,5	-0,196150
21,166833	0,5	-0,190250
21,175167	0,5	-0,185350
21,183500	0,5	-0,170350
21,191833	0,5	-0,156000
21,200167	0,5	-0,122050
21,208500	0,5	-0,099350
21,216833	0,5	-0,098750
21,225167	0,5	-0,098500
21,233500	0,5	-0,101100
21,241833	0,5	-0,107200
21,250167	0,5	-0,114000
21,258500	0,5	-0,122700
21,266833	0,5	-0,110400
21,275167	0,5	-0,103900
21,283500	0,5	-0,093750
21,291833	0,5	-0,082450
21,300167	0,5	-0,075950
21,308500	0,5	-0,061800
21,316833	0,5	-0,049550
21,325167	0,5	-0,030550
21,333500	0,5	-0,014700
21,341833	0,5	0,024650
21,350167	0,5	0,069000
21,358500	0,5	0,105950
21,366833	0,5	0,133550
21,375167	0,5	0,149500
21,383500	0,5	0,146350
21,391833	0,5	0,135500
21,400167	0,5	0,111350
21,408500	0,5	0,092750
21,416833	0,5	0,091550
21,425167	0,5	0,093200
21,433500	0,5	0,099750
21,441833	0,5	0,108500
21,450167	0,5	0,122700
21,458500	0,5	0,130200
21,466833	0,5	0,135200
21,475167	0,5	0,131150
21,483500	0,5	0,135650
21,491833	0,5	0,158950
21,500167	0,5	0,168200
21,508500	0,5	0,166850
21,516833	0,5	0,166950
21,525167	0,5	0,164700
21,533500	0,5	0,163600
21,541833	0,5	0,160000
21,550167	0,5	0,164700
21,558500	0,5	0,180000
21,566833	0,5	0,191550
21,575167	0,5	0,214700
21,583500	0,5	0,230500
21,591833	0,5	0,249250
21,600167	0,5	0,258850
21,608500	0,5	0,273750
21,616833	0,5	0,279850
21,625167	0,5	0,292800
21,633500	0,5	0,314500
21,641833	0,5	0,342800
21,650167	0,5	0,358350
21,658500	0,5	0,370800
21,666833	0,5	0,371950
21,675167	0,5	0,381650
21,683500	0,5	0,391850
21,691833	0,5	0,395350
21,700167	0,5	0,404500
21,708500	0,5	0,415050
21,716833	0,5	0,432950
21,725167	0,5	0,445750
21,733500	0,5	0,463950
21,741833	0,5	0,478350
21,750167	0,5	0,495700
21,758500	0,5	0,511000
21,766833	0,5	0,527350
21,775167	0,5	0,541500
21,783500	0,5	0,578100
21,791833	0,5	0,604100
21,800167	0,5	0,612300
21,808500	0,5	0,629800
21,816833	0,5	0,648100
21,825167	0,5	0,656900
21,833500	0,5	0,669500
21,841833	0,5	0,685250
21,850167	0,5	0,711450
21,858500	0,5	0,736150
21,866833	0,5	0,761000
21,875167	0,5	0,792050
21,883500	0,5	0,822950
21,891833	0,5	0,850650
21,900167	0,5	0,880350
21,908500	0,5	0,911950
21,916833	0,5	0,935050
21,925167	0,5	0,972100
21,933500	0,5	1,015850
21,941833	0,5	1,037700
21,950167	0,5	1,059100
21,958500	0,5	1,087850
21,966833	0,5	1,104500
21,975167	0,5	1,122450
21,983500	0,5	1,124700
21,991833	0,5	1,138050
22,000167	0,5	1,154850
22,008500	0,5	1,169500
22,016833	0,5	1,191900
22,025167	0,5	1,211750
22,033500	0,5	1,236750
22,041833	0,5	1,257100
22,050167	0,5	1,284450
22,058500	0,5	1,300000
22,066833	0,5	1,326250
22,075167	0,5	1,356050
22,083500	0,5	1,388000
22,091833	0,5	1,402800
22,100167	0,5	1,443000
22,108500	0,5	1,465900
22,116833	0,5	1,495050
22,125167	0,5	1,517000
22,133500	0,5	1,535550
22,141833	0,5	1,580350
22,150167	0,5	1,617050
22,158500	0,5	1,645750
22,166833	0,5	1,678100
22,175167	0,5	1,702850
22,183500	0,5	1,730300
22,191833	0,5	1,764000
22,200167	0,5	1,792600
22,208500	0,5	1,834550
22,216833	0,5	1,860600
22,225167	0,5	1,903650
22,233500	0,5	1,938300
22,241833	0,5	1,988100
22,250167	0,5	2,035900
22,258500	0,5	2,078000
22,266833	0,5	2,119000
22,275167	0,5	2,157200
22,283500	0,5	2,195100
22,291833	0,5	2,250000
22,300167	0,5	2,295250
22,308500	0,5	2,339950
22,316833	0,5	2,383000
22,325167	0,5	2,416200
22,333500	0,5	2,457600
22,341833	0,5	2,495000
22,350167	0,5	2,537250
22,358500	0,5	2,583500
22,366833	0,5	2,621550
22,375167	0,5	2,665300
22,383500	0,5	2,725900
22,391833	0,5	2,796000
22,400167	0,5	2,859700
22,408500	0,5	2,909800
22,416833	0,5	2,961750
22,425167	0,5	3,009900
22,433500	0,5	3,067450
22,441833	0,5	3,137550
22,450167	0,5	3,189450
22,458500	0,5	3,250350
22,466833	0,5	3,312100
22,475167	0,5	3,367250
22,483500	0,5	3,423700
22,491833	0,5	3,482700
22,500167	0,5	3,534700
22,508500	0,5	3,588000
22,516833	0,5	3,614250
22,525167	0,5	3,680050
22,533500	0,5	3,745450
22,541833	0,5	3,804600
22,550167	0,5	3,845550
22,558500	0,5	3,887000
22,566833	0,5	3,916700
22,575167	0,5	3,947800
22,583500	0,5	3,992500
22,591833	0,5	4,022150
22,600167	0,5	4,045650
22,608500	0,5	4,071600
22,616833	0,5	4,091550
22,625167	0,5	4,105550
22,633500	0,5	4,117250
22,641833	0,5	4,113050
22,650167	0,5	4,118000
22,658500	0,5	4,075150
22,666833	0,5	4,051550
22,675167	0,5	4,028000
22,683500	0,5	4,019000
22,691833	0,5	3,974100
22,700167	0,5	3,920450
22,708500	0,5	3,853550
22,716833	0,5	3,774650
22,725167	0,5	3,701750
22,733500	0,5	3,614900
22,741833	0,5	3,524700
22,750167	0,5	3,430300
22,758500	0,5	3,332300
22,766833	0,5	3,236350
22,775167	0,5	3,135600
22,783500	0,5	3,027650
22,791833	0,5	2,909400
22,800167	0,5	2,790950
22,808500	0,5	2,630150
22,816833	0,5	2,504250
22,825167	0,5	2,400100
22,833500	0,5	2,271500
22,841833	0,5	2,126000
22,850167	0,5	1,988600
22,858500	0,5	1,852850
22,866833	0,5	1,709700
22,875167	0,5	1,571500
22,883500	0,5	1,431750
22,891833	0,5	1,302250
22,900167	0,5	1,175000
22,908500	0,5	1,051100
22,916833	0,5	0,928450
22,925167	0,5	0,814300
22,933500	0,5	0,691800
22,941833	0,5	0,577350
22,950167	0,5	0,483150
22,958500	0,5	0,358250
22,966833	0,5	0,254700
22,975167	0,5	0,121250
22,983500	0,5	0,007450
22,991833	0,5	-0,092600
23,000167	0,5	-0,187800
23,008500	0,5	-0,267850
23,016833	0,5	-0,360500
23,025167	0,5	-0,441850
23,033500	0,5	-0,518800
23,041833	0,5	-0,584650
23,050167	0,5	-0,647650
23,058500	0,5	-0,705300
23,066833	0,5	-0,766950
23,075167	0,5	-0,828350
23,083500	0,5	-0,877550
23,091833	0,5	-0,932650
23,100167	0,5	-0,956450
23,108500	0,5	-0,999700
23,116833	0,5	-1,056000
23,125167	0,5	-1,133550
23,133500	0,5	-1,175300
23,141833	0,5	-1,219300
23,150167	0,5	-1,244700
23,158500	0,5	-1,267500
23,166833	0,5	-1,298400
23,175167	0,5	-1,325150
23,183500	0,5	-1,340150
23,191833	0,5	-1,354950
23,200167	0,5	-1,365800
23,208500	0,5	-1,376150
23,216833	0,5	-1,384000
23,225167	0,5	-1,387050
23,233500	0,5	-1,398400
23,241833	0,5	-1,390050
23,250167	0,5	-1,416200
23,258500	0,5	-1,398250
23,266833	0,5	-1,404450
23,275167	0,5	-1,443200
23,283500	0,5	-1,456400
23,291833	0,5	-1,457800
23,300167	0,5	-1,458800
23,308500	0,5	-1,452350
23,316833	0,5	-1,454650
23,325167	0,5	-1,454900
23,333500	0,5	-1,453050
23,341833	0,5	-1,436900
23,350167	0,5	-1,430400
23,358500	0,5	-1,414500
23,366833	0,5	-1,403700
23,375167	0,5	-1,391650
23,383500	0,5	-1,376400
23,391833	0,5	-1,370150
23,400167	0,5	-1,389550
23,408500	0,5	-1,341750
23,416833	0,5	-1,320850
23,425167	0,5	-1,332400
23,433500	0,5	-1,328050
23,441833	0,5	-1,324200
23,450167	0,5	-1,312200
23,458500	0,5	-1,304600
23,466833	0,5	-1,294700
23,475167	0,5	-1,292950
23,483500	0,5	-1,276100
23,491833	0,5	-1,268250
23,500167	0,5	-1,255350
23,508500	0,5	-1,243750
23,516833	0,5	-1,224900
23,525167	0,5	-1,215450
23,533500	0,5	-1,197150
23,541833	0,5	-1,263100
23,550167	0,5	-1,229400
23,558500	0,5	-1,175150
23,566833	0,5	-1,138150
23,575167	0,5	-1,128850
23,583500	0,5	-1,119600
23,591833	0,5	-1,109800
23,600167	0,5	-1,097850
23,608500	0,5	-1,087750
23,616833	0,5	-1,073100
23,625167	0,5	-1,062300
23,633500	0,5	-1,049750
23,641833	0,5	-1,037200
23,650167	0,5	-1,023150
23,658500	0,5	-1,007250
23,666833	0,5	-0,996150
23,675167	0,5	-0,981800
23,683500	0,5	-0,986250
23,691833	0,5	-1,055800
23,700167	0,5	-1,023750
23,708500	0,5	-0,977150
23,716833	0,5	-0,931050
23,725167	0,5	-0,916700
23,733500	0,5	-0,901150
23,741833	0,5	-0,892350
23,750167	0,5	-0,878650
23,758500	0,5	-0,865300
23,766833	0,5	-0,850900
23,775167	0,5	-0,832600
23,783500	0,5	-0,818800
23,791833	0,5	-0,799550
23,800167	0,5	-0,787950
23,808500	0,5	-0,769500
23,816833	0,5	-0,754300
23,825167	0,5	-0,740150
23,833500	0,5	-0,829450
23,841833	0,5	-0,810150
23,850167	0,5	-0,796250
23,858500	0,5	-0,726150
23,866833	0,5	-0,698250
23,875167	0,5	-0,679200
23,883500	0,5	-0,669550
23,891833	0,5	-0,668250
23,900167	0,5	-0,658000
23,908500	0,5	-0,644100
23,916833	0,5	-0,628650
23,925167	0,5	-0,615600
23,933500	0,5	-0,596400
23,941833	0,5	-0,586800
23,950167	0,5	-0,565700
23,958500	0,5	-0,551650
23,966833	0,5	-0,537650
23,975167	0,5	-0,528450
23,983500	0,5	-0,631950
23,991833	0,5	-0,593250
24,000167	0,5	-0,563100
24,008500	0,5	-0,505550
24,016833	0,5	-0,474500
24,025167	0,5	-0,464150
24,033500	0,5	-0,454750
24,041833	0,5	-0,458950
24,050167	0,5	-0,435300
24,058500	0,5	-0,418000
24,066833	0,5	-0,406500
24,075167	0,5	-0,393100
24,083500	0,5	-0,381900
24,091833	0,5	-0,374100
24,100167	0,5	-0,363700
24,108500	0,5	-0,347300
24,116833	0,5	-0,338250
24,125167	0,5	-0,364800
24,133500	0,5	-0,425500
24,141833	0,5	-0,379350
24,150167	0,5	-0,352650
24,158500	0,5	-0,305100
24,166833	0,5	-0,288600
24,175167	0,5	-0,269750
24,183500	0,5	-0,267550
24,191833	0,5	-0,276450
24,200167	0,5	-0,257000
24,208500	0,5	-0,237550
24,216833	0,5	-0,228200
24,225167	0,5	-0,214400
24,233500	0,5	-0,201050
24,241833	0,5	-0,186900
24,250167	0,5	-0,173000
24,258500	0,5	-0,169500
24,266833	0,5	-0,159950
24,275167	0,5	-0,226700
24,283500	0,5	-0,215900
24,291833	0,5	-0,200450
24,300167	0,5	-0,165850
24,308500	0,5	-0,136300
24,316833	0,5	-0,124150
24,325167	0,5	-0,122350
24,333500	0,5	-0,122050
24,341833	0,5	-0,125550
24,350167	0,5	-0,105900
24,358500	0,5	-0,096750
24,366833	0,5	-0,078700
24,375167	0,5	-0,074750
24,383500	0,5	-0,065100
24,391833	0,5	-0,058350
24,400167	0,5	-0,045450
24,408500	0,5	-0,035950
24,416833	0,5	-0,031250
24,425167	0,5	-0,085600
24,433500	0,5	-0,069700
24,441833	0,5	-0,050900
24,450167	0,5	-0,022750
24,458500	0,5	-0,001950
24,466833	0,5	0,003900
24,475167	0,5	0,004850
24,483500	0,5	-0,005950
24,491833	0,5	0,001700
24,500167	0,5	0,006450
24,508500	0,5	0,015300
24,516833	0,5	0,020000
24,525167	0,5	0,028750
24,533500	0,5	0,034200
24,541833	0,5	0,041500
24,550167	0,5	0,046450
24,558500	0,5	0,053550
24,566833	0,5	0,043100
24,575167	0,5	0,018050
24,583500	0,5	0,025150
24,591833	0,5	0,050000
24,600167	0,5	0,067450
24,608500	0,5	0,080550
24,616833	0,5	0,083250
24,625167	0,5	0,077400
24,633500	0,5	0,080550
24,641833	0,5	0,083150
24,650167	0,5	0,093600
24,658500	0,5	0,099800
24,666833	0,5	0,103200
24,675167	0,5	0,102700
24,683500	0,5	0,109100
24,691833	0,5	0,113900
24,700167	0,5	0,121200
24,708500	0,5	0,118300
24,716833	0,5	0,088800
24,725167	0,5	0,095550
24,733500	0,5	0,100050
24,741833	0,5	0,118050
24,750167	0,5	0,129500
24,758500	0,5	0,131150
24,766833	0,5	0,135250
24,775167	0,5	0,128500
24,783500	0,5	0,126950
24,791833	0,5	0,139300
24,800167	0,5	0,141500
24,808500	0,5	0,147950
24,816833	0,5	0,146800
24,825167	0,5	0,151000
24,833500	0,5	0,154400
24,841833	0,5	0,156650
24,850167	0,5	0,159300
24,858500	0,5	0,161100
24,866833	0,5	0,138550
24,875167	0,5	0,150150
24,883500	0,5	0,148400
24,891833	0,5	0,162100
24,900167	0,5	0,166450
24,908500	0,5	0,168900
24,916833	0,5	0,167500
24,925167	0,5	0,158750
24,933500	0,5	0,162250
24,941833	0,5	0,167800
24,950167	0,5	0,167000
24,958500	0,5	0,168500
24,966833	0,5	0,172450
24,975167	0,5	0,172300
24,983500	0,5	0,179200
24,991833	0,5	0,180700
25,000167	0,5	0,183350
25,008500	0,5	0,173450
25,016833	0,5	0,172550
25,025167	0,5	0,176000
25,033500	0,5	0,182450
25,041833	0,5	0,184950
25,050167	0,5	0,185750
25,058500	0,5	0,185250
25,066833	0,5	0,182850
25,075167	0,5	0,180650
25,083500	0,5	0,182400
25,091833	0,5	0,182750
25,100167	0,5	0,184450
25,108500	0,5	0,182600
25,116833	0,5	0,184900
25,125167	0,5	0,184950
25,133500	0,5	0,184650
25,141833	0,5	0,188700
25,150167	0,5	0,187950
25,158500	0,5	0,182500
25,166833	0,5	0,181350
25,175167	0,5	0,185250
25,183500	0,5	0,189150
25,191833	0,5	0,189750
25,200167	0,5	0,192050
25,208500	0,5	0,191150
25,216833	0,5	0,188250
25,225167	0,5	0,188200
25,233500	0,5	0,187950
25,241833	0,5	0,185250
25,250167	0,5	0,187650
25,258500	0,5	0,184150
25,266833	0,5	0,183200
25,275167	0,5	0,183850
25,283500	0,5	0,183250
25,291833	0,5	0,183750
25,300167	0,5	0,183200
25,308500	0,5	0,180550
25,316833	0,5	0,184300
25,325167	0,5	0,184900
25,333500	0,5	0,184550
25,341833	0,5	0,184950
25,350167	0,5	0,186250
25,358500	0,5	0,183850
25,366833	0,5	0,181600
25,375167	0,5	0,183100
25,383500	0,5	0,181250
25,391833	0,5	0,181000
25,400167	0,5	0,179950
25,408500	0,5	0,177550
25,416833	0,5	0,180750
25,425167	0,5	0,177300
25,433500	0,5	0,178700
25,441833	0,5	0,178400
25,450167	0,5	0,176300
25,458500	0,5	0,175950
25,466833	0,5	0,176250
25,475167	0,5	0,174300
25,483500	0,5	0,172450
25,491833	0,5	0,172900
25,500167	0,5	0,172350
25,508500	0,5	0,171100
25,516833	0,5	0,173450
25,525167	0,5	0,174750
25,533500	0,5	0,171700
25,541833	0,5	0,168850
25,550167	0,5	0,172300
25,558500	0,5	0,170950
25,566833	0,5	0,168750
25,575167	0,5	0,169850
25,583500	0,5	0,168850
25,591833	0,5	0,167400
25,600167	0,5	0,169500
25,608500	0,5	0,168000
25,616833	0,5	0,170400
25,625167	0,5	0,165350
25,633500	0,5	0,160850
25,641833	0,5	0,164300
25,650167	0,5	0,162400
25,658500	0,5	0,165650
25,666833	0,5	0,162750
25,675167	0,5	0,167650
25,683500	0,5	0,164300
25,691833	0,5	0,165400
25,700167	0,5	0,162550
25,708500	0,5	0,163700
25,716833	0,5	0,162300
25,725167	0,5	0,160700
25,733500	0,5	0,160800
25,741833	0,5	0,161400
25,750167	0,5	0,164500
25,758500	0,5	0,165350
25,766833	0,5	0,167100
25,775167	0,5	0,159850
25,783500	0,5	0,155600
25,791833	0,5	0,156500
25,800167	0,5	0,157300
25,808500	0,5	0,161050
25,816833	0,5	0,163300
25,825167	0,5	0,154350
25,833500	0,5	0,158150
25,841833	0,5	0,155650
25,850167	0,5	0,160000
25,858500	0,5	0,156900
25,866833	0,5	0,157500
25,875167	0,5	0,156200
25,883500	0,5	0,155650
25,891833	0,5	0,159600
25,900167	0,5	0,160750
25,908500	0,5	0,157850
25,916833	0,5	0,163750
25,925167	0,5	0,154850
25,933500	0,5	0,154400
25,941833	0,5	0,154250
25,950167	0,5	0,160850
25,958500	0,5	0,167450
25,966833	0,5	0,161350
25,975167	0,5	0,163150
25,983500	0,5	0,162200
25,991833	0,5	0,162800
26,000167	0,5	0,162800
