File Path	chrom://chromeleon01/ikbm_chromeleon/2022/ICS-5000/ED1/Esteban/20220612_Cell_7_4_eg.seq/350.smp/ED_1.channel/ED_1.chm
Channel	ED_1

Injection Information:
Data Vault	ikbm_chromeleon
Injection	4_24h-EGI_NA
Injection Number	63
Position	GB3
Comment	
Processing Method	Stop sequence after Cell Death
Instrument Method	ICS5000_PA200_FullNative_Ox_26min_ED1
Type	Unknown
Status	Finished
Injection Date	13.06.2022
Injection Time	21:35:13
Injection Volume (µl)	5,0
Dilution Factor	1,0000
Weight	1,0000

Chromatogram Data Information:
Time Min. (min)	0,000167
Time Max. (min)	26,000167
Data Points	3121
Detector	EDet1
Generating Data System	Chromeleon 7.2.9.11323
Exporting Data System	Chromeleon 7.2.9.0
Operator	Instrument Controller
Signal Quantity	
Signal Unit	nC
Signal Min.	-2,224150
Signal Max.	2 688,248590
Channel	ED_1
Driver Name	DC-5000
Channel Type	Evaluation
Min. Step (s)	0,5
Max. Step (s)	0,5
Average Step (s)	0,5

Signal Parameter Information:
Signal Info	

Chromatogram Data:
Time (min)	Step (s)	Value (nC)
0,000167	n.a.	-0,036550
0,008500	0,5	-0,052850
0,016833	0,5	-0,053150
0,025167	0,5	-0,053500
0,033500	0,5	-0,047000
0,041833	0,5	-0,026150
0,050167	0,5	-0,004000
0,058500	0,5	-0,010450
0,066833	0,5	-0,004700
0,075167	0,5	-0,008400
0,083500	0,5	0,001650
0,091833	0,5	-0,013500
0,100167	0,5	-0,010550
0,108500	0,5	-0,020800
0,116833	0,5	-0,019550
0,125167	0,5	-0,020950
0,133500	0,5	-0,020250
0,141833	0,5	-0,030900
0,150167	0,5	-0,003650
0,158500	0,5	-0,019000
0,166833	0,5	-0,035650
0,175167	0,5	-0,039550
0,183500	0,5	-0,034500
0,191833	0,5	-0,019350
0,200167	0,5	-0,010900
0,208500	0,5	-0,012550
0,216833	0,5	-0,021600
0,225167	0,5	-0,020100
0,233500	0,5	-0,025600
0,241833	0,5	-0,022350
0,250167	0,5	-0,032250
0,258500	0,5	-0,033450
0,266833	0,5	-0,037200
0,275167	0,5	-0,032550
0,283500	0,5	-0,026700
0,291833	0,5	-0,027100
0,300167	0,5	0,024450
0,308500	0,5	0,013900
0,316833	0,5	-0,034200
0,325167	0,5	-0,059350
0,333500	0,5	-0,063050
0,341833	0,5	-0,050200
0,350167	0,5	-0,046900
0,358500	0,5	-0,051750
0,366833	0,5	-0,044650
0,375167	0,5	-0,043700
0,383500	0,5	-0,047000
0,391833	0,5	-0,049950
0,400167	0,5	-0,053100
0,408500	0,5	-0,059500
0,416833	0,5	-0,058350
0,425167	0,5	-0,060900
0,433500	0,5	-0,053250
0,441833	0,5	-0,072500
0,450167	0,5	-0,041000
0,458500	0,5	-0,074350
0,466833	0,5	-0,068200
0,475167	0,5	-0,076100
0,483500	0,5	-0,066400
0,491833	0,5	-0,046100
0,500167	0,5	-0,054750
0,508500	0,5	-0,061250
0,516833	0,5	-0,054700
0,525167	0,5	-0,058700
0,533500	0,5	-0,058750
0,541833	0,5	-0,063550
0,550167	0,5	-0,067300
0,558500	0,5	-0,062600
0,566833	0,5	-0,060650
0,575167	0,5	-0,064150
0,583500	0,5	-0,075650
0,591833	0,5	-0,071950
0,600167	0,5	-0,061800
0,608500	0,5	-0,083100
0,616833	0,5	-0,081500
0,625167	0,5	-0,077050
0,633500	0,5	-0,065400
0,641833	0,5	-0,037000
0,650167	0,5	-0,054700
0,658500	0,5	-0,043100
0,666833	0,5	-0,053850
0,675167	0,5	-0,047900
0,683500	0,5	-0,057850
0,691833	0,5	-0,055700
0,700167	0,5	-0,062950
0,708500	0,5	-0,063400
0,716833	0,5	-0,062650
0,725167	0,5	-0,072200
0,733500	0,5	-0,074550
0,741833	0,5	-0,067350
0,750167	0,5	-0,064300
0,758500	0,5	-0,080650
0,766833	0,5	-0,076050
0,775167	0,5	-0,074500
0,783500	0,5	-0,056500
0,791833	0,5	-0,041050
0,800167	0,5	-0,038250
0,808500	0,5	-0,050650
0,816833	0,5	-0,046100
0,825167	0,5	-0,055050
0,833500	0,5	-0,048800
0,841833	0,5	-0,059950
0,850167	0,5	-0,051300
0,858500	0,5	-0,053800
0,866833	0,5	-0,051400
0,875167	0,5	-0,063750
0,883500	0,5	-0,061750
0,891833	0,5	-0,052800
0,900167	0,5	-0,063650
0,908500	0,5	-0,071850
0,916833	0,5	-0,067850
0,925167	0,5	-0,060400
0,933500	0,5	-0,045050
0,941833	0,5	-0,029700
0,950167	0,5	-0,033700
0,958500	0,5	-0,033700
0,966833	0,5	-0,038500
0,975167	0,5	-0,041000
0,983500	0,5	-0,046350
0,991833	0,5	-0,040600
1,000167	0,5	-0,049400
1,008500	0,5	-0,045950
1,016833	0,5	-0,048900
1,025167	0,5	-0,050350
1,033500	0,5	-0,047000
1,041833	0,5	-0,029550
1,050167	0,5	-0,051000
1,058500	0,5	-0,057800
1,066833	0,5	-0,054500
1,075167	0,5	-0,039850
1,083500	0,5	-0,028400
1,091833	0,5	-0,032400
1,100167	0,5	-0,029700
1,108500	0,5	-0,030950
1,116833	0,5	-0,029300
1,125167	0,5	-0,029800
1,133500	0,5	-0,026950
1,141833	0,5	-0,035000
1,150167	0,5	-0,033300
1,158500	0,5	-0,031400
1,166833	0,5	-0,031000
1,175167	0,5	-0,045000
1,183500	0,5	-0,024400
1,191833	0,5	-0,030050
1,200167	0,5	-0,040100
1,208500	0,5	-0,044800
1,216833	0,5	-0,035750
1,225167	0,5	-0,020350
1,233500	0,5	-0,006700
1,241833	0,5	-0,012850
1,250167	0,5	-0,011800
1,258500	0,5	-0,017400
1,266833	0,5	-0,016000
1,275167	0,5	-0,014600
1,283500	0,5	-0,016350
1,291833	0,5	-0,017450
1,300167	0,5	-0,020900
1,308500	0,5	-0,015800
1,316833	0,5	-0,019050
1,325167	0,5	-0,025050
1,333500	0,5	-0,004150
1,341833	0,5	-0,022100
1,350167	0,5	-0,032150
1,358500	0,5	-0,030750
1,366833	0,5	-0,026550
1,375167	0,5	-0,004800
1,383500	0,5	-0,010650
1,391833	0,5	-0,014400
1,400167	0,5	-0,019700
1,408500	0,5	-0,013300
1,416833	0,5	-0,019450
1,425167	0,5	-0,013300
1,433500	0,5	-0,018000
1,441833	0,5	-0,025400
1,450167	0,5	-0,025450
1,458500	0,5	-0,026800
1,466833	0,5	-0,015650
1,475167	0,5	-0,034200
1,483500	0,5	-0,014300
1,491833	0,5	-0,042750
1,500167	0,5	-0,048750
1,508500	0,5	-0,056750
1,516833	0,5	-0,047050
1,525167	0,5	-0,031650
1,533500	0,5	-0,037700
1,541833	0,5	-0,052750
1,550167	0,5	-0,039650
1,558500	0,5	-0,013850
1,566833	0,5	0,111100
1,575167	0,5	0,647400
1,583500	0,5	3,911200
1,591833	0,5	22,867200
1,600167	0,5	107,694802
1,608500	0,5	415,543206
1,616833	0,5	1 287,980269
1,625167	0,5	2 510,279937
1,633500	0,5	2 688,248590
1,641833	0,5	2 591,868489
1,650167	0,5	2 569,801288
1,658500	0,5	2 555,655138
1,666833	0,5	2 557,656838
1,675167	0,5	2 413,410686
1,683500	0,5	1 938,579179
1,691833	0,5	1 379,761821
1,700167	0,5	961,061664
1,708500	0,5	709,509311
1,716833	0,5	554,428008
1,725167	0,5	448,197207
1,733500	0,5	363,923655
1,741833	0,5	297,182554
1,750167	0,5	245,949504
1,758500	0,5	207,718353
1,766833	0,5	179,089203
1,775167	0,5	157,135852
1,783500	0,5	139,933952
1,791833	0,5	126,768302
1,800167	0,5	117,301602
1,808500	0,5	110,368552
1,816833	0,5	103,955352
1,825167	0,5	96,784651
1,833500	0,5	89,222301
1,841833	0,5	82,102451
1,850167	0,5	75,854601
1,858500	0,5	70,442401
1,866833	0,5	65,736051
1,875167	0,5	61,587701
1,883500	0,5	57,948301
1,891833	0,5	54,763351
1,900167	0,5	52,021651
1,908500	0,5	49,688701
1,916833	0,5	48,473451
1,925167	0,5	50,614201
1,933500	0,5	60,645301
1,941833	0,5	87,356301
1,950167	0,5	153,690652
1,958500	0,5	304,652755
1,966833	0,5	546,415808
1,975167	0,5	742,620361
1,983500	0,5	749,084361
1,991833	0,5	598,376409
2,000167	0,5	415,853506
2,008500	0,5	278,594704
2,016833	0,5	192,437003
2,025167	0,5	140,606002
2,033500	0,5	109,507352
2,041833	0,5	91,321801
2,050167	0,5	80,823101
2,058500	0,5	73,404301
2,066833	0,5	66,235751
2,075167	0,5	59,406601
2,083500	0,5	53,741551
2,091833	0,5	49,309801
2,100167	0,5	45,857151
2,108500	0,5	43,498301
2,116833	0,5	42,099401
2,125167	0,5	41,133501
2,133500	0,5	40,357001
2,141833	0,5	39,523601
2,150167	0,5	38,148701
2,158500	0,5	36,314651
2,166833	0,5	34,556051
2,175167	0,5	33,109350
2,183500	0,5	31,892550
2,191833	0,5	30,844950
2,200167	0,5	29,980500
2,208500	0,5	29,247100
2,216833	0,5	28,655600
2,225167	0,5	28,135550
2,233500	0,5	27,753800
2,241833	0,5	27,493200
2,250167	0,5	27,219350
2,258500	0,5	26,886800
2,266833	0,5	26,580850
2,275167	0,5	26,385000
2,283500	0,5	26,317950
2,291833	0,5	26,332650
2,300167	0,5	26,666450
2,308500	0,5	28,039350
2,316833	0,5	29,365250
2,325167	0,5	28,608900
2,333500	0,5	26,940650
2,341833	0,5	26,022200
2,350167	0,5	25,949450
2,358500	0,5	26,623600
2,366833	0,5	28,156200
2,375167	0,5	30,490500
2,383500	0,5	33,347100
2,391833	0,5	36,066951
2,400167	0,5	37,992601
2,408500	0,5	38,796051
2,416833	0,5	38,472351
2,425167	0,5	37,378301
2,433500	0,5	35,865451
2,441833	0,5	34,246451
2,450167	0,5	32,683500
2,458500	0,5	31,354850
2,466833	0,5	30,542750
2,475167	0,5	31,313000
2,483500	0,5	36,826251
2,491833	0,5	52,092701
2,500167	0,5	79,162201
2,508500	0,5	117,089602
2,516833	0,5	172,381503
2,525167	0,5	291,519354
2,533500	0,5	641,380710
2,541833	0,5	1 251,581119
2,550167	0,5	1 550,684123
2,558500	0,5	1 966,201429
2,566833	0,5	1 966,618179
2,575167	0,5	1 849,161828
2,583500	0,5	1 660,968325
2,591833	0,5	1 437,876471
2,600167	0,5	1 213,992968
2,608500	0,5	1 014,586215
2,616833	0,5	842,474863
2,625167	0,5	691,357660
2,633500	0,5	559,585408
2,641833	0,5	448,221157
2,650167	0,5	354,952355
2,658500	0,5	281,595104
2,666833	0,5	225,811603
2,675167	0,5	184,109653
2,683500	0,5	153,212402
2,691833	0,5	130,205152
2,700167	0,5	112,789102
2,708500	0,5	99,329951
2,716833	0,5	88,677851
2,725167	0,5	80,198151
2,733500	0,5	73,384051
2,741833	0,5	67,822401
2,750167	0,5	63,173151
2,758500	0,5	59,182351
2,766833	0,5	55,645051
2,775167	0,5	52,444201
2,783500	0,5	49,500701
2,791833	0,5	46,780801
2,800167	0,5	44,314301
2,808500	0,5	42,188601
2,816833	0,5	40,413701
2,825167	0,5	39,016401
2,833500	0,5	37,920101
2,841833	0,5	36,921151
2,850167	0,5	35,793751
2,858500	0,5	34,371251
2,866833	0,5	32,657700
2,875167	0,5	30,816000
2,883500	0,5	29,044300
2,891833	0,5	27,448200
2,900167	0,5	26,073700
2,908500	0,5	24,899950
2,916833	0,5	23,891600
2,925167	0,5	23,003500
2,933500	0,5	22,200600
2,941833	0,5	21,430050
2,950167	0,5	20,712050
2,958500	0,5	20,035550
2,966833	0,5	19,377800
2,975167	0,5	18,751600
2,983500	0,5	18,178150
2,991833	0,5	17,626300
3,000167	0,5	17,123150
3,008500	0,5	16,652600
3,016833	0,5	16,220800
3,025167	0,5	15,849400
3,033500	0,5	15,536300
3,041833	0,5	15,263950
3,050167	0,5	15,035450
3,058500	0,5	14,815650
3,066833	0,5	14,575700
3,075167	0,5	14,327450
3,083500	0,5	14,053550
3,091833	0,5	13,769700
3,100167	0,5	13,479450
3,108500	0,5	13,205000
3,116833	0,5	12,910900
3,125167	0,5	12,632200
3,133500	0,5	12,363550
3,141833	0,5	12,116900
3,150167	0,5	11,884050
3,158500	0,5	11,653250
3,166833	0,5	11,437900
3,175167	0,5	11,257700
3,183500	0,5	11,083950
3,191833	0,5	10,930950
3,200167	0,5	10,785800
3,208500	0,5	10,661300
3,216833	0,5	10,569950
3,225167	0,5	10,528900
3,233500	0,5	10,556600
3,241833	0,5	10,641900
3,250167	0,5	10,806900
3,258500	0,5	10,960250
3,266833	0,5	11,068550
3,275167	0,5	11,105050
3,283500	0,5	11,058050
3,291833	0,5	10,931000
3,300167	0,5	10,737950
3,308500	0,5	10,489400
3,316833	0,5	10,256700
3,325167	0,5	10,038500
3,333500	0,5	9,871350
3,341833	0,5	9,745750
3,350167	0,5	9,690300
3,358500	0,5	9,686100
3,366833	0,5	9,742450
3,375167	0,5	9,846250
3,383500	0,5	9,968400
3,391833	0,5	10,097150
3,400167	0,5	10,246950
3,408500	0,5	10,346550
3,416833	0,5	10,421750
3,425167	0,5	10,455700
3,433500	0,5	10,443200
3,441833	0,5	10,385750
3,450167	0,5	10,236550
3,458500	0,5	10,036850
3,466833	0,5	9,794300
3,475167	0,5	9,547650
3,483500	0,5	9,284850
3,491833	0,5	9,036500
3,500167	0,5	8,794900
3,508500	0,5	8,577200
3,516833	0,5	8,388350
3,525167	0,5	8,233800
3,533500	0,5	8,135750
3,541833	0,5	8,094950
3,550167	0,5	8,137350
3,558500	0,5	8,241500
3,566833	0,5	8,435850
3,575167	0,5	8,679150
3,583500	0,5	8,936600
3,591833	0,5	9,154500
3,600167	0,5	9,267200
3,608500	0,5	9,272800
3,616833	0,5	9,212750
3,625167	0,5	9,096450
3,633500	0,5	8,972800
3,641833	0,5	8,857150
3,650167	0,5	8,766400
3,658500	0,5	8,696650
3,666833	0,5	8,657500
3,675167	0,5	8,634400
3,683500	0,5	8,616500
3,691833	0,5	8,594500
3,700167	0,5	8,586900
3,708500	0,5	8,545400
3,716833	0,5	8,505150
3,725167	0,5	8,441950
3,733500	0,5	8,371450
3,741833	0,5	8,274100
3,750167	0,5	8,148800
3,758500	0,5	8,025200
3,766833	0,5	7,925850
3,775167	0,5	7,873000
3,783500	0,5	7,881150
3,791833	0,5	7,976900
3,800167	0,5	8,158700
3,808500	0,5	8,451850
3,816833	0,5	8,847900
3,825167	0,5	9,347150
3,833500	0,5	9,949350
3,841833	0,5	10,679400
3,850167	0,5	11,546400
3,858500	0,5	12,682050
3,866833	0,5	14,269850
3,875167	0,5	16,511450
3,883500	0,5	19,622200
3,891833	0,5	23,631650
3,900167	0,5	28,338100
3,908500	0,5	33,272100
3,916833	0,5	37,720151
3,925167	0,5	40,973601
3,933500	0,5	42,469601
3,941833	0,5	42,016701
3,950167	0,5	39,797451
3,958500	0,5	36,265401
3,966833	0,5	32,000800
3,975167	0,5	27,514050
3,983500	0,5	23,283150
3,991833	0,5	19,568700
4,000167	0,5	16,471950
4,008500	0,5	14,033550
4,016833	0,5	12,230900
4,025167	0,5	10,953200
4,033500	0,5	10,107000
4,041833	0,5	9,538650
4,050167	0,5	9,170100
4,058500	0,5	8,893150
4,066833	0,5	8,657400
4,075167	0,5	8,403650
4,083500	0,5	8,134200
4,091833	0,5	7,827200
4,100167	0,5	7,511850
4,108500	0,5	7,201800
4,116833	0,5	6,908100
4,125167	0,5	6,650150
4,133500	0,5	6,441650
4,141833	0,5	6,267650
4,150167	0,5	6,122050
4,158500	0,5	6,008600
4,166833	0,5	5,920150
4,175167	0,5	5,855950
4,183500	0,5	5,790500
4,191833	0,5	5,726350
4,200167	0,5	5,653950
4,208500	0,5	5,602850
4,216833	0,5	5,542000
4,225167	0,5	5,497000
4,233500	0,5	5,445800
4,241833	0,5	5,408100
4,250167	0,5	5,366750
4,258500	0,5	5,339450
4,266833	0,5	5,319750
4,275167	0,5	5,287100
4,283500	0,5	5,272150
4,291833	0,5	5,246850
4,300167	0,5	5,217250
4,308500	0,5	5,188550
4,316833	0,5	5,163100
4,325167	0,5	5,144200
4,333500	0,5	5,117950
4,341833	0,5	5,068950
4,350167	0,5	5,036700
4,358500	0,5	4,994850
4,366833	0,5	4,957350
4,375167	0,5	4,914200
4,383500	0,5	4,886850
4,391833	0,5	4,851850
4,400167	0,5	4,833500
4,408500	0,5	4,813250
4,416833	0,5	4,799250
4,425167	0,5	4,780350
4,433500	0,5	4,788100
4,441833	0,5	4,769250
4,450167	0,5	4,767800
4,458500	0,5	4,761300
4,466833	0,5	4,768450
4,475167	0,5	4,777900
4,483500	0,5	4,777150
4,491833	0,5	4,765550
4,500167	0,5	4,758950
4,508500	0,5	4,752900
4,516833	0,5	4,743950
4,525167	0,5	4,741300
4,533500	0,5	4,732900
4,541833	0,5	4,735800
4,550167	0,5	4,743950
4,558500	0,5	4,764050
4,566833	0,5	4,788150
4,575167	0,5	4,830450
4,583500	0,5	4,900600
4,591833	0,5	4,957400
4,600167	0,5	5,033900
4,608500	0,5	5,110050
4,616833	0,5	5,187450
4,625167	0,5	5,270500
4,633500	0,5	5,311800
4,641833	0,5	5,337850
4,650167	0,5	5,343250
4,658500	0,5	5,338600
4,666833	0,5	5,321800
4,675167	0,5	5,292850
4,683500	0,5	5,267350
4,691833	0,5	5,239350
4,700167	0,5	5,228700
4,708500	0,5	5,214300
4,716833	0,5	5,212100
4,725167	0,5	5,210300
4,733500	0,5	5,212750
4,741833	0,5	5,197500
4,750167	0,5	5,196800
4,758500	0,5	5,191100
4,766833	0,5	5,202900
4,775167	0,5	5,218950
4,783500	0,5	5,237500
4,791833	0,5	5,258000
4,800167	0,5	5,300050
4,808500	0,5	5,350900
4,816833	0,5	5,422100
4,825167	0,5	5,500850
4,833500	0,5	5,592300
4,841833	0,5	5,686000
4,850167	0,5	5,771850
4,858500	0,5	5,840250
4,866833	0,5	5,863100
4,875167	0,5	5,852050
4,883500	0,5	5,774700
4,891833	0,5	5,649300
4,900167	0,5	5,499300
4,908500	0,5	5,342200
4,916833	0,5	5,196450
4,925167	0,5	5,061400
4,933500	0,5	4,937900
4,941833	0,5	4,845350
4,950167	0,5	4,768250
4,958500	0,5	4,719250
4,966833	0,5	4,666950
4,975167	0,5	4,623850
4,983500	0,5	4,576950
4,991833	0,5	4,537100
5,000167	0,5	4,495050
5,008500	0,5	4,441000
5,016833	0,5	4,392250
5,025167	0,5	4,357900
5,033500	0,5	4,303900
5,041833	0,5	4,257100
5,050167	0,5	4,225350
5,058500	0,5	4,200300
5,066833	0,5	4,194950
5,075167	0,5	4,176800
5,083500	0,5	4,168000
5,091833	0,5	4,153900
5,100167	0,5	4,150050
5,108500	0,5	4,143850
5,116833	0,5	4,142500
5,125167	0,5	4,134700
5,133500	0,5	4,127500
5,141833	0,5	4,124850
5,150167	0,5	4,121150
5,158500	0,5	4,110900
5,166833	0,5	4,108600
5,175167	0,5	4,100750
5,183500	0,5	4,082250
5,191833	0,5	4,069650
5,200167	0,5	4,059750
5,208500	0,5	4,059850
5,216833	0,5	4,059550
5,225167	0,5	4,048200
5,233500	0,5	4,035850
5,241833	0,5	4,025350
5,250167	0,5	4,014350
5,258500	0,5	4,005000
5,266833	0,5	3,993300
5,275167	0,5	3,986700
5,283500	0,5	3,979000
5,291833	0,5	3,977400
5,300167	0,5	3,985800
5,308500	0,5	3,992150
5,316833	0,5	4,005800
5,325167	0,5	4,020900
5,333500	0,5	4,038200
5,341833	0,5	4,074950
5,350167	0,5	4,129800
5,358500	0,5	4,208800
5,366833	0,5	4,294100
5,375167	0,5	4,364650
5,383500	0,5	4,432700
5,391833	0,5	4,479700
5,400167	0,5	4,493600
5,408500	0,5	4,476700
5,416833	0,5	4,436800
5,425167	0,5	4,378750
5,433500	0,5	4,327150
5,441833	0,5	4,276150
5,450167	0,5	4,248250
5,458500	0,5	4,220800
5,466833	0,5	4,233700
5,475167	0,5	4,247650
5,483500	0,5	4,287950
5,491833	0,5	4,356400
5,500167	0,5	4,463900
5,508500	0,5	4,609100
5,516833	0,5	4,751650
5,525167	0,5	4,882250
5,533500	0,5	4,980950
5,541833	0,5	5,015950
5,550167	0,5	4,982900
5,558500	0,5	4,881250
5,566833	0,5	4,713150
5,575167	0,5	4,518450
5,583500	0,5	4,316800
5,591833	0,5	4,139600
5,600167	0,5	3,982750
5,608500	0,5	3,869000
5,616833	0,5	3,794150
5,625167	0,5	3,735050
5,633500	0,5	3,707050
5,641833	0,5	3,701300
5,650167	0,5	3,714900
5,658500	0,5	3,747950
5,666833	0,5	3,779000
5,675167	0,5	3,822050
5,683500	0,5	3,856200
5,691833	0,5	3,896750
5,700167	0,5	3,931250
5,708500	0,5	3,961150
5,716833	0,5	3,971300
5,725167	0,5	3,970500
5,733500	0,5	3,956750
5,741833	0,5	3,930500
5,750167	0,5	3,895700
5,758500	0,5	3,860950
5,766833	0,5	3,823900
5,775167	0,5	3,778950
5,783500	0,5	3,747900
5,791833	0,5	3,720650
5,800167	0,5	3,705800
5,808500	0,5	3,683950
5,816833	0,5	3,662100
5,825167	0,5	3,624100
5,833500	0,5	3,591800
5,841833	0,5	3,553800
5,850167	0,5	3,525500
5,858500	0,5	3,490100
5,866833	0,5	3,470400
5,875167	0,5	3,453950
5,883500	0,5	3,451950
5,891833	0,5	3,464200
5,900167	0,5	3,489350
5,908500	0,5	3,534300
5,916833	0,5	3,582600
5,925167	0,5	3,639600
5,933500	0,5	3,709050
5,941833	0,5	3,779450
5,950167	0,5	3,838000
5,958500	0,5	3,873650
5,966833	0,5	3,871300
5,975167	0,5	3,845250
5,983500	0,5	3,786200
5,991833	0,5	3,716450
6,000167	0,5	3,637550
6,008500	0,5	3,564650
6,016833	0,5	3,490700
6,025167	0,5	3,432000
6,033500	0,5	3,391950
6,041833	0,5	3,358650
6,050167	0,5	3,342450
6,058500	0,5	3,356000
6,066833	0,5	3,366500
6,075167	0,5	3,383750
6,083500	0,5	3,422700
6,091833	0,5	3,462600
6,100167	0,5	3,511300
6,108500	0,5	3,541550
6,116833	0,5	3,558250
6,125167	0,5	3,556300
6,133500	0,5	3,537400
6,141833	0,5	3,493650
6,150167	0,5	3,438400
6,158500	0,5	3,373650
6,166833	0,5	3,305350
6,175167	0,5	3,238950
6,183500	0,5	3,186450
6,191833	0,5	3,130750
6,200167	0,5	3,101150
6,208500	0,5	3,073250
6,216833	0,5	3,046300
6,225167	0,5	3,020550
6,233500	0,5	3,006100
6,241833	0,5	2,996550
6,250167	0,5	2,989000
6,258500	0,5	2,977350
6,266833	0,5	2,973300
6,275167	0,5	2,974650
6,283500	0,5	2,980100
6,291833	0,5	2,999000
6,300167	0,5	3,020550
6,308500	0,5	3,054600
6,316833	0,5	3,092350
6,325167	0,5	3,151650
6,333500	0,5	3,220500
6,341833	0,5	3,293500
6,350167	0,5	3,367450
6,358500	0,5	3,425650
6,366833	0,5	3,461300
6,375167	0,5	3,467750
6,383500	0,5	3,447550
6,391833	0,5	3,405100
6,400167	0,5	3,340850
6,408500	0,5	3,254450
6,416833	0,5	3,175900
6,425167	0,5	3,103350
6,433500	0,5	3,038450
6,441833	0,5	2,989300
6,450167	0,5	2,953250
6,458500	0,5	2,928050
6,466833	0,5	2,912350
6,475167	0,5	2,903050
6,483500	0,5	2,900650
6,491833	0,5	2,898800
6,500167	0,5	2,909300
6,508500	0,5	2,905700
6,516833	0,5	2,911900
6,525167	0,5	2,918800
6,533500	0,5	2,939450
6,541833	0,5	2,963700
6,550167	0,5	2,989900
6,558500	0,5	3,024550
6,566833	0,5	3,077450
6,575167	0,5	3,139700
6,583500	0,5	3,218200
6,591833	0,5	3,300250
6,600167	0,5	3,385950
6,608500	0,5	3,453400
6,616833	0,5	3,496900
6,625167	0,5	3,511700
6,633500	0,5	3,487050
6,641833	0,5	3,438550
6,650167	0,5	3,380750
6,658500	0,5	3,297750
6,666833	0,5	3,228900
6,675167	0,5	3,181850
6,683500	0,5	3,156400
6,691833	0,5	3,157550
6,700167	0,5	3,174100
6,708500	0,5	3,210350
6,716833	0,5	3,261900
6,725167	0,5	3,338500
6,733500	0,5	3,437750
6,741833	0,5	3,574850
6,750167	0,5	3,763100
6,758500	0,5	4,023650
6,766833	0,5	4,382000
6,775167	0,5	4,851100
6,783500	0,5	5,435000
6,791833	0,5	6,124950
6,800167	0,5	6,856150
6,808500	0,5	7,550200
6,816833	0,5	8,124300
6,825167	0,5	8,484950
6,833500	0,5	8,582650
6,841833	0,5	8,402400
6,850167	0,5	7,991150
6,858500	0,5	7,431050
6,866833	0,5	6,839650
6,875167	0,5	6,292000
6,883500	0,5	5,861250
6,891833	0,5	5,553800
6,900167	0,5	5,371750
6,908500	0,5	5,275200
6,916833	0,5	5,243750
6,925167	0,5	5,243850
6,933500	0,5	5,266600
6,941833	0,5	5,298900
6,950167	0,5	5,358700
6,958500	0,5	5,466850
6,966833	0,5	5,696000
6,975167	0,5	6,120650
6,983500	0,5	6,849800
6,991833	0,5	7,980300
7,000167	0,5	9,594300
7,008500	0,5	11,731300
7,016833	0,5	14,286350
7,025167	0,5	17,026250
7,033500	0,5	19,556100
7,041833	0,5	21,470550
7,050167	0,5	22,402650
7,058500	0,5	22,203400
7,066833	0,5	20,923250
7,075167	0,5	18,821150
7,083500	0,5	16,270450
7,091833	0,5	13,653850
7,100167	0,5	11,245250
7,108500	0,5	9,233700
7,116833	0,5	7,679200
7,125167	0,5	6,546500
7,133500	0,5	5,737650
7,141833	0,5	5,138850
7,150167	0,5	4,678450
7,158500	0,5	4,300200
7,166833	0,5	3,983300
7,175167	0,5	3,722450
7,183500	0,5	3,517900
7,191833	0,5	3,364500
7,200167	0,5	3,269250
7,208500	0,5	3,204600
7,216833	0,5	3,166400
7,225167	0,5	3,134800
7,233500	0,5	3,113150
7,241833	0,5	3,090500
7,250167	0,5	3,058850
7,258500	0,5	3,027900
7,266833	0,5	3,011450
7,275167	0,5	2,989600
7,283500	0,5	2,974600
7,291833	0,5	2,954600
7,300167	0,5	2,930050
7,308500	0,5	2,905800
7,316833	0,5	2,884850
7,325167	0,5	2,864500
7,333500	0,5	2,842650
7,341833	0,5	2,818900
7,350167	0,5	2,796250
7,358500	0,5	2,772600
7,366833	0,5	2,754050
7,375167	0,5	2,741000
7,383500	0,5	2,742600
7,391833	0,5	2,750950
7,400167	0,5	2,753150
7,408500	0,5	2,757900
7,416833	0,5	2,756800
7,425167	0,5	2,758350
7,433500	0,5	2,744100
7,441833	0,5	2,736350
7,450167	0,5	2,733400
7,458500	0,5	2,747650
7,466833	0,5	2,780850
7,475167	0,5	2,845600
7,483500	0,5	2,936000
7,491833	0,5	3,031550
7,500167	0,5	3,108000
7,508500	0,5	3,139350
7,516833	0,5	3,111900
7,525167	0,5	3,045400
7,533500	0,5	2,975200
7,541833	0,5	2,919700
7,550167	0,5	2,898950
7,558500	0,5	2,914100
7,566833	0,5	2,956750
7,575167	0,5	3,005500
7,583500	0,5	3,035200
7,591833	0,5	3,031550
7,600167	0,5	2,998200
7,608500	0,5	2,936500
7,616833	0,5	2,854400
7,625167	0,5	2,769300
7,633500	0,5	2,689700
7,641833	0,5	2,623650
7,650167	0,5	2,571750
7,658500	0,5	2,526550
7,666833	0,5	2,492600
7,675167	0,5	2,463950
7,683500	0,5	2,444750
7,691833	0,5	2,423700
7,700167	0,5	2,411400
7,708500	0,5	2,410550
7,716833	0,5	2,417350
7,725167	0,5	2,428500
7,733500	0,5	2,430600
7,741833	0,5	2,426350
7,750167	0,5	2,416000
7,758500	0,5	2,405800
7,766833	0,5	2,391050
7,775167	0,5	2,380950
7,783500	0,5	2,372650
7,791833	0,5	2,367900
7,800167	0,5	2,367500
7,808500	0,5	2,369150
7,816833	0,5	2,371400
7,825167	0,5	2,388850
7,833500	0,5	2,416350
7,841833	0,5	2,450400
7,850167	0,5	2,510200
7,858500	0,5	2,587300
7,866833	0,5	2,699450
7,875167	0,5	2,847600
7,883500	0,5	3,041200
7,891833	0,5	3,292800
7,900167	0,5	3,604050
7,908500	0,5	3,954050
7,916833	0,5	4,290450
7,925167	0,5	4,537450
7,933500	0,5	4,628350
7,941833	0,5	4,544500
7,950167	0,5	4,315850
7,958500	0,5	4,013800
7,966833	0,5	3,713450
7,975167	0,5	3,476650
7,983500	0,5	3,312700
7,991833	0,5	3,207250
8,000167	0,5	3,138300
8,008500	0,5	3,073500
8,016833	0,5	2,996000
8,025167	0,5	2,899300
8,033500	0,5	2,794100
8,041833	0,5	2,698900
8,050167	0,5	2,636650
8,058500	0,5	2,611400
8,066833	0,5	2,632750
8,075167	0,5	2,671800
8,083500	0,5	2,720700
8,091833	0,5	2,743400
8,100167	0,5	2,734100
8,108500	0,5	2,690300
8,116833	0,5	2,631000
8,125167	0,5	2,573150
8,133500	0,5	2,521300
8,141833	0,5	2,470000
8,150167	0,5	2,432450
8,158500	0,5	2,398750
8,166833	0,5	2,379050
8,175167	0,5	2,362400
8,183500	0,5	2,351350
8,191833	0,5	2,349100
8,200167	0,5	2,349600
8,208500	0,5	2,358350
8,216833	0,5	2,361800
8,225167	0,5	2,363300
8,233500	0,5	2,359050
8,241833	0,5	2,354750
8,250167	0,5	2,347500
8,258500	0,5	2,341250
8,266833	0,5	2,339450
8,275167	0,5	2,347450
8,283500	0,5	2,350000
8,291833	0,5	2,361900
8,300167	0,5	2,371750
8,308500	0,5	2,383000
8,316833	0,5	2,390800
8,325167	0,5	2,383050
8,333500	0,5	2,374750
8,341833	0,5	2,355250
8,350167	0,5	2,336800
8,358500	0,5	2,317450
8,366833	0,5	2,300500
8,375167	0,5	2,286750
8,383500	0,5	2,279900
8,391833	0,5	2,284100
8,400167	0,5	2,293700
8,408500	0,5	2,314800
8,416833	0,5	2,348300
8,425167	0,5	2,407050
8,433500	0,5	2,483750
8,441833	0,5	2,588800
8,450167	0,5	2,734500
8,458500	0,5	2,923150
8,466833	0,5	3,155150
8,475167	0,5	3,421500
8,483500	0,5	3,730550
8,491833	0,5	4,104150
8,500167	0,5	4,585600
8,508500	0,5	5,309250
8,516833	0,5	6,484800
8,525167	0,5	8,414650
8,533500	0,5	11,407550
8,541833	0,5	15,592650
8,550167	0,5	20,701350
8,558500	0,5	26,023500
8,566833	0,5	30,509700
8,575167	0,5	33,130500
8,583500	0,5	33,312550
8,591833	0,5	31,126800
8,600167	0,5	27,180850
8,608500	0,5	22,383750
8,616833	0,5	17,573600
8,625167	0,5	13,366900
8,633500	0,5	10,043550
8,641833	0,5	7,635350
8,650167	0,5	5,994450
8,658500	0,5	4,942450
8,666833	0,5	4,281050
8,675167	0,5	3,854800
8,683500	0,5	3,570850
8,691833	0,5	3,364350
8,700167	0,5	3,206400
8,708500	0,5	3,088800
8,716833	0,5	3,006300
8,725167	0,5	2,946500
8,733500	0,5	2,891450
8,741833	0,5	2,839400
8,750167	0,5	2,791450
8,758500	0,5	2,748350
8,766833	0,5	2,718700
8,775167	0,5	2,705350
8,783500	0,5	2,721300
8,791833	0,5	2,763950
8,800167	0,5	2,838000
8,808500	0,5	2,927650
8,816833	0,5	3,015450
8,825167	0,5	3,070550
8,833500	0,5	3,070750
8,841833	0,5	3,018450
8,850167	0,5	2,925350
8,858500	0,5	2,826300
8,866833	0,5	2,729250
8,875167	0,5	2,638650
8,883500	0,5	2,561750
8,891833	0,5	2,490700
8,900167	0,5	2,430800
8,908500	0,5	2,382200
8,916833	0,5	2,346050
8,925167	0,5	2,328550
8,933500	0,5	2,321100
8,941833	0,5	2,337000
8,950167	0,5	2,357550
8,958500	0,5	2,372800
8,966833	0,5	2,370600
8,975167	0,5	2,348850
8,983500	0,5	2,309550
8,991833	0,5	2,263650
9,000167	0,5	2,220600
9,008500	0,5	2,186650
9,016833	0,5	2,161550
9,025167	0,5	2,139050
9,033500	0,5	2,125500
9,041833	0,5	2,115250
9,050167	0,5	2,111000
9,058500	0,5	2,104050
9,066833	0,5	2,101850
9,075167	0,5	2,098300
9,083500	0,5	2,099150
9,091833	0,5	2,098750
9,100167	0,5	2,103850
9,108500	0,5	2,111550
9,116833	0,5	2,126900
9,125167	0,5	2,147850
9,133500	0,5	2,185550
9,141833	0,5	2,222750
9,150167	0,5	2,264250
9,158500	0,5	2,298950
9,166833	0,5	2,317050
9,175167	0,5	2,305900
9,183500	0,5	2,283250
9,191833	0,5	2,245100
9,200167	0,5	2,206000
9,208500	0,5	2,167700
9,216833	0,5	2,135650
9,225167	0,5	2,107900
9,233500	0,5	2,084850
9,241833	0,5	2,073950
9,250167	0,5	2,065250
9,258500	0,5	2,067900
9,266833	0,5	2,083050
9,275167	0,5	2,105150
9,283500	0,5	2,142500
9,291833	0,5	2,176350
9,300167	0,5	2,201050
9,308500	0,5	2,212950
9,316833	0,5	2,206600
9,325167	0,5	2,184250
9,333500	0,5	2,159750
9,341833	0,5	2,132050
9,350167	0,5	2,113900
9,358500	0,5	2,109750
9,366833	0,5	2,116300
9,375167	0,5	2,133500
9,383500	0,5	2,165700
9,391833	0,5	2,202600
9,400167	0,5	2,236450
9,408500	0,5	2,261800
9,416833	0,5	2,275000
9,425167	0,5	2,271650
9,433500	0,5	2,262600
9,441833	0,5	2,238100
9,450167	0,5	2,205850
9,458500	0,5	2,174050
9,466833	0,5	2,134400
9,475167	0,5	2,104950
9,483500	0,5	2,076000
9,491833	0,5	2,056700
9,500167	0,5	2,045750
9,508500	0,5	2,036300
9,516833	0,5	2,029950
9,525167	0,5	2,017400
9,533500	0,5	2,010700
9,541833	0,5	2,008950
9,550167	0,5	2,013450
9,558500	0,5	2,033700
9,566833	0,5	2,071300
9,575167	0,5	2,125150
9,583500	0,5	2,195650
9,591833	0,5	2,256700
9,600167	0,5	2,294700
9,608500	0,5	2,307050
9,616833	0,5	2,280550
9,625167	0,5	2,234150
9,633500	0,5	2,178300
9,641833	0,5	2,121150
9,650167	0,5	2,075650
9,658500	0,5	2,039000
9,666833	0,5	2,004850
9,675167	0,5	1,980900
9,683500	0,5	1,962150
9,691833	0,5	1,943850
9,700167	0,5	1,930950
9,708500	0,5	1,922350
9,716833	0,5	1,916650
9,725167	0,5	1,917300
9,733500	0,5	1,922550
9,741833	0,5	1,930550
9,750167	0,5	1,944300
9,758500	0,5	1,969150
9,766833	0,5	1,988250
9,775167	0,5	2,031450
9,783500	0,5	2,072550
9,791833	0,5	2,114500
9,800167	0,5	2,152150
9,808500	0,5	2,171250
9,816833	0,5	2,174700
9,825167	0,5	2,152350
9,833500	0,5	2,108150
9,841833	0,5	2,054100
9,850167	0,5	1,990000
9,858500	0,5	1,926500
9,866833	0,5	1,871650
9,875167	0,5	1,833650
9,883500	0,5	1,807100
9,891833	0,5	1,792650
9,900167	0,5	1,803450
9,908500	0,5	1,822300
9,916833	0,5	1,853400
9,925167	0,5	1,892750
9,933500	0,5	1,939900
9,941833	0,5	2,004700
9,950167	0,5	2,076650
9,958500	0,5	2,147000
9,966833	0,5	2,214100
9,975167	0,5	2,257650
9,983500	0,5	2,267300
9,991833	0,5	2,241300
10,000167	0,5	2,188150
10,008500	0,5	2,120650
10,016833	0,5	2,048550
10,025167	0,5	1,994050
10,033500	0,5	1,942900
10,041833	0,5	1,901100
10,050167	0,5	1,869250
10,058500	0,5	1,842000
10,066833	0,5	1,813550
10,075167	0,5	1,797000
10,083500	0,5	1,783050
10,091833	0,5	1,774500
10,100167	0,5	1,766500
10,108500	0,5	1,762950
10,116833	0,5	1,754350
10,125167	0,5	1,750500
10,133500	0,5	1,744750
10,141833	0,5	1,748750
10,150167	0,5	1,750250
10,158500	0,5	1,752150
10,166833	0,5	1,755950
10,175167	0,5	1,763950
10,183500	0,5	1,770500
10,191833	0,5	1,773500
10,200167	0,5	1,775650
10,208500	0,5	1,771600
10,216833	0,5	1,767050
10,225167	0,5	1,767600
10,233500	0,5	1,782750
10,241833	0,5	1,812250
10,250167	0,5	1,868000
10,258500	0,5	1,933250
10,266833	0,5	2,021650
10,275167	0,5	2,115400
10,283500	0,5	2,214600
10,291833	0,5	2,288900
10,300167	0,5	2,329850
10,308500	0,5	2,325200
10,316833	0,5	2,275050
10,325167	0,5	2,198600
10,333500	0,5	2,100250
10,341833	0,5	2,011500
10,350167	0,5	1,927000
10,358500	0,5	1,855450
10,366833	0,5	1,790650
10,375167	0,5	1,736500
10,383500	0,5	1,697050
10,391833	0,5	1,670150
10,400167	0,5	1,651750
10,408500	0,5	1,644050
10,416833	0,5	1,641800
10,425167	0,5	1,639350
10,433500	0,5	1,637950
10,441833	0,5	1,634050
10,450167	0,5	1,629850
10,458500	0,5	1,625050
10,466833	0,5	1,620450
10,475167	0,5	1,622900
10,483500	0,5	1,627050
10,491833	0,5	1,638200
10,500167	0,5	1,650000
10,508500	0,5	1,650900
10,516833	0,5	1,655950
10,525167	0,5	1,658750
10,533500	0,5	1,673150
10,541833	0,5	1,696250
10,550167	0,5	1,732400
10,558500	0,5	1,777450
10,566833	0,5	1,826750
10,575167	0,5	1,873250
10,583500	0,5	1,905800
10,591833	0,5	1,911800
10,600167	0,5	1,897350
10,608500	0,5	1,871000
10,616833	0,5	1,832150
10,625167	0,5	1,791200
10,633500	0,5	1,753150
10,641833	0,5	1,723900
10,650167	0,5	1,687000
10,658500	0,5	1,651350
10,666833	0,5	1,617250
10,675167	0,5	1,589300
10,683500	0,5	1,579450
10,691833	0,5	1,580800
10,700167	0,5	1,587050
10,708500	0,5	1,599750
10,716833	0,5	1,612800
10,725167	0,5	1,625400
10,733500	0,5	1,625250
10,741833	0,5	1,620750
10,750167	0,5	1,608350
10,758500	0,5	1,600300
10,766833	0,5	1,584500
10,775167	0,5	1,578200
10,783500	0,5	1,589450
10,791833	0,5	1,619650
10,800167	0,5	1,660600
10,808500	0,5	1,716900
10,816833	0,5	1,770600
10,825167	0,5	1,812350
10,833500	0,5	1,837150
10,841833	0,5	1,836000
10,850167	0,5	1,821250
10,858500	0,5	1,792550
10,866833	0,5	1,763300
10,875167	0,5	1,731050
10,883500	0,5	1,696000
10,891833	0,5	1,647800
10,900167	0,5	1,602850
10,908500	0,5	1,559950
10,916833	0,5	1,524800
10,925167	0,5	1,507300
10,933500	0,5	1,503700
10,941833	0,5	1,518650
10,950167	0,5	1,532700
10,958500	0,5	1,546650
10,966833	0,5	1,546700
10,975167	0,5	1,551300
10,983500	0,5	1,550350
10,991833	0,5	1,544950
11,000167	0,5	1,554200
11,008500	0,5	1,571800
11,016833	0,5	1,593300
11,025167	0,5	1,610100
11,033500	0,5	1,613100
11,041833	0,5	1,599450
11,050167	0,5	1,570650
11,058500	0,5	1,534800
11,066833	0,5	1,490300
11,075167	0,5	1,449150
11,083500	0,5	1,416950
11,091833	0,5	1,384750
11,100167	0,5	1,360350
11,108500	0,5	1,351300
11,116833	0,5	1,348200
11,125167	0,5	1,364750
11,133500	0,5	1,382700
11,141833	0,5	1,408800
11,150167	0,5	1,430350
11,158500	0,5	1,455100
11,166833	0,5	1,480950
11,175167	0,5	1,511750
11,183500	0,5	1,540650
11,191833	0,5	1,563050
11,200167	0,5	1,582600
11,208500	0,5	1,595650
11,216833	0,5	1,606350
11,225167	0,5	1,632500
11,233500	0,5	1,678450
11,241833	0,5	1,739350
11,250167	0,5	1,801450
11,258500	0,5	1,845550
11,266833	0,5	1,874050
11,275167	0,5	1,869200
11,283500	0,5	1,835800
11,291833	0,5	1,780200
11,300167	0,5	1,721900
11,308500	0,5	1,663450
11,316833	0,5	1,611200
11,325167	0,5	1,567350
11,333500	0,5	1,527950
11,341833	0,5	1,487600
11,350167	0,5	1,447050
11,358500	0,5	1,415000
11,366833	0,5	1,390150
11,375167	0,5	1,381350
11,383500	0,5	1,386050
11,391833	0,5	1,398900
11,400167	0,5	1,423650
11,408500	0,5	1,442650
11,416833	0,5	1,471000
11,425167	0,5	1,492750
11,433500	0,5	1,496900
11,441833	0,5	1,505650
11,450167	0,5	1,523600
11,458500	0,5	1,546150
11,466833	0,5	1,574900
11,475167	0,5	1,620600
11,483500	0,5	1,733850
11,491833	0,5	1,955600
11,500167	0,5	2,221300
11,508500	0,5	2,386400
11,516833	0,5	2,303000
11,525167	0,5	2,080400
11,533500	0,5	1,794850
11,541833	0,5	1,430850
11,550167	0,5	1,069650
11,558500	0,5	0,758000
11,566833	0,5	0,569400
11,575167	0,5	0,462050
11,583500	0,5	0,401450
11,591833	0,5	0,363200
11,600167	0,5	0,347850
11,608500	0,5	0,345750
11,616833	0,5	0,362550
11,625167	0,5	0,378000
11,633500	0,5	0,394250
11,641833	0,5	0,403450
11,650167	0,5	0,404450
11,658500	0,5	0,379500
11,666833	0,5	0,349450
11,675167	0,5	0,314050
11,683500	0,5	0,266250
11,691833	0,5	0,209350
11,700167	0,5	0,154850
11,708500	0,5	0,101850
11,716833	0,5	0,055700
11,725167	0,5	0,019550
11,733500	0,5	-0,015250
11,741833	0,5	-0,044200
11,750167	0,5	-0,067050
11,758500	0,5	-0,092100
11,766833	0,5	-0,110800
11,775167	0,5	-0,127550
11,783500	0,5	-0,146450
11,791833	0,5	-0,160150
11,800167	0,5	-0,178200
11,808500	0,5	-0,196800
11,816833	0,5	-0,212650
11,825167	0,5	-0,221050
11,833500	0,5	-0,235850
11,841833	0,5	-0,249950
11,850167	0,5	-0,260250
11,858500	0,5	-0,271050
11,866833	0,5	-0,269650
11,875167	0,5	-0,267100
11,883500	0,5	-0,264500
11,891833	0,5	-0,255950
11,900167	0,5	-0,246500
11,908500	0,5	-0,229150
11,916833	0,5	-0,208200
11,925167	0,5	-0,187700
11,933500	0,5	-0,158350
11,941833	0,5	-0,132700
11,950167	0,5	-0,106100
11,958500	0,5	-0,087750
11,966833	0,5	-0,062150
11,975167	0,5	-0,047750
11,983500	0,5	-0,045900
11,991833	0,5	-0,047700
12,000167	0,5	-0,059250
12,008500	0,5	-0,076050
12,016833	0,5	-0,093450
12,025167	0,5	-0,119600
12,033500	0,5	-0,145050
12,041833	0,5	-0,171250
12,050167	0,5	-0,197350
12,058500	0,5	-0,225050
12,066833	0,5	-0,244200
12,075167	0,5	-0,263100
12,083500	0,5	-0,278500
12,091833	0,5	-0,288400
12,100167	0,5	-0,303000
12,108500	0,5	-0,315850
12,116833	0,5	-0,320450
12,125167	0,5	-0,323650
12,133500	0,5	-0,336450
12,141833	0,5	-0,341650
12,150167	0,5	-0,353450
12,158500	0,5	-0,351250
12,166833	0,5	-0,354650
12,175167	0,5	-0,354150
12,183500	0,5	-0,357550
12,191833	0,5	-0,355800
12,200167	0,5	-0,360050
12,208500	0,5	-0,362050
12,216833	0,5	-0,361250
12,225167	0,5	-0,363950
12,233500	0,5	-0,360300
12,241833	0,5	-0,361750
12,250167	0,5	-0,367200
12,258500	0,5	-0,370150
12,266833	0,5	-0,367600
12,275167	0,5	-0,367600
12,283500	0,5	-0,368150
12,291833	0,5	-0,374500
12,300167	0,5	-0,369050
12,308500	0,5	-0,368100
12,316833	0,5	-0,364950
12,325167	0,5	-0,364500
12,333500	0,5	-0,363350
12,341833	0,5	-0,364600
12,350167	0,5	-0,359900
12,358500	0,5	-0,365650
12,366833	0,5	-0,363900
12,375167	0,5	-0,366550
12,383500	0,5	-0,363850
12,391833	0,5	-0,365050
12,400167	0,5	-0,371900
12,408500	0,5	-0,373750
12,416833	0,5	-0,371600
12,425167	0,5	-0,374350
12,433500	0,5	-0,378350
12,441833	0,5	-0,384900
12,450167	0,5	-0,388100
12,458500	0,5	-0,385500
12,466833	0,5	-0,386000
12,475167	0,5	-0,384200
12,483500	0,5	-0,385850
12,491833	0,5	-0,385550
12,500167	0,5	-0,389700
12,508500	0,5	-0,387750
12,516833	0,5	-0,391150
12,525167	0,5	-0,392500
12,533500	0,5	-0,392200
12,541833	0,5	-0,390800
12,550167	0,5	-0,398350
12,558500	0,5	-0,392900
12,566833	0,5	-0,395200
12,575167	0,5	-0,397200
12,583500	0,5	-0,403000
12,591833	0,5	-0,404750
12,600167	0,5	-0,398850
12,608500	0,5	-0,398850
12,616833	0,5	-0,398300
12,625167	0,5	-0,397450
12,633500	0,5	-0,391050
12,641833	0,5	-0,396400
12,650167	0,5	-0,394050
12,658500	0,5	-0,392900
12,666833	0,5	-0,394650
12,675167	0,5	-0,392650
12,683500	0,5	-0,391900
12,691833	0,5	-0,399150
12,700167	0,5	-0,396600
12,708500	0,5	-0,395800
12,716833	0,5	-0,398500
12,725167	0,5	-0,400750
12,733500	0,5	-0,407750
12,741833	0,5	-0,415150
12,750167	0,5	-0,409800
12,758500	0,5	-0,410750
12,766833	0,5	-0,408050
12,775167	0,5	-0,405250
12,783500	0,5	-0,406600
12,791833	0,5	-0,406350
12,800167	0,5	-0,405150
12,808500	0,5	-0,408050
12,816833	0,5	-0,410150
12,825167	0,5	-0,405100
12,833500	0,5	-0,405200
12,841833	0,5	-0,410600
12,850167	0,5	-0,411600
12,858500	0,5	-0,408000
12,866833	0,5	-0,413600
12,875167	0,5	-0,410850
12,883500	0,5	-0,418600
12,891833	0,5	-0,412950
12,900167	0,5	-0,412750
12,908500	0,5	-0,410600
12,916833	0,5	-0,408500
12,925167	0,5	-0,404800
12,933500	0,5	-0,408250
12,941833	0,5	-0,401850
12,950167	0,5	-0,401000
12,958500	0,5	-0,395900
12,966833	0,5	-0,396150
12,975167	0,5	-0,393300
12,983500	0,5	-0,391800
12,991833	0,5	-0,391900
13,000167	0,5	-0,384050
13,008500	0,5	-0,380150
13,016833	0,5	-0,378700
13,025167	0,5	-0,380050
13,033500	0,5	-0,380400
13,041833	0,5	-0,373500
13,050167	0,5	-0,373150
13,058500	0,5	-0,371850
13,066833	0,5	-0,366000
13,075167	0,5	-0,360550
13,083500	0,5	-0,354900
13,091833	0,5	-0,354600
13,100167	0,5	-0,345700
13,108500	0,5	-0,343750
13,116833	0,5	-0,340100
13,125167	0,5	-0,331750
13,133500	0,5	-0,328200
13,141833	0,5	-0,322950
13,150167	0,5	-0,317100
13,158500	0,5	-0,311100
13,166833	0,5	-0,305050
13,175167	0,5	-0,306100
13,183500	0,5	-0,297450
13,191833	0,5	-0,284300
13,200167	0,5	-0,273600
13,208500	0,5	-0,262700
13,216833	0,5	-0,253050
13,225167	0,5	-0,244600
13,233500	0,5	-0,235900
13,241833	0,5	-0,228100
13,250167	0,5	-0,231150
13,258500	0,5	-0,224100
13,266833	0,5	-0,216000
13,275167	0,5	-0,208600
13,283500	0,5	-0,207150
13,291833	0,5	-0,192600
13,300167	0,5	-0,182100
13,308500	0,5	-0,162200
13,316833	0,5	-0,153500
13,325167	0,5	-0,150100
13,333500	0,5	-0,133400
13,341833	0,5	-0,126500
13,350167	0,5	-0,129250
13,358500	0,5	-0,131800
13,366833	0,5	-0,128900
13,375167	0,5	-0,129400
13,383500	0,5	-0,123550
13,391833	0,5	-0,122250
13,400167	0,5	-0,113650
13,408500	0,5	-0,102750
13,416833	0,5	-0,086800
13,425167	0,5	-0,069050
13,433500	0,5	-0,055600
13,441833	0,5	-0,029750
13,450167	0,5	-0,013000
13,458500	0,5	0,007150
13,466833	0,5	0,026950
13,475167	0,5	0,045200
13,483500	0,5	0,082000
13,491833	0,5	0,111950
13,500167	0,5	0,132250
13,508500	0,5	0,138700
13,516833	0,5	0,132600
13,525167	0,5	0,118700
13,533500	0,5	0,099350
13,541833	0,5	0,086500
13,550167	0,5	0,067050
13,558500	0,5	0,067800
13,566833	0,5	0,066750
13,575167	0,5	0,078550
13,583500	0,5	0,091850
13,591833	0,5	0,124600
13,600167	0,5	0,155150
13,608500	0,5	0,194350
13,616833	0,5	0,235000
13,625167	0,5	0,269650
13,633500	0,5	0,311700
13,641833	0,5	0,334300
13,650167	0,5	0,336750
13,658500	0,5	0,330600
13,666833	0,5	0,307600
13,675167	0,5	0,276650
13,683500	0,5	0,251950
13,691833	0,5	0,225000
13,700167	0,5	0,208300
13,708500	0,5	0,203150
13,716833	0,5	0,213250
13,725167	0,5	0,225050
13,733500	0,5	0,258750
13,741833	0,5	0,291350
13,750167	0,5	0,314050
13,758500	0,5	0,331950
13,766833	0,5	0,337650
13,775167	0,5	0,334850
13,783500	0,5	0,328950
13,791833	0,5	0,310900
13,800167	0,5	0,289650
13,808500	0,5	0,270100
13,816833	0,5	0,250250
13,825167	0,5	0,242500
13,833500	0,5	0,238550
13,841833	0,5	0,243600
13,850167	0,5	0,246850
13,858500	0,5	0,262350
13,866833	0,5	0,268000
13,875167	0,5	0,269050
13,883500	0,5	0,277950
13,891833	0,5	0,275600
13,900167	0,5	0,264300
13,908500	0,5	0,251250
13,916833	0,5	0,227850
13,925167	0,5	0,222500
13,933500	0,5	0,210450
13,941833	0,5	0,206550
13,950167	0,5	0,195450
13,958500	0,5	0,191750
13,966833	0,5	0,181800
13,975167	0,5	0,181850
13,983500	0,5	0,179850
13,991833	0,5	0,174250
14,000167	0,5	0,166950
14,008500	0,5	0,160650
14,016833	0,5	0,147350
14,025167	0,5	0,147450
14,033500	0,5	0,146600
14,041833	0,5	0,142650
14,050167	0,5	0,138250
14,058500	0,5	0,124900
14,066833	0,5	0,123250
14,075167	0,5	0,123700
14,083500	0,5	0,119000
14,091833	0,5	0,114000
14,100167	0,5	0,108850
14,108500	0,5	0,099300
14,116833	0,5	0,094750
14,125167	0,5	0,090300
14,133500	0,5	0,079350
14,141833	0,5	0,071100
14,150167	0,5	0,056450
14,158500	0,5	0,060050
14,166833	0,5	0,048450
14,175167	0,5	0,046800
14,183500	0,5	0,042750
14,191833	0,5	0,040600
14,200167	0,5	0,035100
14,208500	0,5	0,029200
14,216833	0,5	0,026300
14,225167	0,5	0,032150
14,233500	0,5	0,026200
14,241833	0,5	0,021500
14,250167	0,5	0,013350
14,258500	0,5	0,013750
14,266833	0,5	0,007450
14,275167	0,5	0,004850
14,283500	0,5	0,004550
14,291833	0,5	0,005400
14,300167	0,5	0,000700
14,308500	0,5	0,006100
14,316833	0,5	-0,008750
14,325167	0,5	-0,000150
14,333500	0,5	-0,003850
14,341833	0,5	-0,014900
14,350167	0,5	-0,024400
14,358500	0,5	-0,038750
14,366833	0,5	-0,032050
14,375167	0,5	-0,038400
14,383500	0,5	-0,036900
14,391833	0,5	-0,036750
14,400167	0,5	-0,031900
14,408500	0,5	-0,030950
14,416833	0,5	-0,031600
14,425167	0,5	-0,039200
14,433500	0,5	-0,042750
14,441833	0,5	-0,050950
14,450167	0,5	-0,050550
14,458500	0,5	-0,057050
14,466833	0,5	-0,061350
14,475167	0,5	-0,055050
14,483500	0,5	-0,057150
14,491833	0,5	-0,058550
14,500167	0,5	-0,069550
14,508500	0,5	-0,078100
14,516833	0,5	-0,080500
14,525167	0,5	-0,080200
14,533500	0,5	-0,081950
14,541833	0,5	-0,084750
14,550167	0,5	-0,083400
14,558500	0,5	-0,080500
14,566833	0,5	-0,080350
14,575167	0,5	-0,078500
14,583500	0,5	-0,084000
14,591833	0,5	-0,083700
14,600167	0,5	-0,090800
14,608500	0,5	-0,094900
14,616833	0,5	-0,098550
14,625167	0,5	-0,096700
14,633500	0,5	-0,104150
14,641833	0,5	-0,114300
14,650167	0,5	-0,122300
14,658500	0,5	-0,127250
14,666833	0,5	-0,128900
14,675167	0,5	-0,132850
14,683500	0,5	-0,132850
14,691833	0,5	-0,133000
14,700167	0,5	-0,134550
14,708500	0,5	-0,140000
14,716833	0,5	-0,138500
14,725167	0,5	-0,142200
14,733500	0,5	-0,139850
14,741833	0,5	-0,143800
14,750167	0,5	-0,144850
14,758500	0,5	-0,157300
14,766833	0,5	-0,151900
14,775167	0,5	-0,154100
14,783500	0,5	-0,162050
14,791833	0,5	-0,176700
14,800167	0,5	-0,185350
14,808500	0,5	-0,191500
14,816833	0,5	-0,187900
14,825167	0,5	-0,191400
14,833500	0,5	-0,190100
14,841833	0,5	-0,195600
14,850167	0,5	-0,196150
14,858500	0,5	-0,192850
14,866833	0,5	-0,196150
14,875167	0,5	-0,200350
14,883500	0,5	-0,201750
14,891833	0,5	-0,198400
14,900167	0,5	-0,209600
14,908500	0,5	-0,210300
14,916833	0,5	-0,208750
14,925167	0,5	-0,207200
14,933500	0,5	-0,213400
14,941833	0,5	-0,227800
14,950167	0,5	-0,233850
14,958500	0,5	-0,227700
14,966833	0,5	-0,227250
14,975167	0,5	-0,228500
14,983500	0,5	-0,230900
14,991833	0,5	-0,228100
15,000167	0,5	-0,231200
15,008500	0,5	-0,234750
15,016833	0,5	-0,234000
15,025167	0,5	-0,234300
15,033500	0,5	-0,233300
15,041833	0,5	-0,233450
15,050167	0,5	-0,245500
15,058500	0,5	-0,237950
15,066833	0,5	-0,233300
15,075167	0,5	-0,237800
15,083500	0,5	-0,239200
15,091833	0,5	-0,253150
15,100167	0,5	-0,246200
15,108500	0,5	-0,245650
15,116833	0,5	-0,241650
15,125167	0,5	-0,246250
15,133500	0,5	-0,241150
15,141833	0,5	-0,246200
15,150167	0,5	-0,242250
15,158500	0,5	-0,243400
15,166833	0,5	-0,242350
15,175167	0,5	-0,245500
15,183500	0,5	-0,245450
15,191833	0,5	-0,244600
15,200167	0,5	-0,255300
15,208500	0,5	-0,245800
15,216833	0,5	-0,244600
15,225167	0,5	-0,253500
15,233500	0,5	-0,261950
15,241833	0,5	-0,273100
15,250167	0,5	-0,271500
15,258500	0,5	-0,262300
15,266833	0,5	-0,266850
15,275167	0,5	-0,263400
15,283500	0,5	-0,269200
15,291833	0,5	-0,267350
15,300167	0,5	-0,273700
15,308500	0,5	-0,271950
15,316833	0,5	-0,279500
15,325167	0,5	-0,281500
15,333500	0,5	-0,282650
15,341833	0,5	-0,283650
15,350167	0,5	-0,291550
15,358500	0,5	-0,281600
15,366833	0,5	-0,283750
15,375167	0,5	-0,286450
15,383500	0,5	-0,292550
15,391833	0,5	-0,307400
15,400167	0,5	-0,300650
15,408500	0,5	-0,309950
15,416833	0,5	-0,313300
15,425167	0,5	-0,322350
15,433500	0,5	-0,324500
15,441833	0,5	-0,332350
15,450167	0,5	-0,329200
15,458500	0,5	-0,333350
15,466833	0,5	-0,338300
15,475167	0,5	-0,344300
15,483500	0,5	-0,341800
15,491833	0,5	-0,355850
15,500167	0,5	-0,357450
15,508500	0,5	-0,358600
15,516833	0,5	-0,360500
15,525167	0,5	-0,370550
15,533500	0,5	-0,390100
15,541833	0,5	-0,394800
15,550167	0,5	-0,392650
15,558500	0,5	-0,392850
15,566833	0,5	-0,395250
15,575167	0,5	-0,393500
15,583500	0,5	-0,394200
15,591833	0,5	-0,393100
15,600167	0,5	-0,394550
15,608500	0,5	-0,389250
15,616833	0,5	-0,394950
15,625167	0,5	-0,389100
15,633500	0,5	-0,394150
15,641833	0,5	-0,396700
15,650167	0,5	-0,394400
15,658500	0,5	-0,390200
15,666833	0,5	-0,399000
15,675167	0,5	-0,405650
15,683500	0,5	-0,416650
15,691833	0,5	-0,421700
15,700167	0,5	-0,422250
15,708500	0,5	-0,427050
15,716833	0,5	-0,431200
15,725167	0,5	-0,436100
15,733500	0,5	-0,439500
15,741833	0,5	-0,442450
15,750167	0,5	-0,440350
15,758500	0,5	-0,444850
15,766833	0,5	-0,446350
15,775167	0,5	-0,449900
15,783500	0,5	-0,451700
15,791833	0,5	-0,458400
15,800167	0,5	-0,451600
15,808500	0,5	-0,453600
15,816833	0,5	-0,458750
15,825167	0,5	-0,473300
15,833500	0,5	-0,483450
15,841833	0,5	-0,484100
15,850167	0,5	-0,480600
15,858500	0,5	-0,483850
15,866833	0,5	-0,482000
15,875167	0,5	-0,480850
15,883500	0,5	-0,479650
15,891833	0,5	-0,476350
15,900167	0,5	-0,478250
15,908500	0,5	-0,481250
15,916833	0,5	-0,479650
15,925167	0,5	-0,470350
15,933500	0,5	-0,488550
15,941833	0,5	-0,472950
15,950167	0,5	-0,468400
15,958500	0,5	-0,468950
15,966833	0,5	-0,475900
15,975167	0,5	-0,487400
15,983500	0,5	-0,490200
15,991833	0,5	-0,489850
16,000167	0,5	-0,498650
16,008500	0,5	-0,495200
16,016833	0,5	-0,501450
16,025167	0,5	-0,505250
16,033500	0,5	-0,508400
16,041833	0,5	-0,506200
16,050167	0,5	-0,500300
16,058500	0,5	-0,505400
16,066833	0,5	-0,502000
16,075167	0,5	-0,505100
16,083500	0,5	-0,524750
16,091833	0,5	-0,522950
16,100167	0,5	-0,527750
16,108500	0,5	-0,534800
16,116833	0,5	-0,541400
16,125167	0,5	-0,556500
16,133500	0,5	-0,555650
16,141833	0,5	-0,556250
16,150167	0,5	-0,555050
16,158500	0,5	-0,558850
16,166833	0,5	-0,556300
16,175167	0,5	-0,557700
16,183500	0,5	-0,556500
16,191833	0,5	-0,557850
16,200167	0,5	-0,562200
16,208500	0,5	-0,565000
16,216833	0,5	-0,562850
16,225167	0,5	-0,567050
16,233500	0,5	-0,580050
16,241833	0,5	-0,567500
16,250167	0,5	-0,571500
16,258500	0,5	-0,574100
16,266833	0,5	-0,585800
16,275167	0,5	-0,592850
16,283500	0,5	-0,589900
16,291833	0,5	-0,584700
16,300167	0,5	-0,586500
16,308500	0,5	-0,581450
16,316833	0,5	-0,582000
16,325167	0,5	-0,576100
16,333500	0,5	-0,572550
16,341833	0,5	-0,563200
16,350167	0,5	-0,560150
16,358500	0,5	-0,561750
16,366833	0,5	-0,557650
16,375167	0,5	-0,562050
16,383500	0,5	-0,567900
16,391833	0,5	-0,560250
16,400167	0,5	-0,564450
16,408500	0,5	-0,573000
16,416833	0,5	-0,579600
16,425167	0,5	-0,593850
16,433500	0,5	-0,583450
16,441833	0,5	-0,587550
16,450167	0,5	-0,582000
16,458500	0,5	-0,581200
16,466833	0,5	-0,577300
16,475167	0,5	-0,574950
16,483500	0,5	-0,566500
16,491833	0,5	-0,562450
16,500167	0,5	-0,553300
16,508500	0,5	-0,543850
16,516833	0,5	-0,529900
16,525167	0,5	-0,526000
16,533500	0,5	-0,504500
16,541833	0,5	-0,489350
16,550167	0,5	-0,482850
16,558500	0,5	-0,485600
16,566833	0,5	-0,496750
16,575167	0,5	-0,495300
16,583500	0,5	-0,495000
16,591833	0,5	-0,489800
16,600167	0,5	-0,493550
16,608500	0,5	-0,489550
16,616833	0,5	-0,490800
16,625167	0,5	-0,485900
16,633500	0,5	-0,484300
16,641833	0,5	-0,478350
16,650167	0,5	-0,475700
16,658500	0,5	-0,463100
16,666833	0,5	-0,464050
16,675167	0,5	-0,462050
16,683500	0,5	-0,445950
16,691833	0,5	-0,441200
16,700167	0,5	-0,435450
16,708500	0,5	-0,438950
16,716833	0,5	-0,435400
16,725167	0,5	-0,437650
16,733500	0,5	-0,423450
16,741833	0,5	-0,414850
16,750167	0,5	-0,408650
16,758500	0,5	-0,400350
16,766833	0,5	-0,391950
16,775167	0,5	-0,386200
16,783500	0,5	-0,376800
16,791833	0,5	-0,376950
16,800167	0,5	-0,369700
16,808500	0,5	-0,371000
16,816833	0,5	-0,375200
16,825167	0,5	-0,374450
16,833500	0,5	-0,364300
16,841833	0,5	-0,368600
16,850167	0,5	-0,366150
16,858500	0,5	-0,381550
16,866833	0,5	-0,384450
16,875167	0,5	-0,380400
16,883500	0,5	-0,377750
16,891833	0,5	-0,374650
16,900167	0,5	-0,369100
16,908500	0,5	-0,362500
16,916833	0,5	-0,358800
16,925167	0,5	-0,352350
16,933500	0,5	-0,356500
16,941833	0,5	-0,353950
16,950167	0,5	-0,359750
16,958500	0,5	-0,358900
16,966833	0,5	-0,375700
16,975167	0,5	-0,364950
16,983500	0,5	-0,371650
16,991833	0,5	-0,381500
17,000167	0,5	-0,396200
17,008500	0,5	-0,415400
17,016833	0,5	-0,418350
17,025167	0,5	-0,428050
17,033500	0,5	-0,432650
17,041833	0,5	-0,436050
17,050167	0,5	-0,445200
17,058500	0,5	-0,448900
17,066833	0,5	-0,450350
17,075167	0,5	-0,456350
17,083500	0,5	-0,456650
17,091833	0,5	-0,467050
17,100167	0,5	-0,461800
17,108500	0,5	-0,473000
17,116833	0,5	-0,480750
17,125167	0,5	-0,482900
17,133500	0,5	-0,480500
17,141833	0,5	-0,489650
17,150167	0,5	-0,501550
17,158500	0,5	-0,515200
17,166833	0,5	-0,511050
17,175167	0,5	-0,518250
17,183500	0,5	-0,523300
17,191833	0,5	-0,533350
17,200167	0,5	-0,535750
17,208500	0,5	-0,540450
17,216833	0,5	-0,545150
17,225167	0,5	-0,547400
17,233500	0,5	-0,556650
17,241833	0,5	-0,559250
17,250167	0,5	-0,556900
17,258500	0,5	-0,568700
17,266833	0,5	-0,565900
17,275167	0,5	-0,560050
17,283500	0,5	-0,565200
17,291833	0,5	-0,574600
17,300167	0,5	-0,590900
17,308500	0,5	-0,592150
17,316833	0,5	-0,600200
17,325167	0,5	-0,600300
17,333500	0,5	-0,605200
17,341833	0,5	-0,609800
17,350167	0,5	-0,617700
17,358500	0,5	-0,620350
17,366833	0,5	-0,622650
17,375167	0,5	-0,630250
17,383500	0,5	-0,632850
17,391833	0,5	-0,642550
17,400167	0,5	-0,636800
17,408500	0,5	-0,652150
17,416833	0,5	-0,647200
17,425167	0,5	-0,653700
17,433500	0,5	-0,654200
17,441833	0,5	-0,668900
17,450167	0,5	-0,682650
17,458500	0,5	-0,687050
17,466833	0,5	-0,681100
17,475167	0,5	-0,691800
17,483500	0,5	-0,687150
17,491833	0,5	-0,695250
17,500167	0,5	-0,696750
17,508500	0,5	-0,697650
17,516833	0,5	-0,703050
17,525167	0,5	-0,708900
17,533500	0,5	-0,715400
17,541833	0,5	-0,708350
17,550167	0,5	-0,716600
17,558500	0,5	-0,728850
17,566833	0,5	-0,725550
17,575167	0,5	-0,729000
17,583500	0,5	-0,737400
17,591833	0,5	-0,751850
17,600167	0,5	-0,768700
17,608500	0,5	-0,765850
17,616833	0,5	-0,780000
17,625167	0,5	-0,777550
17,633500	0,5	-0,780900
17,641833	0,5	-0,780700
17,650167	0,5	-0,785850
17,658500	0,5	-0,785100
17,666833	0,5	-0,792100
17,675167	0,5	-0,799350
17,683500	0,5	-0,794300
17,691833	0,5	-0,794650
17,700167	0,5	-0,807850
17,708500	0,5	-0,804850
17,716833	0,5	-0,809300
17,725167	0,5	-0,817350
17,733500	0,5	-0,820600
17,741833	0,5	-0,834200
17,750167	0,5	-0,835900
17,758500	0,5	-0,841850
17,766833	0,5	-0,835050
17,775167	0,5	-0,841200
17,783500	0,5	-0,837250
17,791833	0,5	-0,845750
17,800167	0,5	-0,841950
17,808500	0,5	-0,841650
17,816833	0,5	-0,852500
17,825167	0,5	-0,855050
17,833500	0,5	-0,848350
17,841833	0,5	-0,853750
17,850167	0,5	-0,865300
17,858500	0,5	-0,863250
17,866833	0,5	-0,860800
17,875167	0,5	-0,873600
17,883500	0,5	-0,879900
17,891833	0,5	-0,897500
17,900167	0,5	-0,902250
17,908500	0,5	-0,902050
17,916833	0,5	-0,913850
17,925167	0,5	-0,915150
17,933500	0,5	-0,916950
17,941833	0,5	-0,919650
17,950167	0,5	-0,919850
17,958500	0,5	-0,920200
17,966833	0,5	-0,929900
17,975167	0,5	-0,928650
17,983500	0,5	-0,925200
17,991833	0,5	-0,931200
18,000167	0,5	-0,940300
18,008500	0,5	-0,934350
18,016833	0,5	-0,939750
18,025167	0,5	-0,947750
18,033500	0,5	-0,960250
18,041833	0,5	-0,968000
18,050167	0,5	-0,961750
18,058500	0,5	-0,964500
18,066833	0,5	-0,965350
18,075167	0,5	-0,965900
18,083500	0,5	-0,965450
18,091833	0,5	-0,970700
18,100167	0,5	-0,967650
18,108500	0,5	-0,973700
18,116833	0,5	-0,978450
18,125167	0,5	-0,976150
18,133500	0,5	-0,969100
18,141833	0,5	-0,989950
18,150167	0,5	-0,987850
18,158500	0,5	-0,987300
18,166833	0,5	-0,991250
18,175167	0,5	-1,001250
18,183500	0,5	-1,017250
18,191833	0,5	-1,014400
18,200167	0,5	-1,011900
18,208500	0,5	-1,016550
18,216833	0,5	-1,023200
18,225167	0,5	-1,019300
18,233500	0,5	-1,017850
18,241833	0,5	-1,014900
18,250167	0,5	-1,017650
18,258500	0,5	-1,015300
18,266833	0,5	-1,019500
18,275167	0,5	-1,011550
18,283500	0,5	-1,012800
18,291833	0,5	-1,024400
18,300167	0,5	-1,015350
18,308500	0,5	-1,014150
18,316833	0,5	-1,020350
18,325167	0,5	-1,022700
18,333500	0,5	-1,042200
18,341833	0,5	-1,033200
18,350167	0,5	-1,031600
18,358500	0,5	-1,025400
18,366833	0,5	-1,027850
18,375167	0,5	-1,022500
18,383500	0,5	-1,019000
18,391833	0,5	-1,014350
18,400167	0,5	-1,012100
18,408500	0,5	-1,017200
18,416833	0,5	-1,014050
18,425167	0,5	-1,008100
18,433500	0,5	-1,000200
18,441833	0,5	-1,004650
18,450167	0,5	-0,990650
18,458500	0,5	-0,993850
18,466833	0,5	-0,988500
18,475167	0,5	-0,999800
18,483500	0,5	-1,004150
18,491833	0,5	-0,997100
18,500167	0,5	-0,987850
18,508500	0,5	-0,989750
18,516833	0,5	-0,986050
18,525167	0,5	-0,982150
18,533500	0,5	-0,977250
18,541833	0,5	-0,971200
18,550167	0,5	-0,972050
18,558500	0,5	-0,965750
18,566833	0,5	-0,963450
18,575167	0,5	-0,961000
18,583500	0,5	-0,963450
18,591833	0,5	-0,956350
18,600167	0,5	-0,948400
18,608500	0,5	-0,953950
18,616833	0,5	-0,962500
18,625167	0,5	-0,965000
18,633500	0,5	-0,967300
18,641833	0,5	-0,960700
18,650167	0,5	-0,958350
18,658500	0,5	-0,957350
18,666833	0,5	-0,954650
18,675167	0,5	-0,954050
18,683500	0,5	-0,955100
18,691833	0,5	-0,952050
18,700167	0,5	-0,952900
18,708500	0,5	-0,957700
18,716833	0,5	-0,945950
18,725167	0,5	-0,947400
18,733500	0,5	-0,953100
18,741833	0,5	-0,948050
18,750167	0,5	-0,945700
18,758500	0,5	-0,952650
18,766833	0,5	-0,959600
18,775167	0,5	-0,971200
18,783500	0,5	-0,968000
18,791833	0,5	-0,968700
18,800167	0,5	-0,963350
18,808500	0,5	-0,972650
18,816833	0,5	-0,967000
18,825167	0,5	-0,969250
18,833500	0,5	-0,963450
18,841833	0,5	-0,968150
18,850167	0,5	-0,967650
18,858500	0,5	-0,961800
18,866833	0,5	-0,958050
18,875167	0,5	-0,973400
18,883500	0,5	-0,970550
18,891833	0,5	-0,963700
18,900167	0,5	-0,967300
18,908500	0,5	-0,973200
18,916833	0,5	-0,993800
18,925167	0,5	-0,991450
18,933500	0,5	-0,996650
18,941833	0,5	-0,993350
18,950167	0,5	-0,998150
18,958500	0,5	-0,998650
18,966833	0,5	-1,002350
18,975167	0,5	-0,999100
18,983500	0,5	-1,006400
18,991833	0,5	-1,000250
19,000167	0,5	-1,006750
19,008500	0,5	-1,010500
19,016833	0,5	-1,004450
19,025167	0,5	-1,018100
19,033500	0,5	-1,009950
19,041833	0,5	-1,004700
19,050167	0,5	-1,008100
19,058500	0,5	-1,012500
19,066833	0,5	-1,027500
19,075167	0,5	-1,028350
19,083500	0,5	-1,028250
19,091833	0,5	-1,036400
19,100167	0,5	-1,039700
19,108500	0,5	-1,049450
19,116833	0,5	-1,051600
19,125167	0,5	-1,058750
19,133500	0,5	-1,061800
19,141833	0,5	-1,068450
19,150167	0,5	-1,067900
19,158500	0,5	-1,065500
19,166833	0,5	-1,069850
19,175167	0,5	-1,090100
19,183500	0,5	-1,082250
19,191833	0,5	-1,090000
19,200167	0,5	-1,102350
19,208500	0,5	-1,121800
19,216833	0,5	-1,136200
19,225167	0,5	-1,127100
19,233500	0,5	-1,133000
19,241833	0,5	-1,139650
19,250167	0,5	-1,145050
19,258500	0,5	-1,145400
19,266833	0,5	-1,153700
19,275167	0,5	-1,148300
19,283500	0,5	-1,159750
19,291833	0,5	-1,159150
19,300167	0,5	-1,165650
19,308500	0,5	-1,161000
19,316833	0,5	-1,173850
19,325167	0,5	-1,177400
19,333500	0,5	-1,178350
19,341833	0,5	-1,181200
19,350167	0,5	-1,193250
19,358500	0,5	-1,208000
19,366833	0,5	-1,218300
19,375167	0,5	-1,216450
19,383500	0,5	-1,211650
19,391833	0,5	-1,206900
19,400167	0,5	-1,201600
19,408500	0,5	-1,202950
19,416833	0,5	-1,188000
19,425167	0,5	-1,185900
19,433500	0,5	-1,178700
19,441833	0,5	-1,184150
19,450167	0,5	-1,180200
19,458500	0,5	-1,189500
19,466833	0,5	-1,209550
19,475167	0,5	-1,217050
19,483500	0,5	-1,227400
19,491833	0,5	-1,241900
19,500167	0,5	-1,263200
19,508500	0,5	-1,282350
19,516833	0,5	-1,286000
19,525167	0,5	-1,285900
19,533500	0,5	-1,287300
19,541833	0,5	-1,290400
19,550167	0,5	-1,291400
19,558500	0,5	-1,294100
19,566833	0,5	-1,294450
19,575167	0,5	-1,291000
19,583500	0,5	-1,294150
19,591833	0,5	-1,294950
19,600167	0,5	-1,292200
19,608500	0,5	-1,301000
19,616833	0,5	-1,300350
19,625167	0,5	-1,293150
19,633500	0,5	-1,296800
19,641833	0,5	-1,297500
19,650167	0,5	-1,317250
19,658500	0,5	-1,324800
19,666833	0,5	-1,319100
19,675167	0,5	-1,314750
19,683500	0,5	-1,313000
19,691833	0,5	-1,304900
19,700167	0,5	-1,305050
19,708500	0,5	-1,293200
19,716833	0,5	-1,279050
19,725167	0,5	-1,277950
19,733500	0,5	-1,274700
19,741833	0,5	-1,270000
19,750167	0,5	-1,259350
19,758500	0,5	-1,268750
19,766833	0,5	-1,258400
19,775167	0,5	-1,241450
19,783500	0,5	-1,237800
19,791833	0,5	-1,244400
19,800167	0,5	-1,265900
19,808500	0,5	-1,281800
19,816833	0,5	-1,295000
19,825167	0,5	-1,323850
19,833500	0,5	-1,334250
19,841833	0,5	-1,353450
19,850167	0,5	-1,357300
19,858500	0,5	-1,363100
19,866833	0,5	-1,366950
19,875167	0,5	-1,367850
19,883500	0,5	-1,369550
19,891833	0,5	-1,355450
19,900167	0,5	-1,361550
19,908500	0,5	-1,366400
19,916833	0,5	-1,352750
19,925167	0,5	-1,342450
19,933500	0,5	-1,343650
19,941833	0,5	-1,339450
19,950167	0,5	-1,340200
19,958500	0,5	-1,325150
19,966833	0,5	-1,316150
19,975167	0,5	-1,305850
19,983500	0,5	-1,291650
19,991833	0,5	-1,273550
20,000167	0,5	-1,267850
20,008500	0,5	-1,258050
20,016833	0,5	-1,264200
20,025167	0,5	-1,285550
20,033500	0,5	-1,302300
20,041833	0,5	-1,315000
20,050167	0,5	-1,338700
20,058500	0,5	-1,341200
20,066833	0,5	-1,342100
20,075167	0,5	-1,344800
20,083500	0,5	-1,348450
20,091833	0,5	-1,369650
20,100167	0,5	-1,373300
20,108500	0,5	-1,369350
20,116833	0,5	-1,364500
20,125167	0,5	-1,369450
20,133500	0,5	-1,363700
20,141833	0,5	-1,363750
20,150167	0,5	-1,357350
20,158500	0,5	-1,354300
20,166833	0,5	-1,352350
20,175167	0,5	-1,343000
20,183500	0,5	-1,331650
20,191833	0,5	-1,309050
20,200167	0,5	-1,317800
20,208500	0,5	-1,282250
20,216833	0,5	-1,269800
20,225167	0,5	-1,253950
20,233500	0,5	-1,245300
20,241833	0,5	-1,246250
20,250167	0,5	-1,220550
20,258500	0,5	-1,197350
20,266833	0,5	-1,187100
20,275167	0,5	-1,180450
20,283500	0,5	-1,199850
20,291833	0,5	-1,222150
20,300167	0,5	-1,251400
20,308500	0,5	-1,276300
20,316833	0,5	-1,291900
20,325167	0,5	-1,307400
20,333500	0,5	-1,304350
20,341833	0,5	-1,308200
20,350167	0,5	-1,321500
20,358500	0,5	-1,316050
20,366833	0,5	-1,320850
20,375167	0,5	-1,322950
20,383500	0,5	-1,328450
20,391833	0,5	-1,352500
20,400167	0,5	-1,332750
20,408500	0,5	-1,332600
20,416833	0,5	-1,321450
20,425167	0,5	-1,319050
20,433500	0,5	-1,307350
20,441833	0,5	-1,308250
20,450167	0,5	-1,314100
20,458500	0,5	-1,328850
20,466833	0,5	-1,350400
20,475167	0,5	-1,352650
20,483500	0,5	-1,352900
20,491833	0,5	-1,368050
20,500167	0,5	-1,370200
20,508500	0,5	-1,373150
20,516833	0,5	-1,380850
20,525167	0,5	-1,385700
20,533500	0,5	-1,405450
20,541833	0,5	-1,400600
20,550167	0,5	-1,402400
20,558500	0,5	-1,391450
20,566833	0,5	-1,391950
20,575167	0,5	-1,379600
20,583500	0,5	-1,381350
20,591833	0,5	-1,379100
20,600167	0,5	-1,376150
20,608500	0,5	-1,367850
20,616833	0,5	-1,357150
20,625167	0,5	-1,328950
20,633500	0,5	-1,309850
20,641833	0,5	-1,303200
20,650167	0,5	-1,301750
20,658500	0,5	-1,309050
20,666833	0,5	-1,329700
20,675167	0,5	-1,360650
20,683500	0,5	-1,373900
20,691833	0,5	-1,389150
20,700167	0,5	-1,373650
20,708500	0,5	-1,372700
20,716833	0,5	-1,359600
20,725167	0,5	-1,355950
20,733500	0,5	-1,342050
20,741833	0,5	-1,333350
20,750167	0,5	-1,326700
20,758500	0,5	-1,328550
20,766833	0,5	-1,329650
20,775167	0,5	-1,318600
20,783500	0,5	-1,326050
20,791833	0,5	-1,338150
20,800167	0,5	-1,338750
20,808500	0,5	-1,339350
20,816833	0,5	-1,347400
20,825167	0,5	-1,356200
20,833500	0,5	-1,354650
20,841833	0,5	-1,346200
20,850167	0,5	-1,347000
20,858500	0,5	-1,334200
20,866833	0,5	-1,337600
20,875167	0,5	-1,321950
20,883500	0,5	-1,321200
20,891833	0,5	-1,318650
20,900167	0,5	-1,311450
20,908500	0,5	-1,301150
20,916833	0,5	-1,280450
20,925167	0,5	-1,268450
20,933500	0,5	-1,277100
20,941833	0,5	-1,278950
20,950167	0,5	-1,284800
20,958500	0,5	-1,295500
20,966833	0,5	-1,297500
20,975167	0,5	-1,311350
20,983500	0,5	-1,303850
20,991833	0,5	-1,315350
21,000167	0,5	-1,310800
21,008500	0,5	-1,313150
21,016833	0,5	-1,307200
21,025167	0,5	-1,308850
21,033500	0,5	-1,297650
21,041833	0,5	-1,296350
21,050167	0,5	-1,291400
21,058500	0,5	-1,276000
21,066833	0,5	-1,254100
21,075167	0,5	-1,237800
21,083500	0,5	-1,235600
21,091833	0,5	-1,233150
21,100167	0,5	-1,228800
21,108500	0,5	-1,233950
21,116833	0,5	-1,248800
21,125167	0,5	-1,255050
21,133500	0,5	-1,255200
21,141833	0,5	-1,250850
21,150167	0,5	-1,250700
21,158500	0,5	-1,244400
21,166833	0,5	-1,242650
21,175167	0,5	-1,233700
21,183500	0,5	-1,234450
21,191833	0,5	-1,229050
21,200167	0,5	-1,222800
21,208500	0,5	-1,196550
21,216833	0,5	-1,179650
21,225167	0,5	-1,169500
21,233500	0,5	-1,168200
21,241833	0,5	-1,163650
21,250167	0,5	-1,167800
21,258500	0,5	-1,177950
21,266833	0,5	-1,189450
21,275167	0,5	-1,179150
21,283500	0,5	-1,169450
21,291833	0,5	-1,173900
21,300167	0,5	-1,159600
21,308500	0,5	-1,160200
21,316833	0,5	-1,150800
21,325167	0,5	-1,146300
21,333500	0,5	-1,138300
21,341833	0,5	-1,129750
21,350167	0,5	-1,118150
21,358500	0,5	-1,096500
21,366833	0,5	-1,076100
21,375167	0,5	-1,077500
21,383500	0,5	-1,070850
21,391833	0,5	-1,076700
21,400167	0,5	-1,068500
21,408500	0,5	-1,070000
21,416833	0,5	-1,072200
21,425167	0,5	-1,047200
21,433500	0,5	-1,032600
21,441833	0,5	-1,007300
21,450167	0,5	-0,984050
21,458500	0,5	-0,957300
21,466833	0,5	-0,936500
21,475167	0,5	-0,916800
21,483500	0,5	-0,917950
21,491833	0,5	-0,921400
21,500167	0,5	-0,899100
21,508500	0,5	-0,882050
21,516833	0,5	-0,883050
21,525167	0,5	-0,886700
21,533500	0,5	-0,888450
21,541833	0,5	-0,896000
21,550167	0,5	-0,900950
21,558500	0,5	-0,904700
21,566833	0,5	-0,897050
21,575167	0,5	-0,889750
21,583500	0,5	-0,874350
21,591833	0,5	-0,860300
21,600167	0,5	-0,840800
21,608500	0,5	-0,829850
21,616833	0,5	-0,810150
21,625167	0,5	-0,801700
21,633500	0,5	-0,781400
21,641833	0,5	-0,766400
21,650167	0,5	-0,731600
21,658500	0,5	-0,706150
21,666833	0,5	-0,696550
21,675167	0,5	-0,679700
21,683500	0,5	-0,665500
21,691833	0,5	-0,657250
21,700167	0,5	-0,658200
21,708500	0,5	-0,646850
21,716833	0,5	-0,631600
21,725167	0,5	-0,611700
21,733500	0,5	-0,594000
21,741833	0,5	-0,572400
21,750167	0,5	-0,552000
21,758500	0,5	-0,525550
21,766833	0,5	-0,508200
21,775167	0,5	-0,489450
21,783500	0,5	-0,488350
21,791833	0,5	-0,461850
21,800167	0,5	-0,437850
21,808500	0,5	-0,430700
21,816833	0,5	-0,413600
21,825167	0,5	-0,395550
21,833500	0,5	-0,377050
21,841833	0,5	-0,367200
21,850167	0,5	-0,356750
21,858500	0,5	-0,334850
21,866833	0,5	-0,308100
21,875167	0,5	-0,292900
21,883500	0,5	-0,273950
21,891833	0,5	-0,251100
21,900167	0,5	-0,226450
21,908500	0,5	-0,206600
21,916833	0,5	-0,182900
21,925167	0,5	-0,168300
21,933500	0,5	-0,145950
21,941833	0,5	-0,109900
21,950167	0,5	-0,087600
21,958500	0,5	-0,070800
21,966833	0,5	-0,042650
21,975167	0,5	-0,017550
21,983500	0,5	-0,003300
21,991833	0,5	0,023700
22,000167	0,5	0,044050
22,008500	0,5	0,090550
22,016833	0,5	0,115900
22,025167	0,5	0,151600
22,033500	0,5	0,173600
22,041833	0,5	0,203750
22,050167	0,5	0,221400
22,058500	0,5	0,246800
22,066833	0,5	0,265200
22,075167	0,5	0,281500
22,083500	0,5	0,297800
22,091833	0,5	0,330300
22,100167	0,5	0,343000
22,108500	0,5	0,376700
22,116833	0,5	0,408100
22,125167	0,5	0,436800
22,133500	0,5	0,464300
22,141833	0,5	0,477600
22,150167	0,5	0,519250
22,158500	0,5	0,556650
22,166833	0,5	0,593700
22,175167	0,5	0,625500
22,183500	0,5	0,669650
22,191833	0,5	0,704000
22,200167	0,5	0,752050
22,208500	0,5	0,801450
22,216833	0,5	0,841050
22,225167	0,5	0,885900
22,233500	0,5	0,921500
22,241833	0,5	0,973800
22,250167	0,5	1,015050
22,258500	0,5	1,080350
22,266833	0,5	1,123150
22,275167	0,5	1,165700
22,283500	0,5	1,204850
22,291833	0,5	1,245650
22,300167	0,5	1,301150
22,308500	0,5	1,360150
22,316833	0,5	1,409750
22,325167	0,5	1,464300
22,333500	0,5	1,510200
22,341833	0,5	1,561000
22,350167	0,5	1,603900
22,358500	0,5	1,649100
22,366833	0,5	1,689250
22,375167	0,5	1,719350
22,383500	0,5	1,753800
22,391833	0,5	1,807700
22,400167	0,5	1,865500
22,408500	0,5	1,926450
22,416833	0,5	1,973950
22,425167	0,5	2,020950
22,433500	0,5	2,071850
22,441833	0,5	2,114700
22,450167	0,5	2,184700
22,458500	0,5	2,246550
22,466833	0,5	2,302750
22,475167	0,5	2,358850
22,483500	0,5	2,426050
22,491833	0,5	2,483900
22,500167	0,5	2,546400
22,508500	0,5	2,599050
22,516833	0,5	2,656350
22,525167	0,5	2,690150
22,533500	0,5	2,748200
22,541833	0,5	2,815550
22,550167	0,5	2,887900
22,558500	0,5	2,942100
22,566833	0,5	2,983350
22,575167	0,5	3,019500
22,583500	0,5	3,052550
22,591833	0,5	3,091700
22,600167	0,5	3,126850
22,608500	0,5	3,167500
22,616833	0,5	3,192250
22,625167	0,5	3,221900
22,633500	0,5	3,241400
22,641833	0,5	3,262050
22,650167	0,5	3,270350
22,658500	0,5	3,272200
22,666833	0,5	3,255700
22,675167	0,5	3,211600
22,683500	0,5	3,194900
22,691833	0,5	3,185800
22,700167	0,5	3,149650
22,708500	0,5	3,091050
22,716833	0,5	3,023200
22,725167	0,5	2,935850
22,733500	0,5	2,853400
22,741833	0,5	2,769200
22,750167	0,5	2,685300
22,758500	0,5	2,585250
22,766833	0,5	2,482750
22,775167	0,5	2,383200
22,783500	0,5	2,277300
22,791833	0,5	2,161950
22,800167	0,5	2,044200
22,808500	0,5	1,920800
22,816833	0,5	1,764550
22,825167	0,5	1,622550
22,833500	0,5	1,495500
22,841833	0,5	1,366500
22,850167	0,5	1,210250
22,858500	0,5	1,062350
22,866833	0,5	0,912000
22,875167	0,5	0,760700
22,883500	0,5	0,610050
22,891833	0,5	0,462300
22,900167	0,5	0,327800
22,908500	0,5	0,188900
22,916833	0,5	0,061700
22,925167	0,5	-0,065600
22,933500	0,5	-0,190650
22,941833	0,5	-0,320800
22,950167	0,5	-0,439400
22,958500	0,5	-0,552250
22,966833	0,5	-0,668900
22,975167	0,5	-0,775850
22,983500	0,5	-0,897500
22,991833	0,5	-1,030500
23,000167	0,5	-1,138000
23,008500	0,5	-1,225700
23,016833	0,5	-1,309500
23,025167	0,5	-1,391250
23,033500	0,5	-1,482750
23,041833	0,5	-1,542700
23,050167	0,5	-1,602650
23,058500	0,5	-1,658350
23,066833	0,5	-1,722600
23,075167	0,5	-1,766850
23,083500	0,5	-1,818350
23,091833	0,5	-1,861850
23,100167	0,5	-1,907000
23,108500	0,5	-1,918050
23,116833	0,5	-1,967650
23,125167	0,5	-2,006200
23,133500	0,5	-2,072950
23,141833	0,5	-2,121350
23,150167	0,5	-2,154550
23,158500	0,5	-2,176650
23,166833	0,5	-2,186950
23,175167	0,5	-2,202600
23,183500	0,5	-2,217450
23,191833	0,5	-2,223250
23,200167	0,5	-2,224150
23,208500	0,5	-2,218000
23,216833	0,5	-2,213250
23,225167	0,5	-2,210400
23,233500	0,5	-2,201400
23,241833	0,5	-2,202450
23,250167	0,5	-2,189000
23,258500	0,5	-2,198100
23,266833	0,5	-2,180500
23,275167	0,5	-2,157550
23,283500	0,5	-2,186150
23,291833	0,5	-2,196050
23,300167	0,5	-2,194200
23,308500	0,5	-2,183600
23,316833	0,5	-2,163650
23,325167	0,5	-2,155700
23,333500	0,5	-2,139350
23,341833	0,5	-2,122000
23,350167	0,5	-2,096350
23,358500	0,5	-2,073200
23,366833	0,5	-2,048000
23,375167	0,5	-2,020450
23,383500	0,5	-1,995900
23,391833	0,5	-1,966300
23,400167	0,5	-1,938350
23,408500	0,5	-1,968400
23,416833	0,5	-1,897950
23,425167	0,5	-1,861950
23,433500	0,5	-1,856900
23,441833	0,5	-1,847600
23,450167	0,5	-1,835450
23,458500	0,5	-1,815650
23,466833	0,5	-1,795600
23,475167	0,5	-1,777450
23,483500	0,5	-1,761350
23,491833	0,5	-1,734400
23,500167	0,5	-1,718600
23,508500	0,5	-1,693500
23,516833	0,5	-1,670650
23,525167	0,5	-1,647050
23,533500	0,5	-1,618400
23,541833	0,5	-1,596150
23,550167	0,5	-1,620250
23,558500	0,5	-1,613750
23,566833	0,5	-1,563300
23,575167	0,5	-1,498450
23,583500	0,5	-1,477250
23,591833	0,5	-1,466550
23,600167	0,5	-1,446650
23,608500	0,5	-1,427900
23,616833	0,5	-1,406750
23,625167	0,5	-1,388400
23,633500	0,5	-1,369550
23,641833	0,5	-1,349450
23,650167	0,5	-1,328350
23,658500	0,5	-1,311500
23,666833	0,5	-1,287400
23,675167	0,5	-1,268900
23,683500	0,5	-1,250550
23,691833	0,5	-1,236950
23,700167	0,5	-1,322650
23,708500	0,5	-1,294500
23,716833	0,5	-1,243200
23,725167	0,5	-1,183750
23,733500	0,5	-1,161700
23,741833	0,5	-1,149950
23,750167	0,5	-1,133200
23,758500	0,5	-1,120200
23,766833	0,5	-1,099350
23,775167	0,5	-1,082650
23,783500	0,5	-1,056300
23,791833	0,5	-1,037050
23,800167	0,5	-1,014850
23,808500	0,5	-0,996400
23,816833	0,5	-0,971850
23,825167	0,5	-0,948850
23,833500	0,5	-0,934600
23,841833	0,5	-0,948300
23,850167	0,5	-1,029700
23,858500	0,5	-0,991450
23,866833	0,5	-0,930200
23,875167	0,5	-0,884050
23,883500	0,5	-0,862400
23,891833	0,5	-0,849200
23,900167	0,5	-0,846250
23,908500	0,5	-0,835250
23,916833	0,5	-0,820000
23,925167	0,5	-0,802100
23,933500	0,5	-0,793450
23,941833	0,5	-0,772200
23,950167	0,5	-0,756050
23,958500	0,5	-0,734000
23,966833	0,5	-0,716100
23,975167	0,5	-0,693950
23,983500	0,5	-0,680200
23,991833	0,5	-0,766200
24,000167	0,5	-0,748750
24,008500	0,5	-0,719750
24,016833	0,5	-0,656500
24,025167	0,5	-0,620000
24,033500	0,5	-0,601950
24,041833	0,5	-0,587350
24,050167	0,5	-0,586550
24,058500	0,5	-0,575250
24,066833	0,5	-0,544350
24,075167	0,5	-0,529750
24,083500	0,5	-0,515250
24,091833	0,5	-0,506050
24,100167	0,5	-0,485400
24,108500	0,5	-0,475450
24,116833	0,5	-0,454250
24,125167	0,5	-0,448550
24,133500	0,5	-0,447500
24,141833	0,5	-0,544100
24,150167	0,5	-0,496950
24,158500	0,5	-0,478750
24,166833	0,5	-0,419450
24,175167	0,5	-0,395850
24,183500	0,5	-0,372350
24,191833	0,5	-0,367150
24,200167	0,5	-0,369700
24,208500	0,5	-0,344500
24,216833	0,5	-0,328900
24,225167	0,5	-0,318700
24,233500	0,5	-0,305350
24,241833	0,5	-0,281350
24,250167	0,5	-0,267400
24,258500	0,5	-0,249250
24,266833	0,5	-0,237550
24,275167	0,5	-0,220000
24,283500	0,5	-0,243000
24,291833	0,5	-0,295250
24,300167	0,5	-0,264700
24,308500	0,5	-0,229400
24,316833	0,5	-0,194750
24,325167	0,5	-0,183550
24,333500	0,5	-0,177250
24,341833	0,5	-0,175800
24,350167	0,5	-0,177800
24,358500	0,5	-0,163900
24,366833	0,5	-0,150350
24,375167	0,5	-0,138250
24,383500	0,5	-0,123400
24,391833	0,5	-0,114200
24,400167	0,5	-0,099200
24,408500	0,5	-0,084450
24,416833	0,5	-0,070200
24,425167	0,5	-0,071150
24,433500	0,5	-0,110050
24,441833	0,5	-0,107950
24,450167	0,5	-0,081750
24,458500	0,5	-0,055400
24,466833	0,5	-0,027450
24,475167	0,5	-0,016900
24,483500	0,5	-0,009400
24,491833	0,5	-0,011350
24,500167	0,5	-0,010500
24,508500	0,5	-0,002850
24,516833	0,5	0,005750
24,525167	0,5	0,012150
24,533500	0,5	0,018150
24,541833	0,5	0,028350
24,550167	0,5	0,037650
24,558500	0,5	0,044800
24,566833	0,5	0,053300
24,575167	0,5	0,057150
24,583500	0,5	0,011300
24,591833	0,5	0,030450
24,600167	0,5	0,044900
24,608500	0,5	0,073400
24,616833	0,5	0,086050
24,625167	0,5	0,088750
24,633500	0,5	0,092850
24,641833	0,5	0,093300
24,650167	0,5	0,096600
24,658500	0,5	0,106350
24,666833	0,5	0,115350
24,675167	0,5	0,126250
24,683500	0,5	0,132350
24,691833	0,5	0,141200
24,700167	0,5	0,141600
24,708500	0,5	0,151950
24,716833	0,5	0,149650
24,725167	0,5	0,137750
24,733500	0,5	0,126600
24,741833	0,5	0,131350
24,750167	0,5	0,145350
24,758500	0,5	0,160750
24,766833	0,5	0,171350
24,775167	0,5	0,169750
24,783500	0,5	0,170950
24,791833	0,5	0,169700
24,800167	0,5	0,179100
24,808500	0,5	0,182450
24,816833	0,5	0,185350
24,825167	0,5	0,187850
24,833500	0,5	0,196600
24,841833	0,5	0,199800
24,850167	0,5	0,209650
24,858500	0,5	0,214200
24,866833	0,5	0,217950
24,875167	0,5	0,199000
24,883500	0,5	0,202550
24,891833	0,5	0,203200
24,900167	0,5	0,221200
24,908500	0,5	0,223900
24,916833	0,5	0,230400
24,925167	0,5	0,228950
24,933500	0,5	0,224450
24,941833	0,5	0,225400
24,950167	0,5	0,227250
24,958500	0,5	0,232350
24,966833	0,5	0,232000
24,975167	0,5	0,233950
24,983500	0,5	0,236900
24,991833	0,5	0,242100
25,000167	0,5	0,244550
25,008500	0,5	0,247600
25,016833	0,5	0,248400
25,025167	0,5	0,238000
25,033500	0,5	0,246450
25,041833	0,5	0,250650
25,050167	0,5	0,258000
25,058500	0,5	0,261600
25,066833	0,5	0,265650
25,075167	0,5	0,264200
25,083500	0,5	0,262450
25,091833	0,5	0,263800
25,100167	0,5	0,265450
25,108500	0,5	0,267100
25,116833	0,5	0,261500
25,125167	0,5	0,265900
25,133500	0,5	0,268300
25,141833	0,5	0,264900
25,150167	0,5	0,269250
25,158500	0,5	0,269100
25,166833	0,5	0,268500
25,175167	0,5	0,265700
25,183500	0,5	0,271200
25,191833	0,5	0,271650
25,200167	0,5	0,277650
25,208500	0,5	0,277650
25,216833	0,5	0,279200
25,225167	0,5	0,279300
25,233500	0,5	0,274050
25,241833	0,5	0,277350
25,250167	0,5	0,278800
25,258500	0,5	0,279200
25,266833	0,5	0,276200
25,275167	0,5	0,277300
25,283500	0,5	0,278750
25,291833	0,5	0,278650
25,300167	0,5	0,278950
25,308500	0,5	0,280450
25,316833	0,5	0,274300
25,325167	0,5	0,274850
25,333500	0,5	0,276000
25,341833	0,5	0,275700
25,350167	0,5	0,276400
25,358500	0,5	0,275600
25,366833	0,5	0,274900
25,375167	0,5	0,272600
25,383500	0,5	0,274050
25,391833	0,5	0,273150
25,400167	0,5	0,274300
25,408500	0,5	0,273900
25,416833	0,5	0,274100
25,425167	0,5	0,276200
25,433500	0,5	0,274300
25,441833	0,5	0,275000
25,450167	0,5	0,276350
25,458500	0,5	0,274600
25,466833	0,5	0,276100
25,475167	0,5	0,277300
25,483500	0,5	0,276650
25,491833	0,5	0,272150
25,500167	0,5	0,270050
25,508500	0,5	0,267550
25,516833	0,5	0,267600
25,525167	0,5	0,272000
25,533500	0,5	0,265900
25,541833	0,5	0,265350
25,550167	0,5	0,265550
25,558500	0,5	0,266450
25,566833	0,5	0,263850
25,575167	0,5	0,263050
25,583500	0,5	0,263450
25,591833	0,5	0,266400
25,600167	0,5	0,264100
25,608500	0,5	0,265500
25,616833	0,5	0,268000
25,625167	0,5	0,265250
25,633500	0,5	0,267400
25,641833	0,5	0,261050
25,650167	0,5	0,262100
25,658500	0,5	0,258100
25,666833	0,5	0,259700
25,675167	0,5	0,260800
25,683500	0,5	0,258350
25,691833	0,5	0,253700
25,700167	0,5	0,260700
25,708500	0,5	0,254750
25,716833	0,5	0,254500
25,725167	0,5	0,252250
25,733500	0,5	0,250050
25,741833	0,5	0,253550
25,750167	0,5	0,251600
25,758500	0,5	0,251100
25,766833	0,5	0,251950
25,775167	0,5	0,255200
25,783500	0,5	0,252150
25,791833	0,5	0,251200
25,800167	0,5	0,248050
25,808500	0,5	0,245400
25,816833	0,5	0,250500
25,825167	0,5	0,251900
25,833500	0,5	0,246950
25,841833	0,5	0,249150
25,850167	0,5	0,246200
25,858500	0,5	0,246100
25,866833	0,5	0,243900
25,875167	0,5	0,242950
25,883500	0,5	0,239550
25,891833	0,5	0,241550
25,900167	0,5	0,241600
25,908500	0,5	0,243750
25,916833	0,5	0,239000
25,925167	0,5	0,251900
25,933500	0,5	0,238750
25,941833	0,5	0,239000
25,950167	0,5	0,237750
25,958500	0,5	0,240600
25,966833	0,5	0,249000
25,975167	0,5	0,248100
25,983500	0,5	0,250450
25,991833	0,5	0,247350
26,000167	0,5	0,250000
