File Path	chrom://chromeleon01/ikbm_chromeleon/2022/ICS-5000/ED1/Esteban/20220612_Cell_7_4_eg.seq/367.smp/ED_1.channel/ED_1.chm
Channel	ED_1

Injection Information:
Data Vault	ikbm_chromeleon
Injection	4_24h-EGS_3
Injection Number	30
Position	RC8
Comment	
Processing Method	Stop sequence after Cell Death
Instrument Method	ICS5000_PA200_FullNative_Ox_26min_ED1
Type	Unknown
Status	Finished
Injection Date	13.06.2022
Injection Time	05:51:16
Injection Volume (µl)	5,0
Dilution Factor	1,0000
Weight	1,0000

Chromatogram Data Information:
Time Min. (min)	0,000167
Time Max. (min)	26,000167
Data Points	3121
Detector	EDet1
Generating Data System	Chromeleon 7.2.9.11323
Exporting Data System	Chromeleon 7.2.9.0
Operator	Instrument Controller
Signal Quantity	
Signal Unit	nC
Signal Min.	-1,723500
Signal Max.	2 580,828488
Channel	ED_1
Driver Name	DC-5000
Channel Type	Evaluation
Min. Step (s)	0,5
Max. Step (s)	0,5
Average Step (s)	0,5

Signal Parameter Information:
Signal Info	

Chromatogram Data:
Time (min)	Step (s)	Value (nC)
0,000167	n.a.	-0,044950
0,008500	0,5	-0,037950
0,016833	0,5	-0,028200
0,025167	0,5	-0,023600
0,033500	0,5	-0,034800
0,041833	0,5	-0,027250
0,050167	0,5	-0,023500
0,058500	0,5	-0,000900
0,066833	0,5	0,010900
0,075167	0,5	0,004850
0,083500	0,5	0,001650
0,091833	0,5	-0,003200
0,100167	0,5	0,001500
0,108500	0,5	0,000650
0,116833	0,5	0,007300
0,125167	0,5	-0,003250
0,133500	0,5	0,005900
0,141833	0,5	-0,001900
0,150167	0,5	-0,001900
0,158500	0,5	-0,003150
0,166833	0,5	0,012950
0,175167	0,5	-0,009250
0,183500	0,5	-0,010800
0,191833	0,5	-0,008550
0,200167	0,5	0,001350
0,208500	0,5	0,015050
0,216833	0,5	0,017750
0,225167	0,5	0,015900
0,233500	0,5	0,012150
0,241833	0,5	0,012850
0,250167	0,5	0,007750
0,258500	0,5	0,007800
0,266833	0,5	0,002750
0,275167	0,5	0,005400
0,283500	0,5	0,009800
0,291833	0,5	0,038600
0,300167	0,5	0,031550
0,308500	0,5	0,023700
0,316833	0,5	0,006700
0,325167	0,5	-0,013300
0,333500	0,5	-0,020800
0,341833	0,5	-0,017250
0,350167	0,5	-0,009100
0,358500	0,5	0,003900
0,366833	0,5	0,000950
0,375167	0,5	0,002100
0,383500	0,5	-0,001300
0,391833	0,5	-0,002450
0,400167	0,5	-0,002900
0,408500	0,5	0,000950
0,416833	0,5	0,001800
0,425167	0,5	-0,005700
0,433500	0,5	0,001700
0,441833	0,5	-0,001800
0,450167	0,5	-0,011350
0,458500	0,5	0,002250
0,466833	0,5	-0,006550
0,475167	0,5	-0,017400
0,483500	0,5	-0,020650
0,491833	0,5	-0,015400
0,500167	0,5	0,006550
0,508500	0,5	0,010050
0,516833	0,5	0,004400
0,525167	0,5	-0,002000
0,533500	0,5	0,003750
0,541833	0,5	-0,000250
0,550167	0,5	0,003350
0,558500	0,5	-0,001750
0,566833	0,5	-0,000400
0,575167	0,5	-0,001800
0,583500	0,5	-0,001950
0,591833	0,5	-0,001050
0,600167	0,5	-0,010000
0,608500	0,5	0,013950
0,616833	0,5	-0,009400
0,625167	0,5	-0,006550
0,633500	0,5	-0,010950
0,641833	0,5	0,001800
0,650167	0,5	0,017500
0,658500	0,5	0,015600
0,666833	0,5	0,005500
0,675167	0,5	0,013950
0,683500	0,5	0,008450
0,691833	0,5	0,010450
0,700167	0,5	0,011250
0,708500	0,5	0,014900
0,716833	0,5	0,010950
0,725167	0,5	0,014650
0,733500	0,5	0,016400
0,741833	0,5	0,005050
0,750167	0,5	0,001800
0,758500	0,5	0,017050
0,766833	0,5	-0,001000
0,775167	0,5	-0,000200
0,783500	0,5	0,000200
0,791833	0,5	0,013400
0,800167	0,5	0,041300
0,808500	0,5	0,029450
0,816833	0,5	0,030150
0,825167	0,5	0,028050
0,833500	0,5	0,029150
0,841833	0,5	0,026400
0,850167	0,5	0,031550
0,858500	0,5	0,024750
0,866833	0,5	0,032500
0,875167	0,5	0,028300
0,883500	0,5	0,020750
0,891833	0,5	0,014800
0,900167	0,5	0,026600
0,908500	0,5	0,029350
0,916833	0,5	0,018650
0,925167	0,5	0,020600
0,933500	0,5	0,028150
0,941833	0,5	0,042500
0,950167	0,5	0,057050
0,958500	0,5	0,059000
0,966833	0,5	0,052850
0,975167	0,5	0,052850
0,983500	0,5	0,055750
0,991833	0,5	0,055750
1,000167	0,5	0,051500
1,008500	0,5	0,053050
1,016833	0,5	0,047350
1,025167	0,5	0,057650
1,033500	0,5	0,043500
1,041833	0,5	0,044850
1,050167	0,5	0,054650
1,058500	0,5	0,051550
1,066833	0,5	0,040800
1,075167	0,5	0,048100
1,083500	0,5	0,052300
1,091833	0,5	0,071800
1,100167	0,5	0,077650
1,108500	0,5	0,076700
1,116833	0,5	0,073050
1,125167	0,5	0,073250
1,133500	0,5	0,071750
1,141833	0,5	0,070600
1,150167	0,5	0,074150
1,158500	0,5	0,069350
1,166833	0,5	0,072000
1,175167	0,5	0,070650
1,183500	0,5	0,069400
1,191833	0,5	0,068200
1,200167	0,5	0,082550
1,208500	0,5	0,069300
1,216833	0,5	0,063450
1,225167	0,5	0,065250
1,233500	0,5	0,078450
1,241833	0,5	0,088900
1,250167	0,5	0,088300
1,258500	0,5	0,080500
1,266833	0,5	0,085350
1,275167	0,5	0,087850
1,283500	0,5	0,091850
1,291833	0,5	0,086600
1,300167	0,5	0,081050
1,308500	0,5	0,081350
1,316833	0,5	0,077450
1,325167	0,5	0,075950
1,333500	0,5	0,060500
1,341833	0,5	0,072050
1,350167	0,5	0,074750
1,358500	0,5	0,067600
1,366833	0,5	0,060850
1,375167	0,5	0,065650
1,383500	0,5	0,071850
1,391833	0,5	0,083550
1,400167	0,5	0,072400
1,408500	0,5	0,074750
1,416833	0,5	0,068800
1,425167	0,5	0,072700
1,433500	0,5	0,068450
1,441833	0,5	0,068150
1,450167	0,5	0,060100
1,458500	0,5	0,059350
1,466833	0,5	0,064850
1,475167	0,5	0,049700
1,483500	0,5	0,035950
1,491833	0,5	0,042100
1,500167	0,5	0,030400
1,508500	0,5	0,023550
1,516833	0,5	0,020800
1,525167	0,5	0,019650
1,533500	0,5	0,036100
1,541833	0,5	0,035800
1,550167	0,5	0,052400
1,558500	0,5	0,105000
1,566833	0,5	0,352700
1,575167	0,5	1,733400
1,583500	0,5	9,803900
1,591833	0,5	44,705451
1,600167	0,5	167,698502
1,608500	0,5	523,667458
1,616833	0,5	1 233,209868
1,625167	0,5	1 558,915723
1,633500	0,5	2 529,474238
1,641833	0,5	2 580,828488
1,650167	0,5	2 334,167085
1,658500	0,5	1 823,753677
1,666833	0,5	1 237,593868
1,675167	0,5	817,600862
1,683500	0,5	568,063208
1,691833	0,5	418,555706
1,700167	0,5	327,546455
1,708500	0,5	266,845204
1,716833	0,5	224,740203
1,725167	0,5	192,728253
1,733500	0,5	166,650202
1,741833	0,5	144,866002
1,750167	0,5	127,634652
1,758500	0,5	115,912102
1,766833	0,5	109,849402
1,775167	0,5	107,942552
1,783500	0,5	106,289702
1,791833	0,5	101,266052
1,800167	0,5	93,015801
1,808500	0,5	84,713301
1,816833	0,5	78,358101
1,825167	0,5	74,761451
1,833500	0,5	74,716251
1,841833	0,5	78,643201
1,850167	0,5	84,616301
1,858500	0,5	87,591951
1,866833	0,5	84,580351
1,875167	0,5	78,757401
1,883500	0,5	75,145601
1,891833	0,5	76,427951
1,900167	0,5	83,949201
1,908500	0,5	99,015001
1,916833	0,5	121,227452
1,925167	0,5	144,518652
1,933500	0,5	158,355202
1,941833	0,5	155,658652
1,950167	0,5	138,453652
1,958500	0,5	115,232352
1,966833	0,5	94,447251
1,975167	0,5	79,874701
1,983500	0,5	71,401351
1,991833	0,5	68,818701
2,000167	0,5	71,283751
2,008500	0,5	73,808501
2,016833	0,5	71,621001
2,025167	0,5	65,788101
2,033500	0,5	58,914651
2,041833	0,5	51,685251
2,050167	0,5	45,045351
2,058500	0,5	40,352451
2,066833	0,5	37,908851
2,075167	0,5	36,737551
2,083500	0,5	35,444701
2,091833	0,5	33,579751
2,100167	0,5	31,597650
2,108500	0,5	29,940000
2,116833	0,5	28,753700
2,125167	0,5	28,126600
2,133500	0,5	27,812750
2,141833	0,5	27,356650
2,150167	0,5	26,460100
2,158500	0,5	25,347450
2,166833	0,5	24,325150
2,175167	0,5	23,621950
2,183500	0,5	23,380550
2,191833	0,5	23,840150
2,200167	0,5	25,396850
2,208500	0,5	27,099600
2,216833	0,5	27,028900
2,225167	0,5	26,059600
2,233500	0,5	25,562700
2,241833	0,5	25,293200
2,250167	0,5	25,104150
2,258500	0,5	25,079500
2,266833	0,5	25,265300
2,275167	0,5	25,603800
2,283500	0,5	26,037800
2,291833	0,5	26,708450
2,300167	0,5	27,936450
2,308500	0,5	29,833700
2,316833	0,5	32,010500
2,325167	0,5	33,658551
2,333500	0,5	34,261551
2,341833	0,5	33,985401
2,350167	0,5	33,691951
2,358500	0,5	34,594001
2,366833	0,5	37,803851
2,375167	0,5	43,964051
2,383500	0,5	53,848101
2,391833	0,5	70,882001
2,400167	0,5	102,537252
2,408500	0,5	153,239702
2,416833	0,5	210,355653
2,425167	0,5	245,623704
2,433500	0,5	241,197104
2,441833	0,5	205,595853
2,450167	0,5	160,345052
2,458500	0,5	121,763902
2,466833	0,5	95,607251
2,475167	0,5	81,555601
2,483500	0,5	77,249701
2,491833	0,5	79,817751
2,500167	0,5	85,751901
2,508500	0,5	90,713801
2,516833	0,5	90,394801
2,525167	0,5	83,224151
2,533500	0,5	71,198701
2,541833	0,5	58,175201
2,550167	0,5	47,025701
2,558500	0,5	38,793301
2,566833	0,5	33,190500
2,575167	0,5	29,453550
2,583500	0,5	26,926000
2,591833	0,5	25,157400
2,600167	0,5	23,961800
2,608500	0,5	23,267850
2,616833	0,5	23,085600
2,625167	0,5	23,261150
2,633500	0,5	23,494650
2,641833	0,5	23,407800
2,650167	0,5	22,790600
2,658500	0,5	21,725750
2,666833	0,5	20,524000
2,675167	0,5	19,501150
2,683500	0,5	18,774850
2,691833	0,5	18,396150
2,700167	0,5	18,375400
2,708500	0,5	18,813950
2,716833	0,5	19,987950
2,725167	0,5	22,147850
2,733500	0,5	25,167800
2,741833	0,5	28,093050
2,750167	0,5	29,581400
2,758500	0,5	28,908250
2,766833	0,5	26,423900
2,775167	0,5	23,174950
2,783500	0,5	20,147250
2,791833	0,5	17,850050
2,800167	0,5	16,275050
2,808500	0,5	15,229700
2,816833	0,5	14,503400
2,825167	0,5	13,991600
2,833500	0,5	13,570600
2,841833	0,5	13,232150
2,850167	0,5	12,912300
2,858500	0,5	12,618300
2,866833	0,5	12,336200
2,875167	0,5	12,075150
2,883500	0,5	11,860000
2,891833	0,5	11,732850
2,900167	0,5	11,702600
2,908500	0,5	11,752850
2,916833	0,5	11,812250
2,925167	0,5	11,804700
2,933500	0,5	11,715300
2,941833	0,5	11,604050
2,950167	0,5	11,586950
2,958500	0,5	11,722400
2,966833	0,5	11,984450
2,975167	0,5	12,210950
2,983500	0,5	12,290800
2,991833	0,5	12,185500
3,000167	0,5	11,943150
3,008500	0,5	11,683850
3,016833	0,5	11,633750
3,025167	0,5	12,119150
3,033500	0,5	13,258200
3,041833	0,5	14,593450
3,050167	0,5	15,542850
3,058500	0,5	15,810050
3,066833	0,5	15,492450
3,075167	0,5	14,833200
3,083500	0,5	14,052900
3,091833	0,5	13,279500
3,100167	0,5	12,541750
3,108500	0,5	11,876200
3,116833	0,5	11,283600
3,125167	0,5	10,729500
3,133500	0,5	10,227450
3,141833	0,5	9,798800
3,150167	0,5	9,418600
3,158500	0,5	9,104800
3,166833	0,5	8,823250
3,175167	0,5	8,578000
3,183500	0,5	8,363550
3,191833	0,5	8,185850
3,200167	0,5	8,023850
3,208500	0,5	7,888450
3,216833	0,5	7,757000
3,225167	0,5	7,642200
3,233500	0,5	7,529950
3,241833	0,5	7,422650
3,250167	0,5	7,310750
3,258500	0,5	7,219900
3,266833	0,5	7,144700
3,275167	0,5	7,079100
3,283500	0,5	7,041700
3,291833	0,5	7,039000
3,300167	0,5	7,058400
3,308500	0,5	7,071700
3,316833	0,5	7,063750
3,325167	0,5	7,040650
3,333500	0,5	7,012950
3,341833	0,5	6,991150
3,350167	0,5	6,996850
3,358500	0,5	7,051800
3,366833	0,5	7,179200
3,375167	0,5	7,406050
3,383500	0,5	7,777250
3,391833	0,5	8,318050
3,400167	0,5	9,001400
3,408500	0,5	9,780900
3,416833	0,5	10,527000
3,425167	0,5	11,062300
3,433500	0,5	11,324150
3,441833	0,5	11,302350
3,450167	0,5	11,089150
3,458500	0,5	10,832750
3,466833	0,5	10,640450
3,475167	0,5	10,610550
3,483500	0,5	10,699950
3,491833	0,5	10,798100
3,500167	0,5	10,763900
3,508500	0,5	10,519900
3,516833	0,5	10,037650
3,525167	0,5	9,392050
3,533500	0,5	8,679300
3,541833	0,5	8,018600
3,550167	0,5	7,454750
3,558500	0,5	7,069150
3,566833	0,5	6,801800
3,575167	0,5	6,651650
3,583500	0,5	6,588000
3,591833	0,5	6,569450
3,600167	0,5	6,576100
3,608500	0,5	6,582400
3,616833	0,5	6,587800
3,625167	0,5	6,615000
3,633500	0,5	6,665650
3,641833	0,5	6,755450
3,650167	0,5	6,869500
3,658500	0,5	6,985750
3,666833	0,5	7,090050
3,675167	0,5	7,138350
3,683500	0,5	7,133700
3,691833	0,5	7,046650
3,700167	0,5	6,913100
3,708500	0,5	6,752900
3,716833	0,5	6,565350
3,725167	0,5	6,395300
3,733500	0,5	6,247150
3,741833	0,5	6,127100
3,750167	0,5	6,040850
3,758500	0,5	5,955350
3,766833	0,5	5,894350
3,775167	0,5	5,848150
3,783500	0,5	5,828700
3,791833	0,5	5,831950
3,800167	0,5	5,858050
3,808500	0,5	5,908150
3,816833	0,5	5,973050
3,825167	0,5	6,048100
3,833500	0,5	6,098900
3,841833	0,5	6,118750
3,850167	0,5	6,099300
3,858500	0,5	6,036150
3,866833	0,5	5,928500
3,875167	0,5	5,814650
3,883500	0,5	5,690850
3,891833	0,5	5,593650
3,900167	0,5	5,511000
3,908500	0,5	5,441700
3,916833	0,5	5,386400
3,925167	0,5	5,361050
3,933500	0,5	5,336350
3,941833	0,5	5,330350
3,950167	0,5	5,323950
3,958500	0,5	5,315050
3,966833	0,5	5,312650
3,975167	0,5	5,309650
3,983500	0,5	5,299850
3,991833	0,5	5,290900
4,000167	0,5	5,298250
4,008500	0,5	5,292800
4,016833	0,5	5,286900
4,025167	0,5	5,294550
4,033500	0,5	5,299950
4,041833	0,5	5,312150
4,050167	0,5	5,317000
4,058500	0,5	5,307500
4,066833	0,5	5,299150
4,075167	0,5	5,278050
4,083500	0,5	5,256000
4,091833	0,5	5,222600
4,100167	0,5	5,199200
4,108500	0,5	5,172850
4,116833	0,5	5,159200
4,125167	0,5	5,143900
4,133500	0,5	5,126150
4,141833	0,5	5,107650
4,150167	0,5	5,089100
4,158500	0,5	5,010650
4,166833	0,5	4,912200
4,175167	0,5	4,802100
4,183500	0,5	4,684050
4,191833	0,5	4,571500
4,200167	0,5	4,444750
4,208500	0,5	4,326850
4,216833	0,5	4,212100
4,225167	0,5	4,116100
4,233500	0,5	4,033550
4,241833	0,5	3,976500
4,250167	0,5	3,939700
4,258500	0,5	3,933200
4,266833	0,5	3,940350
4,275167	0,5	3,966650
4,283500	0,5	3,985650
4,291833	0,5	4,016500
4,300167	0,5	4,035600
4,308500	0,5	4,031650
4,316833	0,5	4,009550
4,325167	0,5	3,985400
4,333500	0,5	3,957500
4,341833	0,5	3,940900
4,350167	0,5	3,915300
4,358500	0,5	3,919600
4,366833	0,5	3,960950
4,375167	0,5	4,039400
4,383500	0,5	4,151850
4,391833	0,5	4,308950
4,400167	0,5	4,486050
4,408500	0,5	4,661350
4,416833	0,5	4,817450
4,425167	0,5	4,915700
4,433500	0,5	4,939450
4,441833	0,5	4,893100
4,450167	0,5	4,781650
4,458500	0,5	4,610050
4,466833	0,5	4,427350
4,475167	0,5	4,242050
4,483500	0,5	4,082400
4,491833	0,5	3,946900
4,500167	0,5	3,825200
4,508500	0,5	3,735000
4,516833	0,5	3,672150
4,525167	0,5	3,621000
4,533500	0,5	3,588150
4,541833	0,5	3,565050
4,550167	0,5	3,552750
4,558500	0,5	3,556750
4,566833	0,5	3,562750
4,575167	0,5	3,572300
4,583500	0,5	3,569600
4,591833	0,5	3,578000
4,600167	0,5	3,558850
4,608500	0,5	3,529850
4,616833	0,5	3,485300
4,625167	0,5	3,440000
4,633500	0,5	3,388200
4,641833	0,5	3,332800
4,650167	0,5	3,272000
4,658500	0,5	3,228750
4,666833	0,5	3,180750
4,675167	0,5	3,146850
4,683500	0,5	3,116250
4,691833	0,5	3,090750
4,700167	0,5	3,067150
4,708500	0,5	3,049750
4,716833	0,5	3,030900
4,725167	0,5	3,007950
4,733500	0,5	2,995100
4,741833	0,5	3,000450
4,750167	0,5	2,996650
4,758500	0,5	3,009650
4,766833	0,5	3,039050
4,775167	0,5	3,092200
4,783500	0,5	3,172200
4,791833	0,5	3,254150
4,800167	0,5	3,363400
4,808500	0,5	3,469000
4,816833	0,5	3,594650
4,825167	0,5	3,705500
4,833500	0,5	3,821050
4,841833	0,5	3,915650
4,850167	0,5	4,011450
4,858500	0,5	4,101450
4,866833	0,5	4,189300
4,875167	0,5	4,295200
4,883500	0,5	4,444050
4,891833	0,5	4,642900
4,900167	0,5	4,923950
4,908500	0,5	5,343350
4,916833	0,5	5,960200
4,925167	0,5	6,854650
4,933500	0,5	8,075150
4,941833	0,5	9,674100
4,950167	0,5	11,615500
4,958500	0,5	13,818350
4,966833	0,5	16,086450
4,975167	0,5	18,193350
4,983500	0,5	19,867700
4,991833	0,5	20,933600
5,000167	0,5	21,272300
5,008500	0,5	20,893700
5,016833	0,5	19,883700
5,025167	0,5	18,402150
5,033500	0,5	16,646850
5,041833	0,5	14,760550
5,050167	0,5	12,894800
5,058500	0,5	11,172800
5,066833	0,5	9,642050
5,075167	0,5	8,349800
5,083500	0,5	7,271800
5,091833	0,5	6,392700
5,100167	0,5	5,698500
5,108500	0,5	5,152400
5,116833	0,5	4,725800
5,125167	0,5	4,392350
5,133500	0,5	4,129850
5,141833	0,5	3,924100
5,150167	0,5	3,763500
5,158500	0,5	3,633350
5,166833	0,5	3,532750
5,175167	0,5	3,450700
5,183500	0,5	3,399700
5,191833	0,5	3,343550
5,200167	0,5	3,304150
5,208500	0,5	3,280250
5,216833	0,5	3,264400
5,225167	0,5	3,260550
5,233500	0,5	3,251450
5,241833	0,5	3,238350
5,250167	0,5	3,229100
5,258500	0,5	3,214800
5,266833	0,5	3,196100
5,275167	0,5	3,176800
5,283500	0,5	3,153050
5,291833	0,5	3,134700
5,300167	0,5	3,112050
5,308500	0,5	3,095650
5,316833	0,5	3,073200
5,325167	0,5	3,064150
5,333500	0,5	3,057250
5,341833	0,5	3,045950
5,350167	0,5	3,043250
5,358500	0,5	3,058550
5,366833	0,5	3,081500
5,375167	0,5	3,124000
5,383500	0,5	3,169000
5,391833	0,5	3,234400
5,400167	0,5	3,315850
5,408500	0,5	3,419250
5,416833	0,5	3,545100
5,425167	0,5	3,688100
5,433500	0,5	3,852800
5,441833	0,5	4,036850
5,450167	0,5	4,236800
5,458500	0,5	4,445850
5,466833	0,5	4,651350
5,475167	0,5	4,856450
5,483500	0,5	5,040700
5,491833	0,5	5,184300
5,500167	0,5	5,297550
5,508500	0,5	5,358000
5,516833	0,5	5,371350
5,525167	0,5	5,318650
5,533500	0,5	5,205400
5,541833	0,5	5,040550
5,550167	0,5	4,834100
5,558500	0,5	4,592650
5,566833	0,5	4,334100
5,575167	0,5	4,063250
5,583500	0,5	3,807050
5,591833	0,5	3,572300
5,600167	0,5	3,358050
5,608500	0,5	3,173550
5,616833	0,5	3,015850
5,625167	0,5	2,895100
5,633500	0,5	2,791950
5,641833	0,5	2,717400
5,650167	0,5	2,664750
5,658500	0,5	2,636400
5,666833	0,5	2,618950
5,675167	0,5	2,621050
5,683500	0,5	2,628700
5,691833	0,5	2,653850
5,700167	0,5	2,690200
5,708500	0,5	2,753600
5,716833	0,5	2,823000
5,725167	0,5	2,901950
5,733500	0,5	2,983650
5,741833	0,5	3,061000
5,750167	0,5	3,114900
5,758500	0,5	3,140800
5,766833	0,5	3,139450
5,775167	0,5	3,120250
5,783500	0,5	3,066850
5,791833	0,5	3,001050
5,800167	0,5	2,928350
5,808500	0,5	2,859250
5,816833	0,5	2,793200
5,825167	0,5	2,732700
5,833500	0,5	2,678700
5,841833	0,5	2,633650
5,850167	0,5	2,593150
5,858500	0,5	2,555350
5,866833	0,5	2,520650
5,875167	0,5	2,483100
5,883500	0,5	2,448450
5,891833	0,5	2,414500
5,900167	0,5	2,374950
5,908500	0,5	2,334050
5,916833	0,5	2,307350
5,925167	0,5	2,282400
5,933500	0,5	2,252400
5,941833	0,5	2,227300
5,950167	0,5	2,213050
5,958500	0,5	2,202950
5,966833	0,5	2,195000
5,975167	0,5	2,185100
5,983500	0,5	2,173250
5,991833	0,5	2,170250
6,000167	0,5	2,156700
6,008500	0,5	2,154150
6,016833	0,5	2,150550
6,025167	0,5	2,155900
6,033500	0,5	2,161950
6,041833	0,5	2,174650
6,050167	0,5	2,179800
6,058500	0,5	2,187200
6,066833	0,5	2,203450
6,075167	0,5	2,205350
6,083500	0,5	2,197450
6,091833	0,5	2,191200
6,100167	0,5	2,179100
6,108500	0,5	2,170100
6,116833	0,5	2,153800
6,125167	0,5	2,135250
6,133500	0,5	2,117300
6,141833	0,5	2,106850
6,150167	0,5	2,097650
6,158500	0,5	2,089850
6,166833	0,5	2,092150
6,175167	0,5	2,092250
6,183500	0,5	2,103000
6,191833	0,5	2,108400
6,200167	0,5	2,122400
6,208500	0,5	2,131350
6,216833	0,5	2,158250
6,225167	0,5	2,169750
6,233500	0,5	2,192450
6,241833	0,5	2,224750
6,250167	0,5	2,258550
6,258500	0,5	2,297200
6,266833	0,5	2,327350
6,275167	0,5	2,349550
6,283500	0,5	2,362200
6,291833	0,5	2,363850
6,300167	0,5	2,360050
6,308500	0,5	2,359250
6,316833	0,5	2,369000
6,325167	0,5	2,400200
6,333500	0,5	2,461150
6,341833	0,5	2,558700
6,350167	0,5	2,685050
6,358500	0,5	2,857050
6,366833	0,5	3,059450
6,375167	0,5	3,269050
6,383500	0,5	3,489500
6,391833	0,5	3,713750
6,400167	0,5	3,936000
6,408500	0,5	4,157150
6,416833	0,5	4,380450
6,425167	0,5	4,635150
6,433500	0,5	4,949950
6,441833	0,5	5,377850
6,450167	0,5	5,984350
6,458500	0,5	6,881100
6,466833	0,5	8,212550
6,475167	0,5	10,154200
6,483500	0,5	12,881250
6,491833	0,5	16,492850
6,500167	0,5	20,964950
6,508500	0,5	26,096400
6,516833	0,5	31,447350
6,525167	0,5	36,456601
6,533500	0,5	40,558801
6,541833	0,5	43,259651
6,550167	0,5	44,241651
6,558500	0,5	43,400251
6,566833	0,5	40,894201
6,575167	0,5	37,074351
6,583500	0,5	32,433550
6,591833	0,5	27,452650
6,600167	0,5	22,582650
6,608500	0,5	18,139450
6,616833	0,5	14,334700
6,625167	0,5	11,240750
6,633500	0,5	8,843100
6,641833	0,5	7,052100
6,650167	0,5	5,765700
6,658500	0,5	4,875250
6,666833	0,5	4,262050
6,675167	0,5	3,849050
6,683500	0,5	3,566000
6,691833	0,5	3,365950
6,700167	0,5	3,219300
6,708500	0,5	3,096600
6,716833	0,5	2,985150
6,725167	0,5	2,885950
6,733500	0,5	2,793900
6,741833	0,5	2,713650
6,750167	0,5	2,639900
6,758500	0,5	2,579550
6,766833	0,5	2,524600
6,775167	0,5	2,485400
6,783500	0,5	2,447550
6,791833	0,5	2,418850
6,800167	0,5	2,392050
6,808500	0,5	2,370850
6,816833	0,5	2,340350
6,825167	0,5	2,316050
6,833500	0,5	2,286850
6,841833	0,5	2,262900
6,850167	0,5	2,238050
6,858500	0,5	2,212300
6,866833	0,5	2,189550
6,875167	0,5	2,171000
6,883500	0,5	2,159200
6,891833	0,5	2,146750
6,900167	0,5	2,139050
6,908500	0,5	2,131950
6,916833	0,5	2,127950
6,925167	0,5	2,132850
6,933500	0,5	2,134500
6,941833	0,5	2,134600
6,950167	0,5	2,149950
6,958500	0,5	2,160150
6,966833	0,5	2,166200
6,975167	0,5	2,174450
6,983500	0,5	2,186200
6,991833	0,5	2,205150
7,000167	0,5	2,232950
7,008500	0,5	2,260200
7,016833	0,5	2,291250
7,025167	0,5	2,312700
7,033500	0,5	2,323250
7,041833	0,5	2,314350
7,050167	0,5	2,291800
7,058500	0,5	2,248100
7,066833	0,5	2,195100
7,075167	0,5	2,142300
7,083500	0,5	2,090350
7,091833	0,5	2,048000
7,100167	0,5	2,019400
7,108500	0,5	1,998700
7,116833	0,5	1,987900
7,125167	0,5	1,983050
7,133500	0,5	1,989800
7,141833	0,5	2,001550
7,150167	0,5	2,003350
7,158500	0,5	2,002650
7,166833	0,5	2,001700
7,175167	0,5	2,005800
7,183500	0,5	2,009400
7,191833	0,5	2,024900
7,200167	0,5	2,053250
7,208500	0,5	2,096750
7,216833	0,5	2,159150
7,225167	0,5	2,239300
7,233500	0,5	2,325700
7,241833	0,5	2,410050
7,250167	0,5	2,484600
7,258500	0,5	2,528700
7,266833	0,5	2,548400
7,275167	0,5	2,550050
7,283500	0,5	2,541050
7,291833	0,5	2,537950
7,300167	0,5	2,540650
7,308500	0,5	2,556250
7,316833	0,5	2,589650
7,325167	0,5	2,618100
7,333500	0,5	2,632450
7,341833	0,5	2,621600
7,350167	0,5	2,582800
7,358500	0,5	2,516300
7,366833	0,5	2,441250
7,375167	0,5	2,360400
7,383500	0,5	2,283000
7,391833	0,5	2,217050
7,400167	0,5	2,171400
7,408500	0,5	2,127100
7,416833	0,5	2,096500
7,425167	0,5	2,072600
7,433500	0,5	2,055850
7,441833	0,5	2,042350
7,450167	0,5	2,027700
7,458500	0,5	2,015800
7,466833	0,5	2,005550
7,475167	0,5	1,999800
7,483500	0,5	2,001700
7,491833	0,5	2,011350
7,500167	0,5	2,024150
7,508500	0,5	2,044500
7,516833	0,5	2,078650
7,525167	0,5	2,113400
7,533500	0,5	2,154300
7,541833	0,5	2,215700
7,550167	0,5	2,284850
7,558500	0,5	2,371950
7,566833	0,5	2,477350
7,575167	0,5	2,611250
7,583500	0,5	2,774300
7,591833	0,5	2,965650
7,600167	0,5	3,198950
7,608500	0,5	3,489450
7,616833	0,5	3,842100
7,625167	0,5	4,284300
7,633500	0,5	4,839500
7,641833	0,5	5,550200
7,650167	0,5	6,455950
7,658500	0,5	7,609350
7,666833	0,5	9,050750
7,675167	0,5	10,819750
7,683500	0,5	12,907750
7,691833	0,5	15,274400
7,700167	0,5	17,792150
7,708500	0,5	20,272050
7,716833	0,5	22,486750
7,725167	0,5	24,177050
7,733500	0,5	25,118900
7,741833	0,5	25,170500
7,750167	0,5	24,298850
7,758500	0,5	22,614350
7,766833	0,5	20,305800
7,775167	0,5	17,646500
7,783500	0,5	14,896550
7,791833	0,5	12,289300
7,800167	0,5	9,982050
7,808500	0,5	8,064750
7,816833	0,5	6,543450
7,825167	0,5	5,399300
7,833500	0,5	4,571950
7,841833	0,5	4,003900
7,850167	0,5	3,628250
7,858500	0,5	3,408250
7,866833	0,5	3,317600
7,875167	0,5	3,331550
7,883500	0,5	3,433600
7,891833	0,5	3,604000
7,900167	0,5	3,808200
7,908500	0,5	4,020400
7,916833	0,5	4,205450
7,925167	0,5	4,344150
7,933500	0,5	4,416000
7,941833	0,5	4,418750
7,950167	0,5	4,369400
7,958500	0,5	4,281850
7,966833	0,5	4,170800
7,975167	0,5	4,051000
7,983500	0,5	3,942500
7,991833	0,5	3,830150
8,000167	0,5	3,709900
8,008500	0,5	3,576500
8,016833	0,5	3,434650
8,025167	0,5	3,291700
8,033500	0,5	3,152350
8,041833	0,5	3,022500
8,050167	0,5	2,918450
8,058500	0,5	2,840150
8,066833	0,5	2,794850
8,075167	0,5	2,773550
8,083500	0,5	2,781400
8,091833	0,5	2,816050
8,100167	0,5	2,869200
8,108500	0,5	2,931250
8,116833	0,5	2,982350
8,125167	0,5	3,006750
8,133500	0,5	3,001400
8,141833	0,5	2,963050
8,150167	0,5	2,907450
8,158500	0,5	2,849700
8,166833	0,5	2,806000
8,175167	0,5	2,773900
8,183500	0,5	2,758450
8,191833	0,5	2,751250
8,200167	0,5	2,754200
8,208500	0,5	2,766100
8,216833	0,5	2,781250
8,225167	0,5	2,796600
8,233500	0,5	2,825250
8,241833	0,5	2,862450
8,250167	0,5	2,915400
8,258500	0,5	3,004250
8,266833	0,5	3,121800
8,275167	0,5	3,278400
8,283500	0,5	3,481950
8,291833	0,5	3,722450
8,300167	0,5	3,998750
8,308500	0,5	4,343700
8,316833	0,5	4,821900
8,325167	0,5	5,586000
8,333500	0,5	6,876600
8,341833	0,5	9,070750
8,350167	0,5	12,588000
8,358500	0,5	17,696450
8,366833	0,5	24,233900
8,375167	0,5	31,440300
8,383500	0,5	38,071051
8,391833	0,5	42,755651
8,400167	0,5	44,540401
8,408500	0,5	43,166351
8,416833	0,5	39,124651
8,425167	0,5	33,407300
8,433500	0,5	27,092800
8,441833	0,5	21,080900
8,450167	0,5	15,941400
8,458500	0,5	11,903200
8,466833	0,5	8,929950
8,475167	0,5	6,860950
8,483500	0,5	5,469700
8,491833	0,5	4,564600
8,500167	0,5	3,988900
8,508500	0,5	3,620800
8,516833	0,5	3,381250
8,525167	0,5	3,224600
8,533500	0,5	3,120450
8,541833	0,5	3,042950
8,550167	0,5	2,986350
8,558500	0,5	2,935400
8,566833	0,5	2,887750
8,575167	0,5	2,853750
8,583500	0,5	2,832550
8,591833	0,5	2,823650
8,600167	0,5	2,844050
8,608500	0,5	2,889650
8,616833	0,5	2,963750
8,625167	0,5	3,041200
8,633500	0,5	3,087600
8,641833	0,5	3,080150
8,650167	0,5	3,019550
8,658500	0,5	2,912450
8,666833	0,5	2,785000
8,675167	0,5	2,656900
8,683500	0,5	2,541700
8,691833	0,5	2,456950
8,700167	0,5	2,402850
8,708500	0,5	2,376150
8,716833	0,5	2,359800
8,725167	0,5	2,344600
8,733500	0,5	2,320100
8,741833	0,5	2,279100
8,750167	0,5	2,232750
8,758500	0,5	2,194200
8,766833	0,5	2,171700
8,775167	0,5	2,162400
8,783500	0,5	2,171950
8,791833	0,5	2,180100
8,800167	0,5	2,183250
8,808500	0,5	2,176900
8,816833	0,5	2,160300
8,825167	0,5	2,139550
8,833500	0,5	2,118700
8,841833	0,5	2,101400
8,850167	0,5	2,096100
8,858500	0,5	2,094650
8,866833	0,5	2,109750
8,875167	0,5	2,134950
8,883500	0,5	2,173700
8,891833	0,5	2,226200
8,900167	0,5	2,292700
8,908500	0,5	2,359000
8,916833	0,5	2,419200
8,925167	0,5	2,451450
8,933500	0,5	2,450100
8,941833	0,5	2,418250
8,950167	0,5	2,362350
8,958500	0,5	2,287050
8,966833	0,5	2,208250
8,975167	0,5	2,132700
8,983500	0,5	2,073100
8,991833	0,5	2,040800
9,000167	0,5	2,040450
9,008500	0,5	2,071250
9,016833	0,5	2,120550
9,025167	0,5	2,169600
9,033500	0,5	2,185600
9,041833	0,5	2,171250
9,050167	0,5	2,129000
9,058500	0,5	2,084300
9,066833	0,5	2,046350
9,075167	0,5	2,015800
9,083500	0,5	1,990300
9,091833	0,5	1,972600
9,100167	0,5	1,958300
9,108500	0,5	1,947900
9,116833	0,5	1,945450
9,125167	0,5	1,957400
9,133500	0,5	1,973450
9,141833	0,5	2,001400
9,150167	0,5	2,034750
9,158500	0,5	2,063050
9,166833	0,5	2,093700
9,175167	0,5	2,113200
9,183500	0,5	2,117550
9,191833	0,5	2,105350
9,200167	0,5	2,075900
9,208500	0,5	2,045050
9,216833	0,5	2,006600
9,225167	0,5	1,964550
9,233500	0,5	1,932900
9,241833	0,5	1,899200
9,250167	0,5	1,875050
9,258500	0,5	1,845650
9,266833	0,5	1,828200
9,275167	0,5	1,810350
9,283500	0,5	1,793150
9,291833	0,5	1,779700
9,300167	0,5	1,764250
9,308500	0,5	1,753350
9,316833	0,5	1,750400
9,325167	0,5	1,760350
9,333500	0,5	1,789650
9,341833	0,5	1,842500
9,350167	0,5	1,913550
9,358500	0,5	1,997400
9,366833	0,5	2,077600
9,375167	0,5	2,141150
9,383500	0,5	2,195950
9,391833	0,5	2,239050
9,400167	0,5	2,286650
9,408500	0,5	2,324050
9,416833	0,5	2,347600
9,425167	0,5	2,346150
9,433500	0,5	2,318350
9,441833	0,5	2,265350
9,450167	0,5	2,203850
9,458500	0,5	2,132450
9,466833	0,5	2,064250
9,475167	0,5	1,995800
9,483500	0,5	1,926800
9,491833	0,5	1,869850
9,500167	0,5	1,814200
9,508500	0,5	1,773700
9,516833	0,5	1,745000
9,525167	0,5	1,724750
9,533500	0,5	1,716650
9,541833	0,5	1,720950
9,550167	0,5	1,729700
9,558500	0,5	1,742850
9,566833	0,5	1,763350
9,575167	0,5	1,777050
9,583500	0,5	1,801250
9,591833	0,5	1,821150
9,600167	0,5	1,848100
9,608500	0,5	1,874400
9,616833	0,5	1,908950
9,625167	0,5	1,933900
9,633500	0,5	1,957750
9,641833	0,5	1,980500
9,650167	0,5	1,999800
9,658500	0,5	2,014350
9,666833	0,5	2,010300
9,675167	0,5	1,981200
9,683500	0,5	1,932800
9,691833	0,5	1,863350
9,700167	0,5	1,796700
9,708500	0,5	1,745150
9,716833	0,5	1,714200
9,725167	0,5	1,699900
9,733500	0,5	1,706000
9,741833	0,5	1,728950
9,750167	0,5	1,764800
9,758500	0,5	1,821100
9,766833	0,5	1,895500
9,775167	0,5	1,976800
9,783500	0,5	2,060800
9,791833	0,5	2,135900
9,800167	0,5	2,191950
9,808500	0,5	2,237550
9,816833	0,5	2,283350
9,825167	0,5	2,346050
9,833500	0,5	2,443500
9,841833	0,5	2,609100
9,850167	0,5	2,848400
9,858500	0,5	3,183000
9,866833	0,5	3,601550
9,875167	0,5	4,071300
9,883500	0,5	4,537800
9,891833	0,5	4,940250
9,900167	0,5	5,221400
9,908500	0,5	5,377500
9,916833	0,5	5,400200
9,925167	0,5	5,302350
9,933500	0,5	5,102800
9,941833	0,5	4,830650
9,950167	0,5	4,507350
9,958500	0,5	4,161900
9,966833	0,5	3,821350
9,975167	0,5	3,499950
9,983500	0,5	3,217100
9,991833	0,5	2,965250
10,000167	0,5	2,752250
10,008500	0,5	2,576900
10,016833	0,5	2,433650
10,025167	0,5	2,322250
10,033500	0,5	2,239750
10,041833	0,5	2,179900
10,050167	0,5	2,136350
10,058500	0,5	2,118550
10,066833	0,5	2,119200
10,075167	0,5	2,137950
10,083500	0,5	2,181200
10,091833	0,5	2,181750
10,100167	0,5	2,279950
10,108500	0,5	2,314300
10,116833	0,5	2,317250
10,125167	0,5	2,307250
10,133500	0,5	2,283300
10,141833	0,5	2,255500
10,150167	0,5	2,234500
10,158500	0,5	2,222150
10,166833	0,5	2,215000
10,175167	0,5	2,220450
10,183500	0,5	2,239150
10,191833	0,5	2,263950
10,200167	0,5	2,293850
10,208500	0,5	2,334850
10,216833	0,5	2,370200
10,225167	0,5	2,394750
10,233500	0,5	2,412600
10,241833	0,5	2,424050
10,250167	0,5	2,438150
10,258500	0,5	2,450650
10,266833	0,5	2,466100
10,275167	0,5	2,488450
10,283500	0,5	2,528150
10,291833	0,5	2,585300
10,300167	0,5	2,674700
10,308500	0,5	2,787650
10,316833	0,5	2,899400
10,325167	0,5	2,994900
10,333500	0,5	3,054200
10,341833	0,5	3,064400
10,350167	0,5	3,044650
10,358500	0,5	3,022700
10,366833	0,5	3,033400
10,375167	0,5	3,074400
10,383500	0,5	3,110750
10,391833	0,5	3,129000
10,400167	0,5	3,157050
10,408500	0,5	3,209700
10,416833	0,5	3,293400
10,425167	0,5	3,454800
10,433500	0,5	3,714350
10,441833	0,5	4,196200
10,450167	0,5	5,307600
10,458500	0,5	6,818250
10,466833	0,5	8,027400
10,475167	0,5	8,609100
10,483500	0,5	8,575350
10,491833	0,5	7,578850
10,500167	0,5	5,538050
10,508500	0,5	3,493300
10,516833	0,5	2,237000
10,525167	0,5	1,593750
10,533500	0,5	1,246550
10,541833	0,5	1,044550
10,550167	0,5	0,922150
10,558500	0,5	0,836550
10,566833	0,5	0,781600
10,575167	0,5	0,734600
10,583500	0,5	0,694750
10,591833	0,5	0,655000
10,600167	0,5	0,617050
10,608500	0,5	0,576450
10,616833	0,5	0,539950
10,625167	0,5	0,501100
10,633500	0,5	0,470250
10,641833	0,5	0,439900
10,650167	0,5	0,416250
10,658500	0,5	0,389950
10,666833	0,5	0,367000
10,675167	0,5	0,349300
10,683500	0,5	0,335000
10,691833	0,5	0,321200
10,700167	0,5	0,314350
10,708500	0,5	0,310050
10,716833	0,5	0,306950
10,725167	0,5	0,305400
10,733500	0,5	0,302200
10,741833	0,5	0,299300
10,750167	0,5	0,295100
10,758500	0,5	0,280850
10,766833	0,5	0,268250
10,775167	0,5	0,249700
10,783500	0,5	0,225550
10,791833	0,5	0,205600
10,800167	0,5	0,185050
10,808500	0,5	0,161450
10,816833	0,5	0,139400
10,825167	0,5	0,114700
10,833500	0,5	0,096100
10,841833	0,5	0,080700
10,850167	0,5	0,066200
10,858500	0,5	0,053050
10,866833	0,5	0,039300
10,875167	0,5	0,026500
10,883500	0,5	0,017000
10,891833	0,5	0,005400
10,900167	0,5	-0,005450
10,908500	0,5	-0,011800
10,916833	0,5	-0,023850
10,925167	0,5	-0,028550
10,933500	0,5	-0,038300
10,941833	0,5	-0,044850
10,950167	0,5	-0,049100
10,958500	0,5	-0,057250
10,966833	0,5	-0,062250
10,975167	0,5	-0,072250
10,983500	0,5	-0,072350
10,991833	0,5	-0,076000
11,000167	0,5	-0,076600
11,008500	0,5	-0,077300
11,016833	0,5	-0,077950
11,025167	0,5	-0,080650
11,033500	0,5	-0,075750
11,041833	0,5	-0,076850
11,050167	0,5	-0,076700
11,058500	0,5	-0,073750
11,066833	0,5	-0,072500
11,075167	0,5	-0,069900
11,083500	0,5	-0,072300
11,091833	0,5	-0,063800
11,100167	0,5	-0,063650
11,108500	0,5	-0,062000
11,116833	0,5	-0,066300
11,125167	0,5	-0,066600
11,133500	0,5	-0,066450
11,141833	0,5	-0,065800
11,150167	0,5	-0,067800
11,158500	0,5	-0,065900
11,166833	0,5	-0,068900
11,175167	0,5	-0,063900
11,183500	0,5	-0,064150
11,191833	0,5	-0,066200
11,200167	0,5	-0,063600
11,208500	0,5	-0,056900
11,216833	0,5	-0,054950
11,225167	0,5	-0,048650
11,233500	0,5	-0,048600
11,241833	0,5	-0,036750
11,250167	0,5	-0,034600
11,258500	0,5	-0,027950
11,266833	0,5	-0,021900
11,275167	0,5	-0,017350
11,283500	0,5	-0,007650
11,291833	0,5	-0,003500
11,300167	0,5	0,003200
11,308500	0,5	0,010150
11,316833	0,5	0,014650
11,325167	0,5	0,020300
11,333500	0,5	0,022350
11,341833	0,5	0,023600
11,350167	0,5	0,025000
11,358500	0,5	0,026100
11,366833	0,5	0,028750
11,375167	0,5	0,018650
11,383500	0,5	0,023000
11,391833	0,5	0,021000
11,400167	0,5	0,018600
11,408500	0,5	0,011350
11,416833	0,5	0,007350
11,425167	0,5	0,000000
11,433500	0,5	-0,001600
11,441833	0,5	-0,006800
11,450167	0,5	-0,007800
11,458500	0,5	-0,018250
11,466833	0,5	-0,020900
11,475167	0,5	-0,024400
11,483500	0,5	-0,030400
11,491833	0,5	-0,036000
11,500167	0,5	-0,039750
11,508500	0,5	-0,042850
11,516833	0,5	-0,050950
11,525167	0,5	-0,058950
11,533500	0,5	-0,059900
11,541833	0,5	-0,060750
11,550167	0,5	-0,065300
11,558500	0,5	-0,071050
11,566833	0,5	-0,078650
11,575167	0,5	-0,079650
11,583500	0,5	-0,079400
11,591833	0,5	-0,079950
11,600167	0,5	-0,079350
11,608500	0,5	-0,076600
11,616833	0,5	-0,075300
11,625167	0,5	-0,074800
11,633500	0,5	-0,071800
11,641833	0,5	-0,070800
11,650167	0,5	-0,066600
11,658500	0,5	-0,063550
11,666833	0,5	-0,064800
11,675167	0,5	-0,063750
11,683500	0,5	-0,055300
11,691833	0,5	-0,054600
11,700167	0,5	-0,049300
11,708500	0,5	-0,048450
11,716833	0,5	-0,046600
11,725167	0,5	-0,038550
11,733500	0,5	-0,029100
11,741833	0,5	-0,026150
11,750167	0,5	-0,019700
11,758500	0,5	-0,017750
11,766833	0,5	-0,013950
11,775167	0,5	-0,011050
11,783500	0,5	-0,011200
11,791833	0,5	-0,010250
11,800167	0,5	-0,009550
11,808500	0,5	-0,009750
11,816833	0,5	-0,011350
11,825167	0,5	-0,009900
11,833500	0,5	-0,008600
11,841833	0,5	-0,011050
11,850167	0,5	-0,015400
11,858500	0,5	-0,020700
11,866833	0,5	-0,022100
11,875167	0,5	-0,021300
11,883500	0,5	-0,022900
11,891833	0,5	-0,017000
11,900167	0,5	-0,018000
11,908500	0,5	-0,018850
11,916833	0,5	-0,016250
11,925167	0,5	-0,012600
11,933500	0,5	-0,011450
11,941833	0,5	-0,005600
11,950167	0,5	-0,005550
11,958500	0,5	-0,000550
11,966833	0,5	-0,003500
11,975167	0,5	0,006950
11,983500	0,5	0,006850
11,991833	0,5	0,012900
12,000167	0,5	0,008950
12,008500	0,5	0,006900
12,016833	0,5	0,014600
12,025167	0,5	0,020800
12,033500	0,5	0,027200
12,041833	0,5	0,030200
12,050167	0,5	0,039250
12,058500	0,5	0,047950
12,066833	0,5	0,058450
12,075167	0,5	0,070650
12,083500	0,5	0,082850
12,091833	0,5	0,103700
12,100167	0,5	0,127450
12,108500	0,5	0,141800
12,116833	0,5	0,159200
12,125167	0,5	0,184400
12,133500	0,5	0,200300
12,141833	0,5	0,209300
12,150167	0,5	0,219500
12,158500	0,5	0,220900
12,166833	0,5	0,226250
12,175167	0,5	0,219350
12,183500	0,5	0,212800
12,191833	0,5	0,206400
12,200167	0,5	0,198650
12,208500	0,5	0,189900
12,216833	0,5	0,182550
12,225167	0,5	0,176150
12,233500	0,5	0,169100
12,241833	0,5	0,164550
12,250167	0,5	0,160150
12,258500	0,5	0,158200
12,266833	0,5	0,155950
12,275167	0,5	0,158300
12,283500	0,5	0,159900
12,291833	0,5	0,160150
12,300167	0,5	0,160150
12,308500	0,5	0,165500
12,316833	0,5	0,174200
12,325167	0,5	0,181800
12,333500	0,5	0,189300
12,341833	0,5	0,197850
12,350167	0,5	0,208600
12,358500	0,5	0,221250
12,366833	0,5	0,230250
12,375167	0,5	0,235950
12,383500	0,5	0,247400
12,391833	0,5	0,255700
12,400167	0,5	0,267600
12,408500	0,5	0,269750
12,416833	0,5	0,279250
12,425167	0,5	0,284050
12,433500	0,5	0,292100
12,441833	0,5	0,294000
12,450167	0,5	0,297650
12,458500	0,5	0,304850
12,466833	0,5	0,315550
12,475167	0,5	0,321100
12,483500	0,5	0,331700
12,491833	0,5	0,347600
12,500167	0,5	0,366100
12,508500	0,5	0,387100
12,516833	0,5	0,406950
12,525167	0,5	0,427650
12,533500	0,5	0,443700
12,541833	0,5	0,457900
12,550167	0,5	0,459000
12,558500	0,5	0,456000
12,566833	0,5	0,455950
12,575167	0,5	0,452600
12,583500	0,5	0,446900
12,591833	0,5	0,443750
12,600167	0,5	0,438800
12,608500	0,5	0,444850
12,616833	0,5	0,449000
12,625167	0,5	0,458500
12,633500	0,5	0,464600
12,641833	0,5	0,475400
12,650167	0,5	0,486450
12,658500	0,5	0,495700
12,666833	0,5	0,509600
12,675167	0,5	0,514700
12,683500	0,5	0,530450
12,691833	0,5	0,545350
12,700167	0,5	0,555500
12,708500	0,5	0,568150
12,716833	0,5	0,580550
12,725167	0,5	0,583650
12,733500	0,5	0,587300
12,741833	0,5	0,588650
12,750167	0,5	0,593300
12,758500	0,5	0,602950
12,766833	0,5	0,618200
12,775167	0,5	0,628400
12,783500	0,5	0,645750
12,791833	0,5	0,659100
12,800167	0,5	0,667450
12,808500	0,5	0,668700
12,816833	0,5	0,667150
12,825167	0,5	0,659200
12,833500	0,5	0,654500
12,841833	0,5	0,648300
12,850167	0,5	0,634000
12,858500	0,5	0,634300
12,866833	0,5	0,633100
12,875167	0,5	0,626700
12,883500	0,5	0,623300
12,891833	0,5	0,620400
12,900167	0,5	0,617850
12,908500	0,5	0,626050
12,916833	0,5	0,627500
12,925167	0,5	0,635200
12,933500	0,5	0,633250
12,941833	0,5	0,640450
12,950167	0,5	0,640300
12,958500	0,5	0,647550
12,966833	0,5	0,646300
12,975167	0,5	0,646700
12,983500	0,5	0,653050
12,991833	0,5	0,660850
13,000167	0,5	0,659750
13,008500	0,5	0,674600
13,016833	0,5	0,679000
13,025167	0,5	0,682700
13,033500	0,5	0,674550
13,041833	0,5	0,669550
13,050167	0,5	0,669950
13,058500	0,5	0,667450
13,066833	0,5	0,665300
13,075167	0,5	0,656700
13,083500	0,5	0,654250
13,091833	0,5	0,655750
13,100167	0,5	0,656250
13,108500	0,5	0,657400
13,116833	0,5	0,655900
13,125167	0,5	0,656200
13,133500	0,5	0,655600
13,141833	0,5	0,652800
13,150167	0,5	0,654900
13,158500	0,5	0,661750
13,166833	0,5	0,662950
13,175167	0,5	0,663550
13,183500	0,5	0,656300
13,191833	0,5	0,659000
13,200167	0,5	0,661950
13,208500	0,5	0,664000
13,216833	0,5	0,665250
13,225167	0,5	0,665900
13,233500	0,5	0,666050
13,241833	0,5	0,672850
13,250167	0,5	0,670450
13,258500	0,5	0,679200
13,266833	0,5	0,681950
13,275167	0,5	0,682950
13,283500	0,5	0,680700
13,291833	0,5	0,678400
13,300167	0,5	0,684650
13,308500	0,5	0,689200
13,316833	0,5	0,689400
13,325167	0,5	0,688900
13,333500	0,5	0,680800
13,341833	0,5	0,683800
13,350167	0,5	0,684850
13,358500	0,5	0,686750
13,366833	0,5	0,687750
13,375167	0,5	0,693300
13,383500	0,5	0,697600
13,391833	0,5	0,702900
13,400167	0,5	0,710850
13,408500	0,5	0,714650
13,416833	0,5	0,717250
13,425167	0,5	0,725500
13,433500	0,5	0,730500
13,441833	0,5	0,725450
13,450167	0,5	0,732900
13,458500	0,5	0,733150
13,466833	0,5	0,733850
13,475167	0,5	0,723150
13,483500	0,5	0,713100
13,491833	0,5	0,710550
13,500167	0,5	0,715700
13,508500	0,5	0,717800
13,516833	0,5	0,722650
13,525167	0,5	0,729600
13,533500	0,5	0,737800
13,541833	0,5	0,748650
13,550167	0,5	0,747950
13,558500	0,5	0,743400
13,566833	0,5	0,738850
13,575167	0,5	0,733050
13,583500	0,5	0,717000
13,591833	0,5	0,702650
13,600167	0,5	0,701550
13,608500	0,5	0,694450
13,616833	0,5	0,691550
13,625167	0,5	0,683250
13,633500	0,5	0,673950
13,641833	0,5	0,675000
13,650167	0,5	0,667400
13,658500	0,5	0,663800
13,666833	0,5	0,655500
13,675167	0,5	0,652400
13,683500	0,5	0,651100
13,691833	0,5	0,657300
13,700167	0,5	0,679250
13,708500	0,5	0,698200
13,716833	0,5	0,726150
13,725167	0,5	0,742100
13,733500	0,5	0,739500
13,741833	0,5	0,735700
13,750167	0,5	0,719000
13,758500	0,5	0,698400
13,766833	0,5	0,683150
13,775167	0,5	0,664600
13,783500	0,5	0,664100
13,791833	0,5	0,666700
13,800167	0,5	0,685300
13,808500	0,5	0,698650
13,816833	0,5	0,711800
13,825167	0,5	0,717050
13,833500	0,5	0,726950
13,841833	0,5	0,731950
13,850167	0,5	0,746500
13,858500	0,5	0,770550
13,866833	0,5	0,804500
13,875167	0,5	0,840900
13,883500	0,5	0,867100
13,891833	0,5	0,878200
13,900167	0,5	0,870650
13,908500	0,5	0,831350
13,916833	0,5	0,784500
13,925167	0,5	0,732700
13,933500	0,5	0,695250
13,941833	0,5	0,672500
13,950167	0,5	0,657100
13,958500	0,5	0,668450
13,966833	0,5	0,682350
13,975167	0,5	0,711300
13,983500	0,5	0,735350
13,991833	0,5	0,768500
14,000167	0,5	0,798900
14,008500	0,5	0,837400
14,016833	0,5	0,871650
14,025167	0,5	0,893850
14,033500	0,5	0,897450
14,041833	0,5	0,888700
14,050167	0,5	0,847950
14,058500	0,5	0,792800
14,066833	0,5	0,732200
14,075167	0,5	0,679700
14,083500	0,5	0,654500
14,091833	0,5	0,635850
14,100167	0,5	0,640200
14,108500	0,5	0,662150
14,116833	0,5	0,699500
14,125167	0,5	0,737300
14,133500	0,5	0,781000
14,141833	0,5	0,808500
14,150167	0,5	0,828800
14,158500	0,5	0,824000
14,166833	0,5	0,814750
14,175167	0,5	0,769500
14,183500	0,5	0,733200
14,191833	0,5	0,690450
14,200167	0,5	0,645900
14,208500	0,5	0,612300
14,216833	0,5	0,584350
14,225167	0,5	0,581800
14,233500	0,5	0,595000
14,241833	0,5	0,614450
14,250167	0,5	0,639450
14,258500	0,5	0,663650
14,266833	0,5	0,684450
14,275167	0,5	0,696150
14,283500	0,5	0,683600
14,291833	0,5	0,665550
14,300167	0,5	0,631650
14,308500	0,5	0,607100
14,316833	0,5	0,579350
14,325167	0,5	0,557350
14,333500	0,5	0,560450
14,341833	0,5	0,575900
14,350167	0,5	0,596000
14,358500	0,5	0,624700
14,366833	0,5	0,649000
14,375167	0,5	0,682550
14,383500	0,5	0,696750
14,391833	0,5	0,695750
14,400167	0,5	0,681350
14,408500	0,5	0,657700
14,416833	0,5	0,629700
14,425167	0,5	0,594400
14,433500	0,5	0,569650
14,441833	0,5	0,546750
14,450167	0,5	0,536550
14,458500	0,5	0,532400
14,466833	0,5	0,533100
14,475167	0,5	0,529650
14,483500	0,5	0,537450
14,491833	0,5	0,525550
14,500167	0,5	0,510700
14,508500	0,5	0,488900
14,516833	0,5	0,470200
14,525167	0,5	0,461050
14,533500	0,5	0,452300
14,541833	0,5	0,439550
14,550167	0,5	0,434700
14,558500	0,5	0,430650
14,566833	0,5	0,429400
14,575167	0,5	0,425350
14,583500	0,5	0,426450
14,591833	0,5	0,426400
14,600167	0,5	0,420550
14,608500	0,5	0,420650
14,616833	0,5	0,412600
14,625167	0,5	0,408650
14,633500	0,5	0,413800
14,641833	0,5	0,400800
14,650167	0,5	0,388650
14,658500	0,5	0,380950
14,666833	0,5	0,373300
14,675167	0,5	0,376300
14,683500	0,5	0,373450
14,691833	0,5	0,376600
14,700167	0,5	0,377200
14,708500	0,5	0,386450
14,716833	0,5	0,388900
14,725167	0,5	0,394650
14,733500	0,5	0,392250
14,741833	0,5	0,389650
14,750167	0,5	0,385850
14,758500	0,5	0,377800
14,766833	0,5	0,366600
14,775167	0,5	0,363000
14,783500	0,5	0,362350
14,791833	0,5	0,355150
14,800167	0,5	0,347250
14,808500	0,5	0,344200
14,816833	0,5	0,349700
14,825167	0,5	0,349650
14,833500	0,5	0,354250
14,841833	0,5	0,348650
14,850167	0,5	0,343300
14,858500	0,5	0,331200
14,866833	0,5	0,328800
14,875167	0,5	0,323800
14,883500	0,5	0,320600
14,891833	0,5	0,321550
14,900167	0,5	0,325800
14,908500	0,5	0,326200
14,916833	0,5	0,330050
14,925167	0,5	0,336750
14,933500	0,5	0,335450
14,941833	0,5	0,330050
14,950167	0,5	0,317900
14,958500	0,5	0,309400
14,966833	0,5	0,304850
14,975167	0,5	0,305350
14,983500	0,5	0,302300
14,991833	0,5	0,307550
15,000167	0,5	0,305400
15,008500	0,5	0,310850
15,016833	0,5	0,311600
15,025167	0,5	0,317500
15,033500	0,5	0,313300
15,041833	0,5	0,317550
15,050167	0,5	0,320500
15,058500	0,5	0,312300
15,066833	0,5	0,314350
15,075167	0,5	0,316250
15,083500	0,5	0,314400
15,091833	0,5	0,306050
15,100167	0,5	0,285800
15,108500	0,5	0,278700
15,116833	0,5	0,283900
15,125167	0,5	0,273800
15,133500	0,5	0,270250
15,141833	0,5	0,261400
15,150167	0,5	0,261150
15,158500	0,5	0,256700
15,166833	0,5	0,257750
15,175167	0,5	0,252850
15,183500	0,5	0,257500
15,191833	0,5	0,255450
15,200167	0,5	0,256150
15,208500	0,5	0,237700
15,216833	0,5	0,249150
15,225167	0,5	0,247400
15,233500	0,5	0,246750
15,241833	0,5	0,237800
15,250167	0,5	0,226550
15,258500	0,5	0,230700
15,266833	0,5	0,235100
15,275167	0,5	0,235000
15,283500	0,5	0,231250
15,291833	0,5	0,231950
15,300167	0,5	0,227600
15,308500	0,5	0,228950
15,316833	0,5	0,230150
15,325167	0,5	0,231250
15,333500	0,5	0,232600
15,341833	0,5	0,242750
15,350167	0,5	0,246050
15,358500	0,5	0,243600
15,366833	0,5	0,257300
15,375167	0,5	0,260550
15,383500	0,5	0,257050
15,391833	0,5	0,256250
15,400167	0,5	0,253400
15,408500	0,5	0,258900
15,416833	0,5	0,268100
15,425167	0,5	0,274000
15,433500	0,5	0,277700
15,441833	0,5	0,281700
15,450167	0,5	0,283750
15,458500	0,5	0,284600
15,466833	0,5	0,287550
15,475167	0,5	0,287900
15,483500	0,5	0,299150
15,491833	0,5	0,298350
15,500167	0,5	0,301850
15,508500	0,5	0,302050
15,516833	0,5	0,318000
15,525167	0,5	0,320700
15,533500	0,5	0,326750
15,541833	0,5	0,327300
15,550167	0,5	0,331400
15,558500	0,5	0,348450
15,566833	0,5	0,357700
15,575167	0,5	0,362050
15,583500	0,5	0,363650
15,591833	0,5	0,363400
15,600167	0,5	0,363700
15,608500	0,5	0,364300
15,616833	0,5	0,366200
15,625167	0,5	0,370000
15,633500	0,5	0,367800
15,641833	0,5	0,362850
15,650167	0,5	0,343650
15,658500	0,5	0,329950
15,666833	0,5	0,307000
15,675167	0,5	0,286300
15,683500	0,5	0,261800
15,691833	0,5	0,242150
15,700167	0,5	0,224800
15,708500	0,5	0,215550
15,716833	0,5	0,209550
15,725167	0,5	0,211200
15,733500	0,5	0,208900
15,741833	0,5	0,212450
15,750167	0,5	0,213750
15,758500	0,5	0,212950
15,766833	0,5	0,213450
15,775167	0,5	0,209750
15,783500	0,5	0,219050
15,791833	0,5	0,215150
15,800167	0,5	0,211250
15,808500	0,5	0,219700
15,816833	0,5	0,225000
15,825167	0,5	0,228150
15,833500	0,5	0,224750
15,841833	0,5	0,228450
15,850167	0,5	0,234600
15,858500	0,5	0,236750
15,866833	0,5	0,247100
15,875167	0,5	0,246200
15,883500	0,5	0,248650
15,891833	0,5	0,251800
15,900167	0,5	0,254400
15,908500	0,5	0,249550
15,916833	0,5	0,247750
15,925167	0,5	0,256150
15,933500	0,5	0,254700
15,941833	0,5	0,242200
15,950167	0,5	0,245500
15,958500	0,5	0,245700
15,966833	0,5	0,243900
15,975167	0,5	0,238300
15,983500	0,5	0,225950
15,991833	0,5	0,229350
16,000167	0,5	0,230050
16,008500	0,5	0,239350
16,016833	0,5	0,242750
16,025167	0,5	0,254500
16,033500	0,5	0,268400
16,041833	0,5	0,282900
16,050167	0,5	0,290200
16,058500	0,5	0,292650
16,066833	0,5	0,290700
16,075167	0,5	0,278550
16,083500	0,5	0,270100
16,091833	0,5	0,244100
16,100167	0,5	0,239400
16,108500	0,5	0,226700
16,116833	0,5	0,208750
16,125167	0,5	0,200600
16,133500	0,5	0,185300
16,141833	0,5	0,183800
16,150167	0,5	0,189900
16,158500	0,5	0,185100
16,166833	0,5	0,190250
16,175167	0,5	0,190150
16,183500	0,5	0,195350
16,191833	0,5	0,200800
16,200167	0,5	0,213750
16,208500	0,5	0,217800
16,216833	0,5	0,222500
16,225167	0,5	0,234850
16,233500	0,5	0,247050
16,241833	0,5	0,244150
16,250167	0,5	0,262300
16,258500	0,5	0,270500
16,266833	0,5	0,284100
16,275167	0,5	0,306300
16,283500	0,5	0,328500
16,291833	0,5	0,373700
16,300167	0,5	0,404400
16,308500	0,5	0,429800
16,316833	0,5	0,443150
16,325167	0,5	0,452100
16,333500	0,5	0,444650
16,341833	0,5	0,439600
16,350167	0,5	0,422400
16,358500	0,5	0,408450
16,366833	0,5	0,390400
16,375167	0,5	0,380900
16,383500	0,5	0,353750
16,391833	0,5	0,349800
16,400167	0,5	0,341450
16,408500	0,5	0,331550
16,416833	0,5	0,315050
16,425167	0,5	0,303400
16,433500	0,5	0,296350
16,441833	0,5	0,292350
16,450167	0,5	0,297000
16,458500	0,5	0,292250
16,466833	0,5	0,289950
16,475167	0,5	0,287750
16,483500	0,5	0,287550
16,491833	0,5	0,282500
16,500167	0,5	0,278950
16,508500	0,5	0,270950
16,516833	0,5	0,269300
16,525167	0,5	0,265400
16,533500	0,5	0,261350
16,541833	0,5	0,264300
16,550167	0,5	0,262850
16,558500	0,5	0,260200
16,566833	0,5	0,259100
16,575167	0,5	0,247050
16,583500	0,5	0,252350
16,591833	0,5	0,257400
16,600167	0,5	0,265700
16,608500	0,5	0,272450
16,616833	0,5	0,272450
16,625167	0,5	0,276100
16,633500	0,5	0,280600
16,641833	0,5	0,286850
16,650167	0,5	0,279750
16,658500	0,5	0,283500
16,666833	0,5	0,285550
16,675167	0,5	0,281500
16,683500	0,5	0,284600
16,691833	0,5	0,299300
16,700167	0,5	0,305350
16,708500	0,5	0,310800
16,716833	0,5	0,301850
16,725167	0,5	0,306800
16,733500	0,5	0,314050
16,741833	0,5	0,325450
16,750167	0,5	0,334650
16,758500	0,5	0,349200
16,766833	0,5	0,363100
16,775167	0,5	0,381850
16,783500	0,5	0,400800
16,791833	0,5	0,416800
16,800167	0,5	0,428900
16,808500	0,5	0,434050
16,816833	0,5	0,429750
16,825167	0,5	0,405550
16,833500	0,5	0,410200
16,841833	0,5	0,407100
16,850167	0,5	0,406100
16,858500	0,5	0,414250
16,866833	0,5	0,430700
16,875167	0,5	0,464450
16,883500	0,5	0,508350
16,891833	0,5	0,540350
16,900167	0,5	0,567250
16,908500	0,5	0,571600
16,916833	0,5	0,557650
16,925167	0,5	0,529300
16,933500	0,5	0,494650
16,941833	0,5	0,446000
16,950167	0,5	0,400850
16,958500	0,5	0,363600
16,966833	0,5	0,330850
16,975167	0,5	0,286050
16,983500	0,5	0,274350
16,991833	0,5	0,251900
17,000167	0,5	0,231250
17,008500	0,5	0,220650
17,016833	0,5	0,195500
17,025167	0,5	0,196450
17,033500	0,5	0,191750
17,041833	0,5	0,191550
17,050167	0,5	0,181650
17,058500	0,5	0,183550
17,066833	0,5	0,176450
17,075167	0,5	0,171000
17,083500	0,5	0,163750
17,091833	0,5	0,154550
17,100167	0,5	0,146650
17,108500	0,5	0,144800
17,116833	0,5	0,131250
17,125167	0,5	0,120500
17,133500	0,5	0,128100
17,141833	0,5	0,119600
17,150167	0,5	0,109000
17,158500	0,5	0,101300
17,166833	0,5	0,089100
17,175167	0,5	0,087450
17,183500	0,5	0,088600
17,191833	0,5	0,083400
17,200167	0,5	0,083150
17,208500	0,5	0,076150
17,216833	0,5	0,076300
17,225167	0,5	0,065500
17,233500	0,5	0,069350
17,241833	0,5	0,059200
17,250167	0,5	0,054350
17,258500	0,5	0,060100
17,266833	0,5	0,049350
17,275167	0,5	0,052200
17,283500	0,5	0,052750
17,291833	0,5	0,047150
17,300167	0,5	0,039750
17,308500	0,5	0,025250
17,316833	0,5	0,018000
17,325167	0,5	0,022600
17,333500	0,5	0,015850
17,341833	0,5	0,013100
17,350167	0,5	0,010600
17,358500	0,5	0,011400
17,366833	0,5	0,008450
17,375167	0,5	0,010550
17,383500	0,5	0,004700
17,391833	0,5	0,006300
17,400167	0,5	0,005000
17,408500	0,5	0,004150
17,416833	0,5	-0,006550
17,425167	0,5	-0,001000
17,433500	0,5	-0,002550
17,441833	0,5	0,000500
17,450167	0,5	-0,011200
17,458500	0,5	-0,024000
17,466833	0,5	-0,024800
17,475167	0,5	-0,027150
17,483500	0,5	-0,025350
17,491833	0,5	-0,027300
17,500167	0,5	-0,025450
17,508500	0,5	-0,029600
17,516833	0,5	-0,026950
17,525167	0,5	-0,039550
17,533500	0,5	-0,038100
17,541833	0,5	-0,042700
17,550167	0,5	-0,040650
17,558500	0,5	-0,047000
17,566833	0,5	-0,053050
17,575167	0,5	-0,050850
17,583500	0,5	-0,050550
17,591833	0,5	-0,056950
17,600167	0,5	-0,066500
17,608500	0,5	-0,075600
17,616833	0,5	-0,075850
17,625167	0,5	-0,077950
17,633500	0,5	-0,074500
17,641833	0,5	-0,072100
17,650167	0,5	-0,075800
17,658500	0,5	-0,072000
17,666833	0,5	-0,076550
17,675167	0,5	-0,075350
17,683500	0,5	-0,073200
17,691833	0,5	-0,067950
17,700167	0,5	-0,065900
17,708500	0,5	-0,071350
17,716833	0,5	-0,064100
17,725167	0,5	-0,058700
17,733500	0,5	-0,058550
17,741833	0,5	-0,054600
17,750167	0,5	-0,065200
17,758500	0,5	-0,056700
17,766833	0,5	-0,054250
17,775167	0,5	-0,046300
17,783500	0,5	-0,034600
17,791833	0,5	-0,029900
17,800167	0,5	-0,017000
17,808500	0,5	-0,008700
17,816833	0,5	0,002100
17,825167	0,5	-0,000800
17,833500	0,5	0,011600
17,841833	0,5	0,025050
17,850167	0,5	0,034050
17,858500	0,5	0,030950
17,866833	0,5	0,046800
17,875167	0,5	0,055000
17,883500	0,5	0,056950
17,891833	0,5	0,051150
17,900167	0,5	0,047050
17,908500	0,5	0,052950
17,916833	0,5	0,054050
17,925167	0,5	0,051450
17,933500	0,5	0,051700
17,941833	0,5	0,048050
17,950167	0,5	0,047350
17,958500	0,5	0,047550
17,966833	0,5	0,047000
17,975167	0,5	0,043450
17,983500	0,5	0,042550
17,991833	0,5	0,046250
18,000167	0,5	0,037600
18,008500	0,5	0,037800
18,016833	0,5	0,036900
18,025167	0,5	0,031700
18,033500	0,5	0,019400
18,041833	0,5	0,008250
18,050167	0,5	-0,002100
18,058500	0,5	-0,001200
18,066833	0,5	-0,014900
18,075167	0,5	-0,025100
18,083500	0,5	-0,034450
18,091833	0,5	-0,040800
18,100167	0,5	-0,051400
18,108500	0,5	-0,055950
18,116833	0,5	-0,062850
18,125167	0,5	-0,079100
18,133500	0,5	-0,079500
18,141833	0,5	-0,081300
18,150167	0,5	-0,101900
18,158500	0,5	-0,097750
18,166833	0,5	-0,095400
18,175167	0,5	-0,103300
18,183500	0,5	-0,110400
18,191833	0,5	-0,133300
18,200167	0,5	-0,128300
18,208500	0,5	-0,133200
18,216833	0,5	-0,131150
18,225167	0,5	-0,142800
18,233500	0,5	-0,145400
18,241833	0,5	-0,145150
18,250167	0,5	-0,145750
18,258500	0,5	-0,144100
18,266833	0,5	-0,150000
18,275167	0,5	-0,151250
18,283500	0,5	-0,155650
18,291833	0,5	-0,156950
18,300167	0,5	-0,167550
18,308500	0,5	-0,152500
18,316833	0,5	-0,155400
18,325167	0,5	-0,163250
18,333500	0,5	-0,170150
18,341833	0,5	-0,173000
18,350167	0,5	-0,169050
18,358500	0,5	-0,162500
18,366833	0,5	-0,167700
18,375167	0,5	-0,166200
18,383500	0,5	-0,169400
18,391833	0,5	-0,166250
18,400167	0,5	-0,165000
18,408500	0,5	-0,158750
18,416833	0,5	-0,160000
18,425167	0,5	-0,161650
18,433500	0,5	-0,162050
18,441833	0,5	-0,162800
18,450167	0,5	-0,166500
18,458500	0,5	-0,155100
18,466833	0,5	-0,159350
18,475167	0,5	-0,159650
18,483500	0,5	-0,163700
18,491833	0,5	-0,179300
18,500167	0,5	-0,169950
18,508500	0,5	-0,171000
18,516833	0,5	-0,168550
18,525167	0,5	-0,175800
18,533500	0,5	-0,174350
18,541833	0,5	-0,171800
18,550167	0,5	-0,168050
18,558500	0,5	-0,171000
18,566833	0,5	-0,167750
18,575167	0,5	-0,157550
18,583500	0,5	-0,157150
18,591833	0,5	-0,162100
18,600167	0,5	-0,152200
18,608500	0,5	-0,139950
18,616833	0,5	-0,142150
18,625167	0,5	-0,144750
18,633500	0,5	-0,151600
18,641833	0,5	-0,141900
18,650167	0,5	-0,141650
18,658500	0,5	-0,127250
18,666833	0,5	-0,127950
18,675167	0,5	-0,126000
18,683500	0,5	-0,134200
18,691833	0,5	-0,135050
18,700167	0,5	-0,146250
18,708500	0,5	-0,150000
18,716833	0,5	-0,160300
18,725167	0,5	-0,162550
18,733500	0,5	-0,178800
18,741833	0,5	-0,185900
18,750167	0,5	-0,184500
18,758500	0,5	-0,186500
18,766833	0,5	-0,192100
18,775167	0,5	-0,203400
18,783500	0,5	-0,214900
18,791833	0,5	-0,215500
18,800167	0,5	-0,215950
18,808500	0,5	-0,218150
18,816833	0,5	-0,219400
18,825167	0,5	-0,223150
18,833500	0,5	-0,224450
18,841833	0,5	-0,228750
18,850167	0,5	-0,225750
18,858500	0,5	-0,233150
18,866833	0,5	-0,231800
18,875167	0,5	-0,229800
18,883500	0,5	-0,242950
18,891833	0,5	-0,240900
18,900167	0,5	-0,231450
18,908500	0,5	-0,236400
18,916833	0,5	-0,240650
18,925167	0,5	-0,261050
18,933500	0,5	-0,257400
18,941833	0,5	-0,250450
18,950167	0,5	-0,251050
18,958500	0,5	-0,253800
18,966833	0,5	-0,253350
18,975167	0,5	-0,257450
18,983500	0,5	-0,260450
18,991833	0,5	-0,259700
19,000167	0,5	-0,260900
19,008500	0,5	-0,257100
19,016833	0,5	-0,248000
19,025167	0,5	-0,241050
19,033500	0,5	-0,263250
19,041833	0,5	-0,243250
19,050167	0,5	-0,246950
19,058500	0,5	-0,252900
19,066833	0,5	-0,258450
19,075167	0,5	-0,276750
19,083500	0,5	-0,270350
19,091833	0,5	-0,271650
19,100167	0,5	-0,274400
19,108500	0,5	-0,274850
19,116833	0,5	-0,279050
19,125167	0,5	-0,277300
19,133500	0,5	-0,279050
19,141833	0,5	-0,279500
19,150167	0,5	-0,275550
19,158500	0,5	-0,277600
19,166833	0,5	-0,266500
19,175167	0,5	-0,272750
19,183500	0,5	-0,276400
19,191833	0,5	-0,272700
19,200167	0,5	-0,274350
19,208500	0,5	-0,279650
19,216833	0,5	-0,290350
19,225167	0,5	-0,296050
19,233500	0,5	-0,295800
19,241833	0,5	-0,291600
19,250167	0,5	-0,289050
19,258500	0,5	-0,287050
19,266833	0,5	-0,282750
19,275167	0,5	-0,283400
19,283500	0,5	-0,281050
19,291833	0,5	-0,275550
19,300167	0,5	-0,277200
19,308500	0,5	-0,263350
19,316833	0,5	-0,258200
19,325167	0,5	-0,253750
19,333500	0,5	-0,245600
19,341833	0,5	-0,231050
19,350167	0,5	-0,222050
19,358500	0,5	-0,217050
19,366833	0,5	-0,228250
19,375167	0,5	-0,223900
19,383500	0,5	-0,223100
19,391833	0,5	-0,218750
19,400167	0,5	-0,215600
19,408500	0,5	-0,207400
19,416833	0,5	-0,201500
19,425167	0,5	-0,189400
19,433500	0,5	-0,182050
19,441833	0,5	-0,173850
19,450167	0,5	-0,158050
19,458500	0,5	-0,155850
19,466833	0,5	-0,157750
19,475167	0,5	-0,174000
19,483500	0,5	-0,171550
19,491833	0,5	-0,185300
19,500167	0,5	-0,192200
19,508500	0,5	-0,204750
19,516833	0,5	-0,213450
19,525167	0,5	-0,214350
19,533500	0,5	-0,212700
19,541833	0,5	-0,211200
19,550167	0,5	-0,206000
19,558500	0,5	-0,201100
19,566833	0,5	-0,198750
19,575167	0,5	-0,198300
19,583500	0,5	-0,196000
19,591833	0,5	-0,200250
19,600167	0,5	-0,195250
19,608500	0,5	-0,188050
19,616833	0,5	-0,189350
19,625167	0,5	-0,186850
19,633500	0,5	-0,183900
19,641833	0,5	-0,189750
19,650167	0,5	-0,202250
19,658500	0,5	-0,219500
19,666833	0,5	-0,236650
19,675167	0,5	-0,237050
19,683500	0,5	-0,247350
19,691833	0,5	-0,240800
19,700167	0,5	-0,242450
19,708500	0,5	-0,236250
19,716833	0,5	-0,234700
19,725167	0,5	-0,231750
19,733500	0,5	-0,234100
19,741833	0,5	-0,229150
19,750167	0,5	-0,220550
19,758500	0,5	-0,212050
19,766833	0,5	-0,220050
19,775167	0,5	-0,207900
19,783500	0,5	-0,199200
19,791833	0,5	-0,201700
19,800167	0,5	-0,209600
19,808500	0,5	-0,234100
19,816833	0,5	-0,232800
19,825167	0,5	-0,241750
19,833500	0,5	-0,245200
19,841833	0,5	-0,255100
19,850167	0,5	-0,249950
19,858500	0,5	-0,250800
19,866833	0,5	-0,244400
19,875167	0,5	-0,245000
19,883500	0,5	-0,246150
19,891833	0,5	-0,242900
19,900167	0,5	-0,232650
19,908500	0,5	-0,238200
19,916833	0,5	-0,240450
19,925167	0,5	-0,228750
19,933500	0,5	-0,226450
19,941833	0,5	-0,219850
19,950167	0,5	-0,226450
19,958500	0,5	-0,219900
19,966833	0,5	-0,205250
19,975167	0,5	-0,183900
19,983500	0,5	-0,172550
19,991833	0,5	-0,146900
20,000167	0,5	-0,134700
20,008500	0,5	-0,120500
20,016833	0,5	-0,119350
20,025167	0,5	-0,120650
20,033500	0,5	-0,134600
20,041833	0,5	-0,147950
20,050167	0,5	-0,152250
20,058500	0,5	-0,170050
20,066833	0,5	-0,174200
20,075167	0,5	-0,176000
20,083500	0,5	-0,179850
20,091833	0,5	-0,189500
20,100167	0,5	-0,206500
20,108500	0,5	-0,205300
20,116833	0,5	-0,196800
20,125167	0,5	-0,204650
20,133500	0,5	-0,209700
20,141833	0,5	-0,211150
20,150167	0,5	-0,206150
20,158500	0,5	-0,200700
20,166833	0,5	-0,188500
20,175167	0,5	-0,184300
20,183500	0,5	-0,172900
20,191833	0,5	-0,152650
20,200167	0,5	-0,137150
20,208500	0,5	-0,144300
20,216833	0,5	-0,129150
20,225167	0,5	-0,126950
20,233500	0,5	-0,133150
20,241833	0,5	-0,141350
20,250167	0,5	-0,157200
20,258500	0,5	-0,140250
20,266833	0,5	-0,141450
20,275167	0,5	-0,131550
20,283500	0,5	-0,139700
20,291833	0,5	-0,139900
20,300167	0,5	-0,158750
20,308500	0,5	-0,167600
20,316833	0,5	-0,186050
20,325167	0,5	-0,193450
20,333500	0,5	-0,196500
20,341833	0,5	-0,189850
20,350167	0,5	-0,195350
20,358500	0,5	-0,199250
20,366833	0,5	-0,187350
20,375167	0,5	-0,191150
20,383500	0,5	-0,192600
20,391833	0,5	-0,202950
20,400167	0,5	-0,203200
20,408500	0,5	-0,193150
20,416833	0,5	-0,181450
20,425167	0,5	-0,174700
20,433500	0,5	-0,170800
20,441833	0,5	-0,170100
20,450167	0,5	-0,158950
20,458500	0,5	-0,161800
20,466833	0,5	-0,165500
20,475167	0,5	-0,175900
20,483500	0,5	-0,169050
20,491833	0,5	-0,171200
20,500167	0,5	-0,179450
20,508500	0,5	-0,179200
20,516833	0,5	-0,174100
20,525167	0,5	-0,174900
20,533500	0,5	-0,185250
20,541833	0,5	-0,187550
20,550167	0,5	-0,185550
20,558500	0,5	-0,170700
20,566833	0,5	-0,164900
20,575167	0,5	-0,158350
20,583500	0,5	-0,155200
20,591833	0,5	-0,144950
20,600167	0,5	-0,144700
20,608500	0,5	-0,136000
20,616833	0,5	-0,137350
20,625167	0,5	-0,123900
20,633500	0,5	-0,107600
20,641833	0,5	-0,096650
20,650167	0,5	-0,101400
20,658500	0,5	-0,089500
20,666833	0,5	-0,094800
20,675167	0,5	-0,103900
20,683500	0,5	-0,128000
20,691833	0,5	-0,138100
20,700167	0,5	-0,135450
20,708500	0,5	-0,131450
20,716833	0,5	-0,126400
20,725167	0,5	-0,114450
20,733500	0,5	-0,104950
20,741833	0,5	-0,106800
20,750167	0,5	-0,093400
20,758500	0,5	-0,092600
20,766833	0,5	-0,088000
20,775167	0,5	-0,077800
20,783500	0,5	-0,066500
20,791833	0,5	-0,068700
20,800167	0,5	-0,069450
20,808500	0,5	-0,068600
20,816833	0,5	-0,067450
20,825167	0,5	-0,069350
20,833500	0,5	-0,075900
20,841833	0,5	-0,070200
20,850167	0,5	-0,062950
20,858500	0,5	-0,052600
20,866833	0,5	-0,051250
20,875167	0,5	-0,043650
20,883500	0,5	-0,036850
20,891833	0,5	-0,024850
20,900167	0,5	-0,020100
20,908500	0,5	-0,006500
20,916833	0,5	0,003250
20,925167	0,5	0,026400
20,933500	0,5	0,044650
20,941833	0,5	0,039050
20,950167	0,5	0,043550
20,958500	0,5	0,049050
20,966833	0,5	0,042850
20,975167	0,5	0,038800
20,983500	0,5	0,036300
20,991833	0,5	0,045250
21,000167	0,5	0,049600
21,008500	0,5	0,054200
21,016833	0,5	0,060650
21,025167	0,5	0,073250
21,033500	0,5	0,077400
21,041833	0,5	0,078100
21,050167	0,5	0,086300
21,058500	0,5	0,088250
21,066833	0,5	0,105700
21,075167	0,5	0,123250
21,083500	0,5	0,136000
21,091833	0,5	0,138550
21,100167	0,5	0,153050
21,108500	0,5	0,162650
21,116833	0,5	0,166000
21,125167	0,5	0,164850
21,133500	0,5	0,172700
21,141833	0,5	0,181750
21,150167	0,5	0,181100
21,158500	0,5	0,181750
21,166833	0,5	0,186800
21,175167	0,5	0,192150
21,183500	0,5	0,194950
21,191833	0,5	0,206050
21,200167	0,5	0,209150
21,208500	0,5	0,221900
21,216833	0,5	0,246400
21,225167	0,5	0,265500
21,233500	0,5	0,275600
21,241833	0,5	0,282300
21,250167	0,5	0,290050
21,258500	0,5	0,311150
21,266833	0,5	0,322700
21,275167	0,5	0,334150
21,283500	0,5	0,372900
21,291833	0,5	0,406500
21,300167	0,5	0,441100
21,308500	0,5	0,450500
21,316833	0,5	0,457950
21,325167	0,5	0,449050
21,333500	0,5	0,438650
21,341833	0,5	0,420350
21,350167	0,5	0,416550
21,358500	0,5	0,421200
21,366833	0,5	0,444750
21,375167	0,5	0,458850
21,383500	0,5	0,462900
21,391833	0,5	0,476750
21,400167	0,5	0,474400
21,408500	0,5	0,477150
21,416833	0,5	0,471550
21,425167	0,5	0,476100
21,433500	0,5	0,480400
21,441833	0,5	0,491150
21,450167	0,5	0,495250
21,458500	0,5	0,508700
21,466833	0,5	0,514500
21,475167	0,5	0,534100
21,483500	0,5	0,542800
21,491833	0,5	0,563600
21,500167	0,5	0,575350
21,508500	0,5	0,609100
21,516833	0,5	0,635050
21,525167	0,5	0,646750
21,533500	0,5	0,655000
21,541833	0,5	0,663350
21,550167	0,5	0,660750
21,558500	0,5	0,668150
21,566833	0,5	0,666000
21,575167	0,5	0,678300
21,583500	0,5	0,691150
21,591833	0,5	0,700400
21,600167	0,5	0,724800
21,608500	0,5	0,739950
21,616833	0,5	0,763700
21,625167	0,5	0,782250
21,633500	0,5	0,797550
21,641833	0,5	0,809450
21,650167	0,5	0,834500
21,658500	0,5	0,868400
21,666833	0,5	0,884350
21,675167	0,5	0,884550
21,683500	0,5	0,894300
21,691833	0,5	0,899600
21,700167	0,5	0,911750
21,708500	0,5	0,912950
21,716833	0,5	0,924600
21,725167	0,5	0,946450
21,733500	0,5	0,963200
21,741833	0,5	0,980650
21,750167	0,5	0,994650
21,758500	0,5	1,013550
21,766833	0,5	1,030950
21,775167	0,5	1,055650
21,783500	0,5	1,078200
21,791833	0,5	1,102050
21,800167	0,5	1,139950
21,808500	0,5	1,174850
21,816833	0,5	1,191850
21,825167	0,5	1,224700
21,833500	0,5	1,252350
21,841833	0,5	1,272100
21,850167	0,5	1,287500
21,858500	0,5	1,308750
21,866833	0,5	1,341600
21,875167	0,5	1,366850
21,883500	0,5	1,388750
21,891833	0,5	1,408750
21,900167	0,5	1,431550
21,908500	0,5	1,445000
21,916833	0,5	1,463600
21,925167	0,5	1,471150
21,933500	0,5	1,482850
21,941833	0,5	1,493350
21,950167	0,5	1,521050
21,958500	0,5	1,529850
21,966833	0,5	1,546450
21,975167	0,5	1,568750
21,983500	0,5	1,598250
21,991833	0,5	1,621200
22,000167	0,5	1,631850
22,008500	0,5	1,665650
22,016833	0,5	1,696950
22,025167	0,5	1,727700
22,033500	0,5	1,753750
22,041833	0,5	1,786350
22,050167	0,5	1,814150
22,058500	0,5	1,850950
22,066833	0,5	1,886250
22,075167	0,5	1,929500
22,083500	0,5	1,968200
22,091833	0,5	2,016950
22,100167	0,5	2,060150
22,108500	0,5	2,077700
22,116833	0,5	2,107950
22,125167	0,5	2,129500
22,133500	0,5	2,142150
22,141833	0,5	2,157950
22,150167	0,5	2,166950
22,158500	0,5	2,203200
22,166833	0,5	2,242450
22,175167	0,5	2,274550
22,183500	0,5	2,313650
22,191833	0,5	2,344000
22,200167	0,5	2,382050
22,208500	0,5	2,414100
22,216833	0,5	2,459000
22,225167	0,5	2,499800
22,233500	0,5	2,534850
22,241833	0,5	2,568900
22,250167	0,5	2,613300
22,258500	0,5	2,662950
22,266833	0,5	2,726700
22,275167	0,5	2,768900
22,283500	0,5	2,814600
22,291833	0,5	2,855650
22,300167	0,5	2,893450
22,308500	0,5	2,957400
22,316833	0,5	3,001550
22,325167	0,5	3,049550
22,333500	0,5	3,089000
22,341833	0,5	3,136450
22,350167	0,5	3,179050
22,358500	0,5	3,225100
22,366833	0,5	3,261750
22,375167	0,5	3,309200
22,383500	0,5	3,342050
22,391833	0,5	3,394900
22,400167	0,5	3,445800
22,408500	0,5	3,518700
22,416833	0,5	3,573450
22,425167	0,5	3,636700
22,433500	0,5	3,688600
22,441833	0,5	3,740750
22,450167	0,5	3,807000
22,458500	0,5	3,874250
22,466833	0,5	3,943950
22,475167	0,5	4,001000
22,483500	0,5	4,059700
22,491833	0,5	4,113900
22,500167	0,5	4,184250
22,508500	0,5	4,246750
22,516833	0,5	4,306500
22,525167	0,5	4,356750
22,533500	0,5	4,382200
22,541833	0,5	4,422750
22,550167	0,5	4,491250
22,558500	0,5	4,542150
22,566833	0,5	4,584250
22,575167	0,5	4,622800
22,583500	0,5	4,654100
22,591833	0,5	4,685950
22,600167	0,5	4,718500
22,608500	0,5	4,757350
22,616833	0,5	4,783600
22,625167	0,5	4,801100
22,633500	0,5	4,811300
22,641833	0,5	4,812450
22,650167	0,5	4,819500
22,658500	0,5	4,819800
22,666833	0,5	4,803100
22,675167	0,5	4,768650
22,683500	0,5	4,731050
22,691833	0,5	4,713400
22,700167	0,5	4,687500
22,708500	0,5	4,647300
22,716833	0,5	4,580300
22,725167	0,5	4,503250
22,733500	0,5	4,408100
22,741833	0,5	4,319950
22,750167	0,5	4,225950
22,758500	0,5	4,121550
22,766833	0,5	4,008300
22,775167	0,5	3,893800
22,783500	0,5	3,773000
22,791833	0,5	3,652900
22,800167	0,5	3,527150
22,808500	0,5	3,397950
22,816833	0,5	3,264000
22,825167	0,5	3,091100
22,833500	0,5	2,963100
22,841833	0,5	2,828200
22,850167	0,5	2,696250
22,858500	0,5	2,543550
22,866833	0,5	2,390750
22,875167	0,5	2,240150
22,883500	0,5	2,086200
22,891833	0,5	1,926750
22,900167	0,5	1,776200
22,908500	0,5	1,627550
22,916833	0,5	1,482300
22,925167	0,5	1,337800
22,933500	0,5	1,200000
22,941833	0,5	1,055300
22,950167	0,5	0,916800
22,958500	0,5	0,779550
22,966833	0,5	0,673250
22,975167	0,5	0,537750
22,983500	0,5	0,413700
22,991833	0,5	0,265650
23,000167	0,5	0,137950
23,008500	0,5	0,015600
23,016833	0,5	-0,088700
23,025167	0,5	-0,184600
23,033500	0,5	-0,288750
23,041833	0,5	-0,394350
23,050167	0,5	-0,481450
23,058500	0,5	-0,565650
23,066833	0,5	-0,645150
23,075167	0,5	-0,718450
23,083500	0,5	-0,793150
23,091833	0,5	-0,855500
23,100167	0,5	-0,925750
23,108500	0,5	-0,983500
23,116833	0,5	-1,014400
23,125167	0,5	-1,073200
23,133500	0,5	-1,133550
23,141833	0,5	-1,218500
23,150167	0,5	-1,275850
23,158500	0,5	-1,313300
23,166833	0,5	-1,352750
23,175167	0,5	-1,381600
23,183500	0,5	-1,426600
23,191833	0,5	-1,458750
23,200167	0,5	-1,487750
23,208500	0,5	-1,510250
23,216833	0,5	-1,531500
23,225167	0,5	-1,551000
23,233500	0,5	-1,569800
23,241833	0,5	-1,589650
23,250167	0,5	-1,599200
23,258500	0,5	-1,608450
23,266833	0,5	-1,641850
23,275167	0,5	-1,619450
23,283500	0,5	-1,632650
23,291833	0,5	-1,679100
23,300167	0,5	-1,692500
23,308500	0,5	-1,705800
23,316833	0,5	-1,706000
23,325167	0,5	-1,708750
23,333500	0,5	-1,712100
23,341833	0,5	-1,723500
23,350167	0,5	-1,718050
23,358500	0,5	-1,719850
23,366833	0,5	-1,712200
23,375167	0,5	-1,711400
23,383500	0,5	-1,707800
23,391833	0,5	-1,696200
23,400167	0,5	-1,692000
23,408500	0,5	-1,689850
23,416833	0,5	-1,707450
23,425167	0,5	-1,671200
23,433500	0,5	-1,647650
23,441833	0,5	-1,661750
23,450167	0,5	-1,665700
23,458500	0,5	-1,654050
23,466833	0,5	-1,651700
23,475167	0,5	-1,642200
23,483500	0,5	-1,640650
23,491833	0,5	-1,632000
23,500167	0,5	-1,625100
23,508500	0,5	-1,613250
23,516833	0,5	-1,605500
23,525167	0,5	-1,594250
23,533500	0,5	-1,581250
23,541833	0,5	-1,570300
23,550167	0,5	-1,557750
23,558500	0,5	-1,614750
23,566833	0,5	-1,588100
23,575167	0,5	-1,542600
23,583500	0,5	-1,506050
23,591833	0,5	-1,498550
23,600167	0,5	-1,492750
23,608500	0,5	-1,483250
23,616833	0,5	-1,472800
23,625167	0,5	-1,464750
23,633500	0,5	-1,453500
23,641833	0,5	-1,441350
23,650167	0,5	-1,430850
23,658500	0,5	-1,418050
23,666833	0,5	-1,406850
23,675167	0,5	-1,397550
23,683500	0,5	-1,383150
23,691833	0,5	-1,372400
23,700167	0,5	-1,378600
23,708500	0,5	-1,448850
23,716833	0,5	-1,415350
23,725167	0,5	-1,362700
23,733500	0,5	-1,327300
23,741833	0,5	-1,305500
23,750167	0,5	-1,293200
23,758500	0,5	-1,286800
23,766833	0,5	-1,274800
23,775167	0,5	-1,260650
23,783500	0,5	-1,246300
23,791833	0,5	-1,231950
23,800167	0,5	-1,216900
23,808500	0,5	-1,203850
23,816833	0,5	-1,184850
23,825167	0,5	-1,171150
23,833500	0,5	-1,158350
23,841833	0,5	-1,144250
23,850167	0,5	-1,228150
23,858500	0,5	-1,221250
23,866833	0,5	-1,186700
23,875167	0,5	-1,127150
23,883500	0,5	-1,094300
23,891833	0,5	-1,079900
23,900167	0,5	-1,070550
23,908500	0,5	-1,069100
23,916833	0,5	-1,056950
23,925167	0,5	-1,039100
23,933500	0,5	-1,026450
23,941833	0,5	-1,012350
23,950167	0,5	-0,996700
23,958500	0,5	-0,978350
23,966833	0,5	-0,963400
23,975167	0,5	-0,944900
23,983500	0,5	-0,931900
23,991833	0,5	-0,916700
24,000167	0,5	-1,025700
24,008500	0,5	-0,972650
24,016833	0,5	-0,954100
24,025167	0,5	-0,892050
24,033500	0,5	-0,870050
24,041833	0,5	-0,851300
24,050167	0,5	-0,840850
24,058500	0,5	-0,843850
24,066833	0,5	-0,821000
24,075167	0,5	-0,806500
24,083500	0,5	-0,793100
24,091833	0,5	-0,780550
24,100167	0,5	-0,767650
24,108500	0,5	-0,754450
24,116833	0,5	-0,736750
24,125167	0,5	-0,731800
24,133500	0,5	-0,719850
24,141833	0,5	-0,750700
24,150167	0,5	-0,794450
24,158500	0,5	-0,755850
24,166833	0,5	-0,718550
24,175167	0,5	-0,674350
24,183500	0,5	-0,655350
24,191833	0,5	-0,644100
24,200167	0,5	-0,634300
24,208500	0,5	-0,633050
24,216833	0,5	-0,616350
24,225167	0,5	-0,607000
24,233500	0,5	-0,588450
24,241833	0,5	-0,574100
24,250167	0,5	-0,560250
24,258500	0,5	-0,548950
24,266833	0,5	-0,536650
24,275167	0,5	-0,526200
24,283500	0,5	-0,518600
24,291833	0,5	-0,571700
24,300167	0,5	-0,574150
24,308500	0,5	-0,542550
24,316833	0,5	-0,513800
24,325167	0,5	-0,489650
24,333500	0,5	-0,479500
24,341833	0,5	-0,469150
24,350167	0,5	-0,468150
24,358500	0,5	-0,464250
24,366833	0,5	-0,451950
24,375167	0,5	-0,437950
24,383500	0,5	-0,431100
24,391833	0,5	-0,416450
24,400167	0,5	-0,404750
24,408500	0,5	-0,392650
24,416833	0,5	-0,381150
24,425167	0,5	-0,379000
24,433500	0,5	-0,371500
24,441833	0,5	-0,430300
24,450167	0,5	-0,403650
24,458500	0,5	-0,382900
24,466833	0,5	-0,354300
24,475167	0,5	-0,336500
24,483500	0,5	-0,329150
24,491833	0,5	-0,332850
24,500167	0,5	-0,332300
24,508500	0,5	-0,333000
24,516833	0,5	-0,313500
24,525167	0,5	-0,317900
24,533500	0,5	-0,304700
24,541833	0,5	-0,297000
24,550167	0,5	-0,287800
24,558500	0,5	-0,280800
24,566833	0,5	-0,274500
24,575167	0,5	-0,267100
24,583500	0,5	-0,275750
24,591833	0,5	-0,296200
24,600167	0,5	-0,283100
24,608500	0,5	-0,264150
24,616833	0,5	-0,242300
24,625167	0,5	-0,238700
24,633500	0,5	-0,230500
24,641833	0,5	-0,231950
24,650167	0,5	-0,232750
24,658500	0,5	-0,222300
24,666833	0,5	-0,221150
24,675167	0,5	-0,213250
24,683500	0,5	-0,211250
24,691833	0,5	-0,205150
24,700167	0,5	-0,201600
24,708500	0,5	-0,192100
24,716833	0,5	-0,188900
24,725167	0,5	-0,190250
24,733500	0,5	-0,213600
24,741833	0,5	-0,206400
24,750167	0,5	-0,203800
24,758500	0,5	-0,179100
24,766833	0,5	-0,171600
24,775167	0,5	-0,163550
24,783500	0,5	-0,159550
24,791833	0,5	-0,162400
24,800167	0,5	-0,154550
24,808500	0,5	-0,151550
24,816833	0,5	-0,147550
24,825167	0,5	-0,146700
24,833500	0,5	-0,140950
24,841833	0,5	-0,139350
24,850167	0,5	-0,134650
24,858500	0,5	-0,131950
24,866833	0,5	-0,125500
24,875167	0,5	-0,129100
24,883500	0,5	-0,147100
24,891833	0,5	-0,137450
24,900167	0,5	-0,133000
24,908500	0,5	-0,119700
24,916833	0,5	-0,113300
24,925167	0,5	-0,116150
24,933500	0,5	-0,114650
24,941833	0,5	-0,118050
24,950167	0,5	-0,112400
24,958500	0,5	-0,106250
24,966833	0,5	-0,103250
24,975167	0,5	-0,102200
24,983500	0,5	-0,097950
24,991833	0,5	-0,094250
25,000167	0,5	-0,090200
25,008500	0,5	-0,086100
25,016833	0,5	-0,087900
25,025167	0,5	-0,091400
25,033500	0,5	-0,097100
25,041833	0,5	-0,087250
25,050167	0,5	-0,087350
25,058500	0,5	-0,079100
25,066833	0,5	-0,079250
25,075167	0,5	-0,077000
25,083500	0,5	-0,078600
25,091833	0,5	-0,083200
25,100167	0,5	-0,075650
25,108500	0,5	-0,074050
25,116833	0,5	-0,075600
25,125167	0,5	-0,075800
25,133500	0,5	-0,072900
25,141833	0,5	-0,070100
25,150167	0,5	-0,067250
25,158500	0,5	-0,064800
25,166833	0,5	-0,065750
25,175167	0,5	-0,069850
25,183500	0,5	-0,065500
25,191833	0,5	-0,066300
25,200167	0,5	-0,059000
25,208500	0,5	-0,056200
25,216833	0,5	-0,055950
25,225167	0,5	-0,058850
25,233500	0,5	-0,057400
25,241833	0,5	-0,057450
25,250167	0,5	-0,056100
25,258500	0,5	-0,058400
25,266833	0,5	-0,054450
25,275167	0,5	-0,056900
25,283500	0,5	-0,055950
25,291833	0,5	-0,054050
25,300167	0,5	-0,052200
25,308500	0,5	-0,054000
25,316833	0,5	-0,050000
25,325167	0,5	-0,055600
25,333500	0,5	-0,051550
25,341833	0,5	-0,050900
25,350167	0,5	-0,048150
25,358500	0,5	-0,047300
25,366833	0,5	-0,046350
25,375167	0,5	-0,047100
25,383500	0,5	-0,045600
25,391833	0,5	-0,045350
25,400167	0,5	-0,045350
25,408500	0,5	-0,046800
25,416833	0,5	-0,047600
25,425167	0,5	-0,044950
25,433500	0,5	-0,047300
25,441833	0,5	-0,044850
25,450167	0,5	-0,045800
25,458500	0,5	-0,046250
25,466833	0,5	-0,045000
25,475167	0,5	-0,045300
25,483500	0,5	-0,041500
25,491833	0,5	-0,042800
25,500167	0,5	-0,047850
25,508500	0,5	-0,041900
25,516833	0,5	-0,043050
25,525167	0,5	-0,042700
25,533500	0,5	-0,042350
25,541833	0,5	-0,037050
25,550167	0,5	-0,039100
25,558500	0,5	-0,039700
25,566833	0,5	-0,039100
25,575167	0,5	-0,037450
25,583500	0,5	-0,043250
25,591833	0,5	-0,036200
25,600167	0,5	-0,040700
25,608500	0,5	-0,043350
25,616833	0,5	-0,041250
25,625167	0,5	-0,039700
25,633500	0,5	-0,037150
25,641833	0,5	-0,039150
25,650167	0,5	-0,039400
25,658500	0,5	-0,041400
25,666833	0,5	-0,039900
25,675167	0,5	-0,037950
25,683500	0,5	-0,036500
25,691833	0,5	-0,038250
25,700167	0,5	-0,037400
25,708500	0,5	-0,035100
25,716833	0,5	-0,035750
25,725167	0,5	-0,035100
25,733500	0,5	-0,032150
25,741833	0,5	-0,034350
25,750167	0,5	-0,032450
25,758500	0,5	-0,035050
25,766833	0,5	-0,034400
25,775167	0,5	-0,030600
25,783500	0,5	-0,028800
25,791833	0,5	-0,035850
25,800167	0,5	-0,034300
25,808500	0,5	-0,033000
25,816833	0,5	-0,034400
25,825167	0,5	-0,026650
25,833500	0,5	-0,032250
25,841833	0,5	-0,032050
25,850167	0,5	-0,029250
25,858500	0,5	-0,024500
25,866833	0,5	-0,027150
25,875167	0,5	-0,026400
25,883500	0,5	-0,027400
25,891833	0,5	-0,023300
25,900167	0,5	-0,028250
25,908500	0,5	-0,022250
25,916833	0,5	-0,021350
25,925167	0,5	-0,020650
25,933500	0,5	-0,018700
25,941833	0,5	-0,027400
25,950167	0,5	-0,027000
25,958500	0,5	-0,023700
25,966833	0,5	-0,021750
25,975167	0,5	-0,012650
25,983500	0,5	-0,020000
25,991833	0,5	-0,017000
26,000167	0,5	-0,017050
