File Path	chrom://chromeleon01/ikbm_chromeleon/2022/ICS-5000/ED1/Esteban/20220612_Cell_7_4_eg.seq/211.smp/ED_1.channel/ED_1.chm
Channel	ED_1

Injection Information:
Data Vault	ikbm_chromeleon
Injection	4_24h-EGI_1
Injection Number	60
Position	GA8
Comment	
Processing Method	Stop sequence after Cell Death
Instrument Method	ICS5000_PA200_FullNative_Ox_26min_ED1
Type	Unknown
Status	Finished
Injection Date	13.06.2022
Injection Time	20:08:54
Injection Volume (µl)	5,0
Dilution Factor	1,0000
Weight	1,0000

Chromatogram Data Information:
Time Min. (min)	0,000167
Time Max. (min)	26,000167
Data Points	3121
Detector	EDet1
Generating Data System	Chromeleon 7.2.9.11323
Exporting Data System	Chromeleon 7.2.9.0
Operator	Instrument Controller
Signal Quantity	
Signal Unit	nC
Signal Min.	-2,043950
Signal Max.	2 387,915436
Channel	ED_1
Driver Name	DC-5000
Channel Type	Evaluation
Min. Step (s)	0,5
Max. Step (s)	0,5
Average Step (s)	0,5

Signal Parameter Information:
Signal Info	

Chromatogram Data:
Time (min)	Step (s)	Value (nC)
0,000167	n.a.	-0,050450
0,008500	0,5	-0,050000
0,016833	0,5	-0,044200
0,025167	0,5	-0,052150
0,033500	0,5	-0,043550
0,041833	0,5	-0,034400
0,050167	0,5	-0,013650
0,058500	0,5	0,002600
0,066833	0,5	-0,002750
0,075167	0,5	-0,001000
0,083500	0,5	-0,003100
0,091833	0,5	0,000650
0,100167	0,5	-0,003500
0,108500	0,5	-0,008000
0,116833	0,5	-0,018600
0,125167	0,5	-0,012550
0,133500	0,5	-0,017400
0,141833	0,5	-0,013800
0,150167	0,5	-0,020850
0,158500	0,5	-0,002100
0,166833	0,5	-0,025150
0,175167	0,5	-0,034750
0,183500	0,5	-0,032950
0,191833	0,5	-0,019550
0,200167	0,5	0,002600
0,208500	0,5	-0,001000
0,216833	0,5	-0,003200
0,225167	0,5	-0,008100
0,233500	0,5	-0,008800
0,241833	0,5	-0,013750
0,250167	0,5	-0,014050
0,258500	0,5	-0,021350
0,266833	0,5	-0,021100
0,275167	0,5	-0,025450
0,283500	0,5	-0,021250
0,291833	0,5	-0,020950
0,300167	0,5	0,029650
0,308500	0,5	0,023400
0,316833	0,5	-0,024700
0,325167	0,5	-0,057650
0,333500	0,5	-0,055350
0,341833	0,5	-0,048950
0,350167	0,5	-0,036150
0,358500	0,5	-0,036500
0,366833	0,5	-0,030500
0,375167	0,5	-0,036350
0,383500	0,5	-0,030300
0,391833	0,5	-0,031350
0,400167	0,5	-0,039000
0,408500	0,5	-0,044000
0,416833	0,5	-0,049700
0,425167	0,5	-0,043300
0,433500	0,5	-0,047300
0,441833	0,5	-0,052600
0,450167	0,5	-0,041300
0,458500	0,5	-0,046350
0,466833	0,5	-0,067600
0,475167	0,5	-0,066550
0,483500	0,5	-0,058900
0,491833	0,5	-0,035250
0,500167	0,5	-0,036400
0,508500	0,5	-0,036100
0,516833	0,5	-0,044400
0,525167	0,5	-0,038200
0,533500	0,5	-0,045800
0,541833	0,5	-0,046000
0,550167	0,5	-0,047100
0,558500	0,5	-0,046100
0,566833	0,5	-0,049000
0,575167	0,5	-0,050500
0,583500	0,5	-0,042300
0,591833	0,5	-0,060250
0,600167	0,5	-0,045200
0,608500	0,5	-0,062200
0,616833	0,5	-0,063450
0,625167	0,5	-0,068100
0,633500	0,5	-0,054000
0,641833	0,5	-0,034750
0,650167	0,5	-0,031950
0,658500	0,5	-0,046750
0,666833	0,5	-0,039250
0,675167	0,5	-0,038100
0,683500	0,5	-0,032450
0,691833	0,5	-0,044700
0,700167	0,5	-0,040200
0,708500	0,5	-0,046550
0,716833	0,5	-0,041600
0,725167	0,5	-0,046100
0,733500	0,5	-0,053700
0,741833	0,5	-0,063400
0,750167	0,5	-0,039600
0,758500	0,5	-0,060700
0,766833	0,5	-0,060300
0,775167	0,5	-0,054600
0,783500	0,5	-0,043650
0,791833	0,5	-0,020150
0,800167	0,5	-0,027500
0,808500	0,5	-0,023650
0,816833	0,5	-0,031750
0,825167	0,5	-0,023650
0,833500	0,5	-0,029250
0,841833	0,5	-0,025350
0,850167	0,5	-0,038600
0,858500	0,5	-0,031300
0,866833	0,5	-0,030100
0,875167	0,5	-0,030800
0,883500	0,5	-0,049000
0,891833	0,5	-0,039750
0,900167	0,5	-0,036550
0,908500	0,5	-0,047200
0,916833	0,5	-0,048500
0,925167	0,5	-0,043650
0,933500	0,5	-0,024700
0,941833	0,5	-0,009750
0,950167	0,5	-0,003400
0,958500	0,5	-0,009800
0,966833	0,5	-0,004350
0,975167	0,5	-0,007100
0,983500	0,5	-0,009350
0,991833	0,5	-0,011450
1,000167	0,5	-0,009850
1,008500	0,5	-0,013650
1,016833	0,5	-0,011750
1,025167	0,5	-0,026900
1,033500	0,5	-0,025750
1,041833	0,5	-0,019850
1,050167	0,5	-0,018000
1,058500	0,5	-0,030250
1,066833	0,5	-0,020500
1,075167	0,5	-0,016200
1,083500	0,5	0,003050
1,091833	0,5	0,014350
1,100167	0,5	0,010800
1,108500	0,5	0,011650
1,116833	0,5	0,011200
1,125167	0,5	0,010100
1,133500	0,5	0,006650
1,141833	0,5	0,002300
1,150167	0,5	-0,002700
1,158500	0,5	0,006450
1,166833	0,5	0,006300
1,175167	0,5	-0,001400
1,183500	0,5	-0,005700
1,191833	0,5	0,010650
1,200167	0,5	-0,005550
1,208500	0,5	-0,008050
1,216833	0,5	-0,005500
1,225167	0,5	0,001750
1,233500	0,5	0,021800
1,241833	0,5	0,027750
1,250167	0,5	0,018750
1,258500	0,5	0,029850
1,266833	0,5	0,023300
1,275167	0,5	0,022750
1,283500	0,5	0,023400
1,291833	0,5	0,020550
1,300167	0,5	0,016950
1,308500	0,5	0,013400
1,316833	0,5	0,019000
1,325167	0,5	-0,000400
1,333500	0,5	0,008850
1,341833	0,5	0,013350
1,350167	0,5	0,006000
1,358500	0,5	-0,000500
1,366833	0,5	0,007400
1,375167	0,5	0,013400
1,383500	0,5	0,033400
1,391833	0,5	0,018900
1,400167	0,5	0,026550
1,408500	0,5	0,022050
1,416833	0,5	0,024150
1,425167	0,5	0,014750
1,433500	0,5	0,018100
1,441833	0,5	0,009850
1,450167	0,5	0,011400
1,458500	0,5	0,009550
1,466833	0,5	0,005100
1,475167	0,5	-0,005200
1,483500	0,5	0,004500
1,491833	0,5	-0,003600
1,500167	0,5	-0,014700
1,508500	0,5	-0,020300
1,516833	0,5	-0,021450
1,525167	0,5	-0,005300
1,533500	0,5	-0,002800
1,541833	0,5	-0,002850
1,550167	0,5	-0,000350
1,558500	0,5	0,042600
1,566833	0,5	0,150250
1,575167	0,5	0,493800
1,583500	0,5	2,370800
1,591833	0,5	12,852200
1,600167	0,5	14,827550
1,608500	0,5	223,000253
1,616833	0,5	669,682360
1,625167	0,5	1 455,525122
1,633500	0,5	2 139,842082
1,641833	0,5	2 387,915436
1,650167	0,5	2 330,485635
1,658500	0,5	2 038,770330
1,666833	0,5	1 544,173723
1,675167	0,5	1 045,960516
1,683500	0,5	708,255611
1,691833	0,5	513,165658
1,700167	0,5	406,908306
1,708500	0,5	350,790955
1,716833	0,5	316,839255
1,725167	0,5	280,727404
1,733500	0,5	238,324454
1,741833	0,5	197,887853
1,750167	0,5	167,488102
1,758500	0,5	151,424502
1,766833	0,5	150,812602
1,775167	0,5	162,258152
1,783500	0,5	179,540503
1,791833	0,5	197,145903
1,800167	0,5	210,802203
1,808500	0,5	214,413353
1,816833	0,5	205,492903
1,825167	0,5	188,894753
1,833500	0,5	171,422053
1,841833	0,5	156,286052
1,850167	0,5	143,923602
1,858500	0,5	134,844102
1,866833	0,5	130,127402
1,875167	0,5	131,797302
1,883500	0,5	142,884902
1,891833	0,5	161,016752
1,900167	0,5	171,918403
1,908500	0,5	164,930802
1,916833	0,5	149,236002
1,925167	0,5	143,136852
1,933500	0,5	162,623952
1,941833	0,5	235,025304
1,950167	0,5	413,059706
1,958500	0,5	697,257410
1,966833	0,5	918,355164
1,975167	0,5	919,331164
1,983500	0,5	749,228711
1,991833	0,5	545,623158
2,000167	0,5	388,867156
2,008500	0,5	285,965054
2,016833	0,5	223,261503
2,025167	0,5	191,872003
2,033500	0,5	188,012553
2,041833	0,5	198,033303
2,050167	0,5	198,942253
2,058500	0,5	182,954003
2,066833	0,5	159,090552
2,075167	0,5	136,127802
2,083500	0,5	116,589952
2,091833	0,5	101,362152
2,100167	0,5	90,984101
2,108500	0,5	84,974751
2,116833	0,5	83,179201
2,125167	0,5	83,997701
2,133500	0,5	83,123351
2,141833	0,5	78,316501
2,150167	0,5	71,989401
2,158500	0,5	66,531351
2,166833	0,5	61,870951
2,175167	0,5	57,527651
2,183500	0,5	53,792801
2,191833	0,5	50,922401
2,200167	0,5	48,821251
2,208500	0,5	47,334351
2,216833	0,5	46,519451
2,225167	0,5	46,339451
2,233500	0,5	46,286401
2,241833	0,5	46,443051
2,250167	0,5	48,166501
2,258500	0,5	52,028301
2,266833	0,5	56,172151
2,275167	0,5	60,632401
2,283500	0,5	70,401001
2,291833	0,5	83,196101
2,300167	0,5	80,493851
2,308500	0,5	65,459651
2,316833	0,5	54,571501
2,325167	0,5	49,153801
2,333500	0,5	46,472301
2,341833	0,5	45,348701
2,350167	0,5	45,580151
2,358500	0,5	47,246101
2,366833	0,5	50,345301
2,375167	0,5	54,372501
2,383500	0,5	58,269551
2,391833	0,5	61,069351
2,400167	0,5	62,303601
2,408500	0,5	62,187151
2,416833	0,5	61,366751
2,425167	0,5	60,454901
2,433500	0,5	59,859151
2,441833	0,5	59,788401
2,450167	0,5	62,027401
2,458500	0,5	72,093451
2,466833	0,5	96,173851
2,475167	0,5	135,024152
2,483500	0,5	191,889053
2,491833	0,5	294,355004
2,500167	0,5	577,544959
2,508500	0,5	1 205,913868
2,516833	0,5	1 552,961223
2,525167	0,5	2 127,966882
2,533500	0,5	2 173,153182
2,541833	0,5	2 085,926981
2,550167	0,5	1 913,513179
2,558500	0,5	1 685,417675
2,566833	0,5	1 436,145921
2,575167	0,5	1 203,331018
2,583500	0,5	1 009,857565
2,591833	0,5	850,212813
2,600167	0,5	716,095461
2,608500	0,5	602,047459
2,616833	0,5	507,105408
2,625167	0,5	436,565407
2,633500	0,5	392,121106
2,641833	0,5	376,182956
2,650167	0,5	378,546156
2,658500	0,5	380,698356
2,666833	0,5	366,720605
2,675167	0,5	332,413155
2,683500	0,5	285,126304
2,691833	0,5	235,927404
2,700167	0,5	192,867703
2,708500	0,5	159,080202
2,716833	0,5	134,099552
2,725167	0,5	116,033852
2,733500	0,5	102,893902
2,741833	0,5	93,045851
2,750167	0,5	85,371251
2,758500	0,5	79,153451
2,766833	0,5	74,009501
2,775167	0,5	69,744301
2,783500	0,5	66,330351
2,791833	0,5	63,712001
2,800167	0,5	61,792901
2,808500	0,5	60,281051
2,816833	0,5	58,808151
2,825167	0,5	56,837601
2,833500	0,5	54,184551
2,841833	0,5	50,885751
2,850167	0,5	47,333751
2,858500	0,5	43,922851
2,866833	0,5	40,905551
2,875167	0,5	38,401601
2,883500	0,5	36,427301
2,891833	0,5	34,959301
2,900167	0,5	34,050551
2,908500	0,5	33,852451
2,916833	0,5	34,662301
2,925167	0,5	36,715551
2,933500	0,5	39,665551
2,941833	0,5	42,384301
2,950167	0,5	43,495451
2,958500	0,5	42,411401
2,966833	0,5	39,496051
2,975167	0,5	35,647001
2,983500	0,5	31,810250
2,991833	0,5	28,608400
3,000167	0,5	26,245850
3,008500	0,5	24,577550
3,016833	0,5	23,354250
3,025167	0,5	22,393300
3,033500	0,5	21,572500
3,041833	0,5	20,850700
3,050167	0,5	20,204000
3,058500	0,5	19,640750
3,066833	0,5	19,161300
3,075167	0,5	18,767600
3,083500	0,5	18,432750
3,091833	0,5	18,114000
3,100167	0,5	17,784350
3,108500	0,5	17,434200
3,116833	0,5	17,041900
3,125167	0,5	16,666850
3,133500	0,5	16,351650
3,141833	0,5	16,083350
3,150167	0,5	15,882800
3,158500	0,5	15,701850
3,166833	0,5	15,566200
3,175167	0,5	15,467900
3,183500	0,5	15,437200
3,191833	0,5	15,442100
3,200167	0,5	15,469950
3,208500	0,5	15,450600
3,216833	0,5	15,392000
3,225167	0,5	15,310900
3,233500	0,5	15,222800
3,241833	0,5	15,103250
3,250167	0,5	14,932250
3,258500	0,5	14,736600
3,266833	0,5	14,550900
3,275167	0,5	14,528050
3,283500	0,5	14,792050
3,291833	0,5	15,303250
3,300167	0,5	15,869950
3,308500	0,5	16,301800
3,316833	0,5	16,553700
3,325167	0,5	16,704250
3,333500	0,5	16,840950
3,341833	0,5	17,087400
3,350167	0,5	17,499900
3,358500	0,5	18,104200
3,366833	0,5	18,790950
3,375167	0,5	19,407950
3,383500	0,5	19,749200
3,391833	0,5	19,702350
3,400167	0,5	19,288650
3,408500	0,5	18,641250
3,416833	0,5	17,864100
3,425167	0,5	17,109800
3,433500	0,5	16,409550
3,441833	0,5	15,773300
3,450167	0,5	15,181650
3,458500	0,5	14,603050
3,466833	0,5	14,083850
3,475167	0,5	13,614750
3,483500	0,5	13,209250
3,491833	0,5	12,834950
3,500167	0,5	12,511450
3,508500	0,5	12,199250
3,516833	0,5	11,920550
3,525167	0,5	11,650550
3,533500	0,5	11,404750
3,541833	0,5	11,157900
3,550167	0,5	10,959350
3,558500	0,5	10,754950
3,566833	0,5	10,572550
3,575167	0,5	10,408500
3,583500	0,5	10,283450
3,591833	0,5	10,204650
3,600167	0,5	10,169900
3,608500	0,5	10,180500
3,616833	0,5	10,261850
3,625167	0,5	10,404050
3,633500	0,5	10,594200
3,641833	0,5	10,823150
3,650167	0,5	11,057050
3,658500	0,5	11,282250
3,666833	0,5	11,456800
3,675167	0,5	11,579650
3,683500	0,5	11,627900
3,691833	0,5	11,630400
3,700167	0,5	11,617300
3,708500	0,5	11,597300
3,716833	0,5	11,636300
3,725167	0,5	11,780500
3,733500	0,5	12,075650
3,741833	0,5	12,575000
3,750167	0,5	13,298350
3,758500	0,5	14,286200
3,766833	0,5	15,556700
3,775167	0,5	17,123850
3,783500	0,5	18,980400
3,791833	0,5	21,211200
3,800167	0,5	24,034000
3,808500	0,5	27,869900
3,816833	0,5	33,276050
3,825167	0,5	40,665151
3,833500	0,5	50,026501
3,841833	0,5	60,571451
3,850167	0,5	70,871201
3,858500	0,5	79,036701
3,866833	0,5	83,650551
3,875167	0,5	83,972251
3,883500	0,5	80,229251
3,891833	0,5	73,265901
3,900167	0,5	64,340051
3,908500	0,5	54,687701
3,916833	0,5	45,379751
3,925167	0,5	37,098351
3,933500	0,5	30,240800
3,941833	0,5	24,889700
3,950167	0,5	20,969700
3,958500	0,5	18,268900
3,966833	0,5	16,529950
3,975167	0,5	15,470650
3,983500	0,5	14,823000
3,991833	0,5	14,397600
4,000167	0,5	14,014350
4,008500	0,5	13,580500
4,016833	0,5	13,100800
4,025167	0,5	12,602550
4,033500	0,5	12,157300
4,041833	0,5	11,829850
4,050167	0,5	11,645000
4,058500	0,5	11,643850
4,066833	0,5	11,777500
4,075167	0,5	12,004600
4,083500	0,5	12,208850
4,091833	0,5	12,312500
4,100167	0,5	12,236850
4,108500	0,5	11,960050
4,116833	0,5	11,501150
4,125167	0,5	10,910100
4,133500	0,5	10,288650
4,141833	0,5	9,731200
4,150167	0,5	9,263050
4,158500	0,5	8,942450
4,166833	0,5	8,779950
4,175167	0,5	8,743750
4,183500	0,5	8,797850
4,191833	0,5	8,850650
4,200167	0,5	8,872150
4,208500	0,5	8,820750
4,216833	0,5	8,693700
4,225167	0,5	8,490150
4,233500	0,5	8,245100
4,241833	0,5	7,961950
4,250167	0,5	7,693500
4,258500	0,5	7,437550
4,266833	0,5	7,211400
4,275167	0,5	7,002250
4,283500	0,5	6,835550
4,291833	0,5	6,696150
4,300167	0,5	6,563300
4,308500	0,5	6,449000
4,316833	0,5	6,371550
4,325167	0,5	6,317550
4,333500	0,5	6,295450
4,341833	0,5	6,276650
4,350167	0,5	6,274000
4,358500	0,5	6,284300
4,366833	0,5	6,303850
4,375167	0,5	6,327000
4,383500	0,5	6,334600
4,391833	0,5	6,331550
4,400167	0,5	6,308550
4,408500	0,5	6,276550
4,416833	0,5	6,223050
4,425167	0,5	6,146200
4,433500	0,5	6,077850
4,441833	0,5	6,013650
4,450167	0,5	5,925250
4,458500	0,5	5,861050
4,466833	0,5	5,808350
4,475167	0,5	5,781650
4,483500	0,5	5,761400
4,491833	0,5	5,743100
4,500167	0,5	5,750300
4,508500	0,5	5,775200
4,516833	0,5	5,813950
4,525167	0,5	5,870500
4,533500	0,5	5,937900
4,541833	0,5	6,017250
4,550167	0,5	6,108450
4,558500	0,5	6,209250
4,566833	0,5	6,312550
4,575167	0,5	6,405050
4,583500	0,5	6,517850
4,591833	0,5	6,601200
4,600167	0,5	6,670900
4,608500	0,5	6,723950
4,616833	0,5	6,775150
4,625167	0,5	6,819100
4,633500	0,5	6,854050
4,641833	0,5	6,866850
4,650167	0,5	6,880950
4,658500	0,5	6,887800
4,666833	0,5	6,892500
4,675167	0,5	6,883750
4,683500	0,5	6,861550
4,691833	0,5	6,836050
4,700167	0,5	6,816950
4,708500	0,5	6,810100
4,716833	0,5	6,808050
4,725167	0,5	6,834750
4,733500	0,5	6,907500
4,741833	0,5	7,000850
4,750167	0,5	7,131900
4,758500	0,5	7,306850
4,766833	0,5	7,515600
4,775167	0,5	7,747700
4,783500	0,5	7,948850
4,791833	0,5	8,121050
4,800167	0,5	8,227850
4,808500	0,5	8,278250
4,816833	0,5	8,249550
4,825167	0,5	8,167350
4,833500	0,5	8,016800
4,841833	0,5	7,831300
4,850167	0,5	7,605700
4,858500	0,5	7,342000
4,866833	0,5	7,065550
4,875167	0,5	6,771600
4,883500	0,5	6,490550
4,891833	0,5	6,204850
4,900167	0,5	5,950200
4,908500	0,5	5,725200
4,916833	0,5	5,538550
4,925167	0,5	5,380750
4,933500	0,5	5,241450
4,941833	0,5	5,112500
4,950167	0,5	5,009350
4,958500	0,5	4,919250
4,966833	0,5	4,849950
4,975167	0,5	4,779150
4,983500	0,5	4,722150
4,991833	0,5	4,675800
5,000167	0,5	4,645100
5,008500	0,5	4,619050
5,016833	0,5	4,598200
5,025167	0,5	4,595500
5,033500	0,5	4,594900
5,041833	0,5	4,582650
5,050167	0,5	4,587400
5,058500	0,5	4,603400
5,066833	0,5	4,639850
5,075167	0,5	4,678950
5,083500	0,5	4,715100
5,091833	0,5	4,768450
5,100167	0,5	4,824250
5,108500	0,5	4,884600
5,116833	0,5	4,931650
5,125167	0,5	4,962100
5,133500	0,5	4,957150
5,141833	0,5	4,925000
5,150167	0,5	4,859300
5,158500	0,5	4,760100
5,166833	0,5	4,653400
5,175167	0,5	4,564150
5,183500	0,5	4,460300
5,191833	0,5	4,380050
5,200167	0,5	4,320700
5,208500	0,5	4,290950
5,216833	0,5	4,287800
5,225167	0,5	4,290150
5,233500	0,5	4,305650
5,241833	0,5	4,332000
5,250167	0,5	4,371500
5,258500	0,5	4,419400
5,266833	0,5	4,490350
5,275167	0,5	4,569450
5,283500	0,5	4,676050
5,291833	0,5	4,802850
5,300167	0,5	4,952650
5,308500	0,5	5,109850
5,316833	0,5	5,283900
5,325167	0,5	5,476250
5,333500	0,5	5,660800
5,341833	0,5	5,874000
5,350167	0,5	6,147400
5,358500	0,5	6,512800
5,366833	0,5	7,022450
5,375167	0,5	7,664050
5,383500	0,5	8,471250
5,391833	0,5	9,416000
5,400167	0,5	10,434250
5,408500	0,5	11,434150
5,416833	0,5	12,317500
5,425167	0,5	12,987750
5,433500	0,5	13,381450
5,441833	0,5	13,473350
5,450167	0,5	13,263300
5,458500	0,5	12,790250
5,466833	0,5	12,105000
5,475167	0,5	11,281850
5,483500	0,5	10,351100
5,491833	0,5	9,405550
5,500167	0,5	8,488150
5,508500	0,5	7,656400
5,516833	0,5	6,928050
5,525167	0,5	6,311000
5,533500	0,5	5,813700
5,541833	0,5	5,438150
5,550167	0,5	5,155100
5,558500	0,5	4,961100
5,566833	0,5	4,830550
5,575167	0,5	4,746400
5,583500	0,5	4,709850
5,591833	0,5	4,709100
5,600167	0,5	4,753150
5,608500	0,5	4,816950
5,616833	0,5	4,915050
5,625167	0,5	5,031700
5,633500	0,5	5,133500
5,641833	0,5	5,227400
5,650167	0,5	5,301450
5,658500	0,5	5,339200
5,666833	0,5	5,348350
5,675167	0,5	5,304000
5,683500	0,5	5,241150
5,691833	0,5	5,158000
5,700167	0,5	5,076500
5,708500	0,5	4,992600
5,716833	0,5	4,925950
5,725167	0,5	4,861700
5,733500	0,5	4,815600
5,741833	0,5	4,780250
5,750167	0,5	4,744750
5,758500	0,5	4,706850
5,766833	0,5	4,684600
5,775167	0,5	4,644500
5,783500	0,5	4,601050
5,791833	0,5	4,561250
5,800167	0,5	4,522000
5,808500	0,5	4,493450
5,816833	0,5	4,464050
5,825167	0,5	4,439400
5,833500	0,5	4,427850
5,841833	0,5	4,438400
5,850167	0,5	4,461700
5,858500	0,5	4,510050
5,866833	0,5	4,564800
5,875167	0,5	4,630400
5,883500	0,5	4,686000
5,891833	0,5	4,723500
5,900167	0,5	4,725700
5,908500	0,5	4,700650
5,916833	0,5	4,648500
5,925167	0,5	4,567950
5,933500	0,5	4,479300
5,941833	0,5	4,390100
5,950167	0,5	4,316850
5,958500	0,5	4,262850
5,966833	0,5	4,227600
5,975167	0,5	4,215200
5,983500	0,5	4,240800
5,991833	0,5	4,294650
6,000167	0,5	4,393350
6,008500	0,5	4,510200
6,016833	0,5	4,649400
6,025167	0,5	4,774250
6,033500	0,5	4,881000
6,041833	0,5	4,941600
6,050167	0,5	4,953500
6,058500	0,5	4,920650
6,066833	0,5	4,838100
6,075167	0,5	4,708500
6,083500	0,5	4,573600
6,091833	0,5	4,433150
6,100167	0,5	4,308800
6,108500	0,5	4,204100
6,116833	0,5	4,115250
6,125167	0,5	4,048650
6,133500	0,5	4,013450
6,141833	0,5	4,002700
6,150167	0,5	4,015800
6,158500	0,5	4,058350
6,166833	0,5	4,128100
6,175167	0,5	4,238350
6,183500	0,5	4,389800
6,191833	0,5	4,585150
6,200167	0,5	4,824950
6,208500	0,5	5,090550
6,216833	0,5	5,335000
6,225167	0,5	5,532400
6,233500	0,5	5,663200
6,241833	0,5	5,701300
6,250167	0,5	5,666000
6,258500	0,5	5,561600
6,266833	0,5	5,412950
6,275167	0,5	5,261600
6,283500	0,5	5,118450
6,291833	0,5	4,997150
6,300167	0,5	4,883850
6,308500	0,5	4,778550
6,316833	0,5	4,662950
6,325167	0,5	4,535850
6,333500	0,5	4,405650
6,341833	0,5	4,264150
6,350167	0,5	4,137850
6,358500	0,5	4,033250
6,366833	0,5	3,928500
6,375167	0,5	3,846300
6,383500	0,5	3,781900
6,391833	0,5	3,729850
6,400167	0,5	3,698250
6,408500	0,5	3,658250
6,416833	0,5	3,631300
6,425167	0,5	3,598650
6,433500	0,5	3,578800
6,441833	0,5	3,557450
6,450167	0,5	3,541650
6,458500	0,5	3,527000
6,466833	0,5	3,518550
6,475167	0,5	3,527650
6,483500	0,5	3,537000
6,491833	0,5	3,558200
6,500167	0,5	3,595150
6,508500	0,5	3,656200
6,516833	0,5	3,727350
6,525167	0,5	3,824650
6,533500	0,5	3,945400
6,541833	0,5	4,082650
6,550167	0,5	4,211500
6,558500	0,5	4,315150
6,566833	0,5	4,378400
6,575167	0,5	4,403100
6,583500	0,5	4,376200
6,591833	0,5	4,314100
6,600167	0,5	4,223150
6,608500	0,5	4,130550
6,616833	0,5	4,044650
6,625167	0,5	3,991900
6,633500	0,5	3,973600
6,641833	0,5	3,987300
6,650167	0,5	4,050050
6,658500	0,5	4,149000
6,666833	0,5	4,280150
6,675167	0,5	4,461200
6,683500	0,5	4,704700
6,691833	0,5	5,033550
6,700167	0,5	5,467300
6,708500	0,5	6,024800
6,716833	0,5	6,748600
6,725167	0,5	7,617850
6,733500	0,5	8,596550
6,741833	0,5	9,592200
6,750167	0,5	10,498850
6,758500	0,5	11,191200
6,766833	0,5	11,574300
6,775167	0,5	11,596600
6,783500	0,5	11,275900
6,791833	0,5	10,694100
6,800167	0,5	10,000900
6,808500	0,5	9,288600
6,816833	0,5	8,692900
6,825167	0,5	8,284400
6,833500	0,5	8,089450
6,841833	0,5	8,100650
6,850167	0,5	8,269600
6,858500	0,5	8,586600
6,866833	0,5	9,011650
6,875167	0,5	9,581500
6,883500	0,5	10,351600
6,891833	0,5	11,477100
6,900167	0,5	13,221200
6,908500	0,5	15,977100
6,916833	0,5	20,202300
6,925167	0,5	26,264050
6,933500	0,5	34,178051
6,941833	0,5	43,487751
6,950167	0,5	53,076151
6,958500	0,5	61,476551
6,966833	0,5	67,353501
6,975167	0,5	69,919951
6,983500	0,5	69,100201
6,991833	0,5	65,382151
7,000167	0,5	59,494651
7,008500	0,5	52,197151
7,016833	0,5	44,206951
7,025167	0,5	36,228201
7,033500	0,5	28,880750
7,041833	0,5	22,610100
7,050167	0,5	17,618500
7,058500	0,5	13,875300
7,066833	0,5	11,209650
7,075167	0,5	9,375150
7,083500	0,5	8,140700
7,091833	0,5	7,306600
7,100167	0,5	6,701950
7,108500	0,5	6,218550
7,116833	0,5	5,814950
7,125167	0,5	5,456450
7,133500	0,5	5,154500
7,141833	0,5	4,907600
7,150167	0,5	4,705650
7,158500	0,5	4,554950
7,166833	0,5	4,440350
7,175167	0,5	4,345050
7,183500	0,5	4,260050
7,191833	0,5	4,185500
7,200167	0,5	4,116550
7,208500	0,5	4,059400
7,216833	0,5	4,021700
7,225167	0,5	3,997750
7,233500	0,5	3,978250
7,241833	0,5	3,978700
7,250167	0,5	3,963850
7,258500	0,5	3,952400
7,266833	0,5	3,937600
7,275167	0,5	3,927550
7,283500	0,5	3,916050
7,291833	0,5	3,897350
7,300167	0,5	3,869650
7,308500	0,5	3,832650
7,316833	0,5	3,780200
7,325167	0,5	3,721900
7,333500	0,5	3,660200
7,341833	0,5	3,608550
7,350167	0,5	3,568400
7,358500	0,5	3,544550
7,366833	0,5	3,522750
7,375167	0,5	3,501400
7,383500	0,5	3,481300
7,391833	0,5	3,468450
7,400167	0,5	3,449050
7,408500	0,5	3,435750
7,416833	0,5	3,439950
7,425167	0,5	3,474150
7,433500	0,5	3,545200
7,441833	0,5	3,649450
7,450167	0,5	3,785450
7,458500	0,5	3,921100
7,466833	0,5	4,024150
7,475167	0,5	4,073350
7,483500	0,5	4,064400
7,491833	0,5	4,022300
7,500167	0,5	3,979600
7,508500	0,5	3,961300
7,516833	0,5	3,976100
7,525167	0,5	4,011900
7,533500	0,5	4,047600
7,541833	0,5	4,064150
7,550167	0,5	4,049250
7,558500	0,5	4,012900
7,566833	0,5	3,965400
7,575167	0,5	3,909150
7,583500	0,5	3,853200
7,591833	0,5	3,774400
7,600167	0,5	3,675300
7,608500	0,5	3,575450
7,616833	0,5	3,470250
7,625167	0,5	3,375250
7,633500	0,5	3,295100
7,641833	0,5	3,236600
7,650167	0,5	3,202450
7,658500	0,5	3,187050
7,666833	0,5	3,188250
7,675167	0,5	3,212050
7,683500	0,5	3,251800
7,691833	0,5	3,306200
7,700167	0,5	3,360850
7,708500	0,5	3,424950
7,716833	0,5	3,494450
7,725167	0,5	3,568250
7,733500	0,5	3,642900
7,741833	0,5	3,703350
7,750167	0,5	3,754600
7,758500	0,5	3,789500
7,766833	0,5	3,808550
7,775167	0,5	3,824550
7,783500	0,5	3,849950
7,791833	0,5	3,887950
7,800167	0,5	3,934400
7,808500	0,5	3,958100
7,816833	0,5	3,938800
7,825167	0,5	3,866050
7,833500	0,5	3,765350
7,841833	0,5	3,659850
7,850167	0,5	3,612950
7,858500	0,5	3,664550
7,866833	0,5	3,855750
7,875167	0,5	4,194750
7,883500	0,5	4,640750
7,891833	0,5	5,107350
7,900167	0,5	5,478800
7,908500	0,5	5,653750
7,916833	0,5	5,588900
7,925167	0,5	5,320000
7,933500	0,5	4,942200
7,941833	0,5	4,560800
7,950167	0,5	4,243650
7,958500	0,5	4,024000
7,966833	0,5	3,882650
7,975167	0,5	3,801650
7,983500	0,5	3,744600
7,991833	0,5	3,686150
8,000167	0,5	3,628250
8,008500	0,5	3,585900
8,016833	0,5	3,580900
8,025167	0,5	3,635600
8,033500	0,5	3,754000
8,041833	0,5	3,935000
8,050167	0,5	4,141900
8,058500	0,5	4,341300
8,066833	0,5	4,480650
8,075167	0,5	4,531250
8,083500	0,5	4,489100
8,091833	0,5	4,346800
8,100167	0,5	4,138950
8,108500	0,5	3,912150
8,116833	0,5	3,715100
8,125167	0,5	3,588750
8,133500	0,5	3,536050
8,141833	0,5	3,556700
8,150167	0,5	3,645650
8,158500	0,5	3,806600
8,166833	0,5	4,037100
8,175167	0,5	4,342550
8,183500	0,5	4,711900
8,191833	0,5	5,137700
8,200167	0,5	5,626550
8,208500	0,5	6,164150
8,216833	0,5	6,757500
8,225167	0,5	7,430600
8,233500	0,5	8,197950
8,241833	0,5	9,082750
8,250167	0,5	10,102200
8,258500	0,5	11,249400
8,266833	0,5	12,509150
8,275167	0,5	13,861400
8,283500	0,5	15,250950
8,291833	0,5	16,633650
8,300167	0,5	17,947250
8,308500	0,5	19,145300
8,316833	0,5	20,165750
8,325167	0,5	20,947150
8,333500	0,5	21,448750
8,341833	0,5	21,655850
8,350167	0,5	21,544050
8,358500	0,5	21,131300
8,366833	0,5	20,439200
8,375167	0,5	19,508600
8,383500	0,5	18,406550
8,391833	0,5	17,208600
8,400167	0,5	15,995650
8,408500	0,5	14,843000
8,416833	0,5	13,816700
8,425167	0,5	12,988150
8,433500	0,5	12,383650
8,441833	0,5	12,075750
8,450167	0,5	12,141250
8,458500	0,5	12,764250
8,466833	0,5	14,300900
8,475167	0,5	17,370950
8,483500	0,5	22,864300
8,491833	0,5	31,624350
8,500167	0,5	43,879201
8,508500	0,5	58,595101
8,516833	0,5	73,489251
8,525167	0,5	85,625001
8,533500	0,5	92,560501
8,541833	0,5	93,060201
8,550167	0,5	87,451401
8,558500	0,5	77,231251
8,566833	0,5	64,534051
8,575167	0,5	51,392051
8,583500	0,5	39,357701
8,591833	0,5	29,354750
8,600167	0,5	21,670700
8,608500	0,5	16,134600
8,616833	0,5	12,359100
8,625167	0,5	9,913500
8,633500	0,5	8,397750
8,641833	0,5	7,515850
8,650167	0,5	7,027900
8,658500	0,5	6,771750
8,666833	0,5	6,620950
8,675167	0,5	6,493000
8,683500	0,5	6,334250
8,691833	0,5	6,126000
8,700167	0,5	5,853850
8,708500	0,5	5,533450
8,716833	0,5	5,197450
8,725167	0,5	4,875850
8,733500	0,5	4,587850
8,741833	0,5	4,357150
8,750167	0,5	4,188950
8,758500	0,5	4,095000
8,766833	0,5	4,072850
8,775167	0,5	4,111300
8,783500	0,5	4,198500
8,791833	0,5	4,298750
8,800167	0,5	4,371000
8,808500	0,5	4,371750
8,816833	0,5	4,283550
8,825167	0,5	4,138500
8,833500	0,5	3,954650
8,841833	0,5	3,776900
8,850167	0,5	3,624100
8,858500	0,5	3,495650
8,866833	0,5	3,397750
8,875167	0,5	3,315450
8,883500	0,5	3,246800
8,891833	0,5	3,189500
8,900167	0,5	3,142800
8,908500	0,5	3,111150
8,916833	0,5	3,094150
8,925167	0,5	3,094250
8,933500	0,5	3,106100
8,941833	0,5	3,136050
8,950167	0,5	3,151000
8,958500	0,5	3,161150
8,966833	0,5	3,151200
8,975167	0,5	3,126600
8,983500	0,5	3,102800
8,991833	0,5	3,081050
9,000167	0,5	3,062900
9,008500	0,5	3,042850
9,016833	0,5	3,024100
9,025167	0,5	2,990950
9,033500	0,5	2,950000
9,041833	0,5	2,910000
9,050167	0,5	2,874150
9,058500	0,5	2,844250
9,066833	0,5	2,830050
9,075167	0,5	2,828050
9,083500	0,5	2,845200
9,091833	0,5	2,874200
9,100167	0,5	2,916750
9,108500	0,5	2,959750
9,116833	0,5	2,991850
9,125167	0,5	3,010000
9,133500	0,5	3,007300
9,141833	0,5	2,983100
9,150167	0,5	2,944600
9,158500	0,5	2,903200
9,166833	0,5	2,857950
9,175167	0,5	2,819850
9,183500	0,5	2,787950
9,191833	0,5	2,765350
9,200167	0,5	2,746650
9,208500	0,5	2,735200
9,216833	0,5	2,721600
9,225167	0,5	2,713350
9,233500	0,5	2,703250
9,241833	0,5	2,697500
9,250167	0,5	2,707600
9,258500	0,5	2,729100
9,266833	0,5	2,766000
9,275167	0,5	2,805050
9,283500	0,5	2,841900
9,291833	0,5	2,863000
9,300167	0,5	2,859900
9,308500	0,5	2,844950
9,316833	0,5	2,820750
9,325167	0,5	2,801000
9,333500	0,5	2,786850
9,341833	0,5	2,782450
9,350167	0,5	2,790250
9,358500	0,5	2,791300
9,366833	0,5	2,787800
9,375167	0,5	2,771150
9,383500	0,5	2,753550
9,391833	0,5	2,737800
9,400167	0,5	2,726800
9,408500	0,5	2,724700
9,416833	0,5	2,721750
9,425167	0,5	2,717700
9,433500	0,5	2,709050
9,441833	0,5	2,695900
9,450167	0,5	2,673300
9,458500	0,5	2,662700
9,466833	0,5	2,657750
9,475167	0,5	2,656900
9,483500	0,5	2,662950
9,491833	0,5	2,673050
9,500167	0,5	2,687650
9,508500	0,5	2,698100
9,516833	0,5	2,708500
9,525167	0,5	2,721600
9,533500	0,5	2,738900
9,541833	0,5	2,768000
9,550167	0,5	2,803700
9,558500	0,5	2,834250
9,566833	0,5	2,857300
9,575167	0,5	2,856700
9,583500	0,5	2,834650
9,591833	0,5	2,795300
9,600167	0,5	2,738150
9,608500	0,5	2,683350
9,616833	0,5	2,639050
9,625167	0,5	2,612100
9,633500	0,5	2,613150
9,641833	0,5	2,642150
9,650167	0,5	2,695000
9,658500	0,5	2,752000
9,666833	0,5	2,803300
9,675167	0,5	2,837700
9,683500	0,5	2,848650
9,691833	0,5	2,832200
9,700167	0,5	2,788400
9,708500	0,5	2,730600
9,716833	0,5	2,662250
9,725167	0,5	2,589550
9,733500	0,5	2,527700
9,741833	0,5	2,473900
9,750167	0,5	2,440850
9,758500	0,5	2,425600
9,766833	0,5	2,430950
9,775167	0,5	2,451150
9,783500	0,5	2,479050
9,791833	0,5	2,509100
9,800167	0,5	2,539200
9,808500	0,5	2,558900
9,816833	0,5	2,569400
9,825167	0,5	2,579700
9,833500	0,5	2,591050
9,841833	0,5	2,609400
9,850167	0,5	2,639300
9,858500	0,5	2,679200
9,866833	0,5	2,730750
9,875167	0,5	2,795000
9,883500	0,5	2,859100
9,891833	0,5	2,923100
9,900167	0,5	2,979750
9,908500	0,5	3,026850
9,916833	0,5	3,059500
9,925167	0,5	3,077700
9,933500	0,5	3,077900
9,941833	0,5	3,059400
9,950167	0,5	3,019400
9,958500	0,5	2,964900
9,966833	0,5	2,898600
9,975167	0,5	2,826050
9,983500	0,5	2,754300
9,991833	0,5	2,683900
10,000167	0,5	2,616750
10,008500	0,5	2,546300
10,016833	0,5	2,481850
10,025167	0,5	2,427900
10,033500	0,5	2,384000
10,041833	0,5	2,347500
10,050167	0,5	2,334550
10,058500	0,5	2,328550
10,066833	0,5	2,323650
10,075167	0,5	2,326000
10,083500	0,5	2,334900
10,091833	0,5	2,359650
10,100167	0,5	2,387850
10,108500	0,5	2,425300
10,116833	0,5	2,464350
10,125167	0,5	2,501750
10,133500	0,5	2,543400
10,141833	0,5	2,573900
10,150167	0,5	2,601050
10,158500	0,5	2,608650
10,166833	0,5	2,601050
10,175167	0,5	2,578950
10,183500	0,5	2,540600
10,191833	0,5	2,494400
10,200167	0,5	2,450000
10,208500	0,5	2,412050
10,216833	0,5	2,385400
10,225167	0,5	2,372600
10,233500	0,5	2,379900
10,241833	0,5	2,407150
10,250167	0,5	2,438400
10,258500	0,5	2,468100
10,266833	0,5	2,480900
10,275167	0,5	2,474650
10,283500	0,5	2,446500
10,291833	0,5	2,414200
10,300167	0,5	2,378850
10,308500	0,5	2,347900
10,316833	0,5	2,323300
10,325167	0,5	2,310900
10,333500	0,5	2,307050
10,341833	0,5	2,315600
10,350167	0,5	2,351650
10,358500	0,5	2,409450
10,366833	0,5	2,485700
10,375167	0,5	2,588500
10,383500	0,5	2,699650
10,391833	0,5	2,807400
10,400167	0,5	2,892400
10,408500	0,5	2,934550
10,416833	0,5	2,934250
10,425167	0,5	2,899500
10,433500	0,5	2,842000
10,441833	0,5	2,775300
10,450167	0,5	2,721700
10,458500	0,5	2,679600
10,466833	0,5	2,651250
10,475167	0,5	2,637400
10,483500	0,5	2,644900
10,491833	0,5	2,676100
10,500167	0,5	2,759150
10,508500	0,5	2,900700
10,516833	0,5	3,119700
10,525167	0,5	3,425650
10,533500	0,5	3,796550
10,541833	0,5	4,201550
10,550167	0,5	4,576050
10,558500	0,5	4,884050
10,566833	0,5	5,084650
10,575167	0,5	5,186950
10,583500	0,5	5,193050
10,591833	0,5	5,132450
10,600167	0,5	5,030550
10,608500	0,5	4,905800
10,616833	0,5	4,766750
10,625167	0,5	4,606950
10,633500	0,5	4,419600
10,641833	0,5	4,227250
10,650167	0,5	4,021950
10,658500	0,5	3,814400
10,666833	0,5	3,612900
10,675167	0,5	3,420750
10,683500	0,5	3,248100
10,691833	0,5	3,092900
10,700167	0,5	2,952100
10,708500	0,5	2,826400
10,716833	0,5	2,725150
10,725167	0,5	2,647550
10,733500	0,5	2,596950
10,741833	0,5	2,585600
10,750167	0,5	2,614050
10,758500	0,5	2,669900
10,766833	0,5	2,749000
10,775167	0,5	2,828350
10,783500	0,5	2,886700
10,791833	0,5	2,921700
10,800167	0,5	2,918200
10,808500	0,5	2,885700
10,816833	0,5	2,828050
10,825167	0,5	2,758100
10,833500	0,5	2,686500
10,841833	0,5	2,617100
10,850167	0,5	2,559050
10,858500	0,5	2,517850
10,866833	0,5	2,494450
10,875167	0,5	2,496800
10,883500	0,5	2,513050
10,891833	0,5	2,536050
10,900167	0,5	2,557600
10,908500	0,5	2,564850
10,916833	0,5	2,555250
10,925167	0,5	2,528450
10,933500	0,5	2,497850
10,941833	0,5	2,476100
10,950167	0,5	2,458150
10,958500	0,5	2,453100
10,966833	0,5	2,449800
10,975167	0,5	2,450000
10,983500	0,5	2,449150
10,991833	0,5	2,442300
11,000167	0,5	2,437100
11,008500	0,5	2,439050
11,016833	0,5	2,439500
11,025167	0,5	2,447750
11,033500	0,5	2,452150
11,041833	0,5	2,454500
11,050167	0,5	2,455350
11,058500	0,5	2,455050
11,066833	0,5	2,460950
11,075167	0,5	2,471950
11,083500	0,5	2,499650
11,091833	0,5	2,541000
11,100167	0,5	2,599700
11,108500	0,5	2,678100
11,116833	0,5	2,778300
11,125167	0,5	2,901100
11,133500	0,5	3,043700
11,141833	0,5	3,183100
11,150167	0,5	3,289650
11,158500	0,5	3,341450
11,166833	0,5	3,314000
11,175167	0,5	3,211550
11,183500	0,5	3,056400
11,191833	0,5	2,882500
11,200167	0,5	2,725350
11,208500	0,5	2,615800
11,216833	0,5	2,566850
11,225167	0,5	2,570350
11,233500	0,5	2,627350
11,241833	0,5	2,716450
11,250167	0,5	2,787700
11,258500	0,5	2,842850
11,266833	0,5	2,884650
11,275167	0,5	2,942900
11,283500	0,5	3,005250
11,291833	0,5	3,112100
11,300167	0,5	3,301250
11,308500	0,5	3,825350
11,316833	0,5	4,835550
11,325167	0,5	6,051900
11,333500	0,5	6,845200
11,341833	0,5	6,972500
11,350167	0,5	6,561600
11,358500	0,5	5,871550
11,366833	0,5	4,752500
11,375167	0,5	3,577450
11,383500	0,5	2,528700
11,391833	0,5	1,851200
11,400167	0,5	1,451200
11,408500	0,5	1,191350
11,416833	0,5	1,012650
11,425167	0,5	0,884900
11,433500	0,5	0,782150
11,441833	0,5	0,704600
11,450167	0,5	0,647600
11,458500	0,5	0,602750
11,466833	0,5	0,568600
11,475167	0,5	0,536850
11,483500	0,5	0,515350
11,491833	0,5	0,489750
11,500167	0,5	0,469800
11,508500	0,5	0,449900
11,516833	0,5	0,424950
11,525167	0,5	0,404650
11,533500	0,5	0,377100
11,541833	0,5	0,351350
11,550167	0,5	0,326600
11,558500	0,5	0,297050
11,566833	0,5	0,277300
11,575167	0,5	0,255900
11,583500	0,5	0,236050
11,591833	0,5	0,216900
11,600167	0,5	0,200100
11,608500	0,5	0,184100
11,616833	0,5	0,169500
11,625167	0,5	0,156200
11,633500	0,5	0,136400
11,641833	0,5	0,121450
11,650167	0,5	0,107450
11,658500	0,5	0,095150
11,666833	0,5	0,076250
11,675167	0,5	0,075050
11,683500	0,5	0,061900
11,691833	0,5	0,050550
11,700167	0,5	0,042600
11,708500	0,5	0,034300
11,716833	0,5	0,038800
11,725167	0,5	0,047950
11,733500	0,5	0,055500
11,741833	0,5	0,071550
11,750167	0,5	0,091850
11,758500	0,5	0,117350
11,766833	0,5	0,142350
11,775167	0,5	0,175550
11,783500	0,5	0,206550
11,791833	0,5	0,235050
11,800167	0,5	0,268750
11,808500	0,5	0,293800
11,816833	0,5	0,313900
11,825167	0,5	0,334600
11,833500	0,5	0,341400
11,841833	0,5	0,342500
11,850167	0,5	0,336100
11,858500	0,5	0,325200
11,866833	0,5	0,319300
11,875167	0,5	0,307950
11,883500	0,5	0,293500
11,891833	0,5	0,276750
11,900167	0,5	0,264100
11,908500	0,5	0,254250
11,916833	0,5	0,244600
11,925167	0,5	0,239150
11,933500	0,5	0,224750
11,941833	0,5	0,221750
11,950167	0,5	0,219800
11,958500	0,5	0,213000
11,966833	0,5	0,210650
11,975167	0,5	0,211050
11,983500	0,5	0,205800
11,991833	0,5	0,207700
12,000167	0,5	0,200650
12,008500	0,5	0,201100
12,016833	0,5	0,204750
12,025167	0,5	0,211250
12,033500	0,5	0,212850
12,041833	0,5	0,221750
12,050167	0,5	0,227100
12,058500	0,5	0,235550
12,066833	0,5	0,244550
12,075167	0,5	0,251650
12,083500	0,5	0,263400
12,091833	0,5	0,274700
12,100167	0,5	0,294950
12,108500	0,5	0,306900
12,116833	0,5	0,331450
12,125167	0,5	0,354850
12,133500	0,5	0,377650
12,141833	0,5	0,401350
12,150167	0,5	0,424150
12,158500	0,5	0,461050
12,166833	0,5	0,499350
12,175167	0,5	0,532800
12,183500	0,5	0,568900
12,191833	0,5	0,605750
12,200167	0,5	0,643600
12,208500	0,5	0,677750
12,216833	0,5	0,713450
12,225167	0,5	0,742950
12,233500	0,5	0,776450
12,241833	0,5	0,810100
12,250167	0,5	0,843050
12,258500	0,5	0,868000
12,266833	0,5	0,900450
12,275167	0,5	0,927900
12,283500	0,5	0,949250
12,291833	0,5	0,968500
12,300167	0,5	0,987250
12,308500	0,5	1,010800
12,316833	0,5	1,030450
12,325167	0,5	1,048600
12,333500	0,5	1,064700
12,341833	0,5	1,080000
12,350167	0,5	1,096250
12,358500	0,5	1,109150
12,366833	0,5	1,124250
12,375167	0,5	1,134350
12,383500	0,5	1,146350
12,391833	0,5	1,157700
12,400167	0,5	1,162600
12,408500	0,5	1,172300
12,416833	0,5	1,184950
12,425167	0,5	1,187800
12,433500	0,5	1,191400
12,441833	0,5	1,194500
12,450167	0,5	1,203600
12,458500	0,5	1,212500
12,466833	0,5	1,221300
12,475167	0,5	1,227350
12,483500	0,5	1,233050
12,491833	0,5	1,237300
12,500167	0,5	1,243700
12,508500	0,5	1,247350
12,516833	0,5	1,252850
12,525167	0,5	1,249300
12,533500	0,5	1,253650
12,541833	0,5	1,257150
12,550167	0,5	1,255650
12,558500	0,5	1,257650
12,566833	0,5	1,259050
12,575167	0,5	1,257500
12,583500	0,5	1,253100
12,591833	0,5	1,246600
12,600167	0,5	1,250450
12,608500	0,5	1,247950
12,616833	0,5	1,252800
12,625167	0,5	1,248350
12,633500	0,5	1,246200
12,641833	0,5	1,248750
12,650167	0,5	1,249400
12,658500	0,5	1,248050
12,666833	0,5	1,246850
12,675167	0,5	1,242900
12,683500	0,5	1,246450
12,691833	0,5	1,243600
12,700167	0,5	1,237650
12,708500	0,5	1,243500
12,716833	0,5	1,242150
12,725167	0,5	1,238550
12,733500	0,5	1,234200
12,741833	0,5	1,230100
12,750167	0,5	1,232100
12,758500	0,5	1,237000
12,766833	0,5	1,239700
12,775167	0,5	1,243550
12,783500	0,5	1,240550
12,791833	0,5	1,245950
12,800167	0,5	1,246800
12,808500	0,5	1,250350
12,816833	0,5	1,250250
12,825167	0,5	1,249800
12,833500	0,5	1,254350
12,841833	0,5	1,250100
12,850167	0,5	1,250500
12,858500	0,5	1,254100
12,866833	0,5	1,251450
12,875167	0,5	1,252400
12,883500	0,5	1,249100
12,891833	0,5	1,246050
12,900167	0,5	1,250450
12,908500	0,5	1,255300
12,916833	0,5	1,259600
12,925167	0,5	1,257200
12,933500	0,5	1,257600
12,941833	0,5	1,259000
12,950167	0,5	1,263800
12,958500	0,5	1,268200
12,966833	0,5	1,266600
12,975167	0,5	1,269800
12,983500	0,5	1,272900
12,991833	0,5	1,271750
13,000167	0,5	1,277450
13,008500	0,5	1,285200
13,016833	0,5	1,285750
13,025167	0,5	1,283200
13,033500	0,5	1,279750
13,041833	0,5	1,288350
13,050167	0,5	1,289500
13,058500	0,5	1,299150
13,066833	0,5	1,300750
13,075167	0,5	1,307350
13,083500	0,5	1,309450
13,091833	0,5	1,311050
13,100167	0,5	1,312150
13,108500	0,5	1,314150
13,116833	0,5	1,312800
13,125167	0,5	1,319250
13,133500	0,5	1,319300
13,141833	0,5	1,316900
13,150167	0,5	1,326450
13,158500	0,5	1,332700
13,166833	0,5	1,338100
13,175167	0,5	1,339150
13,183500	0,5	1,341000
13,191833	0,5	1,352000
13,200167	0,5	1,360750
13,208500	0,5	1,370100
13,216833	0,5	1,376100
13,225167	0,5	1,380300
13,233500	0,5	1,390300
13,241833	0,5	1,402850
13,250167	0,5	1,415800
13,258500	0,5	1,416850
13,266833	0,5	1,426950
13,275167	0,5	1,435350
13,283500	0,5	1,436600
13,291833	0,5	1,437100
13,300167	0,5	1,450250
13,308500	0,5	1,455650
13,316833	0,5	1,463750
13,325167	0,5	1,471000
13,333500	0,5	1,478350
13,341833	0,5	1,497300
13,350167	0,5	1,502300
13,358500	0,5	1,505650
13,366833	0,5	1,502000
13,375167	0,5	1,497300
13,383500	0,5	1,491650
13,391833	0,5	1,486800
13,400167	0,5	1,479650
13,408500	0,5	1,477650
13,416833	0,5	1,482850
13,425167	0,5	1,491800
13,433500	0,5	1,487650
13,441833	0,5	1,503850
13,450167	0,5	1,519150
13,458500	0,5	1,532600
13,466833	0,5	1,543850
13,475167	0,5	1,560050
13,483500	0,5	1,588850
13,491833	0,5	1,623300
13,500167	0,5	1,652850
13,508500	0,5	1,676950
13,516833	0,5	1,692550
13,525167	0,5	1,684900
13,533500	0,5	1,673050
13,541833	0,5	1,652200
13,550167	0,5	1,633850
13,558500	0,5	1,610600
13,566833	0,5	1,601400
13,575167	0,5	1,595650
13,583500	0,5	1,585300
13,591833	0,5	1,597600
13,600167	0,5	1,609000
13,608500	0,5	1,628550
13,616833	0,5	1,646850
13,625167	0,5	1,663350
13,633500	0,5	1,695750
13,641833	0,5	1,737900
13,650167	0,5	1,759600
13,658500	0,5	1,769700
13,666833	0,5	1,767600
13,675167	0,5	1,752450
13,683500	0,5	1,729050
13,691833	0,5	1,697600
13,700167	0,5	1,667250
13,708500	0,5	1,643250
13,716833	0,5	1,623400
13,725167	0,5	1,615900
13,733500	0,5	1,615300
13,741833	0,5	1,640400
13,750167	0,5	1,654550
13,758500	0,5	1,678400
13,766833	0,5	1,688500
13,775167	0,5	1,691550
13,783500	0,5	1,693450
13,791833	0,5	1,687850
13,800167	0,5	1,672900
13,808500	0,5	1,656000
13,816833	0,5	1,631200
13,825167	0,5	1,607700
13,833500	0,5	1,595650
13,841833	0,5	1,586250
13,850167	0,5	1,580900
13,858500	0,5	1,578450
13,866833	0,5	1,582550
13,875167	0,5	1,574300
13,883500	0,5	1,576650
13,891833	0,5	1,576800
13,900167	0,5	1,568550
13,908500	0,5	1,556300
13,916833	0,5	1,540700
13,925167	0,5	1,520650
13,933500	0,5	1,515000
13,941833	0,5	1,503850
13,950167	0,5	1,499000
13,958500	0,5	1,489550
13,966833	0,5	1,483350
13,975167	0,5	1,472850
13,983500	0,5	1,465450
13,991833	0,5	1,457950
14,000167	0,5	1,447500
14,008500	0,5	1,445400
14,016833	0,5	1,434400
14,025167	0,5	1,415250
14,033500	0,5	1,412550
14,041833	0,5	1,404400
14,050167	0,5	1,397500
14,058500	0,5	1,388450
14,066833	0,5	1,374700
14,075167	0,5	1,372650
14,083500	0,5	1,362700
14,091833	0,5	1,364300
14,100167	0,5	1,354500
14,108500	0,5	1,350850
14,116833	0,5	1,342950
14,125167	0,5	1,334600
14,133500	0,5	1,327350
14,141833	0,5	1,318950
14,150167	0,5	1,313250
14,158500	0,5	1,311100
14,166833	0,5	1,300500
14,175167	0,5	1,292250
14,183500	0,5	1,292100
14,191833	0,5	1,289800
14,200167	0,5	1,286850
14,208500	0,5	1,275250
14,216833	0,5	1,269500
14,225167	0,5	1,267900
14,233500	0,5	1,270600
14,241833	0,5	1,269600
14,250167	0,5	1,266050
14,258500	0,5	1,260800
14,266833	0,5	1,257300
14,275167	0,5	1,252150
14,283500	0,5	1,249250
14,291833	0,5	1,244300
14,300167	0,5	1,237600
14,308500	0,5	1,238050
14,316833	0,5	1,226000
14,325167	0,5	1,216950
14,333500	0,5	1,218250
14,341833	0,5	1,210800
14,350167	0,5	1,199950
14,358500	0,5	1,182200
14,366833	0,5	1,177050
14,375167	0,5	1,173650
14,383500	0,5	1,168150
14,391833	0,5	1,165650
14,400167	0,5	1,163900
14,408500	0,5	1,166400
14,416833	0,5	1,155200
14,425167	0,5	1,153200
14,433500	0,5	1,146150
14,441833	0,5	1,137000
14,450167	0,5	1,130500
14,458500	0,5	1,127050
14,466833	0,5	1,106550
14,475167	0,5	1,109050
14,483500	0,5	1,103000
14,491833	0,5	1,106950
14,500167	0,5	1,093150
14,508500	0,5	1,078750
14,516833	0,5	1,076000
14,525167	0,5	1,072800
14,533500	0,5	1,068950
14,541833	0,5	1,066050
14,550167	0,5	1,064250
14,558500	0,5	1,065450
14,566833	0,5	1,064450
14,575167	0,5	1,059900
14,583500	0,5	1,061250
14,591833	0,5	1,054400
14,600167	0,5	1,054500
14,608500	0,5	1,047900
14,616833	0,5	1,031200
14,625167	0,5	1,034850
14,633500	0,5	1,027150
14,641833	0,5	1,021850
14,650167	0,5	1,008050
14,658500	0,5	0,992950
14,666833	0,5	0,992650
14,675167	0,5	0,990800
14,683500	0,5	0,985750
14,691833	0,5	0,979600
14,700167	0,5	0,978000
14,708500	0,5	0,972300
14,716833	0,5	0,969200
14,725167	0,5	0,966150
14,733500	0,5	0,958350
14,741833	0,5	0,955600
14,750167	0,5	0,950650
14,758500	0,5	0,949350
14,766833	0,5	0,938750
14,775167	0,5	0,939300
14,783500	0,5	0,927950
14,791833	0,5	0,921800
14,800167	0,5	0,904950
14,808500	0,5	0,892000
14,816833	0,5	0,886550
14,825167	0,5	0,881950
14,833500	0,5	0,878750
14,841833	0,5	0,878200
14,850167	0,5	0,875100
14,858500	0,5	0,877250
14,866833	0,5	0,872600
14,875167	0,5	0,871100
14,883500	0,5	0,869100
14,891833	0,5	0,869400
14,900167	0,5	0,867150
14,908500	0,5	0,857550
14,916833	0,5	0,858050
14,925167	0,5	0,860200
14,933500	0,5	0,852400
14,941833	0,5	0,844200
14,950167	0,5	0,833200
14,958500	0,5	0,827850
14,966833	0,5	0,830100
14,975167	0,5	0,825550
14,983500	0,5	0,827150
14,991833	0,5	0,818100
15,000167	0,5	0,816850
15,008500	0,5	0,811150
15,016833	0,5	0,806900
15,025167	0,5	0,798500
15,033500	0,5	0,800000
15,041833	0,5	0,805500
15,050167	0,5	0,793800
15,058500	0,5	0,786350
15,066833	0,5	0,791950
15,075167	0,5	0,788550
15,083500	0,5	0,783150
15,091833	0,5	0,775500
15,100167	0,5	0,765200
15,108500	0,5	0,764500
15,116833	0,5	0,755600
15,125167	0,5	0,759250
15,133500	0,5	0,757600
15,141833	0,5	0,758300
15,150167	0,5	0,753200
15,158500	0,5	0,754100
15,166833	0,5	0,750600
15,175167	0,5	0,746750
15,183500	0,5	0,745300
15,191833	0,5	0,745450
15,200167	0,5	0,732150
15,208500	0,5	0,730350
15,216833	0,5	0,726800
15,225167	0,5	0,720250
15,233500	0,5	0,715600
15,241833	0,5	0,697000
15,250167	0,5	0,695900
15,258500	0,5	0,693750
15,266833	0,5	0,696150
15,275167	0,5	0,691150
15,283500	0,5	0,691250
15,291833	0,5	0,687900
15,300167	0,5	0,687800
15,308500	0,5	0,684500
15,316833	0,5	0,677300
15,325167	0,5	0,675100
15,333500	0,5	0,674050
15,341833	0,5	0,675100
15,350167	0,5	0,661550
15,358500	0,5	0,666650
15,366833	0,5	0,667650
15,375167	0,5	0,665550
15,383500	0,5	0,660450
15,391833	0,5	0,647000
15,400167	0,5	0,651200
15,408500	0,5	0,651800
15,416833	0,5	0,638100
15,425167	0,5	0,635200
15,433500	0,5	0,630650
15,441833	0,5	0,628350
15,450167	0,5	0,620600
15,458500	0,5	0,623550
15,466833	0,5	0,614250
15,475167	0,5	0,606150
15,483500	0,5	0,607900
15,491833	0,5	0,605450
15,500167	0,5	0,590500
15,508500	0,5	0,591950
15,516833	0,5	0,581550
15,525167	0,5	0,576950
15,533500	0,5	0,560950
15,541833	0,5	0,542350
15,550167	0,5	0,543700
15,558500	0,5	0,534550
15,566833	0,5	0,533300
15,575167	0,5	0,529050
15,583500	0,5	0,532450
15,591833	0,5	0,529500
15,600167	0,5	0,535000
15,608500	0,5	0,536700
15,616833	0,5	0,538350
15,625167	0,5	0,543150
15,633500	0,5	0,556850
15,641833	0,5	0,557700
15,650167	0,5	0,556800
15,658500	0,5	0,568700
15,666833	0,5	0,570650
15,675167	0,5	0,566950
15,683500	0,5	0,561750
15,691833	0,5	0,557600
15,700167	0,5	0,561150
15,708500	0,5	0,561650
15,716833	0,5	0,553600
15,725167	0,5	0,551550
15,733500	0,5	0,545050
15,741833	0,5	0,539800
15,750167	0,5	0,530800
15,758500	0,5	0,524150
15,766833	0,5	0,513000
15,775167	0,5	0,506100
15,783500	0,5	0,502800
15,791833	0,5	0,489050
15,800167	0,5	0,486650
15,808500	0,5	0,486800
15,816833	0,5	0,479800
15,825167	0,5	0,472350
15,833500	0,5	0,465350
15,841833	0,5	0,458950
15,850167	0,5	0,459650
15,858500	0,5	0,459050
15,866833	0,5	0,445400
15,875167	0,5	0,440500
15,883500	0,5	0,430700
15,891833	0,5	0,423600
15,900167	0,5	0,415200
15,908500	0,5	0,402750
15,916833	0,5	0,391550
15,925167	0,5	0,389250
15,933500	0,5	0,382250
15,941833	0,5	0,374150
15,950167	0,5	0,377150
15,958500	0,5	0,379750
15,966833	0,5	0,374700
15,975167	0,5	0,361000
15,983500	0,5	0,349850
15,991833	0,5	0,341550
16,000167	0,5	0,346550
16,008500	0,5	0,338950
16,016833	0,5	0,339800
16,025167	0,5	0,331950
16,033500	0,5	0,330750
16,041833	0,5	0,330900
16,050167	0,5	0,327150
16,058500	0,5	0,325750
16,066833	0,5	0,322700
16,075167	0,5	0,325950
16,083500	0,5	0,306750
16,091833	0,5	0,307250
16,100167	0,5	0,307600
16,108500	0,5	0,305250
16,116833	0,5	0,292500
16,125167	0,5	0,277750
16,133500	0,5	0,274450
16,141833	0,5	0,276600
16,150167	0,5	0,268500
16,158500	0,5	0,267800
16,166833	0,5	0,260700
16,175167	0,5	0,263500
16,183500	0,5	0,256300
16,191833	0,5	0,258250
16,200167	0,5	0,253000
16,208500	0,5	0,248600
16,216833	0,5	0,252550
16,225167	0,5	0,253750
16,233500	0,5	0,240300
16,241833	0,5	0,250350
16,250167	0,5	0,252500
16,258500	0,5	0,251350
16,266833	0,5	0,246900
16,275167	0,5	0,230600
16,283500	0,5	0,236250
16,291833	0,5	0,242300
16,300167	0,5	0,249600
16,308500	0,5	0,252400
16,316833	0,5	0,263550
16,325167	0,5	0,274300
16,333500	0,5	0,283000
16,341833	0,5	0,290850
16,350167	0,5	0,296150
16,358500	0,5	0,295400
16,366833	0,5	0,296200
16,375167	0,5	0,294900
16,383500	0,5	0,286850
16,391833	0,5	0,295000
16,400167	0,5	0,297550
16,408500	0,5	0,296150
16,416833	0,5	0,286700
16,425167	0,5	0,278000
16,433500	0,5	0,279200
16,441833	0,5	0,279600
16,450167	0,5	0,271950
16,458500	0,5	0,270400
16,466833	0,5	0,267200
16,475167	0,5	0,276250
16,483500	0,5	0,283850
16,491833	0,5	0,299350
16,500167	0,5	0,319400
16,508500	0,5	0,337050
16,516833	0,5	0,364800
16,525167	0,5	0,384750
16,533500	0,5	0,395100
16,541833	0,5	0,426300
16,550167	0,5	0,436550
16,558500	0,5	0,436450
16,566833	0,5	0,432150
16,575167	0,5	0,416550
16,583500	0,5	0,424250
16,591833	0,5	0,412050
16,600167	0,5	0,407550
16,608500	0,5	0,392300
16,616833	0,5	0,387050
16,625167	0,5	0,379650
16,633500	0,5	0,374800
16,641833	0,5	0,368400
16,650167	0,5	0,366000
16,658500	0,5	0,374300
16,666833	0,5	0,384500
16,675167	0,5	0,379500
16,683500	0,5	0,397950
16,691833	0,5	0,409300
16,700167	0,5	0,419650
16,708500	0,5	0,416200
16,716833	0,5	0,412200
16,725167	0,5	0,420900
16,733500	0,5	0,427750
16,741833	0,5	0,440500
16,750167	0,5	0,442950
16,758500	0,5	0,443950
16,766833	0,5	0,446950
16,775167	0,5	0,449450
16,783500	0,5	0,447750
16,791833	0,5	0,444500
16,800167	0,5	0,441850
16,808500	0,5	0,445600
16,816833	0,5	0,441150
16,825167	0,5	0,450650
16,833500	0,5	0,476250
16,841833	0,5	0,511950
16,850167	0,5	0,554500
16,858500	0,5	0,606100
16,866833	0,5	0,658500
16,875167	0,5	0,717800
16,883500	0,5	0,766750
16,891833	0,5	0,792650
16,900167	0,5	0,791450
16,908500	0,5	0,773900
16,916833	0,5	0,735400
16,925167	0,5	0,705250
16,933500	0,5	0,673900
16,941833	0,5	0,643700
16,950167	0,5	0,616450
16,958500	0,5	0,587100
16,966833	0,5	0,549100
16,975167	0,5	0,506250
16,983500	0,5	0,471150
16,991833	0,5	0,422050
17,000167	0,5	0,377700
17,008500	0,5	0,318150
17,016833	0,5	0,290850
17,025167	0,5	0,269300
17,033500	0,5	0,260300
17,041833	0,5	0,249600
17,050167	0,5	0,250850
17,058500	0,5	0,247950
17,066833	0,5	0,245950
17,075167	0,5	0,241450
17,083500	0,5	0,235600
17,091833	0,5	0,228800
17,100167	0,5	0,219900
17,108500	0,5	0,214950
17,116833	0,5	0,183900
17,125167	0,5	0,187200
17,133500	0,5	0,186250
17,141833	0,5	0,173550
17,150167	0,5	0,162350
17,158500	0,5	0,145150
17,166833	0,5	0,146500
17,175167	0,5	0,147800
17,183500	0,5	0,145100
17,191833	0,5	0,150750
17,200167	0,5	0,151600
17,208500	0,5	0,159400
17,216833	0,5	0,163850
17,225167	0,5	0,171150
17,233500	0,5	0,175300
17,241833	0,5	0,176250
17,250167	0,5	0,186500
17,258500	0,5	0,186450
17,266833	0,5	0,184300
17,275167	0,5	0,206900
17,283500	0,5	0,224350
17,291833	0,5	0,227950
17,300167	0,5	0,227350
17,308500	0,5	0,210800
17,316833	0,5	0,206200
17,325167	0,5	0,183000
17,333500	0,5	0,156950
17,341833	0,5	0,116750
17,350167	0,5	0,094050
17,358500	0,5	0,059150
17,366833	0,5	0,036100
17,375167	0,5	0,019700
17,383500	0,5	0,002100
17,391833	0,5	-0,004900
17,400167	0,5	-0,009750
17,408500	0,5	-0,028300
17,416833	0,5	-0,031050
17,425167	0,5	-0,029350
17,433500	0,5	-0,039050
17,441833	0,5	-0,045850
17,450167	0,5	-0,061300
17,458500	0,5	-0,070700
17,466833	0,5	-0,075200
17,475167	0,5	-0,078250
17,483500	0,5	-0,088250
17,491833	0,5	-0,090750
17,500167	0,5	-0,097100
17,508500	0,5	-0,102350
17,516833	0,5	-0,112350
17,525167	0,5	-0,113400
17,533500	0,5	-0,119150
17,541833	0,5	-0,128400
17,550167	0,5	-0,123200
17,558500	0,5	-0,144050
17,566833	0,5	-0,141600
17,575167	0,5	-0,142250
17,583500	0,5	-0,147800
17,591833	0,5	-0,160900
17,600167	0,5	-0,176150
17,608500	0,5	-0,190450
17,616833	0,5	-0,182800
17,625167	0,5	-0,189150
17,633500	0,5	-0,191050
17,641833	0,5	-0,196800
17,650167	0,5	-0,192850
17,658500	0,5	-0,202050
17,666833	0,5	-0,198750
17,675167	0,5	-0,205750
17,683500	0,5	-0,209300
17,691833	0,5	-0,208500
17,700167	0,5	-0,205900
17,708500	0,5	-0,221950
17,716833	0,5	-0,214750
17,725167	0,5	-0,218050
17,733500	0,5	-0,224050
17,741833	0,5	-0,237350
17,750167	0,5	-0,250700
17,758500	0,5	-0,247150
17,766833	0,5	-0,249350
17,775167	0,5	-0,247800
17,783500	0,5	-0,246000
17,791833	0,5	-0,245050
17,800167	0,5	-0,245350
17,808500	0,5	-0,238650
17,816833	0,5	-0,232850
17,825167	0,5	-0,225100
17,833500	0,5	-0,220200
17,841833	0,5	-0,214650
17,850167	0,5	-0,227850
17,858500	0,5	-0,230700
17,866833	0,5	-0,240800
17,875167	0,5	-0,254350
17,883500	0,5	-0,278800
17,891833	0,5	-0,307100
17,900167	0,5	-0,330800
17,908500	0,5	-0,349900
17,916833	0,5	-0,356850
17,925167	0,5	-0,365100
17,933500	0,5	-0,367350
17,941833	0,5	-0,375250
17,950167	0,5	-0,376800
17,958500	0,5	-0,382550
17,966833	0,5	-0,383100
17,975167	0,5	-0,389550
17,983500	0,5	-0,383250
17,991833	0,5	-0,389600
18,000167	0,5	-0,395850
18,008500	0,5	-0,395900
18,016833	0,5	-0,391500
18,025167	0,5	-0,395850
18,033500	0,5	-0,402800
18,041833	0,5	-0,420300
18,050167	0,5	-0,426450
18,058500	0,5	-0,431150
18,066833	0,5	-0,436050
18,075167	0,5	-0,441450
18,083500	0,5	-0,446550
18,091833	0,5	-0,449200
18,100167	0,5	-0,453450
18,108500	0,5	-0,457650
18,116833	0,5	-0,467050
18,125167	0,5	-0,464850
18,133500	0,5	-0,464800
18,141833	0,5	-0,466850
18,150167	0,5	-0,476350
18,158500	0,5	-0,469150
18,166833	0,5	-0,469250
18,175167	0,5	-0,474450
18,183500	0,5	-0,488400
18,191833	0,5	-0,490850
18,200167	0,5	-0,489450
18,208500	0,5	-0,494900
18,216833	0,5	-0,497450
18,225167	0,5	-0,495500
18,233500	0,5	-0,496650
18,241833	0,5	-0,499300
18,250167	0,5	-0,499250
18,258500	0,5	-0,498550
18,266833	0,5	-0,493550
18,275167	0,5	-0,496450
18,283500	0,5	-0,487900
18,291833	0,5	-0,501200
18,300167	0,5	-0,493700
18,308500	0,5	-0,493900
18,316833	0,5	-0,492400
18,325167	0,5	-0,495950
18,333500	0,5	-0,504350
18,341833	0,5	-0,502800
18,350167	0,5	-0,493200
18,358500	0,5	-0,498850
18,366833	0,5	-0,493500
18,375167	0,5	-0,493900
18,383500	0,5	-0,491950
18,391833	0,5	-0,487500
18,400167	0,5	-0,488000
18,408500	0,5	-0,489950
18,416833	0,5	-0,488750
18,425167	0,5	-0,472400
18,433500	0,5	-0,469100
18,441833	0,5	-0,480350
18,450167	0,5	-0,473350
18,458500	0,5	-0,470350
18,466833	0,5	-0,473450
18,475167	0,5	-0,470350
18,483500	0,5	-0,490150
18,491833	0,5	-0,478850
18,500167	0,5	-0,476150
18,508500	0,5	-0,472950
18,516833	0,5	-0,473450
18,525167	0,5	-0,466400
18,533500	0,5	-0,466150
18,541833	0,5	-0,459450
18,550167	0,5	-0,454650
18,558500	0,5	-0,454800
18,566833	0,5	-0,447800
18,575167	0,5	-0,440100
18,583500	0,5	-0,440250
18,591833	0,5	-0,441700
18,600167	0,5	-0,432350
18,608500	0,5	-0,434300
18,616833	0,5	-0,432100
18,625167	0,5	-0,439500
18,633500	0,5	-0,448450
18,641833	0,5	-0,447400
18,650167	0,5	-0,440450
18,658500	0,5	-0,447150
18,666833	0,5	-0,438350
18,675167	0,5	-0,442200
18,683500	0,5	-0,437550
18,691833	0,5	-0,438750
18,700167	0,5	-0,440250
18,708500	0,5	-0,445950
18,716833	0,5	-0,440850
18,725167	0,5	-0,436500
18,733500	0,5	-0,445650
18,741833	0,5	-0,451800
18,750167	0,5	-0,451400
18,758500	0,5	-0,461250
18,766833	0,5	-0,471000
18,775167	0,5	-0,486800
18,783500	0,5	-0,502950
18,791833	0,5	-0,498400
18,800167	0,5	-0,505600
18,808500	0,5	-0,508600
18,816833	0,5	-0,511200
18,825167	0,5	-0,508450
18,833500	0,5	-0,511400
18,841833	0,5	-0,511100
18,850167	0,5	-0,513450
18,858500	0,5	-0,516550
18,866833	0,5	-0,508100
18,875167	0,5	-0,502550
18,883500	0,5	-0,516400
18,891833	0,5	-0,512900
18,900167	0,5	-0,510650
18,908500	0,5	-0,520500
18,916833	0,5	-0,530650
18,925167	0,5	-0,541200
18,933500	0,5	-0,540100
18,941833	0,5	-0,544100
18,950167	0,5	-0,542800
18,958500	0,5	-0,547500
18,966833	0,5	-0,547200
18,975167	0,5	-0,555600
18,983500	0,5	-0,555950
18,991833	0,5	-0,561200
19,000167	0,5	-0,566800
19,008500	0,5	-0,569300
19,016833	0,5	-0,559550
19,025167	0,5	-0,570350
19,033500	0,5	-0,574900
19,041833	0,5	-0,572550
19,050167	0,5	-0,578550
19,058500	0,5	-0,583200
19,066833	0,5	-0,605500
19,075167	0,5	-0,611950
19,083500	0,5	-0,616700
19,091833	0,5	-0,613550
19,100167	0,5	-0,624850
19,108500	0,5	-0,623550
19,116833	0,5	-0,630350
19,125167	0,5	-0,628950
19,133500	0,5	-0,634150
19,141833	0,5	-0,634350
19,150167	0,5	-0,642200
19,158500	0,5	-0,642600
19,166833	0,5	-0,640350
19,175167	0,5	-0,658600
19,183500	0,5	-0,661950
19,191833	0,5	-0,662850
19,200167	0,5	-0,674850
19,208500	0,5	-0,685900
19,216833	0,5	-0,709800
19,225167	0,5	-0,709850
19,233500	0,5	-0,708550
19,241833	0,5	-0,718400
19,250167	0,5	-0,717100
19,258500	0,5	-0,724850
19,266833	0,5	-0,720550
19,275167	0,5	-0,715750
19,283500	0,5	-0,708250
19,291833	0,5	-0,707950
19,300167	0,5	-0,709800
19,308500	0,5	-0,708700
19,316833	0,5	-0,712800
19,325167	0,5	-0,742100
19,333500	0,5	-0,737750
19,341833	0,5	-0,741000
19,350167	0,5	-0,749400
19,358500	0,5	-0,763350
19,366833	0,5	-0,781850
19,375167	0,5	-0,774850
19,383500	0,5	-0,773800
19,391833	0,5	-0,768400
19,400167	0,5	-0,771300
19,408500	0,5	-0,756450
19,416833	0,5	-0,738550
19,425167	0,5	-0,713350
19,433500	0,5	-0,700200
19,441833	0,5	-0,693700
19,450167	0,5	-0,701250
19,458500	0,5	-0,704600
19,466833	0,5	-0,732600
19,475167	0,5	-0,760100
19,483500	0,5	-0,774250
19,491833	0,5	-0,789200
19,500167	0,5	-0,806800
19,508500	0,5	-0,824500
19,516833	0,5	-0,830700
19,525167	0,5	-0,828750
19,533500	0,5	-0,829000
19,541833	0,5	-0,835350
19,550167	0,5	-0,834900
19,558500	0,5	-0,835750
19,566833	0,5	-0,832150
19,575167	0,5	-0,833050
19,583500	0,5	-0,827900
19,591833	0,5	-0,830300
19,600167	0,5	-0,826200
19,608500	0,5	-0,829100
19,616833	0,5	-0,838800
19,625167	0,5	-0,833850
19,633500	0,5	-0,833350
19,641833	0,5	-0,835600
19,650167	0,5	-0,840900
19,658500	0,5	-0,852000
19,666833	0,5	-0,840850
19,675167	0,5	-0,820600
19,683500	0,5	-0,795600
19,691833	0,5	-0,772350
19,700167	0,5	-0,762200
19,708500	0,5	-0,754850
19,716833	0,5	-0,751650
19,725167	0,5	-0,760150
19,733500	0,5	-0,779050
19,741833	0,5	-0,785950
19,750167	0,5	-0,792200
19,758500	0,5	-0,796150
19,766833	0,5	-0,803750
19,775167	0,5	-0,789350
19,783500	0,5	-0,790800
19,791833	0,5	-0,796500
19,800167	0,5	-0,827550
19,808500	0,5	-0,848500
19,816833	0,5	-0,867900
19,825167	0,5	-0,879150
19,833500	0,5	-0,895200
19,841833	0,5	-0,908700
19,850167	0,5	-0,915750
19,858500	0,5	-0,915600
19,866833	0,5	-0,920750
19,875167	0,5	-0,921100
19,883500	0,5	-0,918900
19,891833	0,5	-0,916000
19,900167	0,5	-0,908400
19,908500	0,5	-0,919950
19,916833	0,5	-0,913100
19,925167	0,5	-0,902600
19,933500	0,5	-0,904500
19,941833	0,5	-0,910500
19,950167	0,5	-0,916000
19,958500	0,5	-0,916350
19,966833	0,5	-0,913300
19,975167	0,5	-0,910000
19,983500	0,5	-0,897450
19,991833	0,5	-0,895150
20,000167	0,5	-0,894800
20,008500	0,5	-0,895350
20,016833	0,5	-0,901450
20,025167	0,5	-0,915250
20,033500	0,5	-0,932300
20,041833	0,5	-0,937050
20,050167	0,5	-0,949200
20,058500	0,5	-0,964250
20,066833	0,5	-0,965150
20,075167	0,5	-0,962400
20,083500	0,5	-0,964650
20,091833	0,5	-0,973850
20,100167	0,5	-0,993900
20,108500	0,5	-0,988200
20,116833	0,5	-0,985650
20,125167	0,5	-0,974650
20,133500	0,5	-0,974350
20,141833	0,5	-0,961350
20,150167	0,5	-0,958350
20,158500	0,5	-0,950300
20,166833	0,5	-0,945150
20,175167	0,5	-0,938950
20,183500	0,5	-0,935350
20,191833	0,5	-0,922300
20,200167	0,5	-0,927800
20,208500	0,5	-0,917550
20,216833	0,5	-0,901050
20,225167	0,5	-0,891250
20,233500	0,5	-0,888600
20,241833	0,5	-0,893650
20,250167	0,5	-0,882850
20,258500	0,5	-0,865200
20,266833	0,5	-0,852950
20,275167	0,5	-0,853200
20,283500	0,5	-0,864250
20,291833	0,5	-0,889100
20,300167	0,5	-0,912700
20,308500	0,5	-0,930150
20,316833	0,5	-0,941900
20,325167	0,5	-0,951450
20,333500	0,5	-0,954750
20,341833	0,5	-0,954850
20,350167	0,5	-0,973750
20,358500	0,5	-0,967400
20,366833	0,5	-0,966300
20,375167	0,5	-0,965950
20,383500	0,5	-0,968250
20,391833	0,5	-0,982300
20,400167	0,5	-0,981650
20,408500	0,5	-0,969350
20,416833	0,5	-0,970550
20,425167	0,5	-0,958800
20,433500	0,5	-0,957700
20,441833	0,5	-0,951700
20,450167	0,5	-0,960450
20,458500	0,5	-0,970900
20,466833	0,5	-0,981950
20,475167	0,5	-0,989150
20,483500	0,5	-0,978400
20,491833	0,5	-0,979400
20,500167	0,5	-0,998950
20,508500	0,5	-0,989750
20,516833	0,5	-0,991800
20,525167	0,5	-0,992750
20,533500	0,5	-0,999550
20,541833	0,5	-1,011100
20,550167	0,5	-0,997900
20,558500	0,5	-0,994000
20,566833	0,5	-0,984250
20,575167	0,5	-0,980100
20,583500	0,5	-0,971650
20,591833	0,5	-0,969800
20,600167	0,5	-0,962900
20,608500	0,5	-0,954350
20,616833	0,5	-0,936750
20,625167	0,5	-0,911500
20,633500	0,5	-0,883350
20,641833	0,5	-0,881000
20,650167	0,5	-0,880950
20,658500	0,5	-0,894500
20,666833	0,5	-0,910400
20,675167	0,5	-0,923500
20,683500	0,5	-0,943050
20,691833	0,5	-0,949400
20,700167	0,5	-0,955550
20,708500	0,5	-0,942450
20,716833	0,5	-0,939350
20,725167	0,5	-0,936800
20,733500	0,5	-0,940350
20,741833	0,5	-0,937500
20,750167	0,5	-0,940700
20,758500	0,5	-0,947550
20,766833	0,5	-0,957350
20,775167	0,5	-0,949800
20,783500	0,5	-0,949500
20,791833	0,5	-0,955900
20,800167	0,5	-0,959600
20,808500	0,5	-0,955500
20,816833	0,5	-0,959300
20,825167	0,5	-0,973300
20,833500	0,5	-0,977250
20,841833	0,5	-0,982150
20,850167	0,5	-0,974100
20,858500	0,5	-0,976300
20,866833	0,5	-0,971000
20,875167	0,5	-0,972450
20,883500	0,5	-0,964100
20,891833	0,5	-0,964700
20,900167	0,5	-0,963100
20,908500	0,5	-0,957300
20,916833	0,5	-0,937550
20,925167	0,5	-0,924600
20,933500	0,5	-0,912100
20,941833	0,5	-0,917350
20,950167	0,5	-0,913600
20,958500	0,5	-0,916350
20,966833	0,5	-0,919650
20,975167	0,5	-0,936850
20,983500	0,5	-0,945900
20,991833	0,5	-0,939700
21,000167	0,5	-0,951400
21,008500	0,5	-0,945150
21,016833	0,5	-0,947200
21,025167	0,5	-0,941300
21,033500	0,5	-0,937550
21,041833	0,5	-0,926450
21,050167	0,5	-0,927750
21,058500	0,5	-0,920400
21,066833	0,5	-0,897650
21,075167	0,5	-0,884500
21,083500	0,5	-0,883750
21,091833	0,5	-0,882900
21,100167	0,5	-0,882750
21,108500	0,5	-0,896350
21,116833	0,5	-0,900750
21,125167	0,5	-0,919850
21,133500	0,5	-0,911150
21,141833	0,5	-0,917400
21,150167	0,5	-0,912450
21,158500	0,5	-0,913450
21,166833	0,5	-0,908200
21,175167	0,5	-0,909100
21,183500	0,5	-0,903250
21,191833	0,5	-0,903050
21,200167	0,5	-0,902800
21,208500	0,5	-0,890950
21,216833	0,5	-0,863800
21,225167	0,5	-0,848000
21,233500	0,5	-0,850550
21,241833	0,5	-0,847750
21,250167	0,5	-0,853200
21,258500	0,5	-0,859650
21,266833	0,5	-0,876050
21,275167	0,5	-0,870600
21,283500	0,5	-0,867850
21,291833	0,5	-0,858000
21,300167	0,5	-0,863100
21,308500	0,5	-0,851150
21,316833	0,5	-0,844900
21,325167	0,5	-0,833950
21,333500	0,5	-0,828950
21,341833	0,5	-0,815150
21,350167	0,5	-0,804700
21,358500	0,5	-0,775700
21,366833	0,5	-0,753350
21,375167	0,5	-0,742650
21,383500	0,5	-0,735050
21,391833	0,5	-0,731750
21,400167	0,5	-0,724600
21,408500	0,5	-0,720650
21,416833	0,5	-0,716400
21,425167	0,5	-0,691800
21,433500	0,5	-0,662450
21,441833	0,5	-0,641950
21,450167	0,5	-0,623500
21,458500	0,5	-0,616950
21,466833	0,5	-0,612800
21,475167	0,5	-0,616950
21,483500	0,5	-0,619500
21,491833	0,5	-0,623650
21,500167	0,5	-0,625250
21,508500	0,5	-0,592900
21,516833	0,5	-0,583850
21,525167	0,5	-0,589550
21,533500	0,5	-0,594800
21,541833	0,5	-0,594650
21,550167	0,5	-0,601450
21,558500	0,5	-0,608050
21,566833	0,5	-0,614550
21,575167	0,5	-0,601500
21,583500	0,5	-0,593500
21,591833	0,5	-0,581650
21,600167	0,5	-0,581950
21,608500	0,5	-0,568300
21,616833	0,5	-0,556950
21,625167	0,5	-0,540600
21,633500	0,5	-0,530150
21,641833	0,5	-0,515450
21,650167	0,5	-0,486100
21,658500	0,5	-0,461100
21,666833	0,5	-0,452800
21,675167	0,5	-0,440800
21,683500	0,5	-0,423950
21,691833	0,5	-0,421650
21,700167	0,5	-0,418700
21,708500	0,5	-0,411300
21,716833	0,5	-0,398250
21,725167	0,5	-0,386100
21,733500	0,5	-0,364600
21,741833	0,5	-0,349550
21,750167	0,5	-0,329850
21,758500	0,5	-0,315050
21,766833	0,5	-0,295350
21,775167	0,5	-0,282900
21,783500	0,5	-0,274800
21,791833	0,5	-0,258100
21,800167	0,5	-0,229450
21,808500	0,5	-0,216300
21,816833	0,5	-0,202400
21,825167	0,5	-0,180900
21,833500	0,5	-0,163250
21,841833	0,5	-0,149150
21,850167	0,5	-0,150500
21,858500	0,5	-0,136100
21,866833	0,5	-0,123350
21,875167	0,5	-0,097350
21,883500	0,5	-0,082850
21,891833	0,5	-0,057350
21,900167	0,5	-0,045850
21,908500	0,5	-0,018200
21,916833	0,5	0,010700
21,925167	0,5	0,032650
21,933500	0,5	0,056250
21,941833	0,5	0,083550
21,950167	0,5	0,115650
21,958500	0,5	0,132200
21,966833	0,5	0,158850
21,975167	0,5	0,190400
21,983500	0,5	0,212650
21,991833	0,5	0,233750
22,000167	0,5	0,242950
22,008500	0,5	0,271800
22,016833	0,5	0,306300
22,025167	0,5	0,321450
22,033500	0,5	0,347300
22,041833	0,5	0,362450
22,050167	0,5	0,385150
22,058500	0,5	0,403300
22,066833	0,5	0,424550
22,075167	0,5	0,445100
22,083500	0,5	0,465200
22,091833	0,5	0,497300
22,100167	0,5	0,514150
22,108500	0,5	0,539950
22,116833	0,5	0,577100
22,125167	0,5	0,612400
22,133500	0,5	0,632450
22,141833	0,5	0,654150
22,150167	0,5	0,682050
22,158500	0,5	0,722300
22,166833	0,5	0,750000
22,175167	0,5	0,787900
22,183500	0,5	0,816700
22,191833	0,5	0,855450
22,200167	0,5	0,892000
22,208500	0,5	0,934800
22,216833	0,5	0,969250
22,225167	0,5	1,008150
22,233500	0,5	1,044500
22,241833	0,5	1,085350
22,250167	0,5	1,109050
22,258500	0,5	1,173850
22,266833	0,5	1,217150
22,275167	0,5	1,259850
22,283500	0,5	1,301100
22,291833	0,5	1,323800
22,300167	0,5	1,388150
22,308500	0,5	1,441500
22,316833	0,5	1,501550
22,325167	0,5	1,547450
22,333500	0,5	1,599450
22,341833	0,5	1,642300
22,350167	0,5	1,691200
22,358500	0,5	1,737200
22,366833	0,5	1,780550
22,375167	0,5	1,827900
22,383500	0,5	1,850150
22,391833	0,5	1,902050
22,400167	0,5	1,961100
22,408500	0,5	2,026950
22,416833	0,5	2,077450
22,425167	0,5	2,125250
22,433500	0,5	2,165950
22,441833	0,5	2,206250
22,450167	0,5	2,265400
22,458500	0,5	2,326550
22,466833	0,5	2,380800
22,475167	0,5	2,449050
22,483500	0,5	2,504950
22,491833	0,5	2,564150
22,500167	0,5	2,625750
22,508500	0,5	2,683300
22,516833	0,5	2,740350
22,525167	0,5	2,778400
22,533500	0,5	2,815000
22,541833	0,5	2,879450
22,550167	0,5	2,947600
22,558500	0,5	3,010850
22,566833	0,5	3,048800
22,575167	0,5	3,090150
22,583500	0,5	3,120250
22,591833	0,5	3,149350
22,600167	0,5	3,200950
22,608500	0,5	3,229200
22,616833	0,5	3,262050
22,625167	0,5	3,283000
22,633500	0,5	3,307300
22,641833	0,5	3,322700
22,650167	0,5	3,341050
22,658500	0,5	3,345200
22,666833	0,5	3,347100
22,675167	0,5	3,295050
22,683500	0,5	3,280100
22,691833	0,5	3,265350
22,700167	0,5	3,246600
22,708500	0,5	3,194500
22,716833	0,5	3,127700
22,725167	0,5	3,049800
22,733500	0,5	2,961850
22,741833	0,5	2,884300
22,750167	0,5	2,793650
22,758500	0,5	2,706850
22,766833	0,5	2,608550
22,775167	0,5	2,507850
22,783500	0,5	2,395550
22,791833	0,5	2,289700
22,800167	0,5	2,173800
22,808500	0,5	2,054600
22,816833	0,5	1,920800
22,825167	0,5	1,737250
22,833500	0,5	1,623950
22,841833	0,5	1,502600
22,850167	0,5	1,356550
22,858500	0,5	1,211650
22,866833	0,5	1,060400
22,875167	0,5	0,917300
22,883500	0,5	0,766150
22,891833	0,5	0,625800
22,900167	0,5	0,476550
22,908500	0,5	0,350950
22,916833	0,5	0,217700
22,925167	0,5	0,097250
22,933500	0,5	-0,030500
22,941833	0,5	-0,147300
22,950167	0,5	-0,270450
22,958500	0,5	-0,388250
22,966833	0,5	-0,478600
22,975167	0,5	-0,609100
22,983500	0,5	-0,704650
22,991833	0,5	-0,840300
23,000167	0,5	-0,956850
23,008500	0,5	-1,043150
23,016833	0,5	-1,132650
23,025167	0,5	-1,205950
23,033500	0,5	-1,291100
23,041833	0,5	-1,370550
23,050167	0,5	-1,419650
23,058500	0,5	-1,485450
23,066833	0,5	-1,533050
23,075167	0,5	-1,587400
23,083500	0,5	-1,633150
23,091833	0,5	-1,684750
23,100167	0,5	-1,723950
23,108500	0,5	-1,757350
23,116833	0,5	-1,795000
23,125167	0,5	-1,819950
23,133500	0,5	-1,861700
23,141833	0,5	-1,928000
23,150167	0,5	-1,969600
23,158500	0,5	-1,988300
23,166833	0,5	-2,002100
23,175167	0,5	-2,009550
23,183500	0,5	-2,038650
23,191833	0,5	-2,038250
23,200167	0,5	-2,043950
23,208500	0,5	-2,034550
23,216833	0,5	-2,037400
23,225167	0,5	-2,024800
23,233500	0,5	-2,021350
23,241833	0,5	-2,008300
23,250167	0,5	-2,008800
23,258500	0,5	-1,981700
23,266833	0,5	-1,998700
23,275167	0,5	-1,982700
23,283500	0,5	-1,971250
23,291833	0,5	-1,994000
23,300167	0,5	-1,998950
23,308500	0,5	-1,992150
23,316833	0,5	-1,973300
23,325167	0,5	-1,964700
23,333500	0,5	-1,953300
23,341833	0,5	-1,935300
23,350167	0,5	-1,913300
23,358500	0,5	-1,890100
23,366833	0,5	-1,859650
23,375167	0,5	-1,831550
23,383500	0,5	-1,808300
23,391833	0,5	-1,780200
23,400167	0,5	-1,751350
23,408500	0,5	-1,769250
23,416833	0,5	-1,732150
23,425167	0,5	-1,680800
23,433500	0,5	-1,650450
23,441833	0,5	-1,652400
23,450167	0,5	-1,639500
23,458500	0,5	-1,620550
23,466833	0,5	-1,600450
23,475167	0,5	-1,582600
23,483500	0,5	-1,567050
23,491833	0,5	-1,547450
23,500167	0,5	-1,524700
23,508500	0,5	-1,502200
23,516833	0,5	-1,477500
23,525167	0,5	-1,456350
23,533500	0,5	-1,429800
23,541833	0,5	-1,401450
23,550167	0,5	-1,377600
23,558500	0,5	-1,453150
23,566833	0,5	-1,385100
23,575167	0,5	-1,333850
23,583500	0,5	-1,284900
23,591833	0,5	-1,269800
23,600167	0,5	-1,255450
23,608500	0,5	-1,228050
23,616833	0,5	-1,212100
23,625167	0,5	-1,192100
23,633500	0,5	-1,171350
23,641833	0,5	-1,150050
23,650167	0,5	-1,130800
23,658500	0,5	-1,108000
23,666833	0,5	-1,091000
23,675167	0,5	-1,070200
23,683500	0,5	-1,052200
23,691833	0,5	-1,034300
23,700167	0,5	-1,087800
23,708500	0,5	-1,109100
23,716833	0,5	-1,061400
23,725167	0,5	-0,994750
23,733500	0,5	-0,958700
23,741833	0,5	-0,941650
23,750167	0,5	-0,925550
23,758500	0,5	-0,908750
23,766833	0,5	-0,901350
23,775167	0,5	-0,875650
23,783500	0,5	-0,855150
23,791833	0,5	-0,833100
23,800167	0,5	-0,810400
23,808500	0,5	-0,788400
23,816833	0,5	-0,767400
23,825167	0,5	-0,743550
23,833500	0,5	-0,726450
23,841833	0,5	-0,710750
23,850167	0,5	-0,819500
23,858500	0,5	-0,798250
23,866833	0,5	-0,749650
23,875167	0,5	-0,684700
23,883500	0,5	-0,648150
23,891833	0,5	-0,635850
23,900167	0,5	-0,623650
23,908500	0,5	-0,622000
23,916833	0,5	-0,603400
23,925167	0,5	-0,591900
23,933500	0,5	-0,570350
23,941833	0,5	-0,553550
23,950167	0,5	-0,530750
23,958500	0,5	-0,519150
23,966833	0,5	-0,496550
23,975167	0,5	-0,476100
23,983500	0,5	-0,460350
23,991833	0,5	-0,465450
24,000167	0,5	-0,555300
24,008500	0,5	-0,513950
24,016833	0,5	-0,454900
24,025167	0,5	-0,406850
24,033500	0,5	-0,374800
24,041833	0,5	-0,360850
24,050167	0,5	-0,353200
24,058500	0,5	-0,346750
24,066833	0,5	-0,332950
24,075167	0,5	-0,307600
24,083500	0,5	-0,293100
24,091833	0,5	-0,276000
24,100167	0,5	-0,265550
24,108500	0,5	-0,245850
24,116833	0,5	-0,233450
24,125167	0,5	-0,216100
24,133500	0,5	-0,209250
24,141833	0,5	-0,282500
24,150167	0,5	-0,288000
24,158500	0,5	-0,270350
24,166833	0,5	-0,217450
24,175167	0,5	-0,178600
24,183500	0,5	-0,154500
24,191833	0,5	-0,141000
24,200167	0,5	-0,137600
24,208500	0,5	-0,124900
24,216833	0,5	-0,102850
24,225167	0,5	-0,086300
24,233500	0,5	-0,070950
24,241833	0,5	-0,057850
24,250167	0,5	-0,038200
24,258500	0,5	-0,031900
24,266833	0,5	-0,013850
24,275167	0,5	-0,002200
24,283500	0,5	0,005550
24,291833	0,5	-0,088000
24,300167	0,5	-0,048950
24,308500	0,5	-0,032450
24,316833	0,5	0,016100
24,325167	0,5	0,032250
24,333500	0,5	0,045800
24,341833	0,5	0,050350
24,350167	0,5	0,044400
24,358500	0,5	0,051200
24,366833	0,5	0,064700
24,375167	0,5	0,079750
24,383500	0,5	0,089150
24,391833	0,5	0,103050
24,400167	0,5	0,113100
24,408500	0,5	0,128400
24,416833	0,5	0,139050
24,425167	0,5	0,151150
24,433500	0,5	0,135500
24,441833	0,5	0,094400
24,450167	0,5	0,118100
24,458500	0,5	0,140100
24,466833	0,5	0,173250
24,475167	0,5	0,187800
24,483500	0,5	0,198700
24,491833	0,5	0,200150
24,500167	0,5	0,193850
24,508500	0,5	0,205150
24,516833	0,5	0,213900
24,525167	0,5	0,221400
24,533500	0,5	0,225450
24,541833	0,5	0,233500
24,550167	0,5	0,242250
24,558500	0,5	0,247900
24,566833	0,5	0,259900
24,575167	0,5	0,261150
24,583500	0,5	0,222750
24,591833	0,5	0,218600
24,600167	0,5	0,244750
24,608500	0,5	0,264100
24,616833	0,5	0,286750
24,625167	0,5	0,292550
24,633500	0,5	0,302600
24,641833	0,5	0,298400
24,650167	0,5	0,293150
24,658500	0,5	0,300450
24,666833	0,5	0,313700
24,675167	0,5	0,321200
24,683500	0,5	0,327150
24,691833	0,5	0,329750
24,700167	0,5	0,335150
24,708500	0,5	0,343800
24,716833	0,5	0,345750
24,725167	0,5	0,350100
24,733500	0,5	0,308700
24,741833	0,5	0,322050
24,750167	0,5	0,331250
24,758500	0,5	0,349150
24,766833	0,5	0,358100
24,775167	0,5	0,362750
24,783500	0,5	0,361400
24,791833	0,5	0,363200
24,800167	0,5	0,361400
24,808500	0,5	0,370350
24,816833	0,5	0,373250
24,825167	0,5	0,382500
24,833500	0,5	0,387250
24,841833	0,5	0,392050
24,850167	0,5	0,397450
24,858500	0,5	0,402000
24,866833	0,5	0,404400
24,875167	0,5	0,399700
24,883500	0,5	0,385050
24,891833	0,5	0,391800
24,900167	0,5	0,403500
24,908500	0,5	0,412150
24,916833	0,5	0,419200
24,925167	0,5	0,419750
24,933500	0,5	0,417300
24,941833	0,5	0,413200
24,950167	0,5	0,413350
24,958500	0,5	0,411950
24,966833	0,5	0,419200
24,975167	0,5	0,419450
24,983500	0,5	0,427000
24,991833	0,5	0,426550
25,000167	0,5	0,433350
25,008500	0,5	0,437100
25,016833	0,5	0,436850
25,025167	0,5	0,426750
25,033500	0,5	0,431200
25,041833	0,5	0,434600
25,050167	0,5	0,441600
25,058500	0,5	0,444600
25,066833	0,5	0,450450
25,075167	0,5	0,450500
25,083500	0,5	0,445450
25,091833	0,5	0,446700
25,100167	0,5	0,446150
25,108500	0,5	0,447950
25,116833	0,5	0,447100
25,125167	0,5	0,450100
25,133500	0,5	0,449300
25,141833	0,5	0,449600
25,150167	0,5	0,446700
25,158500	0,5	0,451500
25,166833	0,5	0,453500
25,175167	0,5	0,443150
25,183500	0,5	0,452750
25,191833	0,5	0,451300
25,200167	0,5	0,456350
25,208500	0,5	0,459250
25,216833	0,5	0,460900
25,225167	0,5	0,461050
25,233500	0,5	0,459000
25,241833	0,5	0,457700
25,250167	0,5	0,459850
25,258500	0,5	0,459150
25,266833	0,5	0,456400
25,275167	0,5	0,457100
25,283500	0,5	0,457500
25,291833	0,5	0,458700
25,300167	0,5	0,459150
25,308500	0,5	0,457200
25,316833	0,5	0,453800
25,325167	0,5	0,451800
25,333500	0,5	0,453700
25,341833	0,5	0,455200
25,350167	0,5	0,449000
25,358500	0,5	0,450650
25,366833	0,5	0,453100
25,375167	0,5	0,452050
25,383500	0,5	0,449300
25,391833	0,5	0,451000
25,400167	0,5	0,452800
25,408500	0,5	0,452750
25,416833	0,5	0,454050
25,425167	0,5	0,451000
25,433500	0,5	0,449850
25,441833	0,5	0,450400
25,450167	0,5	0,448100
25,458500	0,5	0,449600
25,466833	0,5	0,449200
25,475167	0,5	0,450050
25,483500	0,5	0,448500
25,491833	0,5	0,447100
25,500167	0,5	0,442900
25,508500	0,5	0,441750
25,516833	0,5	0,442650
25,525167	0,5	0,439550
25,533500	0,5	0,441100
25,541833	0,5	0,439350
25,550167	0,5	0,439800
25,558500	0,5	0,441150
25,566833	0,5	0,439300
25,575167	0,5	0,438350
25,583500	0,5	0,436950
25,591833	0,5	0,438450
25,600167	0,5	0,437700
25,608500	0,5	0,438150
25,616833	0,5	0,441350
25,625167	0,5	0,440350
25,633500	0,5	0,438750
25,641833	0,5	0,434300
25,650167	0,5	0,431850
25,658500	0,5	0,429000
25,666833	0,5	0,430000
25,675167	0,5	0,431400
25,683500	0,5	0,427300
25,691833	0,5	0,426100
25,700167	0,5	0,423150
25,708500	0,5	0,423600
25,716833	0,5	0,423150
25,725167	0,5	0,421100
25,733500	0,5	0,421050
25,741833	0,5	0,418350
25,750167	0,5	0,418800
25,758500	0,5	0,419100
25,766833	0,5	0,424900
25,775167	0,5	0,423200
25,783500	0,5	0,421700
25,791833	0,5	0,413550
25,800167	0,5	0,415150
25,808500	0,5	0,411100
25,816833	0,5	0,414850
25,825167	0,5	0,415750
25,833500	0,5	0,414150
25,841833	0,5	0,413400
25,850167	0,5	0,411350
25,858500	0,5	0,405150
25,866833	0,5	0,408150
25,875167	0,5	0,404350
25,883500	0,5	0,402350
25,891833	0,5	0,401800
25,900167	0,5	0,401100
25,908500	0,5	0,405000
25,916833	0,5	0,406400
25,925167	0,5	0,411450
25,933500	0,5	0,408600
25,941833	0,5	0,399250
25,950167	0,5	0,397800
25,958500	0,5	0,400500
25,966833	0,5	0,402650
25,975167	0,5	0,406500
25,983500	0,5	0,400150
25,991833	0,5	0,405850
26,000167	0,5	0,404000
