File Path	chrom://chromeleon01/ikbm_chromeleon/2022/ICS-5000/ED1/Esteban/20220612_Cell_7_4_eg.seq/610.smp/ED_1.channel/ED_1.chm
Channel	ED_1

Injection Information:
Data Vault	ikbm_chromeleon
Injection	4_24h-EGI_2
Injection Number	61
Position	GB1
Comment	
Processing Method	Stop sequence after Cell Death
Instrument Method	ICS5000_PA200_FullNative_Ox_26min_ED1
Type	Unknown
Status	Finished
Injection Date	13.06.2022
Injection Time	20:37:40
Injection Volume (µl)	5,0
Dilution Factor	1,0000
Weight	1,0000

Chromatogram Data Information:
Time Min. (min)	0,000167
Time Max. (min)	26,000167
Data Points	3121
Detector	EDet1
Generating Data System	Chromeleon 7.2.9.11323
Exporting Data System	Chromeleon 7.2.9.0
Operator	Instrument Controller
Signal Quantity	
Signal Unit	nC
Signal Min.	-1,883000
Signal Max.	2 625,192789
Channel	ED_1
Driver Name	DC-5000
Channel Type	Evaluation
Min. Step (s)	0,5
Max. Step (s)	0,5
Average Step (s)	0,5

Signal Parameter Information:
Signal Info	

Chromatogram Data:
Time (min)	Step (s)	Value (nC)
0,000167	n.a.	0,017000
0,008500	0,5	-0,047850
0,016833	0,5	-0,036500
0,025167	0,5	-0,030750
0,033500	0,5	-0,016800
0,041833	0,5	-0,017850
0,050167	0,5	-0,006300
0,058500	0,5	-0,016500
0,066833	0,5	-0,009700
0,075167	0,5	-0,013150
0,083500	0,5	-0,010300
0,091833	0,5	-0,026400
0,100167	0,5	0,002550
0,108500	0,5	-0,004250
0,116833	0,5	-0,022250
0,125167	0,5	-0,027900
0,133500	0,5	-0,021200
0,141833	0,5	-0,002800
0,150167	0,5	0,004550
0,158500	0,5	0,010800
0,166833	0,5	0,001200
0,175167	0,5	-0,000700
0,183500	0,5	-0,005450
0,191833	0,5	-0,004750
0,200167	0,5	-0,001100
0,208500	0,5	-0,006050
0,216833	0,5	-0,017000
0,225167	0,5	-0,015250
0,233500	0,5	-0,019550
0,241833	0,5	-0,025750
0,250167	0,5	-0,007500
0,258500	0,5	-0,015800
0,266833	0,5	-0,037000
0,275167	0,5	-0,035800
0,283500	0,5	-0,034250
0,291833	0,5	-0,000250
0,300167	0,5	0,029200
0,308500	0,5	0,042850
0,316833	0,5	0,016400
0,325167	0,5	-0,019300
0,333500	0,5	-0,034050
0,341833	0,5	-0,036750
0,350167	0,5	-0,038500
0,358500	0,5	-0,040250
0,366833	0,5	-0,036700
0,375167	0,5	-0,035450
0,383500	0,5	-0,039900
0,391833	0,5	-0,049950
0,400167	0,5	-0,015700
0,408500	0,5	-0,046350
0,416833	0,5	-0,050650
0,425167	0,5	-0,051950
0,433500	0,5	-0,039400
0,441833	0,5	-0,018100
0,450167	0,5	-0,025500
0,458500	0,5	-0,031550
0,466833	0,5	-0,029100
0,475167	0,5	-0,032900
0,483500	0,5	-0,033750
0,491833	0,5	-0,028250
0,500167	0,5	-0,031500
0,508500	0,5	-0,035400
0,516833	0,5	-0,038900
0,525167	0,5	-0,034350
0,533500	0,5	-0,053650
0,541833	0,5	-0,052950
0,550167	0,5	-0,033850
0,558500	0,5	-0,053100
0,566833	0,5	-0,058750
0,575167	0,5	-0,046450
0,583500	0,5	-0,040250
0,591833	0,5	-0,010100
0,600167	0,5	-0,025800
0,608500	0,5	-0,022950
0,616833	0,5	-0,028100
0,625167	0,5	-0,021600
0,633500	0,5	-0,026650
0,641833	0,5	-0,027600
0,650167	0,5	-0,034350
0,658500	0,5	-0,035500
0,666833	0,5	-0,031950
0,675167	0,5	-0,034600
0,683500	0,5	-0,037050
0,691833	0,5	-0,029750
0,700167	0,5	-0,026750
0,708500	0,5	-0,047100
0,716833	0,5	-0,046200
0,725167	0,5	-0,040550
0,733500	0,5	-0,024050
0,741833	0,5	-0,009650
0,750167	0,5	-0,006900
0,758500	0,5	-0,016550
0,766833	0,5	-0,013150
0,775167	0,5	-0,023000
0,783500	0,5	-0,010550
0,791833	0,5	-0,020450
0,800167	0,5	-0,017150
0,808500	0,5	-0,020250
0,816833	0,5	-0,020250
0,825167	0,5	-0,018150
0,833500	0,5	-0,023850
0,841833	0,5	-0,022750
0,850167	0,5	-0,022000
0,858500	0,5	-0,033550
0,866833	0,5	-0,032150
0,875167	0,5	-0,022200
0,883500	0,5	0,002500
0,891833	0,5	0,010700
0,900167	0,5	-0,000350
0,908500	0,5	-0,002000
0,916833	0,5	-0,003050
0,925167	0,5	0,003250
0,933500	0,5	-0,005700
0,941833	0,5	-0,002400
0,950167	0,5	-0,011800
0,958500	0,5	-0,007900
0,966833	0,5	-0,010550
0,975167	0,5	-0,008050
0,983500	0,5	-0,007650
0,991833	0,5	0,004350
1,000167	0,5	-0,014750
1,008500	0,5	-0,018150
1,016833	0,5	-0,019250
1,025167	0,5	-0,004600
1,033500	0,5	0,008300
1,041833	0,5	0,018250
1,050167	0,5	0,019550
1,058500	0,5	0,016500
1,066833	0,5	0,017450
1,075167	0,5	0,016100
1,083500	0,5	0,016950
1,091833	0,5	0,009500
1,100167	0,5	0,014800
1,108500	0,5	0,010100
1,116833	0,5	0,009150
1,125167	0,5	-0,007650
1,133500	0,5	0,008650
1,141833	0,5	0,008100
1,150167	0,5	0,000400
1,158500	0,5	-0,006850
1,166833	0,5	0,009450
1,175167	0,5	0,027100
1,183500	0,5	0,035000
1,191833	0,5	0,029750
1,200167	0,5	0,032950
1,208500	0,5	0,028450
1,216833	0,5	0,030850
1,225167	0,5	0,027350
1,233500	0,5	0,023350
1,241833	0,5	0,024400
1,250167	0,5	0,020700
1,258500	0,5	0,025750
1,266833	0,5	0,015500
1,275167	0,5	0,010350
1,283500	0,5	0,023250
1,291833	0,5	0,018600
1,300167	0,5	0,010700
1,308500	0,5	0,007350
1,316833	0,5	0,008050
1,325167	0,5	0,033100
1,333500	0,5	0,029600
1,341833	0,5	0,032000
1,350167	0,5	0,020600
1,358500	0,5	0,030100
1,366833	0,5	0,027300
1,375167	0,5	0,022900
1,383500	0,5	0,015150
1,391833	0,5	0,008900
1,400167	0,5	0,008350
1,408500	0,5	0,009850
1,416833	0,5	0,012200
1,425167	0,5	-0,003750
1,433500	0,5	0,019700
1,441833	0,5	-0,007800
1,450167	0,5	-0,016100
1,458500	0,5	-0,014750
1,466833	0,5	-0,008750
1,475167	0,5	0,009950
1,483500	0,5	0,001350
1,491833	0,5	-0,013450
1,500167	0,5	-0,011250
1,508500	0,5	-0,022950
1,516833	0,5	-0,024450
1,525167	0,5	-0,032150
1,533500	0,5	-0,034650
1,541833	0,5	-0,043750
1,550167	0,5	-0,041100
1,558500	0,5	-0,018150
1,566833	0,5	0,037950
1,575167	0,5	0,265350
1,583500	0,5	1,343550
1,591833	0,5	7,827350
1,600167	0,5	40,258751
1,608500	0,5	166,210202
1,616833	0,5	571,908459
1,625167	0,5	1 478,946422
1,633500	0,5	2 440,303436
1,641833	0,5	2 625,192789
1,650167	0,5	2 554,294538
1,658500	0,5	2 518,372738
1,666833	0,5	2 443,405986
1,675167	0,5	2 090,131631
1,683500	0,5	1 512,528073
1,691833	0,5	1 016,643215
1,700167	0,5	719,398211
1,708500	0,5	555,451508
1,716833	0,5	463,958657
1,725167	0,5	397,833856
1,733500	0,5	336,309255
1,741833	0,5	277,472104
1,750167	0,5	227,953703
1,758500	0,5	191,512553
1,766833	0,5	168,569653
1,775167	0,5	157,530402
1,783500	0,5	154,710152
1,791833	0,5	155,707502
1,800167	0,5	157,194252
1,808500	0,5	156,681702
1,816833	0,5	152,139852
1,825167	0,5	143,419252
1,833500	0,5	132,685652
1,841833	0,5	122,124352
1,850167	0,5	112,812902
1,858500	0,5	105,083502
1,866833	0,5	99,298101
1,875167	0,5	95,803201
1,883500	0,5	95,427201
1,891833	0,5	99,264851
1,900167	0,5	105,295852
1,908500	0,5	106,995002
1,916833	0,5	101,266052
1,925167	0,5	92,841351
1,933500	0,5	88,989801
1,941833	0,5	96,532701
1,950167	0,5	127,882252
1,958500	0,5	203,524403
1,966833	0,5	319,214805
1,975167	0,5	405,569056
1,983500	0,5	397,183756
1,991833	0,5	319,270505
2,000167	0,5	234,609703
2,008500	0,5	172,544203
2,016833	0,5	132,854052
2,025167	0,5	110,098702
2,033500	0,5	102,157352
2,041833	0,5	108,906402
2,050167	0,5	122,291202
2,058500	0,5	126,653202
2,066833	0,5	116,444552
2,075167	0,5	99,142601
2,083500	0,5	83,080001
2,091833	0,5	70,981651
2,100167	0,5	62,536851
2,108500	0,5	57,118201
2,116833	0,5	53,965601
2,125167	0,5	52,502051
2,133500	0,5	52,149651
2,141833	0,5	51,473501
2,150167	0,5	49,521251
2,158500	0,5	47,014451
2,166833	0,5	44,823901
2,175167	0,5	42,643551
2,183500	0,5	40,240101
2,191833	0,5	38,042351
2,200167	0,5	36,396901
2,208500	0,5	35,266201
2,216833	0,5	34,500851
2,225167	0,5	34,050151
2,233500	0,5	33,926101
2,241833	0,5	33,883851
2,250167	0,5	33,852151
2,258500	0,5	33,986301
2,266833	0,5	34,432501
2,275167	0,5	35,330601
2,283500	0,5	38,215001
2,291833	0,5	45,651401
2,300167	0,5	59,382901
2,308500	0,5	66,242451
2,316833	0,5	57,732201
2,325167	0,5	46,948951
2,333500	0,5	41,053501
2,341833	0,5	38,502751
2,350167	0,5	37,814301
2,358500	0,5	38,744001
2,366833	0,5	41,418501
2,375167	0,5	45,814151
2,383500	0,5	51,091851
2,391833	0,5	55,843701
2,400167	0,5	58,821151
2,408500	0,5	59,703801
2,416833	0,5	58,973501
2,425167	0,5	57,615501
2,433500	0,5	56,598351
2,441833	0,5	56,373251
2,450167	0,5	56,519301
2,458500	0,5	56,207401
2,466833	0,5	55,269351
2,475167	0,5	54,585451
2,483500	0,5	56,516801
2,491833	0,5	64,173451
2,500167	0,5	80,272551
2,508500	0,5	107,026702
2,516833	0,5	149,313402
2,525167	0,5	229,691503
2,533500	0,5	413,676256
2,541833	0,5	739,851611
2,550167	0,5	1 060,203416
2,558500	0,5	1 211,500868
2,566833	0,5	1 187,385568
2,575167	0,5	1 047,738816
2,583500	0,5	864,129463
2,591833	0,5	682,911760
2,600167	0,5	532,485908
2,608500	0,5	420,432656
2,616833	0,5	339,949655
2,625167	0,5	281,952804
2,633500	0,5	243,112354
2,641833	0,5	225,637353
2,650167	0,5	232,630603
2,658500	0,5	260,051654
2,666833	0,5	291,863104
2,675167	0,5	307,919155
2,683500	0,5	297,205454
2,691833	0,5	263,310254
2,700167	0,5	218,436253
2,708500	0,5	174,590753
2,716833	0,5	138,400802
2,725167	0,5	111,401052
2,733500	0,5	92,218651
2,741833	0,5	78,749401
2,750167	0,5	69,102351
2,758500	0,5	62,002601
2,766833	0,5	56,536551
2,775167	0,5	52,170751
2,783500	0,5	48,639151
2,791833	0,5	45,800751
2,800167	0,5	43,602301
2,808500	0,5	42,004901
2,816833	0,5	40,851701
2,825167	0,5	39,902751
2,833500	0,5	38,843651
2,841833	0,5	37,448651
2,850167	0,5	35,670151
2,858500	0,5	33,668951
2,866833	0,5	31,666400
2,875167	0,5	29,843350
2,883500	0,5	28,296200
2,891833	0,5	27,041650
2,900167	0,5	26,096300
2,908500	0,5	25,470100
2,916833	0,5	25,231450
2,925167	0,5	25,595250
2,933500	0,5	26,928950
2,941833	0,5	29,385100
2,950167	0,5	32,562950
2,958500	0,5	35,260051
2,966833	0,5	36,269301
2,975167	0,5	35,181901
2,983500	0,5	32,488650
2,991833	0,5	29,051750
3,000167	0,5	25,702500
3,008500	0,5	22,951000
3,016833	0,5	20,931200
3,025167	0,5	19,538200
3,033500	0,5	18,569250
3,041833	0,5	17,873800
3,050167	0,5	17,335300
3,058500	0,5	16,910100
3,066833	0,5	16,521400
3,075167	0,5	16,187100
3,083500	0,5	15,894050
3,091833	0,5	15,646700
3,100167	0,5	15,438450
3,108500	0,5	15,226350
3,116833	0,5	14,977750
3,125167	0,5	14,696700
3,133500	0,5	14,377150
3,141833	0,5	14,067350
3,150167	0,5	13,777250
3,158500	0,5	13,517450
3,166833	0,5	13,295200
3,175167	0,5	13,107900
3,183500	0,5	12,945900
3,191833	0,5	12,792950
3,200167	0,5	12,695400
3,208500	0,5	12,627500
3,216833	0,5	12,596550
3,225167	0,5	12,633950
3,233500	0,5	12,721400
3,241833	0,5	12,823500
3,250167	0,5	12,861600
3,258500	0,5	12,765100
3,266833	0,5	12,541450
3,275167	0,5	12,206000
3,283500	0,5	11,861200
3,291833	0,5	11,541650
3,300167	0,5	11,305400
3,308500	0,5	11,140400
3,316833	0,5	11,066050
3,325167	0,5	11,076400
3,333500	0,5	11,175700
3,341833	0,5	11,374600
3,350167	0,5	11,724100
3,358500	0,5	12,203050
3,366833	0,5	12,880000
3,375167	0,5	13,753400
3,383500	0,5	14,754700
3,391833	0,5	15,757850
3,400167	0,5	16,557300
3,408500	0,5	17,025450
3,416833	0,5	17,092400
3,425167	0,5	16,822100
3,433500	0,5	16,299050
3,441833	0,5	15,673000
3,450167	0,5	15,024550
3,458500	0,5	14,427500
3,466833	0,5	13,878150
3,475167	0,5	13,382400
3,483500	0,5	12,923350
3,491833	0,5	12,500650
3,500167	0,5	12,133650
3,508500	0,5	11,765700
3,516833	0,5	11,445300
3,525167	0,5	11,159500
3,533500	0,5	10,908450
3,541833	0,5	10,700800
3,550167	0,5	10,483300
3,558500	0,5	10,295950
3,566833	0,5	10,135450
3,575167	0,5	9,996700
3,583500	0,5	9,891300
3,591833	0,5	9,825450
3,600167	0,5	9,810000
3,608500	0,5	9,839400
3,616833	0,5	9,945200
3,625167	0,5	10,108100
3,633500	0,5	10,323700
3,641833	0,5	10,574550
3,650167	0,5	10,861200
3,658500	0,5	11,102650
3,666833	0,5	11,328600
3,675167	0,5	11,494100
3,683500	0,5	11,596650
3,691833	0,5	11,637200
3,700167	0,5	11,574950
3,708500	0,5	11,454200
3,716833	0,5	11,287350
3,725167	0,5	11,092350
3,733500	0,5	10,882050
3,741833	0,5	10,686350
3,750167	0,5	10,518800
3,758500	0,5	10,411200
3,766833	0,5	10,370750
3,775167	0,5	10,422200
3,783500	0,5	10,568800
3,791833	0,5	10,822300
3,800167	0,5	11,129200
3,808500	0,5	11,445750
3,816833	0,5	11,745950
3,825167	0,5	11,994150
3,833500	0,5	12,187550
3,841833	0,5	12,364400
3,850167	0,5	12,576000
3,858500	0,5	12,920350
3,866833	0,5	13,434850
3,875167	0,5	14,108250
3,883500	0,5	14,840350
3,891833	0,5	15,497050
3,900167	0,5	15,918900
3,908500	0,5	16,011000
3,916833	0,5	15,729100
3,925167	0,5	15,096700
3,933500	0,5	14,229900
3,941833	0,5	13,243750
3,950167	0,5	12,226250
3,958500	0,5	11,287850
3,966833	0,5	10,511550
3,975167	0,5	9,917050
3,983500	0,5	9,521450
3,991833	0,5	9,278650
4,000167	0,5	9,151250
4,008500	0,5	9,091000
4,016833	0,5	9,062050
4,025167	0,5	9,007000
4,033500	0,5	8,915150
4,041833	0,5	8,768500
4,050167	0,5	8,588800
4,058500	0,5	8,401800
4,066833	0,5	8,231750
4,075167	0,5	8,107100
4,083500	0,5	8,048500
4,091833	0,5	8,048250
4,100167	0,5	8,071500
4,108500	0,5	8,115850
4,116833	0,5	8,154300
4,125167	0,5	8,161800
4,133500	0,5	8,110100
4,141833	0,5	8,004750
4,150167	0,5	7,852100
4,158500	0,5	7,688850
4,166833	0,5	7,529500
4,175167	0,5	7,412400
4,183500	0,5	7,339100
4,191833	0,5	7,319350
4,200167	0,5	7,329950
4,208500	0,5	7,368300
4,216833	0,5	7,403000
4,225167	0,5	7,407200
4,233500	0,5	7,387200
4,241833	0,5	7,318950
4,250167	0,5	7,206450
4,258500	0,5	7,084850
4,266833	0,5	6,964750
4,275167	0,5	6,853950
4,283500	0,5	6,756150
4,291833	0,5	6,644000
4,300167	0,5	6,553500
4,308500	0,5	6,470050
4,316833	0,5	6,402950
4,325167	0,5	6,334800
4,333500	0,5	6,288400
4,341833	0,5	6,238850
4,350167	0,5	6,206600
4,358500	0,5	6,182250
4,366833	0,5	6,167800
4,375167	0,5	6,143850
4,383500	0,5	6,158650
4,391833	0,5	6,140200
4,400167	0,5	6,129950
4,408500	0,5	6,124550
4,416833	0,5	6,119250
4,425167	0,5	6,116450
4,433500	0,5	6,095750
4,441833	0,5	6,065900
4,450167	0,5	6,033650
4,458500	0,5	6,000050
4,466833	0,5	5,958900
4,475167	0,5	5,925450
4,483500	0,5	5,880800
4,491833	0,5	5,846500
4,500167	0,5	5,816550
4,508500	0,5	5,805950
4,516833	0,5	5,798650
4,525167	0,5	5,806850
4,533500	0,5	5,849650
4,541833	0,5	5,890050
4,550167	0,5	5,959200
4,558500	0,5	6,049900
4,566833	0,5	6,161150
4,575167	0,5	6,298600
4,583500	0,5	6,421900
4,591833	0,5	6,538900
4,600167	0,5	6,645050
4,608500	0,5	6,736450
4,616833	0,5	6,803750
4,625167	0,5	6,841200
4,633500	0,5	6,858750
4,641833	0,5	6,849900
4,650167	0,5	6,827250
4,658500	0,5	6,780400
4,666833	0,5	6,728150
4,675167	0,5	6,657850
4,683500	0,5	6,596050
4,691833	0,5	6,500050
4,700167	0,5	6,419750
4,708500	0,5	6,329900
4,716833	0,5	6,251600
4,725167	0,5	6,171100
4,733500	0,5	6,087100
4,741833	0,5	6,006300
4,750167	0,5	5,942600
4,758500	0,5	5,896300
4,766833	0,5	5,869450
4,775167	0,5	5,865400
4,783500	0,5	5,879850
4,791833	0,5	5,918050
4,800167	0,5	5,963500
4,808500	0,5	6,013750
4,816833	0,5	6,047950
4,825167	0,5	6,071800
4,833500	0,5	6,059500
4,841833	0,5	6,006350
4,850167	0,5	5,928450
4,858500	0,5	5,832250
4,866833	0,5	5,729100
4,875167	0,5	5,632550
4,883500	0,5	5,517150
4,891833	0,5	5,411600
4,900167	0,5	5,307550
4,908500	0,5	5,211700
4,916833	0,5	5,120750
4,925167	0,5	5,041400
4,933500	0,5	4,965400
4,941833	0,5	4,898800
4,950167	0,5	4,844050
4,958500	0,5	4,787500
4,966833	0,5	4,747100
4,975167	0,5	4,727450
4,983500	0,5	4,699750
4,991833	0,5	4,674900
5,000167	0,5	4,673250
5,008500	0,5	4,681050
5,016833	0,5	4,711850
5,025167	0,5	4,731050
5,033500	0,5	4,757050
5,041833	0,5	4,772000
5,050167	0,5	4,790250
5,058500	0,5	4,793700
5,066833	0,5	4,800500
5,075167	0,5	4,790850
5,083500	0,5	4,776950
5,091833	0,5	4,749200
5,100167	0,5	4,725050
5,108500	0,5	4,691000
5,116833	0,5	4,667700
5,125167	0,5	4,650900
5,133500	0,5	4,615400
5,141833	0,5	4,590950
5,150167	0,5	4,572350
5,158500	0,5	4,561700
5,166833	0,5	4,546700
5,175167	0,5	4,529250
5,183500	0,5	4,500600
5,191833	0,5	4,475750
5,200167	0,5	4,442450
5,208500	0,5	4,416950
5,216833	0,5	4,388700
5,225167	0,5	4,365150
5,233500	0,5	4,344350
5,241833	0,5	4,334700
5,250167	0,5	4,332350
5,258500	0,5	4,327600
5,266833	0,5	4,340250
5,275167	0,5	4,353200
5,283500	0,5	4,359250
5,291833	0,5	4,383750
5,300167	0,5	4,425400
5,308500	0,5	4,491900
5,316833	0,5	4,570000
5,325167	0,5	4,648850
5,333500	0,5	4,743250
5,341833	0,5	4,838750
5,350167	0,5	4,930050
5,358500	0,5	5,008600
5,366833	0,5	5,083800
5,375167	0,5	5,155850
5,383500	0,5	5,246850
5,391833	0,5	5,365250
5,400167	0,5	5,537100
5,408500	0,5	5,751150
5,416833	0,5	6,035950
5,425167	0,5	6,331750
5,433500	0,5	6,641500
5,441833	0,5	6,916200
5,450167	0,5	7,143800
5,458500	0,5	7,286400
5,466833	0,5	7,332000
5,475167	0,5	7,270300
5,483500	0,5	7,125650
5,491833	0,5	6,904100
5,500167	0,5	6,632400
5,508500	0,5	6,319000
5,516833	0,5	5,985650
5,525167	0,5	5,658050
5,533500	0,5	5,347900
5,541833	0,5	5,071750
5,550167	0,5	4,827000
5,558500	0,5	4,629350
5,566833	0,5	4,493000
5,575167	0,5	4,378550
5,583500	0,5	4,308300
5,591833	0,5	4,272750
5,600167	0,5	4,266300
5,608500	0,5	4,305950
5,616833	0,5	4,351700
5,625167	0,5	4,430000
5,633500	0,5	4,527050
5,641833	0,5	4,647750
5,650167	0,5	4,763750
5,658500	0,5	4,876300
5,666833	0,5	4,971150
5,675167	0,5	5,038150
5,683500	0,5	5,070100
5,691833	0,5	5,065550
5,700167	0,5	5,031250
5,708500	0,5	4,972000
5,716833	0,5	4,902000
5,725167	0,5	4,820200
5,733500	0,5	4,744950
5,741833	0,5	4,676850
5,750167	0,5	4,618950
5,758500	0,5	4,575150
5,766833	0,5	4,530500
5,775167	0,5	4,481250
5,783500	0,5	4,443500
5,791833	0,5	4,398900
5,800167	0,5	4,362900
5,808500	0,5	4,324800
5,816833	0,5	4,289600
5,825167	0,5	4,256950
5,833500	0,5	4,228400
5,841833	0,5	4,206450
5,850167	0,5	4,192850
5,858500	0,5	4,189600
5,866833	0,5	4,191950
5,875167	0,5	4,192700
5,883500	0,5	4,211100
5,891833	0,5	4,238150
5,900167	0,5	4,271500
5,908500	0,5	4,303000
5,916833	0,5	4,314050
5,925167	0,5	4,313250
5,933500	0,5	4,297150
5,941833	0,5	4,265150
5,950167	0,5	4,218000
5,958500	0,5	4,167500
5,966833	0,5	4,117600
5,975167	0,5	4,075100
5,983500	0,5	4,040900
5,991833	0,5	4,009650
6,000167	0,5	3,996150
6,008500	0,5	4,008600
6,016833	0,5	4,016700
6,025167	0,5	4,044700
6,033500	0,5	4,087500
6,041833	0,5	4,134950
6,050167	0,5	4,195550
6,058500	0,5	4,234850
6,066833	0,5	4,264550
6,075167	0,5	4,267500
6,083500	0,5	4,251000
6,091833	0,5	4,213300
6,100167	0,5	4,159150
6,108500	0,5	4,092300
6,116833	0,5	4,025500
6,125167	0,5	4,024850
6,133500	0,5	3,894550
6,141833	0,5	3,836150
6,150167	0,5	3,805100
6,158500	0,5	3,776950
6,166833	0,5	3,760050
6,175167	0,5	3,743900
6,183500	0,5	3,741650
6,191833	0,5	3,752200
6,200167	0,5	3,771550
6,208500	0,5	3,796800
6,216833	0,5	3,834350
6,225167	0,5	3,887250
6,233500	0,5	3,949250
6,241833	0,5	4,017800
6,250167	0,5	4,081700
6,258500	0,5	4,129400
6,266833	0,5	4,164200
6,275167	0,5	4,181600
6,283500	0,5	4,187300
6,291833	0,5	4,183050
6,300167	0,5	4,182250
6,308500	0,5	4,176350
6,316833	0,5	4,163450
6,325167	0,5	4,149850
6,333500	0,5	4,124400
6,341833	0,5	4,094300
6,350167	0,5	4,047900
6,358500	0,5	3,981650
6,366833	0,5	3,913750
6,375167	0,5	3,849150
6,383500	0,5	3,787450
6,391833	0,5	3,734750
6,400167	0,5	3,695850
6,408500	0,5	3,665000
6,416833	0,5	3,645350
6,425167	0,5	3,628700
6,433500	0,5	3,620600
6,441833	0,5	3,595450
6,450167	0,5	3,587650
6,458500	0,5	3,567100
6,466833	0,5	3,551900
6,475167	0,5	3,535550
6,483500	0,5	3,525200
6,491833	0,5	3,527950
6,500167	0,5	3,528750
6,508500	0,5	3,530350
6,516833	0,5	3,547200
6,525167	0,5	3,576000
6,533500	0,5	3,617200
6,541833	0,5	3,666800
6,550167	0,5	3,728100
6,558500	0,5	3,795400
6,566833	0,5	3,861650
6,575167	0,5	3,913800
6,583500	0,5	3,944200
6,591833	0,5	3,949450
6,600167	0,5	3,933900
6,608500	0,5	3,885250
6,616833	0,5	3,825350
6,625167	0,5	3,765350
6,633500	0,5	3,711950
6,641833	0,5	3,677050
6,650167	0,5	3,642850
6,658500	0,5	3,631050
6,666833	0,5	3,634350
6,675167	0,5	3,651900
6,683500	0,5	3,679200
6,691833	0,5	3,728000
6,700167	0,5	3,792950
6,708500	0,5	3,890400
6,716833	0,5	4,019600
6,725167	0,5	4,202350
6,733500	0,5	4,443650
6,741833	0,5	4,752800
6,750167	0,5	5,127850
6,758500	0,5	5,531750
6,766833	0,5	5,950550
6,775167	0,5	6,324600
6,783500	0,5	6,611800
6,791833	0,5	6,759000
6,800167	0,5	6,765000
6,808500	0,5	6,632850
6,816833	0,5	6,426200
6,825167	0,5	6,196100
6,833500	0,5	6,003200
6,841833	0,5	5,888750
6,850167	0,5	5,881750
6,858500	0,5	5,985850
6,866833	0,5	6,194650
6,875167	0,5	6,489800
6,883500	0,5	6,869250
6,891833	0,5	7,337300
6,900167	0,5	7,908900
6,908500	0,5	8,650150
6,916833	0,5	9,711650
6,925167	0,5	11,314300
6,933500	0,5	13,798400
6,941833	0,5	17,536400
6,950167	0,5	22,811250
6,958500	0,5	29,626400
6,966833	0,5	37,538151
6,975167	0,5	45,605951
6,983500	0,5	52,610201
6,991833	0,5	57,484751
7,000167	0,5	59,588201
7,008500	0,5	58,873001
7,016833	0,5	55,609601
7,025167	0,5	50,326551
7,033500	0,5	43,694651
7,041833	0,5	36,484401
7,050167	0,5	29,417200
7,058500	0,5	23,108550
7,066833	0,5	17,907450
7,075167	0,5	13,895600
7,083500	0,5	10,959500
7,091833	0,5	8,890900
7,100167	0,5	7,469850
7,108500	0,5	6,502600
7,116833	0,5	5,829500
7,125167	0,5	5,349000
7,133500	0,5	4,988250
7,141833	0,5	4,709600
7,150167	0,5	4,497800
7,158500	0,5	4,331550
7,166833	0,5	4,212250
7,175167	0,5	4,108400
7,183500	0,5	4,035050
7,191833	0,5	3,970850
7,200167	0,5	3,907500
7,208500	0,5	3,854600
7,216833	0,5	3,815250
7,225167	0,5	3,778050
7,233500	0,5	3,753350
7,241833	0,5	3,724650
7,250167	0,5	3,705150
7,258500	0,5	3,687650
7,266833	0,5	3,674250
7,275167	0,5	3,668000
7,283500	0,5	3,665750
7,291833	0,5	3,672100
7,300167	0,5	3,681900
7,308500	0,5	3,688500
7,316833	0,5	3,684200
7,325167	0,5	3,659100
7,333500	0,5	3,620850
7,341833	0,5	3,565650
7,350167	0,5	3,499200
7,358500	0,5	3,435950
7,366833	0,5	3,386750
7,375167	0,5	3,359600
7,383500	0,5	3,339100
7,391833	0,5	3,321650
7,400167	0,5	3,309500
7,408500	0,5	3,307900
7,416833	0,5	3,309950
7,425167	0,5	3,321300
7,433500	0,5	3,340100
7,441833	0,5	3,383200
7,450167	0,5	3,457750
7,458500	0,5	3,552600
7,466833	0,5	3,655000
7,475167	0,5	3,725650
7,483500	0,5	3,758400
7,491833	0,5	3,738250
7,500167	0,5	3,693650
7,508500	0,5	3,648550
7,516833	0,5	3,634800
7,525167	0,5	3,656850
7,533500	0,5	3,693650
7,541833	0,5	3,721100
7,550167	0,5	3,723050
7,558500	0,5	3,686550
7,566833	0,5	3,619800
7,575167	0,5	3,536650
7,583500	0,5	3,448150
7,591833	0,5	3,373550
7,600167	0,5	3,308550
7,608500	0,5	3,250500
7,616833	0,5	3,203200
7,625167	0,5	3,159850
7,633500	0,5	3,125200
7,641833	0,5	3,086500
7,650167	0,5	3,059950
7,658500	0,5	3,046100
7,666833	0,5	3,042600
7,675167	0,5	3,059000
7,683500	0,5	3,081000
7,691833	0,5	3,109750
7,700167	0,5	3,133900
7,708500	0,5	3,150850
7,716833	0,5	3,151650
7,725167	0,5	3,138000
7,733500	0,5	3,116900
7,741833	0,5	3,100400
7,750167	0,5	3,092700
7,758500	0,5	3,084800
7,766833	0,5	3,079450
7,775167	0,5	3,084000
7,783500	0,5	3,085600
7,791833	0,5	3,095500
7,800167	0,5	3,120850
7,808500	0,5	3,162300
7,816833	0,5	3,217800
7,825167	0,5	3,268650
7,833500	0,5	3,296700
7,841833	0,5	3,293650
7,850167	0,5	3,267600
7,858500	0,5	3,247900
7,866833	0,5	3,253650
7,875167	0,5	3,310950
7,883500	0,5	3,432650
7,891833	0,5	3,595500
7,900167	0,5	3,769750
7,908500	0,5	3,893500
7,916833	0,5	3,939850
7,925167	0,5	3,889500
7,933500	0,5	3,770100
7,941833	0,5	3,614950
7,950167	0,5	3,474900
7,958500	0,5	3,365900
7,966833	0,5	3,306000
7,975167	0,5	3,272000
7,983500	0,5	3,258550
7,991833	0,5	3,240250
8,000167	0,5	3,208900
8,008500	0,5	3,168450
8,016833	0,5	3,123000
8,025167	0,5	3,090500
8,033500	0,5	3,088950
8,041833	0,5	3,138600
8,050167	0,5	3,241350
8,058500	0,5	3,397150
8,066833	0,5	3,577100
8,075167	0,5	3,745350
8,083500	0,5	3,863750
8,091833	0,5	3,907250
8,100167	0,5	3,878500
8,108500	0,5	3,790250
8,116833	0,5	3,666400
8,125167	0,5	3,531450
8,133500	0,5	3,396900
8,141833	0,5	3,293700
8,150167	0,5	3,229000
8,158500	0,5	3,213100
8,166833	0,5	3,241250
8,175167	0,5	3,315750
8,183500	0,5	3,426600
8,191833	0,5	3,574400
8,200167	0,5	3,753750
8,208500	0,5	3,950950
8,216833	0,5	4,172950
8,225167	0,5	4,422650
8,233500	0,5	4,689950
8,241833	0,5	4,989650
8,250167	0,5	5,333100
8,258500	0,5	5,720350
8,266833	0,5	6,159600
8,275167	0,5	6,649200
8,283500	0,5	7,185150
8,291833	0,5	7,757350
8,300167	0,5	8,356750
8,308500	0,5	8,962600
8,316833	0,5	9,557400
8,325167	0,5	10,115100
8,333500	0,5	10,613450
8,341833	0,5	11,033500
8,350167	0,5	11,351200
8,358500	0,5	11,550650
8,366833	0,5	11,629900
8,375167	0,5	11,584000
8,383500	0,5	11,418750
8,391833	0,5	11,160700
8,400167	0,5	10,837600
8,408500	0,5	10,480650
8,416833	0,5	10,120200
8,425167	0,5	9,783150
8,433500	0,5	9,492600
8,441833	0,5	9,276750
8,450167	0,5	9,161650
8,458500	0,5	9,202750
8,466833	0,5	9,489800
8,475167	0,5	10,211000
8,483500	0,5	11,695900
8,491833	0,5	14,483800
8,500167	0,5	19,216600
8,508500	0,5	26,374600
8,516833	0,5	35,850651
8,525167	0,5	46,597301
8,533500	0,5	56,746951
8,541833	0,5	64,196551
8,550167	0,5	67,365901
8,558500	0,5	65,727951
8,566833	0,5	59,910501
8,575167	0,5	51,343801
8,583500	0,5	41,719501
8,591833	0,5	32,465250
8,600167	0,5	24,517200
8,608500	0,5	18,268700
8,616833	0,5	13,694700
8,625167	0,5	10,534250
8,633500	0,5	8,440250
8,641833	0,5	7,092250
8,650167	0,5	6,233300
8,658500	0,5	5,684450
8,666833	0,5	5,326800
8,675167	0,5	5,084500
8,683500	0,5	4,922350
8,691833	0,5	4,796550
8,700167	0,5	4,692350
8,708500	0,5	4,574750
8,716833	0,5	4,437500
8,725167	0,5	4,277250
8,733500	0,5	4,110350
8,741833	0,5	3,957750
8,750167	0,5	3,837000
8,758500	0,5	3,745750
8,766833	0,5	3,691300
8,775167	0,5	3,665850
8,783500	0,5	3,655600
8,791833	0,5	3,662750
8,800167	0,5	3,669100
8,808500	0,5	3,658950
8,816833	0,5	3,622550
8,825167	0,5	3,557250
8,833500	0,5	3,481700
8,841833	0,5	3,390900
8,850167	0,5	3,310800
8,858500	0,5	3,234700
8,866833	0,5	3,173300
8,875167	0,5	3,120150
8,883500	0,5	3,075250
8,891833	0,5	3,038500
8,900167	0,5	3,010800
8,908500	0,5	2,999800
8,916833	0,5	3,000200
8,925167	0,5	3,025850
8,933500	0,5	3,068500
8,941833	0,5	3,111600
8,950167	0,5	3,147600
8,958500	0,5	3,172650
8,966833	0,5	3,179300
8,975167	0,5	3,179950
8,983500	0,5	3,193900
8,991833	0,5	3,240200
9,000167	0,5	3,320650
9,008500	0,5	3,435950
9,016833	0,5	3,576350
9,025167	0,5	3,723200
9,033500	0,5	3,859500
9,041833	0,5	3,970500
9,050167	0,5	4,029450
9,058500	0,5	4,028350
9,066833	0,5	3,964800
9,075167	0,5	3,844000
9,083500	0,5	3,695650
9,091833	0,5	3,540150
9,100167	0,5	3,402300
9,108500	0,5	3,298850
9,116833	0,5	3,223850
9,125167	0,5	3,165250
9,133500	0,5	3,115000
9,141833	0,5	3,066200
9,150167	0,5	3,015250
9,158500	0,5	2,960000
9,166833	0,5	2,901000
9,175167	0,5	2,843450
9,183500	0,5	2,796750
9,191833	0,5	2,757300
9,200167	0,5	2,731600
9,208500	0,5	2,710500
9,216833	0,5	2,692200
9,225167	0,5	2,688850
9,233500	0,5	2,684350
9,241833	0,5	2,691650
9,250167	0,5	2,709350
9,258500	0,5	2,741750
9,266833	0,5	2,784150
9,275167	0,5	2,833750
9,283500	0,5	2,871950
9,291833	0,5	2,890700
9,300167	0,5	2,884550
9,308500	0,5	2,863050
9,316833	0,5	2,838300
9,325167	0,5	2,813300
9,333500	0,5	2,802950
9,341833	0,5	2,802500
9,350167	0,5	2,812250
9,358500	0,5	2,822850
9,366833	0,5	2,832950
9,375167	0,5	2,829900
9,383500	0,5	2,816400
9,391833	0,5	2,793600
9,400167	0,5	2,772300
9,408500	0,5	2,755800
9,416833	0,5	2,737950
9,425167	0,5	2,721500
9,433500	0,5	2,705850
9,441833	0,5	2,686000
9,450167	0,5	2,665950
9,458500	0,5	2,648200
9,466833	0,5	2,636650
9,475167	0,5	2,622200
9,483500	0,5	2,621550
9,491833	0,5	2,613850
9,500167	0,5	2,614000
9,508500	0,5	2,607500
9,516833	0,5	2,605350
9,525167	0,5	2,610500
9,533500	0,5	2,624950
9,541833	0,5	2,659100
9,550167	0,5	2,705400
9,558500	0,5	2,768900
9,566833	0,5	2,815750
9,575167	0,5	2,848200
9,583500	0,5	2,847150
9,591833	0,5	2,818750
9,600167	0,5	2,765300
9,608500	0,5	2,698500
9,616833	0,5	2,635350
9,625167	0,5	2,585650
9,633500	0,5	2,549150
9,641833	0,5	2,534900
9,650167	0,5	2,527200
9,658500	0,5	2,530700
9,666833	0,5	2,539050
9,675167	0,5	2,555750
9,683500	0,5	2,578500
9,691833	0,5	2,622650
9,700167	0,5	2,666650
9,708500	0,5	2,712300
9,716833	0,5	2,746050
9,725167	0,5	2,755700
9,733500	0,5	2,737600
9,741833	0,5	2,697450
9,750167	0,5	2,640100
9,758500	0,5	2,573350
9,766833	0,5	2,516900
9,775167	0,5	2,468200
9,783500	0,5	2,448100
9,791833	0,5	2,436350
9,800167	0,5	2,440600
9,808500	0,5	2,446350
9,816833	0,5	2,455700
9,825167	0,5	2,475000
9,833500	0,5	2,496450
9,841833	0,5	2,521800
9,850167	0,5	2,553350
9,858500	0,5	2,582550
9,866833	0,5	2,606450
9,875167	0,5	2,624600
9,883500	0,5	2,644400
9,891833	0,5	2,665150
9,900167	0,5	2,691050
9,908500	0,5	2,715900
9,916833	0,5	2,742200
9,925167	0,5	2,766200
9,933500	0,5	2,781100
9,941833	0,5	2,779400
9,950167	0,5	2,755800
9,958500	0,5	2,707700
9,966833	0,5	2,651550
9,975167	0,5	2,596650
9,983500	0,5	2,540200
9,991833	0,5	2,492300
10,000167	0,5	2,454100
10,008500	0,5	2,416300
10,016833	0,5	2,377500
10,025167	0,5	2,345750
10,033500	0,5	2,317850
10,041833	0,5	2,296400
10,050167	0,5	2,279900
10,058500	0,5	2,267750
10,066833	0,5	2,256500
10,075167	0,5	2,249250
10,083500	0,5	2,246950
10,091833	0,5	2,246500
10,100167	0,5	2,249150
10,108500	0,5	2,257700
10,116833	0,5	2,273000
10,125167	0,5	2,286850
10,133500	0,5	2,302250
10,141833	0,5	2,322950
10,150167	0,5	2,346000
10,158500	0,5	2,370000
10,166833	0,5	2,391400
10,175167	0,5	2,404900
10,183500	0,5	2,424150
10,191833	0,5	2,441000
10,200167	0,5	2,451300
10,208500	0,5	2,454700
10,216833	0,5	2,457250
10,225167	0,5	2,457350
10,233500	0,5	2,465150
10,241833	0,5	2,480400
10,250167	0,5	2,497700
10,258500	0,5	2,511900
10,266833	0,5	2,518650
10,275167	0,5	2,496700
10,283500	0,5	2,461250
10,291833	0,5	2,413950
10,300167	0,5	2,364350
10,308500	0,5	2,316500
10,316833	0,5	2,273200
10,325167	0,5	2,233750
10,333500	0,5	2,207800
10,341833	0,5	2,186100
10,350167	0,5	2,167650
10,358500	0,5	2,170200
10,366833	0,5	2,184650
10,375167	0,5	2,220650
10,383500	0,5	2,275550
10,391833	0,5	2,340500
10,400167	0,5	2,410750
10,408500	0,5	2,471550
10,416833	0,5	2,517200
10,425167	0,5	2,539150
10,433500	0,5	2,535600
10,441833	0,5	2,522500
10,450167	0,5	2,488000
10,458500	0,5	2,448000
10,466833	0,5	2,406200
10,475167	0,5	2,365850
10,483500	0,5	2,340500
10,491833	0,5	2,330900
10,500167	0,5	2,345500
10,508500	0,5	2,392500
10,516833	0,5	2,481350
10,525167	0,5	2,612550
10,533500	0,5	2,791650
10,541833	0,5	3,022300
10,550167	0,5	3,307350
10,558500	0,5	3,639200
10,566833	0,5	3,997300
10,575167	0,5	4,341450
10,583500	0,5	4,623250
10,591833	0,5	4,811050
10,600167	0,5	4,874800
10,608500	0,5	4,827000
10,616833	0,5	4,690550
10,625167	0,5	4,500850
10,633500	0,5	4,293950
10,641833	0,5	4,086150
10,650167	0,5	3,895350
10,658500	0,5	3,723050
10,666833	0,5	3,561200
10,675167	0,5	3,410550
10,683500	0,5	3,257300
10,691833	0,5	3,106150
10,700167	0,5	2,953300
10,708500	0,5	2,810100
10,716833	0,5	2,674450
10,725167	0,5	2,551800
10,733500	0,5	2,461300
10,741833	0,5	2,401900
10,750167	0,5	2,369850
10,758500	0,5	2,376100
10,766833	0,5	2,407150
10,775167	0,5	2,451150
10,783500	0,5	2,500700
10,791833	0,5	2,531500
10,800167	0,5	2,542550
10,808500	0,5	2,529950
10,816833	0,5	2,498900
10,825167	0,5	2,453400
10,833500	0,5	2,401000
10,841833	0,5	2,337700
10,850167	0,5	2,277900
10,858500	0,5	2,222950
10,866833	0,5	2,184550
10,875167	0,5	2,154600
10,883500	0,5	2,157150
10,891833	0,5	2,173600
10,900167	0,5	2,200450
10,908500	0,5	2,231250
10,916833	0,5	2,256550
10,925167	0,5	2,266850
10,933500	0,5	2,271350
10,941833	0,5	2,274900
10,950167	0,5	2,278700
10,958500	0,5	2,297300
10,966833	0,5	2,318400
10,975167	0,5	2,332850
10,983500	0,5	2,334700
10,991833	0,5	2,313300
11,000167	0,5	2,278550
11,008500	0,5	2,238550
11,016833	0,5	2,194650
11,025167	0,5	2,159100
11,033500	0,5	2,133150
11,041833	0,5	2,114650
11,050167	0,5	2,102250
11,058500	0,5	2,098700
11,066833	0,5	2,102900
11,075167	0,5	2,118550
11,083500	0,5	2,128800
11,091833	0,5	2,149350
11,100167	0,5	2,169300
11,108500	0,5	2,202250
11,116833	0,5	2,234500
11,125167	0,5	2,276400
11,133500	0,5	2,318100
11,141833	0,5	2,359350
11,150167	0,5	2,404150
11,158500	0,5	2,442650
11,166833	0,5	2,468000
11,175167	0,5	2,475100
11,183500	0,5	2,466150
11,191833	0,5	2,422950
11,200167	0,5	2,360600
11,208500	0,5	2,289300
11,216833	0,5	2,233450
11,225167	0,5	2,199050
11,233500	0,5	2,185400
11,241833	0,5	2,177850
11,250167	0,5	2,193650
11,258500	0,5	2,214600
11,266833	0,5	2,250750
11,275167	0,5	2,286850
11,283500	0,5	2,312150
11,291833	0,5	2,339200
11,300167	0,5	2,369000
11,308500	0,5	2,420750
11,316833	0,5	2,472700
11,325167	0,5	2,556250
11,333500	0,5	2,727350
11,341833	0,5	3,138350
11,350167	0,5	3,745650
11,358500	0,5	4,295700
11,366833	0,5	4,515350
11,375167	0,5	4,372950
11,383500	0,5	4,018700
11,391833	0,5	3,447450
11,400167	0,5	2,723450
11,408500	0,5	2,024150
11,416833	0,5	1,497400
11,425167	0,5	1,181700
11,433500	0,5	0,986500
11,441833	0,5	0,848450
11,450167	0,5	0,749500
11,458500	0,5	0,683600
11,466833	0,5	0,628400
11,475167	0,5	0,602150
11,483500	0,5	0,582750
11,491833	0,5	0,573950
11,500167	0,5	0,569350
11,508500	0,5	0,565850
11,516833	0,5	0,574000
11,525167	0,5	0,574300
11,533500	0,5	0,568650
11,541833	0,5	0,553150
11,550167	0,5	0,537100
11,558500	0,5	0,507100
11,566833	0,5	0,478900
11,575167	0,5	0,444950
11,583500	0,5	0,405750
11,591833	0,5	0,371000
11,600167	0,5	0,338000
11,608500	0,5	0,305600
11,616833	0,5	0,278600
11,625167	0,5	0,257750
11,633500	0,5	0,236400
11,641833	0,5	0,210600
11,650167	0,5	0,190000
11,658500	0,5	0,171200
11,666833	0,5	0,166900
11,675167	0,5	0,158600
11,683500	0,5	0,154950
11,691833	0,5	0,153400
11,700167	0,5	0,155350
11,708500	0,5	0,159200
11,716833	0,5	0,176700
11,725167	0,5	0,197300
11,733500	0,5	0,225550
11,741833	0,5	0,259300
11,750167	0,5	0,299950
11,758500	0,5	0,347950
11,766833	0,5	0,409450
11,775167	0,5	0,475100
11,783500	0,5	0,535100
11,791833	0,5	0,599250
11,800167	0,5	0,658500
11,808500	0,5	0,722900
11,816833	0,5	0,782000
11,825167	0,5	0,834000
11,833500	0,5	0,880100
11,841833	0,5	0,912000
11,850167	0,5	0,937400
11,858500	0,5	0,956150
11,866833	0,5	0,965100
11,875167	0,5	0,966700
11,883500	0,5	0,964150
11,891833	0,5	0,957850
11,900167	0,5	0,955400
11,908500	0,5	0,944100
11,916833	0,5	0,942950
11,925167	0,5	0,942300
11,933500	0,5	0,935900
11,941833	0,5	0,934250
11,950167	0,5	0,936150
11,958500	0,5	0,940400
11,966833	0,5	0,952050
11,975167	0,5	0,958650
11,983500	0,5	0,966600
11,991833	0,5	0,976200
12,000167	0,5	0,990000
12,008500	0,5	1,003300
12,016833	0,5	1,013300
12,025167	0,5	1,023150
12,033500	0,5	1,042000
12,041833	0,5	1,057400
12,050167	0,5	1,072500
12,058500	0,5	1,091150
12,066833	0,5	1,114750
12,075167	0,5	1,139400
12,083500	0,5	1,165100
12,091833	0,5	1,193900
12,100167	0,5	1,230450
12,108500	0,5	1,281950
12,116833	0,5	1,332400
12,125167	0,5	1,399750
12,133500	0,5	1,468250
12,141833	0,5	1,550250
12,150167	0,5	1,640500
12,158500	0,5	1,745500
12,166833	0,5	1,852550
12,175167	0,5	1,967100
12,183500	0,5	2,085800
12,191833	0,5	2,208350
12,200167	0,5	2,326150
12,208500	0,5	2,450450
12,216833	0,5	2,573450
12,225167	0,5	2,686450
12,233500	0,5	2,796100
12,241833	0,5	2,892150
12,250167	0,5	2,994250
12,258500	0,5	3,088150
12,266833	0,5	3,177400
12,275167	0,5	3,259200
12,283500	0,5	3,334950
12,291833	0,5	3,402950
12,300167	0,5	3,474200
12,308500	0,5	3,538250
12,316833	0,5	3,594600
12,325167	0,5	3,643700
12,333500	0,5	3,689350
12,341833	0,5	3,736250
12,350167	0,5	3,773800
12,358500	0,5	3,821150
12,366833	0,5	3,854100
12,375167	0,5	3,885300
12,383500	0,5	3,913600
12,391833	0,5	3,936100
12,400167	0,5	3,967350
12,408500	0,5	3,996300
12,416833	0,5	4,012900
12,425167	0,5	4,038050
12,433500	0,5	4,058250
12,441833	0,5	4,075150
12,450167	0,5	4,091600
12,458500	0,5	4,113550
12,466833	0,5	4,126850
12,475167	0,5	4,139350
12,483500	0,5	4,153400
12,491833	0,5	4,167350
12,500167	0,5	4,168500
12,508500	0,5	4,191300
12,516833	0,5	4,194650
12,525167	0,5	4,203200
12,533500	0,5	4,204500
12,541833	0,5	4,199750
12,550167	0,5	4,212700
12,558500	0,5	4,219050
12,566833	0,5	4,219050
12,575167	0,5	4,221600
12,583500	0,5	4,224750
12,591833	0,5	4,224300
12,600167	0,5	4,226700
12,608500	0,5	4,223350
12,616833	0,5	4,223300
12,625167	0,5	4,219700
12,633500	0,5	4,224300
12,641833	0,5	4,215550
12,650167	0,5	4,216100
12,658500	0,5	4,215950
12,666833	0,5	4,210400
12,675167	0,5	4,204800
12,683500	0,5	4,200550
12,691833	0,5	4,195450
12,700167	0,5	4,194600
12,708500	0,5	4,192450
12,716833	0,5	4,192500
12,725167	0,5	4,191350
12,733500	0,5	4,187950
12,741833	0,5	4,184900
12,750167	0,5	4,179500
12,758500	0,5	4,180450
12,766833	0,5	4,175250
12,775167	0,5	4,170350
12,783500	0,5	4,163500
12,791833	0,5	4,157500
12,800167	0,5	4,153950
12,808500	0,5	4,149750
12,816833	0,5	4,141800
12,825167	0,5	4,133200
12,833500	0,5	4,120450
12,841833	0,5	4,113700
12,850167	0,5	4,108100
12,858500	0,5	4,108750
12,866833	0,5	4,104300
12,875167	0,5	4,097050
12,883500	0,5	4,094150
12,891833	0,5	4,091500
12,900167	0,5	4,084050
12,908500	0,5	4,078700
12,916833	0,5	4,074000
12,925167	0,5	4,066350
12,933500	0,5	4,061200
12,941833	0,5	4,051950
12,950167	0,5	4,055450
12,958500	0,5	4,051600
12,966833	0,5	4,045700
12,975167	0,5	4,037550
12,983500	0,5	4,030450
12,991833	0,5	4,024050
13,000167	0,5	4,023150
13,008500	0,5	4,018350
13,016833	0,5	4,017800
13,025167	0,5	4,011500
13,033500	0,5	4,005600
13,041833	0,5	4,001750
13,050167	0,5	3,998200
13,058500	0,5	3,994850
13,066833	0,5	3,988850
13,075167	0,5	3,988500
13,083500	0,5	3,976450
13,091833	0,5	3,977750
13,100167	0,5	3,970700
13,108500	0,5	3,966400
13,116833	0,5	3,959100
13,125167	0,5	3,951200
13,133500	0,5	3,942450
13,141833	0,5	3,944850
13,150167	0,5	3,942900
13,158500	0,5	3,945250
13,166833	0,5	3,939750
13,175167	0,5	3,945000
13,183500	0,5	3,939800
13,191833	0,5	3,943150
13,200167	0,5	3,939400
13,208500	0,5	3,937550
13,216833	0,5	3,937700
13,225167	0,5	3,941600
13,233500	0,5	3,929000
13,241833	0,5	3,937200
13,250167	0,5	3,942200
13,258500	0,5	3,942750
13,266833	0,5	3,940200
13,275167	0,5	3,926600
13,283500	0,5	3,930900
13,291833	0,5	3,928100
13,300167	0,5	3,925050
13,308500	0,5	3,923400
13,316833	0,5	3,927900
13,325167	0,5	3,929950
13,333500	0,5	3,937900
13,341833	0,5	3,940450
13,350167	0,5	3,945100
13,358500	0,5	3,946900
13,366833	0,5	3,942100
13,375167	0,5	3,932500
13,383500	0,5	3,914800
13,391833	0,5	3,911750
13,400167	0,5	3,899750
13,408500	0,5	3,889500
13,416833	0,5	3,877350
13,425167	0,5	3,869750
13,433500	0,5	3,869900
13,441833	0,5	3,878700
13,450167	0,5	3,884450
13,458500	0,5	3,893400
13,466833	0,5	3,906950
13,475167	0,5	3,922350
13,483500	0,5	3,940200
13,491833	0,5	3,965950
13,500167	0,5	3,991150
13,508500	0,5	4,013750
13,516833	0,5	4,033100
13,525167	0,5	4,039000
13,533500	0,5	4,018850
13,541833	0,5	3,997950
13,550167	0,5	3,969200
13,558500	0,5	3,934450
13,566833	0,5	3,897550
13,575167	0,5	3,870150
13,583500	0,5	3,865200
13,591833	0,5	3,857600
13,600167	0,5	3,860750
13,608500	0,5	3,871350
13,616833	0,5	3,890850
13,625167	0,5	3,917600
13,633500	0,5	3,952000
13,641833	0,5	3,993850
13,650167	0,5	4,027350
13,658500	0,5	4,056700
13,666833	0,5	4,068750
13,675167	0,5	4,052500
13,683500	0,5	4,027550
13,691833	0,5	3,989300
13,700167	0,5	3,938600
13,708500	0,5	3,889200
13,716833	0,5	3,845050
13,725167	0,5	3,812200
13,733500	0,5	3,801550
13,741833	0,5	3,804450
13,750167	0,5	3,823650
13,758500	0,5	3,845500
13,766833	0,5	3,868750
13,775167	0,5	3,888600
13,783500	0,5	3,895500
13,791833	0,5	3,893200
13,800167	0,5	3,877000
13,808500	0,5	3,854100
13,816833	0,5	3,818700
13,825167	0,5	3,777150
13,833500	0,5	3,744050
13,841833	0,5	3,719950
13,850167	0,5	3,700500
13,858500	0,5	3,685750
13,866833	0,5	3,677550
13,875167	0,5	3,674450
13,883500	0,5	3,677100
13,891833	0,5	3,674650
13,900167	0,5	3,668000
13,908500	0,5	3,660050
13,916833	0,5	3,644250
13,925167	0,5	3,626300
13,933500	0,5	3,608700
13,941833	0,5	3,582400
13,950167	0,5	3,569400
13,958500	0,5	3,550850
13,966833	0,5	3,526550
13,975167	0,5	3,511400
13,983500	0,5	3,497200
13,991833	0,5	3,484650
14,000167	0,5	3,463700
14,008500	0,5	3,437600
14,016833	0,5	3,425100
14,025167	0,5	3,410650
14,033500	0,5	3,395300
14,041833	0,5	3,383000
14,050167	0,5	3,378800
14,058500	0,5	3,365100
14,066833	0,5	3,358000
14,075167	0,5	3,348350
14,083500	0,5	3,336500
14,091833	0,5	3,322800
14,100167	0,5	3,312150
14,108500	0,5	3,303900
14,116833	0,5	3,282350
14,125167	0,5	3,274300
14,133500	0,5	3,257550
14,141833	0,5	3,243050
14,150167	0,5	3,227050
14,158500	0,5	3,204600
14,166833	0,5	3,191900
14,175167	0,5	3,185850
14,183500	0,5	3,170650
14,191833	0,5	3,161800
14,200167	0,5	3,148750
14,208500	0,5	3,141800
14,216833	0,5	3,134500
14,225167	0,5	3,130700
14,233500	0,5	3,117450
14,241833	0,5	3,106650
14,250167	0,5	3,101450
14,258500	0,5	3,093650
14,266833	0,5	3,067550
14,275167	0,5	3,070800
14,283500	0,5	3,057150
14,291833	0,5	3,048400
14,300167	0,5	3,030700
14,308500	0,5	3,008550
14,316833	0,5	3,008050
14,325167	0,5	2,994300
14,333500	0,5	2,981700
14,341833	0,5	2,969700
14,350167	0,5	2,962500
14,358500	0,5	2,949300
14,366833	0,5	2,940500
14,375167	0,5	2,928000
14,383500	0,5	2,917250
14,391833	0,5	2,906350
14,400167	0,5	2,903300
14,408500	0,5	2,897850
14,416833	0,5	2,889450
14,425167	0,5	2,888600
14,433500	0,5	2,876000
14,441833	0,5	2,856800
14,450167	0,5	2,843200
14,458500	0,5	2,825900
14,466833	0,5	2,820450
14,475167	0,5	2,819000
14,483500	0,5	2,808400
14,491833	0,5	2,805550
14,500167	0,5	2,796800
14,508500	0,5	2,790500
14,516833	0,5	2,782400
14,525167	0,5	2,776200
14,533500	0,5	2,760000
14,541833	0,5	2,750300
14,550167	0,5	2,744650
14,558500	0,5	2,733100
14,566833	0,5	2,733500
14,575167	0,5	2,735450
14,583500	0,5	2,725000
14,591833	0,5	2,712000
14,600167	0,5	2,694050
14,608500	0,5	2,677150
14,616833	0,5	2,674150
14,625167	0,5	2,663450
14,633500	0,5	2,649600
14,641833	0,5	2,641900
14,650167	0,5	2,634400
14,658500	0,5	2,622250
14,666833	0,5	2,614650
14,675167	0,5	2,602000
14,683500	0,5	2,591850
14,691833	0,5	2,582550
14,700167	0,5	2,577350
14,708500	0,5	2,557650
14,716833	0,5	2,559650
14,725167	0,5	2,550200
14,733500	0,5	2,533850
14,741833	0,5	2,519700
14,750167	0,5	2,503100
14,758500	0,5	2,494700
14,766833	0,5	2,489600
14,775167	0,5	2,480500
14,783500	0,5	2,472150
14,791833	0,5	2,457900
14,800167	0,5	2,449300
14,808500	0,5	2,442000
14,816833	0,5	2,425000
14,825167	0,5	2,418700
14,833500	0,5	2,402600
14,841833	0,5	2,401250
14,850167	0,5	2,389400
14,858500	0,5	2,382250
14,866833	0,5	2,379650
14,875167	0,5	2,368000
14,883500	0,5	2,359650
14,891833	0,5	2,339100
14,900167	0,5	2,331100
14,908500	0,5	2,321500
14,916833	0,5	2,318700
14,925167	0,5	2,312200
14,933500	0,5	2,303850
14,941833	0,5	2,300450
14,950167	0,5	2,291700
14,958500	0,5	2,285750
14,966833	0,5	2,280250
14,975167	0,5	2,270400
14,983500	0,5	2,266550
14,991833	0,5	2,259100
15,000167	0,5	2,242200
15,008500	0,5	2,236550
15,016833	0,5	2,236600
15,025167	0,5	2,225400
15,033500	0,5	2,212300
15,041833	0,5	2,195500
15,050167	0,5	2,187850
15,058500	0,5	2,180350
15,066833	0,5	2,177450
15,075167	0,5	2,171050
15,083500	0,5	2,164900
15,091833	0,5	2,160400
15,100167	0,5	2,159700
15,108500	0,5	2,153500
15,116833	0,5	2,142750
15,125167	0,5	2,138150
15,133500	0,5	2,131200
15,141833	0,5	2,128450
15,150167	0,5	2,109300
15,158500	0,5	2,116550
15,166833	0,5	2,107250
15,175167	0,5	2,100100
15,183500	0,5	2,088850
15,191833	0,5	2,072650
15,200167	0,5	2,066100
15,208500	0,5	2,062000
15,216833	0,5	2,052350
15,225167	0,5	2,046500
15,233500	0,5	2,028650
15,241833	0,5	2,024950
15,250167	0,5	2,017050
15,258500	0,5	2,011650
15,266833	0,5	2,005700
15,275167	0,5	1,996100
15,283500	0,5	1,997150
15,291833	0,5	1,992150
15,300167	0,5	1,976800
15,308500	0,5	1,980700
15,316833	0,5	1,974000
15,325167	0,5	1,960450
15,333500	0,5	1,942450
15,341833	0,5	1,931000
15,350167	0,5	1,933600
15,358500	0,5	1,924800
15,366833	0,5	1,917450
15,375167	0,5	1,908150
15,383500	0,5	1,903950
15,391833	0,5	1,893600
15,400167	0,5	1,893150
15,408500	0,5	1,883500
15,416833	0,5	1,872850
15,425167	0,5	1,862850
15,433500	0,5	1,853450
15,441833	0,5	1,832700
15,450167	0,5	1,830900
15,458500	0,5	1,822700
15,466833	0,5	1,813300
15,475167	0,5	1,800550
15,483500	0,5	1,779950
15,491833	0,5	1,768300
15,500167	0,5	1,765150
15,508500	0,5	1,758400
15,516833	0,5	1,745800
15,525167	0,5	1,739000
15,533500	0,5	1,722950
15,541833	0,5	1,719300
15,550167	0,5	1,711950
15,558500	0,5	1,703950
15,566833	0,5	1,696000
15,575167	0,5	1,692000
15,583500	0,5	1,688100
15,591833	0,5	1,677050
15,600167	0,5	1,678650
15,608500	0,5	1,676050
15,616833	0,5	1,671150
15,625167	0,5	1,661400
15,633500	0,5	1,645950
15,641833	0,5	1,646400
15,650167	0,5	1,651600
15,658500	0,5	1,648250
15,666833	0,5	1,648450
15,675167	0,5	1,647150
15,683500	0,5	1,645000
15,691833	0,5	1,638800
15,700167	0,5	1,640100
15,708500	0,5	1,627550
15,716833	0,5	1,618800
15,725167	0,5	1,607300
15,733500	0,5	1,596200
15,741833	0,5	1,582800
15,750167	0,5	1,588250
15,758500	0,5	1,573250
15,766833	0,5	1,562200
15,775167	0,5	1,541350
15,783500	0,5	1,523250
15,791833	0,5	1,515800
15,800167	0,5	1,508550
15,808500	0,5	1,503900
15,816833	0,5	1,494350
15,825167	0,5	1,487800
15,833500	0,5	1,478350
15,841833	0,5	1,477700
15,850167	0,5	1,471450
15,858500	0,5	1,467850
15,866833	0,5	1,468000
15,875167	0,5	1,462200
15,883500	0,5	1,445500
15,891833	0,5	1,445100
15,900167	0,5	1,437100
15,908500	0,5	1,423250
15,916833	0,5	1,413650
15,925167	0,5	1,387950
15,933500	0,5	1,378950
15,941833	0,5	1,378650
15,950167	0,5	1,376700
15,958500	0,5	1,372250
15,966833	0,5	1,367750
15,975167	0,5	1,362950
15,983500	0,5	1,362200
15,991833	0,5	1,351400
16,000167	0,5	1,343250
16,008500	0,5	1,334950
16,016833	0,5	1,337000
16,025167	0,5	1,321650
16,033500	0,5	1,307000
16,041833	0,5	1,315100
16,050167	0,5	1,313400
16,058500	0,5	1,301500
16,066833	0,5	1,296200
16,075167	0,5	1,278600
16,083500	0,5	1,271150
16,091833	0,5	1,263650
16,100167	0,5	1,256750
16,108500	0,5	1,243450
16,116833	0,5	1,242900
16,125167	0,5	1,226300
16,133500	0,5	1,222200
16,141833	0,5	1,215550
16,150167	0,5	1,202400
16,158500	0,5	1,197150
16,166833	0,5	1,191550
16,175167	0,5	1,177550
16,183500	0,5	1,169750
16,191833	0,5	1,169900
16,200167	0,5	1,163900
16,208500	0,5	1,152950
16,216833	0,5	1,138000
16,225167	0,5	1,125700
16,233500	0,5	1,124700
16,241833	0,5	1,125350
16,250167	0,5	1,116450
16,258500	0,5	1,114750
16,266833	0,5	1,108600
16,275167	0,5	1,104900
16,283500	0,5	1,103450
16,291833	0,5	1,098700
16,300167	0,5	1,099300
16,308500	0,5	1,092050
16,316833	0,5	1,098050
16,325167	0,5	1,081250
16,333500	0,5	1,094800
16,341833	0,5	1,102800
16,350167	0,5	1,101650
16,358500	0,5	1,094250
16,366833	0,5	1,079750
16,375167	0,5	1,073850
16,383500	0,5	1,075350
16,391833	0,5	1,069400
16,400167	0,5	1,069150
16,408500	0,5	1,064000
16,416833	0,5	1,069350
16,425167	0,5	1,063450
16,433500	0,5	1,067850
16,441833	0,5	1,067100
16,450167	0,5	1,063600
16,458500	0,5	1,065650
16,466833	0,5	1,068300
16,475167	0,5	1,058950
16,483500	0,5	1,076050
16,491833	0,5	1,077100
16,500167	0,5	1,080450
16,508500	0,5	1,084300
16,516833	0,5	1,076250
16,525167	0,5	1,093950
16,533500	0,5	1,105850
16,541833	0,5	1,121400
16,550167	0,5	1,129800
16,558500	0,5	1,140950
16,566833	0,5	1,139450
16,575167	0,5	1,143450
16,583500	0,5	1,140350
16,591833	0,5	1,140600
16,600167	0,5	1,134050
16,608500	0,5	1,134350
16,616833	0,5	1,127750
16,625167	0,5	1,113500
16,633500	0,5	1,116700
16,641833	0,5	1,111900
16,650167	0,5	1,099100
16,658500	0,5	1,087350
16,666833	0,5	1,078750
16,675167	0,5	1,074000
16,683500	0,5	1,082100
16,691833	0,5	1,079150
16,700167	0,5	1,086050
16,708500	0,5	1,089100
16,716833	0,5	1,094100
16,725167	0,5	1,090850
16,733500	0,5	1,100050
16,741833	0,5	1,099900
16,750167	0,5	1,105400
16,758500	0,5	1,108100
16,766833	0,5	1,100500
16,775167	0,5	1,101550
16,783500	0,5	1,110400
16,791833	0,5	1,103600
16,800167	0,5	1,095050
16,808500	0,5	1,078650
16,816833	0,5	1,063850
16,825167	0,5	1,059400
16,833500	0,5	1,059150
16,841833	0,5	1,061800
16,850167	0,5	1,064600
16,858500	0,5	1,077150
16,866833	0,5	1,091850
16,875167	0,5	1,116200
16,883500	0,5	1,133350
16,891833	0,5	1,158950
16,900167	0,5	1,179900
16,908500	0,5	1,193650
16,916833	0,5	1,187550
16,925167	0,5	1,189100
16,933500	0,5	1,185750
16,941833	0,5	1,175700
16,950167	0,5	1,157050
16,958500	0,5	1,135850
16,966833	0,5	1,127500
16,975167	0,5	1,109750
16,983500	0,5	1,087350
16,991833	0,5	1,061950
17,000167	0,5	1,034850
17,008500	0,5	1,006250
17,016833	0,5	0,980650
17,025167	0,5	0,953300
17,033500	0,5	0,945650
17,041833	0,5	0,933250
17,050167	0,5	0,938750
17,058500	0,5	0,930850
17,066833	0,5	0,940000
17,075167	0,5	0,948850
17,083500	0,5	0,955700
17,091833	0,5	0,949300
17,100167	0,5	0,941450
17,108500	0,5	0,929500
17,116833	0,5	0,928750
17,125167	0,5	0,910450
17,133500	0,5	0,902000
17,141833	0,5	0,890600
17,150167	0,5	0,877650
17,158500	0,5	0,864550
17,166833	0,5	0,848350
17,175167	0,5	0,832100
17,183500	0,5	0,810600
17,191833	0,5	0,801850
17,200167	0,5	0,796300
17,208500	0,5	0,774550
17,216833	0,5	0,777150
17,225167	0,5	0,776400
17,233500	0,5	0,771050
17,241833	0,5	0,770300
17,250167	0,5	0,750200
17,258500	0,5	0,751950
17,266833	0,5	0,750000
17,275167	0,5	0,742850
17,283500	0,5	0,735450
17,291833	0,5	0,727100
17,300167	0,5	0,722350
17,308500	0,5	0,716150
17,316833	0,5	0,713500
17,325167	0,5	0,702750
17,333500	0,5	0,692600
17,341833	0,5	0,675100
17,350167	0,5	0,664600
17,358500	0,5	0,632650
17,366833	0,5	0,627400
17,375167	0,5	0,613350
17,383500	0,5	0,594950
17,391833	0,5	0,570500
17,400167	0,5	0,544650
17,408500	0,5	0,537400
17,416833	0,5	0,535300
17,425167	0,5	0,520600
17,433500	0,5	0,515950
17,441833	0,5	0,510550
17,450167	0,5	0,507150
17,458500	0,5	0,497400
17,466833	0,5	0,494850
17,475167	0,5	0,489450
17,483500	0,5	0,479600
17,491833	0,5	0,480150
17,500167	0,5	0,469500
17,508500	0,5	0,460600
17,516833	0,5	0,462800
17,525167	0,5	0,452300
17,533500	0,5	0,439600
17,541833	0,5	0,429500
17,550167	0,5	0,409300
17,558500	0,5	0,411950
17,566833	0,5	0,403950
17,575167	0,5	0,402700
17,583500	0,5	0,394800
17,591833	0,5	0,395100
17,600167	0,5	0,386750
17,608500	0,5	0,388300
17,616833	0,5	0,385800
17,625167	0,5	0,378650
17,633500	0,5	0,383500
17,641833	0,5	0,386550
17,650167	0,5	0,377100
17,658500	0,5	0,377950
17,666833	0,5	0,380850
17,675167	0,5	0,371650
17,683500	0,5	0,365600
17,691833	0,5	0,349900
17,700167	0,5	0,345950
17,708500	0,5	0,340150
17,716833	0,5	0,343600
17,725167	0,5	0,331600
17,733500	0,5	0,333300
17,741833	0,5	0,326100
17,750167	0,5	0,322750
17,758500	0,5	0,319100
17,766833	0,5	0,312150
17,775167	0,5	0,302150
17,783500	0,5	0,301000
17,791833	0,5	0,291050
17,800167	0,5	0,280950
17,808500	0,5	0,282200
17,816833	0,5	0,277400
17,825167	0,5	0,267200
17,833500	0,5	0,253250
17,841833	0,5	0,241000
17,850167	0,5	0,228400
17,858500	0,5	0,231750
17,866833	0,5	0,219800
17,875167	0,5	0,216050
17,883500	0,5	0,203700
17,891833	0,5	0,195500
17,900167	0,5	0,183050
17,908500	0,5	0,169950
17,916833	0,5	0,153200
17,925167	0,5	0,143150
17,933500	0,5	0,137900
17,941833	0,5	0,121250
17,950167	0,5	0,108900
17,958500	0,5	0,111050
17,966833	0,5	0,101550
17,975167	0,5	0,091950
17,983500	0,5	0,070400
17,991833	0,5	0,059600
18,000167	0,5	0,059050
18,008500	0,5	0,048350
18,016833	0,5	0,044400
18,025167	0,5	0,037650
18,033500	0,5	0,038850
18,041833	0,5	0,032000
18,050167	0,5	0,030950
18,058500	0,5	0,023850
18,066833	0,5	0,016850
18,075167	0,5	0,020300
18,083500	0,5	0,018650
18,091833	0,5	-0,005150
18,100167	0,5	-0,002250
18,108500	0,5	-0,005750
18,116833	0,5	-0,016950
18,125167	0,5	-0,024900
18,133500	0,5	-0,044550
18,141833	0,5	-0,043950
18,150167	0,5	-0,049350
18,158500	0,5	-0,049100
18,166833	0,5	-0,053600
18,175167	0,5	-0,054950
18,183500	0,5	-0,056250
18,191833	0,5	-0,056100
18,200167	0,5	-0,062800
18,208500	0,5	-0,059750
18,216833	0,5	-0,074200
18,225167	0,5	-0,066650
18,233500	0,5	-0,070200
18,241833	0,5	-0,083150
18,250167	0,5	-0,077250
18,258500	0,5	-0,077100
18,266833	0,5	-0,086900
18,275167	0,5	-0,090950
18,283500	0,5	-0,112300
18,291833	0,5	-0,109600
18,300167	0,5	-0,110450
18,308500	0,5	-0,113500
18,316833	0,5	-0,117850
18,325167	0,5	-0,124850
18,333500	0,5	-0,120400
18,341833	0,5	-0,123550
18,350167	0,5	-0,121900
18,358500	0,5	-0,123700
18,366833	0,5	-0,124950
18,375167	0,5	-0,124800
18,383500	0,5	-0,122700
18,391833	0,5	-0,131500
18,400167	0,5	-0,123550
18,408500	0,5	-0,125400
18,416833	0,5	-0,137400
18,425167	0,5	-0,153800
18,433500	0,5	-0,155150
18,441833	0,5	-0,152750
18,450167	0,5	-0,149750
18,458500	0,5	-0,152800
18,466833	0,5	-0,156900
18,475167	0,5	-0,154750
18,483500	0,5	-0,155100
18,491833	0,5	-0,154600
18,500167	0,5	-0,155250
18,508500	0,5	-0,155250
18,516833	0,5	-0,156500
18,525167	0,5	-0,150250
18,533500	0,5	-0,165800
18,541833	0,5	-0,155300
18,550167	0,5	-0,156250
18,558500	0,5	-0,156700
18,566833	0,5	-0,166200
18,575167	0,5	-0,182200
18,583500	0,5	-0,179900
18,591833	0,5	-0,173500
18,600167	0,5	-0,173750
18,608500	0,5	-0,166150
18,616833	0,5	-0,168850
18,625167	0,5	-0,168150
18,633500	0,5	-0,160600
18,641833	0,5	-0,164250
18,650167	0,5	-0,165650
18,658500	0,5	-0,171000
18,666833	0,5	-0,165050
18,675167	0,5	-0,170650
18,683500	0,5	-0,180350
18,691833	0,5	-0,173650
18,700167	0,5	-0,176600
18,708500	0,5	-0,180150
18,716833	0,5	-0,193200
18,725167	0,5	-0,210600
18,733500	0,5	-0,210150
18,741833	0,5	-0,214200
18,750167	0,5	-0,214450
18,758500	0,5	-0,223600
18,766833	0,5	-0,225000
18,775167	0,5	-0,231350
18,783500	0,5	-0,231300
18,791833	0,5	-0,237000
18,800167	0,5	-0,242000
18,808500	0,5	-0,236950
18,816833	0,5	-0,247200
18,825167	0,5	-0,252600
18,833500	0,5	-0,252400
18,841833	0,5	-0,249100
18,850167	0,5	-0,257100
18,858500	0,5	-0,259400
18,866833	0,5	-0,279200
18,875167	0,5	-0,288550
18,883500	0,5	-0,293050
18,891833	0,5	-0,289500
18,900167	0,5	-0,290700
18,908500	0,5	-0,289550
18,916833	0,5	-0,295000
18,925167	0,5	-0,293100
18,933500	0,5	-0,293450
18,941833	0,5	-0,294250
18,950167	0,5	-0,299150
18,958500	0,5	-0,291050
18,966833	0,5	-0,291250
18,975167	0,5	-0,307250
18,983500	0,5	-0,305800
18,991833	0,5	-0,303350
19,000167	0,5	-0,311100
19,008500	0,5	-0,323000
19,016833	0,5	-0,344150
19,025167	0,5	-0,347950
19,033500	0,5	-0,336950
19,041833	0,5	-0,347700
19,050167	0,5	-0,346650
19,058500	0,5	-0,350850
19,066833	0,5	-0,351050
19,075167	0,5	-0,354500
19,083500	0,5	-0,356850
19,091833	0,5	-0,360400
19,100167	0,5	-0,365150
19,108500	0,5	-0,364550
19,116833	0,5	-0,378600
19,125167	0,5	-0,389650
19,133500	0,5	-0,381300
19,141833	0,5	-0,385800
19,150167	0,5	-0,393400
19,158500	0,5	-0,407400
19,166833	0,5	-0,422250
19,175167	0,5	-0,422450
19,183500	0,5	-0,433850
19,191833	0,5	-0,437350
19,200167	0,5	-0,447550
19,208500	0,5	-0,448350
19,216833	0,5	-0,464450
19,225167	0,5	-0,458050
19,233500	0,5	-0,468550
19,241833	0,5	-0,473700
19,250167	0,5	-0,473750
19,258500	0,5	-0,467250
19,266833	0,5	-0,484150
19,275167	0,5	-0,466900
19,283500	0,5	-0,454750
19,291833	0,5	-0,454050
19,300167	0,5	-0,459250
19,308500	0,5	-0,481350
19,316833	0,5	-0,494300
19,325167	0,5	-0,503300
19,333500	0,5	-0,511450
19,341833	0,5	-0,526200
19,350167	0,5	-0,529750
19,358500	0,5	-0,537200
19,366833	0,5	-0,535250
19,375167	0,5	-0,544400
19,383500	0,5	-0,538150
19,391833	0,5	-0,538450
19,400167	0,5	-0,529100
19,408500	0,5	-0,510200
19,416833	0,5	-0,513400
19,425167	0,5	-0,476250
19,433500	0,5	-0,451250
19,441833	0,5	-0,438100
19,450167	0,5	-0,440350
19,458500	0,5	-0,471200
19,466833	0,5	-0,492700
19,475167	0,5	-0,513000
19,483500	0,5	-0,544750
19,491833	0,5	-0,563200
19,500167	0,5	-0,582600
19,508500	0,5	-0,588350
19,516833	0,5	-0,597950
19,525167	0,5	-0,594700
19,533500	0,5	-0,599100
19,541833	0,5	-0,600850
19,550167	0,5	-0,598900
19,558500	0,5	-0,598600
19,566833	0,5	-0,605250
19,575167	0,5	-0,594250
19,583500	0,5	-0,593700
19,591833	0,5	-0,599450
19,600167	0,5	-0,610550
19,608500	0,5	-0,628650
19,616833	0,5	-0,626400
19,625167	0,5	-0,625800
19,633500	0,5	-0,628400
19,641833	0,5	-0,626800
19,650167	0,5	-0,621650
19,658500	0,5	-0,622150
19,666833	0,5	-0,612600
19,675167	0,5	-0,602600
19,683500	0,5	-0,583450
19,691833	0,5	-0,559100
19,700167	0,5	-0,535650
19,708500	0,5	-0,529400
19,716833	0,5	-0,527850
19,725167	0,5	-0,527600
19,733500	0,5	-0,540750
19,741833	0,5	-0,564700
19,750167	0,5	-0,589500
19,758500	0,5	-0,601600
19,766833	0,5	-0,604650
19,775167	0,5	-0,602550
19,783500	0,5	-0,610050
19,791833	0,5	-0,612700
19,800167	0,5	-0,624850
19,808500	0,5	-0,635950
19,816833	0,5	-0,667250
19,825167	0,5	-0,681050
19,833500	0,5	-0,694150
19,841833	0,5	-0,700500
19,850167	0,5	-0,709550
19,858500	0,5	-0,721400
19,866833	0,5	-0,719800
19,875167	0,5	-0,720350
19,883500	0,5	-0,725500
19,891833	0,5	-0,734100
19,900167	0,5	-0,744650
19,908500	0,5	-0,747850
19,916833	0,5	-0,744550
19,925167	0,5	-0,736650
19,933500	0,5	-0,734200
19,941833	0,5	-0,725650
19,950167	0,5	-0,719400
19,958500	0,5	-0,709350
19,966833	0,5	-0,701500
19,975167	0,5	-0,695600
19,983500	0,5	-0,680150
19,991833	0,5	-0,667800
20,000167	0,5	-0,668050
20,008500	0,5	-0,667750
20,016833	0,5	-0,672400
20,025167	0,5	-0,694450
20,033500	0,5	-0,713200
20,041833	0,5	-0,750150
20,050167	0,5	-0,761900
20,058500	0,5	-0,770350
20,066833	0,5	-0,776450
20,075167	0,5	-0,778550
20,083500	0,5	-0,779200
20,091833	0,5	-0,778900
20,100167	0,5	-0,786950
20,108500	0,5	-0,782350
20,116833	0,5	-0,792300
20,125167	0,5	-0,780950
20,133500	0,5	-0,774900
20,141833	0,5	-0,767650
20,150167	0,5	-0,780600
20,158500	0,5	-0,766050
20,166833	0,5	-0,761300
20,175167	0,5	-0,757600
20,183500	0,5	-0,761100
20,191833	0,5	-0,765250
20,200167	0,5	-0,748850
20,208500	0,5	-0,738300
20,216833	0,5	-0,733450
20,225167	0,5	-0,721000
20,233500	0,5	-0,705400
20,241833	0,5	-0,690300
20,250167	0,5	-0,673700
20,258500	0,5	-0,658450
20,266833	0,5	-0,643100
20,275167	0,5	-0,642500
20,283500	0,5	-0,640200
20,291833	0,5	-0,667350
20,300167	0,5	-0,696000
20,308500	0,5	-0,719650
20,316833	0,5	-0,739000
20,325167	0,5	-0,756950
20,333500	0,5	-0,776400
20,341833	0,5	-0,793350
20,350167	0,5	-0,789600
20,358500	0,5	-0,796200
20,366833	0,5	-0,796600
20,375167	0,5	-0,796350
20,383500	0,5	-0,793750
20,391833	0,5	-0,793350
20,400167	0,5	-0,788250
20,408500	0,5	-0,784450
20,416833	0,5	-0,786800
20,425167	0,5	-0,767400
20,433500	0,5	-0,756250
20,441833	0,5	-0,765550
20,450167	0,5	-0,765800
20,458500	0,5	-0,772450
20,466833	0,5	-0,787600
20,475167	0,5	-0,811100
20,483500	0,5	-0,837500
20,491833	0,5	-0,833750
20,500167	0,5	-0,838200
20,508500	0,5	-0,836600
20,516833	0,5	-0,847350
20,525167	0,5	-0,839000
20,533500	0,5	-0,839600
20,541833	0,5	-0,836500
20,550167	0,5	-0,830200
20,558500	0,5	-0,824850
20,566833	0,5	-0,814500
20,575167	0,5	-0,801050
20,583500	0,5	-0,787900
20,591833	0,5	-0,794200
20,600167	0,5	-0,779600
20,608500	0,5	-0,777600
20,616833	0,5	-0,769400
20,625167	0,5	-0,767650
20,633500	0,5	-0,757750
20,641833	0,5	-0,740450
20,650167	0,5	-0,733250
20,658500	0,5	-0,739250
20,666833	0,5	-0,745700
20,675167	0,5	-0,754850
20,683500	0,5	-0,758350
20,691833	0,5	-0,758750
20,700167	0,5	-0,757200
20,708500	0,5	-0,757500
20,716833	0,5	-0,747800
20,725167	0,5	-0,729150
20,733500	0,5	-0,726300
20,741833	0,5	-0,731800
20,750167	0,5	-0,724700
20,758500	0,5	-0,738000
20,766833	0,5	-0,755850
20,775167	0,5	-0,775050
20,783500	0,5	-0,792200
20,791833	0,5	-0,789500
20,800167	0,5	-0,790650
20,808500	0,5	-0,786300
20,816833	0,5	-0,789150
20,825167	0,5	-0,777350
20,833500	0,5	-0,773300
20,841833	0,5	-0,766650
20,850167	0,5	-0,764200
20,858500	0,5	-0,763150
20,866833	0,5	-0,743800
20,875167	0,5	-0,733400
20,883500	0,5	-0,737550
20,891833	0,5	-0,734900
20,900167	0,5	-0,727800
20,908500	0,5	-0,735300
20,916833	0,5	-0,738050
20,925167	0,5	-0,748350
20,933500	0,5	-0,748550
20,941833	0,5	-0,754300
20,950167	0,5	-0,749700
20,958500	0,5	-0,750850
20,966833	0,5	-0,742650
20,975167	0,5	-0,742200
20,983500	0,5	-0,741200
20,991833	0,5	-0,743800
21,000167	0,5	-0,746050
21,008500	0,5	-0,744350
21,016833	0,5	-0,723050
21,025167	0,5	-0,724400
21,033500	0,5	-0,725150
21,041833	0,5	-0,719350
21,050167	0,5	-0,719250
21,058500	0,5	-0,722950
21,066833	0,5	-0,742350
21,075167	0,5	-0,735400
21,083500	0,5	-0,733750
21,091833	0,5	-0,721700
21,100167	0,5	-0,721850
21,108500	0,5	-0,714500
21,116833	0,5	-0,722400
21,125167	0,5	-0,716050
21,133500	0,5	-0,714750
21,141833	0,5	-0,715750
21,150167	0,5	-0,714800
21,158500	0,5	-0,694850
21,166833	0,5	-0,683050
21,175167	0,5	-0,683550
21,183500	0,5	-0,686650
21,191833	0,5	-0,683200
21,200167	0,5	-0,685100
21,208500	0,5	-0,697150
21,216833	0,5	-0,704250
21,225167	0,5	-0,690500
21,233500	0,5	-0,679300
21,241833	0,5	-0,674950
21,250167	0,5	-0,669800
21,258500	0,5	-0,669650
21,266833	0,5	-0,663650
21,275167	0,5	-0,660250
21,283500	0,5	-0,651450
21,291833	0,5	-0,645600
21,300167	0,5	-0,641600
21,308500	0,5	-0,612550
21,316833	0,5	-0,602250
21,325167	0,5	-0,608300
21,333500	0,5	-0,604150
21,341833	0,5	-0,602550
21,350167	0,5	-0,614200
21,358500	0,5	-0,617700
21,366833	0,5	-0,614150
21,375167	0,5	-0,597750
21,383500	0,5	-0,593450
21,391833	0,5	-0,577700
21,400167	0,5	-0,567350
21,408500	0,5	-0,552300
21,416833	0,5	-0,538600
21,425167	0,5	-0,515700
21,433500	0,5	-0,498500
21,441833	0,5	-0,474150
21,450167	0,5	-0,431500
21,458500	0,5	-0,397750
21,466833	0,5	-0,390200
21,475167	0,5	-0,393000
21,483500	0,5	-0,397100
21,491833	0,5	-0,404800
21,500167	0,5	-0,412450
21,508500	0,5	-0,431550
21,516833	0,5	-0,426250
21,525167	0,5	-0,418850
21,533500	0,5	-0,414150
21,541833	0,5	-0,412350
21,550167	0,5	-0,402650
21,558500	0,5	-0,397600
21,566833	0,5	-0,384050
21,575167	0,5	-0,378600
21,583500	0,5	-0,364800
21,591833	0,5	-0,353300
21,600167	0,5	-0,321350
21,608500	0,5	-0,303000
21,616833	0,5	-0,306550
21,625167	0,5	-0,294800
21,633500	0,5	-0,289750
21,641833	0,5	-0,280050
21,650167	0,5	-0,281350
21,658500	0,5	-0,277850
21,666833	0,5	-0,263450
21,675167	0,5	-0,241600
21,683500	0,5	-0,229800
21,691833	0,5	-0,207750
21,700167	0,5	-0,197600
21,708500	0,5	-0,175550
21,716833	0,5	-0,161000
21,725167	0,5	-0,138600
21,733500	0,5	-0,123200
21,741833	0,5	-0,101500
21,750167	0,5	-0,072350
21,758500	0,5	-0,061900
21,766833	0,5	-0,046200
21,775167	0,5	-0,033600
21,783500	0,5	-0,026200
21,791833	0,5	-0,032650
21,800167	0,5	-0,025450
21,808500	0,5	-0,017000
21,816833	0,5	0,005250
21,825167	0,5	0,023600
21,833500	0,5	0,049550
21,841833	0,5	0,066400
21,850167	0,5	0,091050
21,858500	0,5	0,112450
21,866833	0,5	0,132850
21,875167	0,5	0,148800
21,883500	0,5	0,166300
21,891833	0,5	0,207050
21,900167	0,5	0,223700
21,908500	0,5	0,237950
21,916833	0,5	0,265350
21,925167	0,5	0,287600
21,933500	0,5	0,311800
21,941833	0,5	0,325450
21,950167	0,5	0,342950
21,958500	0,5	0,374050
21,966833	0,5	0,403150
21,975167	0,5	0,437950
21,983500	0,5	0,468150
21,991833	0,5	0,503700
22,000167	0,5	0,534750
22,008500	0,5	0,560250
22,016833	0,5	0,590350
22,025167	0,5	0,617200
22,033500	0,5	0,645650
22,041833	0,5	0,675400
22,050167	0,5	0,682350
22,058500	0,5	0,712650
22,066833	0,5	0,737850
22,075167	0,5	0,750250
22,083500	0,5	0,774000
22,091833	0,5	0,778250
22,100167	0,5	0,807600
22,108500	0,5	0,824900
22,116833	0,5	0,855350
22,125167	0,5	0,883950
22,133500	0,5	0,915750
22,141833	0,5	0,942400
22,150167	0,5	0,974350
22,158500	0,5	1,006800
22,166833	0,5	1,037650
22,175167	0,5	1,074600
22,183500	0,5	1,104950
22,191833	0,5	1,141750
22,200167	0,5	1,181100
22,208500	0,5	1,230750
22,216833	0,5	1,271900
22,225167	0,5	1,309950
22,233500	0,5	1,339600
22,241833	0,5	1,378950
22,250167	0,5	1,423650
22,258500	0,5	1,469850
22,266833	0,5	1,503700
22,275167	0,5	1,553050
22,283500	0,5	1,599950
22,291833	0,5	1,649900
22,300167	0,5	1,698550
22,308500	0,5	1,751900
22,316833	0,5	1,806650
22,325167	0,5	1,852050
22,333500	0,5	1,905050
22,341833	0,5	1,938450
22,350167	0,5	2,006600
22,358500	0,5	2,048800
22,366833	0,5	2,089100
22,375167	0,5	2,126550
22,383500	0,5	2,163450
22,391833	0,5	2,211750
22,400167	0,5	2,265550
22,408500	0,5	2,316250
22,416833	0,5	2,373850
22,425167	0,5	2,425500
22,433500	0,5	2,484300
22,441833	0,5	2,540550
22,450167	0,5	2,600000
22,458500	0,5	2,653300
22,466833	0,5	2,712700
22,475167	0,5	2,756750
22,483500	0,5	2,826400
22,491833	0,5	2,903800
22,500167	0,5	2,981800
22,508500	0,5	3,044500
22,516833	0,5	3,098150
22,525167	0,5	3,145850
22,533500	0,5	3,177600
22,541833	0,5	3,232900
22,550167	0,5	3,274950
22,558500	0,5	3,320400
22,566833	0,5	3,348650
22,575167	0,5	3,383500
22,583500	0,5	3,415350
22,591833	0,5	3,440650
22,600167	0,5	3,460550
22,608500	0,5	3,483650
22,616833	0,5	3,490500
22,625167	0,5	3,472450
22,633500	0,5	3,496500
22,641833	0,5	3,509300
22,650167	0,5	3,513600
22,658500	0,5	3,497750
22,666833	0,5	3,475850
22,675167	0,5	3,441150
22,683500	0,5	3,408000
22,691833	0,5	3,375450
22,700167	0,5	3,334750
22,708500	0,5	3,282900
22,716833	0,5	3,241750
22,725167	0,5	3,181900
22,733500	0,5	3,122900
22,741833	0,5	3,055150
22,750167	0,5	2,983950
22,758500	0,5	2,905100
22,766833	0,5	2,777800
22,775167	0,5	2,777300
22,783500	0,5	2,603750
22,791833	0,5	2,516800
22,800167	0,5	2,404050
22,808500	0,5	2,283000
22,816833	0,5	2,159800
22,825167	0,5	2,034150
22,833500	0,5	1,904800
22,841833	0,5	1,783750
22,850167	0,5	1,660150
22,858500	0,5	1,536300
22,866833	0,5	1,411700
22,875167	0,5	1,287400
22,883500	0,5	1,164550
22,891833	0,5	1,044900
22,900167	0,5	0,912450
22,908500	0,5	0,795150
22,916833	0,5	0,651250
22,925167	0,5	0,529700
22,933500	0,5	0,411500
22,941833	0,5	0,270100
22,950167	0,5	0,143150
22,958500	0,5	0,025000
22,966833	0,5	-0,084650
22,975167	0,5	-0,196900
22,983500	0,5	-0,309250
22,991833	0,5	-0,400600
23,000167	0,5	-0,504350
23,008500	0,5	-0,587150
23,016833	0,5	-0,672300
23,025167	0,5	-0,751800
23,033500	0,5	-0,839850
23,041833	0,5	-0,909550
23,050167	0,5	-0,984100
23,058500	0,5	-1,032200
23,066833	0,5	-1,113400
23,075167	0,5	-1,183550
23,083500	0,5	-1,279050
23,091833	0,5	-1,358500
23,100167	0,5	-1,408950
23,108500	0,5	-1,464850
23,116833	0,5	-1,497900
23,125167	0,5	-1,551800
23,133500	0,5	-1,584050
23,141833	0,5	-1,623300
23,150167	0,5	-1,642350
23,158500	0,5	-1,669700
23,166833	0,5	-1,687150
23,175167	0,5	-1,712000
23,183500	0,5	-1,721800
23,191833	0,5	-1,742650
23,200167	0,5	-1,763800
23,208500	0,5	-1,776350
23,216833	0,5	-1,783400
23,225167	0,5	-1,790700
23,233500	0,5	-1,843600
23,241833	0,5	-1,868850
23,250167	0,5	-1,876450
23,258500	0,5	-1,878750
23,266833	0,5	-1,879250
23,275167	0,5	-1,883000
23,283500	0,5	-1,879400
23,291833	0,5	-1,865300
23,300167	0,5	-1,857450
23,308500	0,5	-1,837900
23,316833	0,5	-1,828050
23,325167	0,5	-1,807600
23,333500	0,5	-1,796900
23,341833	0,5	-1,777600
23,350167	0,5	-1,754450
23,358500	0,5	-1,770450
23,366833	0,5	-1,733100
23,375167	0,5	-1,713800
23,383500	0,5	-1,727100
23,391833	0,5	-1,734050
23,400167	0,5	-1,721750
23,408500	0,5	-1,703350
23,416833	0,5	-1,687300
23,425167	0,5	-1,679850
23,433500	0,5	-1,661650
23,441833	0,5	-1,638900
23,450167	0,5	-1,617200
23,458500	0,5	-1,593700
23,466833	0,5	-1,564050
23,475167	0,5	-1,539550
23,483500	0,5	-1,509000
23,491833	0,5	-1,489100
23,500167	0,5	-1,519750
23,508500	0,5	-1,468650
23,516833	0,5	-1,433150
23,525167	0,5	-1,389050
23,533500	0,5	-1,383550
23,541833	0,5	-1,372950
23,550167	0,5	-1,354500
23,558500	0,5	-1,336100
23,566833	0,5	-1,321250
23,575167	0,5	-1,309600
23,583500	0,5	-1,291350
23,591833	0,5	-1,273100
23,600167	0,5	-1,253950
23,608500	0,5	-1,234150
23,616833	0,5	-1,214450
23,625167	0,5	-1,192450
23,633500	0,5	-1,173900
23,641833	0,5	-1,155100
23,650167	0,5	-1,237800
23,658500	0,5	-1,188350
23,666833	0,5	-1,124800
23,675167	0,5	-1,083400
23,683500	0,5	-1,062450
23,691833	0,5	-1,050300
23,700167	0,5	-1,034900
23,708500	0,5	-1,016500
23,716833	0,5	-1,001750
23,725167	0,5	-0,982300
23,733500	0,5	-0,962350
23,741833	0,5	-0,944450
23,750167	0,5	-0,927050
23,758500	0,5	-0,910150
23,766833	0,5	-0,892900
23,775167	0,5	-0,877200
23,783500	0,5	-0,864100
23,791833	0,5	-0,901100
23,800167	0,5	-0,960700
23,808500	0,5	-0,900400
23,816833	0,5	-0,845700
23,825167	0,5	-0,807850
23,833500	0,5	-0,796600
23,841833	0,5	-0,784100
23,850167	0,5	-0,776400
23,858500	0,5	-0,763100
23,866833	0,5	-0,746150
23,875167	0,5	-0,729900
23,883500	0,5	-0,709650
23,891833	0,5	-0,688750
23,900167	0,5	-0,667450
23,908500	0,5	-0,649400
23,916833	0,5	-0,629000
23,925167	0,5	-0,613600
23,933500	0,5	-0,595450
23,941833	0,5	-0,702800
23,950167	0,5	-0,667850
23,958500	0,5	-0,633400
23,966833	0,5	-0,570800
23,975167	0,5	-0,547700
23,983500	0,5	-0,530950
23,991833	0,5	-0,520700
24,000167	0,5	-0,517200
24,008500	0,5	-0,504550
24,016833	0,5	-0,487850
24,025167	0,5	-0,477500
24,033500	0,5	-0,458800
24,041833	0,5	-0,447050
24,050167	0,5	-0,428850
24,058500	0,5	-0,412150
24,066833	0,5	-0,394050
24,075167	0,5	-0,384200
24,083500	0,5	-0,388100
24,091833	0,5	-0,459700
24,100167	0,5	-0,432850
24,108500	0,5	-0,392250
24,116833	0,5	-0,336950
24,125167	0,5	-0,307050
24,133500	0,5	-0,295650
24,141833	0,5	-0,285500
24,150167	0,5	-0,283400
24,158500	0,5	-0,259000
24,166833	0,5	-0,248750
24,175167	0,5	-0,233900
24,183500	0,5	-0,222450
24,191833	0,5	-0,198500
24,200167	0,5	-0,190100
24,208500	0,5	-0,170600
24,216833	0,5	-0,162950
24,225167	0,5	-0,151600
24,233500	0,5	-0,203000
24,241833	0,5	-0,218850
24,250167	0,5	-0,196300
24,258500	0,5	-0,149700
24,266833	0,5	-0,122750
24,275167	0,5	-0,105750
24,283500	0,5	-0,096200
24,291833	0,5	-0,091800
24,300167	0,5	-0,074500
24,308500	0,5	-0,061750
24,316833	0,5	-0,041500
24,325167	0,5	-0,031550
24,333500	0,5	-0,013600
24,341833	0,5	-0,003250
24,350167	0,5	0,019350
24,358500	0,5	0,029750
24,366833	0,5	0,039550
24,375167	0,5	0,048000
24,383500	0,5	-0,032900
24,391833	0,5	0,003300
24,400167	0,5	0,023150
24,408500	0,5	0,061050
24,416833	0,5	0,079550
24,425167	0,5	0,092100
24,433500	0,5	0,094350
24,441833	0,5	0,094050
24,450167	0,5	0,095550
24,458500	0,5	0,117350
24,466833	0,5	0,111600
24,475167	0,5	0,127900
24,483500	0,5	0,139350
24,491833	0,5	0,152150
24,500167	0,5	0,163600
24,508500	0,5	0,178700
24,516833	0,5	0,181500
24,525167	0,5	0,182100
24,533500	0,5	0,136000
24,541833	0,5	0,170050
24,550167	0,5	0,182950
24,558500	0,5	0,218100
24,566833	0,5	0,223800
24,575167	0,5	0,235050
24,583500	0,5	0,235050
24,591833	0,5	0,228900
24,600167	0,5	0,240900
24,608500	0,5	0,252250
24,616833	0,5	0,260100
24,625167	0,5	0,269350
24,633500	0,5	0,273050
24,641833	0,5	0,281450
24,650167	0,5	0,288200
24,658500	0,5	0,295050
24,666833	0,5	0,298850
24,675167	0,5	0,269850
24,683500	0,5	0,264000
24,691833	0,5	0,278600
24,700167	0,5	0,300000
24,708500	0,5	0,319900
24,716833	0,5	0,329400
24,725167	0,5	0,333600
24,733500	0,5	0,333500
24,741833	0,5	0,330250
24,750167	0,5	0,336900
24,758500	0,5	0,347150
24,766833	0,5	0,350350
24,775167	0,5	0,359750
24,783500	0,5	0,364600
24,791833	0,5	0,374200
24,800167	0,5	0,379000
24,808500	0,5	0,386350
24,816833	0,5	0,384450
24,825167	0,5	0,363150
24,833500	0,5	0,363850
24,841833	0,5	0,379200
24,850167	0,5	0,388150
24,858500	0,5	0,398150
24,866833	0,5	0,399100
24,875167	0,5	0,398650
24,883500	0,5	0,395000
24,891833	0,5	0,395950
24,900167	0,5	0,400900
24,908500	0,5	0,408050
24,916833	0,5	0,412150
24,925167	0,5	0,420600
24,933500	0,5	0,421000
24,941833	0,5	0,427900
24,950167	0,5	0,434600
24,958500	0,5	0,434850
24,966833	0,5	0,435050
24,975167	0,5	0,423050
24,983500	0,5	0,429800
24,991833	0,5	0,435200
25,000167	0,5	0,445750
25,008500	0,5	0,453500
25,016833	0,5	0,452000
25,025167	0,5	0,454300
25,033500	0,5	0,447150
25,041833	0,5	0,452050
25,050167	0,5	0,455000
25,058500	0,5	0,455700
25,066833	0,5	0,455950
25,075167	0,5	0,457700
25,083500	0,5	0,458650
25,091833	0,5	0,462800
25,100167	0,5	0,466100
25,108500	0,5	0,468500
25,116833	0,5	0,460800
25,125167	0,5	0,465900
25,133500	0,5	0,464550
25,141833	0,5	0,471100
25,150167	0,5	0,475600
25,158500	0,5	0,481200
25,166833	0,5	0,479450
25,175167	0,5	0,477250
25,183500	0,5	0,476900
25,191833	0,5	0,479250
25,200167	0,5	0,474700
25,208500	0,5	0,480850
25,216833	0,5	0,478350
25,225167	0,5	0,479050
25,233500	0,5	0,479800
25,241833	0,5	0,482300
25,250167	0,5	0,478800
25,258500	0,5	0,476650
25,266833	0,5	0,469900
25,275167	0,5	0,474950
25,283500	0,5	0,476150
25,291833	0,5	0,476950
25,300167	0,5	0,480650
25,308500	0,5	0,481150
25,316833	0,5	0,478700
25,325167	0,5	0,477400
25,333500	0,5	0,480250
25,341833	0,5	0,479600
25,350167	0,5	0,479250
25,358500	0,5	0,480300
25,366833	0,5	0,481900
25,375167	0,5	0,480000
25,383500	0,5	0,480100
25,391833	0,5	0,479400
25,400167	0,5	0,478250
25,408500	0,5	0,476250
25,416833	0,5	0,475750
25,425167	0,5	0,476950
25,433500	0,5	0,476400
25,441833	0,5	0,473450
25,450167	0,5	0,473500
25,458500	0,5	0,471250
25,466833	0,5	0,472300
25,475167	0,5	0,468050
25,483500	0,5	0,471750
25,491833	0,5	0,471150
25,500167	0,5	0,468850
25,508500	0,5	0,469800
25,516833	0,5	0,467650
25,525167	0,5	0,468600
25,533500	0,5	0,467300
25,541833	0,5	0,465650
25,550167	0,5	0,468750
25,558500	0,5	0,468300
25,566833	0,5	0,470100
25,575167	0,5	0,464850
25,583500	0,5	0,468000
25,591833	0,5	0,459650
25,600167	0,5	0,461350
25,608500	0,5	0,460600
25,616833	0,5	0,457850
25,625167	0,5	0,460650
25,633500	0,5	0,455800
25,641833	0,5	0,457900
25,650167	0,5	0,453750
25,658500	0,5	0,453300
25,666833	0,5	0,452900
25,675167	0,5	0,449350
25,683500	0,5	0,450950
25,691833	0,5	0,448750
25,700167	0,5	0,451050
25,708500	0,5	0,452500
25,716833	0,5	0,454650
25,725167	0,5	0,455150
25,733500	0,5	0,449750
25,741833	0,5	0,446250
25,750167	0,5	0,446650
25,758500	0,5	0,443800
25,766833	0,5	0,445350
25,775167	0,5	0,444850
25,783500	0,5	0,444350
25,791833	0,5	0,441900
25,800167	0,5	0,442350
25,808500	0,5	0,441050
25,816833	0,5	0,439650
25,825167	0,5	0,438450
25,833500	0,5	0,435000
25,841833	0,5	0,434200
25,850167	0,5	0,436100
25,858500	0,5	0,431350
25,866833	0,5	0,436550
25,875167	0,5	0,436600
25,883500	0,5	0,429300
25,891833	0,5	0,430450
25,900167	0,5	0,428450
25,908500	0,5	0,427250
25,916833	0,5	0,434300
25,925167	0,5	0,431600
25,933500	0,5	0,431900
25,941833	0,5	0,427400
25,950167	0,5	0,430450
25,958500	0,5	0,425300
25,966833	0,5	0,425400
25,975167	0,5	0,426550
25,983500	0,5	0,423250
25,991833	0,5	0,425300
26,000167	0,5	0,426450
