File Path	chrom://chromeleon01/ikbm_chromeleon/2022/ICS-5000/ED1/Esteban/20220612_Cell_7_4_eg.seq/689.smp/ED_1.channel/ED_1.chm
Channel	ED_1

Injection Information:
Data Vault	ikbm_chromeleon
Injection	7_00h-EGS_2
Injection Number	124
Position	BC7
Comment	
Processing Method	Stop sequence after Cell Death
Instrument Method	ICS5000_PA200_FullNative_Ox_26min_ED1
Type	Unknown
Status	Finished
Injection Date	15.06.2022
Injection Time	02:44:10
Injection Volume (µl)	5,0
Dilution Factor	1,0000
Weight	1,0000

Chromatogram Data Information:
Time Min. (min)	0,000167
Time Max. (min)	26,000167
Data Points	3121
Detector	EDet1
Generating Data System	Chromeleon 7.2.9.11323
Exporting Data System	Chromeleon 7.2.9.0
Operator	Instrument Controller
Signal Quantity	
Signal Unit	nC
Signal Min.	-2,436400
Signal Max.	863,037163
Channel	ED_1
Driver Name	DC-5000
Channel Type	Evaluation
Min. Step (s)	0,5
Max. Step (s)	0,5
Average Step (s)	0,5

Signal Parameter Information:
Signal Info	

Chromatogram Data:
Time (min)	Step (s)	Value (nC)
0,000167	n.a.	-0,065200
0,008500	0,5	-0,084900
0,016833	0,5	-0,071850
0,025167	0,5	-0,058550
0,033500	0,5	-0,033600
0,041833	0,5	-0,047350
0,050167	0,5	-0,030050
0,058500	0,5	-0,024200
0,066833	0,5	-0,051500
0,075167	0,5	-0,051500
0,083500	0,5	-0,034300
0,091833	0,5	-0,012950
0,100167	0,5	0,015850
0,108500	0,5	0,001150
0,116833	0,5	0,003400
0,125167	0,5	-0,009900
0,133500	0,5	-0,001400
0,141833	0,5	-0,006650
0,150167	0,5	-0,006750
0,158500	0,5	-0,016050
0,166833	0,5	-0,022600
0,175167	0,5	-0,019600
0,183500	0,5	-0,043350
0,191833	0,5	-0,050250
0,200167	0,5	-0,036800
0,208500	0,5	-0,043000
0,216833	0,5	-0,058850
0,225167	0,5	-0,050650
0,233500	0,5	-0,042400
0,241833	0,5	-0,014300
0,250167	0,5	0,000150
0,258500	0,5	0,000800
0,266833	0,5	-0,014600
0,275167	0,5	-0,012750
0,283500	0,5	-0,015900
0,291833	0,5	0,017500
0,300167	0,5	0,040000
0,308500	0,5	0,023950
0,316833	0,5	-0,024750
0,325167	0,5	-0,054100
0,333500	0,5	-0,079300
0,341833	0,5	-0,074050
0,350167	0,5	-0,057200
0,358500	0,5	-0,063900
0,366833	0,5	-0,074200
0,375167	0,5	-0,072000
0,383500	0,5	-0,051750
0,391833	0,5	-0,027500
0,400167	0,5	-0,015700
0,408500	0,5	-0,033100
0,416833	0,5	-0,032900
0,425167	0,5	-0,035300
0,433500	0,5	-0,034800
0,441833	0,5	-0,043050
0,450167	0,5	-0,039650
0,458500	0,5	-0,047000
0,466833	0,5	-0,039150
0,475167	0,5	-0,043350
0,483500	0,5	-0,056750
0,491833	0,5	-0,054300
0,500167	0,5	-0,037500
0,508500	0,5	-0,061450
0,516833	0,5	-0,061500
0,525167	0,5	-0,054450
0,533500	0,5	-0,031450
0,541833	0,5	-0,015750
0,550167	0,5	-0,020300
0,558500	0,5	-0,019200
0,566833	0,5	-0,015100
0,575167	0,5	-0,010100
0,583500	0,5	-0,015350
0,591833	0,5	-0,010600
0,600167	0,5	-0,020850
0,608500	0,5	-0,017150
0,616833	0,5	-0,023000
0,625167	0,5	-0,017750
0,633500	0,5	-0,039200
0,641833	0,5	-0,004350
0,650167	0,5	-0,018150
0,658500	0,5	-0,025200
0,666833	0,5	-0,029850
0,675167	0,5	-0,013950
0,683500	0,5	0,016450
0,691833	0,5	0,027850
0,700167	0,5	0,013650
0,708500	0,5	0,027600
0,716833	0,5	0,025650
0,725167	0,5	0,027550
0,733500	0,5	0,019150
0,741833	0,5	0,019450
0,750167	0,5	0,022650
0,758500	0,5	0,019400
0,766833	0,5	0,031600
0,775167	0,5	0,010150
0,783500	0,5	0,001800
0,791833	0,5	0,033100
0,800167	0,5	0,017200
0,808500	0,5	0,013300
0,816833	0,5	0,019050
0,825167	0,5	0,029750
0,833500	0,5	0,073600
0,841833	0,5	0,065700
0,850167	0,5	0,065500
0,858500	0,5	0,053100
0,866833	0,5	0,068100
0,875167	0,5	0,063900
0,883500	0,5	0,072300
0,891833	0,5	0,063150
0,900167	0,5	0,065150
0,908500	0,5	0,068800
0,916833	0,5	0,065450
0,925167	0,5	0,059400
0,933500	0,5	0,050800
0,941833	0,5	0,075750
0,950167	0,5	0,055000
0,958500	0,5	0,056950
0,966833	0,5	0,059500
0,975167	0,5	0,079400
0,983500	0,5	0,105350
0,991833	0,5	0,116800
1,000167	0,5	0,104500
1,008500	0,5	0,113200
1,016833	0,5	0,103450
1,025167	0,5	0,109300
1,033500	0,5	0,098000
1,041833	0,5	0,100650
1,050167	0,5	0,094650
1,058500	0,5	0,097100
1,066833	0,5	0,102100
1,075167	0,5	0,101350
1,083500	0,5	0,095150
1,091833	0,5	0,114600
1,100167	0,5	0,083550
1,108500	0,5	0,090400
1,116833	0,5	0,098400
1,125167	0,5	0,123650
1,133500	0,5	0,152200
1,141833	0,5	0,138900
1,150167	0,5	0,138700
1,158500	0,5	0,128450
1,166833	0,5	0,133150
1,175167	0,5	0,124450
1,183500	0,5	0,132700
1,191833	0,5	0,128550
1,200167	0,5	0,131000
1,208500	0,5	0,130000
1,216833	0,5	0,116500
1,225167	0,5	0,109450
1,233500	0,5	0,132800
1,241833	0,5	0,123700
1,250167	0,5	0,111900
1,258500	0,5	0,112650
1,266833	0,5	0,122400
1,275167	0,5	0,143450
1,283500	0,5	0,162250
1,291833	0,5	0,170300
1,300167	0,5	0,164650
1,308500	0,5	0,163550
1,316833	0,5	0,158400
1,325167	0,5	0,159250
1,333500	0,5	0,150200
1,341833	0,5	0,149250
1,350167	0,5	0,146700
1,358500	0,5	0,153700
1,366833	0,5	0,136700
1,375167	0,5	0,148550
1,383500	0,5	0,166200
1,391833	0,5	0,151550
1,400167	0,5	0,135550
1,408500	0,5	0,146250
1,416833	0,5	0,152150
1,425167	0,5	0,178450
1,433500	0,5	0,184200
1,441833	0,5	0,180000
1,450167	0,5	0,172200
1,458500	0,5	0,175750
1,466833	0,5	0,167650
1,475167	0,5	0,172250
1,483500	0,5	0,173050
1,491833	0,5	0,165300
1,500167	0,5	0,171400
1,508500	0,5	0,166450
1,516833	0,5	0,167000
1,525167	0,5	0,167700
1,533500	0,5	0,181250
1,541833	0,5	0,159200
1,550167	0,5	0,178300
1,558500	0,5	0,272750
1,566833	0,5	0,540850
1,575167	0,5	0,940750
1,583500	0,5	1,571400
1,591833	0,5	4,772050
1,600167	0,5	19,116250
1,608500	0,5	68,426801
1,616833	0,5	203,649753
1,625167	0,5	451,669957
1,633500	0,5	719,630261
1,641833	0,5	863,037163
1,650167	0,5	830,601712
1,658500	0,5	673,034410
1,666833	0,5	485,332957
1,675167	0,5	335,433855
1,683500	0,5	235,769204
1,691833	0,5	172,880003
1,700167	0,5	133,376102
1,708500	0,5	108,634152
1,716833	0,5	92,977251
1,725167	0,5	82,017801
1,733500	0,5	73,265451
1,741833	0,5	66,375501
1,750167	0,5	61,005201
1,758500	0,5	56,212301
1,766833	0,5	51,381851
1,775167	0,5	47,186701
1,783500	0,5	44,837001
1,791833	0,5	45,237001
1,800167	0,5	48,213251
1,808500	0,5	52,412201
1,816833	0,5	56,164301
1,825167	0,5	58,527201
1,833500	0,5	58,787001
1,841833	0,5	56,933451
1,850167	0,5	53,643451
1,858500	0,5	49,980901
1,866833	0,5	46,656751
1,875167	0,5	43,910551
1,883500	0,5	41,788801
1,891833	0,5	40,072351
1,900167	0,5	38,489751
1,908500	0,5	36,870151
1,916833	0,5	35,390201
1,925167	0,5	34,194801
1,933500	0,5	33,252150
1,941833	0,5	32,281600
1,950167	0,5	31,227600
1,958500	0,5	30,217750
1,966833	0,5	29,458100
1,975167	0,5	29,125450
1,983500	0,5	29,254850
1,991833	0,5	29,802650
2,000167	0,5	30,228250
2,008500	0,5	30,007350
2,016833	0,5	29,153300
2,025167	0,5	28,069850
2,033500	0,5	27,129750
2,041833	0,5	26,500150
2,050167	0,5	26,166200
2,058500	0,5	26,070650
2,066833	0,5	26,235350
2,075167	0,5	26,797200
2,083500	0,5	27,799850
2,091833	0,5	29,020100
2,100167	0,5	30,210850
2,108500	0,5	31,735950
2,116833	0,5	34,299501
2,125167	0,5	37,972001
2,133500	0,5	41,472201
2,141833	0,5	43,469451
2,150167	0,5	43,586501
2,158500	0,5	42,279151
2,166833	0,5	39,666001
2,175167	0,5	36,024101
2,183500	0,5	32,234700
2,191833	0,5	29,153400
2,200167	0,5	27,069600
2,208500	0,5	25,934150
2,216833	0,5	25,799650
2,225167	0,5	26,852450
2,233500	0,5	28,908350
2,241833	0,5	30,744050
2,250167	0,5	30,918950
2,258500	0,5	29,316900
2,266833	0,5	27,115700
2,275167	0,5	25,203050
2,283500	0,5	23,838600
2,291833	0,5	22,909750
2,300167	0,5	22,311450
2,308500	0,5	21,988200
2,316833	0,5	21,818950
2,325167	0,5	21,631450
2,333500	0,5	21,424000
2,341833	0,5	21,298600
2,350167	0,5	21,413850
2,358500	0,5	21,715750
2,366833	0,5	22,009450
2,375167	0,5	22,142750
2,383500	0,5	22,234400
2,391833	0,5	22,558700
2,400167	0,5	23,186550
2,408500	0,5	23,822350
2,416833	0,5	23,981650
2,425167	0,5	23,475700
2,433500	0,5	22,707850
2,441833	0,5	22,044300
2,450167	0,5	21,568050
2,458500	0,5	21,253900
2,466833	0,5	20,975300
2,475167	0,5	20,768850
2,483500	0,5	20,607800
2,491833	0,5	20,507250
2,500167	0,5	20,373650
2,508500	0,5	20,226050
2,516833	0,5	20,053350
2,525167	0,5	19,918250
2,533500	0,5	19,815550
2,541833	0,5	19,748000
2,550167	0,5	19,665350
2,558500	0,5	19,582050
2,566833	0,5	19,554600
2,575167	0,5	19,783800
2,583500	0,5	20,900850
2,591833	0,5	21,996900
2,600167	0,5	21,524550
2,608500	0,5	20,169450
2,616833	0,5	19,166200
2,625167	0,5	18,609950
2,633500	0,5	18,309450
2,641833	0,5	18,113050
2,650167	0,5	17,972550
2,658500	0,5	17,859050
2,666833	0,5	17,763100
2,675167	0,5	17,669350
2,683500	0,5	17,594250
2,691833	0,5	17,524950
2,700167	0,5	17,437450
2,708500	0,5	17,362300
2,716833	0,5	17,266050
2,725167	0,5	17,142550
2,733500	0,5	17,030350
2,741833	0,5	16,932800
2,750167	0,5	16,861950
2,758500	0,5	16,802350
2,766833	0,5	16,753750
2,775167	0,5	16,777700
2,783500	0,5	16,890950
2,791833	0,5	17,160250
2,800167	0,5	17,622750
2,808500	0,5	18,309600
2,816833	0,5	19,114500
2,825167	0,5	19,910500
2,833500	0,5	20,546200
2,841833	0,5	20,950550
2,850167	0,5	21,049250
2,858500	0,5	20,911700
2,866833	0,5	20,481850
2,875167	0,5	19,927050
2,883500	0,5	19,360150
2,891833	0,5	18,944550
2,900167	0,5	18,839600
2,908500	0,5	19,169700
2,916833	0,5	20,033300
2,925167	0,5	21,442850
2,933500	0,5	23,137800
2,941833	0,5	24,738150
2,950167	0,5	25,901200
2,958500	0,5	26,584650
2,966833	0,5	27,145350
2,975167	0,5	28,103050
2,983500	0,5	29,817100
2,991833	0,5	32,057650
3,000167	0,5	34,180051
3,008500	0,5	35,431901
3,016833	0,5	35,326151
3,025167	0,5	33,933601
3,033500	0,5	31,598250
3,041833	0,5	28,810400
3,050167	0,5	26,037950
3,058500	0,5	23,566450
3,066833	0,5	21,612750
3,075167	0,5	20,244450
3,083500	0,5	19,526250
3,091833	0,5	19,493850
3,100167	0,5	20,245700
3,108500	0,5	21,748750
3,116833	0,5	23,791450
3,125167	0,5	25,916300
3,133500	0,5	27,520300
3,141833	0,5	28,164750
3,150167	0,5	27,670150
3,158500	0,5	26,178900
3,166833	0,5	24,027750
3,175167	0,5	21,699100
3,183500	0,5	19,507200
3,191833	0,5	17,682900
3,200167	0,5	16,245300
3,208500	0,5	15,177050
3,216833	0,5	14,380600
3,225167	0,5	13,817450
3,233500	0,5	13,396450
3,241833	0,5	13,090550
3,250167	0,5	12,850650
3,258500	0,5	12,654250
3,266833	0,5	12,491550
3,275167	0,5	12,358100
3,283500	0,5	12,247550
3,291833	0,5	12,154650
3,300167	0,5	12,087250
3,308500	0,5	12,022950
3,316833	0,5	11,992250
3,325167	0,5	12,043800
3,333500	0,5	12,178200
3,341833	0,5	12,418550
3,350167	0,5	12,716150
3,358500	0,5	12,996350
3,366833	0,5	13,241950
3,375167	0,5	13,330850
3,383500	0,5	13,259900
3,391833	0,5	13,014350
3,400167	0,5	12,651000
3,408500	0,5	12,242300
3,416833	0,5	11,858100
3,425167	0,5	11,534050
3,433500	0,5	11,275300
3,441833	0,5	11,079750
3,450167	0,5	10,962300
3,458500	0,5	10,833200
3,466833	0,5	10,743750
3,475167	0,5	10,678050
3,483500	0,5	10,641800
3,491833	0,5	10,637250
3,500167	0,5	10,606200
3,508500	0,5	10,594100
3,516833	0,5	10,578150
3,525167	0,5	10,589400
3,533500	0,5	10,614550
3,541833	0,5	10,686450
3,550167	0,5	10,808650
3,558500	0,5	11,011000
3,566833	0,5	11,277250
3,575167	0,5	11,587400
3,583500	0,5	11,836400
3,591833	0,5	12,005300
3,600167	0,5	12,014950
3,608500	0,5	11,837850
3,616833	0,5	11,542500
3,625167	0,5	11,201050
3,633500	0,5	10,860400
3,641833	0,5	10,569050
3,650167	0,5	10,313500
3,658500	0,5	10,125800
3,666833	0,5	9,990750
3,675167	0,5	9,905150
3,683500	0,5	9,836850
3,691833	0,5	9,792600
3,700167	0,5	9,761000
3,708500	0,5	9,734850
3,716833	0,5	9,728150
3,725167	0,5	9,713250
3,733500	0,5	9,695250
3,741833	0,5	9,672300
3,750167	0,5	9,645500
3,758500	0,5	9,589300
3,766833	0,5	9,558800
3,775167	0,5	9,547400
3,783500	0,5	9,565500
3,791833	0,5	9,587850
3,800167	0,5	9,589850
3,808500	0,5	9,599900
3,816833	0,5	9,607750
3,825167	0,5	9,587850
3,833500	0,5	9,547800
3,841833	0,5	9,492300
3,850167	0,5	9,435600
3,858500	0,5	9,389800
3,866833	0,5	9,349000
3,875167	0,5	9,328150
3,883500	0,5	9,291350
3,891833	0,5	9,299450
3,900167	0,5	9,287150
3,908500	0,5	9,276000
3,916833	0,5	9,263600
3,925167	0,5	9,251700
3,933500	0,5	9,233250
3,941833	0,5	9,201150
3,950167	0,5	9,132300
3,958500	0,5	9,086450
3,966833	0,5	9,028950
3,975167	0,5	8,994050
3,983500	0,5	8,958650
3,991833	0,5	8,930400
4,000167	0,5	8,907250
4,008500	0,5	8,900000
4,016833	0,5	8,900750
4,025167	0,5	8,878000
4,033500	0,5	8,865950
4,041833	0,5	8,867800
4,050167	0,5	8,826600
4,058500	0,5	8,789200
4,066833	0,5	8,754150
4,075167	0,5	8,733750
4,083500	0,5	8,722500
4,091833	0,5	8,686950
4,100167	0,5	8,663750
4,108500	0,5	8,627400
4,116833	0,5	8,611850
4,125167	0,5	8,579800
4,133500	0,5	8,565050
4,141833	0,5	8,536000
4,150167	0,5	8,525050
4,158500	0,5	8,505200
4,166833	0,5	8,484450
4,175167	0,5	8,462150
4,183500	0,5	8,463800
4,191833	0,5	8,454500
4,200167	0,5	8,429700
4,208500	0,5	8,421550
4,216833	0,5	8,417100
4,225167	0,5	8,437900
4,233500	0,5	8,449800
4,241833	0,5	8,455750
4,250167	0,5	8,437100
4,258500	0,5	8,431050
4,266833	0,5	8,414100
4,275167	0,5	8,397700
4,283500	0,5	8,374350
4,291833	0,5	8,356650
4,300167	0,5	8,333900
4,308500	0,5	8,317500
4,316833	0,5	8,287450
4,325167	0,5	8,265050
4,333500	0,5	8,255050
4,341833	0,5	8,231850
4,350167	0,5	8,193500
4,358500	0,5	8,177950
4,366833	0,5	8,161350
4,375167	0,5	8,171300
4,383500	0,5	8,167900
4,391833	0,5	8,150150
4,400167	0,5	8,141400
4,408500	0,5	8,128750
4,416833	0,5	8,126950
4,425167	0,5	8,120600
4,433500	0,5	8,120700
4,441833	0,5	8,117800
4,450167	0,5	8,124450
4,458500	0,5	8,126100
4,466833	0,5	8,122750
4,475167	0,5	8,111050
4,483500	0,5	8,134400
4,491833	0,5	8,099700
4,500167	0,5	8,074500
4,508500	0,5	8,050700
4,516833	0,5	8,036350
4,525167	0,5	8,034750
4,533500	0,5	8,006300
4,541833	0,5	7,973000
4,550167	0,5	7,954150
4,558500	0,5	7,928750
4,566833	0,5	7,907050
4,575167	0,5	7,887300
4,583500	0,5	7,875000
4,591833	0,5	7,863200
4,600167	0,5	7,847900
4,608500	0,5	7,843000
4,616833	0,5	7,812500
4,625167	0,5	7,810450
4,633500	0,5	7,822850
4,641833	0,5	7,797450
4,650167	0,5	7,780950
4,658500	0,5	7,782050
4,666833	0,5	7,785900
4,675167	0,5	7,805150
4,683500	0,5	7,782550
4,691833	0,5	7,774600
4,700167	0,5	7,761350
4,708500	0,5	7,764350
4,716833	0,5	7,753750
4,725167	0,5	7,755050
4,733500	0,5	7,742700
4,741833	0,5	7,736100
4,750167	0,5	7,727100
4,758500	0,5	7,719100
4,766833	0,5	7,704950
4,775167	0,5	7,707900
4,783500	0,5	7,707650
4,791833	0,5	7,682150
4,800167	0,5	7,677900
4,808500	0,5	7,678500
4,816833	0,5	7,695950
4,825167	0,5	7,704350
4,833500	0,5	7,703200
4,841833	0,5	7,692250
4,850167	0,5	7,698150
4,858500	0,5	7,694400
4,866833	0,5	7,700400
4,875167	0,5	7,695950
4,883500	0,5	7,703250
4,891833	0,5	7,710800
4,900167	0,5	7,730350
4,908500	0,5	7,758850
4,916833	0,5	7,782150
4,925167	0,5	7,830550
4,933500	0,5	7,870550
4,941833	0,5	7,925300
4,950167	0,5	8,002800
4,958500	0,5	8,105200
4,966833	0,5	8,221600
4,975167	0,5	8,346700
4,983500	0,5	8,441450
4,991833	0,5	8,545500
5,000167	0,5	8,637350
5,008500	0,5	8,722200
5,016833	0,5	8,786700
5,025167	0,5	8,835500
5,033500	0,5	8,858350
5,041833	0,5	8,872650
5,050167	0,5	8,865050
5,058500	0,5	8,841950
5,066833	0,5	8,818100
5,075167	0,5	8,805250
5,083500	0,5	8,749350
5,091833	0,5	8,698600
5,100167	0,5	8,641300
5,108500	0,5	8,592200
5,116833	0,5	8,531500
5,125167	0,5	8,445300
5,133500	0,5	8,345500
5,141833	0,5	8,246800
5,150167	0,5	8,148500
5,158500	0,5	8,042950
5,166833	0,5	7,946650
5,175167	0,5	7,852650
5,183500	0,5	7,775650
5,191833	0,5	7,705100
5,200167	0,5	7,647400
5,208500	0,5	7,582750
5,216833	0,5	7,556900
5,225167	0,5	7,525150
5,233500	0,5	7,488150
5,241833	0,5	7,461900
5,250167	0,5	7,447500
5,258500	0,5	7,453350
5,266833	0,5	7,459700
5,275167	0,5	7,459500
5,283500	0,5	7,455150
5,291833	0,5	7,453650
5,300167	0,5	7,466450
5,308500	0,5	7,482500
5,316833	0,5	7,501700
5,325167	0,5	7,527150
5,333500	0,5	7,548300
5,341833	0,5	7,574200
5,350167	0,5	7,581250
5,358500	0,5	7,579550
5,366833	0,5	7,584450
5,375167	0,5	7,562650
5,383500	0,5	7,515250
5,391833	0,5	7,478650
5,400167	0,5	7,432350
5,408500	0,5	7,410250
5,416833	0,5	7,358350
5,425167	0,5	7,311750
5,433500	0,5	7,257200
5,441833	0,5	7,225700
5,450167	0,5	7,188700
5,458500	0,5	7,158750
5,466833	0,5	7,130450
5,475167	0,5	7,108700
5,483500	0,5	7,090400
5,491833	0,5	7,074700
5,500167	0,5	7,058250
5,508500	0,5	7,036750
5,516833	0,5	7,051450
5,525167	0,5	7,020500
5,533500	0,5	7,007250
5,541833	0,5	6,994200
5,550167	0,5	6,993850
5,558500	0,5	7,010750
5,566833	0,5	7,011600
5,575167	0,5	6,992950
5,583500	0,5	6,997850
5,591833	0,5	6,992350
5,600167	0,5	6,992350
5,608500	0,5	6,982150
5,616833	0,5	6,974650
5,625167	0,5	6,967950
5,633500	0,5	6,971000
5,641833	0,5	6,970850
5,650167	0,5	6,955450
5,658500	0,5	6,942350
5,666833	0,5	6,959200
5,675167	0,5	6,930700
5,683500	0,5	6,924750
5,691833	0,5	6,921550
5,700167	0,5	6,926550
5,708500	0,5	6,950100
5,716833	0,5	6,931350
5,725167	0,5	6,930000
5,733500	0,5	6,922350
5,741833	0,5	6,923600
5,750167	0,5	6,916050
5,758500	0,5	6,919100
5,766833	0,5	6,909850
5,775167	0,5	6,908200
5,783500	0,5	6,899700
5,791833	0,5	6,893600
5,800167	0,5	6,877950
5,808500	0,5	6,880400
5,816833	0,5	6,880500
5,825167	0,5	6,866800
5,833500	0,5	6,863900
5,841833	0,5	6,864800
5,850167	0,5	6,875650
5,858500	0,5	6,883100
5,866833	0,5	6,873600
5,875167	0,5	6,870000
5,883500	0,5	6,861750
5,891833	0,5	6,849450
5,900167	0,5	6,837650
5,908500	0,5	6,823500
5,916833	0,5	6,813850
5,925167	0,5	6,800950
5,933500	0,5	6,798100
5,941833	0,5	6,783700
5,950167	0,5	6,778900
5,958500	0,5	6,775500
5,966833	0,5	6,768300
5,975167	0,5	6,748800
5,983500	0,5	6,746300
5,991833	0,5	6,745400
6,000167	0,5	6,757350
6,008500	0,5	6,762550
6,016833	0,5	6,751850
6,025167	0,5	6,738800
6,033500	0,5	6,729250
6,041833	0,5	6,717800
6,050167	0,5	6,711050
6,058500	0,5	6,702950
6,066833	0,5	6,693600
6,075167	0,5	6,691950
6,083500	0,5	6,685400
6,091833	0,5	6,680450
6,100167	0,5	6,669800
6,108500	0,5	6,676950
6,116833	0,5	6,662150
6,125167	0,5	6,654350
6,133500	0,5	6,648300
6,141833	0,5	6,657250
6,150167	0,5	6,667100
6,158500	0,5	6,677050
6,166833	0,5	6,670050
6,175167	0,5	6,666850
6,183500	0,5	6,656700
6,191833	0,5	6,653600
6,200167	0,5	6,650600
6,208500	0,5	6,643700
6,216833	0,5	6,640300
6,225167	0,5	6,632800
6,233500	0,5	6,637300
6,241833	0,5	6,623100
6,250167	0,5	6,628400
6,258500	0,5	6,638950
6,266833	0,5	6,629550
6,275167	0,5	6,624350
6,283500	0,5	6,625650
6,291833	0,5	6,636750
6,300167	0,5	6,652200
6,308500	0,5	6,644550
6,316833	0,5	6,644750
6,325167	0,5	6,632200
6,333500	0,5	6,629750
6,341833	0,5	6,615400
6,350167	0,5	6,615500
6,358500	0,5	6,608100
6,366833	0,5	6,604400
6,375167	0,5	6,600050
6,383500	0,5	6,584500
6,391833	0,5	6,567950
6,400167	0,5	6,579100
6,408500	0,5	6,569650
6,416833	0,5	6,557400
6,425167	0,5	6,555200
6,433500	0,5	6,557850
6,441833	0,5	6,579100
6,450167	0,5	6,579650
6,458500	0,5	6,582500
6,466833	0,5	6,579450
6,475167	0,5	6,589900
6,483500	0,5	6,590950
6,491833	0,5	6,600000
6,500167	0,5	6,602550
6,508500	0,5	6,610000
6,516833	0,5	6,610850
6,525167	0,5	6,614850
6,533500	0,5	6,611150
6,541833	0,5	6,606700
6,550167	0,5	6,615600
6,558500	0,5	6,605550
6,566833	0,5	6,591200
6,575167	0,5	6,584000
6,583500	0,5	6,579750
6,591833	0,5	6,591150
6,600167	0,5	6,585000
6,608500	0,5	6,569800
6,616833	0,5	6,561800
6,625167	0,5	6,554350
6,633500	0,5	6,549100
6,641833	0,5	6,539800
6,650167	0,5	6,534850
6,658500	0,5	6,524200
6,666833	0,5	6,520700
6,675167	0,5	6,514100
6,683500	0,5	6,511950
6,691833	0,5	6,499550
6,700167	0,5	6,510950
6,708500	0,5	6,487350
6,716833	0,5	6,482000
6,725167	0,5	6,480200
6,733500	0,5	6,487900
6,741833	0,5	6,504200
6,750167	0,5	6,498550
6,758500	0,5	6,497600
6,766833	0,5	6,503650
6,775167	0,5	6,511350
6,783500	0,5	6,520550
6,791833	0,5	6,529400
6,800167	0,5	6,539450
6,808500	0,5	6,553900
6,816833	0,5	6,567750
6,825167	0,5	6,591350
6,833500	0,5	6,607900
6,841833	0,5	6,640150
6,850167	0,5	6,681650
6,858500	0,5	6,723650
6,866833	0,5	6,789000
6,875167	0,5	6,891450
6,883500	0,5	7,040250
6,891833	0,5	7,248900
6,900167	0,5	7,502600
6,908500	0,5	7,833200
6,916833	0,5	8,229050
6,925167	0,5	8,687900
6,933500	0,5	9,166600
6,941833	0,5	9,629000
6,950167	0,5	10,020900
6,958500	0,5	10,307150
6,966833	0,5	10,464750
6,975167	0,5	10,468900
6,983500	0,5	10,345450
6,991833	0,5	10,122900
7,000167	0,5	9,809750
7,008500	0,5	9,425500
7,016833	0,5	9,009150
7,025167	0,5	8,581300
7,033500	0,5	8,162100
7,041833	0,5	7,774850
7,050167	0,5	7,428750
7,058500	0,5	7,136300
7,066833	0,5	6,912600
7,075167	0,5	6,738200
7,083500	0,5	6,616150
7,091833	0,5	6,520850
7,100167	0,5	6,454800
7,108500	0,5	6,399550
7,116833	0,5	6,358300
7,125167	0,5	6,314700
7,133500	0,5	6,277200
7,141833	0,5	6,247800
7,150167	0,5	6,208200
7,158500	0,5	6,167600
7,166833	0,5	6,136400
7,175167	0,5	6,117450
7,183500	0,5	6,104250
7,191833	0,5	6,089500
7,200167	0,5	6,065000
7,208500	0,5	6,048900
7,216833	0,5	6,031300
7,225167	0,5	6,016450
7,233500	0,5	5,998450
7,241833	0,5	5,982850
7,250167	0,5	5,966250
7,258500	0,5	5,954350
7,266833	0,5	5,939000
7,275167	0,5	5,922300
7,283500	0,5	5,909600
7,291833	0,5	5,905250
7,300167	0,5	5,882200
7,308500	0,5	5,864200
7,316833	0,5	5,850700
7,325167	0,5	5,843050
7,333500	0,5	5,836100
7,341833	0,5	5,816250
7,350167	0,5	5,799200
7,358500	0,5	5,780850
7,366833	0,5	5,765400
7,375167	0,5	5,753650
7,383500	0,5	5,743950
7,391833	0,5	5,732450
7,400167	0,5	5,723850
7,408500	0,5	5,712600
7,416833	0,5	5,699150
7,425167	0,5	5,673350
7,433500	0,5	5,663900
7,441833	0,5	5,647250
7,450167	0,5	5,630850
7,458500	0,5	5,613200
7,466833	0,5	5,603400
7,475167	0,5	5,599800
7,483500	0,5	5,595950
7,491833	0,5	5,581450
7,500167	0,5	5,573550
7,508500	0,5	5,558750
7,516833	0,5	5,542350
7,525167	0,5	5,525900
7,533500	0,5	5,508050
7,541833	0,5	5,492700
7,550167	0,5	5,477950
7,558500	0,5	5,472100
7,566833	0,5	5,462800
7,575167	0,5	5,456150
7,583500	0,5	5,455850
7,591833	0,5	5,447900
7,600167	0,5	5,433250
7,608500	0,5	5,422150
7,616833	0,5	5,413000
7,625167	0,5	5,417950
7,633500	0,5	5,423400
7,641833	0,5	5,463950
7,650167	0,5	5,548200
7,658500	0,5	5,665100
7,666833	0,5	5,757400
7,675167	0,5	5,785300
7,683500	0,5	5,730100
7,691833	0,5	5,636750
7,700167	0,5	5,540750
7,708500	0,5	5,467750
7,716833	0,5	5,419800
7,725167	0,5	5,372550
7,733500	0,5	5,343500
7,741833	0,5	5,302600
7,750167	0,5	5,269100
7,758500	0,5	5,242050
7,766833	0,5	5,225750
7,775167	0,5	5,223200
7,783500	0,5	5,217700
7,791833	0,5	5,207400
7,800167	0,5	5,207200
7,808500	0,5	5,207250
7,816833	0,5	5,203500
7,825167	0,5	5,195650
7,833500	0,5	5,188950
7,841833	0,5	5,180450
7,850167	0,5	5,175350
7,858500	0,5	5,176150
7,866833	0,5	5,183350
7,875167	0,5	5,192350
7,883500	0,5	5,217750
7,891833	0,5	5,245850
7,900167	0,5	5,297550
7,908500	0,5	5,376050
7,916833	0,5	5,495750
7,925167	0,5	5,675600
7,933500	0,5	5,916000
7,941833	0,5	6,243100
7,950167	0,5	6,654350
7,958500	0,5	7,164900
7,966833	0,5	7,741500
7,975167	0,5	8,337550
7,983500	0,5	8,870200
7,991833	0,5	9,260050
8,000167	0,5	9,442400
8,008500	0,5	9,395300
8,016833	0,5	9,139250
8,025167	0,5	8,716400
8,033500	0,5	8,150750
8,041833	0,5	7,504400
8,050167	0,5	6,867850
8,058500	0,5	6,326750
8,066833	0,5	5,926950
8,075167	0,5	5,663500
8,083500	0,5	5,500950
8,091833	0,5	5,405600
8,100167	0,5	5,353800
8,108500	0,5	5,322200
8,116833	0,5	5,317450
8,125167	0,5	5,337850
8,133500	0,5	5,382200
8,141833	0,5	5,441750
8,150167	0,5	5,493150
8,158500	0,5	5,520950
8,166833	0,5	5,511850
8,175167	0,5	5,469100
8,183500	0,5	5,389900
8,191833	0,5	5,292150
8,200167	0,5	5,192850
8,208500	0,5	5,102200
8,216833	0,5	5,036050
8,225167	0,5	4,979850
8,233500	0,5	4,936200
8,241833	0,5	4,905000
8,250167	0,5	4,885700
8,258500	0,5	4,894700
8,266833	0,5	4,941250
8,275167	0,5	5,014350
8,283500	0,5	5,074200
8,291833	0,5	5,088400
8,300167	0,5	5,035000
8,308500	0,5	4,946050
8,316833	0,5	4,856750
8,325167	0,5	4,799850
8,333500	0,5	4,755950
8,341833	0,5	4,732900
8,350167	0,5	4,716100
8,358500	0,5	4,716500
8,366833	0,5	4,723350
8,375167	0,5	4,738650
8,383500	0,5	4,751000
8,391833	0,5	4,763100
8,400167	0,5	4,758000
8,408500	0,5	4,738850
8,416833	0,5	4,720050
8,425167	0,5	4,703550
8,433500	0,5	4,700900
8,441833	0,5	4,713300
8,450167	0,5	4,728650
8,458500	0,5	4,736050
8,466833	0,5	4,733200
8,475167	0,5	4,716750
8,483500	0,5	4,691100
8,491833	0,5	4,679350
8,500167	0,5	4,702250
8,508500	0,5	4,770100
8,516833	0,5	4,849700
8,525167	0,5	4,890100
8,533500	0,5	4,868750
8,541833	0,5	4,803850
8,550167	0,5	4,720050
8,558500	0,5	4,644850
8,566833	0,5	4,587600
8,575167	0,5	4,548300
8,583500	0,5	4,525250
8,591833	0,5	4,514750
8,600167	0,5	4,512600
8,608500	0,5	4,507450
8,616833	0,5	4,510500
8,625167	0,5	4,500050
8,633500	0,5	4,484300
8,641833	0,5	4,459150
8,650167	0,5	4,446900
8,658500	0,5	4,448100
8,666833	0,5	4,443950
8,675167	0,5	4,443400
8,683500	0,5	4,438100
8,691833	0,5	4,442200
8,700167	0,5	4,451900
8,708500	0,5	4,489900
8,716833	0,5	4,562250
8,725167	0,5	4,658350
8,733500	0,5	4,741900
8,741833	0,5	4,774500
8,750167	0,5	4,749000
8,758500	0,5	4,688400
8,766833	0,5	4,634100
8,775167	0,5	4,590900
8,783500	0,5	4,557550
8,791833	0,5	4,539200
8,800167	0,5	4,535250
8,808500	0,5	4,539950
8,816833	0,5	4,542550
8,825167	0,5	4,551300
8,833500	0,5	4,574850
8,841833	0,5	4,626400
8,850167	0,5	4,695700
8,858500	0,5	4,749700
8,866833	0,5	4,756950
8,875167	0,5	4,711950
8,883500	0,5	4,644200
8,891833	0,5	4,596500
8,900167	0,5	4,599150
8,908500	0,5	4,630750
8,916833	0,5	4,658700
8,925167	0,5	4,639700
8,933500	0,5	4,593750
8,941833	0,5	4,548200
8,950167	0,5	4,534450
8,958500	0,5	4,543800
8,966833	0,5	4,552100
8,975167	0,5	4,557100
8,983500	0,5	4,548850
8,991833	0,5	4,541150
9,000167	0,5	4,542400
9,008500	0,5	4,553650
9,016833	0,5	4,576750
9,025167	0,5	4,620100
9,033500	0,5	4,683800
9,041833	0,5	4,779900
9,050167	0,5	4,906850
9,058500	0,5	5,052950
9,066833	0,5	5,164750
9,075167	0,5	5,221250
9,083500	0,5	5,225200
9,091833	0,5	5,196950
9,100167	0,5	5,146350
9,108500	0,5	5,064950
9,116833	0,5	4,959700
9,125167	0,5	4,844400
9,133500	0,5	4,738050
9,141833	0,5	4,654150
9,150167	0,5	4,605650
9,158500	0,5	4,608700
9,166833	0,5	4,691950
9,175167	0,5	4,917200
9,183500	0,5	5,338400
9,191833	0,5	5,782200
9,200167	0,5	5,978650
9,208500	0,5	5,827500
9,216833	0,5	5,510200
9,225167	0,5	5,223250
9,233500	0,5	5,019800
9,241833	0,5	4,903750
9,250167	0,5	4,861800
9,258500	0,5	4,896600
9,266833	0,5	5,004700
9,275167	0,5	5,192700
9,283500	0,5	5,436950
9,291833	0,5	5,731300
9,300167	0,5	6,042600
9,308500	0,5	6,347200
9,316833	0,5	6,609650
9,325167	0,5	6,807400
9,333500	0,5	6,922150
9,341833	0,5	6,943100
9,350167	0,5	6,873150
9,358500	0,5	6,736950
9,366833	0,5	6,545450
9,375167	0,5	6,336000
9,383500	0,5	6,139250
9,391833	0,5	5,988000
9,400167	0,5	5,902150
9,408500	0,5	5,875700
9,416833	0,5	5,873950
9,425167	0,5	5,873650
9,433500	0,5	5,838050
9,441833	0,5	5,752300
9,450167	0,5	5,618350
9,458500	0,5	5,455200
9,466833	0,5	5,278800
9,475167	0,5	5,116750
9,483500	0,5	4,987000
9,491833	0,5	4,886100
9,500167	0,5	4,811700
9,508500	0,5	4,767250
9,516833	0,5	4,740950
9,525167	0,5	4,740050
9,533500	0,5	4,755400
9,541833	0,5	4,787100
9,550167	0,5	4,824450
9,558500	0,5	4,842950
9,566833	0,5	4,830900
9,575167	0,5	4,791550
9,583500	0,5	4,734500
9,591833	0,5	4,675050
9,600167	0,5	4,610900
9,608500	0,5	4,555050
9,616833	0,5	4,500800
9,625167	0,5	4,455850
9,633500	0,5	4,412050
9,641833	0,5	4,375100
9,650167	0,5	4,346550
9,658500	0,5	4,333650
9,666833	0,5	4,325150
9,675167	0,5	4,322150
9,683500	0,5	4,329400
9,691833	0,5	4,339900
9,700167	0,5	4,365000
9,708500	0,5	4,390900
9,716833	0,5	4,423250
9,725167	0,5	4,458250
9,733500	0,5	4,491450
9,741833	0,5	4,524400
9,750167	0,5	4,559650
9,758500	0,5	4,586450
9,766833	0,5	4,601200
9,775167	0,5	4,602300
9,783500	0,5	4,594150
9,791833	0,5	4,580100
9,800167	0,5	4,579600
9,808500	0,5	4,607000
9,816833	0,5	4,661350
9,825167	0,5	4,757050
9,833500	0,5	4,894050
9,841833	0,5	5,080200
9,850167	0,5	5,299450
9,858500	0,5	5,539550
9,866833	0,5	5,785300
9,875167	0,5	6,015350
9,883500	0,5	6,226500
9,891833	0,5	6,419500
9,900167	0,5	6,602100
9,908500	0,5	6,777400
9,916833	0,5	6,952350
9,925167	0,5	7,119300
9,933500	0,5	7,270000
9,941833	0,5	7,411200
9,950167	0,5	7,541600
9,958500	0,5	7,658150
9,966833	0,5	7,762050
9,975167	0,5	7,851350
9,983500	0,5	7,919500
9,991833	0,5	7,958150
10,000167	0,5	7,945950
10,008500	0,5	7,863950
10,016833	0,5	7,690500
10,025167	0,5	7,420300
10,033500	0,5	7,065400
10,041833	0,5	6,644900
10,050167	0,5	6,208150
10,058500	0,5	5,796400
10,066833	0,5	5,440600
10,075167	0,5	5,159700
10,083500	0,5	4,954600
10,091833	0,5	4,803750
10,100167	0,5	4,698950
10,108500	0,5	4,623300
10,116833	0,5	4,567100
10,125167	0,5	4,538550
10,133500	0,5	4,540450
10,141833	0,5	4,559350
10,150167	0,5	4,598250
10,158500	0,5	4,633700
10,166833	0,5	4,660000
10,175167	0,5	4,659100
10,183500	0,5	4,638700
10,191833	0,5	4,598700
10,200167	0,5	4,550800
10,208500	0,5	4,498100
10,216833	0,5	4,443600
10,225167	0,5	4,398600
10,233500	0,5	4,357600
10,241833	0,5	4,321050
10,250167	0,5	4,284250
10,258500	0,5	4,252600
10,266833	0,5	4,216300
10,275167	0,5	4,188300
10,283500	0,5	4,168750
10,291833	0,5	4,163900
10,300167	0,5	4,157000
10,308500	0,5	4,159850
10,316833	0,5	4,164800
10,325167	0,5	4,176550
10,333500	0,5	4,186400
10,341833	0,5	4,204450
10,350167	0,5	4,219950
10,358500	0,5	4,241800
10,366833	0,5	4,271650
10,375167	0,5	4,310450
10,383500	0,5	4,346350
10,391833	0,5	4,394400
10,400167	0,5	4,441500
10,408500	0,5	4,489200
10,416833	0,5	4,535850
10,425167	0,5	4,565000
10,433500	0,5	4,579550
10,441833	0,5	4,562900
10,450167	0,5	4,525050
10,458500	0,5	4,467550
10,466833	0,5	4,398350
10,475167	0,5	4,330150
10,483500	0,5	4,265800
10,491833	0,5	4,208900
10,500167	0,5	4,156000
10,508500	0,5	4,108600
10,516833	0,5	4,063800
10,525167	0,5	4,030800
10,533500	0,5	4,005950
10,541833	0,5	3,994800
10,550167	0,5	3,993400
10,558500	0,5	4,000500
10,566833	0,5	4,015450
10,575167	0,5	4,034200
10,583500	0,5	4,060850
10,591833	0,5	4,086050
10,600167	0,5	4,113000
10,608500	0,5	4,148250
10,616833	0,5	4,192800
10,625167	0,5	4,248050
10,633500	0,5	4,297650
10,641833	0,5	4,337050
10,650167	0,5	4,349600
10,658500	0,5	4,337900
10,666833	0,5	4,285200
10,675167	0,5	4,215650
10,683500	0,5	4,133350
10,691833	0,5	4,060950
10,700167	0,5	3,989350
10,708500	0,5	3,933500
10,716833	0,5	3,879150
10,725167	0,5	3,827700
10,733500	0,5	3,786000
10,741833	0,5	3,751750
10,750167	0,5	3,727500
10,758500	0,5	3,713900
10,766833	0,5	3,712100
10,775167	0,5	3,722800
10,783500	0,5	3,747150
10,791833	0,5	3,776800
10,800167	0,5	3,815800
10,808500	0,5	3,871250
10,816833	0,5	3,940500
10,825167	0,5	4,013550
10,833500	0,5	4,073650
10,841833	0,5	4,111350
10,850167	0,5	4,105100
10,858500	0,5	4,057250
10,866833	0,5	3,978450
10,875167	0,5	3,883250
10,883500	0,5	3,795250
10,891833	0,5	3,717400
10,900167	0,5	3,649000
10,908500	0,5	3,589850
10,916833	0,5	3,539500
10,925167	0,5	3,494650
10,933500	0,5	3,461850
10,941833	0,5	3,436400
10,950167	0,5	3,425150
10,958500	0,5	3,433150
10,966833	0,5	3,453050
10,975167	0,5	3,492500
10,983500	0,5	3,555200
10,991833	0,5	3,640600
11,000167	0,5	3,729200
11,008500	0,5	3,807900
11,016833	0,5	3,854400
11,025167	0,5	3,858200
11,033500	0,5	3,813550
11,041833	0,5	3,736400
11,050167	0,5	3,638150
11,058500	0,5	3,544900
11,066833	0,5	3,465900
11,075167	0,5	3,401550
11,083500	0,5	3,346050
11,091833	0,5	3,307350
11,100167	0,5	3,274300
11,108500	0,5	3,256050
11,116833	0,5	3,255600
11,125167	0,5	3,267550
11,133500	0,5	3,305150
11,141833	0,5	3,365900
11,150167	0,5	3,439200
11,158500	0,5	3,516400
11,166833	0,5	3,590750
11,175167	0,5	3,632800
11,183500	0,5	3,635000
11,191833	0,5	3,586200
11,200167	0,5	3,504500
11,208500	0,5	3,397950
11,216833	0,5	3,290900
11,225167	0,5	3,185200
11,233500	0,5	3,086500
11,241833	0,5	2,990300
11,250167	0,5	2,889650
11,258500	0,5	2,800100
11,266833	0,5	2,714850
11,275167	0,5	2,645150
11,283500	0,5	2,607750
11,291833	0,5	2,596300
11,300167	0,5	2,613900
11,308500	0,5	2,652500
11,316833	0,5	2,706200
11,325167	0,5	2,759300
11,333500	0,5	2,801100
11,341833	0,5	2,822350
11,350167	0,5	2,833350
11,358500	0,5	2,836650
11,366833	0,5	2,835850
11,375167	0,5	2,835100
11,383500	0,5	2,827800
11,391833	0,5	2,824350
11,400167	0,5	2,820450
11,408500	0,5	2,823350
11,416833	0,5	2,824200
11,425167	0,5	2,841100
11,433500	0,5	2,864200
11,441833	0,5	2,884150
11,450167	0,5	2,892950
11,458500	0,5	2,887400
11,466833	0,5	2,871200
11,475167	0,5	2,843300
11,483500	0,5	2,805750
11,491833	0,5	2,770050
11,500167	0,5	2,737000
11,508500	0,5	2,709150
11,516833	0,5	2,695500
11,525167	0,5	2,684300
11,533500	0,5	2,683400
11,541833	0,5	2,684300
11,550167	0,5	2,689150
11,558500	0,5	2,701900
11,566833	0,5	2,708050
11,575167	0,5	2,719350
11,583500	0,5	2,722250
11,591833	0,5	2,717150
11,600167	0,5	2,707400
11,608500	0,5	2,692950
11,616833	0,5	2,690800
11,625167	0,5	2,691100
11,633500	0,5	2,695200
11,641833	0,5	2,704700
11,650167	0,5	2,717400
11,658500	0,5	2,736850
11,666833	0,5	2,763200
11,675167	0,5	2,792400
11,683500	0,5	2,817250
11,691833	0,5	2,842650
11,700167	0,5	2,859300
11,708500	0,5	2,874450
11,716833	0,5	2,875600
11,725167	0,5	2,887900
11,733500	0,5	2,888700
11,741833	0,5	2,890950
11,750167	0,5	2,889100
11,758500	0,5	2,883700
11,766833	0,5	2,892700
11,775167	0,5	2,900750
11,783500	0,5	2,906600
11,791833	0,5	2,916550
11,800167	0,5	2,931750
11,808500	0,5	2,947200
11,816833	0,5	2,961100
11,825167	0,5	2,971150
11,833500	0,5	2,981550
11,841833	0,5	2,986150
11,850167	0,5	2,997500
11,858500	0,5	3,012700
11,866833	0,5	3,035650
11,875167	0,5	3,086650
11,883500	0,5	3,154500
11,891833	0,5	3,250750
11,900167	0,5	3,387200
11,908500	0,5	3,556800
11,916833	0,5	3,759400
11,925167	0,5	3,962500
11,933500	0,5	4,137900
11,941833	0,5	4,252200
11,950167	0,5	4,295900
11,958500	0,5	4,255050
11,966833	0,5	4,150350
11,975167	0,5	3,998850
11,983500	0,5	3,819400
11,991833	0,5	3,643250
12,000167	0,5	3,481650
12,008500	0,5	3,338550
12,016833	0,5	3,238000
12,025167	0,5	3,167550
12,033500	0,5	3,119800
12,041833	0,5	3,096300
12,050167	0,5	3,089750
12,058500	0,5	3,101900
12,066833	0,5	3,128850
12,075167	0,5	3,166450
12,083500	0,5	3,205050
12,091833	0,5	3,248650
12,100167	0,5	3,287750
12,108500	0,5	3,318400
12,116833	0,5	3,333000
12,125167	0,5	3,335950
12,133500	0,5	3,328400
12,141833	0,5	3,316500
12,150167	0,5	3,303300
12,158500	0,5	3,291200
12,166833	0,5	3,288050
12,175167	0,5	3,298250
12,183500	0,5	3,311000
12,191833	0,5	3,339650
12,200167	0,5	3,371500
12,208500	0,5	3,425300
12,216833	0,5	3,491300
12,225167	0,5	3,553400
12,233500	0,5	3,608200
12,241833	0,5	3,642200
12,250167	0,5	3,652000
12,258500	0,5	3,626850
12,266833	0,5	3,576700
12,275167	0,5	3,504300
12,283500	0,5	3,430550
12,291833	0,5	3,360600
12,300167	0,5	3,301300
12,308500	0,5	3,255950
12,316833	0,5	3,237800
12,325167	0,5	3,220650
12,333500	0,5	3,208300
12,341833	0,5	3,192700
12,350167	0,5	3,179000
12,358500	0,5	3,172650
12,366833	0,5	3,156800
12,375167	0,5	3,134550
12,383500	0,5	3,113600
12,391833	0,5	3,093600
12,400167	0,5	3,072800
12,408500	0,5	3,051950
12,416833	0,5	3,032200
12,425167	0,5	3,017100
12,433500	0,5	3,001100
12,441833	0,5	2,996400
12,450167	0,5	2,977100
12,458500	0,5	2,978600
12,466833	0,5	2,979400
12,475167	0,5	2,977850
12,483500	0,5	2,968200
12,491833	0,5	2,960750
12,500167	0,5	2,954150
12,508500	0,5	2,951750
12,516833	0,5	2,951200
12,525167	0,5	2,954850
12,533500	0,5	2,961050
12,541833	0,5	2,971150
12,550167	0,5	2,980400
12,558500	0,5	2,986900
12,566833	0,5	2,993800
12,575167	0,5	3,005600
12,583500	0,5	3,031800
12,591833	0,5	3,061650
12,600167	0,5	3,094250
12,608500	0,5	3,148650
12,616833	0,5	3,200300
12,625167	0,5	3,256950
12,633500	0,5	3,317400
12,641833	0,5	3,368200
12,650167	0,5	3,430300
12,658500	0,5	3,493100
12,666833	0,5	3,560000
12,675167	0,5	3,624700
12,683500	0,5	3,688750
12,691833	0,5	3,748950
12,700167	0,5	3,813800
12,708500	0,5	3,881450
12,716833	0,5	3,936400
12,725167	0,5	3,982300
12,733500	0,5	4,009100
12,741833	0,5	4,031650
12,750167	0,5	4,030650
12,758500	0,5	4,024650
12,766833	0,5	3,980850
12,775167	0,5	3,917200
12,783500	0,5	3,853150
12,791833	0,5	3,796450
12,800167	0,5	3,756950
12,808500	0,5	3,712900
12,816833	0,5	3,656350
12,825167	0,5	3,588200
12,833500	0,5	3,501650
12,841833	0,5	3,404000
12,850167	0,5	3,304950
12,858500	0,5	3,232150
12,866833	0,5	3,185800
12,875167	0,5	3,182000
12,883500	0,5	3,212050
12,891833	0,5	3,264050
12,900167	0,5	3,326450
12,908500	0,5	3,390900
12,916833	0,5	3,428850
12,925167	0,5	3,420400
12,933500	0,5	3,361600
12,941833	0,5	3,277450
12,950167	0,5	3,201600
12,958500	0,5	3,151750
12,966833	0,5	3,213300
12,975167	0,5	3,330200
12,983500	0,5	3,375750
12,991833	0,5	3,391550
13,000167	0,5	3,266200
13,008500	0,5	2,977750
13,016833	0,5	2,667250
13,025167	0,5	2,302650
13,033500	0,5	1,952850
13,041833	0,5	1,676100
13,050167	0,5	1,469000
13,058500	0,5	1,292100
13,066833	0,5	1,140050
13,075167	0,5	1,017150
13,083500	0,5	0,918050
13,091833	0,5	0,843850
13,100167	0,5	0,788350
13,108500	0,5	0,750450
13,116833	0,5	0,720100
13,125167	0,5	0,700650
13,133500	0,5	0,689150
13,141833	0,5	0,683900
13,150167	0,5	0,677050
13,158500	0,5	0,671600
13,166833	0,5	0,665850
13,175167	0,5	0,660450
13,183500	0,5	0,639550
13,191833	0,5	0,617300
13,200167	0,5	0,601900
13,208500	0,5	0,586900
13,216833	0,5	0,564250
13,225167	0,5	0,547800
13,233500	0,5	0,529700
13,241833	0,5	0,525850
13,250167	0,5	0,522600
13,258500	0,5	0,522800
13,266833	0,5	0,525100
13,275167	0,5	0,523050
13,283500	0,5	0,520450
13,291833	0,5	0,512900
13,300167	0,5	0,499550
13,308500	0,5	0,483950
13,316833	0,5	0,466550
13,325167	0,5	0,449400
13,333500	0,5	0,428750
13,341833	0,5	0,413350
13,350167	0,5	0,416350
13,358500	0,5	0,408800
13,366833	0,5	0,405900
13,375167	0,5	0,392800
13,383500	0,5	0,388350
13,391833	0,5	0,391550
13,400167	0,5	0,389750
13,408500	0,5	0,385350
13,416833	0,5	0,379000
13,425167	0,5	0,373650
13,433500	0,5	0,368400
13,441833	0,5	0,363100
13,450167	0,5	0,359100
13,458500	0,5	0,359100
13,466833	0,5	0,357900
13,475167	0,5	0,365300
13,483500	0,5	0,358700
13,491833	0,5	0,375850
13,500167	0,5	0,392600
13,508500	0,5	0,417650
13,516833	0,5	0,443400
13,525167	0,5	0,477250
13,533500	0,5	0,534400
13,541833	0,5	0,606400
13,550167	0,5	0,681900
13,558500	0,5	0,770550
13,566833	0,5	0,863550
13,575167	0,5	0,960800
13,583500	0,5	1,056300
13,591833	0,5	1,149300
13,600167	0,5	1,228850
13,608500	0,5	1,293300
13,616833	0,5	1,356650
13,625167	0,5	1,395400
13,633500	0,5	1,415450
13,641833	0,5	1,443400
13,650167	0,5	1,454900
13,658500	0,5	1,452350
13,666833	0,5	1,448500
13,675167	0,5	1,427650
13,683500	0,5	1,427900
13,691833	0,5	1,415500
13,700167	0,5	1,414100
13,708500	0,5	1,404450
13,716833	0,5	1,397200
13,725167	0,5	1,390650
13,733500	0,5	1,391050
13,741833	0,5	1,386000
13,750167	0,5	1,383950
13,758500	0,5	1,383800
13,766833	0,5	1,385500
13,775167	0,5	1,386050
13,783500	0,5	1,380850
13,791833	0,5	1,391350
13,800167	0,5	1,386800
13,808500	0,5	1,386350
13,816833	0,5	1,379300
13,825167	0,5	1,372550
13,833500	0,5	1,375350
13,841833	0,5	1,383050
13,850167	0,5	1,381250
13,858500	0,5	1,383800
13,866833	0,5	1,380000
13,875167	0,5	1,383900
13,883500	0,5	1,390200
13,891833	0,5	1,396850
13,900167	0,5	1,398900
13,908500	0,5	1,406300
13,916833	0,5	1,409650
13,925167	0,5	1,410400
13,933500	0,5	1,412900
13,941833	0,5	1,423350
13,950167	0,5	1,420750
13,958500	0,5	1,421650
13,966833	0,5	1,417200
13,975167	0,5	1,419200
13,983500	0,5	1,432050
13,991833	0,5	1,441800
14,000167	0,5	1,451600
14,008500	0,5	1,458050
14,016833	0,5	1,465500
14,025167	0,5	1,461750
14,033500	0,5	1,465150
14,041833	0,5	1,463900
14,050167	0,5	1,461900
14,058500	0,5	1,467150
14,066833	0,5	1,470700
14,075167	0,5	1,462800
14,083500	0,5	1,472750
14,091833	0,5	1,478350
14,100167	0,5	1,475500
14,108500	0,5	1,467900
14,116833	0,5	1,454300
14,125167	0,5	1,455050
14,133500	0,5	1,456750
14,141833	0,5	1,455800
14,150167	0,5	1,452150
14,158500	0,5	1,453400
14,166833	0,5	1,457950
14,175167	0,5	1,460850
14,183500	0,5	1,459350
14,191833	0,5	1,462150
14,200167	0,5	1,462150
14,208500	0,5	1,472050
14,216833	0,5	1,471650
14,225167	0,5	1,470700
14,233500	0,5	1,479750
14,241833	0,5	1,485750
14,250167	0,5	1,485150
14,258500	0,5	1,482750
14,266833	0,5	1,479250
14,275167	0,5	1,486000
14,283500	0,5	1,491150
14,291833	0,5	1,498750
14,300167	0,5	1,499750
14,308500	0,5	1,508150
14,316833	0,5	1,514700
14,325167	0,5	1,521750
14,333500	0,5	1,529500
14,341833	0,5	1,533900
14,350167	0,5	1,542700
14,358500	0,5	1,549750
14,366833	0,5	1,549300
14,375167	0,5	1,557600
14,383500	0,5	1,565300
14,391833	0,5	1,575300
14,400167	0,5	1,576750
14,408500	0,5	1,574950
14,416833	0,5	1,582950
14,425167	0,5	1,594950
14,433500	0,5	1,609050
14,441833	0,5	1,614400
14,450167	0,5	1,629100
14,458500	0,5	1,640200
14,466833	0,5	1,649050
14,475167	0,5	1,661150
14,483500	0,5	1,673300
14,491833	0,5	1,693000
14,500167	0,5	1,709300
14,508500	0,5	1,742150
14,516833	0,5	1,754400
14,525167	0,5	1,800550
14,533500	0,5	1,834650
14,541833	0,5	1,872700
14,550167	0,5	1,899800
14,558500	0,5	1,916850
14,566833	0,5	1,940050
14,575167	0,5	1,962200
14,583500	0,5	1,966900
14,591833	0,5	1,975950
14,600167	0,5	1,980850
14,608500	0,5	1,991000
14,616833	0,5	1,992950
14,625167	0,5	2,006900
14,633500	0,5	2,023900
14,641833	0,5	2,045200
14,650167	0,5	2,077350
14,658500	0,5	2,114300
14,666833	0,5	2,137200
14,675167	0,5	2,191950
14,683500	0,5	2,233650
14,691833	0,5	2,283500
14,700167	0,5	2,333700
14,708500	0,5	2,379250
14,716833	0,5	2,441700
14,725167	0,5	2,484050
14,733500	0,5	2,522800
14,741833	0,5	2,542300
14,750167	0,5	2,563200
14,758500	0,5	2,576350
14,766833	0,5	2,612800
14,775167	0,5	2,657250
14,783500	0,5	2,723050
14,791833	0,5	2,800450
14,800167	0,5	2,873050
14,808500	0,5	2,919050
14,816833	0,5	2,944150
14,825167	0,5	2,946450
14,833500	0,5	2,909700
14,841833	0,5	2,850800
14,850167	0,5	2,774900
14,858500	0,5	2,715900
14,866833	0,5	2,666050
14,875167	0,5	2,638250
14,883500	0,5	2,613500
14,891833	0,5	2,607550
14,900167	0,5	2,608650
14,908500	0,5	2,612150
14,916833	0,5	2,613100
14,925167	0,5	2,605300
14,933500	0,5	2,575900
14,941833	0,5	2,540300
14,950167	0,5	2,496400
14,958500	0,5	2,454350
14,966833	0,5	2,427400
14,975167	0,5	2,413350
14,983500	0,5	2,392100
14,991833	0,5	2,377150
15,000167	0,5	2,354600
15,008500	0,5	2,344400
15,016833	0,5	2,345450
15,025167	0,5	2,339450
15,033500	0,5	2,332700
15,041833	0,5	2,325250
15,050167	0,5	2,318150
15,058500	0,5	2,308000
15,066833	0,5	2,300300
15,075167	0,5	2,286700
15,083500	0,5	2,285000
15,091833	0,5	2,276800
15,100167	0,5	2,268100
15,108500	0,5	2,249750
15,116833	0,5	2,251900
15,125167	0,5	2,244400
15,133500	0,5	2,231100
15,141833	0,5	2,206900
15,150167	0,5	2,190150
15,158500	0,5	2,182700
15,166833	0,5	2,175800
15,175167	0,5	2,164450
15,183500	0,5	2,153900
15,191833	0,5	2,144650
15,200167	0,5	2,131200
15,208500	0,5	2,125150
15,216833	0,5	2,119000
15,225167	0,5	2,111200
15,233500	0,5	2,101000
15,241833	0,5	2,102150
15,250167	0,5	2,083600
15,258500	0,5	2,080250
15,266833	0,5	2,080150
15,275167	0,5	2,078050
15,283500	0,5	2,063500
15,291833	0,5	2,047300
15,300167	0,5	2,039650
15,308500	0,5	2,039150
15,316833	0,5	2,029100
15,325167	0,5	2,028700
15,333500	0,5	2,021150
15,341833	0,5	2,019550
15,350167	0,5	2,014200
15,358500	0,5	2,011750
15,366833	0,5	2,011850
15,375167	0,5	2,006350
15,383500	0,5	2,007550
15,391833	0,5	2,010900
15,400167	0,5	1,996900
15,408500	0,5	2,005100
15,416833	0,5	2,005750
15,425167	0,5	1,994400
15,433500	0,5	1,981000
15,441833	0,5	1,955800
15,450167	0,5	1,957850
15,458500	0,5	1,957950
15,466833	0,5	1,956550
15,475167	0,5	1,956400
15,483500	0,5	1,943500
15,491833	0,5	1,927650
15,500167	0,5	1,913650
15,508500	0,5	1,898750
15,516833	0,5	1,886700
15,525167	0,5	1,871600
15,533500	0,5	1,859050
15,541833	0,5	1,862100
15,550167	0,5	1,843000
15,558500	0,5	1,855800
15,566833	0,5	1,852650
15,575167	0,5	1,856000
15,583500	0,5	1,852950
15,591833	0,5	1,844050
15,600167	0,5	1,840800
15,608500	0,5	1,843900
15,616833	0,5	1,829350
15,625167	0,5	1,818450
15,633500	0,5	1,800450
15,641833	0,5	1,792050
15,650167	0,5	1,783400
15,658500	0,5	1,777750
15,666833	0,5	1,767450
15,675167	0,5	1,762250
15,683500	0,5	1,760050
15,691833	0,5	1,755450
15,700167	0,5	1,745000
15,708500	0,5	1,754400
15,716833	0,5	1,741250
15,725167	0,5	1,735250
15,733500	0,5	1,720600
15,741833	0,5	1,705950
15,750167	0,5	1,712050
15,758500	0,5	1,707450
15,766833	0,5	1,709050
15,775167	0,5	1,703600
15,783500	0,5	1,705450
15,791833	0,5	1,697500
15,800167	0,5	1,699600
15,808500	0,5	1,691750
15,816833	0,5	1,685400
15,825167	0,5	1,683500
15,833500	0,5	1,677750
15,841833	0,5	1,660250
15,850167	0,5	1,658300
15,858500	0,5	1,656950
15,866833	0,5	1,650700
15,875167	0,5	1,637400
15,883500	0,5	1,622950
15,891833	0,5	1,614100
15,900167	0,5	1,613800
15,908500	0,5	1,609700
15,916833	0,5	1,597950
15,925167	0,5	1,587450
15,933500	0,5	1,573050
15,941833	0,5	1,570350
15,950167	0,5	1,555650
15,958500	0,5	1,547950
15,966833	0,5	1,543700
15,975167	0,5	1,547700
15,983500	0,5	1,536350
15,991833	0,5	1,526850
16,000167	0,5	1,528350
16,008500	0,5	1,527900
16,016833	0,5	1,516400
16,025167	0,5	1,503100
16,033500	0,5	1,482550
16,041833	0,5	1,470000
16,050167	0,5	1,465300
16,058500	0,5	1,454400
16,066833	0,5	1,450800
16,075167	0,5	1,445950
16,083500	0,5	1,439600
16,091833	0,5	1,435200
16,100167	0,5	1,433650
16,108500	0,5	1,422550
16,116833	0,5	1,419950
16,125167	0,5	1,412400
16,133500	0,5	1,398900
16,141833	0,5	1,390300
16,150167	0,5	1,398900
16,158500	0,5	1,388850
16,166833	0,5	1,381800
16,175167	0,5	1,357050
16,183500	0,5	1,350150
16,191833	0,5	1,345100
16,200167	0,5	1,343200
16,208500	0,5	1,336500
16,216833	0,5	1,329300
16,225167	0,5	1,323950
16,233500	0,5	1,317650
16,241833	0,5	1,313500
16,250167	0,5	1,302700
16,258500	0,5	1,301650
16,266833	0,5	1,296950
16,275167	0,5	1,295950
16,283500	0,5	1,270300
16,291833	0,5	1,274150
16,300167	0,5	1,268950
16,308500	0,5	1,261000
16,316833	0,5	1,244200
16,325167	0,5	1,229300
16,333500	0,5	1,226900
16,341833	0,5	1,230750
16,350167	0,5	1,221950
16,358500	0,5	1,219400
16,366833	0,5	1,211900
16,375167	0,5	1,210850
16,383500	0,5	1,209550
16,391833	0,5	1,211800
16,400167	0,5	1,211350
16,408500	0,5	1,206450
16,416833	0,5	1,218000
16,425167	0,5	1,212700
16,433500	0,5	1,186050
16,441833	0,5	1,194050
16,450167	0,5	1,189750
16,458500	0,5	1,176250
16,466833	0,5	1,161250
16,475167	0,5	1,126900
16,483500	0,5	1,129450
16,491833	0,5	1,118950
16,500167	0,5	1,115900
16,508500	0,5	1,104500
16,516833	0,5	1,104150
16,525167	0,5	1,093850
16,533500	0,5	1,092450
16,541833	0,5	1,086100
16,550167	0,5	1,080500
16,558500	0,5	1,076600
16,566833	0,5	1,078150
16,575167	0,5	1,068600
16,583500	0,5	1,056450
16,591833	0,5	1,060750
16,600167	0,5	1,055250
16,608500	0,5	1,043250
16,616833	0,5	1,026800
16,625167	0,5	1,013850
16,633500	0,5	1,008850
16,641833	0,5	1,009000
16,650167	0,5	1,000750
16,658500	0,5	1,001300
16,666833	0,5	0,994900
16,675167	0,5	0,993400
16,683500	0,5	0,988500
16,691833	0,5	0,990450
16,700167	0,5	0,980050
16,708500	0,5	0,977100
16,716833	0,5	0,974500
16,725167	0,5	0,965950
16,733500	0,5	0,960400
16,741833	0,5	0,965350
16,750167	0,5	0,953200
16,758500	0,5	0,943150
16,766833	0,5	0,920000
16,775167	0,5	0,904950
16,783500	0,5	0,907300
16,791833	0,5	0,897900
16,800167	0,5	0,900650
16,808500	0,5	0,888900
16,816833	0,5	0,886450
16,825167	0,5	0,878950
16,833500	0,5	0,878300
16,841833	0,5	0,867100
16,850167	0,5	0,866550
16,858500	0,5	0,863650
16,866833	0,5	0,861600
16,875167	0,5	0,844750
16,883500	0,5	0,849850
16,891833	0,5	0,844150
16,900167	0,5	0,838700
16,908500	0,5	0,822650
16,916833	0,5	0,808300
16,925167	0,5	0,806250
16,933500	0,5	0,804150
16,941833	0,5	0,802750
16,950167	0,5	0,800200
16,958500	0,5	0,796950
16,966833	0,5	0,790350
16,975167	0,5	0,794000
16,983500	0,5	0,792050
16,991833	0,5	0,789950
17,000167	0,5	0,784400
17,008500	0,5	0,789200
17,016833	0,5	0,773800
17,025167	0,5	0,771500
17,033500	0,5	0,774600
17,041833	0,5	0,773250
17,050167	0,5	0,767850
17,058500	0,5	0,751750
17,066833	0,5	0,740350
17,075167	0,5	0,737350
17,083500	0,5	0,732050
17,091833	0,5	0,728950
17,100167	0,5	0,723550
17,108500	0,5	0,717900
17,116833	0,5	0,714500
17,125167	0,5	0,708950
17,133500	0,5	0,703750
17,141833	0,5	0,693550
17,150167	0,5	0,696650
17,158500	0,5	0,691250
17,166833	0,5	0,670550
17,175167	0,5	0,675700
17,183500	0,5	0,678750
17,191833	0,5	0,668650
17,200167	0,5	0,661450
17,208500	0,5	0,634450
17,216833	0,5	0,630100
17,225167	0,5	0,630500
17,233500	0,5	0,629650
17,241833	0,5	0,622250
17,250167	0,5	0,622950
17,258500	0,5	0,624100
17,266833	0,5	0,629550
17,275167	0,5	0,634600
17,283500	0,5	0,637950
17,291833	0,5	0,643400
17,300167	0,5	0,644250
17,308500	0,5	0,650950
17,316833	0,5	0,628650
17,325167	0,5	0,638300
17,333500	0,5	0,626050
17,341833	0,5	0,612350
17,350167	0,5	0,598100
17,358500	0,5	0,573950
17,366833	0,5	0,577700
17,375167	0,5	0,580650
17,383500	0,5	0,574650
17,391833	0,5	0,580350
17,400167	0,5	0,578550
17,408500	0,5	0,586500
17,416833	0,5	0,586000
17,425167	0,5	0,587100
17,433500	0,5	0,584600
17,441833	0,5	0,574350
17,450167	0,5	0,580800
17,458500	0,5	0,571300
17,466833	0,5	0,562850
17,475167	0,5	0,572450
17,483500	0,5	0,568650
17,491833	0,5	0,557400
17,500167	0,5	0,550850
17,508500	0,5	0,536750
17,516833	0,5	0,548000
17,525167	0,5	0,543000
17,533500	0,5	0,549950
17,541833	0,5	0,550300
17,550167	0,5	0,559250
17,558500	0,5	0,561200
17,566833	0,5	0,571550
17,575167	0,5	0,574150
17,583500	0,5	0,581000
17,591833	0,5	0,594600
17,600167	0,5	0,608250
17,608500	0,5	0,607450
17,616833	0,5	0,619950
17,625167	0,5	0,639950
17,633500	0,5	0,648100
17,641833	0,5	0,651050
17,650167	0,5	0,644850
17,658500	0,5	0,654450
17,666833	0,5	0,666200
17,675167	0,5	0,682550
17,683500	0,5	0,682800
17,691833	0,5	0,692500
17,700167	0,5	0,692050
17,708500	0,5	0,698150
17,716833	0,5	0,699000
17,725167	0,5	0,702250
17,733500	0,5	0,707350
17,741833	0,5	0,713900
17,750167	0,5	0,716400
17,758500	0,5	0,709750
17,766833	0,5	0,717300
17,775167	0,5	0,719550
17,783500	0,5	0,716100
17,791833	0,5	0,705600
17,800167	0,5	0,692950
17,808500	0,5	0,685500
17,816833	0,5	0,692850
17,825167	0,5	0,689100
17,833500	0,5	0,695850
17,841833	0,5	0,692850
17,850167	0,5	0,702050
17,858500	0,5	0,701700
17,866833	0,5	0,708100
17,875167	0,5	0,712200
17,883500	0,5	0,721350
17,891833	0,5	0,742900
17,900167	0,5	0,760550
17,908500	0,5	0,782400
17,916833	0,5	0,832400
17,925167	0,5	0,865400
17,933500	0,5	0,886450
17,941833	0,5	0,880100
17,950167	0,5	0,862550
17,958500	0,5	0,843400
17,966833	0,5	0,808650
17,975167	0,5	0,766750
17,983500	0,5	0,721300
17,991833	0,5	0,683000
18,000167	0,5	0,648600
18,008500	0,5	0,624700
18,016833	0,5	0,600650
18,025167	0,5	0,591000
18,033500	0,5	0,585000
18,041833	0,5	0,578650
18,050167	0,5	0,546300
18,058500	0,5	0,549400
18,066833	0,5	0,541500
18,075167	0,5	0,531950
18,083500	0,5	0,517200
18,091833	0,5	0,491600
18,100167	0,5	0,476600
18,108500	0,5	0,472500
18,116833	0,5	0,463450
18,125167	0,5	0,452100
18,133500	0,5	0,446150
18,141833	0,5	0,437050
18,150167	0,5	0,432850
18,158500	0,5	0,422900
18,166833	0,5	0,418250
18,175167	0,5	0,404550
18,183500	0,5	0,405300
18,191833	0,5	0,390150
18,200167	0,5	0,370250
18,208500	0,5	0,372500
18,216833	0,5	0,368650
18,225167	0,5	0,349950
18,233500	0,5	0,334200
18,241833	0,5	0,310850
18,250167	0,5	0,304650
18,258500	0,5	0,297300
18,266833	0,5	0,292800
18,275167	0,5	0,282350
18,283500	0,5	0,277700
18,291833	0,5	0,268300
18,300167	0,5	0,266150
18,308500	0,5	0,258350
18,316833	0,5	0,250600
18,325167	0,5	0,244650
18,333500	0,5	0,238950
18,341833	0,5	0,225800
18,350167	0,5	0,215150
18,358500	0,5	0,220850
18,366833	0,5	0,207750
18,375167	0,5	0,192650
18,383500	0,5	0,168700
18,391833	0,5	0,151800
18,400167	0,5	0,150100
18,408500	0,5	0,144200
18,416833	0,5	0,128750
18,425167	0,5	0,124600
18,433500	0,5	0,111050
18,441833	0,5	0,107450
18,450167	0,5	0,103700
18,458500	0,5	0,091150
18,466833	0,5	0,085850
18,475167	0,5	0,076500
18,483500	0,5	0,080300
18,491833	0,5	0,053250
18,500167	0,5	0,057450
18,508500	0,5	0,051800
18,516833	0,5	0,047900
18,525167	0,5	0,027450
18,533500	0,5	0,004750
18,541833	0,5	-0,004450
18,550167	0,5	-0,004850
18,558500	0,5	-0,017000
18,566833	0,5	-0,025200
18,575167	0,5	-0,032300
18,583500	0,5	-0,035100
18,591833	0,5	-0,043900
18,600167	0,5	-0,052100
18,608500	0,5	-0,059850
18,616833	0,5	-0,066450
18,625167	0,5	-0,059600
18,633500	0,5	-0,063200
18,641833	0,5	-0,081450
18,650167	0,5	-0,075400
18,658500	0,5	-0,085350
18,666833	0,5	-0,096400
18,675167	0,5	-0,113350
18,683500	0,5	-0,135300
18,691833	0,5	-0,133700
18,700167	0,5	-0,142450
18,708500	0,5	-0,139400
18,716833	0,5	-0,150500
18,725167	0,5	-0,152250
18,733500	0,5	-0,162750
18,741833	0,5	-0,159850
18,750167	0,5	-0,167350
18,758500	0,5	-0,167050
18,766833	0,5	-0,168650
18,775167	0,5	-0,163450
18,783500	0,5	-0,174100
18,791833	0,5	-0,178400
18,800167	0,5	-0,171500
18,808500	0,5	-0,179850
18,816833	0,5	-0,182500
18,825167	0,5	-0,203450
18,833500	0,5	-0,214000
18,841833	0,5	-0,218850
18,850167	0,5	-0,209700
18,858500	0,5	-0,213750
18,866833	0,5	-0,208450
18,875167	0,5	-0,204300
18,883500	0,5	-0,197500
18,891833	0,5	-0,198550
18,900167	0,5	-0,185900
18,908500	0,5	-0,185250
18,916833	0,5	-0,168400
18,925167	0,5	-0,158450
18,933500	0,5	-0,157350
18,941833	0,5	-0,144600
18,950167	0,5	-0,128600
18,958500	0,5	-0,127050
18,966833	0,5	-0,124850
18,975167	0,5	-0,131800
18,983500	0,5	-0,129350
18,991833	0,5	-0,114350
19,000167	0,5	-0,108600
19,008500	0,5	-0,105250
19,016833	0,5	-0,109100
19,025167	0,5	-0,101700
19,033500	0,5	-0,108250
19,041833	0,5	-0,107600
19,050167	0,5	-0,117750
19,058500	0,5	-0,120700
19,066833	0,5	-0,122450
19,075167	0,5	-0,133500
19,083500	0,5	-0,153650
19,091833	0,5	-0,157300
19,100167	0,5	-0,163950
19,108500	0,5	-0,180300
19,116833	0,5	-0,203800
19,125167	0,5	-0,225950
19,133500	0,5	-0,234400
19,141833	0,5	-0,252900
19,150167	0,5	-0,262300
19,158500	0,5	-0,278550
19,166833	0,5	-0,285600
19,175167	0,5	-0,300500
19,183500	0,5	-0,302600
19,191833	0,5	-0,317800
19,200167	0,5	-0,330600
19,208500	0,5	-0,338050
19,216833	0,5	-0,336150
19,225167	0,5	-0,371700
19,233500	0,5	-0,366750
19,241833	0,5	-0,375350
19,250167	0,5	-0,376050
19,258500	0,5	-0,396550
19,266833	0,5	-0,419500
19,275167	0,5	-0,429000
19,283500	0,5	-0,434700
19,291833	0,5	-0,439250
19,300167	0,5	-0,446050
19,308500	0,5	-0,446500
19,316833	0,5	-0,449500
19,325167	0,5	-0,452900
19,333500	0,5	-0,462400
19,341833	0,5	-0,465400
19,350167	0,5	-0,472750
19,358500	0,5	-0,471400
19,366833	0,5	-0,472050
19,375167	0,5	-0,485300
19,383500	0,5	-0,469950
19,391833	0,5	-0,463900
19,400167	0,5	-0,469700
19,408500	0,5	-0,472950
19,416833	0,5	-0,496750
19,425167	0,5	-0,494500
19,433500	0,5	-0,503650
19,441833	0,5	-0,513600
19,450167	0,5	-0,533600
19,458500	0,5	-0,543300
19,466833	0,5	-0,558850
19,475167	0,5	-0,574050
19,483500	0,5	-0,581700
19,491833	0,5	-0,599850
19,500167	0,5	-0,605500
19,508500	0,5	-0,610800
19,516833	0,5	-0,616750
19,525167	0,5	-0,638150
19,533500	0,5	-0,629350
19,541833	0,5	-0,641700
19,550167	0,5	-0,645900
19,558500	0,5	-0,665900
19,566833	0,5	-0,689400
19,575167	0,5	-0,689550
19,583500	0,5	-0,694850
19,591833	0,5	-0,701700
19,600167	0,5	-0,704600
19,608500	0,5	-0,709550
19,616833	0,5	-0,716500
19,625167	0,5	-0,727450
19,633500	0,5	-0,736100
19,641833	0,5	-0,740900
19,650167	0,5	-0,740450
19,658500	0,5	-0,734550
19,666833	0,5	-0,751050
19,675167	0,5	-0,753150
19,683500	0,5	-0,751400
19,691833	0,5	-0,760050
19,700167	0,5	-0,782900
19,708500	0,5	-0,800200
19,716833	0,5	-0,816650
19,725167	0,5	-0,811700
19,733500	0,5	-0,822250
19,741833	0,5	-0,819800
19,750167	0,5	-0,831150
19,758500	0,5	-0,835700
19,766833	0,5	-0,839600
19,775167	0,5	-0,846100
19,783500	0,5	-0,849900
19,791833	0,5	-0,859400
19,800167	0,5	-0,848550
19,808500	0,5	-0,854200
19,816833	0,5	-0,874850
19,825167	0,5	-0,868500
19,833500	0,5	-0,870800
19,841833	0,5	-0,879900
19,850167	0,5	-0,895100
19,858500	0,5	-0,915650
19,866833	0,5	-0,925500
19,875167	0,5	-0,929750
19,883500	0,5	-0,926000
19,891833	0,5	-0,932850
19,900167	0,5	-0,930500
19,908500	0,5	-0,938700
19,916833	0,5	-0,936500
19,925167	0,5	-0,942600
19,933500	0,5	-0,949700
19,941833	0,5	-0,947150
19,950167	0,5	-0,945350
19,958500	0,5	-0,956850
19,966833	0,5	-0,962300
19,975167	0,5	-0,959550
19,983500	0,5	-0,967850
19,991833	0,5	-0,978600
20,000167	0,5	-0,999200
20,008500	0,5	-1,009650
20,016833	0,5	-1,015550
20,025167	0,5	-1,007000
20,033500	0,5	-1,014450
20,041833	0,5	-1,009100
20,050167	0,5	-1,016100
20,058500	0,5	-1,013300
20,066833	0,5	-1,019950
20,075167	0,5	-1,023700
20,083500	0,5	-1,027700
20,091833	0,5	-1,026050
20,100167	0,5	-1,023150
20,108500	0,5	-1,043800
20,116833	0,5	-1,039000
20,125167	0,5	-1,033150
20,133500	0,5	-1,039950
20,141833	0,5	-1,048950
20,150167	0,5	-1,067150
20,158500	0,5	-1,067150
20,166833	0,5	-1,060950
20,175167	0,5	-1,068350
20,183500	0,5	-1,073950
20,191833	0,5	-1,089200
20,200167	0,5	-1,094600
20,208500	0,5	-1,109650
20,216833	0,5	-1,112750
20,225167	0,5	-1,122700
20,233500	0,5	-1,129200
20,241833	0,5	-1,120300
20,250167	0,5	-1,121250
20,258500	0,5	-1,144350
20,266833	0,5	-1,131400
20,275167	0,5	-1,136850
20,283500	0,5	-1,147000
20,291833	0,5	-1,158750
20,300167	0,5	-1,177500
20,308500	0,5	-1,171100
20,316833	0,5	-1,175350
20,325167	0,5	-1,170850
20,333500	0,5	-1,179450
20,341833	0,5	-1,174550
20,350167	0,5	-1,180650
20,358500	0,5	-1,172000
20,366833	0,5	-1,175800
20,375167	0,5	-1,175550
20,383500	0,5	-1,171500
20,391833	0,5	-1,159050
20,400167	0,5	-1,170200
20,408500	0,5	-1,171100
20,416833	0,5	-1,169100
20,425167	0,5	-1,172700
20,433500	0,5	-1,186900
20,441833	0,5	-1,207650
20,450167	0,5	-1,202550
20,458500	0,5	-1,206450
20,466833	0,5	-1,199300
20,475167	0,5	-1,200250
20,483500	0,5	-1,199200
20,491833	0,5	-1,201150
20,500167	0,5	-1,197300
20,508500	0,5	-1,196700
20,516833	0,5	-1,191200
20,525167	0,5	-1,194800
20,533500	0,5	-1,179400
20,541833	0,5	-1,170500
20,550167	0,5	-1,180400
20,558500	0,5	-1,181300
20,566833	0,5	-1,180150
20,575167	0,5	-1,178550
20,583500	0,5	-1,189350
20,591833	0,5	-1,206750
20,600167	0,5	-1,202550
20,608500	0,5	-1,188600
20,616833	0,5	-1,187950
20,625167	0,5	-1,180650
20,633500	0,5	-1,175250
20,641833	0,5	-1,162800
20,650167	0,5	-1,161850
20,658500	0,5	-1,157450
20,666833	0,5	-1,163350
20,675167	0,5	-1,159550
20,683500	0,5	-1,141250
20,691833	0,5	-1,140750
20,700167	0,5	-1,155500
20,708500	0,5	-1,150800
20,716833	0,5	-1,165050
20,725167	0,5	-1,172300
20,733500	0,5	-1,198350
20,741833	0,5	-1,217300
20,750167	0,5	-1,216850
20,758500	0,5	-1,216150
20,766833	0,5	-1,215400
20,775167	0,5	-1,222500
20,783500	0,5	-1,221300
20,791833	0,5	-1,224800
20,800167	0,5	-1,217900
20,808500	0,5	-1,223750
20,816833	0,5	-1,222800
20,825167	0,5	-1,203850
20,833500	0,5	-1,194450
20,841833	0,5	-1,201000
20,850167	0,5	-1,206100
20,858500	0,5	-1,209000
20,866833	0,5	-1,219850
20,875167	0,5	-1,234950
20,883500	0,5	-1,249900
20,891833	0,5	-1,254900
20,900167	0,5	-1,259250
20,908500	0,5	-1,253900
20,916833	0,5	-1,253300
20,925167	0,5	-1,249050
20,933500	0,5	-1,248200
20,941833	0,5	-1,242900
20,950167	0,5	-1,240350
20,958500	0,5	-1,234500
20,966833	0,5	-1,232900
20,975167	0,5	-1,201400
20,983500	0,5	-1,188750
20,991833	0,5	-1,192100
21,000167	0,5	-1,194150
21,008500	0,5	-1,191750
21,016833	0,5	-1,198450
21,025167	0,5	-1,214900
21,033500	0,5	-1,217600
21,041833	0,5	-1,213700
21,050167	0,5	-1,205650
21,058500	0,5	-1,205150
21,066833	0,5	-1,202050
21,075167	0,5	-1,198500
21,083500	0,5	-1,192700
21,091833	0,5	-1,192100
21,100167	0,5	-1,187600
21,108500	0,5	-1,188350
21,116833	0,5	-1,161600
21,125167	0,5	-1,140300
21,133500	0,5	-1,133500
21,141833	0,5	-1,137600
21,150167	0,5	-1,136450
21,158500	0,5	-1,146950
21,166833	0,5	-1,148800
21,175167	0,5	-1,170000
21,183500	0,5	-1,166300
21,191833	0,5	-1,157500
21,200167	0,5	-1,159550
21,208500	0,5	-1,153550
21,216833	0,5	-1,154150
21,225167	0,5	-1,146050
21,233500	0,5	-1,143250
21,241833	0,5	-1,133050
21,250167	0,5	-1,131450
21,258500	0,5	-1,122100
21,266833	0,5	-1,086200
21,275167	0,5	-1,066400
21,283500	0,5	-1,065700
21,291833	0,5	-1,065700
21,300167	0,5	-1,070900
21,308500	0,5	-1,073350
21,316833	0,5	-1,084750
21,325167	0,5	-1,097200
21,333500	0,5	-1,085250
21,341833	0,5	-1,076900
21,350167	0,5	-1,069250
21,358500	0,5	-1,061650
21,366833	0,5	-1,044800
21,375167	0,5	-1,037700
21,383500	0,5	-1,026350
21,391833	0,5	-1,017900
21,400167	0,5	-1,007650
21,408500	0,5	-0,989900
21,416833	0,5	-0,957250
21,425167	0,5	-0,939850
21,433500	0,5	-0,943150
21,441833	0,5	-0,940000
21,450167	0,5	-0,942200
21,458500	0,5	-0,951550
21,466833	0,5	-0,956100
21,475167	0,5	-0,947650
21,483500	0,5	-0,933800
21,491833	0,5	-0,921750
21,500167	0,5	-0,912550
21,508500	0,5	-0,898350
21,516833	0,5	-0,888750
21,525167	0,5	-0,869150
21,533500	0,5	-0,858400
21,541833	0,5	-0,839200
21,550167	0,5	-0,825200
21,558500	0,5	-0,783500
21,566833	0,5	-0,758850
21,575167	0,5	-0,743000
21,583500	0,5	-0,729250
21,591833	0,5	-0,714000
21,600167	0,5	-0,702250
21,608500	0,5	-0,686700
21,616833	0,5	-0,678300
21,625167	0,5	-0,643150
21,633500	0,5	-0,601550
21,641833	0,5	-0,569050
21,650167	0,5	-0,546500
21,658500	0,5	-0,535500
21,666833	0,5	-0,536450
21,675167	0,5	-0,546950
21,683500	0,5	-0,546400
21,691833	0,5	-0,550250
21,700167	0,5	-0,536900
21,708500	0,5	-0,506400
21,716833	0,5	-0,490150
21,725167	0,5	-0,491300
21,733500	0,5	-0,477900
21,741833	0,5	-0,473800
21,750167	0,5	-0,470100
21,758500	0,5	-0,477700
21,766833	0,5	-0,470650
21,775167	0,5	-0,445600
21,783500	0,5	-0,426200
21,791833	0,5	-0,402300
21,800167	0,5	-0,376200
21,808500	0,5	-0,359150
21,816833	0,5	-0,338450
21,825167	0,5	-0,310500
21,833500	0,5	-0,285450
21,841833	0,5	-0,258350
21,850167	0,5	-0,219350
21,858500	0,5	-0,188750
21,866833	0,5	-0,172100
21,875167	0,5	-0,146750
21,883500	0,5	-0,123900
21,891833	0,5	-0,104000
21,900167	0,5	-0,099150
21,908500	0,5	-0,091500
21,916833	0,5	-0,071300
21,925167	0,5	-0,050000
21,933500	0,5	-0,028350
21,941833	0,5	-0,007150
21,950167	0,5	0,014400
21,958500	0,5	0,041600
21,966833	0,5	0,070250
21,975167	0,5	0,089850
21,983500	0,5	0,112600
21,991833	0,5	0,137500
22,000167	0,5	0,185400
22,008500	0,5	0,197700
22,016833	0,5	0,223950
22,025167	0,5	0,255000
22,033500	0,5	0,287350
22,041833	0,5	0,314100
22,050167	0,5	0,327400
22,058500	0,5	0,360700
22,066833	0,5	0,394450
22,075167	0,5	0,431050
22,083500	0,5	0,469350
22,091833	0,5	0,498650
22,100167	0,5	0,535400
22,108500	0,5	0,573300
22,116833	0,5	0,612250
22,125167	0,5	0,648400
22,133500	0,5	0,691150
22,141833	0,5	0,740850
22,150167	0,5	0,786400
22,158500	0,5	0,821450
22,166833	0,5	0,876000
22,175167	0,5	0,933150
22,183500	0,5	0,964550
22,191833	0,5	1,014450
22,200167	0,5	1,044750
22,208500	0,5	1,108450
22,216833	0,5	1,165350
22,225167	0,5	1,214600
22,233500	0,5	1,261550
22,241833	0,5	1,309350
22,250167	0,5	1,361500
22,258500	0,5	1,410700
22,266833	0,5	1,462350
22,275167	0,5	1,512850
22,283500	0,5	1,569350
22,291833	0,5	1,611900
22,300167	0,5	1,669600
22,308500	0,5	1,727500
22,316833	0,5	1,798650
22,325167	0,5	1,846350
22,333500	0,5	1,892100
22,341833	0,5	1,927750
22,350167	0,5	1,972450
22,358500	0,5	2,033700
22,366833	0,5	2,090850
22,375167	0,5	2,141900
22,383500	0,5	2,203950
22,391833	0,5	2,263400
22,400167	0,5	2,323250
22,408500	0,5	2,387000
22,416833	0,5	2,444400
22,425167	0,5	2,507600
22,433500	0,5	2,554550
22,441833	0,5	2,631700
22,450167	0,5	2,683700
22,458500	0,5	2,773850
22,466833	0,5	2,842000
22,475167	0,5	2,917250
22,483500	0,5	2,970850
22,491833	0,5	3,035200
22,500167	0,5	3,108850
22,508500	0,5	3,190950
22,516833	0,5	3,257600
22,525167	0,5	3,332650
22,533500	0,5	3,405400
22,541833	0,5	3,478250
22,550167	0,5	3,554200
22,558500	0,5	3,630800
22,566833	0,5	3,707350
22,575167	0,5	3,767400
22,583500	0,5	3,811750
22,591833	0,5	3,881750
22,600167	0,5	3,953400
22,608500	0,5	4,019400
22,616833	0,5	4,069850
22,625167	0,5	4,111400
22,633500	0,5	4,142150
22,641833	0,5	4,166550
22,650167	0,5	4,205750
22,658500	0,5	4,229800
22,666833	0,5	4,256000
22,675167	0,5	4,273850
22,683500	0,5	4,285200
22,691833	0,5	4,287850
22,700167	0,5	4,281650
22,708500	0,5	4,273700
22,716833	0,5	4,247550
22,725167	0,5	4,207600
22,733500	0,5	4,139000
22,741833	0,5	4,114900
22,750167	0,5	4,074900
22,758500	0,5	4,019050
22,766833	0,5	3,933500
22,775167	0,5	3,836950
22,783500	0,5	3,715750
22,791833	0,5	3,600100
22,800167	0,5	3,481300
22,808500	0,5	3,363800
22,816833	0,5	3,231050
22,825167	0,5	3,101900
22,833500	0,5	2,962750
22,841833	0,5	2,821650
22,850167	0,5	2,672250
22,858500	0,5	2,520350
22,866833	0,5	2,363600
22,875167	0,5	2,169350
22,883500	0,5	2,007100
22,891833	0,5	1,851350
22,900167	0,5	1,685300
22,908500	0,5	1,503100
22,916833	0,5	1,323750
22,925167	0,5	1,155100
22,933500	0,5	0,980600
22,941833	0,5	0,813350
22,950167	0,5	0,643850
22,958500	0,5	0,484650
22,966833	0,5	0,328200
22,975167	0,5	0,178800
22,983500	0,5	0,025800
22,991833	0,5	-0,124300
23,000167	0,5	-0,266000
23,008500	0,5	-0,412750
23,016833	0,5	-0,534350
23,025167	0,5	-0,669050
23,033500	0,5	-0,808600
23,041833	0,5	-0,950600
23,050167	0,5	-1,093250
23,058500	0,5	-1,209700
23,066833	0,5	-1,312600
23,075167	0,5	-1,405100
23,083500	0,5	-1,497650
23,091833	0,5	-1,593650
23,100167	0,5	-1,668800
23,108500	0,5	-1,747700
23,116833	0,5	-1,807050
23,125167	0,5	-1,876200
23,133500	0,5	-1,928850
23,141833	0,5	-1,993950
23,150167	0,5	-2,045950
23,158500	0,5	-2,099600
23,166833	0,5	-2,127950
23,175167	0,5	-2,180200
23,183500	0,5	-2,224850
23,191833	0,5	-2,294750
23,200167	0,5	-2,347400
23,208500	0,5	-2,372000
23,216833	0,5	-2,398700
23,225167	0,5	-2,400850
23,233500	0,5	-2,424400
23,241833	0,5	-2,429200
23,250167	0,5	-2,436400
23,258500	0,5	-2,424300
23,266833	0,5	-2,422900
23,275167	0,5	-2,410800
23,283500	0,5	-2,408700
23,291833	0,5	-2,400300
23,300167	0,5	-2,395150
23,308500	0,5	-2,385200
23,316833	0,5	-2,398950
23,325167	0,5	-2,368750
23,333500	0,5	-2,346750
23,341833	0,5	-2,368150
23,350167	0,5	-2,374700
23,358500	0,5	-2,364500
23,366833	0,5	-2,346900
23,375167	0,5	-2,322800
23,383500	0,5	-2,301200
23,391833	0,5	-2,286550
23,400167	0,5	-2,257500
23,408500	0,5	-2,230000
23,416833	0,5	-2,196050
23,425167	0,5	-2,167500
23,433500	0,5	-2,137450
23,441833	0,5	-2,110150
23,450167	0,5	-2,078900
23,458500	0,5	-2,057800
23,466833	0,5	-2,083300
23,475167	0,5	-2,018150
23,483500	0,5	-1,975600
23,491833	0,5	-1,971100
23,500167	0,5	-1,964950
23,508500	0,5	-1,949850
23,516833	0,5	-1,933750
23,525167	0,5	-1,914300
23,533500	0,5	-1,900250
23,541833	0,5	-1,885350
23,550167	0,5	-1,865450
23,558500	0,5	-1,847000
23,566833	0,5	-1,825300
23,575167	0,5	-1,806050
23,583500	0,5	-1,790850
23,591833	0,5	-1,770150
23,600167	0,5	-1,755850
23,608500	0,5	-1,813450
23,616833	0,5	-1,799400
23,625167	0,5	-1,755200
23,633500	0,5	-1,701450
23,641833	0,5	-1,688300
23,650167	0,5	-1,683950
23,658500	0,5	-1,676150
23,666833	0,5	-1,668000
23,675167	0,5	-1,664950
23,683500	0,5	-1,651850
23,691833	0,5	-1,644600
23,700167	0,5	-1,638550
23,708500	0,5	-1,629400
23,716833	0,5	-1,622050
23,725167	0,5	-1,617400
23,733500	0,5	-1,611300
23,741833	0,5	-1,606950
23,750167	0,5	-1,612300
23,758500	0,5	-1,733750
23,766833	0,5	-1,712600
23,775167	0,5	-1,657600
23,783500	0,5	-1,619150
23,791833	0,5	-1,606750
23,800167	0,5	-1,612250
23,808500	0,5	-1,617450
23,816833	0,5	-1,619950
23,825167	0,5	-1,614750
23,833500	0,5	-1,605750
23,841833	0,5	-1,594250
23,850167	0,5	-1,584550
23,858500	0,5	-1,577050
23,866833	0,5	-1,563600
23,875167	0,5	-1,553350
23,883500	0,5	-1,543100
23,891833	0,5	-1,540550
23,900167	0,5	-1,588000
23,908500	0,5	-1,668150
23,916833	0,5	-1,633900
23,925167	0,5	-1,583150
23,933500	0,5	-1,539450
23,941833	0,5	-1,535500
23,950167	0,5	-1,529350
23,958500	0,5	-1,547950
23,966833	0,5	-1,545150
23,975167	0,5	-1,540250
23,983500	0,5	-1,528900
23,991833	0,5	-1,527250
24,000167	0,5	-1,514950
24,008500	0,5	-1,512200
24,016833	0,5	-1,495850
24,025167	0,5	-1,484950
24,033500	0,5	-1,473950
24,041833	0,5	-1,464000
24,050167	0,5	-1,572900
24,058500	0,5	-1,548200
24,066833	0,5	-1,536000
24,075167	0,5	-1,464600
24,083500	0,5	-1,433900
24,091833	0,5	-1,415550
24,100167	0,5	-1,410000
24,108500	0,5	-1,419750
24,116833	0,5	-1,402800
24,125167	0,5	-1,379050
24,133500	0,5	-1,366450
24,141833	0,5	-1,348900
24,150167	0,5	-1,335250
24,158500	0,5	-1,317600
24,166833	0,5	-1,305750
24,175167	0,5	-1,288400
24,183500	0,5	-1,283800
24,191833	0,5	-1,287550
24,200167	0,5	-1,379100
24,208500	0,5	-1,343750
24,216833	0,5	-1,320450
24,225167	0,5	-1,265850
24,233500	0,5	-1,245850
24,241833	0,5	-1,236950
24,250167	0,5	-1,227500
24,258500	0,5	-1,241000
24,266833	0,5	-1,209050
24,275167	0,5	-1,200150
24,283500	0,5	-1,180850
24,291833	0,5	-1,170400
24,300167	0,5	-1,144150
24,308500	0,5	-1,129600
24,316833	0,5	-1,109150
24,325167	0,5	-1,085700
24,333500	0,5	-1,068800
24,341833	0,5	-1,100550
24,350167	0,5	-1,132850
24,358500	0,5	-1,101950
24,366833	0,5	-1,066100
24,375167	0,5	-1,025950
24,383500	0,5	-1,005850
24,391833	0,5	-0,997700
24,400167	0,5	-0,996550
24,408500	0,5	-0,998650
24,416833	0,5	-0,980650
24,425167	0,5	-0,965450
24,433500	0,5	-0,955050
24,441833	0,5	-0,938650
24,450167	0,5	-0,925700
24,458500	0,5	-0,909950
24,466833	0,5	-0,900650
24,475167	0,5	-0,886350
24,483500	0,5	-0,881450
24,491833	0,5	-0,937550
24,500167	0,5	-0,919150
24,508500	0,5	-0,895450
24,516833	0,5	-0,861200
24,525167	0,5	-0,830950
24,533500	0,5	-0,818550
24,541833	0,5	-0,807350
24,550167	0,5	-0,807550
24,558500	0,5	-0,805350
24,566833	0,5	-0,785300
24,575167	0,5	-0,768500
24,583500	0,5	-0,752800
24,591833	0,5	-0,738200
24,600167	0,5	-0,724500
24,608500	0,5	-0,710400
24,616833	0,5	-0,695900
24,625167	0,5	-0,684850
24,633500	0,5	-0,677600
24,641833	0,5	-0,724400
24,650167	0,5	-0,699150
24,658500	0,5	-0,689700
24,666833	0,5	-0,657400
24,675167	0,5	-0,645000
24,683500	0,5	-0,636350
24,691833	0,5	-0,635850
24,700167	0,5	-0,633800
24,708500	0,5	-0,633300
24,716833	0,5	-0,620850
24,725167	0,5	-0,607350
24,733500	0,5	-0,593550
24,741833	0,5	-0,580100
24,750167	0,5	-0,569400
24,758500	0,5	-0,554950
24,766833	0,5	-0,543400
24,775167	0,5	-0,532000
24,783500	0,5	-0,536200
24,791833	0,5	-0,544000
24,800167	0,5	-0,531700
24,808500	0,5	-0,511900
24,816833	0,5	-0,491100
24,825167	0,5	-0,478050
24,833500	0,5	-0,471400
24,841833	0,5	-0,471650
24,850167	0,5	-0,470950
24,858500	0,5	-0,462250
24,866833	0,5	-0,456100
24,875167	0,5	-0,446100
24,883500	0,5	-0,439050
24,891833	0,5	-0,429250
24,900167	0,5	-0,423550
24,908500	0,5	-0,415200
24,916833	0,5	-0,405700
24,925167	0,5	-0,404350
24,933500	0,5	-0,414450
24,941833	0,5	-0,407000
24,950167	0,5	-0,401950
24,958500	0,5	-0,386200
24,966833	0,5	-0,373400
24,975167	0,5	-0,364450
24,983500	0,5	-0,355650
24,991833	0,5	-0,360300
25,000167	0,5	-0,350600
25,008500	0,5	-0,344900
25,016833	0,5	-0,330800
25,025167	0,5	-0,327450
25,033500	0,5	-0,319150
25,041833	0,5	-0,314700
25,050167	0,5	-0,304750
25,058500	0,5	-0,297850
25,066833	0,5	-0,291850
25,075167	0,5	-0,286800
25,083500	0,5	-0,296400
25,091833	0,5	-0,286650
25,100167	0,5	-0,282950
25,108500	0,5	-0,273100
25,116833	0,5	-0,267950
25,125167	0,5	-0,261150
25,133500	0,5	-0,261700
25,141833	0,5	-0,262900
25,150167	0,5	-0,259500
25,158500	0,5	-0,252050
25,166833	0,5	-0,248800
25,175167	0,5	-0,243450
25,183500	0,5	-0,238000
25,191833	0,5	-0,230650
25,200167	0,5	-0,228000
25,208500	0,5	-0,218850
25,216833	0,5	-0,216300
25,225167	0,5	-0,212900
25,233500	0,5	-0,209850
25,241833	0,5	-0,202550
25,250167	0,5	-0,200700
25,258500	0,5	-0,192650
25,266833	0,5	-0,188100
25,275167	0,5	-0,185150
25,283500	0,5	-0,183250
25,291833	0,5	-0,184550
25,300167	0,5	-0,183050
25,308500	0,5	-0,181100
25,316833	0,5	-0,179100
25,325167	0,5	-0,177650
25,333500	0,5	-0,176650
25,341833	0,5	-0,172500
25,350167	0,5	-0,171100
25,358500	0,5	-0,168650
25,366833	0,5	-0,162450
25,375167	0,5	-0,163900
25,383500	0,5	-0,158150
25,391833	0,5	-0,155950
25,400167	0,5	-0,154850
25,408500	0,5	-0,151600
25,416833	0,5	-0,147600
25,425167	0,5	-0,142950
25,433500	0,5	-0,141850
25,441833	0,5	-0,138900
25,450167	0,5	-0,135200
25,458500	0,5	-0,133550
25,466833	0,5	-0,133150
25,475167	0,5	-0,131050
25,483500	0,5	-0,130350
25,491833	0,5	-0,126900
25,500167	0,5	-0,124550
25,508500	0,5	-0,122550
25,516833	0,5	-0,119450
25,525167	0,5	-0,117350
25,533500	0,5	-0,117100
25,541833	0,5	-0,113050
25,550167	0,5	-0,119250
25,558500	0,5	-0,117600
25,566833	0,5	-0,117800
25,575167	0,5	-0,117550
25,583500	0,5	-0,112350
25,591833	0,5	-0,110500
25,600167	0,5	-0,105850
25,608500	0,5	-0,106300
25,616833	0,5	-0,105500
25,625167	0,5	-0,103200
25,633500	0,5	-0,100450
25,641833	0,5	-0,096800
25,650167	0,5	-0,094350
25,658500	0,5	-0,092250
25,666833	0,5	-0,089900
25,675167	0,5	-0,086400
25,683500	0,5	-0,087000
25,691833	0,5	-0,083650
25,700167	0,5	-0,089800
25,708500	0,5	-0,087100
25,716833	0,5	-0,087950
25,725167	0,5	-0,084100
25,733500	0,5	-0,080450
25,741833	0,5	-0,079500
25,750167	0,5	-0,082150
25,758500	0,5	-0,079450
25,766833	0,5	-0,080850
25,775167	0,5	-0,080600
25,783500	0,5	-0,080250
25,791833	0,5	-0,078250
25,800167	0,5	-0,077000
25,808500	0,5	-0,073750
25,816833	0,5	-0,065100
25,825167	0,5	-0,066150
25,833500	0,5	-0,055700
25,841833	0,5	-0,055800
25,850167	0,5	-0,061000
25,858500	0,5	-0,057100
25,866833	0,5	-0,055800
25,875167	0,5	-0,046550
25,883500	0,5	-0,039600
25,891833	0,5	-0,042900
25,900167	0,5	-0,038250
25,908500	0,5	-0,040400
25,916833	0,5	-0,039450
25,925167	0,5	-0,037900
25,933500	0,5	-0,036150
25,941833	0,5	-0,040250
25,950167	0,5	-0,038750
25,958500	0,5	-0,036950
25,966833	0,5	-0,033550
25,975167	0,5	-0,037100
25,983500	0,5	-0,024000
25,991833	0,5	-0,035250
26,000167	0,5	-0,035300
