File Path	chrom://chromeleon01/ikbm_chromeleon/2022/ICS-5000/ED1/Esteban/20220612_Cell_7_4_eg.seq/293.smp/ED_1.channel/ED_1.chm
Channel	ED_1

Injection Information:
Data Vault	ikbm_chromeleon
Injection	7_00.5h-EGS_1
Injection Number	113
Position	BB5
Comment	
Processing Method	Stop sequence after Cell Death
Instrument Method	ICS5000_PA200_FullNative_Ox_26min_ED1
Type	Unknown
Status	Finished
Injection Date	14.06.2022
Injection Time	21:29:24
Injection Volume (µl)	5,0
Dilution Factor	1,0000
Weight	1,0000

Chromatogram Data Information:
Time Min. (min)	0,000333
Time Max. (min)	26,000333
Data Points	3121
Detector	EDet1
Generating Data System	Chromeleon 7.2.9.11323
Exporting Data System	Chromeleon 7.2.9.0
Operator	Instrument Controller
Signal Quantity	
Signal Unit	nC
Signal Min.	-2,340650
Signal Max.	918,460414
Channel	ED_1
Driver Name	DC-5000
Channel Type	Evaluation
Min. Step (s)	0,5
Max. Step (s)	0,5
Average Step (s)	0,5

Signal Parameter Information:
Signal Info	

Chromatogram Data:
Time (min)	Step (s)	Value (nC)
0,000333	n.a.	-0,042350
0,008667	0,5	-0,030950
0,017000	0,5	-0,017300
0,025333	0,5	0,006700
0,033667	0,5	0,013400
0,042000	0,5	0,022250
0,050333	0,5	0,023250
0,058667	0,5	0,027600
0,067000	0,5	0,012200
0,075333	0,5	0,017850
0,083667	0,5	0,009550
0,092000	0,5	0,008950
0,100333	0,5	-0,007200
0,108667	0,5	0,035400
0,117000	0,5	0,008450
0,125333	0,5	-0,007400
0,133667	0,5	-0,010700
0,142000	0,5	0,002750
0,150333	0,5	0,031300
0,158667	0,5	0,042850
0,167000	0,5	0,031750
0,175333	0,5	0,031750
0,183667	0,5	0,031900
0,192000	0,5	0,029450
0,200333	0,5	0,022200
0,208667	0,5	0,014800
0,217000	0,5	0,013800
0,225333	0,5	0,012200
0,233667	0,5	0,018850
0,242000	0,5	0,014700
0,250333	0,5	0,005400
0,258667	0,5	0,036050
0,267000	0,5	0,005600
0,275333	0,5	-0,007700
0,283667	0,5	0,017000
0,292000	0,5	0,074600
0,300333	0,5	0,115300
0,308667	0,5	0,068050
0,317000	0,5	0,022850
0,325333	0,5	-0,013350
0,333667	0,5	-0,008700
0,342000	0,5	-0,007950
0,350333	0,5	-0,000500
0,358667	0,5	-0,000100
0,367000	0,5	-0,002900
0,375333	0,5	-0,003050
0,383667	0,5	0,001200
0,392000	0,5	0,015400
0,400333	0,5	-0,004050
0,408667	0,5	0,021300
0,417000	0,5	-0,017100
0,425333	0,5	-0,017550
0,433667	0,5	-0,013650
0,442000	0,5	0,001700
0,450333	0,5	0,027500
0,458667	0,5	0,015100
0,467000	0,5	0,003800
0,475333	0,5	0,018050
0,483667	0,5	0,011800
0,492000	0,5	0,012600
0,500333	0,5	0,002750
0,508667	0,5	0,008350
0,517000	0,5	-0,000600
0,525333	0,5	0,007550
0,533667	0,5	0,016850
0,542000	0,5	0,008150
0,550333	0,5	0,009550
0,558667	0,5	0,022250
0,567000	0,5	-0,008250
0,575333	0,5	-0,008950
0,583667	0,5	0,003300
0,592000	0,5	0,022700
0,600333	0,5	0,056250
0,608667	0,5	0,032500
0,617000	0,5	0,037650
0,625333	0,5	0,037350
0,633667	0,5	0,045900
0,642000	0,5	0,038150
0,650333	0,5	0,045950
0,658667	0,5	0,030600
0,667000	0,5	0,042000
0,675333	0,5	0,041950
0,683667	0,5	0,041400
0,692000	0,5	0,030850
0,700333	0,5	0,049150
0,708667	0,5	0,039550
0,717000	0,5	0,030500
0,725333	0,5	0,031150
0,733667	0,5	0,044300
0,742000	0,5	0,068300
0,750333	0,5	0,085150
0,758667	0,5	0,086350
0,767000	0,5	0,081350
0,775333	0,5	0,085150
0,783667	0,5	0,075050
0,792000	0,5	0,083700
0,800333	0,5	0,075350
0,808667	0,5	0,078950
0,817000	0,5	0,072350
0,825333	0,5	0,084450
0,833667	0,5	0,080200
0,842000	0,5	0,092450
0,850333	0,5	0,099850
0,858667	0,5	0,081900
0,867000	0,5	0,073100
0,875333	0,5	0,081100
0,883667	0,5	0,094900
0,892000	0,5	0,130400
0,900333	0,5	0,136600
0,908667	0,5	0,138250
0,917000	0,5	0,132400
0,925333	0,5	0,135600
0,933667	0,5	0,128600
0,942000	0,5	0,122550
0,950333	0,5	0,124700
0,958667	0,5	0,121400
0,967000	0,5	0,128750
0,975333	0,5	0,130650
0,983667	0,5	0,144750
0,992000	0,5	0,148900
1,000333	0,5	0,158200
1,008667	0,5	0,133400
1,017000	0,5	0,133100
1,025333	0,5	0,132050
1,033667	0,5	0,160350
1,042000	0,5	0,173750
1,050333	0,5	0,173600
1,058667	0,5	0,163300
1,067000	0,5	0,170350
1,075333	0,5	0,167200
1,083667	0,5	0,173700
1,092000	0,5	0,172600
1,100333	0,5	0,169500
1,108667	0,5	0,170850
1,117000	0,5	0,171200
1,125333	0,5	0,178250
1,133667	0,5	0,165900
1,142000	0,5	0,193750
1,150333	0,5	0,178350
1,158667	0,5	0,168300
1,167000	0,5	0,159100
1,175333	0,5	0,173150
1,183667	0,5	0,198700
1,192000	0,5	0,213050
1,200333	0,5	0,197350
1,208667	0,5	0,212050
1,217000	0,5	0,204550
1,225333	0,5	0,208300
1,233667	0,5	0,199750
1,242000	0,5	0,202500
1,250333	0,5	0,198450
1,258667	0,5	0,198350
1,267000	0,5	0,203300
1,275333	0,5	0,198850
1,283667	0,5	0,186800
1,292000	0,5	0,226300
1,300333	0,5	0,193950
1,308667	0,5	0,189650
1,317000	0,5	0,194600
1,325333	0,5	0,204600
1,333667	0,5	0,245000
1,342000	0,5	0,228850
1,350333	0,5	0,232300
1,358667	0,5	0,224500
1,367000	0,5	0,233600
1,375333	0,5	0,226000
1,383667	0,5	0,238100
1,392000	0,5	0,229650
1,400333	0,5	0,234500
1,408667	0,5	0,231950
1,417000	0,5	0,231200
1,425333	0,5	0,217200
1,433667	0,5	0,217650
1,442000	0,5	0,240500
1,450333	0,5	0,217400
1,458667	0,5	0,217650
1,467000	0,5	0,224150
1,475333	0,5	0,235100
1,483667	0,5	0,269250
1,492000	0,5	0,260600
1,500333	0,5	0,253350
1,508667	0,5	0,259900
1,517000	0,5	0,256650
1,525333	0,5	0,260350
1,533667	0,5	0,257700
1,542000	0,5	0,267600
1,550333	0,5	0,303150
1,558667	0,5	0,469000
1,567000	0,5	0,841350
1,575333	0,5	1,338850
1,583667	0,5	2,493450
1,592000	0,5	8,416550
1,600333	0,5	31,972650
1,608667	0,5	107,871602
1,617000	0,5	292,785004
1,625333	0,5	577,606909
1,633667	0,5	827,885212
1,642000	0,5	918,460414
1,650333	0,5	836,031712
1,658667	0,5	651,256410
1,667000	0,5	459,946157
1,675333	0,5	317,117705
1,683667	0,5	224,887303
1,692000	0,5	167,408452
1,700333	0,5	131,957852
1,708667	0,5	110,808852
1,717000	0,5	98,262251
1,725333	0,5	89,108301
1,733667	0,5	80,768001
1,742000	0,5	73,262901
1,750333	0,5	66,885101
1,758667	0,5	61,025301
1,767000	0,5	55,398201
1,775333	0,5	50,803451
1,783667	0,5	48,546101
1,792000	0,5	49,320001
1,800333	0,5	52,684401
1,808667	0,5	56,920201
1,817000	0,5	60,343501
1,825333	0,5	62,046401
1,833667	0,5	61,652301
1,842000	0,5	59,240301
1,850333	0,5	55,584401
1,858667	0,5	51,700801
1,867000	0,5	48,180651
1,875333	0,5	45,318101
1,883667	0,5	43,056851
1,892000	0,5	41,112351
1,900333	0,5	39,311051
1,908667	0,5	37,641601
1,917000	0,5	36,224151
1,925333	0,5	35,181101
1,933667	0,5	34,330851
1,942000	0,5	33,449550
1,950333	0,5	32,411250
1,958667	0,5	31,442150
1,967000	0,5	30,707750
1,975333	0,5	30,425800
1,983667	0,5	30,749550
1,992000	0,5	31,556300
2,000333	0,5	32,198650
2,008667	0,5	31,980600
2,017000	0,5	30,929800
2,025333	0,5	29,637850
2,033667	0,5	28,538350
2,042000	0,5	27,776600
2,050333	0,5	27,354750
2,058667	0,5	27,198250
2,067000	0,5	27,312550
2,075333	0,5	27,828300
2,083667	0,5	28,861050
2,092000	0,5	30,156600
2,100333	0,5	31,378300
2,108667	0,5	32,690200
2,117000	0,5	34,972601
2,125333	0,5	38,578151
2,133667	0,5	42,506151
2,142000	0,5	45,035201
2,150333	0,5	45,432551
2,158667	0,5	43,947701
2,167000	0,5	40,896801
2,175333	0,5	36,868401
2,183667	0,5	32,794150
2,192000	0,5	29,550550
2,200333	0,5	27,408500
2,208667	0,5	26,279400
2,217000	0,5	26,201050
2,225333	0,5	27,429750
2,233667	0,5	29,798250
2,242000	0,5	31,997350
2,250333	0,5	32,240700
2,258667	0,5	30,420550
2,267000	0,5	27,868350
2,275333	0,5	25,725000
2,283667	0,5	24,203450
2,292000	0,5	23,171450
2,300333	0,5	22,460550
2,308667	0,5	22,010950
2,317000	0,5	21,713450
2,325333	0,5	21,531600
2,333667	0,5	21,308300
2,342000	0,5	21,248800
2,350333	0,5	21,463600
2,358667	0,5	21,971150
2,367000	0,5	22,592100
2,375333	0,5	23,057250
2,383667	0,5	23,440750
2,392000	0,5	23,967000
2,400333	0,5	24,776050
2,408667	0,5	25,549150
2,417000	0,5	25,731150
2,425333	0,5	25,117450
2,433667	0,5	24,133750
2,442000	0,5	23,246000
2,450333	0,5	22,629750
2,458667	0,5	22,187100
2,467000	0,5	21,865300
2,475333	0,5	21,623750
2,483667	0,5	21,392600
2,492000	0,5	21,222950
2,500333	0,5	21,053900
2,508667	0,5	20,861450
2,517000	0,5	20,669100
2,525333	0,5	20,447200
2,533667	0,5	20,277100
2,542000	0,5	20,149150
2,550333	0,5	20,009500
2,558667	0,5	19,842550
2,567000	0,5	19,782500
2,575333	0,5	20,377900
2,583667	0,5	21,896600
2,592000	0,5	22,412200
2,600333	0,5	21,104050
2,608667	0,5	19,744550
2,617000	0,5	18,949000
2,625333	0,5	18,549900
2,633667	0,5	18,286000
2,642000	0,5	18,132350
2,650333	0,5	18,017950
2,658667	0,5	17,953850
2,667000	0,5	17,898800
2,675333	0,5	17,825550
2,683667	0,5	17,751500
2,692000	0,5	17,696300
2,700333	0,5	17,618450
2,708667	0,5	17,542550
2,717000	0,5	17,438650
2,725333	0,5	17,325150
2,733667	0,5	17,205350
2,742000	0,5	17,083900
2,750333	0,5	16,976100
2,758667	0,5	16,886300
2,767000	0,5	16,866600
2,775333	0,5	16,913650
2,783667	0,5	17,086150
2,792000	0,5	17,471150
2,800333	0,5	18,106600
2,808667	0,5	18,948550
2,817000	0,5	19,854850
2,825333	0,5	20,641000
2,833667	0,5	21,249450
2,842000	0,5	21,616950
2,850333	0,5	21,735500
2,858667	0,5	21,563350
2,867000	0,5	21,152550
2,875333	0,5	20,583700
2,883667	0,5	20,028250
2,892000	0,5	19,682700
2,900333	0,5	19,742600
2,908667	0,5	20,422150
2,917000	0,5	21,823300
2,925333	0,5	23,742950
2,933667	0,5	25,828100
2,942000	0,5	27,581700
2,950333	0,5	28,650800
2,958667	0,5	29,131200
2,967000	0,5	29,504200
2,975333	0,5	30,426450
2,983667	0,5	32,154950
2,992000	0,5	34,394501
3,000333	0,5	36,380901
3,008667	0,5	37,443501
3,017000	0,5	37,188951
3,025333	0,5	35,667901
3,033667	0,5	33,184800
3,042000	0,5	30,222850
3,050333	0,5	27,224200
3,058667	0,5	24,581950
3,067000	0,5	22,470700
3,075333	0,5	20,985250
3,083667	0,5	20,198550
3,092000	0,5	20,187850
3,100333	0,5	21,017200
3,108667	0,5	22,648450
3,117000	0,5	24,804900
3,125333	0,5	27,020750
3,133667	0,5	28,725050
3,142000	0,5	29,442600
3,150333	0,5	29,017550
3,158667	0,5	27,563700
3,167000	0,5	25,426550
3,175333	0,5	22,995150
3,183667	0,5	20,645750
3,192000	0,5	18,598000
3,200333	0,5	16,953000
3,208667	0,5	15,734200
3,217000	0,5	14,827950
3,225333	0,5	14,161000
3,233667	0,5	13,685800
3,242000	0,5	13,336700
3,250333	0,5	13,096000
3,258667	0,5	12,893250
3,267000	0,5	12,709200
3,275333	0,5	12,566350
3,283667	0,5	12,453050
3,292000	0,5	12,353950
3,300333	0,5	12,280100
3,308667	0,5	12,232550
3,317000	0,5	12,229100
3,325333	0,5	12,304600
3,333667	0,5	12,469250
3,342000	0,5	12,740550
3,350333	0,5	13,052950
3,358667	0,5	13,429750
3,367000	0,5	13,662450
3,375333	0,5	13,776000
3,383667	0,5	13,698550
3,392000	0,5	13,470750
3,400333	0,5	13,134050
3,408667	0,5	12,722650
3,417000	0,5	12,318800
3,425333	0,5	11,989350
3,433667	0,5	11,724750
3,442000	0,5	11,528400
3,450333	0,5	11,374400
3,458667	0,5	11,252800
3,467000	0,5	11,152800
3,475333	0,5	11,069150
3,483667	0,5	11,009900
3,492000	0,5	10,946200
3,500333	0,5	10,895950
3,508667	0,5	10,883400
3,517000	0,5	10,837950
3,525333	0,5	10,824650
3,533667	0,5	10,835500
3,542000	0,5	10,884800
3,550333	0,5	11,005350
3,558667	0,5	11,135500
3,567000	0,5	11,348850
3,575333	0,5	11,588100
3,583667	0,5	11,829500
3,592000	0,5	11,977600
3,600333	0,5	12,007100
3,608667	0,5	11,883700
3,617000	0,5	11,647950
3,625333	0,5	11,344500
3,633667	0,5	11,027150
3,642000	0,5	10,738100
3,650333	0,5	10,519000
3,658667	0,5	10,366500
3,667000	0,5	10,241200
3,675333	0,5	10,171300
3,683667	0,5	10,131550
3,692000	0,5	10,126900
3,700333	0,5	10,133300
3,708667	0,5	10,127900
3,717000	0,5	10,111850
3,725333	0,5	10,112950
3,733667	0,5	10,093350
3,742000	0,5	10,074300
3,750333	0,5	10,031550
3,758667	0,5	9,997200
3,767000	0,5	9,959300
3,775333	0,5	9,945550
3,783667	0,5	9,932800
3,792000	0,5	9,938900
3,800333	0,5	9,957250
3,808667	0,5	9,959050
3,817000	0,5	9,928950
3,825333	0,5	9,892850
3,833667	0,5	9,844800
3,842000	0,5	9,797900
3,850333	0,5	9,735400
3,858667	0,5	9,655700
3,867000	0,5	9,595650
3,875333	0,5	9,543700
3,883667	0,5	9,500300
3,892000	0,5	9,466850
3,900333	0,5	9,445900
3,908667	0,5	9,413150
3,917000	0,5	9,385600
3,925333	0,5	9,351850
3,933667	0,5	9,312250
3,942000	0,5	9,269100
3,950333	0,5	9,249150
3,958667	0,5	9,182550
3,967000	0,5	9,137100
3,975333	0,5	9,102150
3,983667	0,5	9,093500
3,992000	0,5	9,096050
4,000333	0,5	9,089700
4,008667	0,5	9,085150
4,017000	0,5	9,088850
4,025333	0,5	9,087750
4,033667	0,5	9,077600
4,042000	0,5	9,059600
4,050333	0,5	9,029900
4,058667	0,5	9,000350
4,067000	0,5	8,957500
4,075333	0,5	8,919700
4,083667	0,5	8,860150
4,092000	0,5	8,832400
4,100333	0,5	8,798300
4,108667	0,5	8,755400
4,117000	0,5	8,727000
4,125333	0,5	8,712750
4,133667	0,5	8,709650
4,142000	0,5	8,711750
4,150333	0,5	8,684450
4,158667	0,5	8,674900
4,167000	0,5	8,650750
4,175333	0,5	8,643950
4,183667	0,5	8,630450
4,192000	0,5	8,619450
4,200333	0,5	8,604450
4,208667	0,5	8,592550
4,217000	0,5	8,592800
4,225333	0,5	8,584650
4,233667	0,5	8,576850
4,242000	0,5	8,590300
4,250333	0,5	8,578300
4,258667	0,5	8,556300
4,267000	0,5	8,547600
4,275333	0,5	8,535350
4,283667	0,5	8,545800
4,292000	0,5	8,527650
4,300333	0,5	8,504100
4,308667	0,5	8,482600
4,317000	0,5	8,467950
4,325333	0,5	8,438850
4,333667	0,5	8,422650
4,342000	0,5	8,394200
4,350333	0,5	8,372300
4,358667	0,5	8,350200
4,367000	0,5	8,329450
4,375333	0,5	8,322800
4,383667	0,5	8,286100
4,392000	0,5	8,296000
4,400333	0,5	8,260100
4,408667	0,5	8,241850
4,417000	0,5	8,229750
4,425333	0,5	8,240550
4,433667	0,5	8,262250
4,442000	0,5	8,266100
4,450333	0,5	8,252900
4,458667	0,5	8,264800
4,467000	0,5	8,259600
4,475333	0,5	8,266300
4,483667	0,5	8,252600
4,492000	0,5	8,243950
4,500333	0,5	8,221700
4,508667	0,5	8,204700
4,517000	0,5	8,181650
4,525333	0,5	8,151750
4,533667	0,5	8,110950
4,542000	0,5	8,108750
4,550333	0,5	8,056650
4,558667	0,5	8,035700
4,567000	0,5	8,016100
4,575333	0,5	8,011300
4,583667	0,5	8,024500
4,592000	0,5	7,996700
4,600333	0,5	7,988900
4,608667	0,5	7,974050
4,617000	0,5	7,966950
4,625333	0,5	7,952150
4,633667	0,5	7,947100
4,642000	0,5	7,929000
4,650333	0,5	7,919050
4,658667	0,5	7,906050
4,667000	0,5	7,895750
4,675333	0,5	7,874000
4,683667	0,5	7,870050
4,692000	0,5	7,864750
4,700333	0,5	7,838750
4,708667	0,5	7,827350
4,717000	0,5	7,821750
4,725333	0,5	7,830150
4,733667	0,5	7,843750
4,742000	0,5	7,835650
4,750333	0,5	7,825250
4,758667	0,5	7,818000
4,767000	0,5	7,805050
4,775333	0,5	7,794850
4,783667	0,5	7,784950
4,792000	0,5	7,781250
4,800333	0,5	7,768400
4,808667	0,5	7,771000
4,817000	0,5	7,759300
4,825333	0,5	7,766700
4,833667	0,5	7,772500
4,842000	0,5	7,764600
4,850333	0,5	7,749950
4,858667	0,5	7,760500
4,867000	0,5	7,769600
4,875333	0,5	7,806150
4,883667	0,5	7,831600
4,892000	0,5	7,844450
4,900333	0,5	7,863550
4,908667	0,5	7,904500
4,917000	0,5	7,944050
4,925333	0,5	8,001350
4,933667	0,5	8,070500
4,942000	0,5	8,149450
4,950333	0,5	8,249200
4,958667	0,5	8,356350
4,967000	0,5	8,480500
4,975333	0,5	8,605900
4,983667	0,5	8,749050
4,992000	0,5	8,852200
5,000333	0,5	8,956100
5,008667	0,5	9,056350
5,017000	0,5	9,153450
5,025333	0,5	9,243600
5,033667	0,5	9,302800
5,042000	0,5	9,339100
5,050333	0,5	9,382250
5,058667	0,5	9,404600
5,067000	0,5	9,428850
5,075333	0,5	9,434500
5,083667	0,5	9,427500
5,092000	0,5	9,401850
5,100333	0,5	9,353800
5,108667	0,5	9,290850
5,117000	0,5	9,184050
5,125333	0,5	9,074800
5,133667	0,5	8,940050
5,142000	0,5	8,774950
5,150333	0,5	8,613700
5,158667	0,5	8,470800
5,167000	0,5	8,337750
5,175333	0,5	8,225300
5,183667	0,5	8,094100
5,192000	0,5	8,001450
5,200333	0,5	7,910300
5,208667	0,5	7,848750
5,217000	0,5	7,785700
5,225333	0,5	7,747450
5,233667	0,5	7,705850
5,242000	0,5	7,680150
5,250333	0,5	7,657900
5,258667	0,5	7,638250
5,267000	0,5	7,623850
5,275333	0,5	7,646100
5,283667	0,5	7,647300
5,292000	0,5	7,658500
5,300333	0,5	7,683750
5,308667	0,5	7,721550
5,317000	0,5	7,782350
5,325333	0,5	7,822150
5,333667	0,5	7,854000
5,342000	0,5	7,875700
5,350333	0,5	7,903700
5,358667	0,5	7,900000
5,367000	0,5	7,891900
5,375333	0,5	7,855150
5,383667	0,5	7,820000
5,392000	0,5	7,769400
5,400333	0,5	7,727850
5,408667	0,5	7,680250
5,417000	0,5	7,623400
5,425333	0,5	7,599450
5,433667	0,5	7,547250
5,442000	0,5	7,507700
5,450333	0,5	7,481100
5,458667	0,5	7,472350
5,467000	0,5	7,475750
5,475333	0,5	7,462550
5,483667	0,5	7,438550
5,492000	0,5	7,426800
5,500333	0,5	7,415100
5,508667	0,5	7,405300
5,517000	0,5	7,390250
5,525333	0,5	7,380500
5,533667	0,5	7,362650
5,542000	0,5	7,356100
5,550333	0,5	7,345450
5,558667	0,5	7,329900
5,567000	0,5	7,304200
5,575333	0,5	7,305000
5,583667	0,5	7,267150
5,592000	0,5	7,251400
5,600333	0,5	7,232600
5,608667	0,5	7,231200
5,617000	0,5	7,237100
5,625333	0,5	7,215900
5,633667	0,5	7,200000
5,642000	0,5	7,188600
5,650333	0,5	7,178900
5,658667	0,5	7,166050
5,667000	0,5	7,156050
5,675333	0,5	7,143550
5,683667	0,5	7,136050
5,692000	0,5	7,123600
5,700333	0,5	7,112050
5,708667	0,5	7,093300
5,717000	0,5	7,095500
5,725333	0,5	7,096050
5,733667	0,5	7,077800
5,742000	0,5	7,075850
5,750333	0,5	7,077450
5,758667	0,5	7,089250
5,767000	0,5	7,110400
5,775333	0,5	7,098050
5,783667	0,5	7,099650
5,792000	0,5	7,092400
5,800333	0,5	7,092000
5,808667	0,5	7,081450
5,817000	0,5	7,076400
5,825333	0,5	7,068100
5,833667	0,5	7,063600
5,842000	0,5	7,062650
5,850333	0,5	7,044050
5,858667	0,5	7,033400
5,867000	0,5	7,031650
5,875333	0,5	7,015700
5,883667	0,5	6,992700
5,892000	0,5	6,988350
5,900333	0,5	6,977150
5,908667	0,5	6,990750
5,917000	0,5	6,988000
5,925333	0,5	6,981650
5,933667	0,5	6,966450
5,942000	0,5	6,965150
5,950333	0,5	6,949800
5,958667	0,5	6,951000
5,967000	0,5	6,936550
5,975333	0,5	6,931500
5,983667	0,5	6,918400
5,992000	0,5	6,908650
6,000333	0,5	6,894750
6,008667	0,5	6,887150
6,017000	0,5	6,886850
6,025333	0,5	6,866250
6,033667	0,5	6,847400
6,042000	0,5	6,843050
6,050333	0,5	6,843600
6,058667	0,5	6,852750
6,067000	0,5	6,853600
6,075333	0,5	6,844850
6,083667	0,5	6,846000
6,092000	0,5	6,836100
6,100333	0,5	6,835600
6,108667	0,5	6,824350
6,117000	0,5	6,819900
6,125333	0,5	6,810650
6,133667	0,5	6,811250
6,142000	0,5	6,809850
6,150333	0,5	6,805400
6,158667	0,5	6,804500
6,167000	0,5	6,809350
6,175333	0,5	6,789250
6,183667	0,5	6,779500
6,192000	0,5	6,780550
6,200333	0,5	6,793450
6,208667	0,5	6,807850
6,217000	0,5	6,793650
6,225333	0,5	6,795850
6,233667	0,5	6,791150
6,242000	0,5	6,796150
6,250333	0,5	6,793550
6,258667	0,5	6,794800
6,267000	0,5	6,788200
6,275333	0,5	6,786900
6,283667	0,5	6,779650
6,292000	0,5	6,773950
6,300333	0,5	6,753550
6,308667	0,5	6,761950
6,317000	0,5	6,747550
6,325333	0,5	6,731850
6,333667	0,5	6,718950
6,342000	0,5	6,719000
6,350333	0,5	6,725700
6,358667	0,5	6,729700
6,367000	0,5	6,716700
6,375333	0,5	6,717900
6,383667	0,5	6,716850
6,392000	0,5	6,712250
6,400333	0,5	6,710350
6,408667	0,5	6,702450
6,417000	0,5	6,700900
6,425333	0,5	6,693450
6,433667	0,5	6,700150
6,442000	0,5	6,694150
6,450333	0,5	6,692550
6,458667	0,5	6,712000
6,467000	0,5	6,708750
6,475333	0,5	6,709700
6,483667	0,5	6,715900
6,492000	0,5	6,726800
6,500333	0,5	6,755050
6,508667	0,5	6,754250
6,517000	0,5	6,753850
6,525333	0,5	6,744600
6,533667	0,5	6,746250
6,542000	0,5	6,733350
6,550333	0,5	6,731900
6,558667	0,5	6,722750
6,567000	0,5	6,712700
6,575333	0,5	6,708350
6,583667	0,5	6,698800
6,592000	0,5	6,692650
6,600333	0,5	6,680200
6,608667	0,5	6,683050
6,617000	0,5	6,662600
6,625333	0,5	6,653000
6,633667	0,5	6,643200
6,642000	0,5	6,655150
6,650333	0,5	6,664750
6,658667	0,5	6,663050
6,667000	0,5	6,651650
6,675333	0,5	6,648900
6,683667	0,5	6,644200
6,692000	0,5	6,641350
6,700333	0,5	6,636000
6,708667	0,5	6,633500
6,717000	0,5	6,626150
6,725333	0,5	6,630100
6,733667	0,5	6,632000
6,742000	0,5	6,629450
6,750333	0,5	6,638300
6,758667	0,5	6,655750
6,767000	0,5	6,653650
6,775333	0,5	6,665150
6,783667	0,5	6,682800
6,792000	0,5	6,714100
6,800333	0,5	6,751600
6,808667	0,5	6,771550
6,817000	0,5	6,804150
6,825333	0,5	6,842650
6,833667	0,5	6,899900
6,842000	0,5	6,966800
6,850333	0,5	7,070200
6,858667	0,5	7,205150
6,867000	0,5	7,400900
6,875333	0,5	7,658450
6,883667	0,5	7,979250
6,892000	0,5	8,368850
6,900333	0,5	8,835300
6,908667	0,5	9,308100
6,917000	0,5	9,762350
6,925333	0,5	10,163250
6,933667	0,5	10,469300
6,942000	0,5	10,659000
6,950333	0,5	10,697550
6,958667	0,5	10,596800
6,967000	0,5	10,373900
6,975333	0,5	10,056700
6,983667	0,5	9,657200
6,992000	0,5	9,212250
7,000333	0,5	8,743750
7,008667	0,5	8,294150
7,017000	0,5	7,883750
7,025333	0,5	7,538850
7,033667	0,5	7,248700
7,042000	0,5	7,033750
7,050333	0,5	6,883500
7,058667	0,5	6,763900
7,067000	0,5	6,665650
7,075333	0,5	6,602750
7,083667	0,5	6,553000
7,092000	0,5	6,531700
7,100333	0,5	6,494300
7,108667	0,5	6,458850
7,117000	0,5	6,420400
7,125333	0,5	6,388800
7,133667	0,5	6,353300
7,142000	0,5	6,315150
7,150333	0,5	6,290700
7,158667	0,5	6,262700
7,167000	0,5	6,244200
7,175333	0,5	6,224050
7,183667	0,5	6,201700
7,192000	0,5	6,181600
7,200333	0,5	6,171350
7,208667	0,5	6,145600
7,217000	0,5	6,125750
7,225333	0,5	6,110050
7,233667	0,5	6,106000
7,242000	0,5	6,103550
7,250333	0,5	6,084300
7,258667	0,5	6,071700
7,267000	0,5	6,060850
7,275333	0,5	6,047300
7,283667	0,5	6,033150
7,292000	0,5	6,020750
7,300333	0,5	6,004950
7,308667	0,5	5,985850
7,317000	0,5	5,967350
7,325333	0,5	5,950050
7,333667	0,5	5,926500
7,342000	0,5	5,915550
7,350333	0,5	5,906800
7,358667	0,5	5,896900
7,367000	0,5	5,886750
7,375333	0,5	5,882500
7,383667	0,5	5,882450
7,392000	0,5	5,879200
7,400333	0,5	5,854300
7,408667	0,5	5,846850
7,417000	0,5	5,831950
7,425333	0,5	5,822950
7,433667	0,5	5,806100
7,442000	0,5	5,794650
7,450333	0,5	5,779250
7,458667	0,5	5,768850
7,467000	0,5	5,758800
7,475333	0,5	5,743000
7,483667	0,5	5,724750
7,492000	0,5	5,713500
7,500333	0,5	5,694250
7,508667	0,5	5,672200
7,517000	0,5	5,655650
7,525333	0,5	5,650050
7,533667	0,5	5,658100
7,542000	0,5	5,656150
7,550333	0,5	5,657650
7,558667	0,5	5,647650
7,567000	0,5	5,645400
7,575333	0,5	5,632950
7,583667	0,5	5,628300
7,592000	0,5	5,615000
7,600333	0,5	5,613250
7,608667	0,5	5,633000
7,617000	0,5	5,691100
7,625333	0,5	5,788350
7,633667	0,5	5,906600
7,642000	0,5	5,989650
7,650333	0,5	5,986300
7,658667	0,5	5,905650
7,667000	0,5	5,803650
7,675333	0,5	5,719900
7,683667	0,5	5,662900
7,692000	0,5	5,626750
7,700333	0,5	5,586050
7,708667	0,5	5,550050
7,717000	0,5	5,516750
7,725333	0,5	5,485500
7,733667	0,5	5,463050
7,742000	0,5	5,445500
7,750333	0,5	5,427600
7,758667	0,5	5,420200
7,767000	0,5	5,413650
7,775333	0,5	5,411400
7,783667	0,5	5,409300
7,792000	0,5	5,412500
7,800333	0,5	5,403850
7,808667	0,5	5,398450
7,817000	0,5	5,397100
7,825333	0,5	5,415250
7,833667	0,5	5,434650
7,842000	0,5	5,459550
7,850333	0,5	5,497700
7,858667	0,5	5,548100
7,867000	0,5	5,618200
7,875333	0,5	5,714250
7,883667	0,5	5,861550
7,892000	0,5	6,073050
7,900333	0,5	6,375150
7,908667	0,5	6,805250
7,917000	0,5	7,389600
7,925333	0,5	8,146800
7,933667	0,5	9,099350
7,942000	0,5	10,186050
7,950333	0,5	11,311850
7,958667	0,5	12,336950
7,967000	0,5	13,105600
7,975333	0,5	13,494850
7,983667	0,5	13,434600
7,992000	0,5	12,924150
8,000333	0,5	12,041300
8,008667	0,5	10,887700
8,017000	0,5	9,636150
8,025333	0,5	8,470400
8,033667	0,5	7,512850
8,042000	0,5	6,813250
8,050333	0,5	6,339300
8,058667	0,5	6,050850
8,067000	0,5	5,873350
8,075333	0,5	5,775850
8,083667	0,5	5,748250
8,092000	0,5	5,760150
8,100333	0,5	5,823150
8,108667	0,5	5,932000
8,117000	0,5	6,056250
8,125333	0,5	6,151350
8,133667	0,5	6,176400
8,142000	0,5	6,124050
8,150333	0,5	6,007450
8,158667	0,5	5,855750
8,167000	0,5	5,693450
8,175333	0,5	5,549800
8,183667	0,5	5,423850
8,192000	0,5	5,326350
8,200333	0,5	5,252900
8,208667	0,5	5,198800
8,217000	0,5	5,169850
8,225333	0,5	5,179600
8,233667	0,5	5,236400
8,242000	0,5	5,306650
8,250333	0,5	5,352050
8,258667	0,5	5,325400
8,267000	0,5	5,244700
8,275333	0,5	5,145950
8,283667	0,5	5,056700
8,292000	0,5	4,991400
8,300333	0,5	4,953200
8,308667	0,5	4,926150
8,317000	0,5	4,911200
8,325333	0,5	4,908150
8,333667	0,5	4,906300
8,342000	0,5	4,914300
8,350333	0,5	4,930600
8,358667	0,5	4,944400
8,367000	0,5	4,940750
8,375333	0,5	4,924650
8,383667	0,5	4,902600
8,392000	0,5	4,878400
8,400333	0,5	4,867900
8,408667	0,5	4,876450
8,417000	0,5	4,900800
8,425333	0,5	4,923750
8,433667	0,5	4,928350
8,442000	0,5	4,922350
8,450333	0,5	4,915100
8,458667	0,5	4,936250
8,467000	0,5	4,991850
8,475333	0,5	5,074650
8,483667	0,5	5,133800
8,492000	0,5	5,130200
8,500333	0,5	5,068900
8,508667	0,5	4,979400
8,517000	0,5	4,892150
8,525333	0,5	4,830100
8,533667	0,5	4,780750
8,542000	0,5	4,740700
8,550333	0,5	4,716950
8,558667	0,5	4,709700
8,567000	0,5	4,710600
8,575333	0,5	4,723400
8,583667	0,5	4,730800
8,592000	0,5	4,727300
8,600333	0,5	4,721700
8,608667	0,5	4,707550
8,617000	0,5	4,699750
8,625333	0,5	4,691100
8,633667	0,5	4,689750
8,642000	0,5	4,682350
8,650333	0,5	4,678100
8,658667	0,5	4,670400
8,667000	0,5	4,673100
8,675333	0,5	4,703600
8,683667	0,5	4,774750
8,692000	0,5	4,874050
8,700333	0,5	4,966300
8,708667	0,5	5,007150
8,717000	0,5	4,989450
8,725333	0,5	4,928650
8,733667	0,5	4,867050
8,742000	0,5	4,820600
8,750333	0,5	4,787900
8,758667	0,5	4,768650
8,767000	0,5	4,757800
8,775333	0,5	4,758750
8,783667	0,5	4,766100
8,792000	0,5	4,780300
8,800333	0,5	4,812050
8,808667	0,5	4,878900
8,817000	0,5	5,000900
8,825333	0,5	5,150700
8,833667	0,5	5,261850
8,842000	0,5	5,280600
8,850333	0,5	5,198900
8,858667	0,5	5,072200
8,867000	0,5	4,973450
8,875333	0,5	4,931650
8,883667	0,5	4,928850
8,892000	0,5	4,919550
8,900333	0,5	4,865950
8,908667	0,5	4,791600
8,917000	0,5	4,730700
8,925333	0,5	4,701300
8,933667	0,5	4,691600
8,942000	0,5	4,689600
8,950333	0,5	4,675150
8,958667	0,5	4,650600
8,967000	0,5	4,637000
8,975333	0,5	4,625500
8,983667	0,5	4,627850
8,992000	0,5	4,640350
9,000333	0,5	4,667200
9,008667	0,5	4,721050
9,017000	0,5	4,808450
9,025333	0,5	4,932050
9,033667	0,5	5,084900
9,042000	0,5	5,220050
9,050333	0,5	5,302050
9,058667	0,5	5,323350
9,067000	0,5	5,311100
9,075333	0,5	5,293600
9,083667	0,5	5,285700
9,092000	0,5	5,273000
9,100333	0,5	5,244450
9,108667	0,5	5,210850
9,117000	0,5	5,206550
9,125333	0,5	5,228100
9,133667	0,5	5,274450
9,142000	0,5	5,339950
9,150333	0,5	5,443050
9,158667	0,5	5,611950
9,167000	0,5	5,898050
9,175333	0,5	6,366350
9,183667	0,5	7,035350
9,192000	0,5	7,612550
9,200333	0,5	7,711900
9,208667	0,5	7,295450
9,217000	0,5	6,796600
9,225333	0,5	6,537350
9,233667	0,5	6,546250
9,242000	0,5	6,749300
9,250333	0,5	7,043250
9,258667	0,5	7,358050
9,267000	0,5	7,635950
9,275333	0,5	7,827650
9,283667	0,5	7,900500
9,292000	0,5	7,848650
9,300333	0,5	7,679450
9,308667	0,5	7,423950
9,317000	0,5	7,123050
9,325333	0,5	6,811300
9,333667	0,5	6,535050
9,342000	0,5	6,320500
9,350333	0,5	6,189450
9,358667	0,5	6,146050
9,367000	0,5	6,191700
9,375333	0,5	6,299300
9,383667	0,5	6,431000
9,392000	0,5	6,548800
9,400333	0,5	6,602600
9,408667	0,5	6,558050
9,417000	0,5	6,424250
9,425333	0,5	6,216050
9,433667	0,5	5,972000
9,442000	0,5	5,732300
9,450333	0,5	5,522300
9,458667	0,5	5,362150
9,467000	0,5	5,244850
9,475333	0,5	5,158750
9,483667	0,5	5,101150
9,492000	0,5	5,067900
9,500333	0,5	5,056800
9,508667	0,5	5,063550
9,517000	0,5	5,085550
9,525333	0,5	5,104750
9,533667	0,5	5,101650
9,542000	0,5	5,070200
9,550333	0,5	5,015500
9,558667	0,5	4,942200
9,567000	0,5	4,873500
9,575333	0,5	4,798650
9,583667	0,5	4,737200
9,592000	0,5	4,682350
9,600333	0,5	4,634950
9,608667	0,5	4,595000
9,617000	0,5	4,567050
9,625333	0,5	4,542350
9,633667	0,5	4,525850
9,642000	0,5	4,518650
9,650333	0,5	4,517950
9,658667	0,5	4,526550
9,667000	0,5	4,541000
9,675333	0,5	4,564350
9,683667	0,5	4,593500
9,692000	0,5	4,628200
9,700333	0,5	4,657700
9,708667	0,5	4,694400
9,717000	0,5	4,725950
9,725333	0,5	4,749000
9,733667	0,5	4,764950
9,742000	0,5	4,761450
9,750333	0,5	4,748000
9,758667	0,5	4,728350
9,767000	0,5	4,708300
9,775333	0,5	4,704500
9,783667	0,5	4,728400
9,792000	0,5	4,783150
9,800333	0,5	4,877250
9,808667	0,5	5,008750
9,817000	0,5	5,171800
9,825333	0,5	5,352200
9,833667	0,5	5,533950
9,842000	0,5	5,701250
9,850333	0,5	5,853450
9,858667	0,5	5,995650
9,867000	0,5	6,130450
9,875333	0,5	6,265450
9,883667	0,5	6,412300
9,892000	0,5	6,554950
9,900333	0,5	6,702950
9,908667	0,5	6,840350
9,917000	0,5	6,971450
9,925333	0,5	7,093650
9,933667	0,5	7,212650
9,942000	0,5	7,328700
9,950333	0,5	7,438000
9,958667	0,5	7,543600
9,967000	0,5	7,637900
9,975333	0,5	7,722500
9,983667	0,5	7,774550
9,992000	0,5	7,789250
10,000333	0,5	7,746950
10,008667	0,5	7,628250
10,017000	0,5	7,421900
10,025333	0,5	7,121900
10,033667	0,5	6,764400
10,042000	0,5	6,374850
10,050333	0,5	5,996850
10,058667	0,5	5,656900
10,067000	0,5	5,369350
10,075333	0,5	5,151050
10,083667	0,5	4,994250
10,092000	0,5	4,896650
10,100333	0,5	4,852750
10,108667	0,5	4,848800
10,117000	0,5	4,866450
10,125333	0,5	4,892300
10,133667	0,5	4,906500
10,142000	0,5	4,897500
10,150333	0,5	4,868050
10,158667	0,5	4,825200
10,167000	0,5	4,770300
10,175333	0,5	4,711650
10,183667	0,5	4,664600
10,192000	0,5	4,617850
10,200333	0,5	4,578200
10,208667	0,5	4,537850
10,217000	0,5	4,500650
10,225333	0,5	4,465700
10,233667	0,5	4,432650
10,242000	0,5	4,410300
10,250333	0,5	4,394750
10,258667	0,5	4,385200
10,267000	0,5	4,382000
10,275333	0,5	4,387750
10,283667	0,5	4,397550
10,292000	0,5	4,407850
10,300333	0,5	4,420050
10,308667	0,5	4,436750
10,317000	0,5	4,456900
10,325333	0,5	4,474450
10,333667	0,5	4,502400
10,342000	0,5	4,536150
10,350333	0,5	4,575700
10,358667	0,5	4,618950
10,367000	0,5	4,664500
10,375333	0,5	4,712500
10,383667	0,5	4,757250
10,392000	0,5	4,788800
10,400333	0,5	4,796300
10,408667	0,5	4,785600
10,417000	0,5	4,747450
10,425333	0,5	4,699400
10,433667	0,5	4,640800
10,442000	0,5	4,580200
10,450333	0,5	4,528700
10,458667	0,5	4,476650
10,467000	0,5	4,424450
10,475333	0,5	4,374000
10,483667	0,5	4,328200
10,492000	0,5	4,296350
10,500333	0,5	4,272350
10,508667	0,5	4,263650
10,517000	0,5	4,259950
10,525333	0,5	4,277100
10,533667	0,5	4,300950
10,542000	0,5	4,326600
10,550333	0,5	4,350800
10,558667	0,5	4,382500
10,567000	0,5	4,419100
10,575333	0,5	4,463800
10,583667	0,5	4,516200
10,592000	0,5	4,567600
10,600333	0,5	4,616350
10,608667	0,5	4,640400
10,617000	0,5	4,634400
10,625333	0,5	4,589300
10,633667	0,5	4,522350
10,642000	0,5	4,442100
10,650333	0,5	4,367950
10,658667	0,5	4,292950
10,667000	0,5	4,234250
10,675333	0,5	4,182800
10,683667	0,5	4,135300
10,692000	0,5	4,091600
10,700333	0,5	4,055000
10,708667	0,5	4,027550
10,717000	0,5	4,011950
10,725333	0,5	4,012550
10,733667	0,5	4,019200
10,742000	0,5	4,039600
10,750333	0,5	4,078550
10,758667	0,5	4,117950
10,767000	0,5	4,173100
10,775333	0,5	4,245950
10,783667	0,5	4,318750
10,792000	0,5	4,387950
10,800333	0,5	4,420050
10,808667	0,5	4,411700
10,817000	0,5	4,354650
10,825333	0,5	4,268650
10,833667	0,5	4,167400
10,842000	0,5	4,070100
10,850333	0,5	3,982100
10,858667	0,5	3,906700
10,867000	0,5	3,840050
10,875333	0,5	3,779150
10,883667	0,5	3,728100
10,892000	0,5	3,689650
10,900333	0,5	3,668750
10,908667	0,5	3,659600
10,917000	0,5	3,673550
10,925333	0,5	3,702400
10,933667	0,5	3,760750
10,942000	0,5	3,843400
10,950333	0,5	3,941400
10,958667	0,5	4,030350
10,967000	0,5	4,092250
10,975333	0,5	4,102900
10,983667	0,5	4,068800
10,992000	0,5	3,986300
11,000333	0,5	3,880700
11,008667	0,5	3,779500
11,017000	0,5	3,691050
11,025333	0,5	3,616450
11,033667	0,5	3,557600
11,042000	0,5	3,514000
11,050333	0,5	3,483950
11,058667	0,5	3,458950
11,067000	0,5	3,453050
11,075333	0,5	3,464150
11,083667	0,5	3,504300
11,092000	0,5	3,564300
11,100333	0,5	3,640600
11,108667	0,5	3,723500
11,117000	0,5	3,789100
11,125333	0,5	3,828150
11,133667	0,5	3,820450
11,142000	0,5	3,772700
11,150333	0,5	3,686800
11,158667	0,5	3,589000
11,167000	0,5	3,491850
11,175333	0,5	3,404500
11,183667	0,5	3,323250
11,192000	0,5	3,253800
11,200333	0,5	3,182900
11,208667	0,5	3,109150
11,217000	0,5	3,030400
11,225333	0,5	2,955900
11,233667	0,5	2,898050
11,242000	0,5	2,850800
11,250333	0,5	2,818550
11,258667	0,5	2,802300
11,267000	0,5	2,794000
11,275333	0,5	2,788200
11,283667	0,5	2,782800
11,292000	0,5	2,772550
11,300333	0,5	2,768350
11,308667	0,5	2,772300
11,317000	0,5	2,792600
11,325333	0,5	2,812050
11,333667	0,5	2,842900
11,342000	0,5	2,876150
11,350333	0,5	2,904800
11,358667	0,5	2,931900
11,367000	0,5	2,956100
11,375333	0,5	2,982850
11,383667	0,5	3,017200
11,392000	0,5	3,041550
11,400333	0,5	3,059250
11,408667	0,5	3,063900
11,417000	0,5	3,055300
11,425333	0,5	3,033150
11,433667	0,5	3,002100
11,442000	0,5	2,967350
11,450333	0,5	2,934600
11,458667	0,5	2,909500
11,467000	0,5	2,890500
11,475333	0,5	2,872450
11,483667	0,5	2,869750
11,492000	0,5	2,870150
11,500333	0,5	2,870050
11,508667	0,5	2,876750
11,517000	0,5	2,879950
11,525333	0,5	2,891750
11,533667	0,5	2,901400
11,542000	0,5	2,904350
11,550333	0,5	2,903850
11,558667	0,5	2,900250
11,567000	0,5	2,897250
11,575333	0,5	2,897700
11,583667	0,5	2,898050
11,592000	0,5	2,903450
11,600333	0,5	2,912550
11,608667	0,5	2,928200
11,617000	0,5	2,946100
11,625333	0,5	2,968150
11,633667	0,5	2,999150
11,642000	0,5	3,019950
11,650333	0,5	3,039400
11,658667	0,5	3,053650
11,667000	0,5	3,064650
11,675333	0,5	3,078350
11,683667	0,5	3,092950
11,692000	0,5	3,104400
11,700333	0,5	3,118500
11,708667	0,5	3,128000
11,717000	0,5	3,133700
11,725333	0,5	3,139400
11,733667	0,5	3,149300
11,742000	0,5	3,158100
11,750333	0,5	3,166700
11,758667	0,5	3,178900
11,767000	0,5	3,186650
11,775333	0,5	3,199400
11,783667	0,5	3,208250
11,792000	0,5	3,207800
11,800333	0,5	3,207100
11,808667	0,5	3,201600
11,817000	0,5	3,207000
11,825333	0,5	3,223550
11,833667	0,5	3,247450
11,842000	0,5	3,284250
11,850333	0,5	3,343100
11,858667	0,5	3,426400
11,867000	0,5	3,545100
11,875333	0,5	3,698200
11,883667	0,5	3,871950
11,892000	0,5	4,059900
11,900333	0,5	4,221800
11,908667	0,5	4,339900
11,917000	0,5	4,385000
11,925333	0,5	4,367000
11,933667	0,5	4,287000
11,942000	0,5	4,151900
11,950333	0,5	3,996000
11,958667	0,5	3,829600
11,967000	0,5	3,687300
11,975333	0,5	3,566300
11,983667	0,5	3,471600
11,992000	0,5	3,408900
12,000333	0,5	3,373000
12,008667	0,5	3,353300
12,017000	0,5	3,355950
12,025333	0,5	3,372700
12,033667	0,5	3,398950
12,042000	0,5	3,436350
12,050333	0,5	3,488300
12,058667	0,5	3,541550
12,067000	0,5	3,580950
12,075333	0,5	3,628300
12,083667	0,5	3,650600
12,092000	0,5	3,648950
12,100333	0,5	3,640550
12,108667	0,5	3,619700
12,117000	0,5	3,610250
12,125333	0,5	3,596700
12,133667	0,5	3,599850
12,142000	0,5	3,611900
12,150333	0,5	3,647100
12,158667	0,5	3,699650
12,167000	0,5	3,769100
12,175333	0,5	3,853250
12,183667	0,5	3,939550
12,192000	0,5	4,020000
12,200333	0,5	4,080500
12,208667	0,5	4,108450
12,217000	0,5	4,088550
12,225333	0,5	4,045000
12,233667	0,5	3,962950
12,242000	0,5	3,860650
12,250333	0,5	3,751700
12,258667	0,5	3,661550
12,267000	0,5	3,596200
12,275333	0,5	3,554350
12,283667	0,5	3,521500
12,292000	0,5	3,508350
12,300333	0,5	3,504300
12,308667	0,5	3,507350
12,317000	0,5	3,502550
12,325333	0,5	3,491300
12,333667	0,5	3,473500
12,342000	0,5	3,447250
12,350333	0,5	3,423250
12,358667	0,5	3,385550
12,367000	0,5	3,357900
12,375333	0,5	3,330000
12,383667	0,5	3,306850
12,392000	0,5	3,281150
12,400333	0,5	3,262800
12,408667	0,5	3,251150
12,417000	0,5	3,248250
12,425333	0,5	3,241100
12,433667	0,5	3,234200
12,442000	0,5	3,229850
12,450333	0,5	3,224650
12,458667	0,5	3,222750
12,467000	0,5	3,228600
12,475333	0,5	3,238950
12,483667	0,5	3,246200
12,492000	0,5	3,264200
12,500333	0,5	3,272500
12,508667	0,5	3,278800
12,517000	0,5	3,305050
12,525333	0,5	3,335050
12,533667	0,5	3,374550
12,542000	0,5	3,420000
12,550333	0,5	3,465600
12,558667	0,5	3,537600
12,567000	0,5	3,605900
12,575333	0,5	3,679350
12,583667	0,5	3,749150
12,592000	0,5	3,827850
12,600333	0,5	3,900550
12,608667	0,5	3,975200
12,617000	0,5	4,043350
12,625333	0,5	4,114050
12,633667	0,5	4,186700
12,642000	0,5	4,253850
12,650333	0,5	4,308400
12,658667	0,5	4,353900
12,667000	0,5	4,394000
12,675333	0,5	4,405500
12,683667	0,5	4,400150
12,692000	0,5	4,367450
12,700333	0,5	4,327600
12,708667	0,5	4,276000
12,717000	0,5	4,219600
12,725333	0,5	4,140850
12,733667	0,5	4,050300
12,742000	0,5	3,938450
12,750333	0,5	3,830850
12,758667	0,5	3,733700
12,767000	0,5	3,674050
12,775333	0,5	3,656350
12,783667	0,5	3,682150
12,792000	0,5	3,731100
12,800333	0,5	3,773850
12,808667	0,5	3,781550
12,817000	0,5	3,760250
12,825333	0,5	3,721400
12,833667	0,5	3,748000
12,842000	0,5	3,855400
12,850333	0,5	3,875400
12,858667	0,5	3,859750
12,867000	0,5	3,810450
12,875333	0,5	3,567050
12,883667	0,5	3,219200
12,892000	0,5	2,945150
12,900333	0,5	2,609750
12,908667	0,5	2,213200
12,917000	0,5	1,896950
12,925333	0,5	1,675700
12,933667	0,5	1,505000
12,942000	0,5	1,376200
12,950333	0,5	1,267100
12,958667	0,5	1,199400
12,967000	0,5	1,138700
12,975333	0,5	1,086500
12,983667	0,5	1,044700
12,992000	0,5	0,998400
13,000333	0,5	0,973550
13,008667	0,5	0,944100
13,017000	0,5	0,918250
13,025333	0,5	0,890500
13,033667	0,5	0,863850
13,042000	0,5	0,839650
13,050333	0,5	0,815000
13,058667	0,5	0,794400
13,067000	0,5	0,777150
13,075333	0,5	0,762700
13,083667	0,5	0,762750
13,092000	0,5	0,750900
13,100333	0,5	0,742350
13,108667	0,5	0,757150
13,117000	0,5	0,759600
13,125333	0,5	0,757800
13,133667	0,5	0,754000
13,142000	0,5	0,742650
13,150333	0,5	0,741150
13,158667	0,5	0,727850
13,167000	0,5	0,714150
13,175333	0,5	0,699250
13,183667	0,5	0,684450
13,192000	0,5	0,669650
13,200333	0,5	0,658700
13,208667	0,5	0,650350
13,217000	0,5	0,640850
13,225333	0,5	0,634100
13,233667	0,5	0,633700
13,242000	0,5	0,624800
13,250333	0,5	0,622850
13,258667	0,5	0,623600
13,267000	0,5	0,622050
13,275333	0,5	0,615500
13,283667	0,5	0,603300
13,292000	0,5	0,594600
13,300333	0,5	0,592800
13,308667	0,5	0,590800
13,317000	0,5	0,579900
13,325333	0,5	0,581250
13,333667	0,5	0,572550
13,342000	0,5	0,576000
13,350333	0,5	0,578800
13,358667	0,5	0,583000
13,367000	0,5	0,592500
13,375333	0,5	0,592350
13,383667	0,5	0,613700
13,392000	0,5	0,623850
13,400333	0,5	0,660350
13,408667	0,5	0,700200
13,417000	0,5	0,753300
13,425333	0,5	0,811950
13,433667	0,5	0,885950
13,442000	0,5	0,978550
13,450333	0,5	1,090450
13,458667	0,5	1,195850
13,467000	0,5	1,312300
13,475333	0,5	1,423650
13,483667	0,5	1,528250
13,492000	0,5	1,614700
13,500333	0,5	1,694200
13,508667	0,5	1,751050
13,517000	0,5	1,789250
13,525333	0,5	1,813800
13,533667	0,5	1,824600
13,542000	0,5	1,815350
13,550333	0,5	1,817900
13,558667	0,5	1,803200
13,567000	0,5	1,785800
13,575333	0,5	1,764200
13,583667	0,5	1,739350
13,592000	0,5	1,734150
13,600333	0,5	1,721000
13,608667	0,5	1,716100
13,617000	0,5	1,705100
13,625333	0,5	1,705500
13,633667	0,5	1,700150
13,642000	0,5	1,701500
13,650333	0,5	1,699100
13,658667	0,5	1,697800
13,667000	0,5	1,700650
13,675333	0,5	1,701250
13,683667	0,5	1,695200
13,692000	0,5	1,694150
13,700333	0,5	1,697900
13,708667	0,5	1,695900
13,717000	0,5	1,696000
13,725333	0,5	1,685250
13,733667	0,5	1,681300
13,742000	0,5	1,682000
13,750333	0,5	1,684850
13,758667	0,5	1,685100
13,767000	0,5	1,684250
13,775333	0,5	1,683950
13,783667	0,5	1,684600
13,792000	0,5	1,682750
13,800333	0,5	1,685550
13,808667	0,5	1,680050
13,817000	0,5	1,685650
13,825333	0,5	1,684650
13,833667	0,5	1,678100
13,842000	0,5	1,685950
13,850333	0,5	1,694950
13,858667	0,5	1,694000
13,867000	0,5	1,697100
13,875333	0,5	1,690400
13,883667	0,5	1,693200
13,892000	0,5	1,693250
13,900333	0,5	1,703650
13,908667	0,5	1,702450
13,917000	0,5	1,709300
13,925333	0,5	1,709900
13,933667	0,5	1,716350
13,942000	0,5	1,722750
13,950333	0,5	1,724000
13,958667	0,5	1,731550
13,967000	0,5	1,744050
13,975333	0,5	1,753250
13,983667	0,5	1,747500
13,992000	0,5	1,760800
14,000333	0,5	1,763200
14,008667	0,5	1,759950
14,017000	0,5	1,754250
14,025333	0,5	1,745150
14,033667	0,5	1,749400
14,042000	0,5	1,754050
14,050333	0,5	1,753400
14,058667	0,5	1,754500
14,067000	0,5	1,759550
14,075333	0,5	1,762050
14,083667	0,5	1,763750
14,092000	0,5	1,763850
14,100333	0,5	1,760350
14,108667	0,5	1,755900
14,117000	0,5	1,762200
14,125333	0,5	1,752050
14,133667	0,5	1,749850
14,142000	0,5	1,753050
14,150333	0,5	1,758300
14,158667	0,5	1,755300
14,167000	0,5	1,748050
14,175333	0,5	1,744750
14,183667	0,5	1,752150
14,192000	0,5	1,749800
14,200333	0,5	1,755350
14,208667	0,5	1,758150
14,217000	0,5	1,769300
14,225333	0,5	1,771300
14,233667	0,5	1,776500
14,242000	0,5	1,780900
14,250333	0,5	1,784850
14,258667	0,5	1,793200
14,267000	0,5	1,799500
14,275333	0,5	1,791300
14,283667	0,5	1,801250
14,292000	0,5	1,808150
14,300333	0,5	1,810300
14,308667	0,5	1,807550
14,317000	0,5	1,799800
14,325333	0,5	1,811000
14,333667	0,5	1,819800
14,342000	0,5	1,826200
14,350333	0,5	1,827850
14,358667	0,5	1,834250
14,367000	0,5	1,838800
14,375333	0,5	1,848900
14,383667	0,5	1,856350
14,392000	0,5	1,861650
14,400333	0,5	1,869200
14,408667	0,5	1,877300
14,417000	0,5	1,891700
14,425333	0,5	1,888350
14,433667	0,5	1,904050
14,442000	0,5	1,914300
14,450333	0,5	1,922250
14,458667	0,5	1,926900
14,467000	0,5	1,926050
14,475333	0,5	1,942900
14,483667	0,5	1,966800
14,492000	0,5	1,987000
14,500333	0,5	2,013250
14,508667	0,5	2,038250
14,517000	0,5	2,074900
14,525333	0,5	2,104550
14,533667	0,5	2,142550
14,542000	0,5	2,167300
14,550333	0,5	2,191500
14,558667	0,5	2,212400
14,567000	0,5	2,226550
14,575333	0,5	2,228650
14,583667	0,5	2,245700
14,592000	0,5	2,246200
14,600333	0,5	2,250050
14,608667	0,5	2,250850
14,617000	0,5	2,258800
14,625333	0,5	2,283900
14,633667	0,5	2,307100
14,642000	0,5	2,347300
14,650333	0,5	2,378100
14,658667	0,5	2,419400
14,667000	0,5	2,446850
14,675333	0,5	2,489750
14,683667	0,5	2,529250
14,692000	0,5	2,579100
14,700333	0,5	2,630850
14,708667	0,5	2,674950
14,717000	0,5	2,698750
14,725333	0,5	2,728450
14,733667	0,5	2,756300
14,742000	0,5	2,774900
14,750333	0,5	2,798600
14,758667	0,5	2,829700
14,767000	0,5	2,873350
14,775333	0,5	2,935750
14,783667	0,5	2,997350
14,792000	0,5	3,052150
14,800333	0,5	3,089250
14,808667	0,5	3,100550
14,817000	0,5	3,089500
14,825333	0,5	3,051000
14,833667	0,5	3,009500
14,842000	0,5	2,954250
14,850333	0,5	2,923000
14,858667	0,5	2,883800
14,867000	0,5	2,851600
14,875333	0,5	2,847650
14,883667	0,5	2,848950
14,892000	0,5	2,851150
14,900333	0,5	2,853750
14,908667	0,5	2,833000
14,917000	0,5	2,817700
14,925333	0,5	2,788950
14,933667	0,5	2,756000
14,942000	0,5	2,718600
14,950333	0,5	2,693250
14,958667	0,5	2,667250
14,967000	0,5	2,651450
14,975333	0,5	2,644200
14,983667	0,5	2,630250
14,992000	0,5	2,626850
15,000333	0,5	2,626250
15,008667	0,5	2,612200
15,017000	0,5	2,604500
15,025333	0,5	2,606650
15,033667	0,5	2,599750
15,042000	0,5	2,590050
15,050333	0,5	2,565250
15,058667	0,5	2,551450
15,067000	0,5	2,547150
15,075333	0,5	2,543100
15,083667	0,5	2,532750
15,092000	0,5	2,528350
15,100333	0,5	2,516750
15,108667	0,5	2,507250
15,117000	0,5	2,496550
15,125333	0,5	2,492650
15,133667	0,5	2,484250
15,142000	0,5	2,473350
15,150333	0,5	2,471900
15,158667	0,5	2,447850
15,167000	0,5	2,439800
15,175333	0,5	2,434700
15,183667	0,5	2,427500
15,192000	0,5	2,411000
15,200333	0,5	2,392250
15,208667	0,5	2,380000
15,217000	0,5	2,385800
15,225333	0,5	2,368650
15,233667	0,5	2,363650
15,242000	0,5	2,355000
15,250333	0,5	2,353350
15,258667	0,5	2,347300
15,267000	0,5	2,344500
15,275333	0,5	2,337250
15,283667	0,5	2,332800
15,292000	0,5	2,335150
15,300333	0,5	2,334800
15,308667	0,5	2,312150
15,317000	0,5	2,319750
15,325333	0,5	2,312150
15,333667	0,5	2,307000
15,342000	0,5	2,294700
15,350333	0,5	2,275450
15,358667	0,5	2,282600
15,367000	0,5	2,283450
15,375333	0,5	2,287000
15,383667	0,5	2,281650
15,392000	0,5	2,285000
15,400333	0,5	2,281750
15,408667	0,5	2,280250
15,417000	0,5	2,274600
15,425333	0,5	2,269550
15,433667	0,5	2,262050
15,442000	0,5	2,263700
15,450333	0,5	2,255750
15,458667	0,5	2,248150
15,467000	0,5	2,255950
15,475333	0,5	2,241600
15,483667	0,5	2,226200
15,492000	0,5	2,200100
15,500333	0,5	2,174750
15,508667	0,5	2,160800
15,517000	0,5	2,156700
15,525333	0,5	2,142200
15,533667	0,5	2,137400
15,542000	0,5	2,129100
15,550333	0,5	2,127950
15,558667	0,5	2,127850
15,567000	0,5	2,130500
15,575333	0,5	2,131500
15,583667	0,5	2,136500
15,592000	0,5	2,134000
15,600333	0,5	2,124750
15,608667	0,5	2,107950
15,617000	0,5	2,107300
15,625333	0,5	2,087050
15,633667	0,5	2,069850
15,642000	0,5	2,043600
15,650333	0,5	2,025750
15,658667	0,5	2,028500
15,667000	0,5	2,019450
15,675333	0,5	2,014500
15,683667	0,5	2,007000
15,692000	0,5	2,006250
15,700333	0,5	1,999850
15,708667	0,5	1,996550
15,717000	0,5	1,988850
15,725333	0,5	1,987850
15,733667	0,5	1,988400
15,742000	0,5	1,988400
15,750333	0,5	1,974100
15,758667	0,5	1,975150
15,767000	0,5	1,975350
15,775333	0,5	1,966900
15,783667	0,5	1,954100
15,792000	0,5	1,938850
15,800333	0,5	1,935650
15,808667	0,5	1,932050
15,817000	0,5	1,924500
15,825333	0,5	1,917250
15,833667	0,5	1,911450
15,842000	0,5	1,905700
15,850333	0,5	1,906300
15,858667	0,5	1,902050
15,867000	0,5	1,896850
15,875333	0,5	1,895050
15,883667	0,5	1,906100
15,892000	0,5	1,891750
15,900333	0,5	1,877350
15,908667	0,5	1,874250
15,917000	0,5	1,864000
15,925333	0,5	1,845950
15,933667	0,5	1,824450
15,942000	0,5	1,808300
15,950333	0,5	1,805700
15,958667	0,5	1,796050
15,967000	0,5	1,797600
15,975333	0,5	1,792550
15,983667	0,5	1,795750
15,992000	0,5	1,787750
16,000333	0,5	1,784000
16,008667	0,5	1,779700
16,017000	0,5	1,772600
16,025333	0,5	1,772550
16,033667	0,5	1,767500
16,042000	0,5	1,749350
16,050333	0,5	1,741750
16,058667	0,5	1,739050
16,067000	0,5	1,728300
16,075333	0,5	1,717400
16,083667	0,5	1,694250
16,092000	0,5	1,695050
16,100333	0,5	1,692650
16,108667	0,5	1,689850
16,117000	0,5	1,676650
16,125333	0,5	1,670250
16,133667	0,5	1,664450
16,142000	0,5	1,664000
16,150333	0,5	1,655750
16,158667	0,5	1,650100
16,167000	0,5	1,646250
16,175333	0,5	1,639800
16,183667	0,5	1,640050
16,192000	0,5	1,618150
16,200333	0,5	1,620900
16,208667	0,5	1,615100
16,217000	0,5	1,609250
16,225333	0,5	1,597850
16,233667	0,5	1,570950
16,242000	0,5	1,569650
16,250333	0,5	1,567250
16,258667	0,5	1,553350
16,267000	0,5	1,551550
16,275333	0,5	1,540800
16,283667	0,5	1,538300
16,292000	0,5	1,525400
16,300333	0,5	1,523900
16,308667	0,5	1,516100
16,317000	0,5	1,512800
16,325333	0,5	1,515550
16,333667	0,5	1,512400
16,342000	0,5	1,496450
16,350333	0,5	1,506600
16,358667	0,5	1,498500
16,367000	0,5	1,494600
16,375333	0,5	1,482150
16,383667	0,5	1,466700
16,392000	0,5	1,472850
16,400333	0,5	1,470300
16,408667	0,5	1,470900
16,417000	0,5	1,461250
16,425333	0,5	1,460050
16,433667	0,5	1,450450
16,442000	0,5	1,444550
16,450333	0,5	1,434400
16,458667	0,5	1,424800
16,467000	0,5	1,419500
16,475333	0,5	1,414850
16,483667	0,5	1,397500
16,492000	0,5	1,388200
16,500333	0,5	1,385850
16,508667	0,5	1,376450
16,517000	0,5	1,362750
16,525333	0,5	1,346800
16,533667	0,5	1,334450
16,542000	0,5	1,327950
16,550333	0,5	1,330950
16,558667	0,5	1,321250
16,567000	0,5	1,320350
16,575333	0,5	1,306900
16,583667	0,5	1,305300
16,592000	0,5	1,301000
16,600333	0,5	1,297400
16,608667	0,5	1,287500
16,617000	0,5	1,289300
16,625333	0,5	1,281300
16,633667	0,5	1,273250
16,642000	0,5	1,273400
16,650333	0,5	1,277500
16,658667	0,5	1,269250
16,667000	0,5	1,256400
16,675333	0,5	1,236900
16,683667	0,5	1,225250
16,692000	0,5	1,229750
16,700333	0,5	1,224950
16,708667	0,5	1,223550
16,717000	0,5	1,219950
16,725333	0,5	1,219550
16,733667	0,5	1,208050
16,742000	0,5	1,204300
16,750333	0,5	1,195800
16,758667	0,5	1,190600
16,767000	0,5	1,189800
16,775333	0,5	1,178150
16,783667	0,5	1,162700
16,792000	0,5	1,170050
16,800333	0,5	1,163300
16,808667	0,5	1,154050
16,817000	0,5	1,137150
16,825333	0,5	1,124150
16,833667	0,5	1,117900
16,842000	0,5	1,115650
16,850333	0,5	1,111000
16,858667	0,5	1,111250
16,867000	0,5	1,103300
16,875333	0,5	1,096700
16,883667	0,5	1,098850
16,892000	0,5	1,095950
16,900333	0,5	1,093200
16,908667	0,5	1,093400
16,917000	0,5	1,098400
16,925333	0,5	1,079450
16,933667	0,5	1,084750
16,942000	0,5	1,086450
16,950333	0,5	1,084450
16,958667	0,5	1,071150
16,967000	0,5	1,050250
16,975333	0,5	1,042800
16,983667	0,5	1,047250
16,992000	0,5	1,035000
17,000333	0,5	1,035150
17,008667	0,5	1,022900
17,017000	0,5	1,021200
17,025333	0,5	1,014750
17,033667	0,5	1,007500
17,042000	0,5	1,004750
17,050333	0,5	0,995600
17,058667	0,5	0,995150
17,067000	0,5	0,993450
17,075333	0,5	0,969250
17,083667	0,5	0,975800
17,092000	0,5	0,975250
17,100333	0,5	0,963100
17,108667	0,5	0,953350
17,117000	0,5	0,923400
17,125333	0,5	0,926900
17,133667	0,5	0,924450
17,142000	0,5	0,926150
17,150333	0,5	0,916950
17,158667	0,5	0,915600
17,167000	0,5	0,910450
17,175333	0,5	0,912700
17,183667	0,5	0,911350
17,192000	0,5	0,905450
17,200333	0,5	0,901000
17,208667	0,5	0,898150
17,217000	0,5	0,895800
17,225333	0,5	0,881350
17,233667	0,5	0,891400
17,242000	0,5	0,889400
17,250333	0,5	0,886300
17,258667	0,5	0,881200
17,267000	0,5	0,871750
17,275333	0,5	0,881400
17,283667	0,5	0,894150
17,292000	0,5	0,888950
17,300333	0,5	0,894850
17,308667	0,5	0,892550
17,317000	0,5	0,888850
17,325333	0,5	0,878800
17,333667	0,5	0,873100
17,342000	0,5	0,862100
17,350333	0,5	0,855500
17,358667	0,5	0,855600
17,367000	0,5	0,847700
17,375333	0,5	0,850450
17,383667	0,5	0,862300
17,392000	0,5	0,863750
17,400333	0,5	0,855850
17,408667	0,5	0,849950
17,417000	0,5	0,839700
17,425333	0,5	0,853000
17,433667	0,5	0,848800
17,442000	0,5	0,850600
17,450333	0,5	0,847550
17,458667	0,5	0,852900
17,467000	0,5	0,850900
17,475333	0,5	0,852800
17,483667	0,5	0,854000
17,492000	0,5	0,854150
17,500333	0,5	0,869100
17,508667	0,5	0,878200
17,517000	0,5	0,865600
17,525333	0,5	0,880150
17,533667	0,5	0,884450
17,542000	0,5	0,887300
17,550333	0,5	0,881200
17,558667	0,5	0,873550
17,567000	0,5	0,880800
17,575333	0,5	0,886700
17,583667	0,5	0,896950
17,592000	0,5	0,906000
17,600333	0,5	0,919650
17,608667	0,5	0,928350
17,617000	0,5	0,945700
17,625333	0,5	0,956850
17,633667	0,5	0,968950
17,642000	0,5	0,972350
17,650333	0,5	0,991250
17,658667	0,5	0,988850
17,667000	0,5	0,992100
17,675333	0,5	1,000750
17,683667	0,5	1,001650
17,692000	0,5	0,993050
17,700333	0,5	0,976350
17,708667	0,5	0,961250
17,717000	0,5	0,954500
17,725333	0,5	0,950300
17,733667	0,5	0,949400
17,742000	0,5	0,949500
17,750333	0,5	0,944250
17,758667	0,5	0,944300
17,767000	0,5	0,940900
17,775333	0,5	0,938500
17,783667	0,5	0,928900
17,792000	0,5	0,931400
17,800333	0,5	0,928900
17,808667	0,5	0,917400
17,817000	0,5	0,913450
17,825333	0,5	0,921750
17,833667	0,5	0,911800
17,842000	0,5	0,909800
17,850333	0,5	0,891700
17,858667	0,5	0,889300
17,867000	0,5	0,901700
17,875333	0,5	0,914050
17,883667	0,5	0,934850
17,892000	0,5	0,966550
17,900333	0,5	1,007150
17,908667	0,5	1,053700
17,917000	0,5	1,094400
17,925333	0,5	1,118000
17,933667	0,5	1,129400
17,942000	0,5	1,109950
17,950333	0,5	1,081400
17,958667	0,5	1,016600
17,967000	0,5	0,976000
17,975333	0,5	0,925900
17,983667	0,5	0,880350
17,992000	0,5	0,835200
18,000333	0,5	0,793450
18,008667	0,5	0,775100
18,017000	0,5	0,759400
18,025333	0,5	0,738100
18,033667	0,5	0,732050
18,042000	0,5	0,723450
18,050333	0,5	0,714650
18,058667	0,5	0,708350
18,067000	0,5	0,699350
18,075333	0,5	0,689300
18,083667	0,5	0,677400
18,092000	0,5	0,678400
18,100333	0,5	0,661450
18,108667	0,5	0,644200
18,117000	0,5	0,645800
18,125333	0,5	0,637400
18,133667	0,5	0,620050
18,142000	0,5	0,606300
18,150333	0,5	0,588050
18,158667	0,5	0,590500
18,167000	0,5	0,577850
18,175333	0,5	0,575050
18,183667	0,5	0,558300
18,192000	0,5	0,550200
18,200333	0,5	0,538000
18,208667	0,5	0,533100
18,217000	0,5	0,525300
18,225333	0,5	0,512700
18,233667	0,5	0,510600
18,242000	0,5	0,506000
18,250333	0,5	0,487000
18,258667	0,5	0,483650
18,267000	0,5	0,486100
18,275333	0,5	0,479350
18,283667	0,5	0,467500
18,292000	0,5	0,444750
18,300333	0,5	0,439000
18,308667	0,5	0,432200
18,317000	0,5	0,431400
18,325333	0,5	0,416000
18,333667	0,5	0,414850
18,342000	0,5	0,405150
18,350333	0,5	0,401250
18,358667	0,5	0,393950
18,367000	0,5	0,382350
18,375333	0,5	0,373950
18,383667	0,5	0,358550
18,392000	0,5	0,356450
18,400333	0,5	0,340250
18,408667	0,5	0,345350
18,417000	0,5	0,338300
18,425333	0,5	0,330550
18,433667	0,5	0,308500
18,442000	0,5	0,283850
18,450333	0,5	0,277450
18,458667	0,5	0,276100
18,467000	0,5	0,265050
18,475333	0,5	0,261750
18,483667	0,5	0,248950
18,492000	0,5	0,248350
18,500333	0,5	0,237200
18,508667	0,5	0,233100
18,517000	0,5	0,226100
18,525333	0,5	0,219350
18,533667	0,5	0,219850
18,542000	0,5	0,213050
18,550333	0,5	0,200300
18,558667	0,5	0,205450
18,567000	0,5	0,194150
18,575333	0,5	0,183450
18,583667	0,5	0,160900
18,592000	0,5	0,137250
18,600333	0,5	0,141500
18,608667	0,5	0,128100
18,617000	0,5	0,129250
18,625333	0,5	0,119750
18,633667	0,5	0,120950
18,642000	0,5	0,110600
18,650333	0,5	0,110150
18,658667	0,5	0,104750
18,667000	0,5	0,097350
18,675333	0,5	0,100450
18,683667	0,5	0,103100
18,692000	0,5	0,086000
18,700333	0,5	0,085350
18,708667	0,5	0,087900
18,717000	0,5	0,074900
18,725333	0,5	0,065200
18,733667	0,5	0,043600
18,742000	0,5	0,037850
18,750333	0,5	0,033000
18,758667	0,5	0,033850
18,767000	0,5	0,027900
18,775333	0,5	0,026250
18,783667	0,5	0,022500
18,792000	0,5	0,025550
18,800333	0,5	0,021150
18,808667	0,5	0,020950
18,817000	0,5	0,017500
18,825333	0,5	0,027950
18,833667	0,5	0,021850
18,842000	0,5	0,014150
18,850333	0,5	0,021300
18,858667	0,5	0,029150
18,867000	0,5	0,019750
18,875333	0,5	0,015100
18,883667	0,5	0,006300
18,892000	0,5	0,012500
18,900333	0,5	0,024350
18,908667	0,5	0,030000
18,917000	0,5	0,043600
18,925333	0,5	0,049600
18,933667	0,5	0,059800
18,942000	0,5	0,068700
18,950333	0,5	0,086200
18,958667	0,5	0,089900
18,967000	0,5	0,101450
18,975333	0,5	0,119200
18,983667	0,5	0,121300
18,992000	0,5	0,125600
19,000333	0,5	0,142150
19,008667	0,5	0,146100
19,017000	0,5	0,139750
19,025333	0,5	0,122550
19,033667	0,5	0,115550
19,042000	0,5	0,121300
19,050333	0,5	0,112100
19,058667	0,5	0,101000
19,067000	0,5	0,091900
19,075333	0,5	0,084300
19,083667	0,5	0,075500
19,092000	0,5	0,066050
19,100333	0,5	0,049000
19,108667	0,5	0,037400
19,117000	0,5	0,031200
19,125333	0,5	0,029050
19,133667	0,5	-0,003700
19,142000	0,5	-0,001750
19,150333	0,5	-0,016800
19,158667	0,5	-0,027900
19,167000	0,5	-0,051900
19,175333	0,5	-0,085400
19,183667	0,5	-0,086650
19,192000	0,5	-0,093650
19,200333	0,5	-0,105850
19,208667	0,5	-0,119350
19,217000	0,5	-0,131100
19,225333	0,5	-0,141250
19,233667	0,5	-0,151450
19,242000	0,5	-0,161750
19,250333	0,5	-0,169100
19,258667	0,5	-0,179700
19,267000	0,5	-0,171800
19,275333	0,5	-0,181950
19,283667	0,5	-0,197050
19,292000	0,5	-0,195100
19,300333	0,5	-0,199050
19,308667	0,5	-0,210500
19,317000	0,5	-0,221050
19,325333	0,5	-0,248100
19,333667	0,5	-0,245750
19,342000	0,5	-0,255950
19,350333	0,5	-0,261050
19,358667	0,5	-0,267500
19,367000	0,5	-0,267550
19,375333	0,5	-0,271050
19,383667	0,5	-0,264800
19,392000	0,5	-0,263800
19,400333	0,5	-0,269150
19,408667	0,5	-0,268300
19,417000	0,5	-0,270750
19,425333	0,5	-0,284450
19,433667	0,5	-0,302850
19,442000	0,5	-0,303700
19,450333	0,5	-0,321600
19,458667	0,5	-0,343150
19,467000	0,5	-0,378550
19,475333	0,5	-0,399600
19,483667	0,5	-0,408300
19,492000	0,5	-0,415800
19,500333	0,5	-0,423700
19,508667	0,5	-0,427100
19,517000	0,5	-0,434400
19,525333	0,5	-0,443600
19,533667	0,5	-0,448150
19,542000	0,5	-0,455350
19,550333	0,5	-0,457400
19,558667	0,5	-0,456900
19,567000	0,5	-0,453100
19,575333	0,5	-0,470550
19,583667	0,5	-0,470950
19,592000	0,5	-0,475950
19,600333	0,5	-0,483400
19,608667	0,5	-0,502950
19,617000	0,5	-0,523350
19,625333	0,5	-0,538050
19,633667	0,5	-0,533850
19,642000	0,5	-0,544950
19,650333	0,5	-0,548550
19,658667	0,5	-0,557850
19,667000	0,5	-0,558050
19,675333	0,5	-0,565500
19,683667	0,5	-0,564650
19,692000	0,5	-0,569450
19,700333	0,5	-0,577000
19,708667	0,5	-0,571650
19,717000	0,5	-0,579050
19,725333	0,5	-0,592050
19,733667	0,5	-0,594200
19,742000	0,5	-0,599600
19,750333	0,5	-0,612800
19,758667	0,5	-0,631600
19,767000	0,5	-0,651000
19,775333	0,5	-0,649950
19,783667	0,5	-0,661150
19,792000	0,5	-0,661550
19,800333	0,5	-0,668850
19,808667	0,5	-0,666800
19,817000	0,5	-0,681050
19,825333	0,5	-0,681900
19,833667	0,5	-0,688650
19,842000	0,5	-0,693400
19,850333	0,5	-0,688000
19,858667	0,5	-0,687150
19,867000	0,5	-0,707300
19,875333	0,5	-0,704950
19,883667	0,5	-0,698800
19,892000	0,5	-0,714100
19,900333	0,5	-0,720700
19,908667	0,5	-0,749450
19,917000	0,5	-0,748650
19,925333	0,5	-0,755500
19,933667	0,5	-0,756900
19,942000	0,5	-0,764600
19,950333	0,5	-0,762400
19,958667	0,5	-0,775100
19,967000	0,5	-0,775150
19,975333	0,5	-0,779450
19,983667	0,5	-0,781100
19,992000	0,5	-0,786550
20,000333	0,5	-0,780450
20,008667	0,5	-0,785950
20,017000	0,5	-0,798300
20,025333	0,5	-0,788650
20,033667	0,5	-0,789050
20,042000	0,5	-0,791950
20,050333	0,5	-0,807750
20,058667	0,5	-0,827400
20,067000	0,5	-0,828650
20,075333	0,5	-0,822650
20,083667	0,5	-0,835200
20,092000	0,5	-0,834000
20,100333	0,5	-0,844250
20,108667	0,5	-0,842700
20,117000	0,5	-0,844450
20,125333	0,5	-0,843850
20,133667	0,5	-0,846600
20,142000	0,5	-0,843450
20,150333	0,5	-0,828850
20,158667	0,5	-0,831300
20,167000	0,5	-0,836200
20,175333	0,5	-0,829600
20,183667	0,5	-0,839750
20,192000	0,5	-0,862250
20,200333	0,5	-0,892900
20,208667	0,5	-0,917150
20,217000	0,5	-0,915000
20,225333	0,5	-0,932400
20,233667	0,5	-0,937300
20,242000	0,5	-0,949700
20,250333	0,5	-0,950800
20,258667	0,5	-0,956500
20,267000	0,5	-0,953300
20,275333	0,5	-0,964150
20,283667	0,5	-0,958700
20,292000	0,5	-0,952850
20,300333	0,5	-0,946750
20,308667	0,5	-0,961800
20,317000	0,5	-0,955750
20,325333	0,5	-0,957700
20,333667	0,5	-0,959150
20,342000	0,5	-0,972350
20,350333	0,5	-0,995650
20,358667	0,5	-0,989000
20,367000	0,5	-0,992250
20,375333	0,5	-0,991250
20,383667	0,5	-0,997300
20,392000	0,5	-0,993250
20,400333	0,5	-0,999250
20,408667	0,5	-0,995950
20,417000	0,5	-0,997950
20,425333	0,5	-0,998900
20,433667	0,5	-0,998950
20,442000	0,5	-0,980400
20,450333	0,5	-0,981100
20,458667	0,5	-0,990350
20,467000	0,5	-0,985950
20,475333	0,5	-0,985600
20,483667	0,5	-0,994400
20,492000	0,5	-1,010750
20,500333	0,5	-1,020800
20,508667	0,5	-1,020800
20,517000	0,5	-1,018050
20,525333	0,5	-1,019650
20,533667	0,5	-1,018800
20,542000	0,5	-1,023400
20,550333	0,5	-1,017450
20,558667	0,5	-1,019250
20,567000	0,5	-1,011850
20,575333	0,5	-1,017650
20,583667	0,5	-0,997400
20,592000	0,5	-0,979950
20,600333	0,5	-0,980000
20,608667	0,5	-0,978450
20,617000	0,5	-0,972500
20,625333	0,5	-0,972150
20,633667	0,5	-0,979600
20,642000	0,5	-0,994350
20,650333	0,5	-1,002050
20,658667	0,5	-0,992450
20,667000	0,5	-0,993700
20,675333	0,5	-0,998000
20,683667	0,5	-0,996600
20,692000	0,5	-1,001100
20,700333	0,5	-1,004500
20,708667	0,5	-1,000650
20,717000	0,5	-1,011400
20,725333	0,5	-1,011800
20,733667	0,5	-0,994150
20,742000	0,5	-0,988850
20,750333	0,5	-1,001200
20,758667	0,5	-1,008650
20,767000	0,5	-1,014000
20,775333	0,5	-1,024950
20,783667	0,5	-1,048050
20,792000	0,5	-1,062650
20,800333	0,5	-1,064800
20,808667	0,5	-1,067350
20,817000	0,5	-1,071850
20,825333	0,5	-1,071600
20,833667	0,5	-1,073750
20,842000	0,5	-1,078000
20,850333	0,5	-1,073300
20,858667	0,5	-1,079450
20,867000	0,5	-1,076200
20,875333	0,5	-1,072350
20,883667	0,5	-1,051050
20,892000	0,5	-1,047800
20,900333	0,5	-1,056600
20,908667	0,5	-1,059300
20,917000	0,5	-1,060900
20,925333	0,5	-1,076250
20,933667	0,5	-1,089850
20,942000	0,5	-1,092250
20,950333	0,5	-1,087900
20,958667	0,5	-1,090350
20,967000	0,5	-1,087100
20,975333	0,5	-1,087800
20,983667	0,5	-1,087450
20,992000	0,5	-1,084500
21,000333	0,5	-1,077300
21,008667	0,5	-1,074000
21,017000	0,5	-1,072050
21,025333	0,5	-1,043250
21,033667	0,5	-1,024100
21,042000	0,5	-1,028200
21,050333	0,5	-1,030850
21,058667	0,5	-1,034050
21,067000	0,5	-1,041600
21,075333	0,5	-1,046800
21,083667	0,5	-1,069500
21,092000	0,5	-1,061600
21,100333	0,5	-1,058200
21,108667	0,5	-1,055250
21,117000	0,5	-1,053900
21,125333	0,5	-1,047850
21,133667	0,5	-1,048900
21,142000	0,5	-1,043750
21,150333	0,5	-1,037000
21,158667	0,5	-1,038450
21,167000	0,5	-1,026350
21,175333	0,5	-0,996500
21,183667	0,5	-0,987450
21,192000	0,5	-0,992250
21,200333	0,5	-0,987750
21,208667	0,5	-0,993200
21,217000	0,5	-1,001300
21,225333	0,5	-1,019600
21,233667	0,5	-1,024500
21,242000	0,5	-1,015250
21,250333	0,5	-1,004150
21,258667	0,5	-1,005600
21,267000	0,5	-0,996050
21,275333	0,5	-0,987150
21,283667	0,5	-0,985350
21,292000	0,5	-0,977300
21,300333	0,5	-0,977200
21,308667	0,5	-0,965950
21,317000	0,5	-0,944500
21,325333	0,5	-0,918500
21,333667	0,5	-0,909550
21,342000	0,5	-0,911000
21,350333	0,5	-0,914450
21,358667	0,5	-0,910000
21,367000	0,5	-0,914600
21,375333	0,5	-0,915550
21,383667	0,5	-0,905550
21,392000	0,5	-0,894450
21,400333	0,5	-0,889450
21,408667	0,5	-0,875650
21,417000	0,5	-0,867950
21,425333	0,5	-0,862050
21,433667	0,5	-0,855400
21,442000	0,5	-0,842550
21,450333	0,5	-0,836150
21,458667	0,5	-0,832050
21,467000	0,5	-0,799500
21,475333	0,5	-0,778500
21,483667	0,5	-0,778000
21,492000	0,5	-0,771300
21,500333	0,5	-0,768950
21,508667	0,5	-0,772950
21,517000	0,5	-0,777500
21,525333	0,5	-0,779800
21,533667	0,5	-0,767000
21,542000	0,5	-0,760600
21,550333	0,5	-0,739350
21,558667	0,5	-0,729100
21,567000	0,5	-0,714000
21,575333	0,5	-0,701750
21,583667	0,5	-0,686950
21,592000	0,5	-0,660700
21,600333	0,5	-0,643900
21,608667	0,5	-0,602400
21,617000	0,5	-0,560100
21,625333	0,5	-0,529850
21,633667	0,5	-0,503950
21,642000	0,5	-0,472850
21,650333	0,5	-0,468700
21,658667	0,5	-0,477100
21,667000	0,5	-0,500650
21,675333	0,5	-0,514400
21,683667	0,5	-0,515400
21,692000	0,5	-0,511400
21,700333	0,5	-0,511000
21,708667	0,5	-0,502600
21,717000	0,5	-0,491200
21,725333	0,5	-0,478950
21,733667	0,5	-0,464500
21,742000	0,5	-0,457350
21,750333	0,5	-0,441450
21,758667	0,5	-0,406550
21,767000	0,5	-0,384750
21,775333	0,5	-0,379900
21,783667	0,5	-0,358150
21,792000	0,5	-0,344250
21,800333	0,5	-0,329600
21,808667	0,5	-0,328000
21,817000	0,5	-0,311900
21,825333	0,5	-0,283250
21,833667	0,5	-0,258500
21,842000	0,5	-0,239700
21,850333	0,5	-0,214300
21,858667	0,5	-0,190800
21,867000	0,5	-0,168400
21,875333	0,5	-0,140300
21,883667	0,5	-0,118500
21,892000	0,5	-0,097050
21,900333	0,5	-0,071050
21,908667	0,5	-0,036650
21,917000	0,5	-0,038400
21,925333	0,5	-0,019850
21,933667	0,5	-0,003000
21,942000	0,5	0,009750
21,950333	0,5	0,021650
21,958667	0,5	0,024750
21,967000	0,5	0,050800
21,975333	0,5	0,075700
21,983667	0,5	0,097550
21,992000	0,5	0,121750
22,000333	0,5	0,141500
22,008667	0,5	0,170250
22,017000	0,5	0,193600
22,025333	0,5	0,220850
22,033667	0,5	0,253550
22,042000	0,5	0,284300
22,050333	0,5	0,324100
22,058667	0,5	0,352450
22,067000	0,5	0,371300
22,075333	0,5	0,414450
22,083667	0,5	0,446500
22,092000	0,5	0,470700
22,100333	0,5	0,495550
22,108667	0,5	0,517800
22,117000	0,5	0,562450
22,125333	0,5	0,596850
22,133667	0,5	0,637050
22,142000	0,5	0,675500
22,150333	0,5	0,720200
22,158667	0,5	0,764550
22,167000	0,5	0,805100
22,175333	0,5	0,855850
22,183667	0,5	0,892850
22,192000	0,5	0,935750
22,200333	0,5	0,982300
22,208667	0,5	1,025500
22,217000	0,5	1,085400
22,225333	0,5	1,141050
22,233667	0,5	1,184600
22,242000	0,5	1,220500
22,250333	0,5	1,250000
22,258667	0,5	1,300600
22,267000	0,5	1,354350
22,275333	0,5	1,409550
22,283667	0,5	1,456800
22,292000	0,5	1,516450
22,300333	0,5	1,566750
22,308667	0,5	1,621250
22,317000	0,5	1,676600
22,325333	0,5	1,717150
22,333667	0,5	1,759950
22,342000	0,5	1,777050
22,350333	0,5	1,835000
22,358667	0,5	1,873600
22,367000	0,5	1,949700
22,375333	0,5	1,995950
22,383667	0,5	2,049450
22,392000	0,5	2,095950
22,400333	0,5	2,144650
22,408667	0,5	2,206300
22,417000	0,5	2,270200
22,425333	0,5	2,326500
22,433667	0,5	2,396700
22,442000	0,5	2,456200
22,450333	0,5	2,526400
22,458667	0,5	2,591650
22,467000	0,5	2,652650
22,475333	0,5	2,720050
22,483667	0,5	2,772500
22,492000	0,5	2,811800
22,500333	0,5	2,879350
22,508667	0,5	2,959600
22,517000	0,5	3,025750
22,525333	0,5	3,075800
22,533667	0,5	3,120650
22,542000	0,5	3,163750
22,550333	0,5	3,201250
22,558667	0,5	3,261650
22,567000	0,5	3,305800
22,575333	0,5	3,352100
22,583667	0,5	3,386600
22,592000	0,5	3,420400
22,600333	0,5	3,443100
22,608667	0,5	3,463900
22,617000	0,5	3,471050
22,625333	0,5	3,467900
22,633667	0,5	3,435600
22,642000	0,5	3,412400
22,650333	0,5	3,404000
22,658667	0,5	3,384550
22,667000	0,5	3,343200
22,675333	0,5	3,277850
22,683667	0,5	3,206300
22,692000	0,5	3,116950
22,700333	0,5	3,044200
22,708667	0,5	2,959500
22,717000	0,5	2,877650
22,725333	0,5	2,784400
22,733667	0,5	2,692500
22,742000	0,5	2,591700
22,750333	0,5	2,492850
22,758667	0,5	2,381200
22,767000	0,5	2,265600
22,775333	0,5	2,143300
22,783667	0,5	1,963250
22,792000	0,5	1,841950
22,800333	0,5	1,725350
22,808667	0,5	1,576850
22,817000	0,5	1,419200
22,825333	0,5	1,256550
22,833667	0,5	1,105200
22,842000	0,5	0,938100
22,850333	0,5	0,779900
22,858667	0,5	0,620250
22,867000	0,5	0,470650
22,875333	0,5	0,317750
22,883667	0,5	0,177750
22,892000	0,5	0,031550
22,900333	0,5	-0,107200
22,908667	0,5	-0,246300
22,917000	0,5	-0,384550
22,925333	0,5	-0,497550
22,933667	0,5	-0,637200
22,942000	0,5	-0,764850
22,950333	0,5	-0,911100
22,958667	0,5	-1,041800
22,967000	0,5	-1,154400
22,975333	0,5	-1,253800
22,983667	0,5	-1,346500
22,992000	0,5	-1,445950
23,000333	0,5	-1,537300
23,008667	0,5	-1,606150
23,017000	0,5	-1,680150
23,025333	0,5	-1,740900
23,033667	0,5	-1,806300
23,042000	0,5	-1,861150
23,050333	0,5	-1,920600
23,058667	0,5	-1,975650
23,067000	0,5	-2,023000
23,075333	0,5	-2,055150
23,083667	0,5	-2,098250
23,092000	0,5	-2,152100
23,100333	0,5	-2,223650
23,108667	0,5	-2,263750
23,117000	0,5	-2,286300
23,125333	0,5	-2,306100
23,133667	0,5	-2,312400
23,142000	0,5	-2,334200
23,150333	0,5	-2,336200
23,158667	0,5	-2,340650
23,167000	0,5	-2,330300
23,175333	0,5	-2,331500
23,183667	0,5	-2,316250
23,192000	0,5	-2,309850
23,200333	0,5	-2,295800
23,208667	0,5	-2,291450
23,217000	0,5	-2,269850
23,225333	0,5	-2,282450
23,233667	0,5	-2,254350
23,242000	0,5	-2,239200
23,250333	0,5	-2,259000
23,258667	0,5	-2,255750
23,267000	0,5	-2,241900
23,275333	0,5	-2,220150
23,283667	0,5	-2,200400
23,292000	0,5	-2,181100
23,300333	0,5	-2,158000
23,308667	0,5	-2,127650
23,317000	0,5	-2,095050
23,325333	0,5	-2,063900
23,333667	0,5	-2,029250
23,342000	0,5	-1,997100
23,350333	0,5	-1,966350
23,358667	0,5	-1,936200
23,367000	0,5	-1,927650
23,375333	0,5	-1,915950
23,383667	0,5	-1,850650
23,392000	0,5	-1,822500
23,400333	0,5	-1,820200
23,408667	0,5	-1,806700
23,417000	0,5	-1,786400
23,425333	0,5	-1,762600
23,433667	0,5	-1,746800
23,442000	0,5	-1,729550
23,450333	0,5	-1,709400
23,458667	0,5	-1,690000
23,467000	0,5	-1,669600
23,475333	0,5	-1,645200
23,483667	0,5	-1,624050
23,492000	0,5	-1,606150
23,500333	0,5	-1,582100
23,508667	0,5	-1,568500
23,517000	0,5	-1,643750
23,525333	0,5	-1,587150
23,533667	0,5	-1,541150
23,542000	0,5	-1,497350
23,550333	0,5	-1,487850
23,558667	0,5	-1,479050
23,567000	0,5	-1,470400
23,575333	0,5	-1,461300
23,583667	0,5	-1,448650
23,592000	0,5	-1,441100
23,600333	0,5	-1,427450
23,608667	0,5	-1,419300
23,617000	0,5	-1,408950
23,625333	0,5	-1,397550
23,633667	0,5	-1,391600
23,642000	0,5	-1,382050
23,650333	0,5	-1,377750
23,658667	0,5	-1,403300
23,667000	0,5	-1,483000
23,675333	0,5	-1,463300
23,683667	0,5	-1,397600
23,692000	0,5	-1,369400
23,700333	0,5	-1,366850
23,708667	0,5	-1,366900
23,717000	0,5	-1,369600
23,725333	0,5	-1,371050
23,733667	0,5	-1,359550
23,742000	0,5	-1,349350
23,750333	0,5	-1,334300
23,758667	0,5	-1,327700
23,767000	0,5	-1,317550
23,775333	0,5	-1,303300
23,783667	0,5	-1,291600
23,792000	0,5	-1,278900
23,800333	0,5	-1,272150
23,808667	0,5	-1,357800
23,817000	0,5	-1,381300
23,825333	0,5	-1,350850
23,833667	0,5	-1,286800
23,842000	0,5	-1,258100
23,850333	0,5	-1,254350
23,858667	0,5	-1,252250
23,867000	0,5	-1,272850
23,875333	0,5	-1,258750
23,883667	0,5	-1,255850
23,892000	0,5	-1,242200
23,900333	0,5	-1,241600
23,908667	0,5	-1,226850
23,917000	0,5	-1,219550
23,925333	0,5	-1,203950
23,933667	0,5	-1,190400
23,942000	0,5	-1,182950
23,950333	0,5	-1,177300
23,958667	0,5	-1,302900
23,967000	0,5	-1,251850
23,975333	0,5	-1,225800
23,983667	0,5	-1,164600
23,992000	0,5	-1,133050
24,000333	0,5	-1,123050
24,008667	0,5	-1,119900
24,017000	0,5	-1,125900
24,025333	0,5	-1,106950
24,033667	0,5	-1,080250
24,042000	0,5	-1,072300
24,050333	0,5	-1,052600
24,058667	0,5	-1,040750
24,067000	0,5	-1,023200
24,075333	0,5	-1,010550
24,083667	0,5	-0,995250
24,092000	0,5	-0,988500
24,100333	0,5	-1,032700
24,108667	0,5	-1,078500
24,117000	0,5	-1,045400
24,125333	0,5	-1,010450
24,133667	0,5	-0,961750
24,142000	0,5	-0,948150
24,150333	0,5	-0,944050
24,158667	0,5	-0,939450
24,167000	0,5	-0,946000
24,175333	0,5	-0,915100
24,183667	0,5	-0,908900
24,192000	0,5	-0,890950
24,200333	0,5	-0,880000
24,208667	0,5	-0,854500
24,217000	0,5	-0,840700
24,225333	0,5	-0,816100
24,233667	0,5	-0,798700
24,242000	0,5	-0,782100
24,250333	0,5	-0,849150
24,258667	0,5	-0,831700
24,267000	0,5	-0,811800
24,275333	0,5	-0,761450
24,283667	0,5	-0,734100
24,292000	0,5	-0,718650
24,300333	0,5	-0,712950
24,308667	0,5	-0,722450
24,317000	0,5	-0,707900
24,325333	0,5	-0,697550
24,333667	0,5	-0,679050
24,342000	0,5	-0,673200
24,350333	0,5	-0,655800
24,358667	0,5	-0,645500
24,367000	0,5	-0,630300
24,375333	0,5	-0,621400
24,383667	0,5	-0,610950
24,392000	0,5	-0,608200
24,400333	0,5	-0,662900
24,408667	0,5	-0,637100
24,417000	0,5	-0,609250
24,425333	0,5	-0,575350
24,433667	0,5	-0,553450
24,442000	0,5	-0,542900
24,450333	0,5	-0,531700
24,458667	0,5	-0,534800
24,467000	0,5	-0,526200
24,475333	0,5	-0,507900
24,483667	0,5	-0,496250
24,492000	0,5	-0,482950
24,500333	0,5	-0,466800
24,508667	0,5	-0,457000
24,517000	0,5	-0,444750
24,525333	0,5	-0,427700
24,533667	0,5	-0,419600
24,542000	0,5	-0,424450
24,550333	0,5	-0,456850
24,558667	0,5	-0,435000
24,567000	0,5	-0,417700
24,575333	0,5	-0,392250
24,583667	0,5	-0,379900
24,592000	0,5	-0,373300
24,600333	0,5	-0,377400
24,608667	0,5	-0,380950
24,617000	0,5	-0,371550
24,625333	0,5	-0,361700
24,633667	0,5	-0,350750
24,642000	0,5	-0,337100
24,650333	0,5	-0,326300
24,658667	0,5	-0,314200
24,667000	0,5	-0,302550
24,675333	0,5	-0,292600
24,683667	0,5	-0,282550
24,692000	0,5	-0,299150
24,700333	0,5	-0,289200
24,708667	0,5	-0,282300
24,717000	0,5	-0,258600
24,725333	0,5	-0,239500
24,733667	0,5	-0,229050
24,742000	0,5	-0,225650
24,750333	0,5	-0,231850
24,758667	0,5	-0,227250
24,767000	0,5	-0,217450
24,775333	0,5	-0,211150
24,783667	0,5	-0,206750
24,792000	0,5	-0,199050
24,800333	0,5	-0,190550
24,808667	0,5	-0,185650
24,817000	0,5	-0,176400
24,825333	0,5	-0,170100
24,833667	0,5	-0,164750
24,842000	0,5	-0,179300
24,850333	0,5	-0,171650
24,858667	0,5	-0,163450
24,867000	0,5	-0,146300
24,875333	0,5	-0,135450
24,883667	0,5	-0,129850
24,892000	0,5	-0,124650
24,900333	0,5	-0,125750
24,908667	0,5	-0,116600
24,917000	0,5	-0,109300
24,925333	0,5	-0,103750
24,933667	0,5	-0,098350
24,942000	0,5	-0,087650
24,950333	0,5	-0,082350
24,958667	0,5	-0,074200
24,967000	0,5	-0,069150
24,975333	0,5	-0,063350
24,983667	0,5	-0,062650
24,992000	0,5	-0,066250
25,000333	0,5	-0,057250
25,008667	0,5	-0,057000
25,017000	0,5	-0,047400
25,025333	0,5	-0,039600
25,033667	0,5	-0,038850
25,042000	0,5	-0,037800
25,050333	0,5	-0,040550
25,058667	0,5	-0,036850
25,067000	0,5	-0,028750
25,075333	0,5	-0,027100
25,083667	0,5	-0,020350
25,092000	0,5	-0,016250
25,100333	0,5	-0,009100
25,108667	0,5	-0,001500
25,117000	0,5	0,003650
25,125333	0,5	0,008550
25,133667	0,5	0,008600
25,142000	0,5	0,015500
25,150333	0,5	0,021400
25,158667	0,5	0,029650
25,167000	0,5	0,030850
25,175333	0,5	0,037250
25,183667	0,5	0,037900
25,192000	0,5	0,036550
25,200333	0,5	0,039550
25,208667	0,5	0,042800
25,217000	0,5	0,042700
25,225333	0,5	0,044500
25,233667	0,5	0,046050
25,242000	0,5	0,047650
25,250333	0,5	0,052250
25,258667	0,5	0,055100
25,267000	0,5	0,055750
25,275333	0,5	0,057300
25,283667	0,5	0,059750
25,292000	0,5	0,064500
25,300333	0,5	0,068750
25,308667	0,5	0,069600
25,317000	0,5	0,075550
25,325333	0,5	0,078500
25,333667	0,5	0,076650
25,342000	0,5	0,084000
25,350333	0,5	0,083250
25,358667	0,5	0,086250
25,367000	0,5	0,092600
25,375333	0,5	0,091650
25,383667	0,5	0,093900
25,392000	0,5	0,097600
25,400333	0,5	0,099250
25,408667	0,5	0,097950
25,417000	0,5	0,102600
25,425333	0,5	0,104200
25,433667	0,5	0,108000
25,442000	0,5	0,106700
25,450333	0,5	0,107900
25,458667	0,5	0,103950
25,467000	0,5	0,104450
25,475333	0,5	0,108000
25,483667	0,5	0,108400
25,492000	0,5	0,114600
25,500333	0,5	0,113850
25,508667	0,5	0,117050
25,517000	0,5	0,117650
25,525333	0,5	0,121800
25,533667	0,5	0,122900
25,542000	0,5	0,126500
25,550333	0,5	0,127850
25,558667	0,5	0,127900
25,567000	0,5	0,133700
25,575333	0,5	0,135300
25,583667	0,5	0,139700
25,592000	0,5	0,142800
25,600333	0,5	0,140950
25,608667	0,5	0,137950
25,617000	0,5	0,140000
25,625333	0,5	0,141050
25,633667	0,5	0,144300
25,642000	0,5	0,147000
25,650333	0,5	0,149050
25,658667	0,5	0,145900
25,667000	0,5	0,148500
25,675333	0,5	0,145800
25,683667	0,5	0,146950
25,692000	0,5	0,147450
25,700333	0,5	0,150400
25,708667	0,5	0,150450
25,717000	0,5	0,153300
25,725333	0,5	0,159350
25,733667	0,5	0,157500
25,742000	0,5	0,165800
25,750333	0,5	0,158000
25,758667	0,5	0,159250
25,767000	0,5	0,163400
25,775333	0,5	0,169000
25,783667	0,5	0,171850
25,792000	0,5	0,178800
25,800333	0,5	0,172950
25,808667	0,5	0,177900
25,817000	0,5	0,174850
25,825333	0,5	0,178400
25,833667	0,5	0,178950
25,842000	0,5	0,180200
25,850333	0,5	0,180650
25,858667	0,5	0,185300
25,867000	0,5	0,184550
25,875333	0,5	0,183000
25,883667	0,5	0,186150
25,892000	0,5	0,196900
25,900333	0,5	0,188700
25,908667	0,5	0,190200
25,917000	0,5	0,193750
25,925333	0,5	0,199300
25,933667	0,5	0,213650
25,942000	0,5	0,206250
25,950333	0,5	0,211550
25,958667	0,5	0,211650
25,967000	0,5	0,219100
25,975333	0,5	0,216150
25,983667	0,5	0,217350
25,992000	0,5	0,212850
26,000333	0,5	0,218100
