File Path	chrom://chromeleon01/ikbm_chromeleon/2022/ICS-5000/ED1/Esteban/20220612_Cell_7_4_eg.seq/529.smp/ED_1.channel/ED_1.chm
Channel	ED_1

Injection Information:
Data Vault	ikbm_chromeleon
Injection	7_00.5h-EGS_3
Injection Number	115
Position	BB7
Comment	
Processing Method	Stop sequence after Cell Death
Instrument Method	ICS5000_PA200_FullNative_Ox_26min_ED1
Type	Unknown
Status	Finished
Injection Date	14.06.2022
Injection Time	22:26:57
Injection Volume (µl)	5,0
Dilution Factor	1,0000
Weight	1,0000

Chromatogram Data Information:
Time Min. (min)	0,000333
Time Max. (min)	26,000333
Data Points	3121
Detector	EDet1
Generating Data System	Chromeleon 7.2.9.11323
Exporting Data System	Chromeleon 7.2.9.0
Operator	Instrument Controller
Signal Quantity	
Signal Unit	nC
Signal Min.	-2,582250
Signal Max.	856,072363
Channel	ED_1
Driver Name	DC-5000
Channel Type	Evaluation
Min. Step (s)	0,5
Max. Step (s)	0,5
Average Step (s)	0,5

Signal Parameter Information:
Signal Info	

Chromatogram Data:
Time (min)	Step (s)	Value (nC)
0,000333	n.a.	-0,006500
0,008667	0,5	-0,073750
0,017000	0,5	-0,063700
0,025333	0,5	-0,051050
0,033667	0,5	-0,054300
0,042000	0,5	-0,052650
0,050333	0,5	-0,032600
0,058667	0,5	0,002250
0,067000	0,5	0,016600
0,075333	0,5	0,007050
0,083667	0,5	-0,006350
0,092000	0,5	0,005050
0,100333	0,5	-0,000750
0,108667	0,5	0,005950
0,117000	0,5	-0,010800
0,125333	0,5	-0,003600
0,133667	0,5	-0,016550
0,142000	0,5	-0,003500
0,150333	0,5	0,002900
0,158667	0,5	-0,014750
0,167000	0,5	-0,001450
0,175333	0,5	-0,014800
0,183667	0,5	-0,030450
0,192000	0,5	-0,033750
0,200333	0,5	-0,025400
0,208667	0,5	-0,003650
0,217000	0,5	0,010450
0,225333	0,5	-0,004400
0,233667	0,5	-0,001350
0,242000	0,5	0,000150
0,250333	0,5	0,002950
0,258667	0,5	-0,007650
0,267000	0,5	-0,009550
0,275333	0,5	-0,019950
0,283667	0,5	-0,012350
0,292000	0,5	-0,006400
0,300333	0,5	0,046000
0,308667	0,5	0,050200
0,317000	0,5	0,042400
0,325333	0,5	-0,028900
0,333667	0,5	-0,061000
0,342000	0,5	-0,067550
0,350333	0,5	-0,052950
0,358667	0,5	-0,023900
0,367000	0,5	-0,014700
0,375333	0,5	-0,018100
0,383667	0,5	-0,018700
0,392000	0,5	-0,019150
0,400333	0,5	-0,028650
0,408667	0,5	-0,027000
0,417000	0,5	-0,036000
0,425333	0,5	-0,028700
0,433667	0,5	-0,032600
0,442000	0,5	-0,031800
0,450333	0,5	-0,054000
0,458667	0,5	-0,049100
0,467000	0,5	-0,036800
0,475333	0,5	-0,059250
0,483667	0,5	-0,063650
0,492000	0,5	-0,056550
0,500333	0,5	-0,045650
0,508667	0,5	-0,009550
0,517000	0,5	-0,020000
0,525333	0,5	-0,013250
0,533667	0,5	-0,025800
0,542000	0,5	-0,020050
0,550333	0,5	-0,024400
0,558667	0,5	-0,024650
0,567000	0,5	-0,032000
0,575333	0,5	-0,043400
0,583667	0,5	-0,030950
0,592000	0,5	-0,042400
0,600333	0,5	-0,045600
0,608667	0,5	-0,033200
0,617000	0,5	-0,034550
0,625333	0,5	-0,057300
0,633667	0,5	-0,052950
0,642000	0,5	-0,052250
0,650333	0,5	-0,015100
0,658667	0,5	-0,006750
0,667000	0,5	0,001100
0,675333	0,5	-0,011150
0,683667	0,5	-0,007150
0,692000	0,5	-0,018700
0,700333	0,5	-0,014550
0,708667	0,5	-0,020700
0,717000	0,5	-0,018300
0,725333	0,5	-0,019200
0,733667	0,5	-0,018550
0,742000	0,5	-0,020600
0,750333	0,5	-0,024500
0,758667	0,5	0,002200
0,767000	0,5	-0,015750
0,775333	0,5	-0,029050
0,783667	0,5	-0,029100
0,792000	0,5	-0,016950
0,800333	0,5	0,016600
0,808667	0,5	0,026150
0,817000	0,5	0,008550
0,825333	0,5	0,019050
0,833667	0,5	0,014600
0,842000	0,5	0,023200
0,850333	0,5	0,012650
0,858667	0,5	0,018750
0,867000	0,5	0,016000
0,875333	0,5	0,019400
0,883667	0,5	0,020450
0,892000	0,5	0,014450
0,900333	0,5	0,009200
0,908667	0,5	0,045450
0,917000	0,5	0,017200
0,925333	0,5	0,012350
0,933667	0,5	0,020600
0,942000	0,5	0,027700
0,950333	0,5	0,067900
0,958667	0,5	0,051450
0,967000	0,5	0,062350
0,975333	0,5	0,055650
0,983667	0,5	0,063950
0,992000	0,5	0,056800
1,000333	0,5	0,065950
1,008667	0,5	0,058050
1,017000	0,5	0,063600
1,025333	0,5	0,061900
1,033667	0,5	0,065850
1,042000	0,5	0,046250
1,050333	0,5	0,060000
1,058667	0,5	0,065200
1,067000	0,5	0,051000
1,075333	0,5	0,049100
1,083667	0,5	0,065950
1,092000	0,5	0,084450
1,100333	0,5	0,110750
1,108667	0,5	0,100400
1,117000	0,5	0,097500
1,125333	0,5	0,097200
1,133667	0,5	0,095900
1,142000	0,5	0,094200
1,150333	0,5	0,093600
1,158667	0,5	0,101550
1,167000	0,5	0,091700
1,175333	0,5	0,099850
1,183667	0,5	0,095700
1,192000	0,5	0,094550
1,200333	0,5	0,106350
1,208667	0,5	0,105500
1,217000	0,5	0,088800
1,225333	0,5	0,092150
1,233667	0,5	0,097550
1,242000	0,5	0,126450
1,250333	0,5	0,136950
1,258667	0,5	0,128700
1,267000	0,5	0,122600
1,275333	0,5	0,134800
1,283667	0,5	0,127800
1,292000	0,5	0,133650
1,300333	0,5	0,129400
1,308667	0,5	0,125050
1,317000	0,5	0,128200
1,325333	0,5	0,127150
1,333667	0,5	0,143350
1,342000	0,5	0,123100
1,350333	0,5	0,144000
1,358667	0,5	0,115900
1,367000	0,5	0,113300
1,375333	0,5	0,110700
1,383667	0,5	0,132150
1,392000	0,5	0,157350
1,400333	0,5	0,168650
1,408667	0,5	0,158050
1,417000	0,5	0,162950
1,425333	0,5	0,152400
1,433667	0,5	0,154600
1,442000	0,5	0,149300
1,450333	0,5	0,151250
1,458667	0,5	0,148000
1,467000	0,5	0,147200
1,475333	0,5	0,152100
1,483667	0,5	0,146850
1,492000	0,5	0,149100
1,500333	0,5	0,160050
1,508667	0,5	0,137150
1,517000	0,5	0,135300
1,525333	0,5	0,141800
1,533667	0,5	0,158550
1,542000	0,5	0,184700
1,550333	0,5	0,181800
1,558667	0,5	0,223350
1,567000	0,5	0,330850
1,575333	0,5	0,642550
1,583667	0,5	1,054350
1,592000	0,5	1,755250
1,600333	0,5	5,447850
1,608667	0,5	21,659050
1,617000	0,5	76,831901
1,625333	0,5	223,571253
1,633667	0,5	477,792457
1,642000	0,5	733,914961
1,650333	0,5	856,072363
1,658667	0,5	808,142062
1,667000	0,5	646,930260
1,675333	0,5	464,218457
1,683667	0,5	320,979105
1,692000	0,5	226,145453
1,700333	0,5	166,409002
1,708667	0,5	129,187902
1,717000	0,5	106,784352
1,725333	0,5	93,905601
1,733667	0,5	85,471551
1,742000	0,5	77,842451
1,750333	0,5	70,537001
1,758667	0,5	64,152601
1,767000	0,5	58,505501
1,775333	0,5	53,109901
1,783667	0,5	48,449851
1,792000	0,5	45,707801
1,800333	0,5	45,717651
1,808667	0,5	48,468101
1,817000	0,5	52,688601
1,825333	0,5	56,567301
1,833667	0,5	59,067751
1,842000	0,5	59,625801
1,850333	0,5	58,081151
1,858667	0,5	54,939001
1,867000	0,5	51,169751
1,875333	0,5	47,596351
1,883667	0,5	44,584801
1,892000	0,5	42,201101
1,900333	0,5	40,269751
1,908667	0,5	38,554251
1,917000	0,5	36,889101
1,925333	0,5	35,356401
1,933667	0,5	34,117301
1,942000	0,5	33,254500
1,950333	0,5	32,418950
1,958667	0,5	31,513550
1,967000	0,5	30,551750
1,975333	0,5	29,729100
1,983667	0,5	29,223350
1,992000	0,5	29,152900
2,000333	0,5	29,671600
2,008667	0,5	30,456750
2,017000	0,5	30,802250
2,025333	0,5	30,293100
2,033667	0,5	29,216650
2,042000	0,5	28,091750
2,050333	0,5	27,239250
2,058667	0,5	26,708400
2,067000	0,5	26,441150
2,075333	0,5	26,320850
2,083667	0,5	26,468700
2,092000	0,5	27,035450
2,100333	0,5	28,056250
2,108667	0,5	29,288950
2,117000	0,5	30,504650
2,125333	0,5	32,094100
2,133667	0,5	34,858601
2,142000	0,5	38,730651
2,150333	0,5	42,508951
2,158667	0,5	44,607201
2,167000	0,5	44,580951
2,175333	0,5	42,656701
2,183667	0,5	39,227201
2,192000	0,5	35,066951
2,200333	0,5	31,247000
2,208667	0,5	28,409400
2,217000	0,5	26,597500
2,225333	0,5	25,749900
2,233667	0,5	26,021100
2,242000	0,5	27,628100
2,250333	0,5	30,070350
2,258667	0,5	31,679850
2,267000	0,5	31,150400
2,275333	0,5	29,026950
2,283667	0,5	26,664400
2,292000	0,5	24,809150
2,300333	0,5	23,501000
2,308667	0,5	22,602500
2,317000	0,5	21,991250
2,325333	0,5	21,642350
2,333667	0,5	21,401250
2,342000	0,5	21,191650
2,350333	0,5	21,006900
2,358667	0,5	20,976500
2,367000	0,5	21,192200
2,375333	0,5	21,577200
2,383667	0,5	21,967600
2,392000	0,5	22,194700
2,400333	0,5	22,415500
2,408667	0,5	22,876950
2,417000	0,5	23,656750
2,425333	0,5	24,363650
2,433667	0,5	24,449500
2,442000	0,5	23,837000
2,450333	0,5	22,980800
2,458667	0,5	22,245900
2,467000	0,5	21,750950
2,475333	0,5	21,409800
2,483667	0,5	21,161250
2,492000	0,5	20,939850
2,500333	0,5	20,777700
2,508667	0,5	20,628250
2,517000	0,5	20,467450
2,525333	0,5	20,277300
2,533667	0,5	20,099100
2,542000	0,5	19,900950
2,550333	0,5	19,757850
2,558667	0,5	19,657750
2,567000	0,5	19,573000
2,575333	0,5	19,466900
2,583667	0,5	19,361850
2,592000	0,5	19,594200
2,600333	0,5	20,805500
2,608667	0,5	21,926700
2,617000	0,5	21,320400
2,625333	0,5	19,921400
2,633667	0,5	18,913300
2,642000	0,5	18,368000
2,650333	0,5	18,056600
2,658667	0,5	17,845150
2,667000	0,5	17,682950
2,675333	0,5	17,588850
2,683667	0,5	17,483600
2,692000	0,5	17,388850
2,700333	0,5	17,305550
2,708667	0,5	17,232450
2,717000	0,5	17,170350
2,725333	0,5	17,101550
2,733667	0,5	17,002850
2,742000	0,5	16,898650
2,750333	0,5	16,781150
2,758667	0,5	16,671900
2,767000	0,5	16,579150
2,775333	0,5	16,506600
2,783667	0,5	16,484050
2,792000	0,5	16,520400
2,800333	0,5	16,692400
2,808667	0,5	17,021950
2,817000	0,5	17,607000
2,825333	0,5	18,449550
2,833667	0,5	19,348450
2,842000	0,5	20,194500
2,850333	0,5	20,869350
2,858667	0,5	21,275950
2,867000	0,5	21,423100
2,875333	0,5	21,218800
2,883667	0,5	20,758500
2,892000	0,5	20,123300
2,900333	0,5	19,481450
2,908667	0,5	18,956150
2,917000	0,5	18,724200
2,925333	0,5	18,927600
2,933667	0,5	19,723200
2,942000	0,5	21,156050
2,950333	0,5	23,067500
2,958667	0,5	25,126300
2,967000	0,5	26,917150
2,975333	0,5	28,279500
2,983667	0,5	29,273150
2,992000	0,5	30,454650
3,000333	0,5	32,190550
3,008667	0,5	34,408401
3,017000	0,5	36,516851
3,025333	0,5	37,738751
3,033667	0,5	37,638501
3,042000	0,5	36,194951
3,050333	0,5	33,697801
3,058667	0,5	30,642050
3,067000	0,5	27,511350
3,075333	0,5	24,684950
3,083667	0,5	22,383900
3,092000	0,5	20,709400
3,100333	0,5	19,677350
3,108667	0,5	19,310800
3,117000	0,5	19,694500
3,125333	0,5	20,858450
3,133667	0,5	22,621800
3,142000	0,5	24,674500
3,150333	0,5	26,477650
3,158667	0,5	27,518550
3,167000	0,5	27,519350
3,175333	0,5	26,434050
3,183667	0,5	24,609700
3,192000	0,5	22,385800
3,200333	0,5	20,166650
3,208667	0,5	18,183800
3,217000	0,5	16,581450
3,225333	0,5	15,343650
3,233667	0,5	14,446250
3,242000	0,5	13,797700
3,250333	0,5	13,321150
3,258667	0,5	12,954500
3,267000	0,5	12,705900
3,275333	0,5	12,495350
3,283667	0,5	12,314100
3,292000	0,5	12,175400
3,300333	0,5	12,069300
3,308667	0,5	11,989350
3,317000	0,5	11,911750
3,325333	0,5	11,832050
3,333667	0,5	11,769100
3,342000	0,5	11,753900
3,350333	0,5	11,786100
3,358667	0,5	11,910650
3,367000	0,5	12,116300
3,375333	0,5	12,417550
3,383667	0,5	12,743000
3,392000	0,5	13,043400
3,400333	0,5	13,200150
3,408667	0,5	13,187350
3,417000	0,5	13,006950
3,425333	0,5	12,652350
3,433667	0,5	12,231250
3,442000	0,5	11,825450
3,450333	0,5	11,482600
3,458667	0,5	11,228900
3,467000	0,5	11,026000
3,475333	0,5	10,858850
3,483667	0,5	10,733150
3,492000	0,5	10,644550
3,500333	0,5	10,565900
3,508667	0,5	10,504300
3,517000	0,5	10,463500
3,525333	0,5	10,426350
3,533667	0,5	10,414200
3,542000	0,5	10,399250
3,550333	0,5	10,402000
3,558667	0,5	10,430500
3,567000	0,5	10,510950
3,575333	0,5	10,606300
3,583667	0,5	10,788700
3,592000	0,5	11,031200
3,600333	0,5	11,307900
3,608667	0,5	11,542550
3,617000	0,5	11,659550
3,625333	0,5	11,622500
3,633667	0,5	11,458000
3,642000	0,5	11,183300
3,650333	0,5	10,861100
3,658667	0,5	10,544400
3,667000	0,5	10,270250
3,675333	0,5	10,055950
3,683667	0,5	9,897100
3,692000	0,5	9,785250
3,700333	0,5	9,690500
3,708667	0,5	9,653650
3,717000	0,5	9,602300
3,725333	0,5	9,566250
3,733667	0,5	9,551000
3,742000	0,5	9,556150
3,750333	0,5	9,571300
3,758667	0,5	9,580100
3,767000	0,5	9,557900
3,775333	0,5	9,550500
3,783667	0,5	9,521900
3,792000	0,5	9,505600
3,800333	0,5	9,490700
3,808667	0,5	9,497750
3,817000	0,5	9,510450
3,825333	0,5	9,523100
3,833667	0,5	9,528350
3,842000	0,5	9,488050
3,850333	0,5	9,438800
3,858667	0,5	9,414300
3,867000	0,5	9,332700
3,875333	0,5	9,260600
3,883667	0,5	9,206150
3,892000	0,5	9,162600
3,900333	0,5	9,167800
3,908667	0,5	9,127250
3,917000	0,5	9,111500
3,925333	0,5	9,082400
3,933667	0,5	9,072650
3,942000	0,5	9,041150
3,950333	0,5	9,016500
3,958667	0,5	8,971500
3,967000	0,5	8,935200
3,975333	0,5	8,896150
3,983667	0,5	8,856400
3,992000	0,5	8,805650
4,000333	0,5	8,769450
4,008667	0,5	8,768450
4,017000	0,5	8,731900
4,025333	0,5	8,721050
4,033667	0,5	8,719000
4,042000	0,5	8,733200
4,050333	0,5	8,755100
4,058667	0,5	8,748550
4,067000	0,5	8,730050
4,075333	0,5	8,714400
4,083667	0,5	8,678450
4,092000	0,5	8,644650
4,100333	0,5	8,596650
4,108667	0,5	8,560850
4,117000	0,5	8,516150
4,125333	0,5	8,490200
4,133667	0,5	8,466300
4,142000	0,5	8,438350
4,150333	0,5	8,415200
4,158667	0,5	8,413250
4,167000	0,5	8,366850
4,175333	0,5	8,353250
4,183667	0,5	8,345950
4,192000	0,5	8,347300
4,200333	0,5	8,353850
4,208667	0,5	8,327950
4,217000	0,5	8,319050
4,225333	0,5	8,305750
4,233667	0,5	8,302050
4,242000	0,5	8,291900
4,250333	0,5	8,288450
4,258667	0,5	8,279550
4,267000	0,5	8,283150
4,275333	0,5	8,273900
4,283667	0,5	8,268950
4,292000	0,5	8,238200
4,300333	0,5	8,240950
4,308667	0,5	8,217700
4,317000	0,5	8,190400
4,325333	0,5	8,167800
4,333667	0,5	8,160300
4,342000	0,5	8,158150
4,350333	0,5	8,158800
4,358667	0,5	8,131450
4,367000	0,5	8,108700
4,375333	0,5	8,090550
4,383667	0,5	8,073300
4,392000	0,5	8,050450
4,400333	0,5	8,025350
4,408667	0,5	8,008150
4,417000	0,5	7,986750
4,425333	0,5	7,981550
4,433667	0,5	7,955200
4,442000	0,5	7,948900
4,450333	0,5	7,961150
4,458667	0,5	7,946000
4,467000	0,5	7,938950
4,475333	0,5	7,942100
4,483667	0,5	7,952200
4,492000	0,5	7,981450
4,500333	0,5	7,992550
4,508667	0,5	7,989000
4,517000	0,5	7,972200
4,525333	0,5	7,962500
4,533667	0,5	7,927600
4,542000	0,5	7,908700
4,550333	0,5	7,879500
4,558667	0,5	7,852900
4,567000	0,5	7,824650
4,575333	0,5	7,793600
4,583667	0,5	7,763700
4,592000	0,5	7,746250
4,600333	0,5	7,732100
4,608667	0,5	7,703450
4,617000	0,5	7,686500
4,625333	0,5	7,677700
4,633667	0,5	7,689400
4,642000	0,5	7,695450
4,650333	0,5	7,687000
4,658667	0,5	7,663300
4,667000	0,5	7,661150
4,675333	0,5	7,643450
4,683667	0,5	7,638500
4,692000	0,5	7,619500
4,700333	0,5	7,611250
4,708667	0,5	7,594250
4,717000	0,5	7,586150
4,725333	0,5	7,575300
4,733667	0,5	7,558450
4,742000	0,5	7,565000
4,750333	0,5	7,552200
4,758667	0,5	7,530050
4,767000	0,5	7,516950
4,775333	0,5	7,509000
4,783667	0,5	7,521750
4,792000	0,5	7,525900
4,800333	0,5	7,506150
4,808667	0,5	7,509050
4,817000	0,5	7,496650
4,825333	0,5	7,496150
4,833667	0,5	7,487250
4,842000	0,5	7,481950
4,850333	0,5	7,467050
4,858667	0,5	7,469750
4,867000	0,5	7,463500
4,875333	0,5	7,457350
4,883667	0,5	7,444850
4,892000	0,5	7,471900
4,900333	0,5	7,454350
4,908667	0,5	7,455650
4,917000	0,5	7,459250
4,925333	0,5	7,477200
4,933667	0,5	7,519800
4,942000	0,5	7,532850
4,950333	0,5	7,553050
4,958667	0,5	7,579600
4,967000	0,5	7,624950
4,975333	0,5	7,671750
4,983667	0,5	7,742300
4,992000	0,5	7,814250
5,000333	0,5	7,909650
5,008667	0,5	8,009250
5,017000	0,5	8,132600
5,025333	0,5	8,236400
5,033667	0,5	8,355750
5,042000	0,5	8,490650
5,050333	0,5	8,583700
5,058667	0,5	8,669700
5,067000	0,5	8,755900
5,075333	0,5	8,825550
5,083667	0,5	8,906050
5,092000	0,5	8,925700
5,100333	0,5	8,947900
5,108667	0,5	8,959100
5,117000	0,5	8,960250
5,125333	0,5	8,940900
5,133667	0,5	8,904800
5,142000	0,5	8,857250
5,150333	0,5	8,779800
5,158667	0,5	8,696350
5,167000	0,5	8,589050
5,175333	0,5	8,462700
5,183667	0,5	8,332400
5,192000	0,5	8,212750
5,200333	0,5	8,063200
5,208667	0,5	7,937100
5,217000	0,5	7,824100
5,225333	0,5	7,741700
5,233667	0,5	7,670800
5,242000	0,5	7,589250
5,250333	0,5	7,518100
5,258667	0,5	7,471700
5,267000	0,5	7,431250
5,275333	0,5	7,397450
5,283667	0,5	7,369950
5,292000	0,5	7,354350
5,300333	0,5	7,348700
5,308667	0,5	7,352100
5,317000	0,5	7,358050
5,325333	0,5	7,363600
5,333667	0,5	7,390800
5,342000	0,5	7,424900
5,350333	0,5	7,448750
5,358667	0,5	7,482950
5,367000	0,5	7,523850
5,375333	0,5	7,561050
5,383667	0,5	7,594100
5,392000	0,5	7,576700
5,400333	0,5	7,569750
5,408667	0,5	7,539400
5,417000	0,5	7,506550
5,425333	0,5	7,457350
5,433667	0,5	7,407650
5,442000	0,5	7,353250
5,450333	0,5	7,312700
5,458667	0,5	7,267600
5,467000	0,5	7,216350
5,475333	0,5	7,181250
5,483667	0,5	7,171150
5,492000	0,5	7,142950
5,500333	0,5	7,117850
5,508667	0,5	7,098800
5,517000	0,5	7,096200
5,525333	0,5	7,102900
5,533667	0,5	7,091050
5,542000	0,5	7,072350
5,550333	0,5	7,049450
5,558667	0,5	7,031400
5,567000	0,5	7,002450
5,575333	0,5	6,984950
5,583667	0,5	6,958900
5,592000	0,5	6,950950
5,600333	0,5	6,934150
5,608667	0,5	6,922600
5,617000	0,5	6,895750
5,625333	0,5	6,893400
5,633667	0,5	6,890100
5,642000	0,5	6,873500
5,650333	0,5	6,860000
5,658667	0,5	6,854650
5,667000	0,5	6,859600
5,675333	0,5	6,870950
5,683667	0,5	6,863350
5,692000	0,5	6,852700
5,700333	0,5	6,841500
5,708667	0,5	6,834350
5,717000	0,5	6,829450
5,725333	0,5	6,817100
5,733667	0,5	6,812300
5,742000	0,5	6,800150
5,750333	0,5	6,801100
5,758667	0,5	6,788000
5,767000	0,5	6,779800
5,775333	0,5	6,787900
5,783667	0,5	6,786450
5,792000	0,5	6,776400
5,800333	0,5	6,773600
5,808667	0,5	6,776250
5,817000	0,5	6,793950
5,825333	0,5	6,800250
5,833667	0,5	6,795500
5,842000	0,5	6,795200
5,850333	0,5	6,794250
5,858667	0,5	6,789550
5,867000	0,5	6,783400
5,875333	0,5	6,779450
5,883667	0,5	6,769800
5,892000	0,5	6,766450
5,900333	0,5	6,754000
5,908667	0,5	6,748700
5,917000	0,5	6,727050
5,925333	0,5	6,734650
5,933667	0,5	6,707850
5,942000	0,5	6,690200
5,950333	0,5	6,675450
5,958667	0,5	6,675400
5,967000	0,5	6,689600
5,975333	0,5	6,684050
5,983667	0,5	6,666100
5,992000	0,5	6,669650
6,000333	0,5	6,659550
6,008667	0,5	6,654950
6,017000	0,5	6,645750
6,025333	0,5	6,636800
6,033667	0,5	6,628550
6,042000	0,5	6,618800
6,050333	0,5	6,613450
6,058667	0,5	6,594400
6,067000	0,5	6,579900
6,075333	0,5	6,595300
6,083667	0,5	6,566450
6,092000	0,5	6,556950
6,100333	0,5	6,552050
6,108667	0,5	6,552300
6,117000	0,5	6,574450
6,125333	0,5	6,563000
6,133667	0,5	6,563550
6,142000	0,5	6,553350
6,150333	0,5	6,560500
6,158667	0,5	6,549250
6,167000	0,5	6,554300
6,175333	0,5	6,541350
6,183667	0,5	6,536200
6,192000	0,5	6,531900
6,200333	0,5	6,525050
6,208667	0,5	6,520050
6,217000	0,5	6,514550
6,225333	0,5	6,517950
6,233667	0,5	6,498750
6,242000	0,5	6,496250
6,250333	0,5	6,497850
6,258667	0,5	6,514250
6,267000	0,5	6,528900
6,275333	0,5	6,529450
6,283667	0,5	6,524350
6,292000	0,5	6,524350
6,300333	0,5	6,519550
6,308667	0,5	6,516850
6,317000	0,5	6,508750
6,325333	0,5	6,504650
6,333667	0,5	6,493700
6,342000	0,5	6,491850
6,350333	0,5	6,485200
6,358667	0,5	6,482350
6,367000	0,5	6,475400
6,375333	0,5	6,470300
6,383667	0,5	6,445600
6,392000	0,5	6,438500
6,400333	0,5	6,434350
6,408667	0,5	6,443100
6,417000	0,5	6,456750
6,425333	0,5	6,442450
6,433667	0,5	6,438050
6,442000	0,5	6,433250
6,450333	0,5	6,434900
6,458667	0,5	6,431150
6,467000	0,5	6,430700
6,475333	0,5	6,422100
6,483667	0,5	6,427200
6,492000	0,5	6,428300
6,500333	0,5	6,430950
6,508667	0,5	6,432000
6,517000	0,5	6,450700
6,525333	0,5	6,451250
6,533667	0,5	6,451250
6,542000	0,5	6,455400
6,550333	0,5	6,469000
6,558667	0,5	6,490650
6,567000	0,5	6,498600
6,575333	0,5	6,495250
6,583667	0,5	6,488300
6,592000	0,5	6,482150
6,600333	0,5	6,476250
6,608667	0,5	6,463750
6,617000	0,5	6,448400
6,625333	0,5	6,442350
6,633667	0,5	6,432000
6,642000	0,5	6,427200
6,650333	0,5	6,408700
6,658667	0,5	6,408150
6,667000	0,5	6,408400
6,675333	0,5	6,392300
6,683667	0,5	6,377400
6,692000	0,5	6,378550
6,700333	0,5	6,383500
6,708667	0,5	6,396700
6,717000	0,5	6,389250
6,725333	0,5	6,387000
6,733667	0,5	6,380550
6,742000	0,5	6,377900
6,750333	0,5	6,373100
6,758667	0,5	6,374500
6,767000	0,5	6,372000
6,775333	0,5	6,368150
6,783667	0,5	6,374200
6,792000	0,5	6,374600
6,800333	0,5	6,377850
6,808667	0,5	6,395000
6,817000	0,5	6,405150
6,825333	0,5	6,406600
6,833667	0,5	6,421300
6,842000	0,5	6,439150
6,850333	0,5	6,473500
6,858667	0,5	6,501150
6,867000	0,5	6,528500
6,875333	0,5	6,566350
6,883667	0,5	6,627150
6,892000	0,5	6,695350
6,900333	0,5	6,800650
6,908667	0,5	6,937600
6,917000	0,5	7,136750
6,925333	0,5	7,392550
6,933667	0,5	7,727150
6,942000	0,5	8,129500
6,950333	0,5	8,557250
6,958667	0,5	9,021950
6,967000	0,5	9,443450
6,975333	0,5	9,785900
6,983667	0,5	10,021250
6,992000	0,5	10,134850
7,000333	0,5	10,115550
7,008667	0,5	9,965900
7,017000	0,5	9,712750
7,025333	0,5	9,421300
7,033667	0,5	9,079900
7,042000	0,5	8,727950
7,050333	0,5	8,353550
7,058667	0,5	7,984050
7,067000	0,5	7,619150
7,075333	0,5	7,297300
7,083667	0,5	7,021650
7,092000	0,5	6,797050
7,100333	0,5	6,614900
7,108667	0,5	6,499600
7,117000	0,5	6,395250
7,125333	0,5	6,326950
7,133667	0,5	6,271600
7,142000	0,5	6,239900
7,150333	0,5	6,219950
7,158667	0,5	6,186350
7,167000	0,5	6,155800
7,175333	0,5	6,121050
7,183667	0,5	6,093400
7,192000	0,5	6,055800
7,200333	0,5	6,029100
7,208667	0,5	6,000550
7,217000	0,5	5,980250
7,225333	0,5	5,958250
7,233667	0,5	5,939950
7,242000	0,5	5,917650
7,250333	0,5	5,899700
7,258667	0,5	5,885450
7,267000	0,5	5,866050
7,275333	0,5	5,845400
7,283667	0,5	5,832500
7,292000	0,5	5,825500
7,300333	0,5	5,827900
7,308667	0,5	5,812750
7,317000	0,5	5,800850
7,325333	0,5	5,786950
7,333667	0,5	5,771950
7,342000	0,5	5,757600
7,350333	0,5	5,736400
7,358667	0,5	5,717750
7,367000	0,5	5,699350
7,375333	0,5	5,683250
7,383667	0,5	5,663200
7,392000	0,5	5,644600
7,400333	0,5	5,632300
7,408667	0,5	5,628500
7,417000	0,5	5,616350
7,425333	0,5	5,606100
7,433667	0,5	5,597450
7,442000	0,5	5,592500
7,450333	0,5	5,585600
7,458667	0,5	5,570550
7,467000	0,5	5,548950
7,475333	0,5	5,536650
7,483667	0,5	5,519050
7,492000	0,5	5,506150
7,500333	0,5	5,490550
7,508667	0,5	5,475200
7,517000	0,5	5,463850
7,525333	0,5	5,452950
7,533667	0,5	5,437950
7,542000	0,5	5,423000
7,550333	0,5	5,412250
7,558667	0,5	5,389550
7,567000	0,5	5,369050
7,575333	0,5	5,355900
7,583667	0,5	5,353200
7,592000	0,5	5,355700
7,600333	0,5	5,356300
7,608667	0,5	5,354000
7,617000	0,5	5,348700
7,625333	0,5	5,339700
7,633667	0,5	5,326800
7,642000	0,5	5,317900
7,650333	0,5	5,315350
7,658667	0,5	5,336850
7,667000	0,5	5,400250
7,675333	0,5	5,500300
7,683667	0,5	5,599650
7,692000	0,5	5,652850
7,700333	0,5	5,636250
7,708667	0,5	5,545850
7,717000	0,5	5,448850
7,725333	0,5	5,373950
7,733667	0,5	5,326850
7,742000	0,5	5,300950
7,750333	0,5	5,264450
7,758667	0,5	5,235100
7,767000	0,5	5,200700
7,775333	0,5	5,176850
7,783667	0,5	5,155250
7,792000	0,5	5,142500
7,800333	0,5	5,129250
7,808667	0,5	5,122200
7,817000	0,5	5,120850
7,825333	0,5	5,114050
7,833667	0,5	5,109850
7,842000	0,5	5,107050
7,850333	0,5	5,104550
7,858667	0,5	5,100950
7,867000	0,5	5,098950
7,875333	0,5	5,112100
7,883667	0,5	5,133050
7,892000	0,5	5,165000
7,900333	0,5	5,200850
7,908667	0,5	5,250500
7,917000	0,5	5,321900
7,925333	0,5	5,425750
7,933667	0,5	5,579900
7,942000	0,5	5,799800
7,950333	0,5	6,112900
7,958667	0,5	6,546300
7,967000	0,5	7,134650
7,975333	0,5	7,878550
7,983667	0,5	8,769250
7,992000	0,5	9,759900
8,000333	0,5	10,722450
8,008667	0,5	11,531650
8,017000	0,5	12,062900
8,025333	0,5	12,225100
8,033667	0,5	12,001650
8,042000	0,5	11,383850
8,050333	0,5	10,450200
8,058667	0,5	9,350500
8,067000	0,5	8,259650
8,075333	0,5	7,320900
8,083667	0,5	6,601650
8,092000	0,5	6,100600
8,100333	0,5	5,781450
8,108667	0,5	5,585700
8,117000	0,5	5,469850
8,125333	0,5	5,413000
8,133667	0,5	5,394650
8,142000	0,5	5,428150
8,150333	0,5	5,490700
8,158667	0,5	5,586300
8,167000	0,5	5,668750
8,175333	0,5	5,715550
8,183667	0,5	5,712500
8,192000	0,5	5,638200
8,200333	0,5	5,525500
8,208667	0,5	5,391850
8,217000	0,5	5,266400
8,225333	0,5	5,147650
8,233667	0,5	5,050700
8,242000	0,5	4,975100
8,250333	0,5	4,923700
8,258667	0,5	4,893250
8,267000	0,5	4,895850
8,275333	0,5	4,935050
8,283667	0,5	5,001000
8,292000	0,5	5,045500
8,300333	0,5	5,019400
8,308667	0,5	4,934600
8,317000	0,5	4,836500
8,325333	0,5	4,753000
8,333667	0,5	4,699600
8,342000	0,5	4,662750
8,350333	0,5	4,639900
8,358667	0,5	4,621300
8,367000	0,5	4,613400
8,375333	0,5	4,613350
8,383667	0,5	4,617750
8,392000	0,5	4,629550
8,400333	0,5	4,641400
8,408667	0,5	4,643450
8,417000	0,5	4,629350
8,425333	0,5	4,601050
8,433667	0,5	4,577750
8,442000	0,5	4,567550
8,450333	0,5	4,570250
8,458667	0,5	4,586450
8,467000	0,5	4,607850
8,475333	0,5	4,620500
8,483667	0,5	4,621400
8,492000	0,5	4,622750
8,500333	0,5	4,646200
8,508667	0,5	4,706950
8,517000	0,5	4,781700
8,525333	0,5	4,826400
8,533667	0,5	4,806100
8,542000	0,5	4,735500
8,550333	0,5	4,648550
8,558667	0,5	4,570000
8,567000	0,5	4,507700
8,575333	0,5	4,459900
8,583667	0,5	4,432400
8,592000	0,5	4,409950
8,600333	0,5	4,397500
8,608667	0,5	4,394800
8,617000	0,5	4,399750
8,625333	0,5	4,410600
8,633667	0,5	4,411900
8,642000	0,5	4,400250
8,650333	0,5	4,389300
8,658667	0,5	4,380750
8,667000	0,5	4,374450
8,675333	0,5	4,371500
8,683667	0,5	4,369800
8,692000	0,5	4,368350
8,700333	0,5	4,374800
8,708667	0,5	4,393500
8,717000	0,5	4,447800
8,725333	0,5	4,538100
8,733667	0,5	4,635700
8,742000	0,5	4,688600
8,750333	0,5	4,680700
8,758667	0,5	4,628650
8,767000	0,5	4,568500
8,775333	0,5	4,522000
8,783667	0,5	4,487650
8,792000	0,5	4,466400
8,800333	0,5	4,450600
8,808667	0,5	4,446750
8,817000	0,5	4,445850
8,825333	0,5	4,455150
8,833667	0,5	4,468150
8,842000	0,5	4,502900
8,850333	0,5	4,570550
8,858667	0,5	4,676200
8,867000	0,5	4,793250
8,875333	0,5	4,873100
8,883667	0,5	4,880700
8,892000	0,5	4,811750
8,900333	0,5	4,720450
8,908667	0,5	4,661950
8,917000	0,5	4,645500
8,925333	0,5	4,644250
8,933667	0,5	4,599900
8,942000	0,5	4,529600
8,950333	0,5	4,455450
8,958667	0,5	4,409050
8,967000	0,5	4,388950
8,975333	0,5	4,391650
8,983667	0,5	4,393800
8,992000	0,5	4,382700
9,000333	0,5	4,366000
9,008667	0,5	4,352350
9,017000	0,5	4,344750
9,025333	0,5	4,347900
9,033667	0,5	4,362350
9,042000	0,5	4,391600
9,050333	0,5	4,449150
9,058667	0,5	4,542550
9,067000	0,5	4,681150
9,075333	0,5	4,824600
9,083667	0,5	4,936650
9,092000	0,5	4,983200
9,100333	0,5	4,982350
9,108667	0,5	4,962150
9,117000	0,5	4,949200
9,125333	0,5	4,939900
9,133667	0,5	4,927550
9,142000	0,5	4,900950
9,150333	0,5	4,881000
9,158667	0,5	4,878650
9,167000	0,5	4,899250
9,175333	0,5	4,937450
9,183667	0,5	4,993050
9,192000	0,5	5,074950
9,200333	0,5	5,215450
9,208667	0,5	5,446850
9,217000	0,5	5,805600
9,225333	0,5	6,301350
9,233667	0,5	6,711200
9,242000	0,5	6,748050
9,250333	0,5	6,379800
9,258667	0,5	5,921400
9,267000	0,5	5,663350
9,275333	0,5	5,637100
9,283667	0,5	5,795300
9,292000	0,5	6,054950
9,300333	0,5	6,362850
9,308667	0,5	6,665050
9,317000	0,5	6,915950
9,325333	0,5	7,085300
9,333667	0,5	7,144350
9,342000	0,5	7,096050
9,350333	0,5	6,952150
9,358667	0,5	6,745900
9,367000	0,5	6,505200
9,375333	0,5	6,260800
9,383667	0,5	6,047350
9,392000	0,5	5,887300
9,400333	0,5	5,804250
9,408667	0,5	5,799750
9,417000	0,5	5,853150
9,425333	0,5	5,936400
9,433667	0,5	6,008200
9,442000	0,5	6,023300
9,450333	0,5	5,965200
9,458667	0,5	5,832950
9,467000	0,5	5,646800
9,475333	0,5	5,438800
9,483667	0,5	5,234750
9,492000	0,5	5,055350
9,500333	0,5	4,918550
9,508667	0,5	4,817700
9,517000	0,5	4,750900
9,525333	0,5	4,715750
9,533667	0,5	4,701050
9,542000	0,5	4,711150
9,550333	0,5	4,731100
9,558667	0,5	4,752400
9,567000	0,5	4,759300
9,575333	0,5	4,737800
9,583667	0,5	4,688250
9,592000	0,5	4,626050
9,600333	0,5	4,556750
9,608667	0,5	4,486150
9,617000	0,5	4,426100
9,625333	0,5	4,374200
9,633667	0,5	4,326500
9,642000	0,5	4,285200
9,650333	0,5	4,250150
9,658667	0,5	4,227500
9,667000	0,5	4,213600
9,675333	0,5	4,210200
9,683667	0,5	4,206100
9,692000	0,5	4,213650
9,700333	0,5	4,229400
9,708667	0,5	4,250250
9,717000	0,5	4,278100
9,725333	0,5	4,307000
9,733667	0,5	4,339850
9,742000	0,5	4,374050
9,750333	0,5	4,406200
9,758667	0,5	4,433200
9,767000	0,5	4,453500
9,775333	0,5	4,466850
9,783667	0,5	4,457900
9,792000	0,5	4,441450
9,800333	0,5	4,420250
9,808667	0,5	4,409150
9,817000	0,5	4,410900
9,825333	0,5	4,438150
9,833667	0,5	4,495150
9,842000	0,5	4,587650
9,850333	0,5	4,712250
9,858667	0,5	4,867250
9,867000	0,5	5,036000
9,875333	0,5	5,207800
9,883667	0,5	5,371350
9,892000	0,5	5,524350
9,900333	0,5	5,671950
9,908667	0,5	5,812900
9,917000	0,5	5,964500
9,925333	0,5	6,114850
9,933667	0,5	6,267600
9,942000	0,5	6,417650
9,950333	0,5	6,562300
9,958667	0,5	6,702050
9,967000	0,5	6,830250
9,975333	0,5	6,956050
9,983667	0,5	7,074300
9,992000	0,5	7,190650
10,000333	0,5	7,297700
10,008667	0,5	7,389150
10,017000	0,5	7,462950
10,025333	0,5	7,502400
10,033667	0,5	7,499650
10,042000	0,5	7,429350
10,050333	0,5	7,277000
10,058667	0,5	7,035950
10,067000	0,5	6,718350
10,075333	0,5	6,344250
10,083667	0,5	5,952400
10,092000	0,5	5,579900
10,100333	0,5	5,257900
10,108667	0,5	4,997400
10,117000	0,5	4,798700
10,125333	0,5	4,660500
10,133667	0,5	4,566950
10,142000	0,5	4,523050
10,150333	0,5	4,513800
10,158667	0,5	4,531400
10,167000	0,5	4,555000
10,175333	0,5	4,573350
10,183667	0,5	4,576200
10,192000	0,5	4,562550
10,200333	0,5	4,528100
10,208667	0,5	4,475600
10,217000	0,5	4,426950
10,225333	0,5	4,376200
10,233667	0,5	4,331250
10,242000	0,5	4,287350
10,250333	0,5	4,249750
10,258667	0,5	4,218800
10,267000	0,5	4,185450
10,275333	0,5	4,152950
10,283667	0,5	4,129600
10,292000	0,5	4,111000
10,300333	0,5	4,104300
10,308667	0,5	4,095800
10,317000	0,5	4,099250
10,325333	0,5	4,106100
10,333667	0,5	4,115200
10,342000	0,5	4,128200
10,350333	0,5	4,139450
10,358667	0,5	4,155000
10,367000	0,5	4,173850
10,375333	0,5	4,190900
10,383667	0,5	4,217000
10,392000	0,5	4,251300
10,400333	0,5	4,287600
10,408667	0,5	4,329450
10,417000	0,5	4,374200
10,425333	0,5	4,423050
10,433667	0,5	4,463400
10,442000	0,5	4,489900
10,450333	0,5	4,493150
10,458667	0,5	4,472650
10,467000	0,5	4,433900
10,475333	0,5	4,377100
10,483667	0,5	4,319300
10,492000	0,5	4,267350
10,500333	0,5	4,208950
10,508667	0,5	4,159650
10,517000	0,5	4,109050
10,525333	0,5	4,063700
10,533667	0,5	4,021800
10,542000	0,5	3,988400
10,550333	0,5	3,968550
10,558667	0,5	3,965350
10,567000	0,5	3,972350
10,575333	0,5	3,986300
10,583667	0,5	4,011400
10,592000	0,5	4,034700
10,600333	0,5	4,058100
10,608667	0,5	4,086900
10,617000	0,5	4,118950
10,625333	0,5	4,159250
10,633667	0,5	4,210900
10,642000	0,5	4,258700
10,650333	0,5	4,297500
10,658667	0,5	4,317850
10,667000	0,5	4,303050
10,675333	0,5	4,257200
10,683667	0,5	4,188800
10,692000	0,5	4,109550
10,700333	0,5	4,033650
10,708667	0,5	3,966350
10,717000	0,5	3,909750
10,725333	0,5	3,860600
10,733667	0,5	3,815450
10,742000	0,5	3,769950
10,750333	0,5	3,735150
10,758667	0,5	3,708450
10,767000	0,5	3,693500
10,775333	0,5	3,695800
10,783667	0,5	3,707450
10,792000	0,5	3,724100
10,800333	0,5	3,754250
10,808667	0,5	3,797050
10,817000	0,5	3,849150
10,825333	0,5	3,918950
10,833667	0,5	3,987400
10,842000	0,5	4,048900
10,850333	0,5	4,077400
10,858667	0,5	4,069100
10,867000	0,5	4,012400
10,875333	0,5	3,933100
10,883667	0,5	3,835200
10,892000	0,5	3,747450
10,900333	0,5	3,665800
10,908667	0,5	3,593300
10,917000	0,5	3,533650
10,925333	0,5	3,477500
10,933667	0,5	3,436450
10,942000	0,5	3,398650
10,950333	0,5	3,379950
10,958667	0,5	3,374200
10,967000	0,5	3,387600
10,975333	0,5	3,415600
10,983667	0,5	3,469600
10,992000	0,5	3,548400
11,000333	0,5	3,641650
11,008667	0,5	3,728200
11,017000	0,5	3,794100
11,025333	0,5	3,809700
11,033667	0,5	3,777050
11,042000	0,5	3,698200
11,050333	0,5	3,601300
11,058667	0,5	3,501100
11,067000	0,5	3,409450
11,075333	0,5	3,339200
11,083667	0,5	3,279700
11,092000	0,5	3,228100
11,100333	0,5	3,201050
11,108667	0,5	3,177400
11,117000	0,5	3,172750
11,125333	0,5	3,184850
11,133667	0,5	3,214000
11,142000	0,5	3,275650
11,150333	0,5	3,351400
11,158667	0,5	3,434450
11,167000	0,5	3,500200
11,175333	0,5	3,535200
11,183667	0,5	3,520600
11,192000	0,5	3,462850
11,200333	0,5	3,372250
11,208667	0,5	3,270200
11,217000	0,5	3,171800
11,225333	0,5	3,082200
11,233667	0,5	2,996200
11,242000	0,5	2,914050
11,250333	0,5	2,839400
11,258667	0,5	2,754900
11,267000	0,5	2,675700
11,275333	0,5	2,601650
11,283667	0,5	2,545050
11,292000	0,5	2,510450
11,300333	0,5	2,496650
11,308667	0,5	2,492150
11,317000	0,5	2,493800
11,325333	0,5	2,493550
11,333667	0,5	2,486300
11,342000	0,5	2,485250
11,350333	0,5	2,488950
11,358667	0,5	2,498650
11,367000	0,5	2,517750
11,375333	0,5	2,541900
11,383667	0,5	2,564100
11,392000	0,5	2,590300
11,400333	0,5	2,618850
11,408667	0,5	2,642050
11,417000	0,5	2,672800
11,425333	0,5	2,695900
11,433667	0,5	2,719100
11,442000	0,5	2,743050
11,450333	0,5	2,747750
11,458667	0,5	2,736850
11,467000	0,5	2,718850
11,475333	0,5	2,684600
11,483667	0,5	2,649600
11,492000	0,5	2,619600
11,500333	0,5	2,590300
11,508667	0,5	2,572850
11,517000	0,5	2,561950
11,525333	0,5	2,559350
11,533667	0,5	2,551500
11,542000	0,5	2,561350
11,550333	0,5	2,571850
11,558667	0,5	2,581500
11,567000	0,5	2,581150
11,575333	0,5	2,580650
11,583667	0,5	2,581100
11,592000	0,5	2,579050
11,600333	0,5	2,574150
11,608667	0,5	2,572300
11,617000	0,5	2,573450
11,625333	0,5	2,579350
11,633667	0,5	2,590400
11,642000	0,5	2,604600
11,650333	0,5	2,620200
11,658667	0,5	2,641050
11,667000	0,5	2,671000
11,675333	0,5	2,687900
11,683667	0,5	2,709750
11,692000	0,5	2,733650
11,700333	0,5	2,749350
11,708667	0,5	2,760900
11,717000	0,5	2,772800
11,725333	0,5	2,781550
11,733667	0,5	2,800400
11,742000	0,5	2,812650
11,750333	0,5	2,824700
11,758667	0,5	2,834550
11,767000	0,5	2,846200
11,775333	0,5	2,853200
11,783667	0,5	2,860600
11,792000	0,5	2,873650
11,800333	0,5	2,881600
11,808667	0,5	2,891650
11,817000	0,5	2,905600
11,825333	0,5	2,902950
11,833667	0,5	2,909050
11,842000	0,5	2,915350
11,850333	0,5	2,918700
11,858667	0,5	2,923850
11,867000	0,5	2,930750
11,875333	0,5	2,957250
11,883667	0,5	2,995300
11,892000	0,5	3,058900
11,900333	0,5	3,139950
11,908667	0,5	3,263300
11,917000	0,5	3,412050
11,925333	0,5	3,590200
11,933667	0,5	3,765850
11,942000	0,5	3,920200
11,950333	0,5	4,025450
11,958667	0,5	4,063350
11,967000	0,5	4,035950
11,975333	0,5	3,941400
11,983667	0,5	3,814500
11,992000	0,5	3,665800
12,000333	0,5	3,509250
12,008667	0,5	3,369200
12,017000	0,5	3,247950
12,025333	0,5	3,168000
12,033667	0,5	3,113600
12,042000	0,5	3,074000
12,050333	0,5	3,062250
12,058667	0,5	3,060100
12,067000	0,5	3,077050
12,075333	0,5	3,100450
12,083667	0,5	3,141550
12,092000	0,5	3,189400
12,100333	0,5	3,238450
12,108667	0,5	3,286950
12,117000	0,5	3,323050
12,125333	0,5	3,328550
12,133667	0,5	3,341000
12,142000	0,5	3,329450
12,150333	0,5	3,314100
12,158667	0,5	3,294900
12,167000	0,5	3,274250
12,175333	0,5	3,280250
12,183667	0,5	3,292600
12,192000	0,5	3,325350
12,200333	0,5	3,371700
12,208667	0,5	3,440550
12,217000	0,5	3,514400
12,225333	0,5	3,589300
12,233667	0,5	3,654450
12,242000	0,5	3,702750
12,250333	0,5	3,719650
12,258667	0,5	3,702200
12,267000	0,5	3,648900
12,275333	0,5	3,569350
12,283667	0,5	3,481400
12,292000	0,5	3,393750
12,300333	0,5	3,316750
12,308667	0,5	3,254650
12,317000	0,5	3,213000
12,325333	0,5	3,193600
12,333667	0,5	3,185750
12,342000	0,5	3,184500
12,350333	0,5	3,182900
12,358667	0,5	3,175400
12,367000	0,5	3,164250
12,375333	0,5	3,147700
12,383667	0,5	3,125600
12,392000	0,5	3,094900
12,400333	0,5	3,065500
12,408667	0,5	3,033550
12,417000	0,5	3,003350
12,425333	0,5	2,984250
12,433667	0,5	2,973050
12,442000	0,5	2,958500
12,450333	0,5	2,946650
12,458667	0,5	2,936950
12,467000	0,5	2,928650
12,475333	0,5	2,922650
12,483667	0,5	2,916750
12,492000	0,5	2,912850
12,500333	0,5	2,913500
12,508667	0,5	2,921100
12,517000	0,5	2,932750
12,525333	0,5	2,939600
12,533667	0,5	2,945950
12,542000	0,5	2,957050
12,550333	0,5	2,969100
12,558667	0,5	2,990400
12,567000	0,5	3,009550
12,575333	0,5	3,052650
12,583667	0,5	3,098300
12,592000	0,5	3,149200
12,600333	0,5	3,201250
12,608667	0,5	3,262000
12,617000	0,5	3,327400
12,625333	0,5	3,396650
12,633667	0,5	3,464500
12,642000	0,5	3,539400
12,650333	0,5	3,608800
12,658667	0,5	3,673050
12,667000	0,5	3,737900
12,675333	0,5	3,801550
12,683667	0,5	3,863650
12,692000	0,5	3,916450
12,700333	0,5	3,965950
12,708667	0,5	3,987800
12,717000	0,5	4,004450
12,725333	0,5	4,005100
12,733667	0,5	3,980150
12,742000	0,5	3,933500
12,750333	0,5	3,880800
12,758667	0,5	3,829250
12,767000	0,5	3,775050
12,775333	0,5	3,703650
12,783667	0,5	3,619200
12,792000	0,5	3,521250
12,800333	0,5	3,425300
12,808667	0,5	3,329450
12,817000	0,5	3,259250
12,825333	0,5	3,221350
12,833667	0,5	3,222400
12,842000	0,5	3,261100
12,850333	0,5	3,320400
12,858667	0,5	3,368400
12,867000	0,5	3,407700
12,875333	0,5	3,389300
12,883667	0,5	3,331200
12,892000	0,5	3,256300
12,900333	0,5	3,213600
12,908667	0,5	3,295250
12,917000	0,5	3,391500
12,925333	0,5	3,407300
12,933667	0,5	3,407300
12,942000	0,5	3,256200
12,950333	0,5	2,936850
12,958667	0,5	2,647150
12,967000	0,5	2,302950
12,975333	0,5	1,917950
12,983667	0,5	1,619950
12,992000	0,5	1,397650
13,000333	0,5	1,232800
13,008667	0,5	1,082300
13,017000	0,5	0,979850
13,025333	0,5	0,888750
13,033667	0,5	0,812550
13,042000	0,5	0,746350
13,050333	0,5	0,684550
13,058667	0,5	0,646000
13,067000	0,5	0,619300
13,075333	0,5	0,596750
13,083667	0,5	0,577000
13,092000	0,5	0,561800
13,100333	0,5	0,547100
13,108667	0,5	0,534150
13,117000	0,5	0,524750
13,125333	0,5	0,510300
13,133667	0,5	0,499100
13,142000	0,5	0,485000
13,150333	0,5	0,473350
13,158667	0,5	0,457900
13,167000	0,5	0,460900
13,175333	0,5	0,451850
13,183667	0,5	0,446050
13,192000	0,5	0,436250
13,200333	0,5	0,425250
13,208667	0,5	0,426650
13,217000	0,5	0,417150
13,225333	0,5	0,411600
13,233667	0,5	0,398400
13,242000	0,5	0,387100
13,250333	0,5	0,373700
13,258667	0,5	0,361650
13,267000	0,5	0,345950
13,275333	0,5	0,339100
13,283667	0,5	0,331000
13,292000	0,5	0,327400
13,300333	0,5	0,316750
13,308667	0,5	0,313300
13,317000	0,5	0,310250
13,325333	0,5	0,306200
13,333667	0,5	0,293700
13,342000	0,5	0,288800
13,350333	0,5	0,278300
13,358667	0,5	0,282050
13,367000	0,5	0,279850
13,375333	0,5	0,276600
13,383667	0,5	0,274150
13,392000	0,5	0,269450
13,400333	0,5	0,270000
13,408667	0,5	0,269250
13,417000	0,5	0,271650
13,425333	0,5	0,271750
13,433667	0,5	0,282300
13,442000	0,5	0,285800
13,450333	0,5	0,289600
13,458667	0,5	0,313600
13,467000	0,5	0,335500
13,475333	0,5	0,364900
13,483667	0,5	0,399150
13,492000	0,5	0,444200
13,500333	0,5	0,515650
13,508667	0,5	0,594950
13,517000	0,5	0,691800
13,525333	0,5	0,787650
13,533667	0,5	0,898900
13,542000	0,5	1,004200
13,550333	0,5	1,111100
13,558667	0,5	1,206650
13,567000	0,5	1,283650
13,575333	0,5	1,349000
13,583667	0,5	1,396350
13,592000	0,5	1,427450
13,600333	0,5	1,445100
13,608667	0,5	1,458850
13,617000	0,5	1,456450
13,625333	0,5	1,444000
13,633667	0,5	1,423200
13,642000	0,5	1,408000
13,650333	0,5	1,395000
13,658667	0,5	1,388550
13,667000	0,5	1,374300
13,675333	0,5	1,367900
13,683667	0,5	1,362600
13,692000	0,5	1,358250
13,700333	0,5	1,352200
13,708667	0,5	1,350200
13,717000	0,5	1,343350
13,725333	0,5	1,343900
13,733667	0,5	1,349100
13,742000	0,5	1,339400
13,750333	0,5	1,348750
13,758667	0,5	1,353500
13,767000	0,5	1,353300
13,775333	0,5	1,351400
13,783667	0,5	1,342500
13,792000	0,5	1,339400
13,800333	0,5	1,346900
13,808667	0,5	1,340850
13,817000	0,5	1,342000
13,825333	0,5	1,340350
13,833667	0,5	1,345500
13,842000	0,5	1,346300
13,850333	0,5	1,351300
13,858667	0,5	1,353100
13,867000	0,5	1,355800
13,875333	0,5	1,361200
13,883667	0,5	1,369350
13,892000	0,5	1,359900
13,900333	0,5	1,374500
13,908667	0,5	1,378200
13,917000	0,5	1,377400
13,925333	0,5	1,378850
13,933667	0,5	1,362900
13,942000	0,5	1,377200
13,950333	0,5	1,375800
13,958667	0,5	1,386250
13,967000	0,5	1,392250
13,975333	0,5	1,404500
13,983667	0,5	1,408750
13,992000	0,5	1,416250
14,000333	0,5	1,418350
14,008667	0,5	1,419950
14,017000	0,5	1,420200
14,025333	0,5	1,425700
14,033667	0,5	1,422550
14,042000	0,5	1,417250
14,050333	0,5	1,427700
14,058667	0,5	1,424850
14,067000	0,5	1,426700
14,075333	0,5	1,421200
14,083667	0,5	1,415850
14,092000	0,5	1,419500
14,100333	0,5	1,419150
14,108667	0,5	1,417250
14,117000	0,5	1,415000
14,125333	0,5	1,413500
14,133667	0,5	1,416800
14,142000	0,5	1,414000
14,150333	0,5	1,418550
14,158667	0,5	1,418850
14,167000	0,5	1,421500
14,175333	0,5	1,420950
14,183667	0,5	1,425050
14,192000	0,5	1,420200
14,200333	0,5	1,433650
14,208667	0,5	1,437750
14,217000	0,5	1,438650
14,225333	0,5	1,434900
14,233667	0,5	1,429550
14,242000	0,5	1,440200
14,250333	0,5	1,444800
14,258667	0,5	1,450200
14,267000	0,5	1,454100
14,275333	0,5	1,461350
14,283667	0,5	1,466350
14,292000	0,5	1,472800
14,300333	0,5	1,474650
14,308667	0,5	1,482950
14,317000	0,5	1,490150
14,325333	0,5	1,501400
14,333667	0,5	1,497600
14,342000	0,5	1,509800
14,350333	0,5	1,516400
14,358667	0,5	1,518200
14,367000	0,5	1,513250
14,375333	0,5	1,514200
14,383667	0,5	1,512900
14,392000	0,5	1,525850
14,400333	0,5	1,533500
14,408667	0,5	1,546450
14,417000	0,5	1,551450
14,425333	0,5	1,561000
14,433667	0,5	1,570850
14,442000	0,5	1,578500
14,450333	0,5	1,592800
14,458667	0,5	1,600950
14,467000	0,5	1,624350
14,475333	0,5	1,634400
14,483667	0,5	1,640900
14,492000	0,5	1,664350
14,500333	0,5	1,688400
14,508667	0,5	1,707500
14,517000	0,5	1,729750
14,525333	0,5	1,750900
14,533667	0,5	1,787800
14,542000	0,5	1,818950
14,550333	0,5	1,850100
14,558667	0,5	1,867500
14,567000	0,5	1,888250
14,575333	0,5	1,892450
14,583667	0,5	1,904200
14,592000	0,5	1,911050
14,600333	0,5	1,912800
14,608667	0,5	1,926850
14,617000	0,5	1,942350
14,625333	0,5	1,947050
14,633667	0,5	1,969950
14,642000	0,5	2,005800
14,650333	0,5	2,034650
14,658667	0,5	2,065400
14,667000	0,5	2,080300
14,675333	0,5	2,114100
14,683667	0,5	2,151500
14,692000	0,5	2,197200
14,700333	0,5	2,237400
14,708667	0,5	2,288950
14,717000	0,5	2,324250
14,725333	0,5	2,356000
14,733667	0,5	2,383400
14,742000	0,5	2,406750
14,750333	0,5	2,429200
14,758667	0,5	2,464250
14,767000	0,5	2,511400
14,775333	0,5	2,550650
14,783667	0,5	2,618250
14,792000	0,5	2,683850
14,800333	0,5	2,736500
14,808667	0,5	2,765300
14,817000	0,5	2,763350
14,825333	0,5	2,756750
14,833667	0,5	2,733850
14,842000	0,5	2,687300
14,850333	0,5	2,646800
14,858667	0,5	2,603050
14,867000	0,5	2,574850
14,875333	0,5	2,552450
14,883667	0,5	2,547350
14,892000	0,5	2,545550
14,900333	0,5	2,556000
14,908667	0,5	2,564800
14,917000	0,5	2,566600
14,925333	0,5	2,533450
14,933667	0,5	2,517450
14,942000	0,5	2,479450
14,950333	0,5	2,442700
14,958667	0,5	2,404900
14,967000	0,5	2,367400
14,975333	0,5	2,358300
14,983667	0,5	2,346900
14,992000	0,5	2,338750
15,000333	0,5	2,327950
15,008667	0,5	2,325450
15,017000	0,5	2,317050
15,025333	0,5	2,314550
15,033667	0,5	2,304650
15,042000	0,5	2,296500
15,050333	0,5	2,286050
15,058667	0,5	2,286350
15,067000	0,5	2,267150
15,075333	0,5	2,251950
15,083667	0,5	2,245700
15,092000	0,5	2,236900
15,100333	0,5	2,218300
15,108667	0,5	2,198700
15,117000	0,5	2,177350
15,125333	0,5	2,170950
15,133667	0,5	2,162800
15,142000	0,5	2,151950
15,150333	0,5	2,139700
15,158667	0,5	2,128050
15,167000	0,5	2,119200
15,175333	0,5	2,108350
15,183667	0,5	2,096650
15,192000	0,5	2,084500
15,200333	0,5	2,085600
15,208667	0,5	2,076950
15,217000	0,5	2,064900
15,225333	0,5	2,052450
15,233667	0,5	2,053600
15,242000	0,5	2,039100
15,250333	0,5	2,028950
15,258667	0,5	2,011250
15,267000	0,5	2,002600
15,275333	0,5	2,000800
15,283667	0,5	2,000150
15,292000	0,5	1,992100
15,300333	0,5	1,991050
15,308667	0,5	1,987350
15,317000	0,5	1,985150
15,325333	0,5	1,983850
15,333667	0,5	1,971950
15,342000	0,5	1,967500
15,350333	0,5	1,972200
15,358667	0,5	1,968800
15,367000	0,5	1,962900
15,375333	0,5	1,969050
15,383667	0,5	1,969600
15,392000	0,5	1,968650
15,400333	0,5	1,951600
15,408667	0,5	1,946950
15,417000	0,5	1,935400
15,425333	0,5	1,940500
15,433667	0,5	1,928800
15,442000	0,5	1,930500
15,450333	0,5	1,928650
15,458667	0,5	1,926300
15,467000	0,5	1,927250
15,475333	0,5	1,923100
15,483667	0,5	1,916350
15,492000	0,5	1,905450
15,500333	0,5	1,902900
15,508667	0,5	1,880950
15,517000	0,5	1,866850
15,525333	0,5	1,861700
15,533667	0,5	1,851700
15,542000	0,5	1,842600
15,550333	0,5	1,823600
15,558667	0,5	1,812550
15,567000	0,5	1,817850
15,575333	0,5	1,819050
15,583667	0,5	1,827050
15,592000	0,5	1,825050
15,600333	0,5	1,827550
15,608667	0,5	1,814200
15,617000	0,5	1,808350
15,625333	0,5	1,789650
15,633667	0,5	1,774500
15,642000	0,5	1,767150
15,650333	0,5	1,758850
15,658667	0,5	1,737600
15,667000	0,5	1,733500
15,675333	0,5	1,731900
15,683667	0,5	1,722700
15,692000	0,5	1,710000
15,700333	0,5	1,686500
15,708667	0,5	1,685700
15,717000	0,5	1,674200
15,725333	0,5	1,671400
15,733667	0,5	1,666800
15,742000	0,5	1,664550
15,750333	0,5	1,656950
15,758667	0,5	1,659850
15,767000	0,5	1,653250
15,775333	0,5	1,649350
15,783667	0,5	1,646400
15,792000	0,5	1,645550
15,800333	0,5	1,641400
15,808667	0,5	1,627800
15,817000	0,5	1,631850
15,825333	0,5	1,630750
15,833667	0,5	1,616400
15,842000	0,5	1,604050
15,850333	0,5	1,581700
15,858667	0,5	1,581700
15,867000	0,5	1,584100
15,875333	0,5	1,575300
15,883667	0,5	1,573950
15,892000	0,5	1,571300
15,900333	0,5	1,568700
15,908667	0,5	1,561550
15,917000	0,5	1,555650
15,925333	0,5	1,541450
15,933667	0,5	1,532300
15,942000	0,5	1,524800
15,950333	0,5	1,515450
15,958667	0,5	1,499350
15,967000	0,5	1,507500
15,975333	0,5	1,503650
15,983667	0,5	1,497700
15,992000	0,5	1,483200
16,000333	0,5	1,470150
16,008667	0,5	1,473850
16,017000	0,5	1,467900
16,025333	0,5	1,463400
16,033667	0,5	1,456800
16,042000	0,5	1,452200
16,050333	0,5	1,443100
16,058667	0,5	1,439600
16,067000	0,5	1,429200
16,075333	0,5	1,420700
16,083667	0,5	1,409500
16,092000	0,5	1,415300
16,100333	0,5	1,399150
16,108667	0,5	1,401950
16,117000	0,5	1,399750
16,125333	0,5	1,394050
16,133667	0,5	1,375550
16,142000	0,5	1,356000
16,150333	0,5	1,342600
16,158667	0,5	1,340000
16,167000	0,5	1,336300
16,175333	0,5	1,336450
16,183667	0,5	1,326550
16,192000	0,5	1,323100
16,200333	0,5	1,312400
16,208667	0,5	1,310350
16,217000	0,5	1,304950
16,225333	0,5	1,296750
16,233667	0,5	1,304050
16,242000	0,5	1,296350
16,250333	0,5	1,280750
16,258667	0,5	1,277550
16,267000	0,5	1,272950
16,275333	0,5	1,258700
16,283667	0,5	1,243850
16,292000	0,5	1,219900
16,300333	0,5	1,211350
16,308667	0,5	1,206050
16,317000	0,5	1,203450
16,325333	0,5	1,196150
16,333667	0,5	1,193100
16,342000	0,5	1,189950
16,350333	0,5	1,188150
16,358667	0,5	1,185150
16,367000	0,5	1,178250
16,375333	0,5	1,181300
16,383667	0,5	1,185900
16,392000	0,5	1,175300
16,400333	0,5	1,170600
16,408667	0,5	1,177950
16,417000	0,5	1,175050
16,425333	0,5	1,170700
16,433667	0,5	1,144450
16,442000	0,5	1,133450
16,450333	0,5	1,124150
16,458667	0,5	1,124950
16,467000	0,5	1,113700
16,475333	0,5	1,110800
16,483667	0,5	1,096650
16,492000	0,5	1,090450
16,500333	0,5	1,081200
16,508667	0,5	1,073400
16,517000	0,5	1,065100
16,525333	0,5	1,060800
16,533667	0,5	1,057500
16,542000	0,5	1,038000
16,550333	0,5	1,037700
16,558667	0,5	1,042250
16,567000	0,5	1,033600
16,575333	0,5	1,021500
16,583667	0,5	1,000050
16,592000	0,5	0,989500
16,600333	0,5	0,988550
16,608667	0,5	0,980200
16,617000	0,5	0,979300
16,625333	0,5	0,965450
16,633667	0,5	0,964550
16,642000	0,5	0,957250
16,650333	0,5	0,959050
16,658667	0,5	0,953400
16,667000	0,5	0,946250
16,675333	0,5	0,949450
16,683667	0,5	0,949700
16,692000	0,5	0,927350
16,700333	0,5	0,934650
16,708667	0,5	0,931800
16,717000	0,5	0,922800
16,725333	0,5	0,912900
16,733667	0,5	0,892200
16,742000	0,5	0,894150
16,750333	0,5	0,884300
16,758667	0,5	0,880200
16,767000	0,5	0,870650
16,775333	0,5	0,867050
16,783667	0,5	0,857700
16,792000	0,5	0,858050
16,800333	0,5	0,846700
16,808667	0,5	0,842750
16,817000	0,5	0,835300
16,825333	0,5	0,841150
16,833667	0,5	0,824850
16,842000	0,5	0,813800
16,850333	0,5	0,817600
16,858667	0,5	0,813150
16,867000	0,5	0,801750
16,875333	0,5	0,783850
16,883667	0,5	0,769050
16,892000	0,5	0,771000
16,900333	0,5	0,770500
16,908667	0,5	0,764000
16,917000	0,5	0,760900
16,925333	0,5	0,758150
16,933667	0,5	0,756850
16,942000	0,5	0,752400
16,950333	0,5	0,755900
16,958667	0,5	0,749500
16,967000	0,5	0,748050
16,975333	0,5	0,746600
16,983667	0,5	0,738950
16,992000	0,5	0,735350
17,000333	0,5	0,742000
17,008667	0,5	0,735650
17,017000	0,5	0,726050
17,025333	0,5	0,710750
17,033667	0,5	0,699050
17,042000	0,5	0,697800
17,050333	0,5	0,694150
17,058667	0,5	0,684550
17,067000	0,5	0,682000
17,075333	0,5	0,680950
17,083667	0,5	0,673000
17,092000	0,5	0,668200
17,100333	0,5	0,656950
17,108667	0,5	0,651900
17,117000	0,5	0,643050
17,125333	0,5	0,646450
17,133667	0,5	0,624050
17,142000	0,5	0,633800
17,150333	0,5	0,621200
17,158667	0,5	0,615150
17,167000	0,5	0,598400
17,175333	0,5	0,576750
17,183667	0,5	0,574300
17,192000	0,5	0,573200
17,200333	0,5	0,569900
17,208667	0,5	0,565400
17,217000	0,5	0,562150
17,225333	0,5	0,559550
17,233667	0,5	0,557550
17,242000	0,5	0,549450
17,250333	0,5	0,548650
17,258667	0,5	0,548150
17,267000	0,5	0,563200
17,275333	0,5	0,560600
17,283667	0,5	0,555750
17,292000	0,5	0,569550
17,300333	0,5	0,573700
17,308667	0,5	0,572400
17,317000	0,5	0,562750
17,325333	0,5	0,544150
17,333667	0,5	0,544250
17,342000	0,5	0,532450
17,350333	0,5	0,530200
17,358667	0,5	0,516250
17,367000	0,5	0,513650
17,375333	0,5	0,511900
17,383667	0,5	0,514500
17,392000	0,5	0,511550
17,400333	0,5	0,510950
17,408667	0,5	0,523750
17,417000	0,5	0,528750
17,425333	0,5	0,520600
17,433667	0,5	0,525000
17,442000	0,5	0,530850
17,450333	0,5	0,520350
17,458667	0,5	0,518050
17,467000	0,5	0,494950
17,475333	0,5	0,494100
17,483667	0,5	0,485850
17,492000	0,5	0,492350
17,500333	0,5	0,488800
17,508667	0,5	0,501300
17,517000	0,5	0,496200
17,525333	0,5	0,496850
17,533667	0,5	0,498150
17,542000	0,5	0,501900
17,550333	0,5	0,505650
17,558667	0,5	0,514250
17,567000	0,5	0,518850
17,575333	0,5	0,510400
17,583667	0,5	0,526550
17,592000	0,5	0,536150
17,600333	0,5	0,536200
17,608667	0,5	0,533750
17,617000	0,5	0,532850
17,625333	0,5	0,543350
17,633667	0,5	0,564300
17,642000	0,5	0,565200
17,650333	0,5	0,580700
17,658667	0,5	0,589750
17,667000	0,5	0,602550
17,675333	0,5	0,611450
17,683667	0,5	0,619850
17,692000	0,5	0,620450
17,700333	0,5	0,622250
17,708667	0,5	0,632350
17,717000	0,5	0,625450
17,725333	0,5	0,616000
17,733667	0,5	0,629100
17,742000	0,5	0,629700
17,750333	0,5	0,623150
17,758667	0,5	0,607450
17,767000	0,5	0,596300
17,775333	0,5	0,605250
17,783667	0,5	0,594750
17,792000	0,5	0,598250
17,800333	0,5	0,590350
17,808667	0,5	0,591850
17,817000	0,5	0,585650
17,825333	0,5	0,588150
17,833667	0,5	0,584200
17,842000	0,5	0,581900
17,850333	0,5	0,590350
17,858667	0,5	0,599900
17,867000	0,5	0,581550
17,875333	0,5	0,594950
17,883667	0,5	0,608950
17,892000	0,5	0,620700
17,900333	0,5	0,632900
17,908667	0,5	0,643350
17,917000	0,5	0,687650
17,925333	0,5	0,729100
17,933667	0,5	0,765100
17,942000	0,5	0,780500
17,950333	0,5	0,784950
17,958667	0,5	0,758600
17,967000	0,5	0,725050
17,975333	0,5	0,679400
17,983667	0,5	0,633950
17,992000	0,5	0,585750
18,000333	0,5	0,555500
18,008667	0,5	0,526700
18,017000	0,5	0,487500
18,025333	0,5	0,483350
18,033667	0,5	0,471850
18,042000	0,5	0,453650
18,050333	0,5	0,437650
18,058667	0,5	0,406800
18,067000	0,5	0,401700
18,075333	0,5	0,401150
18,083667	0,5	0,387000
18,092000	0,5	0,378600
18,100333	0,5	0,369050
18,108667	0,5	0,362550
18,117000	0,5	0,351800
18,125333	0,5	0,348350
18,133667	0,5	0,336200
18,142000	0,5	0,331300
18,150333	0,5	0,323200
18,158667	0,5	0,322000
18,167000	0,5	0,304850
18,175333	0,5	0,312150
18,183667	0,5	0,301100
18,192000	0,5	0,291600
18,200333	0,5	0,265350
18,208667	0,5	0,243500
18,217000	0,5	0,240650
18,225333	0,5	0,235350
18,233667	0,5	0,227600
18,242000	0,5	0,221300
18,250333	0,5	0,215150
18,258667	0,5	0,206300
18,267000	0,5	0,202700
18,275333	0,5	0,190500
18,283667	0,5	0,188150
18,292000	0,5	0,182050
18,300333	0,5	0,182950
18,308667	0,5	0,164850
18,317000	0,5	0,167000
18,325333	0,5	0,165500
18,333667	0,5	0,151350
18,342000	0,5	0,135700
18,350333	0,5	0,113000
18,358667	0,5	0,098850
18,367000	0,5	0,097650
18,375333	0,5	0,089200
18,383667	0,5	0,079850
18,392000	0,5	0,068200
18,400333	0,5	0,065350
18,408667	0,5	0,055200
18,417000	0,5	0,049050
18,425333	0,5	0,040400
18,433667	0,5	0,029800
18,442000	0,5	0,033500
18,450333	0,5	0,024250
18,458667	0,5	0,006300
18,467000	0,5	0,002850
18,475333	0,5	-0,001550
18,483667	0,5	-0,017300
18,492000	0,5	-0,035550
18,500333	0,5	-0,060900
18,508667	0,5	-0,069800
18,517000	0,5	-0,075800
18,525333	0,5	-0,083100
18,533667	0,5	-0,091150
18,542000	0,5	-0,097200
18,550333	0,5	-0,100400
18,558667	0,5	-0,108200
18,567000	0,5	-0,117650
18,575333	0,5	-0,127700
18,583667	0,5	-0,131950
18,592000	0,5	-0,132550
18,600333	0,5	-0,149700
18,608667	0,5	-0,158350
18,617000	0,5	-0,159100
18,625333	0,5	-0,168650
18,633667	0,5	-0,180950
18,642000	0,5	-0,212500
18,650333	0,5	-0,218400
18,658667	0,5	-0,224650
18,667000	0,5	-0,225400
18,675333	0,5	-0,238900
18,683667	0,5	-0,242450
18,692000	0,5	-0,249550
18,700333	0,5	-0,251250
18,708667	0,5	-0,252400
18,717000	0,5	-0,260500
18,725333	0,5	-0,266000
18,733667	0,5	-0,267900
18,742000	0,5	-0,263950
18,750333	0,5	-0,289650
18,758667	0,5	-0,283900
18,767000	0,5	-0,283000
18,775333	0,5	-0,292200
18,783667	0,5	-0,303850
18,792000	0,5	-0,324100
18,800333	0,5	-0,327850
18,808667	0,5	-0,322650
18,817000	0,5	-0,335250
18,825333	0,5	-0,333100
18,833667	0,5	-0,338500
18,842000	0,5	-0,336050
18,850333	0,5	-0,340400
18,858667	0,5	-0,336750
18,867000	0,5	-0,344900
18,875333	0,5	-0,340250
18,883667	0,5	-0,322050
18,892000	0,5	-0,315500
18,900333	0,5	-0,326700
18,908667	0,5	-0,308700
18,917000	0,5	-0,306550
18,925333	0,5	-0,307050
18,933667	0,5	-0,304750
18,942000	0,5	-0,317850
18,950333	0,5	-0,290000
18,958667	0,5	-0,286400
18,967000	0,5	-0,275500
18,975333	0,5	-0,272400
18,983667	0,5	-0,256250
18,992000	0,5	-0,252950
19,000333	0,5	-0,239700
19,008667	0,5	-0,236400
19,017000	0,5	-0,232250
19,025333	0,5	-0,228150
19,033667	0,5	-0,217450
19,042000	0,5	-0,225600
19,050333	0,5	-0,233400
19,058667	0,5	-0,233350
19,067000	0,5	-0,243600
19,075333	0,5	-0,259900
19,083667	0,5	-0,284350
19,092000	0,5	-0,306650
19,100333	0,5	-0,312350
19,108667	0,5	-0,319750
19,117000	0,5	-0,335700
19,125333	0,5	-0,348250
19,133667	0,5	-0,364750
19,142000	0,5	-0,373500
19,150333	0,5	-0,388800
19,158667	0,5	-0,398400
19,167000	0,5	-0,414550
19,175333	0,5	-0,419750
19,183667	0,5	-0,430250
19,192000	0,5	-0,447250
19,200333	0,5	-0,454450
19,208667	0,5	-0,463750
19,217000	0,5	-0,475550
19,225333	0,5	-0,495300
19,233667	0,5	-0,522250
19,242000	0,5	-0,538950
19,250333	0,5	-0,546000
19,258667	0,5	-0,553350
19,267000	0,5	-0,557600
19,275333	0,5	-0,564300
19,283667	0,5	-0,569200
19,292000	0,5	-0,576600
19,300333	0,5	-0,578450
19,308667	0,5	-0,588150
19,317000	0,5	-0,587800
19,325333	0,5	-0,585650
19,333667	0,5	-0,593300
19,342000	0,5	-0,611150
19,350333	0,5	-0,604500
19,358667	0,5	-0,611550
19,367000	0,5	-0,619350
19,375333	0,5	-0,640650
19,383667	0,5	-0,653050
19,392000	0,5	-0,647100
19,400333	0,5	-0,640300
19,408667	0,5	-0,640000
19,417000	0,5	-0,644750
19,425333	0,5	-0,647300
19,433667	0,5	-0,654350
19,442000	0,5	-0,657900
19,450333	0,5	-0,672750
19,458667	0,5	-0,686900
19,467000	0,5	-0,695450
19,475333	0,5	-0,694650
19,483667	0,5	-0,726450
19,492000	0,5	-0,732750
19,500333	0,5	-0,739900
19,508667	0,5	-0,752850
19,517000	0,5	-0,762250
19,525333	0,5	-0,786750
19,533667	0,5	-0,800700
19,542000	0,5	-0,803900
19,550333	0,5	-0,809900
19,558667	0,5	-0,813250
19,567000	0,5	-0,818150
19,575333	0,5	-0,820400
19,583667	0,5	-0,821950
19,592000	0,5	-0,830650
19,600333	0,5	-0,831500
19,608667	0,5	-0,842200
19,617000	0,5	-0,834500
19,625333	0,5	-0,840350
19,633667	0,5	-0,861650
19,642000	0,5	-0,858300
19,650333	0,5	-0,860250
19,658667	0,5	-0,875400
19,667000	0,5	-0,887550
19,675333	0,5	-0,912150
19,683667	0,5	-0,909600
19,692000	0,5	-0,913450
19,700333	0,5	-0,917100
19,708667	0,5	-0,926450
19,717000	0,5	-0,929650
19,725333	0,5	-0,935000
19,733667	0,5	-0,942400
19,742000	0,5	-0,946300
19,750333	0,5	-0,950700
19,758667	0,5	-0,950500
19,767000	0,5	-0,948200
19,775333	0,5	-0,960100
19,783667	0,5	-0,970700
19,792000	0,5	-0,966100
19,800333	0,5	-0,973150
19,808667	0,5	-0,983350
19,817000	0,5	-1,004950
19,825333	0,5	-1,015950
19,833667	0,5	-1,016950
19,842000	0,5	-1,020050
19,850333	0,5	-1,028500
19,858667	0,5	-1,032500
19,867000	0,5	-1,036500
19,875333	0,5	-1,037900
19,883667	0,5	-1,037450
19,892000	0,5	-1,043300
19,900333	0,5	-1,047450
19,908667	0,5	-1,043400
19,917000	0,5	-1,035900
19,925333	0,5	-1,052250
19,933667	0,5	-1,054700
19,942000	0,5	-1,058950
19,950333	0,5	-1,063650
19,958667	0,5	-1,077600
19,967000	0,5	-1,100700
19,975333	0,5	-1,109400
19,983667	0,5	-1,100750
19,992000	0,5	-1,112950
20,000333	0,5	-1,111950
20,008667	0,5	-1,119500
20,017000	0,5	-1,121200
20,025333	0,5	-1,126100
20,033667	0,5	-1,125550
20,042000	0,5	-1,122400
20,050333	0,5	-1,125400
20,058667	0,5	-1,107700
20,067000	0,5	-1,108650
20,075333	0,5	-1,125750
20,083667	0,5	-1,123000
20,092000	0,5	-1,128050
20,100333	0,5	-1,138850
20,108667	0,5	-1,152850
20,117000	0,5	-1,172300
20,125333	0,5	-1,167850
20,133667	0,5	-1,175300
20,142000	0,5	-1,171600
20,150333	0,5	-1,174250
20,158667	0,5	-1,167950
20,167000	0,5	-1,170350
20,175333	0,5	-1,161700
20,183667	0,5	-1,164050
20,192000	0,5	-1,170650
20,200333	0,5	-1,170850
20,208667	0,5	-1,172650
20,217000	0,5	-1,189400
20,225333	0,5	-1,205950
20,233667	0,5	-1,208000
20,242000	0,5	-1,226250
20,250333	0,5	-1,239300
20,258667	0,5	-1,265300
20,267000	0,5	-1,271500
20,275333	0,5	-1,280400
20,283667	0,5	-1,267700
20,292000	0,5	-1,275500
20,300333	0,5	-1,273450
20,308667	0,5	-1,276850
20,317000	0,5	-1,272000
20,325333	0,5	-1,273250
20,333667	0,5	-1,273400
20,342000	0,5	-1,273950
20,350333	0,5	-1,256700
20,358667	0,5	-1,254450
20,367000	0,5	-1,258050
20,375333	0,5	-1,257400
20,383667	0,5	-1,260900
20,392000	0,5	-1,270100
20,400333	0,5	-1,283900
20,408667	0,5	-1,295450
20,417000	0,5	-1,302800
20,425333	0,5	-1,292700
20,433667	0,5	-1,299950
20,442000	0,5	-1,295700
20,450333	0,5	-1,300100
20,458667	0,5	-1,292350
20,467000	0,5	-1,298350
20,475333	0,5	-1,292500
20,483667	0,5	-1,294650
20,492000	0,5	-1,291600
20,500333	0,5	-1,265150
20,508667	0,5	-1,260850
20,517000	0,5	-1,271000
20,525333	0,5	-1,266700
20,533667	0,5	-1,272700
20,542000	0,5	-1,279450
20,550333	0,5	-1,297800
20,558667	0,5	-1,305800
20,567000	0,5	-1,297900
20,575333	0,5	-1,300000
20,583667	0,5	-1,294700
20,592000	0,5	-1,298600
20,600333	0,5	-1,286900
20,608667	0,5	-1,283850
20,617000	0,5	-1,272000
20,625333	0,5	-1,269200
20,633667	0,5	-1,261250
20,642000	0,5	-1,240650
20,650333	0,5	-1,218900
20,658667	0,5	-1,220750
20,667000	0,5	-1,220550
20,675333	0,5	-1,224050
20,683667	0,5	-1,229900
20,692000	0,5	-1,245600
20,700333	0,5	-1,271700
20,708667	0,5	-1,269400
20,717000	0,5	-1,274250
20,725333	0,5	-1,271950
20,733667	0,5	-1,281100
20,742000	0,5	-1,279150
20,750333	0,5	-1,286750
20,758667	0,5	-1,287500
20,767000	0,5	-1,292650
20,775333	0,5	-1,293050
20,783667	0,5	-1,297950
20,792000	0,5	-1,273050
20,800333	0,5	-1,261950
20,808667	0,5	-1,274450
20,817000	0,5	-1,282400
20,825333	0,5	-1,288750
20,833667	0,5	-1,299700
20,842000	0,5	-1,313550
20,850333	0,5	-1,334100
20,858667	0,5	-1,329050
20,867000	0,5	-1,330950
20,875333	0,5	-1,335800
20,883667	0,5	-1,335500
20,892000	0,5	-1,341350
20,900333	0,5	-1,331200
20,908667	0,5	-1,334600
20,917000	0,5	-1,328250
20,925333	0,5	-1,332700
20,933667	0,5	-1,319700
20,942000	0,5	-1,296700
20,950333	0,5	-1,287350
20,958667	0,5	-1,295350
20,967000	0,5	-1,297700
20,975333	0,5	-1,303600
20,983667	0,5	-1,311200
20,992000	0,5	-1,327950
21,000333	0,5	-1,334700
21,008667	0,5	-1,321450
21,017000	0,5	-1,324000
21,025333	0,5	-1,314900
21,033667	0,5	-1,309900
21,042000	0,5	-1,302250
21,050333	0,5	-1,302200
21,058667	0,5	-1,292550
21,067000	0,5	-1,292650
21,075333	0,5	-1,289400
21,083667	0,5	-1,262950
21,092000	0,5	-1,243750
21,100333	0,5	-1,245650
21,108667	0,5	-1,244850
21,117000	0,5	-1,247150
21,125333	0,5	-1,251850
21,133667	0,5	-1,266850
21,142000	0,5	-1,279050
21,150333	0,5	-1,279250
21,158667	0,5	-1,271400
21,167000	0,5	-1,264500
21,175333	0,5	-1,263600
21,183667	0,5	-1,256500
21,192000	0,5	-1,256600
21,200333	0,5	-1,243650
21,208667	0,5	-1,242650
21,217000	0,5	-1,233450
21,225333	0,5	-1,228700
21,233667	0,5	-1,194100
21,242000	0,5	-1,180500
21,250333	0,5	-1,180650
21,258667	0,5	-1,176300
21,267000	0,5	-1,182450
21,275333	0,5	-1,185050
21,283667	0,5	-1,194750
21,292000	0,5	-1,198450
21,300333	0,5	-1,194850
21,308667	0,5	-1,184650
21,317000	0,5	-1,177300
21,325333	0,5	-1,168000
21,333667	0,5	-1,160100
21,342000	0,5	-1,155100
21,350333	0,5	-1,147550
21,358667	0,5	-1,133750
21,367000	0,5	-1,126050
21,375333	0,5	-1,092300
21,383667	0,5	-1,064150
21,392000	0,5	-1,051000
21,400333	0,5	-1,045050
21,408667	0,5	-1,044550
21,417000	0,5	-1,051300
21,425333	0,5	-1,054300
21,433667	0,5	-1,064000
21,442000	0,5	-1,059950
21,450333	0,5	-1,049700
21,458667	0,5	-1,044100
21,467000	0,5	-1,037600
21,475333	0,5	-1,030900
21,483667	0,5	-1,022400
21,492000	0,5	-1,016300
21,500333	0,5	-0,998150
21,508667	0,5	-0,991000
21,517000	0,5	-0,976900
21,525333	0,5	-0,939450
21,533667	0,5	-0,919200
21,542000	0,5	-0,918750
21,550333	0,5	-0,914150
21,558667	0,5	-0,910950
21,567000	0,5	-0,909700
21,575333	0,5	-0,918500
21,583667	0,5	-0,909800
21,592000	0,5	-0,887950
21,600333	0,5	-0,869850
21,608667	0,5	-0,847200
21,617000	0,5	-0,825900
21,625333	0,5	-0,794650
21,633667	0,5	-0,766850
21,642000	0,5	-0,728100
21,650333	0,5	-0,700550
21,658667	0,5	-0,673600
21,667000	0,5	-0,650900
21,675333	0,5	-0,640650
21,683667	0,5	-0,648850
21,692000	0,5	-0,661700
21,700333	0,5	-0,670450
21,708667	0,5	-0,673950
21,717000	0,5	-0,683450
21,725333	0,5	-0,690500
21,733667	0,5	-0,669350
21,742000	0,5	-0,656450
21,750333	0,5	-0,643950
21,758667	0,5	-0,632250
21,767000	0,5	-0,623500
21,775333	0,5	-0,606500
21,783667	0,5	-0,583550
21,792000	0,5	-0,567600
21,800333	0,5	-0,544800
21,808667	0,5	-0,528450
21,817000	0,5	-0,480800
21,825333	0,5	-0,447200
21,833667	0,5	-0,437750
21,842000	0,5	-0,417550
21,850333	0,5	-0,396500
21,858667	0,5	-0,388000
21,867000	0,5	-0,371650
21,875333	0,5	-0,357900
21,883667	0,5	-0,329550
21,892000	0,5	-0,303900
21,900333	0,5	-0,280100
21,908667	0,5	-0,261850
21,917000	0,5	-0,240350
21,925333	0,5	-0,224700
21,933667	0,5	-0,203250
21,942000	0,5	-0,182100
21,950333	0,5	-0,170700
21,958667	0,5	-0,135300
21,967000	0,5	-0,104400
21,975333	0,5	-0,089250
21,983667	0,5	-0,068500
21,992000	0,5	-0,044250
22,000333	0,5	-0,027050
22,008667	0,5	-0,016650
22,017000	0,5	-0,006900
22,025333	0,5	0,017150
22,033667	0,5	0,055000
22,042000	0,5	0,086650
22,050333	0,5	0,120050
22,058667	0,5	0,151250
22,067000	0,5	0,183450
22,075333	0,5	0,213900
22,083667	0,5	0,248850
22,092000	0,5	0,274250
22,100333	0,5	0,308350
22,108667	0,5	0,351600
22,117000	0,5	0,384550
22,125333	0,5	0,409600
22,133667	0,5	0,457950
22,142000	0,5	0,487250
22,150333	0,5	0,521650
22,158667	0,5	0,552700
22,167000	0,5	0,581150
22,175333	0,5	0,634750
22,183667	0,5	0,685550
22,192000	0,5	0,722500
22,200333	0,5	0,776100
22,208667	0,5	0,826950
22,217000	0,5	0,874750
22,225333	0,5	0,928400
22,233667	0,5	0,972850
22,242000	0,5	1,020000
22,250333	0,5	1,059200
22,258667	0,5	1,107100
22,267000	0,5	1,144400
22,275333	0,5	1,209150
22,283667	0,5	1,267950
22,292000	0,5	1,313200
22,300333	0,5	1,357200
22,308667	0,5	1,399350
22,317000	0,5	1,452700
22,325333	0,5	1,509350
22,333667	0,5	1,561150
22,342000	0,5	1,608050
22,350333	0,5	1,657400
22,358667	0,5	1,705950
22,367000	0,5	1,757600
22,375333	0,5	1,803050
22,383667	0,5	1,860250
22,392000	0,5	1,911350
22,400333	0,5	1,961000
22,408667	0,5	2,005250
22,417000	0,5	2,079200
22,425333	0,5	2,151000
22,433667	0,5	2,219250
22,442000	0,5	2,275950
22,450333	0,5	2,328100
22,458667	0,5	2,387600
22,467000	0,5	2,460700
22,475333	0,5	2,531150
22,483667	0,5	2,607150
22,492000	0,5	2,680150
22,500333	0,5	2,752800
22,508667	0,5	2,827500
22,517000	0,5	2,896650
22,525333	0,5	2,973200
22,533667	0,5	3,039300
22,542000	0,5	3,106100
22,550333	0,5	3,150600
22,558667	0,5	3,228000
22,567000	0,5	3,319800
22,575333	0,5	3,396350
22,583667	0,5	3,459500
22,592000	0,5	3,522400
22,600333	0,5	3,557900
22,608667	0,5	3,610750
22,617000	0,5	3,662350
22,625333	0,5	3,706900
22,633667	0,5	3,746900
22,642000	0,5	3,783350
22,650333	0,5	3,813500
22,658667	0,5	3,836750
22,667000	0,5	3,855350
22,675333	0,5	3,862150
22,683667	0,5	3,863050
22,692000	0,5	3,806400
22,700333	0,5	3,804050
22,708667	0,5	3,772900
22,717000	0,5	3,763550
22,725333	0,5	3,709750
22,733667	0,5	3,642950
22,742000	0,5	3,563350
22,750333	0,5	3,476800
22,758667	0,5	3,402100
22,767000	0,5	3,316900
22,775333	0,5	3,215300
22,783667	0,5	3,114250
22,792000	0,5	3,003950
22,800333	0,5	2,886850
22,808667	0,5	2,757650
22,817000	0,5	2,622500
22,825333	0,5	2,479650
22,833667	0,5	2,328550
22,842000	0,5	2,131000
22,850333	0,5	1,980600
22,858667	0,5	1,840450
22,867000	0,5	1,675200
22,875333	0,5	1,501000
22,883667	0,5	1,326700
22,892000	0,5	1,155000
22,900333	0,5	0,984500
22,908667	0,5	0,806350
22,917000	0,5	0,643100
22,925333	0,5	0,482400
22,933667	0,5	0,328650
22,942000	0,5	0,327050
22,950333	0,5	0,020550
22,958667	0,5	-0,134200
22,967000	0,5	-0,283900
22,975333	0,5	-0,425150
22,983667	0,5	-0,553100
22,992000	0,5	-0,706300
23,000333	0,5	-0,840400
23,008667	0,5	-1,005150
23,017000	0,5	-1,146550
23,025333	0,5	-1,260350
23,033667	0,5	-1,375250
23,042000	0,5	-1,466750
23,050333	0,5	-1,575900
23,058667	0,5	-1,674800
23,067000	0,5	-1,763350
23,075333	0,5	-1,836600
23,083667	0,5	-1,917350
23,092000	0,5	-1,980600
23,100333	0,5	-2,047500
23,108667	0,5	-2,109300
23,117000	0,5	-2,168200
23,125333	0,5	-2,223850
23,133667	0,5	-2,270400
23,142000	0,5	-2,305450
23,150333	0,5	-2,365850
23,158667	0,5	-2,444150
23,167000	0,5	-2,477600
23,175333	0,5	-2,516800
23,183667	0,5	-2,530150
23,192000	0,5	-2,547500
23,200333	0,5	-2,562550
23,208667	0,5	-2,581950
23,217000	0,5	-2,576900
23,225333	0,5	-2,582250
23,233667	0,5	-2,570650
23,242000	0,5	-2,567650
23,250333	0,5	-2,562100
23,258667	0,5	-2,556450
23,267000	0,5	-2,548800
23,275333	0,5	-2,529150
23,283667	0,5	-2,545700
23,292000	0,5	-2,515600
23,300333	0,5	-2,510600
23,308667	0,5	-2,535200
23,317000	0,5	-2,528100
23,325333	0,5	-2,515550
23,333667	0,5	-2,493000
23,342000	0,5	-2,468650
23,350333	0,5	-2,454050
23,358667	0,5	-2,428000
23,367000	0,5	-2,403100
23,375333	0,5	-2,366700
23,383667	0,5	-2,339650
23,392000	0,5	-2,302600
23,400333	0,5	-2,277800
23,408667	0,5	-2,236800
23,417000	0,5	-2,211800
23,425333	0,5	-2,212600
23,433667	0,5	-2,193100
23,442000	0,5	-2,136400
23,450333	0,5	-2,098350
23,458667	0,5	-2,097550
23,467000	0,5	-2,083400
23,475333	0,5	-2,067350
23,483667	0,5	-2,044200
23,492000	0,5	-2,028700
23,500333	0,5	-2,008050
23,508667	0,5	-1,991450
23,517000	0,5	-1,967600
23,525333	0,5	-1,948400
23,533667	0,5	-1,923550
23,542000	0,5	-1,901650
23,550333	0,5	-1,883100
23,558667	0,5	-1,860900
23,567000	0,5	-1,845050
23,575333	0,5	-1,915650
23,583667	0,5	-1,876750
23,592000	0,5	-1,808500
23,600333	0,5	-1,773400
23,608667	0,5	-1,764800
23,617000	0,5	-1,754950
23,625333	0,5	-1,743150
23,633667	0,5	-1,734400
23,642000	0,5	-1,724950
23,650333	0,5	-1,713650
23,658667	0,5	-1,702550
23,667000	0,5	-1,687950
23,675333	0,5	-1,680450
23,683667	0,5	-1,671900
23,692000	0,5	-1,664700
23,700333	0,5	-1,655700
23,708667	0,5	-1,648100
23,717000	0,5	-1,704250
23,725333	0,5	-1,764700
23,733667	0,5	-1,729000
23,742000	0,5	-1,675950
23,750333	0,5	-1,642950
23,758667	0,5	-1,639600
23,767000	0,5	-1,639400
23,775333	0,5	-1,644650
23,783667	0,5	-1,639600
23,792000	0,5	-1,624700
23,800333	0,5	-1,616800
23,808667	0,5	-1,606350
23,817000	0,5	-1,596200
23,825333	0,5	-1,581550
23,833667	0,5	-1,572100
23,842000	0,5	-1,557800
23,850333	0,5	-1,548500
23,858667	0,5	-1,540950
23,867000	0,5	-1,680850
23,875333	0,5	-1,639400
23,883667	0,5	-1,624200
23,892000	0,5	-1,551750
23,900333	0,5	-1,536950
23,908667	0,5	-1,526650
23,917000	0,5	-1,529400
23,925333	0,5	-1,537850
23,933667	0,5	-1,531800
23,942000	0,5	-1,520300
23,950333	0,5	-1,513850
23,958667	0,5	-1,503400
23,967000	0,5	-1,494900
23,975333	0,5	-1,485500
23,983667	0,5	-1,471650
23,992000	0,5	-1,458250
24,000333	0,5	-1,446650
24,008667	0,5	-1,458950
24,017000	0,5	-1,572450
24,025333	0,5	-1,527750
24,033667	0,5	-1,481800
24,042000	0,5	-1,421950
24,050333	0,5	-1,397150
24,058667	0,5	-1,386100
24,067000	0,5	-1,380300
24,075333	0,5	-1,385950
24,083667	0,5	-1,367600
24,092000	0,5	-1,356450
24,100333	0,5	-1,335700
24,108667	0,5	-1,323850
24,117000	0,5	-1,298550
24,125333	0,5	-1,284800
24,133667	0,5	-1,269100
24,142000	0,5	-1,253750
24,150333	0,5	-1,249900
24,158667	0,5	-1,293900
24,167000	0,5	-1,348000
24,175333	0,5	-1,305800
24,183667	0,5	-1,264600
24,192000	0,5	-1,218550
24,200333	0,5	-1,210350
24,208667	0,5	-1,198150
24,217000	0,5	-1,205750
24,225333	0,5	-1,200850
24,233667	0,5	-1,188300
24,242000	0,5	-1,160850
24,250333	0,5	-1,145100
24,258667	0,5	-1,124450
24,267000	0,5	-1,111150
24,275333	0,5	-1,088050
24,283667	0,5	-1,070750
24,292000	0,5	-1,051200
24,300333	0,5	-1,038650
24,308667	0,5	-1,116200
24,317000	0,5	-1,094350
24,325333	0,5	-1,062700
24,333667	0,5	-1,018300
24,342000	0,5	-0,985400
24,350333	0,5	-0,976500
24,358667	0,5	-0,969000
24,367000	0,5	-0,973750
24,375333	0,5	-0,973050
24,383667	0,5	-0,954550
24,392000	0,5	-0,948050
24,400333	0,5	-0,931200
24,408667	0,5	-0,922700
24,417000	0,5	-0,903500
24,425333	0,5	-0,891650
24,433667	0,5	-0,877600
24,442000	0,5	-0,867250
24,450333	0,5	-0,863400
24,458667	0,5	-0,919450
24,467000	0,5	-0,894800
24,475333	0,5	-0,871400
24,483667	0,5	-0,831900
24,492000	0,5	-0,807300
24,500333	0,5	-0,798950
24,508667	0,5	-0,794100
24,517000	0,5	-0,794650
24,525333	0,5	-0,770500
24,533667	0,5	-0,760750
24,542000	0,5	-0,743750
24,550333	0,5	-0,736300
24,558667	0,5	-0,722750
24,567000	0,5	-0,710550
24,575333	0,5	-0,697400
24,583667	0,5	-0,688500
24,592000	0,5	-0,677950
24,600333	0,5	-0,705000
24,608667	0,5	-0,712600
24,617000	0,5	-0,705350
24,625333	0,5	-0,680600
24,633667	0,5	-0,659600
24,642000	0,5	-0,647100
24,650333	0,5	-0,642000
24,658667	0,5	-0,642800
24,667000	0,5	-0,640150
24,675333	0,5	-0,631150
24,683667	0,5	-0,619400
24,692000	0,5	-0,610700
24,700333	0,5	-0,598300
24,708667	0,5	-0,592800
24,717000	0,5	-0,578350
24,725333	0,5	-0,566050
24,733667	0,5	-0,550550
24,742000	0,5	-0,544250
24,750333	0,5	-0,574550
24,758667	0,5	-0,563450
24,767000	0,5	-0,552350
24,775333	0,5	-0,527900
24,783667	0,5	-0,510550
24,792000	0,5	-0,499250
24,800333	0,5	-0,499800
24,808667	0,5	-0,505450
24,817000	0,5	-0,500100
24,825333	0,5	-0,489600
24,833667	0,5	-0,484700
24,842000	0,5	-0,477900
24,850333	0,5	-0,470450
24,858667	0,5	-0,464650
24,867000	0,5	-0,460900
24,875333	0,5	-0,449750
24,883667	0,5	-0,447050
24,892000	0,5	-0,439500
24,900333	0,5	-0,465650
24,908667	0,5	-0,446700
24,917000	0,5	-0,437450
24,925333	0,5	-0,418500
24,933667	0,5	-0,410200
24,942000	0,5	-0,401500
24,950333	0,5	-0,400750
24,958667	0,5	-0,403850
24,967000	0,5	-0,393000
24,975333	0,5	-0,383600
24,983667	0,5	-0,380050
24,992000	0,5	-0,372200
25,000333	0,5	-0,364250
25,008667	0,5	-0,357900
25,017000	0,5	-0,353250
25,025333	0,5	-0,346500
25,033667	0,5	-0,341150
25,042000	0,5	-0,348950
25,050333	0,5	-0,350950
25,058667	0,5	-0,342400
25,067000	0,5	-0,336400
25,075333	0,5	-0,328400
25,083667	0,5	-0,321100
25,092000	0,5	-0,321250
25,100333	0,5	-0,321750
25,108667	0,5	-0,324850
25,117000	0,5	-0,317400
25,125333	0,5	-0,313750
25,133667	0,5	-0,309650
25,142000	0,5	-0,303950
25,150333	0,5	-0,296800
25,158667	0,5	-0,289600
25,167000	0,5	-0,281500
25,175333	0,5	-0,276800
25,183667	0,5	-0,272100
25,192000	0,5	-0,272350
25,200333	0,5	-0,266050
25,208667	0,5	-0,260500
25,217000	0,5	-0,254800
25,225333	0,5	-0,249900
25,233667	0,5	-0,249350
25,242000	0,5	-0,248000
25,250333	0,5	-0,249000
25,258667	0,5	-0,244950
25,267000	0,5	-0,246500
25,275333	0,5	-0,243600
25,283667	0,5	-0,238700
25,292000	0,5	-0,239900
25,300333	0,5	-0,237050
25,308667	0,5	-0,234650
25,317000	0,5	-0,231700
25,325333	0,5	-0,228300
25,333667	0,5	-0,226050
25,342000	0,5	-0,224900
25,350333	0,5	-0,219600
25,358667	0,5	-0,214850
25,367000	0,5	-0,212300
25,375333	0,5	-0,207550
25,383667	0,5	-0,204000
25,392000	0,5	-0,199950
25,400333	0,5	-0,200450
25,408667	0,5	-0,195550
25,417000	0,5	-0,194000
25,425333	0,5	-0,195100
25,433667	0,5	-0,191200
25,442000	0,5	-0,190450
25,450333	0,5	-0,188300
25,458667	0,5	-0,187750
25,467000	0,5	-0,185100
25,475333	0,5	-0,185050
25,483667	0,5	-0,182100
25,492000	0,5	-0,180700
25,500333	0,5	-0,179900
25,508667	0,5	-0,178550
25,517000	0,5	-0,179650
25,525333	0,5	-0,178500
25,533667	0,5	-0,177900
25,542000	0,5	-0,174550
25,550333	0,5	-0,168300
25,558667	0,5	-0,170350
25,567000	0,5	-0,167950
25,575333	0,5	-0,165400
25,583667	0,5	-0,160750
25,592000	0,5	-0,161350
25,600333	0,5	-0,155800
25,608667	0,5	-0,157350
25,617000	0,5	-0,151250
25,625333	0,5	-0,149250
25,633667	0,5	-0,142550
25,642000	0,5	-0,145700
25,650333	0,5	-0,137600
25,658667	0,5	-0,144000
25,667000	0,5	-0,145000
25,675333	0,5	-0,144600
25,683667	0,5	-0,145800
25,692000	0,5	-0,141600
25,700333	0,5	-0,143650
25,708667	0,5	-0,140850
25,717000	0,5	-0,137900
25,725333	0,5	-0,139050
25,733667	0,5	-0,136650
25,742000	0,5	-0,134550
25,750333	0,5	-0,134050
25,758667	0,5	-0,133050
25,767000	0,5	-0,131350
25,775333	0,5	-0,129550
25,783667	0,5	-0,122550
25,792000	0,5	-0,121700
25,800333	0,5	-0,114450
25,808667	0,5	-0,121150
25,817000	0,5	-0,121300
25,825333	0,5	-0,119150
25,833667	0,5	-0,117400
25,842000	0,5	-0,106800
25,850333	0,5	-0,109650
25,858667	0,5	-0,110850
25,867000	0,5	-0,111700
25,875333	0,5	-0,108200
25,883667	0,5	-0,107250
25,892000	0,5	-0,107000
25,900333	0,5	-0,109400
25,908667	0,5	-0,106400
25,917000	0,5	-0,107050
25,925333	0,5	-0,103550
25,933667	0,5	-0,096650
25,942000	0,5	-0,101250
25,950333	0,5	-0,091050
25,958667	0,5	-0,101150
25,967000	0,5	-0,096650
25,975333	0,5	-0,093550
25,983667	0,5	-0,085450
25,992000	0,5	-0,076800
26,000333	0,5	-0,071750
