File Path	chrom://chromeleon01/ikbm_chromeleon/2022/ICS-5000/ED1/Esteban/20220612_Cell_7_4_eg.seq/423.smp/ED_1.channel/ED_1.chm
Channel	ED_1

Injection Information:
Data Vault	ikbm_chromeleon
Injection	7_00.5h-EGS_2
Injection Number	114
Position	BB6
Comment	
Processing Method	Stop sequence after Cell Death
Instrument Method	ICS5000_PA200_FullNative_Ox_26min_ED1
Type	Unknown
Status	Finished
Injection Date	14.06.2022
Injection Time	21:58:10
Injection Volume (µl)	5,0
Dilution Factor	1,0000
Weight	1,0000

Chromatogram Data Information:
Time Min. (min)	0,000167
Time Max. (min)	26,000167
Data Points	3121
Detector	EDet1
Generating Data System	Chromeleon 7.2.9.11323
Exporting Data System	Chromeleon 7.2.9.0
Operator	Instrument Controller
Signal Quantity	
Signal Unit	nC
Signal Min.	-2,579750
Signal Max.	855,067663
Channel	ED_1
Driver Name	DC-5000
Channel Type	Evaluation
Min. Step (s)	0,5
Max. Step (s)	0,5
Average Step (s)	0,5

Signal Parameter Information:
Signal Info	

Chromatogram Data:
Time (min)	Step (s)	Value (nC)
0,000167	n.a.	-0,067250
0,008500	0,5	-0,092550
0,016833	0,5	-0,078650
0,025167	0,5	-0,070600
0,033500	0,5	-0,057450
0,041833	0,5	-0,037750
0,050167	0,5	-0,059450
0,058500	0,5	-0,059600
0,066833	0,5	-0,021000
0,075167	0,5	-0,053700
0,083500	0,5	-0,066350
0,091833	0,5	-0,054200
0,100167	0,5	-0,045550
0,108500	0,5	0,001750
0,116833	0,5	-0,011650
0,125167	0,5	-0,010250
0,133500	0,5	-0,022600
0,141833	0,5	-0,012750
0,150167	0,5	-0,027100
0,158500	0,5	-0,021700
0,166833	0,5	-0,030250
0,175167	0,5	-0,028150
0,183500	0,5	-0,029800
0,191833	0,5	-0,029600
0,200167	0,5	-0,041600
0,208500	0,5	-0,045800
0,216833	0,5	-0,024800
0,225167	0,5	-0,051250
0,233500	0,5	-0,059500
0,241833	0,5	-0,054950
0,250167	0,5	-0,039600
0,258500	0,5	-0,011250
0,266833	0,5	-0,020200
0,275167	0,5	-0,037850
0,283500	0,5	-0,014300
0,291833	0,5	0,014550
0,300167	0,5	0,053750
0,308500	0,5	0,035500
0,316833	0,5	-0,013400
0,325167	0,5	-0,053450
0,333500	0,5	-0,067000
0,341833	0,5	-0,061000
0,350167	0,5	-0,057400
0,358500	0,5	-0,060000
0,366833	0,5	-0,039400
0,375167	0,5	-0,069000
0,383500	0,5	-0,065300
0,391833	0,5	-0,062200
0,400167	0,5	-0,042950
0,408500	0,5	-0,014250
0,416833	0,5	-0,035750
0,425167	0,5	-0,032400
0,433500	0,5	-0,033650
0,441833	0,5	-0,030950
0,450167	0,5	-0,042350
0,458500	0,5	-0,036350
0,466833	0,5	-0,047100
0,475167	0,5	-0,043300
0,483500	0,5	-0,043200
0,491833	0,5	-0,036200
0,500167	0,5	-0,058050
0,508500	0,5	-0,037100
0,516833	0,5	-0,052850
0,525167	0,5	-0,063250
0,533500	0,5	-0,061850
0,541833	0,5	-0,041700
0,550167	0,5	-0,019400
0,558500	0,5	-0,002100
0,566833	0,5	-0,006200
0,575167	0,5	-0,001950
0,583500	0,5	-0,005800
0,591833	0,5	-0,006400
0,600167	0,5	-0,010450
0,608500	0,5	-0,013200
0,616833	0,5	-0,014300
0,625167	0,5	-0,019250
0,633500	0,5	-0,014250
0,641833	0,5	-0,033450
0,650167	0,5	-0,025650
0,658500	0,5	-0,009700
0,666833	0,5	-0,023000
0,675167	0,5	-0,031700
0,683500	0,5	-0,023850
0,691833	0,5	-0,008300
0,700167	0,5	0,026700
0,708500	0,5	0,031900
0,716833	0,5	0,028250
0,725167	0,5	0,018750
0,733500	0,5	0,027050
0,741833	0,5	0,017900
0,750167	0,5	0,022100
0,758500	0,5	0,013200
0,766833	0,5	0,020600
0,775167	0,5	0,023850
0,783500	0,5	0,021000
0,791833	0,5	0,014100
0,800167	0,5	0,020900
0,808500	0,5	0,028050
0,816833	0,5	0,012700
0,825167	0,5	0,011550
0,833500	0,5	0,014950
0,841833	0,5	0,044700
0,850167	0,5	0,059850
0,858500	0,5	0,072800
0,866833	0,5	0,061550
0,875167	0,5	0,067850
0,883500	0,5	0,058500
0,891833	0,5	0,065550
0,900167	0,5	0,063500
0,908500	0,5	0,066100
0,916833	0,5	0,066100
0,925167	0,5	0,061500
0,933500	0,5	0,065900
0,941833	0,5	0,056200
0,950167	0,5	0,081700
0,958500	0,5	0,075250
0,966833	0,5	0,060400
0,975167	0,5	0,063150
0,983500	0,5	0,069200
0,991833	0,5	0,096350
1,000167	0,5	0,106850
1,008500	0,5	0,091950
1,016833	0,5	0,107500
1,025167	0,5	0,097700
1,033500	0,5	0,109600
1,041833	0,5	0,096200
1,050167	0,5	0,108650
1,058500	0,5	0,094800
1,066833	0,5	0,101200
1,075167	0,5	0,103550
1,083500	0,5	0,098150
1,091833	0,5	0,085750
1,100167	0,5	0,127100
1,108500	0,5	0,099350
1,116833	0,5	0,090450
1,125167	0,5	0,088200
1,133500	0,5	0,101200
1,141833	0,5	0,138550
1,150167	0,5	0,128300
1,158500	0,5	0,128300
1,166833	0,5	0,125750
1,175167	0,5	0,135800
1,183500	0,5	0,123650
1,191833	0,5	0,133000
1,200167	0,5	0,126600
1,208500	0,5	0,131850
1,216833	0,5	0,128750
1,225167	0,5	0,137700
1,233500	0,5	0,129150
1,241833	0,5	0,130350
1,250167	0,5	0,149100
1,258500	0,5	0,124800
1,266833	0,5	0,120200
1,275167	0,5	0,127800
1,283500	0,5	0,135050
1,291833	0,5	0,170250
1,300167	0,5	0,157900
1,308500	0,5	0,150100
1,316833	0,5	0,154600
1,325167	0,5	0,154750
1,333500	0,5	0,154800
1,341833	0,5	0,156500
1,350167	0,5	0,155450
1,358500	0,5	0,146750
1,366833	0,5	0,151000
1,375167	0,5	0,159650
1,383500	0,5	0,169750
1,391833	0,5	0,162050
1,400167	0,5	0,174050
1,408500	0,5	0,139400
1,416833	0,5	0,143700
1,425167	0,5	0,144050
1,433500	0,5	0,164600
1,441833	0,5	0,190600
1,450167	0,5	0,182500
1,458500	0,5	0,178950
1,466833	0,5	0,181150
1,475167	0,5	0,176500
1,483500	0,5	0,176350
1,491833	0,5	0,176350
1,500167	0,5	0,173950
1,508500	0,5	0,175250
1,516833	0,5	0,173050
1,525167	0,5	0,186200
1,533500	0,5	0,176000
1,541833	0,5	0,191350
1,550167	0,5	0,194150
1,558500	0,5	0,248050
1,566833	0,5	0,455850
1,575167	0,5	0,854950
1,583500	0,5	1,348450
1,591833	0,5	3,243600
1,600167	0,5	12,537700
1,608500	0,5	47,004051
1,616833	0,5	149,813952
1,625167	0,5	366,833005
1,633500	0,5	643,277510
1,641833	0,5	834,198562
1,650167	0,5	855,067663
1,658500	0,5	729,028261
1,666833	0,5	542,629858
1,675167	0,5	376,967356
1,683500	0,5	261,994254
1,691833	0,5	188,962253
1,700167	0,5	143,117802
1,708500	0,5	114,289352
1,716833	0,5	96,263451
1,725167	0,5	84,359401
1,733500	0,5	75,313601
1,741833	0,5	67,985051
1,750167	0,5	62,380701
1,758500	0,5	57,813551
1,766833	0,5	57,767301
1,775167	0,5	48,764001
1,783500	0,5	45,596401
1,791833	0,5	44,764351
1,800167	0,5	46,755301
1,808500	0,5	50,679151
1,816833	0,5	54,834551
1,825167	0,5	57,811101
1,833500	0,5	59,012851
1,841833	0,5	58,073451
1,850167	0,5	55,281201
1,858500	0,5	51,607301
1,866833	0,5	47,970701
1,875167	0,5	44,868151
1,883500	0,5	42,379651
1,891833	0,5	40,396551
1,900167	0,5	38,674801
1,908500	0,5	37,044001
1,916833	0,5	35,487201
1,925167	0,5	34,193851
1,933500	0,5	33,220550
1,941833	0,5	32,414100
1,950167	0,5	31,510500
1,958500	0,5	30,526500
1,966833	0,5	29,637000
1,975167	0,5	29,019100
1,983500	0,5	28,871800
1,991833	0,5	29,242050
2,000167	0,5	29,936000
2,008500	0,5	30,359800
2,016833	0,5	30,000800
2,025167	0,5	29,048500
2,033500	0,5	27,929450
2,041833	0,5	27,005150
2,050167	0,5	26,417350
2,058500	0,5	26,112650
2,066833	0,5	26,029600
2,075167	0,5	26,167900
2,083500	0,5	26,716900
2,091833	0,5	27,724850
2,100167	0,5	28,972550
2,108500	0,5	30,134900
2,116833	0,5	31,540550
2,125167	0,5	33,925251
2,133500	0,5	37,586951
2,141833	0,5	41,272101
2,150167	0,5	43,562501
2,158500	0,5	43,842251
2,166833	0,5	42,398801
2,175167	0,5	39,494901
2,183500	0,5	35,592401
2,191833	0,5	31,689450
2,200167	0,5	28,606350
2,208500	0,5	26,533950
2,216833	0,5	25,405000
2,225167	0,5	25,261350
2,233500	0,5	26,334600
2,241833	0,5	28,490650
2,250167	0,5	30,445600
2,258500	0,5	30,663100
2,266833	0,5	29,004250
2,275167	0,5	26,702050
2,283500	0,5	24,767200
2,291833	0,5	23,351500
2,300167	0,5	22,378750
2,308500	0,5	21,729300
2,316833	0,5	21,326650
2,325167	0,5	21,113900
2,333500	0,5	20,882350
2,341833	0,5	20,679300
2,350167	0,5	20,552950
2,358500	0,5	20,639000
2,366833	0,5	20,910650
2,375167	0,5	21,234900
2,383500	0,5	21,430350
2,391833	0,5	21,548850
2,400167	0,5	21,812450
2,408500	0,5	22,403700
2,416833	0,5	23,118900
2,425167	0,5	23,446800
2,433500	0,5	23,105200
2,441833	0,5	22,321600
2,450167	0,5	21,589850
2,458500	0,5	21,076750
2,466833	0,5	20,779500
2,475167	0,5	20,585150
2,483500	0,5	20,420350
2,491833	0,5	20,268150
2,500167	0,5	20,164950
2,508500	0,5	20,050450
2,516833	0,5	19,908150
2,525167	0,5	19,729950
2,533500	0,5	19,560550
2,541833	0,5	19,412350
2,550167	0,5	19,299400
2,558500	0,5	19,201300
2,566833	0,5	19,071950
2,575167	0,5	18,944000
2,583500	0,5	18,897650
2,591833	0,5	19,392850
2,600167	0,5	20,777350
2,608500	0,5	21,399300
2,616833	0,5	20,362750
2,625167	0,5	19,102850
2,633500	0,5	18,293600
2,641833	0,5	17,862650
2,650167	0,5	17,600400
2,658500	0,5	17,435150
2,666833	0,5	17,300750
2,675167	0,5	17,205300
2,683500	0,5	17,108000
2,691833	0,5	17,032950
2,700167	0,5	16,951600
2,708500	0,5	16,859600
2,716833	0,5	16,772850
2,725167	0,5	16,706650
2,733500	0,5	16,590500
2,741833	0,5	16,476200
2,750167	0,5	16,371500
2,758500	0,5	16,287350
2,766833	0,5	16,230400
2,775167	0,5	16,182950
2,783500	0,5	16,180350
2,791833	0,5	16,253200
2,800167	0,5	16,465250
2,808500	0,5	16,870550
2,816833	0,5	17,521600
2,825167	0,5	18,369100
2,833500	0,5	19,287250
2,841833	0,5	20,097900
2,850167	0,5	20,691600
2,858500	0,5	20,984300
2,866833	0,5	21,012000
2,875167	0,5	20,729050
2,883500	0,5	20,190250
2,891833	0,5	19,535750
2,900167	0,5	18,920250
2,908500	0,5	18,483100
2,916833	0,5	18,360400
2,925167	0,5	18,676800
2,933500	0,5	19,576550
2,941833	0,5	21,085150
2,950167	0,5	23,035250
2,958500	0,5	25,058250
2,966833	0,5	26,792600
2,975167	0,5	28,079050
2,983500	0,5	29,136850
2,991833	0,5	30,424950
3,000167	0,5	32,221750
3,008500	0,5	34,361851
3,016833	0,5	36,229201
3,025167	0,5	37,112001
3,033500	0,5	36,657901
3,041833	0,5	34,939001
3,050167	0,5	32,317550
3,058500	0,5	29,306150
3,066833	0,5	26,300250
3,075167	0,5	23,647950
3,083500	0,5	21,541250
3,091833	0,5	20,044000
3,100167	0,5	19,155500
3,108500	0,5	18,931550
3,116833	0,5	19,426700
3,125167	0,5	20,661750
3,133500	0,5	22,492950
3,141833	0,5	24,537800
3,150167	0,5	26,270300
3,158500	0,5	27,167500
3,166833	0,5	27,056550
3,175167	0,5	25,883400
3,183500	0,5	24,002650
3,191833	0,5	21,800600
3,200167	0,5	19,641400
3,208500	0,5	17,764400
3,216833	0,5	16,226950
3,225167	0,5	15,048900
3,233500	0,5	14,210650
3,241833	0,5	13,590300
3,250167	0,5	13,151750
3,258500	0,5	12,815450
3,266833	0,5	12,566550
3,275167	0,5	12,366500
3,283500	0,5	12,207250
3,291833	0,5	12,075850
3,300167	0,5	11,948100
3,308500	0,5	11,845050
3,316833	0,5	11,780500
3,325167	0,5	11,678400
3,333500	0,5	11,619600
3,341833	0,5	11,594400
3,350167	0,5	11,644250
3,358500	0,5	11,782500
3,366833	0,5	11,964550
3,375167	0,5	12,254000
3,383500	0,5	12,578350
3,391833	0,5	12,894950
3,400167	0,5	13,077300
3,408500	0,5	13,100650
3,416833	0,5	12,922750
3,425167	0,5	12,601950
3,433500	0,5	12,196650
3,441833	0,5	11,784950
3,450167	0,5	11,407900
3,458500	0,5	11,120200
3,466833	0,5	10,903750
3,475167	0,5	10,725950
3,483500	0,5	10,605300
3,491833	0,5	10,517050
3,500167	0,5	10,463750
3,508500	0,5	10,432000
3,516833	0,5	10,397550
3,525167	0,5	10,356100
3,533500	0,5	10,345450
3,541833	0,5	10,334250
3,550167	0,5	10,343850
3,558500	0,5	10,371300
3,566833	0,5	10,442750
3,575167	0,5	10,559650
3,583500	0,5	10,752600
3,591833	0,5	10,988250
3,600167	0,5	11,247250
3,608500	0,5	11,465900
3,616833	0,5	11,581350
3,625167	0,5	11,536650
3,633500	0,5	11,375150
3,641833	0,5	11,112950
3,650167	0,5	10,819200
3,658500	0,5	10,520250
3,666833	0,5	10,237000
3,675167	0,5	10,022700
3,683500	0,5	9,863350
3,691833	0,5	9,748500
3,700167	0,5	9,663300
3,708500	0,5	9,604000
3,716833	0,5	9,557350
3,725167	0,5	9,537800
3,733500	0,5	9,518950
3,741833	0,5	9,510250
3,750167	0,5	9,504200
3,758500	0,5	9,522400
3,766833	0,5	9,488700
3,775167	0,5	9,462150
3,783500	0,5	9,443750
3,791833	0,5	9,444950
3,800167	0,5	9,462150
3,808500	0,5	9,474050
3,816833	0,5	9,483300
3,825167	0,5	9,499550
3,833500	0,5	9,499150
3,841833	0,5	9,479800
3,850167	0,5	9,435600
3,858500	0,5	9,376250
3,866833	0,5	9,312500
3,875167	0,5	9,248800
3,883500	0,5	9,196700
3,891833	0,5	9,128650
3,900167	0,5	9,107900
3,908500	0,5	9,087850
3,916833	0,5	9,055150
3,925167	0,5	9,031650
3,933500	0,5	9,016150
3,941833	0,5	9,013700
3,950167	0,5	8,997200
3,958500	0,5	8,955700
3,966833	0,5	8,923300
3,975167	0,5	8,876700
3,983500	0,5	8,842050
3,991833	0,5	8,793650
4,000167	0,5	8,770750
4,008500	0,5	8,739000
4,016833	0,5	8,726450
4,025167	0,5	8,718600
4,033500	0,5	8,715250
4,041833	0,5	8,705000
4,050167	0,5	8,724950
4,058500	0,5	8,711800
4,066833	0,5	8,685100
4,075167	0,5	8,662050
4,083500	0,5	8,634950
4,091833	0,5	8,630000
4,100167	0,5	8,589100
4,108500	0,5	8,554600
4,116833	0,5	8,513300
4,125167	0,5	8,494700
4,133500	0,5	8,460000
4,141833	0,5	8,442350
4,150167	0,5	8,412550
4,158500	0,5	8,395400
4,166833	0,5	8,372800
4,175167	0,5	8,360600
4,183500	0,5	8,352050
4,191833	0,5	8,324250
4,200167	0,5	8,335200
4,208500	0,5	8,306000
4,216833	0,5	8,285850
4,225167	0,5	8,273000
4,233500	0,5	8,272900
4,241833	0,5	8,295900
4,250167	0,5	8,292000
4,258500	0,5	8,275350
4,266833	0,5	8,279550
4,275167	0,5	8,264300
4,283500	0,5	8,265150
4,291833	0,5	8,245150
4,300167	0,5	8,236350
4,308500	0,5	8,213150
4,316833	0,5	8,201550
4,325167	0,5	8,186500
4,333500	0,5	8,172900
4,341833	0,5	8,139300
4,350167	0,5	8,139400
4,358500	0,5	8,095300
4,366833	0,5	8,075850
4,375167	0,5	8,057850
4,383500	0,5	8,053200
4,391833	0,5	8,060250
4,400167	0,5	8,032550
4,408500	0,5	8,013200
4,416833	0,5	7,998750
4,425167	0,5	7,987200
4,433500	0,5	7,970950
4,441833	0,5	7,970800
4,450167	0,5	7,960350
4,458500	0,5	7,960900
4,466833	0,5	7,954300
4,475167	0,5	7,957900
4,483500	0,5	7,947900
4,491833	0,5	7,959350
4,500167	0,5	7,965000
4,508500	0,5	7,945900
4,516833	0,5	7,934750
4,525167	0,5	7,927050
4,533500	0,5	7,919500
4,541833	0,5	7,919800
4,550167	0,5	7,886700
4,558500	0,5	7,857900
4,566833	0,5	7,828050
4,575167	0,5	7,807700
4,583500	0,5	7,779350
4,591833	0,5	7,760000
4,600167	0,5	7,739300
4,608500	0,5	7,725350
4,616833	0,5	7,714750
4,625167	0,5	7,693900
4,633500	0,5	7,683300
4,641833	0,5	7,679650
4,650167	0,5	7,663350
4,658500	0,5	7,632100
4,666833	0,5	7,628400
4,675167	0,5	7,620700
4,683500	0,5	7,639300
4,691833	0,5	7,640300
4,700167	0,5	7,628750
4,708500	0,5	7,609200
4,716833	0,5	7,601000
4,725167	0,5	7,583650
4,733500	0,5	7,577900
4,741833	0,5	7,568300
4,750167	0,5	7,553300
4,758500	0,5	7,545050
4,766833	0,5	7,534950
4,775167	0,5	7,524700
4,783500	0,5	7,520300
4,791833	0,5	7,522850
4,800167	0,5	7,495650
4,808500	0,5	7,479550
4,816833	0,5	7,470200
4,825167	0,5	7,478150
4,833500	0,5	7,485750
4,841833	0,5	7,485250
4,850167	0,5	7,466850
4,858500	0,5	7,472450
4,866833	0,5	7,457900
4,875167	0,5	7,464750
4,883500	0,5	7,456000
4,891833	0,5	7,456800
4,900167	0,5	7,451150
4,908500	0,5	7,454950
4,916833	0,5	7,459850
4,925167	0,5	7,456050
4,933500	0,5	7,475100
4,941833	0,5	7,491300
4,950167	0,5	7,494900
4,958500	0,5	7,516250
4,966833	0,5	7,558400
4,975167	0,5	7,625100
4,983500	0,5	7,702250
4,991833	0,5	7,766650
5,000167	0,5	7,862300
5,008500	0,5	7,958500
5,016833	0,5	8,080600
5,025167	0,5	8,196300
5,033500	0,5	8,323000
5,041833	0,5	8,438800
5,050167	0,5	8,556800
5,058500	0,5	8,658350
5,066833	0,5	8,747500
5,075167	0,5	8,801200
5,083500	0,5	8,873450
5,091833	0,5	8,903300
5,100167	0,5	8,923600
5,108500	0,5	8,930750
5,116833	0,5	8,937700
5,125167	0,5	8,944750
5,133500	0,5	8,916950
5,141833	0,5	8,864050
5,150167	0,5	8,792450
5,158500	0,5	8,710200
5,166833	0,5	8,606000
5,175167	0,5	8,484800
5,183500	0,5	8,351050
5,191833	0,5	8,212500
5,200167	0,5	8,071900
5,208500	0,5	7,950250
5,216833	0,5	7,829850
5,225167	0,5	7,717600
5,233500	0,5	7,642500
5,241833	0,5	7,554450
5,250167	0,5	7,479000
5,258500	0,5	7,432000
5,266833	0,5	7,394300
5,275167	0,5	7,388900
5,283500	0,5	7,369500
5,291833	0,5	7,349000
5,300167	0,5	7,345300
5,308500	0,5	7,350850
5,316833	0,5	7,353700
5,325167	0,5	7,372850
5,333500	0,5	7,397150
5,341833	0,5	7,421550
5,350167	0,5	7,459550
5,358500	0,5	7,489850
5,366833	0,5	7,516600
5,375167	0,5	7,527550
5,383500	0,5	7,555750
5,391833	0,5	7,524100
5,400167	0,5	7,508500
5,408500	0,5	7,479700
5,416833	0,5	7,463200
5,425167	0,5	7,437600
5,433500	0,5	7,390450
5,441833	0,5	7,337050
5,450167	0,5	7,305950
5,458500	0,5	7,265950
5,466833	0,5	7,233250
5,475167	0,5	7,207900
5,483500	0,5	7,183400
5,491833	0,5	7,162800
5,500167	0,5	7,150450
5,508500	0,5	7,132250
5,516833	0,5	7,105750
5,525167	0,5	7,095200
5,533500	0,5	7,093900
5,541833	0,5	7,067550
5,550167	0,5	7,055600
5,558500	0,5	7,046300
5,566833	0,5	7,047000
5,575167	0,5	7,057050
5,583500	0,5	7,035900
5,591833	0,5	7,025350
5,600167	0,5	7,001500
5,608500	0,5	6,989850
5,616833	0,5	6,966950
5,625167	0,5	6,953050
5,633500	0,5	6,927750
5,641833	0,5	6,916650
5,650167	0,5	6,904950
5,658500	0,5	6,884700
5,666833	0,5	6,870200
5,675167	0,5	6,873100
5,683500	0,5	6,852100
5,691833	0,5	6,831800
5,700167	0,5	6,827250
5,708500	0,5	6,818800
5,716833	0,5	6,839600
5,725167	0,5	6,837700
5,733500	0,5	6,839950
5,741833	0,5	6,827000
5,750167	0,5	6,824900
5,758500	0,5	6,813300
5,766833	0,5	6,811100
5,775167	0,5	6,804150
5,783500	0,5	6,804200
5,791833	0,5	6,798950
5,800167	0,5	6,795650
5,808500	0,5	6,787400
5,816833	0,5	6,790950
5,825167	0,5	6,793000
5,833500	0,5	6,786150
5,841833	0,5	6,768600
5,850167	0,5	6,774750
5,858500	0,5	6,778550
5,866833	0,5	6,795350
5,875167	0,5	6,789300
5,883500	0,5	6,777050
5,891833	0,5	6,773950
5,900167	0,5	6,760800
5,908500	0,5	6,755450
5,916833	0,5	6,739550
5,925167	0,5	6,726250
5,933500	0,5	6,711050
5,941833	0,5	6,705500
5,950167	0,5	6,698700
5,958500	0,5	6,687400
5,966833	0,5	6,682800
5,975167	0,5	6,682850
5,983500	0,5	6,659400
5,991833	0,5	6,648900
6,000167	0,5	6,645800
6,008500	0,5	6,653000
6,016833	0,5	6,660900
6,025167	0,5	6,645400
6,033500	0,5	6,640800
6,041833	0,5	6,633950
6,050167	0,5	6,625750
6,058500	0,5	6,614700
6,066833	0,5	6,608400
6,075167	0,5	6,594650
6,083500	0,5	6,588750
6,091833	0,5	6,581500
6,100167	0,5	6,581850
6,108500	0,5	6,562450
6,116833	0,5	6,576150
6,125167	0,5	6,565800
6,133500	0,5	6,556200
6,141833	0,5	6,552200
6,150167	0,5	6,552550
6,158500	0,5	6,569700
6,166833	0,5	6,570000
6,175167	0,5	6,557900
6,183500	0,5	6,557500
6,191833	0,5	6,551800
6,200167	0,5	6,549800
6,208500	0,5	6,541950
6,216833	0,5	6,539900
6,225167	0,5	6,535750
6,233500	0,5	6,530200
6,241833	0,5	6,530550
6,250167	0,5	6,523450
6,258500	0,5	6,513850
6,266833	0,5	6,529300
6,275167	0,5	6,519250
6,283500	0,5	6,511950
6,291833	0,5	6,512500
6,300167	0,5	6,513250
6,308500	0,5	6,536400
6,316833	0,5	6,531350
6,325167	0,5	6,525850
6,333500	0,5	6,516100
6,341833	0,5	6,514750
6,350167	0,5	6,501800
6,358500	0,5	6,497250
6,366833	0,5	6,484700
6,375167	0,5	6,475600
6,383500	0,5	6,469650
6,391833	0,5	6,463800
6,400167	0,5	6,459600
6,408500	0,5	6,450650
6,416833	0,5	6,454300
6,425167	0,5	6,435200
6,433500	0,5	6,427250
6,441833	0,5	6,427750
6,450167	0,5	6,433650
6,458500	0,5	6,453900
6,466833	0,5	6,454800
6,475167	0,5	6,444750
6,483500	0,5	6,454750
6,491833	0,5	6,454650
6,500167	0,5	6,466300
6,508500	0,5	6,471500
6,516833	0,5	6,478050
6,525167	0,5	6,478500
6,533500	0,5	6,485650
6,541833	0,5	6,490100
6,550167	0,5	6,492400
6,558500	0,5	6,492400
6,566833	0,5	6,496500
6,575167	0,5	6,473200
6,583500	0,5	6,466950
6,591833	0,5	6,460450
6,600167	0,5	6,466900
6,608500	0,5	6,470250
6,616833	0,5	6,459100
6,625167	0,5	6,452500
6,633500	0,5	6,443700
6,641833	0,5	6,438200
6,650167	0,5	6,425600
6,658500	0,5	6,421250
6,666833	0,5	6,408850
6,675167	0,5	6,403600
6,683500	0,5	6,395950
6,691833	0,5	6,392900
6,700167	0,5	6,383050
6,708500	0,5	6,388750
6,716833	0,5	6,377100
6,725167	0,5	6,365350
6,733500	0,5	6,360000
6,741833	0,5	6,361450
6,750167	0,5	6,380400
6,758500	0,5	6,383150
6,766833	0,5	6,386350
6,775167	0,5	6,386150
6,783500	0,5	6,387650
6,791833	0,5	6,394750
6,800167	0,5	6,402350
6,808500	0,5	6,408150
6,816833	0,5	6,421600
6,825167	0,5	6,432800
6,833500	0,5	6,450450
6,841833	0,5	6,464550
6,850167	0,5	6,488500
6,858500	0,5	6,528700
6,866833	0,5	6,560300
6,875167	0,5	6,609300
6,883500	0,5	6,689000
6,891833	0,5	6,800100
6,900167	0,5	6,973200
6,908500	0,5	7,186250
6,916833	0,5	7,459350
6,925167	0,5	7,799300
6,933500	0,5	8,202900
6,941833	0,5	8,642300
6,950167	0,5	9,079350
6,958500	0,5	9,478650
6,966833	0,5	9,787700
6,975167	0,5	9,984650
6,983500	0,5	10,057700
6,991833	0,5	9,999450
7,000167	0,5	9,834400
7,008500	0,5	9,590300
7,016833	0,5	9,261650
7,025167	0,5	8,897800
7,033500	0,5	8,509550
7,041833	0,5	8,115800
7,050167	0,5	7,735050
7,058500	0,5	7,376600
7,066833	0,5	7,074550
7,075167	0,5	6,841200
7,083500	0,5	6,655650
7,091833	0,5	6,520650
7,100167	0,5	6,412550
7,108500	0,5	6,343750
7,116833	0,5	6,286400
7,125167	0,5	6,245550
7,133500	0,5	6,210600
7,141833	0,5	6,170500
7,150167	0,5	6,143300
7,158500	0,5	6,103200
7,166833	0,5	6,064000
7,175167	0,5	6,024350
7,183500	0,5	6,000750
7,191833	0,5	5,984750
7,200167	0,5	5,969350
7,208500	0,5	5,944950
7,216833	0,5	5,926700
7,225167	0,5	5,908350
7,233500	0,5	5,895450
7,241833	0,5	5,877900
7,250167	0,5	5,860200
7,258500	0,5	5,840700
7,266833	0,5	5,829450
7,275167	0,5	5,817050
7,283500	0,5	5,800550
7,291833	0,5	5,781100
7,300167	0,5	5,775250
7,308500	0,5	5,756350
7,316833	0,5	5,739450
7,325167	0,5	5,720900
7,333500	0,5	5,709350
7,341833	0,5	5,704900
7,350167	0,5	5,688600
7,358500	0,5	5,672550
7,366833	0,5	5,657550
7,375167	0,5	5,645200
7,383500	0,5	5,632400
7,391833	0,5	5,628050
7,400167	0,5	5,614550
7,408500	0,5	5,605150
7,416833	0,5	5,595100
7,425167	0,5	5,580450
7,433500	0,5	5,555600
7,441833	0,5	5,537050
7,450167	0,5	5,525250
7,458500	0,5	5,504800
7,466833	0,5	5,488300
7,475167	0,5	5,474400
7,483500	0,5	5,468850
7,491833	0,5	5,470900
7,500167	0,5	5,464450
7,508500	0,5	5,452600
7,516833	0,5	5,442200
7,525167	0,5	5,422950
7,533500	0,5	5,406900
7,541833	0,5	5,386500
7,550167	0,5	5,374200
7,558500	0,5	5,362200
7,566833	0,5	5,356650
7,575167	0,5	5,352000
7,583500	0,5	5,346200
7,591833	0,5	5,342450
7,600167	0,5	5,342850
7,608500	0,5	5,327200
7,616833	0,5	5,314700
7,625167	0,5	5,308000
7,633500	0,5	5,319150
7,641833	0,5	5,361200
7,650167	0,5	5,441200
7,658500	0,5	5,555350
7,666833	0,5	5,654650
7,675167	0,5	5,695900
7,683500	0,5	5,653050
7,691833	0,5	5,558850
7,700167	0,5	5,458050
7,708500	0,5	5,383050
7,716833	0,5	5,334750
7,725167	0,5	5,296600
7,733500	0,5	5,259300
7,741833	0,5	5,233850
7,750167	0,5	5,199000
7,758500	0,5	5,167750
7,766833	0,5	5,144150
7,775167	0,5	5,128850
7,783500	0,5	5,126950
7,791833	0,5	5,127700
7,800167	0,5	5,124400
7,808500	0,5	5,123400
7,816833	0,5	5,118900
7,825167	0,5	5,116800
7,833500	0,5	5,110800
7,841833	0,5	5,109700
7,850167	0,5	5,111800
7,858500	0,5	5,116800
7,866833	0,5	5,130700
7,875167	0,5	5,149550
7,883500	0,5	5,175050
7,891833	0,5	5,228250
7,900167	0,5	5,288500
7,908500	0,5	5,370400
7,916833	0,5	5,507600
7,925167	0,5	5,705700
7,933500	0,5	5,995750
7,941833	0,5	6,383850
7,950167	0,5	6,909900
7,958500	0,5	7,590400
7,966833	0,5	8,430750
7,975167	0,5	9,382500
7,983500	0,5	10,360000
7,991833	0,5	11,235300
8,000167	0,5	11,874050
8,008500	0,5	12,180650
8,016833	0,5	12,099200
8,025167	0,5	11,625750
8,033500	0,5	10,818450
8,041833	0,5	9,778700
8,050167	0,5	8,672000
8,058500	0,5	7,654000
8,066833	0,5	6,845100
8,075167	0,5	6,266500
8,083500	0,5	5,885700
8,091833	0,5	5,649050
8,100167	0,5	5,504650
8,108500	0,5	5,431600
8,116833	0,5	5,398500
8,125167	0,5	5,412200
8,133500	0,5	5,466800
8,141833	0,5	5,551800
8,150167	0,5	5,641300
8,158500	0,5	5,705950
8,166833	0,5	5,717000
8,175167	0,5	5,668700
8,183500	0,5	5,571550
8,191833	0,5	5,447450
8,200167	0,5	5,310350
8,208500	0,5	5,184750
8,216833	0,5	5,080200
8,225167	0,5	5,005000
8,233500	0,5	4,950100
8,241833	0,5	4,904500
8,250167	0,5	4,881600
8,258500	0,5	4,890650
8,266833	0,5	4,939650
8,275167	0,5	5,012250
8,283500	0,5	5,058500
8,291833	0,5	5,038450
8,300167	0,5	4,962450
8,308500	0,5	4,858950
8,316833	0,5	4,775250
8,325167	0,5	4,710950
8,333500	0,5	4,677550
8,341833	0,5	4,649150
8,350167	0,5	4,631800
8,358500	0,5	4,620700
8,366833	0,5	4,622950
8,375167	0,5	4,640550
8,383500	0,5	4,655000
8,391833	0,5	4,665250
8,400167	0,5	4,663650
8,408500	0,5	4,646200
8,416833	0,5	4,621700
8,425167	0,5	4,601600
8,433500	0,5	4,593600
8,441833	0,5	4,601300
8,450167	0,5	4,615650
8,458500	0,5	4,633800
8,466833	0,5	4,634500
8,475167	0,5	4,624750
8,483500	0,5	4,612300
8,491833	0,5	4,617500
8,500167	0,5	4,658650
8,508500	0,5	4,733300
8,516833	0,5	4,805050
8,525167	0,5	4,826300
8,533500	0,5	4,780100
8,541833	0,5	4,697750
8,550167	0,5	4,613900
8,558500	0,5	4,547100
8,566833	0,5	4,493750
8,575167	0,5	4,460400
8,583500	0,5	4,437150
8,591833	0,5	4,425050
8,600167	0,5	4,422000
8,608500	0,5	4,427500
8,616833	0,5	4,428500
8,625167	0,5	4,423950
8,633500	0,5	4,412650
8,641833	0,5	4,394350
8,650167	0,5	4,381200
8,658500	0,5	4,373300
8,666833	0,5	4,376850
8,675167	0,5	4,374750
8,683500	0,5	4,374900
8,691833	0,5	4,373150
8,700167	0,5	4,385550
8,708500	0,5	4,420850
8,716833	0,5	4,496600
8,725167	0,5	4,592450
8,733500	0,5	4,673400
8,741833	0,5	4,692850
8,750167	0,5	4,657550
8,758500	0,5	4,597550
8,766833	0,5	4,538250
8,775167	0,5	4,498750
8,783500	0,5	4,468800
8,791833	0,5	4,442700
8,800167	0,5	4,436250
8,808500	0,5	4,436350
8,816833	0,5	4,445500
8,825167	0,5	4,463700
8,833500	0,5	4,491100
8,841833	0,5	4,552150
8,850167	0,5	4,654000
8,858500	0,5	4,773100
8,866833	0,5	4,861900
8,875167	0,5	4,875050
8,883500	0,5	4,812850
8,891833	0,5	4,710700
8,900167	0,5	4,636050
8,908500	0,5	4,610950
8,916833	0,5	4,606700
8,925167	0,5	4,585350
8,933500	0,5	4,527900
8,941833	0,5	4,455350
8,950167	0,5	4,397900
8,958500	0,5	4,379050
8,966833	0,5	4,383200
8,975167	0,5	4,384750
8,983500	0,5	4,384750
8,991833	0,5	4,373000
9,000167	0,5	4,361250
9,008500	0,5	4,350400
9,016833	0,5	4,351650
9,025167	0,5	4,364400
9,033500	0,5	4,391850
9,041833	0,5	4,442150
9,050167	0,5	4,524700
9,058500	0,5	4,643850
9,066833	0,5	4,785350
9,075167	0,5	4,912250
9,083500	0,5	4,983500
9,091833	0,5	4,996800
9,100167	0,5	4,981700
9,108500	0,5	4,974050
9,116833	0,5	4,973500
9,125167	0,5	4,965000
9,133500	0,5	4,937100
9,141833	0,5	4,908400
9,150167	0,5	4,900150
9,158500	0,5	4,910550
9,166833	0,5	4,939600
9,175167	0,5	4,986950
9,183500	0,5	5,050350
9,191833	0,5	5,168600
9,200167	0,5	5,373300
9,208500	0,5	5,715850
9,216833	0,5	6,203900
9,225167	0,5	6,587350
9,233500	0,5	6,577300
9,241833	0,5	6,161550
9,250167	0,5	5,664400
9,258500	0,5	5,356850
9,266833	0,5	5,257800
9,275167	0,5	5,331950
9,283500	0,5	5,533650
9,291833	0,5	5,815550
9,300167	0,5	6,140950
9,308500	0,5	6,472700
9,316833	0,5	6,760000
9,325167	0,5	6,970750
9,333500	0,5	7,085350
9,341833	0,5	7,091800
9,350167	0,5	6,999800
9,358500	0,5	6,824450
9,366833	0,5	6,605200
9,375167	0,5	6,370150
9,383500	0,5	6,152600
9,391833	0,5	5,981750
9,400167	0,5	5,884350
9,408500	0,5	5,865300
9,416833	0,5	5,919350
9,425167	0,5	5,992750
9,433500	0,5	6,053650
9,441833	0,5	6,057350
9,450167	0,5	5,989300
9,458500	0,5	5,841150
9,466833	0,5	5,646600
9,475167	0,5	5,430550
9,483500	0,5	5,225900
9,491833	0,5	5,051200
9,500167	0,5	4,917450
9,508500	0,5	4,820200
9,516833	0,5	4,758500
9,525167	0,5	4,722850
9,533500	0,5	4,711900
9,541833	0,5	4,720200
9,550167	0,5	4,744350
9,558500	0,5	4,770000
9,566833	0,5	4,777700
9,575167	0,5	4,758000
9,583500	0,5	4,708350
9,591833	0,5	4,641500
9,600167	0,5	4,573000
9,608500	0,5	4,503850
9,616833	0,5	4,440250
9,625167	0,5	4,386000
9,633500	0,5	4,338700
9,641833	0,5	4,301000
9,650167	0,5	4,264500
9,658500	0,5	4,239800
9,666833	0,5	4,225050
9,675167	0,5	4,215850
9,683500	0,5	4,213000
9,691833	0,5	4,220400
9,700167	0,5	4,233750
9,708500	0,5	4,256050
9,716833	0,5	4,284700
9,725167	0,5	4,318700
9,733500	0,5	4,353800
9,741833	0,5	4,386400
9,750167	0,5	4,423200
9,758500	0,5	4,452850
9,766833	0,5	4,471150
9,775167	0,5	4,478400
9,783500	0,5	4,469100
9,791833	0,5	4,446700
9,800167	0,5	4,420050
9,808500	0,5	4,408500
9,816833	0,5	4,417050
9,825167	0,5	4,451650
9,833500	0,5	4,520550
9,841833	0,5	4,626900
9,850167	0,5	4,766100
9,858500	0,5	4,934450
9,866833	0,5	5,112650
9,875167	0,5	5,283900
9,883500	0,5	5,446700
9,891833	0,5	5,598950
9,900167	0,5	5,745500
9,908500	0,5	5,893300
9,916833	0,5	6,050100
9,925167	0,5	6,211900
9,933500	0,5	6,371850
9,941833	0,5	6,526100
9,950167	0,5	6,670100
9,958500	0,5	6,808950
9,966833	0,5	6,940900
9,975167	0,5	7,064300
9,983500	0,5	7,177100
9,991833	0,5	7,288600
10,000167	0,5	7,388600
10,008500	0,5	7,472900
10,016833	0,5	7,526700
10,025167	0,5	7,538350
10,033500	0,5	7,489650
10,041833	0,5	7,363800
10,050167	0,5	7,148200
10,058500	0,5	6,846850
10,066833	0,5	6,480100
10,075167	0,5	6,088300
10,083500	0,5	5,706750
10,091833	0,5	5,364400
10,100167	0,5	5,081150
10,108500	0,5	4,861800
10,116833	0,5	4,699700
10,125167	0,5	4,593750
10,133500	0,5	4,535050
10,141833	0,5	4,518000
10,150167	0,5	4,529800
10,158500	0,5	4,557150
10,166833	0,5	4,581150
10,175167	0,5	4,587000
10,183500	0,5	4,574100
10,191833	0,5	4,540500
10,200167	0,5	4,491850
10,208500	0,5	4,438400
10,216833	0,5	4,388350
10,225167	0,5	4,338350
10,233500	0,5	4,300850
10,241833	0,5	4,259650
10,250167	0,5	4,217150
10,258500	0,5	4,184850
10,266833	0,5	4,154250
10,275167	0,5	4,123050
10,283500	0,5	4,100450
10,291833	0,5	4,086350
10,300167	0,5	4,085450
10,308500	0,5	4,087350
10,316833	0,5	4,094300
10,325167	0,5	4,103850
10,333500	0,5	4,116650
10,341833	0,5	4,130850
10,350167	0,5	4,144100
10,358500	0,5	4,165350
10,366833	0,5	4,185050
10,375167	0,5	4,215050
10,383500	0,5	4,249050
10,391833	0,5	4,287750
10,400167	0,5	4,323900
10,408500	0,5	4,374300
10,416833	0,5	4,418300
10,425167	0,5	4,456600
10,433500	0,5	4,474800
10,441833	0,5	4,476600
10,450167	0,5	4,453600
10,458500	0,5	4,417000
10,466833	0,5	4,362500
10,475167	0,5	4,308550
10,483500	0,5	4,253750
10,491833	0,5	4,199300
10,500167	0,5	4,151950
10,508500	0,5	4,104000
10,516833	0,5	4,055650
10,525167	0,5	4,014650
10,533500	0,5	3,984450
10,541833	0,5	3,961250
10,550167	0,5	3,954800
10,558500	0,5	3,959300
10,566833	0,5	3,973800
10,575167	0,5	3,991500
10,583500	0,5	4,012200
10,591833	0,5	4,036750
10,600167	0,5	4,066750
10,608500	0,5	4,104800
10,616833	0,5	4,147300
10,625167	0,5	4,199200
10,633500	0,5	4,252200
10,641833	0,5	4,288350
10,650167	0,5	4,303200
10,658500	0,5	4,285500
10,666833	0,5	4,235900
10,675167	0,5	4,168050
10,683500	0,5	4,088050
10,691833	0,5	4,007200
10,700167	0,5	3,941550
10,708500	0,5	3,883600
10,716833	0,5	3,832650
10,725167	0,5	3,785350
10,733500	0,5	3,740950
10,741833	0,5	3,706950
10,750167	0,5	3,683250
10,758500	0,5	3,673650
10,766833	0,5	3,671000
10,775167	0,5	3,684650
10,783500	0,5	3,706600
10,791833	0,5	3,735350
10,800167	0,5	3,775100
10,808500	0,5	3,829150
10,816833	0,5	3,897300
10,825167	0,5	3,975950
10,833500	0,5	4,029350
10,841833	0,5	4,055500
10,850167	0,5	4,044050
10,858500	0,5	3,992300
10,866833	0,5	3,905700
10,875167	0,5	3,817300
10,883500	0,5	3,719350
10,891833	0,5	3,645850
10,900167	0,5	3,576200
10,908500	0,5	3,520200
10,916833	0,5	3,468200
10,925167	0,5	3,425450
10,933500	0,5	3,392100
10,941833	0,5	3,370350
10,950167	0,5	3,366550
10,958500	0,5	3,373050
10,966833	0,5	3,405700
10,975167	0,5	3,456000
10,983500	0,5	3,526000
10,991833	0,5	3,612000
11,000167	0,5	3,701550
11,008500	0,5	3,764850
11,016833	0,5	3,783600
11,025167	0,5	3,755350
11,033500	0,5	3,680750
11,041833	0,5	3,591000
11,050167	0,5	3,494250
11,058500	0,5	3,406100
11,066833	0,5	3,333850
11,075167	0,5	3,277150
11,083500	0,5	3,232700
11,091833	0,5	3,196450
11,100167	0,5	3,172150
11,108500	0,5	3,167500
11,116833	0,5	3,178000
11,125167	0,5	3,212450
11,133500	0,5	3,255100
11,141833	0,5	3,331000
11,150167	0,5	3,405950
11,158500	0,5	3,475700
11,166833	0,5	3,507650
11,175167	0,5	3,500650
11,183500	0,5	3,451200
11,191833	0,5	3,371950
11,200167	0,5	3,271250
11,208500	0,5	3,177500
11,216833	0,5	3,088300
11,225167	0,5	3,010300
11,233500	0,5	2,934350
11,241833	0,5	2,859000
11,250167	0,5	2,779850
11,258500	0,5	2,702800
11,266833	0,5	2,637800
11,275167	0,5	2,580750
11,283500	0,5	2,538800
11,291833	0,5	2,520750
11,300167	0,5	2,508750
11,308500	0,5	2,500250
11,316833	0,5	2,487950
11,325167	0,5	2,475200
11,333500	0,5	2,462250
11,341833	0,5	2,467750
11,350167	0,5	2,482100
11,358500	0,5	2,498350
11,366833	0,5	2,526000
11,375167	0,5	2,552950
11,383500	0,5	2,583200
11,391833	0,5	2,614000
11,400167	0,5	2,644150
11,408500	0,5	2,679100
11,416833	0,5	2,708300
11,425167	0,5	2,732800
11,433500	0,5	2,742800
11,441833	0,5	2,747250
11,450167	0,5	2,730350
11,458500	0,5	2,702300
11,466833	0,5	2,665550
11,475167	0,5	2,626350
11,483500	0,5	2,597150
11,491833	0,5	2,575000
11,500167	0,5	2,561600
11,508500	0,5	2,552850
11,516833	0,5	2,548200
11,525167	0,5	2,554900
11,533500	0,5	2,552150
11,541833	0,5	2,567200
11,550167	0,5	2,572850
11,558500	0,5	2,578250
11,566833	0,5	2,576500
11,575167	0,5	2,569350
11,583500	0,5	2,561950
11,591833	0,5	2,561900
11,600167	0,5	2,557950
11,608500	0,5	2,557500
11,616833	0,5	2,556450
11,625167	0,5	2,561350
11,633500	0,5	2,579800
11,641833	0,5	2,598500
11,650167	0,5	2,621400
11,658500	0,5	2,644700
11,666833	0,5	2,669250
11,675167	0,5	2,687750
11,683500	0,5	2,703800
11,691833	0,5	2,719750
11,700167	0,5	2,735300
11,708500	0,5	2,749100
11,716833	0,5	2,767350
11,725167	0,5	2,774550
11,733500	0,5	2,794900
11,741833	0,5	2,808700
11,750167	0,5	2,818500
11,758500	0,5	2,820850
11,766833	0,5	2,824650
11,775167	0,5	2,837200
11,783500	0,5	2,848400
11,791833	0,5	2,860550
11,800167	0,5	2,870550
11,808500	0,5	2,878500
11,816833	0,5	2,881050
11,825167	0,5	2,884600
11,833500	0,5	2,886000
11,841833	0,5	2,892350
11,850167	0,5	2,901100
11,858500	0,5	2,924150
11,866833	0,5	2,948600
11,875167	0,5	2,984700
11,883500	0,5	3,056200
11,891833	0,5	3,151050
11,900167	0,5	3,274750
11,908500	0,5	3,433450
11,916833	0,5	3,604600
11,925167	0,5	3,785200
11,933500	0,5	3,932300
11,941833	0,5	4,026650
11,950167	0,5	4,050150
11,958500	0,5	4,004850
11,966833	0,5	3,906950
11,975167	0,5	3,771800
11,983500	0,5	3,614700
11,991833	0,5	3,461650
12,000167	0,5	3,331550
12,008500	0,5	3,224850
12,016833	0,5	3,141800
12,025167	0,5	3,088600
12,033500	0,5	3,058750
12,041833	0,5	3,045700
12,050167	0,5	3,044450
12,058500	0,5	3,052100
12,066833	0,5	3,075400
12,075167	0,5	3,121950
12,083500	0,5	3,174600
12,091833	0,5	3,225350
12,100167	0,5	3,270350
12,108500	0,5	3,299900
12,116833	0,5	3,314600
12,125167	0,5	3,313200
12,133500	0,5	3,297550
12,141833	0,5	3,282100
12,150167	0,5	3,263200
12,158500	0,5	3,257650
12,166833	0,5	3,250500
12,175167	0,5	3,271850
12,183500	0,5	3,303450
12,191833	0,5	3,353750
12,200167	0,5	3,412400
12,208500	0,5	3,480300
12,216833	0,5	3,555100
12,225167	0,5	3,618550
12,233500	0,5	3,660950
12,241833	0,5	3,672050
12,250167	0,5	3,645650
12,258500	0,5	3,596650
12,266833	0,5	3,517700
12,275167	0,5	3,436300
12,283500	0,5	3,348100
12,291833	0,5	3,276000
12,300167	0,5	3,223100
12,308500	0,5	3,191600
12,316833	0,5	3,163250
12,325167	0,5	3,160350
12,333500	0,5	3,156750
12,341833	0,5	3,152050
12,350167	0,5	3,138800
12,358500	0,5	3,122100
12,366833	0,5	3,110400
12,375167	0,5	3,088800
12,383500	0,5	3,061850
12,391833	0,5	3,031550
12,400167	0,5	3,010750
12,408500	0,5	2,979100
12,416833	0,5	2,962950
12,425167	0,5	2,948450
12,433500	0,5	2,939150
12,441833	0,5	2,931350
12,450167	0,5	2,926700
12,458500	0,5	2,919150
12,466833	0,5	2,908950
12,475167	0,5	2,906700
12,483500	0,5	2,899250
12,491833	0,5	2,898650
12,500167	0,5	2,894850
12,508500	0,5	2,899550
12,516833	0,5	2,910800
12,525167	0,5	2,922400
12,533500	0,5	2,929050
12,541833	0,5	2,940650
12,550167	0,5	2,954400
12,558500	0,5	2,982650
12,566833	0,5	3,013950
12,575167	0,5	3,055150
12,583500	0,5	3,099900
12,591833	0,5	3,150950
12,600167	0,5	3,206650
12,608500	0,5	3,265100
12,616833	0,5	3,327100
12,625167	0,5	3,392550
12,633500	0,5	3,452250
12,641833	0,5	3,511400
12,650167	0,5	3,559800
12,658500	0,5	3,614050
12,666833	0,5	3,667900
12,675167	0,5	3,725200
12,683500	0,5	3,779100
12,691833	0,5	3,825150
12,700167	0,5	3,861900
12,708500	0,5	3,886900
12,716833	0,5	3,895450
12,725167	0,5	3,890200
12,733500	0,5	3,864750
12,741833	0,5	3,826200
12,750167	0,5	3,780700
12,758500	0,5	3,725350
12,766833	0,5	3,683850
12,775167	0,5	3,627200
12,783500	0,5	3,559000
12,791833	0,5	3,472950
12,800167	0,5	3,382350
12,808500	0,5	3,294800
12,816833	0,5	3,217000
12,825167	0,5	3,160850
12,833500	0,5	3,143200
12,841833	0,5	3,156500
12,850167	0,5	3,199050
12,858500	0,5	3,258150
12,866833	0,5	3,313100
12,875167	0,5	3,340900
12,883500	0,5	3,318350
12,891833	0,5	3,270750
12,900167	0,5	3,196000
12,908500	0,5	3,148450
12,916833	0,5	3,214000
12,925167	0,5	3,337500
12,933500	0,5	3,365250
12,941833	0,5	3,379450
12,950167	0,5	3,269400
12,958500	0,5	2,982500
12,966833	0,5	2,678300
12,975167	0,5	2,349800
12,983500	0,5	1,957900
12,991833	0,5	1,653350
13,000167	0,5	1,417850
13,008500	0,5	1,239400
13,016833	0,5	1,094750
13,025167	0,5	0,980950
13,033500	0,5	0,882000
13,041833	0,5	0,812700
13,050167	0,5	0,738850
13,058500	0,5	0,691650
13,066833	0,5	0,656350
13,075167	0,5	0,624650
13,083500	0,5	0,599100
13,091833	0,5	0,573350
13,100167	0,5	0,565650
13,108500	0,5	0,554550
13,116833	0,5	0,545750
13,125167	0,5	0,528800
13,133500	0,5	0,519000
13,141833	0,5	0,501600
13,150167	0,5	0,488050
13,158500	0,5	0,472200
13,166833	0,5	0,460050
13,175167	0,5	0,452350
13,183500	0,5	0,442900
13,191833	0,5	0,440150
13,200167	0,5	0,429050
13,208500	0,5	0,432150
13,216833	0,5	0,428550
13,225167	0,5	0,421550
13,233500	0,5	0,407300
13,241833	0,5	0,392750
13,250167	0,5	0,377450
13,258500	0,5	0,370350
13,266833	0,5	0,353300
13,275167	0,5	0,342350
13,283500	0,5	0,328150
13,291833	0,5	0,321700
13,300167	0,5	0,314750
13,308500	0,5	0,309450
13,316833	0,5	0,302000
13,325167	0,5	0,298250
13,333500	0,5	0,298050
13,341833	0,5	0,296000
13,350167	0,5	0,285750
13,358500	0,5	0,293700
13,366833	0,5	0,287500
13,375167	0,5	0,283050
13,383500	0,5	0,270050
13,391833	0,5	0,257850
13,400167	0,5	0,258500
13,408500	0,5	0,256350
13,416833	0,5	0,256800
13,425167	0,5	0,258250
13,433500	0,5	0,265900
13,441833	0,5	0,270550
13,450167	0,5	0,277850
13,458500	0,5	0,286850
13,466833	0,5	0,304950
13,475167	0,5	0,329200
13,483500	0,5	0,367950
13,491833	0,5	0,405200
13,500167	0,5	0,461050
13,508500	0,5	0,535050
13,516833	0,5	0,617100
13,525167	0,5	0,703650
13,533500	0,5	0,793250
13,541833	0,5	0,893450
13,550167	0,5	0,999950
13,558500	0,5	1,102500
13,566833	0,5	1,192900
13,575167	0,5	1,267550
13,583500	0,5	1,328500
13,591833	0,5	1,376150
13,600167	0,5	1,408250
13,608500	0,5	1,430400
13,616833	0,5	1,435700
13,625167	0,5	1,438500
13,633500	0,5	1,429650
13,641833	0,5	1,415900
13,650167	0,5	1,405600
13,658500	0,5	1,398400
13,666833	0,5	1,380600
13,675167	0,5	1,368200
13,683500	0,5	1,349250
13,691833	0,5	1,342400
13,700167	0,5	1,339800
13,708500	0,5	1,339450
13,716833	0,5	1,335450
13,725167	0,5	1,337600
13,733500	0,5	1,337500
13,741833	0,5	1,342050
13,750167	0,5	1,340350
13,758500	0,5	1,337650
13,766833	0,5	1,339000
13,775167	0,5	1,340650
13,783500	0,5	1,341000
13,791833	0,5	1,336200
13,800167	0,5	1,345900
13,808500	0,5	1,343100
13,816833	0,5	1,340500
13,825167	0,5	1,334600
13,833500	0,5	1,330550
13,841833	0,5	1,332200
13,850167	0,5	1,342700
13,858500	0,5	1,341100
13,866833	0,5	1,343650
13,875167	0,5	1,347150
13,883500	0,5	1,354950
13,891833	0,5	1,361400
13,900167	0,5	1,365150
13,908500	0,5	1,369800
13,916833	0,5	1,370000
13,925167	0,5	1,380700
13,933500	0,5	1,376100
13,941833	0,5	1,375050
13,950167	0,5	1,382050
13,958500	0,5	1,386150
13,966833	0,5	1,391050
13,975167	0,5	1,390350
13,983500	0,5	1,392250
13,991833	0,5	1,409200
14,000167	0,5	1,407300
14,008500	0,5	1,411500
14,016833	0,5	1,409700
14,025167	0,5	1,416000
14,033500	0,5	1,411100
14,041833	0,5	1,416800
14,050167	0,5	1,410750
14,058500	0,5	1,412350
14,066833	0,5	1,421700
14,075167	0,5	1,428650
14,083500	0,5	1,418050
14,091833	0,5	1,425650
14,100167	0,5	1,426900
14,108500	0,5	1,423400
14,116833	0,5	1,414700
14,125167	0,5	1,398450
14,133500	0,5	1,402350
14,141833	0,5	1,402750
14,150167	0,5	1,408750
14,158500	0,5	1,403950
14,166833	0,5	1,410700
14,175167	0,5	1,409900
14,183500	0,5	1,415200
14,191833	0,5	1,416250
14,200167	0,5	1,418100
14,208500	0,5	1,421450
14,216833	0,5	1,430050
14,225167	0,5	1,436450
14,233500	0,5	1,432350
14,241833	0,5	1,441100
14,250167	0,5	1,445250
14,258500	0,5	1,446250
14,266833	0,5	1,444950
14,275167	0,5	1,440500
14,283500	0,5	1,448750
14,291833	0,5	1,454600
14,300167	0,5	1,457450
14,308500	0,5	1,465800
14,316833	0,5	1,470700
14,325167	0,5	1,478250
14,333500	0,5	1,484450
14,341833	0,5	1,491000
14,350167	0,5	1,493200
14,358500	0,5	1,502000
14,366833	0,5	1,507300
14,375167	0,5	1,515350
14,383500	0,5	1,512650
14,391833	0,5	1,532800
14,400167	0,5	1,535500
14,408500	0,5	1,538400
14,416833	0,5	1,538300
14,425167	0,5	1,539050
14,433500	0,5	1,551650
14,441833	0,5	1,563350
14,450167	0,5	1,572250
14,458500	0,5	1,583300
14,466833	0,5	1,596450
14,475167	0,5	1,610400
14,483500	0,5	1,628250
14,491833	0,5	1,643600
14,500167	0,5	1,666450
14,508500	0,5	1,693850
14,516833	0,5	1,727750
14,525167	0,5	1,745850
14,533500	0,5	1,785200
14,541833	0,5	1,818800
14,550167	0,5	1,844150
14,558500	0,5	1,859800
14,566833	0,5	1,863450
14,575167	0,5	1,869850
14,583500	0,5	1,881700
14,591833	0,5	1,888600
14,600167	0,5	1,896000
14,608500	0,5	1,902050
14,616833	0,5	1,913450
14,625167	0,5	1,931000
14,633500	0,5	1,954000
14,641833	0,5	1,982300
14,650167	0,5	2,009700
14,658500	0,5	2,052050
14,666833	0,5	2,082350
14,675167	0,5	2,108000
14,683500	0,5	2,150050
14,691833	0,5	2,197000
14,700167	0,5	2,235550
14,708500	0,5	2,270850
14,716833	0,5	2,296550
14,725167	0,5	2,331350
14,733500	0,5	2,356900
14,741833	0,5	2,385700
14,750167	0,5	2,410050
14,758500	0,5	2,442600
14,766833	0,5	2,481300
14,775167	0,5	2,538200
14,783500	0,5	2,597900
14,791833	0,5	2,653200
14,800167	0,5	2,704350
14,808500	0,5	2,740850
14,816833	0,5	2,742450
14,825167	0,5	2,732500
14,833500	0,5	2,711750
14,841833	0,5	2,668900
14,850167	0,5	2,624000
14,858500	0,5	2,569100
14,866833	0,5	2,539100
14,875167	0,5	2,519350
14,883500	0,5	2,516100
14,891833	0,5	2,512000
14,900167	0,5	2,521600
14,908500	0,5	2,522300
14,916833	0,5	2,521350
14,925167	0,5	2,503300
14,933500	0,5	2,476800
14,941833	0,5	2,442550
14,950167	0,5	2,408700
14,958500	0,5	2,383000
14,966833	0,5	2,350850
14,975167	0,5	2,341500
14,983500	0,5	2,334700
14,991833	0,5	2,326350
15,000167	0,5	2,310750
15,008500	0,5	2,293050
15,016833	0,5	2,286150
15,025167	0,5	2,288550
15,033500	0,5	2,277950
15,041833	0,5	2,273050
15,050167	0,5	2,260950
15,058500	0,5	2,257700
15,066833	0,5	2,249250
15,075167	0,5	2,242750
15,083500	0,5	2,231500
15,091833	0,5	2,222750
15,100167	0,5	2,219300
15,108500	0,5	2,218900
15,116833	0,5	2,190000
15,125167	0,5	2,192450
15,133500	0,5	2,183400
15,141833	0,5	2,170500
15,150167	0,5	2,156400
15,158500	0,5	2,128900
15,166833	0,5	2,128250
15,175167	0,5	2,118200
15,183500	0,5	2,109200
15,191833	0,5	2,098700
15,200167	0,5	2,088300
15,208500	0,5	2,073850
15,216833	0,5	2,069950
15,225167	0,5	2,057050
15,233500	0,5	2,054700
15,241833	0,5	2,048150
15,250167	0,5	2,047850
15,258500	0,5	2,039500
15,266833	0,5	2,021550
15,275167	0,5	2,021550
15,283500	0,5	2,012600
15,291833	0,5	1,998100
15,300167	0,5	1,983350
15,308500	0,5	1,967500
15,316833	0,5	1,964950
15,325167	0,5	1,967600
15,333500	0,5	1,956450
15,341833	0,5	1,955650
15,350167	0,5	1,947900
15,358500	0,5	1,947650
15,366833	0,5	1,939050
15,375167	0,5	1,943450
15,383500	0,5	1,937800
15,391833	0,5	1,946600
15,400167	0,5	1,944600
15,408500	0,5	1,939050
15,416833	0,5	1,931300
15,425167	0,5	1,930450
15,433500	0,5	1,923450
15,441833	0,5	1,915750
15,450167	0,5	1,896400
15,458500	0,5	1,886400
15,466833	0,5	1,888100
15,475167	0,5	1,884900
15,483500	0,5	1,877400
15,491833	0,5	1,865800
15,500167	0,5	1,854850
15,508500	0,5	1,843700
15,516833	0,5	1,836850
15,525167	0,5	1,824050
15,533500	0,5	1,813600
15,541833	0,5	1,817350
15,550167	0,5	1,816650
15,558500	0,5	1,805000
15,566833	0,5	1,815350
15,575167	0,5	1,818050
15,583500	0,5	1,817950
15,591833	0,5	1,811850
15,600167	0,5	1,793900
15,608500	0,5	1,782750
15,616833	0,5	1,776050
15,625167	0,5	1,758800
15,633500	0,5	1,754950
15,641833	0,5	1,738800
15,650167	0,5	1,726800
15,658500	0,5	1,721650
15,666833	0,5	1,713850
15,675167	0,5	1,705300
15,683500	0,5	1,698800
15,691833	0,5	1,698850
15,700167	0,5	1,685850
15,708500	0,5	1,674350
15,716833	0,5	1,675350
15,725167	0,5	1,671800
15,733500	0,5	1,659300
15,741833	0,5	1,647200
15,750167	0,5	1,632000
15,758500	0,5	1,633950
15,766833	0,5	1,621700
15,775167	0,5	1,621350
15,783500	0,5	1,614850
15,791833	0,5	1,618850
15,800167	0,5	1,614600
15,808500	0,5	1,611050
15,816833	0,5	1,602900
15,825167	0,5	1,597250
15,833500	0,5	1,591800
15,841833	0,5	1,590450
15,850167	0,5	1,570500
15,858500	0,5	1,572700
15,866833	0,5	1,576750
15,875167	0,5	1,574650
15,883500	0,5	1,567000
15,891833	0,5	1,544200
15,900167	0,5	1,546300
15,908500	0,5	1,538700
15,916833	0,5	1,534150
15,925167	0,5	1,521250
15,933500	0,5	1,514000
15,941833	0,5	1,500000
15,950167	0,5	1,494800
15,958500	0,5	1,489950
15,966833	0,5	1,488850
15,975167	0,5	1,482650
15,983500	0,5	1,481900
15,991833	0,5	1,481550
16,000167	0,5	1,464300
16,008500	0,5	1,472050
16,016833	0,5	1,467650
16,025167	0,5	1,461600
16,033500	0,5	1,448100
16,041833	0,5	1,426300
16,050167	0,5	1,418200
16,058500	0,5	1,414000
16,066833	0,5	1,401600
16,075167	0,5	1,397900
16,083500	0,5	1,392850
16,091833	0,5	1,391550
16,100167	0,5	1,383350
16,108500	0,5	1,384950
16,116833	0,5	1,378400
16,125167	0,5	1,366650
16,133500	0,5	1,364600
16,141833	0,5	1,361200
16,150167	0,5	1,337450
16,158500	0,5	1,346850
16,166833	0,5	1,341300
16,175167	0,5	1,334000
16,183500	0,5	1,315700
16,191833	0,5	1,291700
16,200167	0,5	1,298750
16,208500	0,5	1,292300
16,216833	0,5	1,287750
16,225167	0,5	1,281300
16,233500	0,5	1,277500
16,241833	0,5	1,268100
16,250167	0,5	1,265900
16,258500	0,5	1,255100
16,266833	0,5	1,247850
16,275167	0,5	1,241550
16,283500	0,5	1,241600
16,291833	0,5	1,225150
16,300167	0,5	1,218900
16,308500	0,5	1,220450
16,316833	0,5	1,211200
16,325167	0,5	1,200400
16,333500	0,5	1,184200
16,341833	0,5	1,171050
16,350167	0,5	1,172600
16,358500	0,5	1,167000
16,366833	0,5	1,164850
16,375167	0,5	1,163900
16,383500	0,5	1,161250
16,391833	0,5	1,163250
16,400167	0,5	1,162450
16,408500	0,5	1,163700
16,416833	0,5	1,156250
16,425167	0,5	1,155450
16,433500	0,5	1,147500
16,441833	0,5	1,137200
16,450167	0,5	1,134300
16,458500	0,5	1,131300
16,466833	0,5	1,118150
16,475167	0,5	1,100300
16,483500	0,5	1,079400
16,491833	0,5	1,063700
16,500167	0,5	1,060900
16,508500	0,5	1,054900
16,516833	0,5	1,046800
16,525167	0,5	1,043100
16,533500	0,5	1,037550
16,541833	0,5	1,033100
16,550167	0,5	1,028800
16,558500	0,5	1,019750
16,566833	0,5	1,021000
16,575167	0,5	1,013400
16,583500	0,5	1,003150
16,591833	0,5	0,993100
16,600167	0,5	1,004450
16,608500	0,5	0,993950
16,616833	0,5	0,987450
16,625167	0,5	0,960550
16,633500	0,5	0,949700
16,641833	0,5	0,945550
16,650167	0,5	0,949800
16,658500	0,5	0,937700
16,666833	0,5	0,941700
16,675167	0,5	0,930500
16,683500	0,5	0,931050
16,691833	0,5	0,927850
16,700167	0,5	0,923550
16,708500	0,5	0,921600
16,716833	0,5	0,915200
16,725167	0,5	0,919950
16,733500	0,5	0,897550
16,741833	0,5	0,897450
16,750167	0,5	0,898200
16,758500	0,5	0,892350
16,766833	0,5	0,877400
16,775167	0,5	0,857900
16,783500	0,5	0,849200
16,791833	0,5	0,847950
16,800167	0,5	0,837950
16,808500	0,5	0,835500
16,816833	0,5	0,823950
16,825167	0,5	0,820900
16,833500	0,5	0,814000
16,841833	0,5	0,813500
16,850167	0,5	0,805500
16,858500	0,5	0,797700
16,866833	0,5	0,803300
16,875167	0,5	0,800000
16,883500	0,5	0,777350
16,891833	0,5	0,788300
16,900167	0,5	0,785200
16,908500	0,5	0,774550
16,916833	0,5	0,763700
16,925167	0,5	0,737850
16,933500	0,5	0,745650
16,941833	0,5	0,742350
16,950167	0,5	0,747450
16,958500	0,5	0,738300
16,966833	0,5	0,739750
16,975167	0,5	0,730550
16,983500	0,5	0,732700
16,991833	0,5	0,727450
17,000167	0,5	0,726200
17,008500	0,5	0,718750
17,016833	0,5	0,723950
17,025167	0,5	0,718200
17,033500	0,5	0,705350
17,041833	0,5	0,715000
17,050167	0,5	0,707350
17,058500	0,5	0,698550
17,066833	0,5	0,681400
17,075167	0,5	0,665650
17,083500	0,5	0,665500
17,091833	0,5	0,664400
17,100167	0,5	0,651050
17,108500	0,5	0,648250
17,116833	0,5	0,638450
17,125167	0,5	0,635400
17,133500	0,5	0,629200
17,141833	0,5	0,625450
17,150167	0,5	0,619500
17,158500	0,5	0,610950
17,166833	0,5	0,616950
17,175167	0,5	0,605950
17,183500	0,5	0,598450
17,191833	0,5	0,601700
17,200167	0,5	0,593300
17,208500	0,5	0,587400
17,216833	0,5	0,566450
17,225167	0,5	0,556950
17,233500	0,5	0,563100
17,241833	0,5	0,555500
17,250167	0,5	0,559800
17,258500	0,5	0,553550
17,266833	0,5	0,558900
17,275167	0,5	0,562150
17,283500	0,5	0,570500
17,291833	0,5	0,567900
17,300167	0,5	0,576650
17,308500	0,5	0,576650
17,316833	0,5	0,581750
17,325167	0,5	0,562100
17,333500	0,5	0,563400
17,341833	0,5	0,553450
17,350167	0,5	0,539850
17,358500	0,5	0,520900
17,366833	0,5	0,502000
17,375167	0,5	0,497250
17,383500	0,5	0,499950
17,391833	0,5	0,498900
17,400167	0,5	0,503800
17,408500	0,5	0,505250
17,416833	0,5	0,500800
17,425167	0,5	0,505300
17,433500	0,5	0,503000
17,441833	0,5	0,502150
17,450167	0,5	0,497700
17,458500	0,5	0,500800
17,466833	0,5	0,490950
17,475167	0,5	0,485700
17,483500	0,5	0,491950
17,491833	0,5	0,492550
17,500167	0,5	0,488750
17,508500	0,5	0,477550
17,516833	0,5	0,466900
17,525167	0,5	0,469200
17,533500	0,5	0,474750
17,541833	0,5	0,479450
17,550167	0,5	0,484300
17,558500	0,5	0,488200
17,566833	0,5	0,498600
17,575167	0,5	0,503350
17,583500	0,5	0,509150
17,591833	0,5	0,514200
17,600167	0,5	0,527500
17,608500	0,5	0,540700
17,616833	0,5	0,543700
17,625167	0,5	0,561950
17,633500	0,5	0,580600
17,641833	0,5	0,589150
17,650167	0,5	0,598250
17,658500	0,5	0,586550
17,666833	0,5	0,590250
17,675167	0,5	0,599500
17,683500	0,5	0,608800
17,691833	0,5	0,614250
17,700167	0,5	0,616950
17,708500	0,5	0,616950
17,716833	0,5	0,618800
17,725167	0,5	0,619950
17,733500	0,5	0,617950
17,741833	0,5	0,620900
17,750167	0,5	0,619700
17,758500	0,5	0,621300
17,766833	0,5	0,603700
17,775167	0,5	0,615900
17,783500	0,5	0,620600
17,791833	0,5	0,613950
17,800167	0,5	0,601100
17,808500	0,5	0,589750
17,816833	0,5	0,590100
17,825167	0,5	0,589350
17,833500	0,5	0,584550
17,841833	0,5	0,588700
17,850167	0,5	0,584900
17,858500	0,5	0,591050
17,866833	0,5	0,589550
17,875167	0,5	0,600300
17,883500	0,5	0,609400
17,891833	0,5	0,627400
17,900167	0,5	0,660950
17,908500	0,5	0,691400
17,916833	0,5	0,725150
17,925167	0,5	0,768450
17,933500	0,5	0,796050
17,941833	0,5	0,792800
17,950167	0,5	0,769250
17,958500	0,5	0,720650
17,966833	0,5	0,690300
17,975167	0,5	0,642950
17,983500	0,5	0,598050
17,991833	0,5	0,555800
18,000167	0,5	0,528550
18,008500	0,5	0,497700
18,016833	0,5	0,482400
18,025167	0,5	0,466600
18,033500	0,5	0,451550
18,041833	0,5	0,446800
18,050167	0,5	0,448900
18,058500	0,5	0,423150
18,066833	0,5	0,420700
18,075167	0,5	0,414700
18,083500	0,5	0,402500
18,091833	0,5	0,390500
18,100167	0,5	0,358600
18,108500	0,5	0,349000
18,116833	0,5	0,341400
18,125167	0,5	0,335500
18,133500	0,5	0,323850
18,141833	0,5	0,320150
18,150167	0,5	0,306050
18,158500	0,5	0,303500
18,166833	0,5	0,295600
18,175167	0,5	0,291350
18,183500	0,5	0,282400
18,191833	0,5	0,276800
18,200167	0,5	0,274750
18,208500	0,5	0,252100
18,216833	0,5	0,255600
18,225167	0,5	0,248500
18,233500	0,5	0,241700
18,241833	0,5	0,218050
18,250167	0,5	0,191050
18,258500	0,5	0,183100
18,266833	0,5	0,182050
18,275167	0,5	0,174650
18,283500	0,5	0,172000
18,291833	0,5	0,162200
18,300167	0,5	0,163150
18,308500	0,5	0,152250
18,316833	0,5	0,149900
18,325167	0,5	0,137550
18,333500	0,5	0,137700
18,341833	0,5	0,133600
18,350167	0,5	0,124150
18,358500	0,5	0,106450
18,366833	0,5	0,112500
18,375167	0,5	0,098800
18,383500	0,5	0,084850
18,391833	0,5	0,061150
18,400167	0,5	0,037700
18,408500	0,5	0,037400
18,416833	0,5	0,037250
18,425167	0,5	0,021650
18,433500	0,5	0,006150
18,441833	0,5	-0,000700
18,450167	0,5	-0,009000
18,458500	0,5	-0,014200
18,466833	0,5	-0,023550
18,475167	0,5	-0,027150
18,483500	0,5	-0,026900
18,491833	0,5	-0,026150
18,500167	0,5	-0,045000
18,508500	0,5	-0,051550
18,516833	0,5	-0,054500
18,525167	0,5	-0,069750
18,533500	0,5	-0,081850
18,541833	0,5	-0,105650
18,550167	0,5	-0,120550
18,558500	0,5	-0,122800
18,566833	0,5	-0,130800
18,575167	0,5	-0,138700
18,583500	0,5	-0,142450
18,591833	0,5	-0,154900
18,600167	0,5	-0,157550
18,608500	0,5	-0,165550
18,616833	0,5	-0,170500
18,625167	0,5	-0,184750
18,633500	0,5	-0,173500
18,641833	0,5	-0,181650
18,650167	0,5	-0,196800
18,658500	0,5	-0,197650
18,666833	0,5	-0,200300
18,675167	0,5	-0,211200
18,683500	0,5	-0,226350
18,691833	0,5	-0,246800
18,700167	0,5	-0,250750
18,708500	0,5	-0,257900
18,716833	0,5	-0,259850
18,725167	0,5	-0,267300
18,733500	0,5	-0,269450
18,741833	0,5	-0,275500
18,750167	0,5	-0,278000
18,758500	0,5	-0,278800
18,766833	0,5	-0,286850
18,775167	0,5	-0,281350
18,783500	0,5	-0,273850
18,791833	0,5	-0,283500
18,800167	0,5	-0,297400
18,808500	0,5	-0,293050
18,816833	0,5	-0,297900
18,825167	0,5	-0,303550
18,833500	0,5	-0,328500
18,841833	0,5	-0,329750
18,850167	0,5	-0,322750
18,858500	0,5	-0,322300
18,866833	0,5	-0,327750
18,875167	0,5	-0,324850
18,883500	0,5	-0,320950
18,891833	0,5	-0,315050
18,900167	0,5	-0,304400
18,908500	0,5	-0,301900
18,916833	0,5	-0,297750
18,925167	0,5	-0,284850
18,933500	0,5	-0,262950
18,941833	0,5	-0,274550
18,950167	0,5	-0,256450
18,958500	0,5	-0,243450
18,966833	0,5	-0,236000
18,975167	0,5	-0,239000
18,983500	0,5	-0,247050
18,991833	0,5	-0,238950
19,000167	0,5	-0,227300
19,008500	0,5	-0,232500
19,016833	0,5	-0,223950
19,025167	0,5	-0,229350
19,033500	0,5	-0,231800
19,041833	0,5	-0,234400
19,050167	0,5	-0,241200
19,058500	0,5	-0,246250
19,066833	0,5	-0,255500
19,075167	0,5	-0,250850
19,083500	0,5	-0,257400
19,091833	0,5	-0,288550
19,100167	0,5	-0,285350
19,108500	0,5	-0,298900
19,116833	0,5	-0,320350
19,125167	0,5	-0,340600
19,133500	0,5	-0,374500
19,141833	0,5	-0,371400
19,150167	0,5	-0,392350
19,158500	0,5	-0,400000
19,166833	0,5	-0,417800
19,175167	0,5	-0,420550
19,183500	0,5	-0,438000
19,191833	0,5	-0,442700
19,200167	0,5	-0,458550
19,208500	0,5	-0,467550
19,216833	0,5	-0,474050
19,225167	0,5	-0,479150
19,233500	0,5	-0,487100
19,241833	0,5	-0,506050
19,250167	0,5	-0,505900
19,258500	0,5	-0,516700
19,266833	0,5	-0,530750
19,275167	0,5	-0,555350
19,283500	0,5	-0,570800
19,291833	0,5	-0,577350
19,300167	0,5	-0,572250
19,308500	0,5	-0,581300
19,316833	0,5	-0,581000
19,325167	0,5	-0,588250
19,333500	0,5	-0,591350
19,341833	0,5	-0,595450
19,350167	0,5	-0,602000
19,358500	0,5	-0,606050
19,366833	0,5	-0,603500
19,375167	0,5	-0,597700
19,383500	0,5	-0,605800
19,391833	0,5	-0,599350
19,400167	0,5	-0,594800
19,408500	0,5	-0,600300
19,416833	0,5	-0,614650
19,425167	0,5	-0,636800
19,433500	0,5	-0,650900
19,441833	0,5	-0,654300
19,450167	0,5	-0,668600
19,458500	0,5	-0,678800
19,466833	0,5	-0,695800
19,475167	0,5	-0,704750
19,483500	0,5	-0,719800
19,491833	0,5	-0,727450
19,500167	0,5	-0,735550
19,508500	0,5	-0,744200
19,516833	0,5	-0,742550
19,525167	0,5	-0,749850
19,533500	0,5	-0,765450
19,541833	0,5	-0,757900
19,550167	0,5	-0,766100
19,558500	0,5	-0,773350
19,566833	0,5	-0,793700
19,575167	0,5	-0,810350
19,583500	0,5	-0,813800
19,591833	0,5	-0,823900
19,600167	0,5	-0,827650
19,608500	0,5	-0,838700
19,616833	0,5	-0,834650
19,625167	0,5	-0,845200
19,633500	0,5	-0,845700
19,641833	0,5	-0,857900
19,650167	0,5	-0,863700
19,658500	0,5	-0,866750
19,666833	0,5	-0,860100
19,675167	0,5	-0,886300
19,683500	0,5	-0,878250
19,691833	0,5	-0,880050
19,700167	0,5	-0,884700
19,708500	0,5	-0,895000
19,716833	0,5	-0,921300
19,725167	0,5	-0,931000
19,733500	0,5	-0,939350
19,741833	0,5	-0,937250
19,750167	0,5	-0,945750
19,758500	0,5	-0,946500
19,766833	0,5	-0,960200
19,775167	0,5	-0,961400
19,783500	0,5	-0,965000
19,791833	0,5	-0,972750
19,800167	0,5	-0,977750
19,808500	0,5	-0,972100
19,816833	0,5	-0,974550
19,825167	0,5	-0,990300
19,833500	0,5	-0,989650
19,841833	0,5	-0,987450
19,850167	0,5	-1,000150
19,858500	0,5	-1,013100
19,866833	0,5	-1,040800
19,875167	0,5	-1,037600
19,883500	0,5	-1,040600
19,891833	0,5	-1,045450
19,900167	0,5	-1,047650
19,908500	0,5	-1,056450
19,916833	0,5	-1,056350
19,925167	0,5	-1,063250
19,933500	0,5	-1,062750
19,941833	0,5	-1,067650
19,950167	0,5	-1,073350
19,958500	0,5	-1,074400
19,966833	0,5	-1,081350
19,975167	0,5	-1,094350
19,983500	0,5	-1,087200
19,991833	0,5	-1,089200
20,000167	0,5	-1,093400
20,008500	0,5	-1,115850
20,016833	0,5	-1,126050
20,025167	0,5	-1,119750
20,033500	0,5	-1,123300
20,041833	0,5	-1,125550
20,050167	0,5	-1,130050
20,058500	0,5	-1,133450
20,066833	0,5	-1,136350
20,075167	0,5	-1,135050
20,083500	0,5	-1,144000
20,091833	0,5	-1,141550
20,100167	0,5	-1,145150
20,108500	0,5	-1,136650
20,116833	0,5	-1,152300
20,125167	0,5	-1,144350
20,133500	0,5	-1,142900
20,141833	0,5	-1,143300
20,150167	0,5	-1,157000
20,158500	0,5	-1,172750
20,166833	0,5	-1,173450
20,175167	0,5	-1,167350
20,183500	0,5	-1,173200
20,191833	0,5	-1,182550
20,200167	0,5	-1,196500
20,208500	0,5	-1,212000
20,216833	0,5	-1,218400
20,225167	0,5	-1,231650
20,233500	0,5	-1,236300
20,241833	0,5	-1,246900
20,250167	0,5	-1,238500
20,258500	0,5	-1,239450
20,266833	0,5	-1,251800
20,275167	0,5	-1,249300
20,283500	0,5	-1,248050
20,291833	0,5	-1,254700
20,300167	0,5	-1,267500
20,308500	0,5	-1,291250
20,316833	0,5	-1,287600
20,325167	0,5	-1,291150
20,333500	0,5	-1,286100
20,341833	0,5	-1,291000
20,350167	0,5	-1,287300
20,358500	0,5	-1,285800
20,366833	0,5	-1,285350
20,375167	0,5	-1,285900
20,383500	0,5	-1,290350
20,391833	0,5	-1,285550
20,400167	0,5	-1,279550
20,408500	0,5	-1,284600
20,416833	0,5	-1,284400
20,425167	0,5	-1,277350
20,433500	0,5	-1,282700
20,441833	0,5	-1,291300
20,450167	0,5	-1,312750
20,458500	0,5	-1,319800
20,466833	0,5	-1,315550
20,475167	0,5	-1,312050
20,483500	0,5	-1,313700
20,491833	0,5	-1,305950
20,500167	0,5	-1,303400
20,508500	0,5	-1,302350
20,516833	0,5	-1,301300
20,525167	0,5	-1,305250
20,533500	0,5	-1,307000
20,541833	0,5	-1,289100
20,550167	0,5	-1,284050
20,558500	0,5	-1,291450
20,566833	0,5	-1,289000
20,575167	0,5	-1,285750
20,583500	0,5	-1,288000
20,591833	0,5	-1,301800
20,600167	0,5	-1,306900
20,608500	0,5	-1,308350
20,616833	0,5	-1,298800
20,625167	0,5	-1,298200
20,633500	0,5	-1,289800
20,641833	0,5	-1,283350
20,650167	0,5	-1,277750
20,658500	0,5	-1,272650
20,666833	0,5	-1,270100
20,675167	0,5	-1,271400
20,683500	0,5	-1,275450
20,691833	0,5	-1,256350
20,700167	0,5	-1,258800
20,708500	0,5	-1,275350
20,716833	0,5	-1,272100
20,725167	0,5	-1,279800
20,733500	0,5	-1,293450
20,741833	0,5	-1,311900
20,750167	0,5	-1,323400
20,758500	0,5	-1,320250
20,766833	0,5	-1,325900
20,775167	0,5	-1,326800
20,783500	0,5	-1,332650
20,791833	0,5	-1,329450
20,800167	0,5	-1,333750
20,808500	0,5	-1,327700
20,816833	0,5	-1,334500
20,825167	0,5	-1,334350
20,833500	0,5	-1,318000
20,841833	0,5	-1,303950
20,850167	0,5	-1,314800
20,858500	0,5	-1,320000
20,866833	0,5	-1,319900
20,875167	0,5	-1,332150
20,883500	0,5	-1,337550
20,891833	0,5	-1,367750
20,900167	0,5	-1,356350
20,908500	0,5	-1,362800
20,916833	0,5	-1,364350
20,925167	0,5	-1,365950
20,933500	0,5	-1,358350
20,941833	0,5	-1,363050
20,950167	0,5	-1,358750
20,958500	0,5	-1,353750
20,966833	0,5	-1,356150
20,975167	0,5	-1,349850
20,983500	0,5	-1,329100
20,991833	0,5	-1,314400
21,000167	0,5	-1,322050
21,008500	0,5	-1,322300
21,016833	0,5	-1,323400
21,025167	0,5	-1,327300
21,033500	0,5	-1,339700
21,041833	0,5	-1,348350
21,050167	0,5	-1,342150
21,058500	0,5	-1,332600
21,066833	0,5	-1,337250
21,075167	0,5	-1,332150
21,083500	0,5	-1,337100
21,091833	0,5	-1,327050
21,100167	0,5	-1,328500
21,108500	0,5	-1,323600
21,116833	0,5	-1,323600
21,125167	0,5	-1,304750
21,133500	0,5	-1,280000
21,141833	0,5	-1,274650
21,150167	0,5	-1,278800
21,158500	0,5	-1,279850
21,166833	0,5	-1,280050
21,175167	0,5	-1,290950
21,183500	0,5	-1,301450
21,191833	0,5	-1,310300
21,200167	0,5	-1,300900
21,208500	0,5	-1,302400
21,216833	0,5	-1,295950
21,225167	0,5	-1,296300
21,233500	0,5	-1,285250
21,241833	0,5	-1,286600
21,250167	0,5	-1,276800
21,258500	0,5	-1,269550
21,266833	0,5	-1,262850
21,275167	0,5	-1,234500
21,283500	0,5	-1,213050
21,291833	0,5	-1,216300
21,300167	0,5	-1,215200
21,308500	0,5	-1,217800
21,316833	0,5	-1,217900
21,325167	0,5	-1,228200
21,333500	0,5	-1,241100
21,341833	0,5	-1,231650
21,350167	0,5	-1,225050
21,358500	0,5	-1,210750
21,366833	0,5	-1,206750
21,375167	0,5	-1,186300
21,383500	0,5	-1,184150
21,391833	0,5	-1,164450
21,400167	0,5	-1,160950
21,408500	0,5	-1,149700
21,416833	0,5	-1,129350
21,425167	0,5	-1,100400
21,433500	0,5	-1,087800
21,441833	0,5	-1,090450
21,450167	0,5	-1,078900
21,458500	0,5	-1,086100
21,466833	0,5	-1,090250
21,475167	0,5	-1,103150
21,483500	0,5	-1,097750
21,491833	0,5	-1,086550
21,500167	0,5	-1,066900
21,508500	0,5	-1,058800
21,516833	0,5	-1,039850
21,525167	0,5	-1,033200
21,533500	0,5	-1,014450
21,541833	0,5	-0,998450
21,550167	0,5	-0,986750
21,558500	0,5	-0,974650
21,566833	0,5	-0,936450
21,575167	0,5	-0,907150
21,583500	0,5	-0,896900
21,591833	0,5	-0,877050
21,600167	0,5	-0,858050
21,608500	0,5	-0,837000
21,616833	0,5	-0,833300
21,625167	0,5	-0,802500
21,633500	0,5	-0,780550
21,641833	0,5	-0,734600
21,650167	0,5	-0,712300
21,658500	0,5	-0,698700
21,666833	0,5	-0,705800
21,675167	0,5	-0,711750
21,683500	0,5	-0,718350
21,691833	0,5	-0,716500
21,700167	0,5	-0,711550
21,708500	0,5	-0,705450
21,716833	0,5	-0,672800
21,725167	0,5	-0,659550
21,733500	0,5	-0,660650
21,741833	0,5	-0,646600
21,750167	0,5	-0,642000
21,758500	0,5	-0,638700
21,766833	0,5	-0,645950
21,775167	0,5	-0,630100
21,783500	0,5	-0,604400
21,791833	0,5	-0,590400
21,800167	0,5	-0,564650
21,808500	0,5	-0,550700
21,816833	0,5	-0,522400
21,825167	0,5	-0,503600
21,833500	0,5	-0,474000
21,841833	0,5	-0,454000
21,850167	0,5	-0,433100
21,858500	0,5	-0,394300
21,866833	0,5	-0,360400
21,875167	0,5	-0,350450
21,883500	0,5	-0,322750
21,891833	0,5	-0,296200
21,900167	0,5	-0,287700
21,908500	0,5	-0,274050
21,916833	0,5	-0,279750
21,925167	0,5	-0,247800
21,933500	0,5	-0,236750
21,941833	0,5	-0,214350
21,950167	0,5	-0,198350
21,958500	0,5	-0,171950
21,966833	0,5	-0,155100
21,975167	0,5	-0,125200
21,983500	0,5	-0,104750
21,991833	0,5	-0,090200
22,000167	0,5	-0,058500
22,008500	0,5	-0,024700
22,016833	0,5	-0,008600
22,025167	0,5	0,021900
22,033500	0,5	0,056150
22,041833	0,5	0,082750
22,050167	0,5	0,104150
22,058500	0,5	0,121100
22,066833	0,5	0,150750
22,075167	0,5	0,186350
22,083500	0,5	0,224600
22,091833	0,5	0,252600
22,100167	0,5	0,289600
22,108500	0,5	0,318350
22,116833	0,5	0,357900
22,125167	0,5	0,389900
22,133500	0,5	0,427450
22,141833	0,5	0,465150
22,150167	0,5	0,503200
22,158500	0,5	0,557550
22,166833	0,5	0,591950
22,175167	0,5	0,653700
22,183500	0,5	0,693750
22,191833	0,5	0,736400
22,200167	0,5	0,777800
22,208500	0,5	0,812300
22,216833	0,5	0,864750
22,225167	0,5	0,924500
22,233500	0,5	0,961900
22,241833	0,5	1,013850
22,250167	0,5	1,054950
22,258500	0,5	1,110450
22,266833	0,5	1,152200
22,275167	0,5	1,208300
22,283500	0,5	1,259900
22,291833	0,5	1,305400
22,300167	0,5	1,355250
22,308500	0,5	1,406550
22,316833	0,5	1,458200
22,325167	0,5	1,527800
22,333500	0,5	1,565600
22,341833	0,5	1,608450
22,350167	0,5	1,640500
22,358500	0,5	1,675050
22,366833	0,5	1,738750
22,375167	0,5	1,791400
22,383500	0,5	1,849500
22,391833	0,5	1,897800
22,400167	0,5	1,961700
22,408500	0,5	2,015650
22,416833	0,5	2,075850
22,425167	0,5	2,129750
22,433500	0,5	2,189150
22,441833	0,5	2,241150
22,450167	0,5	2,294500
22,458500	0,5	2,360700
22,466833	0,5	2,443550
22,475167	0,5	2,515000
22,483500	0,5	2,571800
22,491833	0,5	2,630100
22,500167	0,5	2,678450
22,508500	0,5	2,749800
22,516833	0,5	2,805400
22,525167	0,5	2,877300
22,533500	0,5	2,936300
22,541833	0,5	3,009400
22,550167	0,5	3,068600
22,558500	0,5	3,138100
22,566833	0,5	3,197750
22,575167	0,5	3,259450
22,583500	0,5	3,317050
22,591833	0,5	3,343850
22,600167	0,5	3,387000
22,608500	0,5	3,452950
22,616833	0,5	3,499000
22,625167	0,5	3,534200
22,633500	0,5	3,560200
22,641833	0,5	3,570050
22,650167	0,5	3,590150
22,658500	0,5	3,606000
22,666833	0,5	3,624350
22,675167	0,5	3,624500
22,683500	0,5	3,628450
22,691833	0,5	3,621550
22,700167	0,5	3,619200
22,708500	0,5	3,596650
22,716833	0,5	3,579950
22,725167	0,5	3,545450
22,733500	0,5	3,487450
22,741833	0,5	3,435650
22,750167	0,5	3,386650
22,758500	0,5	3,352050
22,766833	0,5	3,285700
22,775167	0,5	3,203900
22,783500	0,5	3,107550
22,791833	0,5	2,990400
22,800167	0,5	2,878650
22,808500	0,5	2,765550
22,816833	0,5	2,640650
22,825167	0,5	2,517150
22,833500	0,5	2,391000
22,841833	0,5	2,257350
22,850167	0,5	2,119350
22,858500	0,5	1,984300
22,866833	0,5	1,835150
22,875167	0,5	1,686300
22,883500	0,5	1,497700
22,891833	0,5	1,358050
22,900167	0,5	1,201350
22,908500	0,5	1,049850
22,916833	0,5	0,879000
22,925167	0,5	0,716550
22,933500	0,5	0,555950
22,941833	0,5	0,403650
22,950167	0,5	0,237000
22,958500	0,5	0,089600
22,966833	0,5	-0,060850
22,975167	0,5	-0,193000
22,983500	0,5	-0,339050
22,991833	0,5	-0,461850
23,000167	0,5	-0,607500
23,008500	0,5	-0,728100
23,016833	0,5	-0,863250
23,025167	0,5	-0,967050
23,033500	0,5	-1,090200
23,041833	0,5	-1,207850
23,050167	0,5	-1,343350
23,058500	0,5	-1,469950
23,066833	0,5	-1,572400
23,075167	0,5	-1,662400
23,083500	0,5	-1,742100
23,091833	0,5	-1,824100
23,100167	0,5	-1,902350
23,108500	0,5	-1,976600
23,116833	0,5	-2,030650
23,125167	0,5	-2,093300
23,133500	0,5	-2,143650
23,141833	0,5	-2,195700
23,150167	0,5	-2,235450
23,158500	0,5	-2,284850
23,166833	0,5	-2,322950
23,175167	0,5	-2,347150
23,183500	0,5	-2,389400
23,191833	0,5	-2,420950
23,200167	0,5	-2,487350
23,208500	0,5	-2,526450
23,216833	0,5	-2,549500
23,225167	0,5	-2,561750
23,233500	0,5	-2,564250
23,241833	0,5	-2,575550
23,250167	0,5	-2,579450
23,258500	0,5	-2,579750
23,266833	0,5	-2,569100
23,275167	0,5	-2,554500
23,283500	0,5	-2,544350
23,291833	0,5	-2,529550
23,300167	0,5	-2,520300
23,308500	0,5	-2,503800
23,316833	0,5	-2,493550
23,325167	0,5	-2,501300
23,333500	0,5	-2,459350
23,341833	0,5	-2,441300
23,350167	0,5	-2,458250
23,358500	0,5	-2,456700
23,366833	0,5	-2,451000
23,375167	0,5	-2,422400
23,383500	0,5	-2,400200
23,391833	0,5	-2,380700
23,400167	0,5	-2,358900
23,408500	0,5	-2,331700
23,416833	0,5	-2,301450
23,425167	0,5	-2,269900
23,433500	0,5	-2,234700
23,441833	0,5	-2,207850
23,450167	0,5	-2,174750
23,458500	0,5	-2,143600
23,466833	0,5	-2,119150
23,475167	0,5	-2,136500
23,483500	0,5	-2,083400
23,491833	0,5	-2,025000
23,500167	0,5	-2,020100
23,508500	0,5	-2,016800
23,516833	0,5	-1,998650
23,525167	0,5	-1,976450
23,533500	0,5	-1,959450
23,541833	0,5	-1,944550
23,550167	0,5	-1,925750
23,558500	0,5	-1,910000
23,566833	0,5	-1,889400
23,575167	0,5	-1,871500
23,583500	0,5	-1,852850
23,591833	0,5	-1,831900
23,600167	0,5	-1,814850
23,608500	0,5	-1,800250
23,616833	0,5	-1,847300
23,625167	0,5	-1,842200
23,633500	0,5	-1,790650
23,641833	0,5	-1,739400
23,650167	0,5	-1,727750
23,658500	0,5	-1,723650
23,666833	0,5	-1,716950
23,675167	0,5	-1,709800
23,683500	0,5	-1,699250
23,691833	0,5	-1,690300
23,700167	0,5	-1,680200
23,708500	0,5	-1,669050
23,716833	0,5	-1,659650
23,725167	0,5	-1,654100
23,733500	0,5	-1,642350
23,741833	0,5	-1,636500
23,750167	0,5	-1,634300
23,758500	0,5	-1,640350
23,766833	0,5	-1,758200
23,775167	0,5	-1,726100
23,783500	0,5	-1,685000
23,791833	0,5	-1,639050
23,800167	0,5	-1,635250
23,808500	0,5	-1,635350
23,816833	0,5	-1,639200
23,825167	0,5	-1,641550
23,833500	0,5	-1,634150
23,841833	0,5	-1,624300
23,850167	0,5	-1,619700
23,858500	0,5	-1,608850
23,866833	0,5	-1,598500
23,875167	0,5	-1,587650
23,883500	0,5	-1,575600
23,891833	0,5	-1,564850
23,900167	0,5	-1,558450
23,908500	0,5	-1,632750
23,916833	0,5	-1,668050
23,925167	0,5	-1,636700
23,933500	0,5	-1,584150
23,941833	0,5	-1,546850
23,950167	0,5	-1,539350
23,958500	0,5	-1,543600
23,966833	0,5	-1,553250
23,975167	0,5	-1,559250
23,983500	0,5	-1,535500
23,991833	0,5	-1,533350
24,000167	0,5	-1,528300
24,008500	0,5	-1,522450
24,016833	0,5	-1,506000
24,025167	0,5	-1,499900
24,033500	0,5	-1,484000
24,041833	0,5	-1,481600
24,050167	0,5	-1,470950
24,058500	0,5	-1,595350
24,066833	0,5	-1,551900
24,075167	0,5	-1,530950
24,083500	0,5	-1,463750
24,091833	0,5	-1,436900
24,100167	0,5	-1,420900
24,108500	0,5	-1,414300
24,116833	0,5	-1,414800
24,125167	0,5	-1,402950
24,133500	0,5	-1,385450
24,141833	0,5	-1,374800
24,150167	0,5	-1,354550
24,158500	0,5	-1,338100
24,166833	0,5	-1,327000
24,175167	0,5	-1,303150
24,183500	0,5	-1,290600
24,191833	0,5	-1,278150
24,200167	0,5	-1,289250
24,208500	0,5	-1,374600
24,216833	0,5	-1,339850
24,225167	0,5	-1,299850
24,233500	0,5	-1,256100
24,241833	0,5	-1,236150
24,250167	0,5	-1,228900
24,258500	0,5	-1,227000
24,266833	0,5	-1,237950
24,275167	0,5	-1,224200
24,283500	0,5	-1,204350
24,291833	0,5	-1,186350
24,300167	0,5	-1,168450
24,308500	0,5	-1,148600
24,316833	0,5	-1,129950
24,325167	0,5	-1,111500
24,333500	0,5	-1,093600
24,341833	0,5	-1,081450
24,350167	0,5	-1,102400
24,358500	0,5	-1,135000
24,366833	0,5	-1,096650
24,375167	0,5	-1,064900
24,383500	0,5	-1,020350
24,391833	0,5	-1,006700
24,400167	0,5	-0,992000
24,408500	0,5	-0,998450
24,416833	0,5	-0,994500
24,425167	0,5	-0,986050
24,433500	0,5	-0,971700
24,441833	0,5	-0,958100
24,450167	0,5	-0,945050
24,458500	0,5	-0,930000
24,466833	0,5	-0,916050
24,475167	0,5	-0,901800
24,483500	0,5	-0,891850
24,491833	0,5	-0,884850
24,500167	0,5	-0,937400
24,508500	0,5	-0,916750
24,516833	0,5	-0,901500
24,525167	0,5	-0,864150
24,533500	0,5	-0,833350
24,541833	0,5	-0,822550
24,550167	0,5	-0,814650
24,558500	0,5	-0,815100
24,566833	0,5	-0,808050
24,575167	0,5	-0,788750
24,583500	0,5	-0,775400
24,591833	0,5	-0,756350
24,600167	0,5	-0,746200
24,608500	0,5	-0,730700
24,616833	0,5	-0,719300
24,625167	0,5	-0,703100
24,633500	0,5	-0,694650
24,641833	0,5	-0,693200
24,650167	0,5	-0,720800
24,658500	0,5	-0,708500
24,666833	0,5	-0,690450
24,675167	0,5	-0,666650
24,683500	0,5	-0,650500
24,691833	0,5	-0,646000
24,700167	0,5	-0,645300
24,708500	0,5	-0,650100
24,716833	0,5	-0,633150
24,725167	0,5	-0,629500
24,733500	0,5	-0,616950
24,741833	0,5	-0,611100
24,750167	0,5	-0,595600
24,758500	0,5	-0,586500
24,766833	0,5	-0,573600
24,775167	0,5	-0,558850
24,783500	0,5	-0,548500
24,791833	0,5	-0,556250
24,800167	0,5	-0,561850
24,808500	0,5	-0,553700
24,816833	0,5	-0,530100
24,825167	0,5	-0,510850
24,833500	0,5	-0,495550
24,841833	0,5	-0,491850
24,850167	0,5	-0,491650
24,858500	0,5	-0,488400
24,866833	0,5	-0,481900
24,875167	0,5	-0,468750
24,883500	0,5	-0,467250
24,891833	0,5	-0,456850
24,900167	0,5	-0,452500
24,908500	0,5	-0,444350
24,916833	0,5	-0,437100
24,925167	0,5	-0,426750
24,933500	0,5	-0,424750
24,941833	0,5	-0,442250
24,950167	0,5	-0,430100
24,958500	0,5	-0,425100
24,966833	0,5	-0,409000
24,975167	0,5	-0,393900
24,983500	0,5	-0,388200
24,991833	0,5	-0,381500
25,000167	0,5	-0,388900
25,008500	0,5	-0,381350
25,016833	0,5	-0,369950
25,025167	0,5	-0,362500
25,033500	0,5	-0,354700
25,041833	0,5	-0,346500
25,050167	0,5	-0,339800
25,058500	0,5	-0,334000
25,066833	0,5	-0,324300
25,075167	0,5	-0,318550
25,083500	0,5	-0,313400
25,091833	0,5	-0,324100
25,100167	0,5	-0,313700
25,108500	0,5	-0,311100
25,116833	0,5	-0,297900
25,125167	0,5	-0,295600
25,133500	0,5	-0,287600
25,141833	0,5	-0,292100
25,150167	0,5	-0,293350
25,158500	0,5	-0,291450
25,166833	0,5	-0,286500
25,175167	0,5	-0,280700
25,183500	0,5	-0,275700
25,191833	0,5	-0,271550
25,200167	0,5	-0,266600
25,208500	0,5	-0,261800
25,216833	0,5	-0,253500
25,225167	0,5	-0,247200
25,233500	0,5	-0,247700
25,241833	0,5	-0,243200
25,250167	0,5	-0,237500
25,258500	0,5	-0,232050
25,266833	0,5	-0,223850
25,275167	0,5	-0,219550
25,283500	0,5	-0,217300
25,291833	0,5	-0,217900
25,300167	0,5	-0,216500
25,308500	0,5	-0,214450
25,316833	0,5	-0,211850
25,325167	0,5	-0,209150
25,333500	0,5	-0,207600
25,341833	0,5	-0,206150
25,350167	0,5	-0,205200
25,358500	0,5	-0,202850
25,366833	0,5	-0,202050
25,375167	0,5	-0,200700
25,383500	0,5	-0,198250
25,391833	0,5	-0,191850
25,400167	0,5	-0,190400
25,408500	0,5	-0,188850
25,416833	0,5	-0,185000
25,425167	0,5	-0,180200
25,433500	0,5	-0,178700
25,441833	0,5	-0,177000
25,450167	0,5	-0,173750
25,458500	0,5	-0,167750
25,466833	0,5	-0,167550
25,475167	0,5	-0,163650
25,483500	0,5	-0,162000
25,491833	0,5	-0,157950
25,500167	0,5	-0,157600
25,508500	0,5	-0,156500
25,516833	0,5	-0,154500
25,525167	0,5	-0,150900
25,533500	0,5	-0,148350
25,541833	0,5	-0,149700
25,550167	0,5	-0,147700
25,558500	0,5	-0,148300
25,566833	0,5	-0,146350
25,575167	0,5	-0,145150
25,583500	0,5	-0,144700
25,591833	0,5	-0,140650
25,600167	0,5	-0,139250
25,608500	0,5	-0,140350
25,616833	0,5	-0,134100
25,625167	0,5	-0,135750
25,633500	0,5	-0,129950
25,641833	0,5	-0,129350
25,650167	0,5	-0,125300
25,658500	0,5	-0,123700
25,666833	0,5	-0,122300
25,675167	0,5	-0,117650
25,683500	0,5	-0,113900
25,691833	0,5	-0,110350
25,700167	0,5	-0,107700
25,708500	0,5	-0,111350
25,716833	0,5	-0,111000
25,725167	0,5	-0,111300
25,733500	0,5	-0,108650
25,741833	0,5	-0,103550
25,750167	0,5	-0,110200
25,758500	0,5	-0,106800
25,766833	0,5	-0,105350
25,775167	0,5	-0,100800
25,783500	0,5	-0,104900
25,791833	0,5	-0,101600
25,800167	0,5	-0,102850
25,808500	0,5	-0,099850
25,816833	0,5	-0,097900
25,825167	0,5	-0,092100
25,833500	0,5	-0,094450
25,841833	0,5	-0,086950
25,850167	0,5	-0,089900
25,858500	0,5	-0,091800
25,866833	0,5	-0,086550
25,875167	0,5	-0,086350
25,883500	0,5	-0,077750
25,891833	0,5	-0,074950
25,900167	0,5	-0,076600
25,908500	0,5	-0,075300
25,916833	0,5	-0,073900
25,925167	0,5	-0,073300
25,933500	0,5	-0,070400
25,941833	0,5	-0,072200
25,950167	0,5	-0,069650
25,958500	0,5	-0,071000
25,966833	0,5	-0,063000
25,975167	0,5	-0,064250
25,983500	0,5	-0,066300
25,991833	0,5	-0,056150
26,000167	0,5	-0,063050
