File Path	chrom://chromeleon01/ikbm_chromeleon/2022/ICS-5000/ED1/Esteban/20220612_Cell_7_4_eg.seq/868.smp/ED_1.channel/ED_1.chm
Channel	ED_1

Injection Information:
Data Vault	ikbm_chromeleon
Injection	7_00h-EGS_NA
Injection Number	126
Position	BD1
Comment	
Processing Method	Stop sequence after Cell Death
Instrument Method	ICS5000_PA200_FullNative_Ox_26min_ED1
Type	Unknown
Status	Finished
Injection Date	15.06.2022
Injection Time	03:41:44
Injection Volume (µl)	5,0
Dilution Factor	1,0000
Weight	1,0000

Chromatogram Data Information:
Time Min. (min)	0,000167
Time Max. (min)	26,000167
Data Points	3121
Detector	EDet1
Generating Data System	Chromeleon 7.2.9.11323
Exporting Data System	Chromeleon 7.2.9.0
Operator	Instrument Controller
Signal Quantity	
Signal Unit	nC
Signal Min.	-2,600800
Signal Max.	1 630,259924
Channel	ED_1
Driver Name	DC-5000
Channel Type	Evaluation
Min. Step (s)	0,5
Max. Step (s)	0,5
Average Step (s)	0,5

Signal Parameter Information:
Signal Info	

Chromatogram Data:
Time (min)	Step (s)	Value (nC)
0,000167	n.a.	0,002900
0,008500	0,5	-0,038550
0,016833	0,5	-0,041950
0,025167	0,5	-0,028600
0,033500	0,5	-0,020000
0,041833	0,5	0,006300
0,050167	0,5	0,002800
0,058500	0,5	0,013050
0,066833	0,5	0,001400
0,075167	0,5	-0,002350
0,083500	0,5	0,001700
0,091833	0,5	-0,000250
0,100167	0,5	0,009750
0,108500	0,5	-0,006650
0,116833	0,5	0,015850
0,125167	0,5	-0,019500
0,133500	0,5	-0,022000
0,141833	0,5	-0,017850
0,150167	0,5	0,007050
0,158500	0,5	0,037800
0,166833	0,5	0,039250
0,175167	0,5	0,014500
0,183500	0,5	0,029200
0,191833	0,5	0,013400
0,200167	0,5	0,020550
0,208500	0,5	0,007300
0,216833	0,5	0,008000
0,225167	0,5	0,001150
0,233500	0,5	0,005800
0,241833	0,5	0,000350
0,250167	0,5	-0,012050
0,258500	0,5	-0,015500
0,266833	0,5	0,000150
0,275167	0,5	-0,032250
0,283500	0,5	-0,026300
0,291833	0,5	-0,010250
0,300167	0,5	0,062150
0,308500	0,5	0,105550
0,316833	0,5	0,068650
0,325167	0,5	0,017100
0,333500	0,5	-0,016500
0,341833	0,5	-0,024100
0,350167	0,5	-0,028800
0,358500	0,5	-0,021350
0,366833	0,5	-0,025750
0,375167	0,5	-0,025250
0,383500	0,5	-0,021650
0,391833	0,5	-0,035950
0,400167	0,5	-0,047450
0,408500	0,5	-0,025050
0,416833	0,5	-0,039050
0,425167	0,5	-0,050900
0,433500	0,5	-0,046100
0,441833	0,5	-0,034300
0,450167	0,5	-0,008850
0,458500	0,5	0,000750
0,466833	0,5	0,007850
0,475167	0,5	0,002650
0,483500	0,5	-0,001100
0,491833	0,5	-0,013050
0,500167	0,5	-0,015950
0,508500	0,5	-0,021600
0,516833	0,5	-0,018150
0,525167	0,5	-0,021350
0,533500	0,5	-0,015550
0,541833	0,5	-0,037800
0,550167	0,5	-0,028500
0,558500	0,5	-0,011250
0,566833	0,5	-0,027250
0,575167	0,5	-0,040000
0,583500	0,5	-0,029100
0,591833	0,5	-0,017750
0,600167	0,5	0,019400
0,608500	0,5	0,017700
0,616833	0,5	0,017600
0,625167	0,5	0,007500
0,633500	0,5	0,014750
0,641833	0,5	0,013800
0,650167	0,5	0,009350
0,658500	0,5	0,006050
0,666833	0,5	0,003650
0,675167	0,5	0,013800
0,683500	0,5	0,005000
0,691833	0,5	0,001650
0,700167	0,5	0,007100
0,708500	0,5	0,027350
0,716833	0,5	0,004400
0,725167	0,5	0,000550
0,733500	0,5	0,006100
0,741833	0,5	0,026850
0,750167	0,5	0,044450
0,758500	0,5	0,046000
0,766833	0,5	0,040850
0,775167	0,5	0,048300
0,783500	0,5	0,041950
0,791833	0,5	0,047750
0,800167	0,5	0,044000
0,808500	0,5	0,047100
0,816833	0,5	0,044700
0,825167	0,5	0,045950
0,833500	0,5	0,053700
0,841833	0,5	0,031800
0,850167	0,5	0,052950
0,858500	0,5	0,050700
0,866833	0,5	0,039300
0,875167	0,5	0,039600
0,883500	0,5	0,059450
0,891833	0,5	0,083150
0,900167	0,5	0,096650
0,908500	0,5	0,077200
0,916833	0,5	0,090250
0,925167	0,5	0,082900
0,933500	0,5	0,093250
0,941833	0,5	0,083800
0,950167	0,5	0,092050
0,958500	0,5	0,086100
0,966833	0,5	0,088500
0,975167	0,5	0,089150
0,983500	0,5	0,078450
0,991833	0,5	0,067100
1,000167	0,5	0,100500
1,008500	0,5	0,084150
1,016833	0,5	0,083500
1,025167	0,5	0,084300
1,033500	0,5	0,095250
1,041833	0,5	0,129700
1,050167	0,5	0,126800
1,058500	0,5	0,127900
1,066833	0,5	0,118500
1,075167	0,5	0,130000
1,083500	0,5	0,124000
1,091833	0,5	0,133400
1,100167	0,5	0,123600
1,108500	0,5	0,126450
1,116833	0,5	0,122100
1,125167	0,5	0,126650
1,133500	0,5	0,117550
1,141833	0,5	0,116650
1,150167	0,5	0,135700
1,158500	0,5	0,116100
1,166833	0,5	0,109700
1,175167	0,5	0,111550
1,183500	0,5	0,130100
1,191833	0,5	0,170300
1,200167	0,5	0,175400
1,208500	0,5	0,163000
1,216833	0,5	0,163950
1,225167	0,5	0,152950
1,233500	0,5	0,156800
1,241833	0,5	0,152300
1,250167	0,5	0,155550
1,258500	0,5	0,144950
1,266833	0,5	0,153400
1,275167	0,5	0,148300
1,283500	0,5	0,153850
1,291833	0,5	0,153650
1,300167	0,5	0,164000
1,308500	0,5	0,137600
1,316833	0,5	0,142250
1,325167	0,5	0,142150
1,333500	0,5	0,170650
1,341833	0,5	0,191350
1,350167	0,5	0,188550
1,358500	0,5	0,180750
1,366833	0,5	0,184550
1,375167	0,5	0,180400
1,383500	0,5	0,184450
1,391833	0,5	0,183550
1,400167	0,5	0,176800
1,408500	0,5	0,173150
1,416833	0,5	0,169600
1,425167	0,5	0,165900
1,433500	0,5	0,157500
1,441833	0,5	0,180950
1,450167	0,5	0,168550
1,458500	0,5	0,156850
1,466833	0,5	0,156250
1,475167	0,5	0,166800
1,483500	0,5	0,189550
1,491833	0,5	0,211550
1,500167	0,5	0,204100
1,508500	0,5	0,208450
1,516833	0,5	0,198200
1,525167	0,5	0,198150
1,533500	0,5	0,193850
1,541833	0,5	0,194200
1,550167	0,5	0,198300
1,558500	0,5	0,238700
1,566833	0,5	0,394050
1,575167	0,5	0,768500
1,583500	0,5	1,413800
1,591833	0,5	3,370700
1,600167	0,5	13,251950
1,608500	0,5	53,660551
1,616833	0,5	187,883653
1,625167	0,5	526,140858
1,633500	0,5	1 048,692066
1,641833	0,5	1 474,875372
1,650167	0,5	1 630,259924
1,658500	0,5	1 544,643123
1,666833	0,5	1 276,116069
1,675167	0,5	920,441914
1,683500	0,5	616,026609
1,691833	0,5	415,829306
1,700167	0,5	296,018804
1,708500	0,5	219,002753
1,716833	0,5	169,192103
1,725167	0,5	135,010652
1,733500	0,5	110,627652
1,741833	0,5	92,786851
1,750167	0,5	79,464451
1,758500	0,5	69,455651
1,766833	0,5	61,828401
1,775167	0,5	55,788551
1,783500	0,5	50,793751
1,791833	0,5	46,556401
1,800167	0,5	43,005801
1,808500	0,5	40,099351
1,816833	0,5	37,676401
1,825167	0,5	35,634101
1,833500	0,5	33,836401
1,841833	0,5	32,245650
1,850167	0,5	30,778300
1,858500	0,5	29,426600
1,866833	0,5	28,134450
1,875167	0,5	26,906300
1,883500	0,5	25,799450
1,891833	0,5	24,795000
1,900167	0,5	23,857700
1,908500	0,5	23,031000
1,916833	0,5	22,305150
1,925167	0,5	21,699100
1,933500	0,5	21,190900
1,941833	0,5	20,672300
1,950167	0,5	20,124250
1,958500	0,5	19,542300
1,966833	0,5	19,003300
1,975167	0,5	18,565250
1,983500	0,5	18,260650
1,991833	0,5	18,041800
2,000167	0,5	17,894050
2,008500	0,5	17,728250
2,016833	0,5	17,540950
2,025167	0,5	17,303650
2,033500	0,5	17,110000
2,041833	0,5	16,877050
2,050167	0,5	16,676400
2,058500	0,5	16,502600
2,066833	0,5	16,369250
2,075167	0,5	16,260900
2,083500	0,5	16,158550
2,091833	0,5	16,044200
2,100167	0,5	15,946350
2,108500	0,5	15,867000
2,116833	0,5	15,835800
2,125167	0,5	15,876400
2,133500	0,5	15,978750
2,141833	0,5	16,177600
2,150167	0,5	16,534050
2,158500	0,5	16,969600
2,166833	0,5	17,103000
2,175167	0,5	16,799700
2,183500	0,5	16,299800
2,191833	0,5	15,843550
2,200167	0,5	15,575800
2,208500	0,5	15,460750
2,216833	0,5	15,427900
2,225167	0,5	15,469150
2,233500	0,5	15,502600
2,241833	0,5	15,577800
2,250167	0,5	15,638700
2,258500	0,5	15,689900
2,266833	0,5	15,698150
2,275167	0,5	15,700600
2,283500	0,5	15,720800
2,291833	0,5	15,769550
2,300167	0,5	15,853850
2,308500	0,5	15,934400
2,316833	0,5	16,003000
2,325167	0,5	16,049700
2,333500	0,5	16,075050
2,341833	0,5	16,096650
2,350167	0,5	16,186950
2,358500	0,5	16,364950
2,366833	0,5	16,642750
2,375167	0,5	16,948200
2,383500	0,5	17,229950
2,391833	0,5	17,418800
2,400167	0,5	17,551150
2,408500	0,5	17,587450
2,416833	0,5	17,589700
2,425167	0,5	17,549600
2,433500	0,5	17,510600
2,441833	0,5	17,463550
2,450167	0,5	17,410050
2,458500	0,5	17,318350
2,466833	0,5	17,190600
2,475167	0,5	17,072850
2,483500	0,5	16,950100
2,491833	0,5	16,839850
2,500167	0,5	16,770400
2,508500	0,5	16,715500
2,516833	0,5	16,688750
2,525167	0,5	16,664000
2,533500	0,5	16,639400
2,541833	0,5	16,656050
2,550167	0,5	16,662500
2,558500	0,5	16,706350
2,566833	0,5	16,963600
2,575167	0,5	18,220750
2,583500	0,5	19,691050
2,591833	0,5	19,319800
2,600167	0,5	17,884850
2,608500	0,5	16,910800
2,616833	0,5	16,452400
2,625167	0,5	16,261400
2,633500	0,5	16,088200
2,641833	0,5	15,951250
2,650167	0,5	15,840900
2,658500	0,5	15,745300
2,666833	0,5	15,687000
2,675167	0,5	15,594750
2,683500	0,5	15,520200
2,691833	0,5	15,438750
2,700167	0,5	15,360200
2,708500	0,5	15,270950
2,716833	0,5	15,179350
2,725167	0,5	15,080150
2,733500	0,5	14,982050
2,741833	0,5	14,872300
2,750167	0,5	14,767950
2,758500	0,5	14,641450
2,766833	0,5	14,544850
2,775167	0,5	14,461150
2,783500	0,5	14,343800
2,791833	0,5	14,231850
2,800167	0,5	14,139850
2,808500	0,5	14,049350
2,816833	0,5	13,988750
2,825167	0,5	13,892400
2,833500	0,5	13,811350
2,841833	0,5	13,746050
2,850167	0,5	13,702650
2,858500	0,5	13,684000
2,866833	0,5	13,710850
2,875167	0,5	13,816850
2,883500	0,5	14,063150
2,891833	0,5	14,581850
2,900167	0,5	15,479450
2,908500	0,5	16,825250
2,916833	0,5	18,508100
2,925167	0,5	20,158750
2,933500	0,5	21,246300
2,941833	0,5	21,435350
2,950167	0,5	20,662050
2,958500	0,5	19,213200
2,966833	0,5	17,509500
2,975167	0,5	15,935400
2,983500	0,5	14,719550
2,991833	0,5	13,898050
3,000167	0,5	13,360700
3,008500	0,5	13,021200
3,016833	0,5	12,767350
3,025167	0,5	12,552550
3,033500	0,5	12,363200
3,041833	0,5	12,190550
3,050167	0,5	12,054950
3,058500	0,5	11,905150
3,066833	0,5	11,815200
3,075167	0,5	11,694550
3,083500	0,5	11,580050
3,091833	0,5	11,475150
3,100167	0,5	11,384150
3,108500	0,5	11,303450
3,116833	0,5	11,216950
3,125167	0,5	11,107250
3,133500	0,5	11,018100
3,141833	0,5	10,905600
3,150167	0,5	10,803050
3,158500	0,5	10,688950
3,166833	0,5	10,586750
3,175167	0,5	10,482000
3,183500	0,5	10,399250
3,191833	0,5	10,329500
3,200167	0,5	10,262950
3,208500	0,5	10,211450
3,216833	0,5	10,189450
3,225167	0,5	10,130050
3,233500	0,5	10,085200
3,241833	0,5	10,040400
3,250167	0,5	10,022200
3,258500	0,5	10,014900
3,266833	0,5	9,982000
3,275167	0,5	9,973650
3,283500	0,5	9,969050
3,291833	0,5	10,036750
3,300167	0,5	10,170600
3,308500	0,5	10,426650
3,316833	0,5	10,791900
3,325167	0,5	11,267850
3,333500	0,5	11,775400
3,341833	0,5	12,200700
3,350167	0,5	12,434900
3,358500	0,5	12,437350
3,366833	0,5	12,171200
3,375167	0,5	11,719700
3,383500	0,5	11,205550
3,391833	0,5	10,727500
3,400167	0,5	10,339400
3,408500	0,5	10,042100
3,416833	0,5	9,822650
3,425167	0,5	9,639900
3,433500	0,5	9,513600
3,441833	0,5	9,402750
3,450167	0,5	9,324300
3,458500	0,5	9,238700
3,466833	0,5	9,169250
3,475167	0,5	9,098850
3,483500	0,5	9,044500
3,491833	0,5	8,984950
3,500167	0,5	8,930600
3,508500	0,5	8,891250
3,516833	0,5	8,832900
3,525167	0,5	8,763200
3,533500	0,5	8,719950
3,541833	0,5	8,678500
3,550167	0,5	8,665400
3,558500	0,5	8,639300
3,566833	0,5	8,607550
3,575167	0,5	8,577450
3,583500	0,5	8,556900
3,591833	0,5	8,525850
3,600167	0,5	8,496800
3,608500	0,5	8,469700
3,616833	0,5	8,437200
3,625167	0,5	8,417250
3,633500	0,5	8,391100
3,641833	0,5	8,366600
3,650167	0,5	8,321400
3,658500	0,5	8,322800
3,666833	0,5	8,259100
3,675167	0,5	8,214600
3,683500	0,5	8,180400
3,691833	0,5	8,163650
3,700167	0,5	8,178100
3,708500	0,5	8,163200
3,716833	0,5	8,150550
3,725167	0,5	8,149350
3,733500	0,5	8,146600
3,741833	0,5	8,140750
3,750167	0,5	8,128550
3,758500	0,5	8,116400
3,766833	0,5	8,097800
3,775167	0,5	8,086100
3,783500	0,5	8,080150
3,791833	0,5	8,046550
3,800167	0,5	8,027050
3,808500	0,5	8,028500
3,816833	0,5	7,991750
3,825167	0,5	7,964700
3,833500	0,5	7,951650
3,841833	0,5	7,937000
3,850167	0,5	7,947050
3,858500	0,5	7,912700
3,866833	0,5	7,905900
3,875167	0,5	7,883850
3,883500	0,5	7,873850
3,891833	0,5	7,846000
3,900167	0,5	7,832600
3,908500	0,5	7,808250
3,916833	0,5	7,786950
3,925167	0,5	7,772500
3,933500	0,5	7,747550
3,941833	0,5	7,725700
3,950167	0,5	7,718600
3,958500	0,5	7,714000
3,966833	0,5	7,682700
3,975167	0,5	7,670100
3,983500	0,5	7,667400
3,991833	0,5	7,677100
4,000167	0,5	7,676200
4,008500	0,5	7,656050
4,016833	0,5	7,632000
4,025167	0,5	7,620050
4,033500	0,5	7,593450
4,041833	0,5	7,581550
4,050167	0,5	7,557450
4,058500	0,5	7,545650
4,066833	0,5	7,530800
4,075167	0,5	7,519900
4,083500	0,5	7,500350
4,091833	0,5	7,481400
4,100167	0,5	7,476850
4,108500	0,5	7,467200
4,116833	0,5	7,440450
4,125167	0,5	7,428700
4,133500	0,5	7,428850
4,141833	0,5	7,436350
4,150167	0,5	7,445550
4,158500	0,5	7,423350
4,166833	0,5	7,415900
4,175167	0,5	7,397900
4,183500	0,5	7,394650
4,191833	0,5	7,375650
4,200167	0,5	7,364700
4,208500	0,5	7,345250
4,216833	0,5	7,340950
4,225167	0,5	7,321600
4,233500	0,5	7,306700
4,241833	0,5	7,287300
4,250167	0,5	7,291800
4,258500	0,5	7,266750
4,266833	0,5	7,249150
4,275167	0,5	7,232850
4,283500	0,5	7,236500
4,291833	0,5	7,245700
4,300167	0,5	7,243650
4,308500	0,5	7,230350
4,316833	0,5	7,214850
4,325167	0,5	7,200200
4,333500	0,5	7,182800
4,341833	0,5	7,171500
4,350167	0,5	7,157050
4,358500	0,5	7,148850
4,366833	0,5	7,135300
4,375167	0,5	7,120400
4,383500	0,5	7,089650
4,391833	0,5	7,090350
4,400167	0,5	7,086350
4,408500	0,5	7,063800
4,416833	0,5	7,048950
4,425167	0,5	7,049000
4,433500	0,5	7,060450
4,441833	0,5	7,072850
4,450167	0,5	7,059050
4,458500	0,5	7,048200
4,466833	0,5	7,032150
4,475167	0,5	7,026200
4,483500	0,5	7,013700
4,491833	0,5	7,002100
4,500167	0,5	6,994150
4,508500	0,5	6,977600
4,516833	0,5	6,974700
4,525167	0,5	6,952750
4,533500	0,5	6,934750
4,541833	0,5	6,948700
4,550167	0,5	6,930450
4,558500	0,5	6,911550
4,566833	0,5	6,906100
4,575167	0,5	6,896450
4,583500	0,5	6,919750
4,591833	0,5	6,913600
4,600167	0,5	6,912050
4,608500	0,5	6,895050
4,616833	0,5	6,897700
4,625167	0,5	6,881250
4,633500	0,5	6,876300
4,641833	0,5	6,865050
4,650167	0,5	6,854300
4,658500	0,5	6,845100
4,666833	0,5	6,836250
4,675167	0,5	6,826350
4,683500	0,5	6,806550
4,691833	0,5	6,824800
4,700167	0,5	6,801050
4,708500	0,5	6,784850
4,716833	0,5	6,777300
4,725167	0,5	6,782750
4,733500	0,5	6,805350
4,741833	0,5	6,801350
4,750167	0,5	6,782900
4,758500	0,5	6,786300
4,766833	0,5	6,775400
4,775167	0,5	6,779200
4,783500	0,5	6,775400
4,791833	0,5	6,777850
4,800167	0,5	6,778150
4,808500	0,5	6,782450
4,816833	0,5	6,795900
4,825167	0,5	6,800400
4,833500	0,5	6,810600
4,841833	0,5	6,867200
4,850167	0,5	6,887100
4,858500	0,5	6,940450
4,866833	0,5	7,016950
4,875167	0,5	7,120950
4,883500	0,5	7,262050
4,891833	0,5	7,378600
4,900167	0,5	7,527350
4,908500	0,5	7,681850
4,916833	0,5	7,843150
4,925167	0,5	7,980650
4,933500	0,5	8,101650
4,941833	0,5	8,178550
4,950167	0,5	8,227050
4,958500	0,5	8,228400
4,966833	0,5	8,187850
4,975167	0,5	8,093750
4,983500	0,5	7,995300
4,991833	0,5	7,871000
5,000167	0,5	7,718200
5,008500	0,5	7,570550
5,016833	0,5	7,433400
5,025167	0,5	7,317000
5,033500	0,5	7,213950
5,041833	0,5	7,099400
5,050167	0,5	7,004000
5,058500	0,5	6,921450
5,066833	0,5	6,855250
5,075167	0,5	6,797900
5,083500	0,5	6,747950
5,091833	0,5	6,712000
5,100167	0,5	6,673600
5,108500	0,5	6,654000
5,116833	0,5	6,620900
5,125167	0,5	6,597350
5,133500	0,5	6,581450
5,141833	0,5	6,565400
5,150167	0,5	6,533550
5,158500	0,5	6,519350
5,166833	0,5	6,512250
5,175167	0,5	6,518850
5,183500	0,5	6,514450
5,191833	0,5	6,499850
5,200167	0,5	6,479450
5,208500	0,5	6,475800
5,216833	0,5	6,461500
5,225167	0,5	6,457400
5,233500	0,5	6,443650
5,241833	0,5	6,429500
5,250167	0,5	6,424500
5,258500	0,5	6,416150
5,266833	0,5	6,409550
5,275167	0,5	6,399600
5,283500	0,5	6,408450
5,291833	0,5	6,393800
5,300167	0,5	6,381150
5,308500	0,5	6,375950
5,316833	0,5	6,379950
5,325167	0,5	6,393850
5,333500	0,5	6,401800
5,341833	0,5	6,382850
5,350167	0,5	6,383550
5,358500	0,5	6,366000
5,366833	0,5	6,359250
5,375167	0,5	6,338950
5,383500	0,5	6,328500
5,391833	0,5	6,318450
5,400167	0,5	6,312450
5,408500	0,5	6,300650
5,416833	0,5	6,278150
5,425167	0,5	6,277400
5,433500	0,5	6,282500
5,441833	0,5	6,264050
5,450167	0,5	6,253100
5,458500	0,5	6,253550
5,466833	0,5	6,264150
5,475167	0,5	6,278200
5,483500	0,5	6,269300
5,491833	0,5	6,267550
5,500167	0,5	6,256750
5,508500	0,5	6,255500
5,516833	0,5	6,244100
5,525167	0,5	6,245200
5,533500	0,5	6,233950
5,541833	0,5	6,229150
5,550167	0,5	6,230650
5,558500	0,5	6,210750
5,566833	0,5	6,191750
5,575167	0,5	6,207000
5,583500	0,5	6,200800
5,591833	0,5	6,195300
5,600167	0,5	6,190250
5,608500	0,5	6,194100
5,616833	0,5	6,211150
5,625167	0,5	6,210000
5,633500	0,5	6,210200
5,641833	0,5	6,202900
5,650167	0,5	6,198850
5,658500	0,5	6,184850
5,666833	0,5	6,180650
5,675167	0,5	6,168950
5,683500	0,5	6,162450
5,691833	0,5	6,153150
5,700167	0,5	6,147350
5,708500	0,5	6,132100
5,716833	0,5	6,120400
5,725167	0,5	6,132600
5,733500	0,5	6,122350
5,741833	0,5	6,111100
5,750167	0,5	6,109100
5,758500	0,5	6,116850
5,766833	0,5	6,145300
5,775167	0,5	6,151450
5,783500	0,5	6,147400
5,791833	0,5	6,149500
5,800167	0,5	6,150900
5,808500	0,5	6,154300
5,816833	0,5	6,148600
5,825167	0,5	6,147150
5,833500	0,5	6,136800
5,841833	0,5	6,135250
5,850167	0,5	6,121400
5,858500	0,5	6,108400
5,866833	0,5	6,081400
5,875167	0,5	6,091450
5,883500	0,5	6,060050
5,891833	0,5	6,044300
5,900167	0,5	6,034200
5,908500	0,5	6,028100
5,916833	0,5	6,039800
5,925167	0,5	6,027650
5,933500	0,5	6,012500
5,941833	0,5	6,004000
5,950167	0,5	5,998700
5,958500	0,5	5,995550
5,966833	0,5	5,987100
5,975167	0,5	5,980200
5,983500	0,5	5,973650
5,991833	0,5	5,967350
6,000167	0,5	5,964050
6,008500	0,5	5,946150
6,016833	0,5	5,941150
6,025167	0,5	5,946300
6,033500	0,5	5,928900
6,041833	0,5	5,919100
6,050167	0,5	5,923850
6,058500	0,5	5,930450
6,066833	0,5	5,946900
6,075167	0,5	5,937650
6,083500	0,5	5,936450
6,091833	0,5	5,925550
6,100167	0,5	5,920850
6,108500	0,5	5,910400
6,116833	0,5	5,907900
6,125167	0,5	5,901300
6,133500	0,5	5,893500
6,141833	0,5	5,894350
6,150167	0,5	5,887050
6,158500	0,5	5,880700
6,166833	0,5	5,886050
6,175167	0,5	5,878250
6,183500	0,5	5,864050
6,191833	0,5	5,861200
6,200167	0,5	5,860950
6,208500	0,5	5,876050
6,216833	0,5	5,882700
6,225167	0,5	5,885300
6,233500	0,5	5,870550
6,241833	0,5	5,873700
6,250167	0,5	5,865400
6,258500	0,5	5,869850
6,266833	0,5	5,862300
6,275167	0,5	5,862350
6,283500	0,5	5,857400
6,291833	0,5	5,855650
6,300167	0,5	5,849650
6,308500	0,5	5,847550
6,316833	0,5	5,858200
6,325167	0,5	5,854950
6,333500	0,5	5,845000
6,341833	0,5	5,848000
6,350167	0,5	5,850900
6,358500	0,5	5,869050
6,366833	0,5	5,878500
6,375167	0,5	5,871500
6,383500	0,5	5,869600
6,391833	0,5	5,864100
6,400167	0,5	5,859850
6,408500	0,5	5,852150
6,416833	0,5	5,848350
6,425167	0,5	5,841450
6,433500	0,5	5,841500
6,441833	0,5	5,837600
6,450167	0,5	5,835600
6,458500	0,5	5,834250
6,466833	0,5	5,838050
6,475167	0,5	5,813450
6,483500	0,5	5,803900
6,491833	0,5	5,800000
6,500167	0,5	5,805450
6,508500	0,5	5,812600
6,516833	0,5	5,806450
6,525167	0,5	5,803150
6,533500	0,5	5,796300
6,541833	0,5	5,792650
6,550167	0,5	5,792850
6,558500	0,5	5,792150
6,566833	0,5	5,786900
6,575167	0,5	5,782400
6,583500	0,5	5,777800
6,591833	0,5	5,778850
6,600167	0,5	5,765950
6,608500	0,5	5,778900
6,616833	0,5	5,769150
6,625167	0,5	5,759500
6,633500	0,5	5,750150
6,641833	0,5	5,753200
6,650167	0,5	5,764450
6,658500	0,5	5,766600
6,666833	0,5	5,755800
6,675167	0,5	5,754900
6,683500	0,5	5,747600
6,691833	0,5	5,742900
6,700167	0,5	5,736400
6,708500	0,5	5,728700
6,716833	0,5	5,718800
6,725167	0,5	5,711850
6,733500	0,5	5,710500
6,741833	0,5	5,700050
6,750167	0,5	5,691800
6,758500	0,5	5,700650
6,766833	0,5	5,693100
6,775167	0,5	5,681600
6,783500	0,5	5,676200
6,791833	0,5	5,681550
6,800167	0,5	5,699200
6,808500	0,5	5,694350
6,816833	0,5	5,693550
6,825167	0,5	5,684100
6,833500	0,5	5,684800
6,841833	0,5	5,680600
6,850167	0,5	5,684800
6,858500	0,5	5,681350
6,866833	0,5	5,679750
6,875167	0,5	5,692700
6,883500	0,5	5,705300
6,891833	0,5	5,738950
6,900167	0,5	5,787700
6,908500	0,5	5,884200
6,916833	0,5	5,994200
6,925167	0,5	6,136950
6,933500	0,5	6,285000
6,941833	0,5	6,416900
6,950167	0,5	6,496000
6,958500	0,5	6,484100
6,966833	0,5	6,394500
6,975167	0,5	6,253650
6,983500	0,5	6,088900
6,991833	0,5	5,932950
7,000167	0,5	5,797000
7,008500	0,5	5,697400
7,016833	0,5	5,620850
7,025167	0,5	5,572500
7,033500	0,5	5,534150
7,041833	0,5	5,512000
7,050167	0,5	5,495850
7,058500	0,5	5,489850
7,066833	0,5	5,466800
7,075167	0,5	5,452300
7,083500	0,5	5,437900
7,091833	0,5	5,434650
7,100167	0,5	5,434600
7,108500	0,5	5,417050
7,116833	0,5	5,406400
7,125167	0,5	5,393000
7,133500	0,5	5,384750
7,141833	0,5	5,371250
7,150167	0,5	5,363250
7,158500	0,5	5,346600
7,166833	0,5	5,339600
7,175167	0,5	5,327000
7,183500	0,5	5,313100
7,191833	0,5	5,294000
7,200167	0,5	5,289250
7,208500	0,5	5,275450
7,216833	0,5	5,255800
7,225167	0,5	5,243850
7,233500	0,5	5,235750
7,241833	0,5	5,235100
7,250167	0,5	5,235200
7,258500	0,5	5,227350
7,266833	0,5	5,214950
7,275167	0,5	5,202900
7,283500	0,5	5,190500
7,291833	0,5	5,180300
7,300167	0,5	5,164600
7,308500	0,5	5,154550
7,316833	0,5	5,144450
7,325167	0,5	5,137450
7,333500	0,5	5,129250
7,341833	0,5	5,120450
7,350167	0,5	5,122750
7,358500	0,5	5,114650
7,366833	0,5	5,100250
7,375167	0,5	5,092750
7,383500	0,5	5,085450
7,391833	0,5	5,091650
7,400167	0,5	5,085300
7,408500	0,5	5,081500
7,416833	0,5	5,070800
7,425167	0,5	5,059600
7,433500	0,5	5,045400
7,441833	0,5	5,031950
7,450167	0,5	5,018400
7,458500	0,5	5,000800
7,466833	0,5	4,987600
7,475167	0,5	4,970400
7,483500	0,5	4,953800
7,491833	0,5	4,940850
7,500167	0,5	4,938700
7,508500	0,5	4,924300
7,516833	0,5	4,916200
7,525167	0,5	4,908350
7,533500	0,5	4,914000
7,541833	0,5	4,921700
7,550167	0,5	4,920400
7,558500	0,5	4,916400
7,566833	0,5	4,918250
7,575167	0,5	4,914000
7,583500	0,5	4,930450
7,591833	0,5	4,978200
7,600167	0,5	5,090050
7,608500	0,5	5,276800
7,616833	0,5	5,479400
7,625167	0,5	5,610200
7,633500	0,5	5,587950
7,641833	0,5	5,450450
7,650167	0,5	5,269300
7,658500	0,5	5,104150
7,666833	0,5	4,984800
7,675167	0,5	4,908050
7,683500	0,5	4,859800
7,691833	0,5	4,824350
7,700167	0,5	4,790050
7,708500	0,5	4,767800
7,716833	0,5	4,745900
7,725167	0,5	4,731700
7,733500	0,5	4,720100
7,741833	0,5	4,710750
7,750167	0,5	4,705100
7,758500	0,5	4,697400
7,766833	0,5	4,692300
7,775167	0,5	4,682350
7,783500	0,5	4,664300
7,791833	0,5	4,661300
7,800167	0,5	4,650250
7,808500	0,5	4,639200
7,816833	0,5	4,628450
7,825167	0,5	4,620300
7,833500	0,5	4,616500
7,841833	0,5	4,607650
7,850167	0,5	4,600950
7,858500	0,5	4,594650
7,866833	0,5	4,594850
7,875167	0,5	4,607850
7,883500	0,5	4,621950
7,891833	0,5	4,633150
7,900167	0,5	4,631950
7,908500	0,5	4,624400
7,916833	0,5	4,607600
7,925167	0,5	4,585550
7,933500	0,5	4,563800
7,941833	0,5	4,556300
7,950167	0,5	4,555750
7,958500	0,5	4,588200
7,966833	0,5	4,685900
7,975167	0,5	4,859650
7,983500	0,5	5,063450
7,991833	0,5	5,189750
8,000167	0,5	5,197750
8,008500	0,5	5,129100
8,016833	0,5	5,066800
8,025167	0,5	5,049050
8,033500	0,5	5,053950
8,041833	0,5	5,023200
8,050167	0,5	4,943300
8,058500	0,5	4,835700
8,066833	0,5	4,744700
8,075167	0,5	4,696600
8,083500	0,5	4,700600
8,091833	0,5	4,742350
8,100167	0,5	4,776800
8,108500	0,5	4,777600
8,116833	0,5	4,737450
8,125167	0,5	4,662050
8,133500	0,5	4,577200
8,141833	0,5	4,491050
8,150167	0,5	4,420850
8,158500	0,5	4,372100
8,166833	0,5	4,337750
8,175167	0,5	4,317550
8,183500	0,5	4,302350
8,191833	0,5	4,292100
8,200167	0,5	4,290450
8,208500	0,5	4,316300
8,216833	0,5	4,388600
8,225167	0,5	4,522050
8,233500	0,5	4,665500
8,241833	0,5	4,743550
8,250167	0,5	4,699150
8,258500	0,5	4,579150
8,266833	0,5	4,439900
8,275167	0,5	4,336950
8,283500	0,5	4,270400
8,291833	0,5	4,231250
8,300167	0,5	4,207400
8,308500	0,5	4,192350
8,316833	0,5	4,187400
8,325167	0,5	4,190900
8,333500	0,5	4,200200
8,341833	0,5	4,210600
8,350167	0,5	4,204550
8,358500	0,5	4,191350
8,366833	0,5	4,162100
8,375167	0,5	4,134500
8,383500	0,5	4,120950
8,391833	0,5	4,115500
8,400167	0,5	4,123000
8,408500	0,5	4,133550
8,416833	0,5	4,145250
8,425167	0,5	4,158100
8,433500	0,5	4,170900
8,441833	0,5	4,206950
8,450167	0,5	4,281850
8,458500	0,5	4,405400
8,466833	0,5	4,516100
8,475167	0,5	4,561700
8,483500	0,5	4,506250
8,491833	0,5	4,384600
8,500167	0,5	4,261650
8,508500	0,5	4,161550
8,516833	0,5	4,089700
8,525167	0,5	4,049300
8,533500	0,5	4,027750
8,541833	0,5	4,024000
8,550167	0,5	4,021400
8,558500	0,5	4,026650
8,566833	0,5	4,030050
8,575167	0,5	4,026600
8,583500	0,5	4,015300
8,591833	0,5	3,995250
8,600167	0,5	3,984100
8,608500	0,5	3,978050
8,616833	0,5	3,978450
8,625167	0,5	3,978100
8,633500	0,5	3,977700
8,641833	0,5	3,981950
8,650167	0,5	3,989700
8,658500	0,5	4,020950
8,666833	0,5	4,095300
8,675167	0,5	4,207650
8,683500	0,5	4,339450
8,691833	0,5	4,415250
8,700167	0,5	4,410600
8,708500	0,5	4,344900
8,716833	0,5	4,266200
8,725167	0,5	4,204500
8,733500	0,5	4,164200
8,741833	0,5	4,155400
8,750167	0,5	4,162500
8,758500	0,5	4,176100
8,766833	0,5	4,178200
8,775167	0,5	4,173650
8,783500	0,5	4,183100
8,791833	0,5	4,230200
8,800167	0,5	4,306000
8,808500	0,5	4,379600
8,816833	0,5	4,397150
8,825167	0,5	4,345600
8,833500	0,5	4,252000
8,841833	0,5	4,151450
8,850167	0,5	4,095000
8,858500	0,5	4,111650
8,866833	0,5	4,180500
8,875167	0,5	4,244800
8,883500	0,5	4,254350
8,891833	0,5	4,218300
8,900167	0,5	4,167100
8,908500	0,5	4,116600
8,916833	0,5	4,070000
8,925167	0,5	4,019100
8,933500	0,5	3,963800
8,941833	0,5	3,917400
8,950167	0,5	3,889650
8,958500	0,5	3,876600
8,966833	0,5	3,872600
8,975167	0,5	3,893600
8,983500	0,5	3,929650
8,991833	0,5	3,987850
9,000167	0,5	4,072250
9,008500	0,5	4,190800
9,016833	0,5	4,325200
9,025167	0,5	4,450500
9,033500	0,5	4,523100
9,041833	0,5	4,534800
9,050167	0,5	4,482200
9,058500	0,5	4,377500
9,066833	0,5	4,245150
9,075167	0,5	4,114300
9,083500	0,5	4,017500
9,091833	0,5	3,960800
9,100167	0,5	3,937900
9,108500	0,5	3,942950
9,116833	0,5	3,965600
9,125167	0,5	4,012900
9,133500	0,5	4,092650
9,141833	0,5	4,165900
9,150167	0,5	4,212300
9,158500	0,5	4,230400
9,166833	0,5	4,259350
9,175167	0,5	4,299250
9,183500	0,5	4,321300
9,191833	0,5	4,298000
9,200167	0,5	4,231800
9,208500	0,5	4,137900
9,216833	0,5	4,040400
9,225167	0,5	3,955350
9,233500	0,5	3,890800
9,241833	0,5	3,848700
9,250167	0,5	3,825300
9,258500	0,5	3,808200
9,266833	0,5	3,790450
9,275167	0,5	3,782600
9,283500	0,5	3,767650
9,291833	0,5	3,753950
9,300167	0,5	3,753750
9,308500	0,5	3,763500
9,316833	0,5	3,788050
9,325167	0,5	3,822750
9,333500	0,5	3,861550
9,341833	0,5	3,901450
9,350167	0,5	3,939850
9,358500	0,5	3,984900
9,366833	0,5	4,036300
9,375167	0,5	4,091200
9,383500	0,5	4,138900
9,391833	0,5	4,154400
9,400167	0,5	4,128550
9,408500	0,5	4,063900
9,416833	0,5	3,977550
9,425167	0,5	3,895350
9,433500	0,5	3,827600
9,441833	0,5	3,776800
9,450167	0,5	3,750100
9,458500	0,5	3,741050
9,466833	0,5	3,749800
9,475167	0,5	3,770900
9,483500	0,5	3,815150
9,491833	0,5	3,889350
9,500167	0,5	3,995950
9,508500	0,5	4,119450
9,516833	0,5	4,241200
9,525167	0,5	4,328000
9,533500	0,5	4,368250
9,541833	0,5	4,353250
9,550167	0,5	4,305200
9,558500	0,5	4,236500
9,566833	0,5	4,167400
9,575167	0,5	4,096200
9,583500	0,5	4,037150
9,591833	0,5	3,980850
9,600167	0,5	3,941550
9,608500	0,5	3,910150
9,616833	0,5	3,890850
9,625167	0,5	3,875100
9,633500	0,5	3,862050
9,641833	0,5	3,861050
9,650167	0,5	3,865650
9,658500	0,5	3,878100
9,666833	0,5	3,897850
9,675167	0,5	3,928650
9,683500	0,5	3,966600
9,691833	0,5	4,020350
9,700167	0,5	4,076550
9,708500	0,5	4,147400
9,716833	0,5	4,222850
9,725167	0,5	4,283900
9,733500	0,5	4,319900
9,741833	0,5	4,321750
9,750167	0,5	4,283500
9,758500	0,5	4,223700
9,766833	0,5	4,157650
9,775167	0,5	4,101750
9,783500	0,5	4,069550
9,791833	0,5	4,078750
9,800167	0,5	4,128250
9,808500	0,5	4,221150
9,816833	0,5	4,340400
9,825167	0,5	4,466100
9,833500	0,5	4,570600
9,841833	0,5	4,629000
9,850167	0,5	4,630400
9,858500	0,5	4,580500
9,866833	0,5	4,503000
9,875167	0,5	4,412750
9,883500	0,5	4,329800
9,891833	0,5	4,258050
9,900167	0,5	4,202300
9,908500	0,5	4,154300
9,916833	0,5	4,113050
9,925167	0,5	4,079650
9,933500	0,5	4,054550
9,941833	0,5	4,039250
9,950167	0,5	4,036950
9,958500	0,5	4,045400
9,966833	0,5	4,057600
9,975167	0,5	4,072500
9,983500	0,5	4,090550
9,991833	0,5	4,114600
10,000167	0,5	4,130100
10,008500	0,5	4,147950
10,016833	0,5	4,164300
10,025167	0,5	4,176100
10,033500	0,5	4,191900
10,041833	0,5	4,217050
10,050167	0,5	4,240450
10,058500	0,5	4,266900
10,066833	0,5	4,281750
10,075167	0,5	4,287300
10,083500	0,5	4,285450
10,091833	0,5	4,289750
10,100167	0,5	4,314350
10,108500	0,5	4,371200
10,116833	0,5	4,447300
10,125167	0,5	4,539350
10,133500	0,5	4,616400
10,141833	0,5	4,658850
10,150167	0,5	4,661550
10,158500	0,5	4,623650
10,166833	0,5	4,558950
10,175167	0,5	4,471800
10,183500	0,5	4,391350
10,191833	0,5	4,311300
10,200167	0,5	4,249150
10,208500	0,5	4,196500
10,216833	0,5	4,148000
10,225167	0,5	4,095450
10,233500	0,5	4,051100
10,241833	0,5	4,013000
10,250167	0,5	3,981950
10,258500	0,5	3,961600
10,266833	0,5	3,952550
10,275167	0,5	3,948450
10,283500	0,5	3,955900
10,291833	0,5	3,967550
10,300167	0,5	3,987700
10,308500	0,5	4,014900
10,316833	0,5	4,048550
10,325167	0,5	4,086700
10,333500	0,5	4,132700
10,341833	0,5	4,188950
10,350167	0,5	4,252050
10,358500	0,5	4,321200
10,366833	0,5	4,387900
10,375167	0,5	4,457450
10,383500	0,5	4,531100
10,391833	0,5	4,592550
10,400167	0,5	4,636250
10,408500	0,5	4,645000
10,416833	0,5	4,611200
10,425167	0,5	4,537750
10,433500	0,5	4,443350
10,441833	0,5	4,342250
10,450167	0,5	4,238750
10,458500	0,5	4,164500
10,466833	0,5	4,093400
10,475167	0,5	4,031900
10,483500	0,5	3,975150
10,491833	0,5	3,928200
10,500167	0,5	3,895600
10,508500	0,5	3,871600
10,516833	0,5	3,863800
10,525167	0,5	3,864900
10,533500	0,5	3,880700
10,541833	0,5	3,904300
10,550167	0,5	3,937300
10,558500	0,5	3,968200
10,566833	0,5	4,008900
10,575167	0,5	4,057950
10,583500	0,5	4,122250
10,591833	0,5	4,199950
10,600167	0,5	4,291850
10,608500	0,5	4,389050
10,616833	0,5	4,461950
10,625167	0,5	4,494850
10,633500	0,5	4,481250
10,641833	0,5	4,418800
10,650167	0,5	4,320500
10,658500	0,5	4,206350
10,666833	0,5	4,092250
10,675167	0,5	3,990550
10,683500	0,5	3,907400
10,691833	0,5	3,835850
10,700167	0,5	3,778400
10,708500	0,5	3,726000
10,716833	0,5	3,678000
10,725167	0,5	3,647300
10,733500	0,5	3,631900
10,741833	0,5	3,624100
10,750167	0,5	3,640750
10,758500	0,5	3,671500
10,766833	0,5	3,712250
10,775167	0,5	3,764550
10,783500	0,5	3,839150
10,791833	0,5	3,941500
10,800167	0,5	4,060400
10,808500	0,5	4,170200
10,816833	0,5	4,245600
10,825167	0,5	4,269000
10,833500	0,5	4,227850
10,841833	0,5	4,133100
10,850167	0,5	4,011200
10,858500	0,5	3,874700
10,866833	0,5	3,750550
10,875167	0,5	3,642750
10,883500	0,5	3,559700
10,891833	0,5	3,479100
10,900167	0,5	3,421450
10,908500	0,5	3,373950
10,916833	0,5	3,342700
10,925167	0,5	3,326850
10,933500	0,5	3,333150
10,941833	0,5	3,364650
10,950167	0,5	3,424950
10,958500	0,5	3,514200
10,966833	0,5	3,639600
10,975167	0,5	3,779000
10,983500	0,5	3,923800
10,991833	0,5	4,030250
11,000167	0,5	4,072800
11,008500	0,5	4,045450
11,016833	0,5	3,957100
11,025167	0,5	3,838300
11,033500	0,5	3,710550
11,041833	0,5	3,587700
11,050167	0,5	3,492450
11,058500	0,5	3,404000
11,066833	0,5	3,332750
11,075167	0,5	3,273800
11,083500	0,5	3,230150
11,091833	0,5	3,213150
11,100167	0,5	3,221300
11,108500	0,5	3,268250
11,116833	0,5	3,344350
11,125167	0,5	3,453200
11,133500	0,5	3,572550
11,141833	0,5	3,679950
11,150167	0,5	3,736600
11,158500	0,5	3,724400
11,166833	0,5	3,641100
11,175167	0,5	3,503550
11,183500	0,5	3,329950
11,191833	0,5	3,160250
11,200167	0,5	2,998250
11,208500	0,5	2,842950
11,216833	0,5	2,701050
11,225167	0,5	2,573000
11,233500	0,5	2,466950
11,241833	0,5	2,391800
11,250167	0,5	2,354150
11,258500	0,5	2,361950
11,266833	0,5	2,413300
11,275167	0,5	2,500100
11,283500	0,5	2,607750
11,291833	0,5	2,702150
11,300167	0,5	2,774650
11,308500	0,5	2,804700
11,316833	0,5	2,805450
11,325167	0,5	2,782500
11,333500	0,5	2,748850
11,341833	0,5	2,723550
11,350167	0,5	2,699900
11,358500	0,5	2,679550
11,366833	0,5	2,666600
11,375167	0,5	2,659500
11,383500	0,5	2,673150
11,391833	0,5	2,704550
11,400167	0,5	2,740900
11,408500	0,5	2,777400
11,416833	0,5	2,807400
11,425167	0,5	2,818100
11,433500	0,5	2,806900
11,441833	0,5	2,778550
11,450167	0,5	2,739050
11,458500	0,5	2,700350
11,466833	0,5	2,666950
11,475167	0,5	2,643550
11,483500	0,5	2,620200
11,491833	0,5	2,619000
11,500167	0,5	2,620900
11,508500	0,5	2,623950
11,516833	0,5	2,632950
11,525167	0,5	2,640000
11,533500	0,5	2,650500
11,541833	0,5	2,658350
11,550167	0,5	2,658200
11,558500	0,5	2,651750
11,566833	0,5	2,642100
11,575167	0,5	2,634500
11,583500	0,5	2,628550
11,591833	0,5	2,625650
11,600167	0,5	2,626700
11,608500	0,5	2,632550
11,616833	0,5	2,649550
11,625167	0,5	2,664850
11,633500	0,5	2,688750
11,641833	0,5	2,711750
11,650167	0,5	2,726250
11,658500	0,5	2,730400
11,666833	0,5	2,727950
11,675167	0,5	2,721700
11,683500	0,5	2,720800
11,691833	0,5	2,717750
11,700167	0,5	2,719950
11,708500	0,5	2,719350
11,716833	0,5	2,729900
11,725167	0,5	2,738300
11,733500	0,5	2,751100
11,741833	0,5	2,764100
11,750167	0,5	2,776650
11,758500	0,5	2,793650
11,766833	0,5	2,805500
11,775167	0,5	2,807500
11,783500	0,5	2,812800
11,791833	0,5	2,811850
11,800167	0,5	2,796300
11,808500	0,5	2,783400
11,816833	0,5	2,769750
11,825167	0,5	2,762250
11,833500	0,5	2,765500
11,841833	0,5	2,767200
11,850167	0,5	2,763450
11,858500	0,5	2,771100
11,866833	0,5	2,770650
11,875167	0,5	2,779550
11,883500	0,5	2,789600
11,891833	0,5	2,798550
11,900167	0,5	2,805750
11,908500	0,5	2,809800
11,916833	0,5	2,813050
11,925167	0,5	2,799250
11,933500	0,5	2,794950
11,941833	0,5	2,787600
11,950167	0,5	2,777750
11,958500	0,5	2,765250
11,966833	0,5	2,757000
11,975167	0,5	2,756800
11,983500	0,5	2,767050
11,991833	0,5	2,773550
12,000167	0,5	2,780300
12,008500	0,5	2,786050
12,016833	0,5	2,788000
12,025167	0,5	2,787200
12,033500	0,5	2,784150
12,041833	0,5	2,778100
12,050167	0,5	2,779000
12,058500	0,5	2,776250
12,066833	0,5	2,778700
12,075167	0,5	2,776150
12,083500	0,5	2,785900
12,091833	0,5	2,784300
12,100167	0,5	2,782800
12,108500	0,5	2,778300
12,116833	0,5	2,775450
12,125167	0,5	2,772750
12,133500	0,5	2,776050
12,141833	0,5	2,777700
12,150167	0,5	2,781800
12,158500	0,5	2,790650
12,166833	0,5	2,797850
12,175167	0,5	2,806100
12,183500	0,5	2,806750
12,191833	0,5	2,805200
12,200167	0,5	2,801950
12,208500	0,5	2,799400
12,216833	0,5	2,784550
12,225167	0,5	2,786900
12,233500	0,5	2,789350
12,241833	0,5	2,788750
12,250167	0,5	2,787300
12,258500	0,5	2,785650
12,266833	0,5	2,786250
12,275167	0,5	2,788000
12,283500	0,5	2,785500
12,291833	0,5	2,785150
12,300167	0,5	2,783500
12,308500	0,5	2,783550
12,316833	0,5	2,789100
12,325167	0,5	2,799450
12,333500	0,5	2,806200
12,341833	0,5	2,811550
12,350167	0,5	2,817550
12,358500	0,5	2,814950
12,366833	0,5	2,810650
12,375167	0,5	2,812900
12,383500	0,5	2,817000
12,391833	0,5	2,816350
12,400167	0,5	2,823750
12,408500	0,5	2,821850
12,416833	0,5	2,830300
12,425167	0,5	2,830750
12,433500	0,5	2,833500
12,441833	0,5	2,835350
12,450167	0,5	2,842550
12,458500	0,5	2,847500
12,466833	0,5	2,860200
12,475167	0,5	2,875400
12,483500	0,5	2,888500
12,491833	0,5	2,903550
12,500167	0,5	2,929000
12,508500	0,5	2,958200
12,516833	0,5	3,001400
12,525167	0,5	3,065000
12,533500	0,5	3,138650
12,541833	0,5	3,226450
12,550167	0,5	3,320050
12,558500	0,5	3,427050
12,566833	0,5	3,536950
12,575167	0,5	3,651750
12,583500	0,5	3,763800
12,591833	0,5	3,877550
12,600167	0,5	3,979250
12,608500	0,5	4,082400
12,616833	0,5	4,181500
12,625167	0,5	4,283750
12,633500	0,5	4,372900
12,641833	0,5	4,446350
12,650167	0,5	4,508050
12,658500	0,5	4,538000
12,666833	0,5	4,541550
12,675167	0,5	4,520000
12,683500	0,5	4,473450
12,691833	0,5	4,397850
12,700167	0,5	4,302400
12,708500	0,5	4,181300
12,716833	0,5	4,042400
12,725167	0,5	3,878300
12,733500	0,5	3,729050
12,741833	0,5	3,606550
12,750167	0,5	3,539350
12,758500	0,5	3,528300
12,766833	0,5	3,555200
12,775167	0,5	3,589800
12,783500	0,5	3,590100
12,791833	0,5	3,537100
12,800167	0,5	3,459800
12,808500	0,5	3,388300
12,816833	0,5	3,379200
12,825167	0,5	3,276500
12,833500	0,5	3,137350
12,841833	0,5	2,989300
12,850167	0,5	2,803550
12,858500	0,5	2,510500
12,866833	0,5	2,234150
12,875167	0,5	1,968650
12,883500	0,5	1,632900
12,891833	0,5	1,335150
12,900167	0,5	1,109200
12,908500	0,5	0,948600
12,916833	0,5	0,819500
12,925167	0,5	0,724900
12,933500	0,5	0,655150
12,941833	0,5	0,600900
12,950167	0,5	0,552300
12,958500	0,5	0,514100
12,966833	0,5	0,485650
12,975167	0,5	0,452400
12,983500	0,5	0,423500
12,991833	0,5	0,388900
13,000167	0,5	0,352750
13,008500	0,5	0,325900
13,016833	0,5	0,305900
13,025167	0,5	0,280600
13,033500	0,5	0,261000
13,041833	0,5	0,239950
13,050167	0,5	0,222900
13,058500	0,5	0,212550
13,066833	0,5	0,206600
13,075167	0,5	0,200300
13,083500	0,5	0,201700
13,091833	0,5	0,203750
13,100167	0,5	0,208800
13,108500	0,5	0,213000
13,116833	0,5	0,222050
13,125167	0,5	0,219250
13,133500	0,5	0,211800
13,141833	0,5	0,187550
13,150167	0,5	0,171750
13,158500	0,5	0,156050
13,166833	0,5	0,146000
13,175167	0,5	0,130100
13,183500	0,5	0,116850
13,191833	0,5	0,106350
13,200167	0,5	0,093750
13,208500	0,5	0,090500
13,216833	0,5	0,082400
13,225167	0,5	0,073950
13,233500	0,5	0,069850
13,241833	0,5	0,068950
13,250167	0,5	0,053800
13,258500	0,5	0,053650
13,266833	0,5	0,053700
13,275167	0,5	0,045700
13,283500	0,5	0,034100
13,291833	0,5	0,019250
13,300167	0,5	0,009550
13,308500	0,5	0,007600
13,316833	0,5	-0,004650
13,325167	0,5	-0,009050
13,333500	0,5	-0,015550
13,341833	0,5	-0,016800
13,350167	0,5	-0,019950
13,358500	0,5	-0,023750
13,366833	0,5	-0,026150
13,375167	0,5	-0,033600
13,383500	0,5	-0,032850
13,391833	0,5	-0,041150
13,400167	0,5	-0,054000
13,408500	0,5	-0,045400
13,416833	0,5	-0,048600
13,425167	0,5	-0,053700
13,433500	0,5	-0,060250
13,441833	0,5	-0,067650
13,450167	0,5	-0,066100
13,458500	0,5	-0,068100
13,466833	0,5	-0,064200
13,475167	0,5	-0,063650
13,483500	0,5	-0,064450
13,491833	0,5	-0,066550
13,500167	0,5	-0,067700
13,508500	0,5	-0,071650
13,516833	0,5	-0,074500
13,525167	0,5	-0,076600
13,533500	0,5	-0,076350
13,541833	0,5	-0,084350
13,550167	0,5	-0,090300
13,558500	0,5	-0,086050
13,566833	0,5	-0,090700
13,575167	0,5	-0,097950
13,583500	0,5	-0,108050
13,591833	0,5	-0,116100
13,600167	0,5	-0,116450
13,608500	0,5	-0,111600
13,616833	0,5	-0,120850
13,625167	0,5	-0,121100
13,633500	0,5	-0,125050
13,641833	0,5	-0,121950
13,650167	0,5	-0,121150
13,658500	0,5	-0,120200
13,666833	0,5	-0,120750
13,675167	0,5	-0,124200
13,683500	0,5	-0,116650
13,691833	0,5	-0,124950
13,700167	0,5	-0,123500
13,708500	0,5	-0,113350
13,716833	0,5	-0,114150
13,725167	0,5	-0,118500
13,733500	0,5	-0,128800
13,741833	0,5	-0,131250
13,750167	0,5	-0,123400
13,758500	0,5	-0,127200
13,766833	0,5	-0,124550
13,775167	0,5	-0,127100
13,783500	0,5	-0,122600
13,791833	0,5	-0,123000
13,800167	0,5	-0,121450
13,808500	0,5	-0,122500
13,816833	0,5	-0,121550
13,825167	0,5	-0,118400
13,833500	0,5	-0,108500
13,841833	0,5	-0,114100
13,850167	0,5	-0,098750
13,858500	0,5	-0,096250
13,866833	0,5	-0,090500
13,875167	0,5	-0,091500
13,883500	0,5	-0,096550
13,891833	0,5	-0,087800
13,900167	0,5	-0,082600
13,908500	0,5	-0,080050
13,916833	0,5	-0,077550
13,925167	0,5	-0,075750
13,933500	0,5	-0,070350
13,941833	0,5	-0,063250
13,950167	0,5	-0,055550
13,958500	0,5	-0,043000
13,966833	0,5	-0,033850
13,975167	0,5	-0,014750
13,983500	0,5	-0,013050
13,991833	0,5	-0,008300
14,000167	0,5	0,001350
14,008500	0,5	0,004250
14,016833	0,5	0,002800
14,025167	0,5	-0,002600
14,033500	0,5	-0,008500
14,041833	0,5	-0,004350
14,050167	0,5	0,002300
14,058500	0,5	0,008900
14,066833	0,5	0,015450
14,075167	0,5	0,021750
14,083500	0,5	0,026150
14,091833	0,5	0,027350
14,100167	0,5	0,024500
14,108500	0,5	0,021750
14,116833	0,5	0,026000
14,125167	0,5	0,027650
14,133500	0,5	0,019250
14,141833	0,5	0,023250
14,150167	0,5	0,029200
14,158500	0,5	0,030650
14,166833	0,5	0,035200
14,175167	0,5	0,024700
14,183500	0,5	0,026350
14,191833	0,5	0,030750
14,200167	0,5	0,039600
14,208500	0,5	0,046300
14,216833	0,5	0,059500
14,225167	0,5	0,064300
14,233500	0,5	0,072400
14,241833	0,5	0,079250
14,250167	0,5	0,084700
14,258500	0,5	0,092700
14,266833	0,5	0,102250
14,275167	0,5	0,110150
14,283500	0,5	0,106050
14,291833	0,5	0,119850
14,300167	0,5	0,129800
14,308500	0,5	0,134100
14,316833	0,5	0,140800
14,325167	0,5	0,135900
14,333500	0,5	0,145200
14,341833	0,5	0,157750
14,350167	0,5	0,163600
14,358500	0,5	0,177300
14,366833	0,5	0,182600
14,375167	0,5	0,194950
14,383500	0,5	0,199500
14,391833	0,5	0,212350
14,400167	0,5	0,217700
14,408500	0,5	0,224600
14,416833	0,5	0,242600
14,425167	0,5	0,251350
14,433500	0,5	0,250400
14,441833	0,5	0,272400
14,450167	0,5	0,286250
14,458500	0,5	0,295700
14,466833	0,5	0,303850
14,475167	0,5	0,307550
14,483500	0,5	0,334700
14,491833	0,5	0,351300
14,500167	0,5	0,380850
14,508500	0,5	0,406550
14,516833	0,5	0,444000
14,525167	0,5	0,478700
14,533500	0,5	0,525000
14,541833	0,5	0,566050
14,550167	0,5	0,604050
14,558500	0,5	0,635550
14,566833	0,5	0,666450
14,575167	0,5	0,671550
14,583500	0,5	0,683200
14,591833	0,5	0,694900
14,600167	0,5	0,697650
14,608500	0,5	0,696700
14,616833	0,5	0,696300
14,625167	0,5	0,709050
14,633500	0,5	0,733900
14,641833	0,5	0,770950
14,650167	0,5	0,806450
14,658500	0,5	0,847850
14,666833	0,5	0,886100
14,675167	0,5	0,938150
14,683500	0,5	0,989550
14,691833	0,5	1,063000
14,700167	0,5	1,135000
14,708500	0,5	1,210050
14,716833	0,5	1,284000
14,725167	0,5	1,324050
14,733500	0,5	1,368100
14,741833	0,5	1,389500
14,750167	0,5	1,403200
14,758500	0,5	1,417800
14,766833	0,5	1,444200
14,775167	0,5	1,511450
14,783500	0,5	1,605600
14,791833	0,5	1,703400
14,800167	0,5	1,793600
14,808500	0,5	1,851100
14,816833	0,5	1,877550
14,825167	0,5	1,848950
14,833500	0,5	1,793550
14,841833	0,5	1,707150
14,850167	0,5	1,622550
14,858500	0,5	1,546400
14,866833	0,5	1,494150
14,875167	0,5	1,442250
14,883500	0,5	1,435650
14,891833	0,5	1,431850
14,900167	0,5	1,437600
14,908500	0,5	1,441000
14,916833	0,5	1,427700
14,925167	0,5	1,412700
14,933500	0,5	1,379350
14,941833	0,5	1,331250
14,950167	0,5	1,281700
14,958500	0,5	1,239200
14,966833	0,5	1,211300
14,975167	0,5	1,193600
14,983500	0,5	1,183350
14,991833	0,5	1,174600
15,000167	0,5	1,168850
15,008500	0,5	1,175100
15,016833	0,5	1,164800
15,025167	0,5	1,159050
15,033500	0,5	1,156350
15,041833	0,5	1,149100
15,050167	0,5	1,136250
15,058500	0,5	1,116900
15,066833	0,5	1,098350
15,075167	0,5	1,096350
15,083500	0,5	1,087650
15,091833	0,5	1,088650
15,100167	0,5	1,079200
15,108500	0,5	1,073550
15,116833	0,5	1,063150
15,125167	0,5	1,057800
15,133500	0,5	1,047700
15,141833	0,5	1,036100
15,150167	0,5	1,033350
15,158500	0,5	1,022750
15,166833	0,5	1,003050
15,175167	0,5	1,002850
15,183500	0,5	1,004250
15,191833	0,5	0,986700
15,200167	0,5	0,981000
15,208500	0,5	0,956700
15,216833	0,5	0,953850
15,225167	0,5	0,950700
15,233500	0,5	0,947550
15,241833	0,5	0,941100
15,250167	0,5	0,940100
15,258500	0,5	0,932600
15,266833	0,5	0,931550
15,275167	0,5	0,929400
15,283500	0,5	0,927100
15,291833	0,5	0,924750
15,300167	0,5	0,926450
15,308500	0,5	0,923650
15,316833	0,5	0,911650
15,325167	0,5	0,926250
15,333500	0,5	0,926950
15,341833	0,5	0,921900
15,350167	0,5	0,915400
15,358500	0,5	0,906500
15,366833	0,5	0,910350
15,375167	0,5	0,922700
15,383500	0,5	0,922900
15,391833	0,5	0,927850
15,400167	0,5	0,930250
15,408500	0,5	0,942450
15,416833	0,5	0,939950
15,425167	0,5	0,938600
15,433500	0,5	0,929600
15,441833	0,5	0,924500
15,450167	0,5	0,924350
15,458500	0,5	0,915350
15,466833	0,5	0,914550
15,475167	0,5	0,923000
15,483500	0,5	0,912750
15,491833	0,5	0,896000
15,500167	0,5	0,871550
15,508500	0,5	0,848200
15,516833	0,5	0,846850
15,525167	0,5	0,829500
15,533500	0,5	0,818150
15,541833	0,5	0,811100
15,550167	0,5	0,815450
15,558500	0,5	0,810450
15,566833	0,5	0,814000
15,575167	0,5	0,818750
15,583500	0,5	0,826250
15,591833	0,5	0,832900
15,600167	0,5	0,842400
15,608500	0,5	0,817500
15,616833	0,5	0,821050
15,625167	0,5	0,809250
15,633500	0,5	0,792500
15,641833	0,5	0,776050
15,650167	0,5	0,743850
15,658500	0,5	0,741700
15,666833	0,5	0,737850
15,675167	0,5	0,736500
15,683500	0,5	0,728900
15,691833	0,5	0,730450
15,700167	0,5	0,723250
15,708500	0,5	0,725400
15,716833	0,5	0,721800
15,725167	0,5	0,721200
15,733500	0,5	0,717900
15,741833	0,5	0,719350
15,750167	0,5	0,722950
15,758500	0,5	0,711150
15,766833	0,5	0,722200
15,775167	0,5	0,728300
15,783500	0,5	0,723450
15,791833	0,5	0,715450
15,800167	0,5	0,699350
15,808500	0,5	0,697900
15,816833	0,5	0,696400
15,825167	0,5	0,699500
15,833500	0,5	0,692300
15,841833	0,5	0,682750
15,850167	0,5	0,681250
15,858500	0,5	0,676850
15,866833	0,5	0,679200
15,875167	0,5	0,671900
15,883500	0,5	0,676450
15,891833	0,5	0,669450
15,900167	0,5	0,678200
15,908500	0,5	0,670450
15,916833	0,5	0,677900
15,925167	0,5	0,662950
15,933500	0,5	0,649050
15,941833	0,5	0,625150
15,950167	0,5	0,606250
15,958500	0,5	0,600500
15,966833	0,5	0,603250
15,975167	0,5	0,599350
15,983500	0,5	0,601500
15,991833	0,5	0,603850
16,000167	0,5	0,602350
16,008500	0,5	0,603300
16,016833	0,5	0,598550
16,025167	0,5	0,603750
16,033500	0,5	0,594800
16,041833	0,5	0,600300
16,050167	0,5	0,578050
16,058500	0,5	0,576550
16,066833	0,5	0,576200
16,075167	0,5	0,567400
16,083500	0,5	0,549700
16,091833	0,5	0,537750
16,100167	0,5	0,523300
16,108500	0,5	0,527150
16,116833	0,5	0,516600
16,125167	0,5	0,517650
16,133500	0,5	0,504450
16,141833	0,5	0,500100
16,150167	0,5	0,489700
16,158500	0,5	0,483500
16,166833	0,5	0,479500
16,175167	0,5	0,467350
16,183500	0,5	0,469200
16,191833	0,5	0,458100
16,200167	0,5	0,435850
16,208500	0,5	0,436450
16,216833	0,5	0,436200
16,225167	0,5	0,423200
16,233500	0,5	0,410450
16,241833	0,5	0,388650
16,250167	0,5	0,384100
16,258500	0,5	0,377350
16,266833	0,5	0,381000
16,275167	0,5	0,371100
16,283500	0,5	0,373500
16,291833	0,5	0,359750
16,300167	0,5	0,358700
16,308500	0,5	0,355550
16,316833	0,5	0,348550
16,325167	0,5	0,345800
16,333500	0,5	0,347900
16,341833	0,5	0,333700
16,350167	0,5	0,330050
16,358500	0,5	0,332350
16,366833	0,5	0,329000
16,375167	0,5	0,320800
16,383500	0,5	0,301650
16,391833	0,5	0,296200
16,400167	0,5	0,295700
16,408500	0,5	0,301100
16,416833	0,5	0,288700
16,425167	0,5	0,291800
16,433500	0,5	0,285400
16,441833	0,5	0,289200
16,450167	0,5	0,285750
16,458500	0,5	0,285400
16,466833	0,5	0,275600
16,475167	0,5	0,266550
16,483500	0,5	0,263850
16,491833	0,5	0,246350
16,500167	0,5	0,254650
16,508500	0,5	0,255550
16,516833	0,5	0,255350
16,525167	0,5	0,252500
16,533500	0,5	0,233800
16,541833	0,5	0,226850
16,550167	0,5	0,240000
16,558500	0,5	0,231100
16,566833	0,5	0,231700
16,575167	0,5	0,227400
16,583500	0,5	0,227150
16,591833	0,5	0,223400
16,600167	0,5	0,224550
16,608500	0,5	0,217900
16,616833	0,5	0,215650
16,625167	0,5	0,213700
16,633500	0,5	0,215700
16,641833	0,5	0,190900
16,650167	0,5	0,207900
16,658500	0,5	0,201800
16,666833	0,5	0,201800
16,675167	0,5	0,184950
16,683500	0,5	0,163400
16,691833	0,5	0,171200
16,700167	0,5	0,168650
16,708500	0,5	0,170250
16,716833	0,5	0,164750
16,725167	0,5	0,162850
16,733500	0,5	0,159050
16,741833	0,5	0,162250
16,750167	0,5	0,157500
16,758500	0,5	0,157750
16,766833	0,5	0,150350
16,775167	0,5	0,156150
16,783500	0,5	0,147600
16,791833	0,5	0,139250
16,800167	0,5	0,147700
16,808500	0,5	0,141700
16,816833	0,5	0,131250
16,825167	0,5	0,119750
16,833500	0,5	0,103600
16,841833	0,5	0,104400
16,850167	0,5	0,104300
16,858500	0,5	0,103450
16,866833	0,5	0,099550
16,875167	0,5	0,100350
16,883500	0,5	0,102700
16,891833	0,5	0,101700
16,900167	0,5	0,106300
16,908500	0,5	0,099150
16,916833	0,5	0,110150
16,925167	0,5	0,105950
16,933500	0,5	0,102050
16,941833	0,5	0,104800
16,950167	0,5	0,115250
16,958500	0,5	0,104750
16,966833	0,5	0,096100
16,975167	0,5	0,076600
16,983500	0,5	0,069100
16,991833	0,5	0,066900
17,000167	0,5	0,066550
17,008500	0,5	0,063750
17,016833	0,5	0,056000
17,025167	0,5	0,053350
17,033500	0,5	0,047350
17,041833	0,5	0,042900
17,050167	0,5	0,034850
17,058500	0,5	0,031300
17,066833	0,5	0,027300
17,075167	0,5	0,022500
17,083500	0,5	0,006050
17,091833	0,5	0,013450
17,100167	0,5	0,008700
17,108500	0,5	-0,000950
17,116833	0,5	-0,016650
17,125167	0,5	-0,029850
17,133500	0,5	-0,038200
17,141833	0,5	-0,032900
17,150167	0,5	-0,042900
17,158500	0,5	-0,041550
17,166833	0,5	-0,048000
17,175167	0,5	-0,046750
17,183500	0,5	-0,046400
17,191833	0,5	-0,045150
17,200167	0,5	-0,051600
17,208500	0,5	-0,052950
17,216833	0,5	-0,046250
17,225167	0,5	-0,060400
17,233500	0,5	-0,062550
17,241833	0,5	-0,058000
17,250167	0,5	-0,060150
17,258500	0,5	-0,067800
17,266833	0,5	-0,079100
17,275167	0,5	-0,085500
17,283500	0,5	-0,085550
17,291833	0,5	-0,088250
17,300167	0,5	-0,084150
17,308500	0,5	-0,085800
17,316833	0,5	-0,074900
17,325167	0,5	-0,085600
17,333500	0,5	-0,076700
17,341833	0,5	-0,078450
17,350167	0,5	-0,076250
17,358500	0,5	-0,072100
17,366833	0,5	-0,063150
17,375167	0,5	-0,077950
17,383500	0,5	-0,058100
17,391833	0,5	-0,049150
17,400167	0,5	-0,046550
17,408500	0,5	-0,050050
17,416833	0,5	-0,060950
17,425167	0,5	-0,045850
17,433500	0,5	-0,036800
17,441833	0,5	-0,029650
17,450167	0,5	-0,024050
17,458500	0,5	-0,009000
17,466833	0,5	-0,006300
17,475167	0,5	0,011900
17,483500	0,5	0,021600
17,491833	0,5	0,030650
17,500167	0,5	0,040100
17,508500	0,5	0,052500
17,516833	0,5	0,067150
17,525167	0,5	0,060400
17,533500	0,5	0,086750
17,541833	0,5	0,096150
17,550167	0,5	0,104450
17,558500	0,5	0,107400
17,566833	0,5	0,101650
17,575167	0,5	0,109650
17,583500	0,5	0,126500
17,591833	0,5	0,129250
17,600167	0,5	0,138350
17,608500	0,5	0,140950
17,616833	0,5	0,155100
17,625167	0,5	0,155650
17,633500	0,5	0,161600
17,641833	0,5	0,159600
17,650167	0,5	0,164700
17,658500	0,5	0,171300
17,666833	0,5	0,174850
17,675167	0,5	0,166050
17,683500	0,5	0,180600
17,691833	0,5	0,176550
17,700167	0,5	0,169550
17,708500	0,5	0,154750
17,716833	0,5	0,137700
17,725167	0,5	0,144800
17,733500	0,5	0,144150
17,741833	0,5	0,142450
17,750167	0,5	0,137300
17,758500	0,5	0,137000
17,766833	0,5	0,126950
17,775167	0,5	0,130550
17,783500	0,5	0,126500
17,791833	0,5	0,122500
17,800167	0,5	0,120750
17,808500	0,5	0,124300
17,816833	0,5	0,105000
17,825167	0,5	0,100950
17,833500	0,5	0,099400
17,841833	0,5	0,094600
17,850167	0,5	0,080800
17,858500	0,5	0,061150
17,866833	0,5	0,048250
17,875167	0,5	0,045650
17,883500	0,5	0,039950
17,891833	0,5	0,033450
17,900167	0,5	0,026650
17,908500	0,5	0,021600
17,916833	0,5	0,019000
17,925167	0,5	0,008400
17,933500	0,5	0,004100
17,941833	0,5	-0,005000
17,950167	0,5	-0,001900
17,958500	0,5	-0,012050
17,966833	0,5	-0,023550
17,975167	0,5	-0,024150
17,983500	0,5	-0,024450
17,991833	0,5	-0,037850
18,000167	0,5	-0,056300
18,008500	0,5	-0,081300
18,016833	0,5	-0,088200
18,025167	0,5	-0,096800
18,033500	0,5	-0,096250
18,041833	0,5	-0,105650
18,050167	0,5	-0,113150
18,058500	0,5	-0,120100
18,066833	0,5	-0,126300
18,075167	0,5	-0,130150
18,083500	0,5	-0,145600
18,091833	0,5	-0,146550
18,100167	0,5	-0,148950
18,108500	0,5	-0,164750
18,116833	0,5	-0,173550
18,125167	0,5	-0,167900
18,133500	0,5	-0,179400
18,141833	0,5	-0,190450
18,150167	0,5	-0,218500
18,158500	0,5	-0,222700
18,166833	0,5	-0,230450
18,175167	0,5	-0,229300
18,183500	0,5	-0,242450
18,191833	0,5	-0,245700
18,200167	0,5	-0,256400
18,208500	0,5	-0,261100
18,216833	0,5	-0,264650
18,225167	0,5	-0,269200
18,233500	0,5	-0,275850
18,241833	0,5	-0,286500
18,250167	0,5	-0,288050
18,258500	0,5	-0,312850
18,266833	0,5	-0,305500
18,275167	0,5	-0,308950
18,283500	0,5	-0,318100
18,291833	0,5	-0,333550
18,300167	0,5	-0,356800
18,308500	0,5	-0,366050
18,316833	0,5	-0,363700
18,325167	0,5	-0,375000
18,333500	0,5	-0,377350
18,341833	0,5	-0,387700
18,350167	0,5	-0,388450
18,358500	0,5	-0,395950
18,366833	0,5	-0,401900
18,375167	0,5	-0,410600
18,383500	0,5	-0,420050
18,391833	0,5	-0,415900
18,400167	0,5	-0,418700
18,408500	0,5	-0,444100
18,416833	0,5	-0,437550
18,425167	0,5	-0,439000
18,433500	0,5	-0,453200
18,441833	0,5	-0,466200
18,450167	0,5	-0,494100
18,458500	0,5	-0,481100
18,466833	0,5	-0,494300
18,475167	0,5	-0,491800
18,483500	0,5	-0,503500
18,491833	0,5	-0,501650
18,500167	0,5	-0,511000
18,508500	0,5	-0,511300
18,516833	0,5	-0,518900
18,525167	0,5	-0,522750
18,533500	0,5	-0,530600
18,541833	0,5	-0,527150
18,550167	0,5	-0,542050
18,558500	0,5	-0,547050
18,566833	0,5	-0,542750
18,575167	0,5	-0,548700
18,583500	0,5	-0,559950
18,591833	0,5	-0,577900
18,600167	0,5	-0,588350
18,608500	0,5	-0,589650
18,616833	0,5	-0,586250
18,625167	0,5	-0,599300
18,633500	0,5	-0,596800
18,641833	0,5	-0,602700
18,650167	0,5	-0,602000
18,658500	0,5	-0,607800
18,666833	0,5	-0,606550
18,675167	0,5	-0,615000
18,683500	0,5	-0,617050
18,691833	0,5	-0,616650
18,700167	0,5	-0,624950
18,708500	0,5	-0,619900
18,716833	0,5	-0,616150
18,725167	0,5	-0,623300
18,733500	0,5	-0,637950
18,741833	0,5	-0,653500
18,750167	0,5	-0,661250
18,758500	0,5	-0,654500
18,766833	0,5	-0,658150
18,775167	0,5	-0,659700
18,783500	0,5	-0,665000
18,791833	0,5	-0,665700
18,800167	0,5	-0,667400
18,808500	0,5	-0,663200
18,816833	0,5	-0,668700
18,825167	0,5	-0,665900
18,833500	0,5	-0,664550
18,841833	0,5	-0,658750
18,850167	0,5	-0,676700
18,858500	0,5	-0,664500
18,866833	0,5	-0,666900
18,875167	0,5	-0,668100
18,883500	0,5	-0,682800
18,891833	0,5	-0,701450
18,900167	0,5	-0,697300
18,908500	0,5	-0,701050
18,916833	0,5	-0,695250
18,925167	0,5	-0,698200
18,933500	0,5	-0,697550
18,941833	0,5	-0,702850
18,950167	0,5	-0,695700
18,958500	0,5	-0,699500
18,966833	0,5	-0,703300
18,975167	0,5	-0,704550
18,983500	0,5	-0,697750
18,991833	0,5	-0,710950
19,000167	0,5	-0,706100
19,008500	0,5	-0,699000
19,016833	0,5	-0,705500
19,025167	0,5	-0,712000
19,033500	0,5	-0,729950
19,041833	0,5	-0,740800
19,050167	0,5	-0,746650
19,058500	0,5	-0,745900
19,066833	0,5	-0,744800
19,075167	0,5	-0,743450
19,083500	0,5	-0,747400
19,091833	0,5	-0,748400
19,100167	0,5	-0,754450
19,108500	0,5	-0,754750
19,116833	0,5	-0,760050
19,125167	0,5	-0,753600
19,133500	0,5	-0,769600
19,141833	0,5	-0,779250
19,150167	0,5	-0,778700
19,158500	0,5	-0,773000
19,166833	0,5	-0,785300
19,175167	0,5	-0,794250
19,183500	0,5	-0,816350
19,191833	0,5	-0,822000
19,200167	0,5	-0,826850
19,208500	0,5	-0,827550
19,216833	0,5	-0,832300
19,225167	0,5	-0,839650
19,233500	0,5	-0,841800
19,241833	0,5	-0,843600
19,250167	0,5	-0,848850
19,258500	0,5	-0,856000
19,266833	0,5	-0,858400
19,275167	0,5	-0,864350
19,283500	0,5	-0,870400
19,291833	0,5	-0,886200
19,300167	0,5	-0,875650
19,308500	0,5	-0,878800
19,316833	0,5	-0,887350
19,325167	0,5	-0,904750
19,333500	0,5	-0,921300
19,341833	0,5	-0,920450
19,350167	0,5	-0,923500
19,358500	0,5	-0,931050
19,366833	0,5	-0,936050
19,375167	0,5	-0,941150
19,383500	0,5	-0,941800
19,391833	0,5	-0,945000
19,400167	0,5	-0,949750
19,408500	0,5	-0,951900
19,416833	0,5	-0,955250
19,425167	0,5	-0,947050
19,433500	0,5	-0,966650
19,441833	0,5	-0,966150
19,450167	0,5	-0,964850
19,458500	0,5	-0,966600
19,466833	0,5	-0,979500
19,475167	0,5	-1,005600
19,483500	0,5	-1,007300
19,491833	0,5	-1,003350
19,500167	0,5	-1,010750
19,508500	0,5	-1,010150
19,516833	0,5	-1,016400
19,525167	0,5	-1,012850
19,533500	0,5	-1,023600
19,541833	0,5	-1,019400
19,550167	0,5	-1,020450
19,558500	0,5	-1,028100
19,566833	0,5	-1,014450
19,575167	0,5	-1,016700
19,583500	0,5	-1,037000
19,591833	0,5	-1,032150
19,600167	0,5	-1,034200
19,608500	0,5	-1,044750
19,616833	0,5	-1,057100
19,625167	0,5	-1,085200
19,633500	0,5	-1,087000
19,641833	0,5	-1,089100
19,650167	0,5	-1,088650
19,658500	0,5	-1,094400
19,666833	0,5	-1,096500
19,675167	0,5	-1,104450
19,683500	0,5	-1,099900
19,691833	0,5	-1,101650
19,700167	0,5	-1,112800
19,708500	0,5	-1,113250
19,716833	0,5	-1,111850
19,725167	0,5	-1,117350
19,733500	0,5	-1,127800
19,741833	0,5	-1,121800
19,750167	0,5	-1,131100
19,758500	0,5	-1,140400
19,766833	0,5	-1,161000
19,775167	0,5	-1,180350
19,783500	0,5	-1,183300
19,791833	0,5	-1,179100
19,800167	0,5	-1,187900
19,808500	0,5	-1,181700
19,816833	0,5	-1,192800
19,825167	0,5	-1,193550
19,833500	0,5	-1,196950
19,841833	0,5	-1,200450
19,850167	0,5	-1,202050
19,858500	0,5	-1,200100
19,866833	0,5	-1,195600
19,875167	0,5	-1,207900
19,883500	0,5	-1,207600
19,891833	0,5	-1,208350
19,900167	0,5	-1,214600
19,908500	0,5	-1,225150
19,916833	0,5	-1,246500
19,925167	0,5	-1,262050
19,933500	0,5	-1,256200
19,941833	0,5	-1,265800
19,950167	0,5	-1,265600
19,958500	0,5	-1,275700
19,966833	0,5	-1,276600
19,975167	0,5	-1,286300
19,983500	0,5	-1,282700
19,991833	0,5	-1,286850
20,000167	0,5	-1,296350
20,008500	0,5	-1,288700
20,016833	0,5	-1,294750
20,025167	0,5	-1,309550
20,033500	0,5	-1,301550
20,041833	0,5	-1,302850
20,050167	0,5	-1,310800
20,058500	0,5	-1,334350
20,066833	0,5	-1,350500
20,075167	0,5	-1,349000
20,083500	0,5	-1,359650
20,091833	0,5	-1,353250
20,100167	0,5	-1,363650
20,108500	0,5	-1,363300
20,116833	0,5	-1,367600
20,125167	0,5	-1,366900
20,133500	0,5	-1,372000
20,141833	0,5	-1,376900
20,150167	0,5	-1,380100
20,158500	0,5	-1,372350
20,166833	0,5	-1,391600
20,175167	0,5	-1,393450
20,183500	0,5	-1,393200
20,191833	0,5	-1,399150
20,200167	0,5	-1,411500
20,208500	0,5	-1,436400
20,216833	0,5	-1,440650
20,225167	0,5	-1,442850
20,233500	0,5	-1,443050
20,241833	0,5	-1,449300
20,250167	0,5	-1,447950
20,258500	0,5	-1,454800
20,266833	0,5	-1,449850
20,275167	0,5	-1,453700
20,283500	0,5	-1,451450
20,291833	0,5	-1,457750
20,300167	0,5	-1,449400
20,308500	0,5	-1,446000
20,316833	0,5	-1,463700
20,325167	0,5	-1,452800
20,333500	0,5	-1,449350
20,341833	0,5	-1,453500
20,350167	0,5	-1,460550
20,358500	0,5	-1,477650
20,366833	0,5	-1,471200
20,375167	0,5	-1,467750
20,383500	0,5	-1,472950
20,391833	0,5	-1,471400
20,400167	0,5	-1,466950
20,408500	0,5	-1,460700
20,416833	0,5	-1,456400
20,425167	0,5	-1,447250
20,433500	0,5	-1,451150
20,441833	0,5	-1,439800
20,450167	0,5	-1,427850
20,458500	0,5	-1,421450
20,466833	0,5	-1,430450
20,475167	0,5	-1,414500
20,483500	0,5	-1,413600
20,491833	0,5	-1,415600
20,500167	0,5	-1,427850
20,508500	0,5	-1,438400
20,516833	0,5	-1,427400
20,525167	0,5	-1,430700
20,533500	0,5	-1,433550
20,541833	0,5	-1,438600
20,550167	0,5	-1,435650
20,558500	0,5	-1,431600
20,566833	0,5	-1,426350
20,575167	0,5	-1,429250
20,583500	0,5	-1,423250
20,591833	0,5	-1,413200
20,600167	0,5	-1,389400
20,608500	0,5	-1,395300
20,616833	0,5	-1,390600
20,625167	0,5	-1,382500
20,633500	0,5	-1,381050
20,641833	0,5	-1,385700
20,650167	0,5	-1,394650
20,658500	0,5	-1,400050
20,666833	0,5	-1,398200
20,675167	0,5	-1,402950
20,683500	0,5	-1,407500
20,691833	0,5	-1,413650
20,700167	0,5	-1,420200
20,708500	0,5	-1,417300
20,716833	0,5	-1,424300
20,725167	0,5	-1,424200
20,733500	0,5	-1,430650
20,741833	0,5	-1,412800
20,750167	0,5	-1,411650
20,758500	0,5	-1,423050
20,766833	0,5	-1,428150
20,775167	0,5	-1,433000
20,783500	0,5	-1,442200
20,791833	0,5	-1,460150
20,800167	0,5	-1,477300
20,808500	0,5	-1,481550
20,816833	0,5	-1,476600
20,825167	0,5	-1,474400
20,833500	0,5	-1,470850
20,841833	0,5	-1,469800
20,850167	0,5	-1,465600
20,858500	0,5	-1,469100
20,866833	0,5	-1,464800
20,875167	0,5	-1,471250
20,883500	0,5	-1,452800
20,891833	0,5	-1,435900
20,900167	0,5	-1,429500
20,908500	0,5	-1,430800
20,916833	0,5	-1,424150
20,925167	0,5	-1,425600
20,933500	0,5	-1,421050
20,941833	0,5	-1,443700
20,950167	0,5	-1,445850
20,958500	0,5	-1,446800
20,966833	0,5	-1,437950
20,975167	0,5	-1,441650
20,983500	0,5	-1,431950
20,991833	0,5	-1,435250
21,000167	0,5	-1,427600
21,008500	0,5	-1,421350
21,016833	0,5	-1,423750
21,025167	0,5	-1,418700
21,033500	0,5	-1,396700
21,041833	0,5	-1,380500
21,050167	0,5	-1,386850
21,058500	0,5	-1,386850
21,066833	0,5	-1,388100
21,075167	0,5	-1,393150
21,083500	0,5	-1,410750
21,091833	0,5	-1,418450
21,100167	0,5	-1,422150
21,108500	0,5	-1,416200
21,116833	0,5	-1,414450
21,125167	0,5	-1,409100
21,133500	0,5	-1,402950
21,141833	0,5	-1,397200
21,150167	0,5	-1,395500
21,158500	0,5	-1,391100
21,166833	0,5	-1,382850
21,175167	0,5	-1,379200
21,183500	0,5	-1,349150
21,191833	0,5	-1,341550
21,200167	0,5	-1,344700
21,208500	0,5	-1,344300
21,216833	0,5	-1,347200
21,225167	0,5	-1,360350
21,233500	0,5	-1,371050
21,241833	0,5	-1,373600
21,250167	0,5	-1,360400
21,258500	0,5	-1,360900
21,266833	0,5	-1,351750
21,275167	0,5	-1,341100
21,283500	0,5	-1,335450
21,291833	0,5	-1,327250
21,300167	0,5	-1,320400
21,308500	0,5	-1,310100
21,316833	0,5	-1,310750
21,325167	0,5	-1,279100
21,333500	0,5	-1,256050
21,341833	0,5	-1,259250
21,350167	0,5	-1,256650
21,358500	0,5	-1,251150
21,366833	0,5	-1,249900
21,375167	0,5	-1,245250
21,383500	0,5	-1,263250
21,391833	0,5	-1,246400
21,400167	0,5	-1,237350
21,408500	0,5	-1,228250
21,416833	0,5	-1,227750
21,425167	0,5	-1,215250
21,433500	0,5	-1,212600
21,441833	0,5	-1,202100
21,450167	0,5	-1,191450
21,458500	0,5	-1,187500
21,466833	0,5	-1,173400
21,475167	0,5	-1,142600
21,483500	0,5	-1,123850
21,491833	0,5	-1,126050
21,500167	0,5	-1,110850
21,508500	0,5	-1,111450
21,516833	0,5	-1,109100
21,525167	0,5	-1,115250
21,533500	0,5	-1,112500
21,541833	0,5	-1,094900
21,550167	0,5	-1,077400
21,558500	0,5	-1,064350
21,566833	0,5	-1,047600
21,575167	0,5	-1,035050
21,583500	0,5	-1,018050
21,591833	0,5	-0,997500
21,600167	0,5	-0,976450
21,608500	0,5	-0,947300
21,616833	0,5	-0,911600
21,625167	0,5	-0,860150
21,633500	0,5	-0,835900
21,641833	0,5	-0,804450
21,650167	0,5	-0,785800
21,658500	0,5	-0,778100
21,666833	0,5	-0,799200
21,675167	0,5	-0,815250
21,683500	0,5	-0,817400
21,691833	0,5	-0,812400
21,700167	0,5	-0,812150
21,708500	0,5	-0,798950
21,716833	0,5	-0,790950
21,725167	0,5	-0,778950
21,733500	0,5	-0,764300
21,741833	0,5	-0,750050
21,750167	0,5	-0,730050
21,758500	0,5	-0,717100
21,766833	0,5	-0,678450
21,775167	0,5	-0,665050
21,783500	0,5	-0,648600
21,791833	0,5	-0,623450
21,800167	0,5	-0,602400
21,808500	0,5	-0,584600
21,816833	0,5	-0,574350
21,825167	0,5	-0,556700
21,833500	0,5	-0,528050
21,841833	0,5	-0,499550
21,850167	0,5	-0,466750
21,858500	0,5	-0,441050
21,866833	0,5	-0,411800
21,875167	0,5	-0,383900
21,883500	0,5	-0,356300
21,891833	0,5	-0,323250
21,900167	0,5	-0,304950
21,908500	0,5	-0,277650
21,916833	0,5	-0,258700
21,925167	0,5	-0,251400
21,933500	0,5	-0,233300
21,941833	0,5	-0,207200
21,950167	0,5	-0,194300
21,958500	0,5	-0,177100
21,966833	0,5	-0,165400
21,975167	0,5	-0,145600
21,983500	0,5	-0,118800
21,991833	0,5	-0,087500
22,000167	0,5	-0,068100
22,008500	0,5	-0,036150
22,016833	0,5	-0,009150
22,025167	0,5	0,023150
22,033500	0,5	0,059150
22,041833	0,5	0,087450
22,050167	0,5	0,121500
22,058500	0,5	0,149200
22,066833	0,5	0,177400
22,075167	0,5	0,210250
22,083500	0,5	0,256900
22,091833	0,5	0,289800
22,100167	0,5	0,315800
22,108500	0,5	0,333550
22,116833	0,5	0,362800
22,125167	0,5	0,404050
22,133500	0,5	0,444550
22,141833	0,5	0,484450
22,150167	0,5	0,529900
22,158500	0,5	0,577250
22,166833	0,5	0,622450
22,175167	0,5	0,668000
22,183500	0,5	0,716450
22,191833	0,5	0,761800
22,200167	0,5	0,807800
22,208500	0,5	0,858850
22,216833	0,5	0,888900
22,225167	0,5	0,963750
22,233500	0,5	1,012400
22,241833	0,5	1,061350
22,250167	0,5	1,104700
22,258500	0,5	1,141500
22,266833	0,5	1,199550
22,275167	0,5	1,262600
22,283500	0,5	1,310800
22,291833	0,5	1,364100
22,300167	0,5	1,415700
22,308500	0,5	1,477100
22,316833	0,5	1,530650
22,325167	0,5	1,585650
22,333500	0,5	1,631350
22,341833	0,5	1,682300
22,350167	0,5	1,721050
22,358500	0,5	1,767700
22,366833	0,5	1,823700
22,375167	0,5	1,896450
22,383500	0,5	1,955950
22,391833	0,5	2,006050
22,400167	0,5	2,066050
22,408500	0,5	2,110250
22,416833	0,5	2,182000
22,425167	0,5	2,238550
22,433500	0,5	2,305550
22,441833	0,5	2,370150
22,450167	0,5	2,444250
22,458500	0,5	2,504050
22,466833	0,5	2,581650
22,475167	0,5	2,646900
22,483500	0,5	2,713050
22,491833	0,5	2,768300
22,500167	0,5	2,808650
22,508500	0,5	2,878100
22,516833	0,5	2,952500
22,525167	0,5	3,020450
22,533500	0,5	3,069450
22,541833	0,5	3,115750
22,550167	0,5	3,152200
22,558500	0,5	3,199800
22,566833	0,5	3,250450
22,575167	0,5	3,298750
22,583500	0,5	3,331250
22,591833	0,5	3,372300
22,600167	0,5	3,397150
22,608500	0,5	3,410500
22,616833	0,5	3,422450
22,625167	0,5	3,423250
22,633500	0,5	3,417000
22,641833	0,5	3,354500
22,650167	0,5	3,345600
22,658500	0,5	3,315950
22,666833	0,5	3,299300
22,675167	0,5	3,246200
22,683500	0,5	3,181350
22,691833	0,5	3,094300
22,700167	0,5	3,008100
22,708500	0,5	2,915550
22,716833	0,5	2,834700
22,725167	0,5	2,740650
22,733500	0,5	2,646400
22,741833	0,5	2,539650
22,750167	0,5	2,433500
22,758500	0,5	2,320800
22,766833	0,5	2,202400
22,775167	0,5	2,074950
22,783500	0,5	1,936700
22,791833	0,5	1,750250
22,800167	0,5	1,616250
22,808500	0,5	1,487300
22,816833	0,5	1,329250
22,825167	0,5	1,166050
22,833500	0,5	0,999350
22,841833	0,5	0,836800
22,850167	0,5	0,680250
22,858500	0,5	0,516100
22,866833	0,5	0,363350
22,875167	0,5	0,209550
22,883500	0,5	0,060750
22,891833	0,5	-0,085400
22,900167	0,5	-0,224150
22,908500	0,5	-0,368200
22,916833	0,5	-0,508400
22,925167	0,5	-0,643800
22,933500	0,5	-0,759650
22,941833	0,5	-0,905650
22,950167	0,5	-1,026700
22,958500	0,5	-1,178300
22,966833	0,5	-1,314500
22,975167	0,5	-1,415250
22,983500	0,5	-1,519400
22,991833	0,5	-1,607500
23,000167	0,5	-1,702550
23,008500	0,5	-1,785950
23,016833	0,5	-1,873200
23,025167	0,5	-1,935350
23,033500	0,5	-2,006350
23,041833	0,5	-2,064650
23,050167	0,5	-2,130000
23,058500	0,5	-2,182500
23,066833	0,5	-2,237000
23,075167	0,5	-2,290400
23,083500	0,5	-2,323200
23,091833	0,5	-2,366100
23,100167	0,5	-2,421350
23,108500	0,5	-2,485550
23,116833	0,5	-2,531550
23,125167	0,5	-2,558150
23,133500	0,5	-2,568750
23,141833	0,5	-2,578750
23,150167	0,5	-2,588950
23,158500	0,5	-2,600800
23,166833	0,5	-2,597000
23,175167	0,5	-2,598350
23,183500	0,5	-2,586200
23,191833	0,5	-2,584150
23,200167	0,5	-2,572650
23,208500	0,5	-2,567300
23,216833	0,5	-2,557000
23,225167	0,5	-2,536150
23,233500	0,5	-2,561050
23,241833	0,5	-2,529550
23,250167	0,5	-2,515000
23,258500	0,5	-2,536400
23,266833	0,5	-2,535150
23,275167	0,5	-2,520550
23,283500	0,5	-2,498750
23,291833	0,5	-2,477100
23,300167	0,5	-2,463800
23,308500	0,5	-2,436750
23,316833	0,5	-2,408600
23,325167	0,5	-2,373850
23,333500	0,5	-2,346250
23,341833	0,5	-2,312200
23,350167	0,5	-2,282250
23,358500	0,5	-2,251450
23,366833	0,5	-2,225300
23,375167	0,5	-2,239950
23,383500	0,5	-2,203100
23,391833	0,5	-2,167850
23,400167	0,5	-2,118350
23,408500	0,5	-2,118250
23,416833	0,5	-2,111050
23,425167	0,5	-2,091850
23,433500	0,5	-2,069700
23,441833	0,5	-2,054950
23,450167	0,5	-2,039250
23,458500	0,5	-2,020450
23,466833	0,5	-2,001950
23,475167	0,5	-1,979600
23,483500	0,5	-1,957750
23,491833	0,5	-1,939700
23,500167	0,5	-1,919350
23,508500	0,5	-1,901800
23,516833	0,5	-1,885550
23,525167	0,5	-1,971900
23,533500	0,5	-1,919650
23,541833	0,5	-1,864000
23,550167	0,5	-1,825750
23,558500	0,5	-1,820500
23,566833	0,5	-1,816500
23,575167	0,5	-1,807550
23,583500	0,5	-1,802250
23,591833	0,5	-1,790300
23,600167	0,5	-1,781550
23,608500	0,5	-1,773700
23,616833	0,5	-1,763300
23,625167	0,5	-1,758300
23,633500	0,5	-1,749950
23,641833	0,5	-1,742400
23,650167	0,5	-1,737150
23,658500	0,5	-1,735500
23,666833	0,5	-1,777100
23,675167	0,5	-1,868700
23,683500	0,5	-1,812600
23,691833	0,5	-1,774000
23,700167	0,5	-1,738250
23,708500	0,5	-1,743000
23,716833	0,5	-1,740900
23,725167	0,5	-1,745150
23,733500	0,5	-1,748800
23,741833	0,5	-1,740850
23,750167	0,5	-1,730050
23,758500	0,5	-1,720300
23,766833	0,5	-1,710500
23,775167	0,5	-1,700350
23,783500	0,5	-1,686900
23,791833	0,5	-1,678450
23,800167	0,5	-1,667050
23,808500	0,5	-1,664400
23,816833	0,5	-1,788600
23,825167	0,5	-1,782600
23,833500	0,5	-1,750400
23,841833	0,5	-1,690850
23,850167	0,5	-1,663350
23,858500	0,5	-1,658050
23,866833	0,5	-1,663750
23,875167	0,5	-1,671950
23,883500	0,5	-1,678050
23,891833	0,5	-1,660150
23,900167	0,5	-1,661550
23,908500	0,5	-1,647250
23,916833	0,5	-1,641250
23,925167	0,5	-1,625300
23,933500	0,5	-1,614450
23,941833	0,5	-1,604700
23,950167	0,5	-1,590900
23,958500	0,5	-1,596650
23,966833	0,5	-1,698600
23,975167	0,5	-1,673700
23,983500	0,5	-1,634550
23,991833	0,5	-1,580300
24,000167	0,5	-1,552500
24,008500	0,5	-1,539100
24,016833	0,5	-1,534900
24,025167	0,5	-1,539600
24,033500	0,5	-1,514800
24,041833	0,5	-1,503400
24,050167	0,5	-1,478800
24,058500	0,5	-1,469850
24,066833	0,5	-1,450300
24,075167	0,5	-1,439750
24,083500	0,5	-1,420050
24,091833	0,5	-1,407350
24,100167	0,5	-1,395850
24,108500	0,5	-1,446850
24,116833	0,5	-1,490450
24,125167	0,5	-1,468500
24,133500	0,5	-1,416200
24,141833	0,5	-1,380550
24,150167	0,5	-1,356500
24,158500	0,5	-1,348500
24,166833	0,5	-1,349500
24,175167	0,5	-1,343200
24,183500	0,5	-1,329150
24,191833	0,5	-1,309450
24,200167	0,5	-1,295800
24,208500	0,5	-1,273300
24,216833	0,5	-1,254050
24,225167	0,5	-1,231050
24,233500	0,5	-1,212600
24,241833	0,5	-1,192550
24,250167	0,5	-1,179900
24,258500	0,5	-1,254300
24,266833	0,5	-1,233750
24,275167	0,5	-1,208050
24,283500	0,5	-1,162550
24,291833	0,5	-1,130550
24,300167	0,5	-1,113250
24,308500	0,5	-1,108350
24,316833	0,5	-1,115350
24,325167	0,5	-1,100250
24,333500	0,5	-1,079550
24,341833	0,5	-1,067000
24,350167	0,5	-1,054600
24,358500	0,5	-1,043400
24,366833	0,5	-1,032050
24,375167	0,5	-1,019450
24,383500	0,5	-1,005450
24,391833	0,5	-0,992850
24,400167	0,5	-0,988450
24,408500	0,5	-1,046800
24,416833	0,5	-1,006850
24,425167	0,5	-0,993600
24,433500	0,5	-0,948550
24,441833	0,5	-0,930650
24,450167	0,5	-0,912050
24,458500	0,5	-0,905950
24,466833	0,5	-0,905850
24,475167	0,5	-0,891300
24,483500	0,5	-0,872800
24,491833	0,5	-0,860000
24,500167	0,5	-0,846250
24,508500	0,5	-0,834200
24,516833	0,5	-0,833950
24,525167	0,5	-0,800800
24,533500	0,5	-0,787600
24,541833	0,5	-0,777100
24,550167	0,5	-0,796150
24,558500	0,5	-0,811350
24,566833	0,5	-0,796550
24,575167	0,5	-0,772550
24,583500	0,5	-0,745100
24,591833	0,5	-0,735850
24,600167	0,5	-0,730450
24,608500	0,5	-0,729050
24,616833	0,5	-0,732150
24,625167	0,5	-0,722450
24,633500	0,5	-0,708600
24,641833	0,5	-0,693800
24,650167	0,5	-0,685350
24,658500	0,5	-0,667000
24,666833	0,5	-0,659450
24,675167	0,5	-0,642050
24,683500	0,5	-0,633100
24,691833	0,5	-0,622600
24,700167	0,5	-0,640400
24,708500	0,5	-0,636150
24,716833	0,5	-0,617900
24,725167	0,5	-0,599100
24,733500	0,5	-0,576600
24,741833	0,5	-0,572050
24,750167	0,5	-0,563650
24,758500	0,5	-0,564100
24,766833	0,5	-0,560000
24,775167	0,5	-0,557850
24,783500	0,5	-0,542100
24,791833	0,5	-0,536750
24,800167	0,5	-0,527400
24,808500	0,5	-0,521550
24,816833	0,5	-0,510850
24,825167	0,5	-0,502050
24,833500	0,5	-0,494750
24,841833	0,5	-0,488750
24,850167	0,5	-0,506200
24,858500	0,5	-0,495500
24,866833	0,5	-0,485200
24,875167	0,5	-0,470500
24,883500	0,5	-0,456800
24,891833	0,5	-0,449700
24,900167	0,5	-0,443800
24,908500	0,5	-0,442550
24,916833	0,5	-0,439550
24,925167	0,5	-0,428050
24,933500	0,5	-0,421500
24,941833	0,5	-0,408300
24,950167	0,5	-0,404200
24,958500	0,5	-0,395250
24,966833	0,5	-0,389250
24,975167	0,5	-0,379900
24,983500	0,5	-0,375100
24,991833	0,5	-0,373000
25,000167	0,5	-0,375550
25,008500	0,5	-0,368650
25,016833	0,5	-0,362350
25,025167	0,5	-0,355200
25,033500	0,5	-0,346100
25,041833	0,5	-0,342350
25,050167	0,5	-0,348400
25,058500	0,5	-0,345850
25,066833	0,5	-0,340750
25,075167	0,5	-0,337100
25,083500	0,5	-0,329250
25,091833	0,5	-0,324950
25,100167	0,5	-0,320500
25,108500	0,5	-0,314500
25,116833	0,5	-0,307400
25,125167	0,5	-0,301000
25,133500	0,5	-0,295150
25,141833	0,5	-0,295850
25,150167	0,5	-0,289600
25,158500	0,5	-0,283750
25,166833	0,5	-0,275800
25,175167	0,5	-0,275300
25,183500	0,5	-0,268500
25,191833	0,5	-0,267750
25,200167	0,5	-0,267200
25,208500	0,5	-0,267400
25,216833	0,5	-0,263150
25,225167	0,5	-0,261350
25,233500	0,5	-0,258000
25,241833	0,5	-0,259900
25,250167	0,5	-0,254350
25,258500	0,5	-0,253750
25,266833	0,5	-0,249850
25,275167	0,5	-0,246600
25,283500	0,5	-0,246950
25,291833	0,5	-0,242800
25,300167	0,5	-0,239050
25,308500	0,5	-0,234150
25,316833	0,5	-0,232250
25,325167	0,5	-0,227700
25,333500	0,5	-0,223700
25,341833	0,5	-0,221750
25,350167	0,5	-0,220550
25,358500	0,5	-0,217250
25,366833	0,5	-0,213500
25,375167	0,5	-0,212300
25,383500	0,5	-0,208900
25,391833	0,5	-0,205650
25,400167	0,5	-0,203700
25,408500	0,5	-0,203900
25,416833	0,5	-0,201450
25,425167	0,5	-0,199250
25,433500	0,5	-0,198000
25,441833	0,5	-0,194050
25,450167	0,5	-0,195600
25,458500	0,5	-0,189650
25,466833	0,5	-0,196350
25,475167	0,5	-0,194350
25,483500	0,5	-0,192850
25,491833	0,5	-0,189800
25,500167	0,5	-0,188850
25,508500	0,5	-0,186950
25,516833	0,5	-0,187300
25,525167	0,5	-0,183350
25,533500	0,5	-0,183000
25,541833	0,5	-0,178650
25,550167	0,5	-0,176250
25,558500	0,5	-0,173750
25,566833	0,5	-0,171250
25,575167	0,5	-0,170800
25,583500	0,5	-0,163800
25,591833	0,5	-0,163400
25,600167	0,5	-0,161100
25,608500	0,5	-0,161000
25,616833	0,5	-0,164000
25,625167	0,5	-0,161050
25,633500	0,5	-0,160150
25,641833	0,5	-0,155850
25,650167	0,5	-0,150200
25,658500	0,5	-0,148350
25,666833	0,5	-0,150600
25,675167	0,5	-0,149050
25,683500	0,5	-0,145500
25,691833	0,5	-0,147000
25,700167	0,5	-0,141300
25,708500	0,5	-0,141350
25,716833	0,5	-0,138150
25,725167	0,5	-0,133300
25,733500	0,5	-0,126750
25,741833	0,5	-0,125150
25,750167	0,5	-0,119400
25,758500	0,5	-0,123100
25,766833	0,5	-0,124600
25,775167	0,5	-0,121250
25,783500	0,5	-0,117400
25,791833	0,5	-0,107550
25,800167	0,5	-0,106150
25,808500	0,5	-0,101200
25,816833	0,5	-0,106850
25,825167	0,5	-0,105000
25,833500	0,5	-0,108650
25,841833	0,5	-0,104400
25,850167	0,5	-0,108300
25,858500	0,5	-0,107850
25,866833	0,5	-0,108100
25,875167	0,5	-0,107350
25,883500	0,5	-0,107650
25,891833	0,5	-0,103400
25,900167	0,5	-0,099400
25,908500	0,5	-0,105500
25,916833	0,5	-0,106250
25,925167	0,5	-0,102800
25,933500	0,5	-0,096150
25,941833	0,5	-0,087900
25,950167	0,5	-0,084550
25,958500	0,5	-0,087550
25,966833	0,5	-0,080350
25,975167	0,5	-0,084700
25,983500	0,5	-0,082900
25,991833	0,5	-0,086950
26,000167	0,5	-0,080600
