File Path	chrom://chromeleon01/ikbm_chromeleon/2022/ICS-5000/ED1/Esteban/20220612_Cell_7_4_eg.seq/385.smp/ED_1.channel/ED_1.chm
Channel	ED_1

Injection Information:
Data Vault	ikbm_chromeleon
Injection	7_00h-EGS_1
Injection Number	123
Position	BC6
Comment	
Processing Method	Stop sequence after Cell Death
Instrument Method	ICS5000_PA200_FullNative_Ox_26min_ED1
Type	Unknown
Status	Finished
Injection Date	15.06.2022
Injection Time	02:15:22
Injection Volume (µl)	5,0
Dilution Factor	1,0000
Weight	1,0000

Chromatogram Data Information:
Time Min. (min)	0,000167
Time Max. (min)	26,000167
Data Points	3121
Detector	EDet1
Generating Data System	Chromeleon 7.2.9.11323
Exporting Data System	Chromeleon 7.2.9.0
Operator	Instrument Controller
Signal Quantity	
Signal Unit	nC
Signal Min.	-2,148750
Signal Max.	880,803263
Channel	ED_1
Driver Name	DC-5000
Channel Type	Evaluation
Min. Step (s)	0,5
Max. Step (s)	0,5
Average Step (s)	0,5

Signal Parameter Information:
Signal Info	

Chromatogram Data:
Time (min)	Step (s)	Value (nC)
0,000167	n.a.	-0,043900
0,008500	0,5	-0,034200
0,016833	0,5	-0,016700
0,025167	0,5	-0,004750
0,033500	0,5	0,016850
0,041833	0,5	0,010600
0,050167	0,5	0,017600
0,058500	0,5	0,012350
0,066833	0,5	0,010850
0,075167	0,5	0,008150
0,083500	0,5	0,008300
0,091833	0,5	0,018900
0,100167	0,5	-0,006800
0,108500	0,5	0,027600
0,116833	0,5	0,009750
0,125167	0,5	-0,007750
0,133500	0,5	-0,010750
0,141833	0,5	0,005450
0,150167	0,5	0,038700
0,158500	0,5	0,044600
0,166833	0,5	0,021350
0,175167	0,5	0,034150
0,183500	0,5	0,025000
0,191833	0,5	0,033650
0,200167	0,5	0,028350
0,208500	0,5	0,029100
0,216833	0,5	0,019900
0,225167	0,5	0,021650
0,233500	0,5	0,022800
0,241833	0,5	0,004500
0,250167	0,5	-0,011300
0,258500	0,5	0,030200
0,266833	0,5	0,000800
0,275167	0,5	0,001850
0,283500	0,5	0,018450
0,291833	0,5	0,092450
0,300167	0,5	0,128350
0,308500	0,5	0,086800
0,316833	0,5	0,040150
0,325167	0,5	0,006600
0,333500	0,5	0,010350
0,341833	0,5	0,008950
0,350167	0,5	0,019750
0,358500	0,5	0,010800
0,366833	0,5	0,015650
0,375167	0,5	0,014450
0,383500	0,5	0,025250
0,391833	0,5	0,017250
0,400167	0,5	0,017500
0,408500	0,5	0,033950
0,416833	0,5	0,006450
0,425167	0,5	0,004300
0,433500	0,5	0,007600
0,441833	0,5	0,021750
0,450167	0,5	0,054350
0,458500	0,5	0,059600
0,466833	0,5	0,044900
0,475167	0,5	0,047200
0,483500	0,5	0,044300
0,491833	0,5	0,041250
0,500167	0,5	0,040600
0,508500	0,5	0,040500
0,516833	0,5	0,034200
0,525167	0,5	0,041750
0,533500	0,5	0,041850
0,541833	0,5	0,051300
0,550167	0,5	0,046000
0,558500	0,5	0,055800
0,566833	0,5	0,026600
0,575167	0,5	0,036600
0,583500	0,5	0,042750
0,591833	0,5	0,074250
0,600167	0,5	0,099650
0,608500	0,5	0,093000
0,616833	0,5	0,085950
0,625167	0,5	0,090550
0,633500	0,5	0,090450
0,641833	0,5	0,088000
0,650167	0,5	0,085150
0,658500	0,5	0,079800
0,666833	0,5	0,086100
0,675167	0,5	0,087750
0,683500	0,5	0,086000
0,691833	0,5	0,080900
0,700167	0,5	0,108850
0,708500	0,5	0,094100
0,716833	0,5	0,085150
0,725167	0,5	0,089750
0,733500	0,5	0,101850
0,741833	0,5	0,130300
0,750167	0,5	0,150800
0,758500	0,5	0,143650
0,766833	0,5	0,154750
0,775167	0,5	0,148000
0,783500	0,5	0,152650
0,791833	0,5	0,149450
0,800167	0,5	0,149250
0,808500	0,5	0,146050
0,816833	0,5	0,152650
0,825167	0,5	0,160050
0,833500	0,5	0,141400
0,841833	0,5	0,147800
0,850167	0,5	0,172450
0,858500	0,5	0,157500
0,866833	0,5	0,152800
0,875167	0,5	0,165700
0,883500	0,5	0,180900
0,891833	0,5	0,218700
0,900167	0,5	0,212900
0,908500	0,5	0,223150
0,916833	0,5	0,218550
0,925167	0,5	0,224450
0,933500	0,5	0,213250
0,941833	0,5	0,228000
0,950167	0,5	0,217100
0,958500	0,5	0,226200
0,966833	0,5	0,226950
0,975167	0,5	0,230350
0,983500	0,5	0,224100
0,991833	0,5	0,240950
1,000167	0,5	0,251050
1,008500	0,5	0,232800
1,016833	0,5	0,231000
1,025167	0,5	0,240700
1,033500	0,5	0,267200
1,041833	0,5	0,282700
1,050167	0,5	0,287900
1,058500	0,5	0,281650
1,066833	0,5	0,296300
1,075167	0,5	0,287850
1,083500	0,5	0,294900
1,091833	0,5	0,285250
1,100167	0,5	0,288800
1,108500	0,5	0,285700
1,116833	0,5	0,295700
1,125167	0,5	0,307350
1,133500	0,5	0,296850
1,141833	0,5	0,315500
1,150167	0,5	0,312550
1,158500	0,5	0,295650
1,166833	0,5	0,295050
1,175167	0,5	0,303600
1,183500	0,5	0,337200
1,191833	0,5	0,353800
1,200167	0,5	0,339000
1,208500	0,5	0,347500
1,216833	0,5	0,340300
1,225167	0,5	0,350400
1,233500	0,5	0,343450
1,241833	0,5	0,352750
1,250167	0,5	0,348400
1,258500	0,5	0,355700
1,266833	0,5	0,352750
1,275167	0,5	0,356950
1,283500	0,5	0,340300
1,291833	0,5	0,373900
1,300167	0,5	0,346250
1,308500	0,5	0,351100
1,316833	0,5	0,349600
1,325167	0,5	0,365400
1,333500	0,5	0,398550
1,341833	0,5	0,397400
1,350167	0,5	0,393800
1,358500	0,5	0,394900
1,366833	0,5	0,401200
1,375167	0,5	0,396900
1,383500	0,5	0,400950
1,391833	0,5	0,396000
1,400167	0,5	0,401950
1,408500	0,5	0,396850
1,416833	0,5	0,404650
1,425167	0,5	0,395650
1,433500	0,5	0,399700
1,441833	0,5	0,419900
1,450167	0,5	0,399350
1,458500	0,5	0,397650
1,466833	0,5	0,406150
1,475167	0,5	0,418850
1,483500	0,5	0,457300
1,491833	0,5	0,454650
1,500167	0,5	0,454800
1,508500	0,5	0,449300
1,516833	0,5	0,455300
1,525167	0,5	0,447600
1,533500	0,5	0,452600
1,541833	0,5	0,461500
1,550167	0,5	0,514550
1,558500	0,5	0,689300
1,566833	0,5	1,042950
1,575167	0,5	1,500200
1,583500	0,5	2,908450
1,591833	0,5	10,111500
1,600167	0,5	37,742701
1,608500	0,5	123,645802
1,616833	0,5	320,305505
1,625167	0,5	600,496509
1,633500	0,5	823,889162
1,641833	0,5	880,803263
1,650167	0,5	774,291112
1,658500	0,5	586,966059
1,666833	0,5	409,895156
1,675167	0,5	283,737504
1,683500	0,5	203,157153
1,691833	0,5	152,858202
1,700167	0,5	121,668552
1,708500	0,5	102,868652
1,716833	0,5	91,228101
1,725167	0,5	82,352151
1,733500	0,5	74,447901
1,741833	0,5	67,686101
1,750167	0,5	62,017901
1,758500	0,5	56,692901
1,766833	0,5	51,599201
1,775167	0,5	47,720051
1,783500	0,5	46,264551
1,791833	0,5	47,716301
1,800167	0,5	51,422801
1,808500	0,5	55,639751
1,816833	0,5	58,901101
1,825167	0,5	60,392651
1,833500	0,5	59,761751
1,841833	0,5	57,152651
1,850167	0,5	53,504501
1,858500	0,5	49,768001
1,866833	0,5	46,488701
1,875167	0,5	43,842001
1,883500	0,5	41,765401
1,891833	0,5	39,927901
1,900167	0,5	38,212001
1,908500	0,5	36,613401
1,916833	0,5	35,304901
1,925167	0,5	34,344151
1,933500	0,5	33,500900
1,941833	0,5	32,576450
1,950167	0,5	31,544350
1,958500	0,5	30,614800
1,966833	0,5	29,958650
1,975167	0,5	29,771450
1,983500	0,5	30,127300
1,991833	0,5	30,825450
2,000167	0,5	31,177700
2,008500	0,5	30,744700
2,016833	0,5	29,660250
2,025167	0,5	28,522700
2,033500	0,5	27,627450
2,041833	0,5	27,021200
2,050167	0,5	26,712500
2,058500	0,5	26,649250
2,066833	0,5	26,827700
2,075167	0,5	27,402400
2,083500	0,5	28,354650
2,091833	0,5	29,496450
2,100167	0,5	30,681750
2,108500	0,5	32,367950
2,116833	0,5	35,246601
2,125167	0,5	39,160051
2,133500	0,5	42,698201
2,141833	0,5	44,427401
2,150167	0,5	44,156901
2,158500	0,5	42,270051
2,166833	0,5	39,042401
2,175167	0,5	35,115101
2,183500	0,5	31,416400
2,191833	0,5	28,602500
2,200167	0,5	26,826300
2,208500	0,5	26,001850
2,216833	0,5	26,268650
2,225167	0,5	27,798050
2,233500	0,5	30,139450
2,241833	0,5	31,743500
2,250167	0,5	31,321700
2,258500	0,5	29,278500
2,266833	0,5	26,940900
2,275167	0,5	25,099250
2,283500	0,5	23,821300
2,291833	0,5	22,957200
2,300167	0,5	22,393000
2,308500	0,5	22,052100
2,316833	0,5	21,816300
2,325167	0,5	21,640650
2,333500	0,5	21,456250
2,341833	0,5	21,458950
2,350167	0,5	21,722750
2,358500	0,5	22,214750
2,366833	0,5	22,712400
2,375167	0,5	23,080050
2,383500	0,5	23,409150
2,391833	0,5	23,986550
2,400167	0,5	24,759000
2,408500	0,5	25,358050
2,416833	0,5	25,297350
2,425167	0,5	24,624400
2,433500	0,5	23,747700
2,441833	0,5	23,011950
2,450167	0,5	22,471100
2,458500	0,5	22,044700
2,466833	0,5	21,705300
2,475167	0,5	21,452700
2,483500	0,5	21,223150
2,491833	0,5	21,052050
2,500167	0,5	20,877650
2,508500	0,5	20,690300
2,516833	0,5	20,529600
2,525167	0,5	20,364000
2,533500	0,5	20,249700
2,541833	0,5	20,152100
2,550167	0,5	20,064400
2,558500	0,5	19,950050
2,566833	0,5	19,946900
2,575167	0,5	20,412550
2,583500	0,5	21,793350
2,591833	0,5	22,515150
2,600167	0,5	21,494200
2,608500	0,5	20,133050
2,616833	0,5	19,308050
2,625167	0,5	18,861500
2,633500	0,5	18,595900
2,641833	0,5	18,433650
2,650167	0,5	18,318950
2,658500	0,5	18,249650
2,666833	0,5	18,182300
2,675167	0,5	18,114200
2,683500	0,5	18,034800
2,691833	0,5	17,967150
2,700167	0,5	17,887750
2,708500	0,5	17,802550
2,716833	0,5	17,699100
2,725167	0,5	17,588150
2,733500	0,5	17,466900
2,741833	0,5	17,352800
2,750167	0,5	17,235700
2,758500	0,5	17,164150
2,766833	0,5	17,146100
2,775167	0,5	17,178650
2,783500	0,5	17,323550
2,791833	0,5	17,680650
2,800167	0,5	18,258650
2,808500	0,5	19,058750
2,816833	0,5	19,907150
2,825167	0,5	20,655800
2,833500	0,5	21,214900
2,841833	0,5	21,512300
2,850167	0,5	21,534600
2,858500	0,5	21,273850
2,866833	0,5	20,793200
2,875167	0,5	20,188200
2,883500	0,5	19,618100
2,891833	0,5	19,227850
2,900167	0,5	19,186950
2,908500	0,5	19,620850
2,916833	0,5	20,672000
2,925167	0,5	22,160150
2,933500	0,5	23,867600
2,941833	0,5	25,388500
2,950167	0,5	26,458700
2,958500	0,5	27,146450
2,966833	0,5	27,817250
2,975167	0,5	28,991100
2,983500	0,5	30,873300
2,991833	0,5	33,087100
3,000167	0,5	34,936851
3,008500	0,5	35,765251
3,016833	0,5	35,281851
3,025167	0,5	33,605851
3,033500	0,5	31,110000
3,041833	0,5	28,290350
3,050167	0,5	25,535350
3,058500	0,5	23,198300
3,066833	0,5	21,415700
3,075167	0,5	20,209550
3,083500	0,5	19,681850
3,091833	0,5	19,904850
3,100167	0,5	20,936850
3,108500	0,5	22,727600
3,116833	0,5	24,928350
3,125167	0,5	27,072100
3,133500	0,5	28,529800
3,141833	0,5	28,930900
3,150167	0,5	28,141950
3,158500	0,5	26,419450
3,166833	0,5	24,138650
3,175167	0,5	21,728500
3,183500	0,5	19,526050
3,191833	0,5	17,689500
3,200167	0,5	16,255650
3,208500	0,5	15,224950
3,216833	0,5	14,471700
3,225167	0,5	13,914600
3,233500	0,5	13,514250
3,241833	0,5	13,220550
3,250167	0,5	13,016550
3,258500	0,5	12,846150
3,266833	0,5	12,690600
3,275167	0,5	12,552250
3,283500	0,5	12,446500
3,291833	0,5	12,346900
3,300167	0,5	12,273600
3,308500	0,5	12,218050
3,316833	0,5	12,211000
3,325167	0,5	12,266250
3,333500	0,5	12,418450
3,341833	0,5	12,658100
3,350167	0,5	12,962600
3,358500	0,5	13,304200
3,366833	0,5	13,552300
3,375167	0,5	13,663900
3,383500	0,5	13,602050
3,391833	0,5	13,390600
3,400167	0,5	13,064000
3,408500	0,5	12,679800
3,416833	0,5	12,282950
3,425167	0,5	11,964050
3,433500	0,5	11,701900
3,441833	0,5	11,519250
3,450167	0,5	11,363800
3,458500	0,5	11,250200
3,466833	0,5	11,149550
3,475167	0,5	11,078150
3,483500	0,5	11,017650
3,491833	0,5	10,964100
3,500167	0,5	10,926500
3,508500	0,5	10,923650
3,516833	0,5	10,883150
3,525167	0,5	10,890850
3,533500	0,5	10,916050
3,541833	0,5	11,008850
3,550167	0,5	11,169450
3,558500	0,5	11,383050
3,566833	0,5	11,664950
3,575167	0,5	11,963300
3,583500	0,5	12,223650
3,591833	0,5	12,350850
3,600167	0,5	12,329050
3,608500	0,5	12,127200
3,616833	0,5	11,818850
3,625167	0,5	11,453350
3,633500	0,5	11,096500
3,641833	0,5	10,779650
3,650167	0,5	10,565850
3,658500	0,5	10,398250
3,666833	0,5	10,272900
3,675167	0,5	10,192300
3,683500	0,5	10,152400
3,691833	0,5	10,147550
3,700167	0,5	10,145300
3,708500	0,5	10,133900
3,716833	0,5	10,125550
3,725167	0,5	10,106850
3,733500	0,5	10,095450
3,741833	0,5	10,057000
3,750167	0,5	10,018150
3,758500	0,5	9,973200
3,766833	0,5	9,934400
3,775167	0,5	9,914700
3,783500	0,5	9,894450
3,791833	0,5	9,891400
3,800167	0,5	9,915350
3,808500	0,5	9,908800
3,816833	0,5	9,876000
3,825167	0,5	9,843900
3,833500	0,5	9,793350
3,841833	0,5	9,760200
3,850167	0,5	9,700800
3,858500	0,5	9,640850
3,866833	0,5	9,578300
3,875167	0,5	9,543100
3,883500	0,5	9,505100
3,891833	0,5	9,484800
3,900167	0,5	9,457050
3,908500	0,5	9,432000
3,916833	0,5	9,403950
3,925167	0,5	9,375750
3,933500	0,5	9,333000
3,941833	0,5	9,285500
3,950167	0,5	9,262150
3,958500	0,5	9,197650
3,966833	0,5	9,150150
3,975167	0,5	9,117100
3,983500	0,5	9,106000
3,991833	0,5	9,112750
4,000167	0,5	9,103450
4,008500	0,5	9,083550
4,016833	0,5	9,100800
4,025167	0,5	9,091600
4,033500	0,5	9,085800
4,041833	0,5	9,052050
4,050167	0,5	9,030150
4,058500	0,5	8,990100
4,066833	0,5	8,956000
4,075167	0,5	8,915400
4,083500	0,5	8,863250
4,091833	0,5	8,826700
4,100167	0,5	8,818800
4,108500	0,5	8,769400
4,116833	0,5	8,746300
4,125167	0,5	8,729750
4,133500	0,5	8,725050
4,141833	0,5	8,733750
4,150167	0,5	8,698350
4,158500	0,5	8,682450
4,166833	0,5	8,668450
4,175167	0,5	8,660750
4,183500	0,5	8,639350
4,191833	0,5	8,637050
4,200167	0,5	8,618550
4,208500	0,5	8,615700
4,216833	0,5	8,609050
4,225167	0,5	8,601750
4,233500	0,5	8,582450
4,241833	0,5	8,587900
4,250167	0,5	8,586250
4,258500	0,5	8,567650
4,266833	0,5	8,552200
4,275167	0,5	8,544650
4,283500	0,5	8,543750
4,291833	0,5	8,543750
4,300167	0,5	8,519950
4,308500	0,5	8,499650
4,316833	0,5	8,479200
4,325167	0,5	8,454350
4,333500	0,5	8,434200
4,341833	0,5	8,403950
4,350167	0,5	8,385950
4,358500	0,5	8,358350
4,366833	0,5	8,345550
4,375167	0,5	8,318650
4,383500	0,5	8,301550
4,391833	0,5	8,295750
4,400167	0,5	8,279450
4,408500	0,5	8,259500
4,416833	0,5	8,260100
4,425167	0,5	8,268700
4,433500	0,5	8,292750
4,441833	0,5	8,303450
4,450167	0,5	8,298500
4,458500	0,5	8,296900
4,466833	0,5	8,292550
4,475167	0,5	8,290250
4,483500	0,5	8,280650
4,491833	0,5	8,268150
4,500167	0,5	8,244850
4,508500	0,5	8,226900
4,516833	0,5	8,196050
4,525167	0,5	8,164950
4,533500	0,5	8,135750
4,541833	0,5	8,124450
4,550167	0,5	8,081300
4,558500	0,5	8,059850
4,566833	0,5	8,039750
4,575167	0,5	8,040850
4,583500	0,5	8,041700
4,591833	0,5	8,045450
4,600167	0,5	8,027750
4,608500	0,5	8,018700
4,616833	0,5	8,006450
4,625167	0,5	7,998200
4,633500	0,5	7,983250
4,641833	0,5	7,972600
4,650167	0,5	7,957500
4,658500	0,5	7,950300
4,666833	0,5	7,940400
4,675167	0,5	7,916600
4,683500	0,5	7,921500
4,691833	0,5	7,918250
4,700167	0,5	7,897450
4,708500	0,5	7,889000
4,716833	0,5	7,885000
4,725167	0,5	7,902450
4,733500	0,5	7,914500
4,741833	0,5	7,906750
4,750167	0,5	7,902200
4,758500	0,5	7,886600
4,766833	0,5	7,885800
4,775167	0,5	7,874550
4,783500	0,5	7,879100
4,791833	0,5	7,863750
4,800167	0,5	7,862300
4,808500	0,5	7,859850
4,816833	0,5	7,842750
4,825167	0,5	7,831800
4,833500	0,5	7,856300
4,841833	0,5	7,849400
4,850167	0,5	7,843150
4,858500	0,5	7,850350
4,866833	0,5	7,860150
4,875167	0,5	7,903200
4,883500	0,5	7,912600
4,891833	0,5	7,931000
4,900167	0,5	7,944950
4,908500	0,5	7,975000
4,916833	0,5	8,005350
4,925167	0,5	8,052350
4,933500	0,5	8,101200
4,941833	0,5	8,166200
4,950167	0,5	8,240400
4,958500	0,5	8,340650
4,966833	0,5	8,429850
4,975167	0,5	8,539850
4,983500	0,5	8,680100
4,991833	0,5	8,771950
5,000167	0,5	8,871200
5,008500	0,5	8,965800
5,016833	0,5	9,054400
5,025167	0,5	9,145950
5,033500	0,5	9,191300
5,041833	0,5	9,216550
5,050167	0,5	9,240800
5,058500	0,5	9,246600
5,066833	0,5	9,250800
5,075167	0,5	9,237900
5,083500	0,5	9,220000
5,091833	0,5	9,182750
5,100167	0,5	9,139450
5,108500	0,5	9,073050
5,116833	0,5	8,987500
5,125167	0,5	8,883400
5,133500	0,5	8,795450
5,141833	0,5	8,650850
5,150167	0,5	8,527000
5,158500	0,5	8,406500
5,166833	0,5	8,302950
5,175167	0,5	8,214400
5,183500	0,5	8,105600
5,191833	0,5	8,013600
5,200167	0,5	7,939050
5,208500	0,5	7,878450
5,216833	0,5	7,826450
5,225167	0,5	7,785750
5,233500	0,5	7,745800
5,241833	0,5	7,716700
5,250167	0,5	7,692200
5,258500	0,5	7,685600
5,266833	0,5	7,660750
5,275167	0,5	7,664150
5,283500	0,5	7,669850
5,291833	0,5	7,664600
5,300167	0,5	7,675300
5,308500	0,5	7,707050
5,316833	0,5	7,745900
5,325167	0,5	7,795450
5,333500	0,5	7,813300
5,341833	0,5	7,842950
5,350167	0,5	7,846350
5,358500	0,5	7,853700
5,366833	0,5	7,835900
5,375167	0,5	7,809400
5,383500	0,5	7,766950
5,391833	0,5	7,719750
5,400167	0,5	7,669150
5,408500	0,5	7,601500
5,416833	0,5	7,541750
5,425167	0,5	7,506200
5,433500	0,5	7,458800
5,441833	0,5	7,411000
5,450167	0,5	7,383700
5,458500	0,5	7,366800
5,466833	0,5	7,373250
5,475167	0,5	7,362600
5,483500	0,5	7,344000
5,491833	0,5	7,315050
5,500167	0,5	7,311200
5,508500	0,5	7,292500
5,516833	0,5	7,284050
5,525167	0,5	7,266600
5,533500	0,5	7,256900
5,541833	0,5	7,249700
5,550167	0,5	7,247200
5,558500	0,5	7,228400
5,566833	0,5	7,233500
5,575167	0,5	7,233800
5,583500	0,5	7,223200
5,591833	0,5	7,211800
5,600167	0,5	7,210750
5,608500	0,5	7,222300
5,616833	0,5	7,229650
5,625167	0,5	7,243950
5,633500	0,5	7,227650
5,641833	0,5	7,228050
5,650167	0,5	7,219250
5,658500	0,5	7,216300
5,666833	0,5	7,205750
5,675167	0,5	7,197100
5,683500	0,5	7,186800
5,691833	0,5	7,184750
5,700167	0,5	7,177750
5,708500	0,5	7,168200
5,716833	0,5	7,170300
5,725167	0,5	7,174300
5,733500	0,5	7,153750
5,741833	0,5	7,150400
5,750167	0,5	7,151050
5,758500	0,5	7,171650
5,766833	0,5	7,184950
5,775167	0,5	7,176250
5,783500	0,5	7,179550
5,791833	0,5	7,172200
5,800167	0,5	7,172250
5,808500	0,5	7,165500
5,816833	0,5	7,164650
5,825167	0,5	7,157750
5,833500	0,5	7,159250
5,841833	0,5	7,160750
5,850167	0,5	7,152500
5,858500	0,5	7,134450
5,866833	0,5	7,153850
5,875167	0,5	7,137350
5,883500	0,5	7,122700
5,891833	0,5	7,111250
5,900167	0,5	7,105850
5,908500	0,5	7,117800
5,916833	0,5	7,114400
5,925167	0,5	7,101500
5,933500	0,5	7,098300
5,941833	0,5	7,090750
5,950167	0,5	7,084850
5,958500	0,5	7,079250
5,966833	0,5	7,073400
5,975167	0,5	7,065850
5,983500	0,5	7,058150
5,991833	0,5	7,055050
6,000167	0,5	7,041850
6,008500	0,5	7,033800
6,016833	0,5	7,046650
6,025167	0,5	7,022950
6,033500	0,5	7,004500
6,041833	0,5	7,000000
6,050167	0,5	6,997600
6,058500	0,5	7,014400
6,066833	0,5	7,004950
6,075167	0,5	7,001250
6,083500	0,5	6,995750
6,091833	0,5	6,994750
6,100167	0,5	6,984850
6,108500	0,5	6,982850
6,116833	0,5	6,978950
6,125167	0,5	6,975600
6,133500	0,5	6,973950
6,141833	0,5	6,975650
6,150167	0,5	6,973850
6,158500	0,5	6,962450
6,166833	0,5	6,975000
6,175167	0,5	6,950450
6,183500	0,5	6,945550
6,191833	0,5	6,942850
6,200167	0,5	6,954950
6,208500	0,5	6,973600
6,216833	0,5	6,969100
6,225167	0,5	6,958950
6,233500	0,5	6,963900
6,241833	0,5	6,963100
6,250167	0,5	6,964600
6,258500	0,5	6,962250
6,266833	0,5	6,951000
6,275167	0,5	6,950650
6,283500	0,5	6,949500
6,291833	0,5	6,954650
6,300167	0,5	6,938600
6,308500	0,5	6,935050
6,316833	0,5	6,938000
6,325167	0,5	6,916550
6,333500	0,5	6,908050
6,341833	0,5	6,903200
6,350167	0,5	6,905900
6,358500	0,5	6,924150
6,366833	0,5	6,913050
6,375167	0,5	6,914200
6,383500	0,5	6,901000
6,391833	0,5	6,906750
6,400167	0,5	6,894300
6,408500	0,5	6,893150
6,416833	0,5	6,883050
6,425167	0,5	6,882350
6,433500	0,5	6,880950
6,441833	0,5	6,871300
6,450167	0,5	6,866550
6,458500	0,5	6,877150
6,466833	0,5	6,870800
6,475167	0,5	6,863800
6,483500	0,5	6,870800
6,491833	0,5	6,884900
6,500167	0,5	6,907500
6,508500	0,5	6,925350
6,516833	0,5	6,930650
6,525167	0,5	6,926300
6,533500	0,5	6,929150
6,541833	0,5	6,920450
6,550167	0,5	6,920450
6,558500	0,5	6,911150
6,566833	0,5	6,905850
6,575167	0,5	6,892000
6,583500	0,5	6,888100
6,591833	0,5	6,871000
6,600167	0,5	6,867050
6,608500	0,5	6,868450
6,616833	0,5	6,851700
6,625167	0,5	6,835700
6,633500	0,5	6,829400
6,641833	0,5	6,827050
6,650167	0,5	6,834350
6,658500	0,5	6,835900
6,666833	0,5	6,830100
6,675167	0,5	6,821400
6,683500	0,5	6,815400
6,691833	0,5	6,804650
6,700167	0,5	6,802600
6,708500	0,5	6,793400
6,716833	0,5	6,783900
6,725167	0,5	6,783950
6,733500	0,5	6,778150
6,741833	0,5	6,775500
6,750167	0,5	6,781650
6,758500	0,5	6,788700
6,766833	0,5	6,776350
6,775167	0,5	6,780800
6,783500	0,5	6,789350
6,791833	0,5	6,816400
6,800167	0,5	6,839850
6,808500	0,5	6,856250
6,816833	0,5	6,873000
6,825167	0,5	6,892350
6,833500	0,5	6,919300
6,841833	0,5	6,950400
6,850167	0,5	6,995500
6,858500	0,5	7,052350
6,866833	0,5	7,136200
6,875167	0,5	7,260300
6,883500	0,5	7,429500
6,891833	0,5	7,651800
6,900167	0,5	7,962750
6,908500	0,5	8,326700
6,916833	0,5	8,751100
6,925167	0,5	9,213100
6,933500	0,5	9,677950
6,941833	0,5	10,107100
6,950167	0,5	10,428200
6,958500	0,5	10,615450
6,966833	0,5	10,676950
6,975167	0,5	10,596550
6,983500	0,5	10,408550
6,991833	0,5	10,128250
7,000167	0,5	9,785800
7,008500	0,5	9,390400
7,016833	0,5	8,967300
7,025167	0,5	8,541850
7,033500	0,5	8,130900
7,041833	0,5	7,763150
7,050167	0,5	7,473850
7,058500	0,5	7,222450
7,066833	0,5	7,035800
7,075167	0,5	6,894800
7,083500	0,5	6,801500
7,091833	0,5	6,746700
7,100167	0,5	6,689750
7,108500	0,5	6,642950
7,116833	0,5	6,606050
7,125167	0,5	6,575500
7,133500	0,5	6,533100
7,141833	0,5	6,499700
7,150167	0,5	6,458450
7,158500	0,5	6,427500
7,166833	0,5	6,396400
7,175167	0,5	6,374550
7,183500	0,5	6,347950
7,191833	0,5	6,322850
7,200167	0,5	6,313500
7,208500	0,5	6,284500
7,216833	0,5	6,266000
7,225167	0,5	6,250050
7,233500	0,5	6,241750
7,241833	0,5	6,240050
7,250167	0,5	6,229500
7,258500	0,5	6,210700
7,266833	0,5	6,193650
7,275167	0,5	6,182950
7,283500	0,5	6,172600
7,291833	0,5	6,155500
7,300167	0,5	6,143650
7,308500	0,5	6,122000
7,316833	0,5	6,106500
7,325167	0,5	6,088050
7,333500	0,5	6,071000
7,341833	0,5	6,049450
7,350167	0,5	6,033450
7,358500	0,5	6,008350
7,366833	0,5	5,994750
7,375167	0,5	5,984800
7,383500	0,5	5,984800
7,391833	0,5	5,989150
7,400167	0,5	5,976950
7,408500	0,5	5,963200
7,416833	0,5	5,947700
7,425167	0,5	5,930350
7,433500	0,5	5,910450
7,441833	0,5	5,899750
7,450167	0,5	5,878700
7,458500	0,5	5,866450
7,466833	0,5	5,853050
7,475167	0,5	5,839200
7,483500	0,5	5,822300
7,491833	0,5	5,817500
7,500167	0,5	5,802300
7,508500	0,5	5,779000
7,516833	0,5	5,762050
7,525167	0,5	5,749850
7,533500	0,5	5,741800
7,541833	0,5	5,737250
7,550167	0,5	5,726550
7,558500	0,5	5,722900
7,566833	0,5	5,716950
7,575167	0,5	5,712050
7,583500	0,5	5,705000
7,591833	0,5	5,693350
7,600167	0,5	5,683900
7,608500	0,5	5,671000
7,616833	0,5	5,663200
7,625167	0,5	5,657400
7,633500	0,5	5,682100
7,641833	0,5	5,763650
7,650167	0,5	5,872250
7,658500	0,5	5,974050
7,666833	0,5	6,016850
7,675167	0,5	5,984600
7,683500	0,5	5,905100
7,691833	0,5	5,807450
7,700167	0,5	5,732650
7,708500	0,5	5,674050
7,716833	0,5	5,634000
7,725167	0,5	5,596850
7,733500	0,5	5,562100
7,741833	0,5	5,529000
7,750167	0,5	5,506000
7,758500	0,5	5,483800
7,766833	0,5	5,466750
7,775167	0,5	5,452450
7,783500	0,5	5,448250
7,791833	0,5	5,447700
7,800167	0,5	5,438600
7,808500	0,5	5,432100
7,816833	0,5	5,423850
7,825167	0,5	5,427350
7,833500	0,5	5,426000
7,841833	0,5	5,425650
7,850167	0,5	5,429000
7,858500	0,5	5,439750
7,866833	0,5	5,454450
7,875167	0,5	5,478900
7,883500	0,5	5,515350
7,891833	0,5	5,573850
7,900167	0,5	5,663650
7,908500	0,5	5,795150
7,916833	0,5	5,992950
7,925167	0,5	6,266050
7,933500	0,5	6,645650
7,941833	0,5	7,134850
7,950167	0,5	7,727650
7,958500	0,5	8,403200
7,966833	0,5	9,099950
7,975167	0,5	9,726600
7,983500	0,5	10,181600
7,991833	0,5	10,380650
8,000167	0,5	10,312200
8,008500	0,5	9,994950
8,016833	0,5	9,465100
8,025167	0,5	8,766400
8,033500	0,5	7,996550
8,041833	0,5	7,257400
8,050167	0,5	6,655900
8,058500	0,5	6,215200
8,066833	0,5	5,926000
8,075167	0,5	5,745200
8,083500	0,5	5,643800
8,091833	0,5	5,583100
8,100167	0,5	5,549100
8,108500	0,5	5,544450
8,116833	0,5	5,572600
8,125167	0,5	5,636700
8,133500	0,5	5,702100
8,141833	0,5	5,759650
8,150167	0,5	5,788000
8,158500	0,5	5,772300
8,166833	0,5	5,711000
8,175167	0,5	5,622250
8,183500	0,5	5,512050
8,191833	0,5	5,407300
8,200167	0,5	5,313150
8,208500	0,5	5,238000
8,216833	0,5	5,176650
8,225167	0,5	5,131500
8,233500	0,5	5,112450
8,241833	0,5	5,116200
8,250167	0,5	5,159200
8,258500	0,5	5,230100
8,266833	0,5	5,292100
8,275167	0,5	5,299900
8,283500	0,5	5,236400
8,291833	0,5	5,141800
8,300167	0,5	5,051550
8,308500	0,5	4,990000
8,316833	0,5	4,946850
8,325167	0,5	4,924700
8,333500	0,5	4,906150
8,341833	0,5	4,901900
8,350167	0,5	4,900100
8,358500	0,5	4,907900
8,366833	0,5	4,921400
8,375167	0,5	4,933400
8,383500	0,5	4,933550
8,391833	0,5	4,916800
8,400167	0,5	4,891850
8,408500	0,5	4,874200
8,416833	0,5	4,871950
8,425167	0,5	4,886500
8,433500	0,5	4,908950
8,441833	0,5	4,922450
8,450167	0,5	4,925900
8,458500	0,5	4,912800
8,466833	0,5	4,901950
8,475167	0,5	4,906400
8,483500	0,5	4,953000
8,491833	0,5	5,025050
8,500167	0,5	5,082550
8,508500	0,5	5,083750
8,516833	0,5	5,027300
8,525167	0,5	4,946400
8,533500	0,5	4,864150
8,541833	0,5	4,797000
8,550167	0,5	4,749850
8,558500	0,5	4,718100
8,566833	0,5	4,702400
8,575167	0,5	4,696950
8,583500	0,5	4,699100
8,591833	0,5	4,704550
8,600167	0,5	4,703650
8,608500	0,5	4,697100
8,616833	0,5	4,682750
8,625167	0,5	4,668850
8,633500	0,5	4,657600
8,641833	0,5	4,650350
8,650167	0,5	4,648950
8,658500	0,5	4,645400
8,666833	0,5	4,639750
8,675167	0,5	4,641200
8,683500	0,5	4,659650
8,691833	0,5	4,706250
8,700167	0,5	4,788600
8,708500	0,5	4,890150
8,716833	0,5	4,963650
8,725167	0,5	4,974650
8,733500	0,5	4,938800
8,741833	0,5	4,877300
8,750167	0,5	4,826900
8,758500	0,5	4,791550
8,766833	0,5	4,766750
8,775167	0,5	4,750500
8,783500	0,5	4,744400
8,791833	0,5	4,743400
8,800167	0,5	4,742750
8,808500	0,5	4,749100
8,816833	0,5	4,771150
8,825167	0,5	4,825050
8,833500	0,5	4,895650
8,841833	0,5	4,954850
8,850167	0,5	4,975250
8,858500	0,5	4,944950
8,866833	0,5	4,882250
8,875167	0,5	4,832450
8,883500	0,5	4,826000
8,891833	0,5	4,856300
8,900167	0,5	4,886350
8,908500	0,5	4,872800
8,916833	0,5	4,823650
8,925167	0,5	4,769650
8,933500	0,5	4,739150
8,941833	0,5	4,733450
8,950167	0,5	4,739350
8,958500	0,5	4,737250
8,966833	0,5	4,726000
8,975167	0,5	4,716900
8,983500	0,5	4,708650
8,991833	0,5	4,718200
9,000167	0,5	4,738950
9,008500	0,5	4,773350
9,016833	0,5	4,836650
9,025167	0,5	4,922600
9,033500	0,5	5,046150
9,041833	0,5	5,194750
9,050167	0,5	5,329900
9,058500	0,5	5,412700
9,066833	0,5	5,434500
9,075167	0,5	5,426900
9,083500	0,5	5,408900
9,091833	0,5	5,367550
9,100167	0,5	5,303300
9,108500	0,5	5,232100
9,116833	0,5	5,161350
9,125167	0,5	5,097400
9,133500	0,5	5,035500
9,141833	0,5	4,990300
9,150167	0,5	4,979900
9,158500	0,5	5,052300
9,166833	0,5	5,280450
9,175167	0,5	5,746850
9,183500	0,5	6,285000
9,191833	0,5	6,530550
9,200167	0,5	6,337250
9,208500	0,5	5,921400
9,216833	0,5	5,591900
9,225167	0,5	5,404550
9,233500	0,5	5,373050
9,241833	0,5	5,450150
9,250167	0,5	5,629550
9,258500	0,5	5,881700
9,266833	0,5	6,193250
9,275167	0,5	6,525850
9,283500	0,5	6,835450
9,291833	0,5	7,092950
9,300167	0,5	7,274950
9,308500	0,5	7,357050
9,316833	0,5	7,336300
9,325167	0,5	7,220000
9,333500	0,5	7,039000
9,341833	0,5	6,810950
9,350167	0,5	6,573650
9,358500	0,5	6,358400
9,366833	0,5	6,189100
9,375167	0,5	6,089750
9,383500	0,5	6,063300
9,391833	0,5	6,095450
9,400167	0,5	6,146750
9,408500	0,5	6,176600
9,416833	0,5	6,154200
9,425167	0,5	6,062150
9,433500	0,5	5,910900
9,441833	0,5	5,727500
9,450167	0,5	5,539300
9,458500	0,5	5,373000
9,466833	0,5	5,234450
9,475167	0,5	5,130300
9,483500	0,5	5,055600
9,491833	0,5	5,006800
9,500167	0,5	4,979150
9,508500	0,5	4,970400
9,516833	0,5	4,981900
9,525167	0,5	5,007700
9,533500	0,5	5,039150
9,541833	0,5	5,054550
9,550167	0,5	5,044400
9,558500	0,5	5,006950
9,566833	0,5	4,949950
9,575167	0,5	4,882000
9,583500	0,5	4,815450
9,591833	0,5	4,756050
9,600167	0,5	4,706400
9,608500	0,5	4,660550
9,616833	0,5	4,622500
9,625167	0,5	4,591500
9,633500	0,5	4,566850
9,641833	0,5	4,547900
9,650167	0,5	4,539050
9,658500	0,5	4,533100
9,666833	0,5	4,537650
9,675167	0,5	4,550000
9,683500	0,5	4,568550
9,691833	0,5	4,592100
9,700167	0,5	4,619250
9,708500	0,5	4,648500
9,716833	0,5	4,684750
9,725167	0,5	4,715150
9,733500	0,5	4,748900
9,741833	0,5	4,780350
9,750167	0,5	4,797350
9,758500	0,5	4,807900
9,766833	0,5	4,802850
9,775167	0,5	4,791950
9,783500	0,5	4,792300
9,791833	0,5	4,805800
9,800167	0,5	4,852650
9,808500	0,5	4,938500
9,816833	0,5	5,060700
9,825167	0,5	5,230600
9,833500	0,5	5,434050
9,841833	0,5	5,662250
9,850167	0,5	5,895250
9,858500	0,5	6,118450
9,866833	0,5	6,327100
9,875167	0,5	6,508550
9,883500	0,5	6,674050
9,891833	0,5	6,837950
9,900167	0,5	6,995450
9,908500	0,5	7,149200
9,916833	0,5	7,295550
9,925167	0,5	7,430150
9,933500	0,5	7,552700
9,941833	0,5	7,667750
9,950167	0,5	7,772500
9,958500	0,5	7,868550
9,966833	0,5	7,948700
9,975167	0,5	8,006850
9,983500	0,5	8,032200
9,991833	0,5	8,003900
10,000167	0,5	7,902950
10,008500	0,5	7,721050
10,016833	0,5	7,444800
10,025167	0,5	7,088950
10,033500	0,5	6,685050
10,041833	0,5	6,271750
10,050167	0,5	5,889100
10,058500	0,5	5,570400
10,066833	0,5	5,317950
10,075167	0,5	5,129800
10,083500	0,5	4,995550
10,091833	0,5	4,898300
10,100167	0,5	4,831000
10,108500	0,5	4,785100
10,116833	0,5	4,760200
10,125167	0,5	4,766600
10,133500	0,5	4,787200
10,141833	0,5	4,826000
10,150167	0,5	4,861150
10,158500	0,5	4,889600
10,166833	0,5	4,891300
10,175167	0,5	4,874350
10,183500	0,5	4,830450
10,191833	0,5	4,781750
10,200167	0,5	4,734200
10,208500	0,5	4,686300
10,216833	0,5	4,642050
10,225167	0,5	4,606250
10,233500	0,5	4,565100
10,241833	0,5	4,531650
10,250167	0,5	4,500600
10,258500	0,5	4,467150
10,266833	0,5	4,437650
10,275167	0,5	4,417900
10,283500	0,5	4,407050
10,291833	0,5	4,395250
10,300167	0,5	4,396550
10,308500	0,5	4,404600
10,316833	0,5	4,411400
10,325167	0,5	4,421200
10,333500	0,5	4,435300
10,341833	0,5	4,451100
10,350167	0,5	4,475950
10,358500	0,5	4,504950
10,366833	0,5	4,540450
10,375167	0,5	4,579800
10,383500	0,5	4,621700
10,391833	0,5	4,669750
10,400167	0,5	4,719300
10,408500	0,5	4,766050
10,416833	0,5	4,807700
10,425167	0,5	4,833900
10,433500	0,5	4,833800
10,441833	0,5	4,804250
10,450167	0,5	4,759200
10,458500	0,5	4,694700
10,466833	0,5	4,620400
10,475167	0,5	4,554350
10,483500	0,5	4,487950
10,491833	0,5	4,435350
10,500167	0,5	4,384700
10,508500	0,5	4,346050
10,516833	0,5	4,304750
10,525167	0,5	4,271750
10,533500	0,5	4,255050
10,541833	0,5	4,247650
10,550167	0,5	4,251650
10,558500	0,5	4,263250
10,566833	0,5	4,282050
10,575167	0,5	4,306450
10,583500	0,5	4,325550
10,591833	0,5	4,345000
10,600167	0,5	4,376750
10,608500	0,5	4,414700
10,616833	0,5	4,455450
10,625167	0,5	4,507500
10,633500	0,5	4,556700
10,641833	0,5	4,599200
10,650167	0,5	4,615700
10,658500	0,5	4,597550
10,666833	0,5	4,548800
10,675167	0,5	4,478800
10,683500	0,5	4,400550
10,691833	0,5	4,324800
10,700167	0,5	4,258050
10,708500	0,5	4,195200
10,716833	0,5	4,145550
10,725167	0,5	4,095100
10,733500	0,5	4,056550
10,741833	0,5	4,017800
10,750167	0,5	3,998450
10,758500	0,5	3,983100
10,766833	0,5	3,983300
10,775167	0,5	3,997250
10,783500	0,5	4,017850
10,791833	0,5	4,052050
10,800167	0,5	4,097050
10,808500	0,5	4,150600
10,816833	0,5	4,220950
10,825167	0,5	4,294000
10,833500	0,5	4,364650
10,841833	0,5	4,408450
10,850167	0,5	4,407200
10,858500	0,5	4,360300
10,866833	0,5	4,281550
10,875167	0,5	4,193550
10,883500	0,5	4,094700
10,891833	0,5	4,008250
10,900167	0,5	3,938900
10,908500	0,5	3,875300
10,916833	0,5	3,821500
10,925167	0,5	3,773200
10,933500	0,5	3,738700
10,941833	0,5	3,719300
10,950167	0,5	3,710300
10,958500	0,5	3,715150
10,966833	0,5	3,715900
10,975167	0,5	3,792800
10,983500	0,5	3,863750
10,991833	0,5	3,955600
11,000167	0,5	4,051850
11,008500	0,5	4,137250
11,016833	0,5	4,192600
11,025167	0,5	4,188300
11,033500	0,5	4,124900
11,041833	0,5	4,036500
11,050167	0,5	3,931300
11,058500	0,5	3,827350
11,066833	0,5	3,740000
11,075167	0,5	3,660550
11,083500	0,5	3,610550
11,091833	0,5	3,568000
11,100167	0,5	3,539950
11,108500	0,5	3,523000
11,116833	0,5	3,526700
11,125167	0,5	3,548150
11,133500	0,5	3,600000
11,141833	0,5	3,669400
11,150167	0,5	3,761600
11,158500	0,5	3,847250
11,166833	0,5	3,914550
11,175167	0,5	3,931500
11,183500	0,5	3,889900
11,191833	0,5	3,806550
11,200167	0,5	3,684750
11,208500	0,5	3,560750
11,216833	0,5	3,430800
11,225167	0,5	3,311050
11,233500	0,5	3,196500
11,241833	0,5	3,089350
11,250167	0,5	2,984550
11,258500	0,5	2,894450
11,266833	0,5	2,824300
11,275167	0,5	2,790100
11,283500	0,5	2,786450
11,291833	0,5	2,816450
11,300167	0,5	2,868400
11,308500	0,5	2,932400
11,316833	0,5	2,984150
11,325167	0,5	3,021650
11,333500	0,5	3,038800
11,341833	0,5	3,045550
11,350167	0,5	3,041900
11,358500	0,5	3,033800
11,366833	0,5	3,031250
11,375167	0,5	3,021350
11,383500	0,5	3,024450
11,391833	0,5	3,027700
11,400167	0,5	3,036200
11,408500	0,5	3,054800
11,416833	0,5	3,080800
11,425167	0,5	3,106850
11,433500	0,5	3,128350
11,441833	0,5	3,139400
11,450167	0,5	3,128750
11,458500	0,5	3,104400
11,466833	0,5	3,071150
11,475167	0,5	3,025000
11,483500	0,5	2,989300
11,491833	0,5	2,963250
11,500167	0,5	2,941050
11,508500	0,5	2,924550
11,516833	0,5	2,917000
11,525167	0,5	2,921400
11,533500	0,5	2,934450
11,541833	0,5	2,948850
11,550167	0,5	2,962250
11,558500	0,5	2,972100
11,566833	0,5	2,978550
11,575167	0,5	2,979400
11,583500	0,5	2,977150
11,591833	0,5	2,968900
11,600167	0,5	2,963400
11,608500	0,5	2,963600
11,616833	0,5	2,962750
11,625167	0,5	2,963850
11,633500	0,5	2,981800
11,641833	0,5	3,003650
11,650167	0,5	3,021100
11,658500	0,5	3,049200
11,666833	0,5	3,067600
11,675167	0,5	3,095500
11,683500	0,5	3,117450
11,691833	0,5	3,131950
11,700167	0,5	3,143050
11,708500	0,5	3,151200
11,716833	0,5	3,157700
11,725167	0,5	3,160100
11,733500	0,5	3,166750
11,741833	0,5	3,171700
11,750167	0,5	3,177650
11,758500	0,5	3,183150
11,766833	0,5	3,188500
11,775167	0,5	3,197550
11,783500	0,5	3,219150
11,791833	0,5	3,226900
11,800167	0,5	3,238700
11,808500	0,5	3,247850
11,816833	0,5	3,257150
11,825167	0,5	3,263050
11,833500	0,5	3,274300
11,841833	0,5	3,282550
11,850167	0,5	3,302700
11,858500	0,5	3,325550
11,866833	0,5	3,376950
11,875167	0,5	3,453150
11,883500	0,5	3,562250
11,891833	0,5	3,710950
11,900167	0,5	3,891500
11,908500	0,5	4,102350
11,916833	0,5	4,292150
11,925167	0,5	4,461050
11,933500	0,5	4,567600
11,941833	0,5	4,590900
11,950167	0,5	4,534350
11,958500	0,5	4,411650
11,966833	0,5	4,251300
11,975167	0,5	4,075450
11,983500	0,5	3,901100
11,991833	0,5	3,740400
12,000167	0,5	3,611100
12,008500	0,5	3,513650
12,016833	0,5	3,445500
12,025167	0,5	3,410450
12,033500	0,5	3,392800
12,041833	0,5	3,397700
12,050167	0,5	3,415900
12,058500	0,5	3,446200
12,066833	0,5	3,477950
12,075167	0,5	3,528250
12,083500	0,5	3,575700
12,091833	0,5	3,610700
12,100167	0,5	3,633700
12,108500	0,5	3,642850
12,116833	0,5	3,647950
12,125167	0,5	3,637650
12,133500	0,5	3,624100
12,141833	0,5	3,606200
12,150167	0,5	3,599450
12,158500	0,5	3,596250
12,166833	0,5	3,607000
12,175167	0,5	3,625900
12,183500	0,5	3,662500
12,191833	0,5	3,710450
12,200167	0,5	3,775550
12,208500	0,5	3,842150
12,216833	0,5	3,906650
12,225167	0,5	3,967650
12,233500	0,5	3,995700
12,241833	0,5	3,993000
12,250167	0,5	3,954300
12,258500	0,5	3,892000
12,266833	0,5	3,817350
12,275167	0,5	3,739850
12,283500	0,5	3,662150
12,291833	0,5	3,604100
12,300167	0,5	3,562450
12,308500	0,5	3,540100
12,316833	0,5	3,525450
12,325167	0,5	3,516200
12,333500	0,5	3,504700
12,341833	0,5	3,496600
12,350167	0,5	3,481300
12,358500	0,5	3,462950
12,366833	0,5	3,437200
12,375167	0,5	3,420750
12,383500	0,5	3,392600
12,391833	0,5	3,367250
12,400167	0,5	3,338000
12,408500	0,5	3,315150
12,416833	0,5	3,299150
12,425167	0,5	3,287750
12,433500	0,5	3,281400
12,441833	0,5	3,273450
12,450167	0,5	3,274000
12,458500	0,5	3,268900
12,466833	0,5	3,265650
12,475167	0,5	3,260200
12,483500	0,5	3,252900
12,491833	0,5	3,249850
12,500167	0,5	3,248400
12,508500	0,5	3,245300
12,516833	0,5	3,255000
12,525167	0,5	3,265200
12,533500	0,5	3,271650
12,541833	0,5	3,278650
12,550167	0,5	3,279200
12,558500	0,5	3,292600
12,566833	0,5	3,316300
12,575167	0,5	3,347800
12,583500	0,5	3,390100
12,591833	0,5	3,441350
12,600167	0,5	3,497450
12,608500	0,5	3,558150
12,616833	0,5	3,623150
12,625167	0,5	3,689000
12,633500	0,5	3,750550
12,641833	0,5	3,820300
12,650167	0,5	3,887700
12,658500	0,5	3,953100
12,666833	0,5	4,027450
12,675167	0,5	4,101100
12,683500	0,5	4,169950
12,691833	0,5	4,244400
12,700167	0,5	4,299800
12,708500	0,5	4,358400
12,716833	0,5	4,395950
12,725167	0,5	4,425300
12,733500	0,5	4,427450
12,741833	0,5	4,408700
12,750167	0,5	4,362050
12,758500	0,5	4,309550
12,766833	0,5	4,261350
12,775167	0,5	4,210500
12,783500	0,5	4,160750
12,791833	0,5	4,092700
12,800167	0,5	3,996700
12,808500	0,5	3,889500
12,816833	0,5	3,780800
12,825167	0,5	3,675300
12,833500	0,5	3,598000
12,841833	0,5	3,555250
12,850167	0,5	3,569500
12,858500	0,5	3,620600
12,866833	0,5	3,696400
12,875167	0,5	3,765900
12,883500	0,5	3,814450
12,891833	0,5	3,806000
12,900167	0,5	3,755750
12,908500	0,5	3,675350
12,916833	0,5	3,621800
12,925167	0,5	3,657700
12,933500	0,5	3,737400
12,941833	0,5	3,737450
12,950167	0,5	3,719550
12,958500	0,5	3,608000
12,966833	0,5	3,313450
12,975167	0,5	3,021100
12,983500	0,5	2,695700
12,991833	0,5	2,313150
13,000167	0,5	2,014700
13,008500	0,5	1,800200
13,016833	0,5	1,622650
13,025167	0,5	1,481850
13,033500	0,5	1,369450
13,041833	0,5	1,278900
13,050167	0,5	1,196850
13,058500	0,5	1,132600
13,066833	0,5	1,073500
13,075167	0,5	1,030550
13,083500	0,5	0,995350
13,091833	0,5	0,976900
13,100167	0,5	0,944400
13,108500	0,5	0,937600
13,116833	0,5	0,928600
13,125167	0,5	0,918100
13,133500	0,5	0,903600
13,141833	0,5	0,884700
13,150167	0,5	0,877750
13,158500	0,5	0,870300
13,166833	0,5	0,860050
13,175167	0,5	0,854200
13,183500	0,5	0,847250
13,191833	0,5	0,840700
13,200167	0,5	0,838300
13,208500	0,5	0,832200
13,216833	0,5	0,826250
13,225167	0,5	0,821250
13,233500	0,5	0,815500
13,241833	0,5	0,800600
13,250167	0,5	0,786450
13,258500	0,5	0,778600
13,266833	0,5	0,760900
13,275167	0,5	0,746550
13,283500	0,5	0,728650
13,291833	0,5	0,709600
13,300167	0,5	0,706400
13,308500	0,5	0,700150
13,316833	0,5	0,696600
13,325167	0,5	0,690700
13,333500	0,5	0,687300
13,341833	0,5	0,681550
13,350167	0,5	0,676400
13,358500	0,5	0,676250
13,366833	0,5	0,670950
13,375167	0,5	0,668900
13,383500	0,5	0,661500
13,391833	0,5	0,651500
13,400167	0,5	0,645100
13,408500	0,5	0,646500
13,416833	0,5	0,637250
13,425167	0,5	0,632050
13,433500	0,5	0,623700
13,441833	0,5	0,624600
13,450167	0,5	0,633350
13,458500	0,5	0,646200
13,466833	0,5	0,662500
13,475167	0,5	0,688050
13,483500	0,5	0,721100
13,491833	0,5	0,764700
13,500167	0,5	0,825500
13,508500	0,5	0,886400
13,516833	0,5	0,968250
13,525167	0,5	1,057700
13,533500	0,5	1,152150
13,541833	0,5	1,245450
13,550167	0,5	1,344800
13,558500	0,5	1,436900
13,566833	0,5	1,515150
13,575167	0,5	1,578250
13,583500	0,5	1,629350
13,591833	0,5	1,669150
13,600167	0,5	1,701900
13,608500	0,5	1,718000
13,616833	0,5	1,725500
13,625167	0,5	1,721800
13,633500	0,5	1,720200
13,641833	0,5	1,712200
13,650167	0,5	1,705600
13,658500	0,5	1,690600
13,666833	0,5	1,678600
13,675167	0,5	1,675400
13,683500	0,5	1,664250
13,691833	0,5	1,654150
13,700167	0,5	1,653950
13,708500	0,5	1,652950
13,716833	0,5	1,647450
13,725167	0,5	1,638850
13,733500	0,5	1,631750
13,741833	0,5	1,638700
13,750167	0,5	1,635650
13,758500	0,5	1,643250
13,766833	0,5	1,640300
13,775167	0,5	1,645900
13,783500	0,5	1,643700
13,791833	0,5	1,647350
13,800167	0,5	1,648850
13,808500	0,5	1,649800
13,816833	0,5	1,652000
13,825167	0,5	1,659850
13,833500	0,5	1,646650
13,841833	0,5	1,651200
13,850167	0,5	1,651800
13,858500	0,5	1,655300
13,866833	0,5	1,647950
13,875167	0,5	1,640600
13,883500	0,5	1,643800
13,891833	0,5	1,651850
13,900167	0,5	1,661700
13,908500	0,5	1,667350
13,916833	0,5	1,671200
13,925167	0,5	1,673950
13,933500	0,5	1,676650
13,941833	0,5	1,677150
13,950167	0,5	1,684550
13,958500	0,5	1,684450
13,966833	0,5	1,697450
13,975167	0,5	1,705900
13,983500	0,5	1,705500
13,991833	0,5	1,719450
14,000167	0,5	1,727600
14,008500	0,5	1,730700
14,016833	0,5	1,731200
14,025167	0,5	1,723850
14,033500	0,5	1,725050
14,041833	0,5	1,728550
14,050167	0,5	1,727600
14,058500	0,5	1,723600
14,066833	0,5	1,729400
14,075167	0,5	1,733650
14,083500	0,5	1,735750
14,091833	0,5	1,744100
14,100167	0,5	1,740850
14,108500	0,5	1,738700
14,116833	0,5	1,739450
14,125167	0,5	1,737950
14,133500	0,5	1,723100
14,141833	0,5	1,733800
14,150167	0,5	1,726950
14,158500	0,5	1,724200
14,166833	0,5	1,717050
14,175167	0,5	1,706400
14,183500	0,5	1,712650
14,191833	0,5	1,715200
14,200167	0,5	1,716150
14,208500	0,5	1,719550
14,216833	0,5	1,722900
14,225167	0,5	1,722500
14,233500	0,5	1,728600
14,241833	0,5	1,730250
14,250167	0,5	1,731600
14,258500	0,5	1,736400
14,266833	0,5	1,744800
14,275167	0,5	1,741100
14,283500	0,5	1,741600
14,291833	0,5	1,751400
14,300167	0,5	1,753150
14,308500	0,5	1,748950
14,316833	0,5	1,748950
14,325167	0,5	1,745200
14,333500	0,5	1,755300
14,341833	0,5	1,760150
14,350167	0,5	1,767150
14,358500	0,5	1,770250
14,366833	0,5	1,777250
14,375167	0,5	1,784700
14,383500	0,5	1,791700
14,391833	0,5	1,800150
14,400167	0,5	1,804800
14,408500	0,5	1,818000
14,416833	0,5	1,823350
14,425167	0,5	1,823800
14,433500	0,5	1,836250
14,441833	0,5	1,850500
14,450167	0,5	1,858000
14,458500	0,5	1,866450
14,466833	0,5	1,867050
14,475167	0,5	1,880550
14,483500	0,5	1,897600
14,491833	0,5	1,921150
14,500167	0,5	1,945900
14,508500	0,5	1,978000
14,516833	0,5	2,012600
14,525167	0,5	2,052850
14,533500	0,5	2,089350
14,541833	0,5	2,124750
14,550167	0,5	2,156450
14,558500	0,5	2,186150
14,566833	0,5	2,200000
14,575167	0,5	2,205250
14,583500	0,5	2,219950
14,591833	0,5	2,226850
14,600167	0,5	2,232950
14,608500	0,5	2,229300
14,616833	0,5	2,232850
14,625167	0,5	2,251250
14,633500	0,5	2,279050
14,641833	0,5	2,311750
14,650167	0,5	2,354050
14,658500	0,5	2,387800
14,666833	0,5	2,435400
14,675167	0,5	2,484100
14,683500	0,5	2,544200
14,691833	0,5	2,605500
14,700167	0,5	2,670350
14,708500	0,5	2,727550
14,716833	0,5	2,766750
14,725167	0,5	2,791450
14,733500	0,5	2,821600
14,741833	0,5	2,843650
14,750167	0,5	2,862300
14,758500	0,5	2,886750
14,766833	0,5	2,932650
14,775167	0,5	3,011450
14,783500	0,5	3,088300
14,791833	0,5	3,163500
14,800167	0,5	3,217850
14,808500	0,5	3,251650
14,816833	0,5	3,240600
14,825167	0,5	3,208900
14,833500	0,5	3,150150
14,841833	0,5	3,089200
14,850167	0,5	3,025650
14,858500	0,5	2,983650
14,866833	0,5	2,923300
14,875167	0,5	2,910450
14,883500	0,5	2,898050
14,891833	0,5	2,896250
14,900167	0,5	2,892000
14,908500	0,5	2,880700
14,916833	0,5	2,875800
14,925167	0,5	2,849700
14,933500	0,5	2,815550
14,941833	0,5	2,770800
14,950167	0,5	2,735350
14,958500	0,5	2,700500
14,966833	0,5	2,681000
14,975167	0,5	2,660800
14,983500	0,5	2,649200
14,991833	0,5	2,638950
15,000167	0,5	2,634450
15,008500	0,5	2,627400
15,016833	0,5	2,611850
15,025167	0,5	2,618850
15,033500	0,5	2,610200
15,041833	0,5	2,601250
15,050167	0,5	2,589200
15,058500	0,5	2,562800
15,066833	0,5	2,561000
15,075167	0,5	2,551300
15,083500	0,5	2,545350
15,091833	0,5	2,536550
15,100167	0,5	2,528250
15,108500	0,5	2,521500
15,116833	0,5	2,509100
15,125167	0,5	2,506550
15,133500	0,5	2,495500
15,141833	0,5	2,485350
15,150167	0,5	2,471350
15,158500	0,5	2,464950
15,166833	0,5	2,446400
15,175167	0,5	2,451000
15,183500	0,5	2,436300
15,191833	0,5	2,421750
15,200167	0,5	2,399600
15,208500	0,5	2,383450
15,216833	0,5	2,377350
15,225167	0,5	2,375900
15,233500	0,5	2,368450
15,241833	0,5	2,362550
15,250167	0,5	2,359400
15,258500	0,5	2,350950
15,266833	0,5	2,349350
15,275167	0,5	2,344900
15,283500	0,5	2,336050
15,291833	0,5	2,331200
15,300167	0,5	2,332700
15,308500	0,5	2,318350
15,316833	0,5	2,318750
15,325167	0,5	2,316600
15,333500	0,5	2,313450
15,341833	0,5	2,301250
15,350167	0,5	2,289400
15,358500	0,5	2,278200
15,366833	0,5	2,286800
15,375167	0,5	2,281250
15,383500	0,5	2,285200
15,391833	0,5	2,279700
15,400167	0,5	2,285950
15,408500	0,5	2,283200
15,416833	0,5	2,280750
15,425167	0,5	2,272500
15,433500	0,5	2,262950
15,441833	0,5	2,266400
15,450167	0,5	2,256950
15,458500	0,5	2,248650
15,466833	0,5	2,249550
15,475167	0,5	2,247500
15,483500	0,5	2,230650
15,491833	0,5	2,206300
15,500167	0,5	2,179600
15,508500	0,5	2,167900
15,516833	0,5	2,152000
15,525167	0,5	2,150250
15,533500	0,5	2,136000
15,541833	0,5	2,134400
15,550167	0,5	2,126350
15,558500	0,5	2,129200
15,566833	0,5	2,125750
15,575167	0,5	2,131300
15,583500	0,5	2,132650
15,591833	0,5	2,143600
15,600167	0,5	2,130750
15,608500	0,5	2,125400
15,616833	0,5	2,122750
15,625167	0,5	2,106500
15,633500	0,5	2,090300
15,641833	0,5	2,061900
15,650167	0,5	2,052550
15,658500	0,5	2,043600
15,666833	0,5	2,043650
15,675167	0,5	2,033900
15,683500	0,5	2,031950
15,691833	0,5	2,026750
15,700167	0,5	2,024450
15,708500	0,5	2,019050
15,716833	0,5	2,020750
15,725167	0,5	2,012800
15,733500	0,5	2,013450
15,741833	0,5	2,013200
15,750167	0,5	1,997150
15,758500	0,5	1,999900
15,766833	0,5	2,006550
15,775167	0,5	1,999750
15,783500	0,5	1,992600
15,791833	0,5	1,973350
15,800167	0,5	1,969850
15,808500	0,5	1,975200
15,816833	0,5	1,970800
15,825167	0,5	1,962250
15,833500	0,5	1,952500
15,841833	0,5	1,947450
15,850167	0,5	1,940450
15,858500	0,5	1,940550
15,866833	0,5	1,927700
15,875167	0,5	1,927750
15,883500	0,5	1,927500
15,891833	0,5	1,929300
15,900167	0,5	1,909400
15,908500	0,5	1,922400
15,916833	0,5	1,911050
15,925167	0,5	1,898950
15,933500	0,5	1,880550
15,941833	0,5	1,851900
15,950167	0,5	1,848100
15,958500	0,5	1,839700
15,966833	0,5	1,834700
15,975167	0,5	1,829650
15,983500	0,5	1,826700
15,991833	0,5	1,825000
16,000167	0,5	1,824050
16,008500	0,5	1,817100
16,016833	0,5	1,812550
16,025167	0,5	1,804800
16,033500	0,5	1,809300
16,041833	0,5	1,796700
16,050167	0,5	1,778750
16,058500	0,5	1,779700
16,066833	0,5	1,767100
16,075167	0,5	1,749200
16,083500	0,5	1,739200
16,091833	0,5	1,721950
16,100167	0,5	1,724400
16,108500	0,5	1,720700
16,116833	0,5	1,715450
16,125167	0,5	1,707650
16,133500	0,5	1,703550
16,141833	0,5	1,694350
16,150167	0,5	1,686950
16,158500	0,5	1,682750
16,166833	0,5	1,672000
16,175167	0,5	1,673250
16,183500	0,5	1,665950
16,191833	0,5	1,655800
16,200167	0,5	1,648050
16,208500	0,5	1,652500
16,216833	0,5	1,642550
16,225167	0,5	1,630050
16,233500	0,5	1,608400
16,241833	0,5	1,596050
16,250167	0,5	1,587600
16,258500	0,5	1,592200
16,266833	0,5	1,582700
16,275167	0,5	1,578600
16,283500	0,5	1,567200
16,291833	0,5	1,560600
16,300167	0,5	1,556550
16,308500	0,5	1,546150
16,316833	0,5	1,536900
16,325167	0,5	1,535700
16,333500	0,5	1,529250
16,341833	0,5	1,516700
16,350167	0,5	1,518600
16,358500	0,5	1,522000
16,366833	0,5	1,509800
16,375167	0,5	1,494750
16,383500	0,5	1,487050
16,391833	0,5	1,480400
16,400167	0,5	1,484200
16,408500	0,5	1,480050
16,416833	0,5	1,485850
16,425167	0,5	1,476250
16,433500	0,5	1,473750
16,441833	0,5	1,467850
16,450167	0,5	1,461900
16,458500	0,5	1,456200
16,466833	0,5	1,445900
16,475167	0,5	1,448000
16,483500	0,5	1,433200
16,491833	0,5	1,418250
16,500167	0,5	1,417900
16,508500	0,5	1,409900
16,516833	0,5	1,394850
16,525167	0,5	1,378900
16,533500	0,5	1,362350
16,541833	0,5	1,362050
16,550167	0,5	1,354150
16,558500	0,5	1,356850
16,566833	0,5	1,348950
16,575167	0,5	1,350150
16,583500	0,5	1,340050
16,591833	0,5	1,336900
16,600167	0,5	1,330900
16,608500	0,5	1,324550
16,616833	0,5	1,323150
16,625167	0,5	1,323550
16,633500	0,5	1,295800
16,641833	0,5	1,305550
16,650167	0,5	1,303350
16,658500	0,5	1,298300
16,666833	0,5	1,292350
16,675167	0,5	1,268650
16,683500	0,5	1,268300
16,691833	0,5	1,260600
16,700167	0,5	1,264550
16,708500	0,5	1,254250
16,716833	0,5	1,254800
16,725167	0,5	1,242200
16,733500	0,5	1,241050
16,741833	0,5	1,235150
16,750167	0,5	1,232200
16,758500	0,5	1,225850
16,766833	0,5	1,223700
16,775167	0,5	1,220500
16,783500	0,5	1,200700
16,791833	0,5	1,205500
16,800167	0,5	1,202350
16,808500	0,5	1,189350
16,816833	0,5	1,180950
16,825167	0,5	1,156300
16,833500	0,5	1,152000
16,841833	0,5	1,153600
16,850167	0,5	1,142350
16,858500	0,5	1,141550
16,866833	0,5	1,134150
16,875167	0,5	1,137150
16,883500	0,5	1,129300
16,891833	0,5	1,129300
16,900167	0,5	1,118800
16,908500	0,5	1,115500
16,916833	0,5	1,116000
16,925167	0,5	1,116600
16,933500	0,5	1,101300
16,941833	0,5	1,111650
16,950167	0,5	1,107550
16,958500	0,5	1,103850
16,966833	0,5	1,086850
16,975167	0,5	1,072050
16,983500	0,5	1,082500
16,991833	0,5	1,077800
17,000167	0,5	1,073950
17,008500	0,5	1,069850
17,016833	0,5	1,067000
17,025167	0,5	1,058050
17,033500	0,5	1,058950
17,041833	0,5	1,055350
17,050167	0,5	1,056350
17,058500	0,5	1,052350
17,066833	0,5	1,060050
17,075167	0,5	1,041200
17,083500	0,5	1,036800
17,091833	0,5	1,035950
17,100167	0,5	1,026500
17,108500	0,5	1,005800
17,116833	0,5	0,989300
17,125167	0,5	0,977900
17,133500	0,5	0,978050
17,141833	0,5	0,972350
17,150167	0,5	0,968850
17,158500	0,5	0,964200
17,166833	0,5	0,962700
17,175167	0,5	0,958600
17,183500	0,5	0,955350
17,191833	0,5	0,951200
17,200167	0,5	0,942800
17,208500	0,5	0,947500
17,216833	0,5	0,942300
17,225167	0,5	0,930450
17,233500	0,5	0,932150
17,241833	0,5	0,938250
17,250167	0,5	0,932300
17,258500	0,5	0,923300
17,266833	0,5	0,909350
17,275167	0,5	0,911600
17,283500	0,5	0,919750
17,291833	0,5	0,930650
17,300167	0,5	0,933150
17,308500	0,5	0,939050
17,316833	0,5	0,933150
17,325167	0,5	0,924400
17,333500	0,5	0,921400
17,341833	0,5	0,906050
17,350167	0,5	0,901000
17,358500	0,5	0,899700
17,366833	0,5	0,889000
17,375167	0,5	0,883550
17,383500	0,5	0,897000
17,391833	0,5	0,893000
17,400167	0,5	0,892300
17,408500	0,5	0,872900
17,416833	0,5	0,870300
17,425167	0,5	0,873200
17,433500	0,5	0,880700
17,441833	0,5	0,873950
17,450167	0,5	0,875550
17,458500	0,5	0,875300
17,466833	0,5	0,877100
17,475167	0,5	0,873300
17,483500	0,5	0,879100
17,491833	0,5	0,879500
17,500167	0,5	0,883650
17,508500	0,5	0,891050
17,516833	0,5	0,880550
17,525167	0,5	0,893250
17,533500	0,5	0,904650
17,541833	0,5	0,909250
17,550167	0,5	0,911550
17,558500	0,5	0,900450
17,566833	0,5	0,902850
17,575167	0,5	0,919800
17,583500	0,5	0,923250
17,591833	0,5	0,932850
17,600167	0,5	0,943150
17,608500	0,5	0,958750
17,616833	0,5	0,970250
17,625167	0,5	0,988900
17,633500	0,5	0,997300
17,641833	0,5	1,008750
17,650167	0,5	1,031350
17,658500	0,5	1,040900
17,666833	0,5	1,034150
17,675167	0,5	1,052750
17,683500	0,5	1,063100
17,691833	0,5	1,057600
17,700167	0,5	1,055250
17,708500	0,5	1,039500
17,716833	0,5	1,050950
17,725167	0,5	1,044200
17,733500	0,5	1,045550
17,741833	0,5	1,041500
17,750167	0,5	1,045750
17,758500	0,5	1,036000
17,766833	0,5	1,037600
17,775167	0,5	1,028900
17,783500	0,5	1,030250
17,791833	0,5	1,021700
17,800167	0,5	1,026450
17,808500	0,5	1,013400
17,816833	0,5	1,004050
17,825167	0,5	1,009850
17,833500	0,5	1,010750
17,841833	0,5	0,996000
17,850167	0,5	0,985950
17,858500	0,5	0,977450
17,866833	0,5	0,981800
17,875167	0,5	0,988900
17,883500	0,5	1,001350
17,891833	0,5	1,024600
17,900167	0,5	1,054400
17,908500	0,5	1,095200
17,916833	0,5	1,132200
17,925167	0,5	1,162400
17,933500	0,5	1,176950
17,941833	0,5	1,170300
17,950167	0,5	1,149900
17,958500	0,5	1,101150
17,966833	0,5	1,058450
17,975167	0,5	1,021100
17,983500	0,5	0,978950
17,991833	0,5	0,934200
18,000167	0,5	0,891500
18,008500	0,5	0,866400
18,016833	0,5	0,856700
18,025167	0,5	0,844800
18,033500	0,5	0,836050
18,041833	0,5	0,824650
18,050167	0,5	0,818550
18,058500	0,5	0,801550
18,066833	0,5	0,798900
18,075167	0,5	0,786400
18,083500	0,5	0,779900
18,091833	0,5	0,774450
18,100167	0,5	0,773200
18,108500	0,5	0,748700
18,116833	0,5	0,752200
18,125167	0,5	0,743000
18,133500	0,5	0,736750
18,141833	0,5	0,713500
18,150167	0,5	0,695850
18,158500	0,5	0,687450
18,166833	0,5	0,683750
18,175167	0,5	0,675600
18,183500	0,5	0,669700
18,191833	0,5	0,668300
18,200167	0,5	0,656500
18,208500	0,5	0,654350
18,216833	0,5	0,646700
18,225167	0,5	0,640800
18,233500	0,5	0,630750
18,241833	0,5	0,630350
18,250167	0,5	0,616550
18,258500	0,5	0,603400
18,266833	0,5	0,606450
18,275167	0,5	0,601400
18,283500	0,5	0,586850
18,291833	0,5	0,571950
18,300167	0,5	0,549950
18,308500	0,5	0,545600
18,316833	0,5	0,543900
18,325167	0,5	0,542000
18,333500	0,5	0,534300
18,341833	0,5	0,528500
18,350167	0,5	0,518100
18,358500	0,5	0,511950
18,366833	0,5	0,500500
18,375167	0,5	0,492550
18,383500	0,5	0,494700
18,391833	0,5	0,490200
18,400167	0,5	0,466800
18,408500	0,5	0,460300
18,416833	0,5	0,465100
18,425167	0,5	0,447050
18,433500	0,5	0,436150
18,441833	0,5	0,402150
18,450167	0,5	0,391650
18,458500	0,5	0,383850
18,466833	0,5	0,384350
18,475167	0,5	0,372850
18,483500	0,5	0,364600
18,491833	0,5	0,357250
18,500167	0,5	0,350850
18,508500	0,5	0,348050
18,516833	0,5	0,335850
18,525167	0,5	0,333850
18,533500	0,5	0,328850
18,541833	0,5	0,320800
18,550167	0,5	0,302500
18,558500	0,5	0,304500
18,566833	0,5	0,299300
18,575167	0,5	0,287450
18,583500	0,5	0,268950
18,591833	0,5	0,254200
18,600167	0,5	0,240650
18,608500	0,5	0,237400
18,616833	0,5	0,226600
18,625167	0,5	0,225150
18,633500	0,5	0,213600
18,641833	0,5	0,213050
18,650167	0,5	0,206600
18,658500	0,5	0,203300
18,666833	0,5	0,197750
18,675167	0,5	0,190550
18,683500	0,5	0,193350
18,691833	0,5	0,180100
18,700167	0,5	0,172750
18,708500	0,5	0,175300
18,716833	0,5	0,172750
18,725167	0,5	0,157350
18,733500	0,5	0,141200
18,741833	0,5	0,126950
18,750167	0,5	0,137600
18,758500	0,5	0,125300
18,766833	0,5	0,129150
18,775167	0,5	0,118100
18,783500	0,5	0,117000
18,791833	0,5	0,110600
18,800167	0,5	0,111750
18,808500	0,5	0,105300
18,816833	0,5	0,102850
18,825167	0,5	0,111000
18,833500	0,5	0,121450
18,841833	0,5	0,099000
18,850167	0,5	0,107300
18,858500	0,5	0,107950
18,866833	0,5	0,111450
18,875167	0,5	0,103300
18,883500	0,5	0,082800
18,891833	0,5	0,097050
18,900167	0,5	0,103250
18,908500	0,5	0,111200
18,916833	0,5	0,117700
18,925167	0,5	0,125800
18,933500	0,5	0,133250
18,941833	0,5	0,148900
18,950167	0,5	0,160550
18,958500	0,5	0,169600
18,966833	0,5	0,176950
18,975167	0,5	0,197700
18,983500	0,5	0,204300
18,991833	0,5	0,199800
19,000167	0,5	0,214850
19,008500	0,5	0,216500
19,016833	0,5	0,212650
19,025167	0,5	0,201850
19,033500	0,5	0,183050
19,041833	0,5	0,180350
19,050167	0,5	0,180500
19,058500	0,5	0,170700
19,066833	0,5	0,164900
19,075167	0,5	0,154850
19,083500	0,5	0,147100
19,091833	0,5	0,129650
19,100167	0,5	0,126200
19,108500	0,5	0,106250
19,116833	0,5	0,100000
19,125167	0,5	0,092550
19,133500	0,5	0,078750
19,141833	0,5	0,060700
19,150167	0,5	0,056800
19,158500	0,5	0,039500
19,166833	0,5	0,021150
19,175167	0,5	-0,004900
19,183500	0,5	-0,027200
19,191833	0,5	-0,032750
19,200167	0,5	-0,046950
19,208500	0,5	-0,057450
19,216833	0,5	-0,068650
19,225167	0,5	-0,074200
19,233500	0,5	-0,082850
19,241833	0,5	-0,086800
19,250167	0,5	-0,100950
19,258500	0,5	-0,106350
19,266833	0,5	-0,102600
19,275167	0,5	-0,101100
19,283500	0,5	-0,120500
19,291833	0,5	-0,119200
19,300167	0,5	-0,124950
19,308500	0,5	-0,133250
19,316833	0,5	-0,149450
19,325167	0,5	-0,168000
19,333500	0,5	-0,177850
19,341833	0,5	-0,183800
19,350167	0,5	-0,186100
19,358500	0,5	-0,191500
19,366833	0,5	-0,189750
19,375167	0,5	-0,189950
19,383500	0,5	-0,188850
19,391833	0,5	-0,187400
19,400167	0,5	-0,187950
19,408500	0,5	-0,189550
19,416833	0,5	-0,179150
19,425167	0,5	-0,191850
19,433500	0,5	-0,203900
19,441833	0,5	-0,215700
19,450167	0,5	-0,225800
19,458500	0,5	-0,248400
19,466833	0,5	-0,274050
19,475167	0,5	-0,301100
19,483500	0,5	-0,309250
19,491833	0,5	-0,322250
19,500167	0,5	-0,327600
19,508500	0,5	-0,334050
19,516833	0,5	-0,335900
19,525167	0,5	-0,344050
19,533500	0,5	-0,342950
19,541833	0,5	-0,349550
19,550167	0,5	-0,353450
19,558500	0,5	-0,348500
19,566833	0,5	-0,350500
19,575167	0,5	-0,369700
19,583500	0,5	-0,375100
19,591833	0,5	-0,374800
19,600167	0,5	-0,387150
19,608500	0,5	-0,396500
19,616833	0,5	-0,426700
19,625167	0,5	-0,431400
19,633500	0,5	-0,439700
19,641833	0,5	-0,441800
19,650167	0,5	-0,447300
19,658500	0,5	-0,452800
19,666833	0,5	-0,457650
19,675167	0,5	-0,459650
19,683500	0,5	-0,466550
19,691833	0,5	-0,471900
19,700167	0,5	-0,479450
19,708500	0,5	-0,472950
19,716833	0,5	-0,473750
19,725167	0,5	-0,498200
19,733500	0,5	-0,490900
19,741833	0,5	-0,495550
19,750167	0,5	-0,504600
19,758500	0,5	-0,519800
19,766833	0,5	-0,546300
19,775167	0,5	-0,548250
19,783500	0,5	-0,546750
19,791833	0,5	-0,558450
19,800167	0,5	-0,561950
19,808500	0,5	-0,568950
19,816833	0,5	-0,571550
19,825167	0,5	-0,576550
19,833500	0,5	-0,584650
19,841833	0,5	-0,586300
19,850167	0,5	-0,593050
19,858500	0,5	-0,579300
19,866833	0,5	-0,583050
19,875167	0,5	-0,604900
19,883500	0,5	-0,600000
19,891833	0,5	-0,605100
19,900167	0,5	-0,621950
19,908500	0,5	-0,631600
19,916833	0,5	-0,656700
19,925167	0,5	-0,648150
19,933500	0,5	-0,655900
19,941833	0,5	-0,660300
19,950167	0,5	-0,673400
19,958500	0,5	-0,669700
19,966833	0,5	-0,678650
19,975167	0,5	-0,678600
19,983500	0,5	-0,688350
19,991833	0,5	-0,690300
20,000167	0,5	-0,685200
20,008500	0,5	-0,677700
20,016833	0,5	-0,693250
20,025167	0,5	-0,691850
20,033500	0,5	-0,686900
20,041833	0,5	-0,694000
20,050167	0,5	-0,704700
20,058500	0,5	-0,727150
20,066833	0,5	-0,734850
20,075167	0,5	-0,740800
20,083500	0,5	-0,739100
20,091833	0,5	-0,744700
20,100167	0,5	-0,738150
20,108500	0,5	-0,746400
20,116833	0,5	-0,746050
20,125167	0,5	-0,749650
20,133500	0,5	-0,748250
20,141833	0,5	-0,745350
20,150167	0,5	-0,731600
20,158500	0,5	-0,730550
20,166833	0,5	-0,736650
20,175167	0,5	-0,735200
20,183500	0,5	-0,747050
20,191833	0,5	-0,760750
20,200167	0,5	-0,796050
20,208500	0,5	-0,819350
20,216833	0,5	-0,833950
20,225167	0,5	-0,829800
20,233500	0,5	-0,842150
20,241833	0,5	-0,839050
20,250167	0,5	-0,848500
20,258500	0,5	-0,846400
20,266833	0,5	-0,853000
20,275167	0,5	-0,846250
20,283500	0,5	-0,850600
20,291833	0,5	-0,848300
20,300167	0,5	-0,838600
20,308500	0,5	-0,846550
20,316833	0,5	-0,853100
20,325167	0,5	-0,847500
20,333500	0,5	-0,849750
20,341833	0,5	-0,856000
20,350167	0,5	-0,875700
20,358500	0,5	-0,888300
20,366833	0,5	-0,884500
20,375167	0,5	-0,890000
20,383500	0,5	-0,886200
20,391833	0,5	-0,889950
20,400167	0,5	-0,887600
20,408500	0,5	-0,892500
20,416833	0,5	-0,888950
20,425167	0,5	-0,893200
20,433500	0,5	-0,889650
20,441833	0,5	-0,877300
20,450167	0,5	-0,869350
20,458500	0,5	-0,882500
20,466833	0,5	-0,878750
20,475167	0,5	-0,876900
20,483500	0,5	-0,881850
20,491833	0,5	-0,893700
20,500167	0,5	-0,911750
20,508500	0,5	-0,907450
20,516833	0,5	-0,916300
20,525167	0,5	-0,911750
20,533500	0,5	-0,915950
20,541833	0,5	-0,912150
20,550167	0,5	-0,913250
20,558500	0,5	-0,906250
20,566833	0,5	-0,906550
20,575167	0,5	-0,902150
20,583500	0,5	-0,891150
20,591833	0,5	-0,868450
20,600167	0,5	-0,863400
20,608500	0,5	-0,868750
20,616833	0,5	-0,866250
20,625167	0,5	-0,857950
20,633500	0,5	-0,864050
20,641833	0,5	-0,877750
20,650167	0,5	-0,881800
20,658500	0,5	-0,881050
20,666833	0,5	-0,882200
20,675167	0,5	-0,885150
20,683500	0,5	-0,885700
20,691833	0,5	-0,892650
20,700167	0,5	-0,890800
20,708500	0,5	-0,895500
20,716833	0,5	-0,895350
20,725167	0,5	-0,903850
20,733500	0,5	-0,887500
20,741833	0,5	-0,878350
20,750167	0,5	-0,882650
20,758500	0,5	-0,891750
20,766833	0,5	-0,895700
20,775167	0,5	-0,903700
20,783500	0,5	-0,917400
20,791833	0,5	-0,942250
20,800167	0,5	-0,942950
20,808500	0,5	-0,940550
20,816833	0,5	-0,947500
20,825167	0,5	-0,948200
20,833500	0,5	-0,948650
20,841833	0,5	-0,951300
20,850167	0,5	-0,953800
20,858500	0,5	-0,948100
20,866833	0,5	-0,954900
20,875167	0,5	-0,951400
20,883500	0,5	-0,928150
20,891833	0,5	-0,916850
20,900167	0,5	-0,925750
20,908500	0,5	-0,926600
20,916833	0,5	-0,934700
20,925167	0,5	-0,938500
20,933500	0,5	-0,948950
20,941833	0,5	-0,967850
20,950167	0,5	-0,956700
20,958500	0,5	-0,952150
20,966833	0,5	-0,952950
20,975167	0,5	-0,951800
20,983500	0,5	-0,945050
20,991833	0,5	-0,945050
21,000167	0,5	-0,938600
21,008500	0,5	-0,938100
21,016833	0,5	-0,933850
21,025167	0,5	-0,923500
21,033500	0,5	-0,893000
21,041833	0,5	-0,882450
21,050167	0,5	-0,890400
21,058500	0,5	-0,889950
21,066833	0,5	-0,895300
21,075167	0,5	-0,909500
21,083500	0,5	-0,922000
21,091833	0,5	-0,927400
21,100167	0,5	-0,924400
21,108500	0,5	-0,923500
21,116833	0,5	-0,917850
21,125167	0,5	-0,914750
21,133500	0,5	-0,909600
21,141833	0,5	-0,904800
21,150167	0,5	-0,899500
21,158500	0,5	-0,892600
21,166833	0,5	-0,891600
21,175167	0,5	-0,860100
21,183500	0,5	-0,847750
21,191833	0,5	-0,845400
21,200167	0,5	-0,845250
21,208500	0,5	-0,847050
21,216833	0,5	-0,859650
21,225167	0,5	-0,871400
21,233500	0,5	-0,879350
21,241833	0,5	-0,879800
21,250167	0,5	-0,872950
21,258500	0,5	-0,863450
21,266833	0,5	-0,853800
21,275167	0,5	-0,850350
21,283500	0,5	-0,839750
21,291833	0,5	-0,835500
21,300167	0,5	-0,826150
21,308500	0,5	-0,823350
21,316833	0,5	-0,810900
21,325167	0,5	-0,778900
21,333500	0,5	-0,763850
21,341833	0,5	-0,763900
21,350167	0,5	-0,756900
21,358500	0,5	-0,758150
21,366833	0,5	-0,747150
21,375167	0,5	-0,763950
21,383500	0,5	-0,755750
21,391833	0,5	-0,750750
21,400167	0,5	-0,737850
21,408500	0,5	-0,729400
21,416833	0,5	-0,718750
21,425167	0,5	-0,708500
21,433500	0,5	-0,701500
21,441833	0,5	-0,689000
21,450167	0,5	-0,687850
21,458500	0,5	-0,673850
21,466833	0,5	-0,649300
21,475167	0,5	-0,621500
21,483500	0,5	-0,615450
21,491833	0,5	-0,610450
21,500167	0,5	-0,603500
21,508500	0,5	-0,603100
21,516833	0,5	-0,603950
21,525167	0,5	-0,611550
21,533500	0,5	-0,596300
21,541833	0,5	-0,584600
21,550167	0,5	-0,570050
21,558500	0,5	-0,557700
21,566833	0,5	-0,544900
21,575167	0,5	-0,527400
21,583500	0,5	-0,512150
21,591833	0,5	-0,488750
21,600167	0,5	-0,463250
21,608500	0,5	-0,434950
21,616833	0,5	-0,381000
21,625167	0,5	-0,341450
21,633500	0,5	-0,320000
21,641833	0,5	-0,297150
21,650167	0,5	-0,287650
21,658500	0,5	-0,307550
21,666833	0,5	-0,326400
21,675167	0,5	-0,338300
21,683500	0,5	-0,334900
21,691833	0,5	-0,333850
21,700167	0,5	-0,325150
21,708500	0,5	-0,317600
21,716833	0,5	-0,303900
21,725167	0,5	-0,289800
21,733500	0,5	-0,276750
21,741833	0,5	-0,264050
21,750167	0,5	-0,251850
21,758500	0,5	-0,222900
21,766833	0,5	-0,193150
21,775167	0,5	-0,184050
21,783500	0,5	-0,167900
21,791833	0,5	-0,145400
21,800167	0,5	-0,131150
21,808500	0,5	-0,117150
21,816833	0,5	-0,112700
21,825167	0,5	-0,085350
21,833500	0,5	-0,060800
21,841833	0,5	-0,032050
21,850167	0,5	-0,008900
21,858500	0,5	0,015350
21,866833	0,5	0,040500
21,875167	0,5	0,067050
21,883500	0,5	0,096300
21,891833	0,5	0,115600
21,900167	0,5	0,141350
21,908500	0,5	0,169000
21,916833	0,5	0,190900
21,925167	0,5	0,192950
21,933500	0,5	0,223350
21,941833	0,5	0,235650
21,950167	0,5	0,254250
21,958500	0,5	0,260150
21,966833	0,5	0,275150
21,975167	0,5	0,306300
21,983500	0,5	0,339500
21,991833	0,5	0,359350
22,000167	0,5	0,386450
22,008500	0,5	0,411750
22,016833	0,5	0,439900
22,025167	0,5	0,475600
22,033500	0,5	0,507200
22,041833	0,5	0,543050
22,050167	0,5	0,569550
22,058500	0,5	0,612050
22,066833	0,5	0,629500
22,075167	0,5	0,670600
22,083500	0,5	0,710800
22,091833	0,5	0,742550
22,100167	0,5	0,763450
22,108500	0,5	0,790700
22,116833	0,5	0,822100
22,125167	0,5	0,867400
22,133500	0,5	0,906600
22,141833	0,5	0,958100
22,150167	0,5	1,000200
22,158500	0,5	1,047600
22,166833	0,5	1,092000
22,175167	0,5	1,140050
22,183500	0,5	1,193050
22,191833	0,5	1,238550
22,200167	0,5	1,287050
22,208500	0,5	1,329450
22,216833	0,5	1,389900
22,225167	0,5	1,448850
22,233500	0,5	1,496150
22,241833	0,5	1,537000
22,250167	0,5	1,573000
22,258500	0,5	1,615800
22,266833	0,5	1,668750
22,275167	0,5	1,734300
22,283500	0,5	1,789800
22,291833	0,5	1,842800
22,300167	0,5	1,898400
22,308500	0,5	1,955100
22,316833	0,5	2,006050
22,325167	0,5	2,055050
22,333500	0,5	2,095850
22,341833	0,5	2,137200
22,350167	0,5	2,159850
22,358500	0,5	2,221200
22,366833	0,5	2,293900
22,375167	0,5	2,363700
22,383500	0,5	2,416150
22,391833	0,5	2,475700
22,400167	0,5	2,521400
22,408500	0,5	2,582800
22,416833	0,5	2,645550
22,425167	0,5	2,717150
22,433500	0,5	2,778250
22,441833	0,5	2,850250
22,450167	0,5	2,912800
22,458500	0,5	2,982600
22,466833	0,5	3,054950
22,475167	0,5	3,119750
22,483500	0,5	3,184400
22,491833	0,5	3,210650
22,500167	0,5	3,281550
22,508500	0,5	3,347000
22,516833	0,5	3,429650
22,525167	0,5	3,491150
22,533500	0,5	3,537150
22,541833	0,5	3,580300
22,550167	0,5	3,620650
22,558500	0,5	3,676950
22,566833	0,5	3,725900
22,575167	0,5	3,761850
22,583500	0,5	3,799950
22,591833	0,5	3,827750
22,600167	0,5	3,853600
22,608500	0,5	3,864950
22,616833	0,5	3,878650
22,625167	0,5	3,877400
22,633500	0,5	3,852250
22,641833	0,5	3,802400
22,650167	0,5	3,780000
22,658500	0,5	3,781350
22,666833	0,5	3,740200
22,675167	0,5	3,682650
22,683500	0,5	3,610000
22,691833	0,5	3,525100
22,700167	0,5	3,445000
22,708500	0,5	3,368650
22,716833	0,5	3,273350
22,725167	0,5	3,180000
22,733500	0,5	3,078700
22,741833	0,5	2,981200
22,750167	0,5	2,878850
22,758500	0,5	2,765600
22,766833	0,5	2,645550
22,775167	0,5	2,521050
22,783500	0,5	2,340800
22,791833	0,5	2,194700
22,800167	0,5	2,064600
22,808500	0,5	1,930900
22,816833	0,5	1,763050
22,825167	0,5	1,590750
22,833500	0,5	1,426850
22,841833	0,5	1,267800
22,850167	0,5	1,100650
22,858500	0,5	0,938900
22,866833	0,5	0,780150
22,875167	0,5	0,631300
22,883500	0,5	0,480300
22,891833	0,5	0,338800
22,900167	0,5	0,190350
22,908500	0,5	0,050800
22,916833	0,5	-0,091250
22,925167	0,5	-0,225400
22,933500	0,5	-0,370400
22,941833	0,5	-0,479100
22,950167	0,5	-0,617100
22,958500	0,5	-0,774300
22,966833	0,5	-0,887950
22,975167	0,5	-0,999250
22,983500	0,5	-1,090400
22,991833	0,5	-1,184750
23,000167	0,5	-1,276900
23,008500	0,5	-1,363700
23,016833	0,5	-1,436650
23,025167	0,5	-1,507250
23,033500	0,5	-1,569150
23,041833	0,5	-1,635250
23,050167	0,5	-1,693700
23,058500	0,5	-1,747250
23,066833	0,5	-1,804950
23,075167	0,5	-1,833350
23,083500	0,5	-1,898200
23,091833	0,5	-1,929550
23,100167	0,5	-1,994850
23,108500	0,5	-2,055650
23,116833	0,5	-2,087400
23,125167	0,5	-2,106500
23,133500	0,5	-2,122600
23,141833	0,5	-2,128900
23,150167	0,5	-2,147800
23,158500	0,5	-2,145700
23,166833	0,5	-2,148750
23,175167	0,5	-2,136150
23,183500	0,5	-2,140800
23,191833	0,5	-2,125400
23,200167	0,5	-2,123550
23,208500	0,5	-2,111850
23,216833	0,5	-2,108500
23,225167	0,5	-2,113300
23,233500	0,5	-2,101900
23,241833	0,5	-2,063500
23,250167	0,5	-2,084650
23,258500	0,5	-2,090800
23,266833	0,5	-2,080650
23,275167	0,5	-2,063750
23,283500	0,5	-2,043100
23,291833	0,5	-2,021550
23,300167	0,5	-1,997900
23,308500	0,5	-1,975950
23,316833	0,5	-1,943000
23,325167	0,5	-1,915850
23,333500	0,5	-1,879850
23,341833	0,5	-1,855350
23,350167	0,5	-1,817900
23,358500	0,5	-1,798250
23,366833	0,5	-1,762250
23,375167	0,5	-1,800350
23,383500	0,5	-1,757350
23,391833	0,5	-1,682700
23,400167	0,5	-1,669100
23,408500	0,5	-1,666600
23,416833	0,5	-1,658150
23,425167	0,5	-1,635800
23,433500	0,5	-1,619900
23,441833	0,5	-1,603300
23,450167	0,5	-1,583650
23,458500	0,5	-1,564750
23,466833	0,5	-1,542950
23,475167	0,5	-1,524100
23,483500	0,5	-1,504400
23,491833	0,5	-1,482750
23,500167	0,5	-1,465350
23,508500	0,5	-1,448000
23,516833	0,5	-1,486950
23,525167	0,5	-1,506200
23,533500	0,5	-1,462650
23,541833	0,5	-1,397450
23,550167	0,5	-1,377000
23,558500	0,5	-1,372250
23,566833	0,5	-1,363900
23,575167	0,5	-1,357900
23,583500	0,5	-1,346900
23,591833	0,5	-1,338800
23,600167	0,5	-1,328400
23,608500	0,5	-1,318150
23,616833	0,5	-1,307400
23,625167	0,5	-1,304500
23,633500	0,5	-1,294350
23,641833	0,5	-1,289500
23,650167	0,5	-1,285500
23,658500	0,5	-1,285450
23,666833	0,5	-1,429150
23,675167	0,5	-1,378300
23,683500	0,5	-1,361500
23,691833	0,5	-1,299450
23,700167	0,5	-1,290950
23,708500	0,5	-1,285700
23,716833	0,5	-1,290050
23,725167	0,5	-1,293850
23,733500	0,5	-1,285150
23,741833	0,5	-1,272800
23,750167	0,5	-1,265300
23,758500	0,5	-1,257650
23,766833	0,5	-1,247200
23,775167	0,5	-1,236000
23,783500	0,5	-1,225200
23,791833	0,5	-1,216950
23,800167	0,5	-1,208350
23,808500	0,5	-1,252200
23,816833	0,5	-1,357600
23,825167	0,5	-1,315950
23,833500	0,5	-1,272800
23,841833	0,5	-1,222400
23,850167	0,5	-1,207850
23,858500	0,5	-1,209000
23,866833	0,5	-1,210250
23,875167	0,5	-1,229150
23,883500	0,5	-1,210250
23,891833	0,5	-1,209950
23,900167	0,5	-1,196550
23,908500	0,5	-1,192900
23,916833	0,5	-1,176550
23,925167	0,5	-1,167300
23,933500	0,5	-1,155500
23,941833	0,5	-1,147450
23,950167	0,5	-1,140700
23,958500	0,5	-1,243050
23,966833	0,5	-1,257700
23,975167	0,5	-1,216350
23,983500	0,5	-1,160200
23,991833	0,5	-1,116700
24,000167	0,5	-1,100800
24,008500	0,5	-1,088850
24,016833	0,5	-1,091000
24,025167	0,5	-1,087300
24,033500	0,5	-1,072650
24,041833	0,5	-1,042600
24,050167	0,5	-1,033100
24,058500	0,5	-1,015850
24,066833	0,5	-1,008100
24,075167	0,5	-0,988350
24,083500	0,5	-0,973150
24,091833	0,5	-0,960800
24,100167	0,5	-0,955200
24,108500	0,5	-1,072950
24,116833	0,5	-1,042000
24,125167	0,5	-1,005600
24,133500	0,5	-0,958750
24,141833	0,5	-0,928250
24,150167	0,5	-0,919250
24,158500	0,5	-0,913050
24,166833	0,5	-0,913250
24,175167	0,5	-0,910800
24,183500	0,5	-0,885050
24,191833	0,5	-0,874100
24,200167	0,5	-0,851900
24,208500	0,5	-0,837150
24,216833	0,5	-0,811300
24,225167	0,5	-0,798200
24,233500	0,5	-0,773250
24,241833	0,5	-0,761350
24,250167	0,5	-0,775950
24,258500	0,5	-0,832650
24,266833	0,5	-0,800950
24,275167	0,5	-0,758800
24,283500	0,5	-0,714600
24,291833	0,5	-0,692750
24,300167	0,5	-0,686400
24,308500	0,5	-0,685900
24,316833	0,5	-0,683050
24,325167	0,5	-0,664350
24,333500	0,5	-0,655050
24,341833	0,5	-0,642300
24,350167	0,5	-0,632300
24,358500	0,5	-0,615700
24,366833	0,5	-0,602800
24,375167	0,5	-0,585400
24,383500	0,5	-0,576150
24,391833	0,5	-0,562700
24,400167	0,5	-0,611200
24,408500	0,5	-0,604300
24,416833	0,5	-0,595100
24,425167	0,5	-0,551800
24,433500	0,5	-0,523300
24,441833	0,5	-0,504550
24,450167	0,5	-0,490250
24,458500	0,5	-0,491200
24,466833	0,5	-0,478750
24,475167	0,5	-0,463950
24,483500	0,5	-0,446700
24,491833	0,5	-0,434800
24,500167	0,5	-0,419250
24,508500	0,5	-0,408700
24,516833	0,5	-0,392000
24,525167	0,5	-0,381050
24,533500	0,5	-0,364500
24,541833	0,5	-0,364800
24,550167	0,5	-0,410850
24,558500	0,5	-0,393950
24,566833	0,5	-0,378400
24,575167	0,5	-0,350850
24,583500	0,5	-0,331200
24,591833	0,5	-0,324700
24,600167	0,5	-0,320850
24,608500	0,5	-0,325100
24,616833	0,5	-0,311150
24,625167	0,5	-0,302150
24,633500	0,5	-0,291250
24,641833	0,5	-0,281050
24,650167	0,5	-0,264550
24,658500	0,5	-0,254950
24,666833	0,5	-0,242850
24,675167	0,5	-0,229250
24,683500	0,5	-0,220050
24,691833	0,5	-0,220150
24,700167	0,5	-0,243850
24,708500	0,5	-0,218500
24,716833	0,5	-0,204600
24,725167	0,5	-0,182450
24,733500	0,5	-0,172950
24,741833	0,5	-0,165750
24,750167	0,5	-0,163100
24,758500	0,5	-0,161900
24,766833	0,5	-0,151550
24,775167	0,5	-0,143600
24,783500	0,5	-0,138450
24,791833	0,5	-0,130650
24,800167	0,5	-0,128100
24,808500	0,5	-0,118850
24,816833	0,5	-0,111850
24,825167	0,5	-0,102800
24,833500	0,5	-0,095100
24,841833	0,5	-0,113450
24,850167	0,5	-0,103400
24,858500	0,5	-0,096150
24,866833	0,5	-0,079150
24,875167	0,5	-0,065200
24,883500	0,5	-0,056600
24,891833	0,5	-0,051550
24,900167	0,5	-0,048350
24,908500	0,5	-0,048550
24,916833	0,5	-0,038150
24,925167	0,5	-0,032150
24,933500	0,5	-0,024150
24,941833	0,5	-0,017100
24,950167	0,5	-0,009100
24,958500	0,5	-0,002450
24,966833	0,5	0,006850
24,975167	0,5	0,011950
24,983500	0,5	0,017300
24,991833	0,5	0,006700
25,000167	0,5	0,014850
25,008500	0,5	0,020400
25,016833	0,5	0,028150
25,025167	0,5	0,033700
25,033500	0,5	0,036900
25,041833	0,5	0,038550
25,050167	0,5	0,034000
25,058500	0,5	0,038650
25,066833	0,5	0,043900
25,075167	0,5	0,049150
25,083500	0,5	0,056250
25,091833	0,5	0,060700
25,100167	0,5	0,065400
25,108500	0,5	0,071350
25,116833	0,5	0,077450
25,125167	0,5	0,085200
25,133500	0,5	0,088300
25,141833	0,5	0,088400
25,150167	0,5	0,098250
25,158500	0,5	0,102650
25,166833	0,5	0,104850
25,175167	0,5	0,115400
25,183500	0,5	0,114650
25,191833	0,5	0,115100
25,200167	0,5	0,115300
25,208500	0,5	0,116950
25,216833	0,5	0,118200
25,225167	0,5	0,120900
25,233500	0,5	0,122100
25,241833	0,5	0,125000
25,250167	0,5	0,126800
25,258500	0,5	0,130600
25,266833	0,5	0,128400
25,275167	0,5	0,134050
25,283500	0,5	0,135700
25,291833	0,5	0,144900
25,300167	0,5	0,146750
25,308500	0,5	0,146250
25,316833	0,5	0,149350
25,325167	0,5	0,153050
25,333500	0,5	0,154650
25,341833	0,5	0,158550
25,350167	0,5	0,162600
25,358500	0,5	0,161600
25,366833	0,5	0,165400
25,375167	0,5	0,166150
25,383500	0,5	0,167200
25,391833	0,5	0,170150
25,400167	0,5	0,171050
25,408500	0,5	0,172100
25,416833	0,5	0,175500
25,425167	0,5	0,175550
25,433500	0,5	0,183750
25,441833	0,5	0,183450
25,450167	0,5	0,184900
25,458500	0,5	0,180150
25,466833	0,5	0,181950
25,475167	0,5	0,181400
25,483500	0,5	0,181800
25,491833	0,5	0,187700
25,500167	0,5	0,186750
25,508500	0,5	0,187000
25,516833	0,5	0,192450
25,525167	0,5	0,193600
25,533500	0,5	0,196200
25,541833	0,5	0,199600
25,550167	0,5	0,199850
25,558500	0,5	0,203500
25,566833	0,5	0,203500
25,575167	0,5	0,209350
25,583500	0,5	0,218300
25,591833	0,5	0,215800
25,600167	0,5	0,219050
25,608500	0,5	0,214450
25,616833	0,5	0,209800
25,625167	0,5	0,212650
25,633500	0,5	0,213750
25,641833	0,5	0,221000
25,650167	0,5	0,215950
25,658500	0,5	0,218050
25,666833	0,5	0,219300
25,675167	0,5	0,220850
25,683500	0,5	0,219700
25,691833	0,5	0,223450
25,700167	0,5	0,224500
25,708500	0,5	0,229250
25,716833	0,5	0,233600
25,725167	0,5	0,242000
25,733500	0,5	0,251050
25,741833	0,5	0,248300
25,750167	0,5	0,253100
25,758500	0,5	0,243750
25,766833	0,5	0,248000
25,775167	0,5	0,250050
25,783500	0,5	0,258750
25,791833	0,5	0,263800
25,800167	0,5	0,262950
25,808500	0,5	0,259450
25,816833	0,5	0,264650
25,825167	0,5	0,263450
25,833500	0,5	0,266250
25,841833	0,5	0,264750
25,850167	0,5	0,264300
25,858500	0,5	0,264400
25,866833	0,5	0,265000
25,875167	0,5	0,276250
25,883500	0,5	0,274050
25,891833	0,5	0,276000
25,900167	0,5	0,268400
25,908500	0,5	0,266000
25,916833	0,5	0,270050
25,925167	0,5	0,274400
25,933500	0,5	0,279500
25,941833	0,5	0,290950
25,950167	0,5	0,286800
25,958500	0,5	0,291900
25,966833	0,5	0,289950
25,975167	0,5	0,293050
25,983500	0,5	0,289650
25,991833	0,5	0,291900
26,000167	0,5	0,290750
