File Path	chrom://chromeleon01/ikbm_chromeleon/2022/ICS-5000/ED1/Esteban/20220612_Cell_7_4_eg.seq/913.smp/ED_1.channel/ED_1.chm
Channel	ED_1

Injection Information:
Data Vault	ikbm_chromeleon
Injection	7_00h-EGS_3
Injection Number	125
Position	BC8
Comment	
Processing Method	Stop sequence after Cell Death
Instrument Method	ICS5000_PA200_FullNative_Ox_26min_ED1
Type	Unknown
Status	Finished
Injection Date	15.06.2022
Injection Time	03:12:56
Injection Volume (µl)	5,0
Dilution Factor	1,0000
Weight	1,0000

Chromatogram Data Information:
Time Min. (min)	0,000333
Time Max. (min)	26,000333
Data Points	3121
Detector	EDet1
Generating Data System	Chromeleon 7.2.9.11323
Exporting Data System	Chromeleon 7.2.9.0
Operator	Instrument Controller
Signal Quantity	
Signal Unit	nC
Signal Min.	-2,433100
Signal Max.	978,491615
Channel	ED_1
Driver Name	DC-5000
Channel Type	Evaluation
Min. Step (s)	0,5
Max. Step (s)	0,5
Average Step (s)	0,5

Signal Parameter Information:
Signal Info	

Chromatogram Data:
Time (min)	Step (s)	Value (nC)
0,000333	n.a.	-0,040050
0,008667	0,5	-0,076700
0,017000	0,5	-0,061500
0,025333	0,5	-0,045100
0,033667	0,5	-0,049000
0,042000	0,5	-0,058800
0,050333	0,5	-0,040850
0,058667	0,5	-0,016550
0,067000	0,5	0,011750
0,075333	0,5	0,001650
0,083667	0,5	0,003150
0,092000	0,5	-0,006300
0,100333	0,5	0,004700
0,108667	0,5	-0,005150
0,117000	0,5	-0,004350
0,125333	0,5	-0,017200
0,133667	0,5	-0,024250
0,142000	0,5	-0,017800
0,150333	0,5	-0,019100
0,158667	0,5	-0,025450
0,167000	0,5	-0,007000
0,175333	0,5	-0,007600
0,183667	0,5	-0,034900
0,192000	0,5	-0,039750
0,200333	0,5	-0,037100
0,208667	0,5	-0,007550
0,217000	0,5	0,001250
0,225333	0,5	-0,003350
0,233667	0,5	-0,017750
0,242000	0,5	-0,012900
0,250333	0,5	-0,021650
0,258667	0,5	-0,018600
0,267000	0,5	-0,031400
0,275333	0,5	-0,030250
0,283667	0,5	-0,032300
0,292000	0,5	0,005150
0,300333	0,5	0,066050
0,308667	0,5	0,040200
0,317000	0,5	0,007350
0,325333	0,5	-0,045900
0,333667	0,5	-0,076700
0,342000	0,5	-0,080050
0,350333	0,5	-0,070600
0,358667	0,5	-0,044200
0,367000	0,5	-0,032450
0,375333	0,5	-0,048800
0,383667	0,5	-0,037900
0,392000	0,5	-0,045350
0,400333	0,5	-0,039150
0,408667	0,5	-0,050350
0,417000	0,5	-0,045700
0,425333	0,5	-0,059500
0,433667	0,5	-0,055750
0,442000	0,5	-0,057150
0,450333	0,5	-0,049450
0,458667	0,5	-0,070700
0,467000	0,5	-0,032900
0,475333	0,5	-0,076400
0,483667	0,5	-0,073250
0,492000	0,5	-0,083350
0,500333	0,5	-0,066750
0,508667	0,5	-0,036850
0,517000	0,5	-0,049800
0,525333	0,5	-0,053000
0,533667	0,5	-0,057650
0,542000	0,5	-0,047400
0,550333	0,5	-0,056950
0,558667	0,5	-0,054200
0,567000	0,5	-0,068050
0,575333	0,5	-0,062100
0,583667	0,5	-0,063350
0,592000	0,5	-0,052350
0,600333	0,5	-0,064200
0,608667	0,5	-0,063450
0,617000	0,5	-0,052900
0,625333	0,5	-0,078900
0,633667	0,5	-0,076900
0,642000	0,5	-0,067800
0,650333	0,5	-0,057500
0,658667	0,5	-0,020000
0,667000	0,5	-0,028350
0,675333	0,5	-0,027250
0,683667	0,5	-0,034400
0,692000	0,5	-0,035000
0,700333	0,5	-0,037200
0,708667	0,5	-0,040700
0,717000	0,5	-0,042250
0,725333	0,5	-0,047900
0,733667	0,5	-0,040600
0,742000	0,5	-0,042650
0,750333	0,5	-0,036200
0,758667	0,5	-0,032350
0,767000	0,5	-0,029650
0,775333	0,5	-0,054450
0,783667	0,5	-0,045000
0,792000	0,5	-0,043050
0,800333	0,5	-0,010900
0,808667	0,5	0,005100
0,817000	0,5	0,009100
0,825333	0,5	-0,001350
0,833667	0,5	0,001150
0,842000	0,5	-0,007450
0,850333	0,5	-0,005200
0,858667	0,5	-0,008450
0,867000	0,5	-0,009700
0,875333	0,5	-0,005300
0,883667	0,5	-0,005000
0,892000	0,5	0,006300
0,900333	0,5	0,004750
0,908667	0,5	0,029250
0,917000	0,5	0,002850
0,925333	0,5	-0,007500
0,933667	0,5	-0,007650
0,942000	0,5	0,007600
0,950333	0,5	0,029200
0,958667	0,5	0,055600
0,967000	0,5	0,041800
0,975333	0,5	0,045950
0,983667	0,5	0,041700
0,992000	0,5	0,042700
1,000333	0,5	0,036050
1,008667	0,5	0,040750
1,017000	0,5	0,033400
1,025333	0,5	0,037100
1,033667	0,5	0,045150
1,042000	0,5	0,036250
1,050333	0,5	0,043950
1,058667	0,5	0,063800
1,067000	0,5	0,042300
1,075333	0,5	0,032800
1,083667	0,5	0,043150
1,092000	0,5	0,057250
1,100333	0,5	0,085700
1,108667	0,5	0,074400
1,117000	0,5	0,084550
1,125333	0,5	0,075550
1,133667	0,5	0,083500
1,142000	0,5	0,073050
1,150333	0,5	0,082750
1,158667	0,5	0,074100
1,167000	0,5	0,077750
1,175333	0,5	0,073650
1,183667	0,5	0,077550
1,192000	0,5	0,064100
1,200333	0,5	0,090900
1,208667	0,5	0,089100
1,217000	0,5	0,071050
1,225333	0,5	0,065000
1,233667	0,5	0,074200
1,242000	0,5	0,099050
1,250333	0,5	0,114300
1,258667	0,5	0,110050
1,267000	0,5	0,105200
1,275333	0,5	0,109750
1,283667	0,5	0,103500
1,292000	0,5	0,105550
1,300333	0,5	0,097200
1,308667	0,5	0,100250
1,317000	0,5	0,096700
1,325333	0,5	0,106450
1,333667	0,5	0,112300
1,342000	0,5	0,103800
1,350333	0,5	0,122400
1,358667	0,5	0,106100
1,367000	0,5	0,088250
1,375333	0,5	0,089650
1,383667	0,5	0,096650
1,392000	0,5	0,131500
1,400333	0,5	0,134850
1,408667	0,5	0,121550
1,417000	0,5	0,120650
1,425333	0,5	0,124000
1,433667	0,5	0,126150
1,442000	0,5	0,129400
1,450333	0,5	0,125500
1,458667	0,5	0,119350
1,467000	0,5	0,125250
1,475333	0,5	0,122200
1,483667	0,5	0,130800
1,492000	0,5	0,112250
1,500333	0,5	0,143700
1,508667	0,5	0,112750
1,517000	0,5	0,113850
1,525333	0,5	0,110650
1,533667	0,5	0,131350
1,542000	0,5	0,162600
1,550333	0,5	0,180900
1,558667	0,5	0,255850
1,567000	0,5	0,500450
1,575333	0,5	0,905850
1,583667	0,5	1,539200
1,592000	0,5	4,552650
1,600333	0,5	18,483750
1,608667	0,5	67,746701
1,617000	0,5	207,805403
1,625333	0,5	479,611307
1,633667	0,5	791,958712
1,642000	0,5	978,491615
1,650333	0,5	969,628464
1,658667	0,5	806,429562
1,667000	0,5	589,584309
1,675333	0,5	406,456656
1,683667	0,5	282,930604
1,692000	0,5	205,369953
1,700333	0,5	156,968752
1,708667	0,5	127,216752
1,717000	0,5	109,385802
1,725333	0,5	97,735001
1,733667	0,5	87,979551
1,742000	0,5	79,116901
1,750333	0,5	71,534401
1,758667	0,5	64,934401
1,767000	0,5	58,764051
1,775333	0,5	53,347751
1,783667	0,5	49,854251
1,792000	0,5	49,266501
1,800333	0,5	51,525151
1,808667	0,5	55,413701
1,817000	0,5	59,266401
1,825333	0,5	61,884551
1,833667	0,5	62,699651
1,842000	0,5	61,336001
1,850333	0,5	58,237251
1,858667	0,5	54,385551
1,867000	0,5	50,712651
1,875333	0,5	47,614901
1,883667	0,5	45,218751
1,892000	0,5	43,308601
1,900333	0,5	41,571701
1,908667	0,5	39,782851
1,917000	0,5	38,096751
1,925333	0,5	36,700701
1,933667	0,5	35,646151
1,942000	0,5	34,700001
1,950333	0,5	33,625901
1,958667	0,5	32,525400
1,967000	0,5	31,657550
1,975333	0,5	31,166850
1,983667	0,5	31,245750
1,992000	0,5	31,851750
2,000333	0,5	32,513450
2,008667	0,5	32,578950
2,017000	0,5	31,815650
2,025333	0,5	30,642750
2,033667	0,5	29,545250
2,042000	0,5	28,759700
2,050333	0,5	28,280450
2,058667	0,5	28,081850
2,067000	0,5	28,129050
2,075333	0,5	28,554000
2,083667	0,5	29,515050
2,092000	0,5	30,888150
2,100333	0,5	32,212950
2,108667	0,5	33,698701
2,117000	0,5	36,123251
2,125333	0,5	39,947501
2,133667	0,5	44,247451
2,142000	0,5	47,212501
2,150333	0,5	48,002051
2,158667	0,5	46,823501
2,167000	0,5	43,995651
2,175333	0,5	39,905751
2,183667	0,5	35,552501
2,192000	0,5	31,927450
2,200333	0,5	29,434950
2,208667	0,5	28,004400
2,217000	0,5	27,655850
2,225333	0,5	28,582550
2,233667	0,5	30,740000
2,242000	0,5	32,819350
2,250333	0,5	33,137100
2,258667	0,5	31,484300
2,267000	0,5	29,076900
2,275333	0,5	26,988850
2,283667	0,5	25,491100
2,292000	0,5	24,419600
2,300333	0,5	23,718250
2,308667	0,5	23,314000
2,317000	0,5	23,109600
2,325333	0,5	22,897400
2,333667	0,5	22,661750
2,342000	0,5	22,541300
2,350333	0,5	22,699400
2,358667	0,5	23,115050
2,367000	0,5	23,514600
2,375333	0,5	23,717650
2,383667	0,5	23,876750
2,392000	0,5	24,232250
2,400333	0,5	24,906150
2,408667	0,5	25,552550
2,417000	0,5	25,638300
2,425333	0,5	25,076150
2,433667	0,5	24,206100
2,442000	0,5	23,423750
2,450333	0,5	22,836450
2,458667	0,5	22,417200
2,467000	0,5	22,071850
2,475333	0,5	21,817100
2,483667	0,5	21,619050
2,492000	0,5	21,477050
2,500333	0,5	21,318650
2,508667	0,5	21,129050
2,517000	0,5	20,949700
2,525333	0,5	20,775800
2,533667	0,5	20,695350
2,542000	0,5	20,604450
2,550333	0,5	20,523250
2,558667	0,5	20,452050
2,567000	0,5	20,531050
2,575333	0,5	21,235350
2,583667	0,5	22,590700
2,592000	0,5	22,831550
2,600333	0,5	21,554100
2,608667	0,5	20,278000
2,617000	0,5	19,540800
2,625333	0,5	19,132000
2,633667	0,5	18,895950
2,642000	0,5	18,723500
2,650333	0,5	18,603350
2,658667	0,5	18,506400
2,667000	0,5	18,418150
2,675333	0,5	18,334050
2,683667	0,5	18,279950
2,692000	0,5	18,175900
2,700333	0,5	18,092700
2,708667	0,5	17,999550
2,717000	0,5	17,910550
2,725333	0,5	17,824450
2,733667	0,5	17,710100
2,742000	0,5	17,609950
2,750333	0,5	17,511700
2,758667	0,5	17,461800
2,767000	0,5	17,440900
2,775333	0,5	17,516250
2,783667	0,5	17,704750
2,792000	0,5	18,086600
2,800333	0,5	18,683700
2,808667	0,5	19,429650
2,817000	0,5	20,200300
2,825333	0,5	20,890450
2,833667	0,5	21,353250
2,842000	0,5	21,566000
2,850333	0,5	21,528950
2,858667	0,5	21,258450
2,867000	0,5	20,825750
2,875333	0,5	20,324350
2,883667	0,5	19,913050
2,892000	0,5	19,784050
2,900333	0,5	20,132300
2,908667	0,5	21,082600
2,917000	0,5	22,618800
2,925333	0,5	24,453900
2,933667	0,5	26,140200
2,942000	0,5	27,252450
2,950333	0,5	27,746500
2,958667	0,5	27,964750
2,967000	0,5	28,539350
2,975333	0,5	29,924650
2,983667	0,5	31,977300
2,992000	0,5	34,109101
3,000333	0,5	35,570301
3,008667	0,5	35,817601
3,017000	0,5	34,795051
3,025333	0,5	32,714150
3,033667	0,5	30,043550
3,042000	0,5	27,255900
3,050333	0,5	24,732650
3,058667	0,5	22,690750
3,067000	0,5	21,257000
3,075333	0,5	20,479650
3,083667	0,5	20,446200
3,092000	0,5	21,237400
3,100333	0,5	22,832700
3,108667	0,5	25,003450
3,117000	0,5	27,251400
3,125333	0,5	29,002600
3,133667	0,5	29,685000
3,142000	0,5	29,196050
3,150333	0,5	27,663550
3,158667	0,5	25,477450
3,167000	0,5	23,052900
3,175333	0,5	20,718700
3,183667	0,5	18,725100
3,192000	0,5	17,168600
3,200333	0,5	16,003600
3,208667	0,5	15,169500
3,217000	0,5	14,561400
3,225333	0,5	14,115900
3,233667	0,5	13,785350
3,242000	0,5	13,528650
3,250333	0,5	13,328150
3,258667	0,5	13,146150
3,267000	0,5	13,015850
3,275333	0,5	12,906700
3,283667	0,5	12,793200
3,292000	0,5	12,717350
3,300333	0,5	12,693750
3,308667	0,5	12,728150
3,317000	0,5	12,852200
3,325333	0,5	13,030250
3,333667	0,5	13,306050
3,342000	0,5	13,595850
3,350333	0,5	13,859350
3,358667	0,5	13,857850
3,367000	0,5	13,964150
3,375333	0,5	13,749550
3,383667	0,5	13,413050
3,392000	0,5	13,016350
3,400333	0,5	12,624000
3,408667	0,5	12,265800
3,417000	0,5	12,007750
3,425333	0,5	11,785500
3,433667	0,5	11,615100
3,442000	0,5	11,489150
3,450333	0,5	11,409200
3,458667	0,5	11,363300
3,467000	0,5	11,307750
3,475333	0,5	11,260250
3,483667	0,5	11,216800
3,492000	0,5	11,195700
3,500333	0,5	11,174000
3,508667	0,5	11,175000
3,517000	0,5	11,172700
3,525333	0,5	11,217900
3,533667	0,5	11,303300
3,542000	0,5	11,465950
3,550333	0,5	11,697950
3,558667	0,5	11,991600
3,567000	0,5	12,315850
3,575333	0,5	12,536950
3,583667	0,5	12,633750
3,592000	0,5	12,566550
3,600333	0,5	12,348200
3,608667	0,5	12,038250
3,617000	0,5	11,666100
3,625333	0,5	11,294950
3,633667	0,5	10,996650
3,642000	0,5	10,770150
3,650333	0,5	10,604800
3,658667	0,5	10,486850
3,667000	0,5	10,405100
3,675333	0,5	10,340550
3,683667	0,5	10,314800
3,692000	0,5	10,298900
3,700333	0,5	10,295050
3,708667	0,5	10,275600
3,717000	0,5	10,273100
3,725333	0,5	10,216750
3,733667	0,5	10,180250
3,742000	0,5	10,133800
3,750333	0,5	10,112250
3,758667	0,5	10,095450
3,767000	0,5	10,086000
3,775333	0,5	10,078800
3,783667	0,5	10,087750
3,792000	0,5	10,094450
3,800333	0,5	10,097050
3,808667	0,5	10,088700
3,817000	0,5	10,057000
3,825333	0,5	10,011650
3,833667	0,5	9,957400
3,842000	0,5	9,902500
3,850333	0,5	9,841350
3,858667	0,5	9,819750
3,867000	0,5	9,780800
3,875333	0,5	9,752750
3,883667	0,5	9,745200
3,892000	0,5	9,748400
3,900333	0,5	9,756950
3,908667	0,5	9,755250
3,917000	0,5	9,709850
3,925333	0,5	9,672400
3,933667	0,5	9,615650
3,942000	0,5	9,564500
3,950333	0,5	9,503050
3,958667	0,5	9,453750
3,967000	0,5	9,413150
3,975333	0,5	9,384300
3,983667	0,5	9,370600
3,992000	0,5	9,345750
4,000333	0,5	9,337950
4,008667	0,5	9,356600
4,017000	0,5	9,334200
4,025333	0,5	9,304300
4,033667	0,5	9,280050
4,042000	0,5	9,242750
4,050333	0,5	9,234700
4,058667	0,5	9,191350
4,067000	0,5	9,155700
4,075333	0,5	9,108300
4,083667	0,5	9,080500
4,092000	0,5	9,043500
4,100333	0,5	9,025700
4,108667	0,5	8,993900
4,117000	0,5	8,975700
4,125333	0,5	8,957300
4,133667	0,5	8,938900
4,142000	0,5	8,919400
4,150333	0,5	8,898850
4,158667	0,5	8,896350
4,167000	0,5	8,864850
4,175333	0,5	8,843050
4,183667	0,5	8,836150
4,192000	0,5	8,843800
4,200333	0,5	8,862050
4,208667	0,5	8,855950
4,217000	0,5	8,843800
4,225333	0,5	8,849850
4,233667	0,5	8,837250
4,242000	0,5	8,831750
4,250333	0,5	8,810700
4,258667	0,5	8,797850
4,267000	0,5	8,773250
4,275333	0,5	8,749700
4,283667	0,5	8,728500
4,292000	0,5	8,697150
4,300333	0,5	8,674850
4,308667	0,5	8,670750
4,317000	0,5	8,623950
4,325333	0,5	8,597150
4,333667	0,5	8,580700
4,342000	0,5	8,574550
4,350333	0,5	8,574600
4,358667	0,5	8,544450
4,367000	0,5	8,534400
4,375333	0,5	8,519600
4,383667	0,5	8,517750
4,392000	0,5	8,505850
4,400333	0,5	8,504050
4,408667	0,5	8,500150
4,417000	0,5	8,505100
4,425333	0,5	8,509900
4,433667	0,5	8,512250
4,442000	0,5	8,498050
4,450333	0,5	8,515500
4,458667	0,5	8,512350
4,467000	0,5	8,493700
4,475333	0,5	8,477800
4,483667	0,5	8,468550
4,492000	0,5	8,464500
4,500333	0,5	8,452800
4,508667	0,5	8,416400
4,517000	0,5	8,390900
4,525333	0,5	8,355050
4,533667	0,5	8,329400
4,542000	0,5	8,310350
4,550333	0,5	8,289450
4,558667	0,5	8,274950
4,567000	0,5	8,258050
4,575333	0,5	8,254150
4,583667	0,5	8,230250
4,592000	0,5	8,223050
4,600333	0,5	8,231800
4,608667	0,5	8,210900
4,617000	0,5	8,193950
4,625333	0,5	8,189000
4,633667	0,5	8,191600
4,642000	0,5	8,206800
4,650333	0,5	8,203050
4,658667	0,5	8,192250
4,667000	0,5	8,173400
4,675333	0,5	8,169600
4,683667	0,5	8,155150
4,692000	0,5	8,153100
4,700333	0,5	8,138550
4,708667	0,5	8,124900
4,717000	0,5	8,121900
4,725333	0,5	8,110300
4,733667	0,5	8,102350
4,742000	0,5	8,098300
4,750333	0,5	8,101400
4,758667	0,5	8,073700
4,767000	0,5	8,063150
4,775333	0,5	8,056900
4,783667	0,5	8,070950
4,792000	0,5	8,081300
4,800333	0,5	8,089150
4,808667	0,5	8,073500
4,817000	0,5	8,077500
4,825333	0,5	8,070600
4,833667	0,5	8,075250
4,842000	0,5	8,074400
4,850333	0,5	8,081000
4,858667	0,5	8,092000
4,867000	0,5	8,114300
4,875333	0,5	8,137900
4,883667	0,5	8,166000
4,892000	0,5	8,230850
4,900333	0,5	8,295250
4,908667	0,5	8,357550
4,917000	0,5	8,445700
4,925333	0,5	8,547550
4,933667	0,5	8,675700
4,942000	0,5	8,794150
4,950333	0,5	8,878400
4,958667	0,5	8,966950
4,967000	0,5	9,019950
4,975333	0,5	9,073450
4,983667	0,5	9,087200
4,992000	0,5	9,086400
5,000333	0,5	9,057950
5,008667	0,5	9,019650
5,017000	0,5	8,971000
5,025333	0,5	8,904000
5,033667	0,5	8,831500
5,042000	0,5	8,797450
5,050333	0,5	8,717350
5,058667	0,5	8,645950
5,067000	0,5	8,578650
5,075333	0,5	8,520000
5,083667	0,5	8,473050
5,092000	0,5	8,398650
5,100333	0,5	8,332650
5,108667	0,5	8,259800
5,117000	0,5	8,192150
5,125333	0,5	8,115000
5,133667	0,5	8,059900
5,142000	0,5	7,994700
5,150333	0,5	7,946600
5,158667	0,5	7,898300
5,167000	0,5	7,866250
5,175333	0,5	7,820450
5,183667	0,5	7,789600
5,192000	0,5	7,778750
5,200333	0,5	7,738850
5,208667	0,5	7,706650
5,217000	0,5	7,694250
5,225333	0,5	7,688850
5,233667	0,5	7,699150
5,242000	0,5	7,675750
5,250333	0,5	7,667400
5,258667	0,5	7,663650
5,267000	0,5	7,672000
5,275333	0,5	7,680750
5,283667	0,5	7,694900
5,292000	0,5	7,716100
5,300333	0,5	7,739500
5,308667	0,5	7,776000
5,317000	0,5	7,806550
5,325333	0,5	7,831200
5,333667	0,5	7,838900
5,342000	0,5	7,859200
5,350333	0,5	7,825400
5,358667	0,5	7,799500
5,367000	0,5	7,765750
5,375333	0,5	7,729950
5,383667	0,5	7,701300
5,392000	0,5	7,639650
5,400333	0,5	7,583550
5,408667	0,5	7,543000
5,417000	0,5	7,497050
5,425333	0,5	7,461150
5,433667	0,5	7,428100
5,442000	0,5	7,398150
5,450333	0,5	7,373600
5,458667	0,5	7,358800
5,467000	0,5	7,346300
5,475333	0,5	7,316250
5,483667	0,5	7,310450
5,492000	0,5	7,293000
5,500333	0,5	7,273250
5,508667	0,5	7,259350
5,517000	0,5	7,262550
5,525333	0,5	7,268700
5,533667	0,5	7,280700
5,542000	0,5	7,269500
5,550333	0,5	7,272400
5,558667	0,5	7,262600
5,567000	0,5	7,262100
5,575333	0,5	7,252150
5,583667	0,5	7,252400
5,592000	0,5	7,242500
5,600333	0,5	7,238050
5,608667	0,5	7,232650
5,617000	0,5	7,215050
5,625333	0,5	7,206150
5,633667	0,5	7,215650
5,642000	0,5	7,199750
5,650333	0,5	7,188150
5,658667	0,5	7,186900
5,667000	0,5	7,192150
5,675333	0,5	7,211050
5,683667	0,5	7,207750
5,692000	0,5	7,206550
5,700333	0,5	7,194250
5,708667	0,5	7,196950
5,717000	0,5	7,186750
5,725333	0,5	7,186550
5,733667	0,5	7,174600
5,742000	0,5	7,171250
5,750333	0,5	7,165750
5,758667	0,5	7,159750
5,767000	0,5	7,146450
5,775333	0,5	7,145300
5,783667	0,5	7,143050
5,792000	0,5	7,128750
5,800333	0,5	7,117950
5,808667	0,5	7,114900
5,817000	0,5	7,122550
5,825333	0,5	7,134200
5,833667	0,5	7,140900
5,842000	0,5	7,131700
5,850333	0,5	7,122200
5,858667	0,5	7,112050
5,867000	0,5	7,100300
5,875333	0,5	7,084550
5,883667	0,5	7,074600
5,892000	0,5	7,061100
5,900333	0,5	7,055700
5,908667	0,5	7,043450
5,917000	0,5	7,033100
5,925333	0,5	7,032200
5,933667	0,5	7,023900
5,942000	0,5	7,004900
5,950333	0,5	7,000500
5,958667	0,5	6,990650
5,967000	0,5	7,009100
5,975333	0,5	7,005000
5,983667	0,5	6,997450
5,992000	0,5	6,987950
6,000333	0,5	6,977450
6,008667	0,5	6,966100
6,017000	0,5	6,955950
6,025333	0,5	6,949850
6,033667	0,5	6,937700
6,042000	0,5	6,933850
6,050333	0,5	6,925400
6,058667	0,5	6,914350
6,067000	0,5	6,901300
6,075333	0,5	6,918400
6,083667	0,5	6,904450
6,092000	0,5	6,896600
6,100333	0,5	6,887500
6,108667	0,5	6,891250
6,117000	0,5	6,903650
6,125333	0,5	6,908800
6,133667	0,5	6,898600
6,142000	0,5	6,895250
6,150333	0,5	6,892600
6,158667	0,5	6,889800
6,167000	0,5	6,883250
6,175333	0,5	6,876850
6,183667	0,5	6,874450
6,192000	0,5	6,870650
6,200333	0,5	6,873100
6,208667	0,5	6,860050
6,217000	0,5	6,852400
6,225333	0,5	6,873900
6,233667	0,5	6,864400
6,242000	0,5	6,855900
6,250333	0,5	6,857250
6,258667	0,5	6,861750
6,267000	0,5	6,885700
6,275333	0,5	6,872600
6,283667	0,5	6,866850
6,292000	0,5	6,854900
6,300333	0,5	6,853650
6,308667	0,5	6,840550
6,317000	0,5	6,837650
6,325333	0,5	6,825700
6,333667	0,5	6,823300
6,342000	0,5	6,820150
6,350333	0,5	6,810400
6,358667	0,5	6,801300
6,367000	0,5	6,793450
6,375333	0,5	6,802700
6,383667	0,5	6,781500
6,392000	0,5	6,781050
6,400333	0,5	6,776850
6,408667	0,5	6,790400
6,417000	0,5	6,804200
6,425333	0,5	6,801850
6,433667	0,5	6,801000
6,442000	0,5	6,813050
6,450333	0,5	6,813150
6,458667	0,5	6,826400
6,467000	0,5	6,831050
6,475333	0,5	6,837500
6,483667	0,5	6,839250
6,492000	0,5	6,846650
6,500333	0,5	6,851250
6,508667	0,5	6,848550
6,517000	0,5	6,847350
6,525333	0,5	6,843600
6,533667	0,5	6,820850
6,542000	0,5	6,814100
6,550333	0,5	6,804950
6,558667	0,5	6,812300
6,567000	0,5	6,821200
6,575333	0,5	6,803550
6,583667	0,5	6,798500
6,592000	0,5	6,780200
6,600333	0,5	6,775200
6,608667	0,5	6,763750
6,617000	0,5	6,755950
6,625333	0,5	6,741950
6,633667	0,5	6,735400
6,642000	0,5	6,731300
6,650333	0,5	6,719750
6,658667	0,5	6,707600
6,667000	0,5	6,712400
6,675333	0,5	6,698400
6,683667	0,5	6,689100
6,692000	0,5	6,685050
6,700333	0,5	6,692100
6,708667	0,5	6,706800
6,717000	0,5	6,718250
6,725333	0,5	6,717650
6,733667	0,5	6,721050
6,742000	0,5	6,731800
6,750333	0,5	6,739850
6,758667	0,5	6,756150
6,767000	0,5	6,761650
6,775333	0,5	6,781200
6,783667	0,5	6,800550
6,792000	0,5	6,823600
6,800333	0,5	6,839450
6,808667	0,5	6,875000
6,817000	0,5	6,923900
6,825333	0,5	6,970550
6,833667	0,5	7,038750
6,842000	0,5	7,144950
6,850333	0,5	7,297600
6,858667	0,5	7,516850
6,867000	0,5	7,795850
6,875333	0,5	8,157550
6,883667	0,5	8,599000
6,892000	0,5	9,123300
6,900333	0,5	9,688300
6,908667	0,5	10,252650
6,917000	0,5	10,765000
6,925333	0,5	11,167000
6,933667	0,5	11,427400
6,942000	0,5	11,510300
6,950333	0,5	11,418150
6,958667	0,5	11,181850
6,967000	0,5	10,811650
6,975333	0,5	10,330750
6,983667	0,5	9,797650
6,992000	0,5	9,249150
7,000333	0,5	8,739250
7,008667	0,5	8,265600
7,017000	0,5	7,854800
7,025333	0,5	7,516500
7,033667	0,5	7,259200
7,042000	0,5	7,065300
7,050333	0,5	6,919150
7,058667	0,5	6,807000
7,067000	0,5	6,722850
7,075333	0,5	6,658300
7,083667	0,5	6,609600
7,092000	0,5	6,567050
7,100333	0,5	6,520850
7,108667	0,5	6,493350
7,117000	0,5	6,446350
7,125333	0,5	6,402350
7,133667	0,5	6,363800
7,142000	0,5	6,335450
7,150333	0,5	6,319750
7,158667	0,5	6,300300
7,167000	0,5	6,273350
7,175333	0,5	6,258750
7,183667	0,5	6,238200
7,192000	0,5	6,221450
7,200333	0,5	6,202450
7,208667	0,5	6,185550
7,217000	0,5	6,167200
7,225333	0,5	6,153050
7,233667	0,5	6,139000
7,242000	0,5	6,122300
7,250333	0,5	6,101850
7,258667	0,5	6,099650
7,267000	0,5	6,074100
7,275333	0,5	6,057950
7,283667	0,5	6,042900
7,292000	0,5	6,033950
7,300333	0,5	6,031600
7,308667	0,5	6,009000
7,317000	0,5	5,992100
7,325333	0,5	5,974700
7,333667	0,5	5,958650
7,342000	0,5	5,940850
7,350333	0,5	5,932750
7,358667	0,5	5,923750
7,367000	0,5	5,913650
7,375333	0,5	5,904750
7,383667	0,5	5,890450
7,392000	0,5	5,867200
7,400333	0,5	5,849600
7,408667	0,5	5,842150
7,417000	0,5	5,823100
7,425333	0,5	5,806450
7,433667	0,5	5,796300
7,442000	0,5	5,789800
7,450333	0,5	5,790150
7,458667	0,5	5,777450
7,467000	0,5	5,767950
7,475333	0,5	5,758000
7,483667	0,5	5,745950
7,492000	0,5	5,730950
7,500333	0,5	5,714100
7,508667	0,5	5,695350
7,517000	0,5	5,685050
7,525333	0,5	5,674100
7,533667	0,5	5,666000
7,542000	0,5	5,662450
7,550333	0,5	5,658600
7,558667	0,5	5,655650
7,567000	0,5	5,642900
7,575333	0,5	5,631800
7,583667	0,5	5,619200
7,592000	0,5	5,615200
7,600333	0,5	5,616400
7,608667	0,5	5,620800
7,617000	0,5	5,656350
7,625333	0,5	5,732000
7,633667	0,5	5,834700
7,642000	0,5	5,925600
7,650333	0,5	5,952850
7,658667	0,5	5,907950
7,667000	0,5	5,821800
7,675333	0,5	5,730000
7,683667	0,5	5,659350
7,692000	0,5	5,606250
7,700333	0,5	5,569550
7,708667	0,5	5,527050
7,717000	0,5	5,487950
7,725333	0,5	5,460300
7,733667	0,5	5,439500
7,742000	0,5	5,430650
7,750333	0,5	5,423400
7,758667	0,5	5,410800
7,767000	0,5	5,408000
7,775333	0,5	5,404250
7,783667	0,5	5,402800
7,792000	0,5	5,396800
7,800333	0,5	5,391500
7,808667	0,5	5,379000
7,817000	0,5	5,373300
7,825333	0,5	5,370550
7,833667	0,5	5,362650
7,842000	0,5	5,365550
7,850333	0,5	5,387400
7,858667	0,5	5,404000
7,867000	0,5	5,436750
7,875333	0,5	5,486950
7,883667	0,5	5,567350
7,892000	0,5	5,696050
7,900333	0,5	5,871150
7,908667	0,5	6,114450
7,917000	0,5	6,438800
7,925333	0,5	6,859950
7,933667	0,5	7,361400
7,942000	0,5	7,929150
7,950333	0,5	8,505500
7,958667	0,5	9,012650
7,967000	0,5	9,365150
7,975333	0,5	9,502350
7,983667	0,5	9,409550
7,992000	0,5	9,128650
8,000333	0,5	8,697150
8,008667	0,5	8,144400
8,017000	0,5	7,532150
8,025333	0,5	6,938200
8,033667	0,5	6,431250
8,042000	0,5	6,053750
8,050333	0,5	5,801650
8,058667	0,5	5,646300
8,067000	0,5	5,558150
8,075333	0,5	5,507750
8,083667	0,5	5,484800
8,092000	0,5	5,481650
8,100333	0,5	5,506750
8,108667	0,5	5,555450
8,117000	0,5	5,625750
8,125333	0,5	5,680650
8,133667	0,5	5,709600
8,142000	0,5	5,698800
8,150333	0,5	5,641800
8,158667	0,5	5,550100
8,167000	0,5	5,440000
8,175333	0,5	5,334900
8,183667	0,5	5,244800
8,192000	0,5	5,171450
8,200333	0,5	5,109450
8,208667	0,5	5,066700
8,217000	0,5	5,033700
8,225333	0,5	5,019900
8,233667	0,5	5,033500
8,242000	0,5	5,082500
8,250333	0,5	5,155800
8,258667	0,5	5,209450
8,267000	0,5	5,200800
8,275333	0,5	5,134050
8,283667	0,5	5,037900
8,292000	0,5	4,962600
8,300333	0,5	4,904600
8,308667	0,5	4,865500
8,317000	0,5	4,842350
8,325333	0,5	4,836400
8,333667	0,5	4,838150
8,342000	0,5	4,848450
8,350333	0,5	4,861350
8,358667	0,5	4,874750
8,367000	0,5	4,882250
8,375333	0,5	4,877300
8,383667	0,5	4,859950
8,392000	0,5	4,842750
8,400333	0,5	4,827000
8,408667	0,5	4,832800
8,417000	0,5	4,845250
8,425333	0,5	4,859000
8,433667	0,5	4,865150
8,442000	0,5	4,859350
8,450333	0,5	4,839000
8,458667	0,5	4,825000
8,467000	0,5	4,829950
8,475333	0,5	4,880600
8,483667	0,5	4,958250
8,492000	0,5	5,019750
8,500333	0,5	5,024300
8,508667	0,5	4,969250
8,517000	0,5	4,889450
8,525333	0,5	4,807900
8,533667	0,5	4,744200
8,542000	0,5	4,696350
8,550333	0,5	4,665850
8,558667	0,5	4,644150
8,567000	0,5	4,639650
8,575333	0,5	4,636500
8,583667	0,5	4,639650
8,592000	0,5	4,635400
8,600333	0,5	4,621400
8,608667	0,5	4,601800
8,617000	0,5	4,579550
8,625333	0,5	4,572550
8,633667	0,5	4,572600
8,642000	0,5	4,571300
8,650333	0,5	4,572850
8,658667	0,5	4,570550
8,667000	0,5	4,574900
8,675333	0,5	4,584350
8,683667	0,5	4,617600
8,692000	0,5	4,687000
8,700333	0,5	4,784100
8,708667	0,5	4,875900
8,717000	0,5	4,916300
8,725333	0,5	4,900250
8,733667	0,5	4,845900
8,742000	0,5	4,784600
8,750333	0,5	4,733300
8,758667	0,5	4,693550
8,767000	0,5	4,672750
8,775333	0,5	4,665350
8,783667	0,5	4,667650
8,792000	0,5	4,671850
8,800333	0,5	4,675850
8,808667	0,5	4,695900
8,817000	0,5	4,747800
8,825333	0,5	4,818050
8,833667	0,5	4,884300
8,842000	0,5	4,908750
8,850333	0,5	4,875600
8,858667	0,5	4,806350
8,867000	0,5	4,732300
8,875333	0,5	4,698350
8,883667	0,5	4,718550
8,892000	0,5	4,767800
8,900333	0,5	4,802050
8,908667	0,5	4,792950
8,917000	0,5	4,761600
8,925333	0,5	4,730850
8,933667	0,5	4,714200
8,942000	0,5	4,713050
8,950333	0,5	4,706850
8,958667	0,5	4,700750
8,967000	0,5	4,689200
8,975333	0,5	4,681600
8,983667	0,5	4,686050
8,992000	0,5	4,701900
9,000333	0,5	4,735450
9,008667	0,5	4,783000
9,017000	0,5	4,844300
9,025333	0,5	4,933350
9,033667	0,5	5,052400
9,042000	0,5	5,189000
9,050333	0,5	5,309400
9,058667	0,5	5,386950
9,067000	0,5	5,412700
9,075333	0,5	5,385350
9,083667	0,5	5,312050
9,092000	0,5	5,206650
9,100333	0,5	5,088300
9,108667	0,5	4,972300
9,117000	0,5	4,869350
9,125333	0,5	4,797400
9,133667	0,5	4,769300
9,142000	0,5	4,798850
9,150333	0,5	4,917550
9,158667	0,5	5,199850
9,167000	0,5	5,703750
9,175333	0,5	6,190550
9,183667	0,5	6,365100
9,192000	0,5	6,142500
9,200333	0,5	5,800000
9,208667	0,5	5,551300
9,217000	0,5	5,429400
9,225333	0,5	5,414450
9,233667	0,5	5,483000
9,242000	0,5	5,642450
9,250333	0,5	5,870150
9,258667	0,5	6,155950
9,267000	0,5	6,469700
9,275333	0,5	6,768850
9,283667	0,5	7,020750
9,292000	0,5	7,192100
9,300333	0,5	7,270800
9,308667	0,5	7,245150
9,317000	0,5	7,125350
9,325333	0,5	6,931700
9,333667	0,5	6,697250
9,342000	0,5	6,449250
9,350333	0,5	6,213550
9,358667	0,5	6,019200
9,367000	0,5	5,883250
9,375333	0,5	5,808300
9,383667	0,5	5,799600
9,392000	0,5	5,837900
9,400333	0,5	5,894400
9,408667	0,5	5,926850
9,417000	0,5	5,905700
9,425333	0,5	5,818500
9,433667	0,5	5,671250
9,442000	0,5	5,501350
9,450333	0,5	5,329150
9,458667	0,5	5,178700
9,467000	0,5	5,057450
9,475333	0,5	4,969800
9,483667	0,5	4,907650
9,492000	0,5	4,857050
9,500333	0,5	4,818850
9,508667	0,5	4,802300
9,517000	0,5	4,805550
9,525333	0,5	4,826500
9,533667	0,5	4,863450
9,542000	0,5	4,896150
9,550333	0,5	4,910300
9,558667	0,5	4,895900
9,567000	0,5	4,856100
9,575333	0,5	4,801150
9,583667	0,5	4,743400
9,592000	0,5	4,682250
9,600333	0,5	4,636200
9,608667	0,5	4,587200
9,617000	0,5	4,549000
9,625333	0,5	4,517450
9,633667	0,5	4,492100
9,642000	0,5	4,467650
9,650333	0,5	4,453250
9,658667	0,5	4,444150
9,667000	0,5	4,446250
9,675333	0,5	4,455000
9,683667	0,5	4,469400
9,692000	0,5	4,491900
9,700333	0,5	4,516550
9,708667	0,5	4,544900
9,717000	0,5	4,576850
9,725333	0,5	4,605400
9,733667	0,5	4,644300
9,742000	0,5	4,675750
9,750333	0,5	4,705450
9,758667	0,5	4,725150
9,767000	0,5	4,734850
9,775333	0,5	4,742900
9,783667	0,5	4,754850
9,792000	0,5	4,781000
9,800333	0,5	4,834400
9,808667	0,5	4,931300
9,817000	0,5	5,069100
9,825333	0,5	5,252700
9,833667	0,5	5,474400
9,842000	0,5	5,726800
9,850333	0,5	5,999450
9,858667	0,5	6,266750
9,867000	0,5	6,516950
9,875333	0,5	6,739750
9,883667	0,5	6,929500
9,892000	0,5	7,102700
9,900333	0,5	7,260500
9,908667	0,5	7,407450
9,917000	0,5	7,549900
9,925333	0,5	7,683200
9,933667	0,5	7,798150
9,942000	0,5	7,906150
9,950333	0,5	8,004200
9,958667	0,5	8,087050
9,967000	0,5	8,151600
9,975333	0,5	8,186100
9,983667	0,5	8,169200
9,992000	0,5	8,085200
10,000333	0,5	7,913700
10,008667	0,5	7,645200
10,017000	0,5	7,287850
10,025333	0,5	6,865250
10,033667	0,5	6,418550
10,042000	0,5	5,988950
10,050333	0,5	5,617400
10,058667	0,5	5,314550
10,067000	0,5	5,092100
10,075333	0,5	4,934950
10,083667	0,5	4,827700
10,092000	0,5	4,754250
10,100333	0,5	4,694000
10,108667	0,5	4,652200
10,117000	0,5	4,629000
10,125333	0,5	4,621300
10,133667	0,5	4,636700
10,142000	0,5	4,664450
10,150333	0,5	4,707250
10,158667	0,5	4,743950
10,167000	0,5	4,766100
10,175333	0,5	4,765600
10,183667	0,5	4,742250
10,192000	0,5	4,708700
10,200333	0,5	4,659750
10,208667	0,5	4,603950
10,217000	0,5	4,559650
10,225333	0,5	4,516450
10,233667	0,5	4,477600
10,242000	0,5	4,439950
10,250333	0,5	4,402700
10,258667	0,5	4,368300
10,267000	0,5	4,339750
10,275333	0,5	4,312700
10,283667	0,5	4,294500
10,292000	0,5	4,283600
10,300333	0,5	4,278750
10,308667	0,5	4,279700
10,317000	0,5	4,287150
10,325333	0,5	4,296250
10,333667	0,5	4,313650
10,342000	0,5	4,330400
10,350333	0,5	4,351900
10,358667	0,5	4,377050
10,367000	0,5	4,413050
10,375333	0,5	4,446900
10,383667	0,5	4,487800
10,392000	0,5	4,528500
10,400333	0,5	4,570950
10,408667	0,5	4,620550
10,417000	0,5	4,663200
10,425333	0,5	4,692550
10,433667	0,5	4,698950
10,442000	0,5	4,678700
10,450333	0,5	4,630500
10,458667	0,5	4,565150
10,467000	0,5	4,495250
10,475333	0,5	4,423100
10,483667	0,5	4,357200
10,492000	0,5	4,300150
10,500333	0,5	4,245350
10,508667	0,5	4,196850
10,517000	0,5	4,159500
10,525333	0,5	4,127200
10,533667	0,5	4,106150
10,542000	0,5	4,092750
10,550333	0,5	4,094750
10,558667	0,5	4,111150
10,567000	0,5	4,133050
10,575333	0,5	4,158600
10,583667	0,5	4,180200
10,592000	0,5	4,204500
10,600333	0,5	4,233650
10,608667	0,5	4,270600
10,617000	0,5	4,318750
10,625333	0,5	4,371200
10,633667	0,5	4,421600
10,642000	0,5	4,455400
10,650333	0,5	4,455500
10,658667	0,5	4,429450
10,667000	0,5	4,371400
10,675333	0,5	4,293250
10,683667	0,5	4,211550
10,692000	0,5	4,134000
10,700333	0,5	4,069050
10,708667	0,5	4,012400
10,717000	0,5	3,961600
10,725333	0,5	3,914150
10,733667	0,5	3,877000
10,742000	0,5	3,846600
10,750333	0,5	3,828950
10,758667	0,5	3,823900
10,767000	0,5	3,832150
10,775333	0,5	3,853000
10,783667	0,5	3,887500
10,792000	0,5	3,921800
10,800333	0,5	3,972950
10,808667	0,5	4,042750
10,817000	0,5	4,121000
10,825333	0,5	4,186000
10,833667	0,5	4,227050
10,842000	0,5	4,229000
10,850333	0,5	4,191100
10,858667	0,5	4,120600
10,867000	0,5	4,026350
10,875333	0,5	3,933650
10,883667	0,5	3,848400
10,892000	0,5	3,771800
10,900333	0,5	3,710050
10,908667	0,5	3,652400
10,917000	0,5	3,608800
10,925333	0,5	3,573600
10,933667	0,5	3,550000
10,942000	0,5	3,540150
10,950333	0,5	3,551300
10,958667	0,5	3,584000
10,967000	0,5	3,631350
10,975333	0,5	3,702100
10,983667	0,5	3,788500
10,992000	0,5	3,888950
11,000333	0,5	3,970500
11,008667	0,5	4,012550
11,017000	0,5	3,999450
11,025333	0,5	3,938850
11,033667	0,5	3,844150
11,042000	0,5	3,738600
11,050333	0,5	3,638600
11,058667	0,5	3,559750
11,067000	0,5	3,493150
11,075333	0,5	3,442700
11,083667	0,5	3,406400
11,092000	0,5	3,373650
11,100333	0,5	3,365350
11,108667	0,5	3,375100
11,117000	0,5	3,405000
11,125333	0,5	3,455150
11,133667	0,5	3,529250
11,142000	0,5	3,620350
11,150333	0,5	3,705250
11,158667	0,5	3,764150
11,167000	0,5	3,775650
11,175333	0,5	3,729550
11,183667	0,5	3,643300
11,192000	0,5	3,530050
11,200333	0,5	3,411500
11,208667	0,5	3,293150
11,217000	0,5	3,181950
11,225333	0,5	3,072950
11,233667	0,5	2,970000
11,242000	0,5	2,862950
11,250333	0,5	2,781550
11,258667	0,5	2,719400
11,267000	0,5	2,686700
11,275333	0,5	2,678200
11,283667	0,5	2,703050
11,292000	0,5	2,758800
11,300333	0,5	2,821300
11,308667	0,5	2,877000
11,317000	0,5	2,910850
11,325333	0,5	2,931600
11,333667	0,5	2,938350
11,342000	0,5	2,937100
11,350333	0,5	2,932050
11,358667	0,5	2,925700
11,367000	0,5	2,919700
11,375333	0,5	2,915650
11,383667	0,5	2,912350
11,392000	0,5	2,913650
11,400333	0,5	2,930250
11,408667	0,5	2,949200
11,417000	0,5	2,971400
11,425333	0,5	2,987700
11,433667	0,5	2,992400
11,442000	0,5	2,983500
11,450333	0,5	2,963600
11,458667	0,5	2,929200
11,467000	0,5	2,890250
11,475333	0,5	2,852550
11,483667	0,5	2,821550
11,492000	0,5	2,794100
11,500333	0,5	2,781600
11,508667	0,5	2,774750
11,517000	0,5	2,775650
11,525333	0,5	2,783350
11,533667	0,5	2,794950
11,542000	0,5	2,802350
11,550333	0,5	2,818650
11,558667	0,5	2,816300
11,567000	0,5	2,817550
11,575333	0,5	2,803250
11,583667	0,5	2,794050
11,592000	0,5	2,788950
11,600333	0,5	2,793150
11,608667	0,5	2,788500
11,617000	0,5	2,797900
11,625333	0,5	2,811150
11,633667	0,5	2,830600
11,642000	0,5	2,859100
11,650333	0,5	2,888650
11,658667	0,5	2,920350
11,667000	0,5	2,952500
11,675333	0,5	2,974550
11,683667	0,5	2,985350
11,692000	0,5	3,002450
11,700333	0,5	3,013350
11,708667	0,5	3,015000
11,717000	0,5	3,014150
11,725333	0,5	3,010800
11,733667	0,5	3,008550
11,742000	0,5	3,011950
11,750333	0,5	3,012050
11,758667	0,5	3,017850
11,767000	0,5	3,019750
11,775333	0,5	3,031900
11,783667	0,5	3,043100
11,792000	0,5	3,055350
11,800333	0,5	3,065950
11,808667	0,5	3,071300
11,817000	0,5	3,087350
11,825333	0,5	3,089650
11,833667	0,5	3,094750
11,842000	0,5	3,120700
11,850333	0,5	3,158500
11,858667	0,5	3,207300
11,867000	0,5	3,290850
11,875333	0,5	3,410700
11,883667	0,5	3,578050
11,892000	0,5	3,780400
11,900333	0,5	4,005350
11,908667	0,5	4,206700
11,917000	0,5	4,367400
11,925333	0,5	4,454900
11,933667	0,5	4,462900
11,942000	0,5	4,389150
11,950333	0,5	4,249650
11,958667	0,5	4,073150
11,967000	0,5	3,887050
11,975333	0,5	3,700600
11,983667	0,5	3,539800
11,992000	0,5	3,417200
12,000333	0,5	3,317300
12,008667	0,5	3,250600
12,017000	0,5	3,208300
12,025333	0,5	3,196450
12,033667	0,5	3,202000
12,042000	0,5	3,220850
12,050333	0,5	3,248550
12,058667	0,5	3,289300
12,067000	0,5	3,327250
12,075333	0,5	3,370050
12,083667	0,5	3,403100
12,092000	0,5	3,431150
12,100333	0,5	3,438100
12,108667	0,5	3,435950
12,117000	0,5	3,430500
12,125333	0,5	3,411450
12,133667	0,5	3,404900
12,142000	0,5	3,402500
12,150333	0,5	3,406300
12,158667	0,5	3,412400
12,167000	0,5	3,429600
12,175333	0,5	3,462000
12,183667	0,5	3,516250
12,192000	0,5	3,573300
12,200333	0,5	3,638000
12,208667	0,5	3,698000
12,217000	0,5	3,742950
12,225333	0,5	3,763950
12,233667	0,5	3,754950
12,242000	0,5	3,714100
12,250333	0,5	3,651400
12,258667	0,5	3,574050
12,267000	0,5	3,502000
12,275333	0,5	3,427250
12,283667	0,5	3,381250
12,292000	0,5	3,346500
12,300333	0,5	3,323150
12,308667	0,5	3,306500
12,317000	0,5	3,289550
12,325333	0,5	3,284900
12,333667	0,5	3,276100
12,342000	0,5	3,259800
12,350333	0,5	3,238100
12,358667	0,5	3,219000
12,367000	0,5	3,196750
12,375333	0,5	3,174100
12,383667	0,5	3,151900
12,392000	0,5	3,131450
12,400333	0,5	3,108850
12,408667	0,5	3,100950
12,417000	0,5	3,082300
12,425333	0,5	3,068300
12,433667	0,5	3,068300
12,442000	0,5	3,063950
12,450333	0,5	3,057850
12,458667	0,5	3,050250
12,467000	0,5	3,036150
12,475333	0,5	3,031800
12,483667	0,5	3,027000
12,492000	0,5	3,029500
12,500333	0,5	3,032950
12,508667	0,5	3,045050
12,517000	0,5	3,054350
12,525333	0,5	3,060900
12,533667	0,5	3,069350
12,542000	0,5	3,075500
12,550333	0,5	3,098150
12,558667	0,5	3,116900
12,567000	0,5	3,147300
12,575333	0,5	3,189800
12,583667	0,5	3,245150
12,592000	0,5	3,300650
12,600333	0,5	3,360050
12,608667	0,5	3,414600
12,617000	0,5	3,478450
12,625333	0,5	3,538700
12,633667	0,5	3,611700
12,642000	0,5	3,678050
12,650333	0,5	3,747400
12,658667	0,5	3,815050
12,667000	0,5	3,887500
12,675333	0,5	3,956750
12,683667	0,5	4,027700
12,692000	0,5	4,092450
12,700333	0,5	4,141450
12,708667	0,5	4,177500
12,717000	0,5	4,189600
12,725333	0,5	4,201300
12,733667	0,5	4,186800
12,742000	0,5	4,142750
12,750333	0,5	4,087050
12,758667	0,5	4,035250
12,767000	0,5	3,988650
12,775333	0,5	3,942000
12,783667	0,5	3,882950
12,792000	0,5	3,813100
12,800333	0,5	3,723350
12,808667	0,5	3,623000
12,817000	0,5	3,515050
12,825333	0,5	3,433850
12,833667	0,5	3,376650
12,842000	0,5	3,361550
12,850333	0,5	3,395300
12,858667	0,5	3,451550
12,867000	0,5	3,517000
12,875333	0,5	3,593950
12,883667	0,5	3,631200
12,892000	0,5	3,606500
12,900333	0,5	3,542000
12,908667	0,5	3,462700
12,917000	0,5	3,417400
12,925333	0,5	3,477300
12,933667	0,5	3,565500
12,942000	0,5	3,571400
12,950333	0,5	3,583900
12,958667	0,5	3,460750
12,967000	0,5	3,170000
12,975333	0,5	2,867900
12,983667	0,5	2,503100
12,992000	0,5	2,125600
13,000333	0,5	1,847150
13,008667	0,5	1,621800
13,017000	0,5	1,450050
13,025333	0,5	1,314450
13,033667	0,5	1,203800
13,042000	0,5	1,107000
13,050333	0,5	1,023500
13,058667	0,5	0,957050
13,067000	0,5	0,905400
13,075333	0,5	0,872050
13,083667	0,5	0,837800
13,092000	0,5	0,817850
13,100333	0,5	0,800650
13,108667	0,5	0,793200
13,117000	0,5	0,785050
13,125333	0,5	0,779700
13,133667	0,5	0,767700
13,142000	0,5	0,758900
13,150333	0,5	0,750200
13,158667	0,5	0,732600
13,167000	0,5	0,729100
13,175333	0,5	0,724550
13,183667	0,5	0,718900
13,192000	0,5	0,712800
13,200333	0,5	0,700450
13,208667	0,5	0,697850
13,217000	0,5	0,699800
13,225333	0,5	0,699250
13,233667	0,5	0,692500
13,242000	0,5	0,685000
13,250333	0,5	0,673450
13,258667	0,5	0,656300
13,267000	0,5	0,641050
13,275333	0,5	0,622300
13,283667	0,5	0,605300
13,292000	0,5	0,587650
13,300333	0,5	0,575350
13,308667	0,5	0,552800
13,317000	0,5	0,548350
13,325333	0,5	0,538350
13,333667	0,5	0,532200
13,342000	0,5	0,516300
13,350333	0,5	0,503800
13,358667	0,5	0,503400
13,367000	0,5	0,499400
13,375333	0,5	0,491400
13,383667	0,5	0,482400
13,392000	0,5	0,473750
13,400333	0,5	0,468800
13,408667	0,5	0,461350
13,417000	0,5	0,459700
13,425333	0,5	0,455850
13,433667	0,5	0,457900
13,442000	0,5	0,465800
13,450333	0,5	0,470300
13,458667	0,5	0,480150
13,467000	0,5	0,509000
13,475333	0,5	0,537650
13,483667	0,5	0,580650
13,492000	0,5	0,630100
13,500333	0,5	0,692100
13,508667	0,5	0,781600
13,517000	0,5	0,878700
13,525333	0,5	0,987600
13,533667	0,5	1,098750
13,542000	0,5	1,212300
13,550333	0,5	1,321700
13,558667	0,5	1,417850
13,567000	0,5	1,502450
13,575333	0,5	1,569650
13,583667	0,5	1,627600
13,592000	0,5	1,667250
13,600333	0,5	1,687000
13,608667	0,5	1,700850
13,617000	0,5	1,714900
13,625333	0,5	1,706600
13,633667	0,5	1,694600
13,642000	0,5	1,677850
13,650333	0,5	1,664350
13,658667	0,5	1,657650
13,667000	0,5	1,654150
13,675333	0,5	1,646400
13,683667	0,5	1,643350
13,692000	0,5	1,635850
13,700333	0,5	1,635550
13,708667	0,5	1,631250
13,717000	0,5	1,633700
13,725333	0,5	1,634450
13,733667	0,5	1,640550
13,742000	0,5	1,635300
13,750333	0,5	1,630400
13,758667	0,5	1,642100
13,767000	0,5	1,644300
13,775333	0,5	1,646700
13,783667	0,5	1,640950
13,792000	0,5	1,637950
13,800333	0,5	1,638300
13,808667	0,5	1,645350
13,817000	0,5	1,642050
13,825333	0,5	1,645450
13,833667	0,5	1,643200
13,842000	0,5	1,650050
13,850333	0,5	1,649100
13,858667	0,5	1,654550
13,867000	0,5	1,653600
13,875333	0,5	1,658200
13,883667	0,5	1,667000
13,892000	0,5	1,665900
13,900333	0,5	1,666650
13,908667	0,5	1,676350
13,917000	0,5	1,683750
13,925333	0,5	1,681900
13,933667	0,5	1,674450
13,942000	0,5	1,668850
13,950333	0,5	1,678600
13,958667	0,5	1,682500
13,967000	0,5	1,689450
13,975333	0,5	1,697650
13,983667	0,5	1,706600
13,992000	0,5	1,718850
14,000333	0,5	1,726150
14,008667	0,5	1,726400
14,017000	0,5	1,730350
14,025333	0,5	1,728450
14,033667	0,5	1,735150
14,042000	0,5	1,718450
14,050333	0,5	1,725850
14,058667	0,5	1,726750
14,067000	0,5	1,727850
14,075333	0,5	1,724300
14,083667	0,5	1,720200
14,092000	0,5	1,725000
14,100333	0,5	1,727150
14,108667	0,5	1,722550
14,117000	0,5	1,719500
14,125333	0,5	1,717400
14,133667	0,5	1,708950
14,142000	0,5	1,709550
14,150333	0,5	1,707050
14,158667	0,5	1,708600
14,167000	0,5	1,702350
14,175333	0,5	1,705950
14,183667	0,5	1,709550
14,192000	0,5	1,698300
14,200333	0,5	1,707700
14,208667	0,5	1,712650
14,217000	0,5	1,712550
14,225333	0,5	1,713200
14,233667	0,5	1,702700
14,242000	0,5	1,708100
14,250333	0,5	1,715550
14,258667	0,5	1,720150
14,267000	0,5	1,720200
14,275333	0,5	1,728900
14,283667	0,5	1,733300
14,292000	0,5	1,738650
14,300333	0,5	1,743750
14,308667	0,5	1,742600
14,317000	0,5	1,748000
14,325333	0,5	1,749600
14,333667	0,5	1,761900
14,342000	0,5	1,756700
14,350333	0,5	1,777600
14,358667	0,5	1,778450
14,367000	0,5	1,781900
14,375333	0,5	1,777050
14,383667	0,5	1,773850
14,392000	0,5	1,779550
14,400333	0,5	1,791750
14,408667	0,5	1,799400
14,417000	0,5	1,806900
14,425333	0,5	1,812150
14,433667	0,5	1,822700
14,442000	0,5	1,828200
14,450333	0,5	1,840050
14,458667	0,5	1,849600
14,467000	0,5	1,857400
14,475333	0,5	1,872000
14,483667	0,5	1,876250
14,492000	0,5	1,893000
14,500333	0,5	1,918600
14,508667	0,5	1,936200
14,517000	0,5	1,957450
14,525333	0,5	1,982700
14,533667	0,5	2,007250
14,542000	0,5	2,047400
14,550333	0,5	2,084550
14,558667	0,5	2,119650
14,567000	0,5	2,143200
14,575333	0,5	2,164350
14,583667	0,5	2,174250
14,592000	0,5	2,180200
14,600333	0,5	2,185150
14,608667	0,5	2,187950
14,617000	0,5	2,200050
14,625333	0,5	2,209000
14,633667	0,5	2,214800
14,642000	0,5	2,244650
14,650333	0,5	2,277800
14,658667	0,5	2,306900
14,667000	0,5	2,340200
14,675333	0,5	2,367300
14,683667	0,5	2,412700
14,692000	0,5	2,465500
14,700333	0,5	2,530600
14,708667	0,5	2,592450
14,717000	0,5	2,655750
14,725333	0,5	2,695850
14,733667	0,5	2,734550
14,742000	0,5	2,755800
14,750333	0,5	2,772100
14,758667	0,5	2,791300
14,767000	0,5	2,831400
14,775333	0,5	2,873550
14,783667	0,5	2,938350
14,792000	0,5	3,022200
14,800333	0,5	3,096500
14,808667	0,5	3,142550
14,817000	0,5	3,156650
14,825333	0,5	3,140000
14,833667	0,5	3,103850
14,842000	0,5	3,048000
14,850333	0,5	2,982050
14,858667	0,5	2,921200
14,867000	0,5	2,868200
14,875333	0,5	2,830800
14,883667	0,5	2,808050
14,892000	0,5	2,801200
14,900333	0,5	2,795450
14,908667	0,5	2,796400
14,917000	0,5	2,800850
14,925333	0,5	2,778200
14,933667	0,5	2,752450
14,942000	0,5	2,719250
14,950333	0,5	2,677200
14,958667	0,5	2,633350
14,967000	0,5	2,592450
14,975333	0,5	2,566650
14,983667	0,5	2,557200
14,992000	0,5	2,547650
15,000333	0,5	2,538850
15,008667	0,5	2,531400
15,017000	0,5	2,525250
15,025333	0,5	2,519400
15,033667	0,5	2,516850
15,042000	0,5	2,507100
15,050333	0,5	2,501100
15,058667	0,5	2,493000
15,067000	0,5	2,490150
15,075333	0,5	2,462800
15,083667	0,5	2,465650
15,092000	0,5	2,457450
15,100333	0,5	2,448600
15,108667	0,5	2,427100
15,117000	0,5	2,408350
15,125333	0,5	2,402650
15,133667	0,5	2,398550
15,142000	0,5	2,387850
15,150333	0,5	2,378950
15,158667	0,5	2,370800
15,167000	0,5	2,356850
15,175333	0,5	2,348500
15,183667	0,5	2,334250
15,192000	0,5	2,326350
15,200333	0,5	2,310000
15,208667	0,5	2,310500
15,217000	0,5	2,302200
15,225333	0,5	2,278600
15,233667	0,5	2,281450
15,242000	0,5	2,270900
15,250333	0,5	2,261950
15,258667	0,5	2,249850
15,267000	0,5	2,227400
15,275333	0,5	2,228350
15,283667	0,5	2,223050
15,292000	0,5	2,219100
15,300333	0,5	2,208500
15,308667	0,5	2,208950
15,317000	0,5	2,204400
15,325333	0,5	2,202600
15,333667	0,5	2,197150
15,342000	0,5	2,188000
15,350333	0,5	2,187300
15,358667	0,5	2,186850
15,367000	0,5	2,182200
15,375333	0,5	2,176350
15,383667	0,5	2,186400
15,392000	0,5	2,177950
15,400333	0,5	2,176450
15,408667	0,5	2,162550
15,417000	0,5	2,152900
15,425333	0,5	2,149350
15,433667	0,5	2,150500
15,442000	0,5	2,137850
15,450333	0,5	2,136350
15,458667	0,5	2,125050
15,467000	0,5	2,126900
15,475333	0,5	2,122500
15,483667	0,5	2,116550
15,492000	0,5	2,103550
15,500333	0,5	2,089700
15,508667	0,5	2,072850
15,517000	0,5	2,049650
15,525333	0,5	2,043600
15,533667	0,5	2,040100
15,542000	0,5	2,024450
15,550333	0,5	2,008400
15,558667	0,5	1,991550
15,567000	0,5	1,980550
15,575333	0,5	1,993050
15,583667	0,5	1,992750
15,592000	0,5	2,002750
15,600333	0,5	2,000200
15,608667	0,5	2,002650
15,617000	0,5	1,990050
15,625333	0,5	1,977000
15,633667	0,5	1,959650
15,642000	0,5	1,946950
15,650333	0,5	1,942950
15,658667	0,5	1,931000
15,667000	0,5	1,909750
15,675333	0,5	1,914100
15,683667	0,5	1,911350
15,692000	0,5	1,899200
15,700333	0,5	1,883750
15,708667	0,5	1,869350
15,717000	0,5	1,866450
15,725333	0,5	1,862900
15,733667	0,5	1,866250
15,742000	0,5	1,861900
15,750333	0,5	1,863650
15,758667	0,5	1,855350
15,767000	0,5	1,857650
15,775333	0,5	1,849150
15,783667	0,5	1,845900
15,792000	0,5	1,842150
15,800333	0,5	1,849150
15,808667	0,5	1,833900
15,817000	0,5	1,831650
15,825333	0,5	1,831600
15,833667	0,5	1,827300
15,842000	0,5	1,813900
15,850333	0,5	1,794500
15,858667	0,5	1,785350
15,867000	0,5	1,777500
15,875333	0,5	1,775300
15,883667	0,5	1,772300
15,892000	0,5	1,776500
15,900333	0,5	1,770900
15,908667	0,5	1,769700
15,917000	0,5	1,762550
15,925333	0,5	1,754100
15,933667	0,5	1,741750
15,942000	0,5	1,729850
15,950333	0,5	1,714500
15,958667	0,5	1,696700
15,967000	0,5	1,695800
15,975333	0,5	1,701800
15,983667	0,5	1,691350
15,992000	0,5	1,686150
16,000333	0,5	1,661100
16,008667	0,5	1,660400
16,017000	0,5	1,661150
16,025333	0,5	1,654400
16,033667	0,5	1,645350
16,042000	0,5	1,641950
16,050333	0,5	1,632400
16,058667	0,5	1,623000
16,067000	0,5	1,612900
16,075333	0,5	1,597700
16,083667	0,5	1,593700
16,092000	0,5	1,587700
16,100333	0,5	1,590950
16,108667	0,5	1,565800
16,117000	0,5	1,575950
16,125333	0,5	1,569100
16,133667	0,5	1,554600
16,142000	0,5	1,535800
16,150333	0,5	1,518200
16,158667	0,5	1,513700
16,167000	0,5	1,512200
16,175333	0,5	1,501200
16,183667	0,5	1,494100
16,192000	0,5	1,488050
16,200333	0,5	1,479800
16,208667	0,5	1,475550
16,217000	0,5	1,469550
16,225333	0,5	1,463550
16,233667	0,5	1,455750
16,242000	0,5	1,456300
16,250333	0,5	1,444750
16,258667	0,5	1,426600
16,267000	0,5	1,427650
16,275333	0,5	1,418700
16,283667	0,5	1,407400
16,292000	0,5	1,392550
16,300333	0,5	1,370550
16,308667	0,5	1,369100
16,317000	0,5	1,360900
16,325333	0,5	1,360100
16,333667	0,5	1,352850
16,342000	0,5	1,356450
16,350333	0,5	1,347500
16,358667	0,5	1,348250
16,367000	0,5	1,343600
16,375333	0,5	1,339700
16,383667	0,5	1,343800
16,392000	0,5	1,344600
16,400333	0,5	1,338300
16,408667	0,5	1,338750
16,417000	0,5	1,344300
16,425333	0,5	1,334350
16,433667	0,5	1,321400
16,442000	0,5	1,297450
16,450333	0,5	1,286300
16,458667	0,5	1,278800
16,467000	0,5	1,276200
16,475333	0,5	1,265200
16,483667	0,5	1,257050
16,492000	0,5	1,242150
16,500333	0,5	1,238750
16,508667	0,5	1,227000
16,517000	0,5	1,218950
16,525333	0,5	1,211150
16,533667	0,5	1,207200
16,542000	0,5	1,197800
16,550333	0,5	1,187350
16,558667	0,5	1,190950
16,567000	0,5	1,189100
16,575333	0,5	1,183550
16,583667	0,5	1,166100
16,592000	0,5	1,151550
16,600333	0,5	1,135800
16,608667	0,5	1,137500
16,617000	0,5	1,127600
16,625333	0,5	1,130450
16,633667	0,5	1,120400
16,642000	0,5	1,120700
16,650333	0,5	1,113100
16,658667	0,5	1,113550
16,667000	0,5	1,108500
16,675333	0,5	1,102500
16,683667	0,5	1,100800
16,692000	0,5	1,091200
16,700333	0,5	1,089050
16,708667	0,5	1,089950
16,717000	0,5	1,087300
16,725333	0,5	1,077450
16,733667	0,5	1,054950
16,742000	0,5	1,044000
16,750333	0,5	1,039550
16,758667	0,5	1,033450
16,767000	0,5	1,025800
16,775333	0,5	1,019800
16,783667	0,5	1,018600
16,792000	0,5	1,006650
16,800333	0,5	1,008850
16,808667	0,5	0,994100
16,817000	0,5	0,989550
16,825333	0,5	0,982500
16,833667	0,5	0,984350
16,842000	0,5	0,958500
16,850333	0,5	0,962550
16,858667	0,5	0,962800
16,867000	0,5	0,954300
16,875333	0,5	0,947200
16,883667	0,5	0,921800
16,892000	0,5	0,922650
16,900333	0,5	0,916200
16,908667	0,5	0,914300
16,917000	0,5	0,908650
16,925333	0,5	0,904950
16,933667	0,5	0,900750
16,942000	0,5	0,900200
16,950333	0,5	0,898150
16,958667	0,5	0,897550
16,967000	0,5	0,893950
16,975333	0,5	0,894500
16,983667	0,5	0,894150
16,992000	0,5	0,878850
17,000333	0,5	0,886400
17,008667	0,5	0,890000
17,017000	0,5	0,878350
17,025333	0,5	0,873200
17,033667	0,5	0,847550
17,042000	0,5	0,852650
17,050333	0,5	0,851650
17,058667	0,5	0,848800
17,067000	0,5	0,844800
17,075333	0,5	0,837950
17,083667	0,5	0,837000
17,092000	0,5	0,826950
17,100333	0,5	0,824850
17,108667	0,5	0,811150
17,117000	0,5	0,801900
17,125333	0,5	0,795150
17,133667	0,5	0,791750
17,142000	0,5	0,784200
17,150333	0,5	0,793150
17,158667	0,5	0,785800
17,167000	0,5	0,777850
17,175333	0,5	0,760600
17,183667	0,5	0,749600
17,192000	0,5	0,751600
17,200333	0,5	0,754650
17,208667	0,5	0,738100
17,217000	0,5	0,738250
17,225333	0,5	0,733750
17,233667	0,5	0,729150
17,242000	0,5	0,731650
17,250333	0,5	0,730000
17,258667	0,5	0,732150
17,267000	0,5	0,728400
17,275333	0,5	0,742850
17,283667	0,5	0,737550
17,292000	0,5	0,749400
17,300333	0,5	0,759050
17,308667	0,5	0,756050
17,317000	0,5	0,744400
17,325333	0,5	0,725850
17,333667	0,5	0,704100
17,342000	0,5	0,699650
17,350333	0,5	0,689250
17,358667	0,5	0,684050
17,367000	0,5	0,679050
17,375333	0,5	0,681750
17,383667	0,5	0,685800
17,392000	0,5	0,689000
17,400333	0,5	0,686050
17,408667	0,5	0,685750
17,417000	0,5	0,698950
17,425333	0,5	0,697100
17,433667	0,5	0,687550
17,442000	0,5	0,693950
17,450333	0,5	0,694850
17,458667	0,5	0,686650
17,467000	0,5	0,675200
17,475333	0,5	0,652650
17,483667	0,5	0,655550
17,492000	0,5	0,657100
17,500333	0,5	0,666950
17,508667	0,5	0,666600
17,517000	0,5	0,669900
17,525333	0,5	0,673000
17,533667	0,5	0,682450
17,542000	0,5	0,691350
17,550333	0,5	0,690700
17,558667	0,5	0,703650
17,567000	0,5	0,715250
17,575333	0,5	0,713750
17,583667	0,5	0,723900
17,592000	0,5	0,742550
17,600333	0,5	0,751350
17,608667	0,5	0,758000
17,617000	0,5	0,752750
17,625333	0,5	0,762150
17,633667	0,5	0,770200
17,642000	0,5	0,787850
17,650333	0,5	0,795050
17,658667	0,5	0,813200
17,667000	0,5	0,818900
17,675333	0,5	0,829650
17,683667	0,5	0,833100
17,692000	0,5	0,838300
17,700333	0,5	0,837500
17,708667	0,5	0,840250
17,717000	0,5	0,840150
17,725333	0,5	0,826000
17,733667	0,5	0,837950
17,742000	0,5	0,844650
17,750333	0,5	0,843000
17,758667	0,5	0,832550
17,767000	0,5	0,816000
17,775333	0,5	0,808950
17,783667	0,5	0,811000
17,792000	0,5	0,806500
17,800333	0,5	0,807250
17,808667	0,5	0,801650
17,817000	0,5	0,804700
17,825333	0,5	0,801500
17,833667	0,5	0,803100
17,842000	0,5	0,795400
17,850333	0,5	0,798100
17,858667	0,5	0,806850
17,867000	0,5	0,808650
17,875333	0,5	0,795750
17,883667	0,5	0,819600
17,892000	0,5	0,836850
17,900333	0,5	0,857850
17,908667	0,5	0,886050
17,917000	0,5	0,903700
17,925333	0,5	0,946750
17,933667	0,5	0,963100
17,942000	0,5	0,973800
17,950333	0,5	0,952300
17,958667	0,5	0,922700
17,967000	0,5	0,875550
17,975333	0,5	0,830600
17,983667	0,5	0,782450
17,992000	0,5	0,747500
18,000333	0,5	0,714150
18,008667	0,5	0,704350
18,017000	0,5	0,672100
18,025333	0,5	0,648550
18,033667	0,5	0,645200
18,042000	0,5	0,633100
18,050333	0,5	0,612600
18,058667	0,5	0,593750
18,067000	0,5	0,567350
18,075333	0,5	0,563200
18,083667	0,5	0,551500
18,092000	0,5	0,540200
18,100333	0,5	0,533250
18,108667	0,5	0,524050
18,117000	0,5	0,514700
18,125333	0,5	0,502450
18,133667	0,5	0,499600
18,142000	0,5	0,482400
18,150333	0,5	0,480000
18,158667	0,5	0,471300
18,167000	0,5	0,455050
18,175333	0,5	0,450550
18,183667	0,5	0,448850
18,192000	0,5	0,431400
18,200333	0,5	0,415500
18,208667	0,5	0,387050
18,217000	0,5	0,374050
18,225333	0,5	0,372400
18,233667	0,5	0,364350
18,242000	0,5	0,347800
18,250333	0,5	0,344150
18,258667	0,5	0,330050
18,267000	0,5	0,324950
18,275333	0,5	0,321800
18,283667	0,5	0,311800
18,292000	0,5	0,313750
18,300333	0,5	0,307450
18,308667	0,5	0,307100
18,317000	0,5	0,286300
18,325333	0,5	0,291500
18,333667	0,5	0,285300
18,342000	0,5	0,276500
18,350333	0,5	0,252600
18,358667	0,5	0,230300
18,367000	0,5	0,219800
18,375333	0,5	0,219000
18,383667	0,5	0,210150
18,392000	0,5	0,202000
18,400333	0,5	0,193450
18,408667	0,5	0,187050
18,417000	0,5	0,181100
18,425333	0,5	0,173800
18,433667	0,5	0,166100
18,442000	0,5	0,154750
18,450333	0,5	0,154300
18,458667	0,5	0,139400
18,467000	0,5	0,130750
18,475333	0,5	0,132650
18,483667	0,5	0,124300
18,492000	0,5	0,110350
18,500333	0,5	0,086750
18,508667	0,5	0,068850
18,517000	0,5	0,067350
18,525333	0,5	0,058300
18,533667	0,5	0,061300
18,542000	0,5	0,047950
18,550333	0,5	0,043800
18,558667	0,5	0,035450
18,567000	0,5	0,033350
18,575333	0,5	0,026200
18,583667	0,5	0,017800
18,592000	0,5	0,022350
18,600333	0,5	0,018000
18,608667	0,5	-0,004950
18,617000	0,5	-0,001150
18,625333	0,5	-0,001450
18,633667	0,5	-0,015350
18,642000	0,5	-0,025900
18,650333	0,5	-0,052350
18,658667	0,5	-0,055500
18,667000	0,5	-0,060600
18,675333	0,5	-0,060550
18,683667	0,5	-0,073450
18,692000	0,5	-0,071200
18,700333	0,5	-0,077400
18,708667	0,5	-0,077550
18,717000	0,5	-0,083200
18,725333	0,5	-0,087000
18,733667	0,5	-0,095800
18,742000	0,5	-0,091200
18,750333	0,5	-0,099850
18,758667	0,5	-0,112350
18,767000	0,5	-0,105350
18,775333	0,5	-0,103700
18,783667	0,5	-0,112050
18,792000	0,5	-0,130350
18,800333	0,5	-0,140450
18,808667	0,5	-0,147500
18,817000	0,5	-0,139700
18,825333	0,5	-0,149300
18,833667	0,5	-0,145100
18,842000	0,5	-0,149400
18,850333	0,5	-0,146200
18,858667	0,5	-0,145800
18,867000	0,5	-0,136600
18,875333	0,5	-0,141200
18,883667	0,5	-0,139150
18,892000	0,5	-0,125500
18,900333	0,5	-0,129900
18,908667	0,5	-0,119350
18,917000	0,5	-0,101850
18,925333	0,5	-0,096600
18,933667	0,5	-0,094300
18,942000	0,5	-0,101250
18,950333	0,5	-0,099650
18,958667	0,5	-0,079000
18,967000	0,5	-0,080500
18,975333	0,5	-0,067600
18,983667	0,5	-0,063650
18,992000	0,5	-0,050100
19,000333	0,5	-0,051700
19,008667	0,5	-0,045000
19,017000	0,5	-0,047950
19,025333	0,5	-0,048450
19,033667	0,5	-0,046500
19,042000	0,5	-0,042650
19,050333	0,5	-0,069350
19,058667	0,5	-0,063700
19,067000	0,5	-0,074100
19,075333	0,5	-0,082600
19,083667	0,5	-0,100350
19,092000	0,5	-0,133200
19,100333	0,5	-0,140200
19,108667	0,5	-0,156200
19,117000	0,5	-0,169300
19,125333	0,5	-0,184050
19,133667	0,5	-0,190400
19,142000	0,5	-0,208900
19,150333	0,5	-0,214000
19,158667	0,5	-0,228250
19,167000	0,5	-0,239500
19,175333	0,5	-0,253900
19,183667	0,5	-0,256200
19,192000	0,5	-0,273550
19,200333	0,5	-0,289950
19,208667	0,5	-0,290250
19,217000	0,5	-0,302750
19,225333	0,5	-0,316650
19,233667	0,5	-0,339550
19,242000	0,5	-0,363150
19,250333	0,5	-0,368450
19,258667	0,5	-0,373250
19,267000	0,5	-0,380400
19,275333	0,5	-0,385650
19,283667	0,5	-0,395850
19,292000	0,5	-0,397650
19,300333	0,5	-0,405600
19,308667	0,5	-0,404450
19,317000	0,5	-0,411600
19,325333	0,5	-0,412500
19,333667	0,5	-0,416850
19,342000	0,5	-0,425100
19,350333	0,5	-0,432350
19,358667	0,5	-0,419500
19,367000	0,5	-0,425650
19,375333	0,5	-0,425000
19,383667	0,5	-0,440050
19,392000	0,5	-0,446000
19,400333	0,5	-0,445600
19,408667	0,5	-0,443300
19,417000	0,5	-0,447650
19,425333	0,5	-0,458350
19,433667	0,5	-0,466450
19,442000	0,5	-0,479950
19,450333	0,5	-0,487350
19,458667	0,5	-0,507800
19,467000	0,5	-0,523350
19,475333	0,5	-0,530750
19,483667	0,5	-0,542000
19,492000	0,5	-0,566000
19,500333	0,5	-0,568750
19,508667	0,5	-0,575450
19,517000	0,5	-0,580800
19,525333	0,5	-0,604900
19,533667	0,5	-0,622550
19,542000	0,5	-0,629600
19,550333	0,5	-0,631350
19,558667	0,5	-0,638200
19,567000	0,5	-0,639050
19,575333	0,5	-0,648200
19,583667	0,5	-0,652700
19,592000	0,5	-0,660100
19,600333	0,5	-0,663400
19,608667	0,5	-0,671400
19,617000	0,5	-0,680350
19,625333	0,5	-0,671950
19,633667	0,5	-0,689150
19,642000	0,5	-0,694000
19,650333	0,5	-0,694700
19,658667	0,5	-0,697900
19,667000	0,5	-0,713400
19,675333	0,5	-0,731300
19,683667	0,5	-0,747550
19,692000	0,5	-0,749200
19,700333	0,5	-0,759500
19,708667	0,5	-0,761600
19,717000	0,5	-0,765250
19,725333	0,5	-0,770700
19,733667	0,5	-0,779300
19,742000	0,5	-0,783950
19,750333	0,5	-0,787300
19,758667	0,5	-0,799300
19,767000	0,5	-0,795900
19,775333	0,5	-0,797800
19,783667	0,5	-0,820000
19,792000	0,5	-0,812300
19,800333	0,5	-0,810250
19,808667	0,5	-0,822100
19,817000	0,5	-0,829300
19,825333	0,5	-0,860150
19,833667	0,5	-0,858250
19,842000	0,5	-0,864300
19,850333	0,5	-0,862550
19,858667	0,5	-0,876050
19,867000	0,5	-0,873900
19,875333	0,5	-0,885250
19,883667	0,5	-0,885150
19,892000	0,5	-0,892150
19,900333	0,5	-0,898600
19,908667	0,5	-0,900550
19,917000	0,5	-0,898550
19,925333	0,5	-0,898900
19,933667	0,5	-0,919500
19,942000	0,5	-0,908350
19,950333	0,5	-0,917000
19,958667	0,5	-0,923350
19,967000	0,5	-0,941900
19,975333	0,5	-0,963850
19,983667	0,5	-0,962650
19,992000	0,5	-0,959300
20,000333	0,5	-0,964150
20,008667	0,5	-0,964200
20,017000	0,5	-0,973900
20,025333	0,5	-0,973900
20,033667	0,5	-0,975450
20,042000	0,5	-0,975350
20,050333	0,5	-0,977200
20,058667	0,5	-0,980200
20,067000	0,5	-0,973750
20,075333	0,5	-0,981950
20,083667	0,5	-0,992600
20,092000	0,5	-0,990250
20,100333	0,5	-0,995250
20,108667	0,5	-1,006750
20,117000	0,5	-1,023700
20,125333	0,5	-1,038950
20,133667	0,5	-1,029250
20,142000	0,5	-1,037700
20,150333	0,5	-1,034850
20,158667	0,5	-1,036150
20,167000	0,5	-1,035950
20,175333	0,5	-1,042450
20,183667	0,5	-1,044100
20,192000	0,5	-1,056250
20,200333	0,5	-1,068800
20,208667	0,5	-1,065050
20,217000	0,5	-1,067250
20,225333	0,5	-1,089250
20,233667	0,5	-1,086950
20,242000	0,5	-1,091950
20,250333	0,5	-1,101700
20,258667	0,5	-1,116350
20,267000	0,5	-1,140150
20,275333	0,5	-1,140000
20,283667	0,5	-1,143050
20,292000	0,5	-1,138350
20,300333	0,5	-1,142500
20,308667	0,5	-1,142500
20,317000	0,5	-1,147000
20,325333	0,5	-1,140600
20,333667	0,5	-1,143450
20,342000	0,5	-1,141600
20,350333	0,5	-1,143200
20,358667	0,5	-1,123950
20,367000	0,5	-1,131100
20,375333	0,5	-1,140150
20,383667	0,5	-1,133900
20,392000	0,5	-1,143300
20,400333	0,5	-1,144800
20,408667	0,5	-1,166700
20,417000	0,5	-1,174650
20,425333	0,5	-1,182550
20,433667	0,5	-1,176050
20,442000	0,5	-1,179250
20,450333	0,5	-1,175550
20,458667	0,5	-1,177500
20,467000	0,5	-1,176650
20,475333	0,5	-1,170800
20,483667	0,5	-1,165200
20,492000	0,5	-1,171550
20,500333	0,5	-1,152400
20,508667	0,5	-1,140600
20,517000	0,5	-1,145050
20,525333	0,5	-1,151300
20,533667	0,5	-1,150450
20,542000	0,5	-1,156300
20,550333	0,5	-1,165550
20,558667	0,5	-1,185550
20,567000	0,5	-1,190050
20,575333	0,5	-1,180600
20,583667	0,5	-1,180900
20,592000	0,5	-1,171800
20,600333	0,5	-1,168300
20,608667	0,5	-1,158900
20,617000	0,5	-1,159300
20,625333	0,5	-1,144800
20,633667	0,5	-1,145350
20,642000	0,5	-1,141300
20,650333	0,5	-1,110900
20,658667	0,5	-1,100050
20,667000	0,5	-1,111850
20,675333	0,5	-1,109600
20,683667	0,5	-1,115400
20,692000	0,5	-1,131000
20,700333	0,5	-1,148050
20,708667	0,5	-1,167950
20,717000	0,5	-1,163550
20,725333	0,5	-1,171350
20,733667	0,5	-1,176050
20,742000	0,5	-1,183000
20,750333	0,5	-1,179850
20,758667	0,5	-1,187250
20,767000	0,5	-1,180600
20,775333	0,5	-1,186000
20,783667	0,5	-1,182400
20,792000	0,5	-1,179200
20,800333	0,5	-1,156800
20,808667	0,5	-1,151900
20,817000	0,5	-1,167150
20,825333	0,5	-1,172500
20,833667	0,5	-1,175200
20,842000	0,5	-1,190750
20,850333	0,5	-1,212400
20,858667	0,5	-1,214800
20,867000	0,5	-1,215400
20,875333	0,5	-1,213350
20,883667	0,5	-1,215450
20,892000	0,5	-1,214600
20,900333	0,5	-1,216750
20,908667	0,5	-1,208450
20,917000	0,5	-1,212100
20,925333	0,5	-1,208650
20,933667	0,5	-1,213750
20,942000	0,5	-1,185000
20,950333	0,5	-1,166700
20,958667	0,5	-1,166950
20,967000	0,5	-1,170200
20,975333	0,5	-1,172450
20,983667	0,5	-1,174450
20,992000	0,5	-1,180600
21,000333	0,5	-1,199350
21,008667	0,5	-1,192250
21,017000	0,5	-1,185000
21,025333	0,5	-1,179900
21,033667	0,5	-1,178850
21,042000	0,5	-1,170000
21,050333	0,5	-1,164900
21,058667	0,5	-1,162800
21,067000	0,5	-1,158250
21,075333	0,5	-1,157900
21,083667	0,5	-1,145200
21,092000	0,5	-1,120050
21,100333	0,5	-1,103350
21,108667	0,5	-1,115150
21,117000	0,5	-1,112850
21,125333	0,5	-1,119250
21,133667	0,5	-1,123550
21,142000	0,5	-1,132350
21,150333	0,5	-1,146050
21,158667	0,5	-1,133050
21,167000	0,5	-1,130100
21,175333	0,5	-1,126050
21,183667	0,5	-1,120300
21,192000	0,5	-1,114900
21,200333	0,5	-1,109600
21,208667	0,5	-1,104000
21,217000	0,5	-1,104100
21,225333	0,5	-1,099600
21,233667	0,5	-1,073550
21,242000	0,5	-1,048600
21,250333	0,5	-1,036950
21,258667	0,5	-1,037950
21,267000	0,5	-1,032200
21,275333	0,5	-1,033450
21,283667	0,5	-1,044550
21,292000	0,5	-1,052600
21,300333	0,5	-1,051350
21,308667	0,5	-1,043100
21,317000	0,5	-1,036900
21,325333	0,5	-1,028600
21,333667	0,5	-1,018250
21,342000	0,5	-1,009300
21,350333	0,5	-0,998800
21,358667	0,5	-0,993400
21,367000	0,5	-0,975550
21,375333	0,5	-0,971750
21,383667	0,5	-0,928950
21,392000	0,5	-0,911150
21,400333	0,5	-0,905900
21,408667	0,5	-0,902600
21,417000	0,5	-0,905550
21,425333	0,5	-0,909500
21,433667	0,5	-0,918550
21,442000	0,5	-0,924150
21,450333	0,5	-0,922800
21,458667	0,5	-0,916300
21,467000	0,5	-0,903000
21,475333	0,5	-0,894450
21,483667	0,5	-0,884500
21,492000	0,5	-0,874700
21,500333	0,5	-0,863600
21,508667	0,5	-0,849300
21,517000	0,5	-0,842300
21,525333	0,5	-0,813650
21,533667	0,5	-0,784000
21,542000	0,5	-0,772050
21,550333	0,5	-0,764850
21,558667	0,5	-0,756450
21,567000	0,5	-0,754100
21,575333	0,5	-0,749050
21,583667	0,5	-0,754350
21,592000	0,5	-0,737150
21,600333	0,5	-0,709000
21,608667	0,5	-0,683600
21,617000	0,5	-0,653100
21,625333	0,5	-0,621300
21,633667	0,5	-0,582200
21,642000	0,5	-0,552850
21,650333	0,5	-0,529150
21,658667	0,5	-0,528850
21,667000	0,5	-0,527200
21,675333	0,5	-0,512400
21,683667	0,5	-0,504900
21,692000	0,5	-0,509700
21,700333	0,5	-0,508500
21,708667	0,5	-0,503750
21,717000	0,5	-0,505700
21,725333	0,5	-0,510250
21,733667	0,5	-0,504150
21,742000	0,5	-0,487600
21,750333	0,5	-0,470300
21,758667	0,5	-0,457250
21,767000	0,5	-0,438950
21,775333	0,5	-0,426450
21,783667	0,5	-0,404100
21,792000	0,5	-0,378600
21,800333	0,5	-0,354000
21,808667	0,5	-0,330700
21,817000	0,5	-0,298450
21,825333	0,5	-0,255300
21,833667	0,5	-0,235650
21,842000	0,5	-0,210900
21,850333	0,5	-0,192800
21,858667	0,5	-0,170400
21,867000	0,5	-0,163150
21,875333	0,5	-0,149550
21,883667	0,5	-0,123400
21,892000	0,5	-0,090300
21,900333	0,5	-0,071700
21,908667	0,5	-0,049950
21,917000	0,5	-0,028800
21,925333	0,5	-0,013300
21,933667	0,5	0,007100
21,942000	0,5	0,024950
21,950333	0,5	0,052450
21,958667	0,5	0,069750
21,967000	0,5	0,109850
21,975333	0,5	0,138950
21,983667	0,5	0,148700
21,992000	0,5	0,179050
22,000333	0,5	0,203250
22,008667	0,5	0,219800
22,017000	0,5	0,240450
22,025333	0,5	0,250750
22,033667	0,5	0,294400
22,042000	0,5	0,329900
22,050333	0,5	0,368900
22,058667	0,5	0,398250
22,067000	0,5	0,427600
22,075333	0,5	0,465300
22,083667	0,5	0,498350
22,092000	0,5	0,534050
22,100333	0,5	0,562050
22,108667	0,5	0,604750
22,117000	0,5	0,646400
22,125333	0,5	0,682600
22,133667	0,5	0,713300
22,142000	0,5	0,768000
22,150333	0,5	0,803950
22,158667	0,5	0,846850
22,167000	0,5	0,876050
22,175333	0,5	0,913300
22,183667	0,5	0,972350
22,192000	0,5	1,024450
22,200333	0,5	1,075550
22,208667	0,5	1,127050
22,217000	0,5	1,177950
22,225333	0,5	1,228500
22,233667	0,5	1,280700
22,242000	0,5	1,322150
22,250333	0,5	1,369800
22,258667	0,5	1,413250
22,267000	0,5	1,471350
22,275333	0,5	1,516650
22,283667	0,5	1,591350
22,292000	0,5	1,640550
22,300333	0,5	1,697650
22,308667	0,5	1,738800
22,317000	0,5	1,784600
22,325333	0,5	1,834800
22,333667	0,5	1,892800
22,342000	0,5	1,938950
22,350333	0,5	1,991100
22,358667	0,5	2,046550
22,367000	0,5	2,100750
22,375333	0,5	2,161100
22,383667	0,5	2,213200
22,392000	0,5	2,277600
22,400333	0,5	2,333050
22,408667	0,5	2,386000
22,417000	0,5	2,436100
22,425333	0,5	2,515200
22,433667	0,5	2,590700
22,442000	0,5	2,657500
22,450333	0,5	2,717600
22,458667	0,5	2,780300
22,467000	0,5	2,843050
22,475333	0,5	2,926200
22,483667	0,5	3,001700
22,492000	0,5	3,080200
22,500333	0,5	3,156450
22,508667	0,5	3,231450
22,517000	0,5	3,309550
22,525333	0,5	3,383950
22,533667	0,5	3,459650
22,542000	0,5	3,530800
22,550333	0,5	3,589300
22,558667	0,5	3,653500
22,567000	0,5	3,746150
22,575333	0,5	3,834350
22,583667	0,5	3,910150
22,592000	0,5	3,963000
22,600333	0,5	4,019300
22,608667	0,5	4,049400
22,617000	0,5	4,107000
22,625333	0,5	4,152550
22,633667	0,5	4,204000
22,642000	0,5	4,240800
22,650333	0,5	4,277150
22,658667	0,5	4,304100
22,667000	0,5	4,320800
22,675333	0,5	4,334200
22,683667	0,5	4,328400
22,692000	0,5	4,324350
22,700333	0,5	4,253200
22,708667	0,5	4,243750
22,717000	0,5	4,224600
22,725333	0,5	4,192350
22,733667	0,5	4,132300
22,742000	0,5	4,059150
22,750333	0,5	3,968250
22,758667	0,5	3,877850
22,767000	0,5	3,786400
22,775333	0,5	3,686000
22,783667	0,5	3,565300
22,792000	0,5	3,452200
22,800333	0,5	3,324800
22,808667	0,5	3,194800
22,817000	0,5	3,055600
22,825333	0,5	2,910600
22,833667	0,5	2,755900
22,842000	0,5	2,579100
22,850333	0,5	2,394200
22,858667	0,5	2,229000
22,867000	0,5	2,083850
22,875333	0,5	1,903400
22,883667	0,5	1,718500
22,892000	0,5	1,539550
22,900333	0,5	1,362450
22,908667	0,5	1,182450
22,917000	0,5	1,005250
22,925333	0,5	0,838500
22,933667	0,5	0,670450
22,942000	0,5	0,508850
22,950333	0,5	0,347050
22,958667	0,5	0,193150
22,967000	0,5	0,035550
22,975333	0,5	-0,122350
22,983667	0,5	-0,267050
22,992000	0,5	-0,407700
23,000333	0,5	-0,548850
23,008667	0,5	-0,698100
23,017000	0,5	-0,860800
23,025333	0,5	-0,995350
23,033667	0,5	-1,113400
23,042000	0,5	-1,223400
23,050333	0,5	-1,318800
23,058667	0,5	-1,432050
23,067000	0,5	-1,523600
23,075333	0,5	-1,610150
23,083667	0,5	-1,680900
23,092000	0,5	-1,759000
23,100333	0,5	-1,822800
23,108667	0,5	-1,895000
23,117000	0,5	-1,961400
23,125333	0,5	-2,023000
23,133667	0,5	-2,065750
23,142000	0,5	-2,131650
23,150333	0,5	-2,163950
23,158667	0,5	-2,234000
23,167000	0,5	-2,306850
23,175333	0,5	-2,339950
23,183667	0,5	-2,372150
23,192000	0,5	-2,385600
23,200333	0,5	-2,402150
23,208667	0,5	-2,418050
23,217000	0,5	-2,433100
23,225333	0,5	-2,431850
23,233667	0,5	-2,432000
23,242000	0,5	-2,422850
23,250333	0,5	-2,425750
23,258667	0,5	-2,418600
23,267000	0,5	-2,416950
23,275333	0,5	-2,410000
23,283667	0,5	-2,395150
23,292000	0,5	-2,418050
23,300333	0,5	-2,374150
23,308667	0,5	-2,387650
23,317000	0,5	-2,406000
23,325333	0,5	-2,399250
23,333667	0,5	-2,386200
23,342000	0,5	-2,365600
23,350333	0,5	-2,341650
23,358667	0,5	-2,326300
23,367000	0,5	-2,302050
23,375333	0,5	-2,275750
23,383667	0,5	-2,243400
23,392000	0,5	-2,212000
23,400333	0,5	-2,178200
23,408667	0,5	-2,150750
23,417000	0,5	-2,119000
23,425333	0,5	-2,096900
23,433667	0,5	-2,119700
23,442000	0,5	-2,071900
23,450333	0,5	-2,017300
23,458667	0,5	-1,999550
23,467000	0,5	-1,999750
23,475333	0,5	-1,987400
23,483667	0,5	-1,966200
23,492000	0,5	-1,949350
23,500333	0,5	-1,933050
23,508667	0,5	-1,915400
23,517000	0,5	-1,898050
23,525333	0,5	-1,878300
23,533667	0,5	-1,857200
23,542000	0,5	-1,835850
23,550333	0,5	-1,817150
23,558667	0,5	-1,795700
23,567000	0,5	-1,778700
23,575333	0,5	-1,780450
23,583667	0,5	-1,837050
23,592000	0,5	-1,807400
23,600333	0,5	-1,730300
23,608667	0,5	-1,703000
23,617000	0,5	-1,696050
23,625333	0,5	-1,691150
23,633667	0,5	-1,683650
23,642000	0,5	-1,674950
23,650333	0,5	-1,665850
23,658667	0,5	-1,657550
23,667000	0,5	-1,646550
23,675333	0,5	-1,637250
23,683667	0,5	-1,629650
23,692000	0,5	-1,625150
23,700333	0,5	-1,616150
23,708667	0,5	-1,612150
23,717000	0,5	-1,610800
23,725333	0,5	-1,716100
23,733667	0,5	-1,725000
23,742000	0,5	-1,693350
23,750333	0,5	-1,633550
23,758667	0,5	-1,614450
23,767000	0,5	-1,615250
23,775333	0,5	-1,614750
23,783667	0,5	-1,628050
23,792000	0,5	-1,614950
23,800333	0,5	-1,603350
23,808667	0,5	-1,594400
23,817000	0,5	-1,589150
23,825333	0,5	-1,577900
23,833667	0,5	-1,568150
23,842000	0,5	-1,555850
23,850333	0,5	-1,543500
23,858667	0,5	-1,538600
23,867000	0,5	-1,536750
23,875333	0,5	-1,688450
23,883667	0,5	-1,634050
23,892000	0,5	-1,615300
23,900333	0,5	-1,553300
23,908667	0,5	-1,542850
23,917000	0,5	-1,534450
23,925333	0,5	-1,537300
23,933667	0,5	-1,546450
23,942000	0,5	-1,541350
23,950333	0,5	-1,527550
23,958667	0,5	-1,528800
23,967000	0,5	-1,514200
23,975333	0,5	-1,511100
23,983667	0,5	-1,497450
23,992000	0,5	-1,484950
24,000333	0,5	-1,472250
24,008667	0,5	-1,464850
24,017000	0,5	-1,525150
24,025333	0,5	-1,583550
24,033667	0,5	-1,541100
24,042000	0,5	-1,494750
24,050333	0,5	-1,440350
24,058667	0,5	-1,423850
24,067000	0,5	-1,416700
24,075333	0,5	-1,408750
24,083667	0,5	-1,416550
24,092000	0,5	-1,389450
24,100333	0,5	-1,378250
24,108667	0,5	-1,356450
24,117000	0,5	-1,346250
24,125333	0,5	-1,324600
24,133667	0,5	-1,315450
24,142000	0,5	-1,298600
24,150333	0,5	-1,288750
24,158667	0,5	-1,278300
24,167000	0,5	-1,374050
24,175333	0,5	-1,374850
24,183667	0,5	-1,338900
24,192000	0,5	-1,291050
24,200333	0,5	-1,257750
24,208667	0,5	-1,242000
24,217000	0,5	-1,234600
24,225333	0,5	-1,238450
24,233667	0,5	-1,230000
24,242000	0,5	-1,217700
24,250333	0,5	-1,189600
24,258667	0,5	-1,175600
24,267000	0,5	-1,154400
24,275333	0,5	-1,137000
24,283667	0,5	-1,109700
24,292000	0,5	-1,090400
24,300333	0,5	-1,074300
24,308667	0,5	-1,067400
24,317000	0,5	-1,150450
24,325333	0,5	-1,122250
24,333667	0,5	-1,083550
24,342000	0,5	-1,041500
24,350333	0,5	-1,009850
24,358667	0,5	-1,000250
24,367000	0,5	-0,994000
24,375333	0,5	-0,994200
24,383667	0,5	-0,995500
24,392000	0,5	-0,976700
24,400333	0,5	-0,966250
24,408667	0,5	-0,946450
24,417000	0,5	-0,935600
24,425333	0,5	-0,921650
24,433667	0,5	-0,909600
24,442000	0,5	-0,891400
24,450333	0,5	-0,881000
24,458667	0,5	-0,895550
24,467000	0,5	-0,930350
24,475333	0,5	-0,905800
24,483667	0,5	-0,869550
24,492000	0,5	-0,835150
24,500333	0,5	-0,818450
24,508667	0,5	-0,803950
24,517000	0,5	-0,804750
24,525333	0,5	-0,798150
24,533667	0,5	-0,780400
24,542000	0,5	-0,764550
24,550333	0,5	-0,752400
24,558667	0,5	-0,736300
24,567000	0,5	-0,720500
24,575333	0,5	-0,708800
24,583667	0,5	-0,695550
24,592000	0,5	-0,685650
24,600333	0,5	-0,673000
24,608667	0,5	-0,717750
24,617000	0,5	-0,706200
24,625333	0,5	-0,700400
24,633667	0,5	-0,670800
24,642000	0,5	-0,651050
24,650333	0,5	-0,638650
24,658667	0,5	-0,633950
24,667000	0,5	-0,637450
24,675333	0,5	-0,629050
24,683667	0,5	-0,616650
24,692000	0,5	-0,605450
24,700333	0,5	-0,594650
24,708667	0,5	-0,582900
24,717000	0,5	-0,566950
24,725333	0,5	-0,556100
24,733667	0,5	-0,543450
24,742000	0,5	-0,531100
24,750333	0,5	-0,528900
24,758667	0,5	-0,553350
24,767000	0,5	-0,531750
24,775333	0,5	-0,521800
24,783667	0,5	-0,498500
24,792000	0,5	-0,483650
24,800333	0,5	-0,475450
24,808667	0,5	-0,470800
24,817000	0,5	-0,480650
24,825333	0,5	-0,467100
24,833667	0,5	-0,461550
24,842000	0,5	-0,449750
24,850333	0,5	-0,446150
24,858667	0,5	-0,437950
24,867000	0,5	-0,433200
24,875333	0,5	-0,422050
24,883667	0,5	-0,414550
24,892000	0,5	-0,409300
24,900333	0,5	-0,412300
24,908667	0,5	-0,423450
24,917000	0,5	-0,407300
24,925333	0,5	-0,401850
24,933667	0,5	-0,380600
24,942000	0,5	-0,375750
24,950333	0,5	-0,363450
24,958667	0,5	-0,360800
24,967000	0,5	-0,361250
24,975333	0,5	-0,353800
24,983667	0,5	-0,341800
24,992000	0,5	-0,336050
25,000333	0,5	-0,329450
25,008667	0,5	-0,320700
25,017000	0,5	-0,315500
25,025333	0,5	-0,307900
25,033667	0,5	-0,301650
25,042000	0,5	-0,297650
25,050333	0,5	-0,310050
25,058667	0,5	-0,302650
25,067000	0,5	-0,295350
25,075333	0,5	-0,290150
25,083667	0,5	-0,279950
25,092000	0,5	-0,276700
25,100333	0,5	-0,274500
25,108667	0,5	-0,276000
25,117000	0,5	-0,275150
25,125333	0,5	-0,269200
25,133667	0,5	-0,263600
25,142000	0,5	-0,259150
25,150333	0,5	-0,253200
25,158667	0,5	-0,249150
25,167000	0,5	-0,238850
25,175333	0,5	-0,235250
25,183667	0,5	-0,229750
25,192000	0,5	-0,223350
25,200333	0,5	-0,223300
25,208667	0,5	-0,216150
25,217000	0,5	-0,211800
25,225333	0,5	-0,209250
25,233667	0,5	-0,203150
25,242000	0,5	-0,202300
25,250333	0,5	-0,202150
25,258667	0,5	-0,202450
25,267000	0,5	-0,199950
25,275333	0,5	-0,199050
25,283667	0,5	-0,196000
25,292000	0,5	-0,194250
25,300333	0,5	-0,193550
25,308667	0,5	-0,190050
25,317000	0,5	-0,187100
25,325333	0,5	-0,182650
25,333667	0,5	-0,183150
25,342000	0,5	-0,178900
25,350333	0,5	-0,172750
25,358667	0,5	-0,170850
25,367000	0,5	-0,168550
25,375333	0,5	-0,166700
25,383667	0,5	-0,161600
25,392000	0,5	-0,160150
25,400333	0,5	-0,157050
25,408667	0,5	-0,155950
25,417000	0,5	-0,153250
25,425333	0,5	-0,149400
25,433667	0,5	-0,146050
25,442000	0,5	-0,146400
25,450333	0,5	-0,145000
25,458667	0,5	-0,142800
25,467000	0,5	-0,144400
25,475333	0,5	-0,137700
25,483667	0,5	-0,137750
25,492000	0,5	-0,135850
25,500333	0,5	-0,130400
25,508667	0,5	-0,131200
25,517000	0,5	-0,132500
25,525333	0,5	-0,133650
25,533667	0,5	-0,133850
25,542000	0,5	-0,133150
25,550333	0,5	-0,129300
25,558667	0,5	-0,130050
25,567000	0,5	-0,126900
25,575333	0,5	-0,121550
25,583667	0,5	-0,121500
25,592000	0,5	-0,118500
25,600333	0,5	-0,117000
25,608667	0,5	-0,115200
25,617000	0,5	-0,115850
25,625333	0,5	-0,109950
25,633667	0,5	-0,110750
25,642000	0,5	-0,102750
25,650333	0,5	-0,105900
25,658667	0,5	-0,098200
25,667000	0,5	-0,106350
25,675333	0,5	-0,103600
25,683667	0,5	-0,104600
25,692000	0,5	-0,104400
25,700333	0,5	-0,099600
25,708667	0,5	-0,101850
25,717000	0,5	-0,101400
25,725333	0,5	-0,099100
25,733667	0,5	-0,100800
25,742000	0,5	-0,097200
25,750333	0,5	-0,097750
25,758667	0,5	-0,094500
25,767000	0,5	-0,093850
25,775333	0,5	-0,090450
25,783667	0,5	-0,084500
25,792000	0,5	-0,076550
25,800333	0,5	-0,076150
25,808667	0,5	-0,068100
25,817000	0,5	-0,076350
25,825333	0,5	-0,073650
25,833667	0,5	-0,070900
25,842000	0,5	-0,066800
25,850333	0,5	-0,053950
25,858667	0,5	-0,059600
25,867000	0,5	-0,054600
25,875333	0,5	-0,055750
25,883667	0,5	-0,051950
25,892000	0,5	-0,054600
25,900333	0,5	-0,053950
25,908667	0,5	-0,056100
25,917000	0,5	-0,055150
25,925333	0,5	-0,054300
25,933667	0,5	-0,051600
25,942000	0,5	-0,047950
25,950333	0,5	-0,044250
25,958667	0,5	-0,042400
25,967000	0,5	-0,051200
25,975333	0,5	-0,049050
25,983667	0,5	-0,046600
25,992000	0,5	-0,037150
26,000333	0,5	-0,030350
