File Path	chrom://chromeleon01/ikbm_chromeleon/2022/ICS-5000/ED1/Esteban/20220612_Cell_7_4_eg.seq/766.smp/ED_1.channel/ED_1.chm
Channel	ED_1

Injection Information:
Data Vault	ikbm_chromeleon
Injection	7_01h-EGS_1
Injection Number	104
Position	BA4
Comment	
Processing Method	Stop sequence after Cell Death
Instrument Method	ICS5000_PA200_FullNative_Ox_26min_ED1
Type	Unknown
Status	Finished
Injection Date	14.06.2022
Injection Time	17:10:21
Injection Volume (µl)	5,0
Dilution Factor	1,0000
Weight	1,0000

Chromatogram Data Information:
Time Min. (min)	0,000333
Time Max. (min)	26,000333
Data Points	3121
Detector	EDet1
Generating Data System	Chromeleon 7.2.9.11323
Exporting Data System	Chromeleon 7.2.9.0
Operator	Instrument Controller
Signal Quantity	
Signal Unit	nC
Signal Min.	-2,278100
Signal Max.	937,675314
Channel	ED_1
Driver Name	DC-5000
Channel Type	Evaluation
Min. Step (s)	0,5
Max. Step (s)	0,5
Average Step (s)	0,5

Signal Parameter Information:
Signal Info	

Chromatogram Data:
Time (min)	Step (s)	Value (nC)
0,000333	n.a.	-0,023450
0,008667	0,5	-0,089450
0,017000	0,5	-0,078200
0,025333	0,5	-0,048050
0,033667	0,5	-0,045900
0,042000	0,5	-0,037400
0,050333	0,5	-0,040000
0,058667	0,5	-0,031000
0,067000	0,5	-0,034750
0,075333	0,5	-0,031950
0,083667	0,5	-0,040700
0,092000	0,5	-0,047550
0,100333	0,5	-0,045700
0,108667	0,5	-0,061350
0,117000	0,5	-0,062800
0,125333	0,5	-0,052550
0,133667	0,5	-0,051250
0,142000	0,5	-0,072900
0,150333	0,5	-0,063600
0,158667	0,5	-0,059350
0,167000	0,5	-0,026400
0,175333	0,5	-0,011800
0,183667	0,5	-0,010450
0,192000	0,5	-0,025450
0,200333	0,5	-0,017100
0,208667	0,5	-0,028300
0,217000	0,5	-0,026100
0,225333	0,5	-0,037750
0,233667	0,5	-0,038850
0,242000	0,5	-0,038000
0,250333	0,5	-0,038200
0,258667	0,5	-0,052650
0,267000	0,5	-0,053000
0,275333	0,5	-0,036400
0,283667	0,5	-0,051700
0,292000	0,5	-0,053250
0,300333	0,5	0,008750
0,308667	0,5	0,046600
0,317000	0,5	0,024650
0,325333	0,5	-0,015600
0,333667	0,5	-0,051100
0,342000	0,5	-0,051200
0,350333	0,5	-0,047500
0,358667	0,5	-0,040350
0,367000	0,5	-0,040250
0,375333	0,5	-0,038400
0,383667	0,5	-0,044500
0,392000	0,5	-0,039550
0,400333	0,5	-0,041050
0,408667	0,5	-0,047900
0,417000	0,5	-0,042350
0,425333	0,5	-0,019450
0,433667	0,5	-0,046900
0,442000	0,5	-0,049500
0,450333	0,5	-0,043900
0,458667	0,5	-0,023500
0,467000	0,5	0,003850
0,475333	0,5	-0,008950
0,483667	0,5	-0,003500
0,492000	0,5	-0,007300
0,500333	0,5	0,002200
0,508667	0,5	-0,009000
0,517000	0,5	-0,002350
0,525333	0,5	-0,013300
0,533667	0,5	-0,001450
0,542000	0,5	-0,003150
0,550333	0,5	0,006000
0,558667	0,5	-0,011250
0,567000	0,5	0,023300
0,575333	0,5	0,010200
0,583667	0,5	-0,001150
0,592000	0,5	-0,005100
0,600333	0,5	0,012500
0,608667	0,5	0,045750
0,617000	0,5	0,055750
0,625333	0,5	0,047800
0,633667	0,5	0,056400
0,642000	0,5	0,060500
0,650333	0,5	0,061850
0,658667	0,5	0,063350
0,667000	0,5	0,062450
0,675333	0,5	0,068850
0,683667	0,5	0,066550
0,692000	0,5	0,075450
0,700333	0,5	0,074700
0,708667	0,5	0,069450
0,717000	0,5	0,101350
0,725333	0,5	0,092350
0,733667	0,5	0,081150
0,742000	0,5	0,088800
0,750333	0,5	0,097150
0,758667	0,5	0,144300
0,767000	0,5	0,132400
0,775333	0,5	0,129550
0,783667	0,5	0,132900
0,792000	0,5	0,145800
0,800333	0,5	0,145150
0,808667	0,5	0,149850
0,817000	0,5	0,151150
0,825333	0,5	0,151400
0,833667	0,5	0,166550
0,842000	0,5	0,166250
0,850333	0,5	0,172350
0,858667	0,5	0,157400
0,867000	0,5	0,191700
0,875333	0,5	0,165550
0,883667	0,5	0,171200
0,892000	0,5	0,172050
0,900333	0,5	0,197350
0,908667	0,5	0,231800
0,917000	0,5	0,238400
0,925333	0,5	0,227600
0,933667	0,5	0,244750
0,942000	0,5	0,241200
0,950333	0,5	0,244650
0,958667	0,5	0,243800
0,967000	0,5	0,249350
0,975333	0,5	0,250100
0,983667	0,5	0,249100
0,992000	0,5	0,253850
1,000333	0,5	0,244250
1,008667	0,5	0,248550
1,017000	0,5	0,270800
1,025333	0,5	0,246100
1,033667	0,5	0,254300
1,042000	0,5	0,265500
1,050333	0,5	0,287850
1,058667	0,5	0,323700
1,067000	0,5	0,305500
1,075333	0,5	0,318300
1,083667	0,5	0,307300
1,092000	0,5	0,329550
1,100333	0,5	0,315300
1,108667	0,5	0,327350
1,117000	0,5	0,319550
1,125333	0,5	0,324900
1,133667	0,5	0,326800
1,142000	0,5	0,308800
1,150333	0,5	0,301200
1,158667	0,5	0,321850
1,167000	0,5	0,327950
1,175333	0,5	0,314200
1,183667	0,5	0,322350
1,192000	0,5	0,331050
1,200333	0,5	0,362250
1,208667	0,5	0,384750
1,217000	0,5	0,392400
1,225333	0,5	0,383500
1,233667	0,5	0,390850
1,242000	0,5	0,384850
1,250333	0,5	0,391400
1,258667	0,5	0,382450
1,267000	0,5	0,386050
1,275333	0,5	0,382450
1,283667	0,5	0,393000
1,292000	0,5	0,370950
1,300333	0,5	0,380000
1,308667	0,5	0,395650
1,317000	0,5	0,386300
1,325333	0,5	0,374400
1,333667	0,5	0,384900
1,342000	0,5	0,396950
1,350333	0,5	0,432600
1,358667	0,5	0,446250
1,367000	0,5	0,436550
1,375333	0,5	0,441500
1,383667	0,5	0,442200
1,392000	0,5	0,443950
1,400333	0,5	0,447050
1,408667	0,5	0,448800
1,417000	0,5	0,445850
1,425333	0,5	0,449200
1,433667	0,5	0,442250
1,442000	0,5	0,435450
1,450333	0,5	0,438950
1,458667	0,5	0,464050
1,467000	0,5	0,443500
1,475333	0,5	0,439250
1,483667	0,5	0,447150
1,492000	0,5	0,474950
1,500333	0,5	0,494950
1,508667	0,5	0,490400
1,517000	0,5	0,489350
1,525333	0,5	0,498200
1,533667	0,5	0,496300
1,542000	0,5	0,502200
1,550333	0,5	0,512850
1,558667	0,5	0,549900
1,567000	0,5	0,706950
1,575333	0,5	1,058650
1,583667	0,5	1,538600
1,592000	0,5	2,795350
1,600333	0,5	9,379500
1,608667	0,5	35,202151
1,617000	0,5	117,274402
1,625333	0,5	312,891955
1,633667	0,5	605,260109
1,642000	0,5	854,201463
1,650333	0,5	937,675314
1,658667	0,5	846,444013
1,667000	0,5	655,285110
1,675333	0,5	461,382357
1,683667	0,5	318,403405
1,692000	0,5	226,382653
1,700333	0,5	169,013203
1,708667	0,5	133,562502
1,717000	0,5	112,231202
1,725333	0,5	98,983451
1,733667	0,5	88,861451
1,742000	0,5	79,892551
1,750333	0,5	72,277801
1,758667	0,5	65,736401
1,767000	0,5	59,652901
1,775333	0,5	54,051501
1,783667	0,5	49,934651
1,792000	0,5	48,441801
1,800333	0,5	49,868751
1,808667	0,5	53,414451
1,817000	0,5	57,350701
1,825333	0,5	60,282251
1,833667	0,5	61,330751
1,842000	0,5	60,202301
1,850333	0,5	57,218201
1,858667	0,5	53,423951
1,867000	0,5	49,701051
1,875333	0,5	46,532401
1,883667	0,5	43,974551
1,892000	0,5	41,910651
1,900333	0,5	40,165401
1,908667	0,5	38,469601
1,917000	0,5	36,933851
1,925333	0,5	35,705701
1,933667	0,5	34,786351
1,942000	0,5	33,939301
1,950333	0,5	32,924900
1,958667	0,5	31,885450
1,967000	0,5	31,113850
1,975333	0,5	30,751650
1,983667	0,5	30,974550
1,992000	0,5	31,685950
2,000333	0,5	32,382150
2,008667	0,5	32,383450
2,017000	0,5	31,610900
2,025333	0,5	30,482050
2,033667	0,5	29,468450
2,042000	0,5	28,757000
2,050333	0,5	28,415250
2,058667	0,5	28,317150
2,067000	0,5	28,582600
2,075333	0,5	29,290800
2,083667	0,5	30,515650
2,092000	0,5	31,894550
2,100333	0,5	33,069750
2,108667	0,5	34,510301
2,117000	0,5	37,032551
2,125333	0,5	40,687251
2,133667	0,5	44,092601
2,142000	0,5	45,774051
2,150333	0,5	45,516801
2,158667	0,5	43,979151
2,167000	0,5	41,347601
2,175333	0,5	37,778401
2,183667	0,5	34,053201
2,192000	0,5	31,047900
2,200333	0,5	28,995250
2,208667	0,5	27,885800
2,217000	0,5	27,796450
2,225333	0,5	28,863050
2,233667	0,5	30,870600
2,242000	0,5	32,682750
2,250333	0,5	32,863500
2,258667	0,5	31,295650
2,267000	0,5	29,067100
2,275333	0,5	27,152300
2,283667	0,5	25,776500
2,292000	0,5	24,835150
2,300333	0,5	24,205400
2,308667	0,5	23,820550
2,317000	0,5	23,610200
2,325333	0,5	23,446850
2,333667	0,5	23,392200
2,342000	0,5	23,550900
2,350333	0,5	23,950900
2,358667	0,5	24,547450
2,367000	0,5	25,140850
2,375333	0,5	25,581950
2,383667	0,5	26,037650
2,392000	0,5	26,665200
2,400333	0,5	27,475250
2,408667	0,5	27,993100
2,417000	0,5	27,824050
2,425333	0,5	27,072050
2,433667	0,5	26,240550
2,442000	0,5	25,590250
2,450333	0,5	25,178700
2,458667	0,5	24,907950
2,467000	0,5	24,728650
2,475333	0,5	24,635000
2,483667	0,5	24,612400
2,492000	0,5	24,628600
2,500333	0,5	24,567050
2,508667	0,5	24,475250
2,517000	0,5	24,393450
2,525333	0,5	24,358750
2,533667	0,5	24,345800
2,542000	0,5	24,288700
2,550333	0,5	24,235650
2,558667	0,5	24,495650
2,567000	0,5	25,764450
2,575333	0,5	26,870750
2,583667	0,5	26,133500
2,592000	0,5	24,751250
2,600333	0,5	23,880050
2,608667	0,5	23,474050
2,617000	0,5	23,291250
2,625333	0,5	23,186150
2,633667	0,5	23,159500
2,642000	0,5	23,153700
2,650333	0,5	23,130400
2,658667	0,5	23,130100
2,667000	0,5	23,140700
2,675333	0,5	23,163000
2,683667	0,5	23,183500
2,692000	0,5	23,154000
2,700333	0,5	23,137950
2,708667	0,5	23,086250
2,717000	0,5	23,032850
2,725333	0,5	22,947400
2,733667	0,5	22,887450
2,742000	0,5	22,810150
2,750333	0,5	22,768350
2,758667	0,5	22,750700
2,767000	0,5	22,800900
2,775333	0,5	22,941200
2,783667	0,5	23,294200
2,792000	0,5	23,800000
2,800333	0,5	24,474800
2,808667	0,5	25,210950
2,817000	0,5	25,908400
2,825333	0,5	26,490200
2,833667	0,5	26,864650
2,842000	0,5	27,025250
2,850333	0,5	26,989450
2,858667	0,5	26,798250
2,867000	0,5	26,601150
2,875333	0,5	26,656300
2,883667	0,5	27,207250
2,892000	0,5	28,427050
2,900333	0,5	30,185500
2,908667	0,5	32,085750
2,917000	0,5	33,480700
2,925333	0,5	33,966701
2,933667	0,5	33,535850
2,942000	0,5	32,600650
2,950333	0,5	31,953750
2,958667	0,5	32,246500
2,967000	0,5	33,698051
2,975333	0,5	35,996801
2,983667	0,5	38,339151
2,992000	0,5	40,000651
3,000333	0,5	40,497301
3,008667	0,5	39,725351
3,017000	0,5	37,875501
3,025333	0,5	35,360251
3,033667	0,5	32,623350
3,042000	0,5	30,053050
3,050333	0,5	27,926000
3,058667	0,5	26,358900
3,067000	0,5	25,445600
3,075333	0,5	25,262200
3,083667	0,5	25,873450
3,092000	0,5	27,155200
3,100333	0,5	28,933100
3,108667	0,5	30,727600
3,117000	0,5	32,093050
3,125333	0,5	32,613150
3,133667	0,5	32,148500
3,142000	0,5	30,807300
3,150333	0,5	28,901050
3,158667	0,5	26,741400
3,167000	0,5	24,637150
3,175333	0,5	22,788150
3,183667	0,5	21,292200
3,192000	0,5	20,149900
3,200333	0,5	19,294900
3,208667	0,5	18,675000
3,217000	0,5	18,201100
3,225333	0,5	17,853150
3,233667	0,5	17,567200
3,242000	0,5	17,319400
3,250333	0,5	17,128350
3,258667	0,5	16,993300
3,267000	0,5	16,915850
3,275333	0,5	16,906750
3,283667	0,5	16,944750
3,292000	0,5	17,095200
3,300333	0,5	17,302950
3,308667	0,5	17,570550
3,317000	0,5	17,791700
3,325333	0,5	17,907650
3,333667	0,5	17,853900
3,342000	0,5	17,645200
3,350333	0,5	17,305600
3,358667	0,5	16,880000
3,367000	0,5	16,473050
3,375333	0,5	16,144000
3,383667	0,5	15,837450
3,392000	0,5	15,594750
3,400333	0,5	15,413950
3,408667	0,5	15,268600
3,417000	0,5	15,172250
3,425333	0,5	15,050400
3,433667	0,5	14,943600
3,442000	0,5	14,831500
3,450333	0,5	14,741500
3,458667	0,5	14,648350
3,467000	0,5	14,575550
3,475333	0,5	14,499950
3,483667	0,5	14,446200
3,492000	0,5	14,391850
3,500333	0,5	14,361100
3,508667	0,5	14,330600
3,517000	0,5	14,357650
3,525333	0,5	14,449000
3,533667	0,5	14,566500
3,542000	0,5	14,752000
3,550333	0,5	14,976950
3,558667	0,5	15,169150
3,567000	0,5	15,274450
3,575333	0,5	15,213100
3,583667	0,5	15,016150
3,592000	0,5	14,725550
3,600333	0,5	14,386550
3,608667	0,5	14,054050
3,617000	0,5	13,766950
3,625333	0,5	13,540650
3,633667	0,5	13,368350
3,642000	0,5	13,256400
3,650333	0,5	13,179500
3,658667	0,5	13,119400
3,667000	0,5	13,082500
3,675333	0,5	13,058800
3,683667	0,5	13,003150
3,692000	0,5	12,962100
3,700333	0,5	12,920000
3,708667	0,5	12,886550
3,717000	0,5	12,838800
3,725333	0,5	12,747000
3,733667	0,5	12,673650
3,742000	0,5	12,618750
3,750333	0,5	12,571200
3,758667	0,5	12,539550
3,767000	0,5	12,529800
3,775333	0,5	12,524850
3,783667	0,5	12,531000
3,792000	0,5	12,518400
3,800333	0,5	12,488650
3,808667	0,5	12,410750
3,817000	0,5	12,353950
3,825333	0,5	12,253150
3,833667	0,5	12,156200
3,842000	0,5	12,071600
3,850333	0,5	12,014150
3,858667	0,5	11,970850
3,867000	0,5	11,931600
3,875333	0,5	11,865700
3,883667	0,5	11,834950
3,892000	0,5	11,789100
3,900333	0,5	11,750350
3,908667	0,5	11,692150
3,917000	0,5	11,634600
3,925333	0,5	11,567450
3,933667	0,5	11,507700
3,942000	0,5	11,457500
3,950333	0,5	11,394800
3,958667	0,5	11,352950
3,967000	0,5	11,337750
3,975333	0,5	11,292250
3,983667	0,5	11,265050
3,992000	0,5	11,242250
4,000333	0,5	11,221350
4,008667	0,5	11,211200
4,017000	0,5	11,158650
4,025333	0,5	11,110950
4,033667	0,5	11,043150
4,042000	0,5	10,999550
4,050333	0,5	10,932050
4,058667	0,5	10,890750
4,067000	0,5	10,838700
4,075333	0,5	10,799450
4,083667	0,5	10,764800
4,092000	0,5	10,724800
4,100333	0,5	10,691450
4,108667	0,5	10,659100
4,117000	0,5	10,632150
4,125333	0,5	10,576000
4,133667	0,5	10,547000
4,142000	0,5	10,522300
4,150333	0,5	10,527200
4,158667	0,5	10,526150
4,167000	0,5	10,513400
4,175333	0,5	10,485750
4,183667	0,5	10,480000
4,192000	0,5	10,460250
4,200333	0,5	10,450150
4,208667	0,5	10,424300
4,217000	0,5	10,406400
4,225333	0,5	10,378350
4,233667	0,5	10,352200
4,242000	0,5	10,325050
4,250333	0,5	10,288150
4,258667	0,5	10,260500
4,267000	0,5	10,226950
4,275333	0,5	10,170600
4,283667	0,5	10,140850
4,292000	0,5	10,103050
4,300333	0,5	10,087500
4,308667	0,5	10,069900
4,317000	0,5	10,034850
4,325333	0,5	10,009000
4,333667	0,5	9,974850
4,342000	0,5	9,956650
4,350333	0,5	9,926850
4,358667	0,5	9,912450
4,367000	0,5	9,882950
4,375333	0,5	9,873000
4,383667	0,5	9,858750
4,392000	0,5	9,837550
4,400333	0,5	9,818050
4,408667	0,5	9,837900
4,417000	0,5	9,804900
4,425333	0,5	9,784950
4,433667	0,5	9,773200
4,442000	0,5	9,765500
4,450333	0,5	9,771900
4,458667	0,5	9,747550
4,467000	0,5	9,711700
4,475333	0,5	9,682550
4,483667	0,5	9,646150
4,492000	0,5	9,601700
4,500333	0,5	9,568150
4,508667	0,5	9,532800
4,517000	0,5	9,507250
4,525333	0,5	9,478300
4,533667	0,5	9,456350
4,542000	0,5	9,414850
4,550333	0,5	9,397600
4,558667	0,5	9,399750
4,567000	0,5	9,367400
4,575333	0,5	9,338750
4,583667	0,5	9,333550
4,592000	0,5	9,322900
4,600333	0,5	9,336050
4,608667	0,5	9,306600
4,617000	0,5	9,289400
4,625333	0,5	9,272200
4,633667	0,5	9,261500
4,642000	0,5	9,241950
4,650333	0,5	9,232300
4,658667	0,5	9,210350
4,667000	0,5	9,196550
4,675333	0,5	9,188300
4,683667	0,5	9,178550
4,692000	0,5	9,157850
4,700333	0,5	9,148450
4,708667	0,5	9,151500
4,717000	0,5	9,117700
4,725333	0,5	9,106650
4,733667	0,5	9,104950
4,742000	0,5	9,120200
4,750333	0,5	9,136500
4,758667	0,5	9,130650
4,767000	0,5	9,136200
4,775333	0,5	9,158100
4,783667	0,5	9,172750
4,792000	0,5	9,210850
4,800333	0,5	9,251700
4,808667	0,5	9,310700
4,817000	0,5	9,384400
4,825333	0,5	9,476400
4,833667	0,5	9,582000
4,842000	0,5	9,680250
4,850333	0,5	9,808200
4,858667	0,5	9,918300
4,867000	0,5	10,010800
4,875333	0,5	10,095800
4,883667	0,5	10,173100
4,892000	0,5	10,242350
4,900333	0,5	10,278200
4,908667	0,5	10,270800
4,917000	0,5	10,287750
4,925333	0,5	10,283150
4,933667	0,5	10,301100
4,942000	0,5	10,307850
4,950333	0,5	10,340150
4,958667	0,5	10,356050
4,967000	0,5	10,386250
4,975333	0,5	10,398500
4,983667	0,5	10,383400
4,992000	0,5	10,354500
5,000333	0,5	10,326200
5,008667	0,5	10,232500
5,017000	0,5	10,128600
5,025333	0,5	10,005200
5,033667	0,5	9,886750
5,042000	0,5	9,767650
5,050333	0,5	9,630600
5,058667	0,5	9,493950
5,067000	0,5	9,365150
5,075333	0,5	9,260300
5,083667	0,5	9,152600
5,092000	0,5	9,073300
5,100333	0,5	8,990400
5,108667	0,5	8,935300
5,117000	0,5	8,879750
5,125333	0,5	8,841950
5,133667	0,5	8,795900
5,142000	0,5	8,775850
5,150333	0,5	8,759200
5,158667	0,5	8,725800
5,167000	0,5	8,703300
5,175333	0,5	8,695850
5,183667	0,5	8,707800
5,192000	0,5	8,722500
5,200333	0,5	8,720400
5,208667	0,5	8,714250
5,217000	0,5	8,717050
5,225333	0,5	8,723250
5,233667	0,5	8,736400
5,242000	0,5	8,749950
5,250333	0,5	8,772150
5,258667	0,5	8,789500
5,267000	0,5	8,823700
5,275333	0,5	8,844800
5,283667	0,5	8,871250
5,292000	0,5	8,902450
5,300333	0,5	8,918300
5,308667	0,5	8,905650
5,317000	0,5	8,904300
5,325333	0,5	8,882100
5,333667	0,5	8,872900
5,342000	0,5	8,838000
5,350333	0,5	8,789800
5,358667	0,5	8,737450
5,367000	0,5	8,695850
5,375333	0,5	8,649250
5,383667	0,5	8,606650
5,392000	0,5	8,570700
5,400333	0,5	8,532900
5,408667	0,5	8,508800
5,417000	0,5	8,490250
5,425333	0,5	8,474100
5,433667	0,5	8,449800
5,442000	0,5	8,461950
5,450333	0,5	8,428050
5,458667	0,5	8,409700
5,467000	0,5	8,398200
5,475333	0,5	8,396250
5,483667	0,5	8,414750
5,492000	0,5	8,412950
5,500333	0,5	8,399600
5,508667	0,5	8,403850
5,517000	0,5	8,398900
5,525333	0,5	8,394700
5,533667	0,5	8,383700
5,542000	0,5	8,377100
5,550333	0,5	8,370800
5,558667	0,5	8,364050
5,567000	0,5	8,361250
5,575333	0,5	8,337750
5,583667	0,5	8,323850
5,592000	0,5	8,330100
5,600333	0,5	8,297800
5,608667	0,5	8,277100
5,617000	0,5	8,260750
5,625333	0,5	8,248850
5,633667	0,5	8,250000
5,642000	0,5	8,212900
5,650333	0,5	8,200450
5,658667	0,5	8,174700
5,667000	0,5	8,163950
5,675333	0,5	8,144100
5,683667	0,5	8,133500
5,692000	0,5	8,107750
5,700333	0,5	8,097600
5,708667	0,5	8,077300
5,717000	0,5	8,066750
5,725333	0,5	8,040350
5,733667	0,5	8,036200
5,742000	0,5	8,035100
5,750333	0,5	8,015150
5,758667	0,5	8,007700
5,767000	0,5	8,010050
5,775333	0,5	8,017400
5,783667	0,5	8,028400
5,792000	0,5	8,013900
5,800333	0,5	8,008900
5,808667	0,5	8,003150
5,817000	0,5	7,986200
5,825333	0,5	7,975900
5,833667	0,5	7,954950
5,842000	0,5	7,944700
5,850333	0,5	7,929750
5,858667	0,5	7,919900
5,867000	0,5	7,904100
5,875333	0,5	7,883150
5,883667	0,5	7,877650
5,892000	0,5	7,869550
5,900333	0,5	7,847350
5,908667	0,5	7,836600
5,917000	0,5	7,833600
5,925333	0,5	7,846650
5,933667	0,5	7,842800
5,942000	0,5	7,821750
5,950333	0,5	7,808900
5,958667	0,5	7,798850
5,967000	0,5	7,788100
5,975333	0,5	7,774850
5,983667	0,5	7,769750
5,992000	0,5	7,756950
6,000333	0,5	7,756800
6,008667	0,5	7,745650
6,017000	0,5	7,734500
6,025333	0,5	7,718550
6,033667	0,5	7,725300
6,042000	0,5	7,710550
6,050333	0,5	7,699350
6,058667	0,5	7,691300
6,067000	0,5	7,698900
6,075333	0,5	7,707650
6,083667	0,5	7,712400
6,092000	0,5	7,704650
6,100333	0,5	7,700450
6,108667	0,5	7,693450
6,117000	0,5	7,687200
6,125333	0,5	7,683550
6,133667	0,5	7,674200
6,142000	0,5	7,671250
6,150333	0,5	7,660850
6,158667	0,5	7,656300
6,167000	0,5	7,635900
6,175333	0,5	7,634750
6,183667	0,5	7,638450
6,192000	0,5	7,620800
6,200333	0,5	7,610250
6,208667	0,5	7,611200
6,217000	0,5	7,616400
6,225333	0,5	7,628350
6,233667	0,5	7,615900
6,242000	0,5	7,606100
6,250333	0,5	7,592900
6,258667	0,5	7,583350
6,267000	0,5	7,569950
6,275333	0,5	7,565300
6,283667	0,5	7,555100
6,292000	0,5	7,547600
6,300333	0,5	7,542300
6,308667	0,5	7,522400
6,317000	0,5	7,508900
6,325333	0,5	7,517950
6,333667	0,5	7,517200
6,342000	0,5	7,507650
6,350333	0,5	7,508950
6,358667	0,5	7,511300
6,367000	0,5	7,537150
6,375333	0,5	7,546650
6,383667	0,5	7,548650
6,392000	0,5	7,541650
6,400333	0,5	7,546450
6,408667	0,5	7,536200
6,417000	0,5	7,537200
6,425333	0,5	7,523350
6,433667	0,5	7,511850
6,442000	0,5	7,501750
6,450333	0,5	7,492000
6,458667	0,5	7,482950
6,467000	0,5	7,466900
6,475333	0,5	7,471700
6,483667	0,5	7,452300
6,492000	0,5	7,432650
6,500333	0,5	7,422400
6,508667	0,5	7,414600
6,517000	0,5	7,424150
6,525333	0,5	7,414700
6,533667	0,5	7,394450
6,542000	0,5	7,394450
6,550333	0,5	7,376850
6,558667	0,5	7,369350
6,567000	0,5	7,358250
6,575333	0,5	7,347750
6,583667	0,5	7,341500
6,592000	0,5	7,338250
6,600333	0,5	7,330600
6,608667	0,5	7,317100
6,617000	0,5	7,308250
6,625333	0,5	7,325450
6,633667	0,5	7,313950
6,642000	0,5	7,315000
6,650333	0,5	7,321400
6,658667	0,5	7,342100
6,667000	0,5	7,372600
6,675333	0,5	7,377350
6,683667	0,5	7,392750
6,692000	0,5	7,410700
6,700333	0,5	7,434100
6,708667	0,5	7,457300
6,717000	0,5	7,481550
6,725333	0,5	7,510100
6,733667	0,5	7,547200
6,742000	0,5	7,596100
6,750333	0,5	7,669700
6,758667	0,5	7,760700
6,767000	0,5	7,918350
6,775333	0,5	8,145400
6,783667	0,5	8,438200
6,792000	0,5	8,823700
6,800333	0,5	9,290550
6,808667	0,5	9,806100
6,817000	0,5	10,333150
6,825333	0,5	10,778800
6,833667	0,5	11,114750
6,842000	0,5	11,288400
6,850333	0,5	11,287050
6,858667	0,5	11,110650
6,867000	0,5	10,800750
6,875333	0,5	10,393400
6,883667	0,5	9,939400
6,892000	0,5	9,482250
6,900333	0,5	9,042750
6,908667	0,5	8,650150
6,917000	0,5	8,320400
6,925333	0,5	8,050700
6,933667	0,5	7,822700
6,942000	0,5	7,653950
6,950333	0,5	7,529600
6,958667	0,5	7,441950
6,967000	0,5	7,368200
6,975333	0,5	7,299900
6,983667	0,5	7,241600
6,992000	0,5	7,192450
7,000333	0,5	7,149200
7,008667	0,5	7,109100
7,017000	0,5	7,071250
7,025333	0,5	7,037500
7,033667	0,5	7,005200
7,042000	0,5	6,975700
7,050333	0,5	6,949500
7,058667	0,5	6,920300
7,067000	0,5	6,909350
7,075333	0,5	6,883250
7,083667	0,5	6,857250
7,092000	0,5	6,839800
7,100333	0,5	6,828700
7,108667	0,5	6,821700
7,117000	0,5	6,816000
7,125333	0,5	6,795000
7,133667	0,5	6,789000
7,142000	0,5	6,771650
7,150333	0,5	6,762200
7,158667	0,5	6,742700
7,167000	0,5	6,727300
7,175333	0,5	6,710600
7,183667	0,5	6,691300
7,192000	0,5	6,674550
7,200333	0,5	6,646450
7,208667	0,5	6,626650
7,217000	0,5	6,617650
7,225333	0,5	6,592500
7,233667	0,5	6,575750
7,242000	0,5	6,561450
7,250333	0,5	6,557650
7,258667	0,5	6,556200
7,267000	0,5	6,541500
7,275333	0,5	6,523650
7,283667	0,5	6,499750
7,292000	0,5	6,485250
7,300333	0,5	6,465350
7,308667	0,5	6,450450
7,317000	0,5	6,431450
7,325333	0,5	6,417650
7,333667	0,5	6,408700
7,342000	0,5	6,398150
7,350333	0,5	6,379150
7,358667	0,5	6,373700
7,367000	0,5	6,362750
7,375333	0,5	6,340950
7,383667	0,5	6,321100
7,392000	0,5	6,302850
7,400333	0,5	6,294650
7,408667	0,5	6,283550
7,417000	0,5	6,269700
7,425333	0,5	6,263650
7,433667	0,5	6,258900
7,442000	0,5	6,255700
7,450333	0,5	6,249500
7,458667	0,5	6,237850
7,467000	0,5	6,229750
7,475333	0,5	6,219500
7,483667	0,5	6,212950
7,492000	0,5	6,216050
7,500333	0,5	6,246900
7,508667	0,5	6,329000
7,517000	0,5	6,423950
7,525333	0,5	6,508900
7,533667	0,5	6,542300
7,542000	0,5	6,499750
7,550333	0,5	6,423250
7,558667	0,5	6,330500
7,567000	0,5	6,256300
7,575333	0,5	6,206550
7,583667	0,5	6,171250
7,592000	0,5	6,136200
7,600333	0,5	6,096050
7,608667	0,5	6,065050
7,617000	0,5	6,038100
7,625333	0,5	6,011400
7,633667	0,5	5,996100
7,642000	0,5	5,982050
7,650333	0,5	5,966050
7,658667	0,5	5,969600
7,667000	0,5	5,957950
7,675333	0,5	5,953500
7,683667	0,5	5,946200
7,692000	0,5	5,947250
7,700333	0,5	5,945600
7,708667	0,5	5,941600
7,717000	0,5	5,931650
7,725333	0,5	5,936450
7,733667	0,5	5,945850
7,742000	0,5	5,962250
7,750333	0,5	5,988050
7,758667	0,5	6,025200
7,767000	0,5	6,079000
7,775333	0,5	6,150800
7,783667	0,5	6,259400
7,792000	0,5	6,410250
7,800333	0,5	6,626400
7,808667	0,5	6,928800
7,817000	0,5	7,333150
7,825333	0,5	7,879400
7,833667	0,5	8,582500
7,842000	0,5	9,427850
7,850333	0,5	10,370700
7,858667	0,5	11,291300
7,867000	0,5	12,079850
7,875333	0,5	12,609950
7,883667	0,5	12,804300
7,892000	0,5	12,617550
7,900333	0,5	12,094350
7,908667	0,5	11,272850
7,917000	0,5	10,269250
7,925333	0,5	9,222800
7,933667	0,5	8,275650
7,942000	0,5	7,519900
7,950333	0,5	6,977450
7,958667	0,5	6,626650
7,967000	0,5	6,408900
7,975333	0,5	6,289300
7,983667	0,5	6,238700
7,992000	0,5	6,249150
8,000333	0,5	6,311400
8,008667	0,5	6,411850
8,017000	0,5	6,532400
8,025333	0,5	6,645650
8,033667	0,5	6,698250
8,042000	0,5	6,674600
8,050333	0,5	6,579950
8,058667	0,5	6,444900
8,067000	0,5	6,283200
8,075333	0,5	6,126950
8,083667	0,5	5,982100
8,092000	0,5	5,867000
8,100333	0,5	5,778750
8,108667	0,5	5,712500
8,117000	0,5	5,655450
8,125333	0,5	5,616450
8,133667	0,5	5,591400
8,142000	0,5	5,589200
8,150333	0,5	5,619800
8,158667	0,5	5,682600
8,167000	0,5	5,759850
8,175333	0,5	5,794450
8,183667	0,5	5,762250
8,192000	0,5	5,677050
8,200333	0,5	5,577950
8,208667	0,5	5,494800
8,217000	0,5	5,439950
8,225333	0,5	5,405300
8,233667	0,5	5,385700
8,242000	0,5	5,380200
8,250333	0,5	5,378700
8,258667	0,5	5,383450
8,267000	0,5	5,386300
8,275333	0,5	5,390100
8,283667	0,5	5,387950
8,292000	0,5	5,375950
8,300333	0,5	5,352250
8,308667	0,5	5,332750
8,317000	0,5	5,328200
8,325333	0,5	5,334050
8,333667	0,5	5,350300
8,342000	0,5	5,369350
8,350333	0,5	5,376750
8,358667	0,5	5,372300
8,367000	0,5	5,357750
8,375333	0,5	5,341800
8,383667	0,5	5,353150
8,392000	0,5	5,407800
8,400333	0,5	5,490700
8,408667	0,5	5,554300
8,417000	0,5	5,558800
8,425333	0,5	5,503100
8,433667	0,5	5,424450
8,442000	0,5	5,343200
8,450333	0,5	5,269800
8,458667	0,5	5,223700
8,467000	0,5	5,187800
8,475333	0,5	5,167100
8,483667	0,5	5,157500
8,492000	0,5	5,153600
8,500333	0,5	5,158350
8,508667	0,5	5,156450
8,517000	0,5	5,154450
8,525333	0,5	5,140450
8,533667	0,5	5,119650
8,542000	0,5	5,113000
8,550333	0,5	5,103400
8,558667	0,5	5,098150
8,567000	0,5	5,097900
8,575333	0,5	5,096750
8,583667	0,5	5,096550
8,592000	0,5	5,096250
8,600333	0,5	5,108250
8,608667	0,5	5,142800
8,617000	0,5	5,218050
8,625333	0,5	5,315850
8,633667	0,5	5,394300
8,642000	0,5	5,416300
8,650333	0,5	5,383850
8,658667	0,5	5,321600
8,667000	0,5	5,261300
8,675333	0,5	5,215150
8,683667	0,5	5,182700
8,692000	0,5	5,167850
8,700333	0,5	5,156300
8,708667	0,5	5,154150
8,717000	0,5	5,161100
8,725333	0,5	5,184400
8,733667	0,5	5,228650
8,742000	0,5	5,307700
8,750333	0,5	5,442350
8,758667	0,5	5,616400
8,767000	0,5	5,772050
8,775333	0,5	5,828600
8,783667	0,5	5,762600
8,792000	0,5	5,612950
8,800333	0,5	5,448650
8,808667	0,5	5,339000
8,817000	0,5	5,302450
8,825333	0,5	5,303750
8,833667	0,5	5,289450
8,842000	0,5	5,243750
8,850333	0,5	5,183400
8,858667	0,5	5,134400
8,867000	0,5	5,109850
8,875333	0,5	5,095850
8,883667	0,5	5,084850
8,892000	0,5	5,066100
8,900333	0,5	5,046800
8,908667	0,5	5,030850
8,917000	0,5	5,026100
8,925333	0,5	5,028550
8,933667	0,5	5,045850
8,942000	0,5	5,076300
8,950333	0,5	5,125300
8,958667	0,5	5,196100
8,967000	0,5	5,297650
8,975333	0,5	5,424800
8,983667	0,5	5,554000
8,992000	0,5	5,648050
9,000333	0,5	5,678300
9,008667	0,5	5,672250
9,017000	0,5	5,648700
9,025333	0,5	5,619950
9,033667	0,5	5,593250
9,042000	0,5	5,571150
9,050333	0,5	5,545950
9,058667	0,5	5,539800
9,067000	0,5	5,551300
9,075333	0,5	5,576000
9,083667	0,5	5,612600
9,092000	0,5	5,657700
9,100333	0,5	5,711600
9,108667	0,5	5,815100
9,117000	0,5	5,998350
9,125333	0,5	6,311850
9,133667	0,5	6,796900
9,142000	0,5	7,255750
9,150333	0,5	7,359900
9,158667	0,5	7,064700
9,167000	0,5	6,630500
9,175333	0,5	6,393700
9,183667	0,5	6,387700
9,192000	0,5	6,568150
9,200333	0,5	6,861900
9,208667	0,5	7,201950
9,217000	0,5	7,528150
9,225333	0,5	7,789800
9,233667	0,5	7,955500
9,242000	0,5	8,001900
9,250333	0,5	7,927450
9,258667	0,5	7,756200
9,267000	0,5	7,513350
9,275333	0,5	7,241750
9,283667	0,5	6,976600
9,292000	0,5	6,744950
9,300333	0,5	6,575550
9,308667	0,5	6,483900
9,317000	0,5	6,472750
9,325333	0,5	6,525550
9,333667	0,5	6,602300
9,342000	0,5	6,654400
9,350333	0,5	6,646450
9,358667	0,5	6,554150
9,367000	0,5	6,386200
9,375333	0,5	6,171450
9,383667	0,5	5,949250
9,392000	0,5	5,747650
9,400333	0,5	5,587050
9,408667	0,5	5,466000
9,417000	0,5	5,381100
9,425333	0,5	5,320500
9,433667	0,5	5,279850
9,442000	0,5	5,258450
9,450333	0,5	5,255300
9,458667	0,5	5,268750
9,467000	0,5	5,298100
9,475333	0,5	5,321350
9,483667	0,5	5,327250
9,492000	0,5	5,306700
9,500333	0,5	5,261000
9,508667	0,5	5,200000
9,517000	0,5	5,140050
9,525333	0,5	5,079500
9,533667	0,5	5,027000
9,542000	0,5	4,981550
9,550333	0,5	4,937450
9,558667	0,5	4,903600
9,567000	0,5	4,875150
9,575333	0,5	4,850450
9,583667	0,5	4,836550
9,592000	0,5	4,829150
9,600333	0,5	4,826050
9,608667	0,5	4,833050
9,617000	0,5	4,845400
9,625333	0,5	4,871400
9,633667	0,5	4,897800
9,642000	0,5	4,929350
9,650333	0,5	4,959500
9,658667	0,5	4,995850
9,667000	0,5	5,027700
9,675333	0,5	5,054400
9,683667	0,5	5,076350
9,692000	0,5	5,083600
9,700333	0,5	5,075100
9,708667	0,5	5,060800
9,717000	0,5	5,040800
9,725333	0,5	5,035950
9,733667	0,5	5,048700
9,742000	0,5	5,086850
9,750333	0,5	5,164100
9,758667	0,5	5,282900
9,767000	0,5	5,434900
9,775333	0,5	5,613250
9,783667	0,5	5,805600
9,792000	0,5	5,990450
9,800333	0,5	6,163000
9,808667	0,5	6,329100
9,817000	0,5	6,484100
9,825333	0,5	6,642500
9,833667	0,5	6,804950
9,842000	0,5	6,969550
9,850333	0,5	7,134350
9,858667	0,5	7,288400
9,867000	0,5	7,432300
9,875333	0,5	7,566200
9,883667	0,5	7,693550
9,892000	0,5	7,808100
9,900333	0,5	7,920600
9,908667	0,5	8,021100
9,917000	0,5	8,117100
9,925333	0,5	8,190850
9,933667	0,5	8,246500
9,942000	0,5	8,258700
9,950333	0,5	8,216400
9,958667	0,5	8,098650
9,967000	0,5	7,890850
9,975333	0,5	7,594750
9,983667	0,5	7,222700
9,992000	0,5	6,819400
10,000333	0,5	6,416150
10,008667	0,5	6,053300
10,017000	0,5	5,751150
10,025333	0,5	5,514200
10,033667	0,5	5,341350
10,042000	0,5	5,225450
10,050333	0,5	5,161750
10,058667	0,5	5,144350
10,067000	0,5	5,157900
10,075333	0,5	5,182200
10,083667	0,5	5,199850
10,092000	0,5	5,199300
10,100333	0,5	5,179400
10,108667	0,5	5,141750
10,117000	0,5	5,092650
10,125333	0,5	5,038000
10,133667	0,5	4,993200
10,142000	0,5	4,943500
10,150333	0,5	4,903050
10,158667	0,5	4,862150
10,167000	0,5	4,823450
10,175333	0,5	4,789000
10,183667	0,5	4,757700
10,192000	0,5	4,730800
10,200333	0,5	4,712750
10,208667	0,5	4,706450
10,217000	0,5	4,702050
10,225333	0,5	4,704900
10,233667	0,5	4,712800
10,242000	0,5	4,724050
10,250333	0,5	4,738900
10,258667	0,5	4,752150
10,267000	0,5	4,766700
10,275333	0,5	4,781750
10,283667	0,5	4,806950
10,292000	0,5	4,836300
10,300333	0,5	4,868900
10,308667	0,5	4,901550
10,317000	0,5	4,945600
10,325333	0,5	4,990450
10,333667	0,5	5,030000
10,342000	0,5	5,062850
10,350333	0,5	5,077750
10,358667	0,5	5,070300
10,367000	0,5	5,042450
10,375333	0,5	5,005000
10,383667	0,5	4,953050
10,392000	0,5	4,903850
10,400333	0,5	4,853500
10,408667	0,5	4,808300
10,417000	0,5	4,759500
10,425333	0,5	4,710850
10,433667	0,5	4,669050
10,442000	0,5	4,630300
10,450333	0,5	4,604600
10,458667	0,5	4,588450
10,467000	0,5	4,587900
10,475333	0,5	4,598250
10,483667	0,5	4,612150
10,492000	0,5	4,633750
10,500333	0,5	4,652200
10,508667	0,5	4,681200
10,517000	0,5	4,714100
10,525333	0,5	4,754400
10,533667	0,5	4,806700
10,542000	0,5	4,859550
10,550333	0,5	4,911600
10,558667	0,5	4,941700
10,567000	0,5	4,940900
10,575333	0,5	4,909350
10,583667	0,5	4,849400
10,592000	0,5	4,772300
10,600333	0,5	4,690800
10,608667	0,5	4,618500
10,617000	0,5	4,560150
10,625333	0,5	4,510100
10,633667	0,5	4,460300
10,642000	0,5	4,420000
10,650333	0,5	4,380100
10,658667	0,5	4,354150
10,667000	0,5	4,340250
10,675333	0,5	4,336350
10,683667	0,5	4,343900
10,692000	0,5	4,361000
10,700333	0,5	4,389050
10,708667	0,5	4,426700
10,717000	0,5	4,471550
10,725333	0,5	4,536950
10,733667	0,5	4,609050
10,742000	0,5	4,678150
10,750333	0,5	4,721950
10,758667	0,5	4,729400
10,767000	0,5	4,699950
10,775333	0,5	4,633350
10,783667	0,5	4,543150
10,792000	0,5	4,452750
10,800333	0,5	4,366950
10,808667	0,5	4,299350
10,817000	0,5	4,239550
10,825333	0,5	4,184150
10,833667	0,5	4,137450
10,842000	0,5	4,096050
10,850333	0,5	4,069450
10,858667	0,5	4,050800
10,867000	0,5	4,058000
10,875333	0,5	4,070650
10,883667	0,5	4,108200
10,892000	0,5	4,166600
10,900333	0,5	4,242250
10,908667	0,5	4,326200
10,917000	0,5	4,403050
10,925333	0,5	4,437950
10,933667	0,5	4,428750
10,942000	0,5	4,370400
10,950333	0,5	4,285650
10,958667	0,5	4,191600
10,967000	0,5	4,103250
10,975333	0,5	4,026500
10,983667	0,5	3,964250
10,992000	0,5	3,920100
11,000333	0,5	3,881500
11,008667	0,5	3,857100
11,017000	0,5	3,839150
11,025333	0,5	3,841100
11,033667	0,5	3,856600
11,042000	0,5	3,898000
11,050333	0,5	3,949200
11,058667	0,5	4,021200
11,067000	0,5	4,089250
11,075333	0,5	4,129300
11,083667	0,5	4,134150
11,092000	0,5	4,094850
11,100333	0,5	4,023200
11,108667	0,5	3,934250
11,117000	0,5	3,839100
11,125333	0,5	3,758000
11,133667	0,5	3,677200
11,142000	0,5	3,610800
11,150333	0,5	3,543450
11,158667	0,5	3,477950
11,167000	0,5	3,412800
11,175333	0,5	3,351400
11,183667	0,5	3,306100
11,192000	0,5	3,264650
11,200333	0,5	3,239350
11,208667	0,5	3,223100
11,217000	0,5	3,208150
11,225333	0,5	3,191450
11,233667	0,5	3,169200
11,242000	0,5	3,148900
11,250333	0,5	3,141800
11,258667	0,5	3,143400
11,267000	0,5	3,162300
11,275333	0,5	3,179850
11,283667	0,5	3,211200
11,292000	0,5	3,238700
11,300333	0,5	3,268100
11,308667	0,5	3,295300
11,317000	0,5	3,321600
11,325333	0,5	3,353000
11,333667	0,5	3,376450
11,342000	0,5	3,386950
11,350333	0,5	3,395600
11,358667	0,5	3,392800
11,367000	0,5	3,371750
11,375333	0,5	3,343050
11,383667	0,5	3,309100
11,392000	0,5	3,281750
11,400333	0,5	3,258500
11,408667	0,5	3,241050
11,417000	0,5	3,229450
11,425333	0,5	3,226500
11,433667	0,5	3,226150
11,442000	0,5	3,229900
11,450333	0,5	3,235300
11,458667	0,5	3,242700
11,467000	0,5	3,246350
11,475333	0,5	3,246450
11,483667	0,5	3,243300
11,492000	0,5	3,236900
11,500333	0,5	3,237150
11,508667	0,5	3,236950
11,517000	0,5	3,235950
11,525333	0,5	3,234850
11,533667	0,5	3,235650
11,542000	0,5	3,250550
11,550333	0,5	3,270200
11,558667	0,5	3,288200
11,567000	0,5	3,309550
11,575333	0,5	3,327600
11,583667	0,5	3,347800
11,592000	0,5	3,362300
11,600333	0,5	3,382300
11,608667	0,5	3,397200
11,617000	0,5	3,411800
11,625333	0,5	3,424300
11,633667	0,5	3,446200
11,642000	0,5	3,453100
11,650333	0,5	3,474300
11,658667	0,5	3,484300
11,667000	0,5	3,491950
11,675333	0,5	3,494500
11,683667	0,5	3,495350
11,692000	0,5	3,506150
11,700333	0,5	3,517050
11,708667	0,5	3,518150
11,717000	0,5	3,531500
11,725333	0,5	3,533750
11,733667	0,5	3,533950
11,742000	0,5	3,537600
11,750333	0,5	3,538250
11,758667	0,5	3,545700
11,767000	0,5	3,554650
11,775333	0,5	3,577750
11,783667	0,5	3,609750
11,792000	0,5	3,659900
11,800333	0,5	3,740800
11,808667	0,5	3,854400
11,817000	0,5	3,998000
11,825333	0,5	4,168750
11,833667	0,5	4,353300
11,842000	0,5	4,528600
11,850333	0,5	4,654450
11,858667	0,5	4,718650
11,867000	0,5	4,709300
11,875333	0,5	4,630750
11,883667	0,5	4,502550
11,892000	0,5	4,343000
11,900333	0,5	4,183000
11,908667	0,5	4,030250
11,917000	0,5	3,900300
11,925333	0,5	3,796600
11,933667	0,5	3,721000
11,942000	0,5	3,674350
11,950333	0,5	3,652400
11,958667	0,5	3,636850
11,967000	0,5	3,641700
11,975333	0,5	3,651200
11,983667	0,5	3,679350
11,992000	0,5	3,721650
12,000333	0,5	3,768250
12,008667	0,5	3,810500
12,017000	0,5	3,848650
12,025333	0,5	3,870300
12,033667	0,5	3,881750
12,042000	0,5	3,878900
12,050333	0,5	3,865050
12,058667	0,5	3,850000
12,067000	0,5	3,835800
12,075333	0,5	3,832300
12,083667	0,5	3,840900
12,092000	0,5	3,867750
12,100333	0,5	3,912300
12,108667	0,5	3,968000
12,117000	0,5	4,037950
12,125333	0,5	4,115700
12,133667	0,5	4,192700
12,142000	0,5	4,263500
12,150333	0,5	4,305350
12,158667	0,5	4,314500
12,167000	0,5	4,283400
12,175333	0,5	4,222550
12,183667	0,5	4,137250
12,192000	0,5	4,045100
12,200333	0,5	3,956350
12,208667	0,5	3,884800
12,217000	0,5	3,836350
12,225333	0,5	3,799000
12,233667	0,5	3,778050
12,242000	0,5	3,772750
12,250333	0,5	3,767800
12,258667	0,5	3,756750
12,267000	0,5	3,745800
12,275333	0,5	3,724400
12,283667	0,5	3,713250
12,292000	0,5	3,688550
12,300333	0,5	3,660100
12,308667	0,5	3,633550
12,317000	0,5	3,607950
12,325333	0,5	3,584050
12,333667	0,5	3,565750
12,342000	0,5	3,549500
12,350333	0,5	3,539900
12,358667	0,5	3,534700
12,367000	0,5	3,532450
12,375333	0,5	3,516600
12,383667	0,5	3,514250
12,392000	0,5	3,506800
12,400333	0,5	3,497000
12,408667	0,5	3,488400
12,417000	0,5	3,482150
12,425333	0,5	3,485450
12,433667	0,5	3,494850
12,442000	0,5	3,504550
12,450333	0,5	3,507750
12,458667	0,5	3,514800
12,467000	0,5	3,524400
12,475333	0,5	3,541950
12,483667	0,5	3,567550
12,492000	0,5	3,597000
12,500333	0,5	3,641150
12,508667	0,5	3,689500
12,517000	0,5	3,741600
12,525333	0,5	3,787850
12,533667	0,5	3,846500
12,542000	0,5	3,901850
12,550333	0,5	3,952250
12,558667	0,5	4,005950
12,567000	0,5	4,054300
12,575333	0,5	4,114250
12,583667	0,5	4,171950
12,592000	0,5	4,223800
12,600333	0,5	4,275650
12,608667	0,5	4,323050
12,617000	0,5	4,363750
12,625333	0,5	4,389700
12,633667	0,5	4,404500
12,642000	0,5	4,403350
12,650333	0,5	4,389250
12,658667	0,5	4,353850
12,667000	0,5	4,314000
12,675333	0,5	4,257100
12,683667	0,5	4,218150
12,692000	0,5	4,162350
12,700333	0,5	4,095650
12,708667	0,5	4,014100
12,717000	0,5	3,932450
12,725333	0,5	3,851150
12,733667	0,5	3,773100
12,742000	0,5	3,722700
12,750333	0,5	3,705450
12,758667	0,5	3,716600
12,767000	0,5	3,755000
12,775333	0,5	3,802550
12,783667	0,5	3,847650
12,792000	0,5	3,857400
12,800333	0,5	3,826100
12,808667	0,5	3,780100
12,817000	0,5	3,741000
12,825333	0,5	3,798200
12,833667	0,5	3,922350
12,842000	0,5	3,948550
12,850333	0,5	3,960500
12,858667	0,5	3,946750
12,867000	0,5	3,736300
12,875333	0,5	3,426150
12,883667	0,5	3,108750
12,892000	0,5	2,699300
12,900333	0,5	2,338650
12,908667	0,5	2,082600
12,917000	0,5	1,886500
12,925333	0,5	1,741000
12,933667	0,5	1,622450
12,942000	0,5	1,532350
12,950333	0,5	1,468850
12,958667	0,5	1,412300
12,967000	0,5	1,358200
12,975333	0,5	1,326350
12,983667	0,5	1,302000
12,992000	0,5	1,271950
13,000333	0,5	1,254350
13,008667	0,5	1,230050
13,017000	0,5	1,217850
13,025333	0,5	1,206850
13,033667	0,5	1,199750
13,042000	0,5	1,192300
13,050333	0,5	1,192300
13,058667	0,5	1,194000
13,067000	0,5	1,205200
13,075333	0,5	1,230300
13,083667	0,5	1,262100
13,092000	0,5	1,304550
13,100333	0,5	1,350450
13,108667	0,5	1,396400
13,117000	0,5	1,442150
13,125333	0,5	1,482650
13,133667	0,5	1,510000
13,142000	0,5	1,519300
13,150333	0,5	1,507850
13,158667	0,5	1,482800
13,167000	0,5	1,449350
13,175333	0,5	1,411950
13,183667	0,5	1,369800
13,192000	0,5	1,327900
13,200333	0,5	1,292450
13,208667	0,5	1,264750
13,217000	0,5	1,241200
13,225333	0,5	1,223650
13,233667	0,5	1,210950
13,242000	0,5	1,203500
13,250333	0,5	1,196600
13,258667	0,5	1,186650
13,267000	0,5	1,176800
13,275333	0,5	1,176000
13,283667	0,5	1,166900
13,292000	0,5	1,160950
13,300333	0,5	1,146800
13,308667	0,5	1,138350
13,317000	0,5	1,142500
13,325333	0,5	1,140500
13,333667	0,5	1,139800
13,342000	0,5	1,141300
13,350333	0,5	1,149450
13,358667	0,5	1,158000
13,367000	0,5	1,175700
13,375333	0,5	1,198400
13,383667	0,5	1,234300
13,392000	0,5	1,282150
13,400333	0,5	1,345050
13,408667	0,5	1,404200
13,417000	0,5	1,499600
13,425333	0,5	1,600700
13,433667	0,5	1,712150
13,442000	0,5	1,827250
13,450333	0,5	1,939050
13,458667	0,5	2,052800
13,467000	0,5	2,156800
13,475333	0,5	2,247200
13,483667	0,5	2,319400
13,492000	0,5	2,374950
13,500333	0,5	2,412800
13,508667	0,5	2,433050
13,517000	0,5	2,438300
13,525333	0,5	2,434650
13,533667	0,5	2,415600
13,542000	0,5	2,407450
13,550333	0,5	2,385250
13,558667	0,5	2,352350
13,567000	0,5	2,343600
13,575333	0,5	2,327050
13,583667	0,5	2,306350
13,592000	0,5	2,289550
13,600333	0,5	2,267450
13,608667	0,5	2,268050
13,617000	0,5	2,260850
13,625333	0,5	2,246200
13,633667	0,5	2,245800
13,642000	0,5	2,246500
13,650333	0,5	2,239600
13,658667	0,5	2,237900
13,667000	0,5	2,236600
13,675333	0,5	2,233450
13,683667	0,5	2,235950
13,692000	0,5	2,234650
13,700333	0,5	2,231550
13,708667	0,5	2,224750
13,717000	0,5	2,231600
13,725333	0,5	2,225400
13,733667	0,5	2,221650
13,742000	0,5	2,213200
13,750333	0,5	2,198450
13,758667	0,5	2,205900
13,767000	0,5	2,207300
13,775333	0,5	2,200850
13,783667	0,5	2,202350
13,792000	0,5	2,200600
13,800333	0,5	2,202050
13,808667	0,5	2,202550
13,817000	0,5	2,207950
13,825333	0,5	2,205050
13,833667	0,5	2,204400
13,842000	0,5	2,212400
13,850333	0,5	2,210500
13,858667	0,5	2,212450
13,867000	0,5	2,218350
13,875333	0,5	2,218000
13,883667	0,5	2,211300
13,892000	0,5	2,204550
13,900333	0,5	2,198700
13,908667	0,5	2,209300
13,917000	0,5	2,211400
13,925333	0,5	2,218400
13,933667	0,5	2,223200
13,942000	0,5	2,232800
13,950333	0,5	2,233000
13,958667	0,5	2,236950
13,967000	0,5	2,235100
13,975333	0,5	2,234650
13,983667	0,5	2,237400
13,992000	0,5	2,237500
14,000333	0,5	2,228400
14,008667	0,5	2,234500
14,017000	0,5	2,236000
14,025333	0,5	2,232950
14,033667	0,5	2,226700
14,042000	0,5	2,220450
14,050333	0,5	2,222650
14,058667	0,5	2,218300
14,067000	0,5	2,217000
14,075333	0,5	2,212900
14,083667	0,5	2,214050
14,092000	0,5	2,210600
14,100333	0,5	2,208300
14,108667	0,5	2,205800
14,117000	0,5	2,205300
14,125333	0,5	2,204400
14,133667	0,5	2,208250
14,142000	0,5	2,201200
14,150333	0,5	2,195800
14,158667	0,5	2,200850
14,167000	0,5	2,201350
14,175333	0,5	2,197950
14,183667	0,5	2,189550
14,192000	0,5	2,181800
14,200333	0,5	2,188750
14,208667	0,5	2,189350
14,217000	0,5	2,191950
14,225333	0,5	2,193600
14,233667	0,5	2,193650
14,242000	0,5	2,200100
14,250333	0,5	2,200900
14,258667	0,5	2,206900
14,267000	0,5	2,204850
14,275333	0,5	2,211000
14,283667	0,5	2,219400
14,292000	0,5	2,213600
14,300333	0,5	2,221150
14,308667	0,5	2,234750
14,317000	0,5	2,236800
14,325333	0,5	2,241150
14,333667	0,5	2,236600
14,342000	0,5	2,242300
14,350333	0,5	2,252500
14,358667	0,5	2,260300
14,367000	0,5	2,266050
14,375333	0,5	2,276700
14,383667	0,5	2,282200
14,392000	0,5	2,293550
14,400333	0,5	2,307100
14,408667	0,5	2,314350
14,417000	0,5	2,327100
14,425333	0,5	2,337300
14,433667	0,5	2,358950
14,442000	0,5	2,361900
14,450333	0,5	2,394450
14,458667	0,5	2,419400
14,467000	0,5	2,444000
14,475333	0,5	2,464400
14,483667	0,5	2,486350
14,492000	0,5	2,514600
14,500333	0,5	2,550800
14,508667	0,5	2,565650
14,517000	0,5	2,584750
14,525333	0,5	2,598100
14,533667	0,5	2,610850
14,542000	0,5	2,620250
14,550333	0,5	2,626100
14,558667	0,5	2,634050
14,567000	0,5	2,640500
14,575333	0,5	2,662350
14,583667	0,5	2,683750
14,592000	0,5	2,696850
14,600333	0,5	2,738750
14,608667	0,5	2,769050
14,617000	0,5	2,797450
14,625333	0,5	2,821450
14,633667	0,5	2,837350
14,642000	0,5	2,878250
14,650333	0,5	2,911750
14,658667	0,5	2,949600
14,667000	0,5	2,982350
14,675333	0,5	3,017900
14,683667	0,5	3,042250
14,692000	0,5	3,066750
14,700333	0,5	3,094350
14,708667	0,5	3,116500
14,717000	0,5	3,147400
14,725333	0,5	3,187100
14,733667	0,5	3,221850
14,742000	0,5	3,263250
14,750333	0,5	3,316500
14,758667	0,5	3,349950
14,767000	0,5	3,375500
14,775333	0,5	3,372700
14,783667	0,5	3,359550
14,792000	0,5	3,334550
14,800333	0,5	3,307000
14,808667	0,5	3,260300
14,817000	0,5	3,233950
14,825333	0,5	3,204800
14,833667	0,5	3,190400
14,842000	0,5	3,182000
14,850333	0,5	3,182600
14,858667	0,5	3,185700
14,867000	0,5	3,190400
14,875333	0,5	3,186800
14,883667	0,5	3,166550
14,892000	0,5	3,147650
14,900333	0,5	3,124100
14,908667	0,5	3,086100
14,917000	0,5	3,054000
14,925333	0,5	3,019100
14,933667	0,5	2,997250
14,942000	0,5	2,992450
14,950333	0,5	2,982200
14,958667	0,5	2,980800
14,967000	0,5	2,972250
14,975333	0,5	2,968600
14,983667	0,5	2,959600
14,992000	0,5	2,960750
15,000333	0,5	2,950550
15,008667	0,5	2,942050
15,017000	0,5	2,940650
15,025333	0,5	2,927700
15,033667	0,5	2,907250
15,042000	0,5	2,906450
15,050333	0,5	2,898650
15,058667	0,5	2,887050
15,067000	0,5	2,866450
15,075333	0,5	2,846050
15,083667	0,5	2,841100
15,092000	0,5	2,832100
15,100333	0,5	2,827300
15,108667	0,5	2,813850
15,117000	0,5	2,809950
15,125333	0,5	2,796900
15,133667	0,5	2,791200
15,142000	0,5	2,773550
15,150333	0,5	2,770550
15,158667	0,5	2,756100
15,167000	0,5	2,751000
15,175333	0,5	2,731100
15,183667	0,5	2,730150
15,192000	0,5	2,727250
15,200333	0,5	2,720000
15,208667	0,5	2,705750
15,217000	0,5	2,686300
15,225333	0,5	2,680350
15,233667	0,5	2,674050
15,242000	0,5	2,668450
15,250333	0,5	2,664750
15,258667	0,5	2,659450
15,267000	0,5	2,653850
15,275333	0,5	2,649350
15,283667	0,5	2,644250
15,292000	0,5	2,638550
15,300333	0,5	2,630950
15,308667	0,5	2,630250
15,317000	0,5	2,626300
15,325333	0,5	2,609350
15,333667	0,5	2,616500
15,342000	0,5	2,620700
15,350333	0,5	2,610150
15,358667	0,5	2,605450
15,367000	0,5	2,579700
15,375333	0,5	2,585550
15,383667	0,5	2,586300
15,392000	0,5	2,579650
15,400333	0,5	2,569050
15,408667	0,5	2,567150
15,417000	0,5	2,561850
15,425333	0,5	2,560400
15,433667	0,5	2,556050
15,442000	0,5	2,541250
15,450333	0,5	2,531150
15,458667	0,5	2,511350
15,467000	0,5	2,501950
15,475333	0,5	2,474550
15,483667	0,5	2,474250
15,492000	0,5	2,467450
15,500333	0,5	2,454700
15,508667	0,5	2,439900
15,517000	0,5	2,421850
15,525333	0,5	2,425150
15,533667	0,5	2,432000
15,542000	0,5	2,427050
15,550333	0,5	2,427500
15,558667	0,5	2,423900
15,567000	0,5	2,416050
15,575333	0,5	2,407150
15,583667	0,5	2,396300
15,592000	0,5	2,375300
15,600333	0,5	2,358700
15,608667	0,5	2,357650
15,617000	0,5	2,341150
15,625333	0,5	2,331600
15,633667	0,5	2,335450
15,642000	0,5	2,327150
15,650333	0,5	2,309650
15,658667	0,5	2,297600
15,667000	0,5	2,284600
15,675333	0,5	2,287900
15,683667	0,5	2,275350
15,692000	0,5	2,275950
15,700333	0,5	2,268950
15,708667	0,5	2,270000
15,717000	0,5	2,258650
15,725333	0,5	2,259150
15,733667	0,5	2,252100
15,742000	0,5	2,246950
15,750333	0,5	2,249200
15,758667	0,5	2,250500
15,767000	0,5	2,234300
15,775333	0,5	2,235900
15,783667	0,5	2,231450
15,792000	0,5	2,223000
15,800333	0,5	2,209650
15,808667	0,5	2,188050
15,817000	0,5	2,184350
15,825333	0,5	2,182650
15,833667	0,5	2,181350
15,842000	0,5	2,171200
15,850333	0,5	2,176950
15,858667	0,5	2,172050
15,867000	0,5	2,168800
15,875333	0,5	2,157800
15,883667	0,5	2,147500
15,892000	0,5	2,138000
15,900333	0,5	2,131700
15,908667	0,5	2,119150
15,917000	0,5	2,109650
15,925333	0,5	2,110950
15,933667	0,5	2,110700
15,942000	0,5	2,104100
15,950333	0,5	2,092600
15,958667	0,5	2,075750
15,967000	0,5	2,071000
15,975333	0,5	2,072100
15,983667	0,5	2,063150
15,992000	0,5	2,063550
16,000333	0,5	2,051450
16,008667	0,5	2,046550
16,017000	0,5	2,034850
16,025333	0,5	2,028750
16,033667	0,5	2,017150
16,042000	0,5	2,015300
16,050333	0,5	2,011600
16,058667	0,5	2,005200
16,067000	0,5	1,999700
16,075333	0,5	2,002700
16,083667	0,5	1,992050
16,092000	0,5	1,986250
16,100333	0,5	1,962650
16,108667	0,5	1,954250
16,117000	0,5	1,945750
16,125333	0,5	1,942450
16,133667	0,5	1,937750
16,142000	0,5	1,931300
16,150333	0,5	1,932450
16,158667	0,5	1,918450
16,167000	0,5	1,919150
16,175333	0,5	1,912300
16,183667	0,5	1,910250
16,192000	0,5	1,906650
16,200333	0,5	1,902450
16,208667	0,5	1,876400
16,217000	0,5	1,879550
16,225333	0,5	1,878500
16,233667	0,5	1,868600
16,242000	0,5	1,855850
16,250333	0,5	1,836900
16,258667	0,5	1,829600
16,267000	0,5	1,829100
16,275333	0,5	1,823100
16,283667	0,5	1,818800
16,292000	0,5	1,815400
16,300333	0,5	1,813750
16,308667	0,5	1,816750
16,317000	0,5	1,810750
16,325333	0,5	1,810800
16,333667	0,5	1,806050
16,342000	0,5	1,814400
16,350333	0,5	1,808000
16,358667	0,5	1,792950
16,367000	0,5	1,798950
16,375333	0,5	1,805900
16,383667	0,5	1,786200
16,392000	0,5	1,778350
16,400333	0,5	1,745400
16,408667	0,5	1,744450
16,417000	0,5	1,733000
16,425333	0,5	1,724550
16,433667	0,5	1,712350
16,442000	0,5	1,705600
16,450333	0,5	1,689150
16,458667	0,5	1,681350
16,467000	0,5	1,673800
16,475333	0,5	1,666400
16,483667	0,5	1,656700
16,492000	0,5	1,649750
16,500333	0,5	1,634350
16,508667	0,5	1,628050
16,517000	0,5	1,633950
16,525333	0,5	1,624350
16,533667	0,5	1,615000
16,542000	0,5	1,592800
16,550333	0,5	1,581550
16,558667	0,5	1,580700
16,567000	0,5	1,573450
16,575333	0,5	1,561350
16,583667	0,5	1,561800
16,592000	0,5	1,551150
16,600333	0,5	1,549400
16,608667	0,5	1,547950
16,617000	0,5	1,541850
16,625333	0,5	1,535300
16,633667	0,5	1,529800
16,642000	0,5	1,531700
16,650333	0,5	1,514200
16,658667	0,5	1,518400
16,667000	0,5	1,516500
16,675333	0,5	1,513050
16,683667	0,5	1,495550
16,692000	0,5	1,472400
16,700333	0,5	1,465350
16,708667	0,5	1,466600
16,717000	0,5	1,457150
16,725333	0,5	1,451650
16,733667	0,5	1,438850
16,742000	0,5	1,436950
16,750333	0,5	1,430150
16,758667	0,5	1,426250
16,767000	0,5	1,414350
16,775333	0,5	1,407600
16,783667	0,5	1,406600
16,792000	0,5	1,409600
16,800333	0,5	1,385950
16,808667	0,5	1,391050
16,817000	0,5	1,386600
16,825333	0,5	1,377250
16,833667	0,5	1,366300
16,842000	0,5	1,345400
16,850333	0,5	1,350550
16,858667	0,5	1,345600
16,867000	0,5	1,351700
16,875333	0,5	1,342750
16,883667	0,5	1,347000
16,892000	0,5	1,343050
16,900333	0,5	1,350250
16,908667	0,5	1,351150
16,917000	0,5	1,353500
16,925333	0,5	1,350700
16,933667	0,5	1,354850
16,942000	0,5	1,343150
16,950333	0,5	1,335350
16,958667	0,5	1,343200
16,967000	0,5	1,331850
16,975333	0,5	1,324000
16,983667	0,5	1,300350
16,992000	0,5	1,289650
17,000333	0,5	1,283850
17,008667	0,5	1,288200
17,017000	0,5	1,281050
17,025333	0,5	1,283800
17,033667	0,5	1,281050
17,042000	0,5	1,283350
17,050333	0,5	1,272400
17,058667	0,5	1,268800
17,067000	0,5	1,255850
17,075333	0,5	1,251500
17,083667	0,5	1,245400
17,092000	0,5	1,230250
17,100333	0,5	1,228000
17,108667	0,5	1,229650
17,117000	0,5	1,221900
17,125333	0,5	1,211150
17,133667	0,5	1,191000
17,142000	0,5	1,181400
17,150333	0,5	1,181800
17,158667	0,5	1,177900
17,167000	0,5	1,168450
17,175333	0,5	1,164550
17,183667	0,5	1,163600
17,192000	0,5	1,155500
17,200333	0,5	1,159250
17,208667	0,5	1,153050
17,217000	0,5	1,157950
17,225333	0,5	1,159650
17,233667	0,5	1,163450
17,242000	0,5	1,154400
17,250333	0,5	1,175250
17,258667	0,5	1,179400
17,267000	0,5	1,178800
17,275333	0,5	1,164850
17,283667	0,5	1,146050
17,292000	0,5	1,144450
17,300333	0,5	1,132500
17,308667	0,5	1,120400
17,317000	0,5	1,113850
17,325333	0,5	1,110800
17,333667	0,5	1,109050
17,342000	0,5	1,110700
17,350333	0,5	1,110300
17,358667	0,5	1,112750
17,367000	0,5	1,111200
17,375333	0,5	1,126550
17,383667	0,5	1,114750
17,392000	0,5	1,120750
17,400333	0,5	1,121950
17,408667	0,5	1,121250
17,417000	0,5	1,115600
17,425333	0,5	1,102050
17,433667	0,5	1,094150
17,442000	0,5	1,107750
17,450333	0,5	1,102050
17,458667	0,5	1,108550
17,467000	0,5	1,111400
17,475333	0,5	1,115450
17,483667	0,5	1,121350
17,492000	0,5	1,127350
17,500333	0,5	1,133100
17,508667	0,5	1,136500
17,517000	0,5	1,146200
17,525333	0,5	1,153650
17,533667	0,5	1,147000
17,542000	0,5	1,167550
17,550333	0,5	1,184950
17,558667	0,5	1,193850
17,567000	0,5	1,197600
17,575333	0,5	1,190450
17,583667	0,5	1,208150
17,592000	0,5	1,221250
17,600333	0,5	1,231850
17,608667	0,5	1,235700
17,617000	0,5	1,248650
17,625333	0,5	1,252800
17,633667	0,5	1,256950
17,642000	0,5	1,259550
17,650333	0,5	1,257400
17,658667	0,5	1,256300
17,667000	0,5	1,245200
17,675333	0,5	1,249400
17,683667	0,5	1,235300
17,692000	0,5	1,247500
17,700333	0,5	1,242450
17,708667	0,5	1,242250
17,717000	0,5	1,224200
17,725333	0,5	1,204450
17,733667	0,5	1,203800
17,742000	0,5	1,200750
17,750333	0,5	1,194200
17,758667	0,5	1,192600
17,767000	0,5	1,190100
17,775333	0,5	1,185150
17,783667	0,5	1,181600
17,792000	0,5	1,182050
17,800333	0,5	1,177150
17,808667	0,5	1,173100
17,817000	0,5	1,176650
17,825333	0,5	1,170100
17,833667	0,5	1,169100
17,842000	0,5	1,183300
17,850333	0,5	1,190650
17,858667	0,5	1,202600
17,867000	0,5	1,222550
17,875333	0,5	1,242100
17,883667	0,5	1,285550
17,892000	0,5	1,306750
17,900333	0,5	1,331500
17,908667	0,5	1,322500
17,917000	0,5	1,310500
17,925333	0,5	1,267050
17,933667	0,5	1,224750
17,942000	0,5	1,174600
17,950333	0,5	1,132000
17,958667	0,5	1,104700
17,967000	0,5	1,073950
17,975333	0,5	1,034650
17,983667	0,5	1,024800
17,992000	0,5	1,017000
18,000333	0,5	1,002250
18,008667	0,5	0,983500
18,017000	0,5	0,953100
18,025333	0,5	0,940850
18,033667	0,5	0,928900
18,042000	0,5	0,924500
18,050333	0,5	0,908900
18,058667	0,5	0,904750
18,067000	0,5	0,889850
18,075333	0,5	0,887700
18,083667	0,5	0,874850
18,092000	0,5	0,868250
18,100333	0,5	0,857450
18,108667	0,5	0,855600
18,117000	0,5	0,838750
18,125333	0,5	0,831750
18,133667	0,5	0,828150
18,142000	0,5	0,826700
18,150333	0,5	0,814300
18,158667	0,5	0,791700
18,167000	0,5	0,776000
18,175333	0,5	0,768300
18,183667	0,5	0,765350
18,192000	0,5	0,751350
18,200333	0,5	0,749450
18,208667	0,5	0,736150
18,217000	0,5	0,732700
18,225333	0,5	0,719950
18,233667	0,5	0,722700
18,242000	0,5	0,712400
18,250333	0,5	0,711500
18,258667	0,5	0,706900
18,267000	0,5	0,690950
18,275333	0,5	0,686900
18,283667	0,5	0,692200
18,292000	0,5	0,681900
18,300333	0,5	0,670200
18,308667	0,5	0,640500
18,317000	0,5	0,632350
18,325333	0,5	0,626750
18,333667	0,5	0,616000
18,342000	0,5	0,604000
18,350333	0,5	0,592100
18,358667	0,5	0,583800
18,367000	0,5	0,571200
18,375333	0,5	0,564700
18,383667	0,5	0,550200
18,392000	0,5	0,538800
18,400333	0,5	0,533600
18,408667	0,5	0,530600
18,417000	0,5	0,495650
18,425333	0,5	0,506250
18,433667	0,5	0,488650
18,442000	0,5	0,485200
18,450333	0,5	0,459200
18,458667	0,5	0,432800
18,467000	0,5	0,435350
18,475333	0,5	0,430200
18,483667	0,5	0,418200
18,492000	0,5	0,408300
18,500333	0,5	0,399400
18,508667	0,5	0,390600
18,517000	0,5	0,385900
18,525333	0,5	0,377250
18,533667	0,5	0,373250
18,542000	0,5	0,361500
18,550333	0,5	0,370750
18,558667	0,5	0,361600
18,567000	0,5	0,344700
18,575333	0,5	0,347300
18,583667	0,5	0,341600
18,592000	0,5	0,324700
18,600333	0,5	0,312700
18,608667	0,5	0,288300
18,617000	0,5	0,294150
18,625333	0,5	0,290050
18,633667	0,5	0,283550
18,642000	0,5	0,279150
18,650333	0,5	0,273650
18,658667	0,5	0,271600
18,667000	0,5	0,269700
18,675333	0,5	0,270700
18,683667	0,5	0,263950
18,692000	0,5	0,260100
18,700333	0,5	0,265000
18,708667	0,5	0,254250
18,717000	0,5	0,251050
18,725333	0,5	0,261800
18,733667	0,5	0,257050
18,742000	0,5	0,249300
18,750333	0,5	0,230000
18,758667	0,5	0,218900
18,767000	0,5	0,219400
18,775333	0,5	0,223200
18,783667	0,5	0,216500
18,792000	0,5	0,218650
18,800333	0,5	0,218400
18,808667	0,5	0,221500
18,817000	0,5	0,215600
18,825333	0,5	0,216400
18,833667	0,5	0,219400
18,842000	0,5	0,224200
18,850333	0,5	0,232850
18,858667	0,5	0,223250
18,867000	0,5	0,235650
18,875333	0,5	0,243700
18,883667	0,5	0,247400
18,892000	0,5	0,239600
18,900333	0,5	0,236050
18,908667	0,5	0,239150
18,917000	0,5	0,257350
18,925333	0,5	0,261900
18,933667	0,5	0,271800
18,942000	0,5	0,277900
18,950333	0,5	0,293000
18,958667	0,5	0,299100
18,967000	0,5	0,302100
18,975333	0,5	0,305000
18,983667	0,5	0,307900
18,992000	0,5	0,321150
19,000333	0,5	0,311200
19,008667	0,5	0,299350
19,017000	0,5	0,304450
19,025333	0,5	0,297200
19,033667	0,5	0,282700
19,042000	0,5	0,259050
19,050333	0,5	0,238950
19,058667	0,5	0,235900
19,067000	0,5	0,215250
19,075333	0,5	0,205350
19,083667	0,5	0,192900
19,092000	0,5	0,183050
19,100333	0,5	0,165500
19,108667	0,5	0,158750
19,117000	0,5	0,141650
19,125333	0,5	0,131350
19,133667	0,5	0,128450
19,142000	0,5	0,127550
19,150333	0,5	0,097000
19,158667	0,5	0,093700
19,167000	0,5	0,087150
19,175333	0,5	0,069250
19,183667	0,5	0,052500
19,192000	0,5	0,019600
19,200333	0,5	0,015850
19,208667	0,5	0,001300
19,217000	0,5	-0,004850
19,225333	0,5	-0,019550
19,233667	0,5	-0,020500
19,242000	0,5	-0,033550
19,250333	0,5	-0,037550
19,258667	0,5	-0,050250
19,267000	0,5	-0,051700
19,275333	0,5	-0,056750
19,283667	0,5	-0,053150
19,292000	0,5	-0,055850
19,300333	0,5	-0,077850
19,308667	0,5	-0,070000
19,317000	0,5	-0,074000
19,325333	0,5	-0,080150
19,333667	0,5	-0,091700
19,342000	0,5	-0,106500
19,350333	0,5	-0,099150
19,358667	0,5	-0,096150
19,367000	0,5	-0,099950
19,375333	0,5	-0,098900
19,383667	0,5	-0,106550
19,392000	0,5	-0,104550
19,400333	0,5	-0,115750
19,408667	0,5	-0,120850
19,417000	0,5	-0,136600
19,425333	0,5	-0,150900
19,433667	0,5	-0,161150
19,442000	0,5	-0,177500
19,450333	0,5	-0,199750
19,458667	0,5	-0,200400
19,467000	0,5	-0,212900
19,475333	0,5	-0,229350
19,483667	0,5	-0,252250
19,492000	0,5	-0,274750
19,500333	0,5	-0,272700
19,508667	0,5	-0,284350
19,517000	0,5	-0,287150
19,525333	0,5	-0,298200
19,533667	0,5	-0,301550
19,542000	0,5	-0,314200
19,550333	0,5	-0,319050
19,558667	0,5	-0,329450
19,567000	0,5	-0,336000
19,575333	0,5	-0,337050
19,583667	0,5	-0,337800
19,592000	0,5	-0,358950
19,600333	0,5	-0,364200
19,608667	0,5	-0,369900
19,617000	0,5	-0,378650
19,625333	0,5	-0,397450
19,633667	0,5	-0,421550
19,642000	0,5	-0,423500
19,650333	0,5	-0,429450
19,658667	0,5	-0,437050
19,667000	0,5	-0,443550
19,675333	0,5	-0,450800
19,683667	0,5	-0,455950
19,692000	0,5	-0,458900
19,700333	0,5	-0,466600
19,708667	0,5	-0,473550
19,717000	0,5	-0,481300
19,725333	0,5	-0,477700
19,733667	0,5	-0,482050
19,742000	0,5	-0,501400
19,750333	0,5	-0,493200
19,758667	0,5	-0,502800
19,767000	0,5	-0,511750
19,775333	0,5	-0,527100
19,783667	0,5	-0,553450
19,792000	0,5	-0,559600
19,800333	0,5	-0,562800
19,808667	0,5	-0,563750
19,817000	0,5	-0,570950
19,825333	0,5	-0,578400
19,833667	0,5	-0,584750
19,842000	0,5	-0,589200
19,850333	0,5	-0,590100
19,858667	0,5	-0,599300
19,867000	0,5	-0,597850
19,875333	0,5	-0,596550
19,883667	0,5	-0,604950
19,892000	0,5	-0,614200
19,900333	0,5	-0,606450
19,908667	0,5	-0,617050
19,917000	0,5	-0,626050
19,925333	0,5	-0,653750
19,933667	0,5	-0,662800
19,942000	0,5	-0,665900
19,950333	0,5	-0,668250
19,958667	0,5	-0,674600
19,967000	0,5	-0,672950
19,975333	0,5	-0,676900
19,983667	0,5	-0,680150
19,992000	0,5	-0,680900
20,000333	0,5	-0,684900
20,008667	0,5	-0,681350
20,017000	0,5	-0,679450
20,025333	0,5	-0,676950
20,033667	0,5	-0,695100
20,042000	0,5	-0,689350
20,050333	0,5	-0,687350
20,058667	0,5	-0,695000
20,067000	0,5	-0,710650
20,075333	0,5	-0,727100
20,083667	0,5	-0,732400
20,092000	0,5	-0,730250
20,100333	0,5	-0,741600
20,108667	0,5	-0,738450
20,117000	0,5	-0,743400
20,125333	0,5	-0,742850
20,133667	0,5	-0,741200
20,142000	0,5	-0,738250
20,150333	0,5	-0,737600
20,158667	0,5	-0,746600
20,167000	0,5	-0,730450
20,175333	0,5	-0,746550
20,183667	0,5	-0,766450
20,192000	0,5	-0,774600
20,200333	0,5	-0,784350
20,208667	0,5	-0,806750
20,217000	0,5	-0,824100
20,225333	0,5	-0,842100
20,233667	0,5	-0,847300
20,242000	0,5	-0,846400
20,250333	0,5	-0,847400
20,258667	0,5	-0,856600
20,267000	0,5	-0,857950
20,275333	0,5	-0,863750
20,283667	0,5	-0,859700
20,292000	0,5	-0,864600
20,300333	0,5	-0,870100
20,308667	0,5	-0,862200
20,317000	0,5	-0,855200
20,325333	0,5	-0,869600
20,333667	0,5	-0,869650
20,342000	0,5	-0,868200
20,350333	0,5	-0,874500
20,358667	0,5	-0,880800
20,367000	0,5	-0,907750
20,375333	0,5	-0,897200
20,383667	0,5	-0,905950
20,392000	0,5	-0,905300
20,400333	0,5	-0,916450
20,408667	0,5	-0,916000
20,417000	0,5	-0,923550
20,425333	0,5	-0,922200
20,433667	0,5	-0,918450
20,442000	0,5	-0,923150
20,450333	0,5	-0,921450
20,458667	0,5	-0,905700
20,467000	0,5	-0,895850
20,475333	0,5	-0,907350
20,483667	0,5	-0,893400
20,492000	0,5	-0,890150
20,500333	0,5	-0,894800
20,508667	0,5	-0,911350
20,517000	0,5	-0,937750
20,525333	0,5	-0,930500
20,533667	0,5	-0,924000
20,542000	0,5	-0,934000
20,550333	0,5	-0,927200
20,558667	0,5	-0,923050
20,567000	0,5	-0,919350
20,575333	0,5	-0,930300
20,583667	0,5	-0,925500
20,592000	0,5	-0,933300
20,600333	0,5	-0,922800
20,608667	0,5	-0,899950
20,617000	0,5	-0,892850
20,625333	0,5	-0,897850
20,633667	0,5	-0,890150
20,642000	0,5	-0,894450
20,650333	0,5	-0,903700
20,658667	0,5	-0,919000
20,667000	0,5	-0,936500
20,675333	0,5	-0,927100
20,683667	0,5	-0,937450
20,692000	0,5	-0,931100
20,700333	0,5	-0,934550
20,708667	0,5	-0,924800
20,717000	0,5	-0,927600
20,725333	0,5	-0,924100
20,733667	0,5	-0,929700
20,742000	0,5	-0,944450
20,750333	0,5	-0,935700
20,758667	0,5	-0,935600
20,767000	0,5	-0,951050
20,775333	0,5	-0,961750
20,783667	0,5	-0,965950
20,792000	0,5	-0,979700
20,800333	0,5	-0,996600
20,808667	0,5	-1,021800
20,817000	0,5	-1,025400
20,825333	0,5	-1,030800
20,833667	0,5	-1,029250
20,842000	0,5	-1,036600
20,850333	0,5	-1,028300
20,858667	0,5	-1,037700
20,867000	0,5	-1,035650
20,875333	0,5	-1,042350
20,883667	0,5	-1,042250
20,892000	0,5	-1,042550
20,900333	0,5	-1,014600
20,908667	0,5	-1,010250
20,917000	0,5	-1,015200
20,925333	0,5	-1,014350
20,933667	0,5	-1,019000
20,942000	0,5	-1,026750
20,950333	0,5	-1,052900
20,958667	0,5	-1,054350
20,967000	0,5	-1,058050
20,975333	0,5	-1,053450
20,983667	0,5	-1,056500
20,992000	0,5	-1,051700
21,000333	0,5	-1,043650
21,008667	0,5	-1,042100
21,017000	0,5	-1,044750
21,025333	0,5	-1,041550
21,033667	0,5	-1,039250
21,042000	0,5	-1,019050
21,050333	0,5	-1,001550
21,058667	0,5	-1,000350
21,067000	0,5	-1,005200
21,075333	0,5	-1,004850
21,083667	0,5	-1,015450
21,092000	0,5	-1,022250
21,100333	0,5	-1,037750
21,108667	0,5	-1,039750
21,117000	0,5	-1,028350
21,125333	0,5	-1,033100
21,133667	0,5	-1,028700
21,142000	0,5	-1,029200
21,150333	0,5	-1,024700
21,158667	0,5	-1,022350
21,167000	0,5	-1,014500
21,175333	0,5	-1,014950
21,183667	0,5	-1,012300
21,192000	0,5	-0,979000
21,200333	0,5	-0,967100
21,208667	0,5	-0,971800
21,217000	0,5	-0,971250
21,225333	0,5	-0,974450
21,233667	0,5	-0,981700
21,242000	0,5	-0,990250
21,250333	0,5	-0,990950
21,258667	0,5	-0,973400
21,267000	0,5	-0,969400
21,275333	0,5	-0,958300
21,283667	0,5	-0,958350
21,292000	0,5	-0,953150
21,300333	0,5	-0,958500
21,308667	0,5	-0,954150
21,317000	0,5	-0,953250
21,325333	0,5	-0,947950
21,333667	0,5	-0,934800
21,342000	0,5	-0,907250
21,350333	0,5	-0,898150
21,358667	0,5	-0,901450
21,367000	0,5	-0,904800
21,375333	0,5	-0,903350
21,383667	0,5	-0,913550
21,392000	0,5	-0,921900
21,400333	0,5	-0,909600
21,408667	0,5	-0,908100
21,417000	0,5	-0,901100
21,425333	0,5	-0,907100
21,433667	0,5	-0,900700
21,442000	0,5	-0,901600
21,450333	0,5	-0,889150
21,458667	0,5	-0,888800
21,467000	0,5	-0,883050
21,475333	0,5	-0,879250
21,483667	0,5	-0,844150
21,492000	0,5	-0,819600
21,500333	0,5	-0,822500
21,508667	0,5	-0,814600
21,517000	0,5	-0,816950
21,525333	0,5	-0,821050
21,533667	0,5	-0,819150
21,542000	0,5	-0,835100
21,550333	0,5	-0,819600
21,558667	0,5	-0,807250
21,567000	0,5	-0,798050
21,575333	0,5	-0,778550
21,583667	0,5	-0,761350
21,592000	0,5	-0,730600
21,600333	0,5	-0,702100
21,608667	0,5	-0,667200
21,617000	0,5	-0,640300
21,625333	0,5	-0,604400
21,633667	0,5	-0,559000
21,642000	0,5	-0,534050
21,650333	0,5	-0,534700
21,658667	0,5	-0,538900
21,667000	0,5	-0,560500
21,675333	0,5	-0,589550
21,683667	0,5	-0,608600
21,692000	0,5	-0,621900
21,700333	0,5	-0,607400
21,708667	0,5	-0,604000
21,717000	0,5	-0,593550
21,725333	0,5	-0,587700
21,733667	0,5	-0,572400
21,742000	0,5	-0,565600
21,750333	0,5	-0,549150
21,758667	0,5	-0,539950
21,767000	0,5	-0,524450
21,775333	0,5	-0,494600
21,783667	0,5	-0,468150
21,792000	0,5	-0,458850
21,800333	0,5	-0,436000
21,808667	0,5	-0,419900
21,817000	0,5	-0,406200
21,825333	0,5	-0,397450
21,833667	0,5	-0,388900
21,842000	0,5	-0,358950
21,850333	0,5	-0,340500
21,858667	0,5	-0,309500
21,867000	0,5	-0,281200
21,875333	0,5	-0,238000
21,883667	0,5	-0,200950
21,892000	0,5	-0,156250
21,900333	0,5	-0,134650
21,908667	0,5	-0,124100
21,917000	0,5	-0,128200
21,925333	0,5	-0,109600
21,933667	0,5	-0,116050
21,942000	0,5	-0,109950
21,950333	0,5	-0,095650
21,958667	0,5	-0,089550
21,967000	0,5	-0,076600
21,975333	0,5	-0,076850
21,983667	0,5	-0,053950
21,992000	0,5	-0,031750
22,000333	0,5	-0,002200
22,008667	0,5	0,015150
22,017000	0,5	0,044250
22,025333	0,5	0,065100
22,033667	0,5	0,094150
22,042000	0,5	0,122500
22,050333	0,5	0,155550
22,058667	0,5	0,180650
22,067000	0,5	0,217200
22,075333	0,5	0,246450
22,083667	0,5	0,264100
22,092000	0,5	0,304000
22,100333	0,5	0,338700
22,108667	0,5	0,361300
22,117000	0,5	0,393300
22,125333	0,5	0,417750
22,133667	0,5	0,461050
22,142000	0,5	0,507800
22,150333	0,5	0,549950
22,158667	0,5	0,601250
22,167000	0,5	0,648650
22,175333	0,5	0,705650
22,183667	0,5	0,764250
22,192000	0,5	0,831300
22,200333	0,5	0,896450
22,208667	0,5	0,975600
22,217000	0,5	1,042600
22,225333	0,5	1,117400
22,233667	0,5	1,198850
22,242000	0,5	1,274150
22,250333	0,5	1,329850
22,258667	0,5	1,369800
22,267000	0,5	1,392150
22,275333	0,5	1,428750
22,283667	0,5	1,476000
22,292000	0,5	1,513600
22,300333	0,5	1,556150
22,308667	0,5	1,607050
22,317000	0,5	1,665900
22,325333	0,5	1,706750
22,333667	0,5	1,737450
22,342000	0,5	1,747900
22,350333	0,5	1,766900
22,358667	0,5	1,771750
22,367000	0,5	1,810150
22,375333	0,5	1,828550
22,383667	0,5	1,898050
22,392000	0,5	1,941350
22,400333	0,5	1,987000
22,408667	0,5	2,033750
22,417000	0,5	2,065250
22,425333	0,5	2,138600
22,433667	0,5	2,193700
22,442000	0,5	2,252250
22,450333	0,5	2,306800
22,458667	0,5	2,369250
22,467000	0,5	2,427850
22,475333	0,5	2,497200
22,483667	0,5	2,554050
22,492000	0,5	2,616550
22,500333	0,5	2,663750
22,508667	0,5	2,694800
22,517000	0,5	2,757950
22,525333	0,5	2,827300
22,533667	0,5	2,895050
22,542000	0,5	2,944200
22,550333	0,5	2,986650
22,558667	0,5	3,032750
22,567000	0,5	3,067300
22,575333	0,5	3,115900
22,583667	0,5	3,159100
22,592000	0,5	3,196500
22,600333	0,5	3,232750
22,608667	0,5	3,259750
22,617000	0,5	3,279700
22,625333	0,5	3,292450
22,633667	0,5	3,300600
22,642000	0,5	3,300150
22,650333	0,5	3,268450
22,658667	0,5	3,235150
22,667000	0,5	3,226650
22,675333	0,5	3,204750
22,683667	0,5	3,166650
22,692000	0,5	3,097050
22,700333	0,5	3,029600
22,708667	0,5	2,940200
22,717000	0,5	2,856250
22,725333	0,5	2,784600
22,733667	0,5	2,697950
22,742000	0,5	2,608600
22,750333	0,5	2,515800
22,758667	0,5	2,421100
22,767000	0,5	2,320550
22,775333	0,5	2,212650
22,783667	0,5	2,094750
22,792000	0,5	1,977750
22,800333	0,5	1,796350
22,808667	0,5	1,677500
22,817000	0,5	1,546550
22,825333	0,5	1,408400
22,833667	0,5	1,251100
22,842000	0,5	1,092650
22,850333	0,5	0,941150
22,858667	0,5	0,785400
22,867000	0,5	0,629100
22,875333	0,5	0,481150
22,883667	0,5	0,337750
22,892000	0,5	0,198800
22,900333	0,5	0,064100
22,908667	0,5	-0,068450
22,917000	0,5	-0,203800
22,925333	0,5	-0,327300
22,933667	0,5	-0,459650
22,942000	0,5	-0,570750
22,950333	0,5	-0,702500
22,958667	0,5	-0,821200
22,967000	0,5	-0,958700
22,975333	0,5	-1,089600
22,983667	0,5	-1,187650
22,992000	0,5	-1,287500
23,000333	0,5	-1,372300
23,008667	0,5	-1,462100
23,017000	0,5	-1,544550
23,025333	0,5	-1,621550
23,033667	0,5	-1,685550
23,042000	0,5	-1,746650
23,050333	0,5	-1,803850
23,058667	0,5	-1,853550
23,067000	0,5	-1,904650
23,075333	0,5	-1,954350
23,083667	0,5	-2,001150
23,092000	0,5	-2,016700
23,100333	0,5	-2,066900
23,108667	0,5	-2,105250
23,117000	0,5	-2,171800
23,125333	0,5	-2,219250
23,133667	0,5	-2,233950
23,142000	0,5	-2,256200
23,150333	0,5	-2,256000
23,158667	0,5	-2,274000
23,167000	0,5	-2,275300
23,175333	0,5	-2,278100
23,183667	0,5	-2,261600
23,192000	0,5	-2,261500
23,200333	0,5	-2,239150
23,208667	0,5	-2,230200
23,217000	0,5	-2,217050
23,225333	0,5	-2,200900
23,233667	0,5	-2,185250
23,242000	0,5	-2,197650
23,250333	0,5	-2,157050
23,258667	0,5	-2,134350
23,267000	0,5	-2,154200
23,275333	0,5	-2,153250
23,283667	0,5	-2,136900
23,292000	0,5	-2,112550
23,300333	0,5	-2,087250
23,308667	0,5	-2,068650
23,317000	0,5	-2,046600
23,325333	0,5	-2,009850
23,333667	0,5	-1,983450
23,342000	0,5	-1,941100
23,350333	0,5	-1,907900
23,358667	0,5	-1,871100
23,367000	0,5	-1,839100
23,375333	0,5	-1,806450
23,383667	0,5	-1,782750
23,392000	0,5	-1,780800
23,400333	0,5	-1,731700
23,408667	0,5	-1,675400
23,417000	0,5	-1,672600
23,425333	0,5	-1,662750
23,433667	0,5	-1,641250
23,442000	0,5	-1,617400
23,450333	0,5	-1,595550
23,458667	0,5	-1,583850
23,467000	0,5	-1,560600
23,475333	0,5	-1,538950
23,483667	0,5	-1,514500
23,492000	0,5	-1,495650
23,500333	0,5	-1,467450
23,508667	0,5	-1,453800
23,517000	0,5	-1,425050
23,525333	0,5	-1,408900
23,533667	0,5	-1,479650
23,542000	0,5	-1,435700
23,550333	0,5	-1,396450
23,558667	0,5	-1,335450
23,567000	0,5	-1,322400
23,575333	0,5	-1,317250
23,583667	0,5	-1,307350
23,592000	0,5	-1,296900
23,600333	0,5	-1,285750
23,608667	0,5	-1,275300
23,617000	0,5	-1,264400
23,625333	0,5	-1,255250
23,633667	0,5	-1,241250
23,642000	0,5	-1,234550
23,650333	0,5	-1,224650
23,658667	0,5	-1,215800
23,667000	0,5	-1,209750
23,675333	0,5	-1,217800
23,683667	0,5	-1,339750
23,692000	0,5	-1,298950
23,700333	0,5	-1,243850
23,708667	0,5	-1,211250
23,717000	0,5	-1,200350
23,725333	0,5	-1,203450
23,733667	0,5	-1,203300
23,742000	0,5	-1,207950
23,750333	0,5	-1,201800
23,758667	0,5	-1,187150
23,767000	0,5	-1,177700
23,775333	0,5	-1,164650
23,783667	0,5	-1,157900
23,792000	0,5	-1,141150
23,800333	0,5	-1,133250
23,808667	0,5	-1,117200
23,817000	0,5	-1,111100
23,825333	0,5	-1,174750
23,833667	0,5	-1,233350
23,842000	0,5	-1,189100
23,850333	0,5	-1,140050
23,858667	0,5	-1,097950
23,867000	0,5	-1,096650
23,875333	0,5	-1,094550
23,883667	0,5	-1,104100
23,892000	0,5	-1,105450
23,900333	0,5	-1,096300
23,908667	0,5	-1,086600
23,917000	0,5	-1,082000
23,925333	0,5	-1,070900
23,933667	0,5	-1,060950
23,942000	0,5	-1,051000
23,950333	0,5	-1,034200
23,958667	0,5	-1,023700
23,967000	0,5	-1,017300
23,975333	0,5	-1,132450
23,983667	0,5	-1,102450
23,992000	0,5	-1,078750
24,000333	0,5	-1,009000
24,008667	0,5	-0,977700
24,017000	0,5	-0,963650
24,025333	0,5	-0,958400
24,033667	0,5	-0,962450
24,042000	0,5	-0,945900
24,050333	0,5	-0,927400
24,058667	0,5	-0,913150
24,067000	0,5	-0,896400
24,075333	0,5	-0,883350
24,083667	0,5	-0,866150
24,092000	0,5	-0,852450
24,100333	0,5	-0,838350
24,108667	0,5	-0,824950
24,117000	0,5	-0,839450
24,125333	0,5	-0,917250
24,133667	0,5	-0,893950
24,142000	0,5	-0,861250
24,150333	0,5	-0,814850
24,158667	0,5	-0,787850
24,167000	0,5	-0,781750
24,175333	0,5	-0,776950
24,183667	0,5	-0,782000
24,192000	0,5	-0,755000
24,200333	0,5	-0,744250
24,208667	0,5	-0,725850
24,217000	0,5	-0,713250
24,225333	0,5	-0,692800
24,233667	0,5	-0,674900
24,242000	0,5	-0,652050
24,250333	0,5	-0,634050
24,258667	0,5	-0,621950
24,267000	0,5	-0,666300
24,275333	0,5	-0,677900
24,283667	0,5	-0,650900
24,292000	0,5	-0,605250
24,300333	0,5	-0,571000
24,308667	0,5	-0,552450
24,317000	0,5	-0,544950
24,325333	0,5	-0,552150
24,333667	0,5	-0,542800
24,342000	0,5	-0,528700
24,350333	0,5	-0,512100
24,358667	0,5	-0,507600
24,367000	0,5	-0,490750
24,375333	0,5	-0,481350
24,383667	0,5	-0,468200
24,392000	0,5	-0,457050
24,400333	0,5	-0,443650
24,408667	0,5	-0,433550
24,417000	0,5	-0,498900
24,425333	0,5	-0,470400
24,433667	0,5	-0,452100
24,442000	0,5	-0,412650
24,450333	0,5	-0,389400
24,458667	0,5	-0,372750
24,467000	0,5	-0,368050
24,475333	0,5	-0,368400
24,483667	0,5	-0,357000
24,492000	0,5	-0,334400
24,500333	0,5	-0,323800
24,508667	0,5	-0,309900
24,517000	0,5	-0,301700
24,525333	0,5	-0,284900
24,533667	0,5	-0,274800
24,542000	0,5	-0,257150
24,550333	0,5	-0,248400
24,558667	0,5	-0,249950
24,567000	0,5	-0,293700
24,575333	0,5	-0,265800
24,583667	0,5	-0,254200
24,592000	0,5	-0,224350
24,600333	0,5	-0,216250
24,608667	0,5	-0,203900
24,617000	0,5	-0,204950
24,625333	0,5	-0,208250
24,633667	0,5	-0,201050
24,642000	0,5	-0,189950
24,650333	0,5	-0,179200
24,658667	0,5	-0,166950
24,667000	0,5	-0,156050
24,675333	0,5	-0,146200
24,683667	0,5	-0,131800
24,692000	0,5	-0,120100
24,700333	0,5	-0,107700
24,708667	0,5	-0,122600
24,717000	0,5	-0,122750
24,725333	0,5	-0,109200
24,733667	0,5	-0,088250
24,742000	0,5	-0,068800
24,750333	0,5	-0,059750
24,758667	0,5	-0,054050
24,767000	0,5	-0,054400
24,775333	0,5	-0,058900
24,783667	0,5	-0,049900
24,792000	0,5	-0,040500
24,800333	0,5	-0,029800
24,808667	0,5	-0,026200
24,817000	0,5	-0,017900
24,825333	0,5	-0,010650
24,833667	0,5	-0,005500
24,842000	0,5	0,001850
24,850333	0,5	0,006000
24,858667	0,5	-0,005200
24,867000	0,5	-0,002950
24,875333	0,5	0,009150
24,883667	0,5	0,021550
24,892000	0,5	0,034200
24,900333	0,5	0,039000
24,908667	0,5	0,048550
24,917000	0,5	0,045900
24,925333	0,5	0,053350
24,933667	0,5	0,061700
24,942000	0,5	0,070050
24,950333	0,5	0,078250
24,958667	0,5	0,085900
24,967000	0,5	0,092050
24,975333	0,5	0,099200
24,983667	0,5	0,105200
24,992000	0,5	0,113450
25,000333	0,5	0,118000
25,008667	0,5	0,109000
25,017000	0,5	0,117850
25,025333	0,5	0,122100
25,033667	0,5	0,131050
25,042000	0,5	0,136100
25,050333	0,5	0,139400
25,058667	0,5	0,138900
25,067000	0,5	0,138650
25,075333	0,5	0,141200
25,083667	0,5	0,146200
25,092000	0,5	0,148700
25,100333	0,5	0,157850
25,108667	0,5	0,161450
25,117000	0,5	0,166900
25,125333	0,5	0,173550
25,133667	0,5	0,181250
25,142000	0,5	0,186550
25,150333	0,5	0,188500
25,158667	0,5	0,192350
25,167000	0,5	0,200550
25,175333	0,5	0,205600
25,183667	0,5	0,209300
25,192000	0,5	0,214300
25,200333	0,5	0,217750
25,208667	0,5	0,217850
25,217000	0,5	0,216350
25,225333	0,5	0,220750
25,233667	0,5	0,220800
25,242000	0,5	0,221950
25,250333	0,5	0,224650
25,258667	0,5	0,224850
25,267000	0,5	0,229450
25,275333	0,5	0,230550
25,283667	0,5	0,232100
25,292000	0,5	0,235150
25,300333	0,5	0,236400
25,308667	0,5	0,241900
25,317000	0,5	0,245700
25,325333	0,5	0,248350
25,333667	0,5	0,251250
25,342000	0,5	0,255900
25,350333	0,5	0,257450
25,358667	0,5	0,262000
25,367000	0,5	0,263100
25,375333	0,5	0,265800
25,383667	0,5	0,269550
25,392000	0,5	0,271250
25,400333	0,5	0,270250
25,408667	0,5	0,277050
25,417000	0,5	0,279100
25,425333	0,5	0,278350
25,433667	0,5	0,279900
25,442000	0,5	0,282250
25,450333	0,5	0,285400
25,458667	0,5	0,287300
25,467000	0,5	0,290900
25,475333	0,5	0,283150
25,483667	0,5	0,286600
25,492000	0,5	0,288100
25,500333	0,5	0,288850
25,508667	0,5	0,293800
25,517000	0,5	0,295800
25,525333	0,5	0,293700
25,533667	0,5	0,297450
25,542000	0,5	0,300550
25,550333	0,5	0,302350
25,558667	0,5	0,304150
25,567000	0,5	0,308350
25,575333	0,5	0,306900
25,583667	0,5	0,311500
25,592000	0,5	0,315850
25,600333	0,5	0,319250
25,608667	0,5	0,317250
25,617000	0,5	0,322000
25,625333	0,5	0,317450
25,633667	0,5	0,319100
25,642000	0,5	0,320550
25,650333	0,5	0,319900
25,658667	0,5	0,326900
25,667000	0,5	0,326150
25,675333	0,5	0,322600
25,683667	0,5	0,325900
25,692000	0,5	0,324350
25,700333	0,5	0,324850
25,708667	0,5	0,326750
25,717000	0,5	0,324800
25,725333	0,5	0,329400
25,733667	0,5	0,328600
25,742000	0,5	0,335050
25,750333	0,5	0,335000
25,758667	0,5	0,341650
25,767000	0,5	0,336950
25,775333	0,5	0,337550
25,783667	0,5	0,337000
25,792000	0,5	0,338900
25,800333	0,5	0,347700
25,808667	0,5	0,353950
25,817000	0,5	0,349600
25,825333	0,5	0,357850
25,833667	0,5	0,354700
25,842000	0,5	0,354200
25,850333	0,5	0,353000
25,858667	0,5	0,352300
25,867000	0,5	0,354600
25,875333	0,5	0,356650
25,883667	0,5	0,358200
25,892000	0,5	0,359300
25,900333	0,5	0,366550
25,908667	0,5	0,373300
25,917000	0,5	0,366350
25,925333	0,5	0,366050
25,933667	0,5	0,370700
25,942000	0,5	0,373500
25,950333	0,5	0,386200
25,958667	0,5	0,384350
25,967000	0,5	0,387300
25,975333	0,5	0,385700
25,983667	0,5	0,392150
25,992000	0,5	0,388350
26,000333	0,5	0,391900
