File Path	chrom://chromeleon01/ikbm_chromeleon/2022/ICS-5000/ED1/Esteban/20220612_Cell_7_4_eg.seq/646.smp/ED_1.channel/ED_1.chm
Channel	ED_1

Injection Information:
Data Vault	ikbm_chromeleon
Injection	7_01h-EGS_2
Injection Number	105
Position	BA5
Comment	
Processing Method	Stop sequence after Cell Death
Instrument Method	ICS5000_PA200_FullNative_Ox_26min_ED1
Type	Unknown
Status	Finished
Injection Date	14.06.2022
Injection Time	17:39:08
Injection Volume (µl)	5,0
Dilution Factor	1,0000
Weight	1,0000

Chromatogram Data Information:
Time Min. (min)	0,000167
Time Max. (min)	26,000167
Data Points	3121
Detector	EDet1
Generating Data System	Chromeleon 7.2.9.11323
Exporting Data System	Chromeleon 7.2.9.0
Operator	Instrument Controller
Signal Quantity	
Signal Unit	nC
Signal Min.	-2,687300
Signal Max.	879,363613
Channel	ED_1
Driver Name	DC-5000
Channel Type	Evaluation
Min. Step (s)	0,5
Max. Step (s)	0,5
Average Step (s)	0,5

Signal Parameter Information:
Signal Info	

Chromatogram Data:
Time (min)	Step (s)	Value (nC)
0,000167	n.a.	-0,054800
0,008500	0,5	-0,099450
0,016833	0,5	-0,083400
0,025167	0,5	-0,068000
0,033500	0,5	-0,050650
0,041833	0,5	-0,046550
0,050167	0,5	-0,049700
0,058500	0,5	-0,037700
0,066833	0,5	-0,057050
0,075167	0,5	-0,053500
0,083500	0,5	-0,025750
0,091833	0,5	-0,041150
0,100167	0,5	-0,070900
0,108500	0,5	-0,057800
0,116833	0,5	-0,055200
0,125167	0,5	-0,005100
0,133500	0,5	-0,009500
0,141833	0,5	-0,011500
0,150167	0,5	-0,020250
0,158500	0,5	-0,016800
0,166833	0,5	-0,026900
0,175167	0,5	-0,025200
0,183500	0,5	-0,033050
0,191833	0,5	-0,040450
0,200167	0,5	-0,040350
0,208500	0,5	-0,037250
0,216833	0,5	-0,042650
0,225167	0,5	-0,056750
0,233500	0,5	-0,023300
0,241833	0,5	-0,055100
0,250167	0,5	-0,064650
0,258500	0,5	-0,062900
0,266833	0,5	-0,046500
0,275167	0,5	-0,020250
0,283500	0,5	-0,026100
0,291833	0,5	-0,018550
0,300167	0,5	0,044050
0,308500	0,5	0,038800
0,316833	0,5	0,003950
0,325167	0,5	-0,043450
0,333500	0,5	-0,062000
0,341833	0,5	-0,069850
0,350167	0,5	-0,066100
0,358500	0,5	-0,062550
0,366833	0,5	-0,075500
0,375167	0,5	-0,073050
0,383500	0,5	-0,046300
0,391833	0,5	-0,075150
0,400167	0,5	-0,076350
0,408500	0,5	-0,066700
0,416833	0,5	-0,050900
0,425167	0,5	-0,016550
0,433500	0,5	-0,043400
0,441833	0,5	-0,033150
0,450167	0,5	-0,035150
0,458500	0,5	-0,026900
0,466833	0,5	-0,040750
0,475167	0,5	-0,033900
0,483500	0,5	-0,048000
0,491833	0,5	-0,035700
0,500167	0,5	-0,038200
0,508500	0,5	-0,042450
0,516833	0,5	-0,063750
0,525167	0,5	-0,048100
0,533500	0,5	-0,043350
0,541833	0,5	-0,057750
0,550167	0,5	-0,056450
0,558500	0,5	-0,040250
0,566833	0,5	-0,017350
0,575167	0,5	0,007250
0,583500	0,5	-0,000400
0,591833	0,5	-0,003300
0,600167	0,5	0,003200
0,608500	0,5	0,001150
0,616833	0,5	0,007250
0,625167	0,5	0,001200
0,633500	0,5	0,006600
0,641833	0,5	-0,000700
0,650167	0,5	0,008600
0,658500	0,5	-0,001700
0,666833	0,5	-0,001550
0,675167	0,5	0,008750
0,683500	0,5	0,008700
0,691833	0,5	-0,002350
0,700167	0,5	0,006250
0,708500	0,5	0,015900
0,716833	0,5	0,046800
0,725167	0,5	0,061500
0,733500	0,5	0,055600
0,741833	0,5	0,057150
0,750167	0,5	0,060550
0,758500	0,5	0,061150
0,766833	0,5	0,057600
0,775167	0,5	0,062900
0,783500	0,5	0,059400
0,791833	0,5	0,068700
0,800167	0,5	0,064250
0,808500	0,5	0,066500
0,816833	0,5	0,065350
0,825167	0,5	0,090450
0,833500	0,5	0,063400
0,841833	0,5	0,063550
0,850167	0,5	0,063850
0,858500	0,5	0,094150
0,866833	0,5	0,120100
0,875167	0,5	0,134150
0,883500	0,5	0,118900
0,891833	0,5	0,127750
0,900167	0,5	0,123150
0,908500	0,5	0,127450
0,916833	0,5	0,123450
0,925167	0,5	0,122800
0,933500	0,5	0,127900
0,941833	0,5	0,126400
0,950167	0,5	0,128350
0,958500	0,5	0,110750
0,966833	0,5	0,124350
0,975167	0,5	0,136150
0,983500	0,5	0,120650
0,991833	0,5	0,120200
1,000167	0,5	0,124950
1,008500	0,5	0,146600
1,016833	0,5	0,171750
1,025167	0,5	0,164550
1,033500	0,5	0,176500
1,041833	0,5	0,164600
1,050167	0,5	0,176700
1,058500	0,5	0,166650
1,066833	0,5	0,177700
1,075167	0,5	0,167600
1,083500	0,5	0,165750
1,091833	0,5	0,168500
1,100167	0,5	0,153500
1,108500	0,5	0,142100
1,116833	0,5	0,176450
1,125167	0,5	0,165500
1,133500	0,5	0,149600
1,141833	0,5	0,155800
1,150167	0,5	0,161700
1,158500	0,5	0,204700
1,166833	0,5	0,201050
1,175167	0,5	0,204450
1,183500	0,5	0,200050
1,191833	0,5	0,207250
1,200167	0,5	0,195800
1,208500	0,5	0,200200
1,216833	0,5	0,194950
1,225167	0,5	0,198450
1,233500	0,5	0,193600
1,241833	0,5	0,200100
1,250167	0,5	0,183850
1,258500	0,5	0,183100
1,266833	0,5	0,211750
1,275167	0,5	0,194050
1,283500	0,5	0,184200
1,291833	0,5	0,191550
1,300167	0,5	0,196850
1,308500	0,5	0,234200
1,316833	0,5	0,226450
1,325167	0,5	0,207350
1,333500	0,5	0,215800
1,341833	0,5	0,219800
1,350167	0,5	0,227200
1,358500	0,5	0,226800
1,366833	0,5	0,225250
1,375167	0,5	0,217000
1,383500	0,5	0,221300
1,391833	0,5	0,222800
1,400167	0,5	0,221550
1,408500	0,5	0,210800
1,416833	0,5	0,241050
1,425167	0,5	0,208250
1,433500	0,5	0,208200
1,441833	0,5	0,208800
1,450167	0,5	0,227600
1,458500	0,5	0,256650
1,466833	0,5	0,240950
1,475167	0,5	0,240300
1,483500	0,5	0,246450
1,491833	0,5	0,244550
1,500167	0,5	0,244200
1,508500	0,5	0,241100
1,516833	0,5	0,232300
1,525167	0,5	0,235050
1,533500	0,5	0,229000
1,541833	0,5	0,241650
1,550167	0,5	0,235350
1,558500	0,5	0,299700
1,566833	0,5	0,474400
1,575167	0,5	0,806350
1,583500	0,5	1,251000
1,591833	0,5	2,784600
1,600167	0,5	10,626900
1,608500	0,5	40,577351
1,616833	0,5	132,772152
1,625167	0,5	338,422605
1,633500	0,5	619,506259
1,641833	0,5	833,525162
1,650167	0,5	879,363613
1,658500	0,5	766,846111
1,666833	0,5	578,724909
1,675167	0,5	403,398756
1,683500	0,5	279,333104
1,691833	0,5	200,133103
1,700167	0,5	150,546902
1,708500	0,5	119,505652
1,716833	0,5	99,989851
1,725167	0,5	86,966551
1,733500	0,5	77,133951
1,741833	0,5	69,323751
1,750167	0,5	63,310401
1,758500	0,5	58,240951
1,766833	0,5	53,310901
1,775167	0,5	48,732451
1,783500	0,5	45,640501
1,791833	0,5	45,032651
1,800167	0,5	47,172801
1,808500	0,5	51,033351
1,816833	0,5	54,986601
1,825167	0,5	57,734101
1,833500	0,5	58,547301
1,841833	0,5	57,140001
1,850167	0,5	54,071651
1,858500	0,5	50,370301
1,866833	0,5	46,824001
1,875167	0,5	43,851901
1,883500	0,5	41,493351
1,891833	0,5	39,644551
1,900167	0,5	38,029151
1,908500	0,5	36,484551
1,916833	0,5	35,037351
1,925167	0,5	33,908451
1,933500	0,5	33,010300
1,941833	0,5	32,134100
1,950167	0,5	31,122250
1,958500	0,5	30,128150
1,966833	0,5	29,344800
1,975167	0,5	28,955350
1,983500	0,5	29,058100
1,991833	0,5	29,557600
2,000167	0,5	30,010150
2,008500	0,5	29,852050
2,016833	0,5	29,000350
2,025167	0,5	27,922000
2,033500	0,5	26,990500
2,041833	0,5	26,380650
2,050167	0,5	26,081950
2,058500	0,5	26,035550
2,066833	0,5	26,333150
2,075167	0,5	27,061250
2,083500	0,5	28,265500
2,091833	0,5	29,561000
2,100167	0,5	30,700900
2,108500	0,5	32,058050
2,116833	0,5	34,464601
2,125167	0,5	37,903801
2,133500	0,5	41,126551
2,141833	0,5	42,712551
2,150167	0,5	42,601951
2,158500	0,5	41,252101
2,166833	0,5	38,880701
2,175167	0,5	35,562901
2,183500	0,5	31,995500
2,191833	0,5	29,027450
2,200167	0,5	26,938300
2,208500	0,5	25,746800
2,216833	0,5	25,503700
2,225167	0,5	26,339300
2,233500	0,5	28,135200
2,241833	0,5	29,920100
2,250167	0,5	30,329850
2,258500	0,5	29,031700
2,266833	0,5	26,941700
2,275167	0,5	25,053100
2,283500	0,5	23,648350
2,291833	0,5	22,664300
2,300167	0,5	22,013400
2,308500	0,5	21,564150
2,316833	0,5	21,282400
2,325167	0,5	21,078250
2,333500	0,5	20,888300
2,341833	0,5	20,852550
2,350167	0,5	20,978900
2,358500	0,5	21,298550
2,366833	0,5	21,613250
2,375167	0,5	21,776400
2,383500	0,5	21,876000
2,391833	0,5	22,191350
2,400167	0,5	22,795800
2,408500	0,5	23,370450
2,416833	0,5	23,426800
2,425167	0,5	22,887550
2,433500	0,5	22,127650
2,441833	0,5	21,465900
2,450167	0,5	21,054600
2,458500	0,5	20,728500
2,466833	0,5	20,525000
2,475167	0,5	20,394350
2,483500	0,5	20,339450
2,491833	0,5	20,322150
2,500167	0,5	20,246450
2,508500	0,5	20,123300
2,516833	0,5	19,996900
2,525167	0,5	19,856850
2,533500	0,5	19,753650
2,541833	0,5	19,650150
2,550167	0,5	19,534650
2,558500	0,5	19,415850
2,566833	0,5	19,475500
2,575167	0,5	20,393200
2,583500	0,5	21,604700
2,591833	0,5	21,349950
2,600167	0,5	19,994450
2,608500	0,5	18,926100
2,616833	0,5	18,358600
2,625167	0,5	18,059150
2,633500	0,5	17,884850
2,641833	0,5	17,782600
2,650167	0,5	17,664750
2,658500	0,5	17,588300
2,666833	0,5	17,506550
2,675167	0,5	17,452750
2,683500	0,5	17,383450
2,691833	0,5	17,325600
2,700167	0,5	17,248250
2,708500	0,5	17,170050
2,716833	0,5	17,078600
2,725167	0,5	16,966550
2,733500	0,5	16,852350
2,741833	0,5	16,770350
2,750167	0,5	16,668950
2,758500	0,5	16,591550
2,766833	0,5	16,560750
2,775167	0,5	16,587800
2,783500	0,5	16,731350
2,791833	0,5	17,010500
2,800167	0,5	17,470450
2,808500	0,5	18,110250
2,816833	0,5	18,862150
2,825167	0,5	19,581450
2,833500	0,5	20,191950
2,841833	0,5	20,596600
2,850167	0,5	20,784750
2,858500	0,5	20,721250
2,866833	0,5	20,446200
2,875167	0,5	20,033550
2,883500	0,5	19,679950
2,891833	0,5	19,571050
2,900167	0,5	19,904000
2,908500	0,5	20,866700
2,916833	0,5	22,481150
2,925167	0,5	24,461550
2,933500	0,5	26,318400
2,941833	0,5	27,508400
2,950167	0,5	27,844150
2,958500	0,5	27,637150
2,966833	0,5	27,515150
2,975167	0,5	28,137000
2,983500	0,5	29,777400
2,991833	0,5	32,091450
3,000167	0,5	34,298401
3,008500	0,5	35,643601
3,016833	0,5	35,680251
3,025167	0,5	34,416851
3,033500	0,5	32,180750
3,041833	0,5	29,424950
3,050167	0,5	26,581400
3,058500	0,5	24,039650
3,066833	0,5	21,988000
3,075167	0,5	20,531750
3,083500	0,5	19,672050
3,091833	0,5	19,452100
3,100167	0,5	19,934200
3,108500	0,5	21,088250
3,116833	0,5	22,718800
3,125167	0,5	24,441650
3,133500	0,5	25,793750
3,141833	0,5	26,383900
3,150167	0,5	26,072100
3,158500	0,5	24,918200
3,166833	0,5	23,200450
3,175167	0,5	21,204300
3,183500	0,5	19,291800
3,191833	0,5	17,573400
3,200167	0,5	16,186950
3,208500	0,5	15,136550
3,216833	0,5	14,372650
3,225167	0,5	13,838800
3,233500	0,5	13,433900
3,241833	0,5	13,113700
3,250167	0,5	12,887150
3,258500	0,5	12,690750
3,266833	0,5	12,541350
3,275167	0,5	12,405500
3,283500	0,5	12,305300
3,291833	0,5	12,221500
3,300167	0,5	12,176700
3,308500	0,5	12,182450
3,316833	0,5	12,241600
3,325167	0,5	12,383100
3,333500	0,5	12,644700
3,341833	0,5	12,902900
3,350167	0,5	13,168950
3,358500	0,5	13,363450
3,366833	0,5	13,417700
3,375167	0,5	13,333800
3,383500	0,5	13,045150
3,391833	0,5	12,679450
3,400167	0,5	12,280500
3,408500	0,5	11,927700
3,416833	0,5	11,617650
3,425167	0,5	11,387400
3,433500	0,5	11,198150
3,441833	0,5	11,064450
3,450167	0,5	10,952650
3,458500	0,5	10,871800
3,466833	0,5	10,801350
3,475167	0,5	10,749000
3,483500	0,5	10,724000
3,491833	0,5	10,668050
3,500167	0,5	10,639650
3,508500	0,5	10,621950
3,516833	0,5	10,619650
3,525167	0,5	10,646600
3,533500	0,5	10,661800
3,541833	0,5	10,704900
3,550167	0,5	10,826600
3,558500	0,5	10,995150
3,566833	0,5	11,224550
3,575167	0,5	11,463850
3,583500	0,5	11,673000
3,591833	0,5	11,784200
3,600167	0,5	11,769100
3,608500	0,5	11,615600
3,616833	0,5	11,358600
3,625167	0,5	11,044450
3,633500	0,5	10,747850
3,641833	0,5	10,459000
3,650167	0,5	10,254700
3,658500	0,5	10,107350
3,666833	0,5	10,020050
3,675167	0,5	9,967350
3,683500	0,5	9,904950
3,691833	0,5	9,865650
3,700167	0,5	9,837100
3,708500	0,5	9,823350
3,716833	0,5	9,807350
3,725167	0,5	9,791700
3,733500	0,5	9,764800
3,741833	0,5	9,742600
3,750167	0,5	9,700000
3,758500	0,5	9,672100
3,766833	0,5	9,638700
3,775167	0,5	9,642450
3,783500	0,5	9,632500
3,791833	0,5	9,639300
3,800167	0,5	9,662650
3,808500	0,5	9,690800
3,816833	0,5	9,711900
3,825167	0,5	9,702400
3,833500	0,5	9,654550
3,841833	0,5	9,609200
3,850167	0,5	9,545800
3,858500	0,5	9,490750
3,866833	0,5	9,433900
3,875167	0,5	9,387000
3,883500	0,5	9,359000
3,891833	0,5	9,333850
3,900167	0,5	9,324000
3,908500	0,5	9,288650
3,916833	0,5	9,274200
3,925167	0,5	9,259950
3,933500	0,5	9,210900
3,941833	0,5	9,159650
3,950167	0,5	9,123800
3,958500	0,5	9,099750
3,966833	0,5	9,090200
3,975167	0,5	9,056500
3,983500	0,5	9,038050
3,991833	0,5	9,019450
4,000167	0,5	9,016800
4,008500	0,5	9,005650
4,016833	0,5	9,005150
4,025167	0,5	8,988850
4,033500	0,5	8,967450
4,041833	0,5	8,947650
4,050167	0,5	8,911850
4,058500	0,5	8,866450
4,066833	0,5	8,838300
4,075167	0,5	8,797800
4,083500	0,5	8,750800
4,091833	0,5	8,721750
4,100167	0,5	8,697700
4,108500	0,5	8,699600
4,116833	0,5	8,680650
4,125167	0,5	8,668750
4,133500	0,5	8,642800
4,141833	0,5	8,635100
4,150167	0,5	8,611150
4,158500	0,5	8,598200
4,166833	0,5	8,580400
4,175167	0,5	8,568350
4,183500	0,5	8,555950
4,191833	0,5	8,545400
4,200167	0,5	8,549850
4,208500	0,5	8,538850
4,216833	0,5	8,552250
4,225167	0,5	8,537600
4,233500	0,5	8,522350
4,241833	0,5	8,515200
4,250167	0,5	8,513250
4,258500	0,5	8,525550
4,266833	0,5	8,516450
4,275167	0,5	8,482200
4,283500	0,5	8,475400
4,291833	0,5	8,451700
4,300167	0,5	8,436200
4,308500	0,5	8,403300
4,316833	0,5	8,390350
4,325167	0,5	8,361750
4,333500	0,5	8,346200
4,341833	0,5	8,325300
4,350167	0,5	8,315550
4,358500	0,5	8,275950
4,366833	0,5	8,289000
4,375167	0,5	8,252200
4,383500	0,5	8,238650
4,391833	0,5	8,228300
4,400167	0,5	8,230850
4,408500	0,5	8,259000
4,416833	0,5	8,246300
4,425167	0,5	8,238950
4,433500	0,5	8,240250
4,441833	0,5	8,245700
4,450167	0,5	8,246300
4,458500	0,5	8,250900
4,466833	0,5	8,239250
4,475167	0,5	8,234050
4,483500	0,5	8,214500
4,491833	0,5	8,200750
4,500167	0,5	8,160650
4,508500	0,5	8,137050
4,516833	0,5	8,124000
4,525167	0,5	8,079300
4,533500	0,5	8,051700
4,541833	0,5	8,033400
4,550167	0,5	8,027250
4,558500	0,5	8,032650
4,566833	0,5	8,008600
4,575167	0,5	7,994900
4,583500	0,5	7,980350
4,591833	0,5	7,970150
4,600167	0,5	7,954650
4,608500	0,5	7,947800
4,616833	0,5	7,933600
4,625167	0,5	7,918200
4,633500	0,5	7,916450
4,641833	0,5	7,899950
4,650167	0,5	7,896000
4,658500	0,5	7,885050
4,666833	0,5	7,878500
4,675167	0,5	7,841700
4,683500	0,5	7,834950
4,691833	0,5	7,824750
4,700167	0,5	7,841250
4,708500	0,5	7,847850
4,716833	0,5	7,839900
4,725167	0,5	7,820100
4,733500	0,5	7,817950
4,741833	0,5	7,802100
4,750167	0,5	7,798450
4,758500	0,5	7,790800
4,766833	0,5	7,778950
4,775167	0,5	7,773750
4,783500	0,5	7,767800
4,791833	0,5	7,758900
4,800167	0,5	7,754650
4,808500	0,5	7,764200
4,816833	0,5	7,757500
4,825167	0,5	7,750200
4,833500	0,5	7,760750
4,841833	0,5	7,783400
4,850167	0,5	7,824400
4,858500	0,5	7,867900
4,866833	0,5	7,896300
4,875167	0,5	7,960850
4,883500	0,5	8,020000
4,891833	0,5	8,114800
4,900167	0,5	8,208900
4,908500	0,5	8,318200
4,916833	0,5	8,424650
4,925167	0,5	8,540550
4,933500	0,5	8,648800
4,941833	0,5	8,729400
4,950167	0,5	8,806750
4,958500	0,5	8,886400
4,966833	0,5	8,913300
4,975167	0,5	8,935050
4,983500	0,5	8,956800
4,991833	0,5	8,984600
5,000167	0,5	9,022350
5,008500	0,5	9,025500
5,016833	0,5	9,039500
5,025167	0,5	9,046200
5,033500	0,5	9,054250
5,041833	0,5	9,032500
5,050167	0,5	9,007100
5,058500	0,5	8,945500
5,066833	0,5	8,876950
5,075167	0,5	8,779050
5,083500	0,5	8,669250
5,091833	0,5	8,531950
5,100167	0,5	8,416600
5,108500	0,5	8,282200
5,116833	0,5	8,148900
5,125167	0,5	8,030500
5,133500	0,5	7,939200
5,141833	0,5	7,871250
5,150167	0,5	7,807000
5,158500	0,5	7,745700
5,166833	0,5	7,692150
5,175167	0,5	7,660200
5,183500	0,5	7,630350
5,191833	0,5	7,611300
5,200167	0,5	7,587950
5,208500	0,5	7,573200
5,216833	0,5	7,553350
5,225167	0,5	7,550450
5,233500	0,5	7,545450
5,241833	0,5	7,539350
5,250167	0,5	7,556550
5,258500	0,5	7,561200
5,266833	0,5	7,562050
5,275167	0,5	7,584150
5,283500	0,5	7,615850
5,291833	0,5	7,671900
5,300167	0,5	7,711150
5,308500	0,5	7,736800
5,316833	0,5	7,773200
5,325167	0,5	7,803500
5,333500	0,5	7,818350
5,341833	0,5	7,816700
5,350167	0,5	7,808150
5,358500	0,5	7,778750
5,366833	0,5	7,750750
5,375167	0,5	7,712300
5,383500	0,5	7,668250
5,391833	0,5	7,609600
5,400167	0,5	7,591900
5,408500	0,5	7,531200
5,416833	0,5	7,498750
5,425167	0,5	7,469350
5,433500	0,5	7,460200
5,441833	0,5	7,462250
5,450167	0,5	7,444050
5,458500	0,5	7,421650
5,466833	0,5	7,418750
5,475167	0,5	7,404950
5,483500	0,5	7,399900
5,491833	0,5	7,389850
5,500167	0,5	7,385900
5,508500	0,5	7,378100
5,516833	0,5	7,370450
5,525167	0,5	7,368900
5,533500	0,5	7,353250
5,541833	0,5	7,350800
5,550167	0,5	7,362900
5,558500	0,5	7,343100
5,566833	0,5	7,341050
5,575167	0,5	7,338800
5,583500	0,5	7,347100
5,591833	0,5	7,364950
5,600167	0,5	7,345400
5,608500	0,5	7,343000
5,616833	0,5	7,326450
5,625167	0,5	7,318150
5,633500	0,5	7,294350
5,641833	0,5	7,279150
5,650167	0,5	7,251000
5,658500	0,5	7,237850
5,666833	0,5	7,219700
5,675167	0,5	7,198000
5,683500	0,5	7,177350
5,691833	0,5	7,169000
5,700167	0,5	7,162650
5,708500	0,5	7,137350
5,716833	0,5	7,129500
5,725167	0,5	7,119550
5,733500	0,5	7,128700
5,741833	0,5	7,132650
5,750167	0,5	7,131650
5,758500	0,5	7,117950
5,766833	0,5	7,111150
5,775167	0,5	7,098600
5,783500	0,5	7,095150
5,791833	0,5	7,084000
5,800167	0,5	7,084300
5,808500	0,5	7,072350
5,816833	0,5	7,069200
5,825167	0,5	7,059200
5,833500	0,5	7,049800
5,841833	0,5	7,046650
5,850167	0,5	7,031500
5,858500	0,5	7,007000
5,866833	0,5	7,002300
5,875167	0,5	6,994550
5,883500	0,5	7,002850
5,891833	0,5	7,000900
5,900167	0,5	6,988500
5,908500	0,5	6,981900
5,916833	0,5	6,967100
5,925167	0,5	6,962300
5,933500	0,5	6,947700
5,941833	0,5	6,939150
5,950167	0,5	6,923400
5,958500	0,5	6,916000
5,966833	0,5	6,902900
5,975167	0,5	6,884750
5,983500	0,5	6,873400
5,991833	0,5	6,885250
6,000167	0,5	6,860550
6,008500	0,5	6,844400
6,016833	0,5	6,835000
6,025167	0,5	6,841350
6,033500	0,5	6,855900
6,041833	0,5	6,847750
6,050167	0,5	6,841950
6,058500	0,5	6,836700
6,066833	0,5	6,837800
6,075167	0,5	6,827750
6,083500	0,5	6,822550
6,091833	0,5	6,813350
6,100167	0,5	6,810700
6,108500	0,5	6,802650
6,116833	0,5	6,799150
6,125167	0,5	6,775050
6,133500	0,5	6,776050
6,141833	0,5	6,779350
6,150167	0,5	6,766100
6,158500	0,5	6,756500
6,166833	0,5	6,764850
6,175167	0,5	6,767650
6,183500	0,5	6,781700
6,191833	0,5	6,772600
6,200167	0,5	6,772100
6,208500	0,5	6,766850
6,216833	0,5	6,771550
6,225167	0,5	6,762250
6,233500	0,5	6,761700
6,241833	0,5	6,752500
6,250167	0,5	6,738550
6,258500	0,5	6,735300
6,266833	0,5	6,721550
6,275167	0,5	6,703500
6,283500	0,5	6,707050
6,291833	0,5	6,693550
6,300167	0,5	6,676600
6,308500	0,5	6,667100
6,316833	0,5	6,662950
6,325167	0,5	6,680750
6,333500	0,5	6,677850
6,341833	0,5	6,671150
6,350167	0,5	6,667900
6,358500	0,5	6,670800
6,366833	0,5	6,666800
6,375167	0,5	6,669800
6,383500	0,5	6,667250
6,391833	0,5	6,669250
6,400167	0,5	6,674200
6,408500	0,5	6,678500
6,416833	0,5	6,685650
6,425167	0,5	6,684500
6,433500	0,5	6,695350
6,441833	0,5	6,682850
6,450167	0,5	6,671550
6,458500	0,5	6,664700
6,466833	0,5	6,667400
6,475167	0,5	6,679400
6,483500	0,5	6,674200
6,491833	0,5	6,654250
6,500167	0,5	6,650550
6,508500	0,5	6,641950
6,516833	0,5	6,637250
6,525167	0,5	6,628350
6,533500	0,5	6,618750
6,541833	0,5	6,608750
6,550167	0,5	6,599350
6,558500	0,5	6,591450
6,566833	0,5	6,575200
6,575167	0,5	6,562900
6,583500	0,5	6,563300
6,591833	0,5	6,542750
6,600167	0,5	6,534950
6,608500	0,5	6,527800
6,616833	0,5	6,535800
6,625167	0,5	6,547900
6,633500	0,5	6,537600
6,641833	0,5	6,538700
6,650167	0,5	6,535200
6,658500	0,5	6,539800
6,666833	0,5	6,535700
6,675167	0,5	6,542200
6,683500	0,5	6,543200
6,691833	0,5	6,552350
6,700167	0,5	6,560650
6,708500	0,5	6,573000
6,716833	0,5	6,578500
6,725167	0,5	6,601000
6,733500	0,5	6,622750
6,741833	0,5	6,635600
6,750167	0,5	6,659350
6,758500	0,5	6,691650
6,766833	0,5	6,747100
6,775167	0,5	6,811000
6,783500	0,5	6,889100
6,791833	0,5	6,984950
6,800167	0,5	7,127200
6,808500	0,5	7,329350
6,816833	0,5	7,595500
6,825167	0,5	7,948850
6,833500	0,5	8,378100
6,841833	0,5	8,862750
6,850167	0,5	9,374850
6,858500	0,5	9,837600
6,866833	0,5	10,204950
6,875167	0,5	10,432200
6,883500	0,5	10,461100
6,891833	0,5	10,299400
6,900167	0,5	9,993150
6,908500	0,5	9,583400
6,916833	0,5	9,139000
6,925167	0,5	8,670000
6,933500	0,5	8,237050
6,941833	0,5	7,847450
6,950167	0,5	7,528300
6,958500	0,5	7,260600
6,966833	0,5	7,056650
6,975167	0,5	6,890000
6,983500	0,5	6,761000
6,991833	0,5	6,666050
7,000167	0,5	6,587700
7,008500	0,5	6,525400
7,016833	0,5	6,472200
7,025167	0,5	6,438100
7,033500	0,5	6,389350
7,041833	0,5	6,345850
7,050167	0,5	6,309050
7,058500	0,5	6,283450
7,066833	0,5	6,266500
7,075167	0,5	6,241700
7,083500	0,5	6,212100
7,091833	0,5	6,194850
7,100167	0,5	6,173050
7,108500	0,5	6,160300
7,116833	0,5	6,137850
7,125167	0,5	6,121650
7,133500	0,5	6,104600
7,141833	0,5	6,086350
7,150167	0,5	6,075150
7,158500	0,5	6,051900
7,166833	0,5	6,036800
7,175167	0,5	6,031400
7,183500	0,5	6,008800
7,191833	0,5	5,994400
7,200167	0,5	5,985400
7,208500	0,5	5,977450
7,216833	0,5	5,975300
7,225167	0,5	5,950400
7,233500	0,5	5,937150
7,241833	0,5	5,922750
7,250167	0,5	5,909200
7,258500	0,5	5,891450
7,266833	0,5	5,881100
7,275167	0,5	5,865950
7,283500	0,5	5,854900
7,291833	0,5	5,840900
7,300167	0,5	5,819050
7,308500	0,5	5,795950
7,316833	0,5	5,785650
7,325167	0,5	5,769100
7,333500	0,5	5,750150
7,341833	0,5	5,737150
7,350167	0,5	5,729100
7,358500	0,5	5,730600
7,366833	0,5	5,726500
7,375167	0,5	5,717750
7,383500	0,5	5,709550
7,391833	0,5	5,704250
7,400167	0,5	5,686950
7,408500	0,5	5,670550
7,416833	0,5	5,646450
7,425167	0,5	5,627450
7,433500	0,5	5,611200
7,441833	0,5	5,598250
7,450167	0,5	5,587500
7,458500	0,5	5,578500
7,466833	0,5	5,574450
7,475167	0,5	5,571050
7,483500	0,5	5,563150
7,491833	0,5	5,555400
7,500167	0,5	5,551500
7,508500	0,5	5,558200
7,516833	0,5	5,568300
7,525167	0,5	5,599800
7,533500	0,5	5,674950
7,541833	0,5	5,778600
7,550167	0,5	5,867650
7,558500	0,5	5,900650
7,566833	0,5	5,857200
7,575167	0,5	5,766600
7,583500	0,5	5,672100
7,591833	0,5	5,601000
7,600167	0,5	5,553500
7,608500	0,5	5,516200
7,616833	0,5	5,489850
7,625167	0,5	5,449700
7,633500	0,5	5,417400
7,641833	0,5	5,389200
7,650167	0,5	5,374250
7,658500	0,5	5,363200
7,666833	0,5	5,351750
7,675167	0,5	5,342600
7,683500	0,5	5,342450
7,691833	0,5	5,338600
7,700167	0,5	5,334000
7,708500	0,5	5,331000
7,716833	0,5	5,316650
7,725167	0,5	5,311750
7,733500	0,5	5,304550
7,741833	0,5	5,300750
7,750167	0,5	5,299100
7,758500	0,5	5,306900
7,766833	0,5	5,329650
7,775167	0,5	5,350700
7,783500	0,5	5,384450
7,791833	0,5	5,432400
7,800167	0,5	5,518500
7,808500	0,5	5,638950
7,816833	0,5	5,791750
7,825167	0,5	6,012850
7,833500	0,5	6,311000
7,841833	0,5	6,722250
7,850167	0,5	7,257700
7,858500	0,5	7,943750
7,866833	0,5	8,745300
7,875167	0,5	9,621550
7,883500	0,5	10,456750
7,891833	0,5	11,139150
7,900167	0,5	11,563000
7,908500	0,5	11,672850
7,916833	0,5	11,423550
7,925167	0,5	10,832150
7,933500	0,5	9,972850
7,941833	0,5	8,983650
7,950167	0,5	8,029950
7,958500	0,5	7,211450
7,966833	0,5	6,590900
7,975167	0,5	6,161250
7,983500	0,5	5,890200
7,991833	0,5	5,728750
8,000167	0,5	5,650800
8,008500	0,5	5,623400
8,016833	0,5	5,647500
8,025167	0,5	5,711150
8,033500	0,5	5,814050
8,041833	0,5	5,923750
8,050167	0,5	6,003050
8,058500	0,5	6,024400
8,066833	0,5	5,972050
8,075167	0,5	5,861350
8,083500	0,5	5,721650
8,091833	0,5	5,580700
8,100167	0,5	5,450650
8,108500	0,5	5,333700
8,116833	0,5	5,236000
8,125167	0,5	5,161700
8,133500	0,5	5,109350
8,141833	0,5	5,069600
8,150167	0,5	5,040400
8,158500	0,5	5,035250
8,166833	0,5	5,061000
8,175167	0,5	5,125200
8,183500	0,5	5,194550
8,191833	0,5	5,219450
8,200167	0,5	5,176200
8,208500	0,5	5,091150
8,216833	0,5	4,992400
8,225167	0,5	4,915600
8,233500	0,5	4,864350
8,241833	0,5	4,840650
8,250167	0,5	4,831300
8,258500	0,5	4,819350
8,266833	0,5	4,820100
8,275167	0,5	4,825650
8,283500	0,5	4,838300
8,291833	0,5	4,845000
8,300167	0,5	4,839100
8,308500	0,5	4,819150
8,316833	0,5	4,791900
8,325167	0,5	4,770150
8,333500	0,5	4,762200
8,341833	0,5	4,762400
8,350167	0,5	4,781250
8,358500	0,5	4,796750
8,366833	0,5	4,804000
8,375167	0,5	4,798000
8,383500	0,5	4,787750
8,391833	0,5	4,778700
8,400167	0,5	4,799450
8,408500	0,5	4,853100
8,416833	0,5	4,929100
8,425167	0,5	4,989550
8,433500	0,5	4,992050
8,441833	0,5	4,934400
8,450167	0,5	4,850800
8,458500	0,5	4,768350
8,466833	0,5	4,704300
8,475167	0,5	4,658400
8,483500	0,5	4,624400
8,491833	0,5	4,605150
8,500167	0,5	4,597850
8,508500	0,5	4,591450
8,516833	0,5	4,595500
8,525167	0,5	4,596150
8,533500	0,5	4,593350
8,541833	0,5	4,587400
8,550167	0,5	4,576450
8,558500	0,5	4,564050
8,566833	0,5	4,557900
8,575167	0,5	4,557700
8,583500	0,5	4,553900
8,591833	0,5	4,554500
8,600167	0,5	4,547850
8,608500	0,5	4,552100
8,616833	0,5	4,566350
8,625167	0,5	4,622000
8,633500	0,5	4,703450
8,641833	0,5	4,790200
8,650167	0,5	4,848000
8,658500	0,5	4,841550
8,666833	0,5	4,790850
8,675167	0,5	4,726050
8,683500	0,5	4,678900
8,691833	0,5	4,646050
8,700167	0,5	4,628000
8,708500	0,5	4,613650
8,716833	0,5	4,606100
8,725167	0,5	4,612100
8,733500	0,5	4,624150
8,741833	0,5	4,645150
8,750167	0,5	4,689300
8,758500	0,5	4,776700
8,766833	0,5	4,917550
8,775167	0,5	5,081900
8,783500	0,5	5,201100
8,791833	0,5	5,219100
8,800167	0,5	5,132100
8,808500	0,5	4,982750
8,816833	0,5	4,852100
8,825167	0,5	4,783150
8,833500	0,5	4,761850
8,841833	0,5	4,746800
8,850167	0,5	4,697200
8,858500	0,5	4,632800
8,866833	0,5	4,575400
8,875167	0,5	4,544800
8,883500	0,5	4,537700
8,891833	0,5	4,535500
8,900167	0,5	4,527650
8,908500	0,5	4,509200
8,916833	0,5	4,492550
8,925167	0,5	4,479700
8,933500	0,5	4,471700
8,941833	0,5	4,477150
8,950167	0,5	4,498200
8,958500	0,5	4,528600
8,966833	0,5	4,582600
8,975167	0,5	4,665700
8,983500	0,5	4,787350
8,991833	0,5	4,925050
9,000167	0,5	5,036650
9,008500	0,5	5,094000
9,016833	0,5	5,101400
9,025167	0,5	5,082550
9,033500	0,5	5,064150
9,041833	0,5	5,049300
9,050167	0,5	5,034450
9,058500	0,5	5,011150
9,066833	0,5	4,983950
9,075167	0,5	4,968700
9,083500	0,5	4,968350
9,091833	0,5	4,982300
9,100167	0,5	4,995450
9,108500	0,5	5,007050
9,116833	0,5	5,032400
9,125167	0,5	5,108800
9,133500	0,5	5,282750
9,141833	0,5	5,589850
9,150167	0,5	6,019650
9,158500	0,5	6,324150
9,166833	0,5	6,288350
9,175167	0,5	5,911000
9,183500	0,5	5,492750
9,191833	0,5	5,230150
9,200167	0,5	5,157100
9,208500	0,5	5,235850
9,216833	0,5	5,429650
9,225167	0,5	5,705650
9,233500	0,5	6,020950
9,241833	0,5	6,347350
9,250167	0,5	6,643700
9,258500	0,5	6,873700
9,266833	0,5	7,021550
9,275167	0,5	7,069850
9,283500	0,5	7,021700
9,291833	0,5	6,894200
9,300167	0,5	6,705550
9,308500	0,5	6,490500
9,316833	0,5	6,283600
9,325167	0,5	6,115400
9,333500	0,5	6,008300
9,341833	0,5	5,967300
9,350167	0,5	5,971500
9,358500	0,5	5,987950
9,366833	0,5	5,978850
9,375167	0,5	5,921700
9,383500	0,5	5,805800
9,391833	0,5	5,644750
9,400167	0,5	5,456400
9,408500	0,5	5,269450
9,416833	0,5	5,103400
9,425167	0,5	4,974750
9,433500	0,5	4,880150
9,441833	0,5	4,817800
9,450167	0,5	4,775800
9,458500	0,5	4,759400
9,466833	0,5	4,763450
9,475167	0,5	4,785900
9,483500	0,5	4,817000
9,491833	0,5	4,843000
9,500167	0,5	4,847000
9,508500	0,5	4,824700
9,516833	0,5	4,778850
9,525167	0,5	4,717600
9,533500	0,5	4,653250
9,541833	0,5	4,592550
9,550167	0,5	4,534000
9,558500	0,5	4,482950
9,566833	0,5	4,438600
9,575167	0,5	4,403200
9,583500	0,5	4,378600
9,591833	0,5	4,356100
9,600167	0,5	4,346000
9,608500	0,5	4,337900
9,616833	0,5	4,337550
9,625167	0,5	4,345050
9,633500	0,5	4,359300
9,641833	0,5	4,375700
9,650167	0,5	4,399500
9,658500	0,5	4,429750
9,666833	0,5	4,460650
9,675167	0,5	4,490500
9,683500	0,5	4,526800
9,691833	0,5	4,555850
9,700167	0,5	4,572350
9,708500	0,5	4,578500
9,716833	0,5	4,566150
9,725167	0,5	4,547150
9,733500	0,5	4,529800
9,741833	0,5	4,521800
9,750167	0,5	4,528600
9,758500	0,5	4,566250
9,766833	0,5	4,629650
9,775167	0,5	4,730800
9,783500	0,5	4,862350
9,791833	0,5	5,016550
9,800167	0,5	5,179100
9,808500	0,5	5,335950
9,816833	0,5	5,489500
9,825167	0,5	5,635650
9,833500	0,5	5,788250
9,841833	0,5	5,949900
9,850167	0,5	6,115100
9,858500	0,5	6,294600
9,866833	0,5	6,469800
9,875167	0,5	6,647100
9,883500	0,5	6,815250
9,891833	0,5	6,971750
9,900167	0,5	7,120700
9,908500	0,5	7,254050
9,916833	0,5	7,386900
9,925167	0,5	7,502600
9,933500	0,5	7,605350
9,941833	0,5	7,691350
9,950167	0,5	7,749700
9,958500	0,5	7,774650
9,966833	0,5	7,743050
9,975167	0,5	7,635900
9,983500	0,5	7,445500
9,991833	0,5	7,159200
10,000167	0,5	6,796550
10,008500	0,5	6,396500
10,016833	0,5	5,993250
10,025167	0,5	5,621000
10,033500	0,5	5,304950
10,041833	0,5	5,054350
10,050167	0,5	4,874050
10,058500	0,5	4,755450
10,066833	0,5	4,692900
10,075167	0,5	4,674850
10,083500	0,5	4,682550
10,091833	0,5	4,693850
10,100167	0,5	4,699200
10,108500	0,5	4,689150
10,116833	0,5	4,656350
10,125167	0,5	4,611550
10,133500	0,5	4,562000
10,141833	0,5	4,506200
10,150167	0,5	4,458550
10,158500	0,5	4,414150
10,166833	0,5	4,371650
10,175167	0,5	4,340600
10,183500	0,5	4,304450
10,191833	0,5	4,271750
10,200167	0,5	4,245700
10,208500	0,5	4,225700
10,216833	0,5	4,214250
10,225167	0,5	4,210150
10,233500	0,5	4,209100
10,241833	0,5	4,212650
10,250167	0,5	4,222450
10,258500	0,5	4,238850
10,266833	0,5	4,249000
10,275167	0,5	4,260350
10,283500	0,5	4,280500
10,291833	0,5	4,296700
10,300167	0,5	4,318300
10,308500	0,5	4,348900
10,316833	0,5	4,381700
10,325167	0,5	4,422700
10,333500	0,5	4,466050
10,341833	0,5	4,506350
10,350167	0,5	4,544750
10,358500	0,5	4,565700
10,366833	0,5	4,569650
10,375167	0,5	4,550300
10,383500	0,5	4,513100
10,391833	0,5	4,466900
10,400167	0,5	4,416500
10,408500	0,5	4,370800
10,416833	0,5	4,320100
10,425167	0,5	4,277850
10,433500	0,5	4,230400
10,441833	0,5	4,187750
10,450167	0,5	4,146350
10,458500	0,5	4,115050
10,466833	0,5	4,095000
10,475167	0,5	4,090350
10,483500	0,5	4,093850
10,491833	0,5	4,109650
10,500167	0,5	4,126600
10,508500	0,5	4,151400
10,516833	0,5	4,172000
10,525167	0,5	4,196700
10,533500	0,5	4,229150
10,541833	0,5	4,270100
10,550167	0,5	4,321250
10,558500	0,5	4,368550
10,566833	0,5	4,395650
10,575167	0,5	4,413100
10,583500	0,5	4,386700
10,591833	0,5	4,336200
10,600167	0,5	4,262200
10,608500	0,5	4,183000
10,616833	0,5	4,118350
10,625167	0,5	4,056750
10,633500	0,5	4,005950
10,641833	0,5	3,958800
10,650167	0,5	3,920450
10,658500	0,5	3,879200
10,666833	0,5	3,851000
10,675167	0,5	3,828350
10,683500	0,5	3,819500
10,691833	0,5	3,826400
10,700167	0,5	3,840000
10,708500	0,5	3,855900
10,716833	0,5	3,886200
10,725167	0,5	3,929250
10,733500	0,5	3,982950
10,741833	0,5	4,048250
10,750167	0,5	4,113000
10,758500	0,5	4,161950
10,766833	0,5	4,177050
10,775167	0,5	4,154500
10,783500	0,5	4,090900
10,791833	0,5	4,013000
10,800167	0,5	3,927100
10,808500	0,5	3,843400
10,816833	0,5	3,775150
10,825167	0,5	3,712950
10,833500	0,5	3,659200
10,841833	0,5	3,613350
10,850167	0,5	3,572800
10,858500	0,5	3,538900
10,866833	0,5	3,525200
10,875167	0,5	3,529050
10,883500	0,5	3,542250
10,891833	0,5	3,576850
10,900167	0,5	3,627650
10,908500	0,5	3,705800
10,916833	0,5	3,785700
10,925167	0,5	3,860750
10,933500	0,5	3,896100
10,941833	0,5	3,886800
10,950167	0,5	3,830950
10,958500	0,5	3,746550
10,966833	0,5	3,652700
10,975167	0,5	3,563100
10,983500	0,5	3,492550
10,991833	0,5	3,432400
11,000167	0,5	3,390250
11,008500	0,5	3,345700
11,016833	0,5	3,324500
11,025167	0,5	3,312150
11,033500	0,5	3,313950
11,041833	0,5	3,336250
11,050167	0,5	3,377850
11,058500	0,5	3,442200
11,066833	0,5	3,442900
11,075167	0,5	3,575350
11,083500	0,5	3,610050
11,091833	0,5	3,603350
11,100167	0,5	3,559400
11,108500	0,5	3,484650
11,116833	0,5	3,395600
11,125167	0,5	3,308150
11,133500	0,5	3,230700
11,141833	0,5	3,165950
11,150167	0,5	3,102800
11,158500	0,5	3,043350
11,166833	0,5	2,990000
11,175167	0,5	2,937350
11,183500	0,5	2,882650
11,191833	0,5	2,838150
11,200167	0,5	2,800300
11,208500	0,5	2,774350
11,216833	0,5	2,746850
11,225167	0,5	2,714600
11,233500	0,5	2,678300
11,241833	0,5	2,643300
11,250167	0,5	2,613900
11,258500	0,5	2,597750
11,266833	0,5	2,593950
11,275167	0,5	2,608750
11,283500	0,5	2,639050
11,291833	0,5	2,670850
11,300167	0,5	2,702550
11,308500	0,5	2,741750
11,316833	0,5	2,779900
11,325167	0,5	2,817750
11,333500	0,5	2,846550
11,341833	0,5	2,864350
11,350167	0,5	2,874950
11,358500	0,5	2,876150
11,366833	0,5	2,861600
11,375167	0,5	2,832650
11,383500	0,5	2,802300
11,391833	0,5	2,769500
11,400167	0,5	2,745600
11,408500	0,5	2,726350
11,416833	0,5	2,713250
11,425167	0,5	2,705300
11,433500	0,5	2,706250
11,441833	0,5	2,707450
11,450167	0,5	2,708100
11,458500	0,5	2,715950
11,466833	0,5	2,719400
11,475167	0,5	2,720050
11,483500	0,5	2,713050
11,491833	0,5	2,702050
11,500167	0,5	2,699700
11,508500	0,5	2,698000
11,516833	0,5	2,699300
11,525167	0,5	2,700800
11,533500	0,5	2,704600
11,541833	0,5	2,717200
11,550167	0,5	2,726800
11,558500	0,5	2,743950
11,566833	0,5	2,760700
11,575167	0,5	2,780500
11,583500	0,5	2,802050
11,591833	0,5	2,816800
11,600167	0,5	2,827500
11,608500	0,5	2,847600
11,616833	0,5	2,860900
11,625167	0,5	2,874500
11,633500	0,5	2,883850
11,641833	0,5	2,893750
11,650167	0,5	2,921200
11,658500	0,5	2,934200
11,666833	0,5	2,942450
11,675167	0,5	2,953850
11,683500	0,5	2,959750
11,691833	0,5	2,964800
11,700167	0,5	2,974700
11,708500	0,5	2,983450
11,716833	0,5	2,995250
11,725167	0,5	3,002250
11,733500	0,5	3,010550
11,741833	0,5	3,007250
11,750167	0,5	3,007700
11,758500	0,5	3,013100
11,766833	0,5	3,020650
11,775167	0,5	3,027300
11,783500	0,5	3,043050
11,791833	0,5	3,071200
11,800167	0,5	3,121200
11,808500	0,5	3,189800
11,816833	0,5	3,298000
11,825167	0,5	3,432000
11,833500	0,5	3,599550
11,841833	0,5	3,773250
11,850167	0,5	3,954800
11,858500	0,5	4,088000
11,866833	0,5	4,164550
11,875167	0,5	4,177950
11,883500	0,5	4,122950
11,891833	0,5	4,006750
11,900167	0,5	3,866700
11,908500	0,5	3,711600
11,916833	0,5	3,555550
11,925167	0,5	3,423700
11,933500	0,5	3,307450
11,941833	0,5	3,234550
11,950167	0,5	3,179750
11,958500	0,5	3,150850
11,966833	0,5	3,132150
11,975167	0,5	3,132150
11,983500	0,5	3,143300
11,991833	0,5	3,167000
12,000167	0,5	3,202950
12,008500	0,5	3,244950
12,016833	0,5	3,287000
12,025167	0,5	3,323650
12,033500	0,5	3,353900
12,041833	0,5	3,357050
12,050167	0,5	3,369850
12,058500	0,5	3,361900
12,066833	0,5	3,343450
12,075167	0,5	3,325000
12,083500	0,5	3,311250
12,091833	0,5	3,320000
12,100167	0,5	3,335850
12,108500	0,5	3,362400
12,116833	0,5	3,408550
12,125167	0,5	3,464850
12,133500	0,5	3,535350
12,141833	0,5	3,605450
12,150167	0,5	3,674900
12,158500	0,5	3,715750
12,166833	0,5	3,735250
12,175167	0,5	3,725300
12,183500	0,5	3,678450
12,191833	0,5	3,608100
12,200167	0,5	3,532100
12,208500	0,5	3,449250
12,216833	0,5	3,370450
12,225167	0,5	3,309400
12,233500	0,5	3,265150
12,241833	0,5	3,248550
12,250167	0,5	3,232950
12,258500	0,5	3,228550
12,266833	0,5	3,220450
12,275167	0,5	3,213900
12,283500	0,5	3,211950
12,291833	0,5	3,199300
12,300167	0,5	3,182200
12,308500	0,5	3,157800
12,316833	0,5	3,132200
12,325167	0,5	3,115850
12,333500	0,5	3,083450
12,341833	0,5	3,065350
12,350167	0,5	3,048800
12,358500	0,5	3,035500
12,366833	0,5	3,018150
12,375167	0,5	3,004650
12,383500	0,5	3,000200
12,391833	0,5	2,997550
12,400167	0,5	2,993750
12,408500	0,5	2,985400
12,416833	0,5	2,981350
12,425167	0,5	2,977250
12,433500	0,5	2,975100
12,441833	0,5	2,982200
12,450167	0,5	2,985750
12,458500	0,5	2,988750
12,466833	0,5	3,001950
12,475167	0,5	3,008350
12,483500	0,5	3,009550
12,491833	0,5	3,023200
12,500167	0,5	3,041500
12,508500	0,5	3,065400
12,516833	0,5	3,091800
12,525167	0,5	3,122300
12,533500	0,5	3,168800
12,541833	0,5	3,216600
12,550167	0,5	3,269400
12,558500	0,5	3,317500
12,566833	0,5	3,365550
12,575167	0,5	3,409300
12,583500	0,5	3,460600
12,591833	0,5	3,510000
12,600167	0,5	3,557600
12,608500	0,5	3,604750
12,616833	0,5	3,649100
12,625167	0,5	3,695050
12,633500	0,5	3,737350
12,641833	0,5	3,773800
12,650167	0,5	3,793000
12,658500	0,5	3,803700
12,666833	0,5	3,798700
12,675167	0,5	3,783950
12,683500	0,5	3,757250
12,691833	0,5	3,717200
12,700167	0,5	3,670600
12,708500	0,5	3,631350
12,716833	0,5	3,583500
12,725167	0,5	3,540050
12,733500	0,5	3,482900
12,741833	0,5	3,423100
12,750167	0,5	3,352550
12,758500	0,5	3,280500
12,766833	0,5	3,214200
12,775167	0,5	3,157600
12,783500	0,5	3,133900
12,791833	0,5	3,138700
12,800167	0,5	3,160050
12,808500	0,5	3,194850
12,816833	0,5	3,227200
12,825167	0,5	3,262100
12,833500	0,5	3,273500
12,841833	0,5	3,237450
12,850167	0,5	3,187150
12,858500	0,5	3,127850
12,866833	0,5	3,104200
12,875167	0,5	3,171200
12,883500	0,5	3,287400
12,891833	0,5	3,319150
12,900167	0,5	3,333450
12,908500	0,5	3,237400
12,916833	0,5	2,954150
12,925167	0,5	2,631700
12,933500	0,5	2,279750
12,941833	0,5	1,908900
12,950167	0,5	1,619550
12,958500	0,5	1,401650
12,966833	0,5	1,223650
12,975167	0,5	1,090500
12,983500	0,5	0,981400
12,991833	0,5	0,902000
13,000167	0,5	0,828750
13,008500	0,5	0,776400
13,016833	0,5	0,731600
13,025167	0,5	0,699350
13,033500	0,5	0,676300
13,041833	0,5	0,660750
13,050167	0,5	0,645450
13,058500	0,5	0,637700
13,066833	0,5	0,621750
13,075167	0,5	0,606450
13,083500	0,5	0,594800
13,091833	0,5	0,580550
13,100167	0,5	0,558150
13,108500	0,5	0,538950
13,116833	0,5	0,517550
13,125167	0,5	0,511700
13,133500	0,5	0,507450
13,141833	0,5	0,501000
13,150167	0,5	0,500000
13,158500	0,5	0,494550
13,166833	0,5	0,495950
13,175167	0,5	0,492750
13,183500	0,5	0,490450
13,191833	0,5	0,482250
13,200167	0,5	0,471900
13,208500	0,5	0,464700
13,216833	0,5	0,447950
13,225167	0,5	0,436250
13,233500	0,5	0,425350
13,241833	0,5	0,416450
13,250167	0,5	0,403950
13,258500	0,5	0,390000
13,266833	0,5	0,385050
13,275167	0,5	0,388200
13,283500	0,5	0,385700
13,291833	0,5	0,382700
13,300167	0,5	0,379150
13,308500	0,5	0,378450
13,316833	0,5	0,371750
13,325167	0,5	0,371500
13,333500	0,5	0,362950
13,341833	0,5	0,358850
13,350167	0,5	0,350650
13,358500	0,5	0,350450
13,366833	0,5	0,336450
13,375167	0,5	0,342150
13,383500	0,5	0,341300
13,391833	0,5	0,341900
13,400167	0,5	0,340600
13,408500	0,5	0,343000
13,416833	0,5	0,366050
13,425167	0,5	0,392300
13,433500	0,5	0,426100
13,441833	0,5	0,473300
13,450167	0,5	0,533300
13,458500	0,5	0,603050
13,466833	0,5	0,686450
13,475167	0,5	0,781200
13,483500	0,5	0,877050
13,491833	0,5	0,975950
13,500167	0,5	1,077000
13,508500	0,5	1,163750
13,516833	0,5	1,236850
13,525167	0,5	1,304900
13,533500	0,5	1,356500
13,541833	0,5	1,390600
13,550167	0,5	1,404250
13,558500	0,5	1,414650
13,566833	0,5	1,424050
13,575167	0,5	1,422600
13,583500	0,5	1,419600
13,591833	0,5	1,411300
13,600167	0,5	1,404250
13,608500	0,5	1,397600
13,616833	0,5	1,392650
13,625167	0,5	1,387500
13,633500	0,5	1,382250
13,641833	0,5	1,381550
13,650167	0,5	1,376650
13,658500	0,5	1,373450
13,666833	0,5	1,375700
13,675167	0,5	1,385150
13,683500	0,5	1,383150
13,691833	0,5	1,381550
13,700167	0,5	1,375100
13,708500	0,5	1,377800
13,716833	0,5	1,383400
13,725167	0,5	1,394900
13,733500	0,5	1,390150
13,741833	0,5	1,399850
13,750167	0,5	1,403750
13,758500	0,5	1,411350
13,766833	0,5	1,411000
13,775167	0,5	1,412700
13,783500	0,5	1,414700
13,791833	0,5	1,414250
13,800167	0,5	1,427700
13,808500	0,5	1,418850
13,816833	0,5	1,431350
13,825167	0,5	1,442350
13,833500	0,5	1,445600
13,841833	0,5	1,444700
13,850167	0,5	1,441500
13,858500	0,5	1,444150
13,866833	0,5	1,453050
13,875167	0,5	1,456750
13,883500	0,5	1,461400
13,891833	0,5	1,460450
13,900167	0,5	1,466600
13,908500	0,5	1,470650
13,916833	0,5	1,481650
13,925167	0,5	1,488850
13,933500	0,5	1,494100
13,941833	0,5	1,495750
13,950167	0,5	1,500300
13,958500	0,5	1,488850
13,966833	0,5	1,498900
13,975167	0,5	1,497050
13,983500	0,5	1,491950
13,991833	0,5	1,480800
14,000167	0,5	1,476300
14,008500	0,5	1,484350
14,016833	0,5	1,485950
14,025167	0,5	1,487250
14,033500	0,5	1,483950
14,041833	0,5	1,489850
14,050167	0,5	1,486400
14,058500	0,5	1,487650
14,066833	0,5	1,480650
14,075167	0,5	1,478950
14,083500	0,5	1,472050
14,091833	0,5	1,482600
14,100167	0,5	1,473450
14,108500	0,5	1,477150
14,116833	0,5	1,482300
14,125167	0,5	1,484700
14,133500	0,5	1,479550
14,141833	0,5	1,475750
14,150167	0,5	1,475650
14,158500	0,5	1,482900
14,166833	0,5	1,484550
14,175167	0,5	1,490450
14,183500	0,5	1,497300
14,191833	0,5	1,502950
14,200167	0,5	1,502950
14,208500	0,5	1,508300
14,216833	0,5	1,516000
14,225167	0,5	1,519050
14,233500	0,5	1,526000
14,241833	0,5	1,533400
14,250167	0,5	1,531100
14,258500	0,5	1,539950
14,266833	0,5	1,550950
14,275167	0,5	1,557450
14,283500	0,5	1,559450
14,291833	0,5	1,552350
14,300167	0,5	1,561650
14,308500	0,5	1,571100
14,316833	0,5	1,576200
14,325167	0,5	1,583000
14,333500	0,5	1,592650
14,341833	0,5	1,595200
14,350167	0,5	1,605150
14,358500	0,5	1,613600
14,366833	0,5	1,619850
14,375167	0,5	1,631950
14,383500	0,5	1,639100
14,391833	0,5	1,651800
14,400167	0,5	1,653000
14,408500	0,5	1,675150
14,416833	0,5	1,684000
14,425167	0,5	1,696800
14,433500	0,5	1,701850
14,441833	0,5	1,711150
14,450167	0,5	1,726900
14,458500	0,5	1,756550
14,466833	0,5	1,778000
14,475167	0,5	1,811750
14,483500	0,5	1,842750
14,491833	0,5	1,871550
14,500167	0,5	1,898250
14,508500	0,5	1,920700
14,516833	0,5	1,939450
14,525167	0,5	1,951000
14,533500	0,5	1,963750
14,541833	0,5	1,967450
14,550167	0,5	1,971050
14,558500	0,5	1,987650
14,566833	0,5	1,992500
14,575167	0,5	2,003850
14,583500	0,5	2,016950
14,591833	0,5	2,033450
14,600167	0,5	2,065950
14,608500	0,5	2,093850
14,616833	0,5	2,133100
14,625167	0,5	2,153250
14,633500	0,5	2,187250
14,641833	0,5	2,212400
14,650167	0,5	2,250450
14,658500	0,5	2,284300
14,666833	0,5	2,322950
14,675167	0,5	2,363450
14,683500	0,5	2,392300
14,691833	0,5	2,402500
14,700167	0,5	2,428800
14,708500	0,5	2,458850
14,716833	0,5	2,484150
14,725167	0,5	2,518650
14,733500	0,5	2,547200
14,741833	0,5	2,594150
14,750167	0,5	2,641450
14,758500	0,5	2,681300
14,766833	0,5	2,703500
14,775167	0,5	2,711350
14,783500	0,5	2,696900
14,791833	0,5	2,676800
14,800167	0,5	2,640750
14,808500	0,5	2,610050
14,816833	0,5	2,582550
14,825167	0,5	2,568800
14,833500	0,5	2,553850
14,841833	0,5	2,543100
14,850167	0,5	2,550100
14,858500	0,5	2,562500
14,866833	0,5	2,557000
14,875167	0,5	2,541650
14,883500	0,5	2,513350
14,891833	0,5	2,488750
14,900167	0,5	2,464050
14,908500	0,5	2,433650
14,916833	0,5	2,411700
14,925167	0,5	2,388850
14,933500	0,5	2,375750
14,941833	0,5	2,363800
14,950167	0,5	2,358350
14,958500	0,5	2,348650
14,966833	0,5	2,344100
14,975167	0,5	2,340200
14,983500	0,5	2,325100
14,991833	0,5	2,311100
15,000167	0,5	2,310650
15,008500	0,5	2,299550
15,016833	0,5	2,281400
15,025167	0,5	2,255350
15,033500	0,5	2,242100
15,041833	0,5	2,240000
15,050167	0,5	2,228600
15,058500	0,5	2,216500
15,066833	0,5	2,206050
15,075167	0,5	2,195700
15,083500	0,5	2,186000
15,091833	0,5	2,181250
15,100167	0,5	2,170450
15,108500	0,5	2,161400
15,116833	0,5	2,149950
15,125167	0,5	2,148950
15,133500	0,5	2,124700
15,141833	0,5	2,118000
15,150167	0,5	2,112700
15,158500	0,5	2,104000
15,166833	0,5	2,086850
15,175167	0,5	2,070850
15,183500	0,5	2,062050
15,191833	0,5	2,062200
15,200167	0,5	2,049050
15,208500	0,5	2,047400
15,216833	0,5	2,040950
15,225167	0,5	2,037150
15,233500	0,5	2,031350
15,241833	0,5	2,029600
15,250167	0,5	2,025150
15,258500	0,5	2,016200
15,266833	0,5	2,024250
15,275167	0,5	2,022600
15,283500	0,5	2,004850
15,291833	0,5	2,006650
15,300167	0,5	2,001400
15,308500	0,5	1,991400
15,316833	0,5	1,982800
15,325167	0,5	1,965150
15,333500	0,5	1,970500
15,341833	0,5	1,970950
15,350167	0,5	1,973950
15,358500	0,5	1,967500
15,366833	0,5	1,972600
15,375167	0,5	1,965850
15,383500	0,5	1,965250
15,391833	0,5	1,960050
15,400167	0,5	1,957850
15,408500	0,5	1,950850
15,416833	0,5	1,956550
15,425167	0,5	1,955900
15,433500	0,5	1,940700
15,441833	0,5	1,946150
15,450167	0,5	1,933050
15,458500	0,5	1,919300
15,466833	0,5	1,892200
15,475167	0,5	1,872150
15,483500	0,5	1,866050
15,491833	0,5	1,863850
15,500167	0,5	1,851600
15,508500	0,5	1,849900
15,516833	0,5	1,845500
15,525167	0,5	1,846800
15,533500	0,5	1,846000
15,541833	0,5	1,851300
15,550167	0,5	1,851950
15,558500	0,5	1,853250
15,566833	0,5	1,850300
15,575167	0,5	1,832800
15,583500	0,5	1,817200
15,591833	0,5	1,812150
15,600167	0,5	1,792550
15,608500	0,5	1,778700
15,616833	0,5	1,754100
15,625167	0,5	1,741700
15,633500	0,5	1,742450
15,641833	0,5	1,732650
15,650167	0,5	1,733050
15,658500	0,5	1,718200
15,666833	0,5	1,722400
15,675167	0,5	1,714900
15,683500	0,5	1,712550
15,691833	0,5	1,705000
15,700167	0,5	1,701450
15,708500	0,5	1,704900
15,716833	0,5	1,701650
15,725167	0,5	1,682900
15,733500	0,5	1,687100
15,741833	0,5	1,682350
15,750167	0,5	1,672800
15,758500	0,5	1,664950
15,766833	0,5	1,647150
15,775167	0,5	1,647850
15,783500	0,5	1,637600
15,791833	0,5	1,635200
15,800167	0,5	1,628150
15,808500	0,5	1,625700
15,816833	0,5	1,619100
15,825167	0,5	1,615100
15,833500	0,5	1,614900
15,841833	0,5	1,612500
15,850167	0,5	1,607200
15,858500	0,5	1,610750
15,866833	0,5	1,602350
15,875167	0,5	1,591750
15,883500	0,5	1,590250
15,891833	0,5	1,585350
15,900167	0,5	1,565700
15,908500	0,5	1,546200
15,916833	0,5	1,529500
15,925167	0,5	1,527650
15,933500	0,5	1,526750
15,941833	0,5	1,518550
15,950167	0,5	1,516250
15,958500	0,5	1,512700
15,966833	0,5	1,509200
15,975167	0,5	1,501400
15,983500	0,5	1,502500
15,991833	0,5	1,488850
16,000167	0,5	1,488700
16,008500	0,5	1,484900
16,016833	0,5	1,467450
16,025167	0,5	1,453100
16,033500	0,5	1,457400
16,041833	0,5	1,446500
16,050167	0,5	1,436950
16,058500	0,5	1,410200
16,066833	0,5	1,410700
16,075167	0,5	1,408000
16,083500	0,5	1,398500
16,091833	0,5	1,391500
16,100167	0,5	1,380600
16,108500	0,5	1,376600
16,116833	0,5	1,372150
16,125167	0,5	1,363350
16,133500	0,5	1,358850
16,141833	0,5	1,352050
16,150167	0,5	1,338300
16,158500	0,5	1,343950
16,166833	0,5	1,321850
16,175167	0,5	1,331800
16,183500	0,5	1,323800
16,191833	0,5	1,316400
16,200167	0,5	1,299450
16,208500	0,5	1,278650
16,216833	0,5	1,275050
16,225167	0,5	1,272850
16,233500	0,5	1,260200
16,241833	0,5	1,256000
16,250167	0,5	1,248600
16,258500	0,5	1,245300
16,266833	0,5	1,233600
16,275167	0,5	1,228800
16,283500	0,5	1,223150
16,291833	0,5	1,217050
16,300167	0,5	1,226150
16,308500	0,5	1,216650
16,316833	0,5	1,201150
16,325167	0,5	1,211000
16,333500	0,5	1,210450
16,341833	0,5	1,203400
16,350167	0,5	1,193400
16,358500	0,5	1,172900
16,366833	0,5	1,184800
16,375167	0,5	1,184650
16,383500	0,5	1,181100
16,391833	0,5	1,171650
16,400167	0,5	1,169300
16,408500	0,5	1,158100
16,416833	0,5	1,152250
16,425167	0,5	1,146050
16,433500	0,5	1,132400
16,441833	0,5	1,130200
16,450167	0,5	1,122350
16,458500	0,5	1,104850
16,466833	0,5	1,097100
16,475167	0,5	1,101000
16,483500	0,5	1,088000
16,491833	0,5	1,078300
16,500167	0,5	1,060900
16,508500	0,5	1,047800
16,516833	0,5	1,039700
16,525167	0,5	1,045500
16,533500	0,5	1,034750
16,541833	0,5	1,033100
16,550167	0,5	1,024150
16,558500	0,5	1,025600
16,566833	0,5	1,021350
16,575167	0,5	1,015300
16,583500	0,5	1,006400
16,591833	0,5	1,001000
16,600167	0,5	0,998250
16,608500	0,5	0,987950
16,616833	0,5	0,994750
16,625167	0,5	0,995300
16,633500	0,5	0,985150
16,641833	0,5	0,973800
16,650167	0,5	0,957550
16,658500	0,5	0,947800
16,666833	0,5	0,950300
16,675167	0,5	0,943900
16,683500	0,5	0,942450
16,691833	0,5	0,935150
16,700167	0,5	0,934150
16,708500	0,5	0,923850
16,716833	0,5	0,922600
16,725167	0,5	0,912200
16,733500	0,5	0,908900
16,741833	0,5	0,908250
16,750167	0,5	0,894800
16,758500	0,5	0,881100
16,766833	0,5	0,887000
16,775167	0,5	0,883800
16,783500	0,5	0,872350
16,791833	0,5	0,856800
16,800167	0,5	0,840100
16,808500	0,5	0,838450
16,816833	0,5	0,831400
16,825167	0,5	0,827900
16,833500	0,5	0,822400
16,841833	0,5	0,814650
16,850167	0,5	0,812100
16,858500	0,5	0,813100
16,866833	0,5	0,804650
16,875167	0,5	0,804950
16,883500	0,5	0,803900
16,891833	0,5	0,809350
16,900167	0,5	0,792950
16,908500	0,5	0,794000
16,916833	0,5	0,789950
16,925167	0,5	0,791800
16,933500	0,5	0,779850
16,941833	0,5	0,763350
16,950167	0,5	0,755650
16,958500	0,5	0,759550
16,966833	0,5	0,756350
16,975167	0,5	0,750650
16,983500	0,5	0,749600
16,991833	0,5	0,744050
17,000167	0,5	0,745850
17,008500	0,5	0,735950
17,016833	0,5	0,738700
17,025167	0,5	0,727800
17,033500	0,5	0,731950
17,041833	0,5	0,727800
17,050167	0,5	0,707450
17,058500	0,5	0,711500
17,066833	0,5	0,712550
17,075167	0,5	0,697600
17,083500	0,5	0,686200
17,091833	0,5	0,657950
17,100167	0,5	0,667650
17,108500	0,5	0,660600
17,116833	0,5	0,655850
17,125167	0,5	0,645400
17,133500	0,5	0,642450
17,141833	0,5	0,637150
17,150167	0,5	0,631950
17,158500	0,5	0,632050
17,166833	0,5	0,624400
17,175167	0,5	0,620300
17,183500	0,5	0,614150
17,191833	0,5	0,618050
17,200167	0,5	0,598900
17,208500	0,5	0,616000
17,216833	0,5	0,607850
17,225167	0,5	0,605050
17,233500	0,5	0,596250
17,241833	0,5	0,587650
17,250167	0,5	0,600000
17,258500	0,5	0,608450
17,266833	0,5	0,604350
17,275167	0,5	0,608000
17,283500	0,5	0,604450
17,291833	0,5	0,599300
17,300167	0,5	0,590800
17,308500	0,5	0,576350
17,316833	0,5	0,567800
17,325167	0,5	0,560100
17,333500	0,5	0,565150
17,341833	0,5	0,557400
17,350167	0,5	0,555100
17,358500	0,5	0,565400
17,366833	0,5	0,560500
17,375167	0,5	0,553200
17,383500	0,5	0,543200
17,391833	0,5	0,528950
17,400167	0,5	0,538950
17,408500	0,5	0,529200
17,416833	0,5	0,526400
17,425167	0,5	0,517400
17,433500	0,5	0,521350
17,441833	0,5	0,514750
17,450167	0,5	0,519850
17,458500	0,5	0,519250
17,466833	0,5	0,514350
17,475167	0,5	0,530400
17,483500	0,5	0,530850
17,491833	0,5	0,523300
17,500167	0,5	0,531450
17,508500	0,5	0,535200
17,516833	0,5	0,535600
17,525167	0,5	0,534850
17,533500	0,5	0,525200
17,541833	0,5	0,528350
17,550167	0,5	0,536050
17,558500	0,5	0,549950
17,566833	0,5	0,556650
17,575167	0,5	0,575550
17,583500	0,5	0,583900
17,591833	0,5	0,598950
17,600167	0,5	0,608550
17,608500	0,5	0,623800
17,616833	0,5	0,631900
17,625167	0,5	0,650650
17,633500	0,5	0,650600
17,641833	0,5	0,655500
17,650167	0,5	0,662300
17,658500	0,5	0,661100
17,666833	0,5	0,665900
17,675167	0,5	0,645700
17,683500	0,5	0,638250
17,691833	0,5	0,631500
17,700167	0,5	0,641800
17,708500	0,5	0,635900
17,716833	0,5	0,638200
17,725167	0,5	0,637650
17,733500	0,5	0,640000
17,741833	0,5	0,635000
17,750167	0,5	0,636700
17,758500	0,5	0,631050
17,766833	0,5	0,637050
17,775167	0,5	0,639850
17,783500	0,5	0,627750
17,791833	0,5	0,624550
17,800167	0,5	0,635050
17,808500	0,5	0,627850
17,816833	0,5	0,625250
17,825167	0,5	0,608350
17,833500	0,5	0,604400
17,841833	0,5	0,618250
17,850167	0,5	0,616800
17,858500	0,5	0,639750
17,866833	0,5	0,649550
17,875167	0,5	0,684050
17,883500	0,5	0,712500
17,891833	0,5	0,751100
17,900167	0,5	0,771950
17,908500	0,5	0,784600
17,916833	0,5	0,787550
17,925167	0,5	0,771600
17,933500	0,5	0,714600
17,941833	0,5	0,688050
17,950167	0,5	0,644250
17,958500	0,5	0,600950
17,966833	0,5	0,559550
17,975167	0,5	0,514150
17,983500	0,5	0,497800
17,991833	0,5	0,483000
18,000167	0,5	0,470850
18,008500	0,5	0,457500
18,016833	0,5	0,451700
18,025167	0,5	0,439050
18,033500	0,5	0,431800
18,041833	0,5	0,421350
18,050167	0,5	0,414250
18,058500	0,5	0,404600
18,066833	0,5	0,406950
18,075167	0,5	0,392150
18,083500	0,5	0,370400
18,091833	0,5	0,370600
18,100167	0,5	0,365250
18,108500	0,5	0,346300
18,116833	0,5	0,334950
18,125167	0,5	0,311250
18,133500	0,5	0,311700
18,141833	0,5	0,308700
18,150167	0,5	0,294900
18,158500	0,5	0,287300
18,166833	0,5	0,279550
18,175167	0,5	0,266450
18,183500	0,5	0,260900
18,191833	0,5	0,253500
18,200167	0,5	0,246150
18,208500	0,5	0,237200
18,216833	0,5	0,236100
18,225167	0,5	0,225400
18,233500	0,5	0,216500
18,241833	0,5	0,215700
18,250167	0,5	0,202250
18,258500	0,5	0,190250
18,266833	0,5	0,171150
18,275167	0,5	0,155550
18,283500	0,5	0,150250
18,291833	0,5	0,147900
18,300167	0,5	0,140350
18,308500	0,5	0,137200
18,316833	0,5	0,125900
18,325167	0,5	0,118400
18,333500	0,5	0,114600
18,341833	0,5	0,102950
18,350167	0,5	0,095550
18,358500	0,5	0,084800
18,366833	0,5	0,080500
18,375167	0,5	0,061150
18,383500	0,5	0,065100
18,391833	0,5	0,055950
18,400167	0,5	0,049200
18,408500	0,5	0,027900
18,416833	0,5	0,003850
18,425167	0,5	-0,004800
18,433500	0,5	-0,002750
18,441833	0,5	-0,014800
18,450167	0,5	-0,017550
18,458500	0,5	-0,032300
18,466833	0,5	-0,034450
18,475167	0,5	-0,045650
18,483500	0,5	-0,049250
18,491833	0,5	-0,055400
18,500167	0,5	-0,064850
18,508500	0,5	-0,063550
18,516833	0,5	-0,077200
18,525167	0,5	-0,092300
18,533500	0,5	-0,088450
18,541833	0,5	-0,095300
18,550167	0,5	-0,108200
18,558500	0,5	-0,131000
18,566833	0,5	-0,156100
18,575167	0,5	-0,154600
18,583500	0,5	-0,166400
18,591833	0,5	-0,169950
18,600167	0,5	-0,181800
18,608500	0,5	-0,183800
18,616833	0,5	-0,191850
18,625167	0,5	-0,190300
18,633500	0,5	-0,200200
18,641833	0,5	-0,207700
18,650167	0,5	-0,210250
18,658500	0,5	-0,210550
18,666833	0,5	-0,230850
18,675167	0,5	-0,228400
18,683500	0,5	-0,227550
18,691833	0,5	-0,240100
18,700167	0,5	-0,248600
18,708500	0,5	-0,276650
18,716833	0,5	-0,278050
18,725167	0,5	-0,284150
18,733500	0,5	-0,282750
18,741833	0,5	-0,292850
18,750167	0,5	-0,290350
18,758500	0,5	-0,301300
18,766833	0,5	-0,298650
18,775167	0,5	-0,305700
18,783500	0,5	-0,308600
18,791833	0,5	-0,315150
18,800167	0,5	-0,308900
18,808500	0,5	-0,310550
18,816833	0,5	-0,326100
18,825167	0,5	-0,316650
18,833500	0,5	-0,311700
18,841833	0,5	-0,319950
18,850167	0,5	-0,324800
18,858500	0,5	-0,335750
18,866833	0,5	-0,327750
18,875167	0,5	-0,320850
18,883500	0,5	-0,319800
18,891833	0,5	-0,313250
18,900167	0,5	-0,312500
18,908500	0,5	-0,298900
18,916833	0,5	-0,292750
18,925167	0,5	-0,280650
18,933500	0,5	-0,277350
18,941833	0,5	-0,269600
18,950167	0,5	-0,259800
18,958500	0,5	-0,256800
18,966833	0,5	-0,255750
18,975167	0,5	-0,237400
18,983500	0,5	-0,235850
18,991833	0,5	-0,242450
19,000167	0,5	-0,256500
19,008500	0,5	-0,269700
19,016833	0,5	-0,260000
19,025167	0,5	-0,269700
19,033500	0,5	-0,278900
19,041833	0,5	-0,290750
19,050167	0,5	-0,294550
19,058500	0,5	-0,307700
19,066833	0,5	-0,314900
19,075167	0,5	-0,330250
19,083500	0,5	-0,339750
19,091833	0,5	-0,351400
19,100167	0,5	-0,352350
19,108500	0,5	-0,383100
19,116833	0,5	-0,384950
19,125167	0,5	-0,397450
19,133500	0,5	-0,406950
19,141833	0,5	-0,428350
19,150167	0,5	-0,458150
19,158500	0,5	-0,461550
19,166833	0,5	-0,472250
19,175167	0,5	-0,482350
19,183500	0,5	-0,497900
19,191833	0,5	-0,503400
19,200167	0,5	-0,517450
19,208500	0,5	-0,523600
19,216833	0,5	-0,533200
19,225167	0,5	-0,540000
19,233500	0,5	-0,551500
19,241833	0,5	-0,556700
19,250167	0,5	-0,560600
19,258500	0,5	-0,576700
19,266833	0,5	-0,566350
19,275167	0,5	-0,570600
19,283500	0,5	-0,581000
19,291833	0,5	-0,593200
19,300167	0,5	-0,616600
19,308500	0,5	-0,615250
19,316833	0,5	-0,624100
19,325167	0,5	-0,625150
19,333500	0,5	-0,628100
19,341833	0,5	-0,628000
19,350167	0,5	-0,623600
19,358500	0,5	-0,621900
19,366833	0,5	-0,612700
19,375167	0,5	-0,619050
19,383500	0,5	-0,614550
19,391833	0,5	-0,615600
19,400167	0,5	-0,622050
19,408500	0,5	-0,633300
19,416833	0,5	-0,636300
19,425167	0,5	-0,655900
19,433500	0,5	-0,673250
19,441833	0,5	-0,705500
19,450167	0,5	-0,736600
19,458500	0,5	-0,742350
19,466833	0,5	-0,750200
19,475167	0,5	-0,764250
19,483500	0,5	-0,774200
19,491833	0,5	-0,784150
19,500167	0,5	-0,786650
19,508500	0,5	-0,791600
19,516833	0,5	-0,803750
19,525167	0,5	-0,804750
19,533500	0,5	-0,805700
19,541833	0,5	-0,802750
19,550167	0,5	-0,819200
19,558500	0,5	-0,818750
19,566833	0,5	-0,824250
19,575167	0,5	-0,830850
19,583500	0,5	-0,849550
19,591833	0,5	-0,865550
19,600167	0,5	-0,881950
19,608500	0,5	-0,883200
19,616833	0,5	-0,893600
19,625167	0,5	-0,895650
19,633500	0,5	-0,904200
19,641833	0,5	-0,906900
19,650167	0,5	-0,910550
19,658500	0,5	-0,916150
19,666833	0,5	-0,918600
19,675167	0,5	-0,928300
19,683500	0,5	-0,920950
19,691833	0,5	-0,932800
19,700167	0,5	-0,948500
19,708500	0,5	-0,947150
19,716833	0,5	-0,948400
19,725167	0,5	-0,962400
19,733500	0,5	-0,983450
19,741833	0,5	-1,001000
19,750167	0,5	-0,998550
19,758500	0,5	-1,008900
19,766833	0,5	-1,009650
19,775167	0,5	-1,017350
19,783500	0,5	-1,013850
19,791833	0,5	-1,027850
19,800167	0,5	-1,032800
19,808500	0,5	-1,038150
19,816833	0,5	-1,044400
19,825167	0,5	-1,041750
19,833500	0,5	-1,040900
19,841833	0,5	-1,061950
19,850167	0,5	-1,060550
19,858500	0,5	-1,059450
19,866833	0,5	-1,064250
19,875167	0,5	-1,072450
19,883500	0,5	-1,100400
19,891833	0,5	-1,100550
19,900167	0,5	-1,105350
19,908500	0,5	-1,105700
19,916833	0,5	-1,116550
19,925167	0,5	-1,117750
19,933500	0,5	-1,127950
19,941833	0,5	-1,128050
19,950167	0,5	-1,130200
19,958500	0,5	-1,134500
19,966833	0,5	-1,139700
19,975167	0,5	-1,140350
19,983500	0,5	-1,138900
19,991833	0,5	-1,159050
20,000167	0,5	-1,146200
20,008500	0,5	-1,148550
20,016833	0,5	-1,153900
20,025167	0,5	-1,163400
20,033500	0,5	-1,182600
20,041833	0,5	-1,182400
20,050167	0,5	-1,176200
20,058500	0,5	-1,190900
20,066833	0,5	-1,188750
20,075167	0,5	-1,200800
20,083500	0,5	-1,200400
20,091833	0,5	-1,208100
20,100167	0,5	-1,210500
20,108500	0,5	-1,211700
20,116833	0,5	-1,217050
20,125167	0,5	-1,204600
20,133500	0,5	-1,209250
20,141833	0,5	-1,217800
20,150167	0,5	-1,206550
20,158500	0,5	-1,211400
20,166833	0,5	-1,226850
20,175167	0,5	-1,249600
20,183500	0,5	-1,269450
20,191833	0,5	-1,267150
20,200167	0,5	-1,284700
20,208500	0,5	-1,295550
20,216833	0,5	-1,307550
20,225167	0,5	-1,307300
20,233500	0,5	-1,316900
20,241833	0,5	-1,317650
20,250167	0,5	-1,321300
20,258500	0,5	-1,322250
20,266833	0,5	-1,317750
20,275167	0,5	-1,311000
20,283500	0,5	-1,322950
20,291833	0,5	-1,321900
20,300167	0,5	-1,322500
20,308500	0,5	-1,326650
20,316833	0,5	-1,336300
20,325167	0,5	-1,358950
20,333500	0,5	-1,361600
20,341833	0,5	-1,365200
20,350167	0,5	-1,364900
20,358500	0,5	-1,371850
20,366833	0,5	-1,367800
20,375167	0,5	-1,371350
20,383500	0,5	-1,368550
20,391833	0,5	-1,371000
20,400167	0,5	-1,370100
20,408500	0,5	-1,373850
20,416833	0,5	-1,355750
20,425167	0,5	-1,353950
20,433500	0,5	-1,362900
20,441833	0,5	-1,363750
20,450167	0,5	-1,363450
20,458500	0,5	-1,371100
20,466833	0,5	-1,388200
20,475167	0,5	-1,403000
20,483500	0,5	-1,405100
20,491833	0,5	-1,393950
20,500167	0,5	-1,397800
20,508500	0,5	-1,391600
20,516833	0,5	-1,395200
20,525167	0,5	-1,393200
20,533500	0,5	-1,395450
20,541833	0,5	-1,394950
20,550167	0,5	-1,398000
20,558500	0,5	-1,383300
20,566833	0,5	-1,367250
20,575167	0,5	-1,365950
20,583500	0,5	-1,371950
20,591833	0,5	-1,359350
20,600167	0,5	-1,364800
20,608500	0,5	-1,365500
20,616833	0,5	-1,384750
20,625167	0,5	-1,386850
20,633500	0,5	-1,378200
20,641833	0,5	-1,381350
20,650167	0,5	-1,381150
20,658500	0,5	-1,383350
20,666833	0,5	-1,380750
20,675167	0,5	-1,382450
20,683500	0,5	-1,380950
20,691833	0,5	-1,390850
20,700167	0,5	-1,391750
20,708500	0,5	-1,373550
20,716833	0,5	-1,366300
20,725167	0,5	-1,383100
20,733500	0,5	-1,384850
20,741833	0,5	-1,391400
20,750167	0,5	-1,407100
20,758500	0,5	-1,422150
20,766833	0,5	-1,443350
20,775167	0,5	-1,442750
20,783500	0,5	-1,445750
20,791833	0,5	-1,442850
20,800167	0,5	-1,447700
20,808500	0,5	-1,447200
20,816833	0,5	-1,454450
20,825167	0,5	-1,450550
20,833500	0,5	-1,457650
20,841833	0,5	-1,458800
20,850167	0,5	-1,456400
20,858500	0,5	-1,428450
20,866833	0,5	-1,428450
20,875167	0,5	-1,440800
20,883500	0,5	-1,448300
20,891833	0,5	-1,451850
20,900167	0,5	-1,462250
20,908500	0,5	-1,481600
20,916833	0,5	-1,484300
20,925167	0,5	-1,478750
20,933500	0,5	-1,481650
20,941833	0,5	-1,485450
20,950167	0,5	-1,482450
20,958500	0,5	-1,483850
20,966833	0,5	-1,480750
20,975167	0,5	-1,481100
20,983500	0,5	-1,472800
20,991833	0,5	-1,470700
21,000167	0,5	-1,444600
21,008500	0,5	-1,427300
21,016833	0,5	-1,424550
21,025167	0,5	-1,430450
21,033500	0,5	-1,429650
21,041833	0,5	-1,440800
21,050167	0,5	-1,446800
21,058500	0,5	-1,471150
21,066833	0,5	-1,463500
21,075167	0,5	-1,459750
21,083500	0,5	-1,464850
21,091833	0,5	-1,460750
21,100167	0,5	-1,456050
21,108500	0,5	-1,451350
21,116833	0,5	-1,450650
21,125167	0,5	-1,445750
21,133500	0,5	-1,451750
21,141833	0,5	-1,445750
21,150167	0,5	-1,413600
21,158500	0,5	-1,401550
21,166833	0,5	-1,405350
21,175167	0,5	-1,405200
21,183500	0,5	-1,413350
21,191833	0,5	-1,418500
21,200167	0,5	-1,437450
21,208500	0,5	-1,449550
21,216833	0,5	-1,442950
21,225167	0,5	-1,434450
21,233500	0,5	-1,434050
21,241833	0,5	-1,430600
21,250167	0,5	-1,425350
21,258500	0,5	-1,421550
21,266833	0,5	-1,414050
21,275167	0,5	-1,409650
21,283500	0,5	-1,400200
21,291833	0,5	-1,383500
21,300167	0,5	-1,359050
21,308500	0,5	-1,350800
21,316833	0,5	-1,354350
21,325167	0,5	-1,356100
21,333500	0,5	-1,358750
21,341833	0,5	-1,369000
21,350167	0,5	-1,370400
21,358500	0,5	-1,370850
21,366833	0,5	-1,364650
21,375167	0,5	-1,351750
21,383500	0,5	-1,342100
21,391833	0,5	-1,335200
21,400167	0,5	-1,325650
21,408500	0,5	-1,315050
21,416833	0,5	-1,308350
21,425167	0,5	-1,302950
21,433500	0,5	-1,297300
21,441833	0,5	-1,262850
21,450167	0,5	-1,247000
21,458500	0,5	-1,242750
21,466833	0,5	-1,240700
21,475167	0,5	-1,237400
21,483500	0,5	-1,240000
21,491833	0,5	-1,247950
21,500167	0,5	-1,251650
21,508500	0,5	-1,239350
21,516833	0,5	-1,227850
21,525167	0,5	-1,211850
21,533500	0,5	-1,200050
21,541833	0,5	-1,188700
21,550167	0,5	-1,172450
21,558500	0,5	-1,162700
21,566833	0,5	-1,145150
21,575167	0,5	-1,133150
21,583500	0,5	-1,097550
21,591833	0,5	-1,058700
21,600167	0,5	-1,032750
21,608500	0,5	-1,015900
21,616833	0,5	-0,991800
21,625167	0,5	-0,974450
21,633500	0,5	-0,945100
21,641833	0,5	-0,933300
21,650167	0,5	-0,914250
21,658500	0,5	-0,909200
21,666833	0,5	-0,914850
21,675167	0,5	-0,928250
21,683500	0,5	-0,934800
21,691833	0,5	-0,941200
21,700167	0,5	-0,940350
21,708500	0,5	-0,928800
21,716833	0,5	-0,917800
21,725167	0,5	-0,908350
21,733500	0,5	-0,881100
21,741833	0,5	-0,858700
21,750167	0,5	-0,857750
21,758500	0,5	-0,845000
21,766833	0,5	-0,838000
21,775167	0,5	-0,831300
21,783500	0,5	-0,832550
21,791833	0,5	-0,824250
21,800167	0,5	-0,801300
21,808500	0,5	-0,775750
21,816833	0,5	-0,761750
21,825167	0,5	-0,736650
21,833500	0,5	-0,711650
21,841833	0,5	-0,691850
21,850167	0,5	-0,667800
21,858500	0,5	-0,649300
21,866833	0,5	-0,627450
21,875167	0,5	-0,601900
21,883500	0,5	-0,557600
21,891833	0,5	-0,541850
21,900167	0,5	-0,525100
21,908500	0,5	-0,514350
21,916833	0,5	-0,498350
21,925167	0,5	-0,498450
21,933500	0,5	-0,491600
21,941833	0,5	-0,476850
21,950167	0,5	-0,449200
21,958500	0,5	-0,436650
21,966833	0,5	-0,415300
21,975167	0,5	-0,403300
21,983500	0,5	-0,383300
21,991833	0,5	-0,355900
22,000167	0,5	-0,330400
22,008500	0,5	-0,307550
22,016833	0,5	-0,289600
22,025167	0,5	-0,247450
22,033500	0,5	-0,214700
22,041833	0,5	-0,200400
22,050167	0,5	-0,164300
22,058500	0,5	-0,135050
22,066833	0,5	-0,117000
22,075167	0,5	-0,089800
22,083500	0,5	-0,081200
22,091833	0,5	-0,040550
22,100167	0,5	-0,007350
22,108500	0,5	0,023350
22,116833	0,5	0,055600
22,125167	0,5	0,092000
22,133500	0,5	0,130350
22,141833	0,5	0,172100
22,150167	0,5	0,215300
22,158500	0,5	0,252900
22,166833	0,5	0,299550
22,175167	0,5	0,345250
22,183500	0,5	0,388300
22,191833	0,5	0,434700
22,200167	0,5	0,494050
22,208500	0,5	0,536100
22,216833	0,5	0,575500
22,225167	0,5	0,606850
22,233500	0,5	0,649650
22,241833	0,5	0,697350
22,250167	0,5	0,750250
22,258500	0,5	0,789350
22,266833	0,5	0,838950
22,275167	0,5	0,888500
22,283500	0,5	0,939100
22,291833	0,5	0,989350
22,300167	0,5	1,038150
22,308500	0,5	1,093200
22,316833	0,5	1,133900
22,325167	0,5	1,191150
22,333500	0,5	1,231150
22,341833	0,5	1,287150
22,350167	0,5	1,328050
22,358500	0,5	1,373050
22,366833	0,5	1,410650
22,375167	0,5	1,454300
22,383500	0,5	1,505750
22,391833	0,5	1,562150
22,400167	0,5	1,616700
22,408500	0,5	1,675400
22,416833	0,5	1,729500
22,425167	0,5	1,788150
22,433500	0,5	1,848200
22,441833	0,5	1,908450
22,450167	0,5	1,965950
22,458500	0,5	2,019450
22,466833	0,5	2,081250
22,475167	0,5	2,127200
22,483500	0,5	2,206950
22,491833	0,5	2,277100
22,500167	0,5	2,334650
22,508500	0,5	2,385250
22,516833	0,5	2,429650
22,525167	0,5	2,471650
22,533500	0,5	2,537200
22,541833	0,5	2,589350
22,550167	0,5	2,650350
22,558500	0,5	2,697900
22,566833	0,5	2,758750
22,575167	0,5	2,805350
22,583500	0,5	2,854550
22,591833	0,5	2,893550
22,600167	0,5	2,922350
22,608500	0,5	2,939650
22,616833	0,5	2,946600
22,625167	0,5	2,982250
22,633500	0,5	3,010000
22,641833	0,5	3,027650
22,650167	0,5	3,016350
22,658500	0,5	3,011750
22,666833	0,5	2,981800
22,675167	0,5	2,978050
22,683500	0,5	2,953150
22,691833	0,5	2,931250
22,700167	0,5	2,897850
22,708500	0,5	2,865250
22,716833	0,5	2,825350
22,725167	0,5	2,788400
22,733500	0,5	2,737450
22,741833	0,5	2,685100
22,750167	0,5	2,623650
22,758500	0,5	2,502400
22,766833	0,5	2,440400
22,775167	0,5	2,377850
22,783500	0,5	2,301200
22,791833	0,5	2,200900
22,800167	0,5	2,084700
22,808500	0,5	1,965200
22,816833	0,5	1,841300
22,825167	0,5	1,722350
22,833500	0,5	1,595550
22,841833	0,5	1,467100
22,850167	0,5	1,337000
22,858500	0,5	1,209450
22,866833	0,5	1,076850
22,875167	0,5	0,946950
22,883500	0,5	0,814350
22,891833	0,5	0,676150
22,900167	0,5	0,539250
22,908500	0,5	0,377550
22,916833	0,5	0,241600
22,925167	0,5	0,114400
22,933500	0,5	-0,038100
22,941833	0,5	-0,187050
22,950167	0,5	-0,319800
22,958500	0,5	-0,450750
22,966833	0,5	-0,582900
22,975167	0,5	-0,714350
22,983500	0,5	-0,833250
22,991833	0,5	-0,952700
23,000167	0,5	-1,054900
23,008500	0,5	-1,167450
23,016833	0,5	-1,267500
23,025167	0,5	-1,378750
23,033500	0,5	-1,474500
23,041833	0,5	-1,570250
23,050167	0,5	-1,643500
23,058500	0,5	-1,736700
23,066833	0,5	-1,834550
23,075167	0,5	-1,953750
23,083500	0,5	-2,034150
23,091833	0,5	-2,102150
23,100167	0,5	-2,170250
23,108500	0,5	-2,215000
23,116833	0,5	-2,280700
23,125167	0,5	-2,328450
23,133500	0,5	-2,372000
23,141833	0,5	-2,401900
23,150167	0,5	-2,441000
23,158500	0,5	-2,465950
23,166833	0,5	-2,497600
23,175167	0,5	-2,519650
23,183500	0,5	-2,546550
23,191833	0,5	-2,561550
23,200167	0,5	-2,597850
23,208500	0,5	-2,591600
23,216833	0,5	-2,620400
23,225167	0,5	-2,670400
23,233500	0,5	-2,681500
23,241833	0,5	-2,687300
23,250167	0,5	-2,683350
23,258500	0,5	-2,675650
23,266833	0,5	-2,677200
23,275167	0,5	-2,673400
23,283500	0,5	-2,649700
23,291833	0,5	-2,635000
23,300167	0,5	-2,606400
23,308500	0,5	-2,585400
23,316833	0,5	-2,561100
23,325167	0,5	-2,543350
23,333500	0,5	-2,522400
23,341833	0,5	-2,501700
23,350167	0,5	-2,498850
23,358500	0,5	-2,447400
23,366833	0,5	-2,444450
23,375167	0,5	-2,452000
23,383500	0,5	-2,435350
23,391833	0,5	-2,420250
23,400167	0,5	-2,392900
23,408500	0,5	-2,368050
23,416833	0,5	-2,343750
23,425167	0,5	-2,317800
23,433500	0,5	-2,289500
23,441833	0,5	-2,250250
23,450167	0,5	-2,221250
23,458500	0,5	-2,185600
23,466833	0,5	-2,158200
23,475167	0,5	-2,123400
23,483500	0,5	-2,093700
23,491833	0,5	-2,127100
23,500167	0,5	-2,074800
23,508500	0,5	-2,014300
23,516833	0,5	-1,981200
23,525167	0,5	-1,976950
23,533500	0,5	-1,963600
23,541833	0,5	-1,944100
23,550167	0,5	-1,926700
23,558500	0,5	-1,910150
23,566833	0,5	-1,898200
23,575167	0,5	-1,881350
23,583500	0,5	-1,863450
23,591833	0,5	-1,844550
23,600167	0,5	-1,828050
23,608500	0,5	-1,810850
23,616833	0,5	-1,793750
23,625167	0,5	-1,779500
23,633500	0,5	-1,780400
23,641833	0,5	-1,847300
23,650167	0,5	-1,823100
23,658500	0,5	-1,743850
23,666833	0,5	-1,718350
23,675167	0,5	-1,710900
23,683500	0,5	-1,707350
23,691833	0,5	-1,703100
23,700167	0,5	-1,693400
23,708500	0,5	-1,687550
23,716833	0,5	-1,676200
23,725167	0,5	-1,671500
23,733500	0,5	-1,656700
23,741833	0,5	-1,651450
23,750167	0,5	-1,644600
23,758500	0,5	-1,637250
23,766833	0,5	-1,635500
23,775167	0,5	-1,633000
23,783500	0,5	-1,729450
23,791833	0,5	-1,745000
23,800167	0,5	-1,719950
23,808500	0,5	-1,661500
23,816833	0,5	-1,641600
23,825167	0,5	-1,644200
23,833500	0,5	-1,648100
23,841833	0,5	-1,661650
23,850167	0,5	-1,651250
23,858500	0,5	-1,645300
23,866833	0,5	-1,639000
23,875167	0,5	-1,635300
23,883500	0,5	-1,624850
23,891833	0,5	-1,615250
23,900167	0,5	-1,603550
23,908500	0,5	-1,593250
23,916833	0,5	-1,586800
23,925167	0,5	-1,584850
23,933500	0,5	-1,724050
23,941833	0,5	-1,671000
23,950167	0,5	-1,649750
23,958500	0,5	-1,585900
23,966833	0,5	-1,571450
23,975167	0,5	-1,565400
23,983500	0,5	-1,569050
23,991833	0,5	-1,582300
24,000167	0,5	-1,566850
24,008500	0,5	-1,554400
24,016833	0,5	-1,551850
24,025167	0,5	-1,542450
24,033500	0,5	-1,535650
24,041833	0,5	-1,525850
24,050167	0,5	-1,518650
24,058500	0,5	-1,504950
24,066833	0,5	-1,499900
24,075167	0,5	-1,541400
24,083500	0,5	-1,616100
24,091833	0,5	-1,573750
24,100167	0,5	-1,530300
24,108500	0,5	-1,478800
24,116833	0,5	-1,459000
24,125167	0,5	-1,450050
24,133500	0,5	-1,443400
24,141833	0,5	-1,448550
24,150167	0,5	-1,420350
24,158500	0,5	-1,411950
24,166833	0,5	-1,392100
24,175167	0,5	-1,381600
24,183500	0,5	-1,356550
24,191833	0,5	-1,341300
24,200167	0,5	-1,316050
24,208500	0,5	-1,308850
24,216833	0,5	-1,296350
24,225167	0,5	-1,379900
24,233500	0,5	-1,374300
24,241833	0,5	-1,346450
24,250167	0,5	-1,297400
24,258500	0,5	-1,265050
24,266833	0,5	-1,252350
24,275167	0,5	-1,249050
24,283500	0,5	-1,255000
24,291833	0,5	-1,251100
24,300167	0,5	-1,236000
24,308500	0,5	-1,213200
24,316833	0,5	-1,200400
24,325167	0,5	-1,178850
24,333500	0,5	-1,164600
24,341833	0,5	-1,143000
24,350167	0,5	-1,128750
24,358500	0,5	-1,107450
24,366833	0,5	-1,098050
24,375167	0,5	-1,164300
24,383500	0,5	-1,137350
24,391833	0,5	-1,096800
24,400167	0,5	-1,059150
24,408500	0,5	-1,031450
24,416833	0,5	-1,017800
24,425167	0,5	-1,012750
24,433500	0,5	-1,011200
24,441833	0,5	-1,002300
24,450167	0,5	-0,988800
24,458500	0,5	-0,977000
24,466833	0,5	-0,961950
24,475167	0,5	-0,947550
24,483500	0,5	-0,930300
24,491833	0,5	-0,918450
24,500167	0,5	-0,899700
24,508500	0,5	-0,895150
24,516833	0,5	-0,901700
24,525167	0,5	-0,941300
24,533500	0,5	-0,919850
24,541833	0,5	-0,893150
24,550167	0,5	-0,858650
24,558500	0,5	-0,842900
24,566833	0,5	-0,828200
24,575167	0,5	-0,828850
24,583500	0,5	-0,823850
24,591833	0,5	-0,805650
24,600167	0,5	-0,788450
24,608500	0,5	-0,774700
24,616833	0,5	-0,761700
24,625167	0,5	-0,743400
24,633500	0,5	-0,729250
24,641833	0,5	-0,714450
24,650167	0,5	-0,703200
24,658500	0,5	-0,689550
24,666833	0,5	-0,719250
24,675167	0,5	-0,709450
24,683500	0,5	-0,702700
24,691833	0,5	-0,670250
24,700167	0,5	-0,655750
24,708500	0,5	-0,641350
24,716833	0,5	-0,638450
24,725167	0,5	-0,642100
24,733500	0,5	-0,637950
24,741833	0,5	-0,625300
24,750167	0,5	-0,616200
24,758500	0,5	-0,608700
24,766833	0,5	-0,600850
24,775167	0,5	-0,587850
24,783500	0,5	-0,578200
24,791833	0,5	-0,565400
24,800167	0,5	-0,547700
24,808500	0,5	-0,540450
24,816833	0,5	-0,563000
24,825167	0,5	-0,545650
24,833500	0,5	-0,537350
24,841833	0,5	-0,510950
24,850167	0,5	-0,496500
24,858500	0,5	-0,487350
24,866833	0,5	-0,482050
24,875167	0,5	-0,484800
24,883500	0,5	-0,471650
24,891833	0,5	-0,465000
24,900167	0,5	-0,457550
24,908500	0,5	-0,451600
24,916833	0,5	-0,440800
24,925167	0,5	-0,434950
24,933500	0,5	-0,426600
24,941833	0,5	-0,421550
24,950167	0,5	-0,414700
24,958500	0,5	-0,413500
24,966833	0,5	-0,422600
24,975167	0,5	-0,409800
24,983500	0,5	-0,402950
24,991833	0,5	-0,386700
25,000167	0,5	-0,379600
25,008500	0,5	-0,373500
25,016833	0,5	-0,373900
25,025167	0,5	-0,371750
25,033500	0,5	-0,361900
25,041833	0,5	-0,350950
25,050167	0,5	-0,347600
25,058500	0,5	-0,338750
25,066833	0,5	-0,333400
25,075167	0,5	-0,323100
25,083500	0,5	-0,316600
25,091833	0,5	-0,307250
25,100167	0,5	-0,299750
25,108500	0,5	-0,307050
25,116833	0,5	-0,298150
25,125167	0,5	-0,291950
25,133500	0,5	-0,285400
25,141833	0,5	-0,275800
25,150167	0,5	-0,272050
25,158500	0,5	-0,272450
25,166833	0,5	-0,272450
25,175167	0,5	-0,274050
25,183500	0,5	-0,267850
25,191833	0,5	-0,265250
25,200167	0,5	-0,261700
25,208500	0,5	-0,257800
25,216833	0,5	-0,255350
25,225167	0,5	-0,250100
25,233500	0,5	-0,242150
25,241833	0,5	-0,236650
25,250167	0,5	-0,231500
25,258500	0,5	-0,228300
25,266833	0,5	-0,222650
25,275167	0,5	-0,216250
25,283500	0,5	-0,212200
25,291833	0,5	-0,205100
25,300167	0,5	-0,199450
25,308500	0,5	-0,198800
25,316833	0,5	-0,197400
25,325167	0,5	-0,192500
25,333500	0,5	-0,191250
25,341833	0,5	-0,189600
25,350167	0,5	-0,187350
25,358500	0,5	-0,186800
25,366833	0,5	-0,185600
25,375167	0,5	-0,180600
25,383500	0,5	-0,179250
25,391833	0,5	-0,176250
25,400167	0,5	-0,175150
25,408500	0,5	-0,169500
25,416833	0,5	-0,171500
25,425167	0,5	-0,167150
25,433500	0,5	-0,169250
25,441833	0,5	-0,164300
25,450167	0,5	-0,161200
25,458500	0,5	-0,158650
25,466833	0,5	-0,156500
25,475167	0,5	-0,148700
25,483500	0,5	-0,149850
25,491833	0,5	-0,144200
25,500167	0,5	-0,142700
25,508500	0,5	-0,141200
25,516833	0,5	-0,139250
25,525167	0,5	-0,135100
25,533500	0,5	-0,133800
25,541833	0,5	-0,130450
25,550167	0,5	-0,126900
25,558500	0,5	-0,122000
25,566833	0,5	-0,122750
25,575167	0,5	-0,123200
25,583500	0,5	-0,128150
25,591833	0,5	-0,124850
25,600167	0,5	-0,123450
25,608500	0,5	-0,121550
25,616833	0,5	-0,119650
25,625167	0,5	-0,118200
25,633500	0,5	-0,118100
25,641833	0,5	-0,114200
25,650167	0,5	-0,117000
25,658500	0,5	-0,112400
25,666833	0,5	-0,109650
25,675167	0,5	-0,109350
25,683500	0,5	-0,103650
25,691833	0,5	-0,101150
25,700167	0,5	-0,094300
25,708500	0,5	-0,096850
25,716833	0,5	-0,086600
25,725167	0,5	-0,091900
25,733500	0,5	-0,095000
25,741833	0,5	-0,093050
25,750167	0,5	-0,091050
25,758500	0,5	-0,083550
25,766833	0,5	-0,087350
25,775167	0,5	-0,088200
25,783500	0,5	-0,084300
25,791833	0,5	-0,084200
25,800167	0,5	-0,080550
25,808500	0,5	-0,085450
25,816833	0,5	-0,082450
25,825167	0,5	-0,083250
25,833500	0,5	-0,081350
25,841833	0,5	-0,078300
25,850167	0,5	-0,076450
25,858500	0,5	-0,075450
25,866833	0,5	-0,067300
25,875167	0,5	-0,074550
25,883500	0,5	-0,073450
25,891833	0,5	-0,071100
25,900167	0,5	-0,068050
25,908500	0,5	-0,053400
25,916833	0,5	-0,058350
25,925167	0,5	-0,052350
25,933500	0,5	-0,052150
25,941833	0,5	-0,046400
25,950167	0,5	-0,051250
25,958500	0,5	-0,046500
25,966833	0,5	-0,047600
25,975167	0,5	-0,042400
25,983500	0,5	-0,040400
25,991833	0,5	-0,031350
26,000167	0,5	-0,034150
