File Path	chrom://chromeleon01/ikbm_chromeleon/2022/ICS-5000/ED1/Esteban/20220612_Cell_7_4_eg.seq/420.smp/ED_1.channel/ED_1.chm
Channel	ED_1

Injection Information:
Data Vault	ikbm_chromeleon
Injection	7_01h-EGS_3
Injection Number	106
Position	BA6
Comment	
Processing Method	Stop sequence after Cell Death
Instrument Method	ICS5000_PA200_FullNative_Ox_26min_ED1
Type	Unknown
Status	Finished
Injection Date	14.06.2022
Injection Time	18:07:54
Injection Volume (µl)	5,0
Dilution Factor	1,0000
Weight	1,0000

Chromatogram Data Information:
Time Min. (min)	0,000167
Time Max. (min)	26,000167
Data Points	3121
Detector	EDet1
Generating Data System	Chromeleon 7.2.9.11323
Exporting Data System	Chromeleon 7.2.9.0
Operator	Instrument Controller
Signal Quantity	
Signal Unit	nC
Signal Min.	-2,310200
Signal Max.	867,098913
Channel	ED_1
Driver Name	DC-5000
Channel Type	Evaluation
Min. Step (s)	0,5
Max. Step (s)	0,5
Average Step (s)	0,5

Signal Parameter Information:
Signal Info	

Chromatogram Data:
Time (min)	Step (s)	Value (nC)
0,000167	n.a.	-0,036550
0,008500	0,5	-0,079400
0,016833	0,5	-0,067450
0,025167	0,5	-0,053450
0,033500	0,5	-0,046600
0,041833	0,5	-0,009950
0,050167	0,5	-0,038200
0,058500	0,5	-0,052100
0,066833	0,5	-0,044650
0,075167	0,5	-0,028950
0,083500	0,5	0,020450
0,091833	0,5	0,002100
0,100167	0,5	-0,001950
0,108500	0,5	-0,010450
0,116833	0,5	0,002150
0,125167	0,5	-0,006350
0,133500	0,5	-0,001550
0,141833	0,5	-0,014500
0,150167	0,5	-0,013550
0,158500	0,5	-0,016100
0,166833	0,5	-0,018750
0,175167	0,5	-0,026550
0,183500	0,5	-0,039200
0,191833	0,5	-0,012550
0,200167	0,5	-0,046350
0,208500	0,5	-0,044050
0,216833	0,5	-0,043700
0,225167	0,5	-0,022600
0,233500	0,5	0,005850
0,241833	0,5	-0,001700
0,250167	0,5	-0,021500
0,258500	0,5	-0,004900
0,266833	0,5	-0,011200
0,275167	0,5	-0,006600
0,283500	0,5	-0,016700
0,291833	0,5	0,005600
0,300167	0,5	0,043500
0,308500	0,5	0,055950
0,316833	0,5	0,016450
0,325167	0,5	-0,026550
0,333500	0,5	-0,054850
0,341833	0,5	-0,044750
0,350167	0,5	-0,062200
0,358500	0,5	-0,057700
0,366833	0,5	-0,052900
0,375167	0,5	-0,031950
0,383500	0,5	-0,001600
0,391833	0,5	-0,017100
0,400167	0,5	-0,009700
0,408500	0,5	-0,019550
0,416833	0,5	-0,013650
0,425167	0,5	-0,025450
0,433500	0,5	-0,012200
0,441833	0,5	-0,030000
0,450167	0,5	-0,016050
0,458500	0,5	-0,021200
0,466833	0,5	-0,031350
0,475167	0,5	-0,039600
0,483500	0,5	-0,021350
0,491833	0,5	-0,032000
0,500167	0,5	-0,043950
0,508500	0,5	-0,041000
0,516833	0,5	-0,026850
0,525167	0,5	0,004000
0,533500	0,5	0,018300
0,541833	0,5	0,011150
0,550167	0,5	0,018000
0,558500	0,5	0,021850
0,566833	0,5	0,013950
0,575167	0,5	0,014050
0,583500	0,5	0,006900
0,591833	0,5	0,012350
0,600167	0,5	0,005600
0,608500	0,5	0,014050
0,616833	0,5	-0,000300
0,625167	0,5	0,011350
0,633500	0,5	0,030400
0,641833	0,5	0,015400
0,650167	0,5	0,003000
0,658500	0,5	0,016400
0,666833	0,5	0,024350
0,675167	0,5	0,058400
0,683500	0,5	0,060500
0,691833	0,5	0,063350
0,700167	0,5	0,056700
0,708500	0,5	0,058650
0,716833	0,5	0,055350
0,725167	0,5	0,056400
0,733500	0,5	0,054150
0,741833	0,5	0,055000
0,750167	0,5	0,062100
0,758500	0,5	0,063300
0,766833	0,5	0,064700
0,775167	0,5	0,072150
0,783500	0,5	0,077900
0,791833	0,5	0,057600
0,800167	0,5	0,057750
0,808500	0,5	0,066400
0,816833	0,5	0,092700
0,825167	0,5	0,105150
0,833500	0,5	0,107300
0,841833	0,5	0,102200
0,850167	0,5	0,113550
0,858500	0,5	0,110900
0,866833	0,5	0,112700
0,875167	0,5	0,112150
0,883500	0,5	0,109950
0,891833	0,5	0,110150
0,900167	0,5	0,107950
0,908500	0,5	0,116100
0,916833	0,5	0,100700
0,925167	0,5	0,130250
0,933500	0,5	0,124600
0,941833	0,5	0,113250
0,950167	0,5	0,105700
0,958500	0,5	0,121100
0,966833	0,5	0,144800
0,975167	0,5	0,160500
0,983500	0,5	0,139250
0,991833	0,5	0,152450
1,000167	0,5	0,149700
1,008500	0,5	0,162000
1,016833	0,5	0,150500
1,025167	0,5	0,155950
1,033500	0,5	0,148800
1,041833	0,5	0,158600
1,050167	0,5	0,164000
1,058500	0,5	0,157050
1,066833	0,5	0,140800
1,075167	0,5	0,169400
1,083500	0,5	0,148850
1,091833	0,5	0,144700
1,100167	0,5	0,149950
1,108500	0,5	0,157650
1,116833	0,5	0,198750
1,125167	0,5	0,189500
1,133500	0,5	0,188200
1,141833	0,5	0,183300
1,150167	0,5	0,192700
1,158500	0,5	0,184850
1,166833	0,5	0,190300
1,175167	0,5	0,185050
1,183500	0,5	0,187850
1,191833	0,5	0,181800
1,200167	0,5	0,183300
1,208500	0,5	0,165300
1,216833	0,5	0,168750
1,225167	0,5	0,191550
1,233500	0,5	0,168850
1,241833	0,5	0,171400
1,250167	0,5	0,172600
1,258500	0,5	0,191000
1,266833	0,5	0,218850
1,275167	0,5	0,215950
1,283500	0,5	0,208800
1,291833	0,5	0,213400
1,300167	0,5	0,212600
1,308500	0,5	0,213650
1,316833	0,5	0,210900
1,325167	0,5	0,210850
1,333500	0,5	0,201900
1,341833	0,5	0,209200
1,350167	0,5	0,200600
1,358500	0,5	0,201200
1,366833	0,5	0,202550
1,375167	0,5	0,220050
1,383500	0,5	0,187100
1,391833	0,5	0,192550
1,400167	0,5	0,194650
1,408500	0,5	0,221550
1,416833	0,5	0,247450
1,425167	0,5	0,241300
1,433500	0,5	0,228600
1,441833	0,5	0,226850
1,450167	0,5	0,224050
1,458500	0,5	0,225650
1,466833	0,5	0,226800
1,475167	0,5	0,218100
1,483500	0,5	0,222550
1,491833	0,5	0,217900
1,500167	0,5	0,222150
1,508500	0,5	0,213450
1,516833	0,5	0,235600
1,525167	0,5	0,222150
1,533500	0,5	0,208150
1,541833	0,5	0,207700
1,550167	0,5	0,231000
1,558500	0,5	0,302000
1,566833	0,5	0,489750
1,575167	0,5	0,839700
1,583500	0,5	1,298200
1,591833	0,5	2,668900
1,600167	0,5	9,873950
1,608500	0,5	37,756901
1,616833	0,5	124,829252
1,625167	0,5	322,906155
1,633500	0,5	600,179959
1,641833	0,5	816,146412
1,650167	0,5	867,098913
1,658500	0,5	760,184411
1,666833	0,5	576,253459
1,675167	0,5	402,490306
1,683500	0,5	278,486004
1,691833	0,5	199,351703
1,700167	0,5	150,088952
1,708500	0,5	119,977652
1,716833	0,5	102,269902
1,725167	0,5	91,439101
1,733500	0,5	82,781251
1,741833	0,5	74,639201
1,750167	0,5	67,348601
1,758500	0,5	61,020201
1,766833	0,5	55,158801
1,775167	0,5	49,941251
1,783500	0,5	46,292851
1,791833	0,5	45,231551
1,800167	0,5	46,998001
1,808500	0,5	50,763401
1,816833	0,5	54,817351
1,825167	0,5	57,763451
1,833500	0,5	58,894601
1,841833	0,5	57,869601
1,850167	0,5	55,041701
1,858500	0,5	51,363901
1,866833	0,5	47,733551
1,875167	0,5	44,604551
1,883500	0,5	42,119251
1,891833	0,5	40,125501
1,900167	0,5	38,435401
1,908500	0,5	36,830351
1,916833	0,5	35,352151
1,925167	0,5	34,140201
1,933500	0,5	33,230800
1,941833	0,5	32,413450
1,950167	0,5	31,453550
1,958500	0,5	30,461500
1,966833	0,5	29,605050
1,975167	0,5	29,036050
1,983500	0,5	28,944700
1,991833	0,5	29,361650
2,000167	0,5	29,978350
2,008500	0,5	30,162350
2,016833	0,5	29,574500
2,025167	0,5	28,546800
2,033500	0,5	27,509300
2,041833	0,5	26,727750
2,050167	0,5	26,239150
2,058500	0,5	26,040800
2,066833	0,5	26,071600
2,075167	0,5	26,441450
2,083500	0,5	27,261700
2,091833	0,5	28,469750
2,100167	0,5	29,630400
2,108500	0,5	30,800850
2,116833	0,5	32,453000
2,125167	0,5	35,336951
2,133500	0,5	38,977251
2,141833	0,5	41,923101
2,150167	0,5	43,060751
2,158500	0,5	42,493401
2,166833	0,5	40,716401
2,175167	0,5	37,842801
2,183500	0,5	34,243801
2,191833	0,5	30,799950
2,200167	0,5	28,162150
2,208500	0,5	26,459900
2,216833	0,5	25,635900
2,225167	0,5	25,783450
2,233500	0,5	27,108050
2,241833	0,5	29,214800
2,250167	0,5	30,804400
2,258500	0,5	30,612900
2,266833	0,5	28,793750
2,275167	0,5	26,587450
2,283500	0,5	24,791900
2,291833	0,5	23,516200
2,300167	0,5	22,640150
2,308500	0,5	22,012700
2,316833	0,5	21,626400
2,325167	0,5	21,380300
2,333500	0,5	21,176000
2,341833	0,5	20,987600
2,350167	0,5	20,933250
2,358500	0,5	21,096750
2,366833	0,5	21,454200
2,375167	0,5	21,827550
2,383500	0,5	22,073100
2,391833	0,5	22,273600
2,400167	0,5	22,663750
2,408500	0,5	23,336900
2,416833	0,5	23,943250
2,425167	0,5	24,043850
2,433500	0,5	23,498050
2,441833	0,5	22,700450
2,450167	0,5	22,009800
2,458500	0,5	21,532900
2,466833	0,5	21,201050
2,475167	0,5	20,973600
2,483500	0,5	20,787500
2,491833	0,5	20,668150
2,500167	0,5	20,572600
2,508500	0,5	20,473650
2,516833	0,5	20,329400
2,525167	0,5	20,157400
2,533500	0,5	19,995500
2,541833	0,5	19,846900
2,550167	0,5	19,740250
2,558500	0,5	19,624300
2,566833	0,5	19,467350
2,575167	0,5	19,336200
2,583500	0,5	19,388600
2,591833	0,5	20,250500
2,600167	0,5	21,555600
2,608500	0,5	21,477350
2,616833	0,5	20,175100
2,625167	0,5	19,079950
2,633500	0,5	18,476750
2,641833	0,5	18,132500
2,650167	0,5	17,933900
2,658500	0,5	17,779500
2,666833	0,5	17,670900
2,675167	0,5	17,576600
2,683500	0,5	17,489750
2,691833	0,5	17,413850
2,700167	0,5	17,378550
2,708500	0,5	17,284500
2,716833	0,5	17,197950
2,725167	0,5	17,115250
2,733500	0,5	17,032450
2,741833	0,5	16,952750
2,750167	0,5	16,838700
2,758500	0,5	16,731400
2,766833	0,5	16,635200
2,775167	0,5	16,565550
2,783500	0,5	16,520850
2,791833	0,5	16,548350
2,800167	0,5	16,659500
2,808500	0,5	16,943750
2,816833	0,5	17,423200
2,825167	0,5	18,100350
2,833500	0,5	18,853100
2,841833	0,5	19,613800
2,850167	0,5	20,222100
2,858500	0,5	20,603150
2,866833	0,5	20,744600
2,875167	0,5	20,644600
2,883500	0,5	20,311350
2,891833	0,5	19,825750
2,900167	0,5	19,262750
2,908500	0,5	18,803400
2,916833	0,5	18,587400
2,925167	0,5	18,771150
2,933500	0,5	19,508050
2,941833	0,5	20,867800
2,950167	0,5	22,757200
2,958500	0,5	24,851750
2,966833	0,5	26,745950
2,975167	0,5	28,111000
2,983500	0,5	28,976350
2,991833	0,5	29,772450
3,000167	0,5	30,959450
3,008500	0,5	32,712150
3,016833	0,5	34,734801
3,025167	0,5	36,336251
3,033500	0,5	36,942701
3,041833	0,5	36,243651
3,050167	0,5	34,371901
3,058500	0,5	31,731550
3,066833	0,5	28,779100
3,075167	0,5	25,915650
3,083500	0,5	23,427600
3,091833	0,5	21,465200
3,100167	0,5	20,070150
3,108500	0,5	19,275700
3,116833	0,5	19,096250
3,125167	0,5	19,610250
3,133500	0,5	20,775200
3,141833	0,5	22,501100
3,150167	0,5	24,327100
3,158500	0,5	25,839300
3,166833	0,5	26,604600
3,175167	0,5	26,440750
3,183500	0,5	25,388600
3,191833	0,5	23,667900
3,200167	0,5	21,619550
3,208500	0,5	19,608050
3,216833	0,5	17,809550
3,225167	0,5	16,359900
3,233500	0,5	15,241600
3,241833	0,5	14,419150
3,250167	0,5	13,811350
3,258500	0,5	13,372850
3,266833	0,5	13,045200
3,275167	0,5	12,781550
3,283500	0,5	12,581450
3,291833	0,5	12,439100
3,300167	0,5	12,286950
3,308500	0,5	12,174300
3,316833	0,5	12,076700
3,325167	0,5	12,008700
3,333500	0,5	11,962750
3,341833	0,5	11,891900
3,350167	0,5	11,865300
3,358500	0,5	11,872150
3,366833	0,5	11,969550
3,375167	0,5	12,137350
3,383500	0,5	12,401800
3,391833	0,5	12,702400
3,400167	0,5	13,003650
3,408500	0,5	13,209050
3,416833	0,5	13,270300
3,425167	0,5	13,138400
3,433500	0,5	12,869900
3,441833	0,5	12,504400
3,450167	0,5	12,087400
3,458500	0,5	11,725400
3,466833	0,5	11,432950
3,475167	0,5	11,226300
3,483500	0,5	11,071950
3,491833	0,5	10,950750
3,500167	0,5	10,846550
3,508500	0,5	10,772300
3,516833	0,5	10,707300
3,525167	0,5	10,658050
3,533500	0,5	10,615800
3,541833	0,5	10,593400
3,550167	0,5	10,569750
3,558500	0,5	10,572650
3,566833	0,5	10,580050
3,575167	0,5	10,625300
3,583500	0,5	10,726350
3,591833	0,5	10,864900
3,600167	0,5	11,046300
3,608500	0,5	11,295350
3,616833	0,5	11,525250
3,625167	0,5	11,712200
3,633500	0,5	11,763950
3,641833	0,5	11,653900
3,650167	0,5	11,440150
3,658500	0,5	11,156050
3,666833	0,5	10,851100
3,675167	0,5	10,565350
3,683500	0,5	10,336200
3,691833	0,5	10,154100
3,700167	0,5	10,029650
3,708500	0,5	9,934650
3,716833	0,5	9,870700
3,725167	0,5	9,816300
3,733500	0,5	9,806250
3,741833	0,5	9,758500
3,750167	0,5	9,746050
3,758500	0,5	9,743900
3,766833	0,5	9,753950
3,775167	0,5	9,765100
3,783500	0,5	9,752750
3,791833	0,5	9,728100
3,800167	0,5	9,726100
3,808500	0,5	9,708550
3,816833	0,5	9,709050
3,825167	0,5	9,715300
3,833500	0,5	9,722500
3,841833	0,5	9,723550
3,850167	0,5	9,707900
3,858500	0,5	9,689200
3,866833	0,5	9,621000
3,875167	0,5	9,568200
3,883500	0,5	9,509850
3,891833	0,5	9,435350
3,900167	0,5	9,375550
3,908500	0,5	9,349800
3,916833	0,5	9,328350
3,925167	0,5	9,331800
3,933500	0,5	9,294100
3,941833	0,5	9,285500
3,950167	0,5	9,258850
3,958500	0,5	9,234550
3,966833	0,5	9,193750
3,975167	0,5	9,158900
3,983500	0,5	9,115600
3,991833	0,5	9,080350
4,000167	0,5	9,043500
4,008500	0,5	9,003700
4,016833	0,5	8,957800
4,025167	0,5	8,952400
4,033500	0,5	8,936550
4,041833	0,5	8,913900
4,050167	0,5	8,914000
4,058500	0,5	8,913000
4,066833	0,5	8,941500
4,075167	0,5	8,935100
4,083500	0,5	8,924950
4,091833	0,5	8,895500
4,100167	0,5	8,873000
4,108500	0,5	8,836550
4,116833	0,5	8,799100
4,125167	0,5	8,758050
4,133500	0,5	8,722700
4,141833	0,5	8,689400
4,150167	0,5	8,667300
4,158500	0,5	8,653050
4,166833	0,5	8,621100
4,175167	0,5	8,616700
4,183500	0,5	8,585200
4,191833	0,5	8,559000
4,200167	0,5	8,542150
4,208500	0,5	8,538500
4,216833	0,5	8,548500
4,225167	0,5	8,544150
4,233500	0,5	8,522300
4,241833	0,5	8,517800
4,250167	0,5	8,499850
4,258500	0,5	8,493150
4,266833	0,5	8,483600
4,275167	0,5	8,481350
4,283500	0,5	8,469900
4,291833	0,5	8,468600
4,300167	0,5	8,453500
4,308500	0,5	8,444200
4,316833	0,5	8,421550
4,325167	0,5	8,424450
4,333500	0,5	8,384050
4,341833	0,5	8,365300
4,350167	0,5	8,349600
4,358500	0,5	8,348100
4,366833	0,5	8,358500
4,375167	0,5	8,334450
4,383500	0,5	8,317350
4,391833	0,5	8,300800
4,400167	0,5	8,283350
4,408500	0,5	8,257150
4,416833	0,5	8,238500
4,425167	0,5	8,214800
4,433500	0,5	8,199200
4,441833	0,5	8,180050
4,450167	0,5	8,168400
4,458500	0,5	8,146250
4,466833	0,5	8,154850
4,475167	0,5	8,157650
4,483500	0,5	8,140000
4,491833	0,5	8,140750
4,500167	0,5	8,143600
4,508500	0,5	8,163700
4,516833	0,5	8,182450
4,525167	0,5	8,178150
4,533500	0,5	8,168200
4,541833	0,5	8,151150
4,550167	0,5	8,136200
4,558500	0,5	8,111500
4,566833	0,5	8,086300
4,575167	0,5	8,054150
4,583500	0,5	8,026200
4,591833	0,5	8,004450
4,600167	0,5	7,968700
4,608500	0,5	7,942850
4,616833	0,5	7,937350
4,625167	0,5	7,909400
4,633500	0,5	7,881900
4,641833	0,5	7,875200
4,650167	0,5	7,866550
4,658500	0,5	7,888100
4,666833	0,5	7,876750
4,675167	0,5	7,865600
4,683500	0,5	7,848200
4,691833	0,5	7,841000
4,700167	0,5	7,824400
4,708500	0,5	7,816400
4,716833	0,5	7,803350
4,725167	0,5	7,788200
4,733500	0,5	7,773300
4,741833	0,5	7,760850
4,750167	0,5	7,755400
4,758500	0,5	7,740900
4,766833	0,5	7,752850
4,775167	0,5	7,724500
4,783500	0,5	7,706150
4,791833	0,5	7,698050
4,800167	0,5	7,699950
4,808500	0,5	7,711350
4,816833	0,5	7,699850
4,825167	0,5	7,679700
4,833500	0,5	7,684800
4,841833	0,5	7,671750
4,850167	0,5	7,670050
4,858500	0,5	7,654300
4,866833	0,5	7,648100
4,875167	0,5	7,635450
4,883500	0,5	7,636350
4,891833	0,5	7,751750
4,900167	0,5	7,782250
4,908500	0,5	7,758200
4,916833	0,5	7,735700
4,925167	0,5	7,698850
4,933500	0,5	7,681700
4,941833	0,5	7,673700
4,950167	0,5	7,679300
4,958500	0,5	7,695950
4,966833	0,5	7,692050
4,975167	0,5	7,706900
4,983500	0,5	7,718400
4,991833	0,5	7,745400
5,000167	0,5	7,777100
5,008500	0,5	7,824850
5,016833	0,5	7,879550
5,025167	0,5	7,954650
5,033500	0,5	8,040300
5,041833	0,5	8,146000
5,050167	0,5	8,243550
5,058500	0,5	8,371400
5,066833	0,5	8,492400
5,075167	0,5	8,603600
5,083500	0,5	8,712200
5,091833	0,5	8,818450
5,100167	0,5	8,920400
5,108500	0,5	8,996500
5,116833	0,5	9,047100
5,125167	0,5	9,087800
5,133500	0,5	9,117450
5,141833	0,5	9,128750
5,150167	0,5	9,133900
5,158500	0,5	9,108250
5,166833	0,5	9,076650
5,175167	0,5	9,012650
5,183500	0,5	8,944450
5,191833	0,5	8,849450
5,200167	0,5	8,734800
5,208500	0,5	8,612750
5,216833	0,5	8,471650
5,225167	0,5	8,323200
5,233500	0,5	8,190700
5,241833	0,5	8,070100
5,250167	0,5	7,982200
5,258500	0,5	7,883750
5,266833	0,5	7,792500
5,275167	0,5	7,721900
5,283500	0,5	7,664200
5,291833	0,5	7,614450
5,300167	0,5	7,575150
5,308500	0,5	7,551600
5,316833	0,5	7,535350
5,325167	0,5	7,534900
5,333500	0,5	7,537100
5,341833	0,5	7,543900
5,350167	0,5	7,556950
5,358500	0,5	7,599200
5,366833	0,5	7,611700
5,375167	0,5	7,642150
5,383500	0,5	7,669000
5,391833	0,5	7,711000
5,400167	0,5	7,737550
5,408500	0,5	7,735250
5,416833	0,5	7,709400
5,425167	0,5	7,690400
5,433500	0,5	7,654600
5,441833	0,5	7,613600
5,450167	0,5	7,565850
5,458500	0,5	7,522950
5,466833	0,5	7,477900
5,475167	0,5	7,445450
5,483500	0,5	7,414000
5,491833	0,5	7,378200
5,500167	0,5	7,367350
5,508500	0,5	7,355950
5,516833	0,5	7,330200
5,525167	0,5	7,322400
5,533500	0,5	7,314900
5,541833	0,5	7,323500
5,550167	0,5	7,330750
5,558500	0,5	7,320850
5,566833	0,5	7,316050
5,575167	0,5	7,302950
5,583500	0,5	7,298650
5,591833	0,5	7,283200
5,600167	0,5	7,280850
5,608500	0,5	7,268300
5,616833	0,5	7,265550
5,625167	0,5	7,259650
5,633500	0,5	7,247100
5,641833	0,5	7,232950
5,650167	0,5	7,245950
5,658500	0,5	7,224400
5,666833	0,5	7,204300
5,675167	0,5	7,195950
5,683500	0,5	7,184300
5,691833	0,5	7,198100
5,700167	0,5	7,178700
5,708500	0,5	7,162950
5,716833	0,5	7,141450
5,725167	0,5	7,128050
5,733500	0,5	7,107300
5,741833	0,5	7,090150
5,750167	0,5	7,066700
5,758500	0,5	7,057600
5,766833	0,5	7,045200
5,775167	0,5	7,036750
5,783500	0,5	7,026200
5,791833	0,5	7,021800
5,800167	0,5	7,034000
5,808500	0,5	7,021400
5,816833	0,5	7,008000
5,825167	0,5	7,008850
5,833500	0,5	7,013100
5,841833	0,5	7,034300
5,850167	0,5	7,026950
5,858500	0,5	7,017900
5,866833	0,5	7,017400
5,875167	0,5	7,011850
5,883500	0,5	7,010800
5,891833	0,5	6,998350
5,900167	0,5	6,992800
5,908500	0,5	6,975300
5,916833	0,5	6,972650
5,925167	0,5	6,958450
5,933500	0,5	6,938400
5,941833	0,5	6,922100
5,950167	0,5	6,923600
5,958500	0,5	6,891900
5,966833	0,5	6,879050
5,975167	0,5	6,872150
5,983500	0,5	6,877050
5,991833	0,5	6,885400
6,000167	0,5	6,872000
6,008500	0,5	6,864400
6,016833	0,5	6,861800
6,025167	0,5	6,856100
6,033500	0,5	6,845000
6,041833	0,5	6,839450
6,050167	0,5	6,826400
6,058500	0,5	6,821700
6,066833	0,5	6,807600
6,075167	0,5	6,796300
6,083500	0,5	6,772000
6,091833	0,5	6,770700
6,100167	0,5	6,766400
6,108500	0,5	6,750400
6,116833	0,5	6,740900
6,125167	0,5	6,744600
6,133500	0,5	6,751450
6,141833	0,5	6,762600
6,150167	0,5	6,749350
6,158500	0,5	6,748500
6,166833	0,5	6,747800
6,175167	0,5	6,747550
6,183500	0,5	6,738650
6,191833	0,5	6,735250
6,200167	0,5	6,729450
6,208500	0,5	6,723100
6,216833	0,5	6,722100
6,225167	0,5	6,700250
6,233500	0,5	6,691600
6,241833	0,5	6,698050
6,250167	0,5	6,693400
6,258500	0,5	6,682050
6,266833	0,5	6,682150
6,275167	0,5	6,688500
6,283500	0,5	6,713100
6,291833	0,5	6,716650
6,300167	0,5	6,719950
6,308500	0,5	6,713250
6,316833	0,5	6,714850
6,325167	0,5	6,703600
6,333500	0,5	6,702000
6,341833	0,5	6,689750
6,350167	0,5	6,682500
6,358500	0,5	6,671450
6,366833	0,5	6,661350
6,375167	0,5	6,639350
6,383500	0,5	6,633050
6,391833	0,5	6,633200
6,400167	0,5	6,616600
6,408500	0,5	6,604500
6,416833	0,5	6,598600
6,425167	0,5	6,609900
6,433500	0,5	6,618300
6,441833	0,5	6,619300
6,450167	0,5	6,604850
6,458500	0,5	6,606250
6,466833	0,5	6,598650
6,475167	0,5	6,602950
6,483500	0,5	6,599800
6,491833	0,5	6,603300
6,500167	0,5	6,602150
6,508500	0,5	6,608050
6,516833	0,5	6,606100
6,525167	0,5	6,605650
6,533500	0,5	6,622000
6,541833	0,5	6,633900
6,550167	0,5	6,624800
6,558500	0,5	6,625600
6,566833	0,5	6,625650
6,575167	0,5	6,635750
6,583500	0,5	6,641950
6,591833	0,5	6,629350
6,600167	0,5	6,622700
6,608500	0,5	6,610700
6,616833	0,5	6,604200
6,625167	0,5	6,588500
6,633500	0,5	6,584100
6,641833	0,5	6,567150
6,650167	0,5	6,563150
6,658500	0,5	6,549350
6,666833	0,5	6,539800
6,675167	0,5	6,518950
6,683500	0,5	6,527500
6,691833	0,5	6,514800
6,700167	0,5	6,503500
6,708500	0,5	6,494250
6,716833	0,5	6,491600
6,725167	0,5	6,508350
6,733500	0,5	6,508600
6,741833	0,5	6,501250
6,750167	0,5	6,499150
6,758500	0,5	6,495600
6,766833	0,5	6,498250
6,775167	0,5	6,498500
6,783500	0,5	6,500550
6,791833	0,5	6,503750
6,800167	0,5	6,505500
6,808500	0,5	6,519000
6,816833	0,5	6,519850
6,825167	0,5	6,530000
6,833500	0,5	6,558900
6,841833	0,5	6,566500
6,850167	0,5	6,583300
6,858500	0,5	6,614200
6,866833	0,5	6,653600
6,875167	0,5	6,725000
6,883500	0,5	6,789900
6,891833	0,5	6,887200
6,900167	0,5	7,025150
6,908500	0,5	7,220050
6,916833	0,5	7,470800
6,925167	0,5	7,792600
6,933500	0,5	8,174400
6,941833	0,5	8,603250
6,950167	0,5	9,049950
6,958500	0,5	9,468300
6,966833	0,5	9,817150
6,975167	0,5	10,055650
6,983500	0,5	10,188400
6,991833	0,5	10,162700
7,000167	0,5	10,021650
7,008500	0,5	9,776350
7,016833	0,5	9,449350
7,025167	0,5	9,056350
7,033500	0,5	8,611850
7,041833	0,5	8,165100
7,050167	0,5	7,765450
7,058500	0,5	7,411950
7,066833	0,5	7,128950
7,075167	0,5	6,913900
7,083500	0,5	6,755600
7,091833	0,5	6,646800
7,100167	0,5	6,579550
7,108500	0,5	6,550650
7,116833	0,5	6,552350
7,125167	0,5	6,595600
7,133500	0,5	6,696600
7,141833	0,5	6,829100
7,150167	0,5	7,031800
7,158500	0,5	7,304600
7,166833	0,5	7,666350
7,175167	0,5	8,120850
7,183500	0,5	8,640950
7,191833	0,5	9,265650
7,200167	0,5	9,966350
7,208500	0,5	10,757200
7,216833	0,5	11,614850
7,225167	0,5	12,542950
7,233500	0,5	13,516250
7,241833	0,5	14,546600
7,250167	0,5	15,614800
7,258500	0,5	16,705350
7,266833	0,5	17,817650
7,275167	0,5	18,967500
7,283500	0,5	20,115900
7,291833	0,5	21,268200
7,300167	0,5	22,437400
7,308500	0,5	23,610700
7,316833	0,5	24,798850
7,325167	0,5	25,976900
7,333500	0,5	27,146000
7,341833	0,5	28,313250
7,350167	0,5	29,468800
7,358500	0,5	30,607500
7,366833	0,5	31,740550
7,375167	0,5	32,848900
7,383500	0,5	33,951651
7,391833	0,5	35,023901
7,400167	0,5	36,062601
7,408500	0,5	37,057951
7,416833	0,5	38,030701
7,425167	0,5	38,964751
7,433500	0,5	39,850951
7,441833	0,5	40,687251
7,450167	0,5	41,499501
7,458500	0,5	42,275251
7,466833	0,5	43,024651
7,475167	0,5	43,721651
7,483500	0,5	44,372801
7,491833	0,5	44,982401
7,500167	0,5	45,557951
7,508500	0,5	46,086001
7,516833	0,5	46,567601
7,525167	0,5	47,003401
7,533500	0,5	47,401751
7,541833	0,5	47,763301
7,550167	0,5	48,077601
7,558500	0,5	48,349401
7,566833	0,5	48,584251
7,575167	0,5	48,777501
7,583500	0,5	48,907301
7,591833	0,5	48,991701
7,600167	0,5	49,027801
7,608500	0,5	49,036901
7,616833	0,5	49,000701
7,625167	0,5	48,937501
7,633500	0,5	48,854501
7,641833	0,5	48,778751
7,650167	0,5	48,674701
7,658500	0,5	48,505901
7,666833	0,5	48,229451
7,675167	0,5	47,856801
7,683500	0,5	47,426701
7,691833	0,5	46,981051
7,700167	0,5	46,531901
7,708500	0,5	46,062451
7,716833	0,5	45,607751
7,725167	0,5	45,111251
7,733500	0,5	44,585601
7,741833	0,5	44,049651
7,750167	0,5	43,507051
7,758500	0,5	42,974401
7,766833	0,5	42,421501
7,775167	0,5	41,846451
7,783500	0,5	41,273951
7,791833	0,5	40,689101
7,800167	0,5	40,105501
7,808500	0,5	39,503951
7,816833	0,5	38,909451
7,825167	0,5	38,307801
7,833500	0,5	37,706951
7,841833	0,5	37,108001
7,850167	0,5	36,501701
7,858500	0,5	35,900951
7,866833	0,5	35,335451
7,875167	0,5	34,760651
7,883500	0,5	34,195601
7,891833	0,5	33,655601
7,900167	0,5	33,146300
7,908500	0,5	32,693300
7,916833	0,5	32,265850
7,925167	0,5	31,903250
7,933500	0,5	31,613650
7,941833	0,5	31,428350
7,950167	0,5	31,364150
7,958500	0,5	31,439850
7,966833	0,5	31,640200
7,975167	0,5	31,943650
7,983500	0,5	32,265200
7,991833	0,5	32,517800
8,000167	0,5	32,593550
8,008500	0,5	32,405300
8,016833	0,5	31,890150
8,025167	0,5	30,999050
8,033500	0,5	29,811550
8,041833	0,5	28,467900
8,050167	0,5	27,120350
8,058500	0,5	25,895700
8,066833	0,5	24,831600
8,075167	0,5	23,950950
8,083500	0,5	23,242100
8,091833	0,5	22,662950
8,100167	0,5	22,190550
8,108500	0,5	21,785250
8,116833	0,5	21,438800
8,125167	0,5	21,140650
8,133500	0,5	20,896050
8,141833	0,5	20,690900
8,150167	0,5	20,495300
8,158500	0,5	20,284950
8,166833	0,5	20,030500
8,175167	0,5	19,702250
8,183500	0,5	19,335500
8,191833	0,5	18,945150
8,200167	0,5	18,560150
8,208500	0,5	18,194150
8,216833	0,5	17,839950
8,225167	0,5	17,514250
8,233500	0,5	17,215300
8,241833	0,5	16,947950
8,250167	0,5	16,693300
8,258500	0,5	16,453050
8,266833	0,5	16,233500
8,275167	0,5	16,036550
8,283500	0,5	15,874800
8,291833	0,5	15,742650
8,300167	0,5	15,624750
8,308500	0,5	15,499400
8,316833	0,5	15,330400
8,325167	0,5	15,121950
8,333500	0,5	14,903800
8,341833	0,5	14,701200
8,350167	0,5	14,528650
8,358500	0,5	14,381800
8,366833	0,5	14,250950
8,375167	0,5	14,132400
8,383500	0,5	14,027650
8,391833	0,5	13,930950
8,400167	0,5	13,842900
8,408500	0,5	13,763650
8,416833	0,5	13,689600
8,425167	0,5	13,607800
8,433500	0,5	13,521150
8,441833	0,5	13,417300
8,450167	0,5	13,318950
8,458500	0,5	13,232800
8,466833	0,5	13,148200
8,475167	0,5	13,073650
8,483500	0,5	13,011800
8,491833	0,5	12,958300
8,500167	0,5	12,903850
8,508500	0,5	12,831450
8,516833	0,5	12,748400
8,525167	0,5	12,654750
8,533500	0,5	12,565550
8,541833	0,5	12,481300
8,550167	0,5	12,405650
8,558500	0,5	12,344050
8,566833	0,5	12,316650
8,575167	0,5	12,318200
8,583500	0,5	12,323350
8,591833	0,5	12,295350
8,600167	0,5	12,213550
8,608500	0,5	12,088850
8,616833	0,5	11,934650
8,625167	0,5	11,790600
8,633500	0,5	11,670650
8,641833	0,5	11,574800
8,650167	0,5	11,486350
8,658500	0,5	11,413400
8,666833	0,5	11,339900
8,675167	0,5	11,265400
8,683500	0,5	11,181100
8,691833	0,5	11,089700
8,700167	0,5	10,999600
8,708500	0,5	10,912500
8,716833	0,5	10,828300
8,725167	0,5	10,751100
8,733500	0,5	10,675450
8,741833	0,5	10,597350
8,750167	0,5	10,524800
8,758500	0,5	10,446650
8,766833	0,5	10,372800
8,775167	0,5	10,304250
8,783500	0,5	10,248550
8,791833	0,5	10,223300
8,800167	0,5	10,233350
8,808500	0,5	10,268850
8,816833	0,5	10,300600
8,825167	0,5	10,282200
8,833500	0,5	10,195400
8,841833	0,5	10,065350
8,850167	0,5	9,929900
8,858500	0,5	9,805250
8,866833	0,5	9,706950
8,875167	0,5	9,628100
8,883500	0,5	9,568100
8,891833	0,5	9,521250
8,900167	0,5	9,502650
8,908500	0,5	9,518000
8,916833	0,5	9,588350
8,925167	0,5	9,692150
8,933500	0,5	9,774850
8,941833	0,5	9,767050
8,950167	0,5	9,642350
8,958500	0,5	9,440100
8,966833	0,5	9,225100
8,975167	0,5	9,055050
8,983500	0,5	8,965850
8,991833	0,5	8,946050
9,000167	0,5	8,940250
9,008500	0,5	8,901900
9,016833	0,5	8,821050
9,025167	0,5	8,726300
9,033500	0,5	8,640850
9,041833	0,5	8,567750
9,050167	0,5	8,509200
9,058500	0,5	8,440600
9,066833	0,5	8,374750
9,075167	0,5	8,318450
9,083500	0,5	8,277500
9,091833	0,5	8,252050
9,100167	0,5	8,238050
9,108500	0,5	8,242750
9,116833	0,5	8,264800
9,125167	0,5	8,310450
9,133500	0,5	8,386650
9,141833	0,5	8,487350
9,150167	0,5	8,573300
9,158500	0,5	8,619700
9,166833	0,5	8,605800
9,175167	0,5	8,550950
9,183500	0,5	8,485100
9,191833	0,5	8,420200
9,200167	0,5	8,349300
9,208500	0,5	8,277950
9,216833	0,5	8,226950
9,225167	0,5	8,199900
9,233500	0,5	8,191050
9,241833	0,5	8,191400
9,250167	0,5	8,196600
9,258500	0,5	8,221750
9,266833	0,5	8,314300
9,275167	0,5	8,533400
9,283500	0,5	8,949500
9,291833	0,5	9,391700
9,300167	0,5	9,548400
9,308500	0,5	9,310700
9,316833	0,5	8,901000
9,325167	0,5	8,634200
9,333500	0,5	8,563100
9,341833	0,5	8,672300
9,350167	0,5	8,900500
9,358500	0,5	9,182100
9,366833	0,5	9,476650
9,375167	0,5	9,729050
9,383500	0,5	9,898950
9,391833	0,5	9,966000
9,400167	0,5	9,915050
9,408500	0,5	9,759800
9,416833	0,5	9,529050
9,425167	0,5	9,258600
9,433500	0,5	8,983400
9,441833	0,5	8,739000
9,450167	0,5	8,550550
9,458500	0,5	8,433300
9,466833	0,5	8,394900
9,475167	0,5	8,423850
9,483500	0,5	8,478500
9,491833	0,5	8,533800
9,500167	0,5	8,525400
9,508500	0,5	8,438400
9,516833	0,5	8,271450
9,525167	0,5	8,056400
9,533500	0,5	7,834900
9,541833	0,5	7,627450
9,550167	0,5	7,454250
9,558500	0,5	7,319050
9,566833	0,5	7,218000
9,575167	0,5	7,143500
9,583500	0,5	7,090850
9,591833	0,5	7,056100
9,600167	0,5	7,043750
9,608500	0,5	7,047200
9,616833	0,5	7,059350
9,625167	0,5	7,055350
9,633500	0,5	7,028850
9,641833	0,5	6,979200
9,650167	0,5	6,906650
9,658500	0,5	6,829100
9,666833	0,5	6,751350
9,675167	0,5	6,685150
9,683500	0,5	6,623150
9,691833	0,5	6,569950
9,700167	0,5	6,525650
9,708500	0,5	6,480600
9,716833	0,5	6,443850
9,725167	0,5	6,415850
9,733500	0,5	6,394250
9,741833	0,5	6,382900
9,750167	0,5	6,375000
9,758500	0,5	6,374850
9,766833	0,5	6,382250
9,775167	0,5	6,396200
9,783500	0,5	6,411400
9,791833	0,5	6,434850
9,800167	0,5	6,454400
9,808500	0,5	6,470250
9,816833	0,5	6,481600
9,825167	0,5	6,489000
9,833500	0,5	6,484500
9,841833	0,5	6,468550
9,850167	0,5	6,441000
9,858500	0,5	6,419100
9,866833	0,5	6,406150
9,875167	0,5	6,415950
9,883500	0,5	6,456200
9,891833	0,5	6,536800
9,900167	0,5	6,649250
9,908500	0,5	6,802200
9,916833	0,5	6,974050
9,925167	0,5	7,156550
9,933500	0,5	7,335150
9,941833	0,5	7,507500
9,950167	0,5	7,659350
9,958500	0,5	7,814200
9,966833	0,5	7,967200
9,975167	0,5	8,127950
9,983500	0,5	8,286850
9,991833	0,5	8,443000
10,000167	0,5	8,583400
10,008500	0,5	8,714300
10,016833	0,5	8,836650
10,025167	0,5	8,948000
10,033500	0,5	9,053500
10,041833	0,5	9,143500
10,050167	0,5	9,220850
10,058500	0,5	9,277850
10,066833	0,5	9,299350
10,075167	0,5	9,274150
10,083500	0,5	9,185700
10,091833	0,5	9,015550
10,100167	0,5	8,752250
10,108500	0,5	8,411650
10,116833	0,5	8,020150
10,125167	0,5	7,619550
10,133500	0,5	7,245500
10,141833	0,5	6,923950
10,150167	0,5	6,664200
10,158500	0,5	6,463550
10,166833	0,5	6,320500
10,175167	0,5	6,226800
10,183500	0,5	6,176100
10,191833	0,5	6,162400
10,200167	0,5	6,175350
10,208500	0,5	6,194600
10,216833	0,5	6,203600
10,225167	0,5	6,193850
10,233500	0,5	6,164200
10,241833	0,5	6,121400
10,250167	0,5	6,059600
10,258500	0,5	5,995450
10,266833	0,5	5,938650
10,275167	0,5	5,885200
10,283500	0,5	5,839300
10,291833	0,5	5,797100
10,300167	0,5	5,753000
10,308500	0,5	5,714200
10,316833	0,5	5,679700
10,325167	0,5	5,654350
10,333500	0,5	5,631800
10,341833	0,5	5,622800
10,350167	0,5	5,617400
10,358500	0,5	5,621100
10,366833	0,5	5,627200
10,375167	0,5	5,636450
10,383500	0,5	5,651450
10,391833	0,5	5,671500
10,400167	0,5	5,698100
10,408500	0,5	5,731300
10,416833	0,5	5,775050
10,425167	0,5	5,827100
10,433500	0,5	5,879450
10,441833	0,5	5,922300
10,450167	0,5	5,947200
10,458500	0,5	5,946450
10,466833	0,5	5,916350
10,475167	0,5	5,860850
10,483500	0,5	5,801900
10,491833	0,5	5,737800
10,500167	0,5	5,682400
10,508500	0,5	5,635550
10,516833	0,5	5,588100
10,525167	0,5	5,541750
10,533500	0,5	5,505550
10,541833	0,5	5,468950
10,550167	0,5	5,441850
10,558500	0,5	5,430450
10,566833	0,5	5,430650
10,575167	0,5	5,444200
10,583500	0,5	5,463800
10,591833	0,5	5,495200
10,600167	0,5	5,531450
10,608500	0,5	5,581500
10,616833	0,5	5,643150
10,625167	0,5	5,709700
10,633500	0,5	5,764200
10,641833	0,5	5,793150
10,650167	0,5	5,790050
10,658500	0,5	5,749200
10,666833	0,5	5,671200
10,675167	0,5	5,592150
10,683500	0,5	5,503450
10,691833	0,5	5,419400
10,700167	0,5	5,343500
10,708500	0,5	5,272950
10,716833	0,5	5,209150
10,725167	0,5	5,158200
10,733500	0,5	5,114100
10,741833	0,5	5,079850
10,750167	0,5	5,057800
10,758500	0,5	5,052400
10,766833	0,5	5,055350
10,775167	0,5	5,067850
10,783500	0,5	5,080900
10,791833	0,5	5,111850
10,800167	0,5	5,153550
10,808500	0,5	5,205850
10,816833	0,5	5,256500
10,825167	0,5	5,303150
10,833500	0,5	5,315850
10,841833	0,5	5,294800
10,850167	0,5	5,236850
10,858500	0,5	5,157300
10,866833	0,5	5,075800
10,875167	0,5	4,993400
10,883500	0,5	4,919050
10,891833	0,5	4,857750
10,900167	0,5	4,797100
10,908500	0,5	4,739900
10,916833	0,5	4,692700
10,925167	0,5	4,650650
10,933500	0,5	4,619000
10,941833	0,5	4,600900
10,950167	0,5	4,594050
10,958500	0,5	4,614650
10,966833	0,5	4,642050
10,975167	0,5	4,701500
10,983500	0,5	4,769500
10,991833	0,5	4,841900
11,000167	0,5	4,897900
11,008500	0,5	4,921600
11,016833	0,5	4,908350
11,025167	0,5	4,852400
11,033500	0,5	4,762200
11,041833	0,5	4,673550
11,050167	0,5	4,584750
11,058500	0,5	4,509100
11,066833	0,5	4,446950
11,075167	0,5	4,403400
11,083500	0,5	4,360650
11,091833	0,5	4,335650
11,100167	0,5	4,323350
11,108500	0,5	4,332800
11,116833	0,5	4,354950
11,125167	0,5	4,405250
11,133500	0,5	4,466050
11,141833	0,5	4,533100
11,150167	0,5	4,587300
11,158500	0,5	4,621050
11,166833	0,5	4,624750
11,175167	0,5	4,583300
11,183500	0,5	4,512250
11,191833	0,5	4,417600
11,200167	0,5	4,321450
11,208500	0,5	4,234050
11,216833	0,5	4,164150
11,225167	0,5	4,102650
11,233500	0,5	4,051350
11,241833	0,5	4,008100
11,250167	0,5	3,967050
11,258500	0,5	3,928900
11,266833	0,5	3,907800
11,275167	0,5	3,891350
11,283500	0,5	3,868450
11,291833	0,5	3,846500
11,300167	0,5	3,810850
11,308500	0,5	3,758250
11,316833	0,5	3,693150
11,325167	0,5	3,618900
11,333500	0,5	3,545500
11,341833	0,5	3,490650
11,350167	0,5	3,459000
11,358500	0,5	3,455700
11,366833	0,5	3,465650
11,375167	0,5	3,500950
11,383500	0,5	3,540150
11,391833	0,5	3,589100
11,400167	0,5	3,639150
11,408500	0,5	3,682200
11,416833	0,5	3,727450
11,425167	0,5	3,764150
11,433500	0,5	3,776600
11,441833	0,5	3,774800
11,450167	0,5	3,754600
11,458500	0,5	3,728950
11,466833	0,5	3,700900
11,475167	0,5	3,670800
11,483500	0,5	3,647350
11,491833	0,5	3,628400
11,500167	0,5	3,617400
11,508500	0,5	3,608900
11,516833	0,5	3,611300
11,525167	0,5	3,610550
11,533500	0,5	3,615900
11,541833	0,5	3,621750
11,550167	0,5	3,623250
11,558500	0,5	3,620650
11,566833	0,5	3,621750
11,575167	0,5	3,615700
11,583500	0,5	3,604850
11,591833	0,5	3,595150
11,600167	0,5	3,590550
11,608500	0,5	3,594750
11,616833	0,5	3,601650
11,625167	0,5	3,610950
11,633500	0,5	3,629650
11,641833	0,5	3,647200
11,650167	0,5	3,664650
11,658500	0,5	3,685450
11,666833	0,5	3,700650
11,675167	0,5	3,706400
11,683500	0,5	3,711600
11,691833	0,5	3,716700
11,700167	0,5	3,713900
11,708500	0,5	3,726600
11,716833	0,5	3,738950
11,725167	0,5	3,753600
11,733500	0,5	3,762300
11,741833	0,5	3,773600
11,750167	0,5	3,783900
11,758500	0,5	3,795400
11,766833	0,5	3,798400
11,775167	0,5	3,802100
11,783500	0,5	3,804550
11,791833	0,5	3,812150
11,800167	0,5	3,814250
11,808500	0,5	3,817200
11,816833	0,5	3,812650
11,825167	0,5	3,806000
11,833500	0,5	3,809150
11,841833	0,5	3,813000
11,850167	0,5	3,809500
11,858500	0,5	3,828600
11,866833	0,5	3,848550
11,875167	0,5	3,878450
11,883500	0,5	3,923850
11,891833	0,5	3,976250
11,900167	0,5	4,071650
11,908500	0,5	4,195300
11,916833	0,5	4,346850
11,925167	0,5	4,523000
11,933500	0,5	4,704700
11,941833	0,5	4,867550
11,950167	0,5	4,986450
11,958500	0,5	5,042500
11,966833	0,5	5,032900
11,975167	0,5	4,965150
11,983500	0,5	4,857150
11,991833	0,5	4,730200
12,000167	0,5	4,591700
12,008500	0,5	4,476900
12,016833	0,5	4,370900
12,025167	0,5	4,292850
12,033500	0,5	4,231900
12,041833	0,5	4,185600
12,050167	0,5	4,159850
12,058500	0,5	4,152400
12,066833	0,5	4,149250
12,075167	0,5	4,163350
12,083500	0,5	4,189850
12,091833	0,5	4,223200
12,100167	0,5	4,256800
12,108500	0,5	4,286250
12,116833	0,5	4,299150
12,125167	0,5	4,300000
12,133500	0,5	4,287100
12,141833	0,5	4,270850
12,150167	0,5	4,241650
12,158500	0,5	4,228100
12,166833	0,5	4,209850
12,175167	0,5	4,209550
12,183500	0,5	4,222250
12,191833	0,5	4,252150
12,200167	0,5	4,305300
12,208500	0,5	4,362100
12,216833	0,5	4,429750
12,225167	0,5	4,494650
12,233500	0,5	4,553000
12,241833	0,5	4,581150
12,250167	0,5	4,585700
12,258500	0,5	4,553000
12,266833	0,5	4,493150
12,275167	0,5	4,409450
12,283500	0,5	4,319900
12,291833	0,5	4,221000
12,300167	0,5	4,146050
12,308500	0,5	4,085900
12,316833	0,5	4,042600
12,325167	0,5	4,016650
12,333500	0,5	4,002250
12,341833	0,5	3,999800
12,350167	0,5	3,999400
12,358500	0,5	3,997600
12,366833	0,5	3,985100
12,375167	0,5	3,966800
12,383500	0,5	3,939300
12,391833	0,5	3,910800
12,400167	0,5	3,879750
12,408500	0,5	3,852300
12,416833	0,5	3,831750
12,425167	0,5	3,826000
12,433500	0,5	3,815800
12,441833	0,5	3,809600
12,450167	0,5	3,813700
12,458500	0,5	3,818400
12,466833	0,5	3,813500
12,475167	0,5	3,811950
12,483500	0,5	3,807750
12,491833	0,5	3,819700
12,500167	0,5	3,827100
12,508500	0,5	3,834650
12,516833	0,5	3,835650
12,525167	0,5	3,839550
12,533500	0,5	3,839700
12,541833	0,5	3,847100
12,550167	0,5	3,856500
12,558500	0,5	3,873500
12,566833	0,5	3,902700
12,575167	0,5	3,930550
12,583500	0,5	3,968600
12,591833	0,5	4,013300
12,600167	0,5	4,072150
12,608500	0,5	4,127200
12,616833	0,5	4,185400
12,625167	0,5	4,245250
12,633500	0,5	4,310350
12,641833	0,5	4,377450
12,650167	0,5	4,441300
12,658500	0,5	4,495300
12,666833	0,5	4,553050
12,675167	0,5	4,602200
12,683500	0,5	4,648100
12,691833	0,5	4,675100
12,700167	0,5	4,691900
12,708500	0,5	4,696850
12,716833	0,5	4,683300
12,725167	0,5	4,652800
12,733500	0,5	4,596650
12,741833	0,5	4,543950
12,750167	0,5	4,489550
12,758500	0,5	4,432950
12,766833	0,5	4,363600
12,775167	0,5	4,284400
12,783500	0,5	4,209500
12,791833	0,5	4,128450
12,800167	0,5	4,039300
12,808500	0,5	3,971350
12,816833	0,5	3,921900
12,825167	0,5	3,908050
12,833500	0,5	3,920650
12,841833	0,5	3,963900
12,850167	0,5	4,011200
12,858500	0,5	4,053350
12,866833	0,5	4,089400
12,875167	0,5	4,083600
12,883500	0,5	4,022850
12,891833	0,5	3,973200
12,900167	0,5	3,920450
12,908500	0,5	3,927750
12,916833	0,5	4,074650
12,925167	0,5	4,197950
12,933500	0,5	4,251250
12,941833	0,5	4,267950
12,950167	0,5	4,085350
12,958500	0,5	3,742400
12,966833	0,5	3,412350
12,975167	0,5	2,990350
12,983500	0,5	2,592700
12,991833	0,5	2,292000
13,000167	0,5	2,061700
13,008500	0,5	1,874000
13,016833	0,5	1,732850
13,025167	0,5	1,608400
13,033500	0,5	1,511300
13,041833	0,5	1,443100
13,050167	0,5	1,382200
13,058500	0,5	1,334650
13,066833	0,5	1,292100
13,075167	0,5	1,256500
13,083500	0,5	1,240800
13,091833	0,5	1,233150
13,100167	0,5	1,218200
13,108500	0,5	1,206850
13,116833	0,5	1,190250
13,125167	0,5	1,179350
13,133500	0,5	1,162050
13,141833	0,5	1,143150
13,150167	0,5	1,122350
13,158500	0,5	1,107600
13,166833	0,5	1,090950
13,175167	0,5	1,074200
13,183500	0,5	1,058000
13,191833	0,5	1,065100
13,200167	0,5	1,060050
13,208500	0,5	1,059600
13,216833	0,5	1,054800
13,225167	0,5	1,051800
13,233500	0,5	1,054450
13,241833	0,5	1,052550
13,250167	0,5	1,043650
13,258500	0,5	1,031050
13,266833	0,5	1,012150
13,275167	0,5	0,995400
13,283500	0,5	0,974800
13,291833	0,5	0,954550
13,300167	0,5	0,941500
13,308500	0,5	0,931250
13,316833	0,5	0,929700
13,325167	0,5	0,914900
13,333500	0,5	0,922300
13,341833	0,5	0,921550
13,350167	0,5	0,917550
13,358500	0,5	0,907950
13,366833	0,5	0,897650
13,375167	0,5	0,895650
13,383500	0,5	0,897100
13,391833	0,5	0,892000
13,400167	0,5	0,891600
13,408500	0,5	0,891000
13,416833	0,5	0,886900
13,425167	0,5	0,889600
13,433500	0,5	0,889750
13,441833	0,5	0,891550
13,450167	0,5	0,895750
13,458500	0,5	0,909450
13,466833	0,5	0,915150
13,475167	0,5	0,924300
13,483500	0,5	0,951900
13,491833	0,5	0,983550
13,500167	0,5	1,016500
13,508500	0,5	1,060000
13,516833	0,5	1,114500
13,525167	0,5	1,187050
13,533500	0,5	1,264400
13,541833	0,5	1,361800
13,550167	0,5	1,454250
13,558500	0,5	1,552500
13,566833	0,5	1,643150
13,575167	0,5	1,734600
13,583500	0,5	1,807900
13,591833	0,5	1,868050
13,600167	0,5	1,917550
13,608500	0,5	1,953100
13,616833	0,5	1,963550
13,625167	0,5	1,978850
13,633500	0,5	1,985850
13,641833	0,5	1,981100
13,650167	0,5	1,967200
13,658500	0,5	1,951550
13,666833	0,5	1,943000
13,675167	0,5	1,933300
13,683500	0,5	1,923100
13,691833	0,5	1,915400
13,700167	0,5	1,913000
13,708500	0,5	1,901850
13,716833	0,5	1,903100
13,725167	0,5	1,899350
13,733500	0,5	1,898700
13,741833	0,5	1,895150
13,750167	0,5	1,895800
13,758500	0,5	1,895400
13,766833	0,5	1,882350
13,775167	0,5	1,892500
13,783500	0,5	1,891200
13,791833	0,5	1,887600
13,800167	0,5	1,878650
13,808500	0,5	1,870100
13,816833	0,5	1,872000
13,825167	0,5	1,878850
13,833500	0,5	1,873850
13,841833	0,5	1,874900
13,850167	0,5	1,874450
13,858500	0,5	1,879750
13,866833	0,5	1,885050
13,875167	0,5	1,889350
13,883500	0,5	1,888900
13,891833	0,5	1,891050
13,900167	0,5	1,892100
13,908500	0,5	1,895100
13,916833	0,5	1,883000
13,925167	0,5	1,901900
13,933500	0,5	1,904250
13,941833	0,5	1,909300
13,950167	0,5	1,911500
13,958500	0,5	1,908100
13,966833	0,5	1,924250
13,975167	0,5	1,926150
13,983500	0,5	1,929000
13,991833	0,5	1,928600
14,000167	0,5	1,932000
14,008500	0,5	1,931150
14,016833	0,5	1,933550
14,025167	0,5	1,932100
14,033500	0,5	1,935900
14,041833	0,5	1,940650
14,050167	0,5	1,952000
14,058500	0,5	1,951300
14,066833	0,5	1,947750
14,075167	0,5	1,954750
14,083500	0,5	1,950200
14,091833	0,5	1,945550
14,100167	0,5	1,940000
14,108500	0,5	1,933150
14,116833	0,5	1,940800
14,125167	0,5	1,945500
14,133500	0,5	1,954000
14,141833	0,5	1,961850
14,150167	0,5	1,969300
14,158500	0,5	1,980350
14,166833	0,5	1,988600
14,175167	0,5	1,998900
14,183500	0,5	2,005900
14,191833	0,5	2,025150
14,200167	0,5	2,033000
14,208500	0,5	2,039800
14,216833	0,5	2,052250
14,225167	0,5	2,070450
14,233500	0,5	2,075650
14,241833	0,5	2,085400
14,250167	0,5	2,090350
14,258500	0,5	2,099450
14,266833	0,5	2,109300
14,275167	0,5	2,133700
14,283500	0,5	2,148500
14,291833	0,5	2,169750
14,300167	0,5	2,187000
14,308500	0,5	2,204350
14,316833	0,5	2,223600
14,325167	0,5	2,242650
14,333500	0,5	2,267400
14,341833	0,5	2,293500
14,350167	0,5	2,318000
14,358500	0,5	2,337400
14,366833	0,5	2,379950
14,375167	0,5	2,414150
14,383500	0,5	2,452250
14,391833	0,5	2,485000
14,400167	0,5	2,535650
14,408500	0,5	2,594600
14,416833	0,5	2,674100
14,425167	0,5	2,757100
14,433500	0,5	2,858550
14,441833	0,5	2,966750
14,450167	0,5	3,091050
14,458500	0,5	3,226250
14,466833	0,5	3,375550
14,475167	0,5	3,535450
14,483500	0,5	3,707850
14,491833	0,5	3,892400
14,500167	0,5	4,071300
14,508500	0,5	4,262600
14,516833	0,5	4,456650
14,525167	0,5	4,639700
14,533500	0,5	4,807950
14,541833	0,5	4,958800
14,550167	0,5	5,096250
14,558500	0,5	5,224350
14,566833	0,5	5,324850
14,575167	0,5	5,420500
14,583500	0,5	5,495800
14,591833	0,5	5,561300
14,600167	0,5	5,609700
14,608500	0,5	5,655550
14,616833	0,5	5,687650
14,625167	0,5	5,711900
14,633500	0,5	5,730900
14,641833	0,5	5,743950
14,650167	0,5	5,723350
14,658500	0,5	5,721550
14,666833	0,5	5,710300
14,675167	0,5	5,688150
14,683500	0,5	5,658350
14,691833	0,5	5,618500
14,700167	0,5	5,595650
14,708500	0,5	5,562950
14,716833	0,5	5,531600
14,725167	0,5	5,486100
14,733500	0,5	5,449200
14,741833	0,5	5,409850
14,750167	0,5	5,384800
14,758500	0,5	5,365700
14,766833	0,5	5,362500
14,775167	0,5	5,360300
14,783500	0,5	5,367800
14,791833	0,5	5,367350
14,800167	0,5	5,344700
14,808500	0,5	5,329950
14,816833	0,5	5,294900
14,825167	0,5	5,242350
14,833500	0,5	5,183050
14,841833	0,5	5,116350
14,850167	0,5	5,086150
14,858500	0,5	5,059000
14,866833	0,5	5,033450
14,875167	0,5	5,016500
14,883500	0,5	5,006200
14,891833	0,5	5,005950
14,900167	0,5	4,997850
14,908500	0,5	4,982200
14,916833	0,5	4,950900
14,925167	0,5	4,911750
14,933500	0,5	4,865650
14,941833	0,5	4,827650
14,950167	0,5	4,782000
14,958500	0,5	4,768700
14,966833	0,5	4,738500
14,975167	0,5	4,710400
14,983500	0,5	4,680900
14,991833	0,5	4,647150
15,000167	0,5	4,635150
15,008500	0,5	4,614350
15,016833	0,5	4,588900
15,025167	0,5	4,567700
15,033500	0,5	4,545300
15,041833	0,5	4,522900
15,050167	0,5	4,501050
15,058500	0,5	4,474700
15,066833	0,5	4,450400
15,075167	0,5	4,423350
15,083500	0,5	4,409400
15,091833	0,5	4,380250
15,100167	0,5	4,364400
15,108500	0,5	4,349100
15,116833	0,5	4,324700
15,125167	0,5	4,299100
15,133500	0,5	4,270100
15,141833	0,5	4,245950
15,150167	0,5	4,228550
15,158500	0,5	4,210250
15,166833	0,5	4,187000
15,175167	0,5	4,164250
15,183500	0,5	4,142400
15,191833	0,5	4,123100
15,200167	0,5	4,100550
15,208500	0,5	4,082250
15,216833	0,5	4,055250
15,225167	0,5	4,044000
15,233500	0,5	4,018750
15,241833	0,5	3,991750
15,250167	0,5	3,976300
15,258500	0,5	3,962500
15,266833	0,5	3,934700
15,275167	0,5	3,909050
15,283500	0,5	3,875650
15,291833	0,5	3,860050
15,300167	0,5	3,841750
15,308500	0,5	3,826650
15,316833	0,5	3,805150
15,325167	0,5	3,797050
15,333500	0,5	3,778500
15,341833	0,5	3,772400
15,350167	0,5	3,757200
15,358500	0,5	3,741500
15,366833	0,5	3,727100
15,375167	0,5	3,716700
15,383500	0,5	3,696550
15,391833	0,5	3,687750
15,400167	0,5	3,687100
15,408500	0,5	3,675050
15,416833	0,5	3,656950
15,425167	0,5	3,625600
15,433500	0,5	3,611700
15,441833	0,5	3,597450
15,450167	0,5	3,591800
15,458500	0,5	3,576400
15,466833	0,5	3,568900
15,475167	0,5	3,545200
15,483500	0,5	3,530450
15,491833	0,5	3,508550
15,500167	0,5	3,487500
15,508500	0,5	3,466950
15,516833	0,5	3,448050
15,525167	0,5	3,440500
15,533500	0,5	3,415800
15,541833	0,5	3,408950
15,550167	0,5	3,405800
15,558500	0,5	3,398150
15,566833	0,5	3,387200
15,575167	0,5	3,370800
15,583500	0,5	3,364900
15,591833	0,5	3,364700
15,600167	0,5	3,340000
15,608500	0,5	3,327850
15,616833	0,5	3,302300
15,625167	0,5	3,289750
15,633500	0,5	3,266100
15,641833	0,5	3,260550
15,650167	0,5	3,241650
15,658500	0,5	3,229900
15,666833	0,5	3,218950
15,675167	0,5	3,214050
15,683500	0,5	3,183100
15,691833	0,5	3,188300
15,700167	0,5	3,180050
15,708500	0,5	3,170250
15,716833	0,5	3,153400
15,725167	0,5	3,126700
15,733500	0,5	3,131700
15,741833	0,5	3,119400
15,750167	0,5	3,111100
15,758500	0,5	3,099150
15,766833	0,5	3,092900
15,775167	0,5	3,084100
15,783500	0,5	3,079700
15,791833	0,5	3,069250
15,800167	0,5	3,062800
15,808500	0,5	3,051350
15,816833	0,5	3,044550
15,825167	0,5	3,033350
15,833500	0,5	3,017150
15,841833	0,5	3,012900
15,850167	0,5	3,006350
15,858500	0,5	2,991550
15,866833	0,5	2,974050
15,875167	0,5	2,953450
15,883500	0,5	2,952200
15,891833	0,5	2,944400
15,900167	0,5	2,931650
15,908500	0,5	2,920400
15,916833	0,5	2,903500
15,925167	0,5	2,894550
15,933500	0,5	2,881150
15,941833	0,5	2,875900
15,950167	0,5	2,864350
15,958500	0,5	2,849050
15,966833	0,5	2,844150
15,975167	0,5	2,833350
15,983500	0,5	2,821000
15,991833	0,5	2,827200
16,000167	0,5	2,813550
16,008500	0,5	2,801450
16,016833	0,5	2,777200
16,025167	0,5	2,757200
16,033500	0,5	2,748200
16,041833	0,5	2,737450
16,050167	0,5	2,718600
16,058500	0,5	2,709950
16,066833	0,5	2,701950
16,075167	0,5	2,696200
16,083500	0,5	2,685100
16,091833	0,5	2,673200
16,100167	0,5	2,666750
16,108500	0,5	2,649800
16,116833	0,5	2,645800
16,125167	0,5	2,623850
16,133500	0,5	2,626200
16,141833	0,5	2,619500
16,150167	0,5	2,610650
16,158500	0,5	2,588750
16,166833	0,5	2,569150
16,175167	0,5	2,555000
16,183500	0,5	2,555450
16,191833	0,5	2,542800
16,200167	0,5	2,538900
16,208500	0,5	2,529100
16,216833	0,5	2,519050
16,225167	0,5	2,510100
16,233500	0,5	2,499600
16,241833	0,5	2,489450
16,250167	0,5	2,480050
16,258500	0,5	2,479350
16,266833	0,5	2,460350
16,275167	0,5	2,445400
16,283500	0,5	2,443850
16,291833	0,5	2,436600
16,300167	0,5	2,423300
16,308500	0,5	2,403050
16,316833	0,5	2,377550
16,325167	0,5	2,372250
16,333500	0,5	2,364550
16,341833	0,5	2,365500
16,350167	0,5	2,357150
16,358500	0,5	2,353350
16,366833	0,5	2,347750
16,375167	0,5	2,348200
16,383500	0,5	2,345150
16,391833	0,5	2,341550
16,400167	0,5	2,340600
16,408500	0,5	2,336850
16,416833	0,5	2,321500
16,425167	0,5	2,319750
16,433500	0,5	2,328800
16,441833	0,5	2,322100
16,450167	0,5	2,316350
16,458500	0,5	2,293100
16,466833	0,5	2,293350
16,475167	0,5	2,289850
16,483500	0,5	2,286900
16,491833	0,5	2,273350
16,500167	0,5	2,271750
16,508500	0,5	2,253300
16,516833	0,5	2,249550
16,525167	0,5	2,239100
16,533500	0,5	2,233550
16,541833	0,5	2,227500
16,550167	0,5	2,223500
16,558500	0,5	2,222900
16,566833	0,5	2,203750
16,575167	0,5	2,213750
16,583500	0,5	2,210100
16,591833	0,5	2,198750
16,600167	0,5	2,190000
16,608500	0,5	2,159450
16,616833	0,5	2,151850
16,625167	0,5	2,145600
16,633500	0,5	2,127700
16,641833	0,5	2,116700
16,650167	0,5	2,107300
16,658500	0,5	2,102200
16,666833	0,5	2,091700
16,675167	0,5	2,094350
16,683500	0,5	2,082100
16,691833	0,5	2,079250
16,700167	0,5	2,073750
16,708500	0,5	2,068350
16,716833	0,5	2,046200
16,725167	0,5	2,054100
16,733500	0,5	2,038550
16,741833	0,5	2,024750
16,750167	0,5	2,001600
16,758500	0,5	1,977050
16,766833	0,5	1,975450
16,775167	0,5	1,958750
16,783500	0,5	1,944250
16,791833	0,5	1,927850
16,800167	0,5	1,918350
16,808500	0,5	1,903500
16,816833	0,5	1,894950
16,825167	0,5	1,879100
16,833500	0,5	1,868750
16,841833	0,5	1,855550
16,850167	0,5	1,857000
16,858500	0,5	1,835100
16,866833	0,5	1,830800
16,875167	0,5	1,827150
16,883500	0,5	1,820100
16,891833	0,5	1,803750
16,900167	0,5	1,780850
16,908500	0,5	1,773500
16,916833	0,5	1,777650
16,925167	0,5	1,775500
16,933500	0,5	1,772650
16,941833	0,5	1,772350
16,950167	0,5	1,773650
16,958500	0,5	1,782600
16,966833	0,5	1,793000
16,975167	0,5	1,810900
16,983500	0,5	1,819050
16,991833	0,5	1,838050
17,000167	0,5	1,848950
17,008500	0,5	1,834600
17,016833	0,5	1,839650
17,025167	0,5	1,827000
17,033500	0,5	1,809350
17,041833	0,5	1,781600
17,050167	0,5	1,746500
17,058500	0,5	1,729550
17,066833	0,5	1,710700
17,075167	0,5	1,705600
17,083500	0,5	1,686500
17,091833	0,5	1,679500
17,100167	0,5	1,676800
17,108500	0,5	1,675550
17,116833	0,5	1,682050
17,125167	0,5	1,681800
17,133500	0,5	1,690950
17,141833	0,5	1,702050
17,150167	0,5	1,713500
17,158500	0,5	1,712050
17,166833	0,5	1,734800
17,175167	0,5	1,735500
17,183500	0,5	1,731500
17,191833	0,5	1,708100
17,200167	0,5	1,688700
17,208500	0,5	1,673950
17,216833	0,5	1,663300
17,225167	0,5	1,640950
17,233500	0,5	1,627200
17,241833	0,5	1,609450
17,250167	0,5	1,593450
17,258500	0,5	1,581600
17,266833	0,5	1,576950
17,275167	0,5	1,572200
17,283500	0,5	1,569950
17,291833	0,5	1,577700
17,300167	0,5	1,560100
17,308500	0,5	1,553500
17,316833	0,5	1,551100
17,325167	0,5	1,529400
17,333500	0,5	1,507900
17,341833	0,5	1,479650
17,350167	0,5	1,458000
17,358500	0,5	1,456250
17,366833	0,5	1,445650
17,375167	0,5	1,442300
17,383500	0,5	1,434900
17,391833	0,5	1,438550
17,400167	0,5	1,435000
17,408500	0,5	1,438550
17,416833	0,5	1,435350
17,425167	0,5	1,429700
17,433500	0,5	1,437000
17,441833	0,5	1,431350
17,450167	0,5	1,403300
17,458500	0,5	1,408950
17,466833	0,5	1,407800
17,475167	0,5	1,397850
17,483500	0,5	1,387500
17,491833	0,5	1,361000
17,500167	0,5	1,368850
17,508500	0,5	1,362350
17,516833	0,5	1,367800
17,525167	0,5	1,361650
17,533500	0,5	1,367400
17,541833	0,5	1,362000
17,550167	0,5	1,371450
17,558500	0,5	1,368750
17,566833	0,5	1,373350
17,575167	0,5	1,374500
17,583500	0,5	1,391050
17,591833	0,5	1,392000
17,600167	0,5	1,397800
17,608500	0,5	1,421400
17,616833	0,5	1,432150
17,625167	0,5	1,437600
17,633500	0,5	1,438450
17,641833	0,5	1,438450
17,650167	0,5	1,450750
17,658500	0,5	1,461400
17,666833	0,5	1,462450
17,675167	0,5	1,469050
17,683500	0,5	1,467850
17,691833	0,5	1,474400
17,700167	0,5	1,470200
17,708500	0,5	1,476150
17,716833	0,5	1,470250
17,725167	0,5	1,467350
17,733500	0,5	1,465500
17,741833	0,5	1,453350
17,750167	0,5	1,456800
17,758500	0,5	1,459150
17,766833	0,5	1,457400
17,775167	0,5	1,445000
17,783500	0,5	1,427950
17,791833	0,5	1,417750
17,800167	0,5	1,427350
17,808500	0,5	1,417100
17,816833	0,5	1,414650
17,825167	0,5	1,406400
17,833500	0,5	1,408750
17,841833	0,5	1,402100
17,850167	0,5	1,402250
17,858500	0,5	1,399650
17,866833	0,5	1,399200
17,875167	0,5	1,404000
17,883500	0,5	1,428050
17,891833	0,5	1,425750
17,900167	0,5	1,471050
17,908500	0,5	1,499700
17,916833	0,5	1,535450
17,925167	0,5	1,549850
17,933500	0,5	1,536450
17,941833	0,5	1,534300
17,950167	0,5	1,512200
17,958500	0,5	1,471500
17,966833	0,5	1,424850
17,975167	0,5	1,378700
17,983500	0,5	1,336300
17,991833	0,5	1,303400
18,000167	0,5	1,272100
18,008500	0,5	1,256000
18,016833	0,5	1,236500
18,025167	0,5	1,232200
18,033500	0,5	1,216400
18,041833	0,5	1,196550
18,050167	0,5	1,199600
18,058500	0,5	1,191200
18,066833	0,5	1,180600
18,075167	0,5	1,162950
18,083500	0,5	1,137900
18,091833	0,5	1,135050
18,100167	0,5	1,125050
18,108500	0,5	1,117450
18,116833	0,5	1,106850
18,125167	0,5	1,098250
18,133500	0,5	1,086350
18,141833	0,5	1,075750
18,150167	0,5	1,067800
18,158500	0,5	1,052950
18,166833	0,5	1,049950
18,175167	0,5	1,038050
18,183500	0,5	1,023450
18,191833	0,5	1,012450
18,200167	0,5	1,011350
18,208500	0,5	0,996750
18,216833	0,5	0,981150
18,225167	0,5	0,950750
18,233500	0,5	0,934200
18,241833	0,5	0,926850
18,250167	0,5	0,922950
18,258500	0,5	0,917600
18,266833	0,5	0,910900
18,275167	0,5	0,902150
18,283500	0,5	0,897800
18,291833	0,5	0,891950
18,300167	0,5	0,880700
18,308500	0,5	0,877550
18,316833	0,5	0,868150
18,325167	0,5	0,859650
18,333500	0,5	0,838850
18,341833	0,5	0,841250
18,350167	0,5	0,832700
18,358500	0,5	0,815450
18,366833	0,5	0,795100
18,375167	0,5	0,776400
18,383500	0,5	0,760250
18,391833	0,5	0,755950
18,400167	0,5	0,738900
18,408500	0,5	0,733850
18,416833	0,5	0,716650
18,425167	0,5	0,711000
18,433500	0,5	0,700950
18,441833	0,5	0,693550
18,450167	0,5	0,681550
18,458500	0,5	0,671400
18,466833	0,5	0,673350
18,475167	0,5	0,651650
18,483500	0,5	0,639000
18,491833	0,5	0,636950
18,500167	0,5	0,631500
18,508500	0,5	0,612150
18,516833	0,5	0,586900
18,525167	0,5	0,569850
18,533500	0,5	0,570050
18,541833	0,5	0,553800
18,550167	0,5	0,551200
18,558500	0,5	0,535500
18,566833	0,5	0,528950
18,575167	0,5	0,518600
18,583500	0,5	0,511450
18,591833	0,5	0,497250
18,600167	0,5	0,483400
18,608500	0,5	0,477800
18,616833	0,5	0,477400
18,625167	0,5	0,447150
18,633500	0,5	0,450600
18,641833	0,5	0,445600
18,650167	0,5	0,434750
18,658500	0,5	0,420300
18,666833	0,5	0,385000
18,675167	0,5	0,387000
18,683500	0,5	0,378450
18,691833	0,5	0,373100
18,700167	0,5	0,356400
18,708500	0,5	0,353050
18,716833	0,5	0,342750
18,725167	0,5	0,341500
18,733500	0,5	0,331950
18,741833	0,5	0,328100
18,750167	0,5	0,320000
18,758500	0,5	0,315000
18,766833	0,5	0,315500
18,775167	0,5	0,295750
18,783500	0,5	0,303250
18,791833	0,5	0,301850
18,800167	0,5	0,293400
18,808500	0,5	0,282700
18,816833	0,5	0,260450
18,825167	0,5	0,263650
18,833500	0,5	0,273650
18,841833	0,5	0,266650
18,850167	0,5	0,270800
18,858500	0,5	0,265750
18,866833	0,5	0,275950
18,875167	0,5	0,272750
18,883500	0,5	0,276300
18,891833	0,5	0,266600
18,900167	0,5	0,264050
18,908500	0,5	0,272700
18,916833	0,5	0,276400
18,925167	0,5	0,269000
18,933500	0,5	0,282750
18,941833	0,5	0,286500
18,950167	0,5	0,286500
18,958500	0,5	0,280050
18,966833	0,5	0,269600
18,975167	0,5	0,288900
18,983500	0,5	0,291150
18,991833	0,5	0,297050
19,000167	0,5	0,295500
19,008500	0,5	0,298250
19,016833	0,5	0,293050
19,025167	0,5	0,298100
19,033500	0,5	0,287350
19,041833	0,5	0,283950
19,050167	0,5	0,287250
19,058500	0,5	0,287400
19,066833	0,5	0,266800
19,075167	0,5	0,259850
19,083500	0,5	0,247950
19,091833	0,5	0,233150
19,100167	0,5	0,206600
19,108500	0,5	0,183150
19,116833	0,5	0,164900
19,125167	0,5	0,152350
19,133500	0,5	0,137400
19,141833	0,5	0,118950
19,150167	0,5	0,109750
19,158500	0,5	0,093250
19,166833	0,5	0,084700
19,175167	0,5	0,067950
19,183500	0,5	0,055800
19,191833	0,5	0,039700
19,200167	0,5	0,042900
19,208500	0,5	0,024450
19,216833	0,5	0,009650
19,225167	0,5	0,000550
19,233500	0,5	-0,008950
19,241833	0,5	-0,026000
19,250167	0,5	-0,048850
19,258500	0,5	-0,078250
19,266833	0,5	-0,089950
19,275167	0,5	-0,097150
19,283500	0,5	-0,099950
19,291833	0,5	-0,106850
19,300167	0,5	-0,116950
19,308500	0,5	-0,120150
19,316833	0,5	-0,128600
19,325167	0,5	-0,129750
19,333500	0,5	-0,143700
19,341833	0,5	-0,140600
19,350167	0,5	-0,140750
19,358500	0,5	-0,143650
19,366833	0,5	-0,147150
19,375167	0,5	-0,136750
19,383500	0,5	-0,138150
19,391833	0,5	-0,138400
19,400167	0,5	-0,162200
19,408500	0,5	-0,168050
19,416833	0,5	-0,171450
19,425167	0,5	-0,181100
19,433500	0,5	-0,194900
19,441833	0,5	-0,210450
19,450167	0,5	-0,223050
19,458500	0,5	-0,239800
19,466833	0,5	-0,254150
19,475167	0,5	-0,272750
19,483500	0,5	-0,281500
19,491833	0,5	-0,292000
19,500167	0,5	-0,293650
19,508500	0,5	-0,327950
19,516833	0,5	-0,325800
19,525167	0,5	-0,332550
19,533500	0,5	-0,341800
19,541833	0,5	-0,360150
19,550167	0,5	-0,381650
19,558500	0,5	-0,390100
19,566833	0,5	-0,385900
19,575167	0,5	-0,401800
19,583500	0,5	-0,407400
19,591833	0,5	-0,413600
19,600167	0,5	-0,418050
19,608500	0,5	-0,427150
19,616833	0,5	-0,436250
19,625167	0,5	-0,443550
19,633500	0,5	-0,454050
19,641833	0,5	-0,436500
19,650167	0,5	-0,445100
19,658500	0,5	-0,466100
19,666833	0,5	-0,463900
19,675167	0,5	-0,462750
19,683500	0,5	-0,483200
19,691833	0,5	-0,497800
19,700167	0,5	-0,524050
19,708500	0,5	-0,519200
19,716833	0,5	-0,534150
19,725167	0,5	-0,537150
19,733500	0,5	-0,552900
19,741833	0,5	-0,556700
19,750167	0,5	-0,569750
19,758500	0,5	-0,568750
19,766833	0,5	-0,572100
19,775167	0,5	-0,579850
19,783500	0,5	-0,576350
19,791833	0,5	-0,573550
19,800167	0,5	-0,590700
19,808500	0,5	-0,600250
19,816833	0,5	-0,603750
19,825167	0,5	-0,613500
19,833500	0,5	-0,625700
19,841833	0,5	-0,653050
19,850167	0,5	-0,660600
19,858500	0,5	-0,659500
19,866833	0,5	-0,660050
19,875167	0,5	-0,670050
19,883500	0,5	-0,667650
19,891833	0,5	-0,671350
19,900167	0,5	-0,677500
19,908500	0,5	-0,683800
19,916833	0,5	-0,688400
19,925167	0,5	-0,694600
19,933500	0,5	-0,691800
19,941833	0,5	-0,693850
19,950167	0,5	-0,712900
19,958500	0,5	-0,712100
19,966833	0,5	-0,713850
19,975167	0,5	-0,724950
19,983500	0,5	-0,743050
19,991833	0,5	-0,765900
20,000167	0,5	-0,774050
20,008500	0,5	-0,766550
20,016833	0,5	-0,777350
20,025167	0,5	-0,776300
20,033500	0,5	-0,786200
20,041833	0,5	-0,784400
20,050167	0,5	-0,795400
20,058500	0,5	-0,791600
20,066833	0,5	-0,797500
20,075167	0,5	-0,797250
20,083500	0,5	-0,787600
20,091833	0,5	-0,793550
20,100167	0,5	-0,808050
20,108500	0,5	-0,806200
20,116833	0,5	-0,811150
20,125167	0,5	-0,820850
20,133500	0,5	-0,835000
20,141833	0,5	-0,851750
20,150167	0,5	-0,839150
20,158500	0,5	-0,841150
20,166833	0,5	-0,836000
20,175167	0,5	-0,847000
20,183500	0,5	-0,848600
20,191833	0,5	-0,862200
20,200167	0,5	-0,868600
20,208500	0,5	-0,884250
20,216833	0,5	-0,891400
20,225167	0,5	-0,894800
20,233500	0,5	-0,893800
20,241833	0,5	-0,915850
20,250167	0,5	-0,911650
20,258500	0,5	-0,906750
20,266833	0,5	-0,915600
20,275167	0,5	-0,925800
20,283500	0,5	-0,954300
20,291833	0,5	-0,954000
20,300167	0,5	-0,964950
20,308500	0,5	-0,962850
20,316833	0,5	-0,972000
20,325167	0,5	-0,971900
20,333500	0,5	-0,975550
20,341833	0,5	-0,972800
20,350167	0,5	-0,974250
20,358500	0,5	-0,972100
20,366833	0,5	-0,973600
20,375167	0,5	-0,955750
20,383500	0,5	-0,959500
20,391833	0,5	-0,967000
20,400167	0,5	-0,964350
20,408500	0,5	-0,964650
20,416833	0,5	-0,973650
20,425167	0,5	-0,987350
20,433500	0,5	-0,996000
20,441833	0,5	-0,993050
20,450167	0,5	-0,987650
20,458500	0,5	-0,985400
20,466833	0,5	-0,982250
20,475167	0,5	-0,969250
20,483500	0,5	-0,941850
20,491833	0,5	-0,913800
20,500167	0,5	-0,885700
20,508500	0,5	-0,876400
20,516833	0,5	-0,871850
20,525167	0,5	-0,867100
20,533500	0,5	-0,873750
20,541833	0,5	-0,872300
20,550167	0,5	-0,848850
20,558500	0,5	-0,825450
20,566833	0,5	-0,816850
20,575167	0,5	-0,838200
20,583500	0,5	-0,861850
20,591833	0,5	-0,877550
20,600167	0,5	-0,908600
20,608500	0,5	-0,926450
20,616833	0,5	-0,931800
20,625167	0,5	-0,922850
20,633500	0,5	-0,912400
20,641833	0,5	-0,888150
20,650167	0,5	-0,873150
20,658500	0,5	-0,855250
20,666833	0,5	-0,822500
20,675167	0,5	-0,801800
20,683500	0,5	-0,804150
20,691833	0,5	-0,785250
20,700167	0,5	-0,769250
20,708500	0,5	-0,743500
20,716833	0,5	-0,714500
20,725167	0,5	-0,701850
20,733500	0,5	-0,668950
20,741833	0,5	-0,678450
20,750167	0,5	-0,714950
20,758500	0,5	-0,767950
20,766833	0,5	-0,808650
20,775167	0,5	-0,855500
20,783500	0,5	-0,885450
20,791833	0,5	-0,907150
20,800167	0,5	-0,921800
20,808500	0,5	-0,931750
20,816833	0,5	-0,917700
20,825167	0,5	-0,922050
20,833500	0,5	-0,940250
20,841833	0,5	-0,952550
20,850167	0,5	-0,969800
20,858500	0,5	-0,993850
20,866833	0,5	-1,012200
20,875167	0,5	-1,032750
20,883500	0,5	-1,032600
20,891833	0,5	-1,042550
20,900167	0,5	-1,045500
20,908500	0,5	-1,045900
20,916833	0,5	-1,041450
20,925167	0,5	-1,036700
20,933500	0,5	-1,036350
20,941833	0,5	-1,031650
20,950167	0,5	-1,035800
20,958500	0,5	-1,014350
20,966833	0,5	-1,000950
20,975167	0,5	-1,005150
20,983500	0,5	-1,012200
20,991833	0,5	-1,017450
21,000167	0,5	-1,031500
21,008500	0,5	-1,044900
21,016833	0,5	-1,062300
21,025167	0,5	-1,065600
21,033500	0,5	-1,063800
21,041833	0,5	-1,065350
21,050167	0,5	-1,064800
21,058500	0,5	-1,063050
21,066833	0,5	-1,065550
21,075167	0,5	-1,065750
21,083500	0,5	-1,062800
21,091833	0,5	-1,063750
21,100167	0,5	-1,055700
21,108500	0,5	-1,027250
21,116833	0,5	-1,008350
21,125167	0,5	-1,012200
21,133500	0,5	-1,008350
21,141833	0,5	-1,012600
21,150167	0,5	-1,017500
21,158500	0,5	-1,038600
21,166833	0,5	-1,047350
21,175167	0,5	-1,042300
21,183500	0,5	-1,036350
21,191833	0,5	-1,037800
21,200167	0,5	-1,031050
21,208500	0,5	-1,022050
21,216833	0,5	-1,015900
21,225167	0,5	-1,007350
21,233500	0,5	-1,003000
21,241833	0,5	-0,984300
21,250167	0,5	-0,951650
21,258500	0,5	-0,895600
21,266833	0,5	-0,850350
21,275167	0,5	-0,822950
21,283500	0,5	-0,809250
21,291833	0,5	-0,826450
21,300167	0,5	-0,857950
21,308500	0,5	-0,902550
21,316833	0,5	-0,923250
21,325167	0,5	-0,935750
21,333500	0,5	-0,936000
21,341833	0,5	-0,941200
21,350167	0,5	-0,941600
21,358500	0,5	-0,941400
21,366833	0,5	-0,934500
21,375167	0,5	-0,926650
21,383500	0,5	-0,913900
21,391833	0,5	-0,907050
21,400167	0,5	-0,867100
21,408500	0,5	-0,837350
21,416833	0,5	-0,834550
21,425167	0,5	-0,829850
21,433500	0,5	-0,828000
21,441833	0,5	-0,838650
21,450167	0,5	-0,846600
21,458500	0,5	-0,861150
21,466833	0,5	-0,850800
21,475167	0,5	-0,844650
21,483500	0,5	-0,829950
21,491833	0,5	-0,821100
21,500167	0,5	-0,806500
21,508500	0,5	-0,794050
21,516833	0,5	-0,781850
21,525167	0,5	-0,769950
21,533500	0,5	-0,768800
21,541833	0,5	-0,751950
21,550167	0,5	-0,728800
21,558500	0,5	-0,711550
21,566833	0,5	-0,709650
21,575167	0,5	-0,693450
21,583500	0,5	-0,671950
21,591833	0,5	-0,624350
21,600167	0,5	-0,570900
21,608500	0,5	-0,488000
21,616833	0,5	-0,437150
21,625167	0,5	-0,424850
21,633500	0,5	-0,435950
21,641833	0,5	-0,441900
21,650167	0,5	-0,456750
21,658500	0,5	-0,470800
21,666833	0,5	-0,483950
21,675167	0,5	-0,503000
21,683500	0,5	-0,517100
21,691833	0,5	-0,507100
21,700167	0,5	-0,493700
21,708500	0,5	-0,503750
21,716833	0,5	-0,498000
21,725167	0,5	-0,504000
21,733500	0,5	-0,498300
21,741833	0,5	-0,507750
21,750167	0,5	-0,517750
21,758500	0,5	-0,496200
21,766833	0,5	-0,486500
21,775167	0,5	-0,469850
21,783500	0,5	-0,454000
21,791833	0,5	-0,436600
21,800167	0,5	-0,412600
21,808500	0,5	-0,387550
21,816833	0,5	-0,361000
21,825167	0,5	-0,326950
21,833500	0,5	-0,295050
21,841833	0,5	-0,243000
21,850167	0,5	-0,204800
21,858500	0,5	-0,171300
21,866833	0,5	-0,111650
21,875167	0,5	-0,021600
21,883500	0,5	0,096900
21,891833	0,5	0,222200
21,900167	0,5	0,305450
21,908500	0,5	0,326200
21,916833	0,5	0,269550
21,925167	0,5	0,194250
21,933500	0,5	0,117900
21,941833	0,5	0,069150
21,950167	0,5	0,041750
21,958500	0,5	0,029900
21,966833	0,5	0,034250
21,975167	0,5	0,036300
21,983500	0,5	0,068500
21,991833	0,5	0,093650
22,000167	0,5	0,106850
22,008500	0,5	0,131150
22,016833	0,5	0,152100
22,025167	0,5	0,164700
22,033500	0,5	0,173600
22,041833	0,5	0,186750
22,050167	0,5	0,212950
22,058500	0,5	0,241500
22,066833	0,5	0,272050
22,075167	0,5	0,298600
22,083500	0,5	0,332650
22,091833	0,5	0,365600
22,100167	0,5	0,397050
22,108500	0,5	0,429650
22,116833	0,5	0,465350
22,125167	0,5	0,507450
22,133500	0,5	0,560650
22,141833	0,5	0,600500
22,150167	0,5	0,644650
22,158500	0,5	0,703850
22,166833	0,5	0,755500
22,175167	0,5	0,804850
22,183500	0,5	0,860650
22,191833	0,5	0,936800
22,200167	0,5	1,039450
22,208500	0,5	1,169250
22,216833	0,5	1,321250
22,225167	0,5	1,518650
22,233500	0,5	1,742700
22,241833	0,5	1,988400
22,250167	0,5	2,240250
22,258500	0,5	2,458800
22,266833	0,5	2,638800
22,275167	0,5	2,763750
22,283500	0,5	2,850750
22,291833	0,5	2,881100
22,300167	0,5	2,937550
22,308500	0,5	3,001150
22,316833	0,5	3,086950
22,325167	0,5	3,124850
22,333500	0,5	3,085500
22,341833	0,5	2,987900
22,350167	0,5	2,859500
22,358500	0,5	2,738750
22,366833	0,5	2,658900
22,375167	0,5	2,608900
22,383500	0,5	2,585200
22,391833	0,5	2,580200
22,400167	0,5	2,586850
22,408500	0,5	2,605050
22,416833	0,5	2,623050
22,425167	0,5	2,642250
22,433500	0,5	2,672300
22,441833	0,5	2,740950
22,450167	0,5	2,797450
22,458500	0,5	2,854400
22,466833	0,5	2,903850
22,475167	0,5	2,955100
22,483500	0,5	3,007650
22,491833	0,5	3,077450
22,500167	0,5	3,120400
22,508500	0,5	3,187800
22,516833	0,5	3,245600
22,525167	0,5	3,315750
22,533500	0,5	3,378900
22,541833	0,5	3,454250
22,550167	0,5	3,531400
22,558500	0,5	3,601350
22,566833	0,5	3,664850
22,575167	0,5	3,728650
22,583500	0,5	3,810700
22,591833	0,5	3,912200
22,600167	0,5	3,991050
22,608500	0,5	4,053300
22,616833	0,5	4,112950
22,625167	0,5	4,146550
22,633500	0,5	4,211900
22,641833	0,5	4,261100
22,650167	0,5	4,312450
22,658500	0,5	4,355200
22,666833	0,5	4,395300
22,675167	0,5	4,425500
22,683500	0,5	4,453700
22,691833	0,5	4,472300
22,700167	0,5	4,479900
22,708500	0,5	4,483150
22,716833	0,5	4,425450
22,725167	0,5	4,442450
22,733500	0,5	4,428450
22,741833	0,5	4,417850
22,750167	0,5	4,366250
22,758500	0,5	4,299700
22,766833	0,5	4,212700
22,775167	0,5	4,113150
22,783500	0,5	4,017750
22,791833	0,5	3,914800
22,800167	0,5	3,797300
22,808500	0,5	3,683650
22,816833	0,5	3,563600
22,825167	0,5	3,440900
22,833500	0,5	3,313200
22,841833	0,5	3,171950
22,850167	0,5	3,025450
22,858500	0,5	2,847800
22,866833	0,5	2,650500
22,875167	0,5	2,502050
22,883500	0,5	2,349200
22,891833	0,5	2,171550
22,900167	0,5	1,985950
22,908500	0,5	1,803650
22,916833	0,5	1,621700
22,925167	0,5	1,436800
22,933500	0,5	1,251950
22,941833	0,5	1,084850
22,950167	0,5	0,903800
22,958500	0,5	0,742100
22,966833	0,5	0,573600
22,975167	0,5	0,414000
22,983500	0,5	0,252550
22,991833	0,5	0,097250
23,000167	0,5	-0,059600
23,008500	0,5	-0,193450
23,016833	0,5	-0,348100
23,025167	0,5	-0,495100
23,033500	0,5	-0,668600
23,041833	0,5	-0,804900
23,050167	0,5	-0,923850
23,058500	0,5	-1,038150
23,066833	0,5	-1,142200
23,075167	0,5	-1,256800
23,083500	0,5	-1,350550
23,091833	0,5	-1,444450
23,100167	0,5	-1,523200
23,108500	0,5	-1,604150
23,116833	0,5	-1,670300
23,125167	0,5	-1,744000
23,133500	0,5	-1,812250
23,141833	0,5	-1,874700
23,150167	0,5	-1,923200
23,158500	0,5	-1,981750
23,166833	0,5	-2,021950
23,175167	0,5	-2,097250
23,183500	0,5	-2,169400
23,191833	0,5	-2,204400
23,200167	0,5	-2,243100
23,208500	0,5	-2,256350
23,216833	0,5	-2,279800
23,225167	0,5	-2,293150
23,233500	0,5	-2,308300
23,241833	0,5	-2,305150
23,250167	0,5	-2,310200
23,258500	0,5	-2,298200
23,266833	0,5	-2,294150
23,275167	0,5	-2,285850
23,283500	0,5	-2,283900
23,291833	0,5	-2,277550
23,300167	0,5	-2,251450
23,308500	0,5	-2,269450
23,316833	0,5	-2,235700
23,325167	0,5	-2,239850
23,333500	0,5	-2,260050
23,341833	0,5	-2,251650
23,350167	0,5	-2,238200
23,358500	0,5	-2,210400
23,366833	0,5	-2,192500
23,375167	0,5	-2,175900
23,383500	0,5	-2,144850
23,391833	0,5	-2,116250
23,400167	0,5	-2,080000
23,408500	0,5	-2,049450
23,416833	0,5	-2,012500
23,425167	0,5	-1,982300
23,433500	0,5	-1,943100
23,441833	0,5	-1,914950
23,450167	0,5	-1,941050
23,458500	0,5	-1,879600
23,466833	0,5	-1,829500
23,475167	0,5	-1,800250
23,483500	0,5	-1,799600
23,491833	0,5	-1,782250
23,500167	0,5	-1,761550
23,508500	0,5	-1,738700
23,516833	0,5	-1,723850
23,525167	0,5	-1,701900
23,533500	0,5	-1,682550
23,541833	0,5	-1,656850
23,550167	0,5	-1,630850
23,558500	0,5	-1,606200
23,566833	0,5	-1,582700
23,575167	0,5	-1,562550
23,583500	0,5	-1,539600
23,591833	0,5	-1,534050
23,600167	0,5	-1,591000
23,608500	0,5	-1,547150
23,616833	0,5	-1,471350
23,625167	0,5	-1,444850
23,633500	0,5	-1,437150
23,641833	0,5	-1,425300
23,650167	0,5	-1,414300
23,658500	0,5	-1,402250
23,666833	0,5	-1,391450
23,675167	0,5	-1,379300
23,683500	0,5	-1,370500
23,691833	0,5	-1,356150
23,700167	0,5	-1,344750
23,708500	0,5	-1,335500
23,716833	0,5	-1,325650
23,725167	0,5	-1,322050
23,733500	0,5	-1,315900
23,741833	0,5	-1,425800
23,750167	0,5	-1,429950
23,758500	0,5	-1,385550
23,766833	0,5	-1,331050
23,775167	0,5	-1,305550
23,783500	0,5	-1,302950
23,791833	0,5	-1,301550
23,800167	0,5	-1,307050
23,808500	0,5	-1,296700
23,816833	0,5	-1,286800
23,825167	0,5	-1,275350
23,833500	0,5	-1,263550
23,841833	0,5	-1,251300
23,850167	0,5	-1,239550
23,858500	0,5	-1,227250
23,866833	0,5	-1,211150
23,875167	0,5	-1,203700
23,883500	0,5	-1,197950
23,891833	0,5	-1,354950
23,900167	0,5	-1,292750
23,908500	0,5	-1,265450
23,916833	0,5	-1,203900
23,925167	0,5	-1,192000
23,933500	0,5	-1,186250
23,941833	0,5	-1,190600
23,950167	0,5	-1,199900
23,958500	0,5	-1,192600
23,966833	0,5	-1,180950
23,975167	0,5	-1,173850
23,983500	0,5	-1,163700
23,991833	0,5	-1,155250
24,000167	0,5	-1,140950
24,008500	0,5	-1,127200
24,016833	0,5	-1,113850
24,025167	0,5	-1,103200
24,033500	0,5	-1,148900
24,041833	0,5	-1,230700
24,050167	0,5	-1,189800
24,058500	0,5	-1,132700
24,066833	0,5	-1,075950
24,075167	0,5	-1,055900
24,083500	0,5	-1,042250
24,091833	0,5	-1,038700
24,100167	0,5	-1,041600
24,108500	0,5	-1,018800
24,116833	0,5	-1,011600
24,125167	0,5	-0,989500
24,133500	0,5	-0,979800
24,141833	0,5	-0,958550
24,150167	0,5	-0,945250
24,158500	0,5	-0,927750
24,166833	0,5	-0,918350
24,175167	0,5	-0,908950
24,183500	0,5	-0,994350
24,191833	0,5	-1,006100
24,200167	0,5	-0,974400
24,208500	0,5	-0,920000
24,216833	0,5	-0,886750
24,225167	0,5	-0,873050
24,233500	0,5	-0,866050
24,241833	0,5	-0,872500
24,250167	0,5	-0,857200
24,258500	0,5	-0,841350
24,266833	0,5	-0,820100
24,275167	0,5	-0,809550
24,283500	0,5	-0,782850
24,291833	0,5	-0,768350
24,300167	0,5	-0,743350
24,308500	0,5	-0,731600
24,316833	0,5	-0,709250
24,325167	0,5	-0,702500
24,333500	0,5	-0,788650
24,341833	0,5	-0,760650
24,350167	0,5	-0,725050
24,358500	0,5	-0,679950
24,366833	0,5	-0,650150
24,375167	0,5	-0,642200
24,383500	0,5	-0,634200
24,391833	0,5	-0,641000
24,400167	0,5	-0,630250
24,408500	0,5	-0,616150
24,416833	0,5	-0,608450
24,425167	0,5	-0,593500
24,433500	0,5	-0,584100
24,441833	0,5	-0,569550
24,450167	0,5	-0,559150
24,458500	0,5	-0,543350
24,466833	0,5	-0,536800
24,475167	0,5	-0,557900
24,483500	0,5	-0,595700
24,491833	0,5	-0,564300
24,500167	0,5	-0,536050
24,508500	0,5	-0,494550
24,516833	0,5	-0,476150
24,525167	0,5	-0,463950
24,533500	0,5	-0,464900
24,541833	0,5	-0,460150
24,550167	0,5	-0,440400
24,558500	0,5	-0,428900
24,566833	0,5	-0,414400
24,575167	0,5	-0,406600
24,583500	0,5	-0,390250
24,591833	0,5	-0,383450
24,600167	0,5	-0,372450
24,608500	0,5	-0,365050
24,616833	0,5	-0,352550
24,625167	0,5	-0,406800
24,633500	0,5	-0,395000
24,641833	0,5	-0,385650
24,650167	0,5	-0,355150
24,658500	0,5	-0,337450
24,666833	0,5	-0,327650
24,675167	0,5	-0,327700
24,683500	0,5	-0,327400
24,691833	0,5	-0,325750
24,700167	0,5	-0,309550
24,708500	0,5	-0,302050
24,716833	0,5	-0,294000
24,725167	0,5	-0,281950
24,733500	0,5	-0,271600
24,741833	0,5	-0,256750
24,750167	0,5	-0,245400
24,758500	0,5	-0,233700
24,766833	0,5	-0,232250
24,775167	0,5	-0,267250
24,783500	0,5	-0,246950
24,791833	0,5	-0,234450
24,800167	0,5	-0,212150
24,808500	0,5	-0,195650
24,816833	0,5	-0,193600
24,825167	0,5	-0,191800
24,833500	0,5	-0,199000
24,841833	0,5	-0,190550
24,850167	0,5	-0,186050
24,858500	0,5	-0,174350
24,866833	0,5	-0,170550
24,875167	0,5	-0,163350
24,883500	0,5	-0,160500
24,891833	0,5	-0,154600
24,900167	0,5	-0,143600
24,908500	0,5	-0,140350
24,916833	0,5	-0,139950
24,925167	0,5	-0,158350
24,933500	0,5	-0,141550
24,941833	0,5	-0,131400
24,950167	0,5	-0,112150
24,958500	0,5	-0,104050
24,966833	0,5	-0,096150
24,975167	0,5	-0,099300
24,983500	0,5	-0,097600
24,991833	0,5	-0,090600
25,000167	0,5	-0,079200
25,008500	0,5	-0,076550
25,016833	0,5	-0,067500
25,025167	0,5	-0,063900
25,033500	0,5	-0,055450
25,041833	0,5	-0,050000
25,050167	0,5	-0,043950
25,058500	0,5	-0,039350
25,066833	0,5	-0,053100
25,075167	0,5	-0,051050
25,083500	0,5	-0,046400
25,091833	0,5	-0,037100
25,100167	0,5	-0,029100
25,108500	0,5	-0,026750
25,116833	0,5	-0,023350
25,125167	0,5	-0,024700
25,133500	0,5	-0,027200
25,141833	0,5	-0,020200
25,150167	0,5	-0,015450
25,158500	0,5	-0,009350
25,166833	0,5	-0,003350
25,175167	0,5	0,003750
25,183500	0,5	0,007850
25,191833	0,5	0,015800
25,200167	0,5	0,020100
25,208500	0,5	0,025800
25,216833	0,5	0,022700
25,225167	0,5	0,029400
25,233500	0,5	0,035500
25,241833	0,5	0,039700
25,250167	0,5	0,044400
25,258500	0,5	0,045700
25,266833	0,5	0,044150
25,275167	0,5	0,041900
25,283500	0,5	0,043950
25,291833	0,5	0,047050
25,300167	0,5	0,046300
25,308500	0,5	0,048700
25,316833	0,5	0,050650
25,325167	0,5	0,049350
25,333500	0,5	0,055700
25,341833	0,5	0,059300
25,350167	0,5	0,063150
25,358500	0,5	0,064350
25,366833	0,5	0,068950
25,375167	0,5	0,071100
25,383500	0,5	0,077200
25,391833	0,5	0,079100
25,400167	0,5	0,082400
25,408500	0,5	0,084550
25,416833	0,5	0,088800
25,425167	0,5	0,089350
25,433500	0,5	0,089900
25,441833	0,5	0,091750
25,450167	0,5	0,094000
25,458500	0,5	0,095700
25,466833	0,5	0,095600
25,475167	0,5	0,095150
25,483500	0,5	0,097500
25,491833	0,5	0,098550
25,500167	0,5	0,100650
25,508500	0,5	0,102000
25,516833	0,5	0,103400
25,525167	0,5	0,106800
25,533500	0,5	0,104950
25,541833	0,5	0,103550
25,550167	0,5	0,103650
25,558500	0,5	0,107500
25,566833	0,5	0,108950
25,575167	0,5	0,113200
25,583500	0,5	0,114000
25,591833	0,5	0,114000
25,600167	0,5	0,114550
25,608500	0,5	0,120450
25,616833	0,5	0,119100
25,625167	0,5	0,122600
25,633500	0,5	0,124100
25,641833	0,5	0,126650
25,650167	0,5	0,126450
25,658500	0,5	0,137350
25,666833	0,5	0,133700
25,675167	0,5	0,137350
25,683500	0,5	0,131000
25,691833	0,5	0,128600
25,700167	0,5	0,129900
25,708500	0,5	0,131800
25,716833	0,5	0,131750
25,725167	0,5	0,133750
25,733500	0,5	0,131750
25,741833	0,5	0,135500
25,750167	0,5	0,135550
25,758500	0,5	0,134600
25,766833	0,5	0,135150
25,775167	0,5	0,136600
25,783500	0,5	0,138050
25,791833	0,5	0,139750
25,800167	0,5	0,146850
25,808500	0,5	0,152200
25,816833	0,5	0,151400
25,825167	0,5	0,156100
25,833500	0,5	0,148100
25,841833	0,5	0,147600
25,850167	0,5	0,149500
25,858500	0,5	0,152200
25,866833	0,5	0,161800
25,875167	0,5	0,158100
25,883500	0,5	0,161400
25,891833	0,5	0,156850
25,900167	0,5	0,159950
25,908500	0,5	0,155950
25,916833	0,5	0,157800
25,925167	0,5	0,154900
25,933500	0,5	0,157050
25,941833	0,5	0,156300
25,950167	0,5	0,158800
25,958500	0,5	0,164300
25,966833	0,5	0,165500
25,975167	0,5	0,165100
25,983500	0,5	0,160300
25,991833	0,5	0,159500
26,000167	0,5	0,163050
