File Path	chrom://chromeleon01/ikbm_chromeleon/2022/ICS-5000/ED1/Esteban/20220612_Cell_7_4_eg.seq/197.smp/ED_1.channel/ED_1.chm
Channel	ED_1

Injection Information:
Data Vault	ikbm_chromeleon
Injection	7_02h-EGS_1
Injection Number	94
Position	GE3
Comment	
Processing Method	Stop sequence after Cell Death
Instrument Method	ICS5000_PA200_FullNative_Ox_26min_ED1
Type	Unknown
Status	Finished
Injection Date	14.06.2022
Injection Time	12:24:13
Injection Volume (µl)	5,0
Dilution Factor	1,0000
Weight	1,0000

Chromatogram Data Information:
Time Min. (min)	0,000333
Time Max. (min)	26,000333
Data Points	3121
Detector	EDet1
Generating Data System	Chromeleon 7.2.9.11323
Exporting Data System	Chromeleon 7.2.9.0
Operator	Instrument Controller
Signal Quantity	
Signal Unit	nC
Signal Min.	-2,509700
Signal Max.	900,174163
Channel	ED_1
Driver Name	DC-5000
Channel Type	Evaluation
Min. Step (s)	0,5
Max. Step (s)	0,5
Average Step (s)	0,5

Signal Parameter Information:
Signal Info	

Chromatogram Data:
Time (min)	Step (s)	Value (nC)
0,000333	n.a.	-0,009050
0,008667	0,5	-0,040500
0,017000	0,5	-0,034700
0,025333	0,5	-0,021500
0,033667	0,5	-0,003550
0,042000	0,5	0,002500
0,050333	0,5	0,003900
0,058667	0,5	-0,006000
0,067000	0,5	-0,004350
0,075333	0,5	-0,011500
0,083667	0,5	0,005700
0,092000	0,5	-0,013850
0,100333	0,5	-0,026700
0,108667	0,5	0,005600
0,117000	0,5	-0,023350
0,125333	0,5	-0,033300
0,133667	0,5	-0,026950
0,142000	0,5	-0,018500
0,150333	0,5	0,019850
0,158667	0,5	0,004450
0,167000	0,5	-0,000650
0,175333	0,5	-0,009800
0,183667	0,5	-0,006100
0,192000	0,5	-0,012700
0,200333	0,5	-0,014150
0,208667	0,5	-0,019950
0,217000	0,5	-0,025650
0,225333	0,5	-0,020650
0,233667	0,5	-0,027700
0,242000	0,5	-0,024900
0,250333	0,5	-0,040750
0,258667	0,5	-0,019350
0,267000	0,5	-0,055100
0,275333	0,5	-0,054300
0,283667	0,5	-0,056500
0,292000	0,5	-0,006100
0,300333	0,5	0,047000
0,308667	0,5	0,036850
0,317000	0,5	-0,013750
0,325333	0,5	-0,040450
0,333667	0,5	-0,062000
0,342000	0,5	-0,061250
0,350333	0,5	-0,062450
0,358667	0,5	-0,063900
0,367000	0,5	-0,068050
0,375333	0,5	-0,068650
0,383667	0,5	-0,069650
0,392000	0,5	-0,083450
0,400333	0,5	-0,078450
0,408667	0,5	-0,064050
0,417000	0,5	-0,095900
0,425333	0,5	-0,091250
0,433667	0,5	-0,086400
0,442000	0,5	-0,066600
0,450333	0,5	-0,039900
0,458667	0,5	-0,056500
0,467000	0,5	-0,054350
0,475333	0,5	-0,067500
0,483667	0,5	-0,061100
0,492000	0,5	-0,074750
0,500333	0,5	-0,071100
0,508667	0,5	-0,078350
0,517000	0,5	-0,080950
0,525333	0,5	-0,081100
0,533667	0,5	-0,095850
0,542000	0,5	-0,107650
0,550333	0,5	-0,082750
0,558667	0,5	-0,093700
0,567000	0,5	-0,106450
0,575333	0,5	-0,098250
0,583667	0,5	-0,092450
0,592000	0,5	-0,062600
0,600333	0,5	-0,058350
0,608667	0,5	-0,052100
0,617000	0,5	-0,062500
0,625333	0,5	-0,057050
0,633667	0,5	-0,067850
0,642000	0,5	-0,060600
0,650333	0,5	-0,067800
0,658667	0,5	-0,068600
0,667000	0,5	-0,074700
0,675333	0,5	-0,072750
0,683667	0,5	-0,090900
0,692000	0,5	-0,082150
0,700333	0,5	-0,059800
0,708667	0,5	-0,074100
0,717000	0,5	-0,089450
0,725333	0,5	-0,080550
0,733667	0,5	-0,069250
0,742000	0,5	-0,037000
0,750333	0,5	-0,036400
0,758667	0,5	-0,043200
0,767000	0,5	-0,039500
0,775333	0,5	-0,040600
0,783667	0,5	-0,041750
0,792000	0,5	-0,047550
0,800333	0,5	-0,045500
0,808667	0,5	-0,048950
0,817000	0,5	-0,042500
0,825333	0,5	-0,042100
0,833667	0,5	-0,049400
0,842000	0,5	-0,047300
0,850333	0,5	-0,024000
0,858667	0,5	-0,050300
0,867000	0,5	-0,051150
0,875333	0,5	-0,044400
0,883667	0,5	-0,023550
0,892000	0,5	-0,006450
0,900333	0,5	-0,015950
0,908667	0,5	-0,021350
0,917000	0,5	-0,014450
0,925333	0,5	-0,015000
0,933667	0,5	-0,012100
0,942000	0,5	-0,008200
0,950333	0,5	-0,011100
0,958667	0,5	-0,009350
0,967000	0,5	-0,012800
0,975333	0,5	-0,007650
0,983667	0,5	-0,031200
0,992000	0,5	-0,005200
1,000333	0,5	-0,010600
1,008667	0,5	-0,020900
1,017000	0,5	-0,027350
1,025333	0,5	-0,012100
1,033667	0,5	0,006650
1,042000	0,5	0,017750
1,050333	0,5	0,004050
1,058667	0,5	0,017350
1,067000	0,5	0,012800
1,075333	0,5	0,019900
1,083667	0,5	0,008950
1,092000	0,5	0,015450
1,100333	0,5	0,010300
1,108667	0,5	0,008550
1,117000	0,5	0,014450
1,125333	0,5	-0,002000
1,133667	0,5	-0,011050
1,142000	0,5	0,016600
1,150333	0,5	0,001700
1,158667	0,5	-0,005950
1,167000	0,5	-0,001200
1,175333	0,5	0,009300
1,183667	0,5	0,045900
1,192000	0,5	0,037400
1,200333	0,5	0,035100
1,208667	0,5	0,030650
1,217000	0,5	0,038950
1,225333	0,5	0,030400
1,233667	0,5	0,039450
1,242000	0,5	0,030850
1,250333	0,5	0,033350
1,258667	0,5	0,034750
1,267000	0,5	0,032250
1,275333	0,5	0,024600
1,283667	0,5	0,019950
1,292000	0,5	0,042750
1,300333	0,5	0,020000
1,308667	0,5	0,020400
1,317000	0,5	0,020550
1,325333	0,5	0,038000
1,333667	0,5	0,059800
1,342000	0,5	0,070550
1,350333	0,5	0,058350
1,358667	0,5	0,064900
1,367000	0,5	0,056250
1,375333	0,5	0,063350
1,383667	0,5	0,054750
1,392000	0,5	0,061000
1,400333	0,5	0,049500
1,408667	0,5	0,052650
1,417000	0,5	0,053850
1,425333	0,5	0,056600
1,433667	0,5	0,057850
1,442000	0,5	0,067050
1,450333	0,5	0,040050
1,458667	0,5	0,047000
1,467000	0,5	0,046700
1,475333	0,5	0,069550
1,483667	0,5	0,091100
1,492000	0,5	0,083250
1,500333	0,5	0,084100
1,508667	0,5	0,078050
1,517000	0,5	0,078200
1,525333	0,5	0,068100
1,533667	0,5	0,072800
1,542000	0,5	0,066800
1,550333	0,5	0,085550
1,558667	0,5	0,145500
1,567000	0,5	0,312450
1,575333	0,5	0,573800
1,583667	0,5	1,125650
1,592000	0,5	4,220550
1,600333	0,5	18,313400
1,608667	0,5	67,189451
1,617000	0,5	202,416103
1,625333	0,5	455,404857
1,633667	0,5	738,377211
1,642000	0,5	900,174163
1,650333	0,5	875,271513
1,658667	0,5	712,306661
1,667000	0,5	513,943408
1,675333	0,5	355,494705
1,683667	0,5	249,449354
1,692000	0,5	182,287653
1,700333	0,5	140,345102
1,708667	0,5	114,738852
1,717000	0,5	99,059701
1,725333	0,5	88,024301
1,733667	0,5	78,662301
1,742000	0,5	70,456401
1,750333	0,5	63,450901
1,758667	0,5	57,257351
1,767000	0,5	51,918801
1,775333	0,5	48,455901
1,783667	0,5	47,855801
1,792000	0,5	50,182251
1,800333	0,5	53,996651
1,808667	0,5	57,505001
1,817000	0,5	59,469301
1,825333	0,5	59,267401
1,833667	0,5	56,961701
1,842000	0,5	53,423601
1,850333	0,5	49,742701
1,858667	0,5	46,574401
1,867000	0,5	44,002051
1,875333	0,5	41,750351
1,883667	0,5	39,636551
1,892000	0,5	37,649551
1,900333	0,5	36,041151
1,908667	0,5	34,833101
1,917000	0,5	33,878001
1,925333	0,5	32,948550
1,933667	0,5	31,971300
1,942000	0,5	31,157750
1,950333	0,5	30,799150
1,958667	0,5	30,907900
1,967000	0,5	31,052800
1,975333	0,5	30,690350
1,983667	0,5	29,861450
1,992000	0,5	28,975500
2,000333	0,5	28,362050
2,008667	0,5	28,069900
2,017000	0,5	28,032650
2,025333	0,5	28,425950
2,033667	0,5	29,478000
2,042000	0,5	31,267050
2,050333	0,5	33,337650
2,058667	0,5	35,203701
2,067000	0,5	37,344401
2,075333	0,5	40,665501
2,083667	0,5	44,866701
2,092000	0,5	48,267401
2,100333	0,5	49,057101
2,108667	0,5	46,786551
2,117000	0,5	42,440851
2,125333	0,5	37,697151
2,133667	0,5	33,701501
2,142000	0,5	30,946650
2,150333	0,5	29,537900
2,158667	0,5	29,587700
2,167000	0,5	31,014050
2,175333	0,5	32,876900
2,183667	0,5	33,447450
2,192000	0,5	32,135700
2,200333	0,5	29,812350
2,208667	0,5	27,636550
2,217000	0,5	26,024700
2,225333	0,5	24,826250
2,233667	0,5	23,919600
2,242000	0,5	23,259350
2,250333	0,5	22,779200
2,258667	0,5	22,403100
2,267000	0,5	22,219400
2,275333	0,5	22,243000
2,283667	0,5	22,385550
2,292000	0,5	22,452050
2,300333	0,5	22,526450
2,308667	0,5	22,801700
2,317000	0,5	23,305900
2,325333	0,5	23,636550
2,333667	0,5	23,410250
2,342000	0,5	22,838800
2,350333	0,5	22,353200
2,358667	0,5	22,179850
2,367000	0,5	22,295100
2,375333	0,5	22,533200
2,383667	0,5	22,815700
2,392000	0,5	23,087200
2,400333	0,5	23,259850
2,408667	0,5	23,263900
2,417000	0,5	23,087800
2,425333	0,5	22,826550
2,433667	0,5	22,569150
2,442000	0,5	22,381400
2,450333	0,5	22,230800
2,458667	0,5	22,188000
2,467000	0,5	22,635800
2,475333	0,5	23,815450
2,483667	0,5	23,975000
2,492000	0,5	22,639350
2,500333	0,5	21,296700
2,508667	0,5	20,531750
2,517000	0,5	20,122350
2,525333	0,5	19,850200
2,533667	0,5	19,646250
2,542000	0,5	19,495600
2,550333	0,5	19,371350
2,558667	0,5	19,265200
2,567000	0,5	19,166350
2,575333	0,5	19,079150
2,583667	0,5	18,998050
2,592000	0,5	18,920850
2,600333	0,5	18,845850
2,608667	0,5	18,774500
2,617000	0,5	18,752900
2,625333	0,5	18,727400
2,633667	0,5	18,739050
2,642000	0,5	18,822300
2,650333	0,5	19,019500
2,658667	0,5	19,403300
2,667000	0,5	20,022400
2,675333	0,5	20,852400
2,683667	0,5	21,827950
2,692000	0,5	22,751100
2,700333	0,5	23,490150
2,708667	0,5	23,904950
2,717000	0,5	23,947050
2,725333	0,5	23,630250
2,733667	0,5	23,078500
2,742000	0,5	22,497450
2,750333	0,5	22,096750
2,758667	0,5	22,157900
2,767000	0,5	22,940900
2,775333	0,5	24,574500
2,783667	0,5	27,171900
2,792000	0,5	30,528300
2,800333	0,5	34,079151
2,808667	0,5	37,191251
2,817000	0,5	39,320751
2,825333	0,5	40,557451
2,833667	0,5	41,173401
2,842000	0,5	41,340201
2,850333	0,5	40,862951
2,858667	0,5	39,492101
2,867000	0,5	37,128051
2,875333	0,5	34,058301
2,883667	0,5	30,750850
2,892000	0,5	27,675900
2,900333	0,5	25,145100
2,908667	0,5	23,344850
2,917000	0,5	22,344450
2,925333	0,5	22,141900
2,933667	0,5	22,830000
2,942000	0,5	24,314000
2,950333	0,5	26,241850
2,958667	0,5	28,066500
2,967000	0,5	29,171200
2,975333	0,5	29,204050
2,983667	0,5	28,148400
2,992000	0,5	26,243850
3,000333	0,5	23,938350
3,008667	0,5	21,635000
3,017000	0,5	19,638950
3,025333	0,5	18,051400
3,033667	0,5	16,886450
3,042000	0,5	16,049300
3,050333	0,5	15,431700
3,058667	0,5	14,992350
3,067000	0,5	14,659500
3,075333	0,5	14,372650
3,083667	0,5	14,156200
3,092000	0,5	13,981100
3,100333	0,5	13,852400
3,108667	0,5	13,763600
3,117000	0,5	13,706650
3,125333	0,5	13,755800
3,133667	0,5	13,911300
3,142000	0,5	14,170850
3,150333	0,5	14,468550
3,158667	0,5	14,716750
3,167000	0,5	14,802700
3,175333	0,5	14,684550
3,183667	0,5	14,364750
3,192000	0,5	13,936100
3,200333	0,5	13,451150
3,208667	0,5	13,046800
3,217000	0,5	12,685300
3,225333	0,5	12,401350
3,233667	0,5	12,190250
3,242000	0,5	12,041600
3,250333	0,5	11,938000
3,258667	0,5	11,849800
3,267000	0,5	11,769750
3,275333	0,5	11,730750
3,283667	0,5	11,704800
3,292000	0,5	11,707400
3,300333	0,5	11,742300
3,308667	0,5	11,840100
3,317000	0,5	12,040150
3,325333	0,5	12,360050
3,333667	0,5	12,805950
3,342000	0,5	13,278800
3,350333	0,5	13,695200
3,358667	0,5	13,919300
3,367000	0,5	13,850900
3,375333	0,5	13,528400
3,383667	0,5	13,041300
3,392000	0,5	12,507650
3,400333	0,5	12,025650
3,408667	0,5	11,611500
3,417000	0,5	11,303550
3,425333	0,5	11,083900
3,433667	0,5	10,953500
3,442000	0,5	10,862750
3,450333	0,5	10,807000
3,458667	0,5	10,767600
3,467000	0,5	10,725850
3,475333	0,5	10,683050
3,483667	0,5	10,617050
3,492000	0,5	10,546050
3,500333	0,5	10,469250
3,508667	0,5	10,391750
3,517000	0,5	10,299050
3,525333	0,5	10,246600
3,533667	0,5	10,213000
3,542000	0,5	10,219750
3,550333	0,5	10,220100
3,558667	0,5	10,213050
3,567000	0,5	10,172550
3,575333	0,5	10,126650
3,583667	0,5	10,058450
3,592000	0,5	9,993500
3,600333	0,5	9,920600
3,608667	0,5	9,866600
3,617000	0,5	9,821350
3,625333	0,5	9,794100
3,633667	0,5	9,778350
3,642000	0,5	9,762850
3,650333	0,5	9,777550
3,658667	0,5	9,769950
3,667000	0,5	9,747850
3,675333	0,5	9,730200
3,683667	0,5	9,706000
3,692000	0,5	9,689250
3,700333	0,5	9,657800
3,708667	0,5	9,610350
3,717000	0,5	9,583050
3,725333	0,5	9,554550
3,733667	0,5	9,537000
3,742000	0,5	9,495750
3,750333	0,5	9,461050
3,758667	0,5	9,402450
3,767000	0,5	9,349700
3,775333	0,5	9,287650
3,783667	0,5	9,220300
3,792000	0,5	9,157750
3,800333	0,5	9,133550
3,808667	0,5	9,066500
3,817000	0,5	9,023700
3,825333	0,5	8,986050
3,833667	0,5	8,953200
3,842000	0,5	8,951850
3,850333	0,5	8,910800
3,858667	0,5	8,890250
3,867000	0,5	8,860700
3,875333	0,5	8,847000
3,883667	0,5	8,825500
3,892000	0,5	8,809450
3,900333	0,5	8,786700
3,908667	0,5	8,770600
3,917000	0,5	8,749850
3,925333	0,5	8,731300
3,933667	0,5	8,695300
3,942000	0,5	8,674450
3,950333	0,5	8,670150
3,958667	0,5	8,625950
3,967000	0,5	8,594500
3,975333	0,5	8,575800
3,983667	0,5	8,558500
3,992000	0,5	8,550500
4,000333	0,5	8,509650
4,008667	0,5	8,469150
4,017000	0,5	8,447950
4,025333	0,5	8,425400
4,033667	0,5	8,414550
4,042000	0,5	8,404700
4,050333	0,5	8,404550
4,058667	0,5	8,400100
4,067000	0,5	8,402250
4,075333	0,5	8,395000
4,083667	0,5	8,381650
4,092000	0,5	8,365550
4,100333	0,5	8,345450
4,108667	0,5	8,290800
4,117000	0,5	8,254750
4,125333	0,5	8,219300
4,133667	0,5	8,202000
4,142000	0,5	8,180950
4,150333	0,5	8,143050
4,158667	0,5	8,112750
4,167000	0,5	8,093150
4,175333	0,5	8,071550
4,183667	0,5	8,050350
4,192000	0,5	8,025850
4,200333	0,5	8,003350
4,208667	0,5	7,988350
4,217000	0,5	7,971300
4,225333	0,5	7,955750
4,233667	0,5	7,924550
4,242000	0,5	7,927450
4,250333	0,5	7,904850
4,258667	0,5	7,879400
4,267000	0,5	7,864600
4,275333	0,5	7,860850
4,283667	0,5	7,862200
4,292000	0,5	7,862450
4,300333	0,5	7,839700
4,308667	0,5	7,825350
4,317000	0,5	7,804050
4,325333	0,5	7,795500
4,333667	0,5	7,776550
4,342000	0,5	7,763750
4,350333	0,5	7,750650
4,358667	0,5	7,736350
4,367000	0,5	7,728050
4,375333	0,5	7,696500
4,383667	0,5	7,688400
4,392000	0,5	7,691300
4,400333	0,5	7,677350
4,408667	0,5	7,668950
4,417000	0,5	7,675650
4,425333	0,5	7,699500
4,433667	0,5	7,734650
4,442000	0,5	7,761150
4,450333	0,5	7,809650
4,458667	0,5	7,861750
4,467000	0,5	7,944800
4,475333	0,5	8,031300
4,483667	0,5	8,156600
4,492000	0,5	8,271400
4,500333	0,5	8,401650
4,508667	0,5	8,516100
4,517000	0,5	8,619050
4,525333	0,5	8,693850
4,533667	0,5	8,756200
4,542000	0,5	8,789150
4,550333	0,5	8,783500
4,558667	0,5	8,775000
4,567000	0,5	8,773550
4,575333	0,5	8,800550
4,583667	0,5	8,840650
4,592000	0,5	8,897200
4,600333	0,5	8,963750
4,608667	0,5	9,052750
4,617000	0,5	9,120950
4,625333	0,5	9,187250
4,633667	0,5	9,202950
4,642000	0,5	9,186200
4,650333	0,5	9,117050
4,658667	0,5	9,011950
4,667000	0,5	8,854150
4,675333	0,5	8,673300
4,683667	0,5	8,491000
4,692000	0,5	8,303200
4,700333	0,5	8,108850
4,708667	0,5	7,948850
4,717000	0,5	7,811350
4,725333	0,5	7,717550
4,733667	0,5	7,627500
4,742000	0,5	7,542300
4,750333	0,5	7,488950
4,758667	0,5	7,441700
4,767000	0,5	7,414400
4,775333	0,5	7,387950
4,783667	0,5	7,374100
4,792000	0,5	7,358600
4,800333	0,5	7,353000
4,808667	0,5	7,348150
4,817000	0,5	7,341350
4,825333	0,5	7,327250
4,833667	0,5	7,359750
4,842000	0,5	7,341550
4,850333	0,5	7,339900
4,858667	0,5	7,338900
4,867000	0,5	7,350250
4,875333	0,5	7,372500
4,883667	0,5	7,374100
4,892000	0,5	7,386100
4,900333	0,5	7,407750
4,908667	0,5	7,433350
4,917000	0,5	7,456650
4,925333	0,5	7,485350
4,933667	0,5	7,507600
4,942000	0,5	7,522950
4,950333	0,5	7,527450
4,958667	0,5	7,523000
4,967000	0,5	7,485500
4,975333	0,5	7,453500
4,983667	0,5	7,426150
4,992000	0,5	7,360600
5,000333	0,5	7,300900
5,008667	0,5	7,256700
5,017000	0,5	7,215750
5,025333	0,5	7,201600
5,033667	0,5	7,156700
5,042000	0,5	7,121950
5,050333	0,5	7,090800
5,058667	0,5	7,075750
5,067000	0,5	7,054000
5,075333	0,5	7,042400
5,083667	0,5	7,027650
5,092000	0,5	7,020050
5,100333	0,5	7,016100
5,108667	0,5	7,008050
5,117000	0,5	6,998000
5,125333	0,5	6,995950
5,133667	0,5	7,008200
5,142000	0,5	6,988700
5,150333	0,5	6,991950
5,158667	0,5	6,994950
5,167000	0,5	7,007800
5,175333	0,5	7,018500
5,183667	0,5	7,013100
5,192000	0,5	7,003550
5,200333	0,5	7,000350
5,208667	0,5	6,987450
5,217000	0,5	6,981850
5,225333	0,5	6,961550
5,233667	0,5	6,936750
5,242000	0,5	6,909800
5,250333	0,5	6,883050
5,258667	0,5	6,853350
5,267000	0,5	6,810900
5,275333	0,5	6,782800
5,283667	0,5	6,746850
5,292000	0,5	6,698900
5,300333	0,5	6,669500
5,308667	0,5	6,653800
5,317000	0,5	6,650500
5,325333	0,5	6,644450
5,333667	0,5	6,622450
5,342000	0,5	6,615750
5,350333	0,5	6,600300
5,358667	0,5	6,595200
5,367000	0,5	6,586800
5,375333	0,5	6,586850
5,383667	0,5	6,578700
5,392000	0,5	6,576750
5,400333	0,5	6,568300
5,408667	0,5	6,554500
5,417000	0,5	6,544000
5,425333	0,5	6,545050
5,433667	0,5	6,521150
5,442000	0,5	6,503850
5,450333	0,5	6,490300
5,458667	0,5	6,485300
5,467000	0,5	6,491750
5,475333	0,5	6,474350
5,483667	0,5	6,462900
5,492000	0,5	6,446550
5,500333	0,5	6,436350
5,508667	0,5	6,420850
5,517000	0,5	6,410150
5,525333	0,5	6,394650
5,533667	0,5	6,384550
5,542000	0,5	6,366400
5,550333	0,5	6,358050
5,558667	0,5	6,339150
5,567000	0,5	6,341850
5,575333	0,5	6,335000
5,583667	0,5	6,315050
5,592000	0,5	6,298850
5,600333	0,5	6,301200
5,608667	0,5	6,300800
5,617000	0,5	6,305300
5,625333	0,5	6,302650
5,633667	0,5	6,291250
5,642000	0,5	6,286150
5,650333	0,5	6,277150
5,658667	0,5	6,261400
5,667000	0,5	6,252550
5,675333	0,5	6,239900
5,683667	0,5	6,228300
5,692000	0,5	6,225450
5,700333	0,5	6,215300
5,708667	0,5	6,202550
5,717000	0,5	6,203700
5,725333	0,5	6,192700
5,733667	0,5	6,173900
5,742000	0,5	6,163650
5,750333	0,5	6,160300
5,758667	0,5	6,175300
5,767000	0,5	6,170800
5,775333	0,5	6,167500
5,783667	0,5	6,160900
5,792000	0,5	6,160150
5,800333	0,5	6,155250
5,808667	0,5	6,151600
5,817000	0,5	6,144700
5,825333	0,5	6,134000
5,833667	0,5	6,123600
5,842000	0,5	6,107100
5,850333	0,5	6,093900
5,858667	0,5	6,070300
5,867000	0,5	6,080750
5,875333	0,5	6,050650
5,883667	0,5	6,033500
5,892000	0,5	6,018800
5,900333	0,5	6,015400
5,908667	0,5	6,020850
5,917000	0,5	6,012050
5,925333	0,5	6,000450
5,933667	0,5	5,998000
5,942000	0,5	5,991050
5,950333	0,5	5,986150
5,958667	0,5	5,977200
5,967000	0,5	5,969500
5,975333	0,5	5,960450
5,983667	0,5	5,959000
5,992000	0,5	5,958800
6,000333	0,5	5,945550
6,008667	0,5	5,935350
6,017000	0,5	5,952700
6,025333	0,5	5,934650
6,033667	0,5	5,930550
6,042000	0,5	5,926100
6,050333	0,5	5,927400
6,058667	0,5	5,944000
6,067000	0,5	5,928600
6,075333	0,5	5,918550
6,083667	0,5	5,902500
6,092000	0,5	5,895750
6,100333	0,5	5,879600
6,108667	0,5	5,869050
6,117000	0,5	5,852050
6,125333	0,5	5,840050
6,133667	0,5	5,828750
6,142000	0,5	5,817400
6,150333	0,5	5,801750
6,158667	0,5	5,797650
6,167000	0,5	5,791350
6,175333	0,5	5,766100
6,183667	0,5	5,758300
6,192000	0,5	5,754000
6,200333	0,5	5,755200
6,208667	0,5	5,758650
6,217000	0,5	5,750950
6,225333	0,5	5,737750
6,233667	0,5	5,736050
6,242000	0,5	5,725750
6,250333	0,5	5,726100
6,258667	0,5	5,717200
6,267000	0,5	5,713550
6,275333	0,5	5,711100
6,283667	0,5	5,712250
6,292000	0,5	5,714400
6,300333	0,5	5,723500
6,308667	0,5	5,727650
6,317000	0,5	5,737000
6,325333	0,5	5,730650
6,333667	0,5	5,740500
6,342000	0,5	5,749600
6,350333	0,5	5,780100
6,358667	0,5	5,805600
6,367000	0,5	5,818800
6,375333	0,5	5,839850
6,383667	0,5	5,866100
6,392000	0,5	5,902100
6,400333	0,5	5,950550
6,408667	0,5	6,018450
6,417000	0,5	6,110300
6,425333	0,5	6,246600
6,433667	0,5	6,417750
6,442000	0,5	6,631200
6,450333	0,5	6,891800
6,458667	0,5	7,215300
6,467000	0,5	7,540250
6,475333	0,5	7,878150
6,483667	0,5	8,197950
6,492000	0,5	8,478700
6,500333	0,5	8,696800
6,508667	0,5	8,809200
6,517000	0,5	8,817300
6,525333	0,5	8,737900
6,533667	0,5	8,576300
6,542000	0,5	8,367150
6,550333	0,5	8,115350
6,558667	0,5	7,842500
6,567000	0,5	7,572350
6,575333	0,5	7,303150
6,583667	0,5	7,050650
6,592000	0,5	6,799850
6,600333	0,5	6,587550
6,608667	0,5	6,401700
6,617000	0,5	6,220050
6,625333	0,5	6,068650
6,633667	0,5	5,954600
6,642000	0,5	5,865850
6,650333	0,5	5,804800
6,658667	0,5	5,745550
6,667000	0,5	5,699900
6,675333	0,5	5,655950
6,683667	0,5	5,628350
6,692000	0,5	5,593300
6,700333	0,5	5,567700
6,708667	0,5	5,542250
6,717000	0,5	5,518150
6,725333	0,5	5,501850
6,733667	0,5	5,483700
6,742000	0,5	5,462200
6,750333	0,5	5,456200
6,758667	0,5	5,438750
6,767000	0,5	5,416300
6,775333	0,5	5,397500
6,783667	0,5	5,383750
6,792000	0,5	5,387950
6,800333	0,5	5,379100
6,808667	0,5	5,367100
6,817000	0,5	5,350650
6,825333	0,5	5,347950
6,833667	0,5	5,336700
6,842000	0,5	5,336000
6,850333	0,5	5,326650
6,858667	0,5	5,320250
6,867000	0,5	5,312100
6,875333	0,5	5,303000
6,883667	0,5	5,298200
6,892000	0,5	5,278800
6,900333	0,5	5,276450
6,908667	0,5	5,255600
6,917000	0,5	5,236350
6,925333	0,5	5,219150
6,933667	0,5	5,208050
6,942000	0,5	5,203100
6,950333	0,5	5,190150
6,958667	0,5	5,172300
6,967000	0,5	5,163400
6,975333	0,5	5,150500
6,983667	0,5	5,143250
6,992000	0,5	5,127500
7,000333	0,5	5,116300
7,008667	0,5	5,105300
7,017000	0,5	5,094100
7,025333	0,5	5,087950
7,033667	0,5	5,078550
7,042000	0,5	5,064150
7,050333	0,5	5,069400
7,058667	0,5	5,045400
7,067000	0,5	5,036450
7,075333	0,5	5,027800
7,083667	0,5	5,026200
7,092000	0,5	5,031900
7,100333	0,5	5,021100
7,108667	0,5	5,010950
7,117000	0,5	4,995300
7,125333	0,5	4,986000
7,133667	0,5	4,967650
7,142000	0,5	4,954500
7,150333	0,5	4,937800
7,158667	0,5	4,924150
7,167000	0,5	4,905900
7,175333	0,5	4,892400
7,183667	0,5	4,874450
7,192000	0,5	4,862950
7,200333	0,5	4,861350
7,208667	0,5	4,844700
7,217000	0,5	4,831650
7,225333	0,5	4,824550
7,233667	0,5	4,816400
7,242000	0,5	4,811900
7,250333	0,5	4,791700
7,258667	0,5	4,767400
7,267000	0,5	4,749700
7,275333	0,5	4,734550
7,283667	0,5	4,715900
7,292000	0,5	4,701050
7,300333	0,5	4,688800
7,308667	0,5	4,677550
7,317000	0,5	4,670350
7,325333	0,5	4,660550
7,333667	0,5	4,654050
7,342000	0,5	4,646850
7,350333	0,5	4,641100
7,358667	0,5	4,627600
7,367000	0,5	4,624400
7,375333	0,5	4,624650
7,383667	0,5	4,643250
7,392000	0,5	4,664150
7,400333	0,5	4,680750
7,408667	0,5	4,692350
7,417000	0,5	4,703100
7,425333	0,5	4,709850
7,433667	0,5	4,728750
7,442000	0,5	4,757750
7,450333	0,5	4,812650
7,458667	0,5	4,879900
7,467000	0,5	4,927200
7,475333	0,5	4,925000
7,483667	0,5	4,867150
7,492000	0,5	4,781600
7,500333	0,5	4,686400
7,508667	0,5	4,608350
7,517000	0,5	4,567550
7,525333	0,5	4,551700
7,533667	0,5	4,559600
7,542000	0,5	4,572850
7,550333	0,5	4,599200
7,558667	0,5	4,640400
7,567000	0,5	4,698700
7,575333	0,5	4,787000
7,583667	0,5	4,907050
7,592000	0,5	5,076250
7,600333	0,5	5,306000
7,608667	0,5	5,608450
7,617000	0,5	5,980050
7,625333	0,5	6,395250
7,633667	0,5	6,838900
7,642000	0,5	7,267150
7,650333	0,5	7,608450
7,658667	0,5	7,818650
7,667000	0,5	7,876950
7,675333	0,5	7,760550
7,683667	0,5	7,493750
7,692000	0,5	7,103350
7,700333	0,5	6,656800
7,708667	0,5	6,200450
7,717000	0,5	5,782850
7,725333	0,5	5,420800
7,733667	0,5	5,136600
7,742000	0,5	4,918700
7,750333	0,5	4,770500
7,758667	0,5	4,665750
7,767000	0,5	4,592750
7,775333	0,5	4,536300
7,783667	0,5	4,498000
7,792000	0,5	4,463400
7,800333	0,5	4,430450
7,808667	0,5	4,410000
7,817000	0,5	4,399700
7,825333	0,5	4,399150
7,833667	0,5	4,403800
7,842000	0,5	4,414150
7,850333	0,5	4,432550
7,858667	0,5	4,474900
7,867000	0,5	4,546750
7,875333	0,5	4,669700
7,883667	0,5	4,867800
7,892000	0,5	5,163400
7,900333	0,5	5,554850
7,908667	0,5	5,985550
7,917000	0,5	6,341600
7,925333	0,5	6,482700
7,933667	0,5	6,356350
7,942000	0,5	5,995750
7,950333	0,5	5,532200
7,958667	0,5	5,093150
7,967000	0,5	4,750400
7,975333	0,5	4,514550
7,983667	0,5	4,359100
7,992000	0,5	4,251000
8,000333	0,5	4,181900
8,008667	0,5	4,131850
8,017000	0,5	4,092450
8,025333	0,5	4,065300
8,033667	0,5	4,049000
8,042000	0,5	4,037900
8,050333	0,5	4,037350
8,058667	0,5	4,042050
8,067000	0,5	4,051900
8,075333	0,5	4,051550
8,083667	0,5	4,051000
8,092000	0,5	4,034050
8,100333	0,5	4,012350
8,108667	0,5	3,989750
8,117000	0,5	3,971750
8,125333	0,5	3,961250
8,133667	0,5	3,942900
8,142000	0,5	3,931700
8,150333	0,5	3,918750
8,158667	0,5	3,911100
8,167000	0,5	3,905800
8,175333	0,5	3,903500
8,183667	0,5	3,905500
8,192000	0,5	3,914150
8,200333	0,5	3,927900
8,208667	0,5	3,944900
8,217000	0,5	3,973600
8,225333	0,5	4,020600
8,233667	0,5	4,096400
8,242000	0,5	4,166650
8,250333	0,5	4,193050
8,258667	0,5	4,161600
8,267000	0,5	4,087050
8,275333	0,5	3,997900
8,283667	0,5	3,920800
8,292000	0,5	3,865200
8,300333	0,5	3,826500
8,308667	0,5	3,806100
8,317000	0,5	3,792700
8,325333	0,5	3,786250
8,333667	0,5	3,782850
8,342000	0,5	3,778150
8,350333	0,5	3,769700
8,358667	0,5	3,761150
8,367000	0,5	3,751000
8,375333	0,5	3,742300
8,383667	0,5	3,734700
8,392000	0,5	3,723250
8,400333	0,5	3,710900
8,408667	0,5	3,701150
8,417000	0,5	3,694400
8,425333	0,5	3,690150
8,433667	0,5	3,683000
8,442000	0,5	3,675800
8,450333	0,5	3,670400
8,458667	0,5	3,661800
8,467000	0,5	3,649500
8,475333	0,5	3,634650
8,483667	0,5	3,622150
8,492000	0,5	3,612350
8,500333	0,5	3,607150
8,508667	0,5	3,606150
8,517000	0,5	3,623050
8,525333	0,5	3,666650
8,533667	0,5	3,744000
8,542000	0,5	3,835200
8,550333	0,5	3,902850
8,558667	0,5	3,920150
8,567000	0,5	3,885600
8,575333	0,5	3,818400
8,583667	0,5	3,745950
8,592000	0,5	3,695500
8,600333	0,5	3,661650
8,608667	0,5	3,648550
8,617000	0,5	3,641200
8,625333	0,5	3,631650
8,633667	0,5	3,615650
8,642000	0,5	3,604300
8,650333	0,5	3,586600
8,658667	0,5	3,580600
8,667000	0,5	3,573100
8,675333	0,5	3,584650
8,683667	0,5	3,590400
8,692000	0,5	3,607250
8,700333	0,5	3,630200
8,708667	0,5	3,668400
8,717000	0,5	3,712650
8,725333	0,5	3,755100
8,733667	0,5	3,786300
8,742000	0,5	3,802500
8,750333	0,5	3,804250
8,758667	0,5	3,800150
8,767000	0,5	3,797250
8,775333	0,5	3,807750
8,783667	0,5	3,857800
8,792000	0,5	3,979200
8,800333	0,5	4,211500
8,808667	0,5	4,553150
8,817000	0,5	4,981350
8,825333	0,5	5,422300
8,833667	0,5	5,752100
8,842000	0,5	5,860100
8,850333	0,5	5,706350
8,858667	0,5	5,341550
8,867000	0,5	4,896650
8,875333	0,5	4,483900
8,883667	0,5	4,168350
8,892000	0,5	3,965850
8,900333	0,5	3,855600
8,908667	0,5	3,803900
8,917000	0,5	3,792650
8,925333	0,5	3,803700
8,933667	0,5	3,832700
8,942000	0,5	3,864850
8,950333	0,5	3,896850
8,958667	0,5	3,921100
8,967000	0,5	3,929450
8,975333	0,5	3,925350
8,983667	0,5	3,910450
8,992000	0,5	3,890700
9,000333	0,5	3,872600
9,008667	0,5	3,869700
9,017000	0,5	3,880350
9,025333	0,5	3,909350
9,033667	0,5	3,932150
9,042000	0,5	3,923150
9,050333	0,5	3,864900
9,058667	0,5	3,775800
9,067000	0,5	3,691650
9,075333	0,5	3,616250
9,083667	0,5	3,565150
9,092000	0,5	3,528750
9,100333	0,5	3,509200
9,108667	0,5	3,496600
9,117000	0,5	3,490600
9,125333	0,5	3,500750
9,133667	0,5	3,523300
9,142000	0,5	3,565750
9,150333	0,5	3,626550
9,158667	0,5	3,693950
9,167000	0,5	3,748050
9,175333	0,5	3,776100
9,183667	0,5	3,774150
9,192000	0,5	3,747800
9,200333	0,5	3,715650
9,208667	0,5	3,688650
9,217000	0,5	3,676200
9,225333	0,5	3,686350
9,233667	0,5	3,722400
9,242000	0,5	3,800700
9,250333	0,5	3,917650
9,258667	0,5	4,069050
9,267000	0,5	4,268100
9,275333	0,5	4,532950
9,283667	0,5	4,932700
9,292000	0,5	5,605850
9,300333	0,5	6,660950
9,308667	0,5	7,963450
9,317000	0,5	9,067950
9,325333	0,5	9,542550
9,333667	0,5	9,287450
9,342000	0,5	8,549000
9,350333	0,5	7,644750
9,358667	0,5	6,803000
9,367000	0,5	6,129000
9,375333	0,5	5,618500
9,383667	0,5	5,240350
9,392000	0,5	4,947250
9,400333	0,5	4,707050
9,408667	0,5	4,498750
9,417000	0,5	4,324900
9,425333	0,5	4,169250
9,433667	0,5	4,043900
9,442000	0,5	3,951200
9,450333	0,5	3,883150
9,458667	0,5	3,842100
9,467000	0,5	3,828700
9,475333	0,5	3,830100
9,483667	0,5	3,841350
9,492000	0,5	3,844400
9,500333	0,5	3,831450
9,508667	0,5	3,800100
9,517000	0,5	3,769000
9,525333	0,5	3,737900
9,533667	0,5	3,726000
9,542000	0,5	3,721150
9,550333	0,5	3,723500
9,558667	0,5	3,722450
9,567000	0,5	3,712250
9,575333	0,5	3,690950
9,583667	0,5	3,666200
9,592000	0,5	3,641050
9,600333	0,5	3,617200
9,608667	0,5	3,602400
9,617000	0,5	3,586350
9,625333	0,5	3,567850
9,633667	0,5	3,557950
9,642000	0,5	3,558300
9,650333	0,5	3,583500
9,658667	0,5	3,628450
9,667000	0,5	3,694300
9,675333	0,5	3,762150
9,683667	0,5	3,822850
9,692000	0,5	3,856400
9,700333	0,5	3,861950
9,708667	0,5	3,843250
9,717000	0,5	3,807450
9,725333	0,5	3,757350
9,733667	0,5	3,705400
9,742000	0,5	3,662250
9,750333	0,5	3,633950
9,758667	0,5	3,618450
9,767000	0,5	3,616050
9,775333	0,5	3,620400
9,783667	0,5	3,639700
9,792000	0,5	3,668250
9,800333	0,5	3,709900
9,808667	0,5	3,768950
9,817000	0,5	3,850700
9,825333	0,5	3,962700
9,833667	0,5	4,108850
9,842000	0,5	4,292850
9,850333	0,5	4,512150
9,858667	0,5	4,772400
9,867000	0,5	5,061150
9,875333	0,5	5,376100
9,883667	0,5	5,709700
9,892000	0,5	6,055350
9,900333	0,5	6,404700
9,908667	0,5	6,747550
9,917000	0,5	7,070050
9,925333	0,5	7,367900
9,933667	0,5	7,627750
9,942000	0,5	7,826500
9,950333	0,5	7,943650
9,958667	0,5	7,941800
9,967000	0,5	7,790500
9,975333	0,5	7,474600
9,983667	0,5	7,010500
9,992000	0,5	6,437250
10,000333	0,5	5,824750
10,008667	0,5	5,253600
10,017000	0,5	4,764000
10,025333	0,5	4,378400
10,033667	0,5	4,094050
10,042000	0,5	3,901200
10,050333	0,5	3,763300
10,058667	0,5	3,669450
10,067000	0,5	3,601800
10,075333	0,5	3,551800
10,083667	0,5	3,521350
10,092000	0,5	3,495000
10,100333	0,5	3,481350
10,108667	0,5	3,472300
10,117000	0,5	3,468250
10,125333	0,5	3,474100
10,133667	0,5	3,475450
10,142000	0,5	3,481750
10,150333	0,5	3,486900
10,158667	0,5	3,497900
10,167000	0,5	3,502650
10,175333	0,5	3,510850
10,183667	0,5	3,512200
10,192000	0,5	3,517100
10,200333	0,5	3,518050
10,208667	0,5	3,514700
10,217000	0,5	3,504000
10,225333	0,5	3,510350
10,233667	0,5	3,525300
10,242000	0,5	3,564200
10,250333	0,5	3,617300
10,258667	0,5	3,681500
10,267000	0,5	3,734850
10,275333	0,5	3,766250
10,283667	0,5	3,765850
10,292000	0,5	3,729500
10,300333	0,5	3,677200
10,308667	0,5	3,618850
10,317000	0,5	3,553450
10,325333	0,5	3,496850
10,333667	0,5	3,444450
10,342000	0,5	3,403850
10,350333	0,5	3,369700
10,358667	0,5	3,333300
10,367000	0,5	3,311350
10,375333	0,5	3,291350
10,383667	0,5	3,278750
10,392000	0,5	3,271300
10,400333	0,5	3,260800
10,408667	0,5	3,244500
10,417000	0,5	3,233450
10,425333	0,5	3,223250
10,433667	0,5	3,216350
10,442000	0,5	3,209700
10,450333	0,5	3,217800
10,458667	0,5	3,228500
10,467000	0,5	3,240950
10,475333	0,5	3,256650
10,483667	0,5	3,284100
10,492000	0,5	3,325050
10,500333	0,5	3,377750
10,508667	0,5	3,428300
10,517000	0,5	3,455600
10,525333	0,5	3,456600
10,533667	0,5	3,422300
10,542000	0,5	3,369950
10,550333	0,5	3,303000
10,558667	0,5	3,239150
10,567000	0,5	3,181400
10,575333	0,5	3,128950
10,583667	0,5	3,081250
10,592000	0,5	3,041000
10,600333	0,5	3,011300
10,608667	0,5	2,984850
10,617000	0,5	2,967050
10,625333	0,5	2,952250
10,633667	0,5	2,940250
10,642000	0,5	2,936050
10,650333	0,5	2,932000
10,658667	0,5	2,931650
10,667000	0,5	2,940150
10,675333	0,5	2,960050
10,683667	0,5	2,990750
10,692000	0,5	3,028700
10,700333	0,5	3,080300
10,708667	0,5	3,131300
10,717000	0,5	3,194500
10,725333	0,5	3,244950
10,733667	0,5	3,277650
10,742000	0,5	3,275100
10,750333	0,5	3,244700
10,758667	0,5	3,186250
10,767000	0,5	3,114600
10,775333	0,5	3,043050
10,783667	0,5	2,977050
10,792000	0,5	2,929850
10,800333	0,5	2,885800
10,808667	0,5	2,850900
10,817000	0,5	2,826450
10,825333	0,5	2,804300
10,833667	0,5	2,788250
10,842000	0,5	2,777850
10,850333	0,5	2,768650
10,858667	0,5	2,764950
10,867000	0,5	2,767300
10,875333	0,5	2,782150
10,883667	0,5	2,807200
10,892000	0,5	2,851750
10,900333	0,5	2,906750
10,908667	0,5	2,961600
10,917000	0,5	3,004850
10,925333	0,5	3,025350
10,933667	0,5	3,009700
10,942000	0,5	2,956250
10,950333	0,5	2,866650
10,958667	0,5	2,757450
10,967000	0,5	2,646000
10,975333	0,5	2,551850
10,983667	0,5	2,481750
10,992000	0,5	2,439200
11,000333	0,5	2,416100
11,008667	0,5	2,411600
11,017000	0,5	2,420800
11,025333	0,5	2,437600
11,033667	0,5	2,453200
11,042000	0,5	2,482250
11,050333	0,5	2,512500
11,058667	0,5	2,550250
11,067000	0,5	2,598750
11,075333	0,5	2,657250
11,083667	0,5	2,736900
11,092000	0,5	2,812350
11,100333	0,5	2,883100
11,108667	0,5	2,920200
11,117000	0,5	2,923450
11,125333	0,5	2,891100
11,133667	0,5	2,824400
11,142000	0,5	2,737200
11,150333	0,5	2,650450
11,158667	0,5	2,572500
11,167000	0,5	2,501200
11,175333	0,5	2,446150
11,183667	0,5	2,400800
11,192000	0,5	2,371950
11,200333	0,5	2,347900
11,208667	0,5	2,336900
11,217000	0,5	2,342050
11,225333	0,5	2,365900
11,233667	0,5	2,413850
11,242000	0,5	2,490000
11,250333	0,5	2,573450
11,258667	0,5	2,657550
11,267000	0,5	2,720350
11,275333	0,5	2,743300
11,283667	0,5	2,732650
11,292000	0,5	2,691350
11,300333	0,5	2,633700
11,308667	0,5	2,577550
11,317000	0,5	2,527350
11,325333	0,5	2,479550
11,333667	0,5	2,450450
11,342000	0,5	2,432200
11,350333	0,5	2,411000
11,358667	0,5	2,409150
11,367000	0,5	2,411300
11,375333	0,5	2,428100
11,383667	0,5	2,460100
11,392000	0,5	2,506950
11,400333	0,5	2,557300
11,408667	0,5	2,599100
11,417000	0,5	2,622200
11,425333	0,5	2,616350
11,433667	0,5	2,594950
11,442000	0,5	2,558950
11,450333	0,5	2,519500
11,458667	0,5	2,483350
11,467000	0,5	2,456750
11,475333	0,5	2,431100
11,483667	0,5	2,425900
11,492000	0,5	2,429450
11,500333	0,5	2,443450
11,508667	0,5	2,472350
11,517000	0,5	2,520400
11,525333	0,5	2,593050
11,533667	0,5	2,686650
11,542000	0,5	2,803250
11,550333	0,5	2,957800
11,558667	0,5	3,152750
11,567000	0,5	3,393950
11,575333	0,5	3,657150
11,583667	0,5	3,918350
11,592000	0,5	4,133400
11,600333	0,5	4,257200
11,608667	0,5	4,282050
11,617000	0,5	4,193400
11,625333	0,5	4,029650
11,633667	0,5	3,824400
11,642000	0,5	3,598050
11,650333	0,5	3,371700
11,658667	0,5	3,172100
11,667000	0,5	3,001050
11,675333	0,5	2,872700
11,683667	0,5	2,773900
11,692000	0,5	2,706150
11,700333	0,5	2,664050
11,708667	0,5	2,649750
11,717000	0,5	2,655200
11,725333	0,5	2,669350
11,733667	0,5	2,692350
11,742000	0,5	2,713150
11,750333	0,5	2,732050
11,758667	0,5	2,743650
11,767000	0,5	2,741650
11,775333	0,5	2,734350
11,783667	0,5	2,726250
11,792000	0,5	2,707900
11,800333	0,5	2,688350
11,808667	0,5	2,660150
11,817000	0,5	2,640150
11,825333	0,5	2,618450
11,833667	0,5	2,594600
11,842000	0,5	2,572400
11,850333	0,5	2,558400
11,858667	0,5	2,551400
11,867000	0,5	2,560200
11,875333	0,5	2,589400
11,883667	0,5	2,636000
11,892000	0,5	2,705700
11,900333	0,5	2,776400
11,908667	0,5	2,858850
11,917000	0,5	2,914300
11,925333	0,5	2,960400
11,933667	0,5	2,974950
11,942000	0,5	2,959550
11,950333	0,5	2,912900
11,958667	0,5	2,847850
11,967000	0,5	2,780250
11,975333	0,5	2,719300
11,983667	0,5	2,660050
11,992000	0,5	2,602450
12,000333	0,5	2,553750
12,008667	0,5	2,513550
12,017000	0,5	2,480550
12,025333	0,5	2,454750
12,033667	0,5	2,430700
12,042000	0,5	2,414600
12,050333	0,5	2,406150
12,058667	0,5	2,398750
12,067000	0,5	2,379600
12,075333	0,5	2,375800
12,083667	0,5	2,360850
12,092000	0,5	2,348000
12,100333	0,5	2,337050
12,108667	0,5	2,320800
12,117000	0,5	2,316050
12,125333	0,5	2,309400
12,133667	0,5	2,306200
12,142000	0,5	2,293000
12,150333	0,5	2,291150
12,158667	0,5	2,284350
12,167000	0,5	2,276000
12,175333	0,5	2,269750
12,183667	0,5	2,256600
12,192000	0,5	2,246700
12,200333	0,5	2,237600
12,208667	0,5	2,227300
12,217000	0,5	2,223450
12,225333	0,5	2,228250
12,233667	0,5	2,227950
12,242000	0,5	2,229350
12,250333	0,5	2,227850
12,258667	0,5	2,232850
12,267000	0,5	2,234100
12,275333	0,5	2,243000
12,283667	0,5	2,246100
12,292000	0,5	2,252000
12,300333	0,5	2,259750
12,308667	0,5	2,265950
12,317000	0,5	2,273650
12,325333	0,5	2,285050
12,333667	0,5	2,290750
12,342000	0,5	2,300850
12,350333	0,5	2,306150
12,358667	0,5	2,304150
12,367000	0,5	2,309350
12,375333	0,5	2,321150
12,383667	0,5	2,323950
12,392000	0,5	2,329650
12,400333	0,5	2,339400
12,408667	0,5	2,347450
12,417000	0,5	2,365400
12,425333	0,5	2,380500
12,433667	0,5	2,403800
12,442000	0,5	2,436050
12,450333	0,5	2,478650
12,458667	0,5	2,528750
12,467000	0,5	2,580150
12,475333	0,5	2,624550
12,483667	0,5	2,649900
12,492000	0,5	2,668900
12,500333	0,5	2,691300
12,508667	0,5	2,712150
12,517000	0,5	2,755350
12,525333	0,5	2,800300
12,533667	0,5	2,826900
12,542000	0,5	2,828850
12,550333	0,5	2,825650
12,558667	0,5	2,850750
12,567000	0,5	2,834900
12,575333	0,5	2,746850
12,583667	0,5	2,663450
12,592000	0,5	2,483500
12,600333	0,5	2,191550
12,608667	0,5	1,850200
12,617000	0,5	1,505950
12,625333	0,5	1,227700
12,633667	0,5	1,021200
12,642000	0,5	0,864550
12,650333	0,5	0,730700
12,658667	0,5	0,631900
12,667000	0,5	0,567200
12,675333	0,5	0,522850
12,683667	0,5	0,485400
12,692000	0,5	0,457050
12,700333	0,5	0,434250
12,708667	0,5	0,427400
12,717000	0,5	0,415750
12,725333	0,5	0,415750
12,733667	0,5	0,410050
12,742000	0,5	0,405000
12,750333	0,5	0,394450
12,758667	0,5	0,392050
12,767000	0,5	0,384200
12,775333	0,5	0,373700
12,783667	0,5	0,367050
12,792000	0,5	0,356450
12,800333	0,5	0,339050
12,808667	0,5	0,329050
12,817000	0,5	0,325200
12,825333	0,5	0,318950
12,833667	0,5	0,310100
12,842000	0,5	0,296900
12,850333	0,5	0,294500
12,858667	0,5	0,291250
12,867000	0,5	0,292250
12,875333	0,5	0,283400
12,883667	0,5	0,283150
12,892000	0,5	0,275300
12,900333	0,5	0,270700
12,908667	0,5	0,259400
12,917000	0,5	0,251700
12,925333	0,5	0,232450
12,933667	0,5	0,211500
12,942000	0,5	0,206300
12,950333	0,5	0,180300
12,958667	0,5	0,174000
12,967000	0,5	0,161950
12,975333	0,5	0,152750
12,983667	0,5	0,139650
12,992000	0,5	0,122500
13,000333	0,5	0,119050
13,008667	0,5	0,121900
13,017000	0,5	0,113800
13,025333	0,5	0,113150
13,033667	0,5	0,110350
13,042000	0,5	0,119600
13,050333	0,5	0,130300
13,058667	0,5	0,145100
13,067000	0,5	0,161650
13,075333	0,5	0,185650
13,083667	0,5	0,214200
13,092000	0,5	0,244050
13,100333	0,5	0,261550
13,108667	0,5	0,290900
13,117000	0,5	0,301700
13,125333	0,5	0,307100
13,133667	0,5	0,300200
13,142000	0,5	0,291200
13,150333	0,5	0,293400
13,158667	0,5	0,284650
13,167000	0,5	0,284150
13,175333	0,5	0,293050
13,183667	0,5	0,311150
13,192000	0,5	0,342450
13,200333	0,5	0,393800
13,208667	0,5	0,459250
13,217000	0,5	0,541900
13,225333	0,5	0,639150
13,233667	0,5	0,747650
13,242000	0,5	0,850700
13,250333	0,5	0,958650
13,258667	0,5	1,061000
13,267000	0,5	1,145650
13,275333	0,5	1,209650
13,283667	0,5	1,251850
13,292000	0,5	1,278650
13,300333	0,5	1,295600
13,308667	0,5	1,301600
13,317000	0,5	1,292850
13,325333	0,5	1,277400
13,333667	0,5	1,257500
13,342000	0,5	1,238050
13,350333	0,5	1,221850
13,358667	0,5	1,211300
13,367000	0,5	1,203400
13,375333	0,5	1,204600
13,383667	0,5	1,207400
13,392000	0,5	1,206400
13,400333	0,5	1,222200
13,408667	0,5	1,240650
13,417000	0,5	1,253000
13,425333	0,5	1,264550
13,433667	0,5	1,267000
13,442000	0,5	1,276450
13,450333	0,5	1,285000
13,458667	0,5	1,282800
13,467000	0,5	1,276800
13,475333	0,5	1,265350
13,483667	0,5	1,250650
13,492000	0,5	1,238850
13,500333	0,5	1,231750
13,508667	0,5	1,221350
13,517000	0,5	1,217450
13,525333	0,5	1,215450
13,533667	0,5	1,209650
13,542000	0,5	1,190650
13,550333	0,5	1,192250
13,558667	0,5	1,181850
13,567000	0,5	1,173150
13,575333	0,5	1,165750
13,583667	0,5	1,160950
13,592000	0,5	1,166150
13,600333	0,5	1,166600
13,608667	0,5	1,160900
13,617000	0,5	1,162800
13,625333	0,5	1,157100
13,633667	0,5	1,158850
13,642000	0,5	1,158750
13,650333	0,5	1,157100
13,658667	0,5	1,149550
13,667000	0,5	1,147300
13,675333	0,5	1,150650
13,683667	0,5	1,137200
13,692000	0,5	1,133650
13,700333	0,5	1,136600
13,708667	0,5	1,136450
13,717000	0,5	1,133050
13,725333	0,5	1,127900
13,733667	0,5	1,123250
13,742000	0,5	1,128600
13,750333	0,5	1,126950
13,758667	0,5	1,131250
13,767000	0,5	1,126050
13,775333	0,5	1,128850
13,783667	0,5	1,126050
13,792000	0,5	1,125700
13,800333	0,5	1,124500
13,808667	0,5	1,122050
13,817000	0,5	1,127050
13,825333	0,5	1,130800
13,833667	0,5	1,123350
13,842000	0,5	1,124850
13,850333	0,5	1,132750
13,858667	0,5	1,132200
13,867000	0,5	1,132150
13,875333	0,5	1,122150
13,883667	0,5	1,131700
13,892000	0,5	1,136650
13,900333	0,5	1,147400
13,908667	0,5	1,147800
13,917000	0,5	1,156300
13,925333	0,5	1,155000
13,933667	0,5	1,161850
13,942000	0,5	1,163500
13,950333	0,5	1,167550
13,958667	0,5	1,167350
13,967000	0,5	1,174850
13,975333	0,5	1,181250
13,983667	0,5	1,177150
13,992000	0,5	1,195600
14,000333	0,5	1,199600
14,008667	0,5	1,205550
14,017000	0,5	1,205350
14,025333	0,5	1,204450
14,033667	0,5	1,210500
14,042000	0,5	1,220150
14,050333	0,5	1,219300
14,058667	0,5	1,230150
14,067000	0,5	1,239450
14,075333	0,5	1,251100
14,083667	0,5	1,257600
14,092000	0,5	1,271000
14,100333	0,5	1,275700
14,108667	0,5	1,287500
14,117000	0,5	1,299200
14,125333	0,5	1,311000
14,133667	0,5	1,308400
14,142000	0,5	1,325800
14,150333	0,5	1,332300
14,158667	0,5	1,341450
14,167000	0,5	1,340250
14,175333	0,5	1,342750
14,183667	0,5	1,357700
14,192000	0,5	1,367350
14,200333	0,5	1,383900
14,208667	0,5	1,396150
14,217000	0,5	1,412350
14,225333	0,5	1,425850
14,233667	0,5	1,440500
14,242000	0,5	1,447000
14,250333	0,5	1,458100
14,258667	0,5	1,467050
14,267000	0,5	1,480600
14,275333	0,5	1,482500
14,283667	0,5	1,495050
14,292000	0,5	1,517650
14,300333	0,5	1,531950
14,308667	0,5	1,541300
14,317000	0,5	1,546150
14,325333	0,5	1,552100
14,333667	0,5	1,562700
14,342000	0,5	1,577650
14,350333	0,5	1,591200
14,358667	0,5	1,608650
14,367000	0,5	1,621650
14,375333	0,5	1,638400
14,383667	0,5	1,654900
14,392000	0,5	1,674200
14,400333	0,5	1,687800
14,408667	0,5	1,709450
14,417000	0,5	1,721700
14,425333	0,5	1,727250
14,433667	0,5	1,752700
14,442000	0,5	1,771850
14,450333	0,5	1,774600
14,458667	0,5	1,783500
14,467000	0,5	1,780550
14,475333	0,5	1,792550
14,483667	0,5	1,802000
14,492000	0,5	1,808550
14,500333	0,5	1,814950
14,508667	0,5	1,824000
14,517000	0,5	1,827700
14,525333	0,5	1,828100
14,533667	0,5	1,829900
14,542000	0,5	1,828400
14,550333	0,5	1,830300
14,558667	0,5	1,829400
14,567000	0,5	1,824150
14,575333	0,5	1,814100
14,583667	0,5	1,826350
14,592000	0,5	1,824900
14,600333	0,5	1,815200
14,608667	0,5	1,805500
14,617000	0,5	1,796050
14,625333	0,5	1,799550
14,633667	0,5	1,804600
14,642000	0,5	1,798750
14,650333	0,5	1,799950
14,658667	0,5	1,804650
14,667000	0,5	1,809000
14,675333	0,5	1,814350
14,683667	0,5	1,823950
14,692000	0,5	1,831850
14,700333	0,5	1,838500
14,708667	0,5	1,853750
14,717000	0,5	1,843800
14,725333	0,5	1,843700
14,733667	0,5	1,838850
14,742000	0,5	1,831250
14,750333	0,5	1,811350
14,758667	0,5	1,787800
14,767000	0,5	1,779100
14,775333	0,5	1,785300
14,783667	0,5	1,776250
14,792000	0,5	1,784200
14,800333	0,5	1,787400
14,808667	0,5	1,792900
14,817000	0,5	1,797850
14,825333	0,5	1,811700
14,833667	0,5	1,829500
14,842000	0,5	1,839500
14,850333	0,5	1,855700
14,858667	0,5	1,860750
14,867000	0,5	1,833950
14,875333	0,5	1,823300
14,883667	0,5	1,810850
14,892000	0,5	1,806800
14,900333	0,5	1,818650
14,908667	0,5	1,837050
14,917000	0,5	1,884650
14,925333	0,5	1,916300
14,933667	0,5	1,935850
14,942000	0,5	1,924100
14,950333	0,5	1,899850
14,958667	0,5	1,859350
14,967000	0,5	1,815600
14,975333	0,5	1,776000
14,983667	0,5	1,747950
14,992000	0,5	1,733500
15,000333	0,5	1,732550
15,008667	0,5	1,728950
15,017000	0,5	1,710950
15,025333	0,5	1,704950
15,033667	0,5	1,678950
15,042000	0,5	1,645650
15,050333	0,5	1,609400
15,058667	0,5	1,573400
15,067000	0,5	1,555450
15,075333	0,5	1,549950
15,083667	0,5	1,529700
15,092000	0,5	1,518050
15,100333	0,5	1,505300
15,108667	0,5	1,500850
15,117000	0,5	1,491800
15,125333	0,5	1,490850
15,133667	0,5	1,488850
15,142000	0,5	1,488050
15,150333	0,5	1,489550
15,158667	0,5	1,486950
15,167000	0,5	1,477100
15,175333	0,5	1,482250
15,183667	0,5	1,465050
15,192000	0,5	1,457850
15,200333	0,5	1,441450
15,208667	0,5	1,422600
15,217000	0,5	1,424700
15,225333	0,5	1,419800
15,233667	0,5	1,418600
15,242000	0,5	1,414650
15,250333	0,5	1,409750
15,258667	0,5	1,400250
15,267000	0,5	1,392550
15,275333	0,5	1,382050
15,283667	0,5	1,374300
15,292000	0,5	1,366150
15,300333	0,5	1,357650
15,308667	0,5	1,340800
15,317000	0,5	1,336250
15,325333	0,5	1,334150
15,333667	0,5	1,323750
15,342000	0,5	1,312800
15,350333	0,5	1,293400
15,358667	0,5	1,288900
15,367000	0,5	1,285300
15,375333	0,5	1,278650
15,383667	0,5	1,271700
15,392000	0,5	1,270900
15,400333	0,5	1,264550
15,408667	0,5	1,261050
15,417000	0,5	1,255150
15,425333	0,5	1,251400
15,433667	0,5	1,238900
15,442000	0,5	1,246100
15,450333	0,5	1,234600
15,458667	0,5	1,225700
15,467000	0,5	1,231900
15,475333	0,5	1,233100
15,483667	0,5	1,224150
15,492000	0,5	1,217150
15,500333	0,5	1,203750
15,508667	0,5	1,209450
15,517000	0,5	1,214000
15,525333	0,5	1,216900
15,533667	0,5	1,210250
15,542000	0,5	1,212550
15,550333	0,5	1,209400
15,558667	0,5	1,207700
15,567000	0,5	1,206700
15,575333	0,5	1,196700
15,583667	0,5	1,191200
15,592000	0,5	1,180900
15,600333	0,5	1,162950
15,608667	0,5	1,152850
15,617000	0,5	1,142950
15,625333	0,5	1,135650
15,633667	0,5	1,126600
15,642000	0,5	1,109150
15,650333	0,5	1,107900
15,658667	0,5	1,106400
15,667000	0,5	1,110400
15,675333	0,5	1,107750
15,683667	0,5	1,112850
15,692000	0,5	1,106100
15,700333	0,5	1,102600
15,708667	0,5	1,096450
15,717000	0,5	1,085900
15,725333	0,5	1,071550
15,733667	0,5	1,051450
15,742000	0,5	1,055750
15,750333	0,5	1,031900
15,758667	0,5	1,038050
15,767000	0,5	1,037400
15,775333	0,5	1,033000
15,783667	0,5	1,022350
15,792000	0,5	1,006000
15,800333	0,5	1,000800
15,808667	0,5	1,006000
15,817000	0,5	0,994650
15,825333	0,5	0,996150
15,833667	0,5	0,989900
15,842000	0,5	0,989850
15,850333	0,5	0,982200
15,858667	0,5	0,981550
15,867000	0,5	0,975650
15,875333	0,5	0,971250
15,883667	0,5	0,970600
15,892000	0,5	0,972200
15,900333	0,5	0,956000
15,908667	0,5	0,970450
15,917000	0,5	0,964300
15,925333	0,5	0,962600
15,933667	0,5	0,951350
15,942000	0,5	0,930150
15,950333	0,5	0,938900
15,958667	0,5	0,929800
15,967000	0,5	0,928000
15,975333	0,5	0,920650
15,983667	0,5	0,923750
15,992000	0,5	0,919700
16,000333	0,5	0,923500
16,008667	0,5	0,922350
16,017000	0,5	0,916650
16,025333	0,5	0,914600
16,033667	0,5	0,916300
16,042000	0,5	0,900600
16,050333	0,5	0,888250
16,058667	0,5	0,887750
16,067000	0,5	0,879850
16,075333	0,5	0,867550
16,083667	0,5	0,850000
16,092000	0,5	0,839750
16,100333	0,5	0,835900
16,108667	0,5	0,842200
16,117000	0,5	0,836850
16,125333	0,5	0,841450
16,133667	0,5	0,838750
16,142000	0,5	0,842850
16,150333	0,5	0,840000
16,158667	0,5	0,840950
16,167000	0,5	0,834600
16,175333	0,5	0,835150
16,183667	0,5	0,833000
16,192000	0,5	0,819050
16,200333	0,5	0,818800
16,208667	0,5	0,820100
16,217000	0,5	0,806250
16,225333	0,5	0,796900
16,233667	0,5	0,777400
16,242000	0,5	0,763850
16,250333	0,5	0,764550
16,258667	0,5	0,757150
16,267000	0,5	0,751700
16,275333	0,5	0,741950
16,283667	0,5	0,740600
16,292000	0,5	0,734750
16,300333	0,5	0,731100
16,308667	0,5	0,720350
16,317000	0,5	0,715150
16,325333	0,5	0,714800
16,333667	0,5	0,704800
16,342000	0,5	0,681150
16,350333	0,5	0,677000
16,358667	0,5	0,676600
16,367000	0,5	0,667300
16,375333	0,5	0,649450
16,383667	0,5	0,638900
16,392000	0,5	0,635400
16,400333	0,5	0,631700
16,408667	0,5	0,631450
16,417000	0,5	0,623300
16,425333	0,5	0,617650
16,433667	0,5	0,611850
16,442000	0,5	0,611050
16,450333	0,5	0,604500
16,458667	0,5	0,597100
16,467000	0,5	0,593800
16,475333	0,5	0,598550
16,483667	0,5	0,577850
16,492000	0,5	0,581650
16,500333	0,5	0,584750
16,508667	0,5	0,586750
16,517000	0,5	0,573950
16,525333	0,5	0,560300
16,533667	0,5	0,553150
16,542000	0,5	0,553150
16,550333	0,5	0,546350
16,558667	0,5	0,544800
16,567000	0,5	0,542250
16,575333	0,5	0,536100
16,583667	0,5	0,527850
16,592000	0,5	0,526950
16,600333	0,5	0,519050
16,608667	0,5	0,512650
16,617000	0,5	0,511800
16,625333	0,5	0,505550
16,633667	0,5	0,488800
16,642000	0,5	0,497150
16,650333	0,5	0,497050
16,658667	0,5	0,491700
16,667000	0,5	0,486550
16,675333	0,5	0,468100
16,683667	0,5	0,475350
16,692000	0,5	0,474050
16,700333	0,5	0,474600
16,708667	0,5	0,464850
16,717000	0,5	0,465200
16,725333	0,5	0,462600
16,733667	0,5	0,464950
16,742000	0,5	0,461750
16,750333	0,5	0,459650
16,758667	0,5	0,459100
16,767000	0,5	0,458050
16,775333	0,5	0,461850
16,783667	0,5	0,445100
16,792000	0,5	0,460200
16,800333	0,5	0,463300
16,808667	0,5	0,456900
16,817000	0,5	0,446650
16,825333	0,5	0,426200
16,833667	0,5	0,424550
16,842000	0,5	0,425950
16,850333	0,5	0,412750
16,858667	0,5	0,407350
16,867000	0,5	0,397950
16,875333	0,5	0,394350
16,883667	0,5	0,384850
16,892000	0,5	0,381900
16,900333	0,5	0,370450
16,908667	0,5	0,358350
16,917000	0,5	0,358150
16,925333	0,5	0,347550
16,933667	0,5	0,337100
16,942000	0,5	0,341900
16,950333	0,5	0,335250
16,958667	0,5	0,321100
16,967000	0,5	0,310750
16,975333	0,5	0,290800
16,983667	0,5	0,296150
16,992000	0,5	0,286850
17,000333	0,5	0,287550
17,008667	0,5	0,279950
17,017000	0,5	0,280250
17,025333	0,5	0,272750
17,033667	0,5	0,279750
17,042000	0,5	0,277050
17,050333	0,5	0,279100
17,058667	0,5	0,284000
17,067000	0,5	0,288400
17,075333	0,5	0,288150
17,083667	0,5	0,298900
17,092000	0,5	0,315900
17,100333	0,5	0,324450
17,108667	0,5	0,339450
17,117000	0,5	0,341850
17,125333	0,5	0,350500
17,133667	0,5	0,358050
17,142000	0,5	0,369150
17,150333	0,5	0,362800
17,158667	0,5	0,355550
17,167000	0,5	0,345000
17,175333	0,5	0,336550
17,183667	0,5	0,320050
17,192000	0,5	0,306800
17,200333	0,5	0,295150
17,208667	0,5	0,293100
17,217000	0,5	0,286550
17,225333	0,5	0,272300
17,233667	0,5	0,278000
17,242000	0,5	0,284850
17,250333	0,5	0,285100
17,258667	0,5	0,278200
17,267000	0,5	0,271900
17,275333	0,5	0,276600
17,283667	0,5	0,291900
17,292000	0,5	0,299150
17,300333	0,5	0,310950
17,308667	0,5	0,317700
17,317000	0,5	0,332500
17,325333	0,5	0,339400
17,333667	0,5	0,353600
17,342000	0,5	0,364250
17,350333	0,5	0,376300
17,358667	0,5	0,386750
17,367000	0,5	0,390600
17,375333	0,5	0,393850
17,383667	0,5	0,419350
17,392000	0,5	0,424250
17,400333	0,5	0,427750
17,408667	0,5	0,423700
17,417000	0,5	0,427200
17,425333	0,5	0,438900
17,433667	0,5	0,440750
17,442000	0,5	0,451750
17,450333	0,5	0,457200
17,458667	0,5	0,465750
17,467000	0,5	0,471500
17,475333	0,5	0,486600
17,483667	0,5	0,489650
17,492000	0,5	0,499350
17,500333	0,5	0,505500
17,508667	0,5	0,517450
17,517000	0,5	0,498650
17,525333	0,5	0,515450
17,533667	0,5	0,516550
17,542000	0,5	0,513750
17,550333	0,5	0,503950
17,558667	0,5	0,482200
17,567000	0,5	0,480950
17,575333	0,5	0,481200
17,583667	0,5	0,473450
17,592000	0,5	0,466100
17,600333	0,5	0,462300
17,608667	0,5	0,456700
17,617000	0,5	0,456100
17,625333	0,5	0,448650
17,633667	0,5	0,446800
17,642000	0,5	0,435900
17,650333	0,5	0,451450
17,658667	0,5	0,446200
17,667000	0,5	0,429450
17,675333	0,5	0,438350
17,683667	0,5	0,441750
17,692000	0,5	0,434200
17,700333	0,5	0,440250
17,708667	0,5	0,435100
17,717000	0,5	0,467850
17,725333	0,5	0,488300
17,733667	0,5	0,508700
17,742000	0,5	0,517150
17,750333	0,5	0,524100
17,758667	0,5	0,525500
17,767000	0,5	0,508050
17,775333	0,5	0,488650
17,783667	0,5	0,456750
17,792000	0,5	0,425200
17,800333	0,5	0,394100
17,808667	0,5	0,362950
17,817000	0,5	0,324100
17,825333	0,5	0,317050
17,833667	0,5	0,292900
17,842000	0,5	0,277000
17,850333	0,5	0,250650
17,858667	0,5	0,228800
17,867000	0,5	0,219350
17,875333	0,5	0,214300
17,883667	0,5	0,195600
17,892000	0,5	0,189300
17,900333	0,5	0,179150
17,908667	0,5	0,169200
17,917000	0,5	0,164850
17,925333	0,5	0,155500
17,933667	0,5	0,150150
17,942000	0,5	0,139500
17,950333	0,5	0,141350
17,958667	0,5	0,125800
17,967000	0,5	0,122800
17,975333	0,5	0,120650
17,983667	0,5	0,112750
17,992000	0,5	0,094600
18,000333	0,5	0,072850
18,008667	0,5	0,063850
18,017000	0,5	0,066050
18,025333	0,5	0,052450
18,033667	0,5	0,051800
18,042000	0,5	0,038500
18,050333	0,5	0,035750
18,058667	0,5	0,028100
18,067000	0,5	0,024500
18,075333	0,5	0,020550
18,083667	0,5	0,013650
18,092000	0,5	0,015700
18,100333	0,5	0,010250
18,108667	0,5	-0,008600
18,117000	0,5	-0,003400
18,125333	0,5	-0,012150
18,133667	0,5	-0,021500
18,142000	0,5	-0,035150
18,150333	0,5	-0,058200
18,158667	0,5	-0,060600
18,167000	0,5	-0,070000
18,175333	0,5	-0,072700
18,183667	0,5	-0,080350
18,192000	0,5	-0,081850
18,200333	0,5	-0,088300
18,208667	0,5	-0,087650
18,217000	0,5	-0,093300
18,225333	0,5	-0,103900
18,233667	0,5	-0,106500
18,242000	0,5	-0,106650
18,250333	0,5	-0,127700
18,258667	0,5	-0,129150
18,267000	0,5	-0,128450
18,275333	0,5	-0,141850
18,283667	0,5	-0,153200
18,292000	0,5	-0,176050
18,300333	0,5	-0,186400
18,308667	0,5	-0,201250
18,317000	0,5	-0,199200
18,325333	0,5	-0,212900
18,333667	0,5	-0,210550
18,342000	0,5	-0,218050
18,350333	0,5	-0,222600
18,358667	0,5	-0,229850
18,367000	0,5	-0,234850
18,375333	0,5	-0,242550
18,383667	0,5	-0,242950
18,392000	0,5	-0,246850
18,400333	0,5	-0,266450
18,408667	0,5	-0,264400
18,417000	0,5	-0,263000
18,425333	0,5	-0,271900
18,433667	0,5	-0,282500
18,442000	0,5	-0,301450
18,450333	0,5	-0,306100
18,458667	0,5	-0,306250
18,467000	0,5	-0,314350
18,475333	0,5	-0,316300
18,483667	0,5	-0,322700
18,492000	0,5	-0,324600
18,500333	0,5	-0,328600
18,508667	0,5	-0,329450
18,517000	0,5	-0,336150
18,525333	0,5	-0,338300
18,533667	0,5	-0,330750
18,542000	0,5	-0,329850
18,550333	0,5	-0,350350
18,558667	0,5	-0,339100
18,567000	0,5	-0,339950
18,575333	0,5	-0,346800
18,583667	0,5	-0,354550
18,592000	0,5	-0,375950
18,600333	0,5	-0,363500
18,608667	0,5	-0,368050
18,617000	0,5	-0,365100
18,625333	0,5	-0,372850
18,633667	0,5	-0,367100
18,642000	0,5	-0,367300
18,650333	0,5	-0,362000
18,658667	0,5	-0,359350
18,667000	0,5	-0,355150
18,675333	0,5	-0,348050
18,683667	0,5	-0,337350
18,692000	0,5	-0,340750
18,700333	0,5	-0,332650
18,708667	0,5	-0,320750
18,717000	0,5	-0,310550
18,725333	0,5	-0,311350
18,733667	0,5	-0,313300
18,742000	0,5	-0,305150
18,750333	0,5	-0,288800
18,758667	0,5	-0,279200
18,767000	0,5	-0,270800
18,775333	0,5	-0,260300
18,783667	0,5	-0,256850
18,792000	0,5	-0,244900
18,800333	0,5	-0,245000
18,808667	0,5	-0,237250
18,817000	0,5	-0,237400
18,825333	0,5	-0,237650
18,833667	0,5	-0,236900
18,842000	0,5	-0,252500
18,850333	0,5	-0,249500
18,858667	0,5	-0,253750
18,867000	0,5	-0,261150
18,875333	0,5	-0,275250
18,883667	0,5	-0,300450
18,892000	0,5	-0,307700
18,900333	0,5	-0,315350
18,908667	0,5	-0,322600
18,917000	0,5	-0,339750
18,925333	0,5	-0,344900
18,933667	0,5	-0,351200
18,942000	0,5	-0,361500
18,950333	0,5	-0,367250
18,958667	0,5	-0,380600
18,967000	0,5	-0,385600
18,975333	0,5	-0,399750
18,983667	0,5	-0,396350
18,992000	0,5	-0,419800
19,000333	0,5	-0,408750
19,008667	0,5	-0,419400
19,017000	0,5	-0,426400
19,025333	0,5	-0,449250
19,033667	0,5	-0,470300
19,042000	0,5	-0,476150
19,050333	0,5	-0,477450
19,058667	0,5	-0,485900
19,067000	0,5	-0,491700
19,075333	0,5	-0,499450
19,083667	0,5	-0,501350
19,092000	0,5	-0,505450
19,100333	0,5	-0,511200
19,108667	0,5	-0,516350
19,117000	0,5	-0,513900
19,125333	0,5	-0,504700
19,133667	0,5	-0,513000
19,142000	0,5	-0,507050
19,150333	0,5	-0,493450
19,158667	0,5	-0,494650
19,167000	0,5	-0,492250
19,175333	0,5	-0,502600
19,183667	0,5	-0,512950
19,192000	0,5	-0,511800
19,200333	0,5	-0,519400
19,208667	0,5	-0,525500
19,217000	0,5	-0,538150
19,225333	0,5	-0,545900
19,233667	0,5	-0,564050
19,242000	0,5	-0,573000
19,250333	0,5	-0,588200
19,258667	0,5	-0,603800
19,267000	0,5	-0,607750
19,275333	0,5	-0,622800
19,283667	0,5	-0,643400
19,292000	0,5	-0,650900
19,300333	0,5	-0,649350
19,308667	0,5	-0,665450
19,317000	0,5	-0,679000
19,325333	0,5	-0,703500
19,333667	0,5	-0,704900
19,342000	0,5	-0,714750
19,350333	0,5	-0,711150
19,358667	0,5	-0,721850
19,367000	0,5	-0,719200
19,375333	0,5	-0,724150
19,383667	0,5	-0,726050
19,392000	0,5	-0,735000
19,400333	0,5	-0,742300
19,408667	0,5	-0,743350
19,417000	0,5	-0,744150
19,425333	0,5	-0,759300
19,433667	0,5	-0,769150
19,442000	0,5	-0,764900
19,450333	0,5	-0,774500
19,458667	0,5	-0,783600
19,467000	0,5	-0,805050
19,475333	0,5	-0,818100
19,483667	0,5	-0,817600
19,492000	0,5	-0,818800
19,500333	0,5	-0,832000
19,508667	0,5	-0,831600
19,517000	0,5	-0,843700
19,525333	0,5	-0,842950
19,533667	0,5	-0,852550
19,542000	0,5	-0,856600
19,550333	0,5	-0,863800
19,558667	0,5	-0,873400
19,567000	0,5	-0,872550
19,575333	0,5	-0,893800
19,583667	0,5	-0,890000
19,592000	0,5	-0,887550
19,600333	0,5	-0,894050
19,608667	0,5	-0,909200
19,617000	0,5	-0,936800
19,625333	0,5	-0,939050
19,633667	0,5	-0,935700
19,642000	0,5	-0,953650
19,650333	0,5	-0,950750
19,658667	0,5	-0,962350
19,667000	0,5	-0,960800
19,675333	0,5	-0,971800
19,683667	0,5	-0,972500
19,692000	0,5	-0,980700
19,700333	0,5	-0,988550
19,708667	0,5	-0,985600
19,717000	0,5	-0,985550
19,725333	0,5	-1,012550
19,733667	0,5	-0,998100
19,742000	0,5	-1,005950
19,750333	0,5	-1,014800
19,758667	0,5	-1,027600
19,767000	0,5	-1,052400
19,775333	0,5	-1,040100
19,783667	0,5	-1,049050
19,792000	0,5	-1,050150
19,800333	0,5	-1,063650
19,808667	0,5	-1,061100
19,817000	0,5	-1,068500
19,825333	0,5	-1,066750
19,833667	0,5	-1,076350
19,842000	0,5	-1,079800
19,850333	0,5	-1,081150
19,858667	0,5	-1,079750
19,867000	0,5	-1,086600
19,875333	0,5	-1,097450
19,883667	0,5	-1,088200
19,892000	0,5	-1,095400
19,900333	0,5	-1,104700
19,908667	0,5	-1,118000
19,917000	0,5	-1,130850
19,925333	0,5	-1,133900
19,933667	0,5	-1,127850
19,942000	0,5	-1,139250
19,950333	0,5	-1,136600
19,958667	0,5	-1,145650
19,967000	0,5	-1,145650
19,975333	0,5	-1,151100
19,983667	0,5	-1,149500
19,992000	0,5	-1,154050
20,000333	0,5	-1,158600
20,008667	0,5	-1,158650
20,017000	0,5	-1,170950
20,025333	0,5	-1,167050
20,033667	0,5	-1,161800
20,042000	0,5	-1,166800
20,050333	0,5	-1,187150
20,058667	0,5	-1,208750
20,067000	0,5	-1,220750
20,075333	0,5	-1,224600
20,083667	0,5	-1,235450
20,092000	0,5	-1,240300
20,100333	0,5	-1,246450
20,108667	0,5	-1,247700
20,117000	0,5	-1,250750
20,125333	0,5	-1,252250
20,133667	0,5	-1,256900
20,142000	0,5	-1,256300
20,150333	0,5	-1,248300
20,158667	0,5	-1,249100
20,167000	0,5	-1,262750
20,175333	0,5	-1,253050
20,183667	0,5	-1,253450
20,192000	0,5	-1,258450
20,200333	0,5	-1,272850
20,208667	0,5	-1,285150
20,217000	0,5	-1,284800
20,225333	0,5	-1,286250
20,233667	0,5	-1,284300
20,242000	0,5	-1,289500
20,250333	0,5	-1,289600
20,258667	0,5	-1,294100
20,267000	0,5	-1,290300
20,275333	0,5	-1,293500
20,283667	0,5	-1,295450
20,292000	0,5	-1,292950
20,300333	0,5	-1,283000
20,308667	0,5	-1,297550
20,317000	0,5	-1,294550
20,325333	0,5	-1,292850
20,333667	0,5	-1,295050
20,342000	0,5	-1,303800
20,350333	0,5	-1,320350
20,358667	0,5	-1,322300
20,367000	0,5	-1,325850
20,375333	0,5	-1,323250
20,383667	0,5	-1,326550
20,392000	0,5	-1,322950
20,400333	0,5	-1,326750
20,408667	0,5	-1,320100
20,417000	0,5	-1,318700
20,425333	0,5	-1,312200
20,433667	0,5	-1,313500
20,442000	0,5	-1,290550
20,450333	0,5	-1,282900
20,458667	0,5	-1,294100
20,467000	0,5	-1,289050
20,475333	0,5	-1,283950
20,483667	0,5	-1,298050
20,492000	0,5	-1,298500
20,500333	0,5	-1,317200
20,508667	0,5	-1,307000
20,517000	0,5	-1,303250
20,525333	0,5	-1,301650
20,533667	0,5	-1,303350
20,542000	0,5	-1,302300
20,550333	0,5	-1,304550
20,558667	0,5	-1,306000
20,567000	0,5	-1,303000
20,575333	0,5	-1,308900
20,583667	0,5	-1,305150
20,592000	0,5	-1,290550
20,600333	0,5	-1,293250
20,608667	0,5	-1,309300
20,617000	0,5	-1,305950
20,625333	0,5	-1,310400
20,633667	0,5	-1,319850
20,642000	0,5	-1,340700
20,650333	0,5	-1,354600
20,658667	0,5	-1,350150
20,667000	0,5	-1,353650
20,675333	0,5	-1,359300
20,683667	0,5	-1,359800
20,692000	0,5	-1,360350
20,700333	0,5	-1,365850
20,708667	0,5	-1,368950
20,717000	0,5	-1,372600
20,725333	0,5	-1,371750
20,733667	0,5	-1,363150
20,742000	0,5	-1,349950
20,750333	0,5	-1,360550
20,758667	0,5	-1,362600
20,767000	0,5	-1,367400
20,775333	0,5	-1,371000
20,783667	0,5	-1,390750
20,792000	0,5	-1,407750
20,800333	0,5	-1,406050
20,808667	0,5	-1,398450
20,817000	0,5	-1,403100
20,825333	0,5	-1,400800
20,833667	0,5	-1,403400
20,842000	0,5	-1,406800
20,850333	0,5	-1,404100
20,858667	0,5	-1,400900
20,867000	0,5	-1,397400
20,875333	0,5	-1,394900
20,883667	0,5	-1,368650
20,892000	0,5	-1,357850
20,900333	0,5	-1,365850
20,908667	0,5	-1,362850
20,917000	0,5	-1,368150
20,925333	0,5	-1,374750
20,933667	0,5	-1,383350
20,942000	0,5	-1,399500
20,950333	0,5	-1,389250
20,958667	0,5	-1,388800
20,967000	0,5	-1,382900
20,975333	0,5	-1,379700
20,983667	0,5	-1,376400
20,992000	0,5	-1,370250
21,000333	0,5	-1,366400
21,008667	0,5	-1,361350
21,017000	0,5	-1,365250
21,025333	0,5	-1,345050
21,033667	0,5	-1,327000
21,042000	0,5	-1,320900
21,050333	0,5	-1,327150
21,058667	0,5	-1,322200
21,067000	0,5	-1,327250
21,075333	0,5	-1,336350
21,083667	0,5	-1,357300
21,092000	0,5	-1,355100
21,100333	0,5	-1,357900
21,108667	0,5	-1,343550
21,117000	0,5	-1,342900
21,125333	0,5	-1,339800
21,133667	0,5	-1,340250
21,142000	0,5	-1,335700
21,150333	0,5	-1,327850
21,158667	0,5	-1,331200
21,167000	0,5	-1,323750
21,175333	0,5	-1,296950
21,183667	0,5	-1,276500
21,192000	0,5	-1,274450
21,200333	0,5	-1,274250
21,208667	0,5	-1,272550
21,217000	0,5	-1,275250
21,225333	0,5	-1,286600
21,233667	0,5	-1,293300
21,242000	0,5	-1,289050
21,250333	0,5	-1,281400
21,258667	0,5	-1,279250
21,267000	0,5	-1,271000
21,275333	0,5	-1,269950
21,283667	0,5	-1,264400
21,292000	0,5	-1,254600
21,300333	0,5	-1,250300
21,308667	0,5	-1,240650
21,317000	0,5	-1,230350
21,325333	0,5	-1,199750
21,333667	0,5	-1,189000
21,342000	0,5	-1,197150
21,350333	0,5	-1,197350
21,358667	0,5	-1,192350
21,367000	0,5	-1,202250
21,375333	0,5	-1,214400
21,383667	0,5	-1,210600
21,392000	0,5	-1,203650
21,400333	0,5	-1,205500
21,408667	0,5	-1,193800
21,417000	0,5	-1,193050
21,425333	0,5	-1,182350
21,433667	0,5	-1,179350
21,442000	0,5	-1,172200
21,450333	0,5	-1,165550
21,458667	0,5	-1,163150
21,467000	0,5	-1,134800
21,475333	0,5	-1,115000
21,483667	0,5	-1,118550
21,492000	0,5	-1,111000
21,500333	0,5	-1,100150
21,508667	0,5	-1,101850
21,517000	0,5	-1,098300
21,525333	0,5	-1,100950
21,533667	0,5	-1,075800
21,542000	0,5	-1,059100
21,550333	0,5	-1,032800
21,558667	0,5	-1,012750
21,567000	0,5	-0,977950
21,575333	0,5	-0,943900
21,583667	0,5	-0,909750
21,592000	0,5	-0,887650
21,600333	0,5	-0,886050
21,608667	0,5	-0,884650
21,617000	0,5	-0,869700
21,625333	0,5	-0,874100
21,633667	0,5	-0,890750
21,642000	0,5	-0,888700
21,650333	0,5	-0,891050
21,658667	0,5	-0,892150
21,667000	0,5	-0,898100
21,675333	0,5	-0,890700
21,683667	0,5	-0,878150
21,692000	0,5	-0,866600
21,700333	0,5	-0,859950
21,708667	0,5	-0,846150
21,717000	0,5	-0,833200
21,725333	0,5	-0,817800
21,733667	0,5	-0,798350
21,742000	0,5	-0,783900
21,750333	0,5	-0,761450
21,758667	0,5	-0,732000
21,767000	0,5	-0,699000
21,775333	0,5	-0,689950
21,783667	0,5	-0,657800
21,792000	0,5	-0,646150
21,800333	0,5	-0,628650
21,808667	0,5	-0,624900
21,817000	0,5	-0,622350
21,825333	0,5	-0,601150
21,833667	0,5	-0,574850
21,842000	0,5	-0,559800
21,850333	0,5	-0,541500
21,858667	0,5	-0,529250
21,867000	0,5	-0,511700
21,875333	0,5	-0,499100
21,883667	0,5	-0,485400
21,892000	0,5	-0,465450
21,900333	0,5	-0,447850
21,908667	0,5	-0,410250
21,917000	0,5	-0,394850
21,925333	0,5	-0,382350
21,933667	0,5	-0,357200
21,942000	0,5	-0,340600
21,950333	0,5	-0,326200
21,958667	0,5	-0,312950
21,967000	0,5	-0,304300
21,975333	0,5	-0,274100
21,983667	0,5	-0,247850
21,992000	0,5	-0,217000
22,000333	0,5	-0,191050
22,008667	0,5	-0,162950
22,017000	0,5	-0,133850
22,025333	0,5	-0,105450
22,033667	0,5	-0,078100
22,042000	0,5	-0,057550
22,050333	0,5	-0,028300
22,058667	0,5	-0,000700
22,067000	0,5	0,022250
22,075333	0,5	0,059850
22,083667	0,5	0,101300
22,092000	0,5	0,127500
22,100333	0,5	0,157100
22,108667	0,5	0,179900
22,117000	0,5	0,223650
22,125333	0,5	0,267950
22,133667	0,5	0,318400
22,142000	0,5	0,361900
22,150333	0,5	0,410800
22,158667	0,5	0,450300
22,167000	0,5	0,489950
22,175333	0,5	0,533450
22,183667	0,5	0,571900
22,192000	0,5	0,616350
22,200333	0,5	0,639800
22,208667	0,5	0,680050
22,217000	0,5	0,728600
22,225333	0,5	0,783850
22,233667	0,5	0,826250
22,242000	0,5	0,869150
22,250333	0,5	0,895500
22,258667	0,5	0,941200
22,267000	0,5	0,991050
22,275333	0,5	1,047450
22,283667	0,5	1,093500
22,292000	0,5	1,139400
22,300333	0,5	1,179600
22,308667	0,5	1,223850
22,317000	0,5	1,268250
22,325333	0,5	1,308550
22,333667	0,5	1,361750
22,342000	0,5	1,390050
22,350333	0,5	1,439550
22,358667	0,5	1,475850
22,367000	0,5	1,550800
22,375333	0,5	1,605400
22,383667	0,5	1,658650
22,392000	0,5	1,702900
22,400333	0,5	1,750100
22,408667	0,5	1,811600
22,417000	0,5	1,877650
22,425333	0,5	1,936600
22,433667	0,5	1,999950
22,442000	0,5	2,054000
22,450333	0,5	2,120000
22,458667	0,5	2,175350
22,467000	0,5	2,234600
22,475333	0,5	2,294250
22,483667	0,5	2,348200
22,492000	0,5	2,377050
22,500333	0,5	2,433150
22,508667	0,5	2,508000
22,517000	0,5	2,564100
22,525333	0,5	2,641400
22,533667	0,5	2,676750
22,542000	0,5	2,719250
22,550333	0,5	2,754100
22,558667	0,5	2,812800
22,567000	0,5	2,844900
22,575333	0,5	2,881350
22,583667	0,5	2,903700
22,592000	0,5	2,927950
22,600333	0,5	2,942750
22,608667	0,5	2,956350
22,617000	0,5	2,958850
22,625333	0,5	2,950700
22,633667	0,5	2,921350
22,642000	0,5	2,872700
22,650333	0,5	2,860150
22,658667	0,5	2,845400
22,667000	0,5	2,807950
22,675333	0,5	2,741550
22,683667	0,5	2,672600
22,692000	0,5	2,583150
22,700333	0,5	2,506700
22,708667	0,5	2,423700
22,717000	0,5	2,345000
22,725333	0,5	2,250250
22,733667	0,5	2,157250
22,742000	0,5	2,058900
22,750333	0,5	1,960850
22,758667	0,5	1,851950
22,767000	0,5	1,740450
22,775333	0,5	1,616300
22,783667	0,5	1,439200
22,792000	0,5	1,331000
22,800333	0,5	1,199550
22,808667	0,5	1,072150
22,817000	0,5	0,925350
22,825333	0,5	0,768400
22,833667	0,5	0,625000
22,842000	0,5	0,477300
22,850333	0,5	0,327400
22,858667	0,5	0,175750
22,867000	0,5	0,039450
22,875333	0,5	-0,099400
22,883667	0,5	-0,224550
22,892000	0,5	-0,357350
22,900333	0,5	-0,486300
22,908667	0,5	-0,612850
22,917000	0,5	-0,736400
22,925333	0,5	-0,849450
22,933667	0,5	-0,981850
22,942000	0,5	-1,085650
22,950333	0,5	-1,215200
22,958667	0,5	-1,350600
22,967000	0,5	-1,448700
22,975333	0,5	-1,543200
22,983667	0,5	-1,630800
22,992000	0,5	-1,708350
23,000333	0,5	-1,796600
23,008667	0,5	-1,858850
23,017000	0,5	-1,923200
23,025333	0,5	-1,983600
23,033667	0,5	-2,037300
23,042000	0,5	-2,083500
23,050333	0,5	-2,139250
23,058667	0,5	-2,186750
23,067000	0,5	-2,228750
23,075333	0,5	-2,243500
23,083667	0,5	-2,298900
23,092000	0,5	-2,327800
23,100333	0,5	-2,396950
23,108667	0,5	-2,447000
23,117000	0,5	-2,464800
23,125333	0,5	-2,485550
23,133667	0,5	-2,488200
23,142000	0,5	-2,504200
23,150333	0,5	-2,506050
23,158667	0,5	-2,509700
23,167000	0,5	-2,497550
23,175333	0,5	-2,495900
23,183667	0,5	-2,482950
23,192000	0,5	-2,474150
23,200333	0,5	-2,457500
23,208667	0,5	-2,448900
23,217000	0,5	-2,437400
23,225333	0,5	-2,435150
23,233667	0,5	-2,418700
23,242000	0,5	-2,390550
23,250333	0,5	-2,405450
23,258667	0,5	-2,416500
23,267000	0,5	-2,403850
23,275333	0,5	-2,385050
23,283667	0,5	-2,363800
23,292000	0,5	-2,343600
23,300333	0,5	-2,325100
23,308667	0,5	-2,296250
23,317000	0,5	-2,267350
23,325333	0,5	-2,232400
23,333667	0,5	-2,201150
23,342000	0,5	-2,169100
23,350333	0,5	-2,141150
23,358667	0,5	-2,106800
23,367000	0,5	-2,073400
23,375333	0,5	-2,102200
23,383667	0,5	-2,048550
23,392000	0,5	-1,984750
23,400333	0,5	-1,979550
23,408667	0,5	-1,972000
23,417000	0,5	-1,955650
23,425333	0,5	-1,934050
23,433667	0,5	-1,914450
23,442000	0,5	-1,900450
23,450333	0,5	-1,876500
23,458667	0,5	-1,855900
23,467000	0,5	-1,835000
23,475333	0,5	-1,812400
23,483667	0,5	-1,787050
23,492000	0,5	-1,765750
23,500333	0,5	-1,740900
23,508667	0,5	-1,721500
23,517000	0,5	-1,772550
23,525333	0,5	-1,750300
23,533667	0,5	-1,726450
23,542000	0,5	-1,644250
23,550333	0,5	-1,629700
23,558667	0,5	-1,616900
23,567000	0,5	-1,605650
23,575333	0,5	-1,594250
23,583667	0,5	-1,578400
23,592000	0,5	-1,563150
23,600333	0,5	-1,547500
23,608667	0,5	-1,533850
23,617000	0,5	-1,519550
23,625333	0,5	-1,509000
23,633667	0,5	-1,494800
23,642000	0,5	-1,482450
23,650333	0,5	-1,469700
23,658667	0,5	-1,465300
23,667000	0,5	-1,588100
23,675333	0,5	-1,542300
23,683667	0,5	-1,506350
23,692000	0,5	-1,451850
23,700333	0,5	-1,433350
23,708667	0,5	-1,426400
23,717000	0,5	-1,418450
23,725333	0,5	-1,419200
23,733667	0,5	-1,402700
23,742000	0,5	-1,386550
23,750333	0,5	-1,370600
23,758667	0,5	-1,357300
23,767000	0,5	-1,340950
23,775333	0,5	-1,323650
23,783667	0,5	-1,308200
23,792000	0,5	-1,290400
23,800333	0,5	-1,282750
23,808667	0,5	-1,315100
23,817000	0,5	-1,409250
23,825333	0,5	-1,349550
23,833667	0,5	-1,311950
23,842000	0,5	-1,254000
23,850333	0,5	-1,246200
23,858667	0,5	-1,235100
23,867000	0,5	-1,240450
23,875333	0,5	-1,239800
23,883667	0,5	-1,227700
23,892000	0,5	-1,211300
23,900333	0,5	-1,201650
23,908667	0,5	-1,184550
23,917000	0,5	-1,173350
23,925333	0,5	-1,157350
23,933667	0,5	-1,140950
23,942000	0,5	-1,127950
23,950333	0,5	-1,114500
23,958667	0,5	-1,221300
23,967000	0,5	-1,211300
23,975333	0,5	-1,168450
23,983667	0,5	-1,111200
23,992000	0,5	-1,070400
24,000333	0,5	-1,049150
24,008667	0,5	-1,037750
24,017000	0,5	-1,032450
24,025333	0,5	-1,029950
24,033667	0,5	-0,999300
24,042000	0,5	-0,987500
24,050333	0,5	-0,965950
24,058667	0,5	-0,955100
24,067000	0,5	-0,931750
24,075333	0,5	-0,918850
24,083667	0,5	-0,900500
24,092000	0,5	-0,883400
24,100333	0,5	-0,876400
24,108667	0,5	-0,973600
24,117000	0,5	-0,951450
24,125333	0,5	-0,921200
24,133667	0,5	-0,869200
24,142000	0,5	-0,837800
24,150333	0,5	-0,823400
24,158667	0,5	-0,815800
24,167000	0,5	-0,818600
24,175333	0,5	-0,797850
24,183667	0,5	-0,783300
24,192000	0,5	-0,759900
24,200333	0,5	-0,741500
24,208667	0,5	-0,716750
24,217000	0,5	-0,699050
24,225333	0,5	-0,672950
24,233667	0,5	-0,655250
24,242000	0,5	-0,638800
24,250333	0,5	-0,657200
24,258667	0,5	-0,700650
24,267000	0,5	-0,677100
24,275333	0,5	-0,630250
24,283667	0,5	-0,595050
24,292000	0,5	-0,571600
24,300333	0,5	-0,566000
24,308667	0,5	-0,559250
24,317000	0,5	-0,553700
24,325333	0,5	-0,542300
24,333667	0,5	-0,523250
24,342000	0,5	-0,514900
24,350333	0,5	-0,499250
24,358667	0,5	-0,488200
24,367000	0,5	-0,470850
24,375333	0,5	-0,456950
24,383667	0,5	-0,438650
24,392000	0,5	-0,429450
24,400333	0,5	-0,476000
24,408667	0,5	-0,468250
24,417000	0,5	-0,449500
24,425333	0,5	-0,412150
24,433667	0,5	-0,378250
24,442000	0,5	-0,360900
24,450333	0,5	-0,346150
24,458667	0,5	-0,352350
24,467000	0,5	-0,335150
24,475333	0,5	-0,314650
24,483667	0,5	-0,305600
24,492000	0,5	-0,295000
24,500333	0,5	-0,281450
24,508667	0,5	-0,266100
24,517000	0,5	-0,255800
24,525333	0,5	-0,241750
24,533667	0,5	-0,233400
24,542000	0,5	-0,222900
24,550333	0,5	-0,273950
24,558667	0,5	-0,245150
24,567000	0,5	-0,242850
24,575333	0,5	-0,210950
24,583667	0,5	-0,196650
24,592000	0,5	-0,186150
24,600333	0,5	-0,184150
24,608667	0,5	-0,186150
24,617000	0,5	-0,170900
24,625333	0,5	-0,154700
24,633667	0,5	-0,146700
24,642000	0,5	-0,135100
24,650333	0,5	-0,124000
24,658667	0,5	-0,113100
24,667000	0,5	-0,101550
24,675333	0,5	-0,090000
24,683667	0,5	-0,076600
24,692000	0,5	-0,086600
24,700333	0,5	-0,095200
24,708667	0,5	-0,080850
24,717000	0,5	-0,066850
24,725333	0,5	-0,047100
24,733667	0,5	-0,035100
24,742000	0,5	-0,029750
24,750333	0,5	-0,027600
24,758667	0,5	-0,030550
24,767000	0,5	-0,021050
24,775333	0,5	-0,017500
24,783667	0,5	-0,007350
24,792000	0,5	-0,004100
24,800333	0,5	0,002550
24,808667	0,5	0,012350
24,817000	0,5	0,023250
24,825333	0,5	0,030300
24,833667	0,5	0,039200
24,842000	0,5	0,027500
24,850333	0,5	0,028150
24,858667	0,5	0,038750
24,867000	0,5	0,052600
24,875333	0,5	0,067500
24,883667	0,5	0,075050
24,892000	0,5	0,081900
24,900333	0,5	0,082900
24,908667	0,5	0,083600
24,917000	0,5	0,091300
24,925333	0,5	0,102050
24,933667	0,5	0,105400
24,942000	0,5	0,112100
24,950333	0,5	0,115500
24,958667	0,5	0,123900
24,967000	0,5	0,130750
24,975333	0,5	0,132750
24,983667	0,5	0,141500
24,992000	0,5	0,126300
25,000333	0,5	0,136250
25,008667	0,5	0,139300
25,017000	0,5	0,147250
25,025333	0,5	0,154800
25,033667	0,5	0,156500
25,042000	0,5	0,158750
25,050333	0,5	0,160850
25,058667	0,5	0,163350
25,067000	0,5	0,168950
25,075333	0,5	0,175350
25,083667	0,5	0,182200
25,092000	0,5	0,185300
25,100333	0,5	0,191100
25,108667	0,5	0,195100
25,117000	0,5	0,202250
25,125333	0,5	0,208150
25,133667	0,5	0,209250
25,142000	0,5	0,210450
25,150333	0,5	0,213300
25,158667	0,5	0,218550
25,167000	0,5	0,220050
25,175333	0,5	0,223750
25,183667	0,5	0,227100
25,192000	0,5	0,225900
25,200333	0,5	0,225450
25,208667	0,5	0,226600
25,217000	0,5	0,226200
25,225333	0,5	0,230250
25,233667	0,5	0,231550
25,242000	0,5	0,234000
25,250333	0,5	0,236150
25,258667	0,5	0,240350
25,267000	0,5	0,247200
25,275333	0,5	0,248600
25,283667	0,5	0,251950
25,292000	0,5	0,256450
25,300333	0,5	0,257650
25,308667	0,5	0,259900
25,317000	0,5	0,263000
25,325333	0,5	0,267100
25,333667	0,5	0,266400
25,342000	0,5	0,269550
25,350333	0,5	0,270600
25,358667	0,5	0,273550
25,367000	0,5	0,274850
25,375333	0,5	0,274950
25,383667	0,5	0,272850
25,392000	0,5	0,274450
25,400333	0,5	0,276700
25,408667	0,5	0,278350
25,417000	0,5	0,278450
25,425333	0,5	0,280850
25,433667	0,5	0,284700
25,442000	0,5	0,284750
25,450333	0,5	0,289800
25,458667	0,5	0,286650
25,467000	0,5	0,286950
25,475333	0,5	0,289450
25,483667	0,5	0,289350
25,492000	0,5	0,298200
25,500333	0,5	0,296450
25,508667	0,5	0,297700
25,517000	0,5	0,298750
25,525333	0,5	0,301850
25,533667	0,5	0,299850
25,542000	0,5	0,300800
25,550333	0,5	0,304550
25,558667	0,5	0,303150
25,567000	0,5	0,304250
25,575333	0,5	0,307200
25,583667	0,5	0,314550
25,592000	0,5	0,308300
25,600333	0,5	0,316000
25,608667	0,5	0,303600
25,617000	0,5	0,306800
25,625333	0,5	0,305150
25,633667	0,5	0,308150
25,642000	0,5	0,314800
25,650333	0,5	0,315150
25,658667	0,5	0,311700
25,667000	0,5	0,313850
25,675333	0,5	0,316300
25,683667	0,5	0,317550
25,692000	0,5	0,317600
25,700333	0,5	0,317250
25,708667	0,5	0,320250
25,717000	0,5	0,322950
25,725333	0,5	0,329600
25,733667	0,5	0,330550
25,742000	0,5	0,333700
25,750333	0,5	0,334300
25,758667	0,5	0,331250
25,767000	0,5	0,331350
25,775333	0,5	0,333400
25,783667	0,5	0,338850
25,792000	0,5	0,349750
25,800333	0,5	0,343400
25,808667	0,5	0,344200
25,817000	0,5	0,341750
25,825333	0,5	0,345500
25,833667	0,5	0,344050
25,842000	0,5	0,343700
25,850333	0,5	0,345650
25,858667	0,5	0,347850
25,867000	0,5	0,349050
25,875333	0,5	0,351000
25,883667	0,5	0,352650
25,892000	0,5	0,360400
25,900333	0,5	0,355900
25,908667	0,5	0,349700
25,917000	0,5	0,351650
25,925333	0,5	0,355650
25,933667	0,5	0,366950
25,942000	0,5	0,371650
25,950333	0,5	0,372100
25,958667	0,5	0,366400
25,967000	0,5	0,369550
25,975333	0,5	0,365900
25,983667	0,5	0,367850
25,992000	0,5	0,366250
26,000333	0,5	0,365650
