File Path	chrom://chromeleon01/ikbm_chromeleon/2022/ICS-5000/ED1/Esteban/20220612_Cell_7_4_eg.seq/982.smp/ED_1.channel/ED_1.chm
Channel	ED_1

Injection Information:
Data Vault	ikbm_chromeleon
Injection	7_02h-EGS_2
Injection Number	95
Position	GE4
Comment	
Processing Method	Stop sequence after Cell Death
Instrument Method	ICS5000_PA200_FullNative_Ox_26min_ED1
Type	Unknown
Status	Finished
Injection Date	14.06.2022
Injection Time	12:52:58
Injection Volume (µl)	5,0
Dilution Factor	1,0000
Weight	1,0000

Chromatogram Data Information:
Time Min. (min)	0,000333
Time Max. (min)	26,000333
Data Points	3121
Detector	EDet1
Generating Data System	Chromeleon 7.2.9.11323
Exporting Data System	Chromeleon 7.2.9.0
Operator	Instrument Controller
Signal Quantity	
Signal Unit	nC
Signal Min.	-2,614150
Signal Max.	852,140463
Channel	ED_1
Driver Name	DC-5000
Channel Type	Evaluation
Min. Step (s)	0,5
Max. Step (s)	0,5
Average Step (s)	0,5

Signal Parameter Information:
Signal Info	

Chromatogram Data:
Time (min)	Step (s)	Value (nC)
0,000333	n.a.	-0,100950
0,008667	0,5	-0,090250
0,017000	0,5	-0,077800
0,025333	0,5	-0,070500
0,033667	0,5	-0,056150
0,042000	0,5	-0,062500
0,050333	0,5	-0,046250
0,058667	0,5	-0,056400
0,067000	0,5	-0,055250
0,075333	0,5	-0,063600
0,083667	0,5	-0,044950
0,092000	0,5	-0,082000
0,100333	0,5	-0,073000
0,108667	0,5	-0,077250
0,117000	0,5	-0,048550
0,125333	0,5	-0,034050
0,133667	0,5	-0,038500
0,142000	0,5	-0,046500
0,150333	0,5	-0,046100
0,158667	0,5	-0,049650
0,167000	0,5	-0,050700
0,175333	0,5	-0,055200
0,183667	0,5	-0,064900
0,192000	0,5	-0,068850
0,200333	0,5	-0,076500
0,208667	0,5	-0,089150
0,217000	0,5	-0,103550
0,225333	0,5	-0,074150
0,233667	0,5	-0,086600
0,242000	0,5	-0,106100
0,250333	0,5	-0,106600
0,258667	0,5	-0,100450
0,267000	0,5	-0,076950
0,275333	0,5	-0,059550
0,283667	0,5	-0,053900
0,292000	0,5	-0,013800
0,300333	0,5	-0,015900
0,308667	0,5	-0,052950
0,317000	0,5	-0,096800
0,325333	0,5	-0,115000
0,333667	0,5	-0,121600
0,342000	0,5	-0,119700
0,350333	0,5	-0,118500
0,358667	0,5	-0,126150
0,367000	0,5	-0,123300
0,375333	0,5	-0,101100
0,383667	0,5	-0,126550
0,392000	0,5	-0,141350
0,400333	0,5	-0,134100
0,408667	0,5	-0,127300
0,417000	0,5	-0,095850
0,425333	0,5	-0,109150
0,433667	0,5	-0,107550
0,442000	0,5	-0,118600
0,450333	0,5	-0,108200
0,458667	0,5	-0,119600
0,467000	0,5	-0,114200
0,475333	0,5	-0,127200
0,483667	0,5	-0,125800
0,492000	0,5	-0,132300
0,500333	0,5	-0,128700
0,508667	0,5	-0,138750
0,517000	0,5	-0,132950
0,525333	0,5	-0,110050
0,533667	0,5	-0,134650
0,542000	0,5	-0,142100
0,550333	0,5	-0,138100
0,558667	0,5	-0,122400
0,567000	0,5	-0,097000
0,575333	0,5	-0,105450
0,583667	0,5	-0,115650
0,592000	0,5	-0,106200
0,600333	0,5	-0,109450
0,608667	0,5	-0,101700
0,617000	0,5	-0,112100
0,625333	0,5	-0,111500
0,633667	0,5	-0,121350
0,642000	0,5	-0,111100
0,650333	0,5	-0,097600
0,658667	0,5	-0,099600
0,667000	0,5	-0,098450
0,675333	0,5	-0,087400
0,683667	0,5	-0,118900
0,692000	0,5	-0,117550
0,700333	0,5	-0,112050
0,708667	0,5	-0,090900
0,717000	0,5	-0,074050
0,725333	0,5	-0,087650
0,733667	0,5	-0,085050
0,742000	0,5	-0,090000
0,750333	0,5	-0,083000
0,758667	0,5	-0,087400
0,767000	0,5	-0,081750
0,775333	0,5	-0,089200
0,783667	0,5	-0,083650
0,792000	0,5	-0,088800
0,800333	0,5	-0,075100
0,808667	0,5	-0,089550
0,817000	0,5	-0,062850
0,825333	0,5	-0,084950
0,833667	0,5	-0,090350
0,842000	0,5	-0,088500
0,850333	0,5	-0,070700
0,858667	0,5	-0,049700
0,867000	0,5	-0,044550
0,875333	0,5	-0,055900
0,883667	0,5	-0,051100
0,892000	0,5	-0,046700
0,900333	0,5	-0,045500
0,908667	0,5	-0,049100
0,917000	0,5	-0,055800
0,925333	0,5	-0,054300
0,933667	0,5	-0,057000
0,942000	0,5	-0,047700
0,950333	0,5	-0,056150
0,958667	0,5	-0,054600
0,967000	0,5	-0,035700
0,975333	0,5	-0,053350
0,983667	0,5	-0,062150
0,992000	0,5	-0,059100
1,000333	0,5	-0,044650
1,008667	0,5	-0,011150
1,017000	0,5	-0,011200
1,025333	0,5	-0,012600
1,033667	0,5	-0,020700
1,042000	0,5	-0,016250
1,050333	0,5	-0,020800
1,058667	0,5	-0,022000
1,067000	0,5	-0,024700
1,075333	0,5	-0,027800
1,083667	0,5	-0,021100
1,092000	0,5	-0,022600
1,100333	0,5	-0,021700
1,108667	0,5	-0,009300
1,117000	0,5	-0,012100
1,125333	0,5	-0,031800
1,133667	0,5	-0,030650
1,142000	0,5	-0,028000
1,150333	0,5	0,000700
1,158667	0,5	0,005450
1,167000	0,5	0,016800
1,175333	0,5	0,003900
1,183667	0,5	0,013500
1,192000	0,5	0,005450
1,200333	0,5	0,007450
1,208667	0,5	0,005400
1,217000	0,5	0,004650
1,225333	0,5	0,000800
1,233667	0,5	0,001200
1,242000	0,5	0,007200
1,250333	0,5	0,005150
1,258667	0,5	0,027100
1,267000	0,5	0,014750
1,275333	0,5	-0,002150
1,283667	0,5	-0,006700
1,292000	0,5	0,002900
1,300333	0,5	0,028500
1,308667	0,5	0,035000
1,317000	0,5	0,023450
1,325333	0,5	0,035150
1,333667	0,5	0,026950
1,342000	0,5	0,036250
1,350333	0,5	0,025250
1,358667	0,5	0,028350
1,367000	0,5	0,019950
1,375333	0,5	0,027800
1,383667	0,5	0,025750
1,392000	0,5	0,030200
1,400333	0,5	0,016450
1,408667	0,5	0,052250
1,417000	0,5	0,023250
1,425333	0,5	0,013450
1,433667	0,5	0,018200
1,442000	0,5	0,024450
1,450333	0,5	0,057550
1,458667	0,5	0,042000
1,467000	0,5	0,043500
1,475333	0,5	0,037300
1,483667	0,5	0,043600
1,492000	0,5	0,038400
1,500333	0,5	0,046350
1,508667	0,5	0,037450
1,517000	0,5	0,039700
1,525333	0,5	0,028800
1,533667	0,5	0,038400
1,542000	0,5	0,034300
1,550333	0,5	0,090650
1,558667	0,5	0,266200
1,567000	0,5	0,516400
1,575333	0,5	0,914800
1,583667	0,5	3,046950
1,592000	0,5	13,543100
1,600333	0,5	51,738901
1,608667	0,5	163,406102
1,617000	0,5	390,510556
1,625333	0,5	668,134360
1,633667	0,5	849,430063
1,642000	0,5	852,140463
1,650333	0,5	710,431461
1,658667	0,5	520,600058
1,667000	0,5	361,968455
1,675333	0,5	253,741504
1,683667	0,5	184,600953
1,692000	0,5	140,929702
1,700333	0,5	113,411702
1,708667	0,5	95,865701
1,717000	0,5	83,564901
1,725333	0,5	74,068051
1,733667	0,5	66,627101
1,742000	0,5	60,669201
1,750333	0,5	55,310601
1,758667	0,5	50,420801
1,767000	0,5	47,032751
1,775333	0,5	46,377651
1,783667	0,5	48,652601
1,792000	0,5	52,621001
1,800333	0,5	56,425101
1,808667	0,5	58,720251
1,817000	0,5	58,801551
1,825333	0,5	56,650851
1,833667	0,5	53,156701
1,842000	0,5	49,414151
1,850333	0,5	46,226451
1,858667	0,5	43,657451
1,867000	0,5	41,433301
1,875333	0,5	39,332151
1,883667	0,5	37,402951
1,892000	0,5	35,824001
1,900333	0,5	34,640301
1,908667	0,5	33,653701
1,917000	0,5	32,707750
1,925333	0,5	31,709750
1,933667	0,5	30,877500
1,942000	0,5	30,461000
1,950333	0,5	30,538900
1,958667	0,5	30,686800
1,967000	0,5	30,377750
1,975333	0,5	29,581800
1,983667	0,5	28,664100
1,992000	0,5	28,005900
2,000333	0,5	27,684850
2,008667	0,5	27,609200
2,017000	0,5	27,913550
2,025333	0,5	28,861250
2,033667	0,5	30,512650
2,042000	0,5	32,460900
2,050333	0,5	34,257451
2,058667	0,5	36,440051
2,067000	0,5	39,805751
2,075333	0,5	44,002301
2,083667	0,5	47,269301
2,092000	0,5	48,115501
2,100333	0,5	46,130001
2,108667	0,5	42,140801
2,117000	0,5	37,547801
2,125333	0,5	33,537300
2,133667	0,5	30,666500
2,142000	0,5	29,135450
2,150333	0,5	29,023500
2,158667	0,5	30,337250
2,167000	0,5	32,291500
2,175333	0,5	33,195200
2,183667	0,5	32,123650
2,192000	0,5	29,803200
2,200333	0,5	27,521400
2,208667	0,5	25,784200
2,217000	0,5	24,520850
2,225333	0,5	23,560850
2,233667	0,5	22,876150
2,242000	0,5	22,374350
2,250333	0,5	22,010850
2,258667	0,5	21,809550
2,267000	0,5	21,861150
2,275333	0,5	22,015200
2,283667	0,5	22,095050
2,292000	0,5	22,180350
2,300333	0,5	22,472900
2,308667	0,5	22,976200
2,317000	0,5	23,287800
2,325333	0,5	23,031100
2,333667	0,5	22,398400
2,342000	0,5	21,774500
2,350333	0,5	21,366900
2,358667	0,5	21,182500
2,367000	0,5	21,117550
2,375333	0,5	21,145500
2,383667	0,5	21,211150
2,392000	0,5	21,279550
2,400333	0,5	21,288700
2,408667	0,5	21,253600
2,417000	0,5	21,202900
2,425333	0,5	21,195000
2,433667	0,5	21,187150
2,442000	0,5	21,288200
2,450333	0,5	21,711000
2,458667	0,5	23,032250
2,467000	0,5	23,516100
2,475333	0,5	22,269000
2,483667	0,5	20,867100
2,492000	0,5	20,022300
2,500333	0,5	19,581500
2,508667	0,5	19,326450
2,517000	0,5	19,146950
2,525333	0,5	19,015300
2,533667	0,5	18,913300
2,542000	0,5	18,819500
2,550333	0,5	18,745600
2,558667	0,5	18,672400
2,567000	0,5	18,605250
2,575333	0,5	18,516100
2,583667	0,5	18,443400
2,592000	0,5	18,392650
2,600333	0,5	18,311400
2,608667	0,5	18,267150
2,617000	0,5	18,256450
2,625333	0,5	18,299800
2,633667	0,5	18,445200
2,642000	0,5	18,684850
2,650333	0,5	19,146500
2,658667	0,5	19,840350
2,667000	0,5	20,737450
2,675333	0,5	21,690650
2,683667	0,5	22,565000
2,692000	0,5	23,218550
2,700333	0,5	23,574600
2,708667	0,5	23,590900
2,717000	0,5	23,314300
2,725333	0,5	22,934950
2,733667	0,5	22,747900
2,742000	0,5	23,124850
2,750333	0,5	24,345000
2,758667	0,5	26,594950
2,767000	0,5	29,559900
2,775333	0,5	32,580100
2,783667	0,5	34,821151
2,792000	0,5	35,839501
2,800333	0,5	35,954101
2,808667	0,5	35,989251
2,817000	0,5	36,575801
2,825333	0,5	37,693051
2,833667	0,5	38,639801
2,842000	0,5	38,665001
2,850333	0,5	37,395701
2,858667	0,5	34,982001
2,867000	0,5	31,929500
2,875333	0,5	28,810050
2,883667	0,5	26,103400
2,892000	0,5	24,048350
2,900333	0,5	22,774650
2,908667	0,5	22,392100
2,917000	0,5	22,903850
2,925333	0,5	24,194950
2,933667	0,5	25,909250
2,942000	0,5	27,517850
2,950333	0,5	28,546000
2,958667	0,5	28,594000
2,967000	0,5	27,626700
2,975333	0,5	25,851400
2,983667	0,5	23,674000
2,992000	0,5	21,469900
3,000333	0,5	19,536500
3,008667	0,5	17,988200
3,017000	0,5	16,819600
3,025333	0,5	15,976200
3,033667	0,5	15,383250
3,042000	0,5	14,915750
3,050333	0,5	14,567100
3,058667	0,5	14,303800
3,067000	0,5	14,118550
3,075333	0,5	14,005750
3,083667	0,5	13,954750
3,092000	0,5	14,010450
3,100333	0,5	14,174450
3,108667	0,5	14,446350
3,117000	0,5	14,737350
3,125333	0,5	14,967450
3,133667	0,5	15,002000
3,142000	0,5	14,829000
3,150333	0,5	14,459900
3,158667	0,5	13,992600
3,167000	0,5	13,499100
3,175333	0,5	13,094400
3,183667	0,5	12,755700
3,192000	0,5	12,476400
3,200333	0,5	12,251350
3,208667	0,5	12,084900
3,217000	0,5	11,950400
3,225333	0,5	11,849650
3,233667	0,5	11,748800
3,242000	0,5	11,668100
3,250333	0,5	11,605950
3,258667	0,5	11,564800
3,267000	0,5	11,547950
3,275333	0,5	11,555500
3,283667	0,5	11,612550
3,292000	0,5	11,731550
3,300333	0,5	11,972250
3,308667	0,5	12,322900
3,317000	0,5	12,754350
3,325333	0,5	13,210150
3,333667	0,5	13,516000
3,342000	0,5	13,574400
3,350333	0,5	13,375550
3,358667	0,5	12,967700
3,367000	0,5	12,467650
3,375333	0,5	11,937500
3,383667	0,5	11,463000
3,392000	0,5	11,098750
3,400333	0,5	10,840650
3,408667	0,5	10,661450
3,417000	0,5	10,551450
3,425333	0,5	10,488400
3,433667	0,5	10,450150
3,442000	0,5	10,426700
3,450333	0,5	10,389550
3,458667	0,5	10,338400
3,467000	0,5	10,259400
3,475333	0,5	10,208850
3,483667	0,5	10,110000
3,492000	0,5	10,037300
3,500333	0,5	9,976500
3,508667	0,5	9,955100
3,517000	0,5	9,960150
3,525333	0,5	9,963100
3,533667	0,5	9,963300
3,542000	0,5	9,979250
3,550333	0,5	9,960350
3,558667	0,5	9,939700
3,567000	0,5	9,887900
3,575333	0,5	9,828500
3,583667	0,5	9,762850
3,592000	0,5	9,705700
3,600333	0,5	9,653200
3,608667	0,5	9,597650
3,617000	0,5	9,556600
3,625333	0,5	9,556900
3,633667	0,5	9,521500
3,642000	0,5	9,503300
3,650333	0,5	9,487000
3,658667	0,5	9,464450
3,667000	0,5	9,459900
3,675333	0,5	9,409550
3,683667	0,5	9,376250
3,692000	0,5	9,338250
3,700333	0,5	9,319350
3,708667	0,5	9,292000
3,717000	0,5	9,272450
3,725333	0,5	9,234650
3,733667	0,5	9,192700
3,742000	0,5	9,148050
3,750333	0,5	9,096650
3,758667	0,5	9,041450
3,767000	0,5	9,001500
3,775333	0,5	8,959750
3,783667	0,5	8,903150
3,792000	0,5	8,872450
3,800333	0,5	8,841150
3,808667	0,5	8,833350
3,817000	0,5	8,829300
3,825333	0,5	8,809950
3,833667	0,5	8,781900
3,842000	0,5	8,772050
3,850333	0,5	8,749700
3,858667	0,5	8,741550
3,867000	0,5	8,724200
3,875333	0,5	8,715950
3,883667	0,5	8,698600
3,892000	0,5	8,686750
3,900333	0,5	8,661900
3,908667	0,5	8,642900
3,917000	0,5	8,637750
3,925333	0,5	8,616000
3,933667	0,5	8,577950
3,942000	0,5	8,556650
3,950333	0,5	8,531700
3,958667	0,5	8,524600
3,967000	0,5	8,504600
3,975333	0,5	8,464000
3,983667	0,5	8,439150
3,992000	0,5	8,419650
4,000333	0,5	8,405350
4,008667	0,5	8,396300
4,017000	0,5	8,397200
4,025333	0,5	8,391650
4,033667	0,5	8,403700
4,042000	0,5	8,401650
4,050333	0,5	8,398550
4,058667	0,5	8,383500
4,067000	0,5	8,385150
4,075333	0,5	8,338250
4,083667	0,5	8,292800
4,092000	0,5	8,261250
4,100333	0,5	8,236100
4,108667	0,5	8,219850
4,117000	0,5	8,193100
4,125333	0,5	8,162350
4,133667	0,5	8,141100
4,142000	0,5	8,118650
4,150333	0,5	8,100700
4,158667	0,5	8,083050
4,167000	0,5	8,061450
4,175333	0,5	8,051350
4,183667	0,5	8,032050
4,192000	0,5	8,026900
4,200333	0,5	7,998700
4,208667	0,5	7,997350
4,217000	0,5	7,997050
4,225333	0,5	7,965850
4,233667	0,5	7,946350
4,242000	0,5	7,947950
4,250333	0,5	7,945250
4,258667	0,5	7,959400
4,267000	0,5	7,937350
4,275333	0,5	7,933100
4,283667	0,5	7,922500
4,292000	0,5	7,920550
4,300333	0,5	7,910400
4,308667	0,5	7,909900
4,317000	0,5	7,901700
4,325333	0,5	7,903300
4,333667	0,5	7,916400
4,342000	0,5	7,939650
4,350333	0,5	7,970500
4,358667	0,5	8,043350
4,367000	0,5	8,123900
4,375333	0,5	8,215350
4,383667	0,5	8,345100
4,392000	0,5	8,495700
4,400333	0,5	8,671000
4,408667	0,5	8,816000
4,417000	0,5	8,938350
4,425333	0,5	9,026850
4,433667	0,5	9,088950
4,442000	0,5	9,096300
4,450333	0,5	9,075800
4,458667	0,5	9,029600
4,467000	0,5	8,987300
4,475333	0,5	8,968000
4,483667	0,5	8,987500
4,492000	0,5	9,048900
4,500333	0,5	9,137700
4,508667	0,5	9,280850
4,517000	0,5	9,403850
4,525333	0,5	9,519600
4,533667	0,5	9,594900
4,542000	0,5	9,627400
4,550333	0,5	9,588350
4,558667	0,5	9,471100
4,567000	0,5	9,275650
4,575333	0,5	9,065350
4,583667	0,5	8,824200
4,592000	0,5	8,596050
4,600333	0,5	8,380200
4,608667	0,5	8,199250
4,617000	0,5	8,045550
4,625333	0,5	7,932900
4,633667	0,5	7,844250
4,642000	0,5	7,771450
4,650333	0,5	7,706750
4,658667	0,5	7,688250
4,667000	0,5	7,642150
4,675333	0,5	7,618150
4,683667	0,5	7,601400
4,692000	0,5	7,598550
4,700333	0,5	7,612500
4,708667	0,5	7,599700
4,717000	0,5	7,597900
4,725333	0,5	7,594250
4,733667	0,5	7,599200
4,742000	0,5	7,590900
4,750333	0,5	7,588650
4,758667	0,5	7,580350
4,767000	0,5	7,580000
4,775333	0,5	7,573050
4,783667	0,5	7,568250
4,792000	0,5	7,553950
4,800333	0,5	7,566200
4,808667	0,5	7,580400
4,817000	0,5	7,584100
4,825333	0,5	7,596550
4,833667	0,5	7,623700
4,842000	0,5	7,667450
4,850333	0,5	7,715300
4,858667	0,5	7,746400
4,867000	0,5	7,768300
4,875333	0,5	7,776400
4,883667	0,5	7,772350
4,892000	0,5	7,746900
4,900333	0,5	7,708150
4,908667	0,5	7,662150
4,917000	0,5	7,604000
4,925333	0,5	7,552600
4,933667	0,5	7,491550
4,942000	0,5	7,441450
4,950333	0,5	7,414650
4,958667	0,5	7,382200
4,967000	0,5	7,344750
4,975333	0,5	7,331650
4,983667	0,5	7,319600
4,992000	0,5	7,337250
5,000333	0,5	7,333100
5,008667	0,5	7,331750
5,017000	0,5	7,327150
5,025333	0,5	7,334350
5,033667	0,5	7,329850
5,042000	0,5	7,337100
5,050333	0,5	7,336000
5,058667	0,5	7,333550
5,067000	0,5	7,333750
5,075333	0,5	7,321000
5,083667	0,5	7,307350
5,092000	0,5	7,289150
5,100333	0,5	7,290150
5,108667	0,5	7,250500
5,117000	0,5	7,214600
5,125333	0,5	7,176700
5,133667	0,5	7,145700
5,142000	0,5	7,113550
5,150333	0,5	7,073200
5,158667	0,5	7,027400
5,167000	0,5	6,997500
5,175333	0,5	6,959650
5,183667	0,5	6,936400
5,192000	0,5	6,908200
5,200333	0,5	6,888950
5,208667	0,5	6,872750
5,217000	0,5	6,855450
5,225333	0,5	6,852050
5,233667	0,5	6,828750
5,242000	0,5	6,817400
5,250333	0,5	6,833850
5,258667	0,5	6,813300
5,267000	0,5	6,804600
5,275333	0,5	6,798500
5,283667	0,5	6,798150
5,292000	0,5	6,806350
5,300333	0,5	6,785100
5,308667	0,5	6,773850
5,317000	0,5	6,753600
5,325333	0,5	6,749000
5,333667	0,5	6,731800
5,342000	0,5	6,718050
5,350333	0,5	6,698200
5,358667	0,5	6,684900
5,367000	0,5	6,672250
5,375333	0,5	6,654250
5,383667	0,5	6,626400
5,392000	0,5	6,618500
5,400333	0,5	6,609000
5,408667	0,5	6,582400
5,417000	0,5	6,560750
5,425333	0,5	6,548750
5,433667	0,5	6,541200
5,442000	0,5	6,530350
5,450333	0,5	6,507400
5,458667	0,5	6,487700
5,467000	0,5	6,474350
5,475333	0,5	6,456450
5,483667	0,5	6,442300
5,492000	0,5	6,421550
5,500333	0,5	6,409350
5,508667	0,5	6,391800
5,517000	0,5	6,378500
5,525333	0,5	6,362500
5,533667	0,5	6,348250
5,542000	0,5	6,343400
5,550333	0,5	6,335000
5,558667	0,5	6,319650
5,567000	0,5	6,316650
5,575333	0,5	6,318450
5,583667	0,5	6,338500
5,592000	0,5	6,340200
5,600333	0,5	6,324850
5,608667	0,5	6,316350
5,617000	0,5	6,300450
5,625333	0,5	6,281800
5,633667	0,5	6,256300
5,642000	0,5	6,233850
5,650333	0,5	6,206200
5,658667	0,5	6,190250
5,667000	0,5	6,167750
5,675333	0,5	6,153800
5,683667	0,5	6,132400
5,692000	0,5	6,135800
5,700333	0,5	6,112850
5,708667	0,5	6,097450
5,717000	0,5	6,083700
5,725333	0,5	6,075700
5,733667	0,5	6,072250
5,742000	0,5	6,047100
5,750333	0,5	6,021150
5,758667	0,5	5,997550
5,767000	0,5	5,972050
5,775333	0,5	5,950400
5,783667	0,5	5,925050
5,792000	0,5	5,902150
5,800333	0,5	5,883500
5,808667	0,5	5,866850
5,817000	0,5	5,848150
5,825333	0,5	5,823950
5,833667	0,5	5,813600
5,842000	0,5	5,801650
5,850333	0,5	5,780600
5,858667	0,5	5,762300
5,867000	0,5	5,749450
5,875333	0,5	5,748050
5,883667	0,5	5,756250
5,892000	0,5	5,759500
5,900333	0,5	5,775750
5,908667	0,5	5,803750
5,917000	0,5	5,851350
5,925333	0,5	5,907450
5,933667	0,5	5,978900
5,942000	0,5	6,039550
5,950333	0,5	6,085300
5,958667	0,5	6,103300
5,967000	0,5	6,082150
5,975333	0,5	6,030850
5,983667	0,5	5,973850
5,992000	0,5	5,898100
6,000333	0,5	5,779450
6,008667	0,5	5,785600
6,017000	0,5	5,738150
6,025333	0,5	5,738450
6,033667	0,5	5,732150
6,042000	0,5	5,747700
6,050333	0,5	5,766900
6,058667	0,5	5,821800
6,067000	0,5	5,890950
6,075333	0,5	6,001100
6,083667	0,5	6,155600
6,092000	0,5	6,368350
6,100333	0,5	6,644600
6,108667	0,5	6,983100
6,117000	0,5	7,371800
6,125333	0,5	7,774950
6,133667	0,5	8,171100
6,142000	0,5	8,481250
6,150333	0,5	8,685450
6,158667	0,5	8,765650
6,167000	0,5	8,703800
6,175333	0,5	8,523600
6,183667	0,5	8,231950
6,192000	0,5	7,870050
6,200333	0,5	7,495550
6,208667	0,5	7,117350
6,217000	0,5	6,776150
6,225333	0,5	6,467350
6,233667	0,5	6,211300
6,242000	0,5	5,994350
6,250333	0,5	5,829550
6,258667	0,5	5,698400
6,267000	0,5	5,586850
6,275333	0,5	5,501100
6,283667	0,5	5,449700
6,292000	0,5	5,382900
6,300333	0,5	5,340750
6,308667	0,5	5,306800
6,317000	0,5	5,285650
6,325333	0,5	5,277400
6,333667	0,5	5,247900
6,342000	0,5	5,233100
6,350333	0,5	5,215450
6,358667	0,5	5,208600
6,367000	0,5	5,194300
6,375333	0,5	5,186800
6,383667	0,5	5,174550
6,392000	0,5	5,170950
6,400333	0,5	5,160550
6,408667	0,5	5,153250
6,417000	0,5	5,135550
6,425333	0,5	5,133200
6,433667	0,5	5,129600
6,442000	0,5	5,113000
6,450333	0,5	5,105350
6,458667	0,5	5,101000
6,467000	0,5	5,102300
6,475333	0,5	5,105900
6,483667	0,5	5,096550
6,492000	0,5	5,093050
6,500333	0,5	5,091950
6,508667	0,5	5,087700
6,517000	0,5	5,080000
6,525333	0,5	5,069550
6,533667	0,5	5,062850
6,542000	0,5	5,052850
6,550333	0,5	5,047200
6,558667	0,5	5,037150
6,567000	0,5	5,026100
6,575333	0,5	5,023100
6,583667	0,5	5,011950
6,592000	0,5	4,998050
6,600333	0,5	4,991200
6,608667	0,5	4,988400
6,617000	0,5	4,997500
6,625333	0,5	4,997400
6,633667	0,5	4,993750
6,642000	0,5	4,987650
6,650333	0,5	4,986400
6,658667	0,5	4,976900
6,667000	0,5	4,976050
6,675333	0,5	4,970500
6,683667	0,5	4,966000
6,692000	0,5	4,964100
6,700333	0,5	4,962700
6,708667	0,5	4,961400
6,717000	0,5	4,955850
6,725333	0,5	4,963350
6,733667	0,5	4,947750
6,742000	0,5	4,936650
6,750333	0,5	4,930900
6,758667	0,5	4,933300
6,767000	0,5	4,923850
6,775333	0,5	4,919650
6,783667	0,5	4,906000
6,792000	0,5	4,896750
6,800333	0,5	4,880700
6,808667	0,5	4,869600
6,817000	0,5	4,853200
6,825333	0,5	4,842100
6,833667	0,5	4,830500
6,842000	0,5	4,822350
6,850333	0,5	4,814450
6,858667	0,5	4,799400
6,867000	0,5	4,801700
6,875333	0,5	4,799650
6,883667	0,5	4,789650
6,892000	0,5	4,784650
6,900333	0,5	4,785900
6,908667	0,5	4,796500
6,917000	0,5	4,808950
6,925333	0,5	4,816300
6,933667	0,5	4,835950
6,942000	0,5	4,853150
6,950333	0,5	4,886100
6,958667	0,5	4,926600
6,967000	0,5	4,973850
6,975333	0,5	5,023100
6,983667	0,5	5,073700
6,992000	0,5	5,100150
7,000333	0,5	5,095700
7,008667	0,5	5,057100
7,017000	0,5	5,008650
7,025333	0,5	4,932850
7,033667	0,5	4,856600
7,042000	0,5	4,791300
7,050333	0,5	4,744300
7,058667	0,5	4,722350
7,067000	0,5	4,700900
7,075333	0,5	4,687950
7,083667	0,5	4,673500
7,092000	0,5	4,666750
7,100333	0,5	4,659050
7,108667	0,5	4,657850
7,117000	0,5	4,652800
7,125333	0,5	4,657100
7,133667	0,5	4,658150
7,142000	0,5	4,669600
7,150333	0,5	4,679250
7,158667	0,5	4,692950
7,167000	0,5	4,723950
7,175333	0,5	4,744600
7,183667	0,5	4,778100
7,192000	0,5	4,830200
7,200333	0,5	4,901500
7,208667	0,5	5,014350
7,217000	0,5	5,141850
7,225333	0,5	5,307750
7,233667	0,5	5,525850
7,242000	0,5	5,795250
7,250333	0,5	6,112500
7,258667	0,5	6,470350
7,267000	0,5	6,859000
7,275333	0,5	7,239250
7,283667	0,5	7,599300
7,292000	0,5	7,894100
7,300333	0,5	8,093050
7,308667	0,5	8,162100
7,317000	0,5	8,119350
7,325333	0,5	7,920750
7,333667	0,5	7,624150
7,342000	0,5	7,248550
7,350333	0,5	6,831650
7,358667	0,5	6,418050
7,367000	0,5	6,013950
7,375333	0,5	5,659200
7,383667	0,5	5,372150
7,392000	0,5	5,149200
7,400333	0,5	4,986450
7,408667	0,5	4,869250
7,417000	0,5	4,790400
7,425333	0,5	4,741200
7,433667	0,5	4,703600
7,442000	0,5	4,675750
7,450333	0,5	4,645250
7,458667	0,5	4,619950
7,467000	0,5	4,600650
7,475333	0,5	4,577100
7,483667	0,5	4,555750
7,492000	0,5	4,546550
7,500333	0,5	4,544600
7,508667	0,5	4,556050
7,517000	0,5	4,567300
7,525333	0,5	4,601750
7,533667	0,5	4,661550
7,542000	0,5	4,753200
7,550333	0,5	4,890600
7,558667	0,5	5,076150
7,567000	0,5	5,298350
7,575333	0,5	5,531000
7,583667	0,5	5,724400
7,592000	0,5	5,831000
7,600333	0,5	5,821150
7,608667	0,5	5,719500
7,617000	0,5	5,548200
7,625333	0,5	5,350400
7,633667	0,5	5,163850
7,642000	0,5	4,981400
7,650333	0,5	4,815350
7,658667	0,5	4,653250
7,667000	0,5	4,514500
7,675333	0,5	4,402400
7,683667	0,5	4,320000
7,692000	0,5	4,261400
7,700333	0,5	4,213250
7,708667	0,5	4,178550
7,717000	0,5	4,153100
7,725333	0,5	4,128750
7,733667	0,5	4,110750
7,742000	0,5	4,093050
7,750333	0,5	4,085950
7,758667	0,5	4,081400
7,767000	0,5	4,077400
7,775333	0,5	4,076550
7,783667	0,5	4,080600
7,792000	0,5	4,087650
7,800333	0,5	4,095950
7,808667	0,5	4,096350
7,817000	0,5	4,086350
7,825333	0,5	4,075700
7,833667	0,5	4,057400
7,842000	0,5	4,037300
7,850333	0,5	4,018350
7,858667	0,5	4,000750
7,867000	0,5	3,987100
7,875333	0,5	3,973550
7,883667	0,5	3,964600
7,892000	0,5	3,960000
7,900333	0,5	3,959450
7,908667	0,5	3,963400
7,917000	0,5	3,965250
7,925333	0,5	3,971850
7,933667	0,5	3,975500
7,942000	0,5	3,981150
7,950333	0,5	3,979700
7,958667	0,5	3,963200
7,967000	0,5	3,951850
7,975333	0,5	3,937050
7,983667	0,5	3,929000
7,992000	0,5	3,923250
8,000333	0,5	3,939450
8,008667	0,5	3,967850
8,017000	0,5	4,032650
8,025333	0,5	4,106750
8,033667	0,5	4,158600
8,042000	0,5	4,163600
8,050333	0,5	4,124650
8,058667	0,5	4,053850
8,067000	0,5	3,989550
8,075333	0,5	3,934600
8,083667	0,5	3,899550
8,092000	0,5	3,880700
8,100333	0,5	3,865000
8,108667	0,5	3,848550
8,117000	0,5	3,832700
8,125333	0,5	3,822850
8,133667	0,5	3,814250
8,142000	0,5	3,806750
8,150333	0,5	3,798350
8,158667	0,5	3,791050
8,167000	0,5	3,780450
8,175333	0,5	3,766350
8,183667	0,5	3,747800
8,192000	0,5	3,735900
8,200333	0,5	3,734550
8,208667	0,5	3,725550
8,217000	0,5	3,721000
8,225333	0,5	3,712000
8,233667	0,5	3,704850
8,242000	0,5	3,696800
8,250333	0,5	3,684550
8,258667	0,5	3,672700
8,267000	0,5	3,661450
8,275333	0,5	3,650700
8,283667	0,5	3,644300
8,292000	0,5	3,637800
8,300333	0,5	3,636050
8,308667	0,5	3,636750
8,317000	0,5	3,639150
8,325333	0,5	3,644600
8,333667	0,5	3,653000
8,342000	0,5	3,666600
8,350333	0,5	3,706600
8,358667	0,5	3,762350
8,367000	0,5	3,840000
8,375333	0,5	3,907800
8,383667	0,5	3,944500
8,392000	0,5	3,930800
8,400333	0,5	3,879650
8,408667	0,5	3,817200
8,417000	0,5	3,765050
8,425333	0,5	3,724500
8,433667	0,5	3,691250
8,442000	0,5	3,667250
8,450333	0,5	3,641750
8,458667	0,5	3,627050
8,467000	0,5	3,613300
8,475333	0,5	3,605250
8,483667	0,5	3,605950
8,492000	0,5	3,610600
8,500333	0,5	3,624750
8,508667	0,5	3,646050
8,517000	0,5	3,681400
8,525333	0,5	3,726950
8,533667	0,5	3,774600
8,542000	0,5	3,813550
8,550333	0,5	3,830750
8,558667	0,5	3,831250
8,567000	0,5	3,814500
8,575333	0,5	3,794800
8,583667	0,5	3,791350
8,592000	0,5	3,810900
8,600333	0,5	3,881850
8,608667	0,5	4,038600
8,617000	0,5	4,308000
8,625333	0,5	4,688350
8,633667	0,5	5,096450
8,642000	0,5	5,421850
8,650333	0,5	5,543800
8,658667	0,5	5,452200
8,667000	0,5	5,205200
8,675333	0,5	4,905550
8,683667	0,5	4,614950
8,692000	0,5	4,360300
8,700333	0,5	4,159550
8,708667	0,5	4,026600
8,717000	0,5	3,945550
8,725333	0,5	3,910900
8,733667	0,5	3,897800
8,742000	0,5	3,903850
8,750333	0,5	3,917300
8,758667	0,5	3,938150
8,767000	0,5	3,962300
8,775333	0,5	3,972850
8,783667	0,5	3,975300
8,792000	0,5	3,953350
8,800333	0,5	3,907950
8,808667	0,5	3,838500
8,817000	0,5	3,768600
8,825333	0,5	3,693350
8,833667	0,5	3,634850
8,842000	0,5	3,579750
8,850333	0,5	3,540450
8,858667	0,5	3,511650
8,867000	0,5	3,491950
8,875333	0,5	3,484150
8,883667	0,5	3,487250
8,892000	0,5	3,490900
8,900333	0,5	3,505950
8,908667	0,5	3,533850
8,917000	0,5	3,580950
8,925333	0,5	3,648200
8,933667	0,5	3,714650
8,942000	0,5	3,763200
8,950333	0,5	3,768800
8,958667	0,5	3,747850
8,967000	0,5	3,718150
8,975333	0,5	3,695400
8,983667	0,5	3,698700
8,992000	0,5	3,715550
9,000333	0,5	3,737850
9,008667	0,5	3,768400
9,017000	0,5	3,789050
9,025333	0,5	3,807900
9,033667	0,5	3,814550
9,042000	0,5	3,809200
9,050333	0,5	3,799750
9,058667	0,5	3,804600
9,067000	0,5	3,833350
9,075333	0,5	3,911150
9,083667	0,5	4,062900
9,092000	0,5	4,328100
9,100333	0,5	4,789950
9,108667	0,5	5,588200
9,117000	0,5	6,785000
9,125333	0,5	8,133450
9,133667	0,5	9,135100
9,142000	0,5	9,379450
9,150333	0,5	8,903750
9,158667	0,5	8,028950
9,167000	0,5	7,091750
9,175333	0,5	6,305900
9,183667	0,5	5,748200
9,192000	0,5	5,400250
9,200333	0,5	5,194550
9,208667	0,5	5,069100
9,217000	0,5	4,981150
9,225333	0,5	4,894600
9,233667	0,5	4,798250
9,242000	0,5	4,680800
9,250333	0,5	4,543150
9,258667	0,5	4,396750
9,267000	0,5	4,249850
9,275333	0,5	4,113950
9,283667	0,5	3,997900
9,292000	0,5	3,900750
9,300333	0,5	3,823800
9,308667	0,5	3,759250
9,317000	0,5	3,707550
9,325333	0,5	3,669050
9,333667	0,5	3,632250
9,342000	0,5	3,609300
9,350333	0,5	3,587600
9,358667	0,5	3,576800
9,367000	0,5	3,568250
9,375333	0,5	3,569850
9,383667	0,5	3,576450
9,392000	0,5	3,584500
9,400333	0,5	3,595400
9,408667	0,5	3,608300
9,417000	0,5	3,628900
9,425333	0,5	3,662300
9,433667	0,5	3,701200
9,442000	0,5	3,728950
9,450333	0,5	3,751500
9,458667	0,5	3,756800
9,467000	0,5	3,751200
9,475333	0,5	3,726200
9,483667	0,5	3,699750
9,492000	0,5	3,672450
9,500333	0,5	3,646200
9,508667	0,5	3,623000
9,517000	0,5	3,602800
9,525333	0,5	3,582400
9,533667	0,5	3,566650
9,542000	0,5	3,555150
9,550333	0,5	3,545100
9,558667	0,5	3,537950
9,567000	0,5	3,550800
9,575333	0,5	3,576000
9,583667	0,5	3,616400
9,592000	0,5	3,677350
9,600333	0,5	3,743200
9,608667	0,5	3,810450
9,617000	0,5	3,863050
9,625333	0,5	3,899700
9,633667	0,5	3,923650
9,642000	0,5	3,943000
9,650333	0,5	3,969850
9,658667	0,5	4,004150
9,667000	0,5	4,058550
9,675333	0,5	4,133650
9,683667	0,5	4,237950
9,692000	0,5	4,375750
9,700333	0,5	4,548000
9,708667	0,5	4,759400
9,717000	0,5	4,998650
9,725333	0,5	5,263500
9,733667	0,5	5,544950
9,742000	0,5	5,836800
9,750333	0,5	6,131700
9,758667	0,5	6,428750
9,767000	0,5	6,726500
9,775333	0,5	7,011850
9,783667	0,5	7,277100
9,792000	0,5	7,510650
9,800333	0,5	7,694250
9,808667	0,5	7,804850
9,817000	0,5	7,804000
9,825333	0,5	7,674150
9,833667	0,5	7,386300
9,842000	0,5	6,947100
9,850333	0,5	6,396900
9,858667	0,5	5,809200
9,867000	0,5	5,245150
9,875333	0,5	4,765150
9,883667	0,5	4,387750
9,892000	0,5	4,123050
9,900333	0,5	3,957000
9,908667	0,5	3,872250
9,917000	0,5	3,843300
9,925333	0,5	3,843600
9,933667	0,5	3,846850
9,942000	0,5	3,826750
9,950333	0,5	3,784550
9,958667	0,5	3,726600
9,967000	0,5	3,664600
9,975333	0,5	3,603600
9,983667	0,5	3,556650
9,992000	0,5	3,514550
10,000333	0,5	3,473450
10,008667	0,5	3,443850
10,017000	0,5	3,424800
10,025333	0,5	3,413050
10,033667	0,5	3,408950
10,042000	0,5	3,403900
10,050333	0,5	3,403650
10,058667	0,5	3,402600
10,067000	0,5	3,398400
10,075333	0,5	3,392400
10,083667	0,5	3,383350
10,092000	0,5	3,377250
10,100333	0,5	3,371200
10,108667	0,5	3,376250
10,117000	0,5	3,387850
10,125333	0,5	3,406900
10,133667	0,5	3,425600
10,142000	0,5	3,438900
10,150333	0,5	3,446550
10,158667	0,5	3,458100
10,167000	0,5	3,474100
10,175333	0,5	3,500250
10,183667	0,5	3,535900
10,192000	0,5	3,576900
10,200333	0,5	3,614900
10,208667	0,5	3,635450
10,217000	0,5	3,630400
10,225333	0,5	3,599000
10,233667	0,5	3,548900
10,242000	0,5	3,481950
10,250333	0,5	3,424050
10,258667	0,5	3,375700
10,267000	0,5	3,329150
10,275333	0,5	3,293700
10,283667	0,5	3,258900
10,292000	0,5	3,215900
10,300333	0,5	3,179700
10,308667	0,5	3,150800
10,317000	0,5	3,131700
10,325333	0,5	3,112600
10,333667	0,5	3,101000
10,342000	0,5	3,083800
10,350333	0,5	3,074050
10,358667	0,5	3,060000
10,367000	0,5	3,052250
10,375333	0,5	3,052300
10,383667	0,5	3,059500
10,392000	0,5	3,073450
10,400333	0,5	3,088550
10,408667	0,5	3,107350
10,417000	0,5	3,127950
10,425333	0,5	3,166650
10,433667	0,5	3,208900
10,442000	0,5	3,262200
10,450333	0,5	3,303500
10,458667	0,5	3,332650
10,467000	0,5	3,327750
10,475333	0,5	3,301300
10,483667	0,5	3,247500
10,492000	0,5	3,184600
10,500333	0,5	3,122000
10,508667	0,5	3,064800
10,517000	0,5	3,013300
10,525333	0,5	2,968400
10,533667	0,5	2,928600
10,542000	0,5	2,900600
10,550333	0,5	2,877350
10,558667	0,5	2,858850
10,567000	0,5	2,847050
10,575333	0,5	2,839150
10,583667	0,5	2,823100
10,592000	0,5	2,811800
10,600333	0,5	2,801800
10,608667	0,5	2,799450
10,617000	0,5	2,810050
10,625333	0,5	2,832800
10,633667	0,5	2,860650
10,642000	0,5	2,906900
10,650333	0,5	2,962650
10,658667	0,5	3,025550
10,667000	0,5	3,085550
10,675333	0,5	3,126800
10,683667	0,5	3,137200
10,692000	0,5	3,113450
10,700333	0,5	3,059200
10,708667	0,5	2,983500
10,717000	0,5	2,909300
10,725333	0,5	2,840100
10,733667	0,5	2,775750
10,742000	0,5	2,723700
10,750333	0,5	2,680950
10,758667	0,5	2,655400
10,767000	0,5	2,635350
10,775333	0,5	2,619300
10,783667	0,5	2,614200
10,792000	0,5	2,605000
10,800333	0,5	2,601500
10,808667	0,5	2,591900
10,817000	0,5	2,582950
10,825333	0,5	2,575050
10,833667	0,5	2,569150
10,842000	0,5	2,574150
10,850333	0,5	2,576700
10,858667	0,5	2,583900
10,867000	0,5	2,605700
10,875333	0,5	2,615300
10,883667	0,5	2,610950
10,892000	0,5	2,590350
10,900333	0,5	2,557000
10,908667	0,5	2,517250
10,917000	0,5	2,473400
10,925333	0,5	2,438700
10,933667	0,5	2,409750
10,942000	0,5	2,393300
10,950333	0,5	2,377450
10,958667	0,5	2,364550
10,967000	0,5	2,354750
10,975333	0,5	2,346150
10,983667	0,5	2,345650
10,992000	0,5	2,349600
11,000333	0,5	2,360750
11,008667	0,5	2,383750
11,017000	0,5	2,435600
11,025333	0,5	2,503150
11,033667	0,5	2,581100
11,042000	0,5	2,664000
11,050333	0,5	2,732300
11,058667	0,5	2,773100
11,067000	0,5	2,770350
11,075333	0,5	2,728100
11,083667	0,5	2,662850
11,092000	0,5	2,578200
11,100333	0,5	2,507950
11,108667	0,5	2,439200
11,117000	0,5	2,384550
11,125333	0,5	2,338350
11,133667	0,5	2,303650
11,142000	0,5	2,284550
11,150333	0,5	2,267950
11,158667	0,5	2,273800
11,167000	0,5	2,293900
11,175333	0,5	2,327950
11,183667	0,5	2,384700
11,192000	0,5	2,456000
11,200333	0,5	2,540800
11,208667	0,5	2,624850
11,217000	0,5	2,676200
11,225333	0,5	2,696700
11,233667	0,5	2,683450
11,242000	0,5	2,638450
11,250333	0,5	2,578850
11,258667	0,5	2,525850
11,267000	0,5	2,471250
11,275333	0,5	2,422900
11,283667	0,5	2,387300
11,292000	0,5	2,355450
11,300333	0,5	2,323300
11,308667	0,5	2,308500
11,317000	0,5	2,300450
11,325333	0,5	2,302850
11,333667	0,5	2,326150
11,342000	0,5	2,359750
11,350333	0,5	2,415350
11,358667	0,5	2,460550
11,367000	0,5	2,498100
11,375333	0,5	2,500400
11,383667	0,5	2,490750
11,392000	0,5	2,460650
11,400333	0,5	2,427400
11,408667	0,5	2,395450
11,417000	0,5	2,371450
11,425333	0,5	2,354950
11,433667	0,5	2,352050
11,442000	0,5	2,360450
11,450333	0,5	2,389700
11,458667	0,5	2,457800
11,467000	0,5	2,555200
11,475333	0,5	2,699000
11,483667	0,5	2,889400
11,492000	0,5	3,131950
11,500333	0,5	3,395600
11,508667	0,5	3,651850
11,517000	0,5	3,863500
11,525333	0,5	3,998000
11,533667	0,5	4,034550
11,542000	0,5	3,977800
11,550333	0,5	3,837550
11,558667	0,5	3,649350
11,567000	0,5	3,423950
11,575333	0,5	3,208650
11,583667	0,5	3,009650
11,592000	0,5	2,839850
11,600333	0,5	2,716650
11,608667	0,5	2,636250
11,617000	0,5	2,580150
11,625333	0,5	2,558900
11,633667	0,5	2,549300
11,642000	0,5	2,559000
11,650333	0,5	2,572500
11,658667	0,5	2,591700
11,667000	0,5	2,606000
11,675333	0,5	2,614250
11,683667	0,5	2,619850
11,692000	0,5	2,619100
11,700333	0,5	2,616900
11,708667	0,5	2,607650
11,717000	0,5	2,603000
11,725333	0,5	2,586850
11,733667	0,5	2,570600
11,742000	0,5	2,540600
11,750333	0,5	2,519550
11,758667	0,5	2,493400
11,767000	0,5	2,467650
11,775333	0,5	2,442050
11,783667	0,5	2,425300
11,792000	0,5	2,426800
11,800333	0,5	2,439950
11,808667	0,5	2,471150
11,817000	0,5	2,525050
11,825333	0,5	2,592700
11,833667	0,5	2,672750
11,842000	0,5	2,753250
11,850333	0,5	2,820550
11,858667	0,5	2,862400
11,867000	0,5	2,875500
11,875333	0,5	2,859850
11,883667	0,5	2,814650
11,892000	0,5	2,753150
11,900333	0,5	2,690350
11,908667	0,5	2,622550
11,917000	0,5	2,555800
11,925333	0,5	2,493250
11,933667	0,5	2,436400
11,942000	0,5	2,392750
11,950333	0,5	2,350900
11,958667	0,5	2,313550
11,967000	0,5	2,283500
11,975333	0,5	2,263150
11,983667	0,5	2,249900
11,992000	0,5	2,235450
12,000333	0,5	2,234500
12,008667	0,5	2,231150
12,017000	0,5	2,229050
12,025333	0,5	2,228300
12,033667	0,5	2,214750
12,042000	0,5	2,206600
12,050333	0,5	2,200700
12,058667	0,5	2,192750
12,067000	0,5	2,177900
12,075333	0,5	2,168450
12,083667	0,5	2,160600
12,092000	0,5	2,159000
12,100333	0,5	2,154300
12,108667	0,5	2,149600
12,117000	0,5	2,148750
12,125333	0,5	2,145100
12,133667	0,5	2,141400
12,142000	0,5	2,135450
12,150333	0,5	2,127400
12,158667	0,5	2,117000
12,167000	0,5	2,111600
12,175333	0,5	2,110950
12,183667	0,5	2,105900
12,192000	0,5	2,112950
12,200333	0,5	2,118900
12,208667	0,5	2,124000
12,217000	0,5	2,120850
12,225333	0,5	2,115650
12,233667	0,5	2,117800
12,242000	0,5	2,124500
12,250333	0,5	2,122150
12,258667	0,5	2,126900
12,267000	0,5	2,129200
12,275333	0,5	2,136000
12,283667	0,5	2,141650
12,292000	0,5	2,156300
12,300333	0,5	2,162400
12,308667	0,5	2,173000
12,317000	0,5	2,177750
12,325333	0,5	2,182800
12,333667	0,5	2,180150
12,342000	0,5	2,194650
12,350333	0,5	2,201550
12,358667	0,5	2,211650
12,367000	0,5	2,215000
12,375333	0,5	2,222700
12,383667	0,5	2,237350
12,392000	0,5	2,258550
12,400333	0,5	2,285950
12,408667	0,5	2,322950
12,417000	0,5	2,372850
12,425333	0,5	2,426200
12,433667	0,5	2,478950
12,442000	0,5	2,520100
12,450333	0,5	2,547800
12,458667	0,5	2,567200
12,467000	0,5	2,593800
12,475333	0,5	2,628000
12,483667	0,5	2,670800
12,492000	0,5	2,712500
12,500333	0,5	2,722200
12,508667	0,5	2,703950
12,517000	0,5	2,675550
12,525333	0,5	2,678300
12,533667	0,5	2,688600
12,542000	0,5	2,628650
12,550333	0,5	2,564750
12,558667	0,5	2,451050
12,567000	0,5	2,204250
12,575333	0,5	1,881450
12,583667	0,5	1,530900
12,592000	0,5	1,204800
12,600333	0,5	0,954050
12,608667	0,5	0,769000
12,617000	0,5	0,628150
12,625333	0,5	0,524600
12,633667	0,5	0,463850
12,642000	0,5	0,417450
12,650333	0,5	0,383750
12,658667	0,5	0,352600
12,667000	0,5	0,327400
12,675333	0,5	0,313300
12,683667	0,5	0,303000
12,692000	0,5	0,295550
12,700333	0,5	0,284800
12,708667	0,5	0,273550
12,717000	0,5	0,264850
12,725333	0,5	0,252250
12,733667	0,5	0,244050
12,742000	0,5	0,229200
12,750333	0,5	0,217000
12,758667	0,5	0,203050
12,767000	0,5	0,192800
12,775333	0,5	0,177950
12,783667	0,5	0,178900
12,792000	0,5	0,172150
12,800333	0,5	0,164400
12,808667	0,5	0,158400
12,817000	0,5	0,148500
12,825333	0,5	0,145800
12,833667	0,5	0,142250
12,842000	0,5	0,134450
12,850333	0,5	0,126150
12,858667	0,5	0,116000
12,867000	0,5	0,102550
12,875333	0,5	0,090650
12,883667	0,5	0,074050
12,892000	0,5	0,063500
12,900333	0,5	0,049050
12,908667	0,5	0,039750
12,917000	0,5	0,026650
12,925333	0,5	0,019650
12,933667	0,5	0,018750
12,942000	0,5	0,014550
12,950333	0,5	0,007450
12,958667	0,5	0,002800
12,967000	0,5	-0,005550
12,975333	0,5	0,000200
12,983667	0,5	-0,003750
12,992000	0,5	0,002800
13,000333	0,5	0,003600
13,008667	0,5	0,013750
13,017000	0,5	0,029000
13,025333	0,5	0,047600
13,033667	0,5	0,071450
13,042000	0,5	0,101850
13,050333	0,5	0,137400
13,058667	0,5	0,176400
13,067000	0,5	0,206050
13,075333	0,5	0,242750
13,083667	0,5	0,283400
13,092000	0,5	0,315200
13,100333	0,5	0,356950
13,108667	0,5	0,399100
13,117000	0,5	0,456050
13,125333	0,5	0,517200
13,133667	0,5	0,589450
13,142000	0,5	0,659700
13,150333	0,5	0,736450
13,158667	0,5	0,808300
13,167000	0,5	0,883150
13,175333	0,5	0,945650
13,183667	0,5	1,002750
13,192000	0,5	1,050750
13,200333	0,5	1,091750
13,208667	0,5	1,125300
13,217000	0,5	1,141300
13,225333	0,5	1,161400
13,233667	0,5	1,167300
13,242000	0,5	1,167050
13,250333	0,5	1,157950
13,258667	0,5	1,141000
13,267000	0,5	1,132450
13,275333	0,5	1,121200
13,283667	0,5	1,108250
13,292000	0,5	1,096900
13,300333	0,5	1,082300
13,308667	0,5	1,067600
13,317000	0,5	1,055350
13,325333	0,5	1,055800
13,333667	0,5	1,052500
13,342000	0,5	1,057800
13,350333	0,5	1,062950
13,358667	0,5	1,073500
13,367000	0,5	1,078350
13,375333	0,5	1,101200
13,383667	0,5	1,112200
13,392000	0,5	1,122500
13,400333	0,5	1,128400
13,408667	0,5	1,128750
13,417000	0,5	1,137500
13,425333	0,5	1,141800
13,433667	0,5	1,136050
13,442000	0,5	1,125750
13,450333	0,5	1,112350
13,458667	0,5	1,097850
13,467000	0,5	1,088200
13,475333	0,5	1,076150
13,483667	0,5	1,070850
13,492000	0,5	1,065850
13,500333	0,5	1,063300
13,508667	0,5	1,045050
13,517000	0,5	1,041300
13,525333	0,5	1,036600
13,533667	0,5	1,028100
13,542000	0,5	1,017800
13,550333	0,5	1,009450
13,558667	0,5	1,009600
13,567000	0,5	1,008900
13,575333	0,5	1,007900
13,583667	0,5	1,011900
13,592000	0,5	1,009250
13,600333	0,5	1,011600
13,608667	0,5	1,007550
13,617000	0,5	1,006800
13,625333	0,5	1,010050
13,633667	0,5	0,998900
13,642000	0,5	0,999850
13,650333	0,5	0,996850
13,658667	0,5	0,987650
13,667000	0,5	0,988750
13,675333	0,5	0,987450
13,683667	0,5	0,985700
13,692000	0,5	0,982100
13,700333	0,5	0,969050
13,708667	0,5	0,972600
13,717000	0,5	0,973900
13,725333	0,5	0,977650
13,733667	0,5	0,972750
13,742000	0,5	0,973800
13,750333	0,5	0,971800
13,758667	0,5	0,971500
13,767000	0,5	0,966900
13,775333	0,5	0,969200
13,783667	0,5	0,969800
13,792000	0,5	0,966150
13,800333	0,5	0,967700
13,808667	0,5	0,962350
13,817000	0,5	0,973150
13,825333	0,5	0,977250
13,833667	0,5	0,973050
13,842000	0,5	0,972200
13,850333	0,5	0,968850
13,858667	0,5	0,974800
13,867000	0,5	0,979950
13,875333	0,5	0,979800
13,883667	0,5	0,987800
13,892000	0,5	0,987900
13,900333	0,5	0,994300
13,908667	0,5	0,998000
13,917000	0,5	0,998400
13,925333	0,5	1,001200
13,933667	0,5	1,000650
13,942000	0,5	1,009900
13,950333	0,5	1,006750
13,958667	0,5	1,010300
13,967000	0,5	1,023200
13,975333	0,5	1,031800
13,983667	0,5	1,029750
13,992000	0,5	1,032500
14,000333	0,5	1,034000
14,008667	0,5	1,048950
14,017000	0,5	1,048300
14,025333	0,5	1,058350
14,033667	0,5	1,062750
14,042000	0,5	1,073000
14,050333	0,5	1,077100
14,058667	0,5	1,091650
14,067000	0,5	1,099450
14,075333	0,5	1,107650
14,083667	0,5	1,117400
14,092000	0,5	1,131950
14,100333	0,5	1,127550
14,108667	0,5	1,141500
14,117000	0,5	1,150700
14,125333	0,5	1,158300
14,133667	0,5	1,167500
14,142000	0,5	1,165250
14,150333	0,5	1,175700
14,158667	0,5	1,184300
14,167000	0,5	1,195950
14,175333	0,5	1,196100
14,183667	0,5	1,220250
14,192000	0,5	1,227850
14,200333	0,5	1,244550
14,208667	0,5	1,255750
14,217000	0,5	1,271100
14,225333	0,5	1,278700
14,233667	0,5	1,289600
14,242000	0,5	1,291400
14,250333	0,5	1,293700
14,258667	0,5	1,308400
14,267000	0,5	1,326000
14,275333	0,5	1,334300
14,283667	0,5	1,338950
14,292000	0,5	1,343400
14,300333	0,5	1,352850
14,308667	0,5	1,368550
14,317000	0,5	1,376250
14,325333	0,5	1,386050
14,333667	0,5	1,397450
14,342000	0,5	1,412350
14,350333	0,5	1,426300
14,358667	0,5	1,439600
14,367000	0,5	1,449600
14,375333	0,5	1,462900
14,383667	0,5	1,476900
14,392000	0,5	1,494250
14,400333	0,5	1,506450
14,408667	0,5	1,531100
14,417000	0,5	1,539350
14,425333	0,5	1,553550
14,433667	0,5	1,555800
14,442000	0,5	1,568000
14,450333	0,5	1,583900
14,458667	0,5	1,597150
14,467000	0,5	1,607600
14,475333	0,5	1,615350
14,483667	0,5	1,624500
14,492000	0,5	1,634700
14,500333	0,5	1,641950
14,508667	0,5	1,645650
14,517000	0,5	1,652000
14,525333	0,5	1,653050
14,533667	0,5	1,658000
14,542000	0,5	1,648100
14,550333	0,5	1,655250
14,558667	0,5	1,658650
14,567000	0,5	1,654500
14,575333	0,5	1,651800
14,583667	0,5	1,642450
14,592000	0,5	1,645150
14,600333	0,5	1,643300
14,608667	0,5	1,641900
14,617000	0,5	1,644100
14,625333	0,5	1,646050
14,633667	0,5	1,653850
14,642000	0,5	1,660650
14,650333	0,5	1,670600
14,658667	0,5	1,677800
14,667000	0,5	1,687200
14,675333	0,5	1,703700
14,683667	0,5	1,707900
14,692000	0,5	1,705400
14,700333	0,5	1,716500
14,708667	0,5	1,711300
14,717000	0,5	1,697350
14,725333	0,5	1,679400
14,733667	0,5	1,654350
14,742000	0,5	1,651250
14,750333	0,5	1,647550
14,758667	0,5	1,651500
14,767000	0,5	1,650700
14,775333	0,5	1,660700
14,783667	0,5	1,665850
14,792000	0,5	1,678800
14,800333	0,5	1,684200
14,808667	0,5	1,695950
14,817000	0,5	1,707050
14,825333	0,5	1,719800
14,833667	0,5	1,722050
14,842000	0,5	1,711000
14,850333	0,5	1,706450
14,858667	0,5	1,692000
14,867000	0,5	1,683250
14,875333	0,5	1,688450
14,883667	0,5	1,713900
14,892000	0,5	1,751400
14,900333	0,5	1,790500
14,908667	0,5	1,808450
14,917000	0,5	1,811900
14,925333	0,5	1,782800
14,933667	0,5	1,749800
14,942000	0,5	1,705400
14,950333	0,5	1,671000
14,958667	0,5	1,637250
14,967000	0,5	1,618950
14,975333	0,5	1,614950
14,983667	0,5	1,600700
14,992000	0,5	1,601400
15,000333	0,5	1,591850
15,008667	0,5	1,566800
15,017000	0,5	1,529100
15,025333	0,5	1,491700
15,033667	0,5	1,463150
15,042000	0,5	1,449400
15,050333	0,5	1,426450
15,058667	0,5	1,414350
15,067000	0,5	1,399100
15,075333	0,5	1,392300
15,083667	0,5	1,384400
15,092000	0,5	1,376700
15,100333	0,5	1,371850
15,108667	0,5	1,371700
15,117000	0,5	1,376100
15,125333	0,5	1,376150
15,133667	0,5	1,360450
15,142000	0,5	1,367400
15,150333	0,5	1,360200
15,158667	0,5	1,350350
15,167000	0,5	1,333600
15,175333	0,5	1,312500
15,183667	0,5	1,311500
15,192000	0,5	1,306700
15,200333	0,5	1,305650
15,208667	0,5	1,296500
15,217000	0,5	1,293100
15,225333	0,5	1,283300
15,233667	0,5	1,282150
15,242000	0,5	1,269500
15,250333	0,5	1,262300
15,258667	0,5	1,251700
15,267000	0,5	1,247400
15,275333	0,5	1,230350
15,283667	0,5	1,220050
15,292000	0,5	1,222400
15,300333	0,5	1,213550
15,308667	0,5	1,203200
15,317000	0,5	1,188200
15,325333	0,5	1,177950
15,333667	0,5	1,172200
15,342000	0,5	1,173950
15,350333	0,5	1,166200
15,358667	0,5	1,162650
15,367000	0,5	1,158550
15,375333	0,5	1,155500
15,383667	0,5	1,150800
15,392000	0,5	1,144450
15,400333	0,5	1,136100
15,408667	0,5	1,131200
15,417000	0,5	1,126700
15,425333	0,5	1,116200
15,433667	0,5	1,112650
15,442000	0,5	1,121400
15,450333	0,5	1,110350
15,458667	0,5	1,107350
15,467000	0,5	1,094000
15,475333	0,5	1,093850
15,483667	0,5	1,095250
15,492000	0,5	1,098400
15,500333	0,5	1,101800
15,508667	0,5	1,100950
15,517000	0,5	1,097850
15,525333	0,5	1,096650
15,533667	0,5	1,097800
15,542000	0,5	1,092800
15,550333	0,5	1,091200
15,558667	0,5	1,080000
15,567000	0,5	1,071700
15,575333	0,5	1,047800
15,583667	0,5	1,052750
15,592000	0,5	1,042800
15,600333	0,5	1,032850
15,608667	0,5	1,015700
15,617000	0,5	1,001850
15,625333	0,5	0,999500
15,633667	0,5	0,999350
15,642000	0,5	0,998700
15,650333	0,5	1,000350
15,658667	0,5	1,002100
15,667000	0,5	1,005500
15,675333	0,5	1,002200
15,683667	0,5	0,993850
15,692000	0,5	0,981000
15,700333	0,5	0,964650
15,708667	0,5	0,964550
15,717000	0,5	0,946500
15,725333	0,5	0,937100
15,733667	0,5	0,939800
15,742000	0,5	0,940000
15,750333	0,5	0,926550
15,758667	0,5	0,915000
15,767000	0,5	0,901250
15,775333	0,5	0,905200
15,783667	0,5	0,897300
15,792000	0,5	0,898350
15,800333	0,5	0,894050
15,808667	0,5	0,889800
15,817000	0,5	0,880450
15,825333	0,5	0,880250
15,833667	0,5	0,877150
15,842000	0,5	0,872150
15,850333	0,5	0,871050
15,858667	0,5	0,875200
15,867000	0,5	0,860700
15,875333	0,5	0,858950
15,883667	0,5	0,862650
15,892000	0,5	0,860000
15,900333	0,5	0,852050
15,908667	0,5	0,831700
15,917000	0,5	0,830550
15,925333	0,5	0,828550
15,933667	0,5	0,823450
15,942000	0,5	0,813750
15,950333	0,5	0,818150
15,958667	0,5	0,810550
15,967000	0,5	0,809250
15,975333	0,5	0,810750
15,983667	0,5	0,810650
15,992000	0,5	0,805650
16,000333	0,5	0,801450
16,008667	0,5	0,805550
16,017000	0,5	0,785700
16,025333	0,5	0,791050
16,033667	0,5	0,784700
16,042000	0,5	0,778350
16,050333	0,5	0,758700
16,058667	0,5	0,739050
16,067000	0,5	0,734300
16,075333	0,5	0,736250
16,083667	0,5	0,730750
16,092000	0,5	0,731000
16,100333	0,5	0,727250
16,108667	0,5	0,732100
16,117000	0,5	0,733300
16,125333	0,5	0,730950
16,133667	0,5	0,725850
16,142000	0,5	0,728500
16,150333	0,5	0,731550
16,158667	0,5	0,728850
16,167000	0,5	0,712000
16,175333	0,5	0,719200
16,183667	0,5	0,713050
16,192000	0,5	0,703850
16,200333	0,5	0,687200
16,208667	0,5	0,666850
16,217000	0,5	0,665850
16,225333	0,5	0,655650
16,233667	0,5	0,655550
16,242000	0,5	0,645450
16,250333	0,5	0,645850
16,258667	0,5	0,635000
16,267000	0,5	0,633950
16,275333	0,5	0,622950
16,283667	0,5	0,622000
16,292000	0,5	0,614050
16,300333	0,5	0,608700
16,308667	0,5	0,589750
16,317000	0,5	0,582650
16,325333	0,5	0,581650
16,333667	0,5	0,567450
16,342000	0,5	0,560500
16,350333	0,5	0,541250
16,358667	0,5	0,531150
16,367000	0,5	0,527900
16,375333	0,5	0,525450
16,383667	0,5	0,518500
16,392000	0,5	0,518900
16,400333	0,5	0,514250
16,408667	0,5	0,511650
16,417000	0,5	0,504450
16,425333	0,5	0,501300
16,433667	0,5	0,494400
16,442000	0,5	0,502150
16,450333	0,5	0,490900
16,458667	0,5	0,480300
16,467000	0,5	0,483300
16,475333	0,5	0,485900
16,483667	0,5	0,480300
16,492000	0,5	0,469100
16,500333	0,5	0,452550
16,508667	0,5	0,451500
16,517000	0,5	0,450000
16,525333	0,5	0,449100
16,533667	0,5	0,448800
16,542000	0,5	0,447550
16,550333	0,5	0,444600
16,558667	0,5	0,439000
16,567000	0,5	0,439350
16,575333	0,5	0,427350
16,583667	0,5	0,427750
16,592000	0,5	0,431950
16,600333	0,5	0,423950
16,608667	0,5	0,410500
16,617000	0,5	0,422650
16,625333	0,5	0,416250
16,633667	0,5	0,409450
16,642000	0,5	0,392950
16,650333	0,5	0,382600
16,658667	0,5	0,381850
16,667000	0,5	0,377950
16,675333	0,5	0,368000
16,683667	0,5	0,364800
16,692000	0,5	0,358000
16,700333	0,5	0,349100
16,708667	0,5	0,348350
16,717000	0,5	0,342850
16,725333	0,5	0,338400
16,733667	0,5	0,337450
16,742000	0,5	0,341150
16,750333	0,5	0,323500
16,758667	0,5	0,322200
16,767000	0,5	0,324850
16,775333	0,5	0,321700
16,783667	0,5	0,310600
16,792000	0,5	0,293300
16,800333	0,5	0,288000
16,808667	0,5	0,293050
16,817000	0,5	0,286400
16,825333	0,5	0,284150
16,833667	0,5	0,278550
16,842000	0,5	0,279750
16,850333	0,5	0,271250
16,858667	0,5	0,268750
16,867000	0,5	0,263700
16,875333	0,5	0,259050
16,883667	0,5	0,270400
16,892000	0,5	0,270200
16,900333	0,5	0,252600
16,908667	0,5	0,253350
16,917000	0,5	0,252400
16,925333	0,5	0,245250
16,933667	0,5	0,237500
16,942000	0,5	0,208000
16,950333	0,5	0,219650
16,958667	0,5	0,217450
16,967000	0,5	0,220550
16,975333	0,5	0,208800
16,983667	0,5	0,212450
16,992000	0,5	0,206900
17,000333	0,5	0,213650
17,008667	0,5	0,209750
17,017000	0,5	0,213250
17,025333	0,5	0,216600
17,033667	0,5	0,223000
17,042000	0,5	0,228650
17,050333	0,5	0,221400
17,058667	0,5	0,236100
17,067000	0,5	0,244500
17,075333	0,5	0,251700
17,083667	0,5	0,255700
17,092000	0,5	0,260300
17,100333	0,5	0,278300
17,108667	0,5	0,306650
17,117000	0,5	0,319250
17,125333	0,5	0,348050
17,133667	0,5	0,359850
17,142000	0,5	0,374850
17,150333	0,5	0,375300
17,158667	0,5	0,377400
17,167000	0,5	0,368350
17,175333	0,5	0,364100
17,183667	0,5	0,361450
17,192000	0,5	0,353650
17,200333	0,5	0,342050
17,208667	0,5	0,352350
17,217000	0,5	0,348550
17,225333	0,5	0,347850
17,233667	0,5	0,336950
17,242000	0,5	0,336000
17,250333	0,5	0,345500
17,258667	0,5	0,353650
17,267000	0,5	0,360450
17,275333	0,5	0,365050
17,283667	0,5	0,377250
17,292000	0,5	0,384550
17,300333	0,5	0,393500
17,308667	0,5	0,401450
17,317000	0,5	0,407300
17,325333	0,5	0,423500
17,333667	0,5	0,433750
17,342000	0,5	0,422600
17,350333	0,5	0,431450
17,358667	0,5	0,439350
17,367000	0,5	0,437550
17,375333	0,5	0,431850
17,383667	0,5	0,415950
17,392000	0,5	0,417650
17,400333	0,5	0,414550
17,408667	0,5	0,418700
17,417000	0,5	0,419300
17,425333	0,5	0,415350
17,433667	0,5	0,422400
17,442000	0,5	0,426250
17,450333	0,5	0,422950
17,458667	0,5	0,422350
17,467000	0,5	0,416300
17,475333	0,5	0,429900
17,483667	0,5	0,419450
17,492000	0,5	0,411050
17,500333	0,5	0,410000
17,508667	0,5	0,408850
17,517000	0,5	0,393500
17,525333	0,5	0,375600
17,533667	0,5	0,358150
17,542000	0,5	0,350800
17,550333	0,5	0,343050
17,558667	0,5	0,334500
17,567000	0,5	0,326800
17,575333	0,5	0,317100
17,583667	0,5	0,305900
17,592000	0,5	0,296900
17,600333	0,5	0,291050
17,608667	0,5	0,276800
17,617000	0,5	0,273400
17,625333	0,5	0,269950
17,633667	0,5	0,250500
17,642000	0,5	0,244700
17,650333	0,5	0,245000
17,658667	0,5	0,238350
17,667000	0,5	0,230850
17,675333	0,5	0,211100
17,683667	0,5	0,213700
17,692000	0,5	0,222750
17,700333	0,5	0,230350
17,708667	0,5	0,239650
17,717000	0,5	0,257950
17,725333	0,5	0,281550
17,733667	0,5	0,298250
17,742000	0,5	0,317200
17,750333	0,5	0,322300
17,758667	0,5	0,315200
17,767000	0,5	0,297700
17,775333	0,5	0,285450
17,783667	0,5	0,227000
17,792000	0,5	0,214350
17,800333	0,5	0,177000
17,808667	0,5	0,148800
17,817000	0,5	0,114350
17,825333	0,5	0,073350
17,833667	0,5	0,062650
17,842000	0,5	0,054750
17,850333	0,5	0,037750
17,858667	0,5	0,028050
17,867000	0,5	0,016350
17,875333	0,5	0,005050
17,883667	0,5	-0,003700
17,892000	0,5	-0,010050
17,900333	0,5	-0,019050
17,908667	0,5	-0,026200
17,917000	0,5	-0,022600
17,925333	0,5	-0,028150
17,933667	0,5	-0,045150
17,942000	0,5	-0,043700
17,950333	0,5	-0,046050
17,958667	0,5	-0,060000
17,967000	0,5	-0,076950
17,975333	0,5	-0,096150
17,983667	0,5	-0,095100
17,992000	0,5	-0,102100
18,000333	0,5	-0,107000
18,008667	0,5	-0,116650
18,017000	0,5	-0,117700
18,025333	0,5	-0,127950
18,033667	0,5	-0,130700
18,042000	0,5	-0,134050
18,050333	0,5	-0,142950
18,058667	0,5	-0,142350
18,067000	0,5	-0,149050
18,075333	0,5	-0,160450
18,083667	0,5	-0,163750
18,092000	0,5	-0,162200
18,100333	0,5	-0,172500
18,108667	0,5	-0,182750
18,117000	0,5	-0,205550
18,125333	0,5	-0,217500
18,133667	0,5	-0,226550
18,142000	0,5	-0,224900
18,150333	0,5	-0,236450
18,158667	0,5	-0,237150
18,167000	0,5	-0,244000
18,175333	0,5	-0,242900
18,183667	0,5	-0,254700
18,192000	0,5	-0,258050
18,200333	0,5	-0,266700
18,208667	0,5	-0,267750
18,217000	0,5	-0,273200
18,225333	0,5	-0,288950
18,233667	0,5	-0,284400
18,242000	0,5	-0,287450
18,250333	0,5	-0,299850
18,258667	0,5	-0,314850
18,267000	0,5	-0,333700
18,275333	0,5	-0,346000
18,283667	0,5	-0,348500
18,292000	0,5	-0,358650
18,300333	0,5	-0,361200
18,308667	0,5	-0,375600
18,317000	0,5	-0,379150
18,325333	0,5	-0,385950
18,333667	0,5	-0,387250
18,342000	0,5	-0,396650
18,350333	0,5	-0,398650
18,358667	0,5	-0,394650
18,367000	0,5	-0,405650
18,375333	0,5	-0,417750
18,383667	0,5	-0,417900
18,392000	0,5	-0,417650
18,400333	0,5	-0,433000
18,408667	0,5	-0,450600
18,417000	0,5	-0,464500
18,425333	0,5	-0,461450
18,433667	0,5	-0,471750
18,442000	0,5	-0,470250
18,450333	0,5	-0,481200
18,458667	0,5	-0,476050
18,467000	0,5	-0,485200
18,475333	0,5	-0,486650
18,483667	0,5	-0,492550
18,492000	0,5	-0,497950
18,500333	0,5	-0,498800
18,508667	0,5	-0,493000
18,517000	0,5	-0,516450
18,525333	0,5	-0,509800
18,533667	0,5	-0,507800
18,542000	0,5	-0,508700
18,550333	0,5	-0,521300
18,558667	0,5	-0,543400
18,567000	0,5	-0,540400
18,575333	0,5	-0,544700
18,583667	0,5	-0,544350
18,592000	0,5	-0,550300
18,600333	0,5	-0,547000
18,608667	0,5	-0,551800
18,617000	0,5	-0,549050
18,625333	0,5	-0,549700
18,633667	0,5	-0,547100
18,642000	0,5	-0,546600
18,650333	0,5	-0,538800
18,658667	0,5	-0,530850
18,667000	0,5	-0,539650
18,675333	0,5	-0,526500
18,683667	0,5	-0,514500
18,692000	0,5	-0,512800
18,700333	0,5	-0,505950
18,708667	0,5	-0,521200
18,717000	0,5	-0,502100
18,725333	0,5	-0,489250
18,733667	0,5	-0,482100
18,742000	0,5	-0,467850
18,750333	0,5	-0,462200
18,758667	0,5	-0,447700
18,767000	0,5	-0,439500
18,775333	0,5	-0,426600
18,783667	0,5	-0,426600
18,792000	0,5	-0,423900
18,800333	0,5	-0,420200
18,808667	0,5	-0,414950
18,817000	0,5	-0,430050
18,825333	0,5	-0,412600
18,833667	0,5	-0,420000
18,842000	0,5	-0,427850
18,850333	0,5	-0,446900
18,858667	0,5	-0,470750
18,867000	0,5	-0,468750
18,875333	0,5	-0,474750
18,883667	0,5	-0,486050
18,892000	0,5	-0,496350
18,900333	0,5	-0,501500
18,908667	0,5	-0,514750
18,917000	0,5	-0,524600
18,925333	0,5	-0,538600
18,933667	0,5	-0,545250
18,942000	0,5	-0,553150
18,950333	0,5	-0,554200
18,958667	0,5	-0,575850
18,967000	0,5	-0,578600
18,975333	0,5	-0,581750
18,983667	0,5	-0,592950
18,992000	0,5	-0,611550
19,000333	0,5	-0,629950
19,008667	0,5	-0,641600
19,017000	0,5	-0,643300
19,025333	0,5	-0,649350
19,033667	0,5	-0,658800
19,042000	0,5	-0,667950
19,050333	0,5	-0,675400
19,058667	0,5	-0,680400
19,067000	0,5	-0,685950
19,075333	0,5	-0,690800
19,083667	0,5	-0,703050
19,092000	0,5	-0,691950
19,100333	0,5	-0,700200
19,108667	0,5	-0,710900
19,117000	0,5	-0,707450
19,125333	0,5	-0,703000
19,133667	0,5	-0,705050
19,142000	0,5	-0,706150
19,150333	0,5	-0,721100
19,158667	0,5	-0,713550
19,167000	0,5	-0,702700
19,175333	0,5	-0,697550
19,183667	0,5	-0,698600
19,192000	0,5	-0,697750
19,200333	0,5	-0,705650
19,208667	0,5	-0,710450
19,217000	0,5	-0,721650
19,225333	0,5	-0,738800
19,233667	0,5	-0,750600
19,242000	0,5	-0,757250
19,250333	0,5	-0,779400
19,258667	0,5	-0,797050
19,267000	0,5	-0,803800
19,275333	0,5	-0,819650
19,283667	0,5	-0,831900
19,292000	0,5	-0,866250
19,300333	0,5	-0,875850
19,308667	0,5	-0,886200
19,317000	0,5	-0,885600
19,325333	0,5	-0,895300
19,333667	0,5	-0,897800
19,342000	0,5	-0,906650
19,350333	0,5	-0,909500
19,358667	0,5	-0,913550
19,367000	0,5	-0,920100
19,375333	0,5	-0,921600
19,383667	0,5	-0,921250
19,392000	0,5	-0,922700
19,400333	0,5	-0,945800
19,408667	0,5	-0,943500
19,417000	0,5	-0,942500
19,425333	0,5	-0,954150
19,433667	0,5	-0,969500
19,442000	0,5	-0,993550
19,450333	0,5	-0,998800
19,458667	0,5	-0,998500
19,467000	0,5	-1,011650
19,475333	0,5	-1,013950
19,483667	0,5	-1,024150
19,492000	0,5	-1,022100
19,500333	0,5	-1,023600
19,508667	0,5	-1,029400
19,517000	0,5	-1,035850
19,525333	0,5	-1,045550
19,533667	0,5	-1,034300
19,542000	0,5	-1,041200
19,550333	0,5	-1,064900
19,558667	0,5	-1,058500
19,567000	0,5	-1,058800
19,575333	0,5	-1,075400
19,583667	0,5	-1,088700
19,592000	0,5	-1,112700
19,600333	0,5	-1,107700
19,608667	0,5	-1,115200
19,617000	0,5	-1,118850
19,625333	0,5	-1,129650
19,633667	0,5	-1,127850
19,642000	0,5	-1,141250
19,650333	0,5	-1,144100
19,658667	0,5	-1,147900
19,667000	0,5	-1,153050
19,675333	0,5	-1,153400
19,683667	0,5	-1,146650
19,692000	0,5	-1,160400
19,700333	0,5	-1,169350
19,708667	0,5	-1,166500
19,717000	0,5	-1,173150
19,725333	0,5	-1,185000
19,733667	0,5	-1,204900
19,742000	0,5	-1,205850
19,750333	0,5	-1,210950
19,758667	0,5	-1,212150
19,767000	0,5	-1,224000
19,775333	0,5	-1,223000
19,783667	0,5	-1,228800
19,792000	0,5	-1,226550
19,800333	0,5	-1,232550
19,808667	0,5	-1,233600
19,817000	0,5	-1,237500
19,825333	0,5	-1,234300
19,833667	0,5	-1,235300
19,842000	0,5	-1,245350
19,850333	0,5	-1,242300
19,858667	0,5	-1,243500
19,867000	0,5	-1,245800
19,875333	0,5	-1,261850
19,883667	0,5	-1,283700
19,892000	0,5	-1,291800
19,900333	0,5	-1,279700
19,908667	0,5	-1,289200
19,917000	0,5	-1,290100
19,925333	0,5	-1,295150
19,933667	0,5	-1,295050
19,942000	0,5	-1,300250
19,950333	0,5	-1,298550
19,958667	0,5	-1,311550
19,967000	0,5	-1,310900
19,975333	0,5	-1,299550
19,983667	0,5	-1,301100
19,992000	0,5	-1,317950
20,000333	0,5	-1,311950
20,008667	0,5	-1,321700
20,017000	0,5	-1,323800
20,025333	0,5	-1,345400
20,033667	0,5	-1,364700
20,042000	0,5	-1,357700
20,050333	0,5	-1,573100
20,058667	0,5	-1,353350
20,067000	0,5	-1,375700
20,075333	0,5	-1,381900
20,083667	0,5	-1,398050
20,092000	0,5	-1,400450
20,100333	0,5	-1,405700
20,108667	0,5	-1,398700
20,117000	0,5	-1,398650
20,125333	0,5	-1,390600
20,133667	0,5	-1,402250
20,142000	0,5	-1,402550
20,150333	0,5	-1,398300
20,158667	0,5	-1,403950
20,167000	0,5	-1,414750
20,175333	0,5	-1,431700
20,183667	0,5	-1,432950
20,192000	0,5	-1,437200
20,200333	0,5	-1,431150
20,208667	0,5	-1,434500
20,217000	0,5	-1,430400
20,225333	0,5	-1,430850
20,233667	0,5	-1,432300
20,242000	0,5	-1,435500
20,250333	0,5	-1,437150
20,258667	0,5	-1,442500
20,267000	0,5	-1,424850
20,275333	0,5	-1,426600
20,283667	0,5	-1,437550
20,292000	0,5	-1,437950
20,300333	0,5	-1,433500
20,308667	0,5	-1,445150
20,317000	0,5	-1,457700
20,325333	0,5	-1,473750
20,333667	0,5	-1,471900
20,342000	0,5	-1,470150
20,350333	0,5	-1,473250
20,358667	0,5	-1,471450
20,367000	0,5	-1,475550
20,375333	0,5	-1,474350
20,383667	0,5	-1,473850
20,392000	0,5	-1,468650
20,400333	0,5	-1,470750
20,408667	0,5	-1,458750
20,417000	0,5	-1,442100
20,425333	0,5	-1,441800
20,433667	0,5	-1,448300
20,442000	0,5	-1,437000
20,450333	0,5	-1,441800
20,458667	0,5	-1,442500
20,467000	0,5	-1,461050
20,475333	0,5	-1,462850
20,483667	0,5	-1,453550
20,492000	0,5	-1,455250
20,500333	0,5	-1,455250
20,508667	0,5	-1,454450
20,517000	0,5	-1,448900
20,525333	0,5	-1,452350
20,533667	0,5	-1,443650
20,542000	0,5	-1,445600
20,550333	0,5	-1,444750
20,558667	0,5	-1,434300
20,567000	0,5	-1,426600
20,575333	0,5	-1,442000
20,583667	0,5	-1,438100
20,592000	0,5	-1,448300
20,600333	0,5	-1,452600
20,608667	0,5	-1,469350
20,617000	0,5	-1,491700
20,625333	0,5	-1,484000
20,633667	0,5	-1,487600
20,642000	0,5	-1,489650
20,650333	0,5	-1,494850
20,658667	0,5	-1,497900
20,667000	0,5	-1,497300
20,675333	0,5	-1,501550
20,683667	0,5	-1,503550
20,692000	0,5	-1,504250
20,700333	0,5	-1,505350
20,708667	0,5	-1,483850
20,717000	0,5	-1,477750
20,725333	0,5	-1,493650
20,733667	0,5	-1,492400
20,742000	0,5	-1,502750
20,750333	0,5	-1,515350
20,758667	0,5	-1,522400
20,767000	0,5	-1,543650
20,775333	0,5	-1,534950
20,783667	0,5	-1,539950
20,792000	0,5	-1,539700
20,800333	0,5	-1,543450
20,808667	0,5	-1,544350
20,817000	0,5	-1,540650
20,825333	0,5	-1,540550
20,833667	0,5	-1,536350
20,842000	0,5	-1,537700
20,850333	0,5	-1,520650
20,858667	0,5	-1,506900
20,867000	0,5	-1,502000
20,875333	0,5	-1,510950
20,883667	0,5	-1,506200
20,892000	0,5	-1,514750
20,900333	0,5	-1,520650
20,908667	0,5	-1,538850
20,917000	0,5	-1,542150
20,925333	0,5	-1,539600
20,933667	0,5	-1,531700
20,942000	0,5	-1,531100
20,950333	0,5	-1,526200
20,958667	0,5	-1,518100
20,967000	0,5	-1,513100
20,975333	0,5	-1,510500
20,983667	0,5	-1,511700
20,992000	0,5	-1,505300
21,000333	0,5	-1,480400
21,008667	0,5	-1,465850
21,017000	0,5	-1,467800
21,025333	0,5	-1,467900
21,033667	0,5	-1,471550
21,042000	0,5	-1,476000
21,050333	0,5	-1,497450
21,058667	0,5	-1,502350
21,067000	0,5	-1,503750
21,075333	0,5	-1,497400
21,083667	0,5	-1,497750
21,092000	0,5	-1,494800
21,100333	0,5	-1,491400
21,108667	0,5	-1,491600
21,117000	0,5	-1,487100
21,125333	0,5	-1,488550
21,133667	0,5	-1,478550
21,142000	0,5	-1,469700
21,150333	0,5	-1,444850
21,158667	0,5	-1,430350
21,167000	0,5	-1,435100
21,175333	0,5	-1,432500
21,183667	0,5	-1,437100
21,192000	0,5	-1,442950
21,200333	0,5	-1,453500
21,208667	0,5	-1,450600
21,217000	0,5	-1,441950
21,225333	0,5	-1,437450
21,233667	0,5	-1,430000
21,242000	0,5	-1,428800
21,250333	0,5	-1,414750
21,258667	0,5	-1,406300
21,267000	0,5	-1,400450
21,275333	0,5	-1,395400
21,283667	0,5	-1,389450
21,292000	0,5	-1,357400
21,300333	0,5	-1,329700
21,308667	0,5	-1,328700
21,317000	0,5	-1,328250
21,325333	0,5	-1,319300
21,333667	0,5	-1,329100
21,342000	0,5	-1,326900
21,350333	0,5	-1,338150
21,358667	0,5	-1,327000
21,367000	0,5	-1,323500
21,375333	0,5	-1,313100
21,383667	0,5	-1,309650
21,392000	0,5	-1,297850
21,400333	0,5	-1,293400
21,408667	0,5	-1,284100
21,417000	0,5	-1,273050
21,425333	0,5	-1,269900
21,433667	0,5	-1,257150
21,442000	0,5	-1,225100
21,450333	0,5	-1,211700
21,458667	0,5	-1,213250
21,467000	0,5	-1,210700
21,475333	0,5	-1,208250
21,483667	0,5	-1,210550
21,492000	0,5	-1,217200
21,500333	0,5	-1,208950
21,508667	0,5	-1,192050
21,517000	0,5	-1,179250
21,525333	0,5	-1,166800
21,533667	0,5	-1,146050
21,542000	0,5	-1,132100
21,550333	0,5	-1,104500
21,558667	0,5	-1,069400
21,567000	0,5	-1,034900
21,575333	0,5	-0,995400
21,583667	0,5	-0,956700
21,592000	0,5	-0,931200
21,600333	0,5	-0,935500
21,608667	0,5	-0,950150
21,617000	0,5	-0,966500
21,625333	0,5	-0,975550
21,633667	0,5	-0,991050
21,642000	0,5	-1,008350
21,650333	0,5	-0,995000
21,658667	0,5	-0,982750
21,667000	0,5	-0,974150
21,675333	0,5	-0,965000
21,683667	0,5	-0,956100
21,692000	0,5	-0,944050
21,700333	0,5	-0,929450
21,708667	0,5	-0,919000
21,717000	0,5	-0,902500
21,725333	0,5	-0,892900
21,733667	0,5	-0,846450
21,742000	0,5	-0,823750
21,750333	0,5	-0,810850
21,758667	0,5	-0,793700
21,767000	0,5	-0,776400
21,775333	0,5	-0,767100
21,783667	0,5	-0,754050
21,792000	0,5	-0,743150
21,800333	0,5	-0,717600
21,808667	0,5	-0,700700
21,817000	0,5	-0,681250
21,825333	0,5	-0,669350
21,833667	0,5	-0,647850
21,842000	0,5	-0,631800
21,850333	0,5	-0,610950
21,858667	0,5	-0,597000
21,867000	0,5	-0,584100
21,875333	0,5	-0,554750
21,883667	0,5	-0,532850
21,892000	0,5	-0,520650
21,900333	0,5	-0,508200
21,908667	0,5	-0,484450
21,917000	0,5	-0,474200
21,925333	0,5	-0,458700
21,933667	0,5	-0,454700
21,942000	0,5	-0,439450
21,950333	0,5	-0,415800
21,958667	0,5	-0,391650
21,967000	0,5	-0,370550
21,975333	0,5	-0,342450
21,983667	0,5	-0,317000
21,992000	0,5	-0,288100
22,000333	0,5	-0,262950
22,008667	0,5	-0,238400
22,017000	0,5	-0,209100
22,025333	0,5	-0,173950
22,033667	0,5	-0,149850
22,042000	0,5	-0,126200
22,050333	0,5	-0,088800
22,058667	0,5	-0,067900
22,067000	0,5	-0,041000
22,075333	0,5	-0,031850
22,083667	0,5	0,000150
22,092000	0,5	0,036750
22,100333	0,5	0,081900
22,108667	0,5	0,120800
22,117000	0,5	0,165400
22,125333	0,5	0,211450
22,133667	0,5	0,256050
22,142000	0,5	0,300000
22,150333	0,5	0,342550
22,158667	0,5	0,384650
22,167000	0,5	0,426100
22,175333	0,5	0,471850
22,183667	0,5	0,497850
22,192000	0,5	0,553150
22,200333	0,5	0,598950
22,208667	0,5	0,635700
22,217000	0,5	0,667300
22,225333	0,5	0,698600
22,233667	0,5	0,742350
22,242000	0,5	0,789650
22,250333	0,5	0,831050
22,258667	0,5	0,879650
22,267000	0,5	0,928500
22,275333	0,5	0,980550
22,283667	0,5	1,027400
22,292000	0,5	1,070300
22,300333	0,5	1,112350
22,308667	0,5	1,147800
22,317000	0,5	1,187000
22,325333	0,5	1,218450
22,333667	0,5	1,278050
22,342000	0,5	1,342250
22,350333	0,5	1,396700
22,358667	0,5	1,437200
22,367000	0,5	1,483850
22,375333	0,5	1,527700
22,383667	0,5	1,588850
22,392000	0,5	1,639450
22,400333	0,5	1,703800
22,408667	0,5	1,755750
22,417000	0,5	1,821850
22,425333	0,5	1,877650
22,433667	0,5	1,941400
22,442000	0,5	1,999800
22,450333	0,5	2,053350
22,458667	0,5	2,107300
22,467000	0,5	2,151050
22,475333	0,5	2,205250
22,483667	0,5	2,281250
22,492000	0,5	2,353150
22,500333	0,5	2,410800
22,508667	0,5	2,462850
22,517000	0,5	2,502950
22,525333	0,5	2,566750
22,533667	0,5	2,632850
22,542000	0,5	2,687600
22,550333	0,5	2,735450
22,558667	0,5	2,791450
22,567000	0,5	2,834450
22,575333	0,5	2,878850
22,583667	0,5	2,917600
22,592000	0,5	2,942850
22,600333	0,5	2,972700
22,608667	0,5	2,941150
22,617000	0,5	2,975600
22,625333	0,5	2,980500
22,633667	0,5	3,014400
22,642000	0,5	3,005200
22,650333	0,5	2,993900
22,658667	0,5	2,963850
22,667000	0,5	2,927800
22,675333	0,5	2,900600
22,683667	0,5	2,877250
22,692000	0,5	2,829650
22,700333	0,5	2,796500
22,708667	0,5	2,746750
22,717000	0,5	2,697500
22,725333	0,5	2,639050
22,733667	0,5	2,577800
22,742000	0,5	2,507000
22,750333	0,5	2,414750
22,758667	0,5	2,292300
22,767000	0,5	2,219550
22,775333	0,5	2,147050
22,783667	0,5	2,050800
22,792000	0,5	1,932600
22,800333	0,5	1,812650
22,808667	0,5	1,687200
22,817000	0,5	1,558750
22,825333	0,5	1,431650
22,833667	0,5	1,302050
22,842000	0,5	1,174550
22,850333	0,5	1,046050
22,858667	0,5	0,916350
22,867000	0,5	0,785800
22,875333	0,5	0,655350
22,883667	0,5	0,516950
22,892000	0,5	0,386700
22,900333	0,5	0,252250
22,908667	0,5	0,090850
22,917000	0,5	-0,025750
22,925333	0,5	-0,161800
22,933667	0,5	-0,314800
22,942000	0,5	-0,439900
22,950333	0,5	-0,567100
22,958667	0,5	-0,684350
22,967000	0,5	-0,810350
22,975333	0,5	-0,921700
22,983667	0,5	-1,037750
22,992000	0,5	-1,130450
23,000333	0,5	-1,233850
23,008667	0,5	-1,323100
23,017000	0,5	-1,420350
23,025333	0,5	-1,509200
23,033667	0,5	-1,592600
23,042000	0,5	-1,678950
23,050333	0,5	-1,748700
23,058667	0,5	-1,827700
23,067000	0,5	-1,915900
23,075333	0,5	-2,016900
23,083667	0,5	-2,089400
23,092000	0,5	-2,152350
23,100333	0,5	-2,192600
23,108667	0,5	-2,246150
23,117000	0,5	-2,287000
23,125333	0,5	-2,331300
23,133667	0,5	-2,356400
23,142000	0,5	-2,391600
23,150333	0,5	-2,406850
23,158667	0,5	-2,432950
23,167000	0,5	-2,453550
23,175333	0,5	-2,477600
23,183667	0,5	-2,498800
23,192000	0,5	-2,504400
23,200333	0,5	-2,523150
23,208667	0,5	-2,544600
23,217000	0,5	-2,577500
23,225333	0,5	-2,604250
23,233667	0,5	-2,609400
23,242000	0,5	-2,614150
23,250333	0,5	-2,604600
23,258667	0,5	-2,603850
23,267000	0,5	-2,600100
23,275333	0,5	-2,578200
23,283667	0,5	-2,563600
23,292000	0,5	-2,539200
23,300333	0,5	-2,524300
23,308667	0,5	-2,495350
23,317000	0,5	-2,480300
23,325333	0,5	-2,455750
23,333667	0,5	-2,435900
23,342000	0,5	-2,404750
23,350333	0,5	-2,390100
23,358667	0,5	-2,377800
23,367000	0,5	-2,379950
23,375333	0,5	-2,373050
23,383667	0,5	-2,358600
23,392000	0,5	-2,339750
23,400333	0,5	-2,311250
23,408667	0,5	-2,296350
23,417000	0,5	-2,272800
23,425333	0,5	-2,246900
23,433667	0,5	-2,216450
23,442000	0,5	-2,183750
23,450333	0,5	-2,151550
23,458667	0,5	-2,123350
23,467000	0,5	-2,090150
23,475333	0,5	-2,062900
23,483667	0,5	-2,031600
23,492000	0,5	-2,005900
23,500333	0,5	-1,978900
23,508667	0,5	-1,956300
23,517000	0,5	-1,946900
23,525333	0,5	-1,935300
23,533667	0,5	-1,915600
23,542000	0,5	-1,895700
23,550333	0,5	-1,877150
23,558667	0,5	-1,862350
23,567000	0,5	-1,851150
23,575333	0,5	-1,832400
23,583667	0,5	-1,813300
23,592000	0,5	-1,796250
23,600333	0,5	-1,776450
23,608667	0,5	-1,761200
23,617000	0,5	-1,743250
23,625333	0,5	-1,729100
23,633667	0,5	-1,723300
23,642000	0,5	-1,736100
23,650333	0,5	-1,691750
23,658667	0,5	-1,674800
23,667000	0,5	-1,657600
23,675333	0,5	-1,651900
23,683667	0,5	-1,639750
23,692000	0,5	-1,630050
23,700333	0,5	-1,624800
23,708667	0,5	-1,605650
23,717000	0,5	-1,596350
23,725333	0,5	-1,583350
23,733667	0,5	-1,572700
23,742000	0,5	-1,557900
23,750333	0,5	-1,548700
23,758667	0,5	-1,538000
23,767000	0,5	-1,531350
23,775333	0,5	-1,527650
23,783667	0,5	-1,576350
23,792000	0,5	-1,548250
23,800333	0,5	-1,548100
23,808667	0,5	-1,508650
23,817000	0,5	-1,506850
23,825333	0,5	-1,501700
23,833667	0,5	-1,505500
23,842000	0,5	-1,513000
23,850333	0,5	-1,513450
23,858667	0,5	-1,489400
23,867000	0,5	-1,484750
23,875333	0,5	-1,466250
23,883667	0,5	-1,456750
23,892000	0,5	-1,442450
23,900333	0,5	-1,425500
23,908667	0,5	-1,409050
23,917000	0,5	-1,398650
23,925333	0,5	-1,394650
23,933667	0,5	-1,420150
23,942000	0,5	-1,414250
23,950333	0,5	-1,394000
23,958667	0,5	-1,355700
23,967000	0,5	-1,345550
23,975333	0,5	-1,341850
23,983667	0,5	-1,343250
23,992000	0,5	-1,351700
24,000333	0,5	-1,337800
24,008667	0,5	-1,334850
24,017000	0,5	-1,313800
24,025333	0,5	-1,312100
24,033667	0,5	-1,291250
24,042000	0,5	-1,284050
24,050333	0,5	-1,262450
24,058667	0,5	-1,252800
24,067000	0,5	-1,242150
24,075333	0,5	-1,248400
24,083667	0,5	-1,257450
24,092000	0,5	-1,263050
24,100333	0,5	-1,215400
24,108667	0,5	-1,179050
24,117000	0,5	-1,163450
24,125333	0,5	-1,154650
24,133667	0,5	-1,160350
24,142000	0,5	-1,153600
24,150333	0,5	-1,138100
24,158667	0,5	-1,110450
24,167000	0,5	-1,101800
24,175333	0,5	-1,075250
24,183667	0,5	-1,067250
24,192000	0,5	-1,041850
24,200333	0,5	-1,029200
24,208667	0,5	-1,011100
24,217000	0,5	-0,997400
24,225333	0,5	-1,012800
24,233667	0,5	-0,991900
24,242000	0,5	-0,996700
24,250333	0,5	-0,957300
24,258667	0,5	-0,938000
24,267000	0,5	-0,929500
24,275333	0,5	-0,922550
24,283667	0,5	-0,938050
24,292000	0,5	-0,921700
24,300333	0,5	-0,896050
24,308667	0,5	-0,888100
24,317000	0,5	-0,867100
24,325333	0,5	-0,858350
24,333667	0,5	-0,834600
24,342000	0,5	-0,817250
24,350333	0,5	-0,788950
24,358667	0,5	-0,777450
24,367000	0,5	-0,763000
24,375333	0,5	-0,780500
24,383667	0,5	-0,737800
24,392000	0,5	-0,754600
24,400333	0,5	-0,699750
24,408667	0,5	-0,687050
24,417000	0,5	-0,673450
24,425333	0,5	-0,668250
24,433667	0,5	-0,680600
24,442000	0,5	-0,660150
24,450333	0,5	-0,644700
24,458667	0,5	-0,633100
24,467000	0,5	-0,620950
24,475333	0,5	-0,604200
24,483667	0,5	-0,596400
24,492000	0,5	-0,579850
24,500333	0,5	-0,573500
24,508667	0,5	-0,558800
24,517000	0,5	-0,557350
24,525333	0,5	-0,545900
24,533667	0,5	-0,533500
24,542000	0,5	-0,527150
24,550333	0,5	-0,496300
24,558667	0,5	-0,484000
24,567000	0,5	-0,476800
24,575333	0,5	-0,471500
24,583667	0,5	-0,479950
24,592000	0,5	-0,451600
24,600333	0,5	-0,436900
24,608667	0,5	-0,424850
24,617000	0,5	-0,410950
24,625333	0,5	-0,395650
24,633667	0,5	-0,383500
24,642000	0,5	-0,367700
24,650333	0,5	-0,355600
24,658667	0,5	-0,346700
24,667000	0,5	-0,337300
24,675333	0,5	-0,334100
24,683667	0,5	-0,323100
24,692000	0,5	-0,316600
24,700333	0,5	-0,294750
24,708667	0,5	-0,292400
24,717000	0,5	-0,286050
24,725333	0,5	-0,296700
24,733667	0,5	-0,294600
24,742000	0,5	-0,281350
24,750333	0,5	-0,269000
24,758667	0,5	-0,259800
24,767000	0,5	-0,246150
24,775333	0,5	-0,238550
24,783667	0,5	-0,222700
24,792000	0,5	-0,211600
24,800333	0,5	-0,202250
24,808667	0,5	-0,191150
24,817000	0,5	-0,180600
24,825333	0,5	-0,167000
24,833667	0,5	-0,169500
24,842000	0,5	-0,151250
24,850333	0,5	-0,137450
24,858667	0,5	-0,130400
24,867000	0,5	-0,130850
24,875333	0,5	-0,131350
24,883667	0,5	-0,128750
24,892000	0,5	-0,119450
24,900333	0,5	-0,115600
24,908667	0,5	-0,104050
24,917000	0,5	-0,100350
24,925333	0,5	-0,091300
24,933667	0,5	-0,084600
24,942000	0,5	-0,077600
24,950333	0,5	-0,071500
24,958667	0,5	-0,065050
24,967000	0,5	-0,054650
24,975333	0,5	-0,049600
24,983667	0,5	-0,046600
24,992000	0,5	-0,036500
25,000333	0,5	-0,029300
25,008667	0,5	-0,024600
25,017000	0,5	-0,023500
25,025333	0,5	-0,024150
25,033667	0,5	-0,012100
25,042000	0,5	-0,008650
25,050333	0,5	-0,001500
25,058667	0,5	0,005750
25,067000	0,5	0,012800
25,075333	0,5	0,020050
25,083667	0,5	0,025600
25,092000	0,5	0,031450
25,100333	0,5	0,036000
25,108667	0,5	0,041000
25,117000	0,5	0,050050
25,125333	0,5	0,048900
25,133667	0,5	0,053900
25,142000	0,5	0,056900
25,150333	0,5	0,060250
25,158667	0,5	0,059750
25,167000	0,5	0,059850
25,175333	0,5	0,062950
25,183667	0,5	0,065200
25,192000	0,5	0,070750
25,200333	0,5	0,074050
25,208667	0,5	0,078950
25,217000	0,5	0,086000
25,225333	0,5	0,091600
25,233667	0,5	0,096800
25,242000	0,5	0,100500
25,250333	0,5	0,107700
25,258667	0,5	0,111150
25,267000	0,5	0,113000
25,275333	0,5	0,117500
25,283667	0,5	0,119650
25,292000	0,5	0,125200
25,300333	0,5	0,124700
25,308667	0,5	0,128750
25,317000	0,5	0,125500
25,325333	0,5	0,127250
25,333667	0,5	0,129950
25,342000	0,5	0,130400
25,350333	0,5	0,131550
25,358667	0,5	0,133200
25,367000	0,5	0,134950
25,375333	0,5	0,139000
25,383667	0,5	0,137450
25,392000	0,5	0,142300
25,400333	0,5	0,145050
25,408667	0,5	0,148800
25,417000	0,5	0,153250
25,425333	0,5	0,155300
25,433667	0,5	0,154250
25,442000	0,5	0,158750
25,450333	0,5	0,160350
25,458667	0,5	0,163800
25,467000	0,5	0,168650
25,475333	0,5	0,169550
25,483667	0,5	0,168100
25,492000	0,5	0,171600
25,500333	0,5	0,169800
25,508667	0,5	0,173850
25,517000	0,5	0,174650
25,525333	0,5	0,175450
25,533667	0,5	0,177950
25,542000	0,5	0,179000
25,550333	0,5	0,178350
25,558667	0,5	0,178200
25,567000	0,5	0,179750
25,575333	0,5	0,178200
25,583667	0,5	0,179250
25,592000	0,5	0,182700
25,600333	0,5	0,184300
25,608667	0,5	0,185900
25,617000	0,5	0,193900
25,625333	0,5	0,192400
25,633667	0,5	0,195950
25,642000	0,5	0,197250
25,650333	0,5	0,200800
25,658667	0,5	0,201150
25,667000	0,5	0,203200
25,675333	0,5	0,202450
25,683667	0,5	0,201900
25,692000	0,5	0,206150
25,700333	0,5	0,201350
25,708667	0,5	0,205400
25,717000	0,5	0,207450
25,725333	0,5	0,205100
25,733667	0,5	0,201700
25,742000	0,5	0,204250
25,750333	0,5	0,205300
25,758667	0,5	0,211600
25,767000	0,5	0,215500
25,775333	0,5	0,213600
25,783667	0,5	0,213550
25,792000	0,5	0,217000
25,800333	0,5	0,214200
25,808667	0,5	0,217300
25,817000	0,5	0,216200
25,825333	0,5	0,216900
25,833667	0,5	0,217550
25,842000	0,5	0,221950
25,850333	0,5	0,219400
25,858667	0,5	0,220800
25,867000	0,5	0,227750
25,875333	0,5	0,227000
25,883667	0,5	0,224200
25,892000	0,5	0,227500
25,900333	0,5	0,234200
25,908667	0,5	0,243000
25,917000	0,5	0,246350
25,925333	0,5	0,243300
25,933667	0,5	0,247600
25,942000	0,5	0,243950
25,950333	0,5	0,247700
25,958667	0,5	0,245150
25,967000	0,5	0,246700
25,975333	0,5	0,246300
25,983667	0,5	0,247750
25,992000	0,5	0,247900
26,000333	0,5	0,249700
