File Path	chrom://chromeleon01/ikbm_chromeleon/2022/ICS-5000/ED1/Esteban/20220612_Cell_7_4_eg.seq/302.smp/ED_1.channel/ED_1.chm
Channel	ED_1

Injection Information:
Data Vault	ikbm_chromeleon
Injection	7_02h-EGS_3
Injection Number	96
Position	GE5
Comment	
Processing Method	Stop sequence after Cell Death
Instrument Method	ICS5000_PA200_FullNative_Ox_26min_ED1
Type	Unknown
Status	Finished
Injection Date	14.06.2022
Injection Time	13:21:44
Injection Volume (µl)	5,0
Dilution Factor	1,0000
Weight	1,0000

Chromatogram Data Information:
Time Min. (min)	0,000333
Time Max. (min)	26,000333
Data Points	3121
Detector	EDet1
Generating Data System	Chromeleon 7.2.9.11323
Exporting Data System	Chromeleon 7.2.9.0
Operator	Instrument Controller
Signal Quantity	
Signal Unit	nC
Signal Min.	-2,740550
Signal Max.	819,343262
Channel	ED_1
Driver Name	DC-5000
Channel Type	Evaluation
Min. Step (s)	0,5
Max. Step (s)	0,5
Average Step (s)	0,5

Signal Parameter Information:
Signal Info	

Chromatogram Data:
Time (min)	Step (s)	Value (nC)
0,000333	n.a.	-0,018200
0,008667	0,5	-0,085000
0,017000	0,5	-0,089650
0,025333	0,5	-0,080100
0,033667	0,5	-0,071250
0,042000	0,5	-0,064550
0,050333	0,5	-0,053500
0,058667	0,5	-0,072450
0,067000	0,5	-0,031900
0,075333	0,5	-0,044850
0,083667	0,5	-0,068300
0,092000	0,5	-0,070750
0,100333	0,5	-0,059000
0,108667	0,5	-0,037100
0,117000	0,5	-0,026650
0,125333	0,5	-0,041650
0,133667	0,5	-0,028450
0,142000	0,5	-0,041950
0,150333	0,5	-0,029900
0,158667	0,5	-0,042400
0,167000	0,5	-0,039450
0,175333	0,5	-0,051700
0,183667	0,5	-0,054200
0,192000	0,5	-0,050200
0,200333	0,5	-0,076450
0,208667	0,5	-0,089100
0,217000	0,5	-0,051550
0,225333	0,5	-0,075600
0,233667	0,5	-0,089350
0,242000	0,5	-0,088350
0,250333	0,5	-0,086350
0,258667	0,5	-0,040350
0,267000	0,5	-0,057150
0,275333	0,5	-0,052750
0,283667	0,5	-0,065100
0,292000	0,5	-0,051400
0,300333	0,5	-0,028300
0,308667	0,5	0,005550
0,317000	0,5	-0,022850
0,325333	0,5	-0,067850
0,333667	0,5	-0,095100
0,342000	0,5	-0,103950
0,350333	0,5	-0,109500
0,358667	0,5	-0,113800
0,367000	0,5	-0,092450
0,375333	0,5	-0,109800
0,383667	0,5	-0,115050
0,392000	0,5	-0,111450
0,400333	0,5	-0,096450
0,408667	0,5	-0,070700
0,417000	0,5	-0,083850
0,425333	0,5	-0,096950
0,433667	0,5	-0,082850
0,442000	0,5	-0,090450
0,450333	0,5	-0,085450
0,458667	0,5	-0,093000
0,467000	0,5	-0,089250
0,475333	0,5	-0,102050
0,483667	0,5	-0,098600
0,492000	0,5	-0,100600
0,500333	0,5	-0,109600
0,508667	0,5	-0,116850
0,517000	0,5	-0,090150
0,525333	0,5	-0,122000
0,533667	0,5	-0,119650
0,542000	0,5	-0,114450
0,550333	0,5	-0,098100
0,558667	0,5	-0,061150
0,567000	0,5	-0,080850
0,575333	0,5	-0,077500
0,583667	0,5	-0,069700
0,592000	0,5	-0,067800
0,600333	0,5	-0,072800
0,608667	0,5	-0,072850
0,617000	0,5	-0,076400
0,625333	0,5	-0,069750
0,633667	0,5	-0,076200
0,642000	0,5	-0,086450
0,650333	0,5	-0,101300
0,658667	0,5	-0,083100
0,667000	0,5	-0,080400
0,675333	0,5	-0,093650
0,683667	0,5	-0,090100
0,692000	0,5	-0,073900
0,700333	0,5	-0,051350
0,708667	0,5	-0,029950
0,717000	0,5	-0,040300
0,725333	0,5	-0,039500
0,733667	0,5	-0,044000
0,742000	0,5	-0,040850
0,750333	0,5	-0,042600
0,758667	0,5	-0,044050
0,767000	0,5	-0,048450
0,775333	0,5	-0,051900
0,783667	0,5	-0,043400
0,792000	0,5	-0,059150
0,800333	0,5	-0,058100
0,808667	0,5	-0,044200
0,817000	0,5	-0,050150
0,825333	0,5	-0,060100
0,833667	0,5	-0,047650
0,842000	0,5	-0,039900
0,850333	0,5	-0,014850
0,858667	0,5	-0,009300
0,867000	0,5	0,000000
0,875333	0,5	-0,011900
0,883667	0,5	-0,005000
0,892000	0,5	-0,014750
0,900333	0,5	-0,004250
0,908667	0,5	-0,014500
0,917000	0,5	-0,016250
0,925333	0,5	-0,010650
0,933667	0,5	-0,016300
0,942000	0,5	-0,022200
0,950333	0,5	-0,016500
0,958667	0,5	-0,002300
0,967000	0,5	-0,022100
0,975333	0,5	-0,029650
0,983667	0,5	-0,025650
0,992000	0,5	0,001950
1,000333	0,5	0,020700
1,008667	0,5	0,023200
1,017000	0,5	0,011150
1,025333	0,5	0,025800
1,033667	0,5	0,011300
1,042000	0,5	0,019000
1,050333	0,5	0,008350
1,058667	0,5	0,012850
1,067000	0,5	0,011750
1,075333	0,5	0,013600
1,083667	0,5	0,014000
1,092000	0,5	0,002900
1,100333	0,5	0,020450
1,108667	0,5	0,028300
1,117000	0,5	0,007250
1,125333	0,5	0,005150
1,133667	0,5	0,009500
1,142000	0,5	0,033700
1,150333	0,5	0,043200
1,158667	0,5	0,029000
1,167000	0,5	0,038350
1,175333	0,5	0,032050
1,183667	0,5	0,044700
1,192000	0,5	0,037450
1,200333	0,5	0,041150
1,208667	0,5	0,031750
1,217000	0,5	0,036600
1,225333	0,5	0,038900
1,233667	0,5	0,036750
1,242000	0,5	0,018100
1,250333	0,5	0,050000
1,258667	0,5	0,027550
1,267000	0,5	0,027650
1,275333	0,5	0,021300
1,283667	0,5	0,033800
1,292000	0,5	0,064450
1,300333	0,5	0,059200
1,308667	0,5	0,059550
1,317000	0,5	0,055500
1,325333	0,5	0,062600
1,333667	0,5	0,055150
1,342000	0,5	0,058400
1,350333	0,5	0,052950
1,358667	0,5	0,056450
1,367000	0,5	0,052200
1,375333	0,5	0,056750
1,383667	0,5	0,057150
1,392000	0,5	0,049950
1,400333	0,5	0,070700
1,408667	0,5	0,050300
1,417000	0,5	0,042300
1,425333	0,5	0,047000
1,433667	0,5	0,054100
1,442000	0,5	0,086150
1,450333	0,5	0,073000
1,458667	0,5	0,064150
1,467000	0,5	0,065450
1,475333	0,5	0,074700
1,483667	0,5	0,073500
1,492000	0,5	0,067500
1,500333	0,5	0,064500
1,508667	0,5	0,056200
1,517000	0,5	0,058000
1,525333	0,5	0,049450
1,533667	0,5	0,048650
1,542000	0,5	0,039000
1,550333	0,5	0,065300
1,558667	0,5	0,056750
1,567000	0,5	0,142250
1,575333	0,5	0,342550
1,583667	0,5	0,628900
1,592000	0,5	1,326300
1,600333	0,5	5,435950
1,608667	0,5	23,027350
1,617000	0,5	81,670301
1,625333	0,5	232,070403
1,633667	0,5	480,769857
1,642000	0,5	719,209211
1,650333	0,5	819,343262
1,658667	0,5	753,387911
1,667000	0,5	588,625309
1,675333	0,5	417,942756
1,683667	0,5	290,128054
1,692000	0,5	206,124003
1,700333	0,5	153,095152
1,708667	0,5	120,316802
1,717000	0,5	100,898702
1,725333	0,5	89,031751
1,733667	0,5	79,930451
1,742000	0,5	71,620901
1,750333	0,5	64,164851
1,758667	0,5	57,656551
1,767000	0,5	51,822951
1,775333	0,5	47,107401
1,783667	0,5	44,524851
1,792000	0,5	44,960751
1,800333	0,5	48,045451
1,808667	0,5	52,212651
1,817000	0,5	55,730201
1,825333	0,5	57,441601
1,833667	0,5	56,901701
1,842000	0,5	54,396351
1,850333	0,5	50,822401
1,858667	0,5	47,243901
1,867000	0,5	44,269251
1,875333	0,5	41,895051
1,883667	0,5	39,852251
1,892000	0,5	37,869801
1,900333	0,5	36,056651
1,908667	0,5	34,561551
1,917000	0,5	33,447500
1,925333	0,5	32,510800
1,933667	0,5	31,569150
1,942000	0,5	30,578500
1,950333	0,5	29,759400
1,958667	0,5	29,359350
1,967000	0,5	29,446000
1,975333	0,5	29,626250
1,983667	0,5	29,432950
1,992000	0,5	28,746550
2,000333	0,5	27,871250
2,008667	0,5	27,177250
2,017000	0,5	26,789900
2,025333	0,5	26,667000
2,033667	0,5	26,863400
2,042000	0,5	27,541850
2,050333	0,5	28,852850
2,058667	0,5	30,541800
2,067000	0,5	32,115600
2,075333	0,5	32,145550
2,083667	0,5	36,648951
2,092000	0,5	40,385551
2,100333	0,5	43,827901
2,108667	0,5	45,481401
2,117000	0,5	44,688951
2,125333	0,5	41,759451
2,133667	0,5	37,724201
2,142000	0,5	33,749601
2,150333	0,5	30,586750
2,158667	0,5	28,581000
2,167000	0,5	27,794850
2,175333	0,5	28,387550
2,183667	0,5	30,170900
2,192000	0,5	31,945650
2,200333	0,5	32,160400
2,208667	0,5	30,530900
2,217000	0,5	28,189350
2,225333	0,5	26,168150
2,233667	0,5	24,688800
2,242000	0,5	23,576850
2,250333	0,5	22,765250
2,258667	0,5	22,184500
2,267000	0,5	21,762750
2,275333	0,5	21,426650
2,283667	0,5	21,315900
2,292000	0,5	21,376900
2,300333	0,5	21,530650
2,308667	0,5	21,617300
2,317000	0,5	21,721400
2,325333	0,5	22,057500
2,333667	0,5	22,595550
2,342000	0,5	22,953250
2,350333	0,5	22,807650
2,358667	0,5	22,279200
2,367000	0,5	21,769350
2,375333	0,5	21,263900
2,383667	0,5	21,371200
2,392000	0,5	21,327600
2,400333	0,5	21,319200
2,408667	0,5	21,336600
2,417000	0,5	21,326700
2,425333	0,5	21,277750
2,433667	0,5	21,207300
2,442000	0,5	21,087000
2,450333	0,5	21,005650
2,458667	0,5	20,966400
2,467000	0,5	20,938050
2,475333	0,5	20,956350
2,483667	0,5	21,249350
2,492000	0,5	22,386850
2,500333	0,5	22,906300
2,508667	0,5	21,846700
2,517000	0,5	20,508500
2,525333	0,5	19,697850
2,533667	0,5	19,262450
2,542000	0,5	19,007550
2,550333	0,5	18,834700
2,558667	0,5	18,696350
2,567000	0,5	18,584700
2,575333	0,5	18,498050
2,583667	0,5	18,436600
2,592000	0,5	18,341900
2,600333	0,5	18,276100
2,608667	0,5	18,204900
2,617000	0,5	18,153300
2,625333	0,5	18,101450
2,633667	0,5	18,044000
2,642000	0,5	17,981400
2,650333	0,5	17,958800
2,658667	0,5	17,958000
2,667000	0,5	18,034700
2,675333	0,5	18,212950
2,683667	0,5	18,569550
2,692000	0,5	19,133100
2,700333	0,5	19,921750
2,708667	0,5	20,826450
2,717000	0,5	21,701050
2,725333	0,5	22,413100
2,733667	0,5	22,829250
2,742000	0,5	22,875300
2,750333	0,5	22,612350
2,758667	0,5	22,131250
2,767000	0,5	21,637450
2,775333	0,5	21,355800
2,783667	0,5	21,520800
2,792000	0,5	22,430500
2,800333	0,5	24,237250
2,808667	0,5	26,880550
2,817000	0,5	29,920450
2,825333	0,5	32,702350
2,833667	0,5	34,645951
2,842000	0,5	35,686551
2,850333	0,5	36,254651
2,858667	0,5	36,858901
2,867000	0,5	37,626351
2,875333	0,5	38,149151
2,883667	0,5	37,776551
2,892000	0,5	36,266801
2,900333	0,5	33,782501
2,908667	0,5	30,772950
2,917000	0,5	27,769600
2,925333	0,5	25,121450
2,933667	0,5	23,086800
2,942000	0,5	21,745800
2,950333	0,5	21,166950
2,958667	0,5	21,399400
2,967000	0,5	22,413050
2,975333	0,5	23,995400
2,983667	0,5	25,740750
2,992000	0,5	27,100950
3,000333	0,5	27,644750
3,008667	0,5	27,141050
3,017000	0,5	25,752150
3,025333	0,5	23,797150
3,033667	0,5	21,626500
3,042000	0,5	19,606850
3,050333	0,5	17,947800
3,058667	0,5	16,667450
3,067000	0,5	15,749350
3,075333	0,5	15,057150
3,083667	0,5	14,556650
3,092000	0,5	14,178950
3,100333	0,5	13,890300
3,108667	0,5	13,654700
3,117000	0,5	13,460650
3,125333	0,5	13,312600
3,133667	0,5	13,199600
3,142000	0,5	13,146400
3,150333	0,5	13,163250
3,158667	0,5	13,277950
3,167000	0,5	13,498150
3,175333	0,5	13,791150
3,183667	0,5	14,036000
3,192000	0,5	14,181450
3,200333	0,5	14,151200
3,208667	0,5	13,937200
3,217000	0,5	13,574700
3,225333	0,5	13,126700
3,233667	0,5	12,693900
3,242000	0,5	12,333200
3,250333	0,5	12,036250
3,258667	0,5	11,810000
3,267000	0,5	11,624550
3,275333	0,5	11,476200
3,283667	0,5	11,366900
3,292000	0,5	11,274700
3,300333	0,5	11,220250
3,308667	0,5	11,153950
3,317000	0,5	11,134500
3,325333	0,5	11,121400
3,333667	0,5	11,130000
3,342000	0,5	11,186000
3,350333	0,5	11,326700
3,358667	0,5	11,574150
3,367000	0,5	11,932700
3,375333	0,5	12,335950
3,383667	0,5	12,759150
3,392000	0,5	13,039300
3,400333	0,5	13,118650
3,408667	0,5	12,932500
3,417000	0,5	12,556650
3,425333	0,5	12,062250
3,433667	0,5	11,561750
3,442000	0,5	11,124900
3,450333	0,5	10,758000
3,458667	0,5	10,491400
3,467000	0,5	10,327150
3,475333	0,5	10,193450
3,483667	0,5	10,118650
3,492000	0,5	10,076500
3,500333	0,5	10,065250
3,508667	0,5	10,067350
3,517000	0,5	10,025750
3,525333	0,5	9,985650
3,533667	0,5	9,913700
3,542000	0,5	9,852700
3,550333	0,5	9,779350
3,558667	0,5	9,729600
3,567000	0,5	9,680950
3,575333	0,5	9,664350
3,583667	0,5	9,663100
3,592000	0,5	9,667200
3,600333	0,5	9,665300
3,608667	0,5	9,661950
3,617000	0,5	9,639250
3,625333	0,5	9,577050
3,633667	0,5	9,518400
3,642000	0,5	9,463500
3,650333	0,5	9,428400
3,658667	0,5	9,395850
3,667000	0,5	9,368900
3,675333	0,5	9,334200
3,683667	0,5	9,315550
3,692000	0,5	9,292450
3,700333	0,5	9,277600
3,708667	0,5	9,250800
3,717000	0,5	9,221600
3,725333	0,5	9,178050
3,733667	0,5	9,146700
3,742000	0,5	9,102800
3,750333	0,5	9,062450
3,758667	0,5	9,037350
3,767000	0,5	9,012300
3,775333	0,5	8,968000
3,783667	0,5	8,953150
3,792000	0,5	8,927100
3,800333	0,5	8,918450
3,808667	0,5	8,892000
3,817000	0,5	8,839450
3,825333	0,5	8,791250
3,833667	0,5	8,741000
3,842000	0,5	8,699000
3,850333	0,5	8,654700
3,858667	0,5	8,624700
3,867000	0,5	8,587350
3,875333	0,5	8,562800
3,883667	0,5	8,532100
3,892000	0,5	8,506150
3,900333	0,5	8,470050
3,908667	0,5	8,476250
3,917000	0,5	8,441450
3,925333	0,5	8,419700
3,933667	0,5	8,408000
3,942000	0,5	8,406000
3,950333	0,5	8,418950
3,958667	0,5	8,405450
3,967000	0,5	8,389600
3,975333	0,5	8,381750
3,983667	0,5	8,361650
3,992000	0,5	8,344550
4,000333	0,5	8,320750
4,008667	0,5	8,294350
4,017000	0,5	8,270150
4,025333	0,5	8,245600
4,033667	0,5	8,222500
4,042000	0,5	8,173100
4,050333	0,5	8,146000
4,058667	0,5	8,140300
4,067000	0,5	8,095800
4,075333	0,5	8,064150
4,083667	0,5	8,050550
4,092000	0,5	8,044800
4,100333	0,5	8,069050
4,108667	0,5	8,051250
4,117000	0,5	8,055100
4,125333	0,5	8,056900
4,133667	0,5	8,065700
4,142000	0,5	8,052650
4,150333	0,5	8,045550
4,158667	0,5	8,023550
4,167000	0,5	7,994650
4,175333	0,5	7,967300
4,183667	0,5	7,933400
4,192000	0,5	7,890200
4,200333	0,5	7,855200
4,208667	0,5	7,839000
4,217000	0,5	7,792550
4,225333	0,5	7,767050
4,233667	0,5	7,745700
4,242000	0,5	7,738650
4,250333	0,5	7,736800
4,258667	0,5	7,711300
4,267000	0,5	7,687150
4,275333	0,5	7,680200
4,283667	0,5	7,659550
4,292000	0,5	7,654300
4,300333	0,5	7,633700
4,308667	0,5	7,618850
4,317000	0,5	7,603500
4,325333	0,5	7,594700
4,333667	0,5	7,592900
4,342000	0,5	7,567200
4,350333	0,5	7,559600
4,358667	0,5	7,550650
4,367000	0,5	7,517400
4,375333	0,5	7,503250
4,383667	0,5	7,493350
4,392000	0,5	7,501000
4,400333	0,5	7,504850
4,408667	0,5	7,477150
4,417000	0,5	7,474650
4,425333	0,5	7,461500
4,433667	0,5	7,454050
4,442000	0,5	7,438950
4,450333	0,5	7,434250
4,458667	0,5	7,423550
4,467000	0,5	7,428800
4,475333	0,5	7,428750
4,483667	0,5	7,440450
4,492000	0,5	7,448600
4,500333	0,5	7,496200
4,508667	0,5	7,524200
4,517000	0,5	7,577400
4,525333	0,5	7,655500
4,533667	0,5	7,761250
4,542000	0,5	7,888350
4,550333	0,5	8,006350
4,558667	0,5	8,126600
4,567000	0,5	8,231350
4,575333	0,5	8,336900
4,583667	0,5	8,412200
4,592000	0,5	8,465900
4,600333	0,5	8,486900
4,608667	0,5	8,495100
4,617000	0,5	8,489200
4,625333	0,5	8,485350
4,633667	0,5	8,474850
4,642000	0,5	8,511950
4,650333	0,5	8,565100
4,658667	0,5	8,626950
4,667000	0,5	8,700200
4,675333	0,5	8,786150
4,683667	0,5	8,869300
4,692000	0,5	8,923850
4,700333	0,5	8,934250
4,708667	0,5	8,883750
4,717000	0,5	8,787200
4,725333	0,5	8,657350
4,733667	0,5	8,495250
4,742000	0,5	8,308850
4,750333	0,5	8,121400
4,758667	0,5	7,939450
4,767000	0,5	7,776700
4,775333	0,5	7,622300
4,783667	0,5	7,497750
4,792000	0,5	7,409300
4,800333	0,5	7,325200
4,808667	0,5	7,241250
4,817000	0,5	7,190550
4,825333	0,5	7,150700
4,833667	0,5	7,143150
4,842000	0,5	7,123950
4,850333	0,5	7,103450
4,858667	0,5	7,085150
4,867000	0,5	7,077150
4,875333	0,5	7,065750
4,883667	0,5	7,059250
4,892000	0,5	7,054050
4,900333	0,5	7,050650
4,908667	0,5	7,049650
4,917000	0,5	7,047050
4,925333	0,5	7,049700
4,933667	0,5	7,041250
4,942000	0,5	7,069650
4,950333	0,5	7,061700
4,958667	0,5	7,070000
4,967000	0,5	7,080450
4,975333	0,5	7,111150
4,983667	0,5	7,160350
4,992000	0,5	7,188400
5,000333	0,5	7,206200
5,008667	0,5	7,236550
5,017000	0,5	7,243200
5,025333	0,5	7,250100
5,033667	0,5	7,226500
5,042000	0,5	7,199700
5,050333	0,5	7,155600
5,058667	0,5	7,109850
5,067000	0,5	7,064450
5,075333	0,5	7,008200
5,083667	0,5	6,960250
5,092000	0,5	6,945900
5,100333	0,5	6,888700
5,108667	0,5	6,849550
5,117000	0,5	6,830550
5,125333	0,5	6,816500
5,133667	0,5	6,824900
5,142000	0,5	6,796050
5,150333	0,5	6,791600
5,158667	0,5	6,778350
5,167000	0,5	6,777450
5,175333	0,5	6,767350
5,183667	0,5	6,766750
5,192000	0,5	6,759700
5,200333	0,5	6,758250
5,208667	0,5	6,756200
5,217000	0,5	6,758600
5,225333	0,5	6,748050
5,233667	0,5	6,747350
5,242000	0,5	6,760600
5,250333	0,5	6,744650
5,258667	0,5	6,741450
5,267000	0,5	6,745150
5,275333	0,5	6,753750
5,283667	0,5	6,763350
5,292000	0,5	6,747950
5,300333	0,5	6,733650
5,308667	0,5	6,724900
5,317000	0,5	6,709050
5,325333	0,5	6,691550
5,333667	0,5	6,661600
5,342000	0,5	6,630750
5,350333	0,5	6,594100
5,358667	0,5	6,566850
5,367000	0,5	6,533050
5,375333	0,5	6,502650
5,383667	0,5	6,479350
5,392000	0,5	6,464550
5,400333	0,5	6,429450
5,408667	0,5	6,413200
5,417000	0,5	6,409200
5,425333	0,5	6,419500
5,433667	0,5	6,426050
5,442000	0,5	6,417800
5,450333	0,5	6,412450
5,458667	0,5	6,410250
5,467000	0,5	6,408400
5,475333	0,5	6,399150
5,483667	0,5	6,393750
5,492000	0,5	6,376150
5,500333	0,5	6,370700
5,508667	0,5	6,361100
5,517000	0,5	6,341350
5,525333	0,5	6,322050
5,533667	0,5	6,320000
5,542000	0,5	6,296700
5,550333	0,5	6,280050
5,558667	0,5	6,268350
5,567000	0,5	6,266950
5,575333	0,5	6,269650
5,583667	0,5	6,269700
5,592000	0,5	6,252000
5,600333	0,5	6,244150
5,608667	0,5	6,230000
5,617000	0,5	6,218500
5,625333	0,5	6,207500
5,633667	0,5	6,194000
5,642000	0,5	6,185750
5,650333	0,5	6,175100
5,658667	0,5	6,167600
5,667000	0,5	6,141200
5,675333	0,5	6,140450
5,683667	0,5	6,143850
5,692000	0,5	6,131650
5,700333	0,5	6,117450
5,708667	0,5	6,119900
5,717000	0,5	6,120700
5,725333	0,5	6,129100
5,733667	0,5	6,121300
5,742000	0,5	6,120250
5,750333	0,5	6,108050
5,758667	0,5	6,102900
5,767000	0,5	6,085550
5,775333	0,5	6,081750
5,783667	0,5	6,067700
5,792000	0,5	6,057250
5,800333	0,5	6,051100
5,808667	0,5	6,038250
5,817000	0,5	6,022250
5,825333	0,5	6,029850
5,833667	0,5	6,026250
5,842000	0,5	6,012800
5,850333	0,5	6,005950
5,858667	0,5	6,003400
5,867000	0,5	6,022950
5,875333	0,5	6,023650
5,883667	0,5	6,020600
5,892000	0,5	6,012150
5,900333	0,5	6,007300
5,908667	0,5	5,995950
5,917000	0,5	5,983550
5,925333	0,5	5,968200
5,933667	0,5	5,954050
5,942000	0,5	5,940150
5,950333	0,5	5,928450
5,958667	0,5	5,913450
5,967000	0,5	5,895150
5,975333	0,5	5,897650
5,983667	0,5	5,887550
5,992000	0,5	5,871350
6,000333	0,5	5,858950
6,008667	0,5	5,859850
6,017000	0,5	5,872850
6,025333	0,5	5,867850
6,033667	0,5	5,853650
6,042000	0,5	5,856550
6,050333	0,5	5,850850
6,058667	0,5	5,852100
6,067000	0,5	5,848850
6,075333	0,5	5,849400
6,083667	0,5	5,837200
6,092000	0,5	5,837500
6,100333	0,5	5,831700
6,108667	0,5	5,825800
6,117000	0,5	5,812850
6,125333	0,5	5,830250
6,133667	0,5	5,805650
6,142000	0,5	5,797350
6,150333	0,5	5,789300
6,158667	0,5	5,788150
6,167000	0,5	5,799950
6,175333	0,5	5,780200
6,183667	0,5	5,768700
6,192000	0,5	5,760400
6,200333	0,5	5,750650
6,208667	0,5	5,737100
6,217000	0,5	5,724050
6,225333	0,5	5,706400
6,233667	0,5	5,704050
6,242000	0,5	5,694350
6,250333	0,5	5,683800
6,258667	0,5	5,660350
6,267000	0,5	5,651850
6,275333	0,5	5,658350
6,283667	0,5	5,639850
6,292000	0,5	5,631700
6,300333	0,5	5,626250
6,308667	0,5	5,628650
6,317000	0,5	5,639350
6,325333	0,5	5,632350
6,333667	0,5	5,627950
6,342000	0,5	5,622400
6,350333	0,5	5,625700
6,358667	0,5	5,622600
6,367000	0,5	5,624850
6,375333	0,5	5,626000
6,383667	0,5	5,624550
6,392000	0,5	5,633600
6,400333	0,5	5,633150
6,408667	0,5	5,638350
6,417000	0,5	5,652650
6,425333	0,5	5,669950
6,433667	0,5	5,667300
6,442000	0,5	5,687650
6,450333	0,5	5,708750
6,458667	0,5	5,749100
6,467000	0,5	5,792800
6,475333	0,5	5,845900
6,483667	0,5	5,906450
6,492000	0,5	6,001950
6,500333	0,5	6,122250
6,508667	0,5	6,288200
6,517000	0,5	6,495050
6,525333	0,5	6,751400
6,533667	0,5	7,048850
6,542000	0,5	7,368500
6,550333	0,5	7,693000
6,558667	0,5	7,994950
6,567000	0,5	8,257550
6,575333	0,5	8,431250
6,583667	0,5	8,517850
6,592000	0,5	8,521000
6,600333	0,5	8,443800
6,608667	0,5	8,302400
6,617000	0,5	8,094400
6,625333	0,5	7,830700
6,633667	0,5	7,553650
6,642000	0,5	7,262050
6,650333	0,5	6,979450
6,658667	0,5	6,702350
6,667000	0,5	6,454700
6,675333	0,5	6,241300
6,683667	0,5	6,057000
6,692000	0,5	5,906900
6,700333	0,5	5,780650
6,708667	0,5	5,689450
6,717000	0,5	5,629850
6,725333	0,5	5,571000
6,733667	0,5	5,526250
6,742000	0,5	5,496250
6,750333	0,5	5,473750
6,758667	0,5	5,459150
6,767000	0,5	5,430750
6,775333	0,5	5,414500
6,783667	0,5	5,389750
6,792000	0,5	5,376150
6,800333	0,5	5,353550
6,808667	0,5	5,336200
6,817000	0,5	5,310950
6,825333	0,5	5,289900
6,833667	0,5	5,271150
6,842000	0,5	5,256950
6,850333	0,5	5,234600
6,858667	0,5	5,232550
6,867000	0,5	5,223100
6,875333	0,5	5,206300
6,883667	0,5	5,196800
6,892000	0,5	5,194500
6,900333	0,5	5,199700
6,908667	0,5	5,197350
6,917000	0,5	5,188400
6,925333	0,5	5,177650
6,933667	0,5	5,168550
6,942000	0,5	5,152500
6,950333	0,5	5,137200
6,958667	0,5	5,122550
6,967000	0,5	5,106650
6,975333	0,5	5,090000
6,983667	0,5	5,078000
6,992000	0,5	5,061650
7,000333	0,5	5,040150
7,008667	0,5	5,032600
7,017000	0,5	5,017300
7,025333	0,5	4,994700
7,033667	0,5	4,979050
7,042000	0,5	4,973000
7,050333	0,5	4,972700
7,058667	0,5	4,965150
7,067000	0,5	4,950050
7,075333	0,5	4,942500
7,083667	0,5	4,932000
7,092000	0,5	4,923400
7,100333	0,5	4,914100
7,108667	0,5	4,910000
7,117000	0,5	4,898550
7,125333	0,5	4,892950
7,133667	0,5	4,881200
7,142000	0,5	4,874950
7,150333	0,5	4,856700
7,158667	0,5	4,853650
7,167000	0,5	4,834050
7,175333	0,5	4,816050
7,183667	0,5	4,797050
7,192000	0,5	4,788150
7,200333	0,5	4,786950
7,208667	0,5	4,774850
7,217000	0,5	4,760800
7,225333	0,5	4,754350
7,233667	0,5	4,742700
7,242000	0,5	4,735900
7,250333	0,5	4,727550
7,258667	0,5	4,719350
7,267000	0,5	4,706900
7,275333	0,5	4,696150
7,283667	0,5	4,677700
7,292000	0,5	4,652900
7,300333	0,5	4,632750
7,308667	0,5	4,621450
7,317000	0,5	4,600750
7,325333	0,5	4,585200
7,333667	0,5	4,572850
7,342000	0,5	4,564650
7,350333	0,5	4,566750
7,358667	0,5	4,554750
7,367000	0,5	4,543150
7,375333	0,5	4,531200
7,383667	0,5	4,525900
7,392000	0,5	4,517800
7,400333	0,5	4,515400
7,408667	0,5	4,515350
7,417000	0,5	4,517900
7,425333	0,5	4,530300
7,433667	0,5	4,541650
7,442000	0,5	4,559450
7,450333	0,5	4,593550
7,458667	0,5	4,639300
7,467000	0,5	4,693850
7,475333	0,5	4,767750
7,483667	0,5	4,827450
7,492000	0,5	4,850000
7,500333	0,5	4,802500
7,508667	0,5	4,716450
7,517000	0,5	4,608550
7,525333	0,5	4,522850
7,533667	0,5	4,461750
7,542000	0,5	4,421100
7,550333	0,5	4,396100
7,558667	0,5	4,384000
7,567000	0,5	4,378050
7,575333	0,5	4,382250
7,583667	0,5	4,387950
7,592000	0,5	4,406400
7,600333	0,5	4,436650
7,608667	0,5	4,474250
7,617000	0,5	4,518400
7,625333	0,5	4,584200
7,633667	0,5	4,692300
7,642000	0,5	4,843950
7,650333	0,5	5,050000
7,658667	0,5	5,316400
7,667000	0,5	5,662600
7,675333	0,5	6,074000
7,683667	0,5	6,539550
7,692000	0,5	7,014400
7,700333	0,5	7,452400
7,708667	0,5	7,791900
7,717000	0,5	7,984750
7,725333	0,5	7,994750
7,733667	0,5	7,813500
7,742000	0,5	7,466700
7,750333	0,5	7,013750
7,758667	0,5	6,497950
7,767000	0,5	5,990050
7,775333	0,5	5,545550
7,783667	0,5	5,185950
7,792000	0,5	4,921150
7,800333	0,5	4,727300
7,808667	0,5	4,600950
7,817000	0,5	4,515100
7,825333	0,5	4,455850
7,833667	0,5	4,420500
7,842000	0,5	4,391950
7,850333	0,5	4,368050
7,858667	0,5	4,349650
7,867000	0,5	4,338050
7,875333	0,5	4,326400
7,883667	0,5	4,324800
7,892000	0,5	4,347400
7,900333	0,5	4,402300
7,908667	0,5	4,519950
7,917000	0,5	4,721250
7,925333	0,5	5,029650
7,933667	0,5	5,408450
7,942000	0,5	5,759250
7,950333	0,5	5,979100
7,958667	0,5	6,007700
7,967000	0,5	5,839300
7,975333	0,5	5,531450
7,983667	0,5	5,160200
7,992000	0,5	4,820050
8,000333	0,5	4,549950
8,008667	0,5	4,354950
8,017000	0,5	4,222700
8,025333	0,5	4,129800
8,033667	0,5	4,060100
8,042000	0,5	4,008350
8,050333	0,5	3,971600
8,058667	0,5	3,938800
8,067000	0,5	3,920450
8,075333	0,5	3,905950
8,083667	0,5	3,897800
8,092000	0,5	3,893750
8,100333	0,5	3,886000
8,108667	0,5	3,879400
8,117000	0,5	3,880950
8,125333	0,5	3,880900
8,133667	0,5	3,884300
8,142000	0,5	3,885600
8,150333	0,5	3,883900
8,158667	0,5	3,874850
8,167000	0,5	3,862950
8,175333	0,5	3,845200
8,183667	0,5	3,828500
8,192000	0,5	3,818850
8,200333	0,5	3,812050
8,208667	0,5	3,812600
8,217000	0,5	3,834750
8,225333	0,5	3,883500
8,233667	0,5	3,970500
8,242000	0,5	4,067550
8,250333	0,5	4,134550
8,258667	0,5	4,140500
8,267000	0,5	4,079950
8,275333	0,5	3,984500
8,283667	0,5	3,897900
8,292000	0,5	3,825100
8,300333	0,5	3,777950
8,308667	0,5	3,741900
8,317000	0,5	3,714350
8,325333	0,5	3,693400
8,333667	0,5	3,678800
8,342000	0,5	3,675650
8,350333	0,5	3,673600
8,358667	0,5	3,664150
8,367000	0,5	3,656750
8,375333	0,5	3,647450
8,383667	0,5	3,640450
8,392000	0,5	3,631050
8,400333	0,5	3,622900
8,408667	0,5	3,615550
8,417000	0,5	3,613700
8,425333	0,5	3,611700
8,433667	0,5	3,610000
8,442000	0,5	3,605000
8,450333	0,5	3,597350
8,458667	0,5	3,591350
8,467000	0,5	3,582250
8,475333	0,5	3,571250
8,483667	0,5	3,565550
8,492000	0,5	3,557650
8,500333	0,5	3,548000
8,508667	0,5	3,542450
8,517000	0,5	3,557850
8,525333	0,5	3,604200
8,533667	0,5	3,684300
8,542000	0,5	3,763400
8,550333	0,5	3,800300
8,558667	0,5	3,778850
8,567000	0,5	3,718450
8,575333	0,5	3,643750
8,583667	0,5	3,580050
8,592000	0,5	3,538400
8,600333	0,5	3,507800
8,608667	0,5	3,490400
8,617000	0,5	3,478700
8,625333	0,5	3,471500
8,633667	0,5	3,470050
8,642000	0,5	3,469000
8,650333	0,5	3,465450
8,658667	0,5	3,461750
8,667000	0,5	3,452350
8,675333	0,5	3,450050
8,683667	0,5	3,446400
8,692000	0,5	3,446250
8,700333	0,5	3,449500
8,708667	0,5	3,460400
8,717000	0,5	3,480850
8,725333	0,5	3,513850
8,733667	0,5	3,565350
8,742000	0,5	3,618900
8,750333	0,5	3,662650
8,758667	0,5	3,690150
8,767000	0,5	3,704550
8,775333	0,5	3,723450
8,783667	0,5	3,777250
8,792000	0,5	3,856750
8,800333	0,5	3,936850
8,808667	0,5	4,009800
8,817000	0,5	4,122650
8,825333	0,5	4,335000
8,833667	0,5	4,646650
8,842000	0,5	4,988850
8,850333	0,5	5,223100
8,858667	0,5	5,233450
8,867000	0,5	5,012800
8,875333	0,5	4,656800
8,883667	0,5	4,276400
8,892000	0,5	3,961900
8,900333	0,5	3,748250
8,908667	0,5	3,614350
8,917000	0,5	3,547500
8,925333	0,5	3,519150
8,933667	0,5	3,525100
8,942000	0,5	3,543300
8,950333	0,5	3,585350
8,958667	0,5	3,635700
8,967000	0,5	3,692800
8,975333	0,5	3,739850
8,983667	0,5	3,772050
8,992000	0,5	3,809000
9,000333	0,5	3,863250
9,008667	0,5	3,940550
9,017000	0,5	4,014250
9,025333	0,5	4,038350
9,033667	0,5	4,013700
9,042000	0,5	3,944600
9,050333	0,5	3,857200
9,058667	0,5	3,774150
9,067000	0,5	3,697300
9,075333	0,5	3,631900
9,083667	0,5	3,575650
9,092000	0,5	3,520550
9,100333	0,5	3,475600
9,108667	0,5	3,432050
9,117000	0,5	3,402350
9,125333	0,5	3,382750
9,133667	0,5	3,378850
9,142000	0,5	3,393600
9,150333	0,5	3,425900
9,158667	0,5	3,470450
9,167000	0,5	3,511250
9,175333	0,5	3,544050
9,183667	0,5	3,562950
9,192000	0,5	3,565550
9,200333	0,5	3,566200
9,208667	0,5	3,564850
9,217000	0,5	3,578950
9,225333	0,5	3,607300
9,233667	0,5	3,639650
9,242000	0,5	3,655950
9,250333	0,5	3,656900
9,258667	0,5	3,638050
9,267000	0,5	3,621500
9,275333	0,5	3,618400
9,283667	0,5	3,645850
9,292000	0,5	3,715100
9,300333	0,5	3,845800
9,308667	0,5	4,076650
9,317000	0,5	4,466500
9,325333	0,5	5,115600
9,333667	0,5	6,105400
9,342000	0,5	7,322400
9,350333	0,5	8,427000
9,358667	0,5	9,022050
9,367000	0,5	8,966100
9,375333	0,5	8,412150
9,383667	0,5	7,612150
9,392000	0,5	6,792000
9,400333	0,5	6,093400
9,408667	0,5	5,555400
9,417000	0,5	5,158850
9,425333	0,5	4,867200
9,433667	0,5	4,638950
9,442000	0,5	4,459200
9,450333	0,5	4,310150
9,458667	0,5	4,185650
9,467000	0,5	4,074600
9,475333	0,5	3,975100
9,483667	0,5	3,889450
9,492000	0,5	3,824200
9,500333	0,5	3,775850
9,508667	0,5	3,735950
9,517000	0,5	3,701400
9,525333	0,5	3,673650
9,533667	0,5	3,651350
9,542000	0,5	3,637850
9,550333	0,5	3,635450
9,558667	0,5	3,637600
9,567000	0,5	3,634200
9,575333	0,5	3,618500
9,583667	0,5	3,592600
9,592000	0,5	3,558850
9,600333	0,5	3,522300
9,608667	0,5	3,488900
9,617000	0,5	3,457250
9,625333	0,5	3,438200
9,633667	0,5	3,432500
9,642000	0,5	3,447450
9,650333	0,5	3,481850
9,658667	0,5	3,539350
9,667000	0,5	3,614750
9,675333	0,5	3,683900
9,683667	0,5	3,729050
9,692000	0,5	3,733300
9,700333	0,5	3,708350
9,708667	0,5	3,661900
9,717000	0,5	3,612000
9,725333	0,5	3,562500
9,733667	0,5	3,518850
9,742000	0,5	3,486850
9,750333	0,5	3,467600
9,758667	0,5	3,447150
9,767000	0,5	3,440850
9,775333	0,5	3,438300
9,783667	0,5	3,438100
9,792000	0,5	3,442250
9,800333	0,5	3,453200
9,808667	0,5	3,471600
9,817000	0,5	3,497450
9,825333	0,5	3,540850
9,833667	0,5	3,593900
9,842000	0,5	3,664200
9,850333	0,5	3,757100
9,858667	0,5	3,878700
9,867000	0,5	4,036150
9,875333	0,5	4,226900
9,883667	0,5	4,444500
9,892000	0,5	4,687200
9,900333	0,5	4,951800
9,908667	0,5	5,227950
9,917000	0,5	5,519800
9,925333	0,5	5,827800
9,933667	0,5	6,143550
9,942000	0,5	6,467800
9,950333	0,5	6,800450
9,958667	0,5	7,128150
9,967000	0,5	7,437450
9,975333	0,5	7,684500
9,983667	0,5	7,828350
9,992000	0,5	7,830050
10,000333	0,5	7,659450
10,008667	0,5	7,307350
10,017000	0,5	6,798650
10,025333	0,5	6,191600
10,033667	0,5	5,564700
10,042000	0,5	4,983650
10,050333	0,5	4,503400
10,058667	0,5	4,132400
10,067000	0,5	3,866250
10,075333	0,5	3,682200
10,083667	0,5	3,563150
10,092000	0,5	3,487750
10,100333	0,5	3,437950
10,108667	0,5	3,403650
10,117000	0,5	3,382750
10,125333	0,5	3,367900
10,133667	0,5	3,361050
10,142000	0,5	3,358650
10,150333	0,5	3,363900
10,158667	0,5	3,380450
10,167000	0,5	3,401850
10,175333	0,5	3,423850
10,183667	0,5	3,441850
10,192000	0,5	3,458150
10,200333	0,5	3,462400
10,208667	0,5	3,465050
10,217000	0,5	3,474150
10,225333	0,5	3,486500
10,233667	0,5	3,514350
10,242000	0,5	3,548650
10,250333	0,5	3,576400
10,258667	0,5	3,593300
10,267000	0,5	3,589600
10,275333	0,5	3,562250
10,283667	0,5	3,521400
10,292000	0,5	3,477350
10,300333	0,5	3,436150
10,308667	0,5	3,411700
10,317000	0,5	3,388950
10,325333	0,5	3,365100
10,333667	0,5	3,344200
10,342000	0,5	3,322600
10,350333	0,5	3,301100
10,358667	0,5	3,280550
10,367000	0,5	3,261950
10,375333	0,5	3,244950
10,383667	0,5	3,223150
10,392000	0,5	3,205600
10,400333	0,5	3,190300
10,408667	0,5	3,181850
10,417000	0,5	3,188500
10,425333	0,5	3,194000
10,433667	0,5	3,207050
10,442000	0,5	3,222250
10,450333	0,5	3,239200
10,458667	0,5	3,265950
10,467000	0,5	3,297550
10,475333	0,5	3,337100
10,483667	0,5	3,372400
10,492000	0,5	3,401250
10,500333	0,5	3,411950
10,508667	0,5	3,396800
10,517000	0,5	3,362750
10,525333	0,5	3,309150
10,533667	0,5	3,253600
10,542000	0,5	3,196300
10,550333	0,5	3,140000
10,558667	0,5	3,093500
10,567000	0,5	3,051550
10,575333	0,5	3,011450
10,583667	0,5	2,977150
10,592000	0,5	2,944500
10,600333	0,5	2,919250
10,608667	0,5	2,901650
10,617000	0,5	2,884000
10,625333	0,5	2,866050
10,633667	0,5	2,860400
10,642000	0,5	2,860100
10,650333	0,5	2,870500
10,658667	0,5	2,894450
10,667000	0,5	2,926450
10,675333	0,5	2,972450
10,683667	0,5	3,033200
10,692000	0,5	3,094700
10,700333	0,5	3,152850
10,708667	0,5	3,201900
10,717000	0,5	3,217050
10,725333	0,5	3,194150
10,733667	0,5	3,149250
10,742000	0,5	3,080200
10,750333	0,5	3,012500
10,758667	0,5	2,944600
10,767000	0,5	2,886100
10,775333	0,5	2,837000
10,783667	0,5	2,798900
10,792000	0,5	2,761550
10,800333	0,5	2,732350
10,808667	0,5	2,711800
10,817000	0,5	2,694000
10,825333	0,5	2,685650
10,833667	0,5	2,686000
10,842000	0,5	2,691200
10,850333	0,5	2,700600
10,858667	0,5	2,732100
10,867000	0,5	2,773500
10,875333	0,5	2,819900
10,883667	0,5	2,884200
10,892000	0,5	2,951250
10,900333	0,5	3,003800
10,908667	0,5	3,033000
10,917000	0,5	3,020950
10,925333	0,5	2,981450
10,933667	0,5	2,905850
10,942000	0,5	2,828250
10,950333	0,5	2,749550
10,958667	0,5	2,678200
10,967000	0,5	2,613400
10,975333	0,5	2,555400
10,983667	0,5	2,501450
10,992000	0,5	2,440350
11,000333	0,5	2,375200
11,008667	0,5	2,314850
11,017000	0,5	2,257100
11,025333	0,5	2,207150
11,033667	0,5	2,180200
11,042000	0,5	2,187200
11,050333	0,5	2,239350
11,058667	0,5	2,323750
11,067000	0,5	2,434100
11,075333	0,5	2,550450
11,083667	0,5	2,647350
11,092000	0,5	2,704200
11,100333	0,5	2,717950
11,108667	0,5	2,690300
11,117000	0,5	2,638700
11,125333	0,5	2,575550
11,133667	0,5	2,510450
11,142000	0,5	2,441850
11,150333	0,5	2,385950
11,158667	0,5	2,335400
11,167000	0,5	2,289950
11,175333	0,5	2,252700
11,183667	0,5	2,230200
11,192000	0,5	2,222850
11,200333	0,5	2,237100
11,208667	0,5	2,274700
11,217000	0,5	2,328900
11,225333	0,5	2,400600
11,233667	0,5	2,475350
11,242000	0,5	2,532350
11,250333	0,5	2,558350
11,258667	0,5	2,546700
11,267000	0,5	2,503500
11,275333	0,5	2,443700
11,283667	0,5	2,375600
11,292000	0,5	2,309900
11,300333	0,5	2,264500
11,308667	0,5	2,228250
11,317000	0,5	2,201600
11,325333	0,5	2,181850
11,333667	0,5	2,174100
11,342000	0,5	2,179650
11,350333	0,5	2,196000
11,358667	0,5	2,225900
11,367000	0,5	2,268550
11,375333	0,5	2,323750
11,383667	0,5	2,376450
11,392000	0,5	2,416250
11,400333	0,5	2,436900
11,408667	0,5	2,432000
11,417000	0,5	2,412500
11,425333	0,5	2,377350
11,433667	0,5	2,342300
11,442000	0,5	2,310900
11,450333	0,5	2,289500
11,458667	0,5	2,261650
11,467000	0,5	2,240050
11,475333	0,5	2,223950
11,483667	0,5	2,221600
11,492000	0,5	2,235350
11,500333	0,5	2,267150
11,508667	0,5	2,296750
11,517000	0,5	2,336950
11,525333	0,5	2,364850
11,533667	0,5	2,381500
11,542000	0,5	2,388100
11,550333	0,5	2,381050
11,558667	0,5	2,370850
11,567000	0,5	2,360700
11,575333	0,5	2,360800
11,583667	0,5	2,364050
11,592000	0,5	2,400550
11,600333	0,5	2,455050
11,608667	0,5	2,545500
11,617000	0,5	2,685300
11,625333	0,5	2,874800
11,633667	0,5	3,116900
11,642000	0,5	3,383800
11,650333	0,5	3,636450
11,658667	0,5	3,835050
11,667000	0,5	3,941600
11,675333	0,5	3,954050
11,683667	0,5	3,867800
11,692000	0,5	3,712000
11,700333	0,5	3,505800
11,708667	0,5	3,285800
11,717000	0,5	3,074800
11,725333	0,5	2,886650
11,733667	0,5	2,721950
11,742000	0,5	2,613000
11,750333	0,5	2,538700
11,758667	0,5	2,489850
11,767000	0,5	2,471750
11,775333	0,5	2,466150
11,783667	0,5	2,487150
11,792000	0,5	2,512850
11,800333	0,5	2,546250
11,808667	0,5	2,572650
11,817000	0,5	2,595000
11,825333	0,5	2,603800
11,833667	0,5	2,605050
11,842000	0,5	2,598850
11,850333	0,5	2,584000
11,858667	0,5	2,566250
11,867000	0,5	2,549300
11,875333	0,5	2,530400
11,883667	0,5	2,507700
11,892000	0,5	2,495150
11,900333	0,5	2,474700
11,908667	0,5	2,456250
11,917000	0,5	2,437700
11,925333	0,5	2,441800
11,933667	0,5	2,465600
11,942000	0,5	2,503800
11,950333	0,5	2,560200
11,958667	0,5	2,631200
11,967000	0,5	2,701400
11,975333	0,5	2,766600
11,983667	0,5	2,810700
11,992000	0,5	2,828050
12,000333	0,5	2,818400
12,008667	0,5	2,779400
12,017000	0,5	2,729850
12,025333	0,5	2,665450
12,033667	0,5	2,605650
12,042000	0,5	2,560550
12,050333	0,5	2,515450
12,058667	0,5	2,480000
12,067000	0,5	2,452050
12,075333	0,5	2,425050
12,083667	0,5	2,400800
12,092000	0,5	2,371950
12,100333	0,5	2,342550
12,108667	0,5	2,311750
12,117000	0,5	2,290350
12,125333	0,5	2,267550
12,133667	0,5	2,256400
12,142000	0,5	2,245500
12,150333	0,5	2,240250
12,158667	0,5	2,237850
12,167000	0,5	2,234750
12,175333	0,5	2,223100
12,183667	0,5	2,219850
12,192000	0,5	2,211400
12,200333	0,5	2,198700
12,208667	0,5	2,183000
12,217000	0,5	2,166450
12,225333	0,5	2,155400
12,233667	0,5	2,149750
12,242000	0,5	2,140850
12,250333	0,5	2,139150
12,258667	0,5	2,137350
12,267000	0,5	2,131500
12,275333	0,5	2,135900
12,283667	0,5	2,134550
12,292000	0,5	2,136800
12,300333	0,5	2,138200
12,308667	0,5	2,141600
12,317000	0,5	2,135950
12,325333	0,5	2,130400
12,333667	0,5	2,133850
12,342000	0,5	2,135000
12,350333	0,5	2,139250
12,358667	0,5	2,147750
12,367000	0,5	2,158500
12,375333	0,5	2,169300
12,383667	0,5	2,180350
12,392000	0,5	2,184700
12,400333	0,5	2,182900
12,408667	0,5	2,186250
12,417000	0,5	2,188350
12,425333	0,5	2,193700
12,433667	0,5	2,207650
12,442000	0,5	2,216750
12,450333	0,5	2,231750
12,458667	0,5	2,244950
12,467000	0,5	2,250450
12,475333	0,5	2,259250
12,483667	0,5	2,283500
12,492000	0,5	2,301400
12,500333	0,5	2,335600
12,508667	0,5	2,362150
12,517000	0,5	2,404450
12,525333	0,5	2,444850
12,533667	0,5	2,477900
12,542000	0,5	2,505950
12,550333	0,5	2,539250
12,558667	0,5	2,578100
12,567000	0,5	2,637450
12,575333	0,5	2,694800
12,583667	0,5	2,729500
12,592000	0,5	2,721450
12,600333	0,5	2,680000
12,608667	0,5	2,606750
12,617000	0,5	2,514700
12,625333	0,5	2,457300
12,633667	0,5	2,428100
12,642000	0,5	2,431900
12,650333	0,5	2,481300
12,658667	0,5	2,580450
12,667000	0,5	2,659350
12,675333	0,5	2,642750
12,683667	0,5	2,569850
12,692000	0,5	2,389850
12,700333	0,5	2,075450
12,708667	0,5	1,728950
12,717000	0,5	1,382950
12,725333	0,5	1,111750
12,733667	0,5	0,898150
12,742000	0,5	0,725000
12,750333	0,5	0,600700
12,758667	0,5	0,498550
12,767000	0,5	0,417750
12,775333	0,5	0,372900
12,783667	0,5	0,330150
12,792000	0,5	0,296350
12,800333	0,5	0,263050
12,808667	0,5	0,228400
12,817000	0,5	0,213550
12,825333	0,5	0,194900
12,833667	0,5	0,178750
12,842000	0,5	0,157950
12,850333	0,5	0,144350
12,858667	0,5	0,124950
12,867000	0,5	0,113750
12,875333	0,5	0,091750
12,883667	0,5	0,072050
12,892000	0,5	0,059050
12,900333	0,5	0,049300
12,908667	0,5	0,033100
12,917000	0,5	0,022100
12,925333	0,5	0,026400
12,933667	0,5	0,026750
12,942000	0,5	0,030300
12,950333	0,5	0,038600
12,958667	0,5	0,052900
12,967000	0,5	0,075800
12,975333	0,5	0,099000
12,983667	0,5	0,117250
12,992000	0,5	0,139200
13,000333	0,5	0,148250
13,008667	0,5	0,154250
13,017000	0,5	0,150200
13,025333	0,5	0,144700
13,033667	0,5	0,133200
13,042000	0,5	0,117300
13,050333	0,5	0,100550
13,058667	0,5	0,077600
13,067000	0,5	0,054400
13,075333	0,5	0,042750
13,083667	0,5	0,023800
13,092000	0,5	0,002200
13,100333	0,5	-0,019250
13,108667	0,5	-0,032950
13,117000	0,5	-0,037350
13,125333	0,5	-0,046550
13,133667	0,5	-0,049700
13,142000	0,5	-0,051700
13,150333	0,5	-0,045050
13,158667	0,5	-0,033750
13,167000	0,5	-0,018200
13,175333	0,5	-0,011700
13,183667	0,5	0,007150
13,192000	0,5	0,021900
13,200333	0,5	0,037550
13,208667	0,5	0,039200
13,217000	0,5	0,053800
13,225333	0,5	0,059450
13,233667	0,5	0,060100
13,242000	0,5	0,067250
13,250333	0,5	0,076750
13,258667	0,5	0,096750
13,267000	0,5	0,135200
13,275333	0,5	0,183100
13,283667	0,5	0,246000
13,292000	0,5	0,318800
13,300333	0,5	0,408100
13,308667	0,5	0,508250
13,317000	0,5	0,607650
13,325333	0,5	0,706050
13,333667	0,5	0,797850
13,342000	0,5	0,888400
13,350333	0,5	0,952850
13,358667	0,5	1,007800
13,367000	0,5	1,054750
13,375333	0,5	1,081650
13,383667	0,5	1,089850
13,392000	0,5	1,087850
13,400333	0,5	1,076050
13,408667	0,5	1,060600
13,417000	0,5	1,036150
13,425333	0,5	1,016000
13,433667	0,5	0,994150
13,442000	0,5	0,982400
13,450333	0,5	0,969400
13,458667	0,5	0,960200
13,467000	0,5	0,955800
13,475333	0,5	0,943150
13,483667	0,5	0,942650
13,492000	0,5	0,932350
13,500333	0,5	0,916250
13,508667	0,5	0,916950
13,517000	0,5	0,920900
13,525333	0,5	0,920900
13,533667	0,5	0,916750
13,542000	0,5	0,910000
13,550333	0,5	0,913850
13,558667	0,5	0,914600
13,567000	0,5	0,915500
13,575333	0,5	0,911200
13,583667	0,5	0,914400
13,592000	0,5	0,911500
13,600333	0,5	0,911200
13,608667	0,5	0,907000
13,617000	0,5	0,903400
13,625333	0,5	0,900600
13,633667	0,5	0,898150
13,642000	0,5	0,902300
13,650333	0,5	0,890300
13,658667	0,5	0,898450
13,667000	0,5	0,899000
13,675333	0,5	0,898650
13,683667	0,5	0,894300
13,692000	0,5	0,885000
13,700333	0,5	0,886100
13,708667	0,5	0,893200
13,717000	0,5	0,887000
13,725333	0,5	0,887350
13,733667	0,5	0,881750
13,742000	0,5	0,891400
13,750333	0,5	0,887050
13,758667	0,5	0,890800
13,767000	0,5	0,887350
13,775333	0,5	0,889400
13,783667	0,5	0,897700
13,792000	0,5	0,897050
13,800333	0,5	0,887800
13,808667	0,5	0,901150
13,817000	0,5	0,904350
13,825333	0,5	0,899200
13,833667	0,5	0,899250
13,842000	0,5	0,892000
13,850333	0,5	0,903750
13,858667	0,5	0,903900
13,867000	0,5	0,907400
13,875333	0,5	0,905200
13,883667	0,5	0,911100
13,892000	0,5	0,911150
13,900333	0,5	0,915500
13,908667	0,5	0,916750
13,917000	0,5	0,918150
13,925333	0,5	0,924400
13,933667	0,5	0,933550
13,942000	0,5	0,926700
13,950333	0,5	0,931850
13,958667	0,5	0,943900
13,967000	0,5	0,947900
13,975333	0,5	0,945250
13,983667	0,5	0,944500
13,992000	0,5	0,942000
14,000333	0,5	0,949350
14,008667	0,5	0,955700
14,017000	0,5	0,958150
14,025333	0,5	0,968600
14,033667	0,5	0,971650
14,042000	0,5	0,984200
14,050333	0,5	0,990100
14,058667	0,5	0,999750
14,067000	0,5	1,008700
14,075333	0,5	1,020550
14,083667	0,5	1,026950
14,092000	0,5	1,026700
14,100333	0,5	1,036900
14,108667	0,5	1,052700
14,117000	0,5	1,059250
14,125333	0,5	1,060000
14,133667	0,5	1,061350
14,142000	0,5	1,064950
14,150333	0,5	1,074150
14,158667	0,5	1,085700
14,167000	0,5	1,096750
14,175333	0,5	1,107650
14,183667	0,5	1,121150
14,192000	0,5	1,132450
14,200333	0,5	1,145400
14,208667	0,5	1,145450
14,217000	0,5	1,151000
14,225333	0,5	1,157450
14,233667	0,5	1,161000
14,242000	0,5	1,164450
14,250333	0,5	1,182150
14,258667	0,5	1,192150
14,267000	0,5	1,202100
14,275333	0,5	1,200450
14,283667	0,5	1,204600
14,292000	0,5	1,208800
14,300333	0,5	1,219400
14,308667	0,5	1,225050
14,317000	0,5	1,240050
14,325333	0,5	1,248900
14,333667	0,5	1,258350
14,342000	0,5	1,273650
14,350333	0,5	1,285500
14,358667	0,5	1,300750
14,367000	0,5	1,315650
14,375333	0,5	1,338550
14,383667	0,5	1,343550
14,392000	0,5	1,362550
14,400333	0,5	1,381700
14,408667	0,5	1,393900
14,417000	0,5	1,405900
14,425333	0,5	1,413550
14,433667	0,5	1,424450
14,442000	0,5	1,451650
14,450333	0,5	1,463250
14,458667	0,5	1,482750
14,467000	0,5	1,494500
14,475333	0,5	1,515150
14,483667	0,5	1,530700
14,492000	0,5	1,548900
14,500333	0,5	1,563650
14,508667	0,5	1,570700
14,517000	0,5	1,587150
14,525333	0,5	1,604150
14,533667	0,5	1,599850
14,542000	0,5	1,612300
14,550333	0,5	1,623500
14,558667	0,5	1,628500
14,567000	0,5	1,633150
14,575333	0,5	1,618800
14,583667	0,5	1,629450
14,592000	0,5	1,633000
14,600333	0,5	1,638950
14,608667	0,5	1,641650
14,617000	0,5	1,655250
14,625333	0,5	1,662100
14,633667	0,5	1,673450
14,642000	0,5	1,682900
14,650333	0,5	1,698300
14,658667	0,5	1,709300
14,667000	0,5	1,721400
14,675333	0,5	1,732700
14,683667	0,5	1,721150
14,692000	0,5	1,724900
14,700333	0,5	1,710750
14,708667	0,5	1,695550
14,717000	0,5	1,676000
14,725333	0,5	1,656300
14,733667	0,5	1,654550
14,742000	0,5	1,662600
14,750333	0,5	1,659650
14,758667	0,5	1,665300
14,767000	0,5	1,674800
14,775333	0,5	1,685400
14,783667	0,5	1,690200
14,792000	0,5	1,702500
14,800333	0,5	1,713050
14,808667	0,5	1,723500
14,817000	0,5	1,730300
14,825333	0,5	1,724300
14,833667	0,5	1,705300
14,842000	0,5	1,704850
14,850333	0,5	1,700700
14,858667	0,5	1,704800
14,867000	0,5	1,721450
14,875333	0,5	1,744500
14,883667	0,5	1,788450
14,892000	0,5	1,810700
14,900333	0,5	1,816350
14,908667	0,5	1,797100
14,917000	0,5	1,765150
14,925333	0,5	1,724100
14,933667	0,5	1,693850
14,942000	0,5	1,655450
14,950333	0,5	1,634750
14,958667	0,5	1,628050
14,967000	0,5	1,628050
14,975333	0,5	1,615200
14,983667	0,5	1,612850
14,992000	0,5	1,600250
15,000333	0,5	1,567900
15,008667	0,5	1,533300
15,017000	0,5	1,493050
15,025333	0,5	1,464550
15,033667	0,5	1,448750
15,042000	0,5	1,433650
15,050333	0,5	1,418750
15,058667	0,5	1,408750
15,067000	0,5	1,395100
15,075333	0,5	1,392300
15,083667	0,5	1,383200
15,092000	0,5	1,387100
15,100333	0,5	1,384700
15,108667	0,5	1,390800
15,117000	0,5	1,383950
15,125333	0,5	1,375700
15,133667	0,5	1,369350
15,142000	0,5	1,364750
15,150333	0,5	1,350950
15,158667	0,5	1,334350
15,167000	0,5	1,319600
15,175333	0,5	1,309550
15,183667	0,5	1,306250
15,192000	0,5	1,303700
15,200333	0,5	1,296100
15,208667	0,5	1,290900
15,217000	0,5	1,286800
15,225333	0,5	1,278400
15,233667	0,5	1,271200
15,242000	0,5	1,259950
15,250333	0,5	1,253000
15,258667	0,5	1,244500
15,267000	0,5	1,227300
15,275333	0,5	1,215000
15,283667	0,5	1,221850
15,292000	0,5	1,213100
15,300333	0,5	1,207000
15,308667	0,5	1,186400
15,317000	0,5	1,180400
15,325333	0,5	1,174400
15,333667	0,5	1,168550
15,342000	0,5	1,162450
15,350333	0,5	1,159300
15,358667	0,5	1,153250
15,367000	0,5	1,147300
15,375333	0,5	1,142000
15,383667	0,5	1,134800
15,392000	0,5	1,130650
15,400333	0,5	1,123050
15,408667	0,5	1,124550
15,417000	0,5	1,104800
15,425333	0,5	1,109550
15,433667	0,5	1,112450
15,442000	0,5	1,108650
15,450333	0,5	1,100400
15,458667	0,5	1,088550
15,467000	0,5	1,089800
15,475333	0,5	1,098600
15,483667	0,5	1,095500
15,492000	0,5	1,095800
15,500333	0,5	1,091500
15,508667	0,5	1,094450
15,517000	0,5	1,088650
15,525333	0,5	1,090950
15,533667	0,5	1,087300
15,542000	0,5	1,077300
15,550333	0,5	1,073150
15,558667	0,5	1,064800
15,567000	0,5	1,033550
15,575333	0,5	1,039550
15,583667	0,5	1,030350
15,592000	0,5	1,015450
15,600333	0,5	1,006400
15,608667	0,5	0,982450
15,617000	0,5	0,989950
15,625333	0,5	0,981750
15,633667	0,5	0,986600
15,642000	0,5	0,983900
15,650333	0,5	0,989750
15,658667	0,5	0,983550
15,667000	0,5	0,982500
15,675333	0,5	0,971050
15,683667	0,5	0,958150
15,692000	0,5	0,947350
15,700333	0,5	0,942350
15,708667	0,5	0,928900
15,717000	0,5	0,915200
15,725333	0,5	0,926550
15,733667	0,5	0,917500
15,742000	0,5	0,908800
15,750333	0,5	0,895200
15,758667	0,5	0,881050
15,767000	0,5	0,881650
15,775333	0,5	0,885000
15,783667	0,5	0,876700
15,792000	0,5	0,873950
15,800333	0,5	0,868500
15,808667	0,5	0,869600
15,817000	0,5	0,868200
15,825333	0,5	0,864050
15,833667	0,5	0,859350
15,842000	0,5	0,852900
15,850333	0,5	0,851500
15,858667	0,5	0,841600
15,867000	0,5	0,839550
15,875333	0,5	0,848150
15,883667	0,5	0,843550
15,892000	0,5	0,836950
15,900333	0,5	0,823850
15,908667	0,5	0,812000
15,917000	0,5	0,816900
15,925333	0,5	0,805450
15,933667	0,5	0,804950
15,942000	0,5	0,798250
15,950333	0,5	0,798050
15,958667	0,5	0,791650
15,967000	0,5	0,793400
15,975333	0,5	0,784350
15,983667	0,5	0,781600
15,992000	0,5	0,774500
16,000333	0,5	0,775250
16,008667	0,5	0,755350
16,017000	0,5	0,764050
16,025333	0,5	0,757400
16,033667	0,5	0,751250
16,042000	0,5	0,734800
16,050333	0,5	0,718550
16,058667	0,5	0,714950
16,067000	0,5	0,709050
16,075333	0,5	0,708000
16,083667	0,5	0,704000
16,092000	0,5	0,698650
16,100333	0,5	0,692350
16,108667	0,5	0,690450
16,117000	0,5	0,683450
16,125333	0,5	0,680050
16,133667	0,5	0,675750
16,142000	0,5	0,679250
16,150333	0,5	0,666600
16,158667	0,5	0,664050
16,167000	0,5	0,664250
16,175333	0,5	0,663050
16,183667	0,5	0,651850
16,192000	0,5	0,641450
16,200333	0,5	0,633050
16,208667	0,5	0,632600
16,217000	0,5	0,628050
16,225333	0,5	0,625300
16,233667	0,5	0,622600
16,242000	0,5	0,622650
16,250333	0,5	0,621750
16,258667	0,5	0,618850
16,267000	0,5	0,613200
16,275333	0,5	0,603400
16,283667	0,5	0,602250
16,292000	0,5	0,593500
16,300333	0,5	0,572750
16,308667	0,5	0,568700
16,317000	0,5	0,570200
16,325333	0,5	0,558000
16,333667	0,5	0,552200
16,342000	0,5	0,527200
16,350333	0,5	0,523800
16,358667	0,5	0,517800
16,367000	0,5	0,515350
16,375333	0,5	0,508600
16,383667	0,5	0,500700
16,392000	0,5	0,494450
16,400333	0,5	0,489200
16,408667	0,5	0,485000
16,417000	0,5	0,472850
16,425333	0,5	0,305000
16,433667	0,5	0,476300
16,442000	0,5	0,463350
16,450333	0,5	0,438250
16,458667	0,5	0,449350
16,467000	0,5	0,448450
16,475333	0,5	0,441050
16,483667	0,5	0,427800
16,492000	0,5	0,408750
16,500333	0,5	0,414400
16,508667	0,5	0,418200
16,517000	0,5	0,406950
16,525333	0,5	0,404450
16,533667	0,5	0,398000
16,542000	0,5	0,402100
16,550333	0,5	0,395800
16,558667	0,5	0,393350
16,567000	0,5	0,389950
16,575333	0,5	0,381400
16,583667	0,5	0,384350
16,592000	0,5	0,376900
16,600333	0,5	0,358800
16,608667	0,5	0,368200
16,617000	0,5	0,363650
16,625333	0,5	0,352050
16,633667	0,5	0,338650
16,642000	0,5	0,323600
16,650333	0,5	0,328100
16,658667	0,5	0,318350
16,667000	0,5	0,312750
16,675333	0,5	0,305100
16,683667	0,5	0,304750
16,692000	0,5	0,298600
16,700333	0,5	0,296450
16,708667	0,5	0,290950
16,717000	0,5	0,284550
16,725333	0,5	0,282900
16,733667	0,5	0,287450
16,742000	0,5	0,273500
16,750333	0,5	0,272050
16,758667	0,5	0,276200
16,767000	0,5	0,273600
16,775333	0,5	0,267800
16,783667	0,5	0,255450
16,792000	0,5	0,251400
16,800333	0,5	0,251700
16,808667	0,5	0,254700
16,817000	0,5	0,247550
16,825333	0,5	0,250650
16,833667	0,5	0,244100
16,842000	0,5	0,243800
16,850333	0,5	0,241500
16,858667	0,5	0,239850
16,867000	0,5	0,235400
16,875333	0,5	0,236800
16,883667	0,5	0,234550
16,892000	0,5	0,220050
16,900333	0,5	0,218400
16,908667	0,5	0,219100
16,917000	0,5	0,209050
16,925333	0,5	0,192450
16,933667	0,5	0,180000
16,942000	0,5	0,170000
16,950333	0,5	0,169550
16,958667	0,5	0,160400
16,967000	0,5	0,157300
16,975333	0,5	0,148800
16,983667	0,5	0,151300
16,992000	0,5	0,141450
17,000333	0,5	0,138200
17,008667	0,5	0,129600
17,017000	0,5	0,125850
17,025333	0,5	0,126550
17,033667	0,5	0,124050
17,042000	0,5	0,108200
17,050333	0,5	0,124450
17,058667	0,5	0,121300
17,067000	0,5	0,117400
17,075333	0,5	0,104700
17,083667	0,5	0,094250
17,092000	0,5	0,100900
17,100333	0,5	0,104300
17,108667	0,5	0,110600
17,117000	0,5	0,119400
17,125333	0,5	0,130550
17,133667	0,5	0,141100
17,142000	0,5	0,159800
17,150333	0,5	0,169550
17,158667	0,5	0,179900
17,167000	0,5	0,190150
17,175333	0,5	0,194950
17,183667	0,5	0,174800
17,192000	0,5	0,167000
17,200333	0,5	0,161600
17,208667	0,5	0,142900
17,217000	0,5	0,127850
17,225333	0,5	0,103250
17,233667	0,5	0,091750
17,242000	0,5	0,083900
17,250333	0,5	0,078050
17,258667	0,5	0,070900
17,267000	0,5	0,069400
17,275333	0,5	0,064950
17,283667	0,5	0,067750
17,292000	0,5	0,070950
17,300333	0,5	0,072050
17,308667	0,5	0,071000
17,317000	0,5	0,083100
17,325333	0,5	0,084200
17,333667	0,5	0,073950
17,342000	0,5	0,093050
17,350333	0,5	0,105350
17,358667	0,5	0,107850
17,367000	0,5	0,112700
17,375333	0,5	0,098050
17,383667	0,5	0,115450
17,392000	0,5	0,123550
17,400333	0,5	0,132100
17,408667	0,5	0,138850
17,417000	0,5	0,150350
17,425333	0,5	0,161500
17,433667	0,5	0,169700
17,442000	0,5	0,178900
17,450333	0,5	0,182150
17,458667	0,5	0,194600
17,467000	0,5	0,208400
17,475333	0,5	0,212950
17,483667	0,5	0,213100
17,492000	0,5	0,233950
17,500333	0,5	0,243350
17,508667	0,5	0,252750
17,517000	0,5	0,244450
17,525333	0,5	0,242800
17,533667	0,5	0,255950
17,542000	0,5	0,264150
17,550333	0,5	0,263650
17,558667	0,5	0,264200
17,567000	0,5	0,264900
17,575333	0,5	0,265400
17,583667	0,5	0,265450
17,592000	0,5	0,263650
17,600333	0,5	0,262300
17,608667	0,5	0,258300
17,617000	0,5	0,265700
17,625333	0,5	0,252100
17,633667	0,5	0,248800
17,642000	0,5	0,248100
17,650333	0,5	0,246500
17,658667	0,5	0,233700
17,667000	0,5	0,222250
17,675333	0,5	0,216100
17,683667	0,5	0,220250
17,692000	0,5	0,216950
17,700333	0,5	0,221250
17,708667	0,5	0,218200
17,717000	0,5	0,227100
17,725333	0,5	0,239350
17,733667	0,5	0,257750
17,742000	0,5	0,277750
17,750333	0,5	0,294050
17,758667	0,5	0,326500
17,767000	0,5	0,348150
17,775333	0,5	0,346150
17,783667	0,5	0,351050
17,792000	0,5	0,341050
17,800333	0,5	0,314900
17,808667	0,5	0,273050
17,817000	0,5	0,219850
17,825333	0,5	0,187650
17,833667	0,5	0,156950
17,842000	0,5	0,136350
17,850333	0,5	0,113550
17,858667	0,5	0,098750
17,867000	0,5	0,081250
17,875333	0,5	0,071700
17,883667	0,5	0,056700
17,892000	0,5	0,044650
17,900333	0,5	0,035250
17,908667	0,5	0,037450
17,917000	0,5	0,022750
17,925333	0,5	0,003650
17,933667	0,5	0,009100
17,942000	0,5	-0,003400
17,950333	0,5	-0,012850
17,958667	0,5	-0,037000
17,967000	0,5	-0,054200
17,975333	0,5	-0,065700
17,983667	0,5	-0,062900
17,992000	0,5	-0,076150
18,000333	0,5	-0,080950
18,008667	0,5	-0,090250
18,017000	0,5	-0,095600
18,025333	0,5	-0,089950
18,033667	0,5	-0,102750
18,042000	0,5	-0,116900
18,050333	0,5	-0,119850
18,058667	0,5	-0,120250
18,067000	0,5	-0,135050
18,075333	0,5	-0,141050
18,083667	0,5	-0,135650
18,092000	0,5	-0,146750
18,100333	0,5	-0,157500
18,108667	0,5	-0,178800
18,117000	0,5	-0,196600
18,125333	0,5	-0,197500
18,133667	0,5	-0,206550
18,142000	0,5	-0,210050
18,150333	0,5	-0,214300
18,158667	0,5	-0,220600
18,167000	0,5	-0,229700
18,175333	0,5	-0,228050
18,183667	0,5	-0,239800
18,192000	0,5	-0,244950
18,200333	0,5	-0,242250
18,208667	0,5	-0,245250
18,217000	0,5	-0,266800
18,225333	0,5	-0,261100
18,233667	0,5	-0,265950
18,242000	0,5	-0,280400
18,250333	0,5	-0,295250
18,258667	0,5	-0,317600
18,267000	0,5	-0,315950
18,275333	0,5	-0,325350
18,283667	0,5	-0,330550
18,292000	0,5	-0,342700
18,300333	0,5	-0,346200
18,308667	0,5	-0,356050
18,317000	0,5	-0,358000
18,325333	0,5	-0,373150
18,333667	0,5	-0,376950
18,342000	0,5	-0,386000
18,350333	0,5	-0,380700
18,358667	0,5	-0,396050
18,367000	0,5	-0,410600
18,375333	0,5	-0,411500
18,383667	0,5	-0,414700
18,392000	0,5	-0,426200
18,400333	0,5	-0,444600
18,408667	0,5	-0,461700
18,417000	0,5	-0,464800
18,425333	0,5	-0,470450
18,433667	0,5	-0,478550
18,442000	0,5	-0,486100
18,450333	0,5	-0,491550
18,458667	0,5	-0,497400
18,467000	0,5	-0,503100
18,475333	0,5	-0,508250
18,483667	0,5	-0,518850
18,492000	0,5	-0,516500
18,500333	0,5	-0,520000
18,508667	0,5	-0,534200
18,517000	0,5	-0,535350
18,525333	0,5	-0,535400
18,533667	0,5	-0,542300
18,542000	0,5	-0,550700
18,550333	0,5	-0,577800
18,558667	0,5	-0,579050
18,567000	0,5	-0,577350
18,575333	0,5	-0,580700
18,583667	0,5	-0,590250
18,592000	0,5	-0,592900
18,600333	0,5	-0,596750
18,608667	0,5	-0,600450
18,617000	0,5	-0,601600
18,625333	0,5	-0,607200
18,633667	0,5	-0,604800
18,642000	0,5	-0,613250
18,650333	0,5	-0,600450
18,658667	0,5	-0,624150
18,667000	0,5	-0,607050
18,675333	0,5	-0,607750
18,683667	0,5	-0,602700
18,692000	0,5	-0,611350
18,700333	0,5	-0,623950
18,708667	0,5	-0,614950
18,717000	0,5	-0,609500
18,725333	0,5	-0,609450
18,733667	0,5	-0,601400
18,742000	0,5	-0,593800
18,750333	0,5	-0,584500
18,758667	0,5	-0,571850
18,767000	0,5	-0,566350
18,775333	0,5	-0,556400
18,783667	0,5	-0,548900
18,792000	0,5	-0,527400
18,800333	0,5	-0,524450
18,808667	0,5	-0,524850
18,817000	0,5	-0,508050
18,825333	0,5	-0,506000
18,833667	0,5	-0,510700
18,842000	0,5	-0,518700
18,850333	0,5	-0,537850
18,858667	0,5	-0,533600
18,867000	0,5	-0,540100
18,875333	0,5	-0,536050
18,883667	0,5	-0,548050
18,892000	0,5	-0,549050
18,900333	0,5	-0,558900
18,908667	0,5	-0,564250
18,917000	0,5	-0,575750
18,925333	0,5	-0,588300
18,933667	0,5	-0,588850
18,942000	0,5	-0,596600
18,950333	0,5	-0,613950
18,958667	0,5	-0,627350
18,967000	0,5	-0,628200
18,975333	0,5	-0,643100
18,983667	0,5	-0,656950
18,992000	0,5	-0,685250
19,000333	0,5	-0,693000
19,008667	0,5	-0,706500
19,017000	0,5	-0,708300
19,025333	0,5	-0,720300
19,033667	0,5	-0,725650
19,042000	0,5	-0,736150
19,050333	0,5	-0,743050
19,058667	0,5	-0,747450
19,067000	0,5	-0,759450
19,075333	0,5	-0,764400
19,083667	0,5	-0,769850
19,092000	0,5	-0,776900
19,100333	0,5	-0,798050
19,108667	0,5	-0,794500
19,117000	0,5	-0,793650
19,125333	0,5	-0,805200
19,133667	0,5	-0,825950
19,142000	0,5	-0,838400
19,150333	0,5	-0,844150
19,158667	0,5	-0,836100
19,167000	0,5	-0,843900
19,175333	0,5	-0,833100
19,183667	0,5	-0,832500
19,192000	0,5	-0,819200
19,200333	0,5	-0,813550
19,208667	0,5	-0,805850
19,217000	0,5	-0,807250
19,225333	0,5	-0,805900
19,233667	0,5	-0,796050
19,242000	0,5	-0,813700
19,250333	0,5	-0,828850
19,258667	0,5	-0,839050
19,267000	0,5	-0,854350
19,275333	0,5	-0,880700
19,283667	0,5	-0,912400
19,292000	0,5	-0,932800
19,300333	0,5	-0,938000
19,308667	0,5	-0,953800
19,317000	0,5	-0,960450
19,325333	0,5	-0,975900
19,333667	0,5	-0,978250
19,342000	0,5	-0,988350
19,350333	0,5	-0,990200
19,358667	0,5	-1,000500
19,367000	0,5	-1,104900
19,375333	0,5	-0,997200
19,383667	0,5	-1,000750
19,392000	0,5	-1,024900
19,400333	0,5	-1,022000
19,408667	0,5	-1,026000
19,417000	0,5	-1,030200
19,425333	0,5	-1,043850
19,433667	0,5	-1,069450
19,442000	0,5	-1,065600
19,450333	0,5	-1,072000
19,458667	0,5	-1,079450
19,467000	0,5	-1,094550
19,475333	0,5	-1,092350
19,483667	0,5	-1,104700
19,492000	0,5	-1,103000
19,500333	0,5	-1,113950
19,508667	0,5	-1,116550
19,517000	0,5	-1,121550
19,525333	0,5	-1,120650
19,533667	0,5	-1,125400
19,542000	0,5	-1,142350
19,550333	0,5	-1,136400
19,558667	0,5	-1,140000
19,567000	0,5	-1,149400
19,575333	0,5	-1,167250
19,583667	0,5	-1,190700
19,592000	0,5	-1,188450
19,600333	0,5	-1,191000
19,608667	0,5	-1,202250
19,617000	0,5	-1,204450
19,625333	0,5	-1,210900
19,633667	0,5	-1,210750
19,642000	0,5	-1,222800
19,650333	0,5	-1,222100
19,658667	0,5	-1,231400
19,667000	0,5	-1,232950
19,675333	0,5	-1,234150
19,683667	0,5	-1,244200
19,692000	0,5	-1,260950
19,700333	0,5	-1,246150
19,708667	0,5	-1,258150
19,717000	0,5	-1,266250
19,725333	0,5	-1,283800
19,733667	0,5	-1,297200
19,742000	0,5	-1,293750
19,750333	0,5	-1,298950
19,758667	0,5	-1,302300
19,767000	0,5	-1,309250
19,775333	0,5	-1,309050
19,783667	0,5	-1,315400
19,792000	0,5	-1,312550
19,800333	0,5	-1,317100
19,808667	0,5	-1,320200
19,817000	0,5	-1,319350
19,825333	0,5	-1,316950
19,833667	0,5	-1,330900
19,842000	0,5	-1,328350
19,850333	0,5	-1,332050
19,858667	0,5	-1,339700
19,867000	0,5	-1,355350
19,875333	0,5	-1,372200
19,883667	0,5	-1,377850
19,892000	0,5	-1,381550
19,900333	0,5	-1,381950
19,908667	0,5	-1,382500
19,917000	0,5	-1,379100
19,925333	0,5	-1,390000
19,933667	0,5	-1,390000
19,942000	0,5	-1,393500
19,950333	0,5	-1,393600
19,958667	0,5	-1,395400
19,967000	0,5	-1,389450
19,975333	0,5	-1,402100
19,983667	0,5	-1,409200
19,992000	0,5	-1,405700
20,000333	0,5	-1,408650
20,008667	0,5	-1,416600
20,017000	0,5	-1,434150
20,025333	0,5	-1,450050
20,033667	0,5	-1,448250
20,042000	0,5	-1,449050
20,050333	0,5	-1,455650
20,058667	0,5	-1,452850
20,067000	0,5	-1,457650
20,075333	0,5	-1,460100
20,083667	0,5	-1,465950
20,092000	0,5	-1,474250
20,100333	0,5	-1,489950
20,108667	0,5	-1,487000
20,117000	0,5	-1,489350
20,125333	0,5	-1,506200
20,133667	0,5	-1,504450
20,142000	0,5	-1,499600
20,150333	0,5	-1,504400
20,158667	0,5	-1,506800
20,167000	0,5	-1,535350
20,175333	0,5	-1,532200
20,183667	0,5	-1,531800
20,192000	0,5	-1,534400
20,200333	0,5	-1,530450
20,208667	0,5	-1,531150
20,217000	0,5	-1,528700
20,225333	0,5	-1,532850
20,233667	0,5	-1,529300
20,242000	0,5	-1,533050
20,250333	0,5	-1,534800
20,258667	0,5	-1,523250
20,267000	0,5	-1,522950
20,275333	0,5	-1,541600
20,283667	0,5	-1,527200
20,292000	0,5	-1,532350
20,300333	0,5	-1,535650
20,308667	0,5	-1,552000
20,317000	0,5	-1,562350
20,325333	0,5	-1,555050
20,333667	0,5	-1,554950
20,342000	0,5	-1,561050
20,350333	0,5	-1,566050
20,358667	0,5	-1,562400
20,367000	0,5	-1,567600
20,375333	0,5	-1,564300
20,383667	0,5	-1,566550
20,392000	0,5	-1,565000
20,400333	0,5	-1,563700
20,408667	0,5	-1,541750
20,417000	0,5	-1,549050
20,425333	0,5	-1,555750
20,433667	0,5	-1,548400
20,442000	0,5	-1,540300
20,450333	0,5	-1,550350
20,458667	0,5	-1,554600
20,467000	0,5	-1,565100
20,475333	0,5	-1,551850
20,483667	0,5	-1,556950
20,492000	0,5	-1,556050
20,500333	0,5	-1,555900
20,508667	0,5	-1,548550
20,517000	0,5	-1,548900
20,525333	0,5	-1,543200
20,533667	0,5	-1,539400
20,542000	0,5	-1,543900
20,550333	0,5	-1,522550
20,558667	0,5	-1,511000
20,567000	0,5	-1,521000
20,575333	0,5	-1,521750
20,583667	0,5	-1,522150
20,592000	0,5	-1,533350
20,600333	0,5	-1,542900
20,608667	0,5	-1,571900
20,617000	0,5	-1,570800
20,625333	0,5	-1,579500
20,633667	0,5	-1,573350
20,642000	0,5	-1,579150
20,650333	0,5	-1,580050
20,658667	0,5	-1,583750
20,667000	0,5	-1,585350
20,675333	0,5	-1,583600
20,683667	0,5	-1,588150
20,692000	0,5	-1,582950
20,700333	0,5	-1,570700
20,708667	0,5	-1,565400
20,717000	0,5	-1,581900
20,725333	0,5	-1,580250
20,733667	0,5	-1,593350
20,742000	0,5	-1,595200
20,750333	0,5	-1,616100
20,758667	0,5	-1,628900
20,767000	0,5	-1,633550
20,775333	0,5	-1,627100
20,783667	0,5	-1,633550
20,792000	0,5	-1,630100
20,800333	0,5	-1,630150
20,808667	0,5	-1,628300
20,817000	0,5	-1,628800
20,825333	0,5	-1,626750
20,833667	0,5	-1,628750
20,842000	0,5	-1,614400
20,850333	0,5	-1,600650
20,858667	0,5	-1,600500
20,867000	0,5	-1,605500
20,875333	0,5	-1,605150
20,883667	0,5	-1,608900
20,892000	0,5	-1,621000
20,900333	0,5	-1,631400
20,908667	0,5	-1,642050
20,917000	0,5	-1,630900
20,925333	0,5	-1,633450
20,933667	0,5	-1,623600
20,942000	0,5	-1,623000
20,950333	0,5	-1,619150
20,958667	0,5	-1,614300
20,967000	0,5	-1,610450
20,975333	0,5	-1,607500
20,983667	0,5	-1,603000
20,992000	0,5	-1,575700
21,000333	0,5	-1,558100
21,008667	0,5	-1,564250
21,017000	0,5	-1,567750
21,025333	0,5	-1,562900
21,033667	0,5	-1,577650
21,042000	0,5	-1,585450
21,050333	0,5	-1,596650
21,058667	0,5	-1,586050
21,067000	0,5	-1,592000
21,075333	0,5	-1,584200
21,083667	0,5	-1,585750
21,092000	0,5	-1,577950
21,100333	0,5	-1,578500
21,108667	0,5	-1,574150
21,117000	0,5	-1,566650
21,125333	0,5	-1,566400
21,133667	0,5	-1,550950
21,142000	0,5	-1,530150
21,150333	0,5	-1,522500
21,158667	0,5	-1,526400
21,167000	0,5	-1,528800
21,175333	0,5	-1,526700
21,183667	0,5	-1,532100
21,192000	0,5	-1,547650
21,200333	0,5	-1,538700
21,208667	0,5	-1,532250
21,217000	0,5	-1,520450
21,225333	0,5	-1,518100
21,233667	0,5	-1,503700
21,242000	0,5	-1,503000
21,250333	0,5	-1,493300
21,258667	0,5	-1,492850
21,267000	0,5	-1,481650
21,275333	0,5	-1,474650
21,283667	0,5	-1,446900
21,292000	0,5	-1,426400
21,300333	0,5	-1,423900
21,308667	0,5	-1,422650
21,317000	0,5	-1,418400
21,325333	0,5	-1,423600
21,333667	0,5	-1,434900
21,342000	0,5	-1,441050
21,350333	0,5	-1,430550
21,358667	0,5	-1,416650
21,367000	0,5	-1,420050
21,375333	0,5	-1,415200
21,383667	0,5	-1,414150
21,392000	0,5	-1,402200
21,400333	0,5	-1,398000
21,408667	0,5	-1,388850
21,417000	0,5	-1,382250
21,425333	0,5	-1,374800
21,433667	0,5	-1,346550
21,442000	0,5	-1,323750
21,450333	0,5	-1,333950
21,458667	0,5	-1,334150
21,467000	0,5	-1,331550
21,475333	0,5	-1,344200
21,483667	0,5	-1,344700
21,492000	0,5	-1,348950
21,500333	0,5	-1,330050
21,508667	0,5	-1,321650
21,517000	0,5	-1,307000
21,525333	0,5	-1,299250
21,533667	0,5	-1,284000
21,542000	0,5	-1,266550
21,550333	0,5	-1,248500
21,558667	0,5	-1,226300
21,567000	0,5	-1,203400
21,575333	0,5	-1,148650
21,583667	0,5	-1,100000
21,592000	0,5	-1,063500
21,600333	0,5	-1,046950
21,608667	0,5	-1,046400
21,617000	0,5	-1,054800
21,625333	0,5	-1,080700
21,633667	0,5	-1,107200
21,642000	0,5	-1,105350
21,650333	0,5	-1,109350
21,658667	0,5	-1,099050
21,667000	0,5	-1,098300
21,675333	0,5	-1,081300
21,683667	0,5	-1,072350
21,692000	0,5	-1,057850
21,700333	0,5	-1,047050
21,708667	0,5	-1,039450
21,717000	0,5	-1,022450
21,725333	0,5	-0,990900
21,733667	0,5	-0,969300
21,742000	0,5	-0,964650
21,750333	0,5	-0,949500
21,758667	0,5	-0,944250
21,767000	0,5	-0,925350
21,775333	0,5	-0,924350
21,783667	0,5	-0,908150
21,792000	0,5	-0,885750
21,800333	0,5	-0,855800
21,808667	0,5	-0,842750
21,817000	0,5	-0,816650
21,825333	0,5	-0,801900
21,833667	0,5	-0,781450
21,842000	0,5	-0,764450
21,850333	0,5	-0,744150
21,858667	0,5	-0,728700
21,867000	0,5	-0,702050
21,875333	0,5	-0,674700
21,883667	0,5	-0,665200
21,892000	0,5	-0,654100
21,900333	0,5	-0,640200
21,908667	0,5	-0,628450
21,917000	0,5	-0,621350
21,925333	0,5	-0,606250
21,933667	0,5	-0,591900
21,942000	0,5	-0,568800
21,950333	0,5	-0,552650
21,958667	0,5	-0,522750
21,967000	0,5	-0,509700
21,975333	0,5	-0,485450
21,983667	0,5	-0,461700
21,992000	0,5	-0,435950
22,000333	0,5	-0,406200
22,008667	0,5	-0,381600
22,017000	0,5	-0,329300
22,025333	0,5	-0,312150
22,033667	0,5	-0,290800
22,042000	0,5	-0,260600
22,050333	0,5	-0,237500
22,058667	0,5	-0,215050
22,067000	0,5	-0,200900
22,075333	0,5	-0,176300
22,083667	0,5	-0,137850
22,092000	0,5	-0,109250
22,100333	0,5	-0,072750
22,108667	0,5	-0,041300
22,117000	0,5	0,008250
22,125333	0,5	0,044500
22,133667	0,5	0,089950
22,142000	0,5	0,137600
22,150333	0,5	0,183550
22,158667	0,5	0,226000
22,167000	0,5	0,272350
22,175333	0,5	0,296450
22,183667	0,5	0,355100
22,192000	0,5	0,400350
22,200333	0,5	0,435700
22,208667	0,5	0,474300
22,217000	0,5	0,495150
22,225333	0,5	0,552400
22,233667	0,5	0,594300
22,242000	0,5	0,646100
22,250333	0,5	0,687250
22,258667	0,5	0,739050
22,267000	0,5	0,781650
22,275333	0,5	0,833150
22,283667	0,5	0,880400
22,292000	0,5	0,929800
22,300333	0,5	0,980150
22,308667	0,5	1,008050
22,317000	0,5	1,054550
22,325333	0,5	1,102550
22,333667	0,5	1,166550
22,342000	0,5	1,215950
22,350333	0,5	1,263200
22,358667	0,5	1,301000
22,367000	0,5	1,343700
22,375333	0,5	1,405450
22,383667	0,5	1,464100
22,392000	0,5	1,513300
22,400333	0,5	1,567100
22,408667	0,5	1,622700
22,417000	0,5	1,685450
22,425333	0,5	1,744100
22,433667	0,5	1,808750
22,442000	0,5	1,867000
22,450333	0,5	1,914050
22,458667	0,5	1,972000
22,467000	0,5	2,020000
22,475333	0,5	2,109200
22,483667	0,5	2,168200
22,492000	0,5	2,226300
22,500333	0,5	2,280400
22,508667	0,5	2,332300
22,517000	0,5	2,393650
22,525333	0,5	2,464500
22,533667	0,5	2,524150
22,542000	0,5	2,590100
22,550333	0,5	2,650550
22,558667	0,5	2,715000
22,567000	0,5	2,769450
22,575333	0,5	2,827550
22,583667	0,5	2,871850
22,592000	0,5	2,911900
22,600333	0,5	2,922100
22,608667	0,5	2,962500
22,617000	0,5	3,004450
22,625333	0,5	3,051600
22,633667	0,5	3,071400
22,642000	0,5	3,084100
22,650333	0,5	3,081550
22,658667	0,5	3,075750
22,667000	0,5	3,086900
22,675333	0,5	3,083000
22,683667	0,5	3,084350
22,692000	0,5	3,066050
22,700333	0,5	3,054700
22,708667	0,5	3,030600
22,717000	0,5	3,004800
22,725333	0,5	2,969450
22,733667	0,5	2,924250
22,742000	0,5	2,857600
22,750333	0,5	2,764850
22,758667	0,5	2,715250
22,767000	0,5	2,655800
22,775333	0,5	2,583150
22,783667	0,5	2,483450
22,792000	0,5	2,377300
22,800333	0,5	2,258400
22,808667	0,5	2,141450
22,817000	0,5	2,018300
22,825333	0,5	1,906950
22,833667	0,5	1,783900
22,842000	0,5	1,658400
22,850333	0,5	1,535250
22,858667	0,5	1,401950
22,867000	0,5	1,270850
22,875333	0,5	1,131200
22,883667	0,5	0,992550
22,892000	0,5	0,833350
22,900333	0,5	0,672150
22,908667	0,5	0,542350
22,917000	0,5	0,399900
22,925333	0,5	0,237850
22,933667	0,5	0,085350
22,942000	0,5	-0,056750
22,950333	0,5	-0,200850
22,958667	0,5	-0,338750
22,967000	0,5	-0,477600
22,975333	0,5	-0,602100
22,983667	0,5	-0,731100
22,992000	0,5	-0,848450
23,000333	0,5	-0,970300
23,008667	0,5	-1,077900
23,017000	0,5	-1,195100
23,025333	0,5	-1,305550
23,033667	0,5	-1,404600
23,042000	0,5	-1,497200
23,050333	0,5	-1,602250
23,058667	0,5	-1,718900
23,067000	0,5	-1,837450
23,075333	0,5	-1,928700
23,083667	0,5	-2,006950
23,092000	0,5	-2,072000
23,100333	0,5	-2,144350
23,108667	0,5	-2,215950
23,117000	0,5	-2,264500
23,125333	0,5	-2,316800
23,133667	0,5	-2,354250
23,142000	0,5	-2,402050
23,150333	0,5	-2,434750
23,158667	0,5	-2,477600
23,167000	0,5	-2,507600
23,175333	0,5	-2,543300
23,183667	0,5	-2,550150
23,192000	0,5	-2,590150
23,200333	0,5	-2,613000
23,208667	0,5	-2,664900
23,217000	0,5	-2,704300
23,225333	0,5	-2,726200
23,233667	0,5	-2,737750
23,242000	0,5	-2,729000
23,250333	0,5	-2,740550
23,258667	0,5	-2,740150
23,267000	0,5	-2,732050
23,275333	0,5	-2,715150
23,283667	0,5	-2,703600
23,292000	0,5	-2,681800
23,300333	0,5	-2,670900
23,308667	0,5	-2,648400
23,317000	0,5	-2,637600
23,325333	0,5	-2,616700
23,333667	0,5	-2,621950
23,342000	0,5	-2,590400
23,350333	0,5	-2,559350
23,358667	0,5	-2,568800
23,367000	0,5	-2,574200
23,375333	0,5	-2,558350
23,383667	0,5	-2,540950
23,392000	0,5	-2,512400
23,400333	0,5	-2,496800
23,408667	0,5	-2,473250
23,417000	0,5	-2,446500
23,425333	0,5	-2,415800
23,433667	0,5	-2,381500
23,442000	0,5	-2,351350
23,450333	0,5	-2,315550
23,458667	0,5	-2,287150
23,467000	0,5	-2,249300
23,475333	0,5	-2,224700
23,483667	0,5	-2,263550
23,492000	0,5	-2,188100
23,500333	0,5	-2,141900
23,508667	0,5	-2,121900
23,517000	0,5	-2,115250
23,525333	0,5	-2,100200
23,533667	0,5	-2,080950
23,542000	0,5	-2,061800
23,550333	0,5	-2,045050
23,558667	0,5	-2,029850
23,567000	0,5	-2,009050
23,575333	0,5	-1,988250
23,583667	0,5	-1,967050
23,592000	0,5	-1,950000
23,600333	0,5	-1,928750
23,608667	0,5	-1,906600
23,617000	0,5	-1,887700
23,625333	0,5	-1,928100
23,633667	0,5	-1,932250
23,642000	0,5	-1,888500
23,650333	0,5	-1,824200
23,658667	0,5	-1,805050
23,667000	0,5	-1,798550
23,675333	0,5	-1,785550
23,683667	0,5	-1,774850
23,692000	0,5	-1,759200
23,700333	0,5	-1,747050
23,708667	0,5	-1,734600
23,717000	0,5	-1,719900
23,725333	0,5	-1,706650
23,733667	0,5	-1,696200
23,742000	0,5	-1,681750
23,750333	0,5	-1,672400
23,758667	0,5	-1,665200
23,767000	0,5	-1,659900
23,775333	0,5	-1,773050
23,783667	0,5	-1,750600
23,792000	0,5	-1,712100
23,800333	0,5	-1,660800
23,808667	0,5	-1,639600
23,817000	0,5	-1,639750
23,825333	0,5	-1,638250
23,833667	0,5	-1,638100
23,842000	0,5	-1,624350
23,850333	0,5	-1,612100
23,858667	0,5	-1,595950
23,867000	0,5	-1,585950
23,875333	0,5	-1,570650
23,883667	0,5	-1,554050
23,892000	0,5	-1,538350
23,900333	0,5	-1,523950
23,908667	0,5	-1,513150
23,917000	0,5	-1,533950
23,925333	0,5	-1,636300
23,933667	0,5	-1,599300
23,942000	0,5	-1,542650
23,950333	0,5	-1,496250
23,958667	0,5	-1,476650
23,967000	0,5	-1,468150
23,975333	0,5	-1,478250
23,983667	0,5	-1,470650
23,992000	0,5	-1,465650
24,000333	0,5	-1,449900
24,008667	0,5	-1,444550
24,017000	0,5	-1,426100
24,025333	0,5	-1,416750
24,033667	0,5	-1,398450
24,042000	0,5	-1,387500
24,050333	0,5	-1,372450
24,058667	0,5	-1,359100
24,067000	0,5	-1,449700
24,075333	0,5	-1,446150
24,083667	0,5	-1,423900
24,092000	0,5	-1,365550
24,100333	0,5	-1,323550
24,108667	0,5	-1,302750
24,117000	0,5	-1,288650
24,125333	0,5	-1,290000
24,133667	0,5	-1,273100
24,142000	0,5	-1,246450
24,150333	0,5	-1,233600
24,158667	0,5	-1,211950
24,167000	0,5	-1,198450
24,175333	0,5	-1,179700
24,183667	0,5	-1,163950
24,192000	0,5	-1,141900
24,200333	0,5	-1,129950
24,208667	0,5	-1,120750
24,217000	0,5	-1,225100
24,225333	0,5	-1,182450
24,233667	0,5	-1,169600
24,242000	0,5	-1,108450
24,250333	0,5	-1,083200
24,258667	0,5	-1,065250
24,267000	0,5	-1,058500
24,275333	0,5	-1,063600
24,283667	0,5	-1,038650
24,292000	0,5	-1,024500
24,300333	0,5	-1,004850
24,308667	0,5	-0,994000
24,317000	0,5	-0,968150
24,325333	0,5	-0,952900
24,333667	0,5	-0,925100
24,342000	0,5	-0,912050
24,350333	0,5	-0,888150
24,358667	0,5	-0,904650
24,367000	0,5	-0,951000
24,375333	0,5	-0,920950
24,383667	0,5	-0,885200
24,392000	0,5	-0,839600
24,400333	0,5	-0,814750
24,408667	0,5	-0,803750
24,417000	0,5	-0,798900
24,425333	0,5	-0,803550
24,433667	0,5	-0,785800
24,442000	0,5	-0,765600
24,450333	0,5	-0,753650
24,458667	0,5	-0,741050
24,467000	0,5	-0,728750
24,475333	0,5	-0,714000
24,483667	0,5	-0,698100
24,492000	0,5	-0,683100
24,500333	0,5	-0,674950
24,508667	0,5	-0,715700
24,517000	0,5	-0,719300
24,525333	0,5	-0,687600
24,533667	0,5	-0,660000
24,542000	0,5	-0,624050
24,550333	0,5	-0,612500
24,558667	0,5	-0,599000
24,567000	0,5	-0,593050
24,575333	0,5	-0,587550
24,583667	0,5	-0,569850
24,592000	0,5	-0,552300
24,600333	0,5	-0,538850
24,608667	0,5	-0,526000
24,617000	0,5	-0,513450
24,625333	0,5	-0,497550
24,633667	0,5	-0,483050
24,642000	0,5	-0,471950
24,650333	0,5	-0,463050
24,658667	0,5	-0,504250
24,667000	0,5	-0,484400
24,675333	0,5	-0,474150
24,683667	0,5	-0,442350
24,692000	0,5	-0,425600
24,700333	0,5	-0,414700
24,708667	0,5	-0,413350
24,717000	0,5	-0,415050
24,725333	0,5	-0,410700
24,733667	0,5	-0,396350
24,742000	0,5	-0,386750
24,750333	0,5	-0,372450
24,758667	0,5	-0,360600
24,767000	0,5	-0,346500
24,775333	0,5	-0,334550
24,783667	0,5	-0,321700
24,792000	0,5	-0,311400
24,800333	0,5	-0,309900
24,808667	0,5	-0,323700
24,817000	0,5	-0,311900
24,825333	0,5	-0,295400
24,833667	0,5	-0,275200
24,842000	0,5	-0,257900
24,850333	0,5	-0,253900
24,858667	0,5	-0,252600
24,867000	0,5	-0,252350
24,875333	0,5	-0,240800
24,883667	0,5	-0,238650
24,892000	0,5	-0,227650
24,900333	0,5	-0,224100
24,908667	0,5	-0,215550
24,917000	0,5	-0,210300
24,925333	0,5	-0,198800
24,933667	0,5	-0,194050
24,942000	0,5	-0,187800
24,950333	0,5	-0,197450
24,958667	0,5	-0,194800
24,967000	0,5	-0,184150
24,975333	0,5	-0,170700
24,983667	0,5	-0,156650
24,992000	0,5	-0,149000
25,000333	0,5	-0,143200
25,008667	0,5	-0,140650
25,017000	0,5	-0,134900
25,025333	0,5	-0,128700
25,033667	0,5	-0,120950
25,042000	0,5	-0,116050
25,050333	0,5	-0,107900
25,058667	0,5	-0,101300
25,067000	0,5	-0,093400
25,075333	0,5	-0,090100
25,083667	0,5	-0,079850
25,092000	0,5	-0,077700
25,100333	0,5	-0,083650
25,108667	0,5	-0,076500
25,117000	0,5	-0,071950
25,125333	0,5	-0,066400
25,133667	0,5	-0,062200
25,142000	0,5	-0,056000
25,150333	0,5	-0,055700
25,158667	0,5	-0,055500
25,167000	0,5	-0,051450
25,175333	0,5	-0,046100
25,183667	0,5	-0,041500
25,192000	0,5	-0,035000
25,200333	0,5	-0,031950
25,208667	0,5	-0,026500
25,217000	0,5	-0,021500
25,225333	0,5	-0,017000
25,233667	0,5	-0,013750
25,242000	0,5	-0,008350
25,250333	0,5	-0,008450
25,258667	0,5	-0,000250
25,267000	0,5	0,002300
25,275333	0,5	0,006950
25,283667	0,5	0,007200
25,292000	0,5	0,012100
25,300333	0,5	0,009300
25,308667	0,5	0,009100
25,317000	0,5	0,013350
25,325333	0,5	0,013000
25,333667	0,5	0,017850
25,342000	0,5	0,016000
25,350333	0,5	0,018850
25,358667	0,5	0,018150
25,367000	0,5	0,020950
25,375333	0,5	0,024250
25,383667	0,5	0,029300
25,392000	0,5	0,031950
25,400333	0,5	0,034900
25,408667	0,5	0,041250
25,417000	0,5	0,041550
25,425333	0,5	0,045850
25,433667	0,5	0,045000
25,442000	0,5	0,046250
25,450333	0,5	0,048850
25,458667	0,5	0,054000
25,467000	0,5	0,053200
25,475333	0,5	0,053300
25,483667	0,5	0,054650
25,492000	0,5	0,055450
25,500333	0,5	0,056150
25,508667	0,5	0,057000
25,517000	0,5	0,060250
25,525333	0,5	0,060750
25,533667	0,5	0,060950
25,542000	0,5	0,065950
25,550333	0,5	0,066100
25,558667	0,5	0,068550
25,567000	0,5	0,068150
25,575333	0,5	0,067050
25,583667	0,5	0,067000
25,592000	0,5	0,071350
25,600333	0,5	0,074700
25,608667	0,5	0,077350
25,617000	0,5	0,078100
25,625333	0,5	0,076400
25,633667	0,5	0,079900
25,642000	0,5	0,081550
25,650333	0,5	0,084350
25,658667	0,5	0,084750
25,667000	0,5	0,086850
25,675333	0,5	0,087300
25,683667	0,5	0,085450
25,692000	0,5	0,092200
25,700333	0,5	0,091750
25,708667	0,5	0,096200
25,717000	0,5	0,089450
25,725333	0,5	0,088100
25,733667	0,5	0,086500
25,742000	0,5	0,090650
25,750333	0,5	0,093200
25,758667	0,5	0,098300
25,767000	0,5	0,094950
25,775333	0,5	0,096850
25,783667	0,5	0,095550
25,792000	0,5	0,097000
25,800333	0,5	0,098200
25,808667	0,5	0,100900
25,817000	0,5	0,100150
25,825333	0,5	0,103350
25,833667	0,5	0,106900
25,842000	0,5	0,107350
25,850333	0,5	0,113950
25,858667	0,5	0,115300
25,867000	0,5	0,109800
25,875333	0,5	0,110700
25,883667	0,5	0,113450
25,892000	0,5	0,121950
25,900333	0,5	0,125750
25,908667	0,5	0,122500
25,917000	0,5	0,126800
25,925333	0,5	0,123300
25,933667	0,5	0,128800
25,942000	0,5	0,126200
25,950333	0,5	0,132100
25,958667	0,5	0,125900
25,967000	0,5	0,129650
25,975333	0,5	0,130400
25,983667	0,5	0,137500
25,992000	0,5	0,135050
26,000333	0,5	0,143650
