File Path	chrom://chromeleon01/ikbm_chromeleon/2022/ICS-5000/ED1/Esteban/20220612_Cell_7_4_eg.seq/937.smp/ED_1.channel/ED_1.chm
Channel	ED_1

Injection Information:
Data Vault	ikbm_chromeleon
Injection	7_04h-EGS_3
Injection Number	87
Position	GD4
Comment	
Processing Method	Stop sequence after Cell Death
Instrument Method	ICS5000_PA200_FullNative_Ox_26min_ED1
Type	Unknown
Status	Finished
Injection Date	14.06.2022
Injection Time	09:02:58
Injection Volume (µl)	5,0
Dilution Factor	1,0000
Weight	1,0000

Chromatogram Data Information:
Time Min. (min)	0,000167
Time Max. (min)	26,000167
Data Points	3121
Detector	EDet1
Generating Data System	Chromeleon 7.2.9.11323
Exporting Data System	Chromeleon 7.2.9.0
Operator	Instrument Controller
Signal Quantity	
Signal Unit	nC
Signal Min.	-2,578700
Signal Max.	853,304013
Channel	ED_1
Driver Name	DC-5000
Channel Type	Evaluation
Min. Step (s)	0,5
Max. Step (s)	0,5
Average Step (s)	0,5

Signal Parameter Information:
Signal Info	

Chromatogram Data:
Time (min)	Step (s)	Value (nC)
0,000167	n.a.	-0,072150
0,008500	0,5	-0,066550
0,016833	0,5	-0,054250
0,025167	0,5	-0,056150
0,033500	0,5	-0,014750
0,041833	0,5	-0,043300
0,050167	0,5	-0,049700
0,058500	0,5	-0,049700
0,066833	0,5	-0,028300
0,075167	0,5	-0,004200
0,083500	0,5	-0,020150
0,091833	0,5	-0,029550
0,100167	0,5	-0,021700
0,108500	0,5	-0,024250
0,116833	0,5	-0,015750
0,125167	0,5	-0,028100
0,133500	0,5	-0,029800
0,141833	0,5	-0,040400
0,150167	0,5	-0,041600
0,158500	0,5	-0,042200
0,166833	0,5	-0,066050
0,175167	0,5	-0,059650
0,183500	0,5	-0,041900
0,191833	0,5	-0,064750
0,200167	0,5	-0,073100
0,208500	0,5	-0,060150
0,216833	0,5	-0,050850
0,225167	0,5	-0,023750
0,233500	0,5	-0,049050
0,241833	0,5	-0,038250
0,250167	0,5	-0,049350
0,258500	0,5	-0,039950
0,266833	0,5	-0,055700
0,275167	0,5	-0,050550
0,283500	0,5	-0,046950
0,291833	0,5	-0,003550
0,300167	0,5	-0,000900
0,308500	0,5	-0,050250
0,316833	0,5	-0,101850
0,325167	0,5	-0,102050
0,333500	0,5	-0,106100
0,341833	0,5	-0,111650
0,350167	0,5	-0,114100
0,358500	0,5	-0,102050
0,366833	0,5	-0,078550
0,375167	0,5	-0,072350
0,383500	0,5	-0,080600
0,391833	0,5	-0,089900
0,400167	0,5	-0,079000
0,408500	0,5	-0,092350
0,416833	0,5	-0,086900
0,425167	0,5	-0,099650
0,433500	0,5	-0,095150
0,441833	0,5	-0,104500
0,450167	0,5	-0,102600
0,458500	0,5	-0,121450
0,466833	0,5	-0,128900
0,475167	0,5	-0,117850
0,483500	0,5	-0,127550
0,491833	0,5	-0,137850
0,500167	0,5	-0,133700
0,508500	0,5	-0,123500
0,516833	0,5	-0,097300
0,525167	0,5	-0,092250
0,533500	0,5	-0,105850
0,541833	0,5	-0,104850
0,550167	0,5	-0,110300
0,558500	0,5	-0,105200
0,566833	0,5	-0,115850
0,575167	0,5	-0,118250
0,583500	0,5	-0,127850
0,591833	0,5	-0,119600
0,600167	0,5	-0,125050
0,608500	0,5	-0,131550
0,616833	0,5	-0,137250
0,625167	0,5	-0,116050
0,633500	0,5	-0,142250
0,641833	0,5	-0,145450
0,650167	0,5	-0,145450
0,658500	0,5	-0,120700
0,666833	0,5	-0,105450
0,675167	0,5	-0,099600
0,683500	0,5	-0,106150
0,691833	0,5	-0,107800
0,700167	0,5	-0,113550
0,708500	0,5	-0,115050
0,716833	0,5	-0,112150
0,725167	0,5	-0,119500
0,733500	0,5	-0,118650
0,741833	0,5	-0,124750
0,750167	0,5	-0,131800
0,758500	0,5	-0,149200
0,766833	0,5	-0,126950
0,775167	0,5	-0,126650
0,783500	0,5	-0,138500
0,791833	0,5	-0,140850
0,800167	0,5	-0,131600
0,808500	0,5	-0,114100
0,816833	0,5	-0,096700
0,825167	0,5	-0,106400
0,833500	0,5	-0,095000
0,841833	0,5	-0,099250
0,850167	0,5	-0,096400
0,858500	0,5	-0,103550
0,866833	0,5	-0,107650
0,875167	0,5	-0,109150
0,883500	0,5	-0,110600
0,891833	0,5	-0,108350
0,900167	0,5	-0,125300
0,908500	0,5	-0,127100
0,916833	0,5	-0,096600
0,925167	0,5	-0,108950
0,933500	0,5	-0,124650
0,941833	0,5	-0,119500
0,950167	0,5	-0,121950
0,958500	0,5	-0,079750
0,966833	0,5	-0,085600
0,975167	0,5	-0,082600
0,983500	0,5	-0,093800
0,991833	0,5	-0,088300
1,000167	0,5	-0,093850
1,008500	0,5	-0,089750
1,016833	0,5	-0,097000
1,025167	0,5	-0,098300
1,033500	0,5	-0,096750
1,041833	0,5	-0,092500
1,050167	0,5	-0,098450
1,058500	0,5	-0,103750
1,066833	0,5	-0,077400
1,075167	0,5	-0,102300
1,083500	0,5	-0,108200
1,091833	0,5	-0,103200
1,100167	0,5	-0,093900
1,108500	0,5	-0,067300
1,116833	0,5	-0,074400
1,125167	0,5	-0,083800
1,133500	0,5	-0,076750
1,141833	0,5	-0,080900
1,150167	0,5	-0,075700
1,158500	0,5	-0,079450
1,166833	0,5	-0,079000
1,175167	0,5	-0,086250
1,183500	0,5	-0,079200
1,191833	0,5	-0,083000
1,200167	0,5	-0,092300
1,208500	0,5	-0,091150
1,216833	0,5	-0,061800
1,225167	0,5	-0,093250
1,233500	0,5	-0,094250
1,241833	0,5	-0,090750
1,250167	0,5	-0,072100
1,258500	0,5	-0,044500
1,266833	0,5	-0,067600
1,275167	0,5	-0,065900
1,283500	0,5	-0,061800
1,291833	0,5	-0,057700
1,300167	0,5	-0,063900
1,308500	0,5	-0,063600
1,316833	0,5	-0,069150
1,325167	0,5	-0,065650
1,333500	0,5	-0,065200
1,341833	0,5	-0,067800
1,350167	0,5	-0,085100
1,358500	0,5	-0,072700
1,366833	0,5	-0,065500
1,375167	0,5	-0,081100
1,383500	0,5	-0,081600
1,391833	0,5	-0,068500
1,400167	0,5	-0,053200
1,408500	0,5	-0,036450
1,416833	0,5	-0,045500
1,425167	0,5	-0,045000
1,433500	0,5	-0,047250
1,441833	0,5	-0,047000
1,450167	0,5	-0,045300
1,458500	0,5	-0,050200
1,466833	0,5	-0,049350
1,475167	0,5	-0,057500
1,483500	0,5	-0,052450
1,491833	0,5	-0,066250
1,500167	0,5	-0,066300
1,508500	0,5	-0,057750
1,516833	0,5	-0,063650
1,525167	0,5	-0,076400
1,533500	0,5	-0,069450
1,541833	0,5	-0,050800
1,550167	0,5	0,013200
1,558500	0,5	0,139500
1,566833	0,5	0,345450
1,575167	0,5	0,640400
1,583500	0,5	2,586950
1,591833	0,5	12,529850
1,600167	0,5	49,189201
1,608500	0,5	157,600652
1,616833	0,5	382,008456
1,625167	0,5	662,770760
1,633500	0,5	850,314513
1,641833	0,5	853,304013
1,650167	0,5	706,952361
1,658500	0,5	515,492058
1,666833	0,5	358,154355
1,675167	0,5	251,114204
1,683500	0,5	182,719703
1,691833	0,5	139,740702
1,700167	0,5	113,310502
1,708500	0,5	97,396451
1,716833	0,5	86,515901
1,725167	0,5	77,183051
1,733500	0,5	68,693101
1,741833	0,5	61,351701
1,750167	0,5	54,979151
1,758500	0,5	49,748901
1,766833	0,5	46,602751
1,775167	0,5	46,453301
1,783500	0,5	48,949151
1,791833	0,5	52,421851
1,800167	0,5	55,242251
1,808500	0,5	56,409301
1,816833	0,5	55,512951
1,825167	0,5	52,941751
1,833500	0,5	49,634201
1,841833	0,5	46,381951
1,850167	0,5	43,471101
1,858500	0,5	40,860201
1,866833	0,5	38,573151
1,875167	0,5	36,570251
1,883500	0,5	34,968001
1,891833	0,5	33,746901
1,900167	0,5	32,816400
1,908500	0,5	31,929650
1,916833	0,5	31,062500
1,925167	0,5	30,397850
1,933500	0,5	30,164250
1,941833	0,5	30,162900
1,950167	0,5	29,893300
1,958500	0,5	28,985150
1,966833	0,5	27,873250
1,975167	0,5	27,006400
1,983500	0,5	26,533550
1,991833	0,5	26,460450
2,000167	0,5	26,852400
2,008500	0,5	28,097400
2,016833	0,5	30,323000
2,025167	0,5	32,975200
2,033500	0,5	35,260701
2,041833	0,5	37,630601
2,050167	0,5	41,143701
2,058500	0,5	45,401951
2,066833	0,5	48,036301
2,075167	0,5	47,108601
2,083500	0,5	43,109751
2,091833	0,5	38,163201
2,100167	0,5	33,932251
2,108500	0,5	30,951150
2,116833	0,5	29,544450
2,125167	0,5	29,882500
2,133500	0,5	31,446600
2,141833	0,5	32,795200
2,150167	0,5	32,579300
2,158500	0,5	30,842850
2,166833	0,5	28,467550
2,175167	0,5	26,294150
2,183500	0,5	24,659950
2,191833	0,5	23,460200
2,200167	0,5	22,575150
2,208500	0,5	21,902800
2,216833	0,5	21,420050
2,225167	0,5	21,165000
2,233500	0,5	21,155300
2,241833	0,5	21,190550
2,250167	0,5	21,159700
2,258500	0,5	21,060950
2,266833	0,5	21,183500
2,275167	0,5	21,353700
2,283500	0,5	21,253650
2,291833	0,5	20,790950
2,300167	0,5	20,197250
2,308500	0,5	19,762450
2,316833	0,5	19,531150
2,325167	0,5	19,444550
2,333500	0,5	19,479850
2,341833	0,5	19,622750
2,350167	0,5	19,835300
2,358500	0,5	20,069450
2,366833	0,5	20,271900
2,375167	0,5	20,442450
2,383500	0,5	20,559450
2,391833	0,5	20,648250
2,400167	0,5	20,669900
2,408500	0,5	20,705900
2,416833	0,5	21,226100
2,425167	0,5	22,526450
2,433500	0,5	22,894400
2,441833	0,5	21,697350
2,450167	0,5	20,384000
2,458500	0,5	19,620650
2,466833	0,5	19,199100
2,475167	0,5	18,945350
2,483500	0,5	18,752550
2,491833	0,5	18,610000
2,500167	0,5	18,484650
2,508500	0,5	18,378000
2,516833	0,5	18,286900
2,525167	0,5	18,178800
2,533500	0,5	18,085000
2,541833	0,5	18,018900
2,550167	0,5	17,943950
2,558500	0,5	17,880750
2,566833	0,5	17,882850
2,575167	0,5	17,960250
2,583500	0,5	18,181100
2,591833	0,5	18,608100
2,600167	0,5	19,348200
2,608500	0,5	20,386500
2,616833	0,5	21,613750
2,625167	0,5	22,733950
2,633500	0,5	23,540000
2,641833	0,5	23,859550
2,650167	0,5	23,687850
2,658500	0,5	23,122300
2,666833	0,5	22,405950
2,675167	0,5	21,787800
2,683500	0,5	21,555550
2,691833	0,5	21,912650
2,700167	0,5	23,006500
2,708500	0,5	25,042650
2,716833	0,5	28,242900
2,725167	0,5	32,662900
2,733500	0,5	37,936301
2,741833	0,5	43,124001
2,750167	0,5	47,082351
2,758500	0,5	49,026951
2,766833	0,5	48,731951
2,775167	0,5	46,531051
2,783500	0,5	42,926851
2,791833	0,5	38,570901
2,800167	0,5	34,098951
2,808500	0,5	30,091250
2,816833	0,5	26,910400
2,825167	0,5	24,727450
2,833500	0,5	23,659900
2,841833	0,5	23,766700
2,850167	0,5	24,997000
2,858500	0,5	27,119350
2,866833	0,5	29,496050
2,875167	0,5	31,341150
2,883500	0,5	31,979750
2,891833	0,5	31,153700
2,900167	0,5	29,113000
2,908500	0,5	26,374500
2,916833	0,5	23,526350
2,925167	0,5	20,987350
2,933500	0,5	18,976750
2,941833	0,5	17,482650
2,950167	0,5	16,424350
2,958500	0,5	15,661050
2,966833	0,5	15,105600
2,975167	0,5	14,673200
2,983500	0,5	14,373000
2,991833	0,5	14,095000
3,000167	0,5	13,872050
3,008500	0,5	13,698450
3,016833	0,5	13,607700
3,025167	0,5	13,624350
3,033500	0,5	13,747450
3,041833	0,5	13,997150
3,050167	0,5	14,323900
3,058500	0,5	14,608000
3,066833	0,5	14,715300
3,075167	0,5	14,568300
3,083500	0,5	14,190600
3,091833	0,5	13,693000
3,100167	0,5	13,171350
3,108500	0,5	12,724450
3,116833	0,5	12,339050
3,125167	0,5	12,050700
3,133500	0,5	11,867450
3,141833	0,5	11,706400
3,150167	0,5	11,594800
3,158500	0,5	11,542300
3,166833	0,5	11,525850
3,175167	0,5	11,580700
3,183500	0,5	11,652400
3,191833	0,5	11,840950
3,200167	0,5	12,197250
3,208500	0,5	12,790100
3,216833	0,5	13,568100
3,225167	0,5	14,380750
3,233500	0,5	14,972400
3,241833	0,5	15,133650
3,250167	0,5	14,798750
3,258500	0,5	14,067900
3,266833	0,5	13,155200
3,275167	0,5	12,266000
3,283500	0,5	11,559350
3,291833	0,5	11,009100
3,300167	0,5	10,661550
3,308500	0,5	10,435100
3,316833	0,5	10,302350
3,325167	0,5	10,232550
3,333500	0,5	10,159900
3,341833	0,5	10,103250
3,350167	0,5	10,058550
3,358500	0,5	9,993950
3,366833	0,5	9,926600
3,375167	0,5	9,838250
3,383500	0,5	9,762400
3,391833	0,5	9,696300
3,400167	0,5	9,655250
3,408500	0,5	9,624900
3,416833	0,5	9,595250
3,425167	0,5	9,576400
3,433500	0,5	9,555100
3,441833	0,5	9,482200
3,450167	0,5	9,414600
3,458500	0,5	9,348100
3,466833	0,5	9,283050
3,475167	0,5	9,238400
3,483500	0,5	9,164800
3,491833	0,5	9,114950
3,500167	0,5	9,063100
3,508500	0,5	9,031750
3,516833	0,5	8,997000
3,525167	0,5	8,967550
3,533500	0,5	8,933150
3,541833	0,5	8,902700
3,550167	0,5	8,866300
3,558500	0,5	8,811500
3,566833	0,5	8,768900
3,575167	0,5	8,755000
3,583500	0,5	8,718950
3,591833	0,5	8,684500
3,600167	0,5	8,649200
3,608500	0,5	8,618050
3,616833	0,5	8,591050
3,625167	0,5	8,545300
3,633500	0,5	8,498450
3,641833	0,5	8,449650
3,650167	0,5	8,413550
3,658500	0,5	8,376150
3,666833	0,5	8,350950
3,675167	0,5	8,319600
3,683500	0,5	8,295100
3,691833	0,5	8,264850
3,700167	0,5	8,244350
3,708500	0,5	8,200650
3,716833	0,5	8,174700
3,725167	0,5	8,156950
3,733500	0,5	8,119300
3,741833	0,5	8,081350
3,750167	0,5	8,067550
3,758500	0,5	8,056800
3,766833	0,5	8,063000
3,775167	0,5	8,048050
3,783500	0,5	8,031350
3,791833	0,5	8,009350
3,800167	0,5	7,985000
3,808500	0,5	7,959850
3,816833	0,5	7,930300
3,825167	0,5	7,909550
3,833500	0,5	7,880200
3,841833	0,5	7,874400
3,850167	0,5	7,847850
3,858500	0,5	7,824000
3,866833	0,5	7,814450
3,875167	0,5	7,801250
3,883500	0,5	7,758050
3,891833	0,5	7,722850
3,900167	0,5	7,695200
3,908500	0,5	7,686350
3,916833	0,5	7,664000
3,925167	0,5	7,628850
3,933500	0,5	7,591800
3,941833	0,5	7,570300
3,950167	0,5	7,540350
3,958500	0,5	7,515150
3,966833	0,5	7,485400
3,975167	0,5	7,458300
3,983500	0,5	7,439150
3,991833	0,5	7,413450
4,000167	0,5	7,401850
4,008500	0,5	7,370100
4,016833	0,5	7,372950
4,025167	0,5	7,348950
4,033500	0,5	7,324450
4,041833	0,5	7,308200
4,050167	0,5	7,299950
4,058500	0,5	7,303600
4,066833	0,5	7,296850
4,075167	0,5	7,271200
4,083500	0,5	7,267800
4,091833	0,5	7,249700
4,100167	0,5	7,243500
4,108500	0,5	7,226150
4,116833	0,5	7,216750
4,125167	0,5	7,205550
4,133500	0,5	7,194850
4,141833	0,5	7,191950
4,150167	0,5	7,175650
4,158500	0,5	7,152500
4,166833	0,5	7,167650
4,175167	0,5	7,150350
4,183500	0,5	7,149050
4,191833	0,5	7,165600
4,200167	0,5	7,200600
4,208500	0,5	7,275600
4,216833	0,5	7,331500
4,225167	0,5	7,429950
4,233500	0,5	7,543800
4,241833	0,5	7,691500
4,250167	0,5	7,839050
4,258500	0,5	7,993800
4,266833	0,5	8,116600
4,275167	0,5	8,213300
4,283500	0,5	8,255900
4,291833	0,5	8,254400
4,300167	0,5	8,205950
4,308500	0,5	8,126650
4,316833	0,5	8,049650
4,325167	0,5	7,936700
4,333500	0,5	7,860100
4,341833	0,5	7,802000
4,350167	0,5	7,785650
4,358500	0,5	7,788600
4,366833	0,5	7,777550
4,375167	0,5	7,751350
4,383500	0,5	7,718550
4,391833	0,5	7,657750
4,400167	0,5	7,581800
4,408500	0,5	7,479650
4,416833	0,5	7,373950
4,425167	0,5	7,258650
4,433500	0,5	7,168800
4,441833	0,5	7,085100
4,450167	0,5	7,020750
4,458500	0,5	6,958400
4,466833	0,5	6,923850
4,475167	0,5	6,864550
4,483500	0,5	6,841750
4,491833	0,5	6,819300
4,500167	0,5	6,812350
4,508500	0,5	6,820400
4,516833	0,5	6,809700
4,525167	0,5	6,801450
4,533500	0,5	6,795950
4,541833	0,5	6,793700
4,550167	0,5	6,785650
4,558500	0,5	6,785150
4,566833	0,5	6,768950
4,575167	0,5	6,759350
4,583500	0,5	6,749450
4,591833	0,5	6,739250
4,600167	0,5	6,724950
4,608500	0,5	6,738800
4,616833	0,5	6,727450
4,625167	0,5	6,718350
4,633500	0,5	6,729900
4,641833	0,5	6,749350
4,650167	0,5	6,784600
4,658500	0,5	6,818550
4,666833	0,5	6,846650
4,675167	0,5	6,884950
4,683500	0,5	6,915450
4,691833	0,5	6,938300
4,700167	0,5	6,946450
4,708500	0,5	6,941050
4,716833	0,5	6,921050
4,725167	0,5	6,881900
4,733500	0,5	6,844250
4,741833	0,5	6,782100
4,750167	0,5	6,739600
4,758500	0,5	6,713100
4,766833	0,5	6,664750
4,775167	0,5	6,620600
4,783500	0,5	6,598850
4,791833	0,5	6,581450
4,800167	0,5	6,592550
4,808500	0,5	6,580600
4,816833	0,5	6,577100
4,825167	0,5	6,568950
4,833500	0,5	6,572650
4,841833	0,5	6,570450
4,850167	0,5	6,570700
4,858500	0,5	6,567450
4,866833	0,5	6,565850
4,875167	0,5	6,564400
4,883500	0,5	6,554350
4,891833	0,5	6,541400
4,900167	0,5	6,536950
4,908500	0,5	6,529300
4,916833	0,5	6,502350
4,925167	0,5	6,479500
4,933500	0,5	6,460350
4,941833	0,5	6,449900
4,950167	0,5	6,427700
4,958500	0,5	6,388050
4,966833	0,5	6,340050
4,975167	0,5	6,303750
4,983500	0,5	6,256850
4,991833	0,5	6,223900
5,000167	0,5	6,180550
5,008500	0,5	6,151450
5,016833	0,5	6,123800
5,025167	0,5	6,102400
5,033500	0,5	6,096700
5,041833	0,5	6,077400
5,050167	0,5	6,079300
5,058500	0,5	6,067700
5,066833	0,5	6,052700
5,075167	0,5	6,043700
5,083500	0,5	6,042500
5,091833	0,5	6,049400
5,100167	0,5	6,046350
5,108500	0,5	6,025800
5,116833	0,5	6,018600
5,125167	0,5	5,999650
5,133500	0,5	5,989550
5,141833	0,5	5,963900
5,150167	0,5	5,951350
5,158500	0,5	5,930100
5,166833	0,5	5,919350
5,175167	0,5	5,907650
5,183500	0,5	5,896650
5,191833	0,5	5,865000
5,200167	0,5	5,875900
5,208500	0,5	5,842700
5,216833	0,5	5,828500
5,225167	0,5	5,809100
5,233500	0,5	5,802600
5,241833	0,5	5,804400
5,250167	0,5	5,787850
5,258500	0,5	5,772750
5,266833	0,5	5,751400
5,275167	0,5	5,737450
5,283500	0,5	5,723400
5,291833	0,5	5,712950
5,300167	0,5	5,698350
5,308500	0,5	5,689950
5,316833	0,5	5,677800
5,325167	0,5	5,673900
5,333500	0,5	5,656900
5,341833	0,5	5,646750
5,350167	0,5	5,653600
5,358500	0,5	5,639000
5,366833	0,5	5,636500
5,375167	0,5	5,638650
5,383500	0,5	5,650450
5,391833	0,5	5,668050
5,400167	0,5	5,669800
5,408500	0,5	5,664450
5,416833	0,5	5,655400
5,425167	0,5	5,644900
5,433500	0,5	5,625350
5,441833	0,5	5,598600
5,450167	0,5	5,571650
5,458500	0,5	5,542050
5,466833	0,5	5,520200
5,475167	0,5	5,498500
5,483500	0,5	5,485000
5,491833	0,5	5,473050
5,500167	0,5	5,469000
5,508500	0,5	5,440100
5,516833	0,5	5,431600
5,525167	0,5	5,425450
5,533500	0,5	5,428300
5,541833	0,5	5,422300
5,550167	0,5	5,405650
5,558500	0,5	5,385300
5,566833	0,5	5,365050
5,575167	0,5	5,340200
5,583500	0,5	5,311350
5,591833	0,5	5,289600
5,600167	0,5	5,265850
5,608500	0,5	5,244700
5,616833	0,5	5,222900
5,625167	0,5	5,198850
5,633500	0,5	5,175750
5,641833	0,5	5,171150
5,650167	0,5	5,153100
5,658500	0,5	5,130850
5,666833	0,5	5,117050
5,675167	0,5	5,107850
5,683500	0,5	5,107850
5,691833	0,5	5,098900
5,700167	0,5	5,078200
5,708500	0,5	5,067300
5,716833	0,5	5,051700
5,725167	0,5	5,043900
5,733500	0,5	5,033900
5,741833	0,5	5,034400
5,750167	0,5	5,039300
5,758500	0,5	5,063150
5,766833	0,5	5,105950
5,775167	0,5	5,151500
5,783500	0,5	5,217700
5,791833	0,5	5,299850
5,800167	0,5	5,348250
5,808500	0,5	5,370900
5,816833	0,5	5,378150
5,825167	0,5	5,354350
5,833500	0,5	5,324200
5,841833	0,5	5,271850
5,850167	0,5	5,225900
5,858500	0,5	5,191800
5,866833	0,5	5,189550
5,875167	0,5	5,211500
5,883500	0,5	5,278700
5,891833	0,5	5,384750
5,900167	0,5	5,556000
5,908500	0,5	5,796200
5,916833	0,5	6,105050
5,925167	0,5	6,468300
5,933500	0,5	6,882800
5,941833	0,5	7,307450
5,950167	0,5	7,679400
5,958500	0,5	7,960200
5,966833	0,5	8,127650
5,975167	0,5	8,154100
5,983500	0,5	8,035550
5,991833	0,5	7,780350
6,000167	0,5	7,432050
6,008500	0,5	7,043850
6,016833	0,5	6,639900
6,025167	0,5	6,258850
6,033500	0,5	5,910350
6,041833	0,5	5,617050
6,050167	0,5	5,369750
6,058500	0,5	5,174100
6,066833	0,5	5,020200
6,075167	0,5	4,896050
6,083500	0,5	4,806000
6,091833	0,5	4,738750
6,100167	0,5	4,671000
6,108500	0,5	4,618450
6,116833	0,5	4,583700
6,125167	0,5	4,559700
6,133500	0,5	4,535000
6,141833	0,5	4,505600
6,150167	0,5	4,480350
6,158500	0,5	4,458850
6,166833	0,5	4,440000
6,175167	0,5	4,417750
6,183500	0,5	4,398850
6,191833	0,5	4,376650
6,200167	0,5	4,363450
6,208500	0,5	4,347700
6,216833	0,5	4,336300
6,225167	0,5	4,314150
6,233500	0,5	4,312000
6,241833	0,5	4,294400
6,250167	0,5	4,281250
6,258500	0,5	4,268150
6,266833	0,5	4,265300
6,275167	0,5	4,269450
6,283500	0,5	4,268300
6,291833	0,5	4,260400
6,300167	0,5	4,261350
6,308500	0,5	4,252150
6,316833	0,5	4,246700
6,325167	0,5	4,244100
6,333500	0,5	4,236250
6,341833	0,5	4,234000
6,350167	0,5	4,227250
6,358500	0,5	4,220450
6,366833	0,5	4,203850
6,375167	0,5	4,193000
6,383500	0,5	4,188600
6,391833	0,5	4,172050
6,400167	0,5	4,157100
6,408500	0,5	4,147050
6,416833	0,5	4,144350
6,425167	0,5	4,149550
6,433500	0,5	4,137450
6,441833	0,5	4,132100
6,450167	0,5	4,122250
6,458500	0,5	4,117700
6,466833	0,5	4,108450
6,475167	0,5	4,104500
6,483500	0,5	4,100450
6,491833	0,5	4,096200
6,500167	0,5	4,092350
6,508500	0,5	4,086500
6,516833	0,5	4,075200
6,525167	0,5	4,073700
6,533500	0,5	4,071050
6,541833	0,5	4,051350
6,550167	0,5	4,043300
6,558500	0,5	4,033450
6,566833	0,5	4,034650
6,575167	0,5	4,035900
6,583500	0,5	4,032450
6,591833	0,5	4,017950
6,600167	0,5	4,013900
6,608500	0,5	4,002100
6,616833	0,5	3,994550
6,625167	0,5	3,983600
6,633500	0,5	3,979100
6,641833	0,5	3,968050
6,650167	0,5	3,963800
6,658500	0,5	3,953450
6,666833	0,5	3,947150
6,675167	0,5	3,947800
6,683500	0,5	3,940200
6,691833	0,5	3,926350
6,700167	0,5	3,922900
6,708500	0,5	3,919800
6,716833	0,5	3,929650
6,725167	0,5	3,935200
6,733500	0,5	3,931050
6,741833	0,5	3,936250
6,750167	0,5	3,938900
6,758500	0,5	3,949850
6,766833	0,5	3,957050
6,775167	0,5	3,965400
6,783500	0,5	3,967250
6,791833	0,5	3,968150
6,800167	0,5	3,965800
6,808500	0,5	3,955950
6,816833	0,5	3,946650
6,825167	0,5	3,950200
6,833500	0,5	3,935750
6,841833	0,5	3,930650
6,850167	0,5	3,936150
6,858500	0,5	3,957550
6,866833	0,5	3,998300
6,875167	0,5	4,031750
6,883500	0,5	4,067950
6,891833	0,5	4,094250
6,900167	0,5	4,106450
6,908500	0,5	4,095400
6,916833	0,5	4,071800
6,925167	0,5	4,029650
6,933500	0,5	3,990550
6,941833	0,5	3,959300
6,950167	0,5	3,936200
6,958500	0,5	3,919550
6,966833	0,5	3,920650
6,975167	0,5	3,948500
6,983500	0,5	3,973800
6,991833	0,5	4,012200
7,000167	0,5	4,073550
7,008500	0,5	4,149200
7,016833	0,5	4,246950
7,025167	0,5	4,342600
7,033500	0,5	4,454600
7,041833	0,5	4,570300
7,050167	0,5	4,687100
7,058500	0,5	4,795750
7,066833	0,5	4,883500
7,075167	0,5	4,945200
7,083500	0,5	4,968900
7,091833	0,5	4,963500
7,100167	0,5	4,914100
7,108500	0,5	4,831150
7,116833	0,5	4,733450
7,125167	0,5	4,621500
7,133500	0,5	4,489150
7,141833	0,5	4,364850
7,150167	0,5	4,250150
7,158500	0,5	4,163100
7,166833	0,5	4,082200
7,175167	0,5	4,017600
7,183500	0,5	3,974350
7,191833	0,5	3,954150
7,200167	0,5	3,939700
7,208500	0,5	3,938800
7,216833	0,5	3,933850
7,225167	0,5	3,922500
7,233500	0,5	3,903000
7,241833	0,5	3,876050
7,250167	0,5	3,846350
7,258500	0,5	3,798850
7,266833	0,5	3,766000
7,275167	0,5	3,729500
7,283500	0,5	3,694850
7,291833	0,5	3,662900
7,300167	0,5	3,645350
7,308500	0,5	3,634300
7,316833	0,5	3,625150
7,325167	0,5	3,610350
7,333500	0,5	3,608300
7,341833	0,5	3,601200
7,350167	0,5	3,605050
7,358500	0,5	3,609550
7,366833	0,5	3,619000
7,375167	0,5	3,637150
7,383500	0,5	3,660250
7,391833	0,5	3,695100
7,400167	0,5	3,733700
7,408500	0,5	3,782400
7,416833	0,5	3,861750
7,425167	0,5	3,959500
7,433500	0,5	4,099850
7,441833	0,5	4,284850
7,450167	0,5	4,512450
7,458500	0,5	4,746750
7,466833	0,5	4,925600
7,475167	0,5	5,026050
7,483500	0,5	4,996450
7,491833	0,5	4,855100
7,500167	0,5	4,624350
7,508500	0,5	4,362650
7,516833	0,5	4,104900
7,525167	0,5	3,892950
7,533500	0,5	3,734150
7,541833	0,5	3,624750
7,550167	0,5	3,549100
7,558500	0,5	3,508650
7,566833	0,5	3,478900
7,575167	0,5	3,455350
7,583500	0,5	3,450750
7,591833	0,5	3,468950
7,600167	0,5	3,512600
7,608500	0,5	3,563600
7,616833	0,5	3,604550
7,625167	0,5	3,605050
7,633500	0,5	3,572550
7,641833	0,5	3,510200
7,650167	0,5	3,437650
7,658500	0,5	3,377600
7,666833	0,5	3,329850
7,675167	0,5	3,299500
7,683500	0,5	3,278800
7,691833	0,5	3,264000
7,700167	0,5	3,252700
7,708500	0,5	3,246700
7,716833	0,5	3,240750
7,725167	0,5	3,227850
7,733500	0,5	3,218300
7,741833	0,5	3,212900
7,750167	0,5	3,207950
7,758500	0,5	3,203650
7,766833	0,5	3,192500
7,775167	0,5	3,180700
7,783500	0,5	3,171000
7,791833	0,5	3,160450
7,800167	0,5	3,150950
7,808500	0,5	3,143100
7,816833	0,5	3,136300
7,825167	0,5	3,136750
7,833500	0,5	3,137150
7,841833	0,5	3,143750
7,850167	0,5	3,148650
7,858500	0,5	3,158950
7,866833	0,5	3,150050
7,875167	0,5	3,140200
7,883500	0,5	3,119150
7,891833	0,5	3,104400
7,900167	0,5	3,091450
7,908500	0,5	3,075550
7,916833	0,5	3,062000
7,925167	0,5	3,053900
7,933500	0,5	3,050300
7,941833	0,5	3,047750
7,950167	0,5	3,043950
7,958500	0,5	3,039150
7,966833	0,5	3,039250
7,975167	0,5	3,040350
7,983500	0,5	3,045100
7,991833	0,5	3,045100
8,000167	0,5	3,057450
8,008500	0,5	3,067250
8,016833	0,5	3,080750
8,025167	0,5	3,103700
8,033500	0,5	3,140850
8,041833	0,5	3,201350
8,050167	0,5	3,273550
8,058500	0,5	3,318750
8,066833	0,5	3,329700
8,075167	0,5	3,287150
8,083500	0,5	3,217700
8,091833	0,5	3,139250
8,100167	0,5	3,071500
8,108500	0,5	3,025050
8,116833	0,5	2,992500
8,125167	0,5	2,970500
8,133500	0,5	2,957000
8,141833	0,5	2,940200
8,150167	0,5	2,934750
8,158500	0,5	2,923850
8,166833	0,5	2,911250
8,175167	0,5	2,908300
8,183500	0,5	2,901550
8,191833	0,5	2,902600
8,200167	0,5	2,900800
8,208500	0,5	2,897400
8,216833	0,5	2,893550
8,225167	0,5	2,891150
8,233500	0,5	2,890100
8,241833	0,5	2,888350
8,250167	0,5	2,884750
8,258500	0,5	2,882350
8,266833	0,5	2,880150
8,275167	0,5	2,874550
8,283500	0,5	2,872050
8,291833	0,5	2,861300
8,300167	0,5	2,854550
8,308500	0,5	2,852200
8,316833	0,5	2,850900
8,325167	0,5	2,854650
8,333500	0,5	2,854700
8,341833	0,5	2,856100
8,350167	0,5	2,855600
8,358500	0,5	2,847000
8,366833	0,5	2,839650
8,375167	0,5	2,830750
8,383500	0,5	2,829200
8,391833	0,5	2,827600
8,400167	0,5	2,826950
8,408500	0,5	2,824100
8,416833	0,5	2,832250
8,425167	0,5	2,852350
8,433500	0,5	2,898950
8,441833	0,5	2,968950
8,450167	0,5	3,067650
8,458500	0,5	3,148800
8,466833	0,5	3,187450
8,475167	0,5	3,171850
8,483500	0,5	3,119150
8,491833	0,5	3,053400
8,500167	0,5	3,000550
8,508500	0,5	2,975400
8,516833	0,5	2,971800
8,525167	0,5	2,980850
8,533500	0,5	2,990900
8,541833	0,5	2,991250
8,550167	0,5	2,992500
8,558500	0,5	2,994150
8,566833	0,5	3,002950
8,575167	0,5	3,025950
8,583500	0,5	3,074300
8,591833	0,5	3,157900
8,600167	0,5	3,292250
8,608500	0,5	3,493850
8,616833	0,5	3,770850
8,625167	0,5	4,110850
8,633500	0,5	4,455050
8,641833	0,5	4,725750
8,650167	0,5	4,846550
8,658500	0,5	4,788450
8,666833	0,5	4,577400
8,675167	0,5	4,268450
8,683500	0,5	3,942450
8,691833	0,5	3,651400
8,700167	0,5	3,417700
8,708500	0,5	3,249000
8,716833	0,5	3,130350
8,725167	0,5	3,045600
8,733500	0,5	2,985250
8,741833	0,5	2,944100
8,750167	0,5	2,916200
8,758500	0,5	2,900300
8,766833	0,5	2,909900
8,775167	0,5	2,936650
8,783500	0,5	3,000950
8,791833	0,5	3,079650
8,800167	0,5	3,156900
8,808500	0,5	3,193950
8,816833	0,5	3,183900
8,825167	0,5	3,129800
8,833500	0,5	3,064850
8,841833	0,5	3,003050
8,850167	0,5	2,959050
8,858500	0,5	2,926600
8,866833	0,5	2,906350
8,875167	0,5	2,890250
8,883500	0,5	2,883250
8,891833	0,5	2,894450
8,900167	0,5	2,908950
8,908500	0,5	2,933000
8,916833	0,5	2,958250
8,925167	0,5	2,991500
8,933500	0,5	3,033800
8,941833	0,5	3,084950
8,950167	0,5	3,162150
8,958500	0,5	3,281150
8,966833	0,5	3,479050
8,975167	0,5	3,814900
8,983500	0,5	4,385350
8,991833	0,5	5,230100
9,000167	0,5	6,205200
9,008500	0,5	7,017650
9,016833	0,5	7,377150
9,025167	0,5	7,225100
9,033500	0,5	6,703500
9,041833	0,5	6,024800
9,050167	0,5	5,330000
9,058500	0,5	4,725550
9,066833	0,5	4,248150
9,075167	0,5	3,905850
9,083500	0,5	3,690350
9,091833	0,5	3,583050
9,100167	0,5	3,564250
9,108500	0,5	3,612300
9,116833	0,5	3,684400
9,125167	0,5	3,744350
9,133500	0,5	3,769300
9,141833	0,5	3,753800
9,150167	0,5	3,704600
9,158500	0,5	3,622200
9,166833	0,5	3,526200
9,175167	0,5	3,421500
9,183500	0,5	3,314600
9,191833	0,5	3,220050
9,200167	0,5	3,138300
9,208500	0,5	3,070650
9,216833	0,5	3,016850
9,225167	0,5	2,978500
9,233500	0,5	2,954850
9,241833	0,5	2,934150
9,250167	0,5	2,920650
9,258500	0,5	2,920250
9,266833	0,5	2,929650
9,275167	0,5	2,949800
9,283500	0,5	2,977150
9,291833	0,5	3,005350
9,300167	0,5	3,025250
9,308500	0,5	3,031050
9,316833	0,5	3,018450
9,325167	0,5	2,992900
9,333500	0,5	2,959200
9,341833	0,5	2,924350
9,350167	0,5	2,894150
9,358500	0,5	2,877650
9,366833	0,5	2,877750
9,375167	0,5	2,905200
9,383500	0,5	2,941550
9,391833	0,5	2,981700
9,400167	0,5	3,000650
9,408500	0,5	3,000450
9,416833	0,5	2,975400
9,425167	0,5	2,940150
9,433500	0,5	2,908900
9,441833	0,5	2,893450
9,450167	0,5	2,886100
9,458500	0,5	2,886350
9,466833	0,5	2,887250
9,475167	0,5	2,886550
9,483500	0,5	2,883350
9,491833	0,5	2,882200
9,500167	0,5	2,886450
9,508500	0,5	2,900850
9,516833	0,5	2,932850
9,525167	0,5	2,971350
9,533500	0,5	3,013650
9,541833	0,5	3,052700
9,550167	0,5	3,079650
9,558500	0,5	3,105700
9,566833	0,5	3,135100
9,575167	0,5	3,186750
9,583500	0,5	3,262650
9,591833	0,5	3,371350
9,600167	0,5	3,518550
9,608500	0,5	3,702700
9,616833	0,5	3,931700
9,625167	0,5	4,203300
9,633500	0,5	4,516050
9,641833	0,5	4,851000
9,650167	0,5	5,193650
9,658500	0,5	5,543650
9,666833	0,5	5,885800
9,675167	0,5	6,241450
9,683500	0,5	6,599350
9,691833	0,5	6,948800
9,700167	0,5	7,265150
9,708500	0,5	7,525400
9,716833	0,5	7,683450
9,725167	0,5	7,712400
9,733500	0,5	7,576750
9,741833	0,5	7,250750
9,750167	0,5	6,737450
9,758500	0,5	6,087350
9,766833	0,5	5,373800
9,775167	0,5	4,694300
9,783500	0,5	4,118000
9,791833	0,5	3,668800
9,800167	0,5	3,342900
9,808500	0,5	3,122650
9,816833	0,5	2,980200
9,825167	0,5	2,887650
9,833500	0,5	2,826900
9,841833	0,5	2,791600
9,850167	0,5	2,768550
9,858500	0,5	2,765200
9,866833	0,5	2,773700
9,875167	0,5	2,790350
9,883500	0,5	2,803600
9,891833	0,5	2,819350
9,900167	0,5	2,827200
9,908500	0,5	2,831500
9,916833	0,5	2,829550
9,925167	0,5	2,822900
9,933500	0,5	2,811650
9,941833	0,5	2,784550
9,950167	0,5	2,754600
9,958500	0,5	2,716050
9,966833	0,5	2,682800
9,975167	0,5	2,662300
9,983500	0,5	2,649250
9,991833	0,5	2,657200
10,000167	0,5	2,683200
10,008500	0,5	2,733050
10,016833	0,5	2,804800
10,025167	0,5	2,871150
10,033500	0,5	2,923900
10,041833	0,5	2,951600
10,050167	0,5	2,944050
10,058500	0,5	2,903550
10,066833	0,5	2,846250
10,075167	0,5	2,784450
10,083500	0,5	2,735300
10,091833	0,5	2,688650
10,100167	0,5	2,650500
10,108500	0,5	2,612650
10,116833	0,5	2,578150
10,125167	0,5	2,548350
10,133500	0,5	2,525000
10,141833	0,5	2,504500
10,150167	0,5	2,488850
10,158500	0,5	2,480450
10,166833	0,5	2,475000
10,175167	0,5	2,474100
10,183500	0,5	2,473600
10,191833	0,5	2,478900
10,200167	0,5	2,477400
10,208500	0,5	2,483100
10,216833	0,5	2,485900
10,225167	0,5	2,490150
10,233500	0,5	2,496750
10,241833	0,5	2,497450
10,250167	0,5	2,496850
10,258500	0,5	2,486450
10,266833	0,5	2,473250
10,275167	0,5	2,455000
10,283500	0,5	2,441550
10,291833	0,5	2,438450
10,300167	0,5	2,455750
10,308500	0,5	2,494900
10,316833	0,5	2,550700
10,325167	0,5	2,608350
10,333500	0,5	2,653500
10,341833	0,5	2,672500
10,350167	0,5	2,661000
10,358500	0,5	2,616850
10,366833	0,5	2,559100
10,375167	0,5	2,500950
10,383500	0,5	2,443600
10,391833	0,5	2,393000
10,400167	0,5	2,353800
10,408500	0,5	2,314400
10,416833	0,5	2,290400
10,425167	0,5	2,267050
10,433500	0,5	2,253450
10,441833	0,5	2,241600
10,450167	0,5	2,238150
10,458500	0,5	2,238300
10,466833	0,5	2,243900
10,475167	0,5	2,248000
10,483500	0,5	2,257050
10,491833	0,5	2,270850
10,500167	0,5	2,283550
10,508500	0,5	2,299150
10,516833	0,5	2,315400
10,525167	0,5	2,322050
10,533500	0,5	2,319900
10,541833	0,5	2,308350
10,550167	0,5	2,295250
10,558500	0,5	2,292900
10,566833	0,5	2,309250
10,575167	0,5	2,346950
10,583500	0,5	2,397950
10,591833	0,5	2,450250
10,600167	0,5	2,486300
10,608500	0,5	2,503650
10,616833	0,5	2,495450
10,625167	0,5	2,457950
10,633500	0,5	2,395400
10,641833	0,5	2,318900
10,650167	0,5	2,226150
10,658500	0,5	2,129050
10,666833	0,5	2,036350
10,675167	0,5	1,950250
10,683500	0,5	1,881650
10,691833	0,5	1,834800
10,700167	0,5	1,807700
10,708500	0,5	1,800700
10,716833	0,5	1,815800
10,725167	0,5	1,835900
10,733500	0,5	1,861500
10,741833	0,5	1,900800
10,750167	0,5	1,941200
10,758500	0,5	1,978600
10,766833	0,5	2,012100
10,775167	0,5	2,033900
10,783500	0,5	2,051050
10,791833	0,5	2,065850
10,800167	0,5	2,089200
10,808500	0,5	2,116800
10,816833	0,5	2,157550
10,825167	0,5	2,196850
10,833500	0,5	2,222450
10,841833	0,5	2,233900
10,850167	0,5	2,220800
10,858500	0,5	2,198800
10,866833	0,5	2,157300
10,875167	0,5	2,110950
10,883500	0,5	2,053550
10,891833	0,5	1,999750
10,900167	0,5	1,947850
10,908500	0,5	1,904050
10,916833	0,5	1,874800
10,925167	0,5	1,851200
10,933500	0,5	1,840950
10,941833	0,5	1,837850
10,950167	0,5	1,840850
10,958500	0,5	1,849600
10,966833	0,5	1,870450
10,975167	0,5	1,900850
10,983500	0,5	1,928200
10,991833	0,5	1,959300
11,000167	0,5	1,995600
11,008500	0,5	2,039850
11,016833	0,5	2,087200
11,025167	0,5	2,132000
11,033500	0,5	2,169450
11,041833	0,5	2,190500
11,050167	0,5	2,193000
11,058500	0,5	2,179050
11,066833	0,5	2,154500
11,075167	0,5	2,115850
11,083500	0,5	2,115450
11,091833	0,5	2,034900
11,100167	0,5	1,992050
11,108500	0,5	1,948850
11,116833	0,5	1,919500
11,125167	0,5	1,888400
11,133500	0,5	1,865200
11,141833	0,5	1,852450
11,150167	0,5	1,842900
11,158500	0,5	1,852400
11,166833	0,5	1,863900
11,175167	0,5	1,892900
11,183500	0,5	1,938250
11,191833	0,5	1,997150
11,200167	0,5	2,061800
11,208500	0,5	2,126100
11,216833	0,5	2,176700
11,225167	0,5	2,201550
11,233500	0,5	2,205450
11,241833	0,5	2,186050
11,250167	0,5	2,143650
11,258500	0,5	2,104700
11,266833	0,5	2,071350
11,275167	0,5	2,039450
11,283500	0,5	2,010850
11,291833	0,5	1,993500
11,300167	0,5	1,993850
11,308500	0,5	2,023900
11,316833	0,5	2,093000
11,325167	0,5	2,220050
11,333500	0,5	2,429600
11,341833	0,5	2,722000
11,350167	0,5	3,105800
11,358500	0,5	3,539300
11,366833	0,5	3,968650
11,375167	0,5	4,321500
11,383500	0,5	4,542650
11,391833	0,5	4,594150
11,400167	0,5	4,490250
11,408500	0,5	4,263100
11,416833	0,5	3,959000
11,425167	0,5	3,618450
11,433500	0,5	3,284250
11,441833	0,5	2,974250
11,450167	0,5	2,714800
11,458500	0,5	2,512500
11,466833	0,5	2,364150
11,475167	0,5	2,265150
11,483500	0,5	2,215050
11,491833	0,5	2,205700
11,500167	0,5	2,233800
11,508500	0,5	2,277800
11,516833	0,5	2,331350
11,525167	0,5	2,390300
11,533500	0,5	2,426700
11,541833	0,5	2,433600
11,550167	0,5	2,406450
11,558500	0,5	2,359800
11,566833	0,5	2,286950
11,575167	0,5	2,209550
11,583500	0,5	2,124350
11,591833	0,5	2,051200
11,600167	0,5	1,983050
11,608500	0,5	1,925600
11,616833	0,5	1,878600
11,625167	0,5	1,844950
11,633500	0,5	1,822850
11,641833	0,5	1,821050
11,650167	0,5	1,826450
11,658500	0,5	1,849350
11,666833	0,5	1,875000
11,675167	0,5	1,902500
11,683500	0,5	1,933750
11,691833	0,5	1,963050
11,700167	0,5	2,007850
11,708500	0,5	2,068550
11,716833	0,5	2,135600
11,725167	0,5	2,203500
11,733500	0,5	2,264600
11,741833	0,5	2,315200
11,750167	0,5	2,344050
11,758500	0,5	2,338750
11,766833	0,5	2,307250
11,775167	0,5	2,250150
11,783500	0,5	2,182000
11,791833	0,5	2,102450
11,800167	0,5	2,024800
11,808500	0,5	1,945350
11,816833	0,5	1,877700
11,825167	0,5	1,818800
11,833500	0,5	1,769400
11,841833	0,5	1,721050
11,850167	0,5	1,694800
11,858500	0,5	1,671350
11,866833	0,5	1,654650
11,875167	0,5	1,644500
11,883500	0,5	1,637300
11,891833	0,5	1,643550
11,900167	0,5	1,650350
11,908500	0,5	1,651700
11,916833	0,5	1,647350
11,925167	0,5	1,645600
11,933500	0,5	1,637800
11,941833	0,5	1,636650
11,950167	0,5	1,633900
11,958500	0,5	1,636350
11,966833	0,5	1,636950
11,975167	0,5	1,646000
11,983500	0,5	1,648750
11,991833	0,5	1,654050
12,000167	0,5	1,664650
12,008500	0,5	1,664250
12,016833	0,5	1,661050
12,025167	0,5	1,657600
12,033500	0,5	1,642900
12,041833	0,5	1,630200
12,050167	0,5	1,621650
12,058500	0,5	1,604850
12,066833	0,5	1,596500
12,075167	0,5	1,590350
12,083500	0,5	1,586400
12,091833	0,5	1,588050
12,100167	0,5	1,587750
12,108500	0,5	1,586600
12,116833	0,5	1,591300
12,125167	0,5	1,592750
12,133500	0,5	1,591150
12,141833	0,5	1,585850
12,150167	0,5	1,587850
12,158500	0,5	1,583950
12,166833	0,5	1,582650
12,175167	0,5	1,575700
12,183500	0,5	1,576400
12,191833	0,5	1,585200
12,200167	0,5	1,587000
12,208500	0,5	1,590150
12,216833	0,5	1,593700
12,225167	0,5	1,591100
12,233500	0,5	1,587750
12,241833	0,5	1,589450
12,250167	0,5	1,590850
12,258500	0,5	1,594900
12,266833	0,5	1,604100
12,275167	0,5	1,620500
12,283500	0,5	1,624900
12,291833	0,5	1,635950
12,300167	0,5	1,647250
12,308500	0,5	1,654750
12,316833	0,5	1,662600
12,325167	0,5	1,676350
12,333500	0,5	1,697500
12,341833	0,5	1,720150
12,350167	0,5	1,737550
12,358500	0,5	1,763250
12,366833	0,5	1,812800
12,375167	0,5	1,874100
12,383500	0,5	1,957000
12,391833	0,5	2,042800
12,400167	0,5	2,123450
12,408500	0,5	2,087950
12,416833	0,5	1,999700
12,425167	0,5	1,841200
12,433500	0,5	1,590200
12,441833	0,5	1,262550
12,450167	0,5	0,922050
12,458500	0,5	0,609650
12,466833	0,5	0,396450
12,475167	0,5	0,246350
12,483500	0,5	0,147750
12,491833	0,5	0,072500
12,500167	0,5	0,022600
12,508500	0,5	-0,022550
12,516833	0,5	-0,055900
12,525167	0,5	-0,085300
12,533500	0,5	-0,105450
12,541833	0,5	-0,123450
12,550167	0,5	-0,136550
12,558500	0,5	-0,145850
12,566833	0,5	-0,152250
12,575167	0,5	-0,160350
12,583500	0,5	-0,169150
12,591833	0,5	-0,170400
12,600167	0,5	-0,186200
12,608500	0,5	-0,198600
12,616833	0,5	-0,221150
12,625167	0,5	-0,241650
12,633500	0,5	-0,255650
12,641833	0,5	-0,266350
12,650167	0,5	-0,279650
12,658500	0,5	-0,289850
12,666833	0,5	-0,300600
12,675167	0,5	-0,302000
12,683500	0,5	-0,303550
12,691833	0,5	-0,301000
12,700167	0,5	-0,301750
12,708500	0,5	-0,295950
12,716833	0,5	-0,290200
12,725167	0,5	-0,294550
12,733500	0,5	-0,287000
12,741833	0,5	-0,286500
12,750167	0,5	-0,290550
12,758500	0,5	-0,296300
12,766833	0,5	-0,311700
12,775167	0,5	-0,319800
12,783500	0,5	-0,328150
12,791833	0,5	-0,342850
12,800167	0,5	-0,346350
12,808500	0,5	-0,357950
12,816833	0,5	-0,360700
12,825167	0,5	-0,364850
12,833500	0,5	-0,364050
12,841833	0,5	-0,369950
12,850167	0,5	-0,372500
12,858500	0,5	-0,373900
12,866833	0,5	-0,374750
12,875167	0,5	-0,382800
12,883500	0,5	-0,376250
12,891833	0,5	-0,376050
12,900167	0,5	-0,378450
12,908500	0,5	-0,382050
12,916833	0,5	-0,388850
12,925167	0,5	-0,378100
12,933500	0,5	-0,372100
12,941833	0,5	-0,364300
12,950167	0,5	-0,353700
12,958500	0,5	-0,334700
12,966833	0,5	-0,311450
12,975167	0,5	-0,283400
12,983500	0,5	-0,242100
12,991833	0,5	-0,190800
13,000167	0,5	-0,136500
13,008500	0,5	-0,058450
13,016833	0,5	0,020100
13,025167	0,5	0,096700
13,033500	0,5	0,196000
13,041833	0,5	0,286000
13,050167	0,5	0,370300
13,058500	0,5	0,449450
13,066833	0,5	0,518250
13,075167	0,5	0,587950
13,083500	0,5	0,635150
13,091833	0,5	0,676250
13,100167	0,5	0,701950
13,108500	0,5	0,720600
13,116833	0,5	0,728000
13,125167	0,5	0,730100
13,133500	0,5	0,728600
13,141833	0,5	0,714950
13,150167	0,5	0,701700
13,158500	0,5	0,685700
13,166833	0,5	0,667100
13,175167	0,5	0,641050
13,183500	0,5	0,628900
13,191833	0,5	0,606850
13,200167	0,5	0,587550
13,208500	0,5	0,566350
13,216833	0,5	0,553400
13,225167	0,5	0,549050
13,233500	0,5	0,547350
13,241833	0,5	0,538300
13,250167	0,5	0,541100
13,258500	0,5	0,545050
13,266833	0,5	0,555200
13,275167	0,5	0,566900
13,283500	0,5	0,585700
13,291833	0,5	0,612000
13,300167	0,5	0,646800
13,308500	0,5	0,690650
13,316833	0,5	0,730600
13,325167	0,5	0,775200
13,333500	0,5	0,809700
13,341833	0,5	0,831750
13,350167	0,5	0,835800
13,358500	0,5	0,822150
13,366833	0,5	0,799050
13,375167	0,5	0,776800
13,383500	0,5	0,738650
13,391833	0,5	0,707600
13,400167	0,5	0,677650
13,408500	0,5	0,657200
13,416833	0,5	0,640450
13,425167	0,5	0,640850
13,433500	0,5	0,650650
13,441833	0,5	0,669500
13,450167	0,5	0,697200
13,458500	0,5	0,720300
13,466833	0,5	0,742800
13,475167	0,5	0,769750
13,483500	0,5	0,789900
13,491833	0,5	0,801300
13,500167	0,5	0,805750
13,508500	0,5	0,800700
13,516833	0,5	0,801050
13,525167	0,5	0,784050
13,533500	0,5	0,772650
13,541833	0,5	0,753200
13,550167	0,5	0,742400
13,558500	0,5	0,736150
13,566833	0,5	0,732450
13,575167	0,5	0,724600
13,583500	0,5	0,722550
13,591833	0,5	0,723900
13,600167	0,5	0,728200
13,608500	0,5	0,717800
13,616833	0,5	0,717850
13,625167	0,5	0,723650
13,633500	0,5	0,724500
13,641833	0,5	0,716700
13,650167	0,5	0,702350
13,658500	0,5	0,699150
13,666833	0,5	0,695500
13,675167	0,5	0,705800
13,683500	0,5	0,710750
13,691833	0,5	0,725200
13,700167	0,5	0,737800
13,708500	0,5	0,750800
13,716833	0,5	0,764800
13,725167	0,5	0,776500
13,733500	0,5	0,780050
13,741833	0,5	0,779800
13,750167	0,5	0,774400
13,758500	0,5	0,752250
13,766833	0,5	0,741650
13,775167	0,5	0,731500
13,783500	0,5	0,720250
13,791833	0,5	0,710700
13,800167	0,5	0,695900
13,808500	0,5	0,692100
13,816833	0,5	0,690100
13,825167	0,5	0,683600
13,833500	0,5	0,683450
13,841833	0,5	0,680650
13,850167	0,5	0,687900
13,858500	0,5	0,692400
13,866833	0,5	0,697100
13,875167	0,5	0,693800
13,883500	0,5	0,693900
13,891833	0,5	0,690700
13,900167	0,5	0,692700
13,908500	0,5	0,680200
13,916833	0,5	0,691000
13,925167	0,5	0,696500
13,933500	0,5	0,696800
13,941833	0,5	0,694300
13,950167	0,5	0,690300
13,958500	0,5	0,699700
13,966833	0,5	0,701650
13,975167	0,5	0,703250
13,983500	0,5	0,709650
13,991833	0,5	0,716350
14,000167	0,5	0,723350
14,008500	0,5	0,735600
14,016833	0,5	0,743300
14,025167	0,5	0,753600
14,033500	0,5	0,760950
14,041833	0,5	0,776200
14,050167	0,5	0,777950
14,058500	0,5	0,781300
14,066833	0,5	0,795750
14,075167	0,5	0,803000
14,083500	0,5	0,804400
14,091833	0,5	0,810450
14,100167	0,5	0,816500
14,108500	0,5	0,832200
14,116833	0,5	0,843150
14,125167	0,5	0,853600
14,133500	0,5	0,864550
14,141833	0,5	0,874150
14,150167	0,5	0,883600
14,158500	0,5	0,892700
14,166833	0,5	0,898750
14,175167	0,5	0,903500
14,183500	0,5	0,916950
14,191833	0,5	0,926950
14,200167	0,5	0,928450
14,208500	0,5	0,942350
14,216833	0,5	0,959100
14,225167	0,5	0,965400
14,233500	0,5	0,974300
14,241833	0,5	0,969350
14,250167	0,5	0,982500
14,258500	0,5	0,992750
14,266833	0,5	1,009700
14,275167	0,5	1,019000
14,283500	0,5	1,033000
14,291833	0,5	1,046400
14,300167	0,5	1,062400
14,308500	0,5	1,073550
14,316833	0,5	1,084300
14,325167	0,5	1,099850
14,333500	0,5	1,107100
14,341833	0,5	1,120100
14,350167	0,5	1,122350
14,358500	0,5	1,134400
14,366833	0,5	1,144150
14,375167	0,5	1,149200
14,383500	0,5	1,150400
14,391833	0,5	1,152300
14,400167	0,5	1,157600
14,408500	0,5	1,170850
14,416833	0,5	1,173100
14,425167	0,5	1,173050
14,433500	0,5	1,162650
14,441833	0,5	1,165250
14,450167	0,5	1,161450
14,458500	0,5	1,164150
14,466833	0,5	1,164550
14,475167	0,5	1,166650
14,483500	0,5	1,169000
14,491833	0,5	1,158850
14,500167	0,5	1,150700
14,508500	0,5	1,149400
14,516833	0,5	1,143300
14,525167	0,5	1,134950
14,533500	0,5	1,122000
14,541833	0,5	1,110850
14,550167	0,5	1,112150
14,558500	0,5	1,110250
14,566833	0,5	1,111600
14,575167	0,5	1,107150
14,583500	0,5	1,108450
14,591833	0,5	1,103850
14,600167	0,5	1,109500
14,608500	0,5	1,102350
14,616833	0,5	1,101200
14,625167	0,5	1,100300
14,633500	0,5	1,102000
14,641833	0,5	1,082350
14,650167	0,5	1,088550
14,658500	0,5	1,087200
14,666833	0,5	1,084550
14,675167	0,5	1,075500
14,683500	0,5	1,060450
14,691833	0,5	1,059200
14,700167	0,5	1,057100
14,708500	0,5	1,058500
14,716833	0,5	1,051100
14,725167	0,5	1,049300
14,733500	0,5	1,044250
14,741833	0,5	1,045050
14,750167	0,5	1,037500
14,758500	0,5	1,031900
14,766833	0,5	1,026450
14,775167	0,5	1,027750
14,783500	0,5	1,024750
14,791833	0,5	1,014100
14,800167	0,5	1,020650
14,808500	0,5	1,023600
14,816833	0,5	1,018850
14,825167	0,5	1,013650
14,833500	0,5	1,002550
14,841833	0,5	1,012100
14,850167	0,5	1,017600
14,858500	0,5	1,019550
14,866833	0,5	1,026450
14,875167	0,5	1,030250
14,883500	0,5	1,037250
14,891833	0,5	1,038300
14,900167	0,5	1,037050
14,908500	0,5	1,031250
14,916833	0,5	1,021350
14,925167	0,5	1,011600
14,933500	0,5	1,005100
14,941833	0,5	0,987400
14,950167	0,5	1,000850
14,958500	0,5	1,004350
14,966833	0,5	1,004200
14,975167	0,5	1,004800
14,983500	0,5	1,013350
14,991833	0,5	1,037750
15,000167	0,5	1,051800
15,008500	0,5	1,057000
15,016833	0,5	1,055650
15,025167	0,5	1,042400
15,033500	0,5	1,019850
15,041833	0,5	1,004450
15,050167	0,5	1,002300
15,058500	0,5	1,012200
15,066833	0,5	1,036800
15,075167	0,5	1,080000
15,083500	0,5	1,100200
15,091833	0,5	1,125950
15,100167	0,5	1,129000
15,108500	0,5	1,110600
15,116833	0,5	1,066900
15,125167	0,5	1,018200
15,133500	0,5	0,976550
15,141833	0,5	0,959900
15,150167	0,5	0,937850
15,158500	0,5	0,936650
15,166833	0,5	0,926250
15,175167	0,5	0,921400
15,183500	0,5	0,902200
15,191833	0,5	0,882500
15,200167	0,5	0,859250
15,208500	0,5	0,829550
15,216833	0,5	0,813500
15,225167	0,5	0,797300
15,233500	0,5	0,774850
15,241833	0,5	0,770300
15,250167	0,5	0,764550
15,258500	0,5	0,750650
15,266833	0,5	0,739300
15,275167	0,5	0,713900
15,283500	0,5	0,715250
15,291833	0,5	0,705150
15,300167	0,5	0,706350
15,308500	0,5	0,706550
15,316833	0,5	0,712750
15,325167	0,5	0,714350
15,333500	0,5	0,716200
15,341833	0,5	0,713500
15,350167	0,5	0,705500
15,358500	0,5	0,695950
15,366833	0,5	0,689350
15,375167	0,5	0,683500
15,383500	0,5	0,672450
15,391833	0,5	0,678450
15,400167	0,5	0,674800
15,408500	0,5	0,672750
15,416833	0,5	0,658800
15,425167	0,5	0,644150
15,433500	0,5	0,635250
15,441833	0,5	0,635500
15,450167	0,5	0,621400
15,458500	0,5	0,616850
15,466833	0,5	0,606300
15,475167	0,5	0,600100
15,483500	0,5	0,593150
15,491833	0,5	0,589300
15,500167	0,5	0,586000
15,508500	0,5	0,580800
15,516833	0,5	0,578300
15,525167	0,5	0,562900
15,533500	0,5	0,559800
15,541833	0,5	0,563350
15,550167	0,5	0,556550
15,558500	0,5	0,548050
15,566833	0,5	0,531350
15,575167	0,5	0,521600
15,583500	0,5	0,524000
15,591833	0,5	0,516550
15,600167	0,5	0,520750
15,608500	0,5	0,512650
15,616833	0,5	0,514000
15,625167	0,5	0,509600
15,633500	0,5	0,516900
15,641833	0,5	0,515300
15,650167	0,5	0,513000
15,658500	0,5	0,519450
15,666833	0,5	0,522650
15,675167	0,5	0,510200
15,683500	0,5	0,524500
15,691833	0,5	0,532200
15,700167	0,5	0,528350
15,708500	0,5	0,520500
15,716833	0,5	0,504750
15,725167	0,5	0,500100
15,733500	0,5	0,490650
15,741833	0,5	0,483700
15,750167	0,5	0,470350
15,758500	0,5	0,464050
15,766833	0,5	0,452500
15,775167	0,5	0,450850
15,783500	0,5	0,440900
15,791833	0,5	0,435000
15,800167	0,5	0,429500
15,808500	0,5	0,437550
15,816833	0,5	0,429000
15,825167	0,5	0,427850
15,833500	0,5	0,434650
15,841833	0,5	0,431100
15,850167	0,5	0,415450
15,858500	0,5	0,395850
15,866833	0,5	0,379650
15,875167	0,5	0,373200
15,883500	0,5	0,368700
15,891833	0,5	0,357700
15,900167	0,5	0,353850
15,908500	0,5	0,348500
15,916833	0,5	0,349750
15,925167	0,5	0,344200
15,933500	0,5	0,343050
15,941833	0,5	0,339100
15,950167	0,5	0,335400
15,958500	0,5	0,335100
15,966833	0,5	0,328550
15,975167	0,5	0,328850
15,983500	0,5	0,341800
15,991833	0,5	0,335200
16,000167	0,5	0,326850
16,008500	0,5	0,310050
16,016833	0,5	0,303900
16,025167	0,5	0,306300
16,033500	0,5	0,303700
16,041833	0,5	0,296700
16,050167	0,5	0,297750
16,058500	0,5	0,301350
16,066833	0,5	0,300550
16,075167	0,5	0,304050
16,083500	0,5	0,299450
16,091833	0,5	0,301100
16,100167	0,5	0,291750
16,108500	0,5	0,300150
16,116833	0,5	0,282650
16,125167	0,5	0,283850
16,133500	0,5	0,287300
16,141833	0,5	0,287150
16,150167	0,5	0,271150
16,158500	0,5	0,258750
16,166833	0,5	0,254250
16,175167	0,5	0,256200
16,183500	0,5	0,247000
16,191833	0,5	0,240600
16,200167	0,5	0,235250
16,208500	0,5	0,232800
16,216833	0,5	0,228500
16,225167	0,5	0,224300
16,233500	0,5	0,223700
16,241833	0,5	0,214700
16,250167	0,5	0,220150
16,258500	0,5	0,216500
16,266833	0,5	0,201800
16,275167	0,5	0,212650
16,283500	0,5	0,211200
16,291833	0,5	0,198750
16,300167	0,5	0,183750
16,308500	0,5	0,162950
16,316833	0,5	0,162400
16,325167	0,5	0,152850
16,333500	0,5	0,150600
16,341833	0,5	0,141550
16,350167	0,5	0,135600
16,358500	0,5	0,130850
16,366833	0,5	0,128250
16,375167	0,5	0,122100
16,383500	0,5	0,118300
16,391833	0,5	0,119550
16,400167	0,5	0,119350
16,408500	0,5	0,107400
16,416833	0,5	0,106700
16,425167	0,5	0,116200
16,433500	0,5	0,112400
16,441833	0,5	0,110650
16,450167	0,5	0,093800
16,458500	0,5	0,088750
16,466833	0,5	0,086600
16,475167	0,5	0,087550
16,483500	0,5	0,079050
16,491833	0,5	0,082250
16,500167	0,5	0,073300
16,508500	0,5	0,072650
16,516833	0,5	0,068850
16,525167	0,5	0,064200
16,533500	0,5	0,060950
16,541833	0,5	0,056150
16,550167	0,5	0,049000
16,558500	0,5	0,036050
16,566833	0,5	0,037100
16,575167	0,5	0,041150
16,583500	0,5	0,028950
16,591833	0,5	0,019100
16,600167	0,5	0,007750
16,608500	0,5	-0,004000
16,616833	0,5	-0,002550
16,625167	0,5	-0,009050
16,633500	0,5	-0,010050
16,641833	0,5	-0,017900
16,650167	0,5	-0,016700
16,658500	0,5	-0,019250
16,666833	0,5	-0,021400
16,675167	0,5	-0,028400
16,683500	0,5	-0,037550
16,691833	0,5	-0,035500
16,700167	0,5	-0,039800
16,708500	0,5	-0,057050
16,716833	0,5	-0,048250
16,725167	0,5	-0,048400
16,733500	0,5	-0,059750
16,741833	0,5	-0,068500
16,750167	0,5	-0,084150
16,758500	0,5	-0,077350
16,766833	0,5	-0,080300
16,775167	0,5	-0,083850
16,783500	0,5	-0,086850
16,791833	0,5	-0,078950
16,800167	0,5	-0,084550
16,808500	0,5	-0,084800
16,816833	0,5	-0,090000
16,825167	0,5	-0,092500
16,833500	0,5	-0,091850
16,841833	0,5	-0,084150
16,850167	0,5	-0,104150
16,858500	0,5	-0,103200
16,866833	0,5	-0,102000
16,875167	0,5	-0,102750
16,883500	0,5	-0,110850
16,891833	0,5	-0,129900
16,900167	0,5	-0,126800
16,908500	0,5	-0,117200
16,916833	0,5	-0,116900
16,925167	0,5	-0,118000
16,933500	0,5	-0,111050
16,941833	0,5	-0,108550
16,950167	0,5	-0,103800
16,958500	0,5	-0,101250
16,966833	0,5	-0,091400
16,975167	0,5	-0,091600
16,983500	0,5	-0,079400
16,991833	0,5	-0,065750
17,000167	0,5	-0,069000
17,008500	0,5	-0,054550
17,016833	0,5	-0,039550
17,025167	0,5	-0,029200
17,033500	0,5	-0,017700
17,041833	0,5	-0,021850
17,050167	0,5	-0,003450
17,058500	0,5	0,021850
17,066833	0,5	0,038850
17,075167	0,5	0,060100
17,083500	0,5	0,079150
17,091833	0,5	0,099200
17,100167	0,5	0,112100
17,108500	0,5	0,121300
17,116833	0,5	0,118900
17,125167	0,5	0,116700
17,133500	0,5	0,103600
17,141833	0,5	0,106550
17,150167	0,5	0,080800
17,158500	0,5	0,097350
17,166833	0,5	0,093150
17,175167	0,5	0,092750
17,183500	0,5	0,083650
17,191833	0,5	0,074250
17,200167	0,5	0,081200
17,208500	0,5	0,092000
17,216833	0,5	0,092100
17,225167	0,5	0,098650
17,233500	0,5	0,103300
17,241833	0,5	0,109300
17,250167	0,5	0,116350
17,258500	0,5	0,121750
17,266833	0,5	0,130750
17,275167	0,5	0,134650
17,283500	0,5	0,144900
17,291833	0,5	0,139400
17,300167	0,5	0,134900
17,308500	0,5	0,144550
17,316833	0,5	0,143500
17,325167	0,5	0,134500
17,333500	0,5	0,120050
17,341833	0,5	0,105500
17,350167	0,5	0,106150
17,358500	0,5	0,100250
17,366833	0,5	0,099150
17,375167	0,5	0,094200
17,383500	0,5	0,091550
17,391833	0,5	0,090400
17,400167	0,5	0,087650
17,408500	0,5	0,087950
17,416833	0,5	0,080600
17,425167	0,5	0,084750
17,433500	0,5	0,079850
17,441833	0,5	0,067700
17,450167	0,5	0,068150
17,458500	0,5	0,074800
17,466833	0,5	0,066050
17,475167	0,5	0,052800
17,483500	0,5	0,032000
17,491833	0,5	0,028200
17,500167	0,5	0,017300
17,508500	0,5	0,013300
17,516833	0,5	0,004500
17,525167	0,5	0,000750
17,533500	0,5	-0,013150
17,541833	0,5	-0,017950
17,550167	0,5	-0,028150
17,558500	0,5	-0,038550
17,566833	0,5	-0,045300
17,575167	0,5	-0,051400
17,583500	0,5	-0,060450
17,591833	0,5	-0,079400
17,600167	0,5	-0,073050
17,608500	0,5	-0,079500
17,616833	0,5	-0,088400
17,625167	0,5	-0,101600
17,633500	0,5	-0,108400
17,641833	0,5	-0,109800
17,650167	0,5	-0,101800
17,658500	0,5	-0,103350
17,666833	0,5	-0,094500
17,675167	0,5	-0,090450
17,683500	0,5	-0,076850
17,691833	0,5	-0,068850
17,700167	0,5	-0,060700
17,708500	0,5	-0,060250
17,716833	0,5	-0,066750
17,725167	0,5	-0,068750
17,733500	0,5	-0,097400
17,741833	0,5	-0,118000
17,750167	0,5	-0,128750
17,758500	0,5	-0,149950
17,766833	0,5	-0,180750
17,775167	0,5	-0,213750
17,783500	0,5	-0,235850
17,791833	0,5	-0,240750
17,800167	0,5	-0,259250
17,808500	0,5	-0,268050
17,816833	0,5	-0,280300
17,825167	0,5	-0,284250
17,833500	0,5	-0,295350
17,841833	0,5	-0,297150
17,850167	0,5	-0,308500
17,858500	0,5	-0,313150
17,866833	0,5	-0,320400
17,875167	0,5	-0,319450
17,883500	0,5	-0,345200
17,891833	0,5	-0,329950
17,900167	0,5	-0,336750
17,908500	0,5	-0,343550
17,916833	0,5	-0,355050
17,925167	0,5	-0,379550
17,933500	0,5	-0,374100
17,941833	0,5	-0,383250
17,950167	0,5	-0,389550
17,958500	0,5	-0,401400
17,966833	0,5	-0,400350
17,975167	0,5	-0,410300
17,983500	0,5	-0,410350
17,991833	0,5	-0,419750
18,000167	0,5	-0,421900
18,008500	0,5	-0,430500
18,016833	0,5	-0,435800
18,025167	0,5	-0,441200
18,033500	0,5	-0,455700
18,041833	0,5	-0,449650
18,050167	0,5	-0,452650
18,058500	0,5	-0,463950
18,066833	0,5	-0,474900
18,075167	0,5	-0,497850
18,083500	0,5	-0,496950
18,091833	0,5	-0,500500
18,100167	0,5	-0,509800
18,108500	0,5	-0,513150
18,116833	0,5	-0,520450
18,125167	0,5	-0,524700
18,133500	0,5	-0,530150
18,141833	0,5	-0,535200
18,150167	0,5	-0,544450
18,158500	0,5	-0,543550
18,166833	0,5	-0,550250
18,175167	0,5	-0,553750
18,183500	0,5	-0,570000
18,191833	0,5	-0,557050
18,200167	0,5	-0,571850
18,208500	0,5	-0,578350
18,216833	0,5	-0,597500
18,225167	0,5	-0,616200
18,233500	0,5	-0,615100
18,241833	0,5	-0,619550
18,250167	0,5	-0,623300
18,258500	0,5	-0,631800
18,266833	0,5	-0,640500
18,275167	0,5	-0,647800
18,283500	0,5	-0,651900
18,291833	0,5	-0,658600
18,300167	0,5	-0,663950
18,308500	0,5	-0,660800
18,316833	0,5	-0,662700
18,325167	0,5	-0,681800
18,333500	0,5	-0,680500
18,341833	0,5	-0,680950
18,350167	0,5	-0,690850
18,358500	0,5	-0,707150
18,366833	0,5	-0,724350
18,375167	0,5	-0,729800
18,383500	0,5	-0,733300
18,391833	0,5	-0,734050
18,400167	0,5	-0,738300
18,408500	0,5	-0,743650
18,416833	0,5	-0,744950
18,425167	0,5	-0,746950
18,433500	0,5	-0,750550
18,441833	0,5	-0,756350
18,450167	0,5	-0,758700
18,458500	0,5	-0,755700
18,466833	0,5	-0,767150
18,475167	0,5	-0,775200
18,483500	0,5	-0,771500
18,491833	0,5	-0,768650
18,500167	0,5	-0,779650
18,508500	0,5	-0,796700
18,516833	0,5	-0,809650
18,525167	0,5	-0,809750
18,533500	0,5	-0,808800
18,541833	0,5	-0,804600
18,550167	0,5	-0,812800
18,558500	0,5	-0,807600
18,566833	0,5	-0,812200
18,575167	0,5	-0,812400
18,583500	0,5	-0,809850
18,591833	0,5	-0,814550
18,600167	0,5	-0,801550
18,608500	0,5	-0,794850
18,616833	0,5	-0,803100
18,625167	0,5	-0,790700
18,633500	0,5	-0,776650
18,641833	0,5	-0,775400
18,650167	0,5	-0,765900
18,658500	0,5	-0,779050
18,666833	0,5	-0,771450
18,675167	0,5	-0,763200
18,683500	0,5	-0,750050
18,691833	0,5	-0,744700
18,700167	0,5	-0,733800
18,708500	0,5	-0,729150
18,716833	0,5	-0,720950
18,725167	0,5	-0,716300
18,733500	0,5	-0,713550
18,741833	0,5	-0,710700
18,750167	0,5	-0,710200
18,758500	0,5	-0,708150
18,766833	0,5	-0,732500
18,775167	0,5	-0,719400
18,783500	0,5	-0,724950
18,791833	0,5	-0,733600
18,800167	0,5	-0,748250
18,808500	0,5	-0,771050
18,816833	0,5	-0,777900
18,825167	0,5	-0,780250
18,833500	0,5	-0,792950
18,841833	0,5	-0,800300
18,850167	0,5	-0,811700
18,858500	0,5	-0,821300
18,866833	0,5	-0,832700
18,875167	0,5	-0,839400
18,883500	0,5	-0,847900
18,891833	0,5	-0,859000
18,900167	0,5	-0,855250
18,908500	0,5	-0,862000
18,916833	0,5	-0,882300
18,925167	0,5	-0,879250
18,933500	0,5	-0,882850
18,941833	0,5	-0,895250
18,950167	0,5	-0,908400
18,958500	0,5	-0,928950
18,966833	0,5	-0,920350
18,975167	0,5	-0,932550
18,983500	0,5	-0,931200
18,991833	0,5	-0,942250
19,000167	0,5	-0,938750
19,008500	0,5	-0,948150
19,016833	0,5	-0,939350
19,025167	0,5	-0,946800
19,033500	0,5	-0,939050
19,041833	0,5	-0,930900
19,050167	0,5	-0,915000
19,058500	0,5	-0,918150
19,066833	0,5	-0,911700
19,075167	0,5	-0,898050
19,083500	0,5	-0,898450
19,091833	0,5	-0,903650
19,100167	0,5	-0,925100
19,108500	0,5	-0,934900
19,116833	0,5	-0,945600
19,125167	0,5	-0,958150
19,133500	0,5	-0,975000
19,141833	0,5	-0,985400
19,150167	0,5	-1,005250
19,158500	0,5	-1,012450
19,166833	0,5	-1,028500
19,175167	0,5	-1,040700
19,183500	0,5	-1,055950
19,191833	0,5	-1,052700
19,200167	0,5	-1,059250
19,208500	0,5	-1,074000
19,216833	0,5	-1,070800
19,225167	0,5	-1,072150
19,233500	0,5	-1,078000
19,241833	0,5	-1,090950
19,250167	0,5	-1,110350
19,258500	0,5	-1,119900
19,266833	0,5	-1,118650
19,275167	0,5	-1,125600
19,283500	0,5	-1,128550
19,291833	0,5	-1,138650
19,300167	0,5	-1,143700
19,308500	0,5	-1,151700
19,316833	0,5	-1,154600
19,325167	0,5	-1,161100
19,333500	0,5	-1,157800
19,341833	0,5	-1,159950
19,350167	0,5	-1,165650
19,358500	0,5	-1,183150
19,366833	0,5	-1,176450
19,375167	0,5	-1,184550
19,383500	0,5	-1,191150
19,391833	0,5	-1,210550
19,400167	0,5	-1,226950
19,408500	0,5	-1,224100
19,416833	0,5	-1,233450
19,425167	0,5	-1,234500
19,433500	0,5	-1,237800
19,441833	0,5	-1,240100
19,450167	0,5	-1,249150
19,458500	0,5	-1,245650
19,466833	0,5	-1,258550
19,475167	0,5	-1,256900
19,483500	0,5	-1,255750
19,491833	0,5	-1,254500
19,500167	0,5	-1,274850
19,508500	0,5	-1,275200
19,516833	0,5	-1,270200
19,525167	0,5	-1,277200
19,533500	0,5	-1,288300
19,541833	0,5	-1,306350
19,550167	0,5	-1,319300
19,558500	0,5	-1,322500
19,566833	0,5	-1,319850
19,575167	0,5	-1,321550
19,583500	0,5	-1,327300
19,591833	0,5	-1,335600
19,600167	0,5	-1,336050
19,608500	0,5	-1,341850
19,616833	0,5	-1,342250
19,625167	0,5	-1,351450
19,633500	0,5	-1,339500
19,641833	0,5	-1,349250
19,650167	0,5	-1,362850
19,658500	0,5	-1,359150
19,666833	0,5	-1,357100
19,675167	0,5	-1,373000
19,683500	0,5	-1,382350
19,691833	0,5	-1,401150
19,700167	0,5	-1,397250
19,708500	0,5	-1,402550
19,716833	0,5	-1,404450
19,725167	0,5	-1,406850
19,733500	0,5	-1,408200
19,741833	0,5	-1,407750
19,750167	0,5	-1,407750
19,758500	0,5	-1,407250
19,766833	0,5	-1,414100
19,775167	0,5	-1,411750
19,783500	0,5	-1,406450
19,791833	0,5	-1,414100
19,800167	0,5	-1,426600
19,808500	0,5	-1,416400
19,816833	0,5	-1,417650
19,825167	0,5	-1,424750
19,833500	0,5	-1,447150
19,841833	0,5	-1,451400
19,850167	0,5	-1,445350
19,858500	0,5	-1,447650
19,866833	0,5	-1,455300
19,875167	0,5	-1,456250
19,883500	0,5	-1,458850
19,891833	0,5	-1,458000
19,900167	0,5	-1,461100
19,908500	0,5	-1,469900
19,916833	0,5	-1,470000
19,925167	0,5	-1,471300
19,933500	0,5	-1,457750
19,941833	0,5	-1,479900
19,950167	0,5	-1,475000
19,958500	0,5	-1,478600
19,966833	0,5	-1,479650
19,975167	0,5	-1,494250
19,983500	0,5	-1,508850
19,991833	0,5	-1,503900
20,000167	0,5	-1,500050
20,008500	0,5	-1,512850
20,016833	0,5	-1,514100
20,025167	0,5	-1,527100
20,033500	0,5	-1,528550
20,041833	0,5	-1,535700
20,050167	0,5	-1,534100
20,058500	0,5	-1,537250
20,066833	0,5	-1,543200
20,075167	0,5	-1,529550
20,083500	0,5	-1,530800
20,091833	0,5	-1,544400
20,100167	0,5	-1,537350
20,108500	0,5	-1,539650
20,116833	0,5	-1,548450
20,125167	0,5	-1,558450
20,133500	0,5	-1,576750
20,141833	0,5	-1,564950
20,150167	0,5	-1,568650
20,158500	0,5	-1,564600
20,166833	0,5	-1,565800
20,175167	0,5	-1,556650
20,183500	0,5	-1,557450
20,191833	0,5	-1,555000
20,200167	0,5	-1,555150
20,208500	0,5	-1,562000
20,216833	0,5	-1,547900
20,225167	0,5	-1,543150
20,233500	0,5	-1,551050
20,241833	0,5	-1,555550
20,250167	0,5	-1,550650
20,258500	0,5	-1,556000
20,266833	0,5	-1,562000
20,275167	0,5	-1,583050
20,283500	0,5	-1,589450
20,291833	0,5	-1,589300
20,300167	0,5	-1,583650
20,308500	0,5	-1,587950
20,316833	0,5	-1,582250
20,325167	0,5	-1,588800
20,333500	0,5	-1,582800
20,341833	0,5	-1,586800
20,350167	0,5	-1,585400
20,358500	0,5	-1,582050
20,366833	0,5	-1,571100
20,375167	0,5	-1,565900
20,383500	0,5	-1,575750
20,391833	0,5	-1,572350
20,400167	0,5	-1,568850
20,408500	0,5	-1,567300
20,416833	0,5	-1,580350
20,425167	0,5	-1,586150
20,433500	0,5	-1,586100
20,441833	0,5	-1,573750
20,450167	0,5	-1,574900
20,458500	0,5	-1,571150
20,466833	0,5	-1,574550
20,475167	0,5	-1,567200
20,483500	0,5	-1,568900
20,491833	0,5	-1,561950
20,500167	0,5	-1,562650
20,508500	0,5	-1,558600
20,516833	0,5	-1,541900
20,525167	0,5	-1,542850
20,533500	0,5	-1,557350
20,541833	0,5	-1,550800
20,550167	0,5	-1,555500
20,558500	0,5	-1,563350
20,566833	0,5	-1,583100
20,575167	0,5	-1,591650
20,583500	0,5	-1,589850
20,591833	0,5	-1,597850
20,600167	0,5	-1,589400
20,608500	0,5	-1,595750
20,616833	0,5	-1,592400
20,625167	0,5	-1,600050
20,633500	0,5	-1,595300
20,641833	0,5	-1,602800
20,650167	0,5	-1,600400
20,658500	0,5	-1,585900
20,666833	0,5	-1,573050
20,675167	0,5	-1,585600
20,683500	0,5	-1,591800
20,691833	0,5	-1,591850
20,700167	0,5	-1,598900
20,708500	0,5	-1,608400
20,716833	0,5	-1,633950
20,725167	0,5	-1,623600
20,733500	0,5	-1,628700
20,741833	0,5	-1,626000
20,750167	0,5	-1,630900
20,758500	0,5	-1,624500
20,766833	0,5	-1,630250
20,775167	0,5	-1,618950
20,783500	0,5	-1,617900
20,791833	0,5	-1,613600
20,800167	0,5	-1,612850
20,808500	0,5	-1,589400
20,816833	0,5	-1,578450
20,825167	0,5	-1,589000
20,833500	0,5	-1,591350
20,841833	0,5	-1,589900
20,850167	0,5	-1,592500
20,858500	0,5	-1,607250
20,866833	0,5	-1,616950
20,875167	0,5	-1,611900
20,883500	0,5	-1,600250
20,891833	0,5	-1,606600
20,900167	0,5	-1,599500
20,908500	0,5	-1,601650
20,916833	0,5	-1,588900
20,925167	0,5	-1,586500
20,933500	0,5	-1,577400
20,941833	0,5	-1,578150
20,950167	0,5	-1,557550
20,958500	0,5	-1,536300
20,966833	0,5	-1,527750
20,975167	0,5	-1,533950
20,983500	0,5	-1,534750
20,991833	0,5	-1,541450
21,000167	0,5	-1,549200
21,008500	0,5	-1,564950
21,016833	0,5	-1,563650
21,025167	0,5	-1,553300
21,033500	0,5	-1,556000
21,041833	0,5	-1,554150
21,050167	0,5	-1,553350
21,058500	0,5	-1,547150
21,066833	0,5	-1,545100
21,075167	0,5	-1,537850
21,083500	0,5	-1,540350
21,091833	0,5	-1,535500
21,100167	0,5	-1,507100
21,108500	0,5	-1,492750
21,116833	0,5	-1,500100
21,125167	0,5	-1,497550
21,133500	0,5	-1,502250
21,141833	0,5	-1,506650
21,150167	0,5	-1,517750
21,158500	0,5	-1,527800
21,166833	0,5	-1,521750
21,175167	0,5	-1,518450
21,183500	0,5	-1,511400
21,191833	0,5	-1,512600
21,200167	0,5	-1,498500
21,208500	0,5	-1,497350
21,216833	0,5	-1,481800
21,225167	0,5	-1,482350
21,233500	0,5	-1,478850
21,241833	0,5	-1,468550
21,250167	0,5	-1,438500
21,258500	0,5	-1,430750
21,266833	0,5	-1,433750
21,275167	0,5	-1,431500
21,283500	0,5	-1,436900
21,291833	0,5	-1,441900
21,300167	0,5	-1,453400
21,308500	0,5	-1,454350
21,316833	0,5	-1,456200
21,325167	0,5	-1,444550
21,333500	0,5	-1,439600
21,341833	0,5	-1,426650
21,350167	0,5	-1,422700
21,358500	0,5	-1,409550
21,366833	0,5	-1,407800
21,375167	0,5	-1,399100
21,383500	0,5	-1,393600
21,391833	0,5	-1,363650
21,400167	0,5	-1,342550
21,408500	0,5	-1,336600
21,416833	0,5	-1,339350
21,425167	0,5	-1,334650
21,433500	0,5	-1,346900
21,441833	0,5	-1,356200
21,450167	0,5	-1,356450
21,458500	0,5	-1,351400
21,466833	0,5	-1,343600
21,475167	0,5	-1,338950
21,483500	0,5	-1,322450
21,491833	0,5	-1,315800
21,500167	0,5	-1,294500
21,508500	0,5	-1,280950
21,516833	0,5	-1,262400
21,525167	0,5	-1,246300
21,533500	0,5	-1,218850
21,541833	0,5	-1,165000
21,550167	0,5	-1,116850
21,558500	0,5	-1,089950
21,566833	0,5	-1,066200
21,575167	0,5	-1,063850
21,583500	0,5	-1,072950
21,591833	0,5	-1,098700
21,600167	0,5	-1,109850
21,608500	0,5	-1,109250
21,616833	0,5	-1,105850
21,625167	0,5	-1,102050
21,633500	0,5	-1,097950
21,641833	0,5	-1,090750
21,650167	0,5	-1,083500
21,658500	0,5	-1,064650
21,666833	0,5	-1,061600
21,675167	0,5	-1,050800
21,683500	0,5	-1,022100
21,691833	0,5	-0,994850
21,700167	0,5	-0,980950
21,708500	0,5	-0,969450
21,716833	0,5	-0,959950
21,725167	0,5	-0,955250
21,733500	0,5	-0,940350
21,741833	0,5	-0,939350
21,750167	0,5	-0,905800
21,758500	0,5	-0,887450
21,766833	0,5	-0,866150
21,775167	0,5	-0,849450
21,783500	0,5	-0,831100
21,791833	0,5	-0,816950
21,800167	0,5	-0,793350
21,808500	0,5	-0,779250
21,816833	0,5	-0,756050
21,825167	0,5	-0,745000
21,833500	0,5	-0,707100
21,841833	0,5	-0,689700
21,850167	0,5	-0,688000
21,858500	0,5	-0,674100
21,866833	0,5	-0,661800
21,875167	0,5	-0,655750
21,883500	0,5	-0,647900
21,891833	0,5	-0,635800
21,900167	0,5	-0,604700
21,908500	0,5	-0,585350
21,916833	0,5	-0,569600
21,925167	0,5	-0,542500
21,933500	0,5	-0,521650
21,941833	0,5	-0,494950
21,950167	0,5	-0,479000
21,958500	0,5	-0,452000
21,966833	0,5	-0,432550
21,975167	0,5	-0,399900
21,983500	0,5	-0,362200
21,991833	0,5	-0,345200
22,000167	0,5	-0,319600
22,008500	0,5	-0,299900
22,016833	0,5	-0,275800
22,025167	0,5	-0,263000
22,033500	0,5	-0,251300
22,041833	0,5	-0,221000
22,050167	0,5	-0,187900
22,058500	0,5	-0,161400
22,066833	0,5	-0,130750
22,075167	0,5	-0,104050
22,083500	0,5	-0,065500
22,091833	0,5	-0,031150
22,100167	0,5	0,015750
22,108500	0,5	0,054900
22,116833	0,5	0,097450
22,125167	0,5	0,142550
22,133500	0,5	0,185350
22,141833	0,5	0,210000
22,150167	0,5	0,261050
22,158500	0,5	0,291600
22,166833	0,5	0,319400
22,175167	0,5	0,348700
22,183500	0,5	0,368850
22,191833	0,5	0,415300
22,200167	0,5	0,451150
22,208500	0,5	0,498400
22,216833	0,5	0,532000
22,225167	0,5	0,580200
22,233500	0,5	0,617650
22,241833	0,5	0,666100
22,250167	0,5	0,704800
22,258500	0,5	0,753700
22,266833	0,5	0,795150
22,275167	0,5	0,832850
22,283500	0,5	0,869150
22,291833	0,5	0,928250
22,300167	0,5	0,981050
22,308500	0,5	1,023000
22,316833	0,5	1,066600
22,325167	0,5	1,101950
22,333500	0,5	1,148700
22,341833	0,5	1,199800
22,350167	0,5	1,258050
22,358500	0,5	1,305050
22,366833	0,5	1,360900
22,375167	0,5	1,413800
22,383500	0,5	1,471550
22,391833	0,5	1,520900
22,400167	0,5	1,581250
22,408500	0,5	1,637900
22,416833	0,5	1,680950
22,425167	0,5	1,735400
22,433500	0,5	1,808400
22,441833	0,5	1,888150
22,450167	0,5	1,951750
22,458500	0,5	2,013150
22,466833	0,5	2,064750
22,475167	0,5	2,131050
22,483500	0,5	2,201750
22,491833	0,5	2,281150
22,500167	0,5	2,355150
22,508500	0,5	2,432000
22,516833	0,5	2,508050
22,525167	0,5	2,588800
22,533500	0,5	2,665650
22,541833	0,5	2,750400
22,550167	0,5	2,824300
22,558500	0,5	2,890650
22,566833	0,5	2,938050
22,575167	0,5	3,013050
22,583500	0,5	3,105500
22,591833	0,5	3,181550
22,600167	0,5	3,235550
22,608500	0,5	3,297300
22,616833	0,5	3,336500
22,625167	0,5	3,390550
22,633500	0,5	3,444600
22,641833	0,5	3,488800
22,650167	0,5	3,531450
22,658500	0,5	3,569450
22,666833	0,5	3,607150
22,675167	0,5	3,628800
22,683500	0,5	3,654000
22,691833	0,5	3,661200
22,700167	0,5	3,671100
22,708500	0,5	3,615250
22,716833	0,5	3,614950
22,725167	0,5	3,591400
22,733500	0,5	3,579750
22,741833	0,5	3,525350
22,750167	0,5	3,457700
22,758500	0,5	3,376250
22,766833	0,5	3,281800
22,775167	0,5	3,208250
22,783500	0,5	3,107000
22,791833	0,5	3,005450
22,800167	0,5	2,893650
22,808500	0,5	2,781150
22,816833	0,5	2,661500
22,825167	0,5	2,541600
22,833500	0,5	2,412400
22,841833	0,5	2,273050
22,850167	0,5	2,124700
22,858500	0,5	1,924750
22,866833	0,5	1,781450
22,875167	0,5	1,651950
22,883500	0,5	1,486700
22,891833	0,5	1,316700
22,900167	0,5	1,148400
22,908500	0,5	0,983000
22,916833	0,5	0,816650
22,925167	0,5	0,651050
22,933500	0,5	0,483700
22,941833	0,5	0,335650
22,950167	0,5	0,178200
22,958500	0,5	0,035100
22,966833	0,5	-0,116300
22,975167	0,5	-0,256550
22,983500	0,5	-0,403450
22,991833	0,5	-0,543100
23,000167	0,5	-0,659250
23,008500	0,5	-0,810100
23,016833	0,5	-0,930150
23,025167	0,5	-1,094750
23,033500	0,5	-1,226950
23,041833	0,5	-1,339850
23,050167	0,5	-1,441050
23,058500	0,5	-1,533350
23,066833	0,5	-1,632850
23,075167	0,5	-1,726600
23,083500	0,5	-1,800650
23,091833	0,5	-1,876700
23,100167	0,5	-1,941400
23,108500	0,5	-2,003150
23,116833	0,5	-2,067150
23,125167	0,5	-2,129600
23,133500	0,5	-2,183500
23,141833	0,5	-2,242200
23,150167	0,5	-2,273150
23,158500	0,5	-2,341450
23,166833	0,5	-2,390000
23,175167	0,5	-2,458100
23,183500	0,5	-2,483300
23,191833	0,5	-2,520450
23,200167	0,5	-2,536400
23,208500	0,5	-2,549400
23,216833	0,5	-2,568950
23,225167	0,5	-2,576650
23,233500	0,5	-2,577000
23,241833	0,5	-2,578700
23,250167	0,5	-2,574300
23,258500	0,5	-2,570700
23,266833	0,5	-2,570000
23,275167	0,5	-2,560400
23,283500	0,5	-2,559850
23,291833	0,5	-2,542650
23,300167	0,5	-2,536200
23,308500	0,5	-2,536100
23,316833	0,5	-2,547900
23,325167	0,5	-2,565700
23,333500	0,5	-2,558500
23,341833	0,5	-2,545000
23,350167	0,5	-2,521950
23,358500	0,5	-2,506250
23,366833	0,5	-2,488400
23,375167	0,5	-2,465550
23,383500	0,5	-2,441200
23,391833	0,5	-2,409900
23,400167	0,5	-2,383350
23,408500	0,5	-2,348250
23,416833	0,5	-2,316800
23,425167	0,5	-2,287750
23,433500	0,5	-2,258650
23,441833	0,5	-2,225950
23,450167	0,5	-2,202000
23,458500	0,5	-2,179150
23,466833	0,5	-2,172750
23,475167	0,5	-2,167650
23,483500	0,5	-2,141750
23,491833	0,5	-2,123250
23,500167	0,5	-2,102450
23,508500	0,5	-2,085050
23,516833	0,5	-2,065250
23,525167	0,5	-2,043100
23,533500	0,5	-2,017050
23,541833	0,5	-1,994900
23,550167	0,5	-1,968300
23,558500	0,5	-1,941800
23,566833	0,5	-1,915350
23,575167	0,5	-1,892650
23,583500	0,5	-1,870200
23,591833	0,5	-1,864650
23,600167	0,5	-1,832950
23,608500	0,5	-1,804400
23,616833	0,5	-1,785800
23,625167	0,5	-1,772700
23,633500	0,5	-1,754400
23,641833	0,5	-1,739850
23,650167	0,5	-1,722000
23,658500	0,5	-1,706000
23,666833	0,5	-1,688500
23,675167	0,5	-1,672500
23,683500	0,5	-1,655350
23,691833	0,5	-1,639400
23,700167	0,5	-1,621800
23,708500	0,5	-1,611750
23,716833	0,5	-1,595850
23,725167	0,5	-1,581550
23,733500	0,5	-1,592050
23,741833	0,5	-1,593750
23,750167	0,5	-1,576100
23,758500	0,5	-1,547200
23,766833	0,5	-1,523000
23,775167	0,5	-1,516250
23,783500	0,5	-1,509150
23,791833	0,5	-1,498750
23,800167	0,5	-1,492400
23,808500	0,5	-1,465450
23,816833	0,5	-1,452200
23,825167	0,5	-1,433200
23,833500	0,5	-1,419600
23,841833	0,5	-1,396650
23,850167	0,5	-1,381950
23,858500	0,5	-1,362350
23,866833	0,5	-1,350350
23,875167	0,5	-1,334200
23,883500	0,5	-1,381950
23,891833	0,5	-1,346900
23,900167	0,5	-1,362400
23,908500	0,5	-1,300000
23,916833	0,5	-1,284900
23,925167	0,5	-1,273900
23,933500	0,5	-1,273450
23,941833	0,5	-1,278350
23,950167	0,5	-1,266400
23,958500	0,5	-1,248950
23,966833	0,5	-1,234650
23,975167	0,5	-1,221800
23,983500	0,5	-1,206150
23,991833	0,5	-1,194650
24,000167	0,5	-1,170300
24,008500	0,5	-1,155750
24,016833	0,5	-1,135400
24,025167	0,5	-1,129400
24,033500	0,5	-1,174200
24,041833	0,5	-1,138700
24,050167	0,5	-1,121600
24,058500	0,5	-1,066000
24,066833	0,5	-1,044350
24,075167	0,5	-1,035800
24,083500	0,5	-1,030400
24,091833	0,5	-1,047750
24,100167	0,5	-1,018750
24,108500	0,5	-0,995100
24,116833	0,5	-0,980850
24,125167	0,5	-0,968200
24,133500	0,5	-0,946750
24,141833	0,5	-0,932100
24,150167	0,5	-0,917100
24,158500	0,5	-0,897350
24,166833	0,5	-0,886550
24,175167	0,5	-0,882400
24,183500	0,5	-0,911500
24,191833	0,5	-0,880300
24,200167	0,5	-0,870350
24,208500	0,5	-0,822250
24,216833	0,5	-0,816050
24,225167	0,5	-0,800850
24,233500	0,5	-0,805750
24,241833	0,5	-0,802350
24,250167	0,5	-0,791100
24,258500	0,5	-0,760850
24,266833	0,5	-0,747700
24,275167	0,5	-0,724800
24,283500	0,5	-0,707100
24,291833	0,5	-0,683850
24,300167	0,5	-0,661400
24,308500	0,5	-0,644150
24,316833	0,5	-0,630250
24,325167	0,5	-0,639800
24,333500	0,5	-0,622750
24,341833	0,5	-0,623850
24,350167	0,5	-0,592150
24,358500	0,5	-0,566900
24,366833	0,5	-0,558800
24,375167	0,5	-0,552150
24,383500	0,5	-0,562500
24,391833	0,5	-0,564800
24,400167	0,5	-0,545050
24,408500	0,5	-0,540200
24,416833	0,5	-0,516600
24,425167	0,5	-0,508400
24,433500	0,5	-0,489450
24,441833	0,5	-0,480050
24,450167	0,5	-0,457300
24,458500	0,5	-0,447500
24,466833	0,5	-0,432500
24,475167	0,5	-0,425350
24,483500	0,5	-0,412300
24,491833	0,5	-0,418950
24,500167	0,5	-0,383750
24,508500	0,5	-0,361000
24,516833	0,5	-0,355600
24,525167	0,5	-0,349350
24,533500	0,5	-0,364350
24,541833	0,5	-0,342450
24,550167	0,5	-0,336550
24,558500	0,5	-0,323200
24,566833	0,5	-0,316850
24,575167	0,5	-0,301300
24,583500	0,5	-0,292000
24,591833	0,5	-0,277400
24,600167	0,5	-0,269650
24,608500	0,5	-0,257200
24,616833	0,5	-0,259150
24,625167	0,5	-0,248300
24,633500	0,5	-0,245700
24,641833	0,5	-0,245150
24,650167	0,5	-0,223700
24,658500	0,5	-0,208200
24,666833	0,5	-0,205550
24,675167	0,5	-0,203350
24,683500	0,5	-0,207450
24,691833	0,5	-0,191550
24,700167	0,5	-0,180200
24,708500	0,5	-0,173150
24,716833	0,5	-0,161550
24,725167	0,5	-0,153750
24,733500	0,5	-0,138500
24,741833	0,5	-0,132750
24,750167	0,5	-0,118550
24,758500	0,5	-0,115400
24,766833	0,5	-0,110900
24,775167	0,5	-0,099100
24,783500	0,5	-0,096050
24,791833	0,5	-0,096200
24,800167	0,5	-0,079550
24,808500	0,5	-0,075800
24,816833	0,5	-0,073950
24,825167	0,5	-0,082000
24,833500	0,5	-0,079550
24,841833	0,5	-0,068400
24,850167	0,5	-0,063350
24,858500	0,5	-0,056800
24,866833	0,5	-0,052550
24,875167	0,5	-0,044300
24,883500	0,5	-0,039250
24,891833	0,5	-0,028300
24,900167	0,5	-0,021500
24,908500	0,5	-0,010800
24,916833	0,5	-0,009800
24,925167	0,5	0,005400
24,933500	0,5	0,002400
24,941833	0,5	0,014450
24,950167	0,5	0,018650
24,958500	0,5	0,025200
24,966833	0,5	0,020150
24,975167	0,5	0,018050
24,983500	0,5	0,021550
24,991833	0,5	0,028200
25,000167	0,5	0,031100
25,008500	0,5	0,034950
25,016833	0,5	0,038450
25,025167	0,5	0,044250
25,033500	0,5	0,047750
25,041833	0,5	0,053200
25,050167	0,5	0,057400
25,058500	0,5	0,056000
25,066833	0,5	0,063700
25,075167	0,5	0,068550
25,083500	0,5	0,069600
25,091833	0,5	0,074600
25,100167	0,5	0,082700
25,108500	0,5	0,085750
25,116833	0,5	0,084850
25,125167	0,5	0,081100
25,133500	0,5	0,086700
25,141833	0,5	0,093950
25,150167	0,5	0,098200
25,158500	0,5	0,100050
25,166833	0,5	0,105700
25,175167	0,5	0,109400
25,183500	0,5	0,109600
25,191833	0,5	0,118350
25,200167	0,5	0,119150
25,208500	0,5	0,120950
25,216833	0,5	0,123000
25,225167	0,5	0,121350
25,233500	0,5	0,123350
25,241833	0,5	0,124150
25,250167	0,5	0,126450
25,258500	0,5	0,127700
25,266833	0,5	0,125150
25,275167	0,5	0,127800
25,283500	0,5	0,128250
25,291833	0,5	0,132250
25,300167	0,5	0,134850
25,308500	0,5	0,138500
25,316833	0,5	0,139950
25,325167	0,5	0,142950
25,333500	0,5	0,146350
25,341833	0,5	0,152050
25,350167	0,5	0,151800
25,358500	0,5	0,156400
25,366833	0,5	0,156700
25,375167	0,5	0,156700
25,383500	0,5	0,159950
25,391833	0,5	0,161500
25,400167	0,5	0,163100
25,408500	0,5	0,160800
25,416833	0,5	0,159350
25,425167	0,5	0,158150
25,433500	0,5	0,160500
25,441833	0,5	0,157000
25,450167	0,5	0,159850
25,458500	0,5	0,160050
25,466833	0,5	0,160800
25,475167	0,5	0,164200
25,483500	0,5	0,162550
25,491833	0,5	0,165750
25,500167	0,5	0,167950
25,508500	0,5	0,168450
25,516833	0,5	0,171650
25,525167	0,5	0,174050
25,533500	0,5	0,175600
25,541833	0,5	0,178700
25,550167	0,5	0,177450
25,558500	0,5	0,176550
25,566833	0,5	0,175650
25,575167	0,5	0,178200
25,583500	0,5	0,179250
25,591833	0,5	0,179400
25,600167	0,5	0,183050
25,608500	0,5	0,182000
25,616833	0,5	0,176850
25,625167	0,5	0,178550
25,633500	0,5	0,180000
25,641833	0,5	0,177600
25,650167	0,5	0,176500
25,658500	0,5	0,175000
25,666833	0,5	0,181000
25,675167	0,5	0,180500
25,683500	0,5	0,184150
25,691833	0,5	0,179850
25,700167	0,5	0,183200
25,708500	0,5	0,185750
25,716833	0,5	0,188700
25,725167	0,5	0,188750
25,733500	0,5	0,189400
25,741833	0,5	0,189100
25,750167	0,5	0,190700
25,758500	0,5	0,188100
25,766833	0,5	0,189900
25,775167	0,5	0,190850
25,783500	0,5	0,186450
25,791833	0,5	0,189950
25,800167	0,5	0,190050
25,808500	0,5	0,189100
25,816833	0,5	0,191150
25,825167	0,5	0,190400
25,833500	0,5	0,185100
25,841833	0,5	0,184600
25,850167	0,5	0,189350
25,858500	0,5	0,188300
25,866833	0,5	0,194750
25,875167	0,5	0,193400
25,883500	0,5	0,193200
25,891833	0,5	0,195450
25,900167	0,5	0,195400
25,908500	0,5	0,196600
25,916833	0,5	0,199550
25,925167	0,5	0,196750
25,933500	0,5	0,203550
25,941833	0,5	0,199300
25,950167	0,5	0,201700
25,958500	0,5	0,197650
25,966833	0,5	0,205000
25,975167	0,5	0,202900
25,983500	0,5	0,203200
25,991833	0,5	0,203400
26,000167	0,5	0,209350
