File Path	chrom://chromeleon01/ikbm_chromeleon/2022/ICS-5000/ED1/Esteban/20220612_Cell_7_4_eg.seq/785.smp/ED_1.channel/ED_1.chm
Channel	ED_1

Injection Information:
Data Vault	ikbm_chromeleon
Injection	7_04h-EGS_1
Injection Number	85
Position	GD2
Comment	
Processing Method	Stop sequence after Cell Death
Instrument Method	ICS5000_PA200_FullNative_Ox_26min_ED1
Type	Unknown
Status	Finished
Injection Date	14.06.2022
Injection Time	08:05:27
Injection Volume (µl)	5,0
Dilution Factor	1,0000
Weight	1,0000

Chromatogram Data Information:
Time Min. (min)	0,000333
Time Max. (min)	26,000333
Data Points	3121
Detector	EDet1
Generating Data System	Chromeleon 7.2.9.11323
Exporting Data System	Chromeleon 7.2.9.0
Operator	Instrument Controller
Signal Quantity	
Signal Unit	nC
Signal Min.	-2,279700
Signal Max.	922,705764
Channel	ED_1
Driver Name	DC-5000
Channel Type	Evaluation
Min. Step (s)	0,5
Max. Step (s)	0,5
Average Step (s)	0,5

Signal Parameter Information:
Signal Info	

Chromatogram Data:
Time (min)	Step (s)	Value (nC)
0,000333	n.a.	-0,016450
0,008667	0,5	-0,089450
0,017000	0,5	-0,083550
0,025333	0,5	-0,071350
0,033667	0,5	-0,062350
0,042000	0,5	-0,049750
0,050333	0,5	-0,045800
0,058667	0,5	-0,039150
0,067000	0,5	-0,056100
0,075333	0,5	-0,028450
0,083667	0,5	-0,019150
0,092000	0,5	-0,040100
0,100333	0,5	-0,057300
0,108667	0,5	-0,046500
0,117000	0,5	-0,028250
0,125333	0,5	-0,003450
0,133667	0,5	-0,002650
0,142000	0,5	-0,011350
0,150333	0,5	-0,008800
0,158667	0,5	-0,012400
0,167000	0,5	-0,013000
0,175333	0,5	-0,014500
0,183667	0,5	-0,015650
0,192000	0,5	-0,024150
0,200333	0,5	-0,017400
0,208667	0,5	-0,021400
0,217000	0,5	-0,031850
0,225333	0,5	-0,016450
0,233667	0,5	-0,008900
0,242000	0,5	-0,031200
0,250333	0,5	-0,035350
0,258667	0,5	-0,027300
0,267000	0,5	-0,002500
0,275333	0,5	0,007750
0,283667	0,5	-0,007750
0,292000	0,5	0,001700
0,300333	0,5	0,040200
0,308667	0,5	0,059250
0,317000	0,5	0,037750
0,325333	0,5	-0,000050
0,333667	0,5	-0,027850
0,342000	0,5	-0,030050
0,350333	0,5	-0,027300
0,358667	0,5	-0,020800
0,367000	0,5	-0,031700
0,375333	0,5	-0,002800
0,383667	0,5	-0,016600
0,392000	0,5	-0,020700
0,400333	0,5	-0,026350
0,408667	0,5	-0,013450
0,417000	0,5	0,011200
0,425333	0,5	0,013100
0,433667	0,5	0,000650
0,442000	0,5	0,016700
0,450333	0,5	0,013150
0,458667	0,5	0,018650
0,467000	0,5	0,011900
0,475333	0,5	0,012850
0,483667	0,5	0,010350
0,492000	0,5	0,012400
0,500333	0,5	0,018700
0,508667	0,5	-0,000850
0,517000	0,5	-0,004550
0,525333	0,5	0,024600
0,533667	0,5	0,005150
0,542000	0,5	0,003050
0,550333	0,5	0,016150
0,558667	0,5	0,024300
0,567000	0,5	0,069150
0,575333	0,5	0,052550
0,583667	0,5	0,055450
0,592000	0,5	0,051050
0,600333	0,5	0,066300
0,608667	0,5	0,060450
0,617000	0,5	0,065750
0,625333	0,5	0,059400
0,633667	0,5	0,062100
0,642000	0,5	0,065150
0,650333	0,5	0,067000
0,658667	0,5	0,064150
0,667000	0,5	0,065300
0,675333	0,5	0,081000
0,683667	0,5	0,062700
0,692000	0,5	0,069900
0,700333	0,5	0,070000
0,708667	0,5	0,090450
0,717000	0,5	0,117900
0,725333	0,5	0,121650
0,733667	0,5	0,111650
0,742000	0,5	0,120800
0,750333	0,5	0,112900
0,758667	0,5	0,123950
0,767000	0,5	0,117850
0,775333	0,5	0,123800
0,783667	0,5	0,118950
0,792000	0,5	0,128600
0,800333	0,5	0,130750
0,808667	0,5	0,132200
0,817000	0,5	0,138550
0,825333	0,5	0,143600
0,833667	0,5	0,120450
0,842000	0,5	0,129950
0,850333	0,5	0,138000
0,858667	0,5	0,160800
0,867000	0,5	0,186750
0,875333	0,5	0,181700
0,883667	0,5	0,189600
0,892000	0,5	0,185950
0,900333	0,5	0,192650
0,908667	0,5	0,187050
0,917000	0,5	0,193750
0,925333	0,5	0,189050
0,933667	0,5	0,194950
0,942000	0,5	0,191500
0,950333	0,5	0,185400
0,958667	0,5	0,177350
0,967000	0,5	0,207900
0,975333	0,5	0,198350
0,983667	0,5	0,191000
0,992000	0,5	0,196550
1,000333	0,5	0,213000
1,008667	0,5	0,237800
1,017000	0,5	0,243250
1,025333	0,5	0,244400
1,033667	0,5	0,242000
1,042000	0,5	0,245650
1,050333	0,5	0,245300
1,058667	0,5	0,249050
1,067000	0,5	0,244850
1,075333	0,5	0,248300
1,083667	0,5	0,245700
1,092000	0,5	0,253400
1,100333	0,5	0,244250
1,108667	0,5	0,258100
1,117000	0,5	0,272350
1,125333	0,5	0,261000
1,133667	0,5	0,247850
1,142000	0,5	0,259600
1,150333	0,5	0,268000
1,158667	0,5	0,299100
1,167000	0,5	0,295250
1,175333	0,5	0,301100
1,183667	0,5	0,298750
1,192000	0,5	0,303700
1,200333	0,5	0,301400
1,208667	0,5	0,307900
1,217000	0,5	0,306300
1,225333	0,5	0,301050
1,233667	0,5	0,307400
1,242000	0,5	0,311900
1,250333	0,5	0,311900
1,258667	0,5	0,322950
1,267000	0,5	0,333450
1,275333	0,5	0,312900
1,283667	0,5	0,313450
1,292000	0,5	0,320400
1,300333	0,5	0,345300
1,308667	0,5	0,354850
1,317000	0,5	0,348250
1,325333	0,5	0,346650
1,333667	0,5	0,355050
1,342000	0,5	0,352750
1,350333	0,5	0,361300
1,358667	0,5	0,356450
1,367000	0,5	0,358650
1,375333	0,5	0,354300
1,383667	0,5	0,354300
1,392000	0,5	0,362700
1,400333	0,5	0,350100
1,408667	0,5	0,371500
1,417000	0,5	0,366950
1,425333	0,5	0,355050
1,433667	0,5	0,351250
1,442000	0,5	0,360750
1,450333	0,5	0,380050
1,458667	0,5	0,390550
1,467000	0,5	0,371400
1,475333	0,5	0,380750
1,483667	0,5	0,378400
1,492000	0,5	0,384550
1,500333	0,5	0,376300
1,508667	0,5	0,378750
1,517000	0,5	0,365150
1,525333	0,5	0,365700
1,533667	0,5	0,370000
1,542000	0,5	0,362550
1,550333	0,5	0,353550
1,558667	0,5	0,406950
1,567000	0,5	0,477750
1,575333	0,5	0,663000
1,583667	0,5	0,933300
1,592000	0,5	2,353400
1,600333	0,5	10,067150
1,608667	0,5	39,570451
1,617000	0,5	131,205602
1,625333	0,5	339,919305
1,633667	0,5	635,869309
1,642000	0,5	871,675363
1,650333	0,5	922,705764
1,658667	0,5	795,991912
1,667000	0,5	593,156209
1,675333	0,5	413,832006
1,683667	0,5	289,024754
1,692000	0,5	208,845453
1,700333	0,5	158,351552
1,708667	0,5	126,976352
1,717000	0,5	107,511102
1,725333	0,5	94,226451
1,733667	0,5	83,355051
1,742000	0,5	73,952001
1,750333	0,5	66,032201
1,758667	0,5	59,188901
1,767000	0,5	53,455601
1,775333	0,5	49,780501
1,783667	0,5	49,118401
1,792000	0,5	51,191351
1,800333	0,5	54,355001
1,808667	0,5	56,928051
1,817000	0,5	57,861301
1,825333	0,5	56,806251
1,833667	0,5	54,100251
1,842000	0,5	50,717951
1,850333	0,5	47,416451
1,858667	0,5	44,450101
1,867000	0,5	41,776401
1,875333	0,5	39,463201
1,883667	0,5	37,493951
1,892000	0,5	35,973551
1,900333	0,5	34,836251
1,908667	0,5	33,901901
1,917000	0,5	33,000700
1,925333	0,5	32,179050
1,933667	0,5	31,669000
1,942000	0,5	31,552450
1,950333	0,5	31,413700
1,958667	0,5	30,723400
1,967000	0,5	29,586300
1,975333	0,5	28,474650
1,983667	0,5	27,750650
1,992000	0,5	27,444150
2,000333	0,5	27,655300
2,008667	0,5	27,682800
2,017000	0,5	30,604600
2,025333	0,5	33,334850
2,033667	0,5	35,914301
2,042000	0,5	38,240651
2,050333	0,5	41,389201
2,058667	0,5	45,610001
2,067000	0,5	48,984201
2,075333	0,5	49,032751
2,083667	0,5	45,546451
2,092000	0,5	40,498351
2,100333	0,5	35,868001
2,108667	0,5	32,492000
2,117000	0,5	30,670300
2,125333	0,5	30,584900
2,133667	0,5	31,838450
2,142000	0,5	33,131800
2,150333	0,5	33,139450
2,158667	0,5	31,588900
2,167000	0,5	29,290350
2,175333	0,5	27,100600
2,183667	0,5	25,399100
2,192000	0,5	24,179900
2,200333	0,5	23,234550
2,208667	0,5	22,535600
2,217000	0,5	22,003400
2,225333	0,5	21,698450
2,233667	0,5	21,602200
2,242000	0,5	21,599350
2,250333	0,5	21,533050
2,258667	0,5	21,515100
2,267000	0,5	21,673050
2,275333	0,5	21,836250
2,283667	0,5	21,665450
2,292000	0,5	21,171600
2,300333	0,5	20,613750
2,308667	0,5	20,181600
2,317000	0,5	19,943400
2,325333	0,5	19,837450
2,333667	0,5	19,846450
2,342000	0,5	19,978600
2,350333	0,5	20,218700
2,358667	0,5	20,541150
2,367000	0,5	20,925150
2,375333	0,5	21,324850
2,383667	0,5	21,718500
2,392000	0,5	22,009800
2,400333	0,5	22,168000
2,408667	0,5	22,290900
2,417000	0,5	22,958750
2,425333	0,5	24,143950
2,433667	0,5	24,054700
2,442000	0,5	22,611200
2,450333	0,5	21,342650
2,458667	0,5	20,605150
2,467000	0,5	20,192650
2,475333	0,5	19,919200
2,483667	0,5	19,720950
2,492000	0,5	19,557000
2,500333	0,5	19,393900
2,508667	0,5	19,268500
2,517000	0,5	19,149050
2,525333	0,5	19,031900
2,533667	0,5	18,915300
2,542000	0,5	18,815200
2,550333	0,5	18,721350
2,558667	0,5	18,678600
2,567000	0,5	18,684500
2,575333	0,5	18,801450
2,583667	0,5	19,074000
2,592000	0,5	19,677350
2,600333	0,5	20,578300
2,608667	0,5	21,761500
2,617000	0,5	22,996800
2,625333	0,5	24,025500
2,633667	0,5	24,640600
2,642000	0,5	24,720650
2,650333	0,5	24,324650
2,658667	0,5	23,648800
2,667000	0,5	22,960500
2,675333	0,5	22,538800
2,683667	0,5	22,623200
2,692000	0,5	23,391600
2,700333	0,5	25,022650
2,708667	0,5	27,703700
2,717000	0,5	31,669200
2,725333	0,5	36,824551
2,733667	0,5	42,552651
2,742000	0,5	47,611201
2,750333	0,5	50,710601
2,758667	0,5	51,280701
2,767000	0,5	49,488351
2,775333	0,5	45,985801
2,783667	0,5	41,513651
2,792000	0,5	36,782301
2,800333	0,5	32,420600
2,808667	0,5	28,850050
2,817000	0,5	26,308700
2,825333	0,5	24,881450
2,833667	0,5	24,653400
2,842000	0,5	25,640900
2,850333	0,5	27,631500
2,858667	0,5	30,084100
2,867000	0,5	32,169100
2,875333	0,5	33,166000
2,883667	0,5	32,698100
2,892000	0,5	30,853100
2,900333	0,5	28,121550
2,908667	0,5	25,155250
2,917000	0,5	22,432350
2,925333	0,5	20,244850
2,933667	0,5	18,595850
2,942000	0,5	17,407450
2,950333	0,5	16,544550
2,958667	0,5	15,929250
2,967000	0,5	15,458600
2,975333	0,5	15,095950
2,983667	0,5	14,799500
2,992000	0,5	14,556550
3,000333	0,5	14,360550
3,008667	0,5	14,227550
3,017000	0,5	14,187650
3,025333	0,5	14,257950
3,033667	0,5	14,494250
3,042000	0,5	14,796800
3,050333	0,5	15,080200
3,058667	0,5	15,231000
3,067000	0,5	15,149900
3,075333	0,5	14,832300
3,083667	0,5	14,353300
3,092000	0,5	13,806050
3,100333	0,5	13,331850
3,108667	0,5	12,934700
3,117000	0,5	12,641500
3,125333	0,5	12,409300
3,133667	0,5	12,246250
3,142000	0,5	12,126850
3,150333	0,5	12,065000
3,158667	0,5	12,044800
3,167000	0,5	12,069350
3,175333	0,5	12,163800
3,183667	0,5	12,419650
3,192000	0,5	12,809100
3,200333	0,5	13,449900
3,208667	0,5	14,276600
3,217000	0,5	15,081350
3,225333	0,5	15,628950
3,233667	0,5	15,652400
3,242000	0,5	15,195250
3,250333	0,5	14,375950
3,258667	0,5	13,439850
3,267000	0,5	12,564600
3,275333	0,5	11,881800
3,283667	0,5	11,385150
3,292000	0,5	11,065100
3,300333	0,5	10,849250
3,308667	0,5	10,710700
3,317000	0,5	10,607400
3,325333	0,5	10,547050
3,333667	0,5	10,500750
3,342000	0,5	10,434000
3,350333	0,5	10,371400
3,358667	0,5	10,313350
3,367000	0,5	10,262550
3,375333	0,5	10,230950
3,383667	0,5	10,194100
3,392000	0,5	10,186300
3,400333	0,5	10,196100
3,408667	0,5	10,196750
3,417000	0,5	10,185000
3,425333	0,5	10,144300
3,433667	0,5	10,081250
3,442000	0,5	9,989800
3,450333	0,5	9,904800
3,458667	0,5	9,808250
3,467000	0,5	9,725250
3,475333	0,5	9,650150
3,483667	0,5	9,588600
3,492000	0,5	9,509600
3,500333	0,5	9,457700
3,508667	0,5	9,420400
3,517000	0,5	9,398100
3,525333	0,5	9,368150
3,533667	0,5	9,313650
3,542000	0,5	9,264900
3,550333	0,5	9,219900
3,558667	0,5	9,175200
3,567000	0,5	9,135650
3,575333	0,5	9,096750
3,583667	0,5	9,044800
3,592000	0,5	9,002850
3,600333	0,5	8,946350
3,608667	0,5	8,889250
3,617000	0,5	8,827650
3,625333	0,5	8,804150
3,633667	0,5	8,758250
3,642000	0,5	8,729750
3,650333	0,5	8,712750
3,658667	0,5	8,716950
3,667000	0,5	8,722950
3,675333	0,5	8,717250
3,683667	0,5	8,688450
3,692000	0,5	8,669500
3,700333	0,5	8,632650
3,708667	0,5	8,601400
3,717000	0,5	8,569500
3,725333	0,5	8,538400
3,733667	0,5	8,509450
3,742000	0,5	8,484000
3,750333	0,5	8,459650
3,758667	0,5	8,421600
3,767000	0,5	8,398500
3,775333	0,5	8,382550
3,783667	0,5	8,341750
3,792000	0,5	8,310600
3,800333	0,5	8,281850
3,808667	0,5	8,264450
3,817000	0,5	8,252550
3,825333	0,5	8,219600
3,833667	0,5	8,189800
3,842000	0,5	8,145800
3,850333	0,5	8,110900
3,858667	0,5	8,060950
3,867000	0,5	8,024450
3,875333	0,5	7,976800
3,883667	0,5	7,940600
3,892000	0,5	7,908750
3,900333	0,5	7,873100
3,908667	0,5	7,835950
3,917000	0,5	7,821500
3,925333	0,5	7,789550
3,933667	0,5	7,746150
3,942000	0,5	7,713350
3,950333	0,5	7,689250
3,958667	0,5	7,683800
3,967000	0,5	7,669200
3,975333	0,5	7,649800
3,983667	0,5	7,618650
3,992000	0,5	7,603750
4,000333	0,5	7,576450
4,008667	0,5	7,558250
4,017000	0,5	7,534100
4,025333	0,5	7,521050
4,033667	0,5	7,503650
4,042000	0,5	7,489550
4,050333	0,5	7,470250
4,058667	0,5	7,448100
4,067000	0,5	7,448500
4,075333	0,5	7,426150
4,083667	0,5	7,404750
4,092000	0,5	7,395150
4,100333	0,5	7,383000
4,108667	0,5	7,393600
4,117000	0,5	7,376750
4,125333	0,5	7,358300
4,133667	0,5	7,349350
4,142000	0,5	7,337150
4,150333	0,5	7,329450
4,158667	0,5	7,318400
4,167000	0,5	7,319000
4,175333	0,5	7,319900
4,183667	0,5	7,345600
4,192000	0,5	7,384500
4,200333	0,5	7,439100
4,208667	0,5	7,516250
4,217000	0,5	7,656350
4,225333	0,5	7,770200
4,233667	0,5	7,919800
4,242000	0,5	8,071250
4,250333	0,5	8,217700
4,258667	0,5	8,344200
4,267000	0,5	8,394500
4,275333	0,5	8,411850
4,283667	0,5	8,386400
4,292000	0,5	8,322100
4,300333	0,5	8,234450
4,308667	0,5	8,149800
4,317000	0,5	8,071350
4,325333	0,5	8,020500
4,333667	0,5	7,984700
4,342000	0,5	7,967650
4,350333	0,5	7,941000
4,358667	0,5	7,922000
4,367000	0,5	7,898950
4,375333	0,5	7,820550
4,383667	0,5	7,729100
4,392000	0,5	7,635850
4,400333	0,5	7,531600
4,408667	0,5	7,442500
4,417000	0,5	7,323900
4,425333	0,5	7,234400
4,433667	0,5	7,152800
4,442000	0,5	7,096600
4,450333	0,5	7,044400
4,458667	0,5	7,005550
4,467000	0,5	6,971650
4,475333	0,5	6,948500
4,483667	0,5	6,933550
4,492000	0,5	6,915550
4,500333	0,5	6,904550
4,508667	0,5	6,902300
4,517000	0,5	6,903500
4,525333	0,5	6,880600
4,533667	0,5	6,874450
4,542000	0,5	6,871850
4,550333	0,5	6,878000
4,558667	0,5	6,879050
4,567000	0,5	6,865500
4,575333	0,5	6,847000
4,583667	0,5	6,849750
4,592000	0,5	6,840650
4,600333	0,5	6,847450
4,608667	0,5	6,846950
4,617000	0,5	6,858100
4,625333	0,5	6,876700
4,633667	0,5	6,902950
4,642000	0,5	6,936550
4,650333	0,5	6,966050
4,658667	0,5	7,010050
4,667000	0,5	7,031750
4,675333	0,5	7,037100
4,683667	0,5	7,042550
4,692000	0,5	7,036700
4,700333	0,5	7,022350
4,708667	0,5	6,998300
4,717000	0,5	6,951300
4,725333	0,5	6,915000
4,733667	0,5	6,869200
4,742000	0,5	6,838550
4,750333	0,5	6,806000
4,758667	0,5	6,787550
4,767000	0,5	6,766800
4,775333	0,5	6,758150
4,783667	0,5	6,748250
4,792000	0,5	6,733650
4,800333	0,5	6,730800
4,808667	0,5	6,743850
4,817000	0,5	6,729900
4,825333	0,5	6,721450
4,833667	0,5	6,720250
4,842000	0,5	6,726150
4,850333	0,5	6,733200
4,858667	0,5	6,721050
4,867000	0,5	6,708300
4,875333	0,5	6,693000
4,883667	0,5	6,682400
4,892000	0,5	6,658400
4,900333	0,5	6,641850
4,908667	0,5	6,613900
4,917000	0,5	6,590850
4,925333	0,5	6,558200
4,933667	0,5	6,522300
4,942000	0,5	6,468900
4,950333	0,5	6,434700
4,958667	0,5	6,392400
4,967000	0,5	6,338050
4,975333	0,5	6,297550
4,983667	0,5	6,264550
4,992000	0,5	6,252850
5,000333	0,5	6,237450
5,008667	0,5	6,215200
5,017000	0,5	6,202550
5,025333	0,5	6,191200
5,033667	0,5	6,176950
5,042000	0,5	6,171250
5,050333	0,5	6,160750
5,058667	0,5	6,154450
5,067000	0,5	6,143800
5,075333	0,5	6,138200
5,083667	0,5	6,117550
5,092000	0,5	6,097550
5,100333	0,5	6,092750
5,108667	0,5	6,072750
5,117000	0,5	6,044200
5,125333	0,5	6,031650
5,133667	0,5	6,015750
5,142000	0,5	6,018550
5,150333	0,5	6,000800
5,158667	0,5	5,984000
5,167000	0,5	5,968400
5,175333	0,5	5,962800
5,183667	0,5	5,947550
5,192000	0,5	5,933550
5,200333	0,5	5,917950
5,208667	0,5	5,903200
5,217000	0,5	5,892100
5,225333	0,5	5,878300
5,233667	0,5	5,866300
5,242000	0,5	5,844150
5,250333	0,5	5,850550
5,258667	0,5	5,820000
5,267000	0,5	5,804050
5,275333	0,5	5,787950
5,283667	0,5	5,782800
5,292000	0,5	5,793150
5,300333	0,5	5,780900
5,308667	0,5	5,765500
5,317000	0,5	5,768150
5,325333	0,5	5,763100
5,333667	0,5	5,762900
5,342000	0,5	5,756000
5,350333	0,5	5,755600
5,358667	0,5	5,755700
5,367000	0,5	5,756250
5,375333	0,5	5,760900
5,383667	0,5	5,750200
5,392000	0,5	5,736750
5,400333	0,5	5,737150
5,408667	0,5	5,704450
5,417000	0,5	5,679200
5,425333	0,5	5,656700
5,433667	0,5	5,640900
5,442000	0,5	5,636300
5,450333	0,5	5,603450
5,458667	0,5	5,589400
5,467000	0,5	5,572100
5,475333	0,5	5,568400
5,483667	0,5	5,554800
5,492000	0,5	5,556150
5,500333	0,5	5,545400
5,508667	0,5	5,537450
5,517000	0,5	5,527850
5,525333	0,5	5,508900
5,533667	0,5	5,486500
5,542000	0,5	5,472750
5,550333	0,5	5,454400
5,558667	0,5	5,421850
5,567000	0,5	5,400150
5,575333	0,5	5,378600
5,583667	0,5	5,370700
5,592000	0,5	5,357000
5,600333	0,5	5,337950
5,608667	0,5	5,314500
5,617000	0,5	5,301300
5,625333	0,5	5,283950
5,633667	0,5	5,272000
5,642000	0,5	5,255700
5,650333	0,5	5,244450
5,658667	0,5	5,227500
5,667000	0,5	5,215600
5,675333	0,5	5,197100
5,683667	0,5	5,183250
5,692000	0,5	5,174250
5,700333	0,5	5,160950
5,708667	0,5	5,135950
5,717000	0,5	5,130600
5,725333	0,5	5,127650
5,733667	0,5	5,148200
5,742000	0,5	5,171650
5,750333	0,5	5,197650
5,758667	0,5	5,237500
5,767000	0,5	5,299800
5,775333	0,5	5,371950
5,783667	0,5	5,443850
5,792000	0,5	5,505900
5,800333	0,5	5,544000
5,808667	0,5	5,559750
5,817000	0,5	5,541750
5,825333	0,5	5,504850
5,833667	0,5	5,454800
5,842000	0,5	5,433800
5,850333	0,5	5,410850
5,858667	0,5	5,428450
5,867000	0,5	5,496700
5,875333	0,5	5,629200
5,883667	0,5	5,831200
5,892000	0,5	6,098200
5,900333	0,5	6,430750
5,908667	0,5	6,827000
5,917000	0,5	7,248450
5,925333	0,5	7,663100
5,933667	0,5	8,007700
5,942000	0,5	8,247950
5,950333	0,5	8,349900
5,958667	0,5	8,300650
5,967000	0,5	8,117400
5,975333	0,5	7,811900
5,983667	0,5	7,451600
5,992000	0,5	7,055550
6,000333	0,5	6,647950
6,008667	0,5	6,273400
6,017000	0,5	5,959700
6,025333	0,5	5,692700
6,033667	0,5	5,487700
6,042000	0,5	5,302950
6,050333	0,5	5,165050
6,058667	0,5	5,052500
6,067000	0,5	4,969900
6,075333	0,5	4,889900
6,083667	0,5	4,834400
6,092000	0,5	4,783350
6,100333	0,5	4,743750
6,108667	0,5	4,711100
6,117000	0,5	4,678050
6,125333	0,5	4,646650
6,133667	0,5	4,634300
6,142000	0,5	4,611250
6,150333	0,5	4,582900
6,158667	0,5	4,567450
6,167000	0,5	4,551600
6,175333	0,5	4,550950
6,183667	0,5	4,533900
6,192000	0,5	4,522100
6,200333	0,5	4,504850
6,208667	0,5	4,501250
6,217000	0,5	4,487950
6,225333	0,5	4,477900
6,233667	0,5	4,469550
6,242000	0,5	4,460500
6,250333	0,5	4,454050
6,258667	0,5	4,447150
6,267000	0,5	4,451200
6,275333	0,5	4,439000
6,283667	0,5	4,446400
6,292000	0,5	4,434650
6,300333	0,5	4,424900
6,308667	0,5	4,414650
6,317000	0,5	4,415550
6,325333	0,5	4,419050
6,333667	0,5	4,412000
6,342000	0,5	4,398750
6,350333	0,5	4,396650
6,358667	0,5	4,386250
6,367000	0,5	4,377650
6,375333	0,5	4,363550
6,383667	0,5	4,352750
6,392000	0,5	4,341850
6,400333	0,5	4,336400
6,408667	0,5	4,323450
6,417000	0,5	4,316200
6,425333	0,5	4,306050
6,433667	0,5	4,309500
6,442000	0,5	4,290350
6,450333	0,5	4,288850
6,458667	0,5	4,287000
6,467000	0,5	4,286950
6,475333	0,5	4,299800
6,483667	0,5	4,289550
6,492000	0,5	4,290550
6,500333	0,5	4,281450
6,508667	0,5	4,275950
6,517000	0,5	4,265950
6,525333	0,5	4,259150
6,533667	0,5	4,249000
6,542000	0,5	4,243150
6,550333	0,5	4,234300
6,558667	0,5	4,223400
6,567000	0,5	4,207700
6,575333	0,5	4,204000
6,583667	0,5	4,198900
6,592000	0,5	4,182250
6,600333	0,5	4,173700
6,608667	0,5	4,167950
6,617000	0,5	4,168550
6,625333	0,5	4,169600
6,633667	0,5	4,163400
6,642000	0,5	4,156850
6,650333	0,5	4,151250
6,658667	0,5	4,147150
6,667000	0,5	4,142050
6,675333	0,5	4,137400
6,683667	0,5	4,128750
6,692000	0,5	4,124950
6,700333	0,5	4,123600
6,708667	0,5	4,115650
6,717000	0,5	4,114000
6,725333	0,5	4,126600
6,733667	0,5	4,125150
6,742000	0,5	4,123500
6,750333	0,5	4,131050
6,758667	0,5	4,136650
6,767000	0,5	4,154550
6,775333	0,5	4,162050
6,783667	0,5	4,160050
6,792000	0,5	4,157050
6,800333	0,5	4,152400
6,808667	0,5	4,139400
6,817000	0,5	4,131250
6,825333	0,5	4,122450
6,833667	0,5	4,108600
6,842000	0,5	4,105400
6,850333	0,5	4,106450
6,858667	0,5	4,119350
6,867000	0,5	4,141300
6,875333	0,5	4,186500
6,883667	0,5	4,223350
6,892000	0,5	4,264750
6,900333	0,5	4,300800
6,908667	0,5	4,326900
6,917000	0,5	4,340550
6,925333	0,5	4,326800
6,933667	0,5	4,303400
6,942000	0,5	4,291300
6,950333	0,5	4,284350
6,958667	0,5	4,304300
6,967000	0,5	4,339800
6,975333	0,5	4,398750
6,983667	0,5	4,483300
6,992000	0,5	4,579200
7,000333	0,5	4,697500
7,008667	0,5	4,813850
7,017000	0,5	4,940250
7,025333	0,5	5,059600
7,033667	0,5	5,147150
7,042000	0,5	5,207900
7,050333	0,5	5,243500
7,058667	0,5	5,244000
7,067000	0,5	5,206300
7,075333	0,5	5,123100
7,083667	0,5	5,018300
7,092000	0,5	4,888750
7,100333	0,5	4,754900
7,108667	0,5	4,614800
7,117000	0,5	4,499050
7,125333	0,5	4,386100
7,133667	0,5	4,299250
7,142000	0,5	4,232100
7,150333	0,5	4,181650
7,158667	0,5	4,140950
7,167000	0,5	4,124100
7,175333	0,5	4,110450
7,183667	0,5	4,096250
7,192000	0,5	4,090000
7,200333	0,5	4,084250
7,208667	0,5	4,087100
7,217000	0,5	4,076900
7,225333	0,5	4,051400
7,233667	0,5	4,021150
7,242000	0,5	3,987300
7,250333	0,5	3,945450
7,258667	0,5	3,914900
7,267000	0,5	3,879850
7,275333	0,5	3,852950
7,283667	0,5	3,823150
7,292000	0,5	3,804950
7,300333	0,5	3,784650
7,308667	0,5	3,772650
7,317000	0,5	3,771250
7,325333	0,5	3,758900
7,333667	0,5	3,757800
7,342000	0,5	3,761200
7,350333	0,5	3,768300
7,358667	0,5	3,796750
7,367000	0,5	3,818900
7,375333	0,5	3,846000
7,383667	0,5	3,889900
7,392000	0,5	3,938700
7,400333	0,5	4,000400
7,408667	0,5	4,079100
7,417000	0,5	4,193100
7,425333	0,5	4,345800
7,433667	0,5	4,551100
7,442000	0,5	4,790000
7,450333	0,5	5,027300
7,458667	0,5	5,219450
7,467000	0,5	5,322100
7,475333	0,5	5,279900
7,483667	0,5	5,123350
7,492000	0,5	4,874450
7,500333	0,5	4,603100
7,508667	0,5	4,345550
7,517000	0,5	4,113750
7,525333	0,5	3,935000
7,533667	0,5	3,803150
7,542000	0,5	3,714100
7,550333	0,5	3,649450
7,558667	0,5	3,601650
7,567000	0,5	3,566150
7,575333	0,5	3,546200
7,583667	0,5	3,528300
7,592000	0,5	3,527350
7,600333	0,5	3,545350
7,608667	0,5	3,581150
7,617000	0,5	3,643750
7,625333	0,5	3,696000
7,633667	0,5	3,726650
7,642000	0,5	3,721900
7,650333	0,5	3,686700
7,658667	0,5	3,629850
7,667000	0,5	3,565550
7,675333	0,5	3,514800
7,683667	0,5	3,476450
7,692000	0,5	3,454050
7,700333	0,5	3,435100
7,708667	0,5	3,425300
7,717000	0,5	3,407250
7,725333	0,5	3,390150
7,733667	0,5	3,376500
7,742000	0,5	3,360050
7,750333	0,5	3,350350
7,758667	0,5	3,343250
7,767000	0,5	3,330750
7,775333	0,5	3,314950
7,783667	0,5	3,300700
7,792000	0,5	3,293200
7,800333	0,5	3,293750
7,808667	0,5	3,290050
7,817000	0,5	3,287800
7,825333	0,5	3,286600
7,833667	0,5	3,291750
7,842000	0,5	3,295050
7,850333	0,5	3,301500
7,858667	0,5	3,299000
7,867000	0,5	3,292450
7,875333	0,5	3,277200
7,883667	0,5	3,262550
7,892000	0,5	3,239650
7,900333	0,5	3,222850
7,908667	0,5	3,212250
7,917000	0,5	3,196750
7,925333	0,5	3,186500
7,933667	0,5	3,179750
7,942000	0,5	3,183000
7,950333	0,5	3,184250
7,958667	0,5	3,185050
7,967000	0,5	3,183450
7,975333	0,5	3,184550
7,983667	0,5	3,185850
7,992000	0,5	3,189050
8,000333	0,5	3,188600
8,008667	0,5	3,186000
8,017000	0,5	3,186800
8,025333	0,5	3,189850
8,033667	0,5	3,200200
8,042000	0,5	3,216700
8,050333	0,5	3,254150
8,058667	0,5	3,318900
8,067000	0,5	3,381350
8,075333	0,5	3,420700
8,083667	0,5	3,419700
8,092000	0,5	3,374650
8,100333	0,5	3,305750
8,108667	0,5	3,227500
8,117000	0,5	3,166300
8,125333	0,5	3,119000
8,133667	0,5	3,091200
8,142000	0,5	3,075750
8,150333	0,5	3,061750
8,158667	0,5	3,055350
8,167000	0,5	3,046500
8,175333	0,5	3,041000
8,183667	0,5	3,032500
8,192000	0,5	3,021250
8,200333	0,5	3,013600
8,208667	0,5	3,002500
8,217000	0,5	2,992700
8,225333	0,5	2,982000
8,233667	0,5	2,980550
8,242000	0,5	2,983750
8,250333	0,5	2,989350
8,258667	0,5	2,981950
8,267000	0,5	2,983950
8,275333	0,5	2,983900
8,283667	0,5	2,986500
8,292000	0,5	2,987100
8,300333	0,5	2,986600
8,308667	0,5	2,985850
8,317000	0,5	2,984650
8,325333	0,5	2,981100
8,333667	0,5	2,969450
8,342000	0,5	2,950700
8,350333	0,5	2,940050
8,358667	0,5	2,926900
8,367000	0,5	2,915900
8,375333	0,5	2,909950
8,383667	0,5	2,911100
8,392000	0,5	2,915550
8,400333	0,5	2,919800
8,408667	0,5	2,929550
8,417000	0,5	2,941900
8,425333	0,5	2,961450
8,433667	0,5	2,987100
8,442000	0,5	3,022000
8,450333	0,5	3,074600
8,458667	0,5	3,140450
8,467000	0,5	3,214900
8,475333	0,5	3,274100
8,483667	0,5	3,295950
8,492000	0,5	3,276900
8,500333	0,5	3,229300
8,508667	0,5	3,179050
8,517000	0,5	3,142550
8,525333	0,5	3,119900
8,533667	0,5	3,115000
8,542000	0,5	3,115650
8,550333	0,5	3,120050
8,558667	0,5	3,119100
8,567000	0,5	3,130250
8,575333	0,5	3,148800
8,583667	0,5	3,184200
8,592000	0,5	3,235600
8,600333	0,5	3,321800
8,608667	0,5	3,460250
8,617000	0,5	3,667550
8,625333	0,5	3,949850
8,633667	0,5	4,297550
8,642000	0,5	4,647350
8,650333	0,5	4,937150
8,658667	0,5	5,077750
8,667000	0,5	5,048600
8,675333	0,5	4,855550
8,683667	0,5	4,554200
8,692000	0,5	4,214850
8,700333	0,5	3,899600
8,708667	0,5	3,637350
8,717000	0,5	3,438000
8,725333	0,5	3,297700
8,733667	0,5	3,201050
8,742000	0,5	3,136200
8,750333	0,5	3,091500
8,758667	0,5	3,069150
8,767000	0,5	3,059050
8,775333	0,5	3,064800
8,783667	0,5	3,080700
8,792000	0,5	3,112950
8,800333	0,5	3,163350
8,808667	0,5	3,224650
8,817000	0,5	3,290850
8,825333	0,5	3,339250
8,833667	0,5	3,351050
8,842000	0,5	3,311750
8,850333	0,5	3,251800
8,858667	0,5	3,188800
8,867000	0,5	3,141550
8,875333	0,5	3,115550
8,883667	0,5	3,107600
8,892000	0,5	3,122500
8,900333	0,5	3,154050
8,908667	0,5	3,204600
8,917000	0,5	3,303550
8,925333	0,5	3,455100
8,933667	0,5	3,692900
8,942000	0,5	4,057000
8,950333	0,5	4,613050
8,958667	0,5	5,369400
8,967000	0,5	6,204050
8,975333	0,5	6,887400
8,983667	0,5	7,207750
8,992000	0,5	7,106150
9,000333	0,5	6,680650
9,008667	0,5	6,087850
9,017000	0,5	5,462250
9,025333	0,5	4,897450
9,033667	0,5	4,440200
9,042000	0,5	4,094800
9,050333	0,5	3,851250
9,058667	0,5	3,684400
9,067000	0,5	3,583200
9,075333	0,5	3,532900
9,083667	0,5	3,517700
9,092000	0,5	3,540900
9,100333	0,5	3,580450
9,108667	0,5	3,634500
9,117000	0,5	3,688150
9,125333	0,5	3,743250
9,133667	0,5	3,783300
9,142000	0,5	3,795750
9,150333	0,5	3,763050
9,158667	0,5	3,692450
9,167000	0,5	3,587150
9,175333	0,5	3,474950
9,183667	0,5	3,366400
9,192000	0,5	3,272800
9,200333	0,5	3,198450
9,208667	0,5	3,134150
9,217000	0,5	3,088700
9,225333	0,5	3,051250
9,233667	0,5	3,022850
9,242000	0,5	3,004900
9,250333	0,5	2,991050
9,258667	0,5	2,989350
9,267000	0,5	2,994950
9,275333	0,5	3,014100
9,283667	0,5	3,044850
9,292000	0,5	3,075750
9,300333	0,5	3,107100
9,308667	0,5	3,121850
9,317000	0,5	3,123350
9,325333	0,5	3,108850
9,333667	0,5	3,082650
9,342000	0,5	3,048650
9,350333	0,5	3,015950
9,358667	0,5	2,988800
9,367000	0,5	2,968600
9,375333	0,5	2,955350
9,383667	0,5	2,951100
9,392000	0,5	2,959750
9,400333	0,5	2,979700
9,408667	0,5	3,014800
9,417000	0,5	3,065750
9,425333	0,5	3,113500
9,433667	0,5	3,146200
9,442000	0,5	3,156300
9,450333	0,5	3,144400
9,458667	0,5	3,121200
9,467000	0,5	3,097100
9,475333	0,5	3,075050
9,483667	0,5	3,060500
9,492000	0,5	3,054450
9,500333	0,5	3,053200
9,508667	0,5	3,067800
9,517000	0,5	3,092800
9,525333	0,5	3,134050
9,533667	0,5	3,191300
9,542000	0,5	3,263100
9,550333	0,5	3,332400
9,558667	0,5	3,413300
9,567000	0,5	3,502650
9,575333	0,5	3,609150
9,583667	0,5	3,736900
9,592000	0,5	3,905950
9,600333	0,5	4,109150
9,608667	0,5	4,353050
9,617000	0,5	4,635600
9,625333	0,5	4,944300
9,633667	0,5	5,276650
9,642000	0,5	5,623800
9,650333	0,5	5,987000
9,658667	0,5	6,354100
9,667000	0,5	6,718400
9,675333	0,5	7,066300
9,683667	0,5	7,387100
9,692000	0,5	7,646450
9,700333	0,5	7,798950
9,708667	0,5	7,803550
9,717000	0,5	7,615850
9,725333	0,5	7,219500
9,733667	0,5	6,640900
9,742000	0,5	5,948850
9,750333	0,5	5,241800
9,758667	0,5	4,593500
9,767000	0,5	4,061500
9,775333	0,5	3,664250
9,783667	0,5	3,380500
9,792000	0,5	3,188300
9,800333	0,5	3,058300
9,808667	0,5	2,970950
9,817000	0,5	2,915200
9,825333	0,5	2,874550
9,833667	0,5	2,845800
9,842000	0,5	2,827200
9,850333	0,5	2,811650
9,858667	0,5	2,798750
9,867000	0,5	2,794000
9,875333	0,5	2,801200
9,883667	0,5	2,808450
9,892000	0,5	2,817100
9,900333	0,5	2,832800
9,908667	0,5	2,850250
9,917000	0,5	2,870050
9,925333	0,5	2,889250
9,933667	0,5	2,907000
9,942000	0,5	2,916200
9,950333	0,5	2,905150
9,958667	0,5	2,886550
9,967000	0,5	2,854300
9,975333	0,5	2,820450
9,983667	0,5	2,795200
9,992000	0,5	2,771750
10,000333	0,5	2,752700
10,008667	0,5	2,744700
10,017000	0,5	2,743150
10,025333	0,5	2,763400
10,033667	0,5	2,797600
10,042000	0,5	2,851250
10,050333	0,5	2,913900
10,058667	0,5	2,973000
10,067000	0,5	3,002100
10,075333	0,5	3,001400
10,083667	0,5	2,969750
10,092000	0,5	2,911550
10,100333	0,5	2,853100
10,108667	0,5	2,799850
10,117000	0,5	2,755100
10,125333	0,5	2,718000
10,133667	0,5	2,692850
10,142000	0,5	2,667100
10,150333	0,5	2,642900
10,158667	0,5	2,625450
10,167000	0,5	2,610350
10,175333	0,5	2,593250
10,183667	0,5	2,578100
10,192000	0,5	2,560400
10,200333	0,5	2,544300
10,208667	0,5	2,532400
10,217000	0,5	2,526300
10,225333	0,5	2,530150
10,233667	0,5	2,537550
10,242000	0,5	2,549250
10,250333	0,5	2,559850
10,258667	0,5	2,571400
10,267000	0,5	2,577900
10,275333	0,5	2,583900
10,283667	0,5	2,585100
10,292000	0,5	2,577250
10,300333	0,5	2,558450
10,308667	0,5	2,541350
10,317000	0,5	2,530000
10,325333	0,5	2,528200
10,333667	0,5	2,545200
10,342000	0,5	2,584050
10,350333	0,5	2,637900
10,358667	0,5	2,696700
10,367000	0,5	2,744150
10,375333	0,5	2,769150
10,383667	0,5	2,766500
10,392000	0,5	2,734200
10,400333	0,5	2,689600
10,408667	0,5	2,634600
10,417000	0,5	2,581600
10,425333	0,5	2,539950
10,433667	0,5	2,503100
10,442000	0,5	2,471550
10,450333	0,5	2,440100
10,458667	0,5	2,413550
10,467000	0,5	2,396700
10,475333	0,5	2,382600
10,483667	0,5	2,368850
10,492000	0,5	2,362350
10,500333	0,5	2,360900
10,508667	0,5	2,364950
10,517000	0,5	2,371550
10,525333	0,5	2,382600
10,533667	0,5	2,400950
10,542000	0,5	2,417100
10,550333	0,5	2,437000
10,558667	0,5	2,454200
10,567000	0,5	2,466450
10,575333	0,5	2,473250
10,583667	0,5	2,472050
10,592000	0,5	2,463400
10,600333	0,5	2,453800
10,608667	0,5	2,449450
10,617000	0,5	2,441300
10,625333	0,5	2,428750
10,633667	0,5	2,409000
10,642000	0,5	2,379100
10,650333	0,5	2,335650
10,658667	0,5	2,296350
10,667000	0,5	2,252950
10,675333	0,5	2,213900
10,683667	0,5	2,177850
10,692000	0,5	2,154100
10,700333	0,5	2,132150
10,708667	0,5	2,112850
10,717000	0,5	2,100450
10,725333	0,5	2,092550
10,733667	0,5	2,087950
10,742000	0,5	2,083600
10,750333	0,5	2,074900
10,758667	0,5	2,074900
10,767000	0,5	2,078350
10,775333	0,5	2,083550
10,783667	0,5	2,092750
10,792000	0,5	2,111650
10,800333	0,5	2,127550
10,808667	0,5	2,144500
10,817000	0,5	2,159950
10,825333	0,5	2,171250
10,833667	0,5	2,194600
10,842000	0,5	2,226200
10,850333	0,5	2,271500
10,858667	0,5	2,310600
10,867000	0,5	2,352700
10,875333	0,5	2,371350
10,883667	0,5	2,363950
10,892000	0,5	2,333950
10,900333	0,5	2,294650
10,908667	0,5	2,255400
10,917000	0,5	2,209250
10,925333	0,5	2,158450
10,933667	0,5	2,109400
10,942000	0,5	2,066800
10,950333	0,5	2,032050
10,958667	0,5	2,009250
10,967000	0,5	1,992450
10,975333	0,5	1,984300
10,983667	0,5	1,987300
10,992000	0,5	1,996150
11,000333	0,5	2,014800
11,008667	0,5	2,038800
11,017000	0,5	2,083950
11,025333	0,5	2,125400
11,033667	0,5	2,175250
11,042000	0,5	2,221450
11,050333	0,5	2,271950
11,058667	0,5	2,321800
11,067000	0,5	2,362250
11,075333	0,5	2,384250
11,083667	0,5	2,380350
11,092000	0,5	2,355500
11,100333	0,5	2,314100
11,108667	0,5	2,266550
11,117000	0,5	2,217500
11,125333	0,5	2,168350
11,133667	0,5	2,121700
11,142000	0,5	2,080350
11,150333	0,5	2,044200
11,158667	0,5	2,012200
11,167000	0,5	2,000650
11,175333	0,5	1,989300
11,183667	0,5	1,992900
11,192000	0,5	2,004000
11,200333	0,5	2,036000
11,208667	0,5	2,077600
11,217000	0,5	2,136200
11,225333	0,5	2,207100
11,233667	0,5	2,281150
11,242000	0,5	2,359550
11,250333	0,5	2,424900
11,258667	0,5	2,476000
11,267000	0,5	2,509500
11,275333	0,5	2,533000
11,283667	0,5	2,569900
11,292000	0,5	2,643400
11,300333	0,5	2,778100
11,308667	0,5	3,004250
11,317000	0,5	3,309100
11,325333	0,5	3,659650
11,333667	0,5	3,999300
11,342000	0,5	4,275100
11,350333	0,5	4,446450
11,358667	0,5	4,492200
11,367000	0,5	4,415950
11,375333	0,5	4,252850
11,383667	0,5	4,035000
11,392000	0,5	3,803500
11,400333	0,5	3,586800
11,408667	0,5	3,385000
11,417000	0,5	3,206350
11,425333	0,5	3,046050
11,433667	0,5	2,906500
11,442000	0,5	2,781400
11,450333	0,5	2,679800
11,458667	0,5	2,609700
11,467000	0,5	2,559900
11,475333	0,5	2,524550
11,483667	0,5	2,497600
11,492000	0,5	2,469350
11,500333	0,5	2,438700
11,508667	0,5	2,401350
11,517000	0,5	2,367750
11,525333	0,5	2,333350
11,533667	0,5	2,314150
11,542000	0,5	2,305150
11,550333	0,5	2,307400
11,558667	0,5	2,303850
11,567000	0,5	2,295800
11,575333	0,5	2,268650
11,583667	0,5	2,233550
11,592000	0,5	2,180100
11,600333	0,5	2,128200
11,608667	0,5	2,085900
11,617000	0,5	2,049850
11,625333	0,5	2,023900
11,633667	0,5	2,000200
11,642000	0,5	1,996300
11,650333	0,5	2,009950
11,658667	0,5	2,050200
11,667000	0,5	2,117500
11,675333	0,5	2,200800
11,683667	0,5	2,309050
11,692000	0,5	2,412400
11,700333	0,5	2,498850
11,708667	0,5	2,556250
11,717000	0,5	2,572800
11,725333	0,5	2,551800
11,733667	0,5	2,492950
11,742000	0,5	2,418050
11,750333	0,5	2,335900
11,758667	0,5	2,250150
11,767000	0,5	2,169600
11,775333	0,5	2,101200
11,783667	0,5	2,038450
11,792000	0,5	1,997800
11,800333	0,5	1,963950
11,808667	0,5	1,937600
11,817000	0,5	1,911250
11,825333	0,5	1,888200
11,833667	0,5	1,864500
11,842000	0,5	1,839050
11,850333	0,5	1,821050
11,858667	0,5	1,801550
11,867000	0,5	1,792500
11,875333	0,5	1,782550
11,883667	0,5	1,785400
11,892000	0,5	1,783800
11,900333	0,5	1,798300
11,908667	0,5	1,807500
11,917000	0,5	1,811500
11,925333	0,5	1,814650
11,933667	0,5	1,807800
11,942000	0,5	1,811400
11,950333	0,5	1,813000
11,958667	0,5	1,809000
11,967000	0,5	1,807800
11,975333	0,5	1,809100
11,983667	0,5	1,806700
11,992000	0,5	1,806700
12,000333	0,5	1,806050
12,008667	0,5	1,804000
12,017000	0,5	1,796400
12,025333	0,5	1,793750
12,033667	0,5	1,782800
12,042000	0,5	1,764500
12,050333	0,5	1,756250
12,058667	0,5	1,745850
12,067000	0,5	1,734900
12,075333	0,5	1,730350
12,083667	0,5	1,721550
12,092000	0,5	1,731600
12,100333	0,5	1,732950
12,108667	0,5	1,738200
12,117000	0,5	1,743050
12,125333	0,5	1,746150
12,133667	0,5	1,746400
12,142000	0,5	1,744550
12,150333	0,5	1,739050
12,158667	0,5	1,738450
12,167000	0,5	1,742900
12,175333	0,5	1,745700
12,183667	0,5	1,746300
12,192000	0,5	1,749250
12,200333	0,5	1,756700
12,208667	0,5	1,756250
12,217000	0,5	1,756000
12,225333	0,5	1,753350
12,233667	0,5	1,757400
12,242000	0,5	1,770100
12,250333	0,5	1,791400
12,258667	0,5	1,803650
12,267000	0,5	1,824600
12,275333	0,5	1,840050
12,283667	0,5	1,865800
12,292000	0,5	1,880150
12,300333	0,5	1,891500
12,308667	0,5	1,900850
12,317000	0,5	1,929200
12,325333	0,5	1,986100
12,333667	0,5	2,079050
12,342000	0,5	2,206950
12,350333	0,5	2,328900
12,358667	0,5	2,315850
12,367000	0,5	2,229100
12,375333	0,5	2,084850
12,383667	0,5	1,822350
12,392000	0,5	1,478800
12,400333	0,5	1,113600
12,408667	0,5	0,797950
12,417000	0,5	0,575200
12,425333	0,5	0,432100
12,433667	0,5	0,329800
12,442000	0,5	0,265650
12,450333	0,5	0,217100
12,458667	0,5	0,182700
12,467000	0,5	0,155950
12,475333	0,5	0,125500
12,483667	0,5	0,098900
12,492000	0,5	0,082700
12,500333	0,5	0,065950
12,508667	0,5	0,048450
12,517000	0,5	0,036700
12,525333	0,5	0,025650
12,533667	0,5	0,021550
12,542000	0,5	0,020100
12,550333	0,5	0,015100
12,558667	0,5	0,007450
12,567000	0,5	0,000650
12,575333	0,5	-0,013250
12,583667	0,5	-0,021700
12,592000	0,5	-0,038350
12,600333	0,5	-0,049300
12,608667	0,5	-0,061600
12,617000	0,5	-0,070950
12,625333	0,5	-0,085350
12,633667	0,5	-0,089350
12,642000	0,5	-0,087900
12,650333	0,5	-0,090400
12,658667	0,5	-0,090000
12,667000	0,5	-0,090450
12,675333	0,5	-0,085550
12,683667	0,5	-0,080300
12,692000	0,5	-0,074650
12,700333	0,5	-0,074400
12,708667	0,5	-0,072350
12,717000	0,5	-0,075450
12,725333	0,5	-0,078450
12,733667	0,5	-0,082500
12,742000	0,5	-0,091900
12,750333	0,5	-0,102650
12,758667	0,5	-0,106600
12,767000	0,5	-0,109550
12,775333	0,5	-0,121600
12,783667	0,5	-0,120750
12,792000	0,5	-0,117700
12,800333	0,5	-0,119850
12,808667	0,5	-0,121050
12,817000	0,5	-0,129100
12,825333	0,5	-0,125650
12,833667	0,5	-0,122900
12,842000	0,5	-0,124300
12,850333	0,5	-0,120200
12,858667	0,5	-0,123450
12,867000	0,5	-0,120900
12,875333	0,5	-0,122900
12,883667	0,5	-0,117350
12,892000	0,5	-0,117600
12,900333	0,5	-0,111600
12,908667	0,5	-0,109750
12,917000	0,5	-0,100450
12,925333	0,5	-0,098800
12,933667	0,5	-0,074550
12,942000	0,5	-0,055350
12,950333	0,5	-0,027750
12,958667	0,5	0,007350
12,967000	0,5	0,051900
12,975333	0,5	0,113600
12,983667	0,5	0,188500
12,992000	0,5	0,264200
13,000333	0,5	0,349600
13,008667	0,5	0,435850
13,017000	0,5	0,522250
13,025333	0,5	0,600500
13,033667	0,5	0,670750
13,042000	0,5	0,728600
13,050333	0,5	0,771150
13,058667	0,5	0,805250
13,067000	0,5	0,824150
13,075333	0,5	0,827200
13,083667	0,5	0,836250
13,092000	0,5	0,832000
13,100333	0,5	0,823700
13,108667	0,5	0,815150
13,117000	0,5	0,802500
13,125333	0,5	0,804350
13,133667	0,5	0,802100
13,142000	0,5	0,810150
13,150333	0,5	0,816100
13,158667	0,5	0,833050
13,167000	0,5	0,845600
13,175333	0,5	0,870750
13,183667	0,5	0,890750
13,192000	0,5	0,910300
13,200333	0,5	0,930250
13,208667	0,5	0,960500
13,217000	0,5	0,965600
13,225333	0,5	0,972050
13,233667	0,5	0,971500
13,242000	0,5	0,959900
13,250333	0,5	0,941000
13,258667	0,5	0,914400
13,267000	0,5	0,891300
13,275333	0,5	0,868700
13,283667	0,5	0,850550
13,292000	0,5	0,831550
13,300333	0,5	0,820850
13,308667	0,5	0,808950
13,317000	0,5	0,805550
13,325333	0,5	0,805250
13,333667	0,5	0,809000
13,342000	0,5	0,812250
13,350333	0,5	0,830550
13,358667	0,5	0,853250
13,367000	0,5	0,877850
13,375333	0,5	0,919450
13,383667	0,5	0,968500
13,392000	0,5	1,005300
13,400333	0,5	1,038750
13,408667	0,5	1,056500
13,417000	0,5	1,070400
13,425333	0,5	1,077900
13,433667	0,5	1,061150
13,442000	0,5	1,041500
13,450333	0,5	1,011800
13,458667	0,5	0,981100
13,467000	0,5	0,953600
13,475333	0,5	0,932350
13,483667	0,5	0,921800
13,492000	0,5	0,923700
13,500333	0,5	0,938100
13,508667	0,5	0,962750
13,517000	0,5	0,980700
13,525333	0,5	1,012150
13,533667	0,5	1,030300
13,542000	0,5	1,043950
13,550333	0,5	1,044750
13,558667	0,5	1,050550
13,567000	0,5	1,054050
13,575333	0,5	1,045400
13,583667	0,5	1,034350
13,592000	0,5	1,020600
13,600333	0,5	1,012000
13,608667	0,5	1,003000
13,617000	0,5	1,002250
13,625333	0,5	0,996100
13,633667	0,5	0,992950
13,642000	0,5	0,991350
13,650333	0,5	0,993300
13,658667	0,5	0,982450
13,667000	0,5	0,985300
13,675333	0,5	0,988500
13,683667	0,5	0,987650
13,692000	0,5	0,983650
13,700333	0,5	0,971100
13,708667	0,5	0,966700
13,717000	0,5	0,966600
13,725333	0,5	0,971800
13,733667	0,5	0,978800
13,742000	0,5	0,991150
13,750333	0,5	1,006100
13,758667	0,5	1,024600
13,767000	0,5	1,041750
13,775333	0,5	1,050900
13,783667	0,5	1,055200
13,792000	0,5	1,050600
13,800333	0,5	1,043550
13,808667	0,5	1,021000
13,817000	0,5	1,016350
13,825333	0,5	1,008500
13,833667	0,5	0,997700
13,842000	0,5	0,987300
13,850333	0,5	0,970500
13,858667	0,5	0,972250
13,867000	0,5	0,969000
13,875333	0,5	0,966400
13,883667	0,5	0,964900
13,892000	0,5	0,974850
13,900333	0,5	0,981350
13,908667	0,5	0,988900
13,917000	0,5	0,989550
13,925333	0,5	0,988800
13,933667	0,5	0,988750
13,942000	0,5	0,982950
13,950333	0,5	0,987700
13,958667	0,5	0,980900
13,967000	0,5	0,996800
13,975333	0,5	1,002650
13,983667	0,5	1,006800
13,992000	0,5	1,006150
14,000333	0,5	1,004900
14,008667	0,5	1,010850
14,017000	0,5	1,018600
14,025333	0,5	1,018750
14,033667	0,5	1,024850
14,042000	0,5	1,032850
14,050333	0,5	1,044350
14,058667	0,5	1,053750
14,067000	0,5	1,065650
14,075333	0,5	1,072450
14,083667	0,5	1,078450
14,092000	0,5	1,091950
14,100333	0,5	1,093500
14,108667	0,5	1,095800
14,117000	0,5	1,116900
14,125333	0,5	1,122950
14,133667	0,5	1,130850
14,142000	0,5	1,139000
14,150333	0,5	1,143300
14,158667	0,5	1,166500
14,167000	0,5	1,175600
14,175333	0,5	1,190100
14,183667	0,5	1,198300
14,192000	0,5	1,209300
14,200333	0,5	1,219000
14,208667	0,5	1,230750
14,217000	0,5	1,239600
14,225333	0,5	1,254450
14,233667	0,5	1,267650
14,242000	0,5	1,284900
14,250333	0,5	1,286800
14,258667	0,5	1,302150
14,267000	0,5	1,317850
14,275333	0,5	1,326000
14,283667	0,5	1,330800
14,292000	0,5	1,335700
14,300333	0,5	1,346800
14,308667	0,5	1,358000
14,317000	0,5	1,368650
14,325333	0,5	1,376450
14,333667	0,5	1,389600
14,342000	0,5	1,397150
14,350333	0,5	1,407050
14,358667	0,5	1,413950
14,367000	0,5	1,420350
14,375333	0,5	1,421450
14,383667	0,5	1,423650
14,392000	0,5	1,419700
14,400333	0,5	1,415550
14,408667	0,5	1,422600
14,417000	0,5	1,425700
14,425333	0,5	1,428400
14,433667	0,5	1,422000
14,442000	0,5	1,415500
14,450333	0,5	1,415800
14,458667	0,5	1,416650
14,467000	0,5	1,412400
14,475333	0,5	1,404200
14,483667	0,5	1,400950
14,492000	0,5	1,400700
14,500333	0,5	1,394300
14,508667	0,5	1,399900
14,517000	0,5	1,388600
14,525333	0,5	1,386950
14,533667	0,5	1,380350
14,542000	0,5	1,365650
14,550333	0,5	1,358450
14,558667	0,5	1,358850
14,567000	0,5	1,350200
14,575333	0,5	1,344650
14,583667	0,5	1,324000
14,592000	0,5	1,322150
14,600333	0,5	1,319050
14,608667	0,5	1,313850
14,617000	0,5	1,310800
14,625333	0,5	1,305650
14,633667	0,5	1,301350
14,642000	0,5	1,296250
14,650333	0,5	1,291400
14,658667	0,5	1,288300
14,667000	0,5	1,286150
14,675333	0,5	1,277900
14,683667	0,5	1,277100
14,692000	0,5	1,259300
14,700333	0,5	1,263700
14,708667	0,5	1,259900
14,717000	0,5	1,259500
14,725333	0,5	1,244850
14,733667	0,5	1,228800
14,742000	0,5	1,227600
14,750333	0,5	1,228200
14,758667	0,5	1,217950
14,767000	0,5	1,215350
14,775333	0,5	1,208350
14,783667	0,5	1,210050
14,792000	0,5	1,205050
14,800333	0,5	1,203500
14,808667	0,5	1,198150
14,817000	0,5	1,194350
14,825333	0,5	1,200250
14,833667	0,5	1,195750
14,842000	0,5	1,181850
14,850333	0,5	1,190250
14,858667	0,5	1,191850
14,867000	0,5	1,191100
14,875333	0,5	1,192050
14,883667	0,5	1,180000
14,892000	0,5	1,194800
14,900333	0,5	1,199300
14,908667	0,5	1,211600
14,917000	0,5	1,206000
14,925333	0,5	1,210700
14,933667	0,5	1,202000
14,942000	0,5	1,204450
14,950333	0,5	1,197800
14,958667	0,5	1,188250
14,967000	0,5	1,185100
14,975333	0,5	1,186650
14,983667	0,5	1,185100
14,992000	0,5	1,181550
15,000333	0,5	1,199800
15,008667	0,5	1,205900
15,017000	0,5	1,225300
15,025333	0,5	1,230850
15,033667	0,5	1,235750
15,042000	0,5	1,244050
15,050333	0,5	1,230950
15,058667	0,5	1,209550
15,067000	0,5	1,195800
15,075333	0,5	1,189250
15,083667	0,5	1,200850
15,092000	0,5	1,227500
15,100333	0,5	1,257600
15,108667	0,5	1,291450
15,117000	0,5	1,309000
15,125333	0,5	1,315000
15,133667	0,5	1,297250
15,142000	0,5	1,262050
15,150333	0,5	1,234400
15,158667	0,5	1,196250
15,167000	0,5	1,168000
15,175333	0,5	1,142800
15,183667	0,5	1,129750
15,192000	0,5	1,129200
15,200333	0,5	1,115150
15,208667	0,5	1,104400
15,217000	0,5	1,081350
15,225333	0,5	1,065050
15,233667	0,5	1,042350
15,242000	0,5	1,023600
15,250333	0,5	1,005300
15,258667	0,5	0,994100
15,267000	0,5	0,985800
15,275333	0,5	0,981550
15,283667	0,5	0,966900
15,292000	0,5	0,967600
15,300333	0,5	0,959100
15,308667	0,5	0,948450
15,317000	0,5	0,934000
15,325333	0,5	0,920850
15,333667	0,5	0,922850
15,342000	0,5	0,928200
15,350333	0,5	0,931700
15,358667	0,5	0,933400
15,367000	0,5	0,936900
15,375333	0,5	0,927650
15,383667	0,5	0,923450
15,392000	0,5	0,916050
15,400333	0,5	0,904300
15,408667	0,5	0,896300
15,417000	0,5	0,897900
15,425333	0,5	0,885800
15,433667	0,5	0,880750
15,442000	0,5	0,883150
15,450333	0,5	0,876700
15,458667	0,5	0,860800
15,467000	0,5	0,837800
15,475333	0,5	0,820750
15,483667	0,5	0,810650
15,492000	0,5	0,801900
15,500333	0,5	0,796350
15,508667	0,5	0,789800
15,517000	0,5	0,786600
15,525333	0,5	0,784700
15,533667	0,5	0,772500
15,542000	0,5	0,771700
15,550333	0,5	0,761300
15,558667	0,5	0,757600
15,567000	0,5	0,749600
15,575333	0,5	0,737150
15,583667	0,5	0,735200
15,592000	0,5	0,738550
15,600333	0,5	0,729200
15,608667	0,5	0,727950
15,617000	0,5	0,706300
15,625333	0,5	0,705250
15,633667	0,5	0,705200
15,642000	0,5	0,705650
15,650333	0,5	0,699250
15,658667	0,5	0,700950
15,667000	0,5	0,696050
15,675333	0,5	0,701600
15,683667	0,5	0,702900
15,692000	0,5	0,704450
15,700333	0,5	0,711900
15,708667	0,5	0,717200
15,717000	0,5	0,723050
15,725333	0,5	0,708050
15,733667	0,5	0,720600
15,742000	0,5	0,715850
15,750333	0,5	0,707050
15,758667	0,5	0,696200
15,767000	0,5	0,672700
15,775333	0,5	0,670550
15,783667	0,5	0,664900
15,792000	0,5	0,653300
15,800333	0,5	0,647750
15,808667	0,5	0,644950
15,817000	0,5	0,647800
15,825333	0,5	0,645100
15,833667	0,5	0,647150
15,842000	0,5	0,649800
15,850333	0,5	0,648700
15,858667	0,5	0,657250
15,867000	0,5	0,647350
15,875333	0,5	0,629550
15,883667	0,5	0,629650
15,892000	0,5	0,624200
15,900333	0,5	0,606700
15,908667	0,5	0,597350
15,917000	0,5	0,580200
15,925333	0,5	0,589050
15,933667	0,5	0,584300
15,942000	0,5	0,591350
15,950333	0,5	0,584500
15,958667	0,5	0,586050
15,967000	0,5	0,580050
15,975333	0,5	0,583100
15,983667	0,5	0,575850
15,992000	0,5	0,573850
16,000333	0,5	0,570700
16,008667	0,5	0,571650
16,017000	0,5	0,557150
16,025333	0,5	0,560700
16,033667	0,5	0,565350
16,042000	0,5	0,560250
16,050333	0,5	0,554000
16,058667	0,5	0,536900
16,067000	0,5	0,535000
16,075333	0,5	0,530750
16,083667	0,5	0,534450
16,092000	0,5	0,529700
16,100333	0,5	0,535350
16,108667	0,5	0,526600
16,117000	0,5	0,529650
16,125333	0,5	0,527150
16,133667	0,5	0,523850
16,142000	0,5	0,517100
16,150333	0,5	0,510350
16,158667	0,5	0,511600
16,167000	0,5	0,499950
16,175333	0,5	0,504750
16,183667	0,5	0,506100
16,192000	0,5	0,502200
16,200333	0,5	0,491100
16,208667	0,5	0,470200
16,217000	0,5	0,464400
16,225333	0,5	0,468850
16,233667	0,5	0,462800
16,242000	0,5	0,464950
16,250333	0,5	0,453150
16,258667	0,5	0,450900
16,267000	0,5	0,446050
16,275333	0,5	0,444650
16,283667	0,5	0,436050
16,292000	0,5	0,432850
16,300333	0,5	0,437050
16,308667	0,5	0,428700
16,317000	0,5	0,416900
16,325333	0,5	0,418800
16,333667	0,5	0,410300
16,342000	0,5	0,405650
16,350333	0,5	0,387950
16,358667	0,5	0,374000
16,367000	0,5	0,371050
16,375333	0,5	0,364300
16,383667	0,5	0,364500
16,392000	0,5	0,359850
16,400333	0,5	0,359100
16,408667	0,5	0,355300
16,417000	0,5	0,358250
16,425333	0,5	0,356450
16,433667	0,5	0,355900
16,442000	0,5	0,360550
16,450333	0,5	0,366050
16,458667	0,5	0,345700
16,467000	0,5	0,344650
16,475333	0,5	0,347350
16,483667	0,5	0,340800
16,492000	0,5	0,331050
16,500333	0,5	0,311350
16,508667	0,5	0,302500
16,517000	0,5	0,299650
16,525333	0,5	0,295400
16,533667	0,5	0,294350
16,542000	0,5	0,288400
16,550333	0,5	0,285800
16,558667	0,5	0,285850
16,567000	0,5	0,275250
16,575333	0,5	0,274850
16,583667	0,5	0,264350
16,592000	0,5	0,271700
16,600333	0,5	0,266500
16,608667	0,5	0,246250
16,617000	0,5	0,254750
16,625333	0,5	0,252750
16,633667	0,5	0,243400
16,642000	0,5	0,235400
16,650333	0,5	0,214700
16,658667	0,5	0,219950
16,667000	0,5	0,218900
16,675333	0,5	0,214400
16,683667	0,5	0,208100
16,692000	0,5	0,206050
16,700333	0,5	0,201200
16,708667	0,5	0,195300
16,717000	0,5	0,196150
16,725333	0,5	0,190050
16,733667	0,5	0,193200
16,742000	0,5	0,188050
16,750333	0,5	0,191000
16,758667	0,5	0,175850
16,767000	0,5	0,184250
16,775333	0,5	0,182050
16,783667	0,5	0,176550
16,792000	0,5	0,165600
16,800333	0,5	0,158750
16,808667	0,5	0,165000
16,817000	0,5	0,164550
16,825333	0,5	0,158650
16,833667	0,5	0,155700
16,842000	0,5	0,153050
16,850333	0,5	0,151800
16,858667	0,5	0,156650
16,867000	0,5	0,151650
16,875333	0,5	0,153000
16,883667	0,5	0,149800
16,892000	0,5	0,160550
16,900333	0,5	0,154700
16,908667	0,5	0,155150
16,917000	0,5	0,164250
16,925333	0,5	0,171350
16,933667	0,5	0,163150
16,942000	0,5	0,163000
16,950333	0,5	0,159400
16,958667	0,5	0,176800
16,967000	0,5	0,184950
16,975333	0,5	0,194200
16,983667	0,5	0,204450
16,992000	0,5	0,219350
17,000333	0,5	0,226300
17,008667	0,5	0,246000
17,017000	0,5	0,258250
17,025333	0,5	0,268500
17,033667	0,5	0,294750
17,042000	0,5	0,309400
17,050333	0,5	0,315850
17,058667	0,5	0,335450
17,067000	0,5	0,355650
17,075333	0,5	0,367200
17,083667	0,5	0,376050
17,092000	0,5	0,364250
17,100333	0,5	0,372450
17,108667	0,5	0,368850
17,117000	0,5	0,370550
17,125333	0,5	0,359900
17,133667	0,5	0,359250
17,142000	0,5	0,352900
17,150333	0,5	0,357350
17,158667	0,5	0,360750
17,167000	0,5	0,363300
17,175333	0,5	0,363950
17,183667	0,5	0,375550
17,192000	0,5	0,377550
17,200333	0,5	0,372400
17,208667	0,5	0,387450
17,217000	0,5	0,388100
17,225333	0,5	0,393000
17,233667	0,5	0,381900
17,242000	0,5	0,377050
17,250333	0,5	0,378500
17,258667	0,5	0,388350
17,267000	0,5	0,392000
17,275333	0,5	0,398550
17,283667	0,5	0,393900
17,292000	0,5	0,396400
17,300333	0,5	0,390800
17,308667	0,5	0,391750
17,317000	0,5	0,383300
17,325333	0,5	0,387700
17,333667	0,5	0,384750
17,342000	0,5	0,372050
17,350333	0,5	0,365850
17,358667	0,5	0,370750
17,367000	0,5	0,358600
17,375333	0,5	0,350000
17,383667	0,5	0,330350
17,392000	0,5	0,321350
17,400333	0,5	0,324900
17,408667	0,5	0,320000
17,417000	0,5	0,322750
17,425333	0,5	0,317250
17,433667	0,5	0,317250
17,442000	0,5	0,313900
17,450333	0,5	0,312800
17,458667	0,5	0,305750
17,467000	0,5	0,304000
17,475333	0,5	0,300100
17,483667	0,5	0,295100
17,492000	0,5	0,267300
17,500333	0,5	0,269050
17,508667	0,5	0,263500
17,517000	0,5	0,253200
17,525333	0,5	0,237600
17,533667	0,5	0,211550
17,542000	0,5	0,208750
17,550333	0,5	0,199950
17,558667	0,5	0,198100
17,567000	0,5	0,189300
17,575333	0,5	0,183850
17,583667	0,5	0,172850
17,592000	0,5	0,177150
17,600333	0,5	0,171400
17,608667	0,5	0,166850
17,617000	0,5	0,160800
17,625333	0,5	0,167800
17,633667	0,5	0,161000
17,642000	0,5	0,162900
17,650333	0,5	0,176950
17,658667	0,5	0,186400
17,667000	0,5	0,190350
17,675333	0,5	0,189500
17,683667	0,5	0,181250
17,692000	0,5	0,194900
17,700333	0,5	0,194050
17,708667	0,5	0,184400
17,717000	0,5	0,168750
17,725333	0,5	0,149700
17,733667	0,5	0,126750
17,742000	0,5	0,100050
17,750333	0,5	0,082550
17,758667	0,5	0,061350
17,767000	0,5	0,040150
17,775333	0,5	0,026700
17,783667	0,5	0,004100
17,792000	0,5	-0,004000
17,800333	0,5	-0,001850
17,808667	0,5	-0,011800
17,817000	0,5	-0,020650
17,825333	0,5	-0,043850
17,833667	0,5	-0,047600
17,842000	0,5	-0,048500
17,850333	0,5	-0,055550
17,858667	0,5	-0,064350
17,867000	0,5	-0,069350
17,875333	0,5	-0,067100
17,883667	0,5	-0,075450
17,892000	0,5	-0,075350
17,900333	0,5	-0,083250
17,908667	0,5	-0,085200
17,917000	0,5	-0,094700
17,925333	0,5	-0,090050
17,933667	0,5	-0,105950
17,942000	0,5	-0,100050
17,950333	0,5	-0,107450
17,958667	0,5	-0,109800
17,967000	0,5	-0,125750
17,975333	0,5	-0,146800
17,983667	0,5	-0,151950
17,992000	0,5	-0,153650
18,000333	0,5	-0,159450
18,008667	0,5	-0,165850
18,017000	0,5	-0,178500
18,025333	0,5	-0,180100
18,033667	0,5	-0,189800
18,042000	0,5	-0,194700
18,050333	0,5	-0,201400
18,058667	0,5	-0,211600
18,067000	0,5	-0,209100
18,075333	0,5	-0,220750
18,083667	0,5	-0,239250
18,092000	0,5	-0,232200
18,100333	0,5	-0,242650
18,108667	0,5	-0,255150
18,117000	0,5	-0,271000
18,125333	0,5	-0,290400
18,133667	0,5	-0,287900
18,142000	0,5	-0,301050
18,150333	0,5	-0,301350
18,158667	0,5	-0,312850
18,167000	0,5	-0,311400
18,175333	0,5	-0,317750
18,183667	0,5	-0,318850
18,192000	0,5	-0,325350
18,200333	0,5	-0,332000
18,208667	0,5	-0,333750
18,217000	0,5	-0,336700
18,225333	0,5	-0,350500
18,233667	0,5	-0,360400
18,242000	0,5	-0,350550
18,250333	0,5	-0,362500
18,258667	0,5	-0,370950
18,267000	0,5	-0,392000
18,275333	0,5	-0,399700
18,283667	0,5	-0,410400
18,292000	0,5	-0,406100
18,300333	0,5	-0,410150
18,308667	0,5	-0,413800
18,317000	0,5	-0,420650
18,325333	0,5	-0,417150
18,333667	0,5	-0,425850
18,342000	0,5	-0,429550
18,350333	0,5	-0,436150
18,358667	0,5	-0,432100
18,367000	0,5	-0,433650
18,375333	0,5	-0,444250
18,383667	0,5	-0,442700
18,392000	0,5	-0,437900
18,400333	0,5	-0,447150
18,408667	0,5	-0,454950
18,417000	0,5	-0,469350
18,425333	0,5	-0,476750
18,433667	0,5	-0,473300
18,442000	0,5	-0,479500
18,450333	0,5	-0,477400
18,458667	0,5	-0,485900
18,467000	0,5	-0,482800
18,475333	0,5	-0,489350
18,483667	0,5	-0,488450
18,492000	0,5	-0,488000
18,500333	0,5	-0,489150
18,508667	0,5	-0,485250
18,517000	0,5	-0,496050
18,525333	0,5	-0,504350
18,533667	0,5	-0,486350
18,542000	0,5	-0,486450
18,550333	0,5	-0,486600
18,558667	0,5	-0,496450
18,567000	0,5	-0,497500
18,575333	0,5	-0,489600
18,583667	0,5	-0,486700
18,592000	0,5	-0,479250
18,600333	0,5	-0,478400
18,608667	0,5	-0,463500
18,617000	0,5	-0,458850
18,625333	0,5	-0,445300
18,633667	0,5	-0,439800
18,642000	0,5	-0,430500
18,650333	0,5	-0,418150
18,658667	0,5	-0,418150
18,667000	0,5	-0,410250
18,675333	0,5	-0,391800
18,683667	0,5	-0,381650
18,692000	0,5	-0,370250
18,700333	0,5	-0,374350
18,708667	0,5	-0,388550
18,717000	0,5	-0,375250
18,725333	0,5	-0,369550
18,733667	0,5	-0,364200
18,742000	0,5	-0,373000
18,750333	0,5	-0,370900
18,758667	0,5	-0,378700
18,767000	0,5	-0,376250
18,775333	0,5	-0,382450
18,783667	0,5	-0,386850
18,792000	0,5	-0,397250
18,800333	0,5	-0,397050
18,808667	0,5	-0,403700
18,817000	0,5	-0,421850
18,825333	0,5	-0,417550
18,833667	0,5	-0,418700
18,842000	0,5	-0,435400
18,850333	0,5	-0,447350
18,858667	0,5	-0,471200
18,867000	0,5	-0,473900
18,875333	0,5	-0,476450
18,883667	0,5	-0,485200
18,892000	0,5	-0,493350
18,900333	0,5	-0,498650
18,908667	0,5	-0,499650
18,917000	0,5	-0,507700
18,925333	0,5	-0,508950
18,933667	0,5	-0,515300
18,942000	0,5	-0,524850
18,950333	0,5	-0,532000
18,958667	0,5	-0,530400
18,967000	0,5	-0,543250
18,975333	0,5	-0,525750
18,983667	0,5	-0,530500
18,992000	0,5	-0,529900
19,000333	0,5	-0,543700
19,008667	0,5	-0,557050
19,017000	0,5	-0,546050
19,025333	0,5	-0,537300
19,033667	0,5	-0,532950
19,042000	0,5	-0,525050
19,050333	0,5	-0,515900
19,058667	0,5	-0,511800
19,067000	0,5	-0,505950
19,075333	0,5	-0,510450
19,083667	0,5	-0,515600
19,092000	0,5	-0,527000
19,100333	0,5	-0,533400
19,108667	0,5	-0,563800
19,117000	0,5	-0,573800
19,125333	0,5	-0,584750
19,133667	0,5	-0,602450
19,142000	0,5	-0,626100
19,150333	0,5	-0,646600
19,158667	0,5	-0,664150
19,167000	0,5	-0,668300
19,175333	0,5	-0,678300
19,183667	0,5	-0,683300
19,192000	0,5	-0,694700
19,200333	0,5	-0,694150
19,208667	0,5	-0,701150
19,217000	0,5	-0,702900
19,225333	0,5	-0,702800
19,233667	0,5	-0,705600
19,242000	0,5	-0,693300
19,250333	0,5	-0,703150
19,258667	0,5	-0,711650
19,267000	0,5	-0,710750
19,275333	0,5	-0,711750
19,283667	0,5	-0,726350
19,292000	0,5	-0,742500
19,300333	0,5	-0,760850
19,308667	0,5	-0,769600
19,317000	0,5	-0,779500
19,325333	0,5	-0,781050
19,333667	0,5	-0,786900
19,342000	0,5	-0,785500
19,350333	0,5	-0,792500
19,358667	0,5	-0,795750
19,367000	0,5	-0,802050
19,375333	0,5	-0,809650
19,383667	0,5	-0,809650
19,392000	0,5	-0,805900
19,400333	0,5	-0,820050
19,408667	0,5	-0,825450
19,417000	0,5	-0,820950
19,425333	0,5	-0,829800
19,433667	0,5	-0,837150
19,442000	0,5	-0,861050
19,450333	0,5	-0,866650
19,458667	0,5	-0,870400
19,467000	0,5	-0,874250
19,475333	0,5	-0,884250
19,483667	0,5	-0,885750
19,492000	0,5	-0,894500
19,500333	0,5	-0,896900
19,508667	0,5	-0,900150
19,517000	0,5	-0,903250
19,525333	0,5	-0,906600
19,533667	0,5	-0,908000
19,542000	0,5	-0,908100
19,550333	0,5	-0,929150
19,558667	0,5	-0,926400
19,567000	0,5	-0,927600
19,575333	0,5	-0,931000
19,583667	0,5	-0,943350
19,592000	0,5	-0,964250
19,600333	0,5	-0,964200
19,608667	0,5	-0,964600
19,617000	0,5	-0,976800
19,625333	0,5	-0,979900
19,633667	0,5	-0,990150
19,642000	0,5	-0,987600
19,650333	0,5	-0,996600
19,658667	0,5	-0,995350
19,667000	0,5	-1,003250
19,675333	0,5	-1,012550
19,683667	0,5	-1,001450
19,692000	0,5	-1,003400
19,700333	0,5	-1,020900
19,708667	0,5	-1,015150
19,717000	0,5	-1,017350
19,725333	0,5	-1,026900
19,733667	0,5	-1,037200
19,742000	0,5	-1,062150
19,750333	0,5	-1,047100
19,758667	0,5	-1,056050
19,767000	0,5	-1,052450
19,775333	0,5	-1,060950
19,783667	0,5	-1,057400
19,792000	0,5	-1,066750
19,800333	0,5	-1,064500
19,808667	0,5	-1,071300
19,817000	0,5	-1,072600
19,825333	0,5	-1,071400
19,833667	0,5	-1,064150
19,842000	0,5	-1,078000
19,850333	0,5	-1,081800
19,858667	0,5	-1,076000
19,867000	0,5	-1,084800
19,875333	0,5	-1,095600
19,883667	0,5	-1,112750
19,892000	0,5	-1,118900
19,900333	0,5	-1,118750
19,908667	0,5	-1,115600
19,917000	0,5	-1,125350
19,925333	0,5	-1,124550
19,933667	0,5	-1,130350
19,942000	0,5	-1,127450
19,950333	0,5	-1,132300
19,958667	0,5	-1,133300
19,967000	0,5	-1,138500
19,975333	0,5	-1,133200
19,983667	0,5	-1,135300
19,992000	0,5	-1,148000
20,000333	0,5	-1,142200
20,008667	0,5	-1,146350
20,017000	0,5	-1,151100
20,025333	0,5	-1,168550
20,033667	0,5	-1,191400
20,042000	0,5	-1,201750
20,050333	0,5	-1,196450
20,058667	0,5	-1,203200
20,067000	0,5	-1,206050
20,075333	0,5	-1,205900
20,083667	0,5	-1,199400
20,092000	0,5	-1,206100
20,100333	0,5	-1,201000
20,108667	0,5	-1,206150
20,117000	0,5	-1,201450
20,125333	0,5	-1,196800
20,133667	0,5	-1,197700
20,142000	0,5	-1,204350
20,150333	0,5	-1,196950
20,158667	0,5	-1,200950
20,167000	0,5	-1,204500
20,175333	0,5	-1,216600
20,183667	0,5	-1,226950
20,192000	0,5	-1,218700
20,200333	0,5	-1,219900
20,208667	0,5	-1,215950
20,217000	0,5	-1,222350
20,225333	0,5	-1,216800
20,233667	0,5	-1,224000
20,242000	0,5	-1,220700
20,250333	0,5	-1,223900
20,258667	0,5	-1,221600
20,267000	0,5	-1,220650
20,275333	0,5	-1,211050
20,283667	0,5	-1,232200
20,292000	0,5	-1,223650
20,300333	0,5	-1,219450
20,308667	0,5	-1,223850
20,317000	0,5	-1,229850
20,325333	0,5	-1,248950
20,333667	0,5	-1,251350
20,342000	0,5	-1,249600
20,350333	0,5	-1,251300
20,358667	0,5	-1,253900
20,367000	0,5	-1,251350
20,375333	0,5	-1,253250
20,383667	0,5	-1,247300
20,392000	0,5	-1,247500
20,400333	0,5	-1,246650
20,408667	0,5	-1,243350
20,417000	0,5	-1,221300
20,425333	0,5	-1,219850
20,433667	0,5	-1,228850
20,442000	0,5	-1,215200
20,450333	0,5	-1,210800
20,458667	0,5	-1,213900
20,467000	0,5	-1,225400
20,475333	0,5	-1,240500
20,483667	0,5	-1,236250
20,492000	0,5	-1,237800
20,500333	0,5	-1,236400
20,508667	0,5	-1,236700
20,517000	0,5	-1,240200
20,525333	0,5	-1,240500
20,533667	0,5	-1,241650
20,542000	0,5	-1,242450
20,550333	0,5	-1,247400
20,558667	0,5	-1,237850
20,567000	0,5	-1,229050
20,575333	0,5	-1,236250
20,583667	0,5	-1,247650
20,592000	0,5	-1,243500
20,600333	0,5	-1,244700
20,608667	0,5	-1,247800
20,617000	0,5	-1,271500
20,625333	0,5	-1,272200
20,633667	0,5	-1,268400
20,642000	0,5	-1,271450
20,650333	0,5	-1,274650
20,658667	0,5	-1,279050
20,667000	0,5	-1,283450
20,675333	0,5	-1,287700
20,683667	0,5	-1,284800
20,692000	0,5	-1,292750
20,700333	0,5	-1,291550
20,708667	0,5	-1,279000
20,717000	0,5	-1,272100
20,725333	0,5	-1,285750
20,733667	0,5	-1,281950
20,742000	0,5	-1,285650
20,750333	0,5	-1,289200
20,758667	0,5	-1,302300
20,767000	0,5	-1,319600
20,775333	0,5	-1,311700
20,783667	0,5	-1,309900
20,792000	0,5	-1,312800
20,800333	0,5	-1,310300
20,808667	0,5	-1,308250
20,817000	0,5	-1,308000
20,825333	0,5	-1,305600
20,833667	0,5	-1,310750
20,842000	0,5	-1,302000
20,850333	0,5	-1,298600
20,858667	0,5	-1,272450
20,867000	0,5	-1,269150
20,875333	0,5	-1,276600
20,883667	0,5	-1,273100
20,892000	0,5	-1,276600
20,900333	0,5	-1,284500
20,908667	0,5	-1,292600
20,917000	0,5	-1,307500
20,925333	0,5	-1,295950
20,933667	0,5	-1,293800
20,942000	0,5	-1,285750
20,950333	0,5	-1,285650
20,958667	0,5	-1,279350
20,967000	0,5	-1,274150
20,975333	0,5	-1,265650
20,983667	0,5	-1,260250
20,992000	0,5	-1,268650
21,000333	0,5	-1,248000
21,008667	0,5	-1,235900
21,017000	0,5	-1,229450
21,025333	0,5	-1,236000
21,033667	0,5	-1,236650
21,042000	0,5	-1,237450
21,050333	0,5	-1,248700
21,058667	0,5	-1,261800
21,067000	0,5	-1,262150
21,075333	0,5	-1,258550
21,083667	0,5	-1,256400
21,092000	0,5	-1,249300
21,100333	0,5	-1,244550
21,108667	0,5	-1,241000
21,117000	0,5	-1,236500
21,125333	0,5	-1,232700
21,133667	0,5	-1,225600
21,142000	0,5	-1,220350
21,150333	0,5	-1,190350
21,158667	0,5	-1,178550
21,167000	0,5	-1,180500
21,175333	0,5	-1,171650
21,183667	0,5	-1,173300
21,192000	0,5	-1,173150
21,200333	0,5	-1,192350
21,208667	0,5	-1,189900
21,217000	0,5	-1,181200
21,225333	0,5	-1,174750
21,233667	0,5	-1,169950
21,242000	0,5	-1,165750
21,250333	0,5	-1,154500
21,258667	0,5	-1,149300
21,267000	0,5	-1,141350
21,275333	0,5	-1,137050
21,283667	0,5	-1,128350
21,292000	0,5	-1,110350
21,300333	0,5	-1,088650
21,308667	0,5	-1,080350
21,317000	0,5	-1,084600
21,325333	0,5	-1,083100
21,333667	0,5	-1,079650
21,342000	0,5	-1,086000
21,350333	0,5	-1,094950
21,358667	0,5	-1,089650
21,367000	0,5	-1,082600
21,375333	0,5	-1,075050
21,383667	0,5	-1,065700
21,392000	0,5	-1,063600
21,400333	0,5	-1,056400
21,408667	0,5	-1,049850
21,417000	0,5	-1,043450
21,425333	0,5	-1,038650
21,433667	0,5	-1,037450
21,442000	0,5	-1,007100
21,450333	0,5	-0,993050
21,458667	0,5	-0,993050
21,467000	0,5	-0,990850
21,475333	0,5	-0,985400
21,483667	0,5	-0,992550
21,492000	0,5	-0,985950
21,500333	0,5	-0,987450
21,508667	0,5	-0,970650
21,517000	0,5	-0,959250
21,525333	0,5	-0,937700
21,533667	0,5	-0,920450
21,542000	0,5	-0,893700
21,550333	0,5	-0,861500
21,558667	0,5	-0,822400
21,567000	0,5	-0,788650
21,575333	0,5	-0,772750
21,583667	0,5	-0,758200
21,592000	0,5	-0,751750
21,600333	0,5	-0,758400
21,608667	0,5	-0,772050
21,617000	0,5	-0,772500
21,625333	0,5	-0,776750
21,633667	0,5	-0,782100
21,642000	0,5	-0,794100
21,650333	0,5	-0,780150
21,658667	0,5	-0,767450
21,667000	0,5	-0,758100
21,675333	0,5	-0,754550
21,683667	0,5	-0,744400
21,692000	0,5	-0,738200
21,700333	0,5	-0,714600
21,708667	0,5	-0,700400
21,717000	0,5	-0,686400
21,725333	0,5	-0,667450
21,733667	0,5	-0,628400
21,742000	0,5	-0,595950
21,750333	0,5	-0,594900
21,758667	0,5	-0,568150
21,767000	0,5	-0,560700
21,775333	0,5	-0,543350
21,783667	0,5	-0,538600
21,792000	0,5	-0,535550
21,800333	0,5	-0,516300
21,808667	0,5	-0,494600
21,817000	0,5	-0,478550
21,825333	0,5	-0,461800
21,833667	0,5	-0,446800
21,842000	0,5	-0,433200
21,850333	0,5	-0,421150
21,858667	0,5	-0,408050
21,867000	0,5	-0,393850
21,875333	0,5	-0,380300
21,883667	0,5	-0,347900
21,892000	0,5	-0,329750
21,900333	0,5	-0,316150
21,908667	0,5	-0,293950
21,917000	0,5	-0,275750
21,925333	0,5	-0,266900
21,933667	0,5	-0,249350
21,942000	0,5	-0,234200
21,950333	0,5	-0,212350
21,958667	0,5	-0,188050
21,967000	0,5	-0,162600
21,975333	0,5	-0,141050
21,983667	0,5	-0,112850
21,992000	0,5	-0,089250
22,000333	0,5	-0,065450
22,008667	0,5	-0,036000
22,017000	0,5	-0,015100
22,025333	0,5	0,019300
22,033667	0,5	0,038500
22,042000	0,5	0,062700
22,050333	0,5	0,093500
22,058667	0,5	0,127600
22,067000	0,5	0,150350
22,075333	0,5	0,172450
22,083667	0,5	0,190900
22,092000	0,5	0,227400
22,100333	0,5	0,273500
22,108667	0,5	0,311800
22,117000	0,5	0,356450
22,125333	0,5	0,397650
22,133667	0,5	0,438200
22,142000	0,5	0,478450
22,150333	0,5	0,515050
22,158667	0,5	0,543500
22,167000	0,5	0,577800
22,175333	0,5	0,607800
22,183667	0,5	0,636050
22,192000	0,5	0,676900
22,200333	0,5	0,726150
22,208667	0,5	0,760150
22,217000	0,5	0,800050
22,225333	0,5	0,823550
22,233667	0,5	0,865050
22,242000	0,5	0,909750
22,250333	0,5	0,957050
22,258667	0,5	1,005800
22,267000	0,5	1,049450
22,275333	0,5	1,095900
22,283667	0,5	1,140200
22,292000	0,5	1,184450
22,300333	0,5	1,223150
22,308667	0,5	1,261950
22,317000	0,5	1,298750
22,325333	0,5	1,351650
22,333667	0,5	1,386750
22,342000	0,5	1,461950
22,350333	0,5	1,513550
22,358667	0,5	1,561150
22,367000	0,5	1,603450
22,375333	0,5	1,650450
22,383667	0,5	1,708750
22,392000	0,5	1,765950
22,400333	0,5	1,819500
22,408667	0,5	1,874750
22,417000	0,5	1,929400
22,425333	0,5	1,984600
22,433667	0,5	2,043200
22,442000	0,5	2,104000
22,450333	0,5	2,160500
22,458667	0,5	2,209900
22,467000	0,5	2,253900
22,475333	0,5	2,304150
22,483667	0,5	2,381000
22,492000	0,5	2,448050
22,500333	0,5	2,515100
22,508667	0,5	2,559950
22,517000	0,5	2,612250
22,525333	0,5	2,663200
22,533667	0,5	2,729200
22,542000	0,5	2,788250
22,550333	0,5	2,848100
22,558667	0,5	2,899650
22,567000	0,5	2,947200
22,575333	0,5	2,996150
22,583667	0,5	3,034350
22,592000	0,5	3,072800
22,600333	0,5	3,099400
22,608667	0,5	3,105400
22,617000	0,5	3,121900
22,625333	0,5	3,144450
22,633667	0,5	3,175300
22,642000	0,5	3,187450
22,650333	0,5	3,187550
22,658667	0,5	3,173950
22,667000	0,5	3,145750
22,675333	0,5	3,137450
22,683667	0,5	3,121400
22,692000	0,5	3,098050
22,700333	0,5	3,060550
22,708667	0,5	3,029950
22,717000	0,5	2,992200
22,725333	0,5	2,945000
22,733667	0,5	2,893200
22,742000	0,5	2,831100
22,750333	0,5	2,763150
22,758667	0,5	2,628950
22,767000	0,5	2,578650
22,775333	0,5	2,496500
22,783667	0,5	2,419550
22,792000	0,5	2,320000
22,800333	0,5	2,215050
22,808667	0,5	2,100800
22,817000	0,5	1,978150
22,825333	0,5	1,864450
22,833667	0,5	1,750000
22,842000	0,5	1,627100
22,850333	0,5	1,504250
22,858667	0,5	1,384050
22,867000	0,5	1,260200
22,875333	0,5	1,130400
22,883667	0,5	1,003500
22,892000	0,5	0,870150
22,900333	0,5	0,746100
22,908667	0,5	0,582250
22,917000	0,5	0,466500
22,925333	0,5	0,340100
22,933667	0,5	0,189200
22,942000	0,5	0,054600
22,950333	0,5	-0,065700
22,958667	0,5	-0,193600
22,967000	0,5	-0,311000
22,975333	0,5	-0,434200
22,983667	0,5	-0,537850
22,992000	0,5	-0,650750
23,000333	0,5	-0,744900
23,008667	0,5	-0,847550
23,017000	0,5	-0,938950
23,025333	0,5	-1,035600
23,033667	0,5	-1,127400
23,042000	0,5	-1,212250
23,050333	0,5	-1,276400
23,058667	0,5	-1,368600
23,067000	0,5	-1,453550
23,075333	0,5	-1,560650
23,083667	0,5	-1,645700
23,092000	0,5	-1,708250
23,100333	0,5	-1,765250
23,108667	0,5	-1,813600
23,117000	0,5	-1,868850
23,125333	0,5	-1,912700
23,133667	0,5	-1,953100
23,142000	0,5	-1,980950
23,150333	0,5	-2,014900
23,158667	0,5	-2,038300
23,167000	0,5	-2,072050
23,175333	0,5	-2,095050
23,183667	0,5	-2,119150
23,192000	0,5	-2,135500
23,200333	0,5	-2,161450
23,208667	0,5	-2,170250
23,217000	0,5	-2,200650
23,225333	0,5	-2,251550
23,233667	0,5	-2,268700
23,242000	0,5	-2,279700
23,250333	0,5	-2,266500
23,258667	0,5	-2,275200
23,267000	0,5	-2,270800
23,275333	0,5	-2,270400
23,283667	0,5	-2,250350
23,292000	0,5	-2,241950
23,300333	0,5	-2,223200
23,308667	0,5	-2,209150
23,317000	0,5	-2,189400
23,325333	0,5	-2,174750
23,333667	0,5	-2,154800
23,342000	0,5	-2,140150
23,350333	0,5	-2,143550
23,358667	0,5	-2,114300
23,367000	0,5	-2,096200
23,375333	0,5	-2,110200
23,383667	0,5	-2,104500
23,392000	0,5	-2,093250
23,400333	0,5	-2,067350
23,408667	0,5	-2,054850
23,417000	0,5	-2,040850
23,425333	0,5	-2,014100
23,433667	0,5	-1,986550
23,442000	0,5	-1,957100
23,450333	0,5	-1,928350
23,458667	0,5	-1,896300
23,467000	0,5	-1,873900
23,475333	0,5	-1,839750
23,483667	0,5	-1,812800
23,492000	0,5	-1,855550
23,500333	0,5	-1,793950
23,508667	0,5	-1,759500
23,517000	0,5	-1,715300
23,525333	0,5	-1,712200
23,533667	0,5	-1,702950
23,542000	0,5	-1,685600
23,550333	0,5	-1,664550
23,558667	0,5	-1,652450
23,567000	0,5	-1,637100
23,575333	0,5	-1,616050
23,583667	0,5	-1,600650
23,592000	0,5	-1,581550
23,600333	0,5	-1,564250
23,608667	0,5	-1,541900
23,617000	0,5	-1,522550
23,625333	0,5	-1,506500
23,633667	0,5	-1,500400
23,642000	0,5	-1,564300
23,650333	0,5	-1,517100
23,658667	0,5	-1,459700
23,667000	0,5	-1,423200
23,675333	0,5	-1,411000
23,683667	0,5	-1,401550
23,692000	0,5	-1,386750
23,700333	0,5	-1,372550
23,708667	0,5	-1,358750
23,717000	0,5	-1,342250
23,725333	0,5	-1,326900
23,733667	0,5	-1,311150
23,742000	0,5	-1,298550
23,750333	0,5	-1,283200
23,758667	0,5	-1,272550
23,767000	0,5	-1,258650
23,775333	0,5	-1,249900
23,783667	0,5	-1,326550
23,792000	0,5	-1,357650
23,800333	0,5	-1,308450
23,808667	0,5	-1,254000
23,817000	0,5	-1,217600
23,825333	0,5	-1,210400
23,833667	0,5	-1,204550
23,842000	0,5	-1,205850
23,850333	0,5	-1,195050
23,858667	0,5	-1,178450
23,867000	0,5	-1,161850
23,875333	0,5	-1,148200
23,883667	0,5	-1,129450
23,892000	0,5	-1,111750
23,900333	0,5	-1,095250
23,908667	0,5	-1,074950
23,917000	0,5	-1,061100
23,925333	0,5	-1,051350
23,933667	0,5	-1,176300
23,942000	0,5	-1,129350
23,950333	0,5	-1,093650
23,958667	0,5	-1,034900
23,967000	0,5	-1,008550
23,975333	0,5	-1,000300
23,983667	0,5	-0,996300
23,992000	0,5	-0,995250
24,000333	0,5	-0,989400
24,008667	0,5	-0,967300
24,017000	0,5	-0,959400
24,025333	0,5	-0,942100
24,033667	0,5	-0,933300
24,042000	0,5	-0,913650
24,050333	0,5	-0,898700
24,058667	0,5	-0,880750
24,067000	0,5	-0,866200
24,075333	0,5	-0,887150
24,083667	0,5	-0,964200
24,092000	0,5	-0,933150
24,100333	0,5	-0,876600
24,108667	0,5	-0,825900
24,117000	0,5	-0,799450
24,125333	0,5	-0,779900
24,133667	0,5	-0,773150
24,142000	0,5	-0,768250
24,150333	0,5	-0,746350
24,158667	0,5	-0,732100
24,167000	0,5	-0,710950
24,175333	0,5	-0,699750
24,183667	0,5	-0,673600
24,192000	0,5	-0,661100
24,200333	0,5	-0,639900
24,208667	0,5	-0,623050
24,217000	0,5	-0,614100
24,225333	0,5	-0,672400
24,233667	0,5	-0,681500
24,242000	0,5	-0,669950
24,250333	0,5	-0,616850
24,258667	0,5	-0,576600
24,267000	0,5	-0,558300
24,275333	0,5	-0,546900
24,283667	0,5	-0,552650
24,292000	0,5	-0,531200
24,300333	0,5	-0,515600
24,308667	0,5	-0,493750
24,317000	0,5	-0,477900
24,325333	0,5	-0,457800
24,333667	0,5	-0,443450
24,342000	0,5	-0,419750
24,350333	0,5	-0,401150
24,358667	0,5	-0,380550
24,367000	0,5	-0,369450
24,375333	0,5	-0,437650
24,383667	0,5	-0,409250
24,392000	0,5	-0,389700
24,400333	0,5	-0,344150
24,408667	0,5	-0,314150
24,417000	0,5	-0,302700
24,425333	0,5	-0,291600
24,433667	0,5	-0,295050
24,442000	0,5	-0,277300
24,450333	0,5	-0,259500
24,458667	0,5	-0,253350
24,467000	0,5	-0,239100
24,475333	0,5	-0,231450
24,483667	0,5	-0,214100
24,492000	0,5	-0,203050
24,500333	0,5	-0,185000
24,508667	0,5	-0,176050
24,517000	0,5	-0,186250
24,525333	0,5	-0,223000
24,533667	0,5	-0,190000
24,542000	0,5	-0,173500
24,550333	0,5	-0,132900
24,558667	0,5	-0,113550
24,567000	0,5	-0,100500
24,575333	0,5	-0,093350
24,583667	0,5	-0,096700
24,592000	0,5	-0,071750
24,600333	0,5	-0,061650
24,608667	0,5	-0,051350
24,617000	0,5	-0,039500
24,625333	0,5	-0,024200
24,633667	0,5	-0,013950
24,642000	0,5	-0,000900
24,650333	0,5	0,007700
24,658667	0,5	0,017650
24,667000	0,5	-0,014250
24,675333	0,5	-0,009250
24,683667	0,5	0,002550
24,692000	0,5	0,025850
24,700333	0,5	0,043000
24,708667	0,5	0,058350
24,717000	0,5	0,059250
24,725333	0,5	0,061600
24,733667	0,5	0,065850
24,742000	0,5	0,080250
24,750333	0,5	0,091450
24,758667	0,5	0,098300
24,767000	0,5	0,109550
24,775333	0,5	0,118050
24,783667	0,5	0,132300
24,792000	0,5	0,142750
24,800333	0,5	0,157900
24,808667	0,5	0,160950
24,817000	0,5	0,136300
24,825333	0,5	0,149100
24,833667	0,5	0,162050
24,842000	0,5	0,180000
24,850333	0,5	0,196500
24,858667	0,5	0,201800
24,867000	0,5	0,208100
24,875333	0,5	0,200750
24,883667	0,5	0,205650
24,892000	0,5	0,212650
24,900333	0,5	0,218150
24,908667	0,5	0,223800
24,917000	0,5	0,229300
24,925333	0,5	0,238150
24,933667	0,5	0,243900
24,942000	0,5	0,253800
24,950333	0,5	0,258950
24,958667	0,5	0,263300
24,967000	0,5	0,247650
24,975333	0,5	0,260750
24,983667	0,5	0,272550
24,992000	0,5	0,284500
25,000333	0,5	0,300400
25,008667	0,5	0,300400
25,017000	0,5	0,302200
25,025333	0,5	0,303850
25,033667	0,5	0,306400
25,042000	0,5	0,315300
25,050333	0,5	0,320500
25,058667	0,5	0,327000
25,067000	0,5	0,327650
25,075333	0,5	0,333100
25,083667	0,5	0,336300
25,092000	0,5	0,343100
25,100333	0,5	0,344850
25,108667	0,5	0,341450
25,117000	0,5	0,340250
25,125333	0,5	0,344150
25,133667	0,5	0,353900
25,142000	0,5	0,357750
25,150333	0,5	0,363550
25,158667	0,5	0,367600
25,167000	0,5	0,368000
25,175333	0,5	0,369650
25,183667	0,5	0,375050
25,192000	0,5	0,379900
25,200333	0,5	0,383300
25,208667	0,5	0,385500
25,217000	0,5	0,390400
25,225333	0,5	0,396050
25,233667	0,5	0,402400
25,242000	0,5	0,404900
25,250333	0,5	0,405650
25,258667	0,5	0,406250
25,267000	0,5	0,408200
25,275333	0,5	0,414200
25,283667	0,5	0,415300
25,292000	0,5	0,414550
25,300333	0,5	0,417750
25,308667	0,5	0,417850
25,317000	0,5	0,416700
25,325333	0,5	0,414200
25,333667	0,5	0,418500
25,342000	0,5	0,417000
25,350333	0,5	0,419250
25,358667	0,5	0,422800
25,367000	0,5	0,423200
25,375333	0,5	0,426000
25,383667	0,5	0,428700
25,392000	0,5	0,431800
25,400333	0,5	0,434450
25,408667	0,5	0,437050
25,417000	0,5	0,439500
25,425333	0,5	0,441500
25,433667	0,5	0,441950
25,442000	0,5	0,443100
25,450333	0,5	0,445300
25,458667	0,5	0,447100
25,467000	0,5	0,448100
25,475333	0,5	0,445250
25,483667	0,5	0,446200
25,492000	0,5	0,448850
25,500333	0,5	0,446650
25,508667	0,5	0,448250
25,517000	0,5	0,445750
25,525333	0,5	0,446900
25,533667	0,5	0,451450
25,542000	0,5	0,450650
25,550333	0,5	0,452800
25,558667	0,5	0,458050
25,567000	0,5	0,457850
25,575333	0,5	0,459950
25,583667	0,5	0,455000
25,592000	0,5	0,458050
25,600333	0,5	0,460150
25,608667	0,5	0,461750
25,617000	0,5	0,465600
25,625333	0,5	0,463800
25,633667	0,5	0,463950
25,642000	0,5	0,461800
25,650333	0,5	0,464300
25,658667	0,5	0,463750
25,667000	0,5	0,462800
25,675333	0,5	0,462150
25,683667	0,5	0,460450
25,692000	0,5	0,465300
25,700333	0,5	0,468050
25,708667	0,5	0,463900
25,717000	0,5	0,468200
25,725333	0,5	0,465100
25,733667	0,5	0,461400
25,742000	0,5	0,464700
25,750333	0,5	0,465000
25,758667	0,5	0,469350
25,767000	0,5	0,473700
25,775333	0,5	0,473150
25,783667	0,5	0,469850
25,792000	0,5	0,472400
25,800333	0,5	0,474750
25,808667	0,5	0,472800
25,817000	0,5	0,475900
25,825333	0,5	0,476900
25,833667	0,5	0,475750
25,842000	0,5	0,479600
25,850333	0,5	0,484350
25,858667	0,5	0,485850
25,867000	0,5	0,491150
25,875333	0,5	0,482750
25,883667	0,5	0,480200
25,892000	0,5	0,483200
25,900333	0,5	0,483450
25,908667	0,5	0,491850
25,917000	0,5	0,491450
25,925333	0,5	0,496550
25,933667	0,5	0,490650
25,942000	0,5	0,494700
25,950333	0,5	0,493200
25,958667	0,5	0,493250
25,967000	0,5	0,491500
25,975333	0,5	0,490300
25,983667	0,5	0,494750
25,992000	0,5	0,492650
26,000333	0,5	0,494250
