File Path	chrom://chromeleon01/ikbm_chromeleon/2022/ICS-5000/ED1/Esteban/20220612_Cell_7_4_eg.seq/960.smp/ED_1.channel/ED_1.chm
Channel	ED_1

Injection Information:
Data Vault	ikbm_chromeleon
Injection	7_04h-EGS_2
Injection Number	86
Position	GD3
Comment	
Processing Method	Stop sequence after Cell Death
Instrument Method	ICS5000_PA200_FullNative_Ox_26min_ED1
Type	Unknown
Status	Finished
Injection Date	14.06.2022
Injection Time	08:34:13
Injection Volume (µl)	5,0
Dilution Factor	1,0000
Weight	1,0000

Chromatogram Data Information:
Time Min. (min)	0,000333
Time Max. (min)	26,000333
Data Points	3121
Detector	EDet1
Generating Data System	Chromeleon 7.2.9.11323
Exporting Data System	Chromeleon 7.2.9.0
Operator	Instrument Controller
Signal Quantity	
Signal Unit	nC
Signal Min.	-2,569850
Signal Max.	901,644563
Channel	ED_1
Driver Name	DC-5000
Channel Type	Evaluation
Min. Step (s)	0,5
Max. Step (s)	0,5
Average Step (s)	0,5

Signal Parameter Information:
Signal Info	

Chromatogram Data:
Time (min)	Step (s)	Value (nC)
0,000333	n.a.	-0,074650
0,008667	0,5	-0,083900
0,017000	0,5	-0,076500
0,025333	0,5	-0,063550
0,033667	0,5	-0,068150
0,042000	0,5	-0,064350
0,050333	0,5	-0,043000
0,058667	0,5	-0,041150
0,067000	0,5	-0,072450
0,075333	0,5	-0,059950
0,083667	0,5	-0,058300
0,092000	0,5	-0,021050
0,100333	0,5	-0,017850
0,108667	0,5	-0,023350
0,117000	0,5	-0,033800
0,125333	0,5	-0,035950
0,133667	0,5	-0,039950
0,142000	0,5	-0,042250
0,150333	0,5	-0,043050
0,158667	0,5	-0,050300
0,167000	0,5	-0,045400
0,175333	0,5	-0,058650
0,183667	0,5	-0,070300
0,192000	0,5	-0,078600
0,200333	0,5	-0,049400
0,208667	0,5	-0,074200
0,217000	0,5	-0,086150
0,225333	0,5	-0,085350
0,233667	0,5	-0,072450
0,242000	0,5	-0,049300
0,250333	0,5	-0,049850
0,258667	0,5	-0,064150
0,267000	0,5	-0,056750
0,275333	0,5	-0,062900
0,283667	0,5	-0,054300
0,292000	0,5	-0,030450
0,300333	0,5	-0,012650
0,308667	0,5	-0,031250
0,317000	0,5	-0,075250
0,325333	0,5	-0,100050
0,333667	0,5	-0,123200
0,342000	0,5	-0,118100
0,350333	0,5	-0,104950
0,358667	0,5	-0,117700
0,367000	0,5	-0,125250
0,375333	0,5	-0,113500
0,383667	0,5	-0,102200
0,392000	0,5	-0,073050
0,400333	0,5	-0,089950
0,408667	0,5	-0,086300
0,417000	0,5	-0,098700
0,425333	0,5	-0,096100
0,433667	0,5	-0,103000
0,442000	0,5	-0,096850
0,450333	0,5	-0,108250
0,458667	0,5	-0,110950
0,467000	0,5	-0,107250
0,475333	0,5	-0,112650
0,483667	0,5	-0,127800
0,492000	0,5	-0,111650
0,500333	0,5	-0,112400
0,508667	0,5	-0,125600
0,517000	0,5	-0,125350
0,525333	0,5	-0,118700
0,533667	0,5	-0,093350
0,542000	0,5	-0,090150
0,550333	0,5	-0,093500
0,558667	0,5	-0,099900
0,567000	0,5	-0,086000
0,575333	0,5	-0,093700
0,583667	0,5	-0,088100
0,592000	0,5	-0,097100
0,600333	0,5	-0,099050
0,608667	0,5	-0,102900
0,617000	0,5	-0,100500
0,625333	0,5	-0,095600
0,633667	0,5	-0,106200
0,642000	0,5	-0,089250
0,650333	0,5	-0,098250
0,658667	0,5	-0,110300
0,667000	0,5	-0,114700
0,675333	0,5	-0,104000
0,683667	0,5	-0,074600
0,692000	0,5	-0,067300
0,700333	0,5	-0,082500
0,708667	0,5	-0,072750
0,717000	0,5	-0,081350
0,725333	0,5	-0,078550
0,733667	0,5	-0,086050
0,742000	0,5	-0,080250
0,750333	0,5	-0,089950
0,758667	0,5	-0,078200
0,767000	0,5	-0,082050
0,775333	0,5	-0,081950
0,783667	0,5	-0,099300
0,792000	0,5	-0,071450
0,800333	0,5	-0,096300
0,808667	0,5	-0,094050
0,817000	0,5	-0,093600
0,825333	0,5	-0,078700
0,833667	0,5	-0,054600
0,842000	0,5	-0,058600
0,850333	0,5	-0,062500
0,858667	0,5	-0,065800
0,867000	0,5	-0,062400
0,875333	0,5	-0,062200
0,883667	0,5	-0,059850
0,892000	0,5	-0,064950
0,900333	0,5	-0,065800
0,908667	0,5	-0,071250
0,917000	0,5	-0,070050
0,925333	0,5	-0,086800
0,933667	0,5	-0,074250
0,942000	0,5	-0,069000
0,950333	0,5	-0,081750
0,958667	0,5	-0,081300
0,967000	0,5	-0,072800
0,975333	0,5	-0,057350
0,983667	0,5	-0,036100
0,992000	0,5	-0,037000
1,000333	0,5	-0,036100
1,008667	0,5	-0,039250
1,017000	0,5	-0,040600
1,025333	0,5	-0,051600
1,033667	0,5	-0,052500
1,042000	0,5	-0,055850
1,050333	0,5	-0,058500
1,058667	0,5	-0,051700
1,067000	0,5	-0,068950
1,075333	0,5	-0,068900
1,083667	0,5	-0,053450
1,092000	0,5	-0,056000
1,100333	0,5	-0,075400
1,108667	0,5	-0,066500
1,117000	0,5	-0,068150
1,125333	0,5	-0,031700
1,133667	0,5	-0,031100
1,142000	0,5	-0,028350
1,150333	0,5	-0,043550
1,158667	0,5	-0,035000
1,167000	0,5	-0,040150
1,175333	0,5	-0,037650
1,183667	0,5	-0,042250
1,192000	0,5	-0,043100
1,200333	0,5	-0,041100
1,208667	0,5	-0,041400
1,217000	0,5	-0,042050
1,225333	0,5	-0,052200
1,233667	0,5	-0,022150
1,242000	0,5	-0,044150
1,250333	0,5	-0,056250
1,258667	0,5	-0,049750
1,267000	0,5	-0,042500
1,275333	0,5	-0,022100
1,283667	0,5	-0,020550
1,292000	0,5	-0,027950
1,300333	0,5	-0,021300
1,308667	0,5	-0,026700
1,317000	0,5	-0,019100
1,325333	0,5	-0,026850
1,333667	0,5	-0,029650
1,342000	0,5	-0,035350
1,350333	0,5	-0,036700
1,358667	0,5	-0,036650
1,367000	0,5	-0,049150
1,375333	0,5	-0,048750
1,383667	0,5	-0,022400
1,392000	0,5	-0,048500
1,400333	0,5	-0,054700
1,408667	0,5	-0,049500
1,417000	0,5	-0,038000
1,425333	0,5	-0,013550
1,433667	0,5	-0,030850
1,442000	0,5	-0,027900
1,450333	0,5	-0,037050
1,458667	0,5	-0,033750
1,467000	0,5	-0,045850
1,475333	0,5	-0,043050
1,483667	0,5	-0,049950
1,492000	0,5	-0,050300
1,500333	0,5	-0,054700
1,508667	0,5	-0,066100
1,517000	0,5	-0,087700
1,525333	0,5	-0,075550
1,533667	0,5	-0,074950
1,542000	0,5	-0,086250
1,550333	0,5	-0,076900
1,558667	0,5	-0,001850
1,567000	0,5	0,168300
1,575333	0,5	0,390950
1,583667	0,5	1,098850
1,592000	0,5	5,730500
1,600333	0,5	25,445950
1,608667	0,5	91,124251
1,617000	0,5	258,737804
1,625333	0,5	533,836458
1,633667	0,5	796,124162
1,642000	0,5	901,644563
1,650333	0,5	819,945462
1,658667	0,5	631,645909
1,667000	0,5	443,997607
1,675333	0,5	306,832805
1,683667	0,5	217,333953
1,692000	0,5	160,611752
1,700333	0,5	124,833202
1,708667	0,5	102,275902
1,717000	0,5	87,427601
1,725333	0,5	76,468651
1,733667	0,5	67,847951
1,742000	0,5	61,061651
1,750333	0,5	55,344601
1,758667	0,5	50,318701
1,767000	0,5	46,704801
1,775333	0,5	45,679351
1,783667	0,5	47,533301
1,792000	0,5	51,039801
1,800333	0,5	54,367401
1,808667	0,5	56,272601
1,817000	0,5	56,080451
1,825333	0,5	53,993351
1,833667	0,5	50,756401
1,842000	0,5	47,401401
1,850333	0,5	44,353051
1,858667	0,5	41,658451
1,867000	0,5	39,253301
1,875333	0,5	37,134801
1,883667	0,5	35,379601
1,892000	0,5	34,075401
1,900333	0,5	33,088350
1,908667	0,5	32,210550
1,917000	0,5	31,324800
1,925333	0,5	30,629750
1,933667	0,5	30,344000
1,942000	0,5	30,322600
1,950333	0,5	30,008700
1,958667	0,5	29,101100
1,967000	0,5	27,973350
1,975333	0,5	27,084250
1,983667	0,5	26,574950
1,992000	0,5	26,512450
2,000333	0,5	27,010300
2,008667	0,5	28,413050
2,017000	0,5	30,840800
2,025333	0,5	33,590451
2,033667	0,5	35,923451
2,042000	0,5	38,294201
2,050333	0,5	41,835701
2,058667	0,5	45,985951
2,067000	0,5	48,412201
2,075333	0,5	47,215151
2,083667	0,5	43,067651
2,092000	0,5	38,073851
2,100333	0,5	33,799151
2,108667	0,5	30,842800
2,117000	0,5	29,494200
2,125333	0,5	29,836350
2,133667	0,5	31,345400
2,142000	0,5	32,572900
2,150333	0,5	32,293950
2,158667	0,5	30,557100
2,167000	0,5	28,204000
2,175333	0,5	26,094150
2,183667	0,5	24,494450
2,192000	0,5	23,333150
2,200333	0,5	22,459050
2,208667	0,5	21,806450
2,217000	0,5	21,327150
2,225333	0,5	21,096850
2,233667	0,5	21,081150
2,242000	0,5	21,104750
2,250333	0,5	21,030300
2,258667	0,5	20,999250
2,267000	0,5	21,178900
2,275333	0,5	21,302650
2,283667	0,5	21,075800
2,292000	0,5	20,535900
2,300333	0,5	19,957750
2,308667	0,5	19,569700
2,317000	0,5	19,321150
2,325333	0,5	19,180450
2,333667	0,5	19,146700
2,342000	0,5	19,210850
2,350333	0,5	19,369100
2,358667	0,5	19,540750
2,367000	0,5	19,719900
2,375333	0,5	19,871800
2,383667	0,5	20,036300
2,392000	0,5	20,154800
2,400333	0,5	20,225450
2,408667	0,5	20,354900
2,417000	0,5	21,123450
2,425333	0,5	22,423850
2,433667	0,5	22,538900
2,442000	0,5	21,223500
2,450333	0,5	20,038750
2,458667	0,5	19,392550
2,467000	0,5	19,018750
2,475333	0,5	18,781400
2,483667	0,5	18,614950
2,492000	0,5	18,484550
2,500333	0,5	18,374850
2,508667	0,5	18,278850
2,517000	0,5	18,183400
2,525333	0,5	18,103150
2,533667	0,5	18,020700
2,542000	0,5	17,946800
2,550333	0,5	17,861950
2,558667	0,5	17,832250
2,567000	0,5	17,854500
2,575333	0,5	17,936000
2,583667	0,5	18,175400
2,592000	0,5	18,677700
2,600333	0,5	19,499100
2,608667	0,5	20,630400
2,617000	0,5	21,834600
2,625333	0,5	22,909450
2,633667	0,5	23,606550
2,642000	0,5	23,824500
2,650333	0,5	23,542200
2,658667	0,5	22,919150
2,667000	0,5	22,193200
2,675333	0,5	21,651650
2,683667	0,5	21,544750
2,692000	0,5	22,045900
2,700333	0,5	23,348200
2,708667	0,5	25,653750
2,717000	0,5	29,172650
2,725333	0,5	33,933401
2,733667	0,5	39,514901
2,742000	0,5	44,824801
2,750333	0,5	48,627851
2,758667	0,5	50,069151
2,767000	0,5	49,097851
2,775333	0,5	46,216301
2,783667	0,5	42,126051
2,792000	0,5	37,495351
2,800333	0,5	32,993400
2,808667	0,5	29,111700
2,817000	0,5	26,157700
2,825333	0,5	24,259350
2,833667	0,5	23,498150
2,842000	0,5	23,909800
2,850333	0,5	25,436500
2,858667	0,5	27,710900
2,867000	0,5	29,991600
2,875333	0,5	31,527800
2,883667	0,5	31,763750
2,892000	0,5	30,587800
2,900333	0,5	28,314900
2,908667	0,5	25,502050
2,917000	0,5	22,690900
2,925333	0,5	20,296450
2,933667	0,5	18,432050
2,942000	0,5	17,085250
2,950333	0,5	16,121700
2,958667	0,5	15,440050
2,967000	0,5	14,929750
2,975333	0,5	14,549000
2,983667	0,5	14,245350
2,992000	0,5	13,991100
3,000333	0,5	13,792400
3,008667	0,5	13,652450
3,017000	0,5	13,552150
3,025333	0,5	13,573450
3,033667	0,5	13,725000
3,042000	0,5	14,023100
3,050333	0,5	14,375600
3,058667	0,5	14,640850
3,067000	0,5	14,713700
3,075333	0,5	14,513150
3,083667	0,5	14,104250
3,092000	0,5	13,579500
3,100333	0,5	13,062700
3,108667	0,5	12,604300
3,117000	0,5	12,253400
3,125333	0,5	11,987150
3,133667	0,5	11,786450
3,142000	0,5	11,640700
3,150333	0,5	11,571700
3,158667	0,5	11,519600
3,167000	0,5	11,503100
3,175333	0,5	11,544200
3,183667	0,5	11,679150
3,192000	0,5	11,970700
3,200333	0,5	12,447250
3,208667	0,5	13,139250
3,217000	0,5	13,963100
3,225333	0,5	14,697450
3,233667	0,5	15,092400
3,242000	0,5	14,993700
3,250333	0,5	14,422700
3,258667	0,5	13,570100
3,267000	0,5	12,641500
3,275333	0,5	11,836050
3,283667	0,5	11,210250
3,292000	0,5	10,779450
3,300333	0,5	10,517600
3,308667	0,5	10,324800
3,317000	0,5	10,189350
3,325333	0,5	10,109050
3,333667	0,5	10,048800
3,342000	0,5	10,021750
3,350333	0,5	9,950500
3,358667	0,5	9,877600
3,367000	0,5	9,793450
3,375333	0,5	9,721100
3,383667	0,5	9,646950
3,392000	0,5	9,596050
3,400333	0,5	9,563050
3,408667	0,5	9,534750
3,417000	0,5	9,518850
3,425333	0,5	9,490250
3,433667	0,5	9,447800
3,442000	0,5	9,370400
3,450333	0,5	9,327400
3,458667	0,5	9,220650
3,467000	0,5	9,149500
3,475333	0,5	9,083700
3,483667	0,5	9,044400
3,492000	0,5	9,017450
3,500333	0,5	8,972250
3,508667	0,5	8,933150
3,517000	0,5	8,914750
3,525333	0,5	8,882950
3,533667	0,5	8,858450
3,542000	0,5	8,821550
3,550333	0,5	8,783050
3,558667	0,5	8,744000
3,567000	0,5	8,708000
3,575333	0,5	8,686100
3,583667	0,5	8,646650
3,592000	0,5	8,609650
3,600333	0,5	8,579100
3,608667	0,5	8,507500
3,617000	0,5	8,449750
3,625333	0,5	8,403850
3,633667	0,5	8,364200
3,642000	0,5	8,345650
3,650333	0,5	8,294150
3,658667	0,5	8,271850
3,667000	0,5	8,248550
3,675333	0,5	8,234800
3,683667	0,5	8,206300
3,692000	0,5	8,184550
3,700333	0,5	8,150000
3,708667	0,5	8,123200
3,717000	0,5	8,090950
3,725333	0,5	8,060000
3,733667	0,5	8,029400
3,742000	0,5	8,020400
3,750333	0,5	7,997000
3,758667	0,5	7,969650
3,767000	0,5	7,953950
3,775333	0,5	7,940400
3,783667	0,5	7,946250
3,792000	0,5	7,931100
3,800333	0,5	7,912750
3,808667	0,5	7,886100
3,817000	0,5	7,872050
3,825333	0,5	7,846300
3,833667	0,5	7,835650
3,842000	0,5	7,803700
3,850333	0,5	7,784850
3,858667	0,5	7,758750
3,867000	0,5	7,728400
3,875333	0,5	7,695600
3,883667	0,5	7,663250
3,892000	0,5	7,636500
3,900333	0,5	7,595050
3,908667	0,5	7,559900
3,917000	0,5	7,536150
3,925333	0,5	7,518750
3,933667	0,5	7,507500
3,942000	0,5	7,487650
3,950333	0,5	7,455250
3,958667	0,5	7,428500
3,967000	0,5	7,400450
3,975333	0,5	7,378050
3,983667	0,5	7,354400
3,992000	0,5	7,337750
4,000333	0,5	7,312700
4,008667	0,5	7,300000
4,017000	0,5	7,281900
4,025333	0,5	7,268100
4,033667	0,5	7,252900
4,042000	0,5	7,253650
4,050333	0,5	7,216950
4,058667	0,5	7,201000
4,067000	0,5	7,184450
4,075333	0,5	7,189350
4,083667	0,5	7,188800
4,092000	0,5	7,175500
4,100333	0,5	7,164100
4,108667	0,5	7,156000
4,117000	0,5	7,144550
4,125333	0,5	7,133150
4,133667	0,5	7,120300
4,142000	0,5	7,105250
4,150333	0,5	7,098300
4,158667	0,5	7,088950
4,167000	0,5	7,093150
4,175333	0,5	7,086350
4,183667	0,5	7,124450
4,192000	0,5	7,152000
4,200333	0,5	7,194250
4,208667	0,5	7,267950
4,217000	0,5	7,378700
4,225333	0,5	7,528450
4,233667	0,5	7,686550
4,242000	0,5	7,838900
4,250333	0,5	7,988750
4,258667	0,5	8,108000
4,267000	0,5	8,194700
4,275333	0,5	8,218950
4,283667	0,5	8,196050
4,292000	0,5	8,126750
4,300333	0,5	8,034100
4,308667	0,5	7,932600
4,317000	0,5	7,821350
4,325333	0,5	7,730900
4,333667	0,5	7,690200
4,342000	0,5	7,641350
4,350333	0,5	7,607700
4,358667	0,5	7,582950
4,367000	0,5	7,550850
4,375333	0,5	7,525500
4,383667	0,5	7,446400
4,392000	0,5	7,364050
4,400333	0,5	7,264050
4,408667	0,5	7,176050
4,417000	0,5	7,080950
4,425333	0,5	7,006250
4,433667	0,5	6,933750
4,442000	0,5	6,879650
4,450333	0,5	6,837450
4,458667	0,5	6,799750
4,467000	0,5	6,780900
4,475333	0,5	6,757150
4,483667	0,5	6,758200
4,492000	0,5	6,725600
4,500333	0,5	6,714250
4,508667	0,5	6,709850
4,517000	0,5	6,712350
4,525333	0,5	6,732150
4,533667	0,5	6,723750
4,542000	0,5	6,705800
4,550333	0,5	6,706850
4,558667	0,5	6,692450
4,567000	0,5	6,685650
4,575333	0,5	6,668750
4,583667	0,5	6,664200
4,592000	0,5	6,649350
4,600333	0,5	6,655400
4,608667	0,5	6,657500
4,617000	0,5	6,657000
4,625333	0,5	6,667250
4,633667	0,5	6,706000
4,642000	0,5	6,714500
4,650333	0,5	6,747850
4,658667	0,5	6,781900
4,667000	0,5	6,825100
4,675333	0,5	6,870800
4,683667	0,5	6,869250
4,692000	0,5	6,866900
4,700333	0,5	6,844100
4,708667	0,5	6,815050
4,717000	0,5	6,766400
4,725333	0,5	6,723400
4,733667	0,5	6,671300
4,742000	0,5	6,627750
4,750333	0,5	6,591400
4,758667	0,5	6,556500
4,767000	0,5	6,526800
4,775333	0,5	6,515000
4,783667	0,5	6,501600
4,792000	0,5	6,487000
4,800333	0,5	6,482500
4,808667	0,5	6,486050
4,817000	0,5	6,498650
4,825333	0,5	6,509150
4,833667	0,5	6,515300
4,842000	0,5	6,511450
4,850333	0,5	6,511850
4,858667	0,5	6,506250
4,867000	0,5	6,496550
4,875333	0,5	6,480550
4,883667	0,5	6,471550
4,892000	0,5	6,454800
4,900333	0,5	6,441450
4,908667	0,5	6,414250
4,917000	0,5	6,400000
4,925333	0,5	6,386250
4,933667	0,5	6,350750
4,942000	0,5	6,300500
4,950333	0,5	6,264750
4,958667	0,5	6,223400
4,967000	0,5	6,201600
4,975333	0,5	6,161250
4,983667	0,5	6,124050
4,992000	0,5	6,088250
5,000333	0,5	6,061600
5,008667	0,5	6,038150
5,017000	0,5	6,026700
5,025333	0,5	6,010050
5,033667	0,5	5,998550
5,042000	0,5	5,996350
5,050333	0,5	5,986550
5,058667	0,5	5,981950
5,067000	0,5	5,975300
5,075333	0,5	5,978850
5,083667	0,5	5,955400
5,092000	0,5	5,941350
5,100333	0,5	5,925350
5,108667	0,5	5,924550
5,117000	0,5	5,916300
5,125333	0,5	5,902450
5,133667	0,5	5,878900
5,142000	0,5	5,866800
5,150333	0,5	5,848800
5,158667	0,5	5,839050
5,167000	0,5	5,823650
5,175333	0,5	5,806700
5,183667	0,5	5,788050
5,192000	0,5	5,772450
5,200333	0,5	5,755300
5,208667	0,5	5,731300
5,217000	0,5	5,725500
5,225333	0,5	5,711150
5,233667	0,5	5,686350
5,242000	0,5	5,669150
5,250333	0,5	5,653900
5,258667	0,5	5,656650
5,267000	0,5	5,651900
5,275333	0,5	5,631600
5,283667	0,5	5,627650
5,292000	0,5	5,614150
5,300333	0,5	5,610400
5,308667	0,5	5,593200
5,317000	0,5	5,591550
5,325333	0,5	5,581250
5,333667	0,5	5,581500
5,342000	0,5	5,575000
5,350333	0,5	5,569600
5,358667	0,5	5,563350
5,367000	0,5	5,579100
5,375333	0,5	5,578600
5,383667	0,5	5,575200
5,392000	0,5	5,570150
5,400333	0,5	5,569300
5,408667	0,5	5,568450
5,417000	0,5	5,543650
5,425333	0,5	5,516000
5,433667	0,5	5,488650
5,442000	0,5	5,467350
5,450333	0,5	5,442650
5,458667	0,5	5,427550
5,467000	0,5	5,406100
5,475333	0,5	5,396250
5,483667	0,5	5,384650
5,492000	0,5	5,377850
5,500333	0,5	5,364000
5,508667	0,5	5,350050
5,517000	0,5	5,352400
5,525333	0,5	5,329200
5,533667	0,5	5,309650
5,542000	0,5	5,289050
5,550333	0,5	5,274100
5,558667	0,5	5,270050
5,567000	0,5	5,249650
5,575333	0,5	5,218700
5,583667	0,5	5,200850
5,592000	0,5	5,178750
5,600333	0,5	5,161350
5,608667	0,5	5,137800
5,617000	0,5	5,119900
5,625333	0,5	5,103050
5,633667	0,5	5,093650
5,642000	0,5	5,083050
5,650333	0,5	5,068550
5,658667	0,5	5,049300
5,667000	0,5	5,046350
5,675333	0,5	5,017400
5,683667	0,5	5,003500
5,692000	0,5	4,988300
5,700333	0,5	4,987150
5,708667	0,5	4,986650
5,717000	0,5	4,975750
5,725333	0,5	4,974050
5,733667	0,5	4,984200
5,742000	0,5	5,005700
5,750333	0,5	5,039600
5,758667	0,5	5,093950
5,767000	0,5	5,154200
5,775333	0,5	5,226900
5,783667	0,5	5,291300
5,792000	0,5	5,337800
5,800333	0,5	5,352400
5,808667	0,5	5,350750
5,817000	0,5	5,317150
5,825333	0,5	5,261400
5,833667	0,5	5,212450
5,842000	0,5	5,179200
5,850333	0,5	5,174600
5,858667	0,5	5,201400
5,867000	0,5	5,258200
5,875333	0,5	5,368200
5,883667	0,5	5,532900
5,892000	0,5	5,770800
5,900333	0,5	6,076800
5,908667	0,5	6,452900
5,917000	0,5	6,878600
5,925333	0,5	7,315900
5,933667	0,5	7,723350
5,942000	0,5	8,040800
5,950333	0,5	8,238800
5,958667	0,5	8,297750
5,967000	0,5	8,188600
5,975333	0,5	7,937800
5,983667	0,5	7,600600
5,992000	0,5	7,202750
6,000333	0,5	6,798600
6,008667	0,5	6,395350
6,017000	0,5	6,028300
6,025333	0,5	5,705050
6,033667	0,5	5,440550
6,042000	0,5	5,225600
6,050333	0,5	5,057900
6,058667	0,5	4,920450
6,067000	0,5	4,817650
6,075333	0,5	4,735400
6,083667	0,5	4,670350
6,092000	0,5	4,612150
6,100333	0,5	4,569250
6,108667	0,5	4,536400
6,117000	0,5	4,492300
6,125333	0,5	4,460000
6,133667	0,5	4,432050
6,142000	0,5	4,416800
6,150333	0,5	4,400300
6,158667	0,5	4,382600
6,167000	0,5	4,357900
6,175333	0,5	4,346850
6,183667	0,5	4,329500
6,192000	0,5	4,316950
6,200333	0,5	4,295550
6,208667	0,5	4,285300
6,217000	0,5	4,271450
6,225333	0,5	4,261850
6,233667	0,5	4,249850
6,242000	0,5	4,235700
6,250333	0,5	4,233800
6,258667	0,5	4,227650
6,267000	0,5	4,211100
6,275333	0,5	4,203800
6,283667	0,5	4,197350
6,292000	0,5	4,206150
6,300333	0,5	4,209000
6,308667	0,5	4,195150
6,317000	0,5	4,194200
6,325333	0,5	4,187450
6,333667	0,5	4,182600
6,342000	0,5	4,169500
6,350333	0,5	4,165650
6,358667	0,5	4,150350
6,367000	0,5	4,143550
6,375333	0,5	4,130500
6,383667	0,5	4,119950
6,392000	0,5	4,098300
6,400333	0,5	4,095850
6,408667	0,5	4,080200
6,417000	0,5	4,068500
6,425333	0,5	4,058850
6,433667	0,5	4,057250
6,442000	0,5	4,062600
6,450333	0,5	4,055600
6,458667	0,5	4,047950
6,467000	0,5	4,044950
6,475333	0,5	4,043100
6,483667	0,5	4,041050
6,492000	0,5	4,036700
6,500333	0,5	4,032200
6,508667	0,5	4,026400
6,517000	0,5	4,015950
6,525333	0,5	4,008650
6,533667	0,5	3,996800
6,542000	0,5	3,996750
6,550333	0,5	3,983600
6,558667	0,5	3,964600
6,567000	0,5	3,954800
6,575333	0,5	3,948400
6,583667	0,5	3,944250
6,592000	0,5	3,952100
6,600333	0,5	3,938150
6,608667	0,5	3,931700
6,617000	0,5	3,925200
6,625333	0,5	3,918950
6,633667	0,5	3,910450
6,642000	0,5	3,902800
6,650333	0,5	3,896500
6,658667	0,5	3,890550
6,667000	0,5	3,887650
6,675333	0,5	3,879400
6,683667	0,5	3,875300
6,692000	0,5	3,867000
6,700333	0,5	3,868350
6,708667	0,5	3,853000
6,717000	0,5	3,855950
6,725333	0,5	3,854500
6,733667	0,5	3,867000
6,742000	0,5	3,880500
6,750333	0,5	3,888450
6,758667	0,5	3,890850
6,767000	0,5	3,902050
6,775333	0,5	3,904200
6,783667	0,5	3,912050
6,792000	0,5	3,906700
6,800333	0,5	3,901700
6,808667	0,5	3,892500
6,817000	0,5	3,883800
6,825333	0,5	3,874100
6,833667	0,5	3,860700
6,842000	0,5	3,857700
6,850333	0,5	3,860750
6,858667	0,5	3,867650
6,867000	0,5	3,890750
6,875333	0,5	3,929450
6,883667	0,5	3,978650
6,892000	0,5	4,032200
6,900333	0,5	4,062300
6,908667	0,5	4,080000
6,917000	0,5	4,067950
6,925333	0,5	4,049500
6,933667	0,5	4,017250
6,942000	0,5	3,983750
6,950333	0,5	3,961350
6,958667	0,5	3,956000
6,967000	0,5	3,967100
6,975333	0,5	3,995300
6,983667	0,5	4,041350
6,992000	0,5	4,120050
7,000333	0,5	4,202650
7,008667	0,5	4,295250
7,017000	0,5	4,408500
7,025333	0,5	4,530700
7,033667	0,5	4,667850
7,042000	0,5	4,780550
7,050333	0,5	4,879100
7,058667	0,5	4,947500
7,067000	0,5	4,986050
7,075333	0,5	4,982700
7,083667	0,5	4,942900
7,092000	0,5	4,867800
7,100333	0,5	4,763950
7,108667	0,5	4,642250
7,117000	0,5	4,510550
7,125333	0,5	4,379150
7,133667	0,5	4,260850
7,142000	0,5	4,158450
7,150333	0,5	4,062850
7,158667	0,5	3,987600
7,167000	0,5	3,938350
7,175333	0,5	3,905200
7,183667	0,5	3,893150
7,192000	0,5	3,880850
7,200333	0,5	3,873650
7,208667	0,5	3,870600
7,217000	0,5	3,863850
7,225333	0,5	3,849350
7,233667	0,5	3,826250
7,242000	0,5	3,792600
7,250333	0,5	3,754000
7,258667	0,5	3,715850
7,267000	0,5	3,680350
7,275333	0,5	3,646000
7,283667	0,5	3,616050
7,292000	0,5	3,595500
7,300333	0,5	3,567850
7,308667	0,5	3,547700
7,317000	0,5	3,535350
7,325333	0,5	3,530850
7,333667	0,5	3,534600
7,342000	0,5	3,528150
7,350333	0,5	3,530750
7,358667	0,5	3,544400
7,367000	0,5	3,559500
7,375333	0,5	3,582650
7,383667	0,5	3,612250
7,392000	0,5	3,646300
7,400333	0,5	3,701250
7,408667	0,5	3,760600
7,417000	0,5	3,844700
7,425333	0,5	3,954600
7,433667	0,5	4,118300
7,442000	0,5	4,323850
7,450333	0,5	4,555650
7,458667	0,5	4,784200
7,467000	0,5	4,963650
7,475333	0,5	5,040750
7,483667	0,5	4,988200
7,492000	0,5	4,811250
7,500333	0,5	4,564900
7,508667	0,5	4,290750
7,517000	0,5	4,034500
7,525333	0,5	3,822500
7,533667	0,5	3,665450
7,542000	0,5	3,556950
7,550333	0,5	3,482250
7,558667	0,5	3,432200
7,567000	0,5	3,388100
7,575333	0,5	3,356600
7,583667	0,5	3,345450
7,592000	0,5	3,339700
7,600333	0,5	3,357850
7,608667	0,5	3,397400
7,617000	0,5	3,458850
7,625333	0,5	3,517700
7,633667	0,5	3,537200
7,642000	0,5	3,522700
7,650333	0,5	3,469650
7,658667	0,5	3,407050
7,667000	0,5	3,340850
7,675333	0,5	3,296700
7,683667	0,5	3,261350
7,692000	0,5	3,240850
7,700333	0,5	3,223850
7,708667	0,5	3,212850
7,717000	0,5	3,203000
7,725333	0,5	3,193150
7,733667	0,5	3,185900
7,742000	0,5	3,172950
7,750333	0,5	3,163550
7,758667	0,5	3,152100
7,767000	0,5	3,149900
7,775333	0,5	3,142700
7,783667	0,5	3,137800
7,792000	0,5	3,124750
7,800333	0,5	3,118050
7,808667	0,5	3,110750
7,817000	0,5	3,106100
7,825333	0,5	3,103500
7,833667	0,5	3,106450
7,842000	0,5	3,106900
7,850333	0,5	3,115150
7,858667	0,5	3,116150
7,867000	0,5	3,114050
7,875333	0,5	3,108200
7,883667	0,5	3,096950
7,892000	0,5	3,072050
7,900333	0,5	3,058550
7,908667	0,5	3,038500
7,917000	0,5	3,030000
7,925333	0,5	3,026200
7,933667	0,5	3,018350
7,942000	0,5	3,015500
7,950333	0,5	3,013000
7,958667	0,5	3,012150
7,967000	0,5	3,008600
7,975333	0,5	3,009900
7,983667	0,5	3,009400
7,992000	0,5	3,012450
8,000333	0,5	3,016950
8,008667	0,5	3,021000
8,017000	0,5	3,020100
8,025333	0,5	3,032450
8,033667	0,5	3,036200
8,042000	0,5	3,054350
8,050333	0,5	3,088300
8,058667	0,5	3,146350
8,067000	0,5	3,218350
8,075333	0,5	3,265250
8,083667	0,5	3,270350
8,092000	0,5	3,221200
8,100333	0,5	3,149500
8,108667	0,5	3,070150
8,117000	0,5	3,006950
8,125333	0,5	2,961200
8,133667	0,5	2,930000
8,142000	0,5	2,907500
8,150333	0,5	2,894600
8,158667	0,5	2,881700
8,167000	0,5	2,871450
8,175333	0,5	2,868900
8,183667	0,5	2,858550
8,192000	0,5	2,849850
8,200333	0,5	2,845250
8,208667	0,5	2,839350
8,217000	0,5	2,837800
8,225333	0,5	2,832900
8,233667	0,5	2,826600
8,242000	0,5	2,822200
8,250333	0,5	2,820600
8,258667	0,5	2,819750
8,267000	0,5	2,820500
8,275333	0,5	2,819650
8,283667	0,5	2,816900
8,292000	0,5	2,815200
8,300333	0,5	2,809200
8,308667	0,5	2,804250
8,317000	0,5	2,802650
8,325333	0,5	2,806450
8,333667	0,5	2,805700
8,342000	0,5	2,798000
8,350333	0,5	2,792800
8,358667	0,5	2,781800
8,367000	0,5	2,772900
8,375333	0,5	2,767400
8,383667	0,5	2,759150
8,392000	0,5	2,757600
8,400333	0,5	2,758850
8,408667	0,5	2,763750
8,417000	0,5	2,766250
8,425333	0,5	2,778850
8,433667	0,5	2,799100
8,442000	0,5	2,831750
8,450333	0,5	2,888650
8,458667	0,5	2,971600
8,467000	0,5	3,062700
8,475333	0,5	3,130700
8,483667	0,5	3,145500
8,492000	0,5	3,109950
8,500333	0,5	3,049150
8,508667	0,5	2,998000
8,517000	0,5	2,960900
8,525333	0,5	2,946900
8,533667	0,5	2,946900
8,542000	0,5	2,947550
8,550333	0,5	2,949650
8,558667	0,5	2,954050
8,567000	0,5	2,955950
8,575333	0,5	2,968000
8,583667	0,5	2,997750
8,592000	0,5	3,048000
8,600333	0,5	3,122650
8,608667	0,5	3,238750
8,617000	0,5	3,424350
8,625333	0,5	3,685000
8,633667	0,5	4,010400
8,642000	0,5	4,364700
8,650333	0,5	4,671650
8,658667	0,5	4,858000
8,667000	0,5	4,871300
8,675333	0,5	4,710750
8,683667	0,5	4,430000
8,692000	0,5	4,094600
8,700333	0,5	3,776000
8,708667	0,5	3,503900
8,717000	0,5	3,300950
8,725333	0,5	3,151950
8,733667	0,5	3,047650
8,742000	0,5	2,974850
8,750333	0,5	2,925150
8,758667	0,5	2,892150
8,767000	0,5	2,878000
8,775333	0,5	2,878950
8,783667	0,5	2,890300
8,792000	0,5	2,928650
8,800333	0,5	2,984350
8,808667	0,5	3,063000
8,817000	0,5	3,136650
8,825333	0,5	3,181800
8,833667	0,5	3,179300
8,842000	0,5	3,131500
8,850333	0,5	3,061450
8,858667	0,5	2,990600
8,867000	0,5	2,936100
8,875333	0,5	2,903600
8,883667	0,5	2,890300
8,892000	0,5	2,891350
8,900333	0,5	2,902350
8,908667	0,5	2,922950
8,917000	0,5	2,955600
8,925333	0,5	2,994550
8,933667	0,5	3,057450
8,942000	0,5	3,147800
8,950333	0,5	3,291550
8,958667	0,5	3,520050
8,967000	0,5	3,894700
8,975333	0,5	4,500400
8,983667	0,5	5,336250
8,992000	0,5	6,244650
9,000333	0,5	6,949850
9,008667	0,5	7,222750
9,017000	0,5	7,038450
9,025333	0,5	6,534800
9,033667	0,5	5,884200
9,042000	0,5	5,234350
9,050333	0,5	4,662150
9,058667	0,5	4,209500
9,067000	0,5	3,877950
9,075333	0,5	3,643000
9,083667	0,5	3,493850
9,092000	0,5	3,424100
9,100333	0,5	3,415450
9,108667	0,5	3,463450
9,117000	0,5	3,549050
9,125333	0,5	3,650150
9,133667	0,5	3,724450
9,142000	0,5	3,749450
9,150333	0,5	3,715900
9,158667	0,5	3,630750
9,167000	0,5	3,518200
9,175333	0,5	3,392250
9,183667	0,5	3,275150
9,192000	0,5	3,170650
9,200333	0,5	3,083050
9,208667	0,5	3,020750
9,217000	0,5	2,967000
9,225333	0,5	2,929600
9,233667	0,5	2,899750
9,242000	0,5	2,876400
9,250333	0,5	2,866300
9,258667	0,5	2,865200
9,267000	0,5	2,871400
9,275333	0,5	2,887350
9,283667	0,5	2,916300
9,292000	0,5	2,947700
9,300333	0,5	2,977400
9,308667	0,5	2,996900
9,317000	0,5	2,998800
9,325333	0,5	2,982500
9,333667	0,5	2,951350
9,342000	0,5	2,918100
9,350333	0,5	2,880650
9,358667	0,5	2,852400
9,367000	0,5	2,833300
9,375333	0,5	2,825250
9,383667	0,5	2,835600
9,392000	0,5	2,862850
9,400333	0,5	2,906200
9,408667	0,5	2,952150
9,417000	0,5	2,978050
9,425333	0,5	2,980400
9,433667	0,5	2,961850
9,442000	0,5	2,930000
9,450333	0,5	2,904750
9,458667	0,5	2,888350
9,467000	0,5	2,880050
9,475333	0,5	2,869850
9,483667	0,5	2,864150
9,492000	0,5	2,859250
9,500333	0,5	2,861300
9,508667	0,5	2,874400
9,517000	0,5	2,901100
9,525333	0,5	2,939450
9,533667	0,5	2,987500
9,542000	0,5	3,038050
9,550333	0,5	3,087950
9,558667	0,5	3,135900
9,567000	0,5	3,184350
9,575333	0,5	3,253000
9,583667	0,5	3,342850
9,592000	0,5	3,473700
9,600333	0,5	3,647350
9,608667	0,5	3,857950
9,617000	0,5	4,104200
9,625333	0,5	4,395150
9,633667	0,5	4,716100
9,642000	0,5	5,071150
9,650333	0,5	5,447750
9,658667	0,5	5,834400
9,667000	0,5	6,213450
9,675333	0,5	6,573900
9,683667	0,5	6,912250
9,692000	0,5	7,212000
9,700333	0,5	7,461050
9,708667	0,5	7,606750
9,717000	0,5	7,609250
9,725333	0,5	7,429200
9,733667	0,5	7,045500
9,742000	0,5	6,476550
9,750333	0,5	5,790700
9,758667	0,5	5,076500
9,767000	0,5	4,420750
9,775333	0,5	3,884600
9,783667	0,5	3,479050
9,792000	0,5	3,187500
9,800333	0,5	2,999400
9,808667	0,5	2,881350
9,817000	0,5	2,797200
9,825333	0,5	2,742750
9,833667	0,5	2,707800
9,842000	0,5	2,685200
9,850333	0,5	2,672050
9,858667	0,5	2,668250
9,867000	0,5	2,675400
9,875333	0,5	2,690950
9,883667	0,5	2,711900
9,892000	0,5	2,738550
9,900333	0,5	2,765350
9,908667	0,5	2,784750
9,917000	0,5	2,794000
9,925333	0,5	2,794350
9,933667	0,5	2,781500
9,942000	0,5	2,757500
9,950333	0,5	2,725950
9,958667	0,5	2,699250
9,967000	0,5	2,664400
9,975333	0,5	2,633150
9,983667	0,5	2,615450
9,992000	0,5	2,606850
10,000333	0,5	2,610700
10,008667	0,5	2,637000
10,017000	0,5	2,681200
10,025333	0,5	2,743200
10,033667	0,5	2,812450
10,042000	0,5	2,866850
10,050333	0,5	2,897600
10,058667	0,5	2,892200
10,067000	0,5	2,855400
10,075333	0,5	2,800300
10,083667	0,5	2,738600
10,092000	0,5	2,678350
10,100333	0,5	2,632250
10,108667	0,5	2,593750
10,117000	0,5	2,559250
10,125333	0,5	2,530200
10,133667	0,5	2,505050
10,142000	0,5	2,483000
10,150333	0,5	2,467700
10,158667	0,5	2,449750
10,167000	0,5	2,434350
10,175333	0,5	2,423200
10,183667	0,5	2,410850
10,192000	0,5	2,401650
10,200333	0,5	2,399050
10,208667	0,5	2,395300
10,217000	0,5	2,398200
10,225333	0,5	2,405150
10,233667	0,5	2,410900
10,242000	0,5	2,417750
10,250333	0,5	2,425950
10,258667	0,5	2,428950
10,267000	0,5	2,426250
10,275333	0,5	2,415700
10,283667	0,5	2,401150
10,292000	0,5	2,386700
10,300333	0,5	2,375650
10,308667	0,5	2,376450
10,317000	0,5	2,399000
10,325333	0,5	2,441800
10,333667	0,5	2,499700
10,342000	0,5	2,559700
10,350333	0,5	2,597800
10,358667	0,5	2,614500
10,367000	0,5	2,593150
10,375333	0,5	2,551450
10,383667	0,5	2,496250
10,392000	0,5	2,439100
10,400333	0,5	2,391150
10,408667	0,5	2,343500
10,417000	0,5	2,303450
10,425333	0,5	2,271650
10,433667	0,5	2,248550
10,442000	0,5	2,229550
10,450333	0,5	2,216600
10,458667	0,5	2,207600
10,467000	0,5	2,204000
10,475333	0,5	2,201600
10,483667	0,5	2,204250
10,492000	0,5	2,207150
10,500333	0,5	2,215800
10,508667	0,5	2,225400
10,517000	0,5	2,242300
10,525333	0,5	2,257700
10,533667	0,5	2,272450
10,542000	0,5	2,281500
10,550333	0,5	2,282500
10,558667	0,5	2,276250
10,567000	0,5	2,270750
10,575333	0,5	2,275900
10,583667	0,5	2,299150
10,592000	0,5	2,345550
10,600333	0,5	2,395850
10,608667	0,5	2,439350
10,617000	0,5	2,460400
10,625333	0,5	2,444850
10,633667	0,5	2,391400
10,642000	0,5	2,315350
10,650333	0,5	2,215450
10,658667	0,5	2,115850
10,667000	0,5	2,024450
10,675333	0,5	1,950900
10,683667	0,5	1,895000
10,692000	0,5	1,863450
10,700333	0,5	1,847150
10,708667	0,5	1,845100
10,717000	0,5	1,848650
10,725333	0,5	1,867800
10,733667	0,5	1,887000
10,742000	0,5	1,904900
10,750333	0,5	1,921750
10,758667	0,5	1,939950
10,767000	0,5	1,958350
10,775333	0,5	1,977700
10,783667	0,5	1,990350
10,792000	0,5	2,003400
10,800333	0,5	2,012050
10,808667	0,5	2,020050
10,817000	0,5	2,038100
10,825333	0,5	2,063600
10,833667	0,5	2,102050
10,842000	0,5	2,148500
10,850333	0,5	2,181200
10,858667	0,5	2,197700
10,867000	0,5	2,190400
10,875333	0,5	2,163200
10,883667	0,5	2,127800
10,892000	0,5	2,081100
10,900333	0,5	2,029450
10,908667	0,5	1,973000
10,917000	0,5	1,921500
10,925333	0,5	1,877350
10,933667	0,5	1,840550
10,942000	0,5	1,819200
10,950333	0,5	1,806700
10,958667	0,5	1,802250
10,967000	0,5	1,804600
10,975333	0,5	1,814400
10,983667	0,5	1,833500
10,992000	0,5	1,862200
11,000333	0,5	1,889900
11,008667	0,5	1,924750
11,017000	0,5	1,966200
11,025333	0,5	2,013450
11,033667	0,5	2,065550
11,042000	0,5	2,118850
11,050333	0,5	2,163400
11,058667	0,5	2,194400
11,067000	0,5	2,197050
11,075333	0,5	2,181100
11,083667	0,5	2,148650
11,092000	0,5	2,106000
11,100333	0,5	2,057050
11,108667	0,5	2,002800
11,117000	0,5	1,953800
11,125333	0,5	1,899450
11,133667	0,5	1,865050
11,142000	0,5	1,834050
11,150333	0,5	1,810700
11,158667	0,5	1,796950
11,167000	0,5	1,793650
11,175333	0,5	1,803050
11,183667	0,5	1,829300
11,192000	0,5	1,866450
11,200333	0,5	1,920750
11,208667	0,5	1,988600
11,217000	0,5	2,062700
11,225333	0,5	2,134450
11,233667	0,5	2,187250
11,242000	0,5	2,217200
11,250333	0,5	2,217850
11,258667	0,5	2,202250
11,267000	0,5	2,173700
11,275333	0,5	2,144550
11,283667	0,5	2,134200
11,292000	0,5	2,146300
11,300333	0,5	2,187850
11,308667	0,5	2,280950
11,317000	0,5	2,443350
11,325333	0,5	2,697700
11,333667	0,5	3,025050
11,342000	0,5	3,402450
11,350333	0,5	3,771600
11,358667	0,5	4,091450
11,367000	0,5	4,302700
11,375333	0,5	4,400150
11,383667	0,5	4,368700
11,392000	0,5	4,234250
11,400333	0,5	4,016950
11,408667	0,5	3,744750
11,417000	0,5	3,434900
11,425333	0,5	3,132100
11,433667	0,5	2,862450
11,442000	0,5	2,633050
11,450333	0,5	2,454800
11,458667	0,5	2,327150
11,467000	0,5	2,256500
11,475333	0,5	2,215400
11,483667	0,5	2,199550
11,492000	0,5	2,198950
11,500333	0,5	2,206500
11,508667	0,5	2,218150
11,517000	0,5	2,240050
11,525333	0,5	2,259550
11,533667	0,5	2,278150
11,542000	0,5	2,278550
11,550333	0,5	2,267200
11,558667	0,5	2,226300
11,567000	0,5	2,163400
11,575333	0,5	2,094450
11,583667	0,5	2,025150
11,592000	0,5	1,955450
11,600333	0,5	1,894350
11,608667	0,5	1,846450
11,617000	0,5	1,810250
11,625333	0,5	1,784200
11,633667	0,5	1,767850
11,642000	0,5	1,766200
11,650333	0,5	1,781500
11,658667	0,5	1,809300
11,667000	0,5	1,858250
11,675333	0,5	1,922650
11,683667	0,5	1,993000
11,692000	0,5	2,066850
11,700333	0,5	2,136400
11,708667	0,5	2,206650
11,717000	0,5	2,256700
11,725333	0,5	2,298300
11,733667	0,5	2,310700
11,742000	0,5	2,294800
11,750333	0,5	2,248050
11,758667	0,5	2,187950
11,767000	0,5	2,114200
11,775333	0,5	2,046200
11,783667	0,5	1,974350
11,792000	0,5	1,911300
11,800333	0,5	1,856150
11,808667	0,5	1,805000
11,817000	0,5	1,762800
11,825333	0,5	1,723150
11,833667	0,5	1,686100
11,842000	0,5	1,656200
11,850333	0,5	1,637300
11,858667	0,5	1,613650
11,867000	0,5	1,604950
11,875333	0,5	1,603450
11,883667	0,5	1,601300
11,892000	0,5	1,604700
11,900333	0,5	1,606000
11,908667	0,5	1,611750
11,917000	0,5	1,613000
11,925333	0,5	1,608700
11,933667	0,5	1,610550
11,942000	0,5	1,605250
11,950333	0,5	1,607300
11,958667	0,5	1,608150
11,967000	0,5	1,610200
11,975333	0,5	1,614650
11,983667	0,5	1,618250
11,992000	0,5	1,626550
12,000333	0,5	1,629650
12,008667	0,5	1,620050
12,017000	0,5	1,620100
12,025333	0,5	1,612400
12,033667	0,5	1,598850
12,042000	0,5	1,587850
12,050333	0,5	1,569050
12,058667	0,5	1,558650
12,067000	0,5	1,551450
12,075333	0,5	1,551000
12,083667	0,5	1,546750
12,092000	0,5	1,548950
12,100333	0,5	1,554700
12,108667	0,5	1,559750
12,117000	0,5	1,561350
12,125333	0,5	1,562150
12,133667	0,5	1,560700
12,142000	0,5	1,560100
12,150333	0,5	1,553750
12,158667	0,5	1,546900
12,167000	0,5	1,552500
12,175333	0,5	1,556100
12,183667	0,5	1,553950
12,192000	0,5	1,556700
12,200333	0,5	1,555200
12,208667	0,5	1,555500
12,217000	0,5	1,558200
12,225333	0,5	1,555800
12,233667	0,5	1,558450
12,242000	0,5	1,566500
12,250333	0,5	1,571000
12,258667	0,5	1,579000
12,267000	0,5	1,593900
12,275333	0,5	1,603800
12,283667	0,5	1,615000
12,292000	0,5	1,627450
12,300333	0,5	1,640200
12,308667	0,5	1,652650
12,317000	0,5	1,677250
12,325333	0,5	1,684800
12,333667	0,5	1,692000
12,342000	0,5	1,705700
12,350333	0,5	1,745550
12,358667	0,5	1,825250
12,367000	0,5	1,920250
12,375333	0,5	2,039400
12,383667	0,5	2,109850
12,392000	0,5	2,052000
12,400333	0,5	1,927650
12,408667	0,5	1,713250
12,417000	0,5	1,412950
12,425333	0,5	1,065850
12,433667	0,5	0,715500
12,442000	0,5	0,457200
12,450333	0,5	0,270000
12,458667	0,5	0,147950
12,467000	0,5	0,066000
12,475333	0,5	0,003500
12,483667	0,5	-0,044600
12,492000	0,5	-0,083300
12,500333	0,5	-0,117250
12,508667	0,5	-0,140950
12,517000	0,5	-0,160750
12,525333	0,5	-0,179050
12,533667	0,5	-0,184400
12,542000	0,5	-0,193200
12,550333	0,5	-0,192850
12,558667	0,5	-0,196550
12,567000	0,5	-0,199500
12,575333	0,5	-0,204700
12,583667	0,5	-0,206350
12,592000	0,5	-0,214150
12,600333	0,5	-0,225400
12,608667	0,5	-0,232650
12,617000	0,5	-0,246300
12,625333	0,5	-0,262750
12,633667	0,5	-0,279900
12,642000	0,5	-0,295650
12,650333	0,5	-0,302400
12,658667	0,5	-0,309900
12,667000	0,5	-0,312950
12,675333	0,5	-0,314850
12,683667	0,5	-0,313200
12,692000	0,5	-0,308900
12,700333	0,5	-0,303350
12,708667	0,5	-0,300050
12,717000	0,5	-0,298050
12,725333	0,5	-0,294150
12,733667	0,5	-0,293200
12,742000	0,5	-0,299600
12,750333	0,5	-0,304850
12,758667	0,5	-0,304350
12,767000	0,5	-0,312950
12,775333	0,5	-0,319150
12,783667	0,5	-0,329850
12,792000	0,5	-0,333650
12,800333	0,5	-0,337450
12,808667	0,5	-0,332450
12,817000	0,5	-0,338700
12,825333	0,5	-0,335100
12,833667	0,5	-0,338650
12,842000	0,5	-0,340250
12,850333	0,5	-0,343700
12,858667	0,5	-0,349850
12,867000	0,5	-0,353700
12,875333	0,5	-0,360700
12,883667	0,5	-0,362650
12,892000	0,5	-0,373100
12,900333	0,5	-0,374200
12,908667	0,5	-0,370500
12,917000	0,5	-0,371700
12,925333	0,5	-0,371000
12,933667	0,5	-0,369850
12,942000	0,5	-0,360050
12,950333	0,5	-0,341200
12,958667	0,5	-0,324300
12,967000	0,5	-0,296400
12,975333	0,5	-0,262300
12,983667	0,5	-0,213850
12,992000	0,5	-0,159900
13,000333	0,5	-0,094050
13,008667	0,5	-0,022700
13,017000	0,5	0,055650
13,025333	0,5	0,144350
13,033667	0,5	0,230850
13,042000	0,5	0,303450
13,050333	0,5	0,384650
13,058667	0,5	0,452900
13,067000	0,5	0,502600
13,075333	0,5	0,549900
13,083667	0,5	0,569750
13,092000	0,5	0,601050
13,100333	0,5	0,616400
13,108667	0,5	0,629200
13,117000	0,5	0,633350
13,125333	0,5	0,644400
13,133667	0,5	0,652750
13,142000	0,5	0,662050
13,150333	0,5	0,672000
13,158667	0,5	0,683900
13,167000	0,5	0,689800
13,175333	0,5	0,696100
13,183667	0,5	0,695550
13,192000	0,5	0,684700
13,200333	0,5	0,680850
13,208667	0,5	0,668900
13,217000	0,5	0,645300
13,225333	0,5	0,624100
13,233667	0,5	0,596650
13,242000	0,5	0,583300
13,250333	0,5	0,569050
13,258667	0,5	0,551550
13,267000	0,5	0,546800
13,275333	0,5	0,536200
13,283667	0,5	0,534200
13,292000	0,5	0,534750
13,300333	0,5	0,535700
13,308667	0,5	0,544050
13,317000	0,5	0,557950
13,325333	0,5	0,581250
13,333667	0,5	0,614300
13,342000	0,5	0,647750
13,350333	0,5	0,696550
13,358667	0,5	0,737300
13,367000	0,5	0,772050
13,375333	0,5	0,791550
13,383667	0,5	0,804400
13,392000	0,5	0,809400
13,400333	0,5	0,796100
13,408667	0,5	0,771550
13,417000	0,5	0,741450
13,425333	0,5	0,705500
13,433667	0,5	0,678150
13,442000	0,5	0,655100
13,450333	0,5	0,636900
13,458667	0,5	0,639800
13,467000	0,5	0,649600
13,475333	0,5	0,668350
13,483667	0,5	0,685450
13,492000	0,5	0,715050
13,500333	0,5	0,738150
13,508667	0,5	0,756200
13,517000	0,5	0,765200
13,525333	0,5	0,768850
13,533667	0,5	0,776150
13,542000	0,5	0,777500
13,550333	0,5	0,769000
13,558667	0,5	0,755900
13,567000	0,5	0,738850
13,575333	0,5	0,733000
13,583667	0,5	0,723500
13,592000	0,5	0,718850
13,600333	0,5	0,714000
13,608667	0,5	0,710450
13,617000	0,5	0,711300
13,625333	0,5	0,707100
13,633667	0,5	0,699400
13,642000	0,5	0,703100
13,650333	0,5	0,707950
13,658667	0,5	0,705750
13,667000	0,5	0,697000
13,675333	0,5	0,682250
13,683667	0,5	0,683600
13,692000	0,5	0,685100
13,700333	0,5	0,690350
13,708667	0,5	0,696400
13,717000	0,5	0,709000
13,725333	0,5	0,721350
13,733667	0,5	0,735750
13,742000	0,5	0,753200
13,750333	0,5	0,764500
13,758667	0,5	0,773500
13,767000	0,5	0,769500
13,775333	0,5	0,758450
13,783667	0,5	0,746850
13,792000	0,5	0,739150
13,800333	0,5	0,725400
13,808667	0,5	0,715400
13,817000	0,5	0,699200
13,825333	0,5	0,693050
13,833667	0,5	0,689750
13,842000	0,5	0,688800
13,850333	0,5	0,684500
13,858667	0,5	0,685350
13,867000	0,5	0,686300
13,875333	0,5	0,696500
13,883667	0,5	0,699500
13,892000	0,5	0,706600
13,900333	0,5	0,706100
13,908667	0,5	0,702700
13,917000	0,5	0,700700
13,925333	0,5	0,694950
13,933667	0,5	0,699250
13,942000	0,5	0,706850
13,950333	0,5	0,708750
13,958667	0,5	0,707550
13,967000	0,5	0,703650
13,975333	0,5	0,707350
13,983667	0,5	0,714400
13,992000	0,5	0,713550
14,000333	0,5	0,721200
14,008667	0,5	0,721200
14,017000	0,5	0,733500
14,025333	0,5	0,735650
14,033667	0,5	0,748200
14,042000	0,5	0,751750
14,050333	0,5	0,761900
14,058667	0,5	0,775350
14,067000	0,5	0,784750
14,075333	0,5	0,774650
14,083667	0,5	0,795900
14,092000	0,5	0,800250
14,100333	0,5	0,805650
14,108667	0,5	0,807900
14,117000	0,5	0,809350
14,125333	0,5	0,830000
14,133667	0,5	0,838600
14,142000	0,5	0,852800
14,150333	0,5	0,864400
14,158667	0,5	0,881450
14,167000	0,5	0,887350
14,175333	0,5	0,897850
14,183667	0,5	0,908050
14,192000	0,5	0,918600
14,200333	0,5	0,924650
14,208667	0,5	0,944250
14,217000	0,5	0,951100
14,225333	0,5	0,963850
14,233667	0,5	0,980850
14,242000	0,5	0,993400
14,250333	0,5	1,001850
14,258667	0,5	1,008300
14,267000	0,5	1,014800
14,275333	0,5	1,037150
14,283667	0,5	1,050500
14,292000	0,5	1,062000
14,300333	0,5	1,073500
14,308667	0,5	1,086850
14,317000	0,5	1,100950
14,325333	0,5	1,112400
14,333667	0,5	1,128750
14,342000	0,5	1,134000
14,350333	0,5	1,141950
14,358667	0,5	1,148550
14,367000	0,5	1,150350
14,375333	0,5	1,157600
14,383667	0,5	1,168850
14,392000	0,5	1,170650
14,400333	0,5	1,169250
14,408667	0,5	1,162050
14,417000	0,5	1,169600
14,425333	0,5	1,175600
14,433667	0,5	1,177150
14,442000	0,5	1,177000
14,450333	0,5	1,171650
14,458667	0,5	1,168150
14,467000	0,5	1,157800
14,475333	0,5	1,158250
14,483667	0,5	1,154450
14,492000	0,5	1,156350
14,500333	0,5	1,155650
14,508667	0,5	1,155300
14,517000	0,5	1,138050
14,525333	0,5	1,141600
14,533667	0,5	1,130250
14,542000	0,5	1,122250
14,550333	0,5	1,105800
14,558667	0,5	1,094250
14,567000	0,5	1,090800
14,575333	0,5	1,089700
14,583667	0,5	1,085550
14,592000	0,5	1,083600
14,600333	0,5	1,075550
14,608667	0,5	1,073250
14,617000	0,5	1,073150
14,625333	0,5	1,070200
14,633667	0,5	1,065400
14,642000	0,5	1,059600
14,650333	0,5	1,059500
14,658667	0,5	1,048450
14,667000	0,5	1,039800
14,675333	0,5	1,042250
14,683667	0,5	1,039200
14,692000	0,5	1,032000
14,700333	0,5	1,017900
14,708667	0,5	1,002500
14,717000	0,5	1,001100
14,725333	0,5	0,991700
14,733667	0,5	0,993600
14,742000	0,5	0,988050
14,750333	0,5	0,986750
14,758667	0,5	0,978550
14,767000	0,5	0,976150
14,775333	0,5	0,973700
14,783667	0,5	0,969750
14,792000	0,5	0,970900
14,800333	0,5	0,968100
14,808667	0,5	0,953600
14,817000	0,5	0,958000
14,825333	0,5	0,964300
14,833667	0,5	0,954700
14,842000	0,5	0,955850
14,850333	0,5	0,941800
14,858667	0,5	0,947450
14,867000	0,5	0,947650
14,875333	0,5	0,960950
14,883667	0,5	0,961200
14,892000	0,5	0,974350
14,900333	0,5	0,971950
14,908667	0,5	0,977750
14,917000	0,5	0,977550
14,925333	0,5	0,970450
14,933667	0,5	0,966350
14,942000	0,5	0,960250
14,950333	0,5	0,948000
14,958667	0,5	0,934950
14,967000	0,5	0,940900
14,975333	0,5	0,946850
14,983667	0,5	0,950300
14,992000	0,5	0,956350
15,000333	0,5	0,960350
15,008667	0,5	0,979500
15,017000	0,5	1,000100
15,025333	0,5	1,001750
15,033667	0,5	0,996750
15,042000	0,5	0,979200
15,050333	0,5	0,967700
15,058667	0,5	0,952950
15,067000	0,5	0,953350
15,075333	0,5	0,966600
15,083667	0,5	0,991100
15,092000	0,5	1,033500
15,100333	0,5	1,059450
15,108667	0,5	1,061800
15,117000	0,5	1,070450
15,125333	0,5	1,048200
15,133667	0,5	1,005750
15,142000	0,5	0,959550
15,150333	0,5	0,917250
15,158667	0,5	0,908400
15,167000	0,5	0,893450
15,175333	0,5	0,887500
15,183667	0,5	0,877100
15,192000	0,5	0,870100
15,200333	0,5	0,848400
15,208667	0,5	0,830450
15,217000	0,5	0,807300
15,225333	0,5	0,785850
15,233667	0,5	0,765300
15,242000	0,5	0,757850
15,250333	0,5	0,736900
15,258667	0,5	0,727200
15,267000	0,5	0,723650
15,275333	0,5	0,717450
15,283667	0,5	0,699750
15,292000	0,5	0,682450
15,300333	0,5	0,679000
15,308667	0,5	0,676300
15,317000	0,5	0,673900
15,325333	0,5	0,674250
15,333667	0,5	0,676200
15,342000	0,5	0,677800
15,350333	0,5	0,681000
15,358667	0,5	0,677800
15,367000	0,5	0,675650
15,375333	0,5	0,660100
15,383667	0,5	0,659950
15,392000	0,5	0,654050
15,400333	0,5	0,637250
15,408667	0,5	0,644150
15,417000	0,5	0,646000
15,425333	0,5	0,638350
15,433667	0,5	0,628550
15,442000	0,5	0,607050
15,450333	0,5	0,604200
15,458667	0,5	0,596850
15,467000	0,5	0,590050
15,475333	0,5	0,577500
15,483667	0,5	0,573750
15,492000	0,5	0,564750
15,500333	0,5	0,557900
15,508667	0,5	0,554850
15,517000	0,5	0,544050
15,525333	0,5	0,545500
15,533667	0,5	0,540800
15,542000	0,5	0,537800
15,550333	0,5	0,518000
15,558667	0,5	0,523850
15,567000	0,5	0,512950
15,575333	0,5	0,510550
15,583667	0,5	0,490200
15,592000	0,5	0,480900
15,600333	0,5	0,477200
15,608667	0,5	0,480550
15,617000	0,5	0,475600
15,625333	0,5	0,476150
15,633667	0,5	0,470650
15,642000	0,5	0,472250
15,650333	0,5	0,470900
15,658667	0,5	0,473100
15,667000	0,5	0,474550
15,675333	0,5	0,473550
15,683667	0,5	0,481850
15,692000	0,5	0,478050
15,700333	0,5	0,476050
15,708667	0,5	0,485900
15,717000	0,5	0,485350
15,725333	0,5	0,483550
15,733667	0,5	0,473700
15,742000	0,5	0,456750
15,750333	0,5	0,455900
15,758667	0,5	0,439900
15,767000	0,5	0,433150
15,775333	0,5	0,423500
15,783667	0,5	0,417300
15,792000	0,5	0,408550
15,800333	0,5	0,406200
15,808667	0,5	0,402100
15,817000	0,5	0,402100
15,825333	0,5	0,412450
15,833667	0,5	0,414000
15,842000	0,5	0,401550
15,850333	0,5	0,407200
15,858667	0,5	0,401300
15,867000	0,5	0,388850
15,875333	0,5	0,373100
15,883667	0,5	0,345050
15,892000	0,5	0,340450
15,900333	0,5	0,333150
15,908667	0,5	0,335050
15,917000	0,5	0,326150
15,925333	0,5	0,325600
15,933667	0,5	0,321950
15,942000	0,5	0,324500
15,950333	0,5	0,322650
15,958667	0,5	0,320700
15,967000	0,5	0,321800
15,975333	0,5	0,328600
15,983667	0,5	0,318850
15,992000	0,5	0,313150
16,000333	0,5	0,313250
16,008667	0,5	0,313250
16,017000	0,5	0,301650
16,025333	0,5	0,292150
16,033667	0,5	0,277800
16,042000	0,5	0,273950
16,050333	0,5	0,278300
16,058667	0,5	0,272500
16,067000	0,5	0,274300
16,075333	0,5	0,269900
16,083667	0,5	0,273450
16,092000	0,5	0,270300
16,100333	0,5	0,273800
16,108667	0,5	0,267000
16,117000	0,5	0,265650
16,125333	0,5	0,266800
16,133667	0,5	0,252350
16,142000	0,5	0,245050
16,150333	0,5	0,252250
16,158667	0,5	0,248950
16,167000	0,5	0,243700
16,175333	0,5	0,227150
16,183667	0,5	0,216000
16,192000	0,5	0,226750
16,200333	0,5	0,215000
16,208667	0,5	0,212050
16,217000	0,5	0,208000
16,225333	0,5	0,207100
16,233667	0,5	0,199800
16,242000	0,5	0,198150
16,250333	0,5	0,191500
16,258667	0,5	0,190150
16,267000	0,5	0,191100
16,275333	0,5	0,200750
16,283667	0,5	0,177550
16,292000	0,5	0,182700
16,300333	0,5	0,178850
16,308667	0,5	0,172550
16,317000	0,5	0,158100
16,325333	0,5	0,139850
16,333667	0,5	0,136450
16,342000	0,5	0,135250
16,350333	0,5	0,127100
16,358667	0,5	0,120250
16,367000	0,5	0,113750
16,375333	0,5	0,108050
16,383667	0,5	0,104650
16,392000	0,5	0,100250
16,400333	0,5	0,098650
16,408667	0,5	0,091600
16,417000	0,5	0,098800
16,425333	0,5	0,097550
16,433667	0,5	0,086000
16,442000	0,5	0,096800
16,450333	0,5	0,096750
16,458667	0,5	0,091300
16,467000	0,5	0,081050
16,475333	0,5	0,059500
16,483667	0,5	0,064150
16,492000	0,5	0,059250
16,500333	0,5	0,058550
16,508667	0,5	0,050650
16,517000	0,5	0,049050
16,525333	0,5	0,045700
16,533667	0,5	0,040650
16,542000	0,5	0,037500
16,550333	0,5	0,032050
16,558667	0,5	0,027850
16,567000	0,5	0,020400
16,575333	0,5	0,018100
16,583667	0,5	0,006250
16,592000	0,5	0,015150
16,600333	0,5	0,004300
16,608667	0,5	-0,001550
16,617000	0,5	-0,016800
16,625333	0,5	-0,025850
16,633667	0,5	-0,029250
16,642000	0,5	-0,023550
16,650333	0,5	-0,036650
16,658667	0,5	-0,034650
16,667000	0,5	-0,039100
16,675333	0,5	-0,041950
16,683667	0,5	-0,043000
16,692000	0,5	-0,051000
16,700333	0,5	-0,054000
16,708667	0,5	-0,063050
16,717000	0,5	-0,062450
16,725333	0,5	-0,077700
16,733667	0,5	-0,071950
16,742000	0,5	-0,062300
16,750333	0,5	-0,070150
16,758667	0,5	-0,075750
16,767000	0,5	-0,090500
16,775333	0,5	-0,097200
16,783667	0,5	-0,093350
16,792000	0,5	-0,097600
16,800333	0,5	-0,096100
16,808667	0,5	-0,098750
16,817000	0,5	-0,095450
16,825333	0,5	-0,098800
16,833667	0,5	-0,097900
16,842000	0,5	-0,103250
16,850333	0,5	-0,108450
16,858667	0,5	-0,100700
16,867000	0,5	-0,105150
16,875333	0,5	-0,118250
16,883667	0,5	-0,108400
16,892000	0,5	-0,107400
16,900333	0,5	-0,112800
16,908667	0,5	-0,119250
16,917000	0,5	-0,127850
16,925333	0,5	-0,119350
16,933667	0,5	-0,121700
16,942000	0,5	-0,111300
16,950333	0,5	-0,111300
16,958667	0,5	-0,102000
16,967000	0,5	-0,102100
16,975333	0,5	-0,088550
16,983667	0,5	-0,080700
16,992000	0,5	-0,073900
17,000333	0,5	-0,063850
17,008667	0,5	-0,044150
17,017000	0,5	-0,046850
17,025333	0,5	-0,033100
17,033667	0,5	-0,014800
17,042000	0,5	0,004500
17,050333	0,5	0,012400
17,058667	0,5	0,016050
17,067000	0,5	0,032150
17,075333	0,5	0,052950
17,083667	0,5	0,076950
17,092000	0,5	0,085000
17,100333	0,5	0,099100
17,108667	0,5	0,103050
17,117000	0,5	0,106300
17,125333	0,5	0,101850
17,133667	0,5	0,091950
17,142000	0,5	0,083600
17,150333	0,5	0,077500
17,158667	0,5	0,081200
17,167000	0,5	0,068100
17,175333	0,5	0,077100
17,183667	0,5	0,088300
17,192000	0,5	0,090300
17,200333	0,5	0,088900
17,208667	0,5	0,077200
17,217000	0,5	0,083100
17,225333	0,5	0,095850
17,233667	0,5	0,098100
17,242000	0,5	0,105900
17,250333	0,5	0,110700
17,258667	0,5	0,119450
17,267000	0,5	0,125050
17,275333	0,5	0,134500
17,283667	0,5	0,133600
17,292000	0,5	0,136500
17,300333	0,5	0,134900
17,308667	0,5	0,144100
17,317000	0,5	0,125450
17,325333	0,5	0,136950
17,333667	0,5	0,130250
17,342000	0,5	0,123800
17,350333	0,5	0,113050
17,358667	0,5	0,093350
17,367000	0,5	0,100650
17,375333	0,5	0,095450
17,383667	0,5	0,088750
17,392000	0,5	0,086900
17,400333	0,5	0,080100
17,408667	0,5	0,080400
17,417000	0,5	0,083100
17,425333	0,5	0,077500
17,433667	0,5	0,079450
17,442000	0,5	0,073600
17,450333	0,5	0,078650
17,458667	0,5	0,068700
17,467000	0,5	0,058150
17,475333	0,5	0,066100
17,483667	0,5	0,054350
17,492000	0,5	0,041850
17,500333	0,5	0,022900
17,508667	0,5	-0,000150
17,517000	0,5	0,000100
17,525333	0,5	-0,007650
17,533667	0,5	-0,019000
17,542000	0,5	-0,028250
17,550333	0,5	-0,035550
17,558667	0,5	-0,043850
17,567000	0,5	-0,054200
17,575333	0,5	-0,059800
17,583667	0,5	-0,071450
17,592000	0,5	-0,067650
17,600333	0,5	-0,074750
17,608667	0,5	-0,087850
17,617000	0,5	-0,090700
17,625333	0,5	-0,084950
17,633667	0,5	-0,095900
17,642000	0,5	-0,099600
17,650333	0,5	-0,110000
17,658667	0,5	-0,107550
17,667000	0,5	-0,101600
17,675333	0,5	-0,088150
17,683667	0,5	-0,081050
17,692000	0,5	-0,071900
17,700333	0,5	-0,069250
17,708667	0,5	-0,063750
17,717000	0,5	-0,067850
17,725333	0,5	-0,079000
17,733667	0,5	-0,093600
17,742000	0,5	-0,114350
17,750333	0,5	-0,143250
17,758667	0,5	-0,176400
17,767000	0,5	-0,185200
17,775333	0,5	-0,204450
17,783667	0,5	-0,221300
17,792000	0,5	-0,250300
17,800333	0,5	-0,270200
17,808667	0,5	-0,286100
17,817000	0,5	-0,289000
17,825333	0,5	-0,301200
17,833667	0,5	-0,303700
17,842000	0,5	-0,316000
17,850333	0,5	-0,320350
17,858667	0,5	-0,325650
17,867000	0,5	-0,334150
17,875333	0,5	-0,337300
17,883667	0,5	-0,344500
17,892000	0,5	-0,337700
17,900333	0,5	-0,357750
17,908667	0,5	-0,361050
17,917000	0,5	-0,356650
17,925333	0,5	-0,360900
17,933667	0,5	-0,376600
17,942000	0,5	-0,398800
17,950333	0,5	-0,407500
17,958667	0,5	-0,403700
17,967000	0,5	-0,415400
17,975333	0,5	-0,416800
17,983667	0,5	-0,428250
17,992000	0,5	-0,430950
18,000333	0,5	-0,434000
18,008667	0,5	-0,435600
18,017000	0,5	-0,442500
18,025333	0,5	-0,447050
18,033667	0,5	-0,448700
18,042000	0,5	-0,452350
18,050333	0,5	-0,474550
18,058667	0,5	-0,467550
18,067000	0,5	-0,470550
18,075333	0,5	-0,475700
18,083667	0,5	-0,483150
18,092000	0,5	-0,508000
18,100333	0,5	-0,507150
18,108667	0,5	-0,513650
18,117000	0,5	-0,513000
18,125333	0,5	-0,521850
18,133667	0,5	-0,525450
18,142000	0,5	-0,535650
18,150333	0,5	-0,531700
18,158667	0,5	-0,540600
18,167000	0,5	-0,546800
18,175333	0,5	-0,553800
18,183667	0,5	-0,554600
18,192000	0,5	-0,560300
18,200333	0,5	-0,578600
18,208667	0,5	-0,566350
18,217000	0,5	-0,570800
18,225333	0,5	-0,582150
18,233667	0,5	-0,597450
18,242000	0,5	-0,614150
18,250333	0,5	-0,617950
18,258667	0,5	-0,619050
18,267000	0,5	-0,630350
18,275333	0,5	-0,633850
18,283667	0,5	-0,641550
18,292000	0,5	-0,646850
18,300333	0,5	-0,654800
18,308667	0,5	-0,655350
18,317000	0,5	-0,663900
18,325333	0,5	-0,673850
18,333667	0,5	-0,680650
18,342000	0,5	-0,679300
18,350333	0,5	-0,691450
18,358667	0,5	-0,683300
18,367000	0,5	-0,691650
18,375333	0,5	-0,702400
18,383667	0,5	-0,718200
18,392000	0,5	-0,731000
18,400333	0,5	-0,728050
18,408667	0,5	-0,729350
18,417000	0,5	-0,735600
18,425333	0,5	-0,745200
18,433667	0,5	-0,743900
18,442000	0,5	-0,751350
18,450333	0,5	-0,748850
18,458667	0,5	-0,755900
18,467000	0,5	-0,760300
18,475333	0,5	-0,767400
18,483667	0,5	-0,763350
18,492000	0,5	-0,782400
18,500333	0,5	-0,772850
18,508667	0,5	-0,773400
18,517000	0,5	-0,775850
18,525333	0,5	-0,788650
18,533667	0,5	-0,804950
18,542000	0,5	-0,806600
18,550333	0,5	-0,809600
18,558667	0,5	-0,803950
18,567000	0,5	-0,802700
18,575333	0,5	-0,804000
18,583667	0,5	-0,800750
18,592000	0,5	-0,794500
18,600333	0,5	-0,790800
18,608667	0,5	-0,786600
18,617000	0,5	-0,782900
18,625333	0,5	-0,772650
18,633667	0,5	-0,777050
18,642000	0,5	-0,767350
18,650333	0,5	-0,753250
18,658667	0,5	-0,742850
18,667000	0,5	-0,738250
18,675333	0,5	-0,740350
18,683667	0,5	-0,744750
18,692000	0,5	-0,734400
18,700333	0,5	-0,722300
18,708667	0,5	-0,713950
18,717000	0,5	-0,709150
18,725333	0,5	-0,702650
18,733667	0,5	-0,701650
18,742000	0,5	-0,697550
18,750333	0,5	-0,694300
18,758667	0,5	-0,703100
18,767000	0,5	-0,702750
18,775333	0,5	-0,713000
18,783667	0,5	-0,729200
18,792000	0,5	-0,728250
18,800333	0,5	-0,725700
18,808667	0,5	-0,738250
18,817000	0,5	-0,747800
18,825333	0,5	-0,776150
18,833667	0,5	-0,782950
18,842000	0,5	-0,791050
18,850333	0,5	-0,798500
18,858667	0,5	-0,812550
18,867000	0,5	-0,814650
18,875333	0,5	-0,824100
18,883667	0,5	-0,828450
18,892000	0,5	-0,831450
18,900333	0,5	-0,845750
18,908667	0,5	-0,847950
18,917000	0,5	-0,855100
18,925333	0,5	-0,853650
18,933667	0,5	-0,881150
18,942000	0,5	-0,870750
18,950333	0,5	-0,871800
18,958667	0,5	-0,877150
18,967000	0,5	-0,892450
18,975333	0,5	-0,910800
18,983667	0,5	-0,910900
18,992000	0,5	-0,909300
19,000333	0,5	-0,919150
19,008667	0,5	-0,912200
19,017000	0,5	-0,917650
19,025333	0,5	-0,907500
19,033667	0,5	-0,903600
19,042000	0,5	-0,898100
19,050333	0,5	-0,889200
19,058667	0,5	-0,882900
19,067000	0,5	-0,861750
19,075333	0,5	-0,864350
19,083667	0,5	-0,874450
19,092000	0,5	-0,864700
19,100333	0,5	-0,874100
19,108667	0,5	-0,894400
19,117000	0,5	-0,912100
19,125333	0,5	-0,943000
19,133667	0,5	-0,949500
19,142000	0,5	-0,972350
19,150333	0,5	-0,977900
19,158667	0,5	-1,002950
19,167000	0,5	-1,007400
19,175333	0,5	-1,021800
19,183667	0,5	-1,023950
19,192000	0,5	-1,033950
19,200333	0,5	-1,042450
19,208667	0,5	-1,046450
19,217000	0,5	-1,043150
19,225333	0,5	-1,057050
19,233667	0,5	-1,056650
19,242000	0,5	-1,050900
19,250333	0,5	-1,056000
19,258667	0,5	-1,063200
19,267000	0,5	-1,089800
19,275333	0,5	-1,093500
19,283667	0,5	-1,101250
19,292000	0,5	-1,101100
19,300333	0,5	-1,113100
19,308667	0,5	-1,112050
19,317000	0,5	-1,120850
19,325333	0,5	-1,121750
19,333667	0,5	-1,128450
19,342000	0,5	-1,133550
19,350333	0,5	-1,137850
19,358667	0,5	-1,142700
19,367000	0,5	-1,140800
19,375333	0,5	-1,152800
19,383667	0,5	-1,151650
19,392000	0,5	-1,155900
19,400333	0,5	-1,163050
19,408667	0,5	-1,179800
19,417000	0,5	-1,197050
19,425333	0,5	-1,198500
19,433667	0,5	-1,195700
19,442000	0,5	-1,206650
19,450333	0,5	-1,208100
19,458667	0,5	-1,218900
19,467000	0,5	-1,218600
19,475333	0,5	-1,226850
19,483667	0,5	-1,226000
19,492000	0,5	-1,234900
19,500333	0,5	-1,238500
19,508667	0,5	-1,237400
19,517000	0,5	-1,240150
19,525333	0,5	-1,254750
19,533667	0,5	-1,245050
19,542000	0,5	-1,249000
19,550333	0,5	-1,262950
19,558667	0,5	-1,276850
19,567000	0,5	-1,295950
19,575333	0,5	-1,289450
19,583667	0,5	-1,300250
19,592000	0,5	-1,299450
19,600333	0,5	-1,302850
19,608667	0,5	-1,303200
19,617000	0,5	-1,311800
19,625333	0,5	-1,311250
19,633667	0,5	-1,319650
19,642000	0,5	-1,322300
19,650333	0,5	-1,322850
19,658667	0,5	-1,320600
19,667000	0,5	-1,338450
19,675333	0,5	-1,332550
19,683667	0,5	-1,334400
19,692000	0,5	-1,339550
19,700333	0,5	-1,348600
19,708667	0,5	-1,369800
19,717000	0,5	-1,372700
19,725333	0,5	-1,377000
19,733667	0,5	-1,372500
19,742000	0,5	-1,379600
19,750333	0,5	-1,377650
19,758667	0,5	-1,383300
19,767000	0,5	-1,378050
19,775333	0,5	-1,382250
19,783667	0,5	-1,384000
19,792000	0,5	-1,384900
19,800333	0,5	-1,374550
19,808667	0,5	-1,384850
19,817000	0,5	-1,390000
19,825333	0,5	-1,391550
19,833667	0,5	-1,386450
19,842000	0,5	-1,394100
19,850333	0,5	-1,405650
19,858667	0,5	-1,419250
19,867000	0,5	-1,424150
19,875333	0,5	-1,419800
19,883667	0,5	-1,426500
19,892000	0,5	-1,426850
19,900333	0,5	-1,431650
19,908667	0,5	-1,428000
19,917000	0,5	-1,432750
19,925333	0,5	-1,433600
19,933667	0,5	-1,441250
19,942000	0,5	-1,435800
19,950333	0,5	-1,434200
19,958667	0,5	-1,445750
19,967000	0,5	-1,450300
19,975333	0,5	-1,442750
19,983667	0,5	-1,446800
19,992000	0,5	-1,454900
20,000333	0,5	-1,475550
20,008667	0,5	-1,479500
20,017000	0,5	-1,479100
20,025333	0,5	-1,485350
20,033667	0,5	-1,486500
20,042000	0,5	-1,499500
20,050333	0,5	-1,502000
20,058667	0,5	-1,507550
20,067000	0,5	-1,507250
20,075333	0,5	-1,511600
20,083667	0,5	-1,513300
20,092000	0,5	-1,507150
20,100333	0,5	-1,497650
20,108667	0,5	-1,518700
20,117000	0,5	-1,506050
20,125333	0,5	-1,510100
20,133667	0,5	-1,510400
20,142000	0,5	-1,522450
20,150333	0,5	-1,535150
20,158667	0,5	-1,528800
20,167000	0,5	-1,526400
20,175333	0,5	-1,526900
20,183667	0,5	-1,531300
20,192000	0,5	-1,530350
20,200333	0,5	-1,532250
20,208667	0,5	-1,526650
20,217000	0,5	-1,527150
20,225333	0,5	-1,524750
20,233667	0,5	-1,528750
20,242000	0,5	-1,514100
20,250333	0,5	-1,521050
20,258667	0,5	-1,538950
20,267000	0,5	-1,526850
20,275333	0,5	-1,527000
20,283667	0,5	-1,536150
20,292000	0,5	-1,542350
20,300333	0,5	-1,563550
20,308667	0,5	-1,553950
20,317000	0,5	-1,554750
20,325333	0,5	-1,556900
20,333667	0,5	-1,557250
20,342000	0,5	-1,551600
20,350333	0,5	-1,553600
20,358667	0,5	-1,554900
20,367000	0,5	-1,552300
20,375333	0,5	-1,556450
20,383667	0,5	-1,545300
20,392000	0,5	-1,541100
20,400333	0,5	-1,540300
20,408667	0,5	-1,541800
20,417000	0,5	-1,529900
20,425333	0,5	-1,530950
20,433667	0,5	-1,533650
20,442000	0,5	-1,545900
20,450333	0,5	-1,549550
20,458667	0,5	-1,541900
20,467000	0,5	-1,536500
20,475333	0,5	-1,538150
20,483667	0,5	-1,539950
20,492000	0,5	-1,538550
20,500333	0,5	-1,537900
20,508667	0,5	-1,531050
20,517000	0,5	-1,534850
20,525333	0,5	-1,533000
20,533667	0,5	-1,517900
20,542000	0,5	-1,516900
20,550333	0,5	-1,529050
20,558667	0,5	-1,528850
20,567000	0,5	-1,530450
20,575333	0,5	-1,533050
20,583667	0,5	-1,550850
20,592000	0,5	-1,563400
20,600333	0,5	-1,566850
20,608667	0,5	-1,564100
20,617000	0,5	-1,566450
20,625333	0,5	-1,569900
20,633667	0,5	-1,568550
20,642000	0,5	-1,567500
20,650333	0,5	-1,563300
20,658667	0,5	-1,569950
20,667000	0,5	-1,572300
20,675333	0,5	-1,571900
20,683667	0,5	-1,552650
20,692000	0,5	-1,555900
20,700333	0,5	-1,564000
20,708667	0,5	-1,569400
20,717000	0,5	-1,571850
20,725333	0,5	-1,580550
20,733667	0,5	-1,601550
20,742000	0,5	-1,607300
20,750333	0,5	-1,602900
20,758667	0,5	-1,605950
20,767000	0,5	-1,600500
20,775333	0,5	-1,602400
20,783667	0,5	-1,596850
20,792000	0,5	-1,602350
20,800333	0,5	-1,596150
20,808667	0,5	-1,592650
20,817000	0,5	-1,592350
20,825333	0,5	-1,569100
20,833667	0,5	-1,557450
20,842000	0,5	-1,568750
20,850333	0,5	-1,567200
20,858667	0,5	-1,564200
20,867000	0,5	-1,575150
20,875333	0,5	-1,577850
20,883667	0,5	-1,597600
20,892000	0,5	-1,583000
20,900333	0,5	-1,584200
20,908667	0,5	-1,580050
20,917000	0,5	-1,583600
20,925333	0,5	-1,577450
20,933667	0,5	-1,570650
20,942000	0,5	-1,563500
20,950333	0,5	-1,556600
20,958667	0,5	-1,555200
20,967000	0,5	-1,544700
20,975333	0,5	-1,519000
20,983667	0,5	-1,512400
20,992000	0,5	-1,521750
21,000333	0,5	-1,517400
21,008667	0,5	-1,518350
21,017000	0,5	-1,526050
21,025333	0,5	-1,541700
21,033667	0,5	-1,540000
21,042000	0,5	-1,537050
21,050333	0,5	-1,526700
21,058667	0,5	-1,528800
21,067000	0,5	-1,520100
21,075333	0,5	-1,519850
21,083667	0,5	-1,514200
21,092000	0,5	-1,510800
21,100333	0,5	-1,507850
21,108667	0,5	-1,502650
21,117000	0,5	-1,488150
21,125333	0,5	-1,461200
21,133667	0,5	-1,458450
21,142000	0,5	-1,457350
21,150333	0,5	-1,467250
21,158667	0,5	-1,465600
21,167000	0,5	-1,472750
21,175333	0,5	-1,484750
21,183667	0,5	-1,481250
21,192000	0,5	-1,464000
21,200333	0,5	-1,469000
21,208667	0,5	-1,462700
21,217000	0,5	-1,458500
21,225333	0,5	-1,452550
21,233667	0,5	-1,444900
21,242000	0,5	-1,434400
21,250333	0,5	-1,428200
21,258667	0,5	-1,428750
21,267000	0,5	-1,397850
21,275333	0,5	-1,379250
21,283667	0,5	-1,385050
21,292000	0,5	-1,381150
21,300333	0,5	-1,382850
21,308667	0,5	-1,393100
21,317000	0,5	-1,398950
21,325333	0,5	-1,411650
21,333667	0,5	-1,399550
21,342000	0,5	-1,397350
21,350333	0,5	-1,383500
21,358667	0,5	-1,383300
21,367000	0,5	-1,368350
21,375333	0,5	-1,364200
21,383667	0,5	-1,357950
21,392000	0,5	-1,351850
21,400333	0,5	-1,347750
21,408667	0,5	-1,324700
21,417000	0,5	-1,301150
21,425333	0,5	-1,293550
21,433667	0,5	-1,296350
21,442000	0,5	-1,293850
21,450333	0,5	-1,299300
21,458667	0,5	-1,303900
21,467000	0,5	-1,314050
21,475333	0,5	-1,308200
21,483667	0,5	-1,300650
21,492000	0,5	-1,279900
21,500333	0,5	-1,269750
21,508667	0,5	-1,254450
21,517000	0,5	-1,241800
21,525333	0,5	-1,220550
21,533667	0,5	-1,200950
21,542000	0,5	-1,173300
21,550333	0,5	-1,137100
21,558667	0,5	-1,076800
21,567000	0,5	-1,031000
21,575333	0,5	-1,017850
21,583667	0,5	-1,021650
21,592000	0,5	-1,037600
21,600333	0,5	-1,049950
21,608667	0,5	-1,074450
21,617000	0,5	-1,080150
21,625333	0,5	-1,081800
21,633667	0,5	-1,069150
21,642000	0,5	-1,062450
21,650333	0,5	-1,046450
21,658667	0,5	-1,040250
21,667000	0,5	-1,027850
21,675333	0,5	-1,018150
21,683667	0,5	-1,005150
21,692000	0,5	-0,995350
21,700333	0,5	-0,974850
21,708667	0,5	-0,938900
21,717000	0,5	-0,920500
21,725333	0,5	-0,910350
21,733667	0,5	-0,888200
21,742000	0,5	-0,874050
21,750333	0,5	-0,870050
21,758667	0,5	-0,860750
21,767000	0,5	-0,842850
21,775333	0,5	-0,815450
21,783667	0,5	-0,800300
21,792000	0,5	-0,777800
21,800333	0,5	-0,764050
21,808667	0,5	-0,744350
21,817000	0,5	-0,730000
21,825333	0,5	-0,711900
21,833667	0,5	-0,699400
21,842000	0,5	-0,683350
21,850333	0,5	-0,649750
21,858667	0,5	-0,628200
21,867000	0,5	-0,631950
21,875333	0,5	-0,617100
21,883667	0,5	-0,599200
21,892000	0,5	-0,587200
21,900333	0,5	-0,570850
21,908667	0,5	-0,567150
21,917000	0,5	-0,536150
21,925333	0,5	-0,519600
21,933667	0,5	-0,489200
21,942000	0,5	-0,474450
21,950333	0,5	-0,448800
21,958667	0,5	-0,430600
21,967000	0,5	-0,399350
21,975333	0,5	-0,375600
21,983667	0,5	-0,349200
21,992000	0,5	-0,324300
22,000333	0,5	-0,284250
22,008667	0,5	-0,269250
22,017000	0,5	-0,247900
22,025333	0,5	-0,216900
22,033667	0,5	-0,193200
22,042000	0,5	-0,170650
22,050333	0,5	-0,164600
22,058667	0,5	-0,133750
22,067000	0,5	-0,103400
22,075333	0,5	-0,066500
22,083667	0,5	-0,033050
22,092000	0,5	0,005600
22,100333	0,5	0,042900
22,108667	0,5	0,085900
22,117000	0,5	0,125950
22,125333	0,5	0,163250
22,133667	0,5	0,206150
22,142000	0,5	0,238200
22,150333	0,5	0,287500
22,158667	0,5	0,305450
22,167000	0,5	0,355250
22,175333	0,5	0,387350
22,183667	0,5	0,424050
22,192000	0,5	0,447700
22,200333	0,5	0,474900
22,208667	0,5	0,521650
22,217000	0,5	0,566750
22,225333	0,5	0,608150
22,233667	0,5	0,648750
22,242000	0,5	0,682900
22,250333	0,5	0,732500
22,258667	0,5	0,779000
22,267000	0,5	0,826950
22,275333	0,5	0,870400
22,283667	0,5	0,904250
22,292000	0,5	0,950900
22,300333	0,5	0,988150
22,308667	0,5	1,030400
22,317000	0,5	1,091800
22,325333	0,5	1,135500
22,333667	0,5	1,178750
22,342000	0,5	1,222150
22,350333	0,5	1,263100
22,358667	0,5	1,325200
22,367000	0,5	1,366650
22,375333	0,5	1,426050
22,383667	0,5	1,471250
22,392000	0,5	1,534200
22,400333	0,5	1,586150
22,408667	0,5	1,640350
22,417000	0,5	1,693450
22,425333	0,5	1,751800
22,433667	0,5	1,802400
22,442000	0,5	1,854050
22,450333	0,5	1,914150
22,458667	0,5	1,988100
22,467000	0,5	2,051250
22,475333	0,5	2,107550
22,483667	0,5	2,165950
22,492000	0,5	2,217650
22,500333	0,5	2,285000
22,508667	0,5	2,348450
22,517000	0,5	2,425950
22,525333	0,5	2,493550
22,533667	0,5	2,567400
22,542000	0,5	2,631300
22,550333	0,5	2,704850
22,558667	0,5	2,764950
22,567000	0,5	2,828100
22,575333	0,5	2,884850
22,583667	0,5	2,914000
22,592000	0,5	2,964700
22,600333	0,5	3,027800
22,608667	0,5	3,085200
22,617000	0,5	3,120550
22,625333	0,5	3,152750
22,633667	0,5	3,170450
22,642000	0,5	3,199100
22,650333	0,5	3,220600
22,658667	0,5	3,249050
22,667000	0,5	3,256500
22,675333	0,5	3,273750
22,683667	0,5	3,271100
22,692000	0,5	3,279500
22,700333	0,5	3,269850
22,708667	0,5	3,262300
22,717000	0,5	3,233700
22,725333	0,5	3,184300
22,733667	0,5	3,132250
22,742000	0,5	3,080700
22,750333	0,5	3,047450
22,758667	0,5	2,984400
22,767000	0,5	2,900250
22,775333	0,5	2,809800
22,783667	0,5	2,703500
22,792000	0,5	2,603500
22,800333	0,5	2,510150
22,808667	0,5	2,395350
22,817000	0,5	2,286300
22,825333	0,5	2,167100
22,833667	0,5	2,049800
22,842000	0,5	1,924500
22,850333	0,5	1,791400
22,858667	0,5	1,659750
22,867000	0,5	1,518550
22,875333	0,5	1,344600
22,883667	0,5	1,200550
22,892000	0,5	1,057900
22,900333	0,5	0,916900
22,908667	0,5	0,754000
22,917000	0,5	0,602750
22,925333	0,5	0,446350
22,933667	0,5	0,298500
22,942000	0,5	0,140850
22,950333	0,5	0,012550
22,958667	0,5	-0,131400
22,967000	0,5	-0,258300
22,975333	0,5	-0,395600
22,983667	0,5	-0,516150
22,992000	0,5	-0,650050
23,000333	0,5	-0,771500
23,008667	0,5	-0,893750
23,017000	0,5	-0,991550
23,025333	0,5	-1,105300
23,033667	0,5	-1,222650
23,042000	0,5	-1,354300
23,050333	0,5	-1,478650
23,058667	0,5	-1,573700
23,067000	0,5	-1,658800
23,075333	0,5	-1,732150
23,083667	0,5	-1,818650
23,092000	0,5	-1,894350
23,100333	0,5	-1,959150
23,108667	0,5	-2,008750
23,117000	0,5	-2,069850
23,125333	0,5	-2,115650
23,133667	0,5	-2,168150
23,142000	0,5	-2,211700
23,150333	0,5	-2,259150
23,158667	0,5	-2,299950
23,167000	0,5	-2,314250
23,175333	0,5	-2,354200
23,183667	0,5	-2,397500
23,192000	0,5	-2,398050
23,200333	0,5	-2,498800
23,208667	0,5	-2,529100
23,217000	0,5	-2,539900
23,225333	0,5	-2,545050
23,233667	0,5	-2,558350
23,242000	0,5	-2,569850
23,250333	0,5	-2,560100
23,258667	0,5	-2,558650
23,267000	0,5	-2,542850
23,275333	0,5	-2,538750
23,283667	0,5	-2,524400
23,292000	0,5	-2,524900
23,300333	0,5	-2,509450
23,308667	0,5	-2,499750
23,317000	0,5	-2,505650
23,325333	0,5	-2,466350
23,333667	0,5	-2,461200
23,342000	0,5	-2,486850
23,350333	0,5	-2,485600
23,358667	0,5	-2,480650
23,367000	0,5	-2,456850
23,375333	0,5	-2,435800
23,383667	0,5	-2,417300
23,392000	0,5	-2,396350
23,400333	0,5	-2,372700
23,408667	0,5	-2,343200
23,417000	0,5	-2,318600
23,425333	0,5	-2,284300
23,433667	0,5	-2,255200
23,442000	0,5	-2,220850
23,450333	0,5	-2,198450
23,458667	0,5	-2,170050
23,467000	0,5	-2,184350
23,475333	0,5	-2,134800
23,483667	0,5	-2,082700
23,492000	0,5	-2,083400
23,500333	0,5	-2,075100
23,508667	0,5	-2,061850
23,517000	0,5	-2,039600
23,525333	0,5	-2,022350
23,533667	0,5	-2,006800
23,542000	0,5	-1,987150
23,550333	0,5	-1,966200
23,558667	0,5	-1,942650
23,567000	0,5	-1,920400
23,575333	0,5	-1,895250
23,583667	0,5	-1,873950
23,592000	0,5	-1,853250
23,600333	0,5	-1,830800
23,608667	0,5	-1,866900
23,617000	0,5	-1,858400
23,625333	0,5	-1,801400
23,633667	0,5	-1,749600
23,642000	0,5	-1,734450
23,650333	0,5	-1,725050
23,658667	0,5	-1,708300
23,667000	0,5	-1,694950
23,675333	0,5	-1,680400
23,683667	0,5	-1,665600
23,692000	0,5	-1,649900
23,700333	0,5	-1,631750
23,708667	0,5	-1,615050
23,717000	0,5	-1,598000
23,725333	0,5	-1,584200
23,733667	0,5	-1,568450
23,742000	0,5	-1,561550
23,750333	0,5	-1,552900
23,758667	0,5	-1,658000
23,767000	0,5	-1,617850
23,775333	0,5	-1,574550
23,783667	0,5	-1,522550
23,792000	0,5	-1,506600
23,800333	0,5	-1,496800
23,808667	0,5	-1,489800
23,817000	0,5	-1,483000
23,825333	0,5	-1,469200
23,833667	0,5	-1,449150
23,842000	0,5	-1,435550
23,850333	0,5	-1,414450
23,858667	0,5	-1,397700
23,867000	0,5	-1,380800
23,875333	0,5	-1,360700
23,883667	0,5	-1,347550
23,892000	0,5	-1,331100
23,900333	0,5	-1,384450
23,908667	0,5	-1,426200
23,917000	0,5	-1,402600
23,925333	0,5	-1,344050
23,933667	0,5	-1,298150
23,942000	0,5	-1,281400
23,950333	0,5	-1,275000
23,958667	0,5	-1,273350
23,967000	0,5	-1,269150
23,975333	0,5	-1,247450
23,983667	0,5	-1,238150
23,992000	0,5	-1,223650
24,000333	0,5	-1,216750
24,008667	0,5	-1,195050
24,017000	0,5	-1,183000
24,025333	0,5	-1,160200
24,033667	0,5	-1,146350
24,042000	0,5	-1,130300
24,050333	0,5	-1,229900
24,058667	0,5	-1,195950
24,067000	0,5	-1,180300
24,075333	0,5	-1,115750
24,083667	0,5	-1,075200
24,092000	0,5	-1,052250
24,100333	0,5	-1,042850
24,108667	0,5	-1,049250
24,117000	0,5	-1,022550
24,125333	0,5	-1,006200
24,133667	0,5	-0,984050
24,142000	0,5	-0,971050
24,150333	0,5	-0,950750
24,158667	0,5	-0,934000
24,167000	0,5	-0,913750
24,175333	0,5	-0,901700
24,183667	0,5	-0,884800
24,192000	0,5	-0,889400
24,200333	0,5	-0,978750
24,208667	0,5	-0,938400
24,217000	0,5	-0,910450
24,225333	0,5	-0,860250
24,233667	0,5	-0,836150
24,242000	0,5	-0,821350
24,250333	0,5	-0,812300
24,258667	0,5	-0,815050
24,267000	0,5	-0,793050
24,275333	0,5	-0,765300
24,283667	0,5	-0,752850
24,292000	0,5	-0,734200
24,300333	0,5	-0,711900
24,308667	0,5	-0,692150
24,317000	0,5	-0,676000
24,325333	0,5	-0,650600
24,333667	0,5	-0,637850
24,342000	0,5	-0,658550
24,350333	0,5	-0,700600
24,358667	0,5	-0,658050
24,367000	0,5	-0,632050
24,375333	0,5	-0,589150
24,383667	0,5	-0,572950
24,392000	0,5	-0,558950
24,400333	0,5	-0,561900
24,408667	0,5	-0,563600
24,417000	0,5	-0,546350
24,425333	0,5	-0,530550
24,433667	0,5	-0,521450
24,442000	0,5	-0,509350
24,450333	0,5	-0,491900
24,458667	0,5	-0,475850
24,467000	0,5	-0,459950
24,475333	0,5	-0,449200
24,483667	0,5	-0,433950
24,492000	0,5	-0,479250
24,500333	0,5	-0,460550
24,508667	0,5	-0,447500
24,517000	0,5	-0,409150
24,525333	0,5	-0,379950
24,533667	0,5	-0,365250
24,542000	0,5	-0,356450
24,550333	0,5	-0,356700
24,558667	0,5	-0,350050
24,567000	0,5	-0,333200
24,575333	0,5	-0,322350
24,583667	0,5	-0,307400
24,592000	0,5	-0,298350
24,600333	0,5	-0,286850
24,608667	0,5	-0,275300
24,617000	0,5	-0,263250
24,625333	0,5	-0,251750
24,633667	0,5	-0,251100
24,642000	0,5	-0,278600
24,650333	0,5	-0,270000
24,658667	0,5	-0,256500
24,667000	0,5	-0,229150
24,675333	0,5	-0,210900
24,683667	0,5	-0,202700
24,692000	0,5	-0,194900
24,700333	0,5	-0,198850
24,708667	0,5	-0,185850
24,717000	0,5	-0,180150
24,725333	0,5	-0,164650
24,733667	0,5	-0,157850
24,742000	0,5	-0,142150
24,750333	0,5	-0,134050
24,758667	0,5	-0,119450
24,767000	0,5	-0,109800
24,775333	0,5	-0,101450
24,783667	0,5	-0,106450
24,792000	0,5	-0,119000
24,800333	0,5	-0,107050
24,808667	0,5	-0,090850
24,817000	0,5	-0,070200
24,825333	0,5	-0,060350
24,833667	0,5	-0,057050
24,842000	0,5	-0,064000
24,850333	0,5	-0,061150
24,858667	0,5	-0,054950
24,867000	0,5	-0,042200
24,875333	0,5	-0,042450
24,883667	0,5	-0,036350
24,892000	0,5	-0,028350
24,900333	0,5	-0,020700
24,908667	0,5	-0,011750
24,917000	0,5	-0,004500
24,925333	0,5	0,001400
24,933667	0,5	-0,011650
24,942000	0,5	0,000450
24,950333	0,5	0,003850
24,958667	0,5	0,020500
24,967000	0,5	0,033850
24,975333	0,5	0,042050
24,983667	0,5	0,042650
24,992000	0,5	0,041050
25,000333	0,5	0,046100
25,008667	0,5	0,055650
25,017000	0,5	0,057800
25,025333	0,5	0,065050
25,033667	0,5	0,065500
25,042000	0,5	0,070450
25,050333	0,5	0,071600
25,058667	0,5	0,079500
25,067000	0,5	0,081300
25,075333	0,5	0,084850
25,083667	0,5	0,074400
25,092000	0,5	0,084850
25,100333	0,5	0,089500
25,108667	0,5	0,097350
25,117000	0,5	0,101200
25,125333	0,5	0,107250
25,133667	0,5	0,108100
25,142000	0,5	0,106700
25,150333	0,5	0,114700
25,158667	0,5	0,118750
25,167000	0,5	0,123900
25,175333	0,5	0,128550
25,183667	0,5	0,131700
25,192000	0,5	0,135150
25,200333	0,5	0,139600
25,208667	0,5	0,142750
25,217000	0,5	0,146000
25,225333	0,5	0,142900
25,233667	0,5	0,143950
25,242000	0,5	0,146100
25,250333	0,5	0,149100
25,258667	0,5	0,153650
25,267000	0,5	0,153050
25,275333	0,5	0,153300
25,283667	0,5	0,153450
25,292000	0,5	0,150350
25,300333	0,5	0,153150
25,308667	0,5	0,156300
25,317000	0,5	0,156950
25,325333	0,5	0,157400
25,333667	0,5	0,161800
25,342000	0,5	0,166200
25,350333	0,5	0,168350
25,358667	0,5	0,171950
25,367000	0,5	0,174250
25,375333	0,5	0,176800
25,383667	0,5	0,179550
25,392000	0,5	0,178600
25,400333	0,5	0,183000
25,408667	0,5	0,182900
25,417000	0,5	0,184400
25,425333	0,5	0,185050
25,433667	0,5	0,183850
25,442000	0,5	0,184850
25,450333	0,5	0,187650
25,458667	0,5	0,182650
25,467000	0,5	0,185200
25,475333	0,5	0,185150
25,483667	0,5	0,185450
25,492000	0,5	0,185000
25,500333	0,5	0,187400
25,508667	0,5	0,187050
25,517000	0,5	0,190250
25,525333	0,5	0,193300
25,533667	0,5	0,195200
25,542000	0,5	0,199500
25,550333	0,5	0,196850
25,558667	0,5	0,199050
25,567000	0,5	0,199000
25,575333	0,5	0,200150
25,583667	0,5	0,202550
25,592000	0,5	0,203600
25,600333	0,5	0,202350
25,608667	0,5	0,201400
25,617000	0,5	0,204750
25,625333	0,5	0,203350
25,633667	0,5	0,204250
25,642000	0,5	0,203700
25,650333	0,5	0,201050
25,658667	0,5	0,202200
25,667000	0,5	0,204300
25,675333	0,5	0,201500
25,683667	0,5	0,203450
25,692000	0,5	0,203800
25,700333	0,5	0,202750
25,708667	0,5	0,199350
25,717000	0,5	0,204300
25,725333	0,5	0,207050
25,733667	0,5	0,212950
25,742000	0,5	0,205850
25,750333	0,5	0,213200
25,758667	0,5	0,209150
25,767000	0,5	0,213050
25,775333	0,5	0,210150
25,783667	0,5	0,210950
25,792000	0,5	0,210100
25,800333	0,5	0,210100
25,808667	0,5	0,212550
25,817000	0,5	0,213750
25,825333	0,5	0,214050
25,833667	0,5	0,217450
25,842000	0,5	0,217950
25,850333	0,5	0,214400
25,858667	0,5	0,213750
25,867000	0,5	0,214700
25,875333	0,5	0,222600
25,883667	0,5	0,225450
25,892000	0,5	0,223800
25,900333	0,5	0,221500
25,908667	0,5	0,227300
25,917000	0,5	0,223050
25,925333	0,5	0,227550
25,933667	0,5	0,224500
25,942000	0,5	0,230400
25,950333	0,5	0,229200
25,958667	0,5	0,232800
25,967000	0,5	0,239150
25,975333	0,5	0,234850
25,983667	0,5	0,241600
25,992000	0,5	0,238600
26,000333	0,5	0,233150
