File Path	chrom://chromeleon01/ikbm_chromeleon/2022/ICS-5000/ED1/Esteban/20220612_Cell_7_4_eg.seq/916.smp/ED_1.channel/ED_1.chm
Channel	ED_1

Injection Information:
Data Vault	ikbm_chromeleon
Injection	7_06h-EGS_3
Injection Number	77
Position	GC3
Comment	
Processing Method	Stop sequence after Cell Death
Instrument Method	ICS5000_PA200_FullNative_Ox_26min_ED1
Type	Unknown
Status	Finished
Injection Date	14.06.2022
Injection Time	04:17:11
Injection Volume (µl)	5,0
Dilution Factor	1,0000
Weight	1,0000

Chromatogram Data Information:
Time Min. (min)	0,000333
Time Max. (min)	26,000333
Data Points	3121
Detector	EDet1
Generating Data System	Chromeleon 7.2.9.11323
Exporting Data System	Chromeleon 7.2.9.0
Operator	Instrument Controller
Signal Quantity	
Signal Unit	nC
Signal Min.	-2,481950
Signal Max.	935,373714
Channel	ED_1
Driver Name	DC-5000
Channel Type	Evaluation
Min. Step (s)	0,5
Max. Step (s)	0,5
Average Step (s)	0,5

Signal Parameter Information:
Signal Info	

Chromatogram Data:
Time (min)	Step (s)	Value (nC)
0,000333	n.a.	-0,085500
0,008667	0,5	-0,086600
0,017000	0,5	-0,070850
0,025333	0,5	-0,061900
0,033667	0,5	-0,048700
0,042000	0,5	-0,058900
0,050333	0,5	-0,052150
0,058667	0,5	-0,050750
0,067000	0,5	-0,039300
0,075333	0,5	-0,054350
0,083667	0,5	-0,039300
0,092000	0,5	-0,038750
0,100333	0,5	-0,066400
0,108667	0,5	-0,071950
0,117000	0,5	-0,072250
0,125333	0,5	-0,048650
0,133667	0,5	-0,033400
0,142000	0,5	-0,023350
0,150333	0,5	-0,034000
0,158667	0,5	-0,033600
0,167000	0,5	-0,045000
0,175333	0,5	-0,044800
0,183667	0,5	-0,054350
0,192000	0,5	-0,058300
0,200333	0,5	-0,066850
0,208667	0,5	-0,061250
0,217000	0,5	-0,071450
0,225333	0,5	-0,074750
0,233667	0,5	-0,066500
0,242000	0,5	-0,061500
0,250333	0,5	-0,087650
0,258667	0,5	-0,084950
0,267000	0,5	-0,088650
0,275333	0,5	-0,062950
0,283667	0,5	-0,050850
0,292000	0,5	-0,030100
0,300333	0,5	-0,011000
0,308667	0,5	-0,028500
0,317000	0,5	-0,070550
0,325333	0,5	-0,094450
0,333667	0,5	-0,100250
0,342000	0,5	-0,104900
0,350333	0,5	-0,103550
0,358667	0,5	-0,101600
0,367000	0,5	-0,099550
0,375333	0,5	-0,114700
0,383667	0,5	-0,087200
0,392000	0,5	-0,113900
0,400333	0,5	-0,121550
0,408667	0,5	-0,120300
0,417000	0,5	-0,110450
0,425333	0,5	-0,087000
0,433667	0,5	-0,099850
0,442000	0,5	-0,104400
0,450333	0,5	-0,093950
0,458667	0,5	-0,102100
0,467000	0,5	-0,102650
0,475333	0,5	-0,110700
0,483667	0,5	-0,108800
0,492000	0,5	-0,108950
0,500333	0,5	-0,115450
0,508667	0,5	-0,113000
0,517000	0,5	-0,134750
0,525333	0,5	-0,132950
0,533667	0,5	-0,108550
0,542000	0,5	-0,128950
0,550333	0,5	-0,136000
0,558667	0,5	-0,125050
0,567000	0,5	-0,116650
0,575333	0,5	-0,086100
0,583667	0,5	-0,101750
0,592000	0,5	-0,101700
0,600333	0,5	-0,110500
0,608667	0,5	-0,100800
0,617000	0,5	-0,111800
0,625333	0,5	-0,105150
0,633667	0,5	-0,112750
0,642000	0,5	-0,113800
0,650333	0,5	-0,111700
0,658667	0,5	-0,112400
0,667000	0,5	-0,112200
0,675333	0,5	-0,109250
0,683667	0,5	-0,099650
0,692000	0,5	-0,120500
0,700333	0,5	-0,122700
0,708667	0,5	-0,122100
0,717000	0,5	-0,105700
0,725333	0,5	-0,087050
0,733667	0,5	-0,090600
0,742000	0,5	-0,103350
0,750333	0,5	-0,089950
0,758667	0,5	-0,097700
0,767000	0,5	-0,094400
0,775333	0,5	-0,103700
0,783667	0,5	-0,104100
0,792000	0,5	-0,106000
0,800333	0,5	-0,103800
0,808667	0,5	-0,094400
0,817000	0,5	-0,102950
0,825333	0,5	-0,092400
0,833667	0,5	-0,093550
0,842000	0,5	-0,116100
0,850333	0,5	-0,112450
0,858667	0,5	-0,104200
0,867000	0,5	-0,084000
0,875333	0,5	-0,075450
0,883667	0,5	-0,089900
0,892000	0,5	-0,082500
0,900333	0,5	-0,089000
0,908667	0,5	-0,082300
0,917000	0,5	-0,089600
0,925333	0,5	-0,082100
0,933667	0,5	-0,091300
0,942000	0,5	-0,092250
0,950333	0,5	-0,093350
0,958667	0,5	-0,096500
0,967000	0,5	-0,106350
0,975333	0,5	-0,082250
0,983667	0,5	-0,100450
0,992000	0,5	-0,101950
1,000333	0,5	-0,104100
1,008667	0,5	-0,088600
1,017000	0,5	-0,068200
1,025333	0,5	-0,070350
1,033667	0,5	-0,068600
1,042000	0,5	-0,074450
1,050333	0,5	-0,071700
1,058667	0,5	-0,072750
1,067000	0,5	-0,074200
1,075333	0,5	-0,079400
1,083667	0,5	-0,081100
1,092000	0,5	-0,079350
1,100333	0,5	-0,075050
1,108667	0,5	-0,093050
1,117000	0,5	-0,083050
1,125333	0,5	-0,076900
1,133667	0,5	-0,090900
1,142000	0,5	-0,094100
1,150333	0,5	-0,092200
1,158667	0,5	-0,075200
1,167000	0,5	-0,060400
1,175333	0,5	-0,048600
1,183667	0,5	-0,051200
1,192000	0,5	-0,056700
1,200333	0,5	-0,059750
1,208667	0,5	-0,062150
1,217000	0,5	-0,064000
1,225333	0,5	-0,062450
1,233667	0,5	-0,070100
1,242000	0,5	-0,065950
1,250333	0,5	-0,073700
1,258667	0,5	-0,075700
1,267000	0,5	-0,059550
1,275333	0,5	-0,059300
1,283667	0,5	-0,081350
1,292000	0,5	-0,078500
1,300333	0,5	-0,077150
1,308667	0,5	-0,049650
1,317000	0,5	-0,050350
1,325333	0,5	-0,053250
1,333667	0,5	-0,061000
1,342000	0,5	-0,053500
1,350333	0,5	-0,056550
1,358667	0,5	-0,056100
1,367000	0,5	-0,064500
1,375333	0,5	-0,068650
1,383667	0,5	-0,069350
1,392000	0,5	-0,071600
1,400333	0,5	-0,065150
1,408667	0,5	-0,078600
1,417000	0,5	-0,054550
1,425333	0,5	-0,081300
1,433667	0,5	-0,088800
1,442000	0,5	-0,092650
1,450333	0,5	-0,089850
1,458667	0,5	-0,067650
1,467000	0,5	-0,071450
1,475333	0,5	-0,083800
1,483667	0,5	-0,079150
1,492000	0,5	-0,090950
1,500333	0,5	-0,087750
1,508667	0,5	-0,099300
1,517000	0,5	-0,099400
1,525333	0,5	-0,109700
1,533667	0,5	-0,110150
1,542000	0,5	-0,107900
1,550333	0,5	-0,097750
1,558667	0,5	-0,036450
1,567000	0,5	0,138900
1,575333	0,5	0,333450
1,583667	0,5	1,535500
1,592000	0,5	8,442700
1,600333	0,5	35,629401
1,608667	0,5	121,728852
1,617000	0,5	324,624405
1,625333	0,5	625,854259
1,633667	0,5	876,444263
1,642000	0,5	935,373714
1,650333	0,5	803,658862
1,658667	0,5	593,636809
1,667000	0,5	411,114406
1,675333	0,5	285,253754
1,683667	0,5	204,777003
1,692000	0,5	154,440102
1,700333	0,5	123,826402
1,708667	0,5	105,869502
1,717000	0,5	93,968551
1,725333	0,5	83,494751
1,733667	0,5	73,665651
1,742000	0,5	65,047251
1,750333	0,5	57,727851
1,758667	0,5	52,130551
1,767000	0,5	49,289301
1,775333	0,5	49,781601
1,783667	0,5	52,500201
1,792000	0,5	55,421501
1,800333	0,5	57,129951
1,808667	0,5	56,978901
1,817000	0,5	55,081151
1,825333	0,5	52,072551
1,833667	0,5	48,659951
1,842000	0,5	45,271401
1,850333	0,5	42,215101
1,858667	0,5	39,641851
1,867000	0,5	37,526651
1,875333	0,5	35,834651
1,883667	0,5	34,610951
1,892000	0,5	33,645451
1,900333	0,5	32,837350
1,908667	0,5	32,290350
1,917000	0,5	32,143900
1,925333	0,5	32,034700
1,933667	0,5	31,331050
1,942000	0,5	30,044150
1,950333	0,5	28,722150
1,958667	0,5	27,750800
1,967000	0,5	27,252300
1,975333	0,5	27,446350
1,983667	0,5	28,728350
1,992000	0,5	31,354850
2,000333	0,5	34,744401
2,008667	0,5	37,963051
2,017000	0,5	41,239051
2,025333	0,5	45,575551
2,033667	0,5	49,766801
2,042000	0,5	50,746901
2,050333	0,5	47,428301
2,058667	0,5	41,973151
2,067000	0,5	36,946601
2,075333	0,5	33,524050
2,083667	0,5	32,038400
2,092000	0,5	32,461300
2,100333	0,5	33,642251
2,108667	0,5	33,930351
2,117000	0,5	32,866350
2,125333	0,5	30,927550
2,133667	0,5	28,691450
2,142000	0,5	26,618100
2,150333	0,5	25,057250
2,158667	0,5	23,927750
2,167000	0,5	23,043750
2,175333	0,5	22,385100
2,183667	0,5	22,023300
2,192000	0,5	21,918950
2,200333	0,5	21,846400
2,208667	0,5	21,663150
2,217000	0,5	21,594500
2,225333	0,5	21,669850
2,233667	0,5	21,614700
2,242000	0,5	21,170600
2,250333	0,5	20,534850
2,258667	0,5	19,995600
2,267000	0,5	19,647200
2,275333	0,5	19,446200
2,283667	0,5	19,329000
2,292000	0,5	19,309350
2,300333	0,5	19,401500
2,308667	0,5	19,471800
2,317000	0,5	19,457300
2,325333	0,5	19,402800
2,333667	0,5	19,396800
2,342000	0,5	19,520500
2,350333	0,5	19,757950
2,358667	0,5	20,216150
2,367000	0,5	21,312350
2,375333	0,5	23,061550
2,383667	0,5	23,529800
2,392000	0,5	22,430900
2,400333	0,5	21,354950
2,408667	0,5	20,784000
2,417000	0,5	20,489550
2,425333	0,5	20,295050
2,433667	0,5	20,121500
2,442000	0,5	19,960000
2,450333	0,5	19,833400
2,458667	0,5	19,685400
2,467000	0,5	19,532300
2,475333	0,5	19,408650
2,483667	0,5	19,304100
2,492000	0,5	19,254300
2,500333	0,5	19,237350
2,508667	0,5	19,319400
2,517000	0,5	19,611500
2,525333	0,5	20,218500
2,533667	0,5	21,264100
2,542000	0,5	22,667750
2,550333	0,5	24,150000
2,558667	0,5	25,334450
2,567000	0,5	25,960500
2,575333	0,5	25,919150
2,583667	0,5	25,304900
2,592000	0,5	24,398900
2,600333	0,5	23,598000
2,608667	0,5	23,150250
2,617000	0,5	23,358000
2,625333	0,5	24,296800
2,633667	0,5	26,065850
2,642000	0,5	28,981750
2,650333	0,5	33,610251
2,658667	0,5	40,421701
2,667000	0,5	48,646451
2,675333	0,5	55,940351
2,683667	0,5	59,659051
2,692000	0,5	58,746451
2,700333	0,5	54,155501
2,708667	0,5	47,767301
2,717000	0,5	41,216151
2,725333	0,5	35,521951
2,733667	0,5	31,157400
2,742000	0,5	28,303300
2,750333	0,5	27,015700
2,758667	0,5	27,280100
2,767000	0,5	29,009050
2,775333	0,5	31,683900
2,783667	0,5	34,402751
2,792000	0,5	36,181551
2,800333	0,5	36,275901
2,808667	0,5	34,614751
2,817000	0,5	31,647900
2,825333	0,5	28,151400
2,833667	0,5	24,815600
2,842000	0,5	22,059150
2,850333	0,5	19,993300
2,858667	0,5	18,518350
2,867000	0,5	17,485450
2,875333	0,5	16,731850
2,883667	0,5	16,181600
2,892000	0,5	15,760550
2,900333	0,5	15,412100
2,908667	0,5	15,113950
2,917000	0,5	14,899600
2,925333	0,5	14,762600
2,933667	0,5	14,759100
2,942000	0,5	14,895450
2,950333	0,5	15,175700
2,958667	0,5	15,511150
2,967000	0,5	15,777850
2,975333	0,5	15,791250
2,983667	0,5	15,518600
2,992000	0,5	15,017150
3,000333	0,5	14,419750
3,008667	0,5	13,853200
3,017000	0,5	13,382250
3,025333	0,5	13,028400
3,033667	0,5	12,767750
3,042000	0,5	12,601200
3,050333	0,5	12,486400
3,058667	0,5	12,437450
3,067000	0,5	12,476150
3,075333	0,5	12,640850
3,083667	0,5	12,990550
3,092000	0,5	13,612800
3,100333	0,5	14,507150
3,108667	0,5	15,564000
3,117000	0,5	16,418700
3,125333	0,5	16,777700
3,133667	0,5	16,478450
3,142000	0,5	15,650700
3,150333	0,5	14,538450
3,158667	0,5	13,435950
3,167000	0,5	12,505900
3,175333	0,5	11,805400
3,183667	0,5	11,325800
3,192000	0,5	11,014850
3,200333	0,5	10,782250
3,208667	0,5	10,624050
3,217000	0,5	10,514800
3,225333	0,5	10,435000
3,233667	0,5	10,362450
3,242000	0,5	10,254200
3,250333	0,5	10,150500
3,258667	0,5	10,029350
3,267000	0,5	9,934900
3,275333	0,5	9,851400
3,283667	0,5	9,797400
3,292000	0,5	9,736550
3,300333	0,5	9,677900
3,308667	0,5	9,602850
3,317000	0,5	9,517150
3,325333	0,5	9,413700
3,333667	0,5	9,345500
3,342000	0,5	9,259000
3,350333	0,5	9,179050
3,358667	0,5	9,123750
3,367000	0,5	9,080550
3,375333	0,5	9,062700
3,383667	0,5	9,033950
3,392000	0,5	9,013500
3,400333	0,5	8,992450
3,408667	0,5	8,976350
3,417000	0,5	8,949400
3,425333	0,5	8,918000
3,433667	0,5	8,876300
3,442000	0,5	8,834650
3,450333	0,5	8,778100
3,458667	0,5	8,718200
3,467000	0,5	8,646700
3,475333	0,5	8,565000
3,483667	0,5	8,501900
3,492000	0,5	8,413000
3,500333	0,5	8,330700
3,508667	0,5	8,268650
3,517000	0,5	8,212950
3,525333	0,5	8,179600
3,533667	0,5	8,120300
3,542000	0,5	8,054750
3,550333	0,5	7,999600
3,558667	0,5	7,956000
3,567000	0,5	7,911650
3,575333	0,5	7,874250
3,583667	0,5	7,846750
3,592000	0,5	7,826300
3,600333	0,5	7,824450
3,608667	0,5	7,820050
3,617000	0,5	7,830450
3,625333	0,5	7,822450
3,633667	0,5	7,852250
3,642000	0,5	7,822950
3,650333	0,5	7,795950
3,658667	0,5	7,755000
3,667000	0,5	7,709650
3,675333	0,5	7,667750
3,683667	0,5	7,598400
3,692000	0,5	7,533300
3,700333	0,5	7,489850
3,708667	0,5	7,445700
3,717000	0,5	7,415150
3,725333	0,5	7,385150
3,733667	0,5	7,360850
3,742000	0,5	7,351000
3,750333	0,5	7,334150
3,758667	0,5	7,325850
3,767000	0,5	7,301000
3,775333	0,5	7,279500
3,783667	0,5	7,267950
3,792000	0,5	7,221400
3,800333	0,5	7,183450
3,808667	0,5	7,153450
3,817000	0,5	7,119800
3,825333	0,5	7,105400
3,833667	0,5	7,060850
3,842000	0,5	7,036500
3,850333	0,5	7,001750
3,858667	0,5	6,982050
3,867000	0,5	6,948850
3,875333	0,5	6,927100
3,883667	0,5	6,900700
3,892000	0,5	6,879550
3,900333	0,5	6,861150
3,908667	0,5	6,841100
3,917000	0,5	6,822500
3,925333	0,5	6,817100
3,933667	0,5	6,799600
3,942000	0,5	6,765250
3,950333	0,5	6,751700
3,958667	0,5	6,741350
3,967000	0,5	6,749100
3,975333	0,5	6,744300
3,983667	0,5	6,737600
3,992000	0,5	6,724250
4,000333	0,5	6,732200
4,008667	0,5	6,741850
4,017000	0,5	6,774100
4,025333	0,5	6,814650
4,033667	0,5	6,895250
4,042000	0,5	7,001350
4,050333	0,5	7,136050
4,058667	0,5	7,296600
4,067000	0,5	7,462550
4,075333	0,5	7,619500
4,083667	0,5	7,732950
4,092000	0,5	7,787400
4,100333	0,5	7,796900
4,108667	0,5	7,743750
4,117000	0,5	7,650150
4,125333	0,5	7,514400
4,133667	0,5	7,351150
4,142000	0,5	7,199250
4,150333	0,5	7,054900
4,158667	0,5	6,942050
4,167000	0,5	6,842150
4,175333	0,5	6,764450
4,183667	0,5	6,691900
4,192000	0,5	6,632850
4,200333	0,5	6,573200
4,208667	0,5	6,509250
4,217000	0,5	6,457650
4,225333	0,5	6,424600
4,233667	0,5	6,363800
4,242000	0,5	6,326600
4,250333	0,5	6,297350
4,258667	0,5	6,287900
4,267000	0,5	6,288250
4,275333	0,5	6,269700
4,283667	0,5	6,263050
4,292000	0,5	6,254050
4,300333	0,5	6,243800
4,308667	0,5	6,233000
4,317000	0,5	6,229850
4,325333	0,5	6,219450
4,333667	0,5	6,212350
4,342000	0,5	6,200700
4,350333	0,5	6,191900
4,358667	0,5	6,166950
4,367000	0,5	6,166300
4,375333	0,5	6,151100
4,383667	0,5	6,129900
4,392000	0,5	6,110600
4,400333	0,5	6,113900
4,408667	0,5	6,123100
4,417000	0,5	6,130550
4,425333	0,5	6,123650
4,433667	0,5	6,130000
4,442000	0,5	6,143250
4,450333	0,5	6,163200
4,458667	0,5	6,184150
4,467000	0,5	6,213250
4,475333	0,5	6,237850
4,483667	0,5	6,266900
4,492000	0,5	6,295300
4,500333	0,5	6,300700
4,508667	0,5	6,289900
4,517000	0,5	6,285650
4,525333	0,5	6,241150
4,533667	0,5	6,192050
4,542000	0,5	6,145200
4,550333	0,5	6,101400
4,558667	0,5	6,080300
4,567000	0,5	6,043600
4,575333	0,5	6,021200
4,583667	0,5	5,994550
4,592000	0,5	5,986550
4,600333	0,5	5,973150
4,608667	0,5	5,973800
4,617000	0,5	5,964200
4,625333	0,5	5,956950
4,633667	0,5	5,953350
4,642000	0,5	5,950600
4,650333	0,5	5,951900
4,658667	0,5	5,940100
4,667000	0,5	5,956000
4,675333	0,5	5,936250
4,683667	0,5	5,927250
4,692000	0,5	5,920700
4,700333	0,5	5,922550
4,708667	0,5	5,928350
4,717000	0,5	5,906150
4,725333	0,5	5,875600
4,733667	0,5	5,854300
4,742000	0,5	5,810300
4,750333	0,5	5,772100
4,758667	0,5	5,719650
4,767000	0,5	5,667150
4,775333	0,5	5,620200
4,783667	0,5	5,576550
4,792000	0,5	5,545400
4,800333	0,5	5,506600
4,808667	0,5	5,470200
4,817000	0,5	5,464000
4,825333	0,5	5,425050
4,833667	0,5	5,415200
4,842000	0,5	5,403050
4,850333	0,5	5,403550
4,858667	0,5	5,416650
4,867000	0,5	5,400700
4,875333	0,5	5,404050
4,883667	0,5	5,398400
4,892000	0,5	5,394050
4,900333	0,5	5,375100
4,908667	0,5	5,364700
4,917000	0,5	5,339800
4,925333	0,5	5,326300
4,933667	0,5	5,309600
4,942000	0,5	5,289250
4,950333	0,5	5,265600
4,958667	0,5	5,258150
4,967000	0,5	5,239950
4,975333	0,5	5,215100
4,983667	0,5	5,200250
4,992000	0,5	5,187200
5,000333	0,5	5,185800
5,008667	0,5	5,179300
5,017000	0,5	5,171500
5,025333	0,5	5,154150
5,033667	0,5	5,141900
5,042000	0,5	5,121750
5,050333	0,5	5,113800
5,058667	0,5	5,100950
5,067000	0,5	5,090650
5,075333	0,5	5,076550
5,083667	0,5	5,070500
5,092000	0,5	5,052150
5,100333	0,5	5,044800
5,108667	0,5	5,042900
5,117000	0,5	5,035500
5,125333	0,5	5,021750
5,133667	0,5	5,025850
5,142000	0,5	5,033000
5,150333	0,5	5,046400
5,158667	0,5	5,052450
5,167000	0,5	5,056750
5,175333	0,5	5,059150
5,183667	0,5	5,062300
5,192000	0,5	5,056100
5,200333	0,5	5,047850
5,208667	0,5	5,031000
5,217000	0,5	5,005950
5,225333	0,5	4,984450
5,233667	0,5	4,957450
5,242000	0,5	4,931550
5,250333	0,5	4,910300
5,258667	0,5	4,899300
5,267000	0,5	4,865950
5,275333	0,5	4,846150
5,283667	0,5	4,836950
5,292000	0,5	4,834250
5,300333	0,5	4,841450
5,308667	0,5	4,836400
5,317000	0,5	4,828350
5,325333	0,5	4,825300
5,333667	0,5	4,814600
5,342000	0,5	4,802650
5,350333	0,5	4,791450
5,358667	0,5	4,772500
5,367000	0,5	4,758900
5,375333	0,5	4,735600
5,383667	0,5	4,721800
5,392000	0,5	4,690550
5,400333	0,5	4,681150
5,408667	0,5	4,665800
5,417000	0,5	4,638850
5,425333	0,5	4,617200
5,433667	0,5	4,603350
5,442000	0,5	4,597050
5,450333	0,5	4,592900
5,458667	0,5	4,567750
5,467000	0,5	4,554600
5,475333	0,5	4,538000
5,483667	0,5	4,531400
5,492000	0,5	4,514300
5,500333	0,5	4,505450
5,508667	0,5	4,488650
5,517000	0,5	4,474150
5,525333	0,5	4,464950
5,533667	0,5	4,448200
5,542000	0,5	4,425950
5,550333	0,5	4,435800
5,558667	0,5	4,425150
5,567000	0,5	4,420450
5,575333	0,5	4,429950
5,583667	0,5	4,455750
5,592000	0,5	4,504600
5,600333	0,5	4,548000
5,608667	0,5	4,610250
5,617000	0,5	4,684700
5,625333	0,5	4,769400
5,633667	0,5	4,842100
5,642000	0,5	4,902850
5,650333	0,5	4,944750
5,658667	0,5	4,955750
5,667000	0,5	4,960250
5,675333	0,5	4,969500
5,683667	0,5	4,997800
5,692000	0,5	5,076050
5,700333	0,5	5,234750
5,708667	0,5	5,455450
5,717000	0,5	5,774450
5,725333	0,5	6,177400
5,733667	0,5	6,641100
5,742000	0,5	7,132550
5,750333	0,5	7,572200
5,758667	0,5	7,905750
5,767000	0,5	8,108200
5,775333	0,5	8,145150
5,783667	0,5	8,016700
5,792000	0,5	7,737700
5,800333	0,5	7,358800
5,808667	0,5	6,912100
5,817000	0,5	6,459050
5,825333	0,5	6,016600
5,833667	0,5	5,615500
5,842000	0,5	5,266550
5,850333	0,5	4,993200
5,858667	0,5	4,748450
5,867000	0,5	4,569800
5,875333	0,5	4,425900
5,883667	0,5	4,321400
5,892000	0,5	4,245450
5,900333	0,5	4,175150
5,908667	0,5	4,117750
5,917000	0,5	4,073000
5,925333	0,5	4,037500
5,933667	0,5	4,004850
5,942000	0,5	3,980700
5,950333	0,5	3,951000
5,958667	0,5	3,931750
5,967000	0,5	3,909200
5,975333	0,5	3,887300
5,983667	0,5	3,864900
5,992000	0,5	3,852150
6,000333	0,5	3,833450
6,008667	0,5	3,815250
6,017000	0,5	3,793200
6,025333	0,5	3,779000
6,033667	0,5	3,773800
6,042000	0,5	3,769400
6,050333	0,5	3,754100
6,058667	0,5	3,740050
6,067000	0,5	3,724250
6,075333	0,5	3,715450
6,083667	0,5	3,697200
6,092000	0,5	3,683900
6,100333	0,5	3,675000
6,108667	0,5	3,657000
6,117000	0,5	3,647650
6,125333	0,5	3,622950
6,133667	0,5	3,605700
6,142000	0,5	3,599750
6,150333	0,5	3,586800
6,158667	0,5	3,563450
6,167000	0,5	3,558250
6,175333	0,5	3,552350
6,183667	0,5	3,555300
6,192000	0,5	3,548900
6,200333	0,5	3,545450
6,208667	0,5	3,532150
6,217000	0,5	3,527350
6,225333	0,5	3,518300
6,233667	0,5	3,508400
6,242000	0,5	3,494150
6,250333	0,5	3,482400
6,258667	0,5	3,470600
6,267000	0,5	3,461300
6,275333	0,5	3,444750
6,283667	0,5	3,435200
6,292000	0,5	3,432200
6,300333	0,5	3,419650
6,308667	0,5	3,407600
6,317000	0,5	3,397500
6,325333	0,5	3,392550
6,333667	0,5	3,392350
6,342000	0,5	3,386450
6,350333	0,5	3,373950
6,358667	0,5	3,373250
6,367000	0,5	3,358500
6,375333	0,5	3,356800
6,383667	0,5	3,341450
6,392000	0,5	3,331700
6,400333	0,5	3,321500
6,408667	0,5	3,307500
6,417000	0,5	3,297150
6,425333	0,5	3,282950
6,433667	0,5	3,274300
6,442000	0,5	3,269000
6,450333	0,5	3,251850
6,458667	0,5	3,239450
6,467000	0,5	3,239650
6,475333	0,5	3,241850
6,483667	0,5	3,248000
6,492000	0,5	3,240050
6,500333	0,5	3,242600
6,508667	0,5	3,241100
6,517000	0,5	3,244450
6,525333	0,5	3,245350
6,533667	0,5	3,249250
6,542000	0,5	3,248300
6,550333	0,5	3,251350
6,558667	0,5	3,248300
6,567000	0,5	3,246000
6,575333	0,5	3,240350
6,583667	0,5	3,248300
6,592000	0,5	3,240450
6,600333	0,5	3,236650
6,608667	0,5	3,235400
6,617000	0,5	3,237150
6,625333	0,5	3,255750
6,633667	0,5	3,254350
6,642000	0,5	3,257300
6,650333	0,5	3,264000
6,658667	0,5	3,276350
6,667000	0,5	3,287050
6,675333	0,5	3,304550
6,683667	0,5	3,322150
6,692000	0,5	3,345750
6,700333	0,5	3,385450
6,708667	0,5	3,440250
6,717000	0,5	3,498450
6,725333	0,5	3,572300
6,733667	0,5	3,666950
6,742000	0,5	3,759150
6,750333	0,5	3,868500
6,758667	0,5	3,987650
6,767000	0,5	4,114900
6,775333	0,5	4,249150
6,783667	0,5	4,357150
6,792000	0,5	4,437100
6,800333	0,5	4,483150
6,808667	0,5	4,486850
6,817000	0,5	4,438150
6,825333	0,5	4,354650
6,833667	0,5	4,232900
6,842000	0,5	4,094400
6,850333	0,5	3,949100
6,858667	0,5	3,810800
6,867000	0,5	3,684300
6,875333	0,5	3,567700
6,883667	0,5	3,480250
6,892000	0,5	3,391650
6,900333	0,5	3,334700
6,908667	0,5	3,292150
6,917000	0,5	3,265650
6,925333	0,5	3,260500
6,933667	0,5	3,253050
6,942000	0,5	3,243900
6,950333	0,5	3,245000
6,958667	0,5	3,241700
6,967000	0,5	3,242500
6,975333	0,5	3,236500
6,983667	0,5	3,223100
6,992000	0,5	3,217250
7,000333	0,5	3,203950
7,008667	0,5	3,190850
7,017000	0,5	3,173000
7,025333	0,5	3,165100
7,033667	0,5	3,152100
7,042000	0,5	3,135400
7,050333	0,5	3,123800
7,058667	0,5	3,115350
7,067000	0,5	3,117800
7,075333	0,5	3,123400
7,083667	0,5	3,112200
7,092000	0,5	3,104050
7,100333	0,5	3,083450
7,108667	0,5	3,065650
7,117000	0,5	3,038350
7,125333	0,5	3,017650
7,133667	0,5	2,990750
7,142000	0,5	2,972650
7,150333	0,5	2,961700
7,158667	0,5	2,946500
7,167000	0,5	2,939200
7,175333	0,5	2,947000
7,183667	0,5	2,950000
7,192000	0,5	2,957050
7,200333	0,5	2,973400
7,208667	0,5	3,002050
7,217000	0,5	3,045800
7,225333	0,5	3,088550
7,233667	0,5	3,130350
7,242000	0,5	3,172700
7,250333	0,5	3,220900
7,258667	0,5	3,264000
7,267000	0,5	3,325300
7,275333	0,5	3,408450
7,283667	0,5	3,524450
7,292000	0,5	3,678850
7,300333	0,5	3,865800
7,308667	0,5	4,052100
7,317000	0,5	4,196550
7,325333	0,5	4,269200
7,333667	0,5	4,232100
7,342000	0,5	4,096500
7,350333	0,5	3,896500
7,358667	0,5	3,661750
7,367000	0,5	3,436850
7,375333	0,5	3,234550
7,383667	0,5	3,069900
7,392000	0,5	2,951900
7,400333	0,5	2,872500
7,408667	0,5	2,818650
7,417000	0,5	2,778950
7,425333	0,5	2,754150
7,433667	0,5	2,733050
7,442000	0,5	2,721650
7,450333	0,5	2,709750
7,458667	0,5	2,701450
7,467000	0,5	2,696500
7,475333	0,5	2,698000
7,483667	0,5	2,694850
7,492000	0,5	2,687900
7,500333	0,5	2,687750
7,508667	0,5	2,695250
7,517000	0,5	2,699750
7,525333	0,5	2,694350
7,533667	0,5	2,696000
7,542000	0,5	2,693450
7,550333	0,5	2,703050
7,558667	0,5	2,726350
7,567000	0,5	2,764500
7,575333	0,5	2,815600
7,583667	0,5	2,870150
7,592000	0,5	2,906550
7,600333	0,5	2,910900
7,608667	0,5	2,870500
7,617000	0,5	2,814000
7,625333	0,5	2,741950
7,633667	0,5	2,674850
7,642000	0,5	2,626850
7,650333	0,5	2,593450
7,658667	0,5	2,583400
7,667000	0,5	2,566300
7,675333	0,5	2,552450
7,683667	0,5	2,552150
7,692000	0,5	2,549000
7,700333	0,5	2,554150
7,708667	0,5	2,557250
7,717000	0,5	2,563400
7,725333	0,5	2,570600
7,733667	0,5	2,576350
7,742000	0,5	2,583450
7,750333	0,5	2,577550
7,758667	0,5	2,569700
7,767000	0,5	2,561250
7,775333	0,5	2,541400
7,783667	0,5	2,522900
7,792000	0,5	2,507950
7,800333	0,5	2,500850
7,808667	0,5	2,504100
7,817000	0,5	2,501700
7,825333	0,5	2,495450
7,833667	0,5	2,484950
7,842000	0,5	2,479650
7,850333	0,5	2,470850
7,858667	0,5	2,456850
7,867000	0,5	2,451750
7,875333	0,5	2,445250
7,883667	0,5	2,437500
7,892000	0,5	2,433550
7,900333	0,5	2,427600
7,908667	0,5	2,428000
7,917000	0,5	2,433100
7,925333	0,5	2,428400
7,933667	0,5	2,432000
7,942000	0,5	2,430550
7,950333	0,5	2,436200
7,958667	0,5	2,443850
7,967000	0,5	2,442450
7,975333	0,5	2,434800
7,983667	0,5	2,426850
7,992000	0,5	2,413100
8,000333	0,5	2,406250
8,008667	0,5	2,394150
8,017000	0,5	2,385150
8,025333	0,5	2,381100
8,033667	0,5	2,386250
8,042000	0,5	2,400950
8,050333	0,5	2,428900
8,058667	0,5	2,482100
8,067000	0,5	2,542350
8,075333	0,5	2,597800
8,083667	0,5	2,629500
8,092000	0,5	2,621500
8,100333	0,5	2,580450
8,108667	0,5	2,520200
8,117000	0,5	2,462400
8,125333	0,5	2,416900
8,133667	0,5	2,383950
8,142000	0,5	2,367500
8,150333	0,5	2,359800
8,158667	0,5	2,358850
8,167000	0,5	2,351800
8,175333	0,5	2,352500
8,183667	0,5	2,349600
8,192000	0,5	2,342400
8,200333	0,5	2,330300
8,208667	0,5	2,322000
8,217000	0,5	2,306100
8,225333	0,5	2,296450
8,233667	0,5	2,286800
8,242000	0,5	2,284300
8,250333	0,5	2,283550
8,258667	0,5	2,282950
8,267000	0,5	2,280000
8,275333	0,5	2,277450
8,283667	0,5	2,271850
8,292000	0,5	2,269850
8,300333	0,5	2,272050
8,308667	0,5	2,277250
8,317000	0,5	2,286100
8,325333	0,5	2,294250
8,333667	0,5	2,308350
8,342000	0,5	2,320850
8,350333	0,5	2,332300
8,358667	0,5	2,340600
8,367000	0,5	2,340750
8,375333	0,5	2,336550
8,383667	0,5	2,332950
8,392000	0,5	2,330550
8,400333	0,5	2,331600
8,408667	0,5	2,325950
8,417000	0,5	2,321650
8,425333	0,5	2,316500
8,433667	0,5	2,312900
8,442000	0,5	2,314050
8,450333	0,5	2,314600
8,458667	0,5	2,323900
8,467000	0,5	2,336600
8,475333	0,5	2,361450
8,483667	0,5	2,406500
8,492000	0,5	2,473750
8,500333	0,5	2,566350
8,508667	0,5	2,673500
8,517000	0,5	2,764300
8,525333	0,5	2,816050
8,533667	0,5	2,823900
8,542000	0,5	2,798100
8,550333	0,5	2,766700
8,558667	0,5	2,748500
8,567000	0,5	2,758650
8,575333	0,5	2,816300
8,583667	0,5	2,919750
8,592000	0,5	3,086150
8,600333	0,5	3,317300
8,608667	0,5	3,599900
8,617000	0,5	3,913750
8,625333	0,5	4,197800
8,633667	0,5	4,396650
8,642000	0,5	4,457700
8,650333	0,5	4,366350
8,658667	0,5	4,142900
8,667000	0,5	3,849650
8,675333	0,5	3,554550
8,683667	0,5	3,329900
8,692000	0,5	3,221800
8,700333	0,5	3,253650
8,708667	0,5	3,405450
8,717000	0,5	3,635250
8,725333	0,5	3,891100
8,733667	0,5	4,169000
8,742000	0,5	4,466950
8,750333	0,5	4,764550
8,758667	0,5	5,000550
8,767000	0,5	5,141150
8,775333	0,5	5,167150
8,783667	0,5	5,078700
8,792000	0,5	4,889850
8,800333	0,5	4,640650
8,808667	0,5	4,355950
8,817000	0,5	4,061550
8,825333	0,5	3,780150
8,833667	0,5	3,533900
8,842000	0,5	3,328250
8,850333	0,5	3,167050
8,858667	0,5	3,057550
8,867000	0,5	3,002150
8,875333	0,5	2,992200
8,883667	0,5	3,015450
8,892000	0,5	3,031850
8,900333	0,5	3,035700
8,908667	0,5	3,016700
8,917000	0,5	2,994050
8,925333	0,5	2,977950
8,933667	0,5	2,980000
8,942000	0,5	2,989550
8,950333	0,5	2,993000
8,958667	0,5	2,978150
8,967000	0,5	2,937900
8,975333	0,5	2,890050
8,983667	0,5	2,832650
8,992000	0,5	2,779800
9,000333	0,5	2,729150
9,008667	0,5	2,675050
9,017000	0,5	2,625300
9,025333	0,5	2,574900
9,033667	0,5	2,528950
9,042000	0,5	2,482550
9,050333	0,5	2,444350
9,058667	0,5	2,409450
9,067000	0,5	2,380150
9,075333	0,5	2,362400
9,083667	0,5	2,348700
9,092000	0,5	2,338800
9,100333	0,5	2,329300
9,108667	0,5	2,325900
9,117000	0,5	2,317350
9,125333	0,5	2,317400
9,133667	0,5	2,321250
9,142000	0,5	2,325600
9,150333	0,5	2,337600
9,158667	0,5	2,352650
9,167000	0,5	2,375750
9,175333	0,5	2,406900
9,183667	0,5	2,444100
9,192000	0,5	2,497800
9,200333	0,5	2,562000
9,208667	0,5	2,618100
9,217000	0,5	2,653450
9,225333	0,5	2,653700
9,233667	0,5	2,633000
9,242000	0,5	2,599450
9,250333	0,5	2,573700
9,258667	0,5	2,559850
9,267000	0,5	2,546400
9,275333	0,5	2,538600
9,283667	0,5	2,522650
9,292000	0,5	2,496150
9,300333	0,5	2,468900
9,308667	0,5	2,442000
9,317000	0,5	2,424300
9,325333	0,5	2,415000
9,333667	0,5	2,421300
9,342000	0,5	2,437100
9,350333	0,5	2,464650
9,358667	0,5	2,504600
9,367000	0,5	2,560700
9,375333	0,5	2,630850
9,383667	0,5	2,720300
9,392000	0,5	2,838550
9,400333	0,5	2,987750
9,408667	0,5	3,169250
9,417000	0,5	3,390150
9,425333	0,5	3,647450
9,433667	0,5	3,941800
9,442000	0,5	4,264900
9,450333	0,5	4,614700
9,458667	0,5	4,991800
9,467000	0,5	5,394850
9,475333	0,5	5,815850
9,483667	0,5	6,250900
9,492000	0,5	6,665100
9,500333	0,5	7,017000
9,508667	0,5	7,261250
9,517000	0,5	7,345400
9,525333	0,5	7,243650
9,533667	0,5	6,929300
9,542000	0,5	6,409150
9,550333	0,5	5,732950
9,558667	0,5	4,982650
9,567000	0,5	4,262250
9,575333	0,5	3,647950
9,583667	0,5	3,179350
9,592000	0,5	2,843750
9,600333	0,5	2,616950
9,608667	0,5	2,470200
9,617000	0,5	2,379750
9,625333	0,5	2,324750
9,633667	0,5	2,298350
9,642000	0,5	2,297050
9,650333	0,5	2,318550
9,658667	0,5	2,359200
9,667000	0,5	2,415650
9,675333	0,5	2,469750
9,683667	0,5	2,500100
9,692000	0,5	2,509450
9,700333	0,5	2,483950
9,708667	0,5	2,433900
9,717000	0,5	2,375300
9,725333	0,5	2,317400
9,733667	0,5	2,272400
9,742000	0,5	2,246050
9,750333	0,5	2,226550
9,758667	0,5	2,211300
9,767000	0,5	2,187400
9,775333	0,5	2,161550
9,783667	0,5	2,127200
9,792000	0,5	2,093250
9,800333	0,5	2,068400
9,808667	0,5	2,043050
9,817000	0,5	2,032950
9,825333	0,5	2,024100
9,833667	0,5	2,015150
9,842000	0,5	2,023900
9,850333	0,5	2,025450
9,858667	0,5	2,024950
9,867000	0,5	2,025000
9,875333	0,5	2,025800
9,883667	0,5	2,029900
9,892000	0,5	2,040150
9,900333	0,5	2,050450
9,908667	0,5	2,050650
9,917000	0,5	2,046100
9,925333	0,5	2,031050
9,933667	0,5	2,019250
9,942000	0,5	2,002900
9,950333	0,5	1,998000
9,958667	0,5	1,996650
9,967000	0,5	2,001300
9,975333	0,5	2,013300
9,983667	0,5	2,035600
9,992000	0,5	2,065300
10,000333	0,5	2,099800
10,008667	0,5	2,142800
10,017000	0,5	2,185300
10,025333	0,5	2,225250
10,033667	0,5	2,247950
10,042000	0,5	2,250850
10,050333	0,5	2,226650
10,058667	0,5	2,191700
10,067000	0,5	2,151800
10,075333	0,5	2,103900
10,083667	0,5	2,052900
10,092000	0,5	2,007300
10,100333	0,5	1,958200
10,108667	0,5	1,912600
10,117000	0,5	1,876250
10,125333	0,5	1,841700
10,133667	0,5	1,828000
10,142000	0,5	1,812300
10,150333	0,5	1,801050
10,158667	0,5	1,794000
10,167000	0,5	1,794050
10,175333	0,5	1,798600
10,183667	0,5	1,811900
10,192000	0,5	1,827000
10,200333	0,5	1,847400
10,208667	0,5	1,869800
10,217000	0,5	1,892000
10,225333	0,5	1,908400
10,233667	0,5	1,925950
10,242000	0,5	1,933600
10,250333	0,5	1,939300
10,258667	0,5	1,940000
10,267000	0,5	1,941450
10,275333	0,5	1,948450
10,283667	0,5	1,970700
10,292000	0,5	2,001050
10,300333	0,5	2,036550
10,308667	0,5	2,076850
10,317000	0,5	2,110900
10,325333	0,5	2,134200
10,333667	0,5	2,134100
10,342000	0,5	2,095750
10,350333	0,5	2,042000
10,358667	0,5	1,966600
10,367000	0,5	1,891750
10,375333	0,5	1,829650
10,383667	0,5	1,782250
10,392000	0,5	1,755150
10,400333	0,5	1,738050
10,408667	0,5	1,728200
10,417000	0,5	1,711400
10,425333	0,5	1,700850
10,433667	0,5	1,684750
10,442000	0,5	1,670150
10,450333	0,5	1,654250
10,458667	0,5	1,639550
10,467000	0,5	1,620250
10,475333	0,5	1,612650
10,483667	0,5	1,603000
10,492000	0,5	1,599850
10,500333	0,5	1,597050
10,508667	0,5	1,607150
10,517000	0,5	1,616000
10,525333	0,5	1,632450
10,533667	0,5	1,639100
10,542000	0,5	1,643850
10,550333	0,5	1,646100
10,558667	0,5	1,647350
10,567000	0,5	1,644700
10,575333	0,5	1,665650
10,583667	0,5	1,697200
10,592000	0,5	1,739650
10,600333	0,5	1,787850
10,608667	0,5	1,824050
10,617000	0,5	1,845450
10,625333	0,5	1,843700
10,633667	0,5	1,814000
10,642000	0,5	1,774550
10,650333	0,5	1,731150
10,658667	0,5	1,690450
10,667000	0,5	1,658200
10,675333	0,5	1,632900
10,683667	0,5	1,605700
10,692000	0,5	1,580650
10,700333	0,5	1,549850
10,708667	0,5	1,525250
10,717000	0,5	1,501050
10,725333	0,5	1,493250
10,733667	0,5	1,486100
10,742000	0,5	1,490850
10,750333	0,5	1,506450
10,758667	0,5	1,528300
10,767000	0,5	1,562150
10,775333	0,5	1,596100
10,783667	0,5	1,621200
10,792000	0,5	1,647850
10,800333	0,5	1,664250
10,808667	0,5	1,685350
10,817000	0,5	1,697050
10,825333	0,5	1,722450
10,833667	0,5	1,756200
10,842000	0,5	1,791400
10,850333	0,5	1,820000
10,858667	0,5	1,821000
10,867000	0,5	1,793600
10,875333	0,5	1,760350
10,883667	0,5	1,704850
10,892000	0,5	1,651250
10,900333	0,5	1,606500
10,908667	0,5	1,570150
10,917000	0,5	1,554700
10,925333	0,5	1,541450
10,933667	0,5	1,527650
10,942000	0,5	1,511400
10,950333	0,5	1,500100
10,958667	0,5	1,486900
10,967000	0,5	1,487700
10,975333	0,5	1,489100
10,983667	0,5	1,507000
10,992000	0,5	1,534550
11,000333	0,5	1,575850
11,008667	0,5	1,621300
11,017000	0,5	1,687550
11,025333	0,5	1,768350
11,033667	0,5	1,882300
11,042000	0,5	2,033050
11,050333	0,5	2,243150
11,058667	0,5	2,519250
11,067000	0,5	2,853800
11,075333	0,5	3,222300
11,083667	0,5	3,591450
11,092000	0,5	3,906850
11,100333	0,5	4,122700
11,108667	0,5	4,206450
11,117000	0,5	4,162550
11,125333	0,5	4,001250
11,133667	0,5	3,753750
11,142000	0,5	3,470050
11,150333	0,5	3,166300
11,158667	0,5	2,877350
11,167000	0,5	2,633450
11,175333	0,5	2,438250
11,183667	0,5	2,295700
11,192000	0,5	2,217400
11,200333	0,5	2,182700
11,208667	0,5	2,194200
11,217000	0,5	2,219400
11,225333	0,5	2,256600
11,233667	0,5	2,282500
11,242000	0,5	2,288550
11,250333	0,5	2,260200
11,258667	0,5	2,200600
11,267000	0,5	2,104550
11,275333	0,5	1,986950
11,283667	0,5	1,866650
11,292000	0,5	1,754700
11,300333	0,5	1,660050
11,308667	0,5	1,585400
11,317000	0,5	1,543300
11,325333	0,5	1,511050
11,333667	0,5	1,493350
11,342000	0,5	1,481850
11,350333	0,5	1,477100
11,358667	0,5	1,486400
11,367000	0,5	1,505850
11,375333	0,5	1,543200
11,383667	0,5	1,592800
11,392000	0,5	1,649600
11,400333	0,5	1,712400
11,408667	0,5	1,764300
11,417000	0,5	1,806050
11,425333	0,5	1,828050
11,433667	0,5	1,844300
11,442000	0,5	1,863900
11,450333	0,5	1,880650
11,458667	0,5	1,908600
11,467000	0,5	1,940450
11,475333	0,5	1,959600
11,483667	0,5	1,963850
11,492000	0,5	1,953400
11,500333	0,5	1,921750
11,508667	0,5	1,883900
11,517000	0,5	1,834750
11,525333	0,5	1,796650
11,533667	0,5	1,760650
11,542000	0,5	1,737750
11,550333	0,5	1,706300
11,558667	0,5	1,671200
11,567000	0,5	1,619800
11,575333	0,5	1,571050
11,583667	0,5	1,514550
11,592000	0,5	1,458650
11,600333	0,5	1,403850
11,608667	0,5	1,369800
11,617000	0,5	1,339700
11,625333	0,5	1,321950
11,633667	0,5	1,315650
11,642000	0,5	1,311900
11,650333	0,5	1,327200
11,658667	0,5	1,342200
11,667000	0,5	1,362250
11,675333	0,5	1,373250
11,683667	0,5	1,373050
11,692000	0,5	1,370050
11,700333	0,5	1,351650
11,708667	0,5	1,327800
11,717000	0,5	1,306800
11,725333	0,5	1,286100
11,733667	0,5	1,274800
11,742000	0,5	1,267700
11,750333	0,5	1,263350
11,758667	0,5	1,278450
11,767000	0,5	1,285550
11,775333	0,5	1,294500
11,783667	0,5	1,300100
11,792000	0,5	1,297850
11,800333	0,5	1,298850
11,808667	0,5	1,301150
11,817000	0,5	1,290500
11,825333	0,5	1,286600
11,833667	0,5	1,283300
11,842000	0,5	1,277700
11,850333	0,5	1,272750
11,858667	0,5	1,266700
11,867000	0,5	1,259400
11,875333	0,5	1,256150
11,883667	0,5	1,254900
11,892000	0,5	1,258900
11,900333	0,5	1,255650
11,908667	0,5	1,270850
11,917000	0,5	1,277100
11,925333	0,5	1,279000
11,933667	0,5	1,279000
11,942000	0,5	1,277100
11,950333	0,5	1,280000
11,958667	0,5	1,287150
11,967000	0,5	1,298700
11,975333	0,5	1,316500
11,983667	0,5	1,337650
11,992000	0,5	1,348300
12,000333	0,5	1,354000
12,008667	0,5	1,357050
12,017000	0,5	1,369150
12,025333	0,5	1,396300
12,033667	0,5	1,478250
12,042000	0,5	1,587200
12,050333	0,5	1,752950
12,058667	0,5	1,832100
12,067000	0,5	1,811500
12,075333	0,5	1,703450
12,083667	0,5	1,487100
12,092000	0,5	1,178250
12,100333	0,5	0,840300
12,108667	0,5	0,498250
12,117000	0,5	0,231850
12,125333	0,5	0,043950
12,133667	0,5	-0,087350
12,142000	0,5	-0,193600
12,150333	0,5	-0,263900
12,158667	0,5	-0,315400
12,167000	0,5	-0,347650
12,175333	0,5	-0,368950
12,183667	0,5	-0,387200
12,192000	0,5	-0,398600
12,200333	0,5	-0,395550
12,208667	0,5	-0,391550
12,217000	0,5	-0,392050
12,225333	0,5	-0,389650
12,233667	0,5	-0,397050
12,242000	0,5	-0,392700
12,250333	0,5	-0,395450
12,258667	0,5	-0,396550
12,267000	0,5	-0,407150
12,275333	0,5	-0,410800
12,283667	0,5	-0,415500
12,292000	0,5	-0,422750
12,300333	0,5	-0,432100
12,308667	0,5	-0,446000
12,317000	0,5	-0,454300
12,325333	0,5	-0,462500
12,333667	0,5	-0,470000
12,342000	0,5	-0,476800
12,350333	0,5	-0,476850
12,358667	0,5	-0,480150
12,367000	0,5	-0,486000
12,375333	0,5	-0,489600
12,383667	0,5	-0,490450
12,392000	0,5	-0,489900
12,400333	0,5	-0,481950
12,408667	0,5	-0,482500
12,417000	0,5	-0,478150
12,425333	0,5	-0,477250
12,433667	0,5	-0,475250
12,442000	0,5	-0,481300
12,450333	0,5	-0,485150
12,458667	0,5	-0,490300
12,467000	0,5	-0,502900
12,475333	0,5	-0,507400
12,483667	0,5	-0,524700
12,492000	0,5	-0,535700
12,500333	0,5	-0,542550
12,508667	0,5	-0,552450
12,517000	0,5	-0,563200
12,525333	0,5	-0,572100
12,533667	0,5	-0,574100
12,542000	0,5	-0,571100
12,550333	0,5	-0,577200
12,558667	0,5	-0,575050
12,567000	0,5	-0,577200
12,575333	0,5	-0,571850
12,583667	0,5	-0,571750
12,592000	0,5	-0,565100
12,600333	0,5	-0,564400
12,608667	0,5	-0,560700
12,617000	0,5	-0,557250
12,625333	0,5	-0,548150
12,633667	0,5	-0,553700
12,642000	0,5	-0,539800
12,650333	0,5	-0,532450
12,658667	0,5	-0,519800
12,667000	0,5	-0,517050
12,675333	0,5	-0,510100
12,683667	0,5	-0,486750
12,692000	0,5	-0,462100
12,700333	0,5	-0,428200
12,708667	0,5	-0,392600
12,717000	0,5	-0,344000
12,725333	0,5	-0,289150
12,733667	0,5	-0,228150
12,742000	0,5	-0,156800
12,750333	0,5	-0,087750
12,758667	0,5	-0,009100
12,767000	0,5	0,071400
12,775333	0,5	0,141200
12,783667	0,5	0,203200
12,792000	0,5	0,263100
12,800333	0,5	0,309850
12,808667	0,5	0,344800
12,817000	0,5	0,362100
12,825333	0,5	0,369550
12,833667	0,5	0,378200
12,842000	0,5	0,379850
12,850333	0,5	0,374100
12,858667	0,5	0,370100
12,867000	0,5	0,361750
12,875333	0,5	0,357000
12,883667	0,5	0,353050
12,892000	0,5	0,352750
12,900333	0,5	0,345300
12,908667	0,5	0,344900
12,917000	0,5	0,340250
12,925333	0,5	0,338850
12,933667	0,5	0,336700
12,942000	0,5	0,342000
12,950333	0,5	0,338700
12,958667	0,5	0,336350
12,967000	0,5	0,331300
12,975333	0,5	0,326150
12,983667	0,5	0,330150
12,992000	0,5	0,329850
13,000333	0,5	0,328950
13,008667	0,5	0,330700
13,017000	0,5	0,331100
13,025333	0,5	0,329150
13,033667	0,5	0,330300
13,042000	0,5	0,329300
13,050333	0,5	0,327900
13,058667	0,5	0,328350
13,067000	0,5	0,329250
13,075333	0,5	0,325050
13,083667	0,5	0,329450
13,092000	0,5	0,331500
13,100333	0,5	0,327000
13,108667	0,5	0,328500
13,117000	0,5	0,322450
13,125333	0,5	0,325500
13,133667	0,5	0,332400
13,142000	0,5	0,337500
13,150333	0,5	0,340150
13,158667	0,5	0,343350
13,167000	0,5	0,352100
13,175333	0,5	0,354700
13,183667	0,5	0,359100
13,192000	0,5	0,367450
13,200333	0,5	0,375700
13,208667	0,5	0,390900
13,217000	0,5	0,401100
13,225333	0,5	0,407600
13,233667	0,5	0,419150
13,242000	0,5	0,437300
13,250333	0,5	0,438200
13,258667	0,5	0,434850
13,267000	0,5	0,429500
13,275333	0,5	0,429050
13,283667	0,5	0,421300
13,292000	0,5	0,416200
13,300333	0,5	0,412250
13,308667	0,5	0,405000
13,317000	0,5	0,400400
13,325333	0,5	0,399400
13,333667	0,5	0,396900
13,342000	0,5	0,389550
13,350333	0,5	0,390350
13,358667	0,5	0,394800
13,367000	0,5	0,391100
13,375333	0,5	0,401400
13,383667	0,5	0,418350
13,392000	0,5	0,444050
13,400333	0,5	0,472100
13,408667	0,5	0,502650
13,417000	0,5	0,544850
13,425333	0,5	0,583800
13,433667	0,5	0,617200
13,442000	0,5	0,638450
13,450333	0,5	0,650400
13,458667	0,5	0,642150
13,467000	0,5	0,628250
13,475333	0,5	0,604550
13,483667	0,5	0,584650
13,492000	0,5	0,563050
13,500333	0,5	0,548600
13,508667	0,5	0,540950
13,517000	0,5	0,529800
13,525333	0,5	0,537500
13,533667	0,5	0,561350
13,542000	0,5	0,592200
13,550333	0,5	0,628000
13,558667	0,5	0,661450
13,567000	0,5	0,699100
13,575333	0,5	0,735050
13,583667	0,5	0,746600
13,592000	0,5	0,747500
13,600333	0,5	0,731400
13,608667	0,5	0,715200
13,617000	0,5	0,686650
13,625333	0,5	0,665300
13,633667	0,5	0,643250
13,642000	0,5	0,637450
13,650333	0,5	0,643150
13,658667	0,5	0,671550
13,667000	0,5	0,690050
13,675333	0,5	0,736100
13,683667	0,5	0,768950
13,692000	0,5	0,795400
13,700333	0,5	0,805550
13,708667	0,5	0,805250
13,717000	0,5	0,812000
13,725333	0,5	0,804950
13,733667	0,5	0,790300
13,742000	0,5	0,776600
13,750333	0,5	0,764750
13,758667	0,5	0,755350
13,767000	0,5	0,764050
13,775333	0,5	0,767150
13,783667	0,5	0,776850
13,792000	0,5	0,781400
13,800333	0,5	0,794100
13,808667	0,5	0,792850
13,817000	0,5	0,790850
13,825333	0,5	0,790850
13,833667	0,5	0,791250
13,842000	0,5	0,783950
13,850333	0,5	0,778300
13,858667	0,5	0,774250
13,867000	0,5	0,791700
13,875333	0,5	0,805450
13,883667	0,5	0,823750
13,892000	0,5	0,839000
13,900333	0,5	0,861000
13,908667	0,5	0,880150
13,917000	0,5	0,895250
13,925333	0,5	0,906400
13,933667	0,5	0,898450
13,942000	0,5	0,896750
13,950333	0,5	0,882850
13,958667	0,5	0,867500
13,967000	0,5	0,859850
13,975333	0,5	0,863500
13,983667	0,5	0,859000
13,992000	0,5	0,859600
14,000333	0,5	0,849050
14,008667	0,5	0,849000
14,017000	0,5	0,847500
14,025333	0,5	0,857250
14,033667	0,5	0,866000
14,042000	0,5	0,877400
14,050333	0,5	0,887150
14,058667	0,5	0,891350
14,067000	0,5	0,898900
14,075333	0,5	0,894800
14,083667	0,5	0,895350
14,092000	0,5	0,903200
14,100333	0,5	0,901850
14,108667	0,5	0,896900
14,117000	0,5	0,907450
14,125333	0,5	0,912300
14,133667	0,5	0,916350
14,142000	0,5	0,909800
14,150333	0,5	0,909700
14,158667	0,5	0,908400
14,167000	0,5	0,913500
14,175333	0,5	0,911150
14,183667	0,5	0,911350
14,192000	0,5	0,909450
14,200333	0,5	0,911350
14,208667	0,5	0,915050
14,217000	0,5	0,916000
14,225333	0,5	0,916250
14,233667	0,5	0,915100
14,242000	0,5	0,916950
14,250333	0,5	0,911650
14,258667	0,5	0,896450
14,267000	0,5	0,894400
14,275333	0,5	0,895350
14,283667	0,5	0,883500
14,292000	0,5	0,877350
14,300333	0,5	0,865550
14,308667	0,5	0,874050
14,317000	0,5	0,872650
14,325333	0,5	0,869450
14,333667	0,5	0,863100
14,342000	0,5	0,865850
14,350333	0,5	0,857900
14,358667	0,5	0,854450
14,367000	0,5	0,850250
14,375333	0,5	0,851250
14,383667	0,5	0,853200
14,392000	0,5	0,855500
14,400333	0,5	0,841550
14,408667	0,5	0,835350
14,417000	0,5	0,836650
14,425333	0,5	0,830900
14,433667	0,5	0,826500
14,442000	0,5	0,812800
14,450333	0,5	0,816550
14,458667	0,5	0,816350
14,467000	0,5	0,812200
14,475333	0,5	0,806200
14,483667	0,5	0,799400
14,492000	0,5	0,791950
14,500333	0,5	0,791850
14,508667	0,5	0,786850
14,517000	0,5	0,786300
14,525333	0,5	0,781950
14,533667	0,5	0,784800
14,542000	0,5	0,783550
14,550333	0,5	0,774150
14,558667	0,5	0,778350
14,567000	0,5	0,772300
14,575333	0,5	0,759150
14,583667	0,5	0,752200
14,592000	0,5	0,733600
14,600333	0,5	0,733650
14,608667	0,5	0,734550
14,617000	0,5	0,729950
14,625333	0,5	0,724400
14,633667	0,5	0,716450
14,642000	0,5	0,710400
14,650333	0,5	0,697900
14,658667	0,5	0,694550
14,667000	0,5	0,682700
14,675333	0,5	0,678250
14,683667	0,5	0,667500
14,692000	0,5	0,666000
14,700333	0,5	0,650050
14,708667	0,5	0,659050
14,717000	0,5	0,649700
14,725333	0,5	0,646750
14,733667	0,5	0,633650
14,742000	0,5	0,618750
14,750333	0,5	0,620200
14,758667	0,5	0,621000
14,767000	0,5	0,609500
14,775333	0,5	0,604900
14,783667	0,5	0,601900
14,792000	0,5	0,598500
14,800333	0,5	0,597200
14,808667	0,5	0,591700
14,817000	0,5	0,589450
14,825333	0,5	0,580850
14,833667	0,5	0,583600
14,842000	0,5	0,571500
14,850333	0,5	0,565000
14,858667	0,5	0,568750
14,867000	0,5	0,563800
14,875333	0,5	0,553300
14,883667	0,5	0,545350
14,892000	0,5	0,536250
14,900333	0,5	0,539250
14,908667	0,5	0,535000
14,917000	0,5	0,538100
14,925333	0,5	0,532400
14,933667	0,5	0,533900
14,942000	0,5	0,532450
14,950333	0,5	0,535000
14,958667	0,5	0,537800
14,967000	0,5	0,535350
14,975333	0,5	0,542250
14,983667	0,5	0,544300
14,992000	0,5	0,546300
15,000333	0,5	0,552200
15,008667	0,5	0,568400
15,017000	0,5	0,557750
15,025333	0,5	0,553650
15,033667	0,5	0,545350
15,042000	0,5	0,546350
15,050333	0,5	0,545200
15,058667	0,5	0,548100
15,067000	0,5	0,542750
15,075333	0,5	0,552250
15,083667	0,5	0,553050
15,092000	0,5	0,557300
15,100333	0,5	0,565900
15,108667	0,5	0,569150
15,117000	0,5	0,579550
15,125333	0,5	0,584500
15,133667	0,5	0,586450
15,142000	0,5	0,582900
15,150333	0,5	0,588050
15,158667	0,5	0,586050
15,167000	0,5	0,582150
15,175333	0,5	0,575400
15,183667	0,5	0,581200
15,192000	0,5	0,592950
15,200333	0,5	0,615650
15,208667	0,5	0,629050
15,217000	0,5	0,638050
15,225333	0,5	0,633400
15,233667	0,5	0,617950
15,242000	0,5	0,595900
15,250333	0,5	0,575300
15,258667	0,5	0,556450
15,267000	0,5	0,544350
15,275333	0,5	0,539600
15,283667	0,5	0,516950
15,292000	0,5	0,493150
15,300333	0,5	0,478600
15,308667	0,5	0,458900
15,317000	0,5	0,435850
15,325333	0,5	0,408100
15,333667	0,5	0,390650
15,342000	0,5	0,389200
15,350333	0,5	0,366300
15,358667	0,5	0,366300
15,367000	0,5	0,349100
15,375333	0,5	0,349250
15,383667	0,5	0,337400
15,392000	0,5	0,335050
15,400333	0,5	0,326450
15,408667	0,5	0,317800
15,417000	0,5	0,316500
15,425333	0,5	0,318900
15,433667	0,5	0,299900
15,442000	0,5	0,310650
15,450333	0,5	0,316150
15,458667	0,5	0,318600
15,467000	0,5	0,314800
15,475333	0,5	0,299300
15,483667	0,5	0,306100
15,492000	0,5	0,301900
15,500333	0,5	0,298550
15,508667	0,5	0,289750
15,517000	0,5	0,290100
15,525333	0,5	0,280150
15,533667	0,5	0,280050
15,542000	0,5	0,276350
15,550333	0,5	0,271650
15,558667	0,5	0,262800
15,567000	0,5	0,259300
15,575333	0,5	0,248550
15,583667	0,5	0,228900
15,592000	0,5	0,234150
15,600333	0,5	0,223250
15,608667	0,5	0,211400
15,617000	0,5	0,202450
15,625333	0,5	0,183050
15,633667	0,5	0,182600
15,642000	0,5	0,179550
15,650333	0,5	0,170100
15,658667	0,5	0,165900
15,667000	0,5	0,158250
15,675333	0,5	0,157000
15,683667	0,5	0,148700
15,692000	0,5	0,145600
15,700333	0,5	0,141300
15,708667	0,5	0,137100
15,717000	0,5	0,132400
15,725333	0,5	0,132000
15,733667	0,5	0,119050
15,742000	0,5	0,129150
15,750333	0,5	0,123750
15,758667	0,5	0,122100
15,767000	0,5	0,108550
15,775333	0,5	0,101950
15,783667	0,5	0,114300
15,792000	0,5	0,121750
15,800333	0,5	0,129950
15,808667	0,5	0,140350
15,817000	0,5	0,149400
15,825333	0,5	0,156050
15,833667	0,5	0,162750
15,842000	0,5	0,161100
15,850333	0,5	0,154450
15,858667	0,5	0,148050
15,867000	0,5	0,143900
15,875333	0,5	0,125550
15,883667	0,5	0,123750
15,892000	0,5	0,117900
15,900333	0,5	0,109650
15,908667	0,5	0,098450
15,917000	0,5	0,083150
15,925333	0,5	0,083300
15,933667	0,5	0,084050
15,942000	0,5	0,084400
15,950333	0,5	0,083850
15,958667	0,5	0,075400
15,967000	0,5	0,066400
15,975333	0,5	0,054550
15,983667	0,5	0,051850
15,992000	0,5	0,044950
16,000333	0,5	0,039200
16,008667	0,5	0,046800
16,017000	0,5	0,037850
16,025333	0,5	0,023900
16,033667	0,5	0,024450
16,042000	0,5	0,025950
16,050333	0,5	0,017650
16,058667	0,5	0,008250
16,067000	0,5	-0,003000
16,075333	0,5	-0,006850
16,083667	0,5	-0,010200
16,092000	0,5	-0,005500
16,100333	0,5	-0,017700
16,108667	0,5	-0,016000
16,117000	0,5	-0,019000
16,125333	0,5	-0,013650
16,133667	0,5	-0,013500
16,142000	0,5	-0,016600
16,150333	0,5	-0,016700
16,158667	0,5	-0,011500
16,167000	0,5	-0,020700
16,175333	0,5	-0,028050
16,183667	0,5	-0,024200
16,192000	0,5	-0,022800
16,200333	0,5	-0,027800
16,208667	0,5	-0,040200
16,217000	0,5	-0,044550
16,225333	0,5	-0,049050
16,233667	0,5	-0,044200
16,242000	0,5	-0,049500
16,250333	0,5	-0,045700
16,258667	0,5	-0,051250
16,267000	0,5	-0,051450
16,275333	0,5	-0,053350
16,283667	0,5	-0,053250
16,292000	0,5	-0,056100
16,300333	0,5	-0,062600
16,308667	0,5	-0,056650
16,317000	0,5	-0,071200
16,325333	0,5	-0,070350
16,333667	0,5	-0,067700
16,342000	0,5	-0,076800
16,350333	0,5	-0,086500
16,358667	0,5	-0,105200
16,367000	0,5	-0,108400
16,375333	0,5	-0,107450
16,383667	0,5	-0,114200
16,392000	0,5	-0,118250
16,400333	0,5	-0,129350
16,408667	0,5	-0,123450
16,417000	0,5	-0,132750
16,425333	0,5	-0,136650
16,433667	0,5	-0,144150
16,442000	0,5	-0,147850
16,450333	0,5	-0,144600
16,458667	0,5	-0,146550
16,467000	0,5	-0,171200
16,475333	0,5	-0,162400
16,483667	0,5	-0,164350
16,492000	0,5	-0,172600
16,500333	0,5	-0,182450
16,508667	0,5	-0,203100
16,517000	0,5	-0,198300
16,525333	0,5	-0,200500
16,533667	0,5	-0,202000
16,542000	0,5	-0,206400
16,550333	0,5	-0,204000
16,558667	0,5	-0,208850
16,567000	0,5	-0,208450
16,575333	0,5	-0,213250
16,583667	0,5	-0,210200
16,592000	0,5	-0,215250
16,600333	0,5	-0,209900
16,608667	0,5	-0,217300
16,617000	0,5	-0,227250
16,625333	0,5	-0,219900
16,633667	0,5	-0,220650
16,642000	0,5	-0,229800
16,650333	0,5	-0,238300
16,658667	0,5	-0,250400
16,667000	0,5	-0,246100
16,675333	0,5	-0,242900
16,683667	0,5	-0,250950
16,692000	0,5	-0,248400
16,700333	0,5	-0,252000
16,708667	0,5	-0,247300
16,717000	0,5	-0,246950
16,725333	0,5	-0,245300
16,733667	0,5	-0,244700
16,742000	0,5	-0,244400
16,750333	0,5	-0,241350
16,758667	0,5	-0,247350
16,767000	0,5	-0,243600
16,775333	0,5	-0,228700
16,783667	0,5	-0,228550
16,792000	0,5	-0,226200
16,800333	0,5	-0,231750
16,808667	0,5	-0,225100
16,817000	0,5	-0,207900
16,825333	0,5	-0,196950
16,833667	0,5	-0,181750
16,842000	0,5	-0,170200
16,850333	0,5	-0,155600
16,858667	0,5	-0,138500
16,867000	0,5	-0,128100
16,875333	0,5	-0,119250
16,883667	0,5	-0,109750
16,892000	0,5	-0,101750
16,900333	0,5	-0,100000
16,908667	0,5	-0,106150
16,917000	0,5	-0,088550
16,925333	0,5	-0,084900
16,933667	0,5	-0,080550
16,942000	0,5	-0,083950
16,950333	0,5	-0,079650
16,958667	0,5	-0,059700
16,967000	0,5	-0,037950
16,975333	0,5	-0,024400
16,983667	0,5	-0,005100
16,992000	0,5	0,005150
17,000333	0,5	0,013500
17,008667	0,5	0,011700
17,017000	0,5	0,005700
17,025333	0,5	0,007700
17,033667	0,5	0,003200
17,042000	0,5	0,007650
17,050333	0,5	0,000900
17,058667	0,5	-0,002950
17,067000	0,5	0,005200
17,075333	0,5	0,006750
17,083667	0,5	0,008350
17,092000	0,5	-0,002200
17,100333	0,5	-0,008300
17,108667	0,5	-0,002100
17,117000	0,5	-0,000950
17,125333	0,5	0,006700
17,133667	0,5	0,000450
17,142000	0,5	0,000900
17,150333	0,5	-0,000800
17,158667	0,5	-0,000150
17,167000	0,5	-0,002000
17,175333	0,5	-0,013950
17,183667	0,5	-0,014200
17,192000	0,5	-0,016050
17,200333	0,5	-0,034050
17,208667	0,5	-0,038400
17,217000	0,5	-0,035200
17,225333	0,5	-0,047450
17,233667	0,5	-0,055550
17,242000	0,5	-0,080100
17,250333	0,5	-0,084500
17,258667	0,5	-0,096800
17,267000	0,5	-0,096250
17,275333	0,5	-0,104450
17,283667	0,5	-0,101650
17,292000	0,5	-0,113500
17,300333	0,5	-0,114850
17,308667	0,5	-0,119750
17,317000	0,5	-0,123350
17,325333	0,5	-0,125000
17,333667	0,5	-0,124550
17,342000	0,5	-0,127650
17,350333	0,5	-0,143200
17,358667	0,5	-0,137100
17,367000	0,5	-0,137550
17,375333	0,5	-0,146650
17,383667	0,5	-0,161150
17,392000	0,5	-0,179450
17,400333	0,5	-0,186350
17,408667	0,5	-0,188400
17,417000	0,5	-0,206350
17,425333	0,5	-0,212600
17,433667	0,5	-0,227950
17,442000	0,5	-0,230000
17,450333	0,5	-0,238600
17,458667	0,5	-0,242750
17,467000	0,5	-0,251800
17,475333	0,5	-0,255800
17,483667	0,5	-0,250250
17,492000	0,5	-0,260200
17,500333	0,5	-0,270850
17,508667	0,5	-0,269050
17,517000	0,5	-0,266050
17,525333	0,5	-0,272150
17,533667	0,5	-0,275700
17,542000	0,5	-0,283350
17,550333	0,5	-0,268700
17,558667	0,5	-0,275050
17,567000	0,5	-0,267300
17,575333	0,5	-0,265150
17,583667	0,5	-0,258050
17,592000	0,5	-0,260600
17,600333	0,5	-0,260050
17,608667	0,5	-0,267000
17,617000	0,5	-0,280850
17,625333	0,5	-0,297850
17,633667	0,5	-0,308400
17,642000	0,5	-0,342050
17,650333	0,5	-0,358000
17,658667	0,5	-0,373350
17,667000	0,5	-0,392200
17,675333	0,5	-0,411500
17,683667	0,5	-0,438600
17,692000	0,5	-0,441950
17,700333	0,5	-0,447450
17,708667	0,5	-0,450900
17,717000	0,5	-0,460500
17,725333	0,5	-0,462650
17,733667	0,5	-0,472300
17,742000	0,5	-0,466200
17,750333	0,5	-0,477150
17,758667	0,5	-0,480850
17,767000	0,5	-0,486050
17,775333	0,5	-0,483700
17,783667	0,5	-0,487650
17,792000	0,5	-0,504150
17,800333	0,5	-0,504000
17,808667	0,5	-0,508100
17,817000	0,5	-0,515200
17,825333	0,5	-0,526850
17,833667	0,5	-0,550450
17,842000	0,5	-0,553800
17,850333	0,5	-0,552500
17,858667	0,5	-0,556900
17,867000	0,5	-0,565250
17,875333	0,5	-0,568500
17,883667	0,5	-0,572450
17,892000	0,5	-0,575400
17,900333	0,5	-0,576600
17,908667	0,5	-0,589100
17,917000	0,5	-0,586000
17,925333	0,5	-0,590550
17,933667	0,5	-0,591950
17,942000	0,5	-0,604700
17,950333	0,5	-0,593500
17,958667	0,5	-0,600450
17,967000	0,5	-0,606900
17,975333	0,5	-0,627950
17,983667	0,5	-0,641700
17,992000	0,5	-0,639950
18,000333	0,5	-0,647150
18,008667	0,5	-0,650050
18,017000	0,5	-0,649400
18,025333	0,5	-0,656050
18,033667	0,5	-0,660500
18,042000	0,5	-0,660900
18,050333	0,5	-0,670800
18,058667	0,5	-0,672000
18,067000	0,5	-0,672400
18,075333	0,5	-0,673600
18,083667	0,5	-0,688550
18,092000	0,5	-0,691150
18,100333	0,5	-0,691300
18,108667	0,5	-0,699650
18,117000	0,5	-0,712600
18,125333	0,5	-0,727100
18,133667	0,5	-0,737750
18,142000	0,5	-0,737500
18,150333	0,5	-0,752350
18,158667	0,5	-0,755050
18,167000	0,5	-0,758400
18,175333	0,5	-0,758550
18,183667	0,5	-0,764350
18,192000	0,5	-0,766800
18,200333	0,5	-0,769350
18,208667	0,5	-0,779450
18,217000	0,5	-0,772200
18,225333	0,5	-0,774650
18,233667	0,5	-0,800450
18,242000	0,5	-0,800300
18,250333	0,5	-0,797400
18,258667	0,5	-0,811900
18,267000	0,5	-0,817250
18,275333	0,5	-0,840400
18,283667	0,5	-0,838000
18,292000	0,5	-0,845650
18,300333	0,5	-0,843350
18,308667	0,5	-0,852650
18,317000	0,5	-0,856950
18,325333	0,5	-0,868900
18,333667	0,5	-0,865400
18,342000	0,5	-0,867000
18,350333	0,5	-0,872250
18,358667	0,5	-0,872650
18,367000	0,5	-0,866600
18,375333	0,5	-0,874800
18,383667	0,5	-0,882150
18,392000	0,5	-0,882700
18,400333	0,5	-0,886300
18,408667	0,5	-0,892650
18,417000	0,5	-0,910000
18,425333	0,5	-0,912300
18,433667	0,5	-0,911650
18,442000	0,5	-0,903750
18,450333	0,5	-0,906650
18,458667	0,5	-0,901150
18,467000	0,5	-0,905900
18,475333	0,5	-0,893450
18,483667	0,5	-0,892950
18,492000	0,5	-0,885800
18,500333	0,5	-0,881050
18,508667	0,5	-0,874800
18,517000	0,5	-0,857050
18,525333	0,5	-0,864600
18,533667	0,5	-0,848250
18,542000	0,5	-0,835350
18,550333	0,5	-0,827300
18,558667	0,5	-0,825550
18,567000	0,5	-0,833450
18,575333	0,5	-0,822100
18,583667	0,5	-0,805750
18,592000	0,5	-0,808900
18,600333	0,5	-0,802900
18,608667	0,5	-0,806100
18,617000	0,5	-0,795750
18,625333	0,5	-0,795900
18,633667	0,5	-0,795850
18,642000	0,5	-0,804600
18,650333	0,5	-0,807550
18,658667	0,5	-0,800050
18,667000	0,5	-0,799600
18,675333	0,5	-0,825500
18,683667	0,5	-0,819650
18,692000	0,5	-0,830150
18,700333	0,5	-0,841300
18,708667	0,5	-0,856800
18,717000	0,5	-0,889750
18,725333	0,5	-0,880200
18,733667	0,5	-0,891750
18,742000	0,5	-0,896600
18,750333	0,5	-0,908850
18,758667	0,5	-0,912350
18,767000	0,5	-0,923100
18,775333	0,5	-0,920950
18,783667	0,5	-0,931950
18,792000	0,5	-0,936850
18,800333	0,5	-0,941750
18,808667	0,5	-0,940750
18,817000	0,5	-0,951750
18,825333	0,5	-0,959400
18,833667	0,5	-0,954500
18,842000	0,5	-0,960300
18,850333	0,5	-0,963100
18,858667	0,5	-0,974400
18,867000	0,5	-0,981700
18,875333	0,5	-0,976550
18,883667	0,5	-0,965550
18,892000	0,5	-0,958200
18,900333	0,5	-0,944000
18,908667	0,5	-0,937950
18,917000	0,5	-0,923950
18,925333	0,5	-0,925400
18,933667	0,5	-0,918300
18,942000	0,5	-0,926900
18,950333	0,5	-0,927950
18,958667	0,5	-0,946850
18,967000	0,5	-0,966100
18,975333	0,5	-0,976150
18,983667	0,5	-0,981400
18,992000	0,5	-0,999850
19,000333	0,5	-1,020550
19,008667	0,5	-1,046950
19,017000	0,5	-1,061100
19,025333	0,5	-1,064600
19,033667	0,5	-1,074250
19,042000	0,5	-1,082300
19,050333	0,5	-1,086950
19,058667	0,5	-1,091900
19,067000	0,5	-1,101800
19,075333	0,5	-1,100950
19,083667	0,5	-1,110050
19,092000	0,5	-1,109250
19,100333	0,5	-1,104300
19,108667	0,5	-1,106600
19,117000	0,5	-1,128550
19,125333	0,5	-1,120750
19,133667	0,5	-1,124550
19,142000	0,5	-1,130250
19,150333	0,5	-1,149000
19,158667	0,5	-1,157250
19,167000	0,5	-1,154450
19,175333	0,5	-1,158350
19,183667	0,5	-1,157500
19,192000	0,5	-1,156600
19,200333	0,5	-1,161950
19,208667	0,5	-1,160950
19,217000	0,5	-1,156400
19,225333	0,5	-1,153550
19,233667	0,5	-1,158450
19,242000	0,5	-1,159700
19,250333	0,5	-1,155850
19,258667	0,5	-1,175750
19,267000	0,5	-1,177100
19,275333	0,5	-1,179000
19,283667	0,5	-1,185350
19,292000	0,5	-1,203300
19,300333	0,5	-1,219700
19,308667	0,5	-1,229350
19,317000	0,5	-1,229250
19,325333	0,5	-1,233250
19,333667	0,5	-1,237500
19,342000	0,5	-1,244650
19,350333	0,5	-1,247150
19,358667	0,5	-1,254450
19,367000	0,5	-1,258550
19,375333	0,5	-1,261850
19,383667	0,5	-1,266400
19,392000	0,5	-1,263550
19,400333	0,5	-1,265950
19,408667	0,5	-1,285700
19,417000	0,5	-1,277100
19,425333	0,5	-1,278000
19,433667	0,5	-1,287400
19,442000	0,5	-1,296050
19,450333	0,5	-1,325400
19,458667	0,5	-1,314500
19,467000	0,5	-1,318450
19,475333	0,5	-1,322400
19,483667	0,5	-1,331150
19,492000	0,5	-1,333000
19,500333	0,5	-1,338300
19,508667	0,5	-1,339000
19,517000	0,5	-1,345650
19,525333	0,5	-1,350150
19,533667	0,5	-1,351000
19,542000	0,5	-1,349150
19,550333	0,5	-1,351750
19,558667	0,5	-1,370600
19,567000	0,5	-1,358300
19,575333	0,5	-1,363250
19,583667	0,5	-1,366900
19,592000	0,5	-1,380950
19,600333	0,5	-1,397550
19,608667	0,5	-1,394900
19,617000	0,5	-1,392000
19,625333	0,5	-1,399250
19,633667	0,5	-1,400150
19,642000	0,5	-1,402650
19,650333	0,5	-1,405650
19,658667	0,5	-1,404800
19,667000	0,5	-1,405250
19,675333	0,5	-1,412750
19,683667	0,5	-1,417850
19,692000	0,5	-1,407050
19,700333	0,5	-1,415250
19,708667	0,5	-1,416250
19,717000	0,5	-1,414100
19,725333	0,5	-1,414850
19,733667	0,5	-1,424350
19,742000	0,5	-1,435450
19,750333	0,5	-1,443950
19,758667	0,5	-1,441550
19,767000	0,5	-1,450150
19,775333	0,5	-1,447050
19,783667	0,5	-1,452800
19,792000	0,5	-1,453350
19,800333	0,5	-1,456650
19,808667	0,5	-1,454450
19,817000	0,5	-1,459400
19,825333	0,5	-1,460900
19,833667	0,5	-1,446450
19,842000	0,5	-1,448350
19,850333	0,5	-1,468950
19,858667	0,5	-1,467750
19,867000	0,5	-1,465100
19,875333	0,5	-1,472600
19,883667	0,5	-1,484450
19,892000	0,5	-1,506650
19,900333	0,5	-1,500700
19,908667	0,5	-1,506200
19,917000	0,5	-1,506500
19,925333	0,5	-1,513450
19,933667	0,5	-1,506950
19,942000	0,5	-1,516000
19,950333	0,5	-1,516550
19,958667	0,5	-1,521050
19,967000	0,5	-1,522500
19,975333	0,5	-1,519950
19,983667	0,5	-1,513200
19,992000	0,5	-1,519850
20,000333	0,5	-1,524600
20,008667	0,5	-1,517650
20,017000	0,5	-1,522050
20,025333	0,5	-1,522000
20,033667	0,5	-1,541400
20,042000	0,5	-1,546650
20,050333	0,5	-1,552900
20,058667	0,5	-1,544800
20,067000	0,5	-1,545750
20,075333	0,5	-1,540450
20,083667	0,5	-1,547000
20,092000	0,5	-1,541900
20,100333	0,5	-1,541950
20,108667	0,5	-1,541150
20,117000	0,5	-1,540950
20,125333	0,5	-1,528200
20,133667	0,5	-1,521550
20,142000	0,5	-1,536650
20,150333	0,5	-1,535400
20,158667	0,5	-1,532550
20,167000	0,5	-1,537400
20,175333	0,5	-1,546550
20,183667	0,5	-1,560050
20,192000	0,5	-1,559300
20,200333	0,5	-1,551850
20,208667	0,5	-1,555400
20,217000	0,5	-1,550550
20,225333	0,5	-1,553150
20,233667	0,5	-1,549050
20,242000	0,5	-1,560550
20,250333	0,5	-1,551400
20,258667	0,5	-1,550600
20,267000	0,5	-1,554550
20,275333	0,5	-1,541300
20,283667	0,5	-1,543350
20,292000	0,5	-1,555650
20,300333	0,5	-1,544000
20,308667	0,5	-1,543700
20,317000	0,5	-1,551250
20,325333	0,5	-1,559450
20,333667	0,5	-1,572800
20,342000	0,5	-1,558750
20,350333	0,5	-1,559600
20,358667	0,5	-1,557900
20,367000	0,5	-1,561750
20,375333	0,5	-1,551150
20,383667	0,5	-1,553150
20,392000	0,5	-1,539950
20,400333	0,5	-1,542550
20,408667	0,5	-1,534700
20,417000	0,5	-1,529000
20,425333	0,5	-1,511400
20,433667	0,5	-1,520900
20,442000	0,5	-1,526800
20,450333	0,5	-1,526250
20,458667	0,5	-1,529250
20,467000	0,5	-1,537550
20,475333	0,5	-1,565200
20,483667	0,5	-1,562850
20,492000	0,5	-1,564450
20,500333	0,5	-1,560650
20,508667	0,5	-1,564200
20,517000	0,5	-1,564000
20,525333	0,5	-1,571200
20,533667	0,5	-1,564400
20,542000	0,5	-1,566850
20,550333	0,5	-1,562200
20,558667	0,5	-1,567900
20,567000	0,5	-1,552650
20,575333	0,5	-1,546150
20,583667	0,5	-1,553950
20,592000	0,5	-1,553250
20,600333	0,5	-1,557200
20,608667	0,5	-1,562150
20,617000	0,5	-1,572250
20,625333	0,5	-1,590750
20,633667	0,5	-1,591550
20,642000	0,5	-1,592950
20,650333	0,5	-1,599250
20,658667	0,5	-1,598000
20,667000	0,5	-1,599700
20,675333	0,5	-1,599100
20,683667	0,5	-1,604400
20,692000	0,5	-1,596650
20,700333	0,5	-1,601100
20,708667	0,5	-1,592700
20,717000	0,5	-1,579700
20,725333	0,5	-1,572050
20,733667	0,5	-1,586000
20,742000	0,5	-1,575650
20,750333	0,5	-1,580450
20,758667	0,5	-1,590600
20,767000	0,5	-1,601550
20,775333	0,5	-1,615500
20,783667	0,5	-1,600400
20,792000	0,5	-1,598500
20,800333	0,5	-1,600350
20,808667	0,5	-1,601300
20,817000	0,5	-1,592650
20,825333	0,5	-1,590150
20,833667	0,5	-1,584050
20,842000	0,5	-1,587600
20,850333	0,5	-1,582000
20,858667	0,5	-1,565400
20,867000	0,5	-1,548900
20,875333	0,5	-1,545800
20,883667	0,5	-1,547850
20,892000	0,5	-1,546250
20,900333	0,5	-1,550350
20,908667	0,5	-1,562250
20,917000	0,5	-1,569800
20,925333	0,5	-1,569000
20,933667	0,5	-1,567200
20,942000	0,5	-1,560400
20,950333	0,5	-1,560650
20,958667	0,5	-1,558300
20,967000	0,5	-1,557550
20,975333	0,5	-1,550000
20,983667	0,5	-1,546550
20,992000	0,5	-1,539250
21,000333	0,5	-1,538650
21,008667	0,5	-1,510700
21,017000	0,5	-1,497850
21,025333	0,5	-1,500600
21,033667	0,5	-1,501150
21,042000	0,5	-1,499750
21,050333	0,5	-1,506250
21,058667	0,5	-1,519300
21,067000	0,5	-1,521850
21,075333	0,5	-1,527700
21,083667	0,5	-1,515800
21,092000	0,5	-1,511950
21,100333	0,5	-1,506550
21,108667	0,5	-1,498950
21,117000	0,5	-1,492300
21,125333	0,5	-1,486800
21,133667	0,5	-1,474250
21,142000	0,5	-1,471950
21,150333	0,5	-1,447550
21,158667	0,5	-1,429200
21,167000	0,5	-1,414800
21,175333	0,5	-1,412000
21,183667	0,5	-1,406700
21,192000	0,5	-1,405000
21,200333	0,5	-1,417150
21,208667	0,5	-1,430000
21,217000	0,5	-1,425200
21,225333	0,5	-1,412150
21,233667	0,5	-1,411150
21,242000	0,5	-1,406700
21,250333	0,5	-1,402800
21,258667	0,5	-1,394550
21,267000	0,5	-1,392600
21,275333	0,5	-1,377600
21,283667	0,5	-1,384550
21,292000	0,5	-1,374100
21,300333	0,5	-1,345350
21,308667	0,5	-1,326350
21,317000	0,5	-1,328700
21,325333	0,5	-1,326350
21,333667	0,5	-1,329050
21,342000	0,5	-1,330100
21,350333	0,5	-1,335000
21,358667	0,5	-1,347500
21,367000	0,5	-1,335150
21,375333	0,5	-1,331650
21,383667	0,5	-1,325600
21,392000	0,5	-1,319100
21,400333	0,5	-1,311400
21,408667	0,5	-1,310000
21,417000	0,5	-1,298400
21,425333	0,5	-1,293000
21,433667	0,5	-1,285000
21,442000	0,5	-1,277700
21,450333	0,5	-1,241950
21,458667	0,5	-1,227150
21,467000	0,5	-1,222500
21,475333	0,5	-1,216950
21,483667	0,5	-1,209950
21,492000	0,5	-1,208200
21,500333	0,5	-1,201200
21,508667	0,5	-1,178350
21,517000	0,5	-1,151550
21,525333	0,5	-1,117000
21,533667	0,5	-1,094250
21,542000	0,5	-1,076800
21,550333	0,5	-1,075300
21,558667	0,5	-1,078700
21,567000	0,5	-1,087100
21,575333	0,5	-1,088800
21,583667	0,5	-1,091000
21,592000	0,5	-1,066350
21,600333	0,5	-1,049800
21,608667	0,5	-1,049550
21,617000	0,5	-1,043300
21,625333	0,5	-1,034050
21,633667	0,5	-1,032400
21,642000	0,5	-1,035700
21,650333	0,5	-1,034750
21,658667	0,5	-1,021000
21,667000	0,5	-1,004600
21,675333	0,5	-0,996350
21,683667	0,5	-0,981500
21,692000	0,5	-0,960600
21,700333	0,5	-0,940350
21,708667	0,5	-0,922850
21,717000	0,5	-0,897000
21,725333	0,5	-0,885350
21,733667	0,5	-0,862600
21,742000	0,5	-0,827750
21,750333	0,5	-0,805100
21,758667	0,5	-0,810800
21,767000	0,5	-0,787450
21,775333	0,5	-0,780900
21,783667	0,5	-0,773350
21,792000	0,5	-0,771850
21,800333	0,5	-0,765350
21,808667	0,5	-0,745200
21,817000	0,5	-0,728100
21,825333	0,5	-0,714100
21,833667	0,5	-0,704950
21,842000	0,5	-0,688600
21,850333	0,5	-0,675100
21,858667	0,5	-0,654000
21,867000	0,5	-0,637250
21,875333	0,5	-0,614400
21,883667	0,5	-0,587700
21,892000	0,5	-0,556800
21,900333	0,5	-0,549500
21,908667	0,5	-0,523050
21,917000	0,5	-0,510300
21,925333	0,5	-0,490400
21,933667	0,5	-0,482500
21,942000	0,5	-0,470700
21,950333	0,5	-0,445400
21,958667	0,5	-0,418150
21,967000	0,5	-0,391600
21,975333	0,5	-0,369950
21,983667	0,5	-0,342800
21,992000	0,5	-0,322450
22,000333	0,5	-0,294500
22,008667	0,5	-0,268450
22,017000	0,5	-0,238350
22,025333	0,5	-0,213000
22,033667	0,5	-0,170300
22,042000	0,5	-0,154600
22,050333	0,5	-0,120500
22,058667	0,5	-0,079800
22,067000	0,5	-0,041850
22,075333	0,5	-0,014250
22,083667	0,5	0,009700
22,092000	0,5	0,048100
22,100333	0,5	0,084600
22,108667	0,5	0,122450
22,117000	0,5	0,155100
22,125333	0,5	0,185500
22,133667	0,5	0,207250
22,142000	0,5	0,236800
22,150333	0,5	0,261350
22,158667	0,5	0,291350
22,167000	0,5	0,315350
22,175333	0,5	0,354400
22,183667	0,5	0,383500
22,192000	0,5	0,418450
22,200333	0,5	0,466200
22,208667	0,5	0,508600
22,217000	0,5	0,540950
22,225333	0,5	0,579650
22,233667	0,5	0,609000
22,242000	0,5	0,654350
22,250333	0,5	0,704350
22,258667	0,5	0,743100
22,267000	0,5	0,783450
22,275333	0,5	0,818750
22,283667	0,5	0,861400
22,292000	0,5	0,899500
22,300333	0,5	0,952600
22,308667	0,5	0,989650
22,317000	0,5	1,041150
22,325333	0,5	1,077400
22,333667	0,5	1,127050
22,342000	0,5	1,187450
22,350333	0,5	1,259700
22,358667	0,5	1,313450
22,367000	0,5	1,362800
22,375333	0,5	1,402550
22,383667	0,5	1,455900
22,392000	0,5	1,509950
22,400333	0,5	1,560700
22,408667	0,5	1,618150
22,417000	0,5	1,667850
22,425333	0,5	1,730450
22,433667	0,5	1,782750
22,442000	0,5	1,847300
22,450333	0,5	1,903800
22,458667	0,5	1,964300
22,467000	0,5	2,002900
22,475333	0,5	2,055250
22,483667	0,5	2,105200
22,492000	0,5	2,198250
22,500333	0,5	2,257050
22,508667	0,5	2,312550
22,517000	0,5	2,359650
22,525333	0,5	2,399200
22,533667	0,5	2,460700
22,542000	0,5	2,515050
22,550333	0,5	2,558550
22,558667	0,5	2,606500
22,567000	0,5	2,648100
22,575333	0,5	2,684950
22,583667	0,5	2,719300
22,592000	0,5	2,741350
22,600333	0,5	2,769650
22,608667	0,5	2,779200
22,617000	0,5	2,756600
22,625333	0,5	2,765250
22,633667	0,5	2,781300
22,642000	0,5	2,795550
22,650333	0,5	2,782550
22,658667	0,5	2,757250
22,667000	0,5	2,726800
22,675333	0,5	2,682400
22,683667	0,5	2,656350
22,692000	0,5	2,617450
22,700333	0,5	2,571250
22,708667	0,5	2,521300
22,717000	0,5	2,466250
22,725333	0,5	2,406750
22,733667	0,5	2,346250
22,742000	0,5	2,275700
22,750333	0,5	2,192400
22,758667	0,5	2,089750
22,767000	0,5	1,959650
22,775333	0,5	1,887800
22,783667	0,5	1,800450
22,792000	0,5	1,701250
22,800333	0,5	1,585500
22,808667	0,5	1,470850
22,817000	0,5	1,346250
22,825333	0,5	1,223850
22,833667	0,5	1,109700
22,842000	0,5	0,986600
22,850333	0,5	0,869250
22,858667	0,5	0,752600
22,867000	0,5	0,631900
22,875333	0,5	0,516000
22,883667	0,5	0,391150
22,892000	0,5	0,275050
22,900333	0,5	0,145650
22,908667	0,5	0,019050
22,917000	0,5	-0,110800
22,925333	0,5	-0,221650
22,933667	0,5	-0,355850
22,942000	0,5	-0,482750
22,950333	0,5	-0,608600
22,958667	0,5	-0,710150
22,967000	0,5	-0,822250
22,975333	0,5	-0,926850
22,983667	0,5	-1,029950
22,992000	0,5	-1,119100
23,000333	0,5	-1,208950
23,008667	0,5	-1,290100
23,017000	0,5	-1,374650
23,025333	0,5	-1,458250
23,033667	0,5	-1,530800
23,042000	0,5	-1,616100
23,050333	0,5	-1,671700
23,058667	0,5	-1,745600
23,067000	0,5	-1,812800
23,075333	0,5	-1,892950
23,083667	0,5	-1,985950
23,092000	0,5	-2,041700
23,100333	0,5	-2,091850
23,108667	0,5	-2,133750
23,117000	0,5	-2,172450
23,125333	0,5	-2,213300
23,133667	0,5	-2,242550
23,142000	0,5	-2,269950
23,150333	0,5	-2,288750
23,158667	0,5	-2,305050
23,167000	0,5	-2,324300
23,175333	0,5	-2,342450
23,183667	0,5	-2,361750
23,192000	0,5	-2,372350
23,200333	0,5	-2,370400
23,208667	0,5	-2,407250
23,217000	0,5	-2,401450
23,225333	0,5	-2,437600
23,233667	0,5	-2,476650
23,242000	0,5	-2,476150
23,250333	0,5	-2,481950
23,258667	0,5	-2,469000
23,267000	0,5	-2,477600
23,275333	0,5	-2,465700
23,283667	0,5	-2,460950
23,292000	0,5	-2,435400
23,300333	0,5	-2,420500
23,308667	0,5	-2,398800
23,317000	0,5	-2,383600
23,325333	0,5	-2,361400
23,333667	0,5	-2,342150
23,342000	0,5	-2,325250
23,350333	0,5	-2,340000
23,358667	0,5	-2,305750
23,367000	0,5	-2,266150
23,375333	0,5	-2,268400
23,383667	0,5	-2,276150
23,392000	0,5	-2,266700
23,400333	0,5	-2,247900
23,408667	0,5	-2,231000
23,417000	0,5	-2,217200
23,425333	0,5	-2,203500
23,433667	0,5	-2,173550
23,442000	0,5	-2,151200
23,450333	0,5	-2,118850
23,458667	0,5	-2,093800
23,467000	0,5	-2,063950
23,475333	0,5	-2,039100
23,483667	0,5	-2,006700
23,492000	0,5	-1,986850
23,500333	0,5	-2,022700
23,508667	0,5	-1,970700
23,517000	0,5	-1,918950
23,525333	0,5	-1,897200
23,533667	0,5	-1,890800
23,542000	0,5	-1,874850
23,550333	0,5	-1,862100
23,558667	0,5	-1,841550
23,567000	0,5	-1,830550
23,575333	0,5	-1,811150
23,583667	0,5	-1,796750
23,592000	0,5	-1,778450
23,600333	0,5	-1,761150
23,608667	0,5	-1,739350
23,617000	0,5	-1,723000
23,625333	0,5	-1,701700
23,633667	0,5	-1,684800
23,642000	0,5	-1,754900
23,650333	0,5	-1,731450
23,658667	0,5	-1,701750
23,667000	0,5	-1,631600
23,675333	0,5	-1,609900
23,683667	0,5	-1,591450
23,692000	0,5	-1,580200
23,700333	0,5	-1,566900
23,708667	0,5	-1,550350
23,717000	0,5	-1,535200
23,725333	0,5	-1,515050
23,733667	0,5	-1,499250
23,742000	0,5	-1,482850
23,750333	0,5	-1,467700
23,758667	0,5	-1,450950
23,767000	0,5	-1,437350
23,775333	0,5	-1,424450
23,783667	0,5	-1,416950
23,792000	0,5	-1,546850
23,800333	0,5	-1,504650
23,808667	0,5	-1,458500
23,817000	0,5	-1,408000
23,825333	0,5	-1,378950
23,833667	0,5	-1,366900
23,842000	0,5	-1,360250
23,850333	0,5	-1,355650
23,858667	0,5	-1,342550
23,867000	0,5	-1,326800
23,875333	0,5	-1,309050
23,883667	0,5	-1,290850
23,892000	0,5	-1,273400
23,900333	0,5	-1,253250
23,908667	0,5	-1,234650
23,917000	0,5	-1,214800
23,925333	0,5	-1,201850
23,933667	0,5	-1,227350
23,942000	0,5	-1,313150
23,950333	0,5	-1,266850
23,958667	0,5	-1,223300
23,967000	0,5	-1,166600
23,975333	0,5	-1,151550
23,983667	0,5	-1,131100
23,992000	0,5	-1,131900
24,000333	0,5	-1,127200
24,008667	0,5	-1,110600
24,017000	0,5	-1,091700
24,025333	0,5	-1,082550
24,033667	0,5	-1,066000
24,042000	0,5	-1,052200
24,050333	0,5	-1,035350
24,058667	0,5	-1,017250
24,067000	0,5	-1,002050
24,075333	0,5	-0,984250
24,083667	0,5	-1,077700
24,092000	0,5	-1,068500
24,100333	0,5	-1,040300
24,108667	0,5	-0,979750
24,117000	0,5	-0,937600
24,125333	0,5	-0,918800
24,133667	0,5	-0,900300
24,142000	0,5	-0,897050
24,150333	0,5	-0,880350
24,158667	0,5	-0,862050
24,167000	0,5	-0,847550
24,175333	0,5	-0,824900
24,183667	0,5	-0,811100
24,192000	0,5	-0,792000
24,200333	0,5	-0,775600
24,208667	0,5	-0,756150
24,217000	0,5	-0,743850
24,225333	0,5	-0,739000
24,233667	0,5	-0,819850
24,242000	0,5	-0,803850
24,250333	0,5	-0,770200
24,258667	0,5	-0,725250
24,267000	0,5	-0,694400
24,275333	0,5	-0,686600
24,283667	0,5	-0,675200
24,292000	0,5	-0,670550
24,300333	0,5	-0,646450
24,308667	0,5	-0,633700
24,317000	0,5	-0,611750
24,325333	0,5	-0,598750
24,333667	0,5	-0,574900
24,342000	0,5	-0,560650
24,350333	0,5	-0,540550
24,358667	0,5	-0,523800
24,367000	0,5	-0,508600
24,375333	0,5	-0,525700
24,383667	0,5	-0,567350
24,392000	0,5	-0,542550
24,400333	0,5	-0,509650
24,408667	0,5	-0,471750
24,417000	0,5	-0,455000
24,425333	0,5	-0,442250
24,433667	0,5	-0,437150
24,442000	0,5	-0,430750
24,450333	0,5	-0,418250
24,458667	0,5	-0,401500
24,467000	0,5	-0,395700
24,475333	0,5	-0,380700
24,483667	0,5	-0,372700
24,492000	0,5	-0,357150
24,500333	0,5	-0,345700
24,508667	0,5	-0,329600
24,517000	0,5	-0,323000
24,525333	0,5	-0,373000
24,533667	0,5	-0,352350
24,542000	0,5	-0,336450
24,550333	0,5	-0,305750
24,558667	0,5	-0,275200
24,567000	0,5	-0,255400
24,575333	0,5	-0,252500
24,583667	0,5	-0,255050
24,592000	0,5	-0,246600
24,600333	0,5	-0,227400
24,608667	0,5	-0,221100
24,617000	0,5	-0,207400
24,625333	0,5	-0,196950
24,633667	0,5	-0,184350
24,642000	0,5	-0,175450
24,650333	0,5	-0,164750
24,658667	0,5	-0,159450
24,667000	0,5	-0,153300
24,675333	0,5	-0,197700
24,683667	0,5	-0,171500
24,692000	0,5	-0,164900
24,700333	0,5	-0,137950
24,708667	0,5	-0,124900
24,717000	0,5	-0,113250
24,725333	0,5	-0,108650
24,733667	0,5	-0,113950
24,742000	0,5	-0,100800
24,750333	0,5	-0,089800
24,758667	0,5	-0,077700
24,767000	0,5	-0,069750
24,775333	0,5	-0,061300
24,783667	0,5	-0,054050
24,792000	0,5	-0,041850
24,800333	0,5	-0,032600
24,808667	0,5	-0,019650
24,817000	0,5	-0,033050
24,825333	0,5	-0,045550
24,833667	0,5	-0,028350
24,842000	0,5	-0,014650
24,850333	0,5	-0,000700
24,858667	0,5	0,011600
24,867000	0,5	0,014850
24,875333	0,5	0,015650
24,883667	0,5	0,012000
24,892000	0,5	0,017000
24,900333	0,5	0,022900
24,908667	0,5	0,026550
24,917000	0,5	0,035450
24,925333	0,5	0,037900
24,933667	0,5	0,046900
24,942000	0,5	0,055200
24,950333	0,5	0,062050
24,958667	0,5	0,066550
24,967000	0,5	0,054850
24,975333	0,5	0,055450
24,983667	0,5	0,067900
24,992000	0,5	0,079100
25,000333	0,5	0,091150
25,008667	0,5	0,093650
25,017000	0,5	0,101800
25,025333	0,5	0,097600
25,033667	0,5	0,101400
25,042000	0,5	0,103400
25,050333	0,5	0,108300
25,058667	0,5	0,112450
25,067000	0,5	0,118200
25,075333	0,5	0,120050
25,083667	0,5	0,123650
25,092000	0,5	0,127800
25,100333	0,5	0,131150
25,108667	0,5	0,131200
25,117000	0,5	0,123900
25,125333	0,5	0,127450
25,133667	0,5	0,131300
25,142000	0,5	0,141950
25,150333	0,5	0,145500
25,158667	0,5	0,151900
25,167000	0,5	0,154350
25,175333	0,5	0,154100
25,183667	0,5	0,155650
25,192000	0,5	0,159150
25,200333	0,5	0,163750
25,208667	0,5	0,163250
25,217000	0,5	0,167850
25,225333	0,5	0,169600
25,233667	0,5	0,172750
25,242000	0,5	0,177750
25,250333	0,5	0,177300
25,258667	0,5	0,179450
25,267000	0,5	0,177500
25,275333	0,5	0,181600
25,283667	0,5	0,180750
25,292000	0,5	0,183600
25,300333	0,5	0,182800
25,308667	0,5	0,183500
25,317000	0,5	0,186350
25,325333	0,5	0,182950
25,333667	0,5	0,185900
25,342000	0,5	0,186550
25,350333	0,5	0,189250
25,358667	0,5	0,188750
25,367000	0,5	0,190900
25,375333	0,5	0,195450
25,383667	0,5	0,197650
25,392000	0,5	0,201150
25,400333	0,5	0,202100
25,408667	0,5	0,202750
25,417000	0,5	0,208000
25,425333	0,5	0,208800
25,433667	0,5	0,210600
25,442000	0,5	0,209800
25,450333	0,5	0,207000
25,458667	0,5	0,207200
25,467000	0,5	0,207950
25,475333	0,5	0,204650
25,483667	0,5	0,205700
25,492000	0,5	0,205050
25,500333	0,5	0,204900
25,508667	0,5	0,204400
25,517000	0,5	0,206550
25,525333	0,5	0,204450
25,533667	0,5	0,207350
25,542000	0,5	0,208050
25,550333	0,5	0,210400
25,558667	0,5	0,214200
25,567000	0,5	0,216500
25,575333	0,5	0,216950
25,583667	0,5	0,215900
25,592000	0,5	0,214400
25,600333	0,5	0,212350
25,608667	0,5	0,214100
25,617000	0,5	0,218350
25,625333	0,5	0,217450
25,633667	0,5	0,216450
25,642000	0,5	0,216550
25,650333	0,5	0,215300
25,658667	0,5	0,214900
25,667000	0,5	0,214050
25,675333	0,5	0,211550
25,683667	0,5	0,210100
25,692000	0,5	0,211400
25,700333	0,5	0,210800
25,708667	0,5	0,217750
25,717000	0,5	0,214850
25,725333	0,5	0,219050
25,733667	0,5	0,211600
25,742000	0,5	0,214350
25,750333	0,5	0,211850
25,758667	0,5	0,215950
25,767000	0,5	0,221250
25,775333	0,5	0,220200
25,783667	0,5	0,218750
25,792000	0,5	0,214800
25,800333	0,5	0,216800
25,808667	0,5	0,218750
25,817000	0,5	0,220100
25,825333	0,5	0,217050
25,833667	0,5	0,219100
25,842000	0,5	0,215750
25,850333	0,5	0,221850
25,858667	0,5	0,226050
25,867000	0,5	0,228200
25,875333	0,5	0,226000
25,883667	0,5	0,220500
25,892000	0,5	0,223100
25,900333	0,5	0,225100
25,908667	0,5	0,228500
25,917000	0,5	0,237950
25,925333	0,5	0,235800
25,933667	0,5	0,236250
25,942000	0,5	0,232450
25,950333	0,5	0,233300
25,958667	0,5	0,232850
25,967000	0,5	0,230300
25,975333	0,5	0,230750
25,983667	0,5	0,232500
25,992000	0,5	0,232900
26,000333	0,5	0,232350
